#wls	flux	fluxerr
1.587256E+03	1.579467E-18	1.788278E-19
1.626937E+03	1.688599E-18	1.911743E-19
1.666619E+03	1.777012E-18	2.011737E-19
1.706300E+03	1.840022E-18	2.082961E-19
1.745982E+03	1.872604E-18	2.119730E-19
1.785663E+03	1.866067E-18	2.112212E-19
1.825344E+03	1.811962E-18	2.050852E-19
1.865026E+03	1.703643E-18	1.928139E-19
1.904707E+03	1.541167E-18	1.744146E-19
1.944389E+03	1.334612E-18	1.510291E-19
1.984070E+03	1.107892E-18	1.253646E-19
2.023751E+03	8.947249E-19	1.012367E-19
2.063433E+03	7.281611E-19	8.238457E-20
2.103114E+03	6.299623E-19	7.126923E-20
2.142795E+03	6.091530E-19	6.890999E-20
2.182477E+03	6.700020E-19	7.578777E-20
2.222158E+03	8.190978E-19	9.264566E-20
2.261840E+03	1.063726E-18	1.203052E-19
2.301521E+03	1.405873E-18	1.589882E-19
2.341202E+03	1.839123E-18	2.079664E-19
2.380884E+03	2.350285E-18	2.657449E-19
2.420565E+03	2.922538E-18	3.304195E-19
2.460247E+03	3.540546E-18	4.002541E-19
2.499928E+03	4.191538E-18	4.738031E-19
2.539609E+03	4.866167E-18	5.500083E-19
2.579291E+03	5.558172E-18	6.281606E-19
2.618972E+03	6.263725E-18	7.078264E-19
2.658654E+03	6.981760E-18	7.888838E-19
2.698335E+03	7.710561E-18	8.711381E-19
2.738016E+03	8.449992E-18	9.545724E-19
2.777698E+03	9.201662E-18	1.039367E-18
2.817379E+03	9.966408E-18	1.125616E-18
2.857061E+03	1.074369E-17	1.213256E-18
2.896742E+03	1.153730E-17	1.302715E-18
2.936423E+03	1.234509E-17	1.393749E-18
2.976105E+03	1.317109E-17	1.486810E-18
2.986025E+03	1.338138E-17	1.510497E-18
2.995946E+03	1.359056E-17	1.534059E-18
3.005866E+03	1.380217E-17	1.557892E-18
3.015786E+03	1.401723E-17	1.582113E-18
3.025707E+03	1.423564E-17	1.606711E-18
3.035627E+03	1.446492E-17	1.632532E-18
3.045547E+03	1.470223E-17	1.659259E-18
3.055468E+03	1.494728E-17	1.686856E-18
3.065388E+03	1.520114E-17	1.715444E-18
3.075308E+03	1.546110E-17	1.744720E-18
3.085229E+03	1.572639E-17	1.774594E-18
3.095149E+03	1.599630E-17	1.804987E-18
3.105069E+03	1.627219E-17	1.836052E-18
3.114990E+03	1.655143E-17	1.867492E-18
3.124910E+03	1.683551E-17	1.899476E-18
3.134830E+03	1.711970E-17	1.931470E-18
3.144751E+03	1.740771E-17	1.963891E-18
3.154671E+03	1.769693E-17	1.996447E-18
3.164591E+03	1.798913E-17	2.029335E-18
3.174512E+03	1.828171E-17	2.062264E-18
3.184432E+03	1.857429E-17	2.095191E-18
3.194353E+03	1.886651E-17	2.128073E-18
3.204273E+03	1.916036E-17	2.161135E-18
3.214193E+03	1.945327E-17	2.194090E-18
3.224114E+03	1.974498E-17	2.226905E-18
3.234034E+03	2.003764E-17	2.259824E-18
3.243954E+03	2.032869E-17	2.292559E-18
3.253875E+03	2.061794E-17	2.325088E-18
3.263795E+03	2.090771E-17	2.357673E-18
3.273715E+03	2.119545E-17	2.390025E-18
3.283636E+03	2.148103E-17	2.422131E-18
3.293556E+03	2.176437E-17	2.453981E-18
3.303476E+03	2.204797E-17	2.485857E-18
3.313397E+03	2.232927E-17	2.517470E-18
3.323317E+03	2.261083E-17	2.549110E-18
3.333237E+03	2.288747E-17	2.580192E-18
3.343158E+03	2.316443E-17	2.611306E-18
3.353078E+03	2.344178E-17	2.642462E-18
3.362998E+03	2.371426E-17	2.673065E-18
3.372919E+03	2.398728E-17	2.703726E-18
3.382839E+03	2.426094E-17	2.734457E-18
3.392760E+03	2.452992E-17	2.764656E-18
3.402680E+03	2.479976E-17	2.794948E-18
3.412600E+03	2.506784E-17	2.825038E-18
3.422521E+03	2.533705E-17	2.855254E-18
3.432441E+03	2.560476E-17	2.885297E-18
3.442361E+03	2.587108E-17	2.915179E-18
3.452282E+03	2.613615E-17	2.944918E-18
3.462202E+03	2.640296E-17	2.974849E-18
3.472122E+03	2.666883E-17	3.004671E-18
3.482043E+03	2.693390E-17	3.034399E-18
3.491963E+03	2.720122E-17	3.064377E-18
3.501883E+03	2.746807E-17	3.094299E-18
3.511804E+03	2.773460E-17	3.124181E-18
3.521724E+03	2.800392E-17	3.154374E-18
3.531644E+03	2.827327E-17	3.184567E-18
3.541565E+03	2.854279E-17	3.214776E-18
3.551485E+03	2.881567E-17	3.245358E-18
3.561405E+03	2.908605E-17	3.275656E-18
3.571326E+03	2.936012E-17	3.306366E-18
3.581246E+03	2.963809E-17	3.337511E-18
3.591167E+03	2.991403E-17	3.368424E-18
3.601087E+03	3.019422E-17	3.399811E-18
3.611007E+03	3.047884E-17	3.431693E-18
3.620928E+03	3.076191E-17	3.463396E-18
3.630848E+03	3.104975E-17	3.495633E-18
3.640768E+03	3.133943E-17	3.528073E-18
3.650689E+03	3.163112E-17	3.560735E-18
3.660609E+03	3.192812E-17	3.593990E-18
3.670529E+03	3.222744E-17	3.627502E-18
3.680450E+03	3.252925E-17	3.661290E-18
3.690370E+03	3.283368E-17	3.695368E-18
3.700290E+03	3.314409E-17	3.730116E-18
3.710211E+03	3.345745E-17	3.765190E-18
3.720131E+03	3.377389E-17	3.800607E-18
3.730051E+03	3.409681E-17	3.836748E-18
3.739972E+03	3.441985E-17	3.872898E-18
3.749892E+03	3.474968E-17	3.909807E-18
3.759812E+03	3.508318E-17	3.947124E-18
3.769733E+03	3.542380E-17	3.985236E-18
3.779653E+03	3.576503E-17	4.023413E-18
3.789574E+03	3.611369E-17	4.062420E-18
3.799494E+03	3.646657E-17	4.101897E-18
3.809414E+03	3.682720E-17	4.142239E-18
3.819335E+03	3.718891E-17	4.182698E-18
3.829255E+03	3.755866E-17	4.224056E-18
3.839175E+03	3.793318E-17	4.265943E-18
3.849096E+03	3.831258E-17	4.308375E-18
3.859016E+03	3.869698E-17	4.351363E-18
3.868936E+03	3.909003E-17	4.395316E-18
3.878857E+03	3.948484E-17	4.439462E-18
3.888777E+03	3.988857E-17	4.484605E-18
3.898697E+03	4.029784E-17	4.530364E-18
3.908618E+03	4.071635E-17	4.577156E-18
3.918538E+03	4.113708E-17	4.624190E-18
3.928458E+03	4.156371E-17	4.671881E-18
3.938379E+03	4.200004E-17	4.720655E-18
3.948299E+03	4.244258E-17	4.770121E-18
3.958219E+03	4.289147E-17	4.820293E-18
3.968140E+03	4.334686E-17	4.871189E-18
3.978060E+03	4.380890E-17	4.922824E-18
3.987981E+03	4.427775E-17	4.975217E-18
3.997901E+03	4.475738E-17	5.028813E-18
4.007821E+03	4.524042E-17	5.082785E-18
4.017742E+03	4.573469E-17	5.138010E-18
4.027662E+03	4.623277E-17	5.193656E-18
4.037582E+03	4.674258E-17	5.250612E-18
4.047503E+03	4.726059E-17	5.308479E-18
4.057423E+03	4.778706E-17	5.367288E-18
4.067343E+03	4.832230E-17	5.427075E-18
4.077264E+03	4.886665E-17	5.487874E-18
4.087184E+03	4.942043E-17	5.549725E-18
4.097104E+03	4.998401E-17	5.612665E-18
4.107025E+03	5.055772E-17	5.676735E-18
4.116945E+03	5.114195E-17	5.741975E-18
4.126865E+03	5.173704E-17	5.808425E-18
4.136786E+03	5.234748E-17	5.876588E-18
4.146706E+03	5.296533E-17	5.945573E-18
4.156626E+03	5.359501E-17	6.015876E-18
4.166547E+03	5.423683E-17	6.087530E-18
4.176467E+03	5.489102E-17	6.160561E-18
4.186387E+03	5.555780E-17	6.234995E-18
4.196308E+03	5.623736E-17	6.310852E-18
4.206228E+03	5.692985E-17	6.388146E-18
4.216149E+03	5.763534E-17	6.466890E-18
4.226069E+03	5.835393E-17	6.547089E-18
4.235989E+03	5.908110E-17	6.628240E-18
4.245910E+03	5.982581E-17	6.711344E-18
4.255830E+03	6.058351E-17	6.795894E-18
4.265750E+03	6.134947E-17	6.881357E-18
4.275671E+03	6.212810E-17	6.968227E-18
4.285591E+03	6.292389E-17	7.057009E-18
4.295511E+03	6.372728E-17	7.146628E-18
4.305432E+03	6.454265E-17	7.237577E-18
4.315352E+03	6.536491E-17	7.329285E-18
4.325272E+03	6.620334E-17	7.422790E-18
4.335193E+03	6.705281E-17	7.517518E-18
4.345113E+03	6.790799E-17	7.612872E-18
4.355033E+03	6.877335E-17	7.709352E-18
4.364954E+03	6.964844E-17	7.806906E-18
4.374874E+03	7.053281E-17	7.905485E-18
4.384794E+03	7.142595E-17	8.005031E-18
4.394715E+03	7.232215E-17	8.104904E-18
4.404635E+03	7.322592E-17	8.205609E-18
4.414556E+03	7.413664E-17	8.307076E-18
4.424476E+03	7.505367E-17	8.409233E-18
4.434396E+03	7.597096E-17	8.511403E-18
4.444317E+03	7.689844E-17	8.614698E-18
4.454237E+03	7.782460E-17	8.717826E-18
4.464157E+03	7.874849E-17	8.820685E-18
4.474078E+03	7.968025E-17	8.924408E-18
4.483998E+03	8.060803E-17	9.027666E-18
4.493918E+03	8.153648E-17	9.130983E-18
4.503839E+03	8.245911E-17	9.233630E-18
4.513759E+03	8.338647E-17	9.336790E-18
4.523679E+03	8.430639E-17	9.439099E-18
4.533600E+03	8.522391E-17	9.541121E-18
4.543520E+03	8.613255E-17	9.642133E-18
4.553440E+03	8.703761E-17	9.742726E-18
4.563361E+03	8.793872E-17	9.842859E-18
4.573281E+03	8.882963E-17	9.941833E-18
4.583201E+03	8.972217E-17	1.004097E-17
4.593122E+03	9.059830E-17	1.013826E-17
4.603042E+03	9.147630E-17	1.023573E-17
4.612963E+03	9.234433E-17	1.033208E-17
4.622883E+03	9.320895E-17	1.042803E-17
4.632803E+03	9.406457E-17	1.052295E-17
4.642724E+03	9.491808E-17	1.061762E-17
4.652644E+03	9.576408E-17	1.071143E-17
4.662564E+03	9.661609E-17	1.080589E-17
4.672485E+03	9.746252E-17	1.089972E-17
4.682405E+03	9.830439E-17	1.099302E-17
4.692325E+03	9.914921E-17	1.108663E-17
4.702246E+03	9.999818E-17	1.118069E-17
4.712166E+03	1.008460E-16	1.127460E-17
4.722086E+03	1.017003E-16	1.136922E-17
4.732007E+03	1.025556E-16	1.146393E-17
4.741927E+03	1.034197E-16	1.155961E-17
4.751847E+03	1.042937E-16	1.165638E-17
4.761768E+03	1.051718E-16	1.175358E-17
4.771688E+03	1.060617E-16	1.185209E-17
4.781608E+03	1.069574E-16	1.195124E-17
4.791529E+03	1.078667E-16	1.205187E-17
4.801449E+03	1.087901E-16	1.215407E-17
4.811370E+03	1.097215E-16	1.225714E-17
4.821290E+03	1.106684E-16	1.236193E-17
4.831210E+03	1.116243E-16	1.246770E-17
4.841131E+03	1.125968E-16	1.257530E-17
4.851051E+03	1.135792E-16	1.268398E-17
4.860971E+03	1.145790E-16	1.279459E-17
4.870892E+03	1.155894E-16	1.290638E-17
4.880812E+03	1.166181E-16	1.302017E-17
4.890732E+03	1.176655E-16	1.313604E-17
4.900653E+03	1.187246E-16	1.325319E-17
4.910573E+03	1.198032E-16	1.337248E-17
4.920493E+03	1.208940E-16	1.349313E-17
4.930414E+03	1.219974E-16	1.361515E-17
4.940334E+03	1.231285E-16	1.374025E-17
4.950254E+03	1.242727E-16	1.386678E-17
4.960175E+03	1.254298E-16	1.399473E-17
4.970095E+03	1.266077E-16	1.412498E-17
4.980015E+03	1.277985E-16	1.425663E-17
4.989936E+03	1.290099E-16	1.439057E-17
4.999856E+03	1.302415E-16	1.452674E-17
5.009777E+03	1.314853E-16	1.466423E-17
5.019697E+03	1.327483E-16	1.480385E-17
5.029617E+03	1.340218E-16	1.494460E-17
5.039538E+03	1.353129E-16	1.508731E-17
5.049458E+03	1.366122E-16	1.523089E-17
5.059378E+03	1.379264E-16	1.537611E-17
5.069299E+03	1.392454E-16	1.552183E-17
5.079219E+03	1.405753E-16	1.566875E-17
5.089139E+03	1.419055E-16	1.581567E-17
5.099060E+03	1.432417E-16	1.596324E-17
5.108980E+03	1.445811E-16	1.611112E-17
5.118900E+03	1.459115E-16	1.625800E-17
5.128821E+03	1.472384E-16	1.640444E-17
5.138741E+03	1.485490E-16	1.654905E-17
5.148661E+03	1.498482E-16	1.669234E-17
5.158582E+03	1.511227E-16	1.683288E-17
5.168502E+03	1.523772E-16	1.697115E-17
5.178422E+03	1.535980E-16	1.710565E-17
5.188343E+03	1.547896E-16	1.723688E-17
5.198263E+03	1.559475E-16	1.736432E-17
5.208183E+03	1.570578E-16	1.748644E-17
5.218104E+03	1.581158E-16	1.760273E-17
5.228024E+03	1.591357E-16	1.771473E-17
5.237945E+03	1.600942E-16	1.781990E-17
5.247865E+03	1.609874E-16	1.791777E-17
5.257785E+03	1.618206E-16	1.800895E-17
5.267706E+03	1.625805E-16	1.809196E-17
5.277626E+03	1.632827E-16	1.816853E-17
5.287546E+03	1.638955E-16	1.823514E-17
5.297467E+03	1.644354E-16	1.829362E-17
5.307387E+03	1.648997E-16	1.834369E-17
5.317307E+03	1.652866E-16	1.838514E-17
5.327228E+03	1.655848E-16	1.841672E-17
5.337148E+03	1.657932E-16	1.843830E-17
5.347068E+03	1.659305E-16	1.845197E-17
5.356989E+03	1.659673E-16	1.845447E-17
5.366909E+03	1.659328E-16	1.844904E-17
5.376829E+03	1.658085E-16	1.843362E-17
5.386750E+03	1.656049E-16	1.840940E-17
5.396670E+03	1.653141E-16	1.837548E-17
5.406590E+03	1.649477E-16	1.833317E-17
5.416511E+03	1.644985E-16	1.828166E-17
5.426431E+03	1.639790E-16	1.822236E-17
5.436352E+03	1.633926E-16	1.815563E-17
5.446272E+03	1.627337E-16	1.808085E-17
5.456192E+03	1.620157E-16	1.799952E-17
5.466113E+03	1.612432E-16	1.791216E-17
5.476033E+03	1.604122E-16	1.781831E-17
5.485953E+03	1.595374E-16	1.771962E-17
5.495874E+03	1.586152E-16	1.761569E-17
5.505794E+03	1.576703E-16	1.750924E-17
5.515714E+03	1.566816E-16	1.739796E-17
5.525635E+03	1.556832E-16	1.728561E-17
5.535555E+03	1.546638E-16	1.717096E-17
5.545475E+03	1.536397E-16	1.705580E-17
5.555396E+03	1.526091E-16	1.693995E-17
5.565316E+03	1.515881E-16	1.682519E-17
5.575236E+03	1.505841E-16	1.671233E-17
5.585157E+03	1.495957E-16	1.660121E-17
5.595077E+03	1.486385E-16	1.649359E-17
5.604997E+03	1.477197E-16	1.639025E-17
5.614918E+03	1.468460E-16	1.629193E-17
5.624838E+03	1.460156E-16	1.619842E-17
5.634759E+03	1.452433E-16	1.611138E-17
5.644679E+03	1.445268E-16	1.603055E-17
5.654599E+03	1.438803E-16	1.595749E-17
5.664520E+03	1.433090E-16	1.589280E-17
5.674440E+03	1.428181E-16	1.583703E-17
5.684360E+03	1.424041E-16	1.578979E-17
5.694281E+03	1.420796E-16	1.575249E-17
5.704201E+03	1.418486E-16	1.572556E-17
5.714121E+03	1.417066E-16	1.570851E-17
5.724042E+03	1.416732E-16	1.570350E-17
5.733962E+03	1.417271E-16	1.570817E-17
5.743882E+03	1.418954E-16	1.572551E-17
5.753803E+03	1.421641E-16	1.575399E-17
5.763723E+03	1.425520E-16	1.579566E-17
5.773643E+03	1.430362E-16	1.584801E-17
5.783564E+03	1.436433E-16	1.591396E-17
5.793484E+03	1.443583E-16	1.599186E-17
5.803404E+03	1.451909E-16	1.608278E-17
5.813325E+03	1.461426E-16	1.618687E-17
5.823245E+03	1.472147E-16	1.630428E-17
5.833166E+03	1.483998E-16	1.643420E-17
5.843086E+03	1.497079E-16	1.657770E-17
5.853006E+03	1.511400E-16	1.673493E-17
5.862927E+03	1.526976E-16	1.690603E-17
5.872847E+03	1.543733E-16	1.709018E-17
5.882767E+03	1.561862E-16	1.728948E-17
5.892688E+03	1.581199E-16	1.750214E-17
5.902608E+03	1.601759E-16	1.772829E-17
5.912528E+03	1.623740E-16	1.797015E-17
5.922449E+03	1.646976E-16	1.822586E-17
5.932369E+03	1.671575E-16	1.849661E-17
5.942289E+03	1.697554E-16	1.878259E-17
5.952210E+03	1.724930E-16	1.908399E-17
5.962130E+03	1.753717E-16	1.940096E-17
5.972050E+03	1.783825E-16	1.973249E-17
5.981971E+03	1.815361E-16	2.007978E-17
5.991891E+03	1.848331E-16	2.044287E-17
6.001811E+03	1.882733E-16	2.082175E-17
6.011732E+03	1.918560E-16	2.121634E-17
6.021652E+03	1.955682E-16	2.162520E-17
6.031573E+03	1.994183E-16	2.204923E-17
6.041493E+03	2.034143E-16	2.248935E-17
6.051413E+03	2.075157E-16	2.294107E-17
6.061334E+03	2.117516E-16	2.340758E-17
6.071254E+03	2.161021E-16	2.388670E-17
6.081174E+03	2.205441E-16	2.437588E-17
6.091095E+03	2.250913E-16	2.487661E-17
6.101015E+03	2.297038E-16	2.538450E-17
6.110935E+03	2.343779E-16	2.589912E-17
6.120856E+03	2.390951E-16	2.641844E-17
6.130776E+03	2.438341E-16	2.694011E-17
6.140696E+03	2.485576E-16	2.746000E-17
6.150617E+03	2.532682E-16	2.797839E-17
6.160537E+03	2.579091E-16	2.848903E-17
6.170457E+03	2.624647E-16	2.899019E-17
6.180378E+03	2.669191E-16	2.948011E-17
6.190298E+03	2.712089E-16	2.995180E-17
6.200218E+03	2.752997E-16	3.040145E-17
6.210139E+03	2.791893E-16	3.082884E-17
6.220059E+03	2.828281E-16	3.122849E-17
6.229979E+03	2.861667E-16	3.159496E-17
6.239900E+03	2.892073E-16	3.192849E-17
6.249820E+03	2.918874E-16	3.222220E-17
6.259741E+03	2.941980E-16	3.247509E-17
6.269661E+03	2.961338E-16	3.268660E-17
6.279581E+03	2.976424E-16	3.285095E-17
6.289502E+03	2.987272E-16	3.296852E-17
6.299422E+03	2.993618E-16	3.303642E-17
6.309342E+03	2.995775E-16	3.305810E-17
6.319263E+03	2.993581E-16	3.303177E-17
6.329183E+03	2.986920E-16	3.295620E-17
6.339103E+03	2.976250E-16	3.283641E-17
6.349024E+03	2.961367E-16	3.267018E-17
6.358944E+03	2.942807E-16	3.246343E-17
6.368864E+03	2.920445E-16	3.221478E-17
6.378785E+03	2.894697E-16	3.192884E-17
6.388705E+03	2.865829E-16	3.160854E-17
6.398625E+03	2.834288E-16	3.125882E-17
6.408546E+03	2.800022E-16	3.087911E-17
6.418466E+03	2.763494E-16	3.047452E-17
6.428386E+03	2.724829E-16	3.004643E-17
6.438307E+03	2.684637E-16	2.960156E-17
6.448227E+03	2.643028E-16	2.914115E-17
6.458148E+03	2.600261E-16	2.866805E-17
6.468068E+03	2.556590E-16	2.818504E-17
6.477988E+03	2.512096E-16	2.769304E-17
6.487909E+03	2.467299E-16	2.719777E-17
6.497829E+03	2.422107E-16	2.669822E-17
6.507749E+03	2.376997E-16	2.619964E-17
6.517670E+03	2.331858E-16	2.570080E-17
6.527590E+03	2.287128E-16	2.520654E-17
6.537510E+03	2.242681E-16	2.471547E-17
6.547431E+03	2.198788E-16	2.423057E-17
6.557351E+03	2.155704E-16	2.375465E-17
6.567271E+03	2.113286E-16	2.328612E-17
6.577192E+03	2.071768E-16	2.282758E-17
6.587112E+03	2.031371E-16	2.238144E-17
6.597032E+03	1.991939E-16	2.194598E-17
6.606953E+03	1.953679E-16	2.152349E-17
6.616873E+03	1.916666E-16	2.111479E-17
6.626793E+03	1.880969E-16	2.072064E-17
6.636714E+03	1.846653E-16	2.034175E-17
6.646634E+03	1.813774E-16	1.997873E-17
6.656555E+03	1.782384E-16	1.963215E-17
6.666475E+03	1.752530E-16	1.930254E-17
6.676395E+03	1.724255E-16	1.899034E-17
6.686316E+03	1.697595E-16	1.869598E-17
6.696236E+03	1.672584E-16	1.841981E-17
6.706156E+03	1.649252E-16	1.816217E-17
6.716077E+03	1.627626E-16	1.792334E-17
6.725997E+03	1.607728E-16	1.770357E-17
6.735917E+03	1.589581E-16	1.750310E-17
6.745838E+03	1.573106E-16	1.732108E-17
6.755758E+03	1.558513E-16	1.715978E-17
6.765678E+03	1.545719E-16	1.701834E-17
6.775599E+03	1.534740E-16	1.689688E-17
6.785519E+03	1.525494E-16	1.679453E-17
6.795439E+03	1.518181E-16	1.671346E-17
6.805360E+03	1.512718E-16	1.665278E-17
6.815280E+03	1.509117E-16	1.661262E-17
6.825200E+03	1.507300E-16	1.659211E-17
6.835121E+03	1.507461E-16	1.659338E-17
6.845041E+03	1.509522E-16	1.661557E-17
6.854962E+03	1.513405E-16	1.665782E-17
6.864882E+03	1.519308E-16	1.672232E-17
6.874802E+03	1.527062E-16	1.680720E-17
6.884723E+03	1.536870E-16	1.691468E-17
6.894643E+03	1.548562E-16	1.704291E-17
6.904563E+03	1.562345E-16	1.719415E-17
6.914484E+03	1.578047E-16	1.736652E-17
6.924404E+03	1.595880E-16	1.756233E-17
6.934324E+03	1.615668E-16	1.777967E-17
6.944245E+03	1.637627E-16	1.802089E-17
6.954165E+03	1.661574E-16	1.828399E-17
6.964085E+03	1.687623E-16	1.857022E-17
6.974006E+03	1.715892E-16	1.888087E-17
6.983926E+03	1.746181E-16	1.921376E-17
6.993846E+03	1.778598E-16	1.957004E-17
7.003767E+03	1.813252E-16	1.995096E-17
7.013687E+03	1.849916E-16	2.035397E-17
7.023607E+03	1.888681E-16	2.078010E-17
7.033528E+03	1.929523E-16	2.122908E-17
7.043448E+03	1.972405E-16	2.170050E-17
7.053369E+03	2.017278E-16	2.219382E-17
7.063289E+03	2.064080E-16	2.270837E-17
7.073209E+03	2.112733E-16	2.324327E-17
7.083130E+03	2.163142E-16	2.379750E-17
7.093050E+03	2.215195E-16	2.436981E-17
7.102970E+03	2.268617E-16	2.495717E-17
7.112891E+03	2.323532E-16	2.556096E-17
7.122811E+03	2.379624E-16	2.617771E-17
7.132731E+03	2.436692E-16	2.680519E-17
7.142652E+03	2.494356E-16	2.743923E-17
7.152572E+03	2.552673E-16	2.808047E-17
7.162492E+03	2.611056E-16	2.872242E-17
7.172413E+03	2.669363E-16	2.936357E-17
7.182333E+03	2.727450E-16	3.000229E-17
7.192253E+03	2.784651E-16	3.063127E-17
7.202174E+03	2.840785E-16	3.124853E-17
7.212094E+03	2.895498E-16	3.185018E-17
7.222014E+03	2.948439E-16	3.243235E-17
7.231935E+03	2.999257E-16	3.299118E-17
7.241855E+03	3.047616E-16	3.352298E-17
7.251775E+03	3.093193E-16	3.402421E-17
7.261696E+03	3.135698E-16	3.449166E-17
7.271616E+03	3.174670E-16	3.492028E-17
7.281537E+03	3.210286E-16	3.531200E-17
7.291457E+03	3.241961E-16	3.566039E-17
7.301377E+03	3.269977E-16	3.596857E-17
7.311298E+03	3.293839E-16	3.623108E-17
7.321218E+03	3.313723E-16	3.644987E-17
7.331138E+03	3.329650E-16	3.662515E-17
7.341059E+03	3.341692E-16	3.675773E-17
7.350979E+03	3.349966E-16	3.684890E-17
7.360899E+03	3.354411E-16	3.689797E-17
7.370820E+03	3.355651E-16	3.691182E-17
7.380740E+03	3.353695E-16	3.689054E-17
7.390660E+03	3.348577E-16	3.683451E-17
7.400581E+03	3.340774E-16	3.674897E-17
7.410501E+03	3.330562E-16	3.663697E-17
7.420421E+03	3.318221E-16	3.650157E-17
7.430342E+03	3.304032E-16	3.634587E-17
7.440262E+03	3.288271E-16	3.617290E-17
7.450182E+03	3.271196E-16	3.598550E-17
7.460103E+03	3.252856E-16	3.578421E-17
7.470023E+03	3.233898E-16	3.557616E-17
7.479944E+03	3.214126E-16	3.535917E-17
7.489864E+03	3.193944E-16	3.513769E-17
7.499784E+03	3.173528E-16	3.491367E-17
7.509705E+03	3.153035E-16	3.468882E-17
7.519625E+03	3.132599E-16	3.446462E-17
7.529545E+03	3.112137E-16	3.424015E-17
7.539466E+03	3.092148E-16	3.402092E-17
7.549386E+03	3.072303E-16	3.380329E-17
7.559306E+03	3.052867E-16	3.359018E-17
7.569227E+03	3.033877E-16	3.338201E-17
7.579147E+03	3.015367E-16	3.317913E-17
7.589067E+03	2.997149E-16	3.297949E-17
7.598988E+03	2.979615E-16	3.278740E-17
7.608908E+03	2.962362E-16	3.259842E-17
7.618828E+03	2.945562E-16	3.241446E-17
7.628749E+03	2.929184E-16	3.223516E-17
7.638669E+03	2.913186E-16	3.206006E-17
7.648589E+03	2.897523E-16	3.188866E-17
7.658510E+03	2.881952E-16	3.171831E-17
7.668430E+03	2.866799E-16	3.155258E-17
7.678351E+03	2.851628E-16	3.138667E-17
7.688271E+03	2.836570E-16	3.122203E-17
7.698191E+03	2.821569E-16	3.105803E-17
