#wls	flux	fluxerr
1.600000E+03	1.297282E-15	8.510575E-16
1.640000E+03	1.333768E-15	8.599942E-16
1.680000E+03	1.371609E-15	8.685786E-16
1.720000E+03	1.410713E-15	8.766687E-16
1.760000E+03	1.451086E-15	8.841875E-16
1.800000E+03	1.492834E-15	8.911138E-16
1.840000E+03	1.535533E-15	8.971090E-16
1.880000E+03	1.579356E-15	9.021959E-16
1.920000E+03	1.624068E-15	9.061606E-16
1.960000E+03	1.669410E-15	9.087862E-16
2.000000E+03	1.714977E-15	9.097937E-16
2.040000E+03	1.760468E-15	9.089791E-16
2.080000E+03	1.805329E-15	9.060327E-16
2.120000E+03	1.848787E-15	9.005702E-16
2.160000E+03	1.890419E-15	8.924249E-16
2.200000E+03	1.929379E-15	8.812672E-16
2.240000E+03	1.964979E-15	8.668956E-16
2.280000E+03	1.996784E-15	8.492688E-16
2.320000E+03	2.024595E-15	8.284797E-16
2.360000E+03	2.048524E-15	8.047667E-16
2.400000E+03	2.068763E-15	7.784023E-16
2.440000E+03	2.085484E-15	7.496498E-16
2.480000E+03	2.099099E-15	7.188540E-16
2.520000E+03	2.109708E-15	6.862421E-16
2.560000E+03	2.117556E-15	6.520896E-16
2.600000E+03	2.122611E-15	6.165865E-16
2.640000E+03	2.124916E-15	5.799573E-16
2.680000E+03	2.124360E-15	5.423967E-16
2.720000E+03	2.120845E-15	5.041252E-16
2.760000E+03	2.114296E-15	4.653880E-16
2.800000E+03	2.104587E-15	4.264424E-16
2.840000E+03	2.091620E-15	3.875755E-16
2.880000E+03	2.075431E-15	3.491209E-16
2.920000E+03	2.055939E-15	3.114105E-16
2.960000E+03	2.033322E-15	2.748341E-16
3.000000E+03	2.007566E-15	2.397627E-16
3.010000E+03	2.000703E-15	2.312823E-16
3.020000E+03	1.993621E-15	2.229227E-16
3.030000E+03	1.986318E-15	2.146900E-16
3.040000E+03	1.978881E-15	2.065993E-16
3.050000E+03	1.971263E-15	1.986509E-16
3.060000E+03	1.963459E-15	1.908499E-16
3.070000E+03	1.955512E-15	1.832056E-16
3.080000E+03	1.947378E-15	1.757187E-16
3.090000E+03	1.939056E-15	1.683941E-16
3.100000E+03	1.930627E-15	1.612431E-16
3.110000E+03	1.922013E-15	1.542629E-16
3.120000E+03	1.913256E-15	1.474605E-16
3.130000E+03	1.904321E-15	1.408365E-16
3.140000E+03	1.895327E-15	1.344021E-16
3.150000E+03	1.886167E-15	1.281514E-16
3.160000E+03	1.876887E-15	1.220893E-16
3.170000E+03	1.867532E-15	1.162195E-16
3.180000E+03	1.858110E-15	1.105429E-16
3.190000E+03	1.848563E-15	1.050560E-16
3.200000E+03	1.839008E-15	9.976521E-17
3.210000E+03	1.829387E-15	9.466679E-17
3.220000E+03	1.819747E-15	8.976271E-17
3.230000E+03	1.810070E-15	8.505167E-17
3.240000E+03	1.800402E-15	8.053591E-17
3.250000E+03	1.790755E-15	7.621650E-17
3.260000E+03	1.781145E-15	7.209528E-17
3.270000E+03	1.771558E-15	6.817386E-17
3.280000E+03	1.762041E-15	6.445735E-17
3.290000E+03	1.752618E-15	6.095071E-17
3.300000E+03	1.743285E-15	5.765902E-17
3.310000E+03	1.734094E-15	5.458842E-17
3.320000E+03	1.725011E-15	5.173730E-17
3.330000E+03	1.716057E-15	4.910522E-17
3.340000E+03	1.707202E-15	4.668939E-17
3.350000E+03	1.698433E-15	4.448200E-17
3.360000E+03	1.689742E-15	4.247531E-17
3.370000E+03	1.681131E-15	4.066252E-17
3.380000E+03	1.672599E-15	3.903422E-17
3.390000E+03	1.664130E-15	3.758229E-17
3.400000E+03	1.655766E-15	3.630140E-17
3.410000E+03	1.647464E-15	3.518108E-17
3.420000E+03	1.639286E-15	3.421499E-17
3.430000E+03	1.631203E-15	3.339556E-17
3.440000E+03	1.623199E-15	3.270875E-17
3.450000E+03	1.615265E-15	3.214155E-17
3.460000E+03	1.607373E-15	3.168141E-17
3.470000E+03	1.599501E-15	3.130872E-17
3.480000E+03	1.591590E-15	3.100451E-17
3.490000E+03	1.583590E-15	3.075281E-17
3.500000E+03	1.575446E-15	3.053558E-17
3.510000E+03	1.567092E-15	3.033766E-17
3.520000E+03	1.558518E-15	3.014843E-17
3.530000E+03	1.549626E-15	2.995555E-17
3.540000E+03	1.540415E-15	2.975173E-17
3.550000E+03	1.530864E-15	2.953200E-17
3.560000E+03	1.520972E-15	2.929049E-17
3.570000E+03	1.510724E-15	2.902358E-17
3.580000E+03	1.500148E-15	2.873104E-17
3.590000E+03	1.489313E-15	2.841257E-17
3.600000E+03	1.478246E-15	2.806943E-17
3.610000E+03	1.467062E-15	2.770699E-17
3.620000E+03	1.455843E-15	2.732886E-17
3.630000E+03	1.444676E-15	2.694087E-17
3.640000E+03	1.433673E-15	2.655054E-17
3.650000E+03	1.422928E-15	2.616118E-17
3.660000E+03	1.412512E-15	2.577690E-17
3.670000E+03	1.402549E-15	2.540447E-17
3.680000E+03	1.393078E-15	2.504683E-17
3.690000E+03	1.384192E-15	2.470941E-17
3.700000E+03	1.375963E-15	2.439799E-17
3.710000E+03	1.368444E-15	2.411296E-17
3.720000E+03	1.361656E-15	2.385472E-17
3.730000E+03	1.355643E-15	2.362438E-17
3.740000E+03	1.350416E-15	2.341671E-17
3.750000E+03	1.345995E-15	2.322734E-17
3.760000E+03	1.342381E-15	2.305299E-17
3.770000E+03	1.339575E-15	2.288710E-17
3.780000E+03	1.337558E-15	2.272471E-17
3.790000E+03	1.336303E-15	2.256317E-17
3.800000E+03	1.335804E-15	2.239862E-17
3.810000E+03	1.335979E-15	2.222855E-17
3.820000E+03	1.336794E-15	2.205385E-17
3.830000E+03	1.338195E-15	2.187350E-17
3.840000E+03	1.340090E-15	2.168836E-17
3.850000E+03	1.342408E-15	2.150214E-17
3.860000E+03	1.345086E-15	2.131640E-17
3.870000E+03	1.348051E-15	2.113484E-17
3.880000E+03	1.351231E-15	2.096246E-17
3.890000E+03	1.354544E-15	2.079846E-17
3.900000E+03	1.357939E-15	2.064390E-17
3.910000E+03	1.361357E-15	2.050242E-17
3.920000E+03	1.364735E-15	2.037589E-17
3.930000E+03	1.368014E-15	2.026900E-17
3.940000E+03	1.371140E-15	2.018734E-17
3.950000E+03	1.374060E-15	2.012849E-17
3.960000E+03	1.376711E-15	2.009038E-17
3.970000E+03	1.379016E-15	2.007159E-17
3.980000E+03	1.380920E-15	2.006366E-17
3.990000E+03	1.382331E-15	2.005880E-17
4.000000E+03	1.383185E-15	2.005178E-17
4.010000E+03	1.383400E-15	2.003271E-17
4.020000E+03	1.382886E-15	1.999432E-17
4.030000E+03	1.381607E-15	1.993360E-17
4.040000E+03	1.379493E-15	1.984553E-17
4.050000E+03	1.376514E-15	1.972931E-17
4.060000E+03	1.372650E-15	1.958767E-17
4.070000E+03	1.367897E-15	1.942141E-17
4.080000E+03	1.362274E-15	1.923466E-17
4.090000E+03	1.355829E-15	1.903388E-17
4.100000E+03	1.348604E-15	1.881952E-17
4.110000E+03	1.340668E-15	1.859430E-17
4.120000E+03	1.332128E-15	1.836383E-17
4.130000E+03	1.323048E-15	1.812912E-17
4.140000E+03	1.313539E-15	1.789451E-17
4.150000E+03	1.303708E-15	1.766638E-17
4.160000E+03	1.293669E-15	1.744571E-17
4.170000E+03	1.283545E-15	1.723601E-17
4.180000E+03	1.273462E-15	1.704362E-17
4.190000E+03	1.263542E-15	1.687082E-17
4.200000E+03	1.253906E-15	1.672264E-17
4.210000E+03	1.244672E-15	1.660626E-17
4.220000E+03	1.235924E-15	1.652334E-17
4.230000E+03	1.227728E-15	1.647665E-17
4.240000E+03	1.220147E-15	1.646768E-17
4.250000E+03	1.213214E-15	1.648411E-17
4.260000E+03	1.206933E-15	1.651270E-17
4.270000E+03	1.201281E-15	1.654320E-17
4.280000E+03	1.196247E-15	1.656535E-17
4.290000E+03	1.191798E-15	1.657271E-17
4.300000E+03	1.187888E-15	1.656321E-17
4.310000E+03	1.184453E-15	1.653599E-17
4.320000E+03	1.181403E-15	1.649398E-17
4.330000E+03	1.178667E-15	1.644328E-17
4.340000E+03	1.176102E-15	1.638668E-17
4.350000E+03	1.173600E-15	1.632928E-17
4.360000E+03	1.171031E-15	1.627652E-17
4.370000E+03	1.168267E-15	1.622795E-17
4.380000E+03	1.165191E-15	1.618202E-17
4.390000E+03	1.161726E-15	1.613669E-17
4.400000E+03	1.157819E-15	1.608574E-17
4.410000E+03	1.153471E-15	1.602348E-17
4.420000E+03	1.148691E-15	1.594520E-17
4.430000E+03	1.143516E-15	1.584505E-17
4.440000E+03	1.138017E-15	1.572058E-17
4.450000E+03	1.132256E-15	1.557280E-17
4.460000E+03	1.126316E-15	1.540376E-17
4.470000E+03	1.120292E-15	1.521935E-17
4.480000E+03	1.114247E-15	1.502708E-17
4.490000E+03	1.108275E-15	1.483035E-17
4.500000E+03	1.102452E-15	1.463409E-17
4.510000E+03	1.096831E-15	1.444505E-17
4.520000E+03	1.091460E-15	1.426709E-17
4.530000E+03	1.086374E-15	1.410603E-17
4.540000E+03	1.081603E-15	1.396872E-17
4.550000E+03	1.077172E-15	1.385556E-17
4.560000E+03	1.073094E-15	1.376777E-17
4.570000E+03	1.069380E-15	1.370659E-17
4.580000E+03	1.066061E-15	1.366435E-17
4.590000E+03	1.063122E-15	1.363328E-17
4.600000E+03	1.060539E-15	1.360815E-17
4.610000E+03	1.058277E-15	1.358182E-17
4.620000E+03	1.056273E-15	1.354975E-17
4.630000E+03	1.054420E-15	1.351019E-17
4.640000E+03	1.052655E-15	1.346191E-17
4.650000E+03	1.050837E-15	1.340567E-17
4.660000E+03	1.048888E-15	1.334430E-17
4.670000E+03	1.046708E-15	1.327462E-17
4.680000E+03	1.044204E-15	1.319515E-17
4.690000E+03	1.041300E-15	1.310794E-17
4.700000E+03	1.037928E-15	1.301478E-17
4.710000E+03	1.034059E-15	1.292150E-17
4.720000E+03	1.029642E-15	1.283620E-17
4.730000E+03	1.024633E-15	1.276309E-17
4.740000E+03	1.019014E-15	1.270745E-17
4.750000E+03	1.012773E-15	1.267436E-17
4.760000E+03	1.005984E-15	1.266437E-17
4.770000E+03	9.986987E-16	1.267603E-17
4.780000E+03	9.910477E-16	1.270694E-17
4.790000E+03	9.831653E-16	1.274838E-17
4.800000E+03	9.751814E-16	1.279141E-17
4.810000E+03	9.672544E-16	1.282910E-17
4.820000E+03	9.595318E-16	1.285368E-17
4.830000E+03	9.521212E-16	1.285934E-17
4.840000E+03	9.451418E-16	1.284334E-17
4.850000E+03	9.386744E-16	1.280329E-17
4.860000E+03	9.327721E-16	1.273911E-17
4.870000E+03	9.274769E-16	1.265292E-17
4.880000E+03	9.228093E-16	1.254654E-17
4.890000E+03	9.187525E-16	1.242358E-17
4.900000E+03	9.152963E-16	1.229005E-17
4.910000E+03	9.123897E-16	1.215127E-17
4.920000E+03	9.099997E-16	1.201523E-17
4.930000E+03	9.080758E-16	1.189212E-17
4.940000E+03	9.065537E-16	1.179191E-17
4.950000E+03	9.053813E-16	1.172601E-17
4.960000E+03	9.044996E-16	1.170287E-17
4.970000E+03	9.039230E-16	1.171830E-17
4.980000E+03	9.036580E-16	1.176459E-17
4.990000E+03	9.037151E-16	1.183313E-17
5.000000E+03	9.040949E-16	1.190962E-17
5.010000E+03	9.048160E-16	1.198033E-17
5.020000E+03	9.058443E-16	1.203279E-17
5.030000E+03	9.071504E-16	1.205475E-17
5.040000E+03	9.086978E-16	1.203653E-17
5.050000E+03	9.104195E-16	1.197176E-17
5.060000E+03	9.122485E-16	1.185723E-17
5.070000E+03	9.141103E-16	1.169388E-17
5.080000E+03	9.159274E-16	1.148705E-17
5.090000E+03	9.176140E-16	1.124587E-17
5.100000E+03	9.190939E-16	1.098406E-17
5.110000E+03	9.203139E-16	1.071760E-17
5.120000E+03	9.212434E-16	1.045807E-17
5.130000E+03	9.219028E-16	1.021852E-17
5.140000E+03	9.222613E-16	1.000990E-17
5.150000E+03	9.223345E-16	9.831397E-18
5.160000E+03	9.221041E-16	9.680268E-18
5.170000E+03	9.215662E-16	9.553524E-18
5.180000E+03	9.207560E-16	9.439959E-18
5.190000E+03	9.197049E-16	9.330079E-18
5.200000E+03	9.184493E-16	9.219047E-18
5.210000E+03	9.170164E-16	9.102191E-18
5.220000E+03	9.154570E-16	8.980811E-18
5.230000E+03	9.137699E-16	8.860183E-18
5.240000E+03	9.119865E-16	8.742233E-18
5.250000E+03	9.101224E-16	8.632815E-18
5.260000E+03	9.081842E-16	8.540226E-18
5.270000E+03	9.061441E-16	8.463850E-18
5.280000E+03	9.039934E-16	8.405351E-18
5.290000E+03	9.016963E-16	8.366898E-18
5.300000E+03	8.992044E-16	8.337797E-18
5.310000E+03	8.964545E-16	8.309142E-18
5.320000E+03	8.934049E-16	8.277373E-18
5.330000E+03	8.899892E-16	8.236307E-18
5.340000E+03	8.861668E-16	8.185416E-18
5.350000E+03	8.819004E-16	8.128133E-18
5.360000E+03	8.771786E-16	8.061407E-18
5.370000E+03	8.719702E-16	7.984471E-18
5.380000E+03	8.662947E-16	7.899408E-18
5.390000E+03	8.601580E-16	7.801977E-18
5.400000E+03	8.535838E-16	7.691398E-18
5.410000E+03	8.465961E-16	7.572223E-18
5.420000E+03	8.392375E-16	7.449213E-18
5.430000E+03	8.315697E-16	7.333502E-18
5.440000E+03	8.236285E-16	7.238134E-18
5.450000E+03	8.154458E-16	7.163783E-18
5.460000E+03	8.070391E-16	7.112349E-18
5.470000E+03	7.984529E-16	7.086605E-18
5.480000E+03	7.897358E-16	7.075816E-18
5.490000E+03	7.809157E-16	7.070578E-18
5.500000E+03	7.720705E-16	7.066645E-18
5.510000E+03	7.632518E-16	7.057016E-18
5.520000E+03	7.545521E-16	7.039381E-18
5.530000E+03	7.460374E-16	7.013663E-18
5.540000E+03	7.377732E-16	6.972337E-18
5.550000E+03	7.298209E-16	6.910224E-18
5.560000E+03	7.222802E-16	6.826619E-18
5.570000E+03	7.152144E-16	6.719252E-18
5.580000E+03	7.087136E-16	6.590663E-18
5.590000E+03	7.028713E-16	6.448215E-18
5.600000E+03	6.977879E-16	6.299148E-18
5.610000E+03	6.935484E-16	6.155749E-18
5.620000E+03	6.902479E-16	6.034253E-18
5.630000E+03	6.879452E-16	5.946023E-18
5.640000E+03	6.866843E-16	5.904806E-18
5.650000E+03	6.864935E-16	5.920728E-18
5.660000E+03	6.873008E-16	5.980043E-18
5.670000E+03	6.890212E-16	6.065860E-18
5.680000E+03	6.915622E-16	6.164576E-18
5.690000E+03	6.948096E-16	6.259136E-18
5.700000E+03	6.986381E-16	6.337480E-18
5.710000E+03	7.029135E-16	6.394350E-18
5.720000E+03	7.075093E-16	6.427186E-18
5.730000E+03	7.122614E-16	6.439628E-18
5.740000E+03	7.170289E-16	6.439626E-18
5.750000E+03	7.216527E-16	6.429443E-18
5.760000E+03	7.259644E-16	6.414734E-18
5.770000E+03	7.298162E-16	6.404326E-18
5.780000E+03	7.330822E-16	6.399564E-18
5.790000E+03	7.356340E-16	6.404644E-18
5.800000E+03	7.373731E-16	6.426556E-18
5.810000E+03	7.382701E-16	6.463667E-18
5.820000E+03	7.382911E-16	6.516347E-18
5.830000E+03	7.374491E-16	6.586392E-18
5.840000E+03	7.357849E-16	6.663385E-18
5.850000E+03	7.333610E-16	6.738607E-18
5.860000E+03	7.302549E-16	6.807921E-18
5.870000E+03	7.265081E-16	6.863868E-18
5.880000E+03	7.221980E-16	6.903923E-18
5.890000E+03	7.173757E-16	6.929928E-18
5.900000E+03	7.120696E-16	6.941075E-18
5.910000E+03	7.063055E-16	6.939924E-18
5.920000E+03	7.001089E-16	6.930524E-18
5.930000E+03	6.934925E-16	6.908833E-18
5.940000E+03	6.864482E-16	6.871684E-18
5.950000E+03	6.789948E-16	6.818081E-18
5.960000E+03	6.711664E-16	6.742392E-18
5.970000E+03	6.630025E-16	6.641591E-18
5.980000E+03	6.545440E-16	6.516413E-18
5.990000E+03	6.458756E-16	6.367569E-18
6.000000E+03	6.370615E-16	6.199732E-18
6.010000E+03	6.282239E-16	6.022289E-18
6.020000E+03	6.194399E-16	5.843978E-18
6.030000E+03	6.108228E-16	5.677444E-18
6.040000E+03	6.024906E-16	5.535393E-18
6.050000E+03	5.944943E-16	5.419073E-18
6.060000E+03	5.868933E-16	5.329802E-18
6.070000E+03	5.797348E-16	5.269045E-18
6.080000E+03	5.730465E-16	5.228970E-18
6.090000E+03	5.668244E-16	5.202995E-18
6.100000E+03	5.611091E-16	5.188362E-18
6.110000E+03	5.559026E-16	5.179472E-18
6.120000E+03	5.512151E-16	5.174159E-18
6.130000E+03	5.470672E-16	5.172652E-18
6.140000E+03	5.434564E-16	5.169685E-18
6.150000E+03	5.403685E-16	5.162015E-18
6.160000E+03	5.378003E-16	5.149828E-18
6.170000E+03	5.357437E-16	5.132119E-18
6.180000E+03	5.341671E-16	5.110864E-18
6.190000E+03	5.330592E-16	5.090504E-18
6.200000E+03	5.323809E-16	5.071209E-18
6.210000E+03	5.320961E-16	5.055125E-18
6.220000E+03	5.321590E-16	5.045941E-18
6.230000E+03	5.325066E-16	5.042207E-18
6.240000E+03	5.330928E-16	5.043884E-18
6.250000E+03	5.338721E-16	5.052134E-18
6.260000E+03	5.348019E-16	5.063087E-18
6.270000E+03	5.358441E-16	5.074417E-18
6.280000E+03	5.369823E-16	5.086039E-18
6.290000E+03	5.381965E-16	5.094302E-18
6.300000E+03	5.394741E-16	5.098141E-18
6.310000E+03	5.408173E-16	5.099181E-18
6.320000E+03	5.422370E-16	5.095549E-18
6.330000E+03	5.437336E-16	5.087974E-18
6.340000E+03	5.453253E-16	5.080274E-18
6.350000E+03	5.470359E-16	5.073255E-18
6.360000E+03	5.488761E-16	5.070430E-18
6.370000E+03	5.508793E-16	5.077362E-18
6.380000E+03	5.530597E-16	5.093026E-18
6.390000E+03	5.554307E-16	5.118112E-18
6.400000E+03	5.580047E-16	5.155130E-18
6.410000E+03	5.608001E-16	5.200339E-18
6.420000E+03	5.638098E-16	5.252348E-18
6.430000E+03	5.670489E-16	5.314894E-18
6.440000E+03	5.705033E-16	5.392215E-18
6.450000E+03	5.741558E-16	5.493077E-18
6.460000E+03	5.779933E-16	5.627063E-18
6.470000E+03	5.819713E-16	5.792115E-18
6.480000E+03	5.860491E-16	5.985708E-18
6.490000E+03	5.901617E-16	6.206823E-18
6.500000E+03	5.942845E-16	6.450286E-18
6.510000E+03	5.983792E-16	6.712501E-18
6.520000E+03	6.024001E-16	6.991940E-18
6.530000E+03	6.063184E-16	7.284038E-18
6.540000E+03	6.100991E-16	7.585401E-18
6.550000E+03	6.137120E-16	7.893713E-18
6.560000E+03	6.171283E-16	8.202815E-18
6.570000E+03	6.203345E-16	8.506895E-18
6.580000E+03	6.232932E-16	8.799814E-18
6.590000E+03	6.259436E-16	9.070721E-18
6.600000E+03	6.282309E-16	9.308715E-18
6.610000E+03	6.300990E-16	9.504302E-18
6.620000E+03	6.314952E-16	9.648685E-18
6.630000E+03	6.323971E-16	9.735378E-18
6.640000E+03	6.327709E-16	9.760056E-18
6.650000E+03	6.326257E-16	9.721324E-18
6.660000E+03	6.319371E-16	9.619863E-18
6.670000E+03	6.307111E-16	9.459493E-18
6.680000E+03	6.289751E-16	9.246832E-18
6.690000E+03	6.267542E-16	8.991267E-18
6.700000E+03	6.240686E-16	8.704624E-18
6.710000E+03	6.209549E-16	8.400327E-18
6.720000E+03	6.174651E-16	8.094392E-18
6.730000E+03	6.136260E-16	7.803594E-18
6.740000E+03	6.094635E-16	7.541746E-18
6.750000E+03	6.049675E-16	7.321725E-18
6.760000E+03	6.001768E-16	7.151231E-18
6.770000E+03	5.950990E-16	7.018235E-18
6.780000E+03	5.897895E-16	6.907045E-18
6.790000E+03	5.842649E-16	6.804053E-18
6.800000E+03	5.785823E-16	6.698487E-18
6.810000E+03	5.727910E-16	6.584231E-18
6.820000E+03	5.669314E-16	6.459877E-18
6.830000E+03	5.610704E-16	6.327163E-18
6.840000E+03	5.552547E-16	6.191675E-18
6.850000E+03	5.495492E-16	6.061298E-18
6.860000E+03	5.439836E-16	5.940193E-18
6.870000E+03	5.386260E-16	5.834012E-18
6.880000E+03	5.335043E-16	5.746956E-18
6.890000E+03	5.286294E-16	5.673497E-18
6.900000E+03	5.239945E-16	5.607697E-18
6.910000E+03	5.196229E-16	5.546728E-18
6.920000E+03	5.154890E-16	5.487636E-18
6.930000E+03	5.116271E-16	5.431431E-18
6.940000E+03	5.080213E-16	5.380935E-18
6.950000E+03	5.046716E-16	5.336673E-18
6.960000E+03	5.015873E-16	5.301129E-18
6.970000E+03	4.987558E-16	5.277178E-18
6.980000E+03	4.961656E-16	5.261527E-18
6.990000E+03	4.938024E-16	5.251752E-18
7.000000E+03	4.916516E-16	5.247866E-18
7.010000E+03	4.896955E-16	5.248829E-18
7.020000E+03	4.879057E-16	5.256194E-18
7.030000E+03	4.862811E-16	5.274023E-18
7.040000E+03	4.847709E-16	5.303359E-18
7.050000E+03	4.833808E-16	5.347473E-18
7.060000E+03	4.820567E-16	5.409603E-18
7.070000E+03	4.807894E-16	5.488014E-18
7.080000E+03	4.795400E-16	5.580771E-18
7.090000E+03	4.782801E-16	5.686569E-18
7.100000E+03	4.769966E-16	5.800191E-18
7.110000E+03	4.756491E-16	5.916621E-18
7.120000E+03	4.742298E-16	6.032409E-18
7.130000E+03	4.727211E-16	6.142198E-18
7.140000E+03	4.711281E-16	6.242077E-18
7.150000E+03	4.694478E-16	6.329618E-18
7.160000E+03	4.676703E-16	6.402074E-18
7.170000E+03	4.658061E-16	6.458297E-18
7.180000E+03	4.638383E-16	6.497800E-18
7.190000E+03	4.617917E-16	6.519589E-18
7.200000E+03	4.596636E-16	6.523115E-18
7.210000E+03	4.574523E-16	6.508534E-18
7.220000E+03	4.551791E-16	6.474899E-18
7.230000E+03	4.528564E-16	6.421909E-18
7.240000E+03	4.504870E-16	6.350430E-18
7.250000E+03	4.480833E-16	6.261838E-18
7.260000E+03	4.456570E-16	6.158892E-18
7.270000E+03	4.432192E-16	6.045540E-18
7.280000E+03	4.407790E-16	5.925496E-18
7.290000E+03	4.383263E-16	5.803293E-18
7.300000E+03	4.358848E-16	5.683879E-18
7.310000E+03	4.334430E-16	5.567915E-18
7.320000E+03	4.309868E-16	5.456247E-18
7.330000E+03	4.285204E-16	5.351046E-18
7.340000E+03	4.260217E-16	5.253266E-18
7.350000E+03	4.234870E-16	5.165493E-18
7.360000E+03	4.209161E-16	5.091014E-18
7.370000E+03	4.183113E-16	5.029908E-18
7.380000E+03	4.156956E-16	4.983271E-18
7.390000E+03	4.130581E-16	4.952984E-18
7.400000E+03	4.104355E-16	4.939782E-18
7.410000E+03	4.078301E-16	4.944875E-18
7.420000E+03	4.052658E-16	4.969033E-18
7.430000E+03	4.027380E-16	5.006078E-18
7.440000E+03	4.002462E-16	5.049590E-18
7.450000E+03	3.977955E-16	5.094981E-18
7.460000E+03	3.953697E-16	5.137594E-18
7.470000E+03	3.929842E-16	5.175246E-18
7.480000E+03	3.906102E-16	5.207383E-18
7.490000E+03	3.882510E-16	5.234660E-18
7.500000E+03	3.858847E-16	5.259052E-18
7.510000E+03	3.835236E-16	5.283976E-18
7.520000E+03	3.811455E-16	5.311151E-18
7.530000E+03	3.787400E-16	5.342475E-18
7.540000E+03	3.763106E-16	5.379415E-18
7.550000E+03	3.738568E-16	5.420312E-18
7.560000E+03	3.714006E-16	5.463033E-18
7.570000E+03	3.689345E-16	5.504443E-18
7.580000E+03	3.664752E-16	5.539303E-18
7.590000E+03	3.640403E-16	5.562641E-18
7.600000E+03	3.616318E-16	5.570608E-18
7.610000E+03	3.592661E-16	5.560848E-18
7.620000E+03	3.569422E-16	5.532371E-18
7.630000E+03	3.546828E-16	5.486174E-18
7.640000E+03	3.524758E-16	5.424048E-18
7.650000E+03	3.503401E-16	5.349690E-18
7.660000E+03	3.482614E-16	5.267014E-18
7.670000E+03	3.462556E-16	5.179467E-18
7.680000E+03	3.443055E-16	5.090583E-18
7.690000E+03	3.424249E-16	5.004840E-18
7.700000E+03	3.406052E-16	4.925140E-18
7.710000E+03	3.388450E-16	4.854944E-18
7.720000E+03	3.371424E-16	4.797873E-18
7.730000E+03	3.354953E-16	4.755401E-18
7.740000E+03	3.339014E-16	4.729056E-18
7.750000E+03	3.323503E-16	4.719924E-18
7.760000E+03	3.308546E-16	4.726111E-18
