#wls	flux	fluxerr
1.600000E+03	1.370240E-15	8.878028E-16
1.640000E+03	1.414199E-15	9.004594E-16
1.680000E+03	1.459150E-15	9.123726E-16
1.720000E+03	1.505087E-15	9.234672E-16
1.760000E+03	1.551792E-15	9.335428E-16
1.800000E+03	1.599202E-15	9.424974E-16
1.840000E+03	1.647221E-15	9.502143E-16
1.880000E+03	1.695905E-15	9.566682E-16
1.920000E+03	1.744712E-15	9.614996E-16
1.960000E+03	1.793801E-15	9.647590E-16
2.000000E+03	1.842725E-15	9.661689E-16
2.040000E+03	1.891546E-15	9.657414E-16
2.080000E+03	1.940082E-15	9.633651E-16
2.120000E+03	1.988270E-15	9.590008E-16
2.160000E+03	2.036340E-15	9.527547E-16
2.200000E+03	2.084051E-15	9.445103E-16
2.240000E+03	2.131968E-15	9.345239E-16
2.280000E+03	2.179773E-15	9.226503E-16
2.320000E+03	2.227531E-15	9.089266E-16
2.360000E+03	2.274426E-15	8.930472E-16
2.400000E+03	2.319000E-15	8.745236E-16
2.440000E+03	2.360046E-15	8.530584E-16
2.480000E+03	2.396267E-15	8.284121E-16
2.520000E+03	2.426457E-15	8.004691E-16
2.560000E+03	2.449215E-15	7.691420E-16
2.600000E+03	2.463149E-15	7.344486E-16
2.640000E+03	2.467319E-15	6.966338E-16
2.680000E+03	2.460318E-15	6.558860E-16
2.720000E+03	2.441286E-15	6.126236E-16
2.760000E+03	2.409425E-15	5.673322E-16
2.800000E+03	2.363901E-15	5.205301E-16
2.840000E+03	2.304949E-15	4.729869E-16
2.880000E+03	2.232804E-15	4.254301E-16
2.920000E+03	2.148557E-15	3.786850E-16
2.960000E+03	2.054031E-15	3.335838E-16
3.000000E+03	1.950988E-15	2.907934E-16
3.010000E+03	1.924194E-15	2.805335E-16
3.020000E+03	1.896993E-15	2.704550E-16
3.030000E+03	1.869518E-15	2.605786E-16
3.040000E+03	1.841728E-15	2.508995E-16
3.050000E+03	1.813696E-15	2.414282E-16
3.060000E+03	1.785439E-15	2.321670E-16
3.070000E+03	1.757027E-15	2.231245E-16
3.080000E+03	1.728525E-15	2.143076E-16
3.090000E+03	1.699900E-15	2.057104E-16
3.100000E+03	1.671219E-15	1.973392E-16
3.110000E+03	1.642544E-15	1.891985E-16
3.120000E+03	1.613891E-15	1.812870E-16
3.130000E+03	1.585278E-15	1.736035E-16
3.140000E+03	1.556804E-15	1.661548E-16
3.150000E+03	1.528445E-15	1.589340E-16
3.160000E+03	1.500219E-15	1.519387E-16
3.170000E+03	1.472254E-15	1.451771E-16
3.180000E+03	1.444492E-15	1.386382E-16
3.190000E+03	1.417021E-15	1.323251E-16
3.200000E+03	1.389821E-15	1.262306E-16
3.210000E+03	1.362973E-15	1.203564E-16
3.220000E+03	1.336492E-15	1.146981E-16
3.230000E+03	1.310392E-15	1.092509E-16
3.240000E+03	1.284717E-15	1.040126E-16
3.250000E+03	1.259507E-15	9.898050E-17
3.260000E+03	1.234750E-15	9.414764E-17
3.270000E+03	1.210486E-15	8.951134E-17
3.280000E+03	1.186729E-15	8.506689E-17
3.290000E+03	1.163518E-15	8.081138E-17
3.300000E+03	1.140867E-15	7.674017E-17
3.310000E+03	1.118788E-15	7.284887E-17
3.320000E+03	1.097318E-15	6.913462E-17
3.330000E+03	1.076431E-15	6.559088E-17
3.340000E+03	1.056201E-15	6.221765E-17
3.350000E+03	1.036604E-15	5.900905E-17
3.360000E+03	1.017657E-15	5.596209E-17
3.370000E+03	9.993943E-16	5.307499E-17
3.380000E+03	9.818145E-16	5.034439E-17
3.390000E+03	9.649191E-16	4.776757E-17
3.400000E+03	9.487270E-16	4.534310E-17
3.410000E+03	9.332422E-16	4.306924E-17
3.420000E+03	9.184985E-16	4.094609E-17
3.430000E+03	9.044724E-16	3.897153E-17
3.440000E+03	8.911851E-16	3.714586E-17
3.450000E+03	8.786435E-16	3.546908E-17
3.460000E+03	8.668426E-16	3.394089E-17
3.470000E+03	8.557905E-16	3.256158E-17
3.480000E+03	8.454946E-16	3.133121E-17
3.490000E+03	8.359495E-16	3.024894E-17
3.500000E+03	8.271383E-16	2.931274E-17
3.510000E+03	8.190648E-16	2.852031E-17
3.520000E+03	8.117189E-16	2.786741E-17
3.530000E+03	8.050766E-16	2.734754E-17
3.540000E+03	7.991184E-16	2.695215E-17
3.550000E+03	7.938199E-16	2.667064E-17
3.560000E+03	7.891548E-16	2.649128E-17
3.570000E+03	7.850870E-16	2.640149E-17
3.580000E+03	7.815914E-16	2.638900E-17
3.590000E+03	7.786358E-16	2.644170E-17
3.600000E+03	7.762176E-16	2.654917E-17
3.610000E+03	7.743111E-16	2.670107E-17
3.620000E+03	7.729034E-16	2.688856E-17
3.630000E+03	7.719781E-16	2.710369E-17
3.640000E+03	7.715320E-16	2.734003E-17
3.650000E+03	7.715668E-16	2.759233E-17
3.660000E+03	7.720885E-16	2.785640E-17
3.670000E+03	7.731159E-16	2.812936E-17
3.680000E+03	7.746634E-16	2.840888E-17
3.690000E+03	7.767646E-16	2.869397E-17
3.700000E+03	7.794401E-16	2.898373E-17
3.710000E+03	7.827363E-16	2.927861E-17
3.720000E+03	7.866854E-16	2.957893E-17
3.730000E+03	7.913200E-16	2.988531E-17
3.740000E+03	7.966886E-16	3.019916E-17
3.750000E+03	8.028307E-16	3.052174E-17
3.760000E+03	8.097841E-16	3.085435E-17
3.770000E+03	8.175841E-16	3.119826E-17
3.780000E+03	8.262777E-16	3.155525E-17
3.790000E+03	8.358845E-16	3.192606E-17
3.800000E+03	8.464338E-16	3.231182E-17
3.810000E+03	8.579564E-16	3.271372E-17
3.820000E+03	8.704447E-16	3.313149E-17
3.830000E+03	8.839214E-16	3.356604E-17
3.840000E+03	8.983765E-16	3.401704E-17
3.850000E+03	9.137894E-16	3.448382E-17
3.860000E+03	9.301442E-16	3.496595E-17
3.870000E+03	9.473971E-16	3.546205E-17
3.880000E+03	9.654993E-16	3.597064E-17
3.890000E+03	9.843804E-16	3.648961E-17
3.900000E+03	1.003974E-15	3.701712E-17
3.910000E+03	1.024172E-15	3.755005E-17
3.920000E+03	1.044883E-15	3.808593E-17
3.930000E+03	1.065983E-15	3.862138E-17
3.940000E+03	1.087344E-15	3.915308E-17
3.950000E+03	1.108831E-15	3.967748E-17
3.960000E+03	1.130282E-15	4.019012E-17
3.970000E+03	1.151545E-15	4.068704E-17
3.980000E+03	1.172478E-15	4.116445E-17
3.990000E+03	1.192900E-15	4.161702E-17
4.000000E+03	1.212679E-15	4.204107E-17
4.010000E+03	1.231644E-15	4.243112E-17
4.020000E+03	1.249670E-15	4.278311E-17
4.030000E+03	1.266625E-15	4.309230E-17
4.040000E+03	1.282393E-15	4.335408E-17
4.050000E+03	1.296874E-15	4.356400E-17
4.060000E+03	1.309997E-15	4.371817E-17
4.070000E+03	1.321692E-15	4.381224E-17
4.080000E+03	1.331942E-15	4.384321E-17
4.090000E+03	1.340719E-15	4.380731E-17
4.100000E+03	1.348029E-15	4.370146E-17
4.110000E+03	1.353894E-15	4.352291E-17
4.120000E+03	1.358371E-15	4.326961E-17
4.130000E+03	1.361521E-15	4.293947E-17
4.140000E+03	1.363410E-15	4.253038E-17
4.150000E+03	1.364140E-15	4.204127E-17
4.160000E+03	1.363813E-15	4.147101E-17
4.170000E+03	1.362528E-15	4.081847E-17
4.180000E+03	1.360425E-15	4.008385E-17
4.190000E+03	1.357602E-15	3.926633E-17
4.200000E+03	1.354195E-15	3.836647E-17
4.210000E+03	1.350337E-15	3.738517E-17
4.220000E+03	1.346139E-15	3.632321E-17
4.230000E+03	1.341719E-15	3.518222E-17
4.240000E+03	1.337202E-15	3.396489E-17
4.250000E+03	1.332684E-15	3.267429E-17
4.260000E+03	1.328289E-15	3.131561E-17
4.270000E+03	1.324109E-15	2.989522E-17
4.280000E+03	1.320219E-15	2.842168E-17
4.290000E+03	1.316731E-15	2.690776E-17
4.300000E+03	1.313705E-15	2.536977E-17
4.310000E+03	1.311217E-15	2.383056E-17
4.320000E+03	1.309345E-15	2.232129E-17
4.330000E+03	1.308156E-15	2.088343E-17
4.340000E+03	1.307710E-15	1.957128E-17
4.350000E+03	1.308077E-15	1.845307E-17
4.360000E+03	1.309294E-15	1.760747E-17
4.370000E+03	1.311422E-15	1.711455E-17
4.380000E+03	1.314497E-15	1.703572E-17
4.390000E+03	1.318543E-15	1.738323E-17
4.400000E+03	1.323521E-15	1.810894E-17
4.410000E+03	1.329424E-15	1.913532E-17
4.420000E+03	1.336222E-15	2.037885E-17
4.430000E+03	1.343893E-15	2.176396E-17
4.440000E+03	1.352396E-15	2.322786E-17
4.450000E+03	1.361694E-15	2.472111E-17
4.460000E+03	1.371736E-15	2.620533E-17
4.470000E+03	1.382472E-15	2.765102E-17
4.480000E+03	1.393814E-15	2.903458E-17
4.490000E+03	1.405680E-15	3.033738E-17
4.500000E+03	1.417972E-15	3.154403E-17
4.510000E+03	1.430551E-15	3.264080E-17
4.520000E+03	1.443299E-15	3.361627E-17
4.530000E+03	1.456046E-15	3.445931E-17
4.540000E+03	1.468645E-15	3.516042E-17
4.550000E+03	1.480903E-15	3.570998E-17
4.560000E+03	1.492656E-15	3.610000E-17
4.570000E+03	1.503712E-15	3.632279E-17
4.580000E+03	1.513880E-15	3.637177E-17
4.590000E+03	1.522999E-15	3.624243E-17
4.600000E+03	1.530895E-15	3.593146E-17
4.610000E+03	1.537421E-15	3.543812E-17
4.620000E+03	1.542454E-15	3.476449E-17
4.630000E+03	1.545870E-15	3.391539E-17
4.640000E+03	1.547629E-15	3.290080E-17
4.650000E+03	1.547687E-15	3.173451E-17
4.660000E+03	1.546053E-15	3.043613E-17
4.670000E+03	1.542759E-15	2.903147E-17
4.680000E+03	1.537880E-15	2.755405E-17
4.690000E+03	1.531528E-15	2.604633E-17
4.700000E+03	1.523866E-15	2.456122E-17
4.710000E+03	1.515064E-15	2.316206E-17
4.720000E+03	1.505348E-15	2.192260E-17
4.730000E+03	1.494927E-15	2.092161E-17
4.740000E+03	1.484056E-15	2.023440E-17
4.750000E+03	1.472997E-15	1.991689E-17
4.760000E+03	1.461997E-15	1.998489E-17
4.770000E+03	1.451302E-15	2.040377E-17
4.780000E+03	1.441132E-15	2.110706E-17
4.790000E+03	1.431707E-15	2.201873E-17
4.800000E+03	1.423218E-15	2.306708E-17
4.810000E+03	1.415860E-15	2.419270E-17
4.820000E+03	1.409766E-15	2.534925E-17
4.830000E+03	1.405095E-15	2.650396E-17
4.840000E+03	1.401933E-15	2.763375E-17
4.850000E+03	1.400350E-15	2.872380E-17
4.860000E+03	1.400380E-15	2.976517E-17
4.870000E+03	1.402024E-15	3.075310E-17
4.880000E+03	1.405247E-15	3.168569E-17
4.890000E+03	1.409979E-15	3.256293E-17
4.900000E+03	1.416129E-15	3.338624E-17
4.910000E+03	1.423550E-15	3.415707E-17
4.920000E+03	1.432090E-15	3.487774E-17
4.930000E+03	1.441547E-15	3.554994E-17
4.940000E+03	1.451740E-15	3.617607E-17
4.950000E+03	1.462434E-15	3.675713E-17
4.960000E+03	1.473387E-15	3.729350E-17
4.970000E+03	1.484416E-15	3.778618E-17
4.980000E+03	1.495265E-15	3.823327E-17
4.990000E+03	1.505780E-15	3.863422E-17
5.000000E+03	1.515765E-15	3.898608E-17
5.010000E+03	1.525097E-15	3.928657E-17
5.020000E+03	1.533663E-15	3.953264E-17
5.030000E+03	1.541431E-15	3.972266E-17
5.040000E+03	1.548347E-15	3.985415E-17
5.050000E+03	1.554456E-15	3.992712E-17
5.060000E+03	1.559777E-15	3.994118E-17
5.070000E+03	1.564416E-15	3.989870E-17
5.080000E+03	1.568460E-15	3.980204E-17
5.090000E+03	1.572018E-15	3.965454E-17
5.100000E+03	1.575256E-15	3.946132E-17
5.110000E+03	1.578302E-15	3.922660E-17
5.120000E+03	1.581305E-15	3.895485E-17
5.130000E+03	1.584394E-15	3.864960E-17
5.140000E+03	1.587739E-15	3.831458E-17
5.150000E+03	1.591436E-15	3.795082E-17
5.160000E+03	1.595616E-15	3.755897E-17
5.170000E+03	1.600381E-15	3.713769E-17
5.180000E+03	1.605802E-15	3.668354E-17
5.190000E+03	1.611969E-15	3.619199E-17
5.200000E+03	1.618925E-15	3.565610E-17
5.210000E+03	1.626715E-15	3.506779E-17
5.220000E+03	1.635370E-15	3.441785E-17
5.230000E+03	1.644922E-15	3.369685E-17
5.240000E+03	1.655343E-15	3.289442E-17
5.250000E+03	1.666636E-15	3.200202E-17
5.260000E+03	1.678762E-15	3.101215E-17
5.270000E+03	1.691701E-15	2.992064E-17
5.280000E+03	1.705405E-15	2.872702E-17
5.290000E+03	1.719781E-15	2.743603E-17
5.300000E+03	1.734795E-15	2.606160E-17
5.310000E+03	1.750336E-15	2.462765E-17
5.320000E+03	1.766337E-15	2.317396E-17
5.330000E+03	1.782690E-15	2.175940E-17
5.340000E+03	1.799299E-15	2.046683E-17
5.350000E+03	1.816081E-15	1.940350E-17
5.360000E+03	1.832890E-15	1.869135E-17
5.370000E+03	1.849627E-15	1.844257E-17
5.380000E+03	1.866133E-15	1.871206E-17
5.390000E+03	1.882230E-15	1.945959E-17
5.400000E+03	1.897711E-15	2.058036E-17
5.410000E+03	1.912340E-15	2.195041E-17
5.420000E+03	1.925885E-15	2.345518E-17
5.430000E+03	1.938104E-15	2.500144E-17
5.440000E+03	1.948728E-15	2.651857E-17
5.450000E+03	1.957504E-15	2.795625E-17
5.460000E+03	1.964179E-15	2.928034E-17
5.470000E+03	1.968491E-15	3.046903E-17
5.480000E+03	1.970217E-15	3.151049E-17
5.490000E+03	1.969185E-15	3.240063E-17
5.500000E+03	1.965230E-15	3.314029E-17
5.510000E+03	1.958244E-15	3.373445E-17
5.520000E+03	1.948228E-15	3.419178E-17
5.530000E+03	1.935242E-15	3.452279E-17
5.540000E+03	1.919408E-15	3.473916E-17
5.550000E+03	1.900974E-15	3.485437E-17
5.560000E+03	1.880227E-15	3.488191E-17
5.570000E+03	1.857545E-15	3.483601E-17
5.580000E+03	1.833391E-15	3.473132E-17
5.590000E+03	1.808235E-15	3.458141E-17
5.600000E+03	1.782588E-15	3.439909E-17
5.610000E+03	1.757036E-15	3.419711E-17
5.620000E+03	1.732117E-15	3.398562E-17
5.630000E+03	1.708364E-15	3.377317E-17
5.640000E+03	1.686340E-15	3.356767E-17
5.650000E+03	1.666506E-15	3.337408E-17
5.660000E+03	1.649330E-15	3.319709E-17
5.670000E+03	1.635213E-15	3.303989E-17
5.680000E+03	1.624495E-15	3.290476E-17
5.690000E+03	1.617439E-15	3.279290E-17
5.700000E+03	1.614299E-15	3.270595E-17
5.710000E+03	1.615191E-15	3.264375E-17
5.720000E+03	1.620218E-15	3.260677E-17
5.730000E+03	1.629382E-15	3.259456E-17
5.740000E+03	1.642665E-15	3.260748E-17
5.750000E+03	1.659921E-15	3.264471E-17
5.760000E+03	1.680927E-15	3.270541E-17
5.770000E+03	1.705434E-15	3.278993E-17
5.780000E+03	1.733056E-15	3.289793E-17
5.790000E+03	1.763343E-15	3.303007E-17
5.800000E+03	1.795771E-15	3.318783E-17
5.810000E+03	1.829770E-15	3.337384E-17
5.820000E+03	1.864678E-15	3.359036E-17
5.830000E+03	1.899836E-15	3.384000E-17
5.840000E+03	1.934550E-15	3.412356E-17
5.850000E+03	1.968134E-15	3.443939E-17
5.860000E+03	1.999908E-15	3.478210E-17
5.870000E+03	2.029309E-15	3.514382E-17
5.880000E+03	2.055801E-15	3.551243E-17
5.890000E+03	2.078902E-15	3.587283E-17
5.900000E+03	2.098274E-15	3.620949E-17
5.910000E+03	2.113652E-15	3.650676E-17
5.920000E+03	2.124896E-15	3.675123E-17
5.930000E+03	2.131920E-15	3.693162E-17
5.940000E+03	2.134784E-15	3.704111E-17
5.950000E+03	2.133637E-15	3.707675E-17
5.960000E+03	2.128660E-15	3.703827E-17
5.970000E+03	2.120149E-15	3.692920E-17
5.980000E+03	2.108452E-15	3.675507E-17
5.990000E+03	2.093900E-15	3.652131E-17
6.000000E+03	2.076924E-15	3.623421E-17
6.010000E+03	2.057905E-15	3.589747E-17
6.020000E+03	2.037218E-15	3.551237E-17
6.030000E+03	2.015249E-15	3.507791E-17
6.040000E+03	1.992353E-15	3.459064E-17
6.050000E+03	1.968810E-15	3.404425E-17
6.060000E+03	1.944962E-15	3.343281E-17
6.070000E+03	1.921017E-15	3.274792E-17
6.080000E+03	1.897195E-15	3.198177E-17
6.090000E+03	1.873705E-15	3.112711E-17
6.100000E+03	1.850620E-15	3.017555E-17
6.110000E+03	1.828104E-15	2.912158E-17
6.120000E+03	1.806211E-15	2.795985E-17
6.130000E+03	1.784991E-15	2.668734E-17
6.140000E+03	1.764442E-15	2.530349E-17
6.150000E+03	1.744560E-15	2.381206E-17
6.160000E+03	1.725296E-15	2.222206E-17
6.170000E+03	1.706610E-15	2.055073E-17
6.180000E+03	1.688403E-15	1.882622E-17
6.190000E+03	1.670575E-15	1.709338E-17
6.200000E+03	1.653097E-15	1.542193E-17
6.210000E+03	1.635834E-15	1.391348E-17
6.220000E+03	1.618780E-15	1.270859E-17
6.230000E+03	1.601857E-15	1.196944E-17
6.240000E+03	1.585073E-15	1.182029E-17
6.250000E+03	1.568391E-15	1.224814E-17
6.260000E+03	1.551802E-15	1.310554E-17
6.270000E+03	1.535269E-15	1.421483E-17
6.280000E+03	1.518859E-15	1.543169E-17
6.290000E+03	1.502569E-15	1.665678E-17
6.300000E+03	1.486450E-15	1.782907E-17
6.310000E+03	1.470544E-15	1.891392E-17
6.320000E+03	1.454921E-15	1.989462E-17
6.330000E+03	1.439660E-15	2.076608E-17
6.340000E+03	1.424803E-15	2.153017E-17
6.350000E+03	1.410459E-15	2.219452E-17
6.360000E+03	1.396660E-15	2.276852E-17
6.370000E+03	1.383525E-15	2.326446E-17
6.380000E+03	1.371139E-15	2.369465E-17
6.390000E+03	1.359568E-15	2.407094E-17
6.400000E+03	1.348948E-15	2.440563E-17
6.410000E+03	1.339355E-15	2.470911E-17
6.420000E+03	1.330986E-15	2.499293E-17
6.430000E+03	1.323921E-15	2.526547E-17
6.440000E+03	1.318334E-15	2.553593E-17
6.450000E+03	1.314296E-15	2.581068E-17
6.460000E+03	1.311944E-15	2.609663E-17
6.470000E+03	1.311365E-15	2.639902E-17
6.480000E+03	1.312626E-15	2.672224E-17
6.490000E+03	1.315776E-15	2.706987E-17
6.500000E+03	1.320837E-15	2.744479E-17
6.510000E+03	1.327785E-15	2.784862E-17
6.520000E+03	1.336627E-15	2.828334E-17
6.530000E+03	1.347256E-15	2.874806E-17
6.540000E+03	1.359594E-15	2.924168E-17
6.550000E+03	1.373486E-15	2.976036E-17
6.560000E+03	1.388767E-15	3.029863E-17
6.570000E+03	1.405258E-15	3.084925E-17
6.580000E+03	1.422686E-15	3.140140E-17
6.590000E+03	1.440793E-15	3.194333E-17
6.600000E+03	1.459319E-15	3.246251E-17
6.610000E+03	1.477970E-15	3.294531E-17
6.620000E+03	1.496393E-15	3.337729E-17
6.630000E+03	1.514327E-15	3.374720E-17
6.640000E+03	1.531418E-15	3.404358E-17
6.650000E+03	1.547421E-15	3.425977E-17
6.660000E+03	1.561982E-15	3.438956E-17
6.670000E+03	1.574921E-15	3.443362E-17
6.680000E+03	1.585964E-15	3.439345E-17
6.690000E+03	1.594950E-15	3.427566E-17
6.700000E+03	1.601687E-15	3.408807E-17
6.710000E+03	1.606162E-15	3.384337E-17
6.720000E+03	1.608259E-15	3.355197E-17
6.730000E+03	1.608050E-15	3.322701E-17
6.740000E+03	1.605613E-15	3.287935E-17
6.750000E+03	1.601033E-15	3.251672E-17
6.760000E+03	1.594557E-15	3.214655E-17
6.770000E+03	1.586404E-15	3.177212E-17
6.780000E+03	1.576897E-15	3.139575E-17
6.790000E+03	1.566308E-15	3.101689E-17
6.800000E+03	1.555047E-15	3.063660E-17
6.810000E+03	1.543479E-15	3.025495E-17
6.820000E+03	1.531951E-15	2.987186E-17
6.830000E+03	1.520827E-15	2.948824E-17
6.840000E+03	1.510454E-15	2.910538E-17
6.850000E+03	1.501205E-15	2.872588E-17
6.860000E+03	1.493285E-15	2.835003E-17
6.870000E+03	1.486986E-15	2.798077E-17
6.880000E+03	1.482493E-15	2.762022E-17
6.890000E+03	1.479906E-15	2.727026E-17
6.900000E+03	1.479316E-15	2.693402E-17
6.910000E+03	1.480719E-15	2.661454E-17
6.920000E+03	1.484016E-15	2.631488E-17
6.930000E+03	1.489095E-15	2.603959E-17
6.940000E+03	1.495753E-15	2.579341E-17
6.950000E+03	1.503699E-15	2.558114E-17
6.960000E+03	1.512680E-15	2.540935E-17
6.970000E+03	1.522295E-15	2.528271E-17
6.980000E+03	1.532235E-15	2.520709E-17
6.990000E+03	1.542082E-15	2.518526E-17
7.000000E+03	1.551549E-15	2.521997E-17
7.010000E+03	1.560277E-15	2.530986E-17
7.020000E+03	1.568074E-15	2.545320E-17
7.030000E+03	1.574728E-15	2.564482E-17
7.040000E+03	1.580125E-15	2.587846E-17
7.050000E+03	1.584251E-15	2.614721E-17
7.060000E+03	1.587095E-15	2.644246E-17
7.070000E+03	1.588732E-15	2.675570E-17
7.080000E+03	1.589310E-15	2.707890E-17
7.090000E+03	1.588977E-15	2.740372E-17
7.100000E+03	1.587869E-15	2.772172E-17
7.110000E+03	1.586189E-15	2.802612E-17
7.120000E+03	1.584104E-15	2.831042E-17
7.130000E+03	1.581771E-15	2.856891E-17
7.140000E+03	1.579297E-15	2.879621E-17
7.150000E+03	1.576861E-15	2.898948E-17
7.160000E+03	1.574523E-15	2.914494E-17
7.170000E+03	1.572347E-15	2.926003E-17
7.180000E+03	1.570404E-15	2.933343E-17
7.190000E+03	1.568674E-15	2.936327E-17
7.200000E+03	1.567145E-15	2.934907E-17
7.210000E+03	1.565846E-15	2.929246E-17
7.220000E+03	1.564631E-15	2.919321E-17
7.230000E+03	1.563530E-15	2.905579E-17
7.240000E+03	1.562434E-15	2.888334E-17
7.250000E+03	1.561227E-15	2.867986E-17
7.260000E+03	1.559855E-15	2.845110E-17
7.270000E+03	1.558269E-15	2.820291E-17
7.280000E+03	1.556355E-15	2.793959E-17
7.290000E+03	1.554010E-15	2.766458E-17
7.300000E+03	1.551236E-15	2.738177E-17
7.310000E+03	1.547952E-15	2.709152E-17
7.320000E+03	1.544115E-15	2.679279E-17
7.330000E+03	1.539731E-15	2.648296E-17
7.340000E+03	1.534677E-15	2.615501E-17
7.350000E+03	1.529042E-15	2.580337E-17
7.360000E+03	1.522749E-15	2.541799E-17
7.370000E+03	1.515793E-15	2.498867E-17
7.380000E+03	1.508168E-15	2.450446E-17
7.390000E+03	1.499836E-15	2.395369E-17
7.400000E+03	1.490793E-15	2.332562E-17
7.410000E+03	1.481037E-15	2.261056E-17
7.420000E+03	1.470535E-15	2.179994E-17
7.430000E+03	1.459296E-15	2.088800E-17
7.440000E+03	1.447301E-15	1.987152E-17
7.450000E+03	1.434681E-15	1.875307E-17
7.460000E+03	1.421412E-15	1.753836E-17
7.470000E+03	1.407625E-15	1.624268E-17
7.480000E+03	1.393400E-15	1.489196E-17
7.490000E+03	1.378869E-15	1.352966E-17
7.500000E+03	1.364121E-15	1.222381E-17
7.510000E+03	1.349320E-15	1.107743E-17
7.520000E+03	1.334646E-15	1.023033E-17
7.530000E+03	1.320189E-15	9.834374E-18
7.540000E+03	1.306188E-15	9.981654E-18
7.550000E+03	1.292674E-15	1.062036E-17
7.560000E+03	1.279716E-15	1.160269E-17
7.570000E+03	1.267441E-15	1.277776E-17
7.580000E+03	1.255858E-15	1.402937E-17
7.590000E+03	1.245039E-15	1.528019E-17
7.600000E+03	1.235116E-15	1.648298E-17
7.610000E+03	1.226093E-15	1.760906E-17
7.620000E+03	1.218030E-15	1.864383E-17
7.630000E+03	1.211003E-15	1.958212E-17
7.640000E+03	1.205045E-15	2.042432E-17
7.650000E+03	1.200143E-15	2.117411E-17
7.660000E+03	1.196325E-15	2.183851E-17
7.670000E+03	1.193569E-15	2.242512E-17
7.680000E+03	1.191776E-15	2.294047E-17
7.690000E+03	1.190975E-15	2.339328E-17
7.700000E+03	1.190998E-15	2.378771E-17
7.710000E+03	1.191844E-15	2.413037E-17
7.720000E+03	1.193315E-15	2.442324E-17
7.730000E+03	1.195386E-15	2.467142E-17
7.740000E+03	1.197873E-15	2.487664E-17
7.750000E+03	1.200650E-15	2.504191E-17
7.760000E+03	1.203650E-15	2.517185E-17
