#wls	flux	fluxerr
1.600000E+03	1.823479E-15	1.179823E-15
1.640000E+03	1.888340E-15	1.200421E-15
1.680000E+03	1.955537E-15	1.220479E-15
1.720000E+03	2.024833E-15	1.239713E-15
1.760000E+03	2.096391E-15	1.258089E-15
1.800000E+03	2.170114E-15	1.275406E-15
1.840000E+03	2.245852E-15	1.291439E-15
1.880000E+03	2.323628E-15	1.306062E-15
1.920000E+03	2.402950E-15	1.318866E-15
1.960000E+03	2.483709E-15	1.329672E-15
2.000000E+03	2.565723E-15	1.338268E-15
2.040000E+03	2.648046E-15	1.344067E-15
2.080000E+03	2.730781E-15	1.347055E-15
2.120000E+03	2.813030E-15	1.346737E-15
2.160000E+03	2.894699E-15	1.343048E-15
2.200000E+03	2.975350E-15	1.335784E-15
2.240000E+03	3.055511E-15	1.325191E-15
2.280000E+03	3.135940E-15	1.311592E-15
2.320000E+03	3.215875E-15	1.294660E-15
2.360000E+03	3.293752E-15	1.273815E-15
2.400000E+03	3.367673E-15	1.248471E-15
2.440000E+03	3.436436E-15	1.218425E-15
2.480000E+03	3.498877E-15	1.183586E-15
2.520000E+03	3.553676E-15	1.143911E-15
2.560000E+03	3.599377E-15	1.099426E-15
2.600000E+03	3.634420E-15	1.050248E-15
2.640000E+03	3.657187E-15	9.966051E-16
2.680000E+03	3.666049E-15	9.388539E-16
2.720000E+03	3.659007E-15	8.773876E-16
2.760000E+03	3.634695E-15	8.128866E-16
2.800000E+03	3.591589E-15	7.460913E-16
2.840000E+03	3.528227E-15	6.778432E-16
2.880000E+03	3.444086E-15	6.092155E-16
2.920000E+03	3.339536E-15	5.414091E-16
2.960000E+03	3.216766E-15	4.757981E-16
3.000000E+03	3.078363E-15	4.135840E-16
3.010000E+03	3.041710E-15	3.986885E-16
3.020000E+03	3.004298E-15	3.840784E-16
3.030000E+03	2.966219E-15	3.697710E-16
3.040000E+03	2.927492E-15	3.557728E-16
3.050000E+03	2.888137E-15	3.420894E-16
3.060000E+03	2.848249E-15	3.287344E-16
3.070000E+03	2.807918E-15	3.157187E-16
3.080000E+03	2.767099E-15	3.030373E-16
3.090000E+03	2.725949E-15	2.907064E-16
3.100000E+03	2.684432E-15	2.787194E-16
3.110000E+03	2.642698E-15	2.670888E-16
3.120000E+03	2.600716E-15	2.558070E-16
3.130000E+03	2.558632E-15	2.448829E-16
3.140000E+03	2.516420E-15	2.343075E-16
3.150000E+03	2.474170E-15	2.240821E-16
3.160000E+03	2.431965E-15	2.142062E-16
3.170000E+03	2.389792E-15	2.046697E-16
3.180000E+03	2.347783E-15	1.954746E-16
3.190000E+03	2.305975E-15	1.866134E-16
3.200000E+03	2.264403E-15	1.780785E-16
3.210000E+03	2.223150E-15	1.698651E-16
3.220000E+03	2.182252E-15	1.619644E-16
3.230000E+03	2.141788E-15	1.543704E-16
3.240000E+03	2.101795E-15	1.470736E-16
3.250000E+03	2.062311E-15	1.400649E-16
3.260000E+03	2.023412E-15	1.333371E-16
3.270000E+03	1.985168E-15	1.268829E-16
3.280000E+03	1.947582E-15	1.206907E-16
3.290000E+03	1.910693E-15	1.147514E-16
3.300000E+03	1.874604E-15	1.090599E-16
3.310000E+03	1.839318E-15	1.036060E-16
3.320000E+03	1.804905E-15	9.838304E-17
3.330000E+03	1.771399E-15	9.338350E-17
3.340000E+03	1.738813E-15	8.859911E-17
3.350000E+03	1.707213E-15	8.402522E-17
3.360000E+03	1.676663E-15	7.965765E-17
3.370000E+03	1.647154E-15	7.548962E-17
3.380000E+03	1.618754E-15	7.151903E-17
3.390000E+03	1.591505E-15	6.774363E-17
3.400000E+03	1.565453E-15	6.416244E-17
3.410000E+03	1.540603E-15	6.077423E-17
3.420000E+03	1.517047E-15	5.758273E-17
3.430000E+03	1.494795E-15	5.459000E-17
3.440000E+03	1.473886E-15	5.180089E-17
3.450000E+03	1.454396E-15	4.922334E-17
3.460000E+03	1.436331E-15	4.686453E-17
3.470000E+03	1.419757E-15	4.473519E-17
3.480000E+03	1.404721E-15	4.284659E-17
3.490000E+03	1.391257E-15	4.121002E-17
3.500000E+03	1.379399E-15	3.983622E-17
3.510000E+03	1.369178E-15	3.873389E-17
3.520000E+03	1.360574E-15	3.790648E-17
3.530000E+03	1.353605E-15	3.735211E-17
3.540000E+03	1.348189E-15	3.705478E-17
3.550000E+03	1.344173E-15	3.698737E-17
3.560000E+03	1.341411E-15	3.711887E-17
3.570000E+03	1.339774E-15	3.741712E-17
3.580000E+03	1.339096E-15	3.784933E-17
3.590000E+03	1.339238E-15	3.838501E-17
3.600000E+03	1.340084E-15	3.899685E-17
3.610000E+03	1.341519E-15	3.966042E-17
3.620000E+03	1.343506E-15	4.035665E-17
3.630000E+03	1.345994E-15	4.106905E-17
3.640000E+03	1.348995E-15	4.178586E-17
3.650000E+03	1.352496E-15	4.249705E-17
3.660000E+03	1.356519E-15	4.319596E-17
3.670000E+03	1.361109E-15	4.387855E-17
3.680000E+03	1.366297E-15	4.454197E-17
3.690000E+03	1.372158E-15	4.518613E-17
3.700000E+03	1.378737E-15	4.581111E-17
3.710000E+03	1.386098E-15	4.641842E-17
3.720000E+03	1.394329E-15	4.701119E-17
3.730000E+03	1.403499E-15	4.759234E-17
3.740000E+03	1.413687E-15	4.816554E-17
3.750000E+03	1.424958E-15	4.873427E-17
3.760000E+03	1.437382E-15	4.930242E-17
3.770000E+03	1.451027E-15	4.987374E-17
3.780000E+03	1.465925E-15	5.045091E-17
3.790000E+03	1.482146E-15	5.103790E-17
3.800000E+03	1.499714E-15	5.163695E-17
3.810000E+03	1.518636E-15	5.224975E-17
3.820000E+03	1.538930E-15	5.287824E-17
3.830000E+03	1.560573E-15	5.352284E-17
3.840000E+03	1.583533E-15	5.418372E-17
3.850000E+03	1.607751E-15	5.485990E-17
3.860000E+03	1.633169E-15	5.555058E-17
3.870000E+03	1.659689E-15	5.625338E-17
3.880000E+03	1.687201E-15	5.696574E-17
3.890000E+03	1.715581E-15	5.768444E-17
3.900000E+03	1.744668E-15	5.840531E-17
3.910000E+03	1.774304E-15	5.912412E-17
3.920000E+03	1.804310E-15	5.983623E-17
3.930000E+03	1.834501E-15	6.053670E-17
3.940000E+03	1.864651E-15	6.121942E-17
3.950000E+03	1.894584E-15	6.187999E-17
3.960000E+03	1.924051E-15	6.251160E-17
3.970000E+03	1.952878E-15	6.310982E-17
3.980000E+03	1.980833E-15	6.366835E-17
3.990000E+03	2.007725E-15	6.418201E-17
4.000000E+03	2.033359E-15	6.464526E-17
4.010000E+03	2.057585E-15	6.505376E-17
4.020000E+03	2.080211E-15	6.540138E-17
4.030000E+03	2.101141E-15	6.568471E-17
4.040000E+03	2.120226E-15	6.589802E-17
4.050000E+03	2.137403E-15	6.603783E-17
4.060000E+03	2.152599E-15	6.609985E-17
4.070000E+03	2.165788E-15	6.608046E-17
4.080000E+03	2.176916E-15	6.597475E-17
4.090000E+03	2.186037E-15	6.578048E-17
4.100000E+03	2.193161E-15	6.549357E-17
4.110000E+03	2.198339E-15	6.511060E-17
4.120000E+03	2.201658E-15	6.462883E-17
4.130000E+03	2.203208E-15	6.404514E-17
4.140000E+03	2.203094E-15	6.335659E-17
4.150000E+03	2.201472E-15	6.256136E-17
4.160000E+03	2.198442E-15	6.165587E-17
4.170000E+03	2.194184E-15	6.063860E-17
4.180000E+03	2.188851E-15	5.950726E-17
4.190000E+03	2.182603E-15	5.825978E-17
4.200000E+03	2.175639E-15	5.689521E-17
4.210000E+03	2.168108E-15	5.541155E-17
4.220000E+03	2.160212E-15	5.380851E-17
4.230000E+03	2.152098E-15	5.208506E-17
4.240000E+03	2.143976E-15	5.024257E-17
4.250000E+03	2.135998E-15	4.828228E-17
4.260000E+03	2.128324E-15	4.620738E-17
4.270000E+03	2.121102E-15	4.402340E-17
4.280000E+03	2.114483E-15	4.173946E-17
4.290000E+03	2.108586E-15	3.936916E-17
4.300000E+03	2.103529E-15	3.693330E-17
4.310000E+03	2.099381E-15	3.446207E-17
4.320000E+03	2.096260E-15	3.200096E-17
4.330000E+03	2.094184E-15	2.961390E-17
4.340000E+03	2.093208E-15	2.739200E-17
4.350000E+03	2.093379E-15	2.545806E-17
4.360000E+03	2.094687E-15	2.396446E-17
4.370000E+03	2.097177E-15	2.307568E-17
4.380000E+03	2.100853E-15	2.292200E-17
4.390000E+03	2.105721E-15	2.352865E-17
4.400000E+03	2.111801E-15	2.479337E-17
4.410000E+03	2.119101E-15	2.655367E-17
4.420000E+03	2.127633E-15	2.864454E-17
4.430000E+03	2.137398E-15	3.092666E-17
4.440000E+03	2.148401E-15	3.329335E-17
4.450000E+03	2.160590E-15	3.566596E-17
4.460000E+03	2.173901E-15	3.798795E-17
4.470000E+03	2.188295E-15	4.021934E-17
4.480000E+03	2.203613E-15	4.232939E-17
4.490000E+03	2.219730E-15	4.429576E-17
4.500000E+03	2.236457E-15	4.610017E-17
4.510000E+03	2.253606E-15	4.772798E-17
4.520000E+03	2.270925E-15	4.916563E-17
4.530000E+03	2.288172E-15	5.040143E-17
4.540000E+03	2.305047E-15	5.142356E-17
4.550000E+03	2.321249E-15	5.222120E-17
4.560000E+03	2.336492E-15	5.278463E-17
4.570000E+03	2.350446E-15	5.310417E-17
4.580000E+03	2.362847E-15	5.317277E-17
4.590000E+03	2.373370E-15	5.298341E-17
4.600000E+03	2.381775E-15	5.253284E-17
4.610000E+03	2.387836E-15	5.182045E-17
4.620000E+03	2.391376E-15	5.084952E-17
4.630000E+03	2.392266E-15	4.962800E-17
4.640000E+03	2.390440E-15	4.816947E-17
4.650000E+03	2.385857E-15	4.649334E-17
4.660000E+03	2.378600E-15	4.462809E-17
4.670000E+03	2.368803E-15	4.261096E-17
4.680000E+03	2.356599E-15	4.048888E-17
4.690000E+03	2.342264E-15	3.832287E-17
4.700000E+03	2.326084E-15	3.618745E-17
4.710000E+03	2.308446E-15	3.417318E-17
4.720000E+03	2.289766E-15	3.238425E-17
4.730000E+03	2.270454E-15	3.093220E-17
4.740000E+03	2.250945E-15	2.992330E-17
4.750000E+03	2.231603E-15	2.943638E-17
4.760000E+03	2.212819E-15	2.949454E-17
4.770000E+03	2.194891E-15	3.004660E-17
4.780000E+03	2.178096E-15	3.099767E-17
4.790000E+03	2.162654E-15	3.223982E-17
4.800000E+03	2.148769E-15	3.367225E-17
4.810000E+03	2.136607E-15	3.521102E-17
4.820000E+03	2.126241E-15	3.679057E-17
4.830000E+03	2.117782E-15	3.836434E-17
4.840000E+03	2.111248E-15	3.989941E-17
4.850000E+03	2.106678E-15	4.137516E-17
4.860000E+03	2.103983E-15	4.277748E-17
4.870000E+03	2.103156E-15	4.410045E-17
4.880000E+03	2.104086E-15	4.534080E-17
4.890000E+03	2.106634E-15	4.649795E-17
4.900000E+03	2.110680E-15	4.757389E-17
4.910000E+03	2.116066E-15	4.857119E-17
4.920000E+03	2.122624E-15	4.949287E-17
4.930000E+03	2.130158E-15	5.034153E-17
4.940000E+03	2.138510E-15	5.112051E-17
4.950000E+03	2.147506E-15	5.183235E-17
4.960000E+03	2.156941E-15	5.247822E-17
4.970000E+03	2.166724E-15	5.306125E-17
4.980000E+03	2.176659E-15	5.358136E-17
4.990000E+03	2.186671E-15	5.404062E-17
5.000000E+03	2.196648E-15	5.443950E-17
5.010000E+03	2.206519E-15	5.477895E-17
5.020000E+03	2.216215E-15	5.505952E-17
5.030000E+03	2.225753E-15	5.528350E-17
5.040000E+03	2.235085E-15	5.545140E-17
5.050000E+03	2.244223E-15	5.556499E-17
5.060000E+03	2.253214E-15	5.562684E-17
5.070000E+03	2.262096E-15	5.563912E-17
5.080000E+03	2.270871E-15	5.560294E-17
5.090000E+03	2.279630E-15	5.552137E-17
5.100000E+03	2.288380E-15	5.539498E-17
5.110000E+03	2.297189E-15	5.522532E-17
5.120000E+03	2.306098E-15	5.501253E-17
5.130000E+03	2.315140E-15	5.475561E-17
5.140000E+03	2.324318E-15	5.445166E-17
5.150000E+03	2.333645E-15	5.409669E-17
5.160000E+03	2.343124E-15	5.368492E-17
5.170000E+03	2.352748E-15	5.320869E-17
5.180000E+03	2.362496E-15	5.265845E-17
5.190000E+03	2.372343E-15	5.202286E-17
5.200000E+03	2.382251E-15	5.128906E-17
5.210000E+03	2.392158E-15	5.044248E-17
5.220000E+03	2.402021E-15	4.946838E-17
5.230000E+03	2.411821E-15	4.835240E-17
5.240000E+03	2.421497E-15	4.707987E-17
5.250000E+03	2.431019E-15	4.563817E-17
5.260000E+03	2.440345E-15	4.401689E-17
5.270000E+03	2.449518E-15	4.221100E-17
5.280000E+03	2.458502E-15	4.021954E-17
5.290000E+03	2.467348E-15	3.805109E-17
5.300000E+03	2.476099E-15	3.572545E-17
5.310000E+03	2.484758E-15	3.327836E-17
5.320000E+03	2.493429E-15	3.077076E-17
5.330000E+03	2.502141E-15	2.829643E-17
5.340000E+03	2.510928E-15	2.599589E-17
5.350000E+03	2.519794E-15	2.406582E-17
5.360000E+03	2.528704E-15	2.275081E-17
5.370000E+03	2.537545E-15	2.228990E-17
5.380000E+03	2.546209E-15	2.279902E-17
5.390000E+03	2.554493E-15	2.417362E-17
5.400000E+03	2.562199E-15	2.617853E-17
5.410000E+03	2.569028E-15	2.856531E-17
5.420000E+03	2.574666E-15	3.112890E-17
5.430000E+03	2.578750E-15	3.371778E-17
5.440000E+03	2.580988E-15	3.622702E-17
5.450000E+03	2.580947E-15	3.858365E-17
5.460000E+03	2.578330E-15	4.074057E-17
5.470000E+03	2.572912E-15	4.266907E-17
5.480000E+03	2.564535E-15	4.435393E-17
5.490000E+03	2.553036E-15	4.578887E-17
5.500000E+03	2.538389E-15	4.697654E-17
5.510000E+03	2.520654E-15	4.792602E-17
5.520000E+03	2.499983E-15	4.865151E-17
5.530000E+03	2.476615E-15	4.917118E-17
5.540000E+03	2.450844E-15	4.950565E-17
5.550000E+03	2.423039E-15	4.967754E-17
5.560000E+03	2.393705E-15	4.971209E-17
5.570000E+03	2.363299E-15	4.963286E-17
5.580000E+03	2.332361E-15	4.946406E-17
5.590000E+03	2.301454E-15	4.922890E-17
5.600000E+03	2.271169E-15	4.894968E-17
5.610000E+03	2.242020E-15	4.864540E-17
5.620000E+03	2.214572E-15	4.833459E-17
5.630000E+03	2.189335E-15	4.803319E-17
5.640000E+03	2.166755E-15	4.775454E-17
5.650000E+03	2.147271E-15	4.751089E-17
5.660000E+03	2.131225E-15	4.731150E-17
5.670000E+03	2.118939E-15	4.716473E-17
5.680000E+03	2.110607E-15	4.707564E-17
5.690000E+03	2.106440E-15	4.704958E-17
5.700000E+03	2.106539E-15	4.708934E-17
5.710000E+03	2.110885E-15	4.719518E-17
5.720000E+03	2.119482E-15	4.736793E-17
5.730000E+03	2.132190E-15	4.760559E-17
5.740000E+03	2.148845E-15	4.790589E-17
5.750000E+03	2.169166E-15	4.826439E-17
5.760000E+03	2.192828E-15	4.867601E-17
5.770000E+03	2.219461E-15	4.913523E-17
5.780000E+03	2.248616E-15	4.963506E-17
5.790000E+03	2.279765E-15	5.016715E-17
5.800000E+03	2.312387E-15	5.072349E-17
5.810000E+03	2.345929E-15	5.129545E-17
5.820000E+03	2.379742E-15	5.187222E-17
5.830000E+03	2.413249E-15	5.244422E-17
5.840000E+03	2.445884E-15	5.300167E-17
5.850000E+03	2.477053E-15	5.353356E-17
5.860000E+03	2.506257E-15	5.403020E-17
5.870000E+03	2.533020E-15	5.448172E-17
5.880000E+03	2.556931E-15	5.487893E-17
5.890000E+03	2.577620E-15	5.521292E-17
5.900000E+03	2.594883E-15	5.547783E-17
5.910000E+03	2.608536E-15	5.566789E-17
5.920000E+03	2.618443E-15	5.577802E-17
5.930000E+03	2.624607E-15	5.580581E-17
5.940000E+03	2.627067E-15	5.574941E-17
5.950000E+03	2.625959E-15	5.560864E-17
5.960000E+03	2.621379E-15	5.538209E-17
5.970000E+03	2.613623E-15	5.507204E-17
5.980000E+03	2.602897E-15	5.467820E-17
5.990000E+03	2.589465E-15	5.420074E-17
6.000000E+03	2.573636E-15	5.363993E-17
6.010000E+03	2.555695E-15	5.299461E-17
6.020000E+03	2.535926E-15	5.226270E-17
6.030000E+03	2.514605E-15	5.144108E-17
6.040000E+03	2.492059E-15	5.052681E-17
6.050000E+03	2.468533E-15	4.951461E-17
6.060000E+03	2.444224E-15	4.839769E-17
6.070000E+03	2.419397E-15	4.717026E-17
6.080000E+03	2.394233E-15	4.582473E-17
6.090000E+03	2.368891E-15	4.435324E-17
6.100000E+03	2.343566E-15	4.274910E-17
6.110000E+03	2.318309E-15	4.100392E-17
6.120000E+03	2.293271E-15	3.911267E-17
6.130000E+03	2.268523E-15	3.707113E-17
6.140000E+03	2.244113E-15	3.487807E-17
6.150000E+03	2.220074E-15	3.253673E-17
6.160000E+03	2.196391E-15	3.005652E-17
6.170000E+03	2.173089E-15	2.745747E-17
6.180000E+03	2.150124E-15	2.477371E-17
6.190000E+03	2.127552E-15	2.206388E-17
6.200000E+03	2.105278E-15	1.942194E-17
6.210000E+03	2.083346E-15	1.700145E-17
6.220000E+03	2.061659E-15	1.503632E-17
6.230000E+03	2.040195E-15	1.383507E-17
6.240000E+03	2.018984E-15	1.366070E-17
6.250000E+03	1.998014E-15	1.449457E-17
6.260000E+03	1.977307E-15	1.603878E-17
6.270000E+03	1.956941E-15	1.796222E-17
6.280000E+03	1.936922E-15	2.002249E-17
6.290000E+03	1.917370E-15	2.207101E-17
6.300000E+03	1.898320E-15	2.402272E-17
6.310000E+03	1.879857E-15	2.583293E-17
6.320000E+03	1.862008E-15	2.748040E-17
6.330000E+03	1.844881E-15	2.895980E-17
6.340000E+03	1.828530E-15	3.027415E-17
6.350000E+03	1.813040E-15	3.143258E-17
6.360000E+03	1.798475E-15	3.244718E-17
6.370000E+03	1.784962E-15	3.333301E-17
6.380000E+03	1.772556E-15	3.410468E-17
6.390000E+03	1.761401E-15	3.477862E-17
6.400000E+03	1.751624E-15	3.537073E-17
6.410000E+03	1.743279E-15	3.589483E-17
6.420000E+03	1.736502E-15	3.636569E-17
6.430000E+03	1.731324E-15	3.679500E-17
6.440000E+03	1.727878E-15	3.719571E-17
6.450000E+03	1.726180E-15	3.757741E-17
6.460000E+03	1.726339E-15	3.795081E-17
6.470000E+03	1.728366E-15	3.832360E-17
6.480000E+03	1.732274E-15	3.870268E-17
6.490000E+03	1.738105E-15	3.909471E-17
6.500000E+03	1.745815E-15	3.950369E-17
6.510000E+03	1.755300E-15	3.993140E-17
6.520000E+03	1.766503E-15	4.037990E-17
6.530000E+03	1.779306E-15	4.084903E-17
6.540000E+03	1.793498E-15	4.133578E-17
6.550000E+03	1.808949E-15	4.183818E-17
6.560000E+03	1.825382E-15	4.235020E-17
6.570000E+03	1.842550E-15	4.286580E-17
6.580000E+03	1.860214E-15	4.337854E-17
6.590000E+03	1.878055E-15	4.387971E-17
6.600000E+03	1.895776E-15	4.436070E-17
6.610000E+03	1.913104E-15	4.481344E-17
6.620000E+03	1.929677E-15	4.522780E-17
6.630000E+03	1.945268E-15	4.559715E-17
6.640000E+03	1.959575E-15	4.591357E-17
6.650000E+03	1.972321E-15	4.617037E-17
6.660000E+03	1.983358E-15	4.636465E-17
6.670000E+03	1.992446E-15	4.649215E-17
6.680000E+03	1.999522E-15	4.655341E-17
6.690000E+03	2.004433E-15	4.654754E-17
6.700000E+03	2.007213E-15	4.647838E-17
6.710000E+03	2.007840E-15	4.634877E-17
6.720000E+03	2.006342E-15	4.616270E-17
6.730000E+03	2.002894E-15	4.592739E-17
6.740000E+03	1.997611E-15	4.564834E-17
6.750000E+03	1.990680E-15	4.533225E-17
6.760000E+03	1.982317E-15	4.498598E-17
6.770000E+03	1.972763E-15	4.461640E-17
6.780000E+03	1.962313E-15	4.423104E-17
6.790000E+03	1.951169E-15	4.383484E-17
6.800000E+03	1.939672E-15	4.343550E-17
6.810000E+03	1.928058E-15	4.303803E-17
6.820000E+03	1.916586E-15	4.264777E-17
6.830000E+03	1.905535E-15	4.227033E-17
6.840000E+03	1.895090E-15	4.190933E-17
6.850000E+03	1.885448E-15	4.156858E-17
6.860000E+03	1.876772E-15	4.125139E-17
6.870000E+03	1.869228E-15	4.096123E-17
6.880000E+03	1.862878E-15	4.069950E-17
6.890000E+03	1.857780E-15	4.046781E-17
6.900000E+03	1.853957E-15	4.026720E-17
6.910000E+03	1.851430E-15	4.009888E-17
6.920000E+03	1.850151E-15	3.996280E-17
6.930000E+03	1.849971E-15	3.985688E-17
6.940000E+03	1.850853E-15	3.978155E-17
6.950000E+03	1.852629E-15	3.973454E-17
6.960000E+03	1.855184E-15	3.971472E-17
6.970000E+03	1.858317E-15	3.971912E-17
6.980000E+03	1.861856E-15	3.974531E-17
6.990000E+03	1.865661E-15	3.979146E-17
7.000000E+03	1.869525E-15	3.985416E-17
7.010000E+03	1.873321E-15	3.993150E-17
7.020000E+03	1.876865E-15	4.002008E-17
7.030000E+03	1.880025E-15	4.011733E-17
7.040000E+03	1.882728E-15	4.022156E-17
7.050000E+03	1.884852E-15	4.032960E-17
7.060000E+03	1.886333E-15	4.043910E-17
7.070000E+03	1.887169E-15	4.054859E-17
7.080000E+03	1.887308E-15	4.065503E-17
7.090000E+03	1.886792E-15	4.075698E-17
7.100000E+03	1.885606E-15	4.085142E-17
7.110000E+03	1.883825E-15	4.093697E-17
7.120000E+03	1.881460E-15	4.101067E-17
7.130000E+03	1.878569E-15	4.107049E-17
7.140000E+03	1.875249E-15	4.111534E-17
7.150000E+03	1.871564E-15	4.114347E-17
7.160000E+03	1.867535E-15	4.115247E-17
7.170000E+03	1.863219E-15	4.114091E-17
7.180000E+03	1.858743E-15	4.110930E-17
7.190000E+03	1.854035E-15	4.105399E-17
7.200000E+03	1.849246E-15	4.097665E-17
7.210000E+03	1.844288E-15	4.087390E-17
7.220000E+03	1.839296E-15	4.074760E-17
7.230000E+03	1.834203E-15	4.059537E-17
7.240000E+03	1.829051E-15	4.041738E-17
7.250000E+03	1.823838E-15	4.021287E-17
7.260000E+03	1.818515E-15	3.998000E-17
7.270000E+03	1.813109E-15	3.971839E-17
7.280000E+03	1.807601E-15	3.942633E-17
7.290000E+03	1.801933E-15	3.910067E-17
7.300000E+03	1.796123E-15	3.873929E-17
7.310000E+03	1.790149E-15	3.833833E-17
7.320000E+03	1.783988E-15	3.789303E-17
7.330000E+03	1.777576E-15	3.739681E-17
7.340000E+03	1.770933E-15	3.684377E-17
7.350000E+03	1.764035E-15	3.622629E-17
7.360000E+03	1.756822E-15	3.553510E-17
7.370000E+03	1.749273E-15	3.476118E-17
7.380000E+03	1.741407E-15	3.389590E-17
7.390000E+03	1.733164E-15	3.292897E-17
7.400000E+03	1.724563E-15	3.185199E-17
7.410000E+03	1.715545E-15	3.065577E-17
7.420000E+03	1.706130E-15	2.933398E-17
7.430000E+03	1.696301E-15	2.788163E-17
7.440000E+03	1.686040E-15	2.629682E-17
7.450000E+03	1.675374E-15	2.458270E-17
7.460000E+03	1.664253E-15	2.274762E-17
7.470000E+03	1.652710E-15	2.081050E-17
7.480000E+03	1.640746E-15	1.880380E-17
7.490000E+03	1.628369E-15	1.678178E-17
7.500000E+03	1.615596E-15	1.483268E-17
7.510000E+03	1.602418E-15	1.309542E-17
7.520000E+03	1.588963E-15	1.177383E-17
7.530000E+03	1.575224E-15	1.110750E-17
7.540000E+03	1.561377E-15	1.125194E-17
7.550000E+03	1.547455E-15	1.212660E-17
7.560000E+03	1.533622E-15	1.349338E-17
7.570000E+03	1.520020E-15	1.511934E-17
7.580000E+03	1.506758E-15	1.683877E-17
7.590000E+03	1.494015E-15	1.854949E-17
7.600000E+03	1.481885E-15	2.019145E-17
7.610000E+03	1.470484E-15	2.173193E-17
7.620000E+03	1.459949E-15	2.315545E-17
7.630000E+03	1.450322E-15	2.445575E-17
7.640000E+03	1.441660E-15	2.563351E-17
7.650000E+03	1.434004E-15	2.669339E-17
7.660000E+03	1.427410E-15	2.764309E-17
7.670000E+03	1.421804E-15	2.848948E-17
7.680000E+03	1.417240E-15	2.924279E-17
7.690000E+03	1.413646E-15	2.991107E-17
7.700000E+03	1.410973E-15	3.050280E-17
7.710000E+03	1.409154E-15	3.102588E-17
7.720000E+03	1.408112E-15	3.148755E-17
7.730000E+03	1.407761E-15	3.189433E-17
7.740000E+03	1.408040E-15	3.225289E-17
7.750000E+03	1.408848E-15	3.256837E-17
7.760000E+03	1.410001E-15	3.284348E-17
