#wls	flux	fluxerr
1.600000E+03	6.646684E-16	4.360406E-16
1.640000E+03	6.785914E-16	4.379771E-16
1.680000E+03	6.923307E-16	4.393458E-16
1.720000E+03	7.056795E-16	4.400154E-16
1.760000E+03	7.186571E-16	4.400025E-16
1.800000E+03	7.311597E-16	4.392503E-16
1.840000E+03	7.431988E-16	4.377754E-16
1.880000E+03	7.547835E-16	4.355939E-16
1.920000E+03	7.657932E-16	4.326491E-16
1.960000E+03	7.763506E-16	4.290264E-16
2.000000E+03	7.863219E-16	4.246674E-16
2.040000E+03	7.956899E-16	4.195837E-16
2.080000E+03	8.045555E-16	4.138498E-16
2.120000E+03	8.127551E-16	4.074040E-16
2.160000E+03	8.206174E-16	4.004349E-16
2.200000E+03	8.278239E-16	3.928078E-16
2.240000E+03	8.344180E-16	3.845735E-16
2.280000E+03	8.400577E-16	3.756095E-16
2.320000E+03	8.445211E-16	3.658660E-16
2.360000E+03	8.474690E-16	3.552579E-16
2.400000E+03	8.488073E-16	3.438204E-16
2.440000E+03	8.481100E-16	3.314657E-16
2.480000E+03	8.453210E-16	3.182714E-16
2.520000E+03	8.401904E-16	3.042495E-16
2.560000E+03	8.326199E-16	2.894798E-16
2.600000E+03	8.226507E-16	2.740951E-16
2.640000E+03	8.100781E-16	2.581477E-16
2.680000E+03	7.951365E-16	2.418347E-16
2.720000E+03	7.778296E-16	2.252720E-16
2.760000E+03	7.585503E-16	2.086811E-16
2.800000E+03	7.374672E-16	1.922007E-16
2.840000E+03	7.149392E-16	1.760046E-16
2.880000E+03	6.909416E-16	1.601549E-16
2.920000E+03	6.658032E-16	1.447906E-16
2.960000E+03	6.396521E-16	1.299890E-16
3.000000E+03	6.130648E-16	1.159040E-16
3.010000E+03	6.063881E-16	1.125042E-16
3.020000E+03	5.996761E-16	1.091489E-16
3.030000E+03	5.930360E-16	1.058578E-16
3.040000E+03	5.863726E-16	1.026134E-16
3.050000E+03	5.797412E-16	9.942549E-17
3.060000E+03	5.731468E-16	9.629465E-17
3.070000E+03	5.665940E-16	9.322127E-17
3.080000E+03	5.600424E-16	9.019845E-17
3.090000E+03	5.535872E-16	8.724129E-17
3.100000E+03	5.471870E-16	8.434243E-17
3.110000E+03	5.408459E-16	8.150202E-17
3.120000E+03	5.345678E-16	7.872014E-17
3.130000E+03	5.283973E-16	7.600268E-17
3.140000E+03	5.222559E-16	7.333760E-17
3.150000E+03	5.162668E-16	7.074168E-17
3.160000E+03	5.103135E-16	6.819794E-17
3.170000E+03	5.045142E-16	6.572163E-17
3.180000E+03	4.987936E-16	6.330184E-17
3.190000E+03	4.931543E-16	6.093836E-17
3.200000E+03	4.876698E-16	5.863946E-17
3.210000E+03	4.823032E-16	5.639962E-17
3.220000E+03	4.770545E-16	5.421798E-17
3.230000E+03	4.719234E-16	5.209376E-17
3.240000E+03	4.669095E-16	5.002615E-17
3.250000E+03	4.620443E-16	4.801776E-17
3.260000E+03	4.572934E-16	4.606420E-17
3.270000E+03	4.527174E-16	4.417085E-17
3.280000E+03	4.482508E-16	4.233047E-17
3.290000E+03	4.439514E-16	4.054800E-17
3.300000E+03	4.397846E-16	3.881956E-17
3.310000E+03	4.357753E-16	3.714685E-17
3.320000E+03	4.318895E-16	3.552653E-17
3.330000E+03	4.281779E-16	3.396245E-17
3.340000E+03	4.246056E-16	3.245143E-17
3.350000E+03	4.211660E-16	3.099287E-17
3.360000E+03	4.179043E-16	2.959000E-17
3.370000E+03	4.147847E-16	2.824016E-17
3.380000E+03	4.117982E-16	2.694289E-17
3.390000E+03	4.089600E-16	2.569945E-17
3.400000E+03	4.062830E-16	2.451088E-17
3.410000E+03	4.037544E-16	2.337665E-17
3.420000E+03	4.013608E-16	2.229635E-17
3.430000E+03	3.991116E-16	2.127089E-17
3.440000E+03	3.969915E-16	2.029978E-17
3.450000E+03	3.950070E-16	1.938358E-17
3.460000E+03	3.931630E-16	1.852254E-17
3.470000E+03	3.914199E-16	1.771456E-17
3.480000E+03	3.898238E-16	1.696126E-17
3.490000E+03	3.883543E-16	1.626081E-17
3.500000E+03	3.869911E-16	1.561117E-17
3.510000E+03	3.857344E-16	1.501084E-17
3.520000E+03	3.845637E-16	1.445717E-17
3.530000E+03	3.835162E-16	1.394943E-17
3.540000E+03	3.825320E-16	1.348299E-17
3.550000E+03	3.816102E-16	1.305538E-17
3.560000E+03	3.807319E-16	1.266346E-17
3.570000E+03	3.798800E-16	1.230423E-17
3.580000E+03	3.790399E-16	1.197491E-17
3.590000E+03	3.781829E-16	1.167252E-17
3.600000E+03	3.773022E-16	1.139498E-17
3.610000E+03	3.763788E-16	1.114007E-17
3.620000E+03	3.754319E-16	1.090693E-17
3.630000E+03	3.744534E-16	1.069400E-17
3.640000E+03	3.734577E-16	1.050051E-17
3.650000E+03	3.724356E-16	1.032504E-17
3.660000E+03	3.714444E-16	1.016799E-17
3.670000E+03	3.704886E-16	1.002822E-17
3.680000E+03	3.696085E-16	9.905402E-18
3.690000E+03	3.688364E-16	9.798862E-18
3.700000E+03	3.682371E-16	9.708623E-18
3.710000E+03	3.678523E-16	9.633959E-18
3.720000E+03	3.677278E-16	9.574164E-18
3.730000E+03	3.679252E-16	9.528888E-18
3.740000E+03	3.685069E-16	9.497795E-18
3.750000E+03	3.695232E-16	9.480266E-18
3.760000E+03	3.710361E-16	9.476039E-18
3.770000E+03	3.731059E-16	9.484884E-18
3.780000E+03	3.757787E-16	9.506299E-18
3.790000E+03	3.791094E-16	9.540102E-18
3.800000E+03	3.831376E-16	9.585813E-18
3.810000E+03	3.879098E-16	9.643196E-18
3.820000E+03	3.934669E-16	9.711930E-18
3.830000E+03	3.998316E-16	9.791294E-18
3.840000E+03	4.070304E-16	9.880703E-18
3.850000E+03	4.150694E-16	9.979138E-18
3.860000E+03	4.239559E-16	1.008568E-17
3.870000E+03	4.336852E-16	1.019921E-17
3.880000E+03	4.442283E-16	1.031816E-17
3.890000E+03	4.555532E-16	1.044104E-17
3.900000E+03	4.676012E-16	1.056598E-17
3.910000E+03	4.803096E-16	1.069128E-17
3.920000E+03	4.936003E-16	1.081524E-17
3.930000E+03	5.073684E-16	1.093596E-17
3.940000E+03	5.214935E-16	1.105161E-17
3.950000E+03	5.358656E-16	1.116092E-17
3.960000E+03	5.503378E-16	1.126211E-17
3.970000E+03	5.647518E-16	1.135330E-17
3.980000E+03	5.789525E-16	1.143274E-17
3.990000E+03	5.927671E-16	1.149845E-17
4.000000E+03	6.060462E-16	1.154906E-17
4.010000E+03	6.186180E-16	1.158313E-17
4.020000E+03	6.303185E-16	1.159976E-17
4.030000E+03	6.409967E-16	1.159880E-17
4.040000E+03	6.505592E-16	1.158150E-17
4.050000E+03	6.588693E-16	1.154859E-17
4.060000E+03	6.658679E-16	1.150218E-17
4.070000E+03	6.714965E-16	1.144408E-17
4.080000E+03	6.757361E-16	1.137625E-17
4.090000E+03	6.785929E-16	1.130027E-17
4.100000E+03	6.800836E-16	1.121693E-17
4.110000E+03	6.802581E-16	1.112661E-17
4.120000E+03	6.791721E-16	1.102887E-17
4.130000E+03	6.769089E-16	1.092307E-17
4.140000E+03	6.735646E-16	1.080849E-17
4.150000E+03	6.692449E-16	1.068471E-17
4.160000E+03	6.640516E-16	1.055178E-17
4.170000E+03	6.581032E-16	1.041069E-17
4.180000E+03	6.515316E-16	1.026342E-17
4.190000E+03	6.444344E-16	1.011200E-17
4.200000E+03	6.369399E-16	9.959274E-18
4.210000E+03	6.291492E-16	9.807678E-18
4.220000E+03	6.211781E-16	9.659655E-18
4.230000E+03	6.131234E-16	9.517066E-18
4.240000E+03	6.050645E-16	9.381248E-18
4.250000E+03	5.971029E-16	9.253694E-18
4.260000E+03	5.892943E-16	9.135070E-18
4.270000E+03	5.817278E-16	9.026438E-18
4.280000E+03	5.744688E-16	8.928351E-18
4.290000E+03	5.675802E-16	8.841110E-18
4.300000E+03	5.611324E-16	8.764847E-18
4.310000E+03	5.551862E-16	8.699222E-18
4.320000E+03	5.498104E-16	8.643714E-18
4.330000E+03	5.450655E-16	8.597427E-18
4.340000E+03	5.410351E-16	8.559722E-18
4.350000E+03	5.377603E-16	8.529342E-18
4.360000E+03	5.353199E-16	8.505861E-18
4.370000E+03	5.337643E-16	8.488790E-18
4.380000E+03	5.331546E-16	8.478289E-18
4.390000E+03	5.335304E-16	8.474682E-18
4.400000E+03	5.349409E-16	8.478919E-18
4.410000E+03	5.374202E-16	8.492143E-18
4.420000E+03	5.409955E-16	8.515704E-18
4.430000E+03	5.456789E-16	8.550901E-18
4.440000E+03	5.514988E-16	8.599331E-18
4.450000E+03	5.584452E-16	8.661914E-18
4.460000E+03	5.665007E-16	8.739269E-18
4.470000E+03	5.756471E-16	8.831763E-18
4.480000E+03	5.858565E-16	8.939338E-18
4.490000E+03	5.970568E-16	9.060987E-18
4.500000E+03	6.092099E-16	9.195953E-18
4.510000E+03	6.222114E-16	9.342236E-18
4.520000E+03	6.359863E-16	9.498066E-18
4.530000E+03	6.503951E-16	9.660534E-18
4.540000E+03	6.652896E-16	9.826482E-18
4.550000E+03	6.805041E-16	9.992398E-18
4.560000E+03	6.958373E-16	1.015422E-17
4.570000E+03	7.110529E-16	1.030737E-17
4.580000E+03	7.259184E-16	1.044737E-17
4.590000E+03	7.401550E-16	1.056918E-17
4.600000E+03	7.534886E-16	1.066793E-17
4.610000E+03	7.656301E-16	1.073873E-17
4.620000E+03	7.762928E-16	1.077696E-17
4.630000E+03	7.852124E-16	1.077864E-17
4.640000E+03	7.921481E-16	1.074048E-17
4.650000E+03	7.968838E-16	1.066009E-17
4.660000E+03	7.992675E-16	1.053669E-17
4.670000E+03	7.991724E-16	1.037085E-17
4.680000E+03	7.965621E-16	1.016583E-17
4.690000E+03	7.914575E-16	9.927442E-18
4.700000E+03	7.839580E-16	9.664611E-18
4.710000E+03	7.742130E-16	9.388853E-18
4.720000E+03	7.624652E-16	9.114137E-18
4.730000E+03	7.489897E-16	8.854786E-18
4.740000E+03	7.341404E-16	8.624100E-18
4.750000E+03	7.182951E-16	8.431629E-18
4.760000E+03	7.018688E-16	8.281730E-18
4.770000E+03	6.852900E-16	8.173082E-18
4.780000E+03	6.689848E-16	8.100332E-18
4.790000E+03	6.533536E-16	8.056228E-18
4.800000E+03	6.387664E-16	8.033652E-18
4.810000E+03	6.255531E-16	8.026845E-18
4.820000E+03	6.139912E-16	8.031816E-18
4.830000E+03	6.043108E-16	8.046413E-18
4.840000E+03	5.966947E-16	8.070024E-18
4.850000E+03	5.912992E-16	8.103400E-18
4.860000E+03	5.882011E-16	8.147472E-18
4.870000E+03	5.874651E-16	8.203815E-18
4.880000E+03	5.890826E-16	8.273466E-18
4.890000E+03	5.930153E-16	8.357274E-18
4.900000E+03	5.991588E-16	8.455263E-18
4.910000E+03	6.073645E-16	8.566932E-18
4.920000E+03	6.174178E-16	8.691023E-18
4.930000E+03	6.290364E-16	8.825619E-18
4.940000E+03	6.418923E-16	8.968524E-18
4.950000E+03	6.555980E-16	9.117007E-18
4.960000E+03	6.697161E-16	9.267773E-18
4.970000E+03	6.838049E-16	9.417372E-18
4.980000E+03	6.973883E-16	9.561606E-18
4.990000E+03	7.100403E-16	9.696535E-18
5.000000E+03	7.213591E-16	9.818013E-18
5.010000E+03	7.310304E-16	9.922460E-18
5.020000E+03	7.388166E-16	1.000666E-17
5.030000E+03	7.446015E-16	1.006833E-17
5.040000E+03	7.483625E-16	1.010574E-17
5.050000E+03	7.502046E-16	1.011828E-17
5.060000E+03	7.502988E-16	1.010590E-17
5.070000E+03	7.488944E-16	1.006966E-17
5.080000E+03	7.462882E-16	1.001172E-17
5.090000E+03	7.428093E-16	9.935509E-18
5.100000E+03	7.387748E-16	9.845175E-18
5.110000E+03	7.345042E-16	9.745703E-18
5.120000E+03	7.302824E-16	9.642171E-18
5.130000E+03	7.263516E-16	9.539329E-18
5.140000E+03	7.229361E-16	9.441611E-18
5.150000E+03	7.201896E-16	9.352176E-18
5.160000E+03	7.182575E-16	9.273575E-18
5.170000E+03	7.172296E-16	9.207095E-18
5.180000E+03	7.171758E-16	9.153263E-18
5.190000E+03	7.181429E-16	9.111959E-18
5.200000E+03	7.201665E-16	9.082727E-18
5.210000E+03	7.232510E-16	9.064660E-18
5.220000E+03	7.273941E-16	9.056791E-18
5.230000E+03	7.325881E-16	9.058124E-18
5.240000E+03	7.388054E-16	9.067456E-18
5.250000E+03	7.459992E-16	9.083406E-18
5.260000E+03	7.541194E-16	9.104647E-18
5.270000E+03	7.631132E-16	9.129987E-18
5.280000E+03	7.729121E-16	9.158305E-18
5.290000E+03	7.834331E-16	9.188721E-18
5.300000E+03	7.946047E-16	9.221080E-18
5.310000E+03	8.063376E-16	9.255855E-18
5.320000E+03	8.185515E-16	9.294701E-18
5.330000E+03	8.311777E-16	9.340693E-18
5.340000E+03	8.441365E-16	9.398147E-18
5.350000E+03	8.573723E-16	9.472801E-18
5.360000E+03	8.708207E-16	9.570753E-18
5.370000E+03	8.844329E-16	9.697512E-18
5.380000E+03	8.981733E-16	9.855979E-18
5.390000E+03	9.119777E-16	1.004404E-17
5.400000E+03	9.258133E-16	1.025637E-17
5.410000E+03	9.396096E-16	1.048530E-17
5.420000E+03	9.532755E-16	1.072219E-17
5.430000E+03	9.667167E-16	1.095860E-17
5.440000E+03	9.797650E-16	1.118611E-17
5.450000E+03	9.921958E-16	1.139694E-17
5.460000E+03	1.003740E-15	1.158432E-17
5.470000E+03	1.014056E-15	1.174230E-17
5.480000E+03	1.022732E-15	1.186577E-17
5.490000E+03	1.029335E-15	1.195083E-17
5.500000E+03	1.033407E-15	1.199441E-17
5.510000E+03	1.034493E-15	1.199419E-17
5.520000E+03	1.032212E-15	1.194907E-17
5.530000E+03	1.026249E-15	1.185866E-17
5.540000E+03	1.016443E-15	1.172404E-17
5.550000E+03	1.002742E-15	1.154713E-17
5.560000E+03	9.852593E-16	1.133126E-17
5.570000E+03	9.642717E-16	1.108113E-17
5.580000E+03	9.401736E-16	1.080229E-17
5.590000E+03	9.134957E-16	1.050132E-17
5.600000E+03	8.848477E-16	1.018502E-17
5.610000E+03	8.549063E-16	9.860195E-18
5.620000E+03	8.243603E-16	9.533002E-18
5.630000E+03	7.939089E-16	9.209057E-18
5.640000E+03	7.642364E-16	8.893507E-18
5.650000E+03	7.359689E-16	8.590939E-18
5.660000E+03	7.096908E-16	8.305903E-18
5.670000E+03	6.859118E-16	8.042744E-18
5.680000E+03	6.650706E-16	7.805711E-18
5.690000E+03	6.475335E-16	7.598902E-18
5.700000E+03	6.335969E-16	7.426190E-18
5.710000E+03	6.234896E-16	7.291113E-18
5.720000E+03	6.173758E-16	7.196744E-18
5.730000E+03	6.153559E-16	7.145537E-18
5.740000E+03	6.174710E-16	7.139242E-18
5.750000E+03	6.236745E-16	7.178498E-18
5.760000E+03	6.338706E-16	7.263272E-18
5.770000E+03	6.478709E-16	7.392373E-18
5.780000E+03	6.653865E-16	7.563316E-18
5.790000E+03	6.860618E-16	7.772602E-18
5.800000E+03	7.094267E-16	8.015014E-18
5.810000E+03	7.349345E-16	8.283918E-18
5.820000E+03	7.619441E-16	8.571109E-18
5.830000E+03	7.897525E-16	8.867336E-18
5.840000E+03	8.176455E-16	9.163099E-18
5.850000E+03	8.448825E-16	9.448694E-18
5.860000E+03	8.707613E-16	9.715123E-18
5.870000E+03	8.946437E-16	9.954497E-18
5.880000E+03	9.159855E-16	1.016047E-17
5.890000E+03	9.343490E-16	1.032838E-17
5.900000E+03	9.494465E-16	1.045575E-17
5.910000E+03	9.611086E-16	1.054175E-17
5.920000E+03	9.693195E-16	1.058749E-17
5.930000E+03	9.741572E-16	1.059511E-17
5.940000E+03	9.758449E-16	1.056821E-17
5.950000E+03	9.746502E-16	1.051053E-17
5.960000E+03	9.709292E-16	1.042641E-17
5.970000E+03	9.650437E-16	1.031999E-17
5.980000E+03	9.574074E-16	1.019576E-17
5.990000E+03	9.483978E-16	1.005781E-17
6.000000E+03	9.383805E-16	9.910175E-18
6.010000E+03	9.276796E-16	9.756609E-18
6.020000E+03	9.165901E-16	9.600727E-18
6.030000E+03	9.053751E-16	9.445959E-18
6.040000E+03	8.942288E-16	9.295086E-18
6.050000E+03	8.833348E-16	9.150714E-18
6.060000E+03	8.728321E-16	9.014763E-18
6.070000E+03	8.628205E-16	8.888370E-18
6.080000E+03	8.533911E-16	8.772112E-18
6.090000E+03	8.446040E-16	8.665808E-18
6.100000E+03	8.364922E-16	8.568647E-18
6.110000E+03	8.290893E-16	8.479562E-18
6.120000E+03	8.224049E-16	8.397073E-18
6.130000E+03	8.164233E-16	8.319373E-18
6.140000E+03	8.111364E-16	8.244790E-18
6.150000E+03	8.064899E-16	8.171475E-18
6.160000E+03	8.024319E-16	8.098167E-18
6.170000E+03	7.988458E-16	8.023787E-18
6.180000E+03	7.956521E-16	7.948743E-18
6.190000E+03	7.926969E-16	7.874005E-18
6.200000E+03	7.898595E-16	7.802282E-18
6.210000E+03	7.869956E-16	7.737366E-18
6.220000E+03	7.839896E-16	7.684208E-18
6.230000E+03	7.807216E-16	7.647648E-18
6.240000E+03	7.771130E-16	7.631325E-18
6.250000E+03	7.731144E-16	7.635059E-18
6.260000E+03	7.686827E-16	7.654465E-18
6.270000E+03	7.638153E-16	7.683717E-18
6.280000E+03	7.585414E-16	7.716936E-18
6.290000E+03	7.529089E-16	7.748946E-18
6.300000E+03	7.470004E-16	7.775894E-18
6.310000E+03	7.408835E-16	7.794853E-18
6.320000E+03	7.346578E-16	7.804233E-18
6.330000E+03	7.283914E-16	7.802991E-18
6.340000E+03	7.221396E-16	7.790678E-18
6.350000E+03	7.159655E-16	7.767551E-18
6.360000E+03	7.098761E-16	7.733816E-18
6.370000E+03	7.039104E-16	7.690538E-18
6.380000E+03	6.980484E-16	7.638632E-18
6.390000E+03	6.923023E-16	7.579827E-18
6.400000E+03	6.866600E-16	7.516000E-18
6.410000E+03	6.811311E-16	7.449543E-18
6.420000E+03	6.757225E-16	7.382937E-18
6.430000E+03	6.704756E-16	7.318938E-18
6.440000E+03	6.654552E-16	7.260283E-18
6.450000E+03	6.607515E-16	7.209619E-18
6.460000E+03	6.564869E-16	7.169581E-18
6.470000E+03	6.527902E-16	7.142568E-18
6.480000E+03	6.498263E-16	7.131221E-18
6.490000E+03	6.477284E-16	7.137803E-18
6.500000E+03	6.466382E-16	7.164728E-18
6.510000E+03	6.466732E-16	7.214198E-18
6.520000E+03	6.479298E-16	7.288174E-18
6.530000E+03	6.504675E-16	7.388075E-18
6.540000E+03	6.543096E-16	7.514688E-18
6.550000E+03	6.594168E-16	7.667717E-18
6.560000E+03	6.657074E-16	7.845848E-18
6.570000E+03	6.730741E-16	8.046755E-18
6.580000E+03	6.813158E-16	8.266125E-18
6.590000E+03	6.902373E-16	8.498752E-18
6.600000E+03	6.995784E-16	8.737757E-18
6.610000E+03	7.090641E-16	8.975415E-18
6.620000E+03	7.184254E-16	9.203784E-18
6.630000E+03	7.273596E-16	9.414657E-18
6.640000E+03	7.356183E-16	9.601220E-18
6.650000E+03	7.429293E-16	9.757551E-18
6.660000E+03	7.490853E-16	9.880166E-18
6.670000E+03	7.538872E-16	9.967502E-18
6.680000E+03	7.571957E-16	1.002049E-17
6.690000E+03	7.589073E-16	1.004184E-17
6.700000E+03	7.589663E-16	1.003546E-17
6.710000E+03	7.573635E-16	1.000560E-17
6.720000E+03	7.541332E-16	9.956085E-18
6.730000E+03	7.493679E-16	9.889812E-18
6.740000E+03	7.431461E-16	9.807552E-18
6.750000E+03	7.356343E-16	9.709363E-18
6.760000E+03	7.269888E-16	9.593767E-18
6.770000E+03	7.173923E-16	9.458959E-18
6.780000E+03	7.070792E-16	9.304059E-18
6.790000E+03	6.962778E-16	9.129187E-18
6.800000E+03	6.852442E-16	8.936496E-18
6.810000E+03	6.742583E-16	8.730304E-18
6.820000E+03	6.635938E-16	8.516499E-18
6.830000E+03	6.535403E-16	8.302303E-18
6.840000E+03	6.443976E-16	8.095467E-18
6.850000E+03	6.364525E-16	7.903217E-18
6.860000E+03	6.299696E-16	7.731626E-18
6.870000E+03	6.252059E-16	7.585586E-18
6.880000E+03	6.223636E-16	7.468305E-18
6.890000E+03	6.216123E-16	7.381781E-18
6.900000E+03	6.230447E-16	7.326568E-18
6.910000E+03	6.267103E-16	7.302442E-18
6.920000E+03	6.325405E-16	7.307748E-18
6.930000E+03	6.404371E-16	7.340609E-18
6.940000E+03	6.501755E-16	7.397915E-18
6.950000E+03	6.614750E-16	7.476195E-18
6.960000E+03	6.739620E-16	7.571203E-18
6.970000E+03	6.872196E-16	7.678446E-18
6.980000E+03	7.007708E-16	7.792948E-18
6.990000E+03	7.141421E-16	7.909923E-18
7.000000E+03	7.268563E-16	8.024668E-18
7.010000E+03	7.385033E-16	8.133300E-18
7.020000E+03	7.487296E-16	8.232591E-18
7.030000E+03	7.573026E-16	8.320597E-18
7.040000E+03	7.640839E-16	8.396270E-18
7.050000E+03	7.690651E-16	8.459762E-18
7.060000E+03	7.723510E-16	8.512181E-18
7.070000E+03	7.741437E-16	8.555417E-18
7.080000E+03	7.747199E-16	8.591988E-18
7.090000E+03	7.744034E-16	8.624847E-18
7.100000E+03	7.735377E-16	8.657099E-18
7.110000E+03	7.724606E-16	8.691682E-18
7.120000E+03	7.714824E-16	8.731023E-18
7.130000E+03	7.708585E-16	8.776657E-18
7.140000E+03	7.708016E-16	8.829393E-18
7.150000E+03	7.714760E-16	8.889368E-18
7.160000E+03	7.729635E-16	8.955768E-18
7.170000E+03	7.752997E-16	9.027346E-18
7.180000E+03	7.784681E-16	9.102405E-18
7.190000E+03	7.824062E-16	9.178818E-18
7.200000E+03	7.870020E-16	9.253867E-18
7.210000E+03	7.921351E-16	9.324625E-18
7.220000E+03	7.976383E-16	9.387538E-18
7.230000E+03	8.033390E-16	9.439151E-18
7.240000E+03	8.090537E-16	9.476433E-18
7.250000E+03	8.145942E-16	9.497221E-18
7.260000E+03	8.197741E-16	9.500554E-18
7.270000E+03	8.243902E-16	9.486535E-18
7.280000E+03	8.283019E-16	9.457050E-18
7.290000E+03	8.313410E-16	9.414334E-18
7.300000E+03	8.334028E-16	9.361447E-18
7.310000E+03	8.344035E-16	9.301210E-18
7.320000E+03	8.342706E-16	9.235682E-18
7.330000E+03	8.330066E-16	9.166588E-18
7.340000E+03	8.306250E-16	9.094515E-18
7.350000E+03	8.271827E-16	9.019373E-18
7.360000E+03	8.227600E-16	8.940413E-18
7.370000E+03	8.174397E-16	8.856328E-18
7.380000E+03	8.113363E-16	8.765956E-18
7.390000E+03	8.045272E-16	8.667890E-18
7.400000E+03	7.971208E-16	8.561431E-18
7.410000E+03	7.891796E-16	8.445865E-18
7.420000E+03	7.808029E-16	8.321308E-18
7.430000E+03	7.720423E-16	8.187734E-18
7.440000E+03	7.629517E-16	8.045461E-18
7.450000E+03	7.535768E-16	7.895106E-18
7.460000E+03	7.439696E-16	7.737926E-18
7.470000E+03	7.341454E-16	7.575756E-18
7.480000E+03	7.241641E-16	7.412301E-18
7.490000E+03	7.140537E-16	7.252689E-18
7.500000E+03	7.038686E-16	7.104161E-18
7.510000E+03	6.936689E-16	6.975433E-18
7.520000E+03	6.835021E-16	6.875361E-18
7.530000E+03	6.734473E-16	6.811515E-18
7.540000E+03	6.635819E-16	6.787167E-18
7.550000E+03	6.539988E-16	6.798469E-18
7.560000E+03	6.447777E-16	6.836206E-18
7.570000E+03	6.360286E-16	6.889768E-18
7.580000E+03	6.278597E-16	6.949002E-18
7.590000E+03	6.203828E-16	7.005689E-18
7.600000E+03	6.137090E-16	7.054236E-18
7.610000E+03	6.079530E-16	7.091921E-18
7.620000E+03	6.032090E-16	7.118410E-18
7.630000E+03	5.995567E-16	7.135389E-18
7.640000E+03	5.970478E-16	7.145855E-18
7.650000E+03	5.957405E-16	7.153937E-18
7.660000E+03	5.956295E-16	7.163481E-18
7.670000E+03	5.967190E-16	7.178435E-18
7.680000E+03	5.989544E-16	7.201672E-18
7.690000E+03	6.022675E-16	7.235305E-18
7.700000E+03	6.065281E-16	7.279972E-18
7.710000E+03	6.116224E-16	7.335765E-18
7.720000E+03	6.173483E-16	7.401043E-18
7.730000E+03	6.235281E-16	7.473955E-18
7.740000E+03	6.299268E-16	7.551714E-18
7.750000E+03	6.363430E-16	7.631929E-18
7.760000E+03	6.425599E-16	7.712156E-18
