#wls	flux	fluxerr
1.600000E+03	4.969388E-16	3.289049E-16
1.640000E+03	5.062978E-16	3.298702E-16
1.680000E+03	5.153399E-16	3.303285E-16
1.720000E+03	5.240995E-16	3.303063E-16
1.760000E+03	5.325142E-16	3.297692E-16
1.800000E+03	5.406191E-16	3.287455E-16
1.840000E+03	5.482469E-16	3.271421E-16
1.880000E+03	5.555320E-16	3.250506E-16
1.920000E+03	5.623019E-16	3.223814E-16
1.960000E+03	5.686926E-16	3.192271E-16
2.000000E+03	5.746321E-16	3.155606E-16
2.040000E+03	5.800452E-16	3.113574E-16
2.080000E+03	5.849612E-16	3.066524E-16
2.120000E+03	5.893015E-16	3.014250E-16
2.160000E+03	5.930925E-16	2.957118E-16
2.200000E+03	5.963587E-16	2.895483E-16
2.240000E+03	5.988072E-16	2.828197E-16
2.280000E+03	6.006729E-16	2.756701E-16
2.320000E+03	6.015650E-16	2.679532E-16
2.360000E+03	6.016197E-16	2.597725E-16
2.400000E+03	6.006701E-16	2.510984E-16
2.440000E+03	5.985663E-16	2.419184E-16
2.480000E+03	5.954656E-16	2.323492E-16
2.520000E+03	5.910569E-16	2.223231E-16
2.560000E+03	5.855276E-16	2.119716E-16
2.600000E+03	5.788876E-16	2.013542E-16
2.640000E+03	5.709952E-16	1.904799E-16
2.680000E+03	5.620797E-16	1.794848E-16
2.720000E+03	5.521290E-16	1.684184E-16
2.760000E+03	5.412369E-16	1.573621E-16
2.800000E+03	5.294410E-16	1.463764E-16
2.840000E+03	5.168746E-16	1.355451E-16
2.880000E+03	5.037474E-16	1.249633E-16
2.920000E+03	4.900738E-16	1.146690E-16
2.960000E+03	4.761342E-16	1.047578E-16
3.000000E+03	4.621807E-16	9.530444E-17
3.010000E+03	4.587036E-16	9.301688E-17
3.020000E+03	4.552069E-16	9.075511E-17
3.030000E+03	4.518022E-16	8.854141E-17
3.040000E+03	4.483803E-16	8.635402E-17
3.050000E+03	4.449968E-16	8.420387E-17
3.060000E+03	4.416522E-16	8.209084E-17
3.070000E+03	4.382951E-16	8.000542E-17
3.080000E+03	4.350298E-16	7.796662E-17
3.090000E+03	4.317541E-16	7.595578E-17
3.100000E+03	4.285691E-16	7.399070E-17
3.110000E+03	4.253752E-16	7.205388E-17
3.120000E+03	4.222710E-16	7.016198E-17
3.130000E+03	4.192067E-16	6.830633E-17
3.140000E+03	4.161825E-16	6.648676E-17
3.150000E+03	4.131981E-16	6.470314E-17
3.160000E+03	4.102987E-16	6.296230E-17
3.170000E+03	4.074824E-16	6.126337E-17
3.180000E+03	4.047023E-16	5.959901E-17
3.190000E+03	4.019583E-16	5.796908E-17
3.200000E+03	3.993357E-16	5.638561E-17
3.210000E+03	3.967456E-16	5.483547E-17
3.220000E+03	3.942290E-16	5.332421E-17
3.230000E+03	3.917834E-16	5.185113E-17
3.240000E+03	3.894470E-16	5.042082E-17
3.250000E+03	3.871753E-16	4.902699E-17
3.260000E+03	3.849655E-16	4.766903E-17
3.270000E+03	3.828150E-16	4.634636E-17
3.280000E+03	3.807979E-16	4.506754E-17
3.290000E+03	3.788321E-16	4.382224E-17
3.300000E+03	3.769522E-16	4.261421E-17
3.310000E+03	3.751538E-16	4.144252E-17
3.320000E+03	3.734685E-16	4.031018E-17
3.330000E+03	3.718545E-16	3.921212E-17
3.340000E+03	3.703071E-16	3.814755E-17
3.350000E+03	3.688568E-16	3.711917E-17
3.360000E+03	3.674974E-16	3.612585E-17
3.370000E+03	3.662567E-16	3.516974E-17
3.380000E+03	3.650607E-16	3.424319E-17
3.390000E+03	3.639707E-16	3.335157E-17
3.400000E+03	3.629794E-16	3.249357E-17
3.410000E+03	3.620479E-16	3.166517E-17
3.420000E+03	3.612334E-16	3.087086E-17
3.430000E+03	3.604967E-16	3.010661E-17
3.440000E+03	3.598312E-16	2.937131E-17
3.450000E+03	3.592908E-16	2.866875E-17
3.460000E+03	3.588070E-16	2.799276E-17
3.470000E+03	3.584034E-16	2.734465E-17
3.480000E+03	3.580727E-16	2.672329E-17
3.490000E+03	3.578370E-16	2.612968E-17
3.500000E+03	3.576885E-16	2.556262E-17
3.510000E+03	3.576203E-16	2.502097E-17
3.520000E+03	3.576259E-16	2.450369E-17
3.530000E+03	3.576992E-16	2.400982E-17
3.540000E+03	3.578613E-16	2.354022E-17
3.550000E+03	3.580803E-16	2.309225E-17
3.560000E+03	3.584033E-16	2.266842E-17
3.570000E+03	3.587748E-16	2.226468E-17
3.580000E+03	3.592420E-16	2.188349E-17
3.590000E+03	3.597773E-16	2.152260E-17
3.600000E+03	3.604034E-16	2.118286E-17
3.610000E+03	3.610958E-16	2.086227E-17
3.620000E+03	3.618789E-16	2.056171E-17
3.630000E+03	3.627542E-16	2.028063E-17
3.640000E+03	3.637243E-16	2.001855E-17
3.650000E+03	3.648153E-16	1.977620E-17
3.660000E+03	3.659880E-16	1.955074E-17
3.670000E+03	3.672924E-16	1.934413E-17
3.680000E+03	3.687138E-16	1.915480E-17
3.690000E+03	3.702811E-16	1.898345E-17
3.700000E+03	3.719820E-16	1.882864E-17
3.710000E+03	3.738259E-16	1.869003E-17
3.720000E+03	3.758425E-16	1.856826E-17
3.730000E+03	3.780409E-16	1.846293E-17
3.740000E+03	3.804305E-16	1.837361E-17
3.750000E+03	3.830014E-16	1.829895E-17
3.760000E+03	3.857628E-16	1.823853E-17
3.770000E+03	3.887420E-16	1.819275E-17
3.780000E+03	3.919458E-16	1.816103E-17
3.790000E+03	3.953799E-16	1.814273E-17
3.800000E+03	3.990129E-16	1.813552E-17
3.810000E+03	4.029014E-16	1.814110E-17
3.820000E+03	4.069925E-16	1.815622E-17
3.830000E+03	4.113201E-16	1.818159E-17
3.840000E+03	4.158795E-16	1.821620E-17
3.850000E+03	4.206295E-16	1.825752E-17
3.860000E+03	4.255776E-16	1.830523E-17
3.870000E+03	4.307278E-16	1.835889E-17
3.880000E+03	4.360308E-16	1.841587E-17
3.890000E+03	4.414682E-16	1.847497E-17
3.900000E+03	4.470512E-16	1.853629E-17
3.910000E+03	4.527064E-16	1.859648E-17
3.920000E+03	4.584397E-16	1.865559E-17
3.930000E+03	4.642056E-16	1.871159E-17
3.940000E+03	4.699732E-16	1.876317E-17
3.950000E+03	4.756942E-16	1.880839E-17
3.960000E+03	4.813506E-16	1.884662E-17
3.970000E+03	4.868924E-16	1.887604E-17
3.980000E+03	4.923003E-16	1.889617E-17
3.990000E+03	4.975091E-16	1.890486E-17
4.000000E+03	5.024855E-16	1.890139E-17
4.010000E+03	5.072126E-16	1.888576E-17
4.020000E+03	5.116449E-16	1.885707E-17
4.030000E+03	5.157550E-16	1.881528E-17
4.040000E+03	5.195181E-16	1.876057E-17
4.050000E+03	5.228988E-16	1.869290E-17
4.060000E+03	5.258947E-16	1.861350E-17
4.070000E+03	5.284650E-16	1.852233E-17
4.080000E+03	5.306027E-16	1.842058E-17
4.090000E+03	5.323194E-16	1.831004E-17
4.100000E+03	5.336176E-16	1.819212E-17
4.110000E+03	5.344782E-16	1.806735E-17
4.120000E+03	5.349151E-16	1.793723E-17
4.130000E+03	5.349595E-16	1.780364E-17
4.140000E+03	5.346212E-16	1.766747E-17
4.150000E+03	5.339151E-16	1.752954E-17
4.160000E+03	5.328848E-16	1.739135E-17
4.170000E+03	5.315642E-16	1.725384E-17
4.180000E+03	5.299667E-16	1.711706E-17
4.190000E+03	5.281434E-16	1.698212E-17
4.200000E+03	5.261349E-16	1.684967E-17
4.210000E+03	5.239607E-16	1.671961E-17
4.220000E+03	5.216852E-16	1.659326E-17
4.230000E+03	5.193394E-16	1.647089E-17
4.240000E+03	5.169543E-16	1.635284E-17
4.250000E+03	5.145813E-16	1.624017E-17
4.260000E+03	5.122394E-16	1.613298E-17
4.270000E+03	5.099872E-16	1.603273E-17
4.280000E+03	5.078413E-16	1.593964E-17
4.290000E+03	5.058368E-16	1.585457E-17
4.300000E+03	5.040162E-16	1.577870E-17
4.310000E+03	5.024004E-16	1.571261E-17
4.320000E+03	5.010182E-16	1.565715E-17
4.330000E+03	4.998956E-16	1.561314E-17
4.340000E+03	4.990475E-16	1.558105E-17
4.350000E+03	4.984951E-16	1.556155E-17
4.360000E+03	4.982571E-16	1.555516E-17
4.370000E+03	4.983577E-16	1.556248E-17
4.380000E+03	4.987841E-16	1.558276E-17
4.390000E+03	4.995714E-16	1.561656E-17
4.400000E+03	5.007092E-16	1.566274E-17
4.410000E+03	5.021925E-16	1.572011E-17
4.420000E+03	5.040368E-16	1.578802E-17
4.430000E+03	5.062212E-16	1.586459E-17
4.440000E+03	5.087446E-16	1.594851E-17
4.450000E+03	5.115937E-16	1.603812E-17
4.460000E+03	5.147422E-16	1.613139E-17
4.470000E+03	5.181595E-16	1.622623E-17
4.480000E+03	5.218335E-16	1.632127E-17
4.490000E+03	5.257157E-16	1.641411E-17
4.500000E+03	5.297685E-16	1.650289E-17
4.510000E+03	5.339576E-16	1.658600E-17
4.520000E+03	5.382204E-16	1.666118E-17
4.530000E+03	5.425221E-16	1.672725E-17
4.540000E+03	5.467848E-16	1.678193E-17
4.550000E+03	5.509750E-16	1.682454E-17
4.560000E+03	5.550104E-16	1.685314E-17
4.570000E+03	5.588386E-16	1.686694E-17
4.580000E+03	5.623922E-16	1.686486E-17
4.590000E+03	5.656203E-16	1.684654E-17
4.600000E+03	5.684670E-16	1.681159E-17
4.610000E+03	5.708651E-16	1.675944E-17
4.620000E+03	5.727759E-16	1.669044E-17
4.630000E+03	5.741524E-16	1.660482E-17
4.640000E+03	5.749706E-16	1.650356E-17
4.650000E+03	5.751933E-16	1.638729E-17
4.660000E+03	5.748238E-16	1.625791E-17
4.670000E+03	5.738458E-16	1.611678E-17
4.680000E+03	5.722697E-16	1.596604E-17
4.690000E+03	5.701245E-16	1.580833E-17
4.700000E+03	5.674352E-16	1.564610E-17
4.710000E+03	5.642450E-16	1.548215E-17
4.720000E+03	5.606063E-16	1.531934E-17
4.730000E+03	5.565799E-16	1.516039E-17
4.740000E+03	5.522266E-16	1.500760E-17
4.750000E+03	5.476330E-16	1.486344E-17
4.760000E+03	5.428756E-16	1.472943E-17
4.770000E+03	5.380262E-16	1.460627E-17
4.780000E+03	5.331703E-16	1.449451E-17
4.790000E+03	5.283850E-16	1.439423E-17
4.800000E+03	5.237447E-16	1.430529E-17
4.810000E+03	5.193189E-16	1.422750E-17
4.820000E+03	5.151718E-16	1.416069E-17
4.830000E+03	5.113667E-16	1.410486E-17
4.840000E+03	5.079409E-16	1.405961E-17
4.850000E+03	5.049358E-16	1.402490E-17
4.860000E+03	5.023953E-16	1.400104E-17
4.870000E+03	5.003298E-16	1.398768E-17
4.880000E+03	4.987521E-16	1.398470E-17
4.890000E+03	4.976759E-16	1.399221E-17
4.900000E+03	4.970880E-16	1.400966E-17
4.910000E+03	4.969711E-16	1.403648E-17
4.920000E+03	4.973048E-16	1.407205E-17
4.930000E+03	4.980488E-16	1.411525E-17
4.940000E+03	4.991673E-16	1.416507E-17
4.950000E+03	5.006185E-16	1.422037E-17
4.960000E+03	5.023454E-16	1.427960E-17
4.970000E+03	5.042994E-16	1.434146E-17
4.980000E+03	5.064200E-16	1.440434E-17
4.990000E+03	5.086646E-16	1.446718E-17
5.000000E+03	5.109820E-16	1.452870E-17
5.010000E+03	5.133201E-16	1.458760E-17
5.020000E+03	5.156438E-16	1.464306E-17
5.030000E+03	5.179252E-16	1.469446E-17
5.040000E+03	5.201274E-16	1.474086E-17
5.050000E+03	5.222506E-16	1.478228E-17
5.060000E+03	5.242753E-16	1.481814E-17
5.070000E+03	5.262072E-16	1.484846E-17
5.080000E+03	5.280546E-16	1.487327E-17
5.090000E+03	5.298324E-16	1.489273E-17
5.100000E+03	5.315670E-16	1.490724E-17
5.110000E+03	5.332781E-16	1.491701E-17
5.120000E+03	5.349998E-16	1.492260E-17
5.130000E+03	5.367626E-16	1.492445E-17
5.140000E+03	5.385919E-16	1.492278E-17
5.150000E+03	5.405298E-16	1.491822E-17
5.160000E+03	5.425999E-16	1.491079E-17
5.170000E+03	5.448297E-16	1.490051E-17
5.180000E+03	5.472437E-16	1.488720E-17
5.190000E+03	5.498692E-16	1.487066E-17
5.200000E+03	5.527124E-16	1.485006E-17
5.210000E+03	5.558052E-16	1.482521E-17
5.220000E+03	5.591463E-16	1.479511E-17
5.230000E+03	5.627423E-16	1.475910E-17
5.240000E+03	5.666016E-16	1.471681E-17
5.250000E+03	5.707227E-16	1.466798E-17
5.260000E+03	5.750940E-16	1.461262E-17
5.270000E+03	5.797116E-16	1.455157E-17
5.280000E+03	5.845551E-16	1.448611E-17
5.290000E+03	5.896181E-16	1.441880E-17
5.300000E+03	5.948653E-16	1.435259E-17
5.310000E+03	6.002687E-16	1.429171E-17
5.320000E+03	6.058082E-16	1.424167E-17
5.330000E+03	6.114343E-16	1.420818E-17
5.340000E+03	6.171111E-16	1.419779E-17
5.350000E+03	6.227852E-16	1.421667E-17
5.360000E+03	6.284113E-16	1.427043E-17
5.370000E+03	6.339391E-16	1.436306E-17
5.380000E+03	6.392879E-16	1.449551E-17
5.390000E+03	6.444114E-16	1.466648E-17
5.400000E+03	6.492274E-16	1.487113E-17
5.410000E+03	6.536769E-16	1.510299E-17
5.420000E+03	6.576662E-16	1.535332E-17
5.430000E+03	6.611411E-16	1.561344E-17
5.440000E+03	6.640222E-16	1.587386E-17
5.450000E+03	6.662324E-16	1.612539E-17
5.460000E+03	6.677128E-16	1.635990E-17
5.470000E+03	6.684040E-16	1.657013E-17
5.480000E+03	6.682485E-16	1.674984E-17
5.490000E+03	6.672130E-16	1.689449E-17
5.500000E+03	6.652695E-16	1.700073E-17
5.510000E+03	6.624046E-16	1.706663E-17
5.520000E+03	6.586276E-16	1.709176E-17
5.530000E+03	6.539447E-16	1.707644E-17
5.540000E+03	6.484063E-16	1.702280E-17
5.550000E+03	6.420671E-16	1.693358E-17
5.560000E+03	6.349861E-16	1.681197E-17
5.570000E+03	6.272637E-16	1.666244E-17
5.580000E+03	6.189949E-16	1.648932E-17
5.590000E+03	6.102927E-16	1.629734E-17
5.600000E+03	6.012785E-16	1.609128E-17
5.610000E+03	5.920856E-16	1.587597E-17
5.620000E+03	5.828382E-16	1.565572E-17
5.630000E+03	5.736720E-16	1.543484E-17
5.640000E+03	5.647087E-16	1.521701E-17
5.650000E+03	5.560764E-16	1.500580E-17
5.660000E+03	5.478849E-16	1.480408E-17
5.670000E+03	5.402411E-16	1.461450E-17
5.680000E+03	5.332469E-16	1.443945E-17
5.690000E+03	5.269878E-16	1.428086E-17
5.700000E+03	5.215268E-16	1.414004E-17
5.710000E+03	5.169346E-16	1.401856E-17
5.720000E+03	5.132532E-16	1.391729E-17
5.730000E+03	5.105204E-16	1.383703E-17
5.740000E+03	5.087440E-16	1.377786E-17
5.750000E+03	5.079366E-16	1.374006E-17
5.760000E+03	5.080803E-16	1.372308E-17
5.770000E+03	5.091459E-16	1.372612E-17
5.780000E+03	5.110836E-16	1.374784E-17
5.790000E+03	5.138429E-16	1.378692E-17
5.800000E+03	5.173387E-16	1.384119E-17
5.810000E+03	5.214876E-16	1.390858E-17
5.820000E+03	5.261844E-16	1.398656E-17
5.830000E+03	5.313242E-16	1.407272E-17
5.840000E+03	5.367847E-16	1.416431E-17
5.850000E+03	5.424495E-16	1.425884E-17
5.860000E+03	5.481848E-16	1.435341E-17
5.870000E+03	5.538796E-16	1.444574E-17
5.880000E+03	5.594064E-16	1.453310E-17
5.890000E+03	5.646619E-16	1.461326E-17
5.900000E+03	5.695482E-16	1.468400E-17
5.910000E+03	5.739754E-16	1.474313E-17
5.920000E+03	5.778801E-16	1.478891E-17
5.930000E+03	5.811986E-16	1.481942E-17
5.940000E+03	5.839072E-16	1.483356E-17
5.950000E+03	5.859768E-16	1.483002E-17
5.960000E+03	5.874115E-16	1.480823E-17
5.970000E+03	5.882194E-16	1.476780E-17
5.980000E+03	5.884278E-16	1.470883E-17
5.990000E+03	5.880754E-16	1.463188E-17
6.000000E+03	5.872099E-16	1.453788E-17
6.010000E+03	5.858807E-16	1.442793E-17
6.020000E+03	5.841476E-16	1.430356E-17
6.030000E+03	5.820734E-16	1.416645E-17
6.040000E+03	5.797215E-16	1.401837E-17
6.050000E+03	5.771494E-16	1.386098E-17
6.060000E+03	5.744178E-16	1.369596E-17
6.070000E+03	5.715840E-16	1.352487E-17
6.080000E+03	5.686954E-16	1.334896E-17
6.090000E+03	5.658001E-16	1.316941E-17
6.100000E+03	5.629346E-16	1.298713E-17
6.110000E+03	5.601404E-16	1.280316E-17
6.120000E+03	5.574365E-16	1.261812E-17
6.130000E+03	5.548568E-16	1.243314E-17
6.140000E+03	5.524073E-16	1.224906E-17
6.150000E+03	5.501041E-16	1.206735E-17
6.160000E+03	5.479515E-16	1.188974E-17
6.170000E+03	5.459483E-16	1.171847E-17
6.180000E+03	5.440986E-16	1.155656E-17
6.190000E+03	5.423911E-16	1.140733E-17
6.200000E+03	5.407999E-16	1.127428E-17
6.210000E+03	5.393010E-16	1.116125E-17
6.220000E+03	5.378734E-16	1.107202E-17
6.230000E+03	5.364893E-16	1.100958E-17
6.240000E+03	5.351262E-16	1.097579E-17
6.250000E+03	5.337685E-16	1.097053E-17
6.260000E+03	5.323930E-16	1.099134E-17
6.270000E+03	5.309945E-16	1.103471E-17
6.280000E+03	5.295546E-16	1.109592E-17
6.290000E+03	5.280678E-16	1.117013E-17
6.300000E+03	5.265313E-16	1.125253E-17
6.310000E+03	5.249396E-16	1.133856E-17
6.320000E+03	5.232942E-16	1.142429E-17
6.330000E+03	5.215884E-16	1.150624E-17
6.340000E+03	5.198374E-16	1.158213E-17
6.350000E+03	5.180313E-16	1.164987E-17
6.360000E+03	5.161869E-16	1.170867E-17
6.370000E+03	5.142952E-16	1.175787E-17
6.380000E+03	5.123631E-16	1.179775E-17
6.390000E+03	5.104032E-16	1.182930E-17
6.400000E+03	5.084125E-16	1.185358E-17
6.410000E+03	5.063994E-16	1.187220E-17
6.420000E+03	5.043681E-16	1.188687E-17
6.430000E+03	5.023294E-16	1.189950E-17
6.440000E+03	5.002908E-16	1.191185E-17
6.450000E+03	4.982668E-16	1.192567E-17
6.460000E+03	4.962639E-16	1.194228E-17
6.470000E+03	4.943003E-16	1.196298E-17
6.480000E+03	4.923907E-16	1.198871E-17
6.490000E+03	4.905449E-16	1.201997E-17
6.500000E+03	4.887878E-16	1.205739E-17
6.510000E+03	4.871270E-16	1.210097E-17
6.520000E+03	4.855825E-16	1.215082E-17
6.530000E+03	4.841549E-16	1.220643E-17
6.540000E+03	4.828497E-16	1.226729E-17
6.550000E+03	4.816616E-16	1.233255E-17
6.560000E+03	4.805791E-16	1.240113E-17
6.570000E+03	4.795898E-16	1.247191E-17
6.580000E+03	4.786706E-16	1.254352E-17
6.590000E+03	4.777882E-16	1.261434E-17
6.600000E+03	4.769164E-16	1.268302E-17
6.610000E+03	4.760268E-16	1.274823E-17
6.620000E+03	4.750749E-16	1.280834E-17
6.630000E+03	4.740381E-16	1.286240E-17
6.640000E+03	4.728858E-16	1.290935E-17
6.650000E+03	4.715915E-16	1.294834E-17
6.660000E+03	4.701336E-16	1.297872E-17
6.670000E+03	4.684966E-16	1.300000E-17
6.680000E+03	4.666715E-16	1.301189E-17
6.690000E+03	4.646614E-16	1.301434E-17
6.700000E+03	4.624712E-16	1.300726E-17
6.710000E+03	4.601072E-16	1.299044E-17
6.720000E+03	4.575978E-16	1.296414E-17
6.730000E+03	4.549615E-16	1.292819E-17
6.740000E+03	4.522272E-16	1.288259E-17
6.750000E+03	4.494333E-16	1.282753E-17
6.760000E+03	4.466166E-16	1.276317E-17
6.770000E+03	4.438119E-16	1.268966E-17
6.780000E+03	4.410662E-16	1.260764E-17
6.790000E+03	4.384228E-16	1.251785E-17
6.800000E+03	4.359257E-16	1.242128E-17
6.810000E+03	4.336240E-16	1.231931E-17
6.820000E+03	4.315555E-16	1.221331E-17
6.830000E+03	4.297618E-16	1.210498E-17
6.840000E+03	4.282822E-16	1.199618E-17
6.850000E+03	4.271574E-16	1.188902E-17
6.860000E+03	4.264194E-16	1.178550E-17
6.870000E+03	4.260899E-16	1.168749E-17
6.880000E+03	4.261946E-16	1.159703E-17
6.890000E+03	4.267475E-16	1.151592E-17
6.900000E+03	4.277500E-16	1.144563E-17
6.910000E+03	4.292052E-16	1.138770E-17
6.920000E+03	4.311027E-16	1.134330E-17
6.930000E+03	4.334180E-16	1.131316E-17
6.940000E+03	4.361286E-16	1.129801E-17
6.950000E+03	4.391988E-16	1.129812E-17
6.960000E+03	4.425863E-16	1.131343E-17
6.970000E+03	4.462434E-16	1.134356E-17
6.980000E+03	4.501133E-16	1.138768E-17
6.990000E+03	4.541432E-16	1.144480E-17
7.000000E+03	4.582922E-16	1.151395E-17
7.010000E+03	4.625000E-16	1.159344E-17
7.020000E+03	4.667223E-16	1.168170E-17
7.030000E+03	4.709209E-16	1.177712E-17
7.040000E+03	4.750711E-16	1.187828E-17
7.050000E+03	4.791449E-16	1.198355E-17
7.060000E+03	4.831279E-16	1.209165E-17
7.070000E+03	4.870138E-16	1.220147E-17
7.080000E+03	4.908029E-16	1.231213E-17
7.090000E+03	4.945010E-16	1.242295E-17
7.100000E+03	4.981120E-16	1.253326E-17
7.110000E+03	5.016475E-16	1.264264E-17
7.120000E+03	5.051262E-16	1.275084E-17
7.130000E+03	5.085465E-16	1.285714E-17
7.140000E+03	5.119290E-16	1.296131E-17
7.150000E+03	5.152646E-16	1.306235E-17
7.160000E+03	5.185516E-16	1.315940E-17
7.170000E+03	5.217823E-16	1.325141E-17
7.180000E+03	5.249494E-16	1.333732E-17
7.190000E+03	5.280196E-16	1.341550E-17
7.200000E+03	5.309669E-16	1.348458E-17
7.210000E+03	5.337603E-16	1.354321E-17
7.220000E+03	5.363648E-16	1.359017E-17
7.230000E+03	5.387356E-16	1.362422E-17
7.240000E+03	5.408330E-16	1.364447E-17
7.250000E+03	5.426173E-16	1.365024E-17
7.260000E+03	5.440498E-16	1.364101E-17
7.270000E+03	5.450808E-16	1.361608E-17
7.280000E+03	5.456782E-16	1.357516E-17
7.290000E+03	5.458218E-16	1.351821E-17
7.300000E+03	5.454773E-16	1.344473E-17
7.310000E+03	5.446309E-16	1.335459E-17
7.320000E+03	5.432767E-16	1.324771E-17
7.330000E+03	5.414164E-16	1.312410E-17
7.340000E+03	5.390459E-16	1.298356E-17
7.350000E+03	5.361822E-16	1.282636E-17
7.360000E+03	5.328487E-16	1.265296E-17
7.370000E+03	5.290748E-16	1.246400E-17
7.380000E+03	5.248877E-16	1.226021E-17
7.390000E+03	5.203186E-16	1.204252E-17
7.400000E+03	5.154079E-16	1.181230E-17
7.410000E+03	5.101978E-16	1.157114E-17
7.420000E+03	5.047309E-16	1.132097E-17
7.430000E+03	4.990438E-16	1.106389E-17
7.440000E+03	4.931728E-16	1.080240E-17
7.450000E+03	4.871721E-16	1.053987E-17
7.460000E+03	4.810757E-16	1.027976E-17
7.470000E+03	4.749285E-16	1.002627E-17
7.480000E+03	4.687675E-16	9.783956E-18
7.490000E+03	4.626284E-16	9.557671E-18
7.500000E+03	4.565507E-16	9.352498E-18
7.510000E+03	4.505666E-16	9.173134E-18
7.520000E+03	4.447068E-16	9.023566E-18
7.530000E+03	4.390066E-16	8.906647E-18
7.540000E+03	4.334952E-16	8.823269E-18
7.550000E+03	4.282084E-16	8.771918E-18
7.560000E+03	4.231705E-16	8.748937E-18
7.570000E+03	4.184208E-16	8.750052E-18
7.580000E+03	4.139797E-16	8.770375E-18
7.590000E+03	4.098755E-16	8.805495E-18
7.600000E+03	4.061280E-16	8.851492E-18
7.610000E+03	4.027586E-16	8.905354E-18
7.620000E+03	3.997740E-16	8.964681E-18
7.630000E+03	3.971822E-16	9.027981E-18
7.640000E+03	3.949966E-16	9.094675E-18
7.650000E+03	3.932102E-16	9.164342E-18
7.660000E+03	3.918207E-16	9.237146E-18
7.670000E+03	3.908050E-16	9.313059E-18
7.680000E+03	3.901596E-16	9.392694E-18
7.690000E+03	3.898495E-16	9.475968E-18
7.700000E+03	3.898493E-16	9.562997E-18
7.710000E+03	3.901232E-16	9.653565E-18
7.720000E+03	3.906254E-16	9.747096E-18
7.730000E+03	3.913221E-16	9.843183E-18
7.740000E+03	3.921554E-16	9.940706E-18
7.750000E+03	3.930869E-16	1.003892E-17
7.760000E+03	3.940567E-16	1.013641E-17
