#wls	flux	fluxerr
1.600000E+03	4.289011E-16	2.875083E-16
1.640000E+03	4.374586E-16	2.888330E-16
1.680000E+03	4.458195E-16	2.897618E-16
1.720000E+03	4.540275E-16	2.903233E-16
1.760000E+03	4.620405E-16	2.904909E-16
1.800000E+03	4.698137E-16	2.902386E-16
1.840000E+03	4.773935E-16	2.895980E-16
1.880000E+03	4.845469E-16	2.884329E-16
1.920000E+03	4.915063E-16	2.868901E-16
1.960000E+03	4.981307E-16	2.848926E-16
2.000000E+03	5.043707E-16	2.824219E-16
2.040000E+03	5.101761E-16	2.794625E-16
2.080000E+03	5.155950E-16	2.760544E-16
2.120000E+03	5.205784E-16	2.721856E-16
2.160000E+03	5.250773E-16	2.678472E-16
2.200000E+03	5.290431E-16	2.630341E-16
2.240000E+03	5.325278E-16	2.577930E-16
2.280000E+03	5.353861E-16	2.520763E-16
2.320000E+03	5.377717E-16	2.459816E-16
2.360000E+03	5.394446E-16	2.394245E-16
2.400000E+03	5.405616E-16	2.325052E-16
2.440000E+03	5.409876E-16	2.251949E-16
2.480000E+03	5.408793E-16	2.175904E-16
2.520000E+03	5.400138E-16	2.096334E-16
2.560000E+03	5.385498E-16	2.014216E-16
2.600000E+03	5.364573E-16	1.929766E-16
2.640000E+03	5.337095E-16	1.843237E-16
2.680000E+03	5.303685E-16	1.755198E-16
2.720000E+03	5.264069E-16	1.665904E-16
2.760000E+03	5.219624E-16	1.576131E-16
2.800000E+03	5.169966E-16	1.486077E-16
2.840000E+03	5.115480E-16	1.396175E-16
2.880000E+03	5.057181E-16	1.307005E-16
2.920000E+03	4.994441E-16	1.218694E-16
2.960000E+03	4.928666E-16	1.131878E-16
3.000000E+03	4.859607E-16	1.046767E-16
3.010000E+03	4.842420E-16	1.025914E-16
3.020000E+03	4.824895E-16	1.005157E-16
3.030000E+03	4.807016E-16	9.845006E-17
3.040000E+03	4.788770E-16	9.639471E-17
3.050000E+03	4.770762E-16	9.436228E-17
3.060000E+03	4.752343E-16	9.234022E-17
3.070000E+03	4.734106E-16	9.034050E-17
3.080000E+03	4.715417E-16	8.835135E-17
3.090000E+03	4.696854E-16	8.638415E-17
3.100000E+03	4.678380E-16	8.443843E-17
3.110000E+03	4.659386E-16	8.250360E-17
3.120000E+03	4.640428E-16	8.059018E-17
3.130000E+03	4.621472E-16	7.869787E-17
3.140000E+03	4.601932E-16	7.681723E-17
3.150000E+03	4.582887E-16	7.496689E-17
3.160000E+03	4.563746E-16	7.313720E-17
3.170000E+03	4.543945E-16	7.131983E-17
3.180000E+03	4.524525E-16	6.953179E-17
3.190000E+03	4.504915E-16	6.776456E-17
3.200000E+03	4.485597E-16	6.602582E-17
3.210000E+03	4.465517E-16	6.430058E-17
3.220000E+03	4.445659E-16	6.260389E-17
3.230000E+03	4.425975E-16	6.093535E-17
3.240000E+03	4.405941E-16	5.928823E-17
3.250000E+03	4.386006E-16	5.766928E-17
3.260000E+03	4.365662E-16	5.607244E-17
3.270000E+03	4.345349E-16	5.450412E-17
3.280000E+03	4.325477E-16	5.296992E-17
3.290000E+03	4.305101E-16	5.145871E-17
3.300000E+03	4.284646E-16	4.997650E-17
3.310000E+03	4.264078E-16	4.852359E-17
3.320000E+03	4.243790E-16	4.710505E-17
3.330000E+03	4.223319E-16	4.571629E-17
3.340000E+03	4.203048E-16	4.436213E-17
3.350000E+03	4.182535E-16	4.303851E-17
3.360000E+03	4.161761E-16	4.174606E-17
3.370000E+03	4.141485E-16	4.049301E-17
3.380000E+03	4.120893E-16	3.927185E-17
3.390000E+03	4.100724E-16	3.809022E-17
3.400000E+03	4.080199E-16	3.694129E-17
3.410000E+03	4.060034E-16	3.583210E-17
3.420000E+03	4.039840E-16	3.475944E-17
3.430000E+03	4.019945E-16	3.372643E-17
3.440000E+03	3.999981E-16	3.273006E-17
3.450000E+03	3.980273E-16	3.177307E-17
3.460000E+03	3.960796E-16	3.085513E-17
3.470000E+03	3.941533E-16	2.997580E-17
3.480000E+03	3.922467E-16	2.913459E-17
3.490000E+03	3.903894E-16	2.833309E-17
3.500000E+03	3.885188E-16	2.756606E-17
3.510000E+03	3.867250E-16	2.683908E-17
3.520000E+03	3.849466E-16	2.614679E-17
3.530000E+03	3.832129E-16	2.549009E-17
3.540000E+03	3.815233E-16	2.486765E-17
3.550000E+03	3.798776E-16	2.427810E-17
3.560000E+03	3.782766E-16	2.372000E-17
3.570000E+03	3.767473E-16	2.319350E-17
3.580000E+03	3.752897E-16	2.269693E-17
3.590000E+03	3.738796E-16	2.222714E-17
3.600000E+03	3.725685E-16	2.178550E-17
3.610000E+03	3.713089E-16	2.136748E-17
3.620000E+03	3.701515E-16	2.097427E-17
3.630000E+03	3.690748E-16	2.060289E-17
3.640000E+03	3.681047E-16	2.025304E-17
3.650000E+03	3.672437E-16	1.992310E-17
3.660000E+03	3.664947E-16	1.961150E-17
3.670000E+03	3.658401E-16	1.931557E-17
3.680000E+03	3.653471E-16	1.903720E-17
3.690000E+03	3.649563E-16	1.877158E-17
3.700000E+03	3.647331E-16	1.852044E-17
3.710000E+03	3.646404E-16	1.828026E-17
3.720000E+03	3.647020E-16	1.805065E-17
3.730000E+03	3.649399E-16	1.783115E-17
3.740000E+03	3.653379E-16	1.761941E-17
3.750000E+03	3.658987E-16	1.741411E-17
3.760000E+03	3.666604E-16	1.721562E-17
3.770000E+03	3.675879E-16	1.702086E-17
3.780000E+03	3.686992E-16	1.682937E-17
3.790000E+03	3.699935E-16	1.663981E-17
3.800000E+03	3.714854E-16	1.645162E-17
3.810000E+03	3.731708E-16	1.626345E-17
3.820000E+03	3.750280E-16	1.607332E-17
3.830000E+03	3.770667E-16	1.588071E-17
3.840000E+03	3.792780E-16	1.568448E-17
3.850000E+03	3.816517E-16	1.548360E-17
3.860000E+03	3.841755E-16	1.527717E-17
3.870000E+03	3.868507E-16	1.506510E-17
3.880000E+03	3.896610E-16	1.484690E-17
3.890000E+03	3.925739E-16	1.462181E-17
3.900000E+03	3.955849E-16	1.439054E-17
3.910000E+03	3.986871E-16	1.415406E-17
3.920000E+03	4.018283E-16	1.391214E-17
3.930000E+03	4.049984E-16	1.366648E-17
3.940000E+03	4.081713E-16	1.341871E-17
3.950000E+03	4.113337E-16	1.317124E-17
3.960000E+03	4.144435E-16	1.292590E-17
3.970000E+03	4.174724E-16	1.268507E-17
3.980000E+03	4.204043E-16	1.245127E-17
3.990000E+03	4.231969E-16	1.222608E-17
4.000000E+03	4.258216E-16	1.201122E-17
4.010000E+03	4.282641E-16	1.180822E-17
4.020000E+03	4.304859E-16	1.161754E-17
4.030000E+03	4.324642E-16	1.143984E-17
4.040000E+03	4.341923E-16	1.127579E-17
4.050000E+03	4.356306E-16	1.112495E-17
4.060000E+03	4.367929E-16	1.098790E-17
4.070000E+03	4.376515E-16	1.086363E-17
4.080000E+03	4.382196E-16	1.075183E-17
4.090000E+03	4.384920E-16	1.065161E-17
4.100000E+03	4.384909E-16	1.056244E-17
4.110000E+03	4.382099E-16	1.048304E-17
4.120000E+03	4.376788E-16	1.041292E-17
4.130000E+03	4.369089E-16	1.035086E-17
4.140000E+03	4.359251E-16	1.029593E-17
4.150000E+03	4.347541E-16	1.024725E-17
4.160000E+03	4.334052E-16	1.020338E-17
4.170000E+03	4.319183E-16	1.016365E-17
4.180000E+03	4.303064E-16	1.012678E-17
4.190000E+03	4.286112E-16	1.009197E-17
4.200000E+03	4.268564E-16	1.005812E-17
4.210000E+03	4.250664E-16	1.002435E-17
4.220000E+03	4.232576E-16	9.989749E-18
4.230000E+03	4.214715E-16	9.954244E-18
4.240000E+03	4.197315E-16	9.917607E-18
4.250000E+03	4.180521E-16	9.879436E-18
4.260000E+03	4.164554E-16	9.839738E-18
4.270000E+03	4.149699E-16	9.798935E-18
4.280000E+03	4.136077E-16	9.757149E-18
4.290000E+03	4.123883E-16	9.714941E-18
4.300000E+03	4.113303E-16	9.673160E-18
4.310000E+03	4.104520E-16	9.632799E-18
4.320000E+03	4.097714E-16	9.595102E-18
4.330000E+03	4.092925E-16	9.561189E-18
4.340000E+03	4.090395E-16	9.532646E-18
4.350000E+03	4.090226E-16	9.510790E-18
4.360000E+03	4.092579E-16	9.497040E-18
4.370000E+03	4.097666E-16	9.492639E-18
4.380000E+03	4.105497E-16	9.498011E-18
4.390000E+03	4.116259E-16	9.513367E-18
4.400000E+03	4.130054E-16	9.537822E-18
4.410000E+03	4.147019E-16	9.570096E-18
4.420000E+03	4.167145E-16	9.608369E-18
4.430000E+03	4.190632E-16	9.651168E-18
4.440000E+03	4.217460E-16	9.696631E-18
4.450000E+03	4.247636E-16	9.743190E-18
4.460000E+03	4.280995E-16	9.789109E-18
4.470000E+03	4.317451E-16	9.833180E-18
4.480000E+03	4.356738E-16	9.874133E-18
4.490000E+03	4.398520E-16	9.910722E-18
4.500000E+03	4.442576E-16	9.942303E-18
4.510000E+03	4.488488E-16	9.968057E-18
4.520000E+03	4.535748E-16	9.986992E-18
4.530000E+03	4.583890E-16	9.998494E-18
4.540000E+03	4.632258E-16	1.000184E-17
4.550000E+03	4.680242E-16	9.996532E-18
4.560000E+03	4.727173E-16	9.982268E-18
4.570000E+03	4.772215E-16	9.958714E-18
4.580000E+03	4.814679E-16	9.925854E-18
4.590000E+03	4.853793E-16	9.883770E-18
4.600000E+03	4.888738E-16	9.832615E-18
4.610000E+03	4.918786E-16	9.772532E-18
4.620000E+03	4.943265E-16	9.703914E-18
4.630000E+03	4.961585E-16	9.627502E-18
4.640000E+03	4.973339E-16	9.544231E-18
4.650000E+03	4.978122E-16	9.455166E-18
4.660000E+03	4.975801E-16	9.361876E-18
4.670000E+03	4.966307E-16	9.265539E-18
4.680000E+03	4.949854E-16	9.167800E-18
4.690000E+03	4.926749E-16	9.070467E-18
4.700000E+03	4.897471E-16	8.975263E-18
4.710000E+03	4.862684E-16	8.884275E-18
4.720000E+03	4.823089E-16	8.799770E-18
4.730000E+03	4.779416E-16	8.723823E-18
4.740000E+03	4.732629E-16	8.658711E-18
4.750000E+03	4.683547E-16	8.605892E-18
4.760000E+03	4.633134E-16	8.565801E-18
4.770000E+03	4.582241E-16	8.537480E-18
4.780000E+03	4.531755E-16	8.519331E-18
4.790000E+03	4.482425E-16	8.509040E-18
4.800000E+03	4.435117E-16	8.504679E-18
4.810000E+03	4.390379E-16	8.504117E-18
4.820000E+03	4.349010E-16	8.505990E-18
4.830000E+03	4.311434E-16	8.508762E-18
4.840000E+03	4.278199E-16	8.511618E-18
4.850000E+03	4.249711E-16	8.513613E-18
4.860000E+03	4.226289E-16	8.514068E-18
4.870000E+03	4.208121E-16	8.512546E-18
4.880000E+03	4.195387E-16	8.508914E-18
4.890000E+03	4.188086E-16	8.503174E-18
4.900000E+03	4.186176E-16	8.495808E-18
4.910000E+03	4.189558E-16	8.487582E-18
4.920000E+03	4.197888E-16	8.479229E-18
4.930000E+03	4.210837E-16	8.471699E-18
4.940000E+03	4.227840E-16	8.465283E-18
4.950000E+03	4.248208E-16	8.460161E-18
4.960000E+03	4.271122E-16	8.456520E-18
4.970000E+03	4.295784E-16	8.454641E-18
4.980000E+03	4.321316E-16	8.454930E-18
4.990000E+03	4.346812E-16	8.457978E-18
5.000000E+03	4.371528E-16	8.464598E-18
5.010000E+03	4.394706E-16	8.475572E-18
5.020000E+03	4.415774E-16	8.491715E-18
5.030000E+03	4.434415E-16	8.513422E-18
5.040000E+03	4.450435E-16	8.540756E-18
5.050000E+03	4.463712E-16	8.573333E-18
5.060000E+03	4.474517E-16	8.610561E-18
5.070000E+03	4.483170E-16	8.651472E-18
5.080000E+03	4.489988E-16	8.694783E-18
5.090000E+03	4.495564E-16	8.739198E-18
5.100000E+03	4.500443E-16	8.783319E-18
5.110000E+03	4.505081E-16	8.825858E-18
5.120000E+03	4.510160E-16	8.866121E-18
5.130000E+03	4.516047E-16	8.903231E-18
5.140000E+03	4.523310E-16	8.937134E-18
5.150000E+03	4.532307E-16	8.967495E-18
5.160000E+03	4.543438E-16	8.994421E-18
5.170000E+03	4.556953E-16	9.018028E-18
5.180000E+03	4.573136E-16	9.038464E-18
5.190000E+03	4.592119E-16	9.055738E-18
5.200000E+03	4.614041E-16	9.069874E-18
5.210000E+03	4.639038E-16	9.080503E-18
5.220000E+03	4.667109E-16	9.086963E-18
5.230000E+03	4.698317E-16	9.088840E-18
5.240000E+03	4.732597E-16	9.085413E-18
5.250000E+03	4.769903E-16	9.076305E-18
5.260000E+03	4.810210E-16	9.061638E-18
5.270000E+03	4.853411E-16	9.041732E-18
5.280000E+03	4.899266E-16	9.017378E-18
5.290000E+03	4.947707E-16	8.990521E-18
5.300000E+03	4.998476E-16	8.963433E-18
5.310000E+03	5.051383E-16	8.939464E-18
5.320000E+03	5.106097E-16	8.922517E-18
5.330000E+03	5.162301E-16	8.916808E-18
5.340000E+03	5.219633E-16	8.926905E-18
5.350000E+03	5.277681E-16	8.957371E-18
5.360000E+03	5.335976E-16	9.011829E-18
5.370000E+03	5.393984E-16	9.092543E-18
5.380000E+03	5.451105E-16	9.199418E-18
5.390000E+03	5.506604E-16	9.328819E-18
5.400000E+03	5.559852E-16	9.474965E-18
5.410000E+03	5.609947E-16	9.630487E-18
5.420000E+03	5.656067E-16	9.787672E-18
5.430000E+03	5.697425E-16	9.939277E-18
5.440000E+03	5.733108E-16	1.007874E-17
5.450000E+03	5.762262E-16	1.020057E-17
5.460000E+03	5.784108E-16	1.030073E-17
5.470000E+03	5.797781E-16	1.037625E-17
5.480000E+03	5.802524E-16	1.042504E-17
5.490000E+03	5.797710E-16	1.044629E-17
5.500000E+03	5.782721E-16	1.044004E-17
5.510000E+03	5.757271E-16	1.040724E-17
5.520000E+03	5.721069E-16	1.034938E-17
5.530000E+03	5.674205E-16	1.026910E-17
5.540000E+03	5.616847E-16	1.016898E-17
5.550000E+03	5.549386E-16	1.005212E-17
5.560000E+03	5.472505E-16	9.921895E-18
5.570000E+03	5.387147E-16	9.781264E-18
5.580000E+03	5.294437E-16	9.633253E-18
5.590000E+03	5.195624E-16	9.481097E-18
5.600000E+03	5.092015E-16	9.327797E-18
5.610000E+03	4.985118E-16	9.176629E-18
5.620000E+03	4.876259E-16	9.030064E-18
5.630000E+03	4.766921E-16	8.889771E-18
5.640000E+03	4.658541E-16	8.756905E-18
5.650000E+03	4.552345E-16	8.631963E-18
5.660000E+03	4.449615E-16	8.514966E-18
5.670000E+03	4.351481E-16	8.405728E-18
5.680000E+03	4.258962E-16	8.304245E-18
5.690000E+03	4.172960E-16	8.210546E-18
5.700000E+03	4.094303E-16	8.125036E-18
5.710000E+03	4.023580E-16	8.048187E-18
5.720000E+03	3.961380E-16	7.980795E-18
5.730000E+03	3.908142E-16	7.923767E-18
5.740000E+03	3.864164E-16	7.878009E-18
5.750000E+03	3.829577E-16	7.844062E-18
5.760000E+03	3.804378E-16	7.822328E-18
5.770000E+03	3.788373E-16	7.812843E-18
5.780000E+03	3.781229E-16	7.815101E-18
5.790000E+03	3.782437E-16	7.828228E-18
5.800000E+03	3.791354E-16	7.851177E-18
5.810000E+03	3.807296E-16	7.882761E-18
5.820000E+03	3.829428E-16	7.921539E-18
5.830000E+03	3.856902E-16	7.965952E-18
5.840000E+03	3.888825E-16	8.013959E-18
5.850000E+03	3.924270E-16	8.063308E-18
5.860000E+03	3.962314E-16	8.111636E-18
5.870000E+03	4.002058E-16	8.156337E-18
5.880000E+03	4.042587E-16	8.194819E-18
5.890000E+03	4.083088E-16	8.225010E-18
5.900000E+03	4.122670E-16	8.244990E-18
5.910000E+03	4.160642E-16	8.253732E-18
5.920000E+03	4.196221E-16	8.250413E-18
5.930000E+03	4.228830E-16	8.234748E-18
5.940000E+03	4.257899E-16	8.206875E-18
5.950000E+03	4.282985E-16	8.167649E-18
5.960000E+03	4.303750E-16	8.118319E-18
5.970000E+03	4.319917E-16	8.060561E-18
5.980000E+03	4.331360E-16	7.996323E-18
5.990000E+03	4.338126E-16	7.927274E-18
6.000000E+03	4.340206E-16	7.854651E-18
6.010000E+03	4.337892E-16	7.779766E-18
6.020000E+03	4.331442E-16	7.702880E-18
6.030000E+03	4.321237E-16	7.624016E-18
6.040000E+03	4.307639E-16	7.542949E-18
6.050000E+03	4.291198E-16	7.459344E-18
6.060000E+03	4.272474E-16	7.372806E-18
6.070000E+03	4.252014E-16	7.282809E-18
6.080000E+03	4.230398E-16	7.188405E-18
6.090000E+03	4.208296E-16	7.088870E-18
6.100000E+03	4.186294E-16	6.983654E-18
6.110000E+03	4.165001E-16	6.872417E-18
6.120000E+03	4.145002E-16	6.755320E-18
6.130000E+03	4.126851E-16	6.633106E-18
6.140000E+03	4.111016E-16	6.506806E-18
6.150000E+03	4.098034E-16	6.378268E-18
6.160000E+03	4.088291E-16	6.249681E-18
6.170000E+03	4.082038E-16	6.123250E-18
6.180000E+03	4.079520E-16	6.001878E-18
6.190000E+03	4.080885E-16	5.889125E-18
6.200000E+03	4.086041E-16	5.788653E-18
6.210000E+03	4.094955E-16	5.704897E-18
6.220000E+03	4.107421E-16	5.642482E-18
6.230000E+03	4.123046E-16	5.605299E-18
6.240000E+03	4.141454E-16	5.596061E-18
6.250000E+03	4.162121E-16	5.614660E-18
6.260000E+03	4.184424E-16	5.657841E-18
6.270000E+03	4.207719E-16	5.720871E-18
6.280000E+03	4.231301E-16	5.798396E-18
6.290000E+03	4.254429E-16	5.884768E-18
6.300000E+03	4.276558E-16	5.975175E-18
6.310000E+03	4.296980E-16	6.065333E-18
6.320000E+03	4.315244E-16	6.151697E-18
6.330000E+03	4.330848E-16	6.231559E-18
6.340000E+03	4.343539E-16	6.303479E-18
6.350000E+03	4.352932E-16	6.366246E-18
6.360000E+03	4.358890E-16	6.419804E-18
6.370000E+03	4.361240E-16	6.464715E-18
6.380000E+03	4.359895E-16	6.501707E-18
6.390000E+03	4.354722E-16	6.531859E-18
6.400000E+03	4.345793E-16	6.556770E-18
6.410000E+03	4.333070E-16	6.577384E-18
6.420000E+03	4.316501E-16	6.594621E-18
6.430000E+03	4.296204E-16	6.609630E-18
6.440000E+03	4.272294E-16	6.622925E-18
6.450000E+03	4.244890E-16	6.634940E-18
6.460000E+03	4.214212E-16	6.646252E-18
6.470000E+03	4.180509E-16	6.656986E-18
6.480000E+03	4.144178E-16	6.667510E-18
6.490000E+03	4.105590E-16	6.678219E-18
6.500000E+03	4.065189E-16	6.689256E-18
6.510000E+03	4.023461E-16	6.700910E-18
6.520000E+03	3.980917E-16	6.713594E-18
6.530000E+03	3.938038E-16	6.727338E-18
6.540000E+03	3.895335E-16	6.742281E-18
6.550000E+03	3.853234E-16	6.758468E-18
6.560000E+03	3.812169E-16	6.775627E-18
6.570000E+03	3.772374E-16	6.793132E-18
6.580000E+03	3.734096E-16	6.810350E-18
6.590000E+03	3.697397E-16	6.825928E-18
6.600000E+03	3.662195E-16	6.838231E-18
6.610000E+03	3.628382E-16	6.845607E-18
6.620000E+03	3.595788E-16	6.846095E-18
6.630000E+03	3.564170E-16	6.837860E-18
6.640000E+03	3.533389E-16	6.819922E-18
6.650000E+03	3.503199E-16	6.791762E-18
6.660000E+03	3.473404E-16	6.753733E-18
6.670000E+03	3.443795E-16	6.706877E-18
6.680000E+03	3.414314E-16	6.653076E-18
6.690000E+03	3.384788E-16	6.594430E-18
6.700000E+03	3.355252E-16	6.533471E-18
6.710000E+03	3.325666E-16	6.472133E-18
6.720000E+03	3.296197E-16	6.412340E-18
6.730000E+03	3.266939E-16	6.355072E-18
6.740000E+03	3.238104E-16	6.300171E-18
6.750000E+03	3.209865E-16	6.246653E-18
6.760000E+03	3.182458E-16	6.193317E-18
6.770000E+03	3.156189E-16	6.138692E-18
6.780000E+03	3.131312E-16	6.081290E-18
6.790000E+03	3.108167E-16	6.020231E-18
6.800000E+03	3.087073E-16	5.955075E-18
6.810000E+03	3.068356E-16	5.886015E-18
6.820000E+03	3.052312E-16	5.813811E-18
6.830000E+03	3.039315E-16	5.739877E-18
6.840000E+03	3.029702E-16	5.666040E-18
6.850000E+03	3.023840E-16	5.594367E-18
6.860000E+03	3.021991E-16	5.526535E-18
6.870000E+03	3.024502E-16	5.464418E-18
6.880000E+03	3.031641E-16	5.409720E-18
6.890000E+03	3.043612E-16	5.363713E-18
6.900000E+03	3.060555E-16	5.327563E-18
6.910000E+03	3.082574E-16	5.302431E-18
6.920000E+03	3.109605E-16	5.288989E-18
6.930000E+03	3.141484E-16	5.287817E-18
6.940000E+03	3.178027E-16	5.299404E-18
6.950000E+03	3.218749E-16	5.323272E-18
6.960000E+03	3.263095E-16	5.358753E-18
6.970000E+03	3.310266E-16	5.404783E-18
6.980000E+03	3.359486E-16	5.460005E-18
6.990000E+03	3.409738E-16	5.522684E-18
7.000000E+03	3.460161E-16	5.591351E-18
7.010000E+03	3.509867E-16	5.664104E-18
7.020000E+03	3.557975E-16	5.738991E-18
7.030000E+03	3.603930E-16	5.814480E-18
7.040000E+03	3.647249E-16	5.888602E-18
7.050000E+03	3.687842E-16	5.959990E-18
7.060000E+03	3.725700E-16	6.027621E-18
7.070000E+03	3.761080E-16	6.090916E-18
7.080000E+03	3.794421E-16	6.149964E-18
7.090000E+03	3.826341E-16	6.205548E-18
7.100000E+03	3.857418E-16	6.258452E-18
7.110000E+03	3.888474E-16	6.310185E-18
7.120000E+03	3.920139E-16	6.362136E-18
7.130000E+03	3.953183E-16	6.415642E-18
7.140000E+03	3.988150E-16	6.471711E-18
7.150000E+03	4.025515E-16	6.531161E-18
7.160000E+03	4.065575E-16	6.593961E-18
7.170000E+03	4.108466E-16	6.659711E-18
7.180000E+03	4.154142E-16	6.727723E-18
7.190000E+03	4.202351E-16	6.796619E-18
7.200000E+03	4.252706E-16	6.864980E-18
7.210000E+03	4.304496E-16	6.931218E-18
7.220000E+03	4.357047E-16	6.993927E-18
7.230000E+03	4.409327E-16	7.051609E-18
7.240000E+03	4.460403E-16	7.103329E-18
7.250000E+03	4.509067E-16	7.147618E-18
7.260000E+03	4.554106E-16	7.183344E-18
7.270000E+03	4.594295E-16	7.209670E-18
7.280000E+03	4.628509E-16	7.225673E-18
7.290000E+03	4.655522E-16	7.230447E-18
7.300000E+03	4.674493E-16	7.223689E-18
7.310000E+03	4.684610E-16	7.204498E-18
7.320000E+03	4.685344E-16	7.172274E-18
7.330000E+03	4.676472E-16	7.126737E-18
7.340000E+03	4.657946E-16	7.067131E-18
7.350000E+03	4.630030E-16	6.993070E-18
7.360000E+03	4.593194E-16	6.904446E-18
7.370000E+03	4.548168E-16	6.801001E-18
7.380000E+03	4.495645E-16	6.682632E-18
7.390000E+03	4.436640E-16	6.550184E-18
7.400000E+03	4.372099E-16	6.404525E-18
7.410000E+03	4.302872E-16	6.246966E-18
7.420000E+03	4.229976E-16	6.079544E-18
7.430000E+03	4.154339E-16	5.904153E-18
7.440000E+03	4.076902E-16	5.723292E-18
7.450000E+03	3.998406E-16	5.539864E-18
7.460000E+03	3.919709E-16	5.357288E-18
7.470000E+03	3.841566E-16	5.179712E-18
7.480000E+03	3.764689E-16	5.012094E-18
7.490000E+03	3.689758E-16	4.859712E-18
7.500000E+03	3.617400E-16	4.728367E-18
7.510000E+03	3.548193E-16	4.623980E-18
7.520000E+03	3.482661E-16	4.551533E-18
7.530000E+03	3.421216E-16	4.514412E-18
7.540000E+03	3.364322E-16	4.513392E-18
7.550000E+03	3.312161E-16	4.544782E-18
7.560000E+03	3.264960E-16	4.602224E-18
7.570000E+03	3.222836E-16	4.678319E-18
7.580000E+03	3.185809E-16	4.765496E-18
7.590000E+03	3.153898E-16	4.857115E-18
7.600000E+03	3.127173E-16	4.948084E-18
7.610000E+03	3.105502E-16	5.034493E-18
7.620000E+03	3.088808E-16	5.113956E-18
7.630000E+03	3.076984E-16	5.185322E-18
7.640000E+03	3.069937E-16	5.248509E-18
7.650000E+03	3.067497E-16	5.304216E-18
7.660000E+03	3.069374E-16	5.353510E-18
7.670000E+03	3.075393E-16	5.397902E-18
7.680000E+03	3.085206E-16	5.438912E-18
7.690000E+03	3.098450E-16	5.478137E-18
7.700000E+03	3.114730E-16	5.516865E-18
7.710000E+03	3.133505E-16	5.556125E-18
7.720000E+03	3.154219E-16	5.596910E-18
7.730000E+03	3.176246E-16	5.639800E-18
7.740000E+03	3.198957E-16	5.685314E-18
7.750000E+03	3.221614E-16	5.733665E-18
7.760000E+03	3.243513E-16	5.784679E-18
