#wls	flux	fluxerr
1.600000E+03	3.106574E-16	2.108664E-16
1.640000E+03	3.176445E-16	2.124237E-16
1.680000E+03	3.246147E-16	2.137547E-16
1.720000E+03	3.314805E-16	2.147981E-16
1.760000E+03	3.382744E-16	2.155726E-16
1.800000E+03	3.450320E-16	2.160980E-16
1.840000E+03	3.516598E-16	2.163129E-16
1.880000E+03	3.581916E-16	2.162375E-16
1.920000E+03	3.645955E-16	2.158518E-16
1.960000E+03	3.708382E-16	2.151365E-16
2.000000E+03	3.768841E-16	2.140735E-16
2.040000E+03	3.826963E-16	2.126458E-16
2.080000E+03	3.883766E-16	2.109142E-16
2.120000E+03	3.937473E-16	2.087868E-16
2.160000E+03	3.989090E-16	2.063251E-16
2.200000E+03	4.037505E-16	2.034798E-16
2.240000E+03	4.083007E-16	2.002764E-16
2.280000E+03	4.125879E-16	1.967399E-16
2.320000E+03	4.164968E-16	1.928278E-16
2.360000E+03	4.201240E-16	1.886000E-16
2.400000E+03	4.233516E-16	1.840189E-16
2.440000E+03	4.262020E-16	1.791134E-16
2.480000E+03	4.286952E-16	1.739112E-16
2.520000E+03	4.307789E-16	1.684118E-16
2.560000E+03	4.324681E-16	1.626439E-16
2.600000E+03	4.337736E-16	1.566352E-16
2.640000E+03	4.347016E-16	1.504120E-16
2.680000E+03	4.351896E-16	1.439787E-16
2.720000E+03	4.353005E-16	1.373842E-16
2.760000E+03	4.350259E-16	1.306531E-16
2.800000E+03	4.343526E-16	1.238100E-16
2.840000E+03	4.332627E-16	1.168804E-16
2.880000E+03	4.317909E-16	1.099048E-16
2.920000E+03	4.299616E-16	1.029201E-16
2.960000E+03	4.278416E-16	9.597181E-17
3.000000E+03	4.253314E-16	8.906755E-17
3.010000E+03	4.246397E-16	8.735163E-17
3.020000E+03	4.239929E-16	8.565509E-17
3.030000E+03	4.232420E-16	8.394818E-17
3.040000E+03	4.225318E-16	8.226045E-17
3.050000E+03	4.218112E-16	8.058201E-17
3.060000E+03	4.210315E-16	7.890411E-17
3.070000E+03	4.202385E-16	7.723610E-17
3.080000E+03	4.194761E-16	7.558632E-17
3.090000E+03	4.186506E-16	7.393815E-17
3.100000E+03	4.178063E-16	7.230028E-17
3.110000E+03	4.169857E-16	7.068040E-17
3.120000E+03	4.160984E-16	6.906356E-17
3.130000E+03	4.152305E-16	6.746478E-17
3.140000E+03	4.143790E-16	6.588369E-17
3.150000E+03	4.134567E-16	6.430693E-17
3.160000E+03	4.125469E-16	6.274821E-17
3.170000E+03	4.116058E-16	6.120127E-17
3.180000E+03	4.106725E-16	5.967247E-17
3.190000E+03	4.097443E-16	5.816174E-17
3.200000E+03	4.087793E-16	5.666359E-17
3.210000E+03	4.078152E-16	5.518394E-17
3.220000E+03	4.068496E-16	5.372286E-17
3.230000E+03	4.058800E-16	5.228051E-17
3.240000E+03	4.048671E-16	5.085243E-17
3.250000E+03	4.038834E-16	4.944842E-17
3.260000E+03	4.028529E-16	4.805966E-17
3.270000E+03	4.018465E-16	4.669531E-17
3.280000E+03	4.008254E-16	4.535135E-17
3.290000E+03	3.997877E-16	4.402829E-17
3.300000E+03	3.987658E-16	4.273033E-17
3.310000E+03	3.977227E-16	4.145416E-17
3.320000E+03	3.966897E-16	4.020378E-17
3.330000E+03	3.956638E-16	3.897952E-17
3.340000E+03	3.946099E-16	3.777871E-17
3.350000E+03	3.935581E-16	3.660511E-17
3.360000E+03	3.925052E-16	3.545926E-17
3.370000E+03	3.914486E-16	3.434174E-17
3.380000E+03	3.903853E-16	3.325319E-17
3.390000E+03	3.893422E-16	3.219673E-17
3.400000E+03	3.882860E-16	3.117046E-17
3.410000E+03	3.872142E-16	3.017516E-17
3.420000E+03	3.861524E-16	2.921374E-17
3.430000E+03	3.850692E-16	2.828469E-17
3.440000E+03	3.839895E-16	2.739072E-17
3.450000E+03	3.829101E-16	2.653227E-17
3.460000E+03	3.818281E-16	2.570975E-17
3.470000E+03	3.807408E-16	2.492347E-17
3.480000E+03	3.796714E-16	2.417521E-17
3.490000E+03	3.785677E-16	2.346174E-17
3.500000E+03	3.774786E-16	2.278608E-17
3.510000E+03	3.764027E-16	2.214775E-17
3.520000E+03	3.753154E-16	2.154476E-17
3.530000E+03	3.742639E-16	2.097907E-17
3.540000E+03	3.732018E-16	2.044707E-17
3.550000E+03	3.721534E-16	1.994901E-17
3.560000E+03	3.711418E-16	1.948484E-17
3.570000E+03	3.701248E-16	1.905092E-17
3.580000E+03	3.691686E-16	1.864920E-17
3.590000E+03	3.682324E-16	1.827600E-17
3.600000E+03	3.673395E-16	1.793089E-17
3.610000E+03	3.664724E-16	1.761139E-17
3.620000E+03	3.656744E-16	1.731792E-17
3.630000E+03	3.649289E-16	1.704796E-17
3.640000E+03	3.642404E-16	1.680005E-17
3.650000E+03	3.636141E-16	1.657270E-17
3.660000E+03	3.630919E-16	1.636610E-17
3.670000E+03	3.626431E-16	1.617714E-17
3.680000E+03	3.622749E-16	1.600445E-17
3.690000E+03	3.620292E-16	1.584824E-17
3.700000E+03	3.618955E-16	1.570641E-17
3.710000E+03	3.618815E-16	1.557772E-17
3.720000E+03	3.620112E-16	1.546170E-17
3.730000E+03	3.622758E-16	1.535651E-17
3.740000E+03	3.626988E-16	1.526175E-17
3.750000E+03	3.632716E-16	1.517573E-17
3.760000E+03	3.640317E-16	1.509877E-17
3.770000E+03	3.649692E-16	1.502925E-17
3.780000E+03	3.660744E-16	1.496567E-17
3.790000E+03	3.673807E-16	1.490838E-17
3.800000E+03	3.688902E-16	1.485656E-17
3.810000E+03	3.705893E-16	1.480887E-17
3.820000E+03	3.724777E-16	1.476465E-17
3.830000E+03	3.745806E-16	1.472442E-17
3.840000E+03	3.768658E-16	1.468656E-17
3.850000E+03	3.793271E-16	1.465068E-17
3.860000E+03	3.819828E-16	1.461751E-17
3.870000E+03	3.848085E-16	1.458627E-17
3.880000E+03	3.877910E-16	1.455682E-17
3.890000E+03	3.909149E-16	1.452906E-17
3.900000E+03	3.941626E-16	1.450297E-17
3.910000E+03	3.975145E-16	1.447852E-17
3.920000E+03	4.009490E-16	1.445571E-17
3.930000E+03	4.044552E-16	1.443493E-17
3.940000E+03	4.079834E-16	1.441516E-17
3.950000E+03	4.115325E-16	1.439706E-17
3.960000E+03	4.150635E-16	1.437986E-17
3.970000E+03	4.185495E-16	1.436310E-17
3.980000E+03	4.219516E-16	1.434584E-17
3.990000E+03	4.252669E-16	1.432825E-17
4.000000E+03	4.284459E-16	1.430884E-17
4.010000E+03	4.314753E-16	1.428730E-17
4.020000E+03	4.343204E-16	1.426255E-17
4.030000E+03	4.369708E-16	1.423433E-17
4.040000E+03	4.393957E-16	1.420173E-17
4.050000E+03	4.415781E-16	1.416434E-17
4.060000E+03	4.434928E-16	1.412156E-17
4.070000E+03	4.451398E-16	1.407369E-17
4.080000E+03	4.464901E-16	1.402019E-17
4.090000E+03	4.475608E-16	1.396203E-17
4.100000E+03	4.483410E-16	1.389935E-17
4.110000E+03	4.488143E-16	1.383209E-17
4.120000E+03	4.489990E-16	1.376126E-17
4.130000E+03	4.489067E-16	1.368751E-17
4.140000E+03	4.485430E-16	1.361122E-17
4.150000E+03	4.479271E-16	1.353296E-17
4.160000E+03	4.470716E-16	1.345294E-17
4.170000E+03	4.459925E-16	1.337127E-17
4.180000E+03	4.447262E-16	1.328851E-17
4.190000E+03	4.432923E-16	1.320460E-17
4.200000E+03	4.417120E-16	1.311944E-17
4.210000E+03	4.400158E-16	1.303315E-17
4.220000E+03	4.382259E-16	1.294564E-17
4.230000E+03	4.363725E-16	1.285709E-17
4.240000E+03	4.344767E-16	1.276753E-17
4.250000E+03	4.325669E-16	1.267732E-17
4.260000E+03	4.306620E-16	1.258675E-17
4.270000E+03	4.287795E-16	1.249626E-17
4.280000E+03	4.269506E-16	1.240687E-17
4.290000E+03	4.251889E-16	1.231935E-17
4.300000E+03	4.235070E-16	1.223459E-17
4.310000E+03	4.219159E-16	1.215364E-17
4.320000E+03	4.204386E-16	1.207801E-17
4.330000E+03	4.190829E-16	1.200883E-17
4.340000E+03	4.178554E-16	1.194721E-17
4.350000E+03	4.167752E-16	1.189447E-17
4.360000E+03	4.158408E-16	1.185118E-17
4.370000E+03	4.150696E-16	1.181816E-17
4.380000E+03	4.144657E-16	1.179555E-17
4.390000E+03	4.140390E-16	1.178326E-17
4.400000E+03	4.137985E-16	1.178086E-17
4.410000E+03	4.137462E-16	1.178737E-17
4.420000E+03	4.139006E-16	1.180209E-17
4.430000E+03	4.142543E-16	1.182337E-17
4.440000E+03	4.148100E-16	1.184980E-17
4.450000E+03	4.155732E-16	1.188007E-17
4.460000E+03	4.165292E-16	1.191240E-17
4.470000E+03	4.176773E-16	1.194555E-17
4.480000E+03	4.190019E-16	1.197808E-17
4.490000E+03	4.204893E-16	1.200882E-17
4.500000E+03	4.221111E-16	1.203639E-17
4.510000E+03	4.238517E-16	1.206001E-17
4.520000E+03	4.256865E-16	1.207879E-17
4.530000E+03	4.275762E-16	1.209164E-17
4.540000E+03	4.294896E-16	1.209783E-17
4.550000E+03	4.313983E-16	1.209684E-17
4.560000E+03	4.332555E-16	1.208778E-17
4.570000E+03	4.350294E-16	1.207027E-17
4.580000E+03	4.366822E-16	1.204389E-17
4.590000E+03	4.381659E-16	1.200802E-17
4.600000E+03	4.394554E-16	1.196277E-17
4.610000E+03	4.405066E-16	1.190784E-17
4.620000E+03	4.412953E-16	1.184357E-17
4.630000E+03	4.417964E-16	1.177038E-17
4.640000E+03	4.419901E-16	1.168899E-17
4.650000E+03	4.418633E-16	1.160038E-17
4.660000E+03	4.414041E-16	1.150572E-17
4.670000E+03	4.406234E-16	1.140687E-17
4.680000E+03	4.395187E-16	1.130542E-17
4.690000E+03	4.381147E-16	1.120374E-17
4.700000E+03	4.364220E-16	1.110382E-17
4.710000E+03	4.344722E-16	1.100810E-17
4.720000E+03	4.322969E-16	1.091883E-17
4.730000E+03	4.299213E-16	1.083782E-17
4.740000E+03	4.273840E-16	1.076678E-17
4.750000E+03	4.247201E-16	1.070683E-17
4.760000E+03	4.219660E-16	1.065853E-17
4.770000E+03	4.191533E-16	1.062170E-17
4.780000E+03	4.163221E-16	1.059588E-17
4.790000E+03	4.134976E-16	1.057988E-17
4.800000E+03	4.107349E-16	1.057310E-17
4.810000E+03	4.080635E-16	1.057423E-17
4.820000E+03	4.055235E-16	1.058228E-17
4.830000E+03	4.031468E-16	1.059621E-17
4.840000E+03	4.009701E-16	1.061531E-17
4.850000E+03	3.990039E-16	1.063840E-17
4.860000E+03	3.972761E-16	1.066498E-17
4.870000E+03	3.957967E-16	1.069429E-17
4.880000E+03	3.945751E-16	1.072577E-17
4.890000E+03	3.936111E-16	1.075880E-17
4.900000E+03	3.929035E-16	1.079291E-17
4.910000E+03	3.924375E-16	1.082745E-17
4.920000E+03	3.922057E-16	1.086216E-17
4.930000E+03	3.921875E-16	1.089656E-17
4.940000E+03	3.923578E-16	1.093021E-17
4.950000E+03	3.926878E-16	1.096272E-17
4.960000E+03	3.931459E-16	1.099373E-17
4.970000E+03	3.937025E-16	1.102301E-17
4.980000E+03	3.943235E-16	1.105026E-17
4.990000E+03	3.949792E-16	1.107532E-17
5.000000E+03	3.956295E-16	1.109766E-17
5.010000E+03	3.962583E-16	1.111736E-17
5.020000E+03	3.968329E-16	1.113388E-17
5.030000E+03	3.973340E-16	1.114695E-17
5.040000E+03	3.977606E-16	1.115658E-17
5.050000E+03	3.980923E-16	1.116214E-17
5.060000E+03	3.983354E-16	1.116354E-17
5.070000E+03	3.984886E-16	1.116039E-17
5.080000E+03	3.985633E-16	1.115253E-17
5.090000E+03	3.985700E-16	1.113978E-17
5.100000E+03	3.985220E-16	1.112197E-17
5.110000E+03	3.984340E-16	1.109903E-17
5.120000E+03	3.983211E-16	1.107098E-17
5.130000E+03	3.982029E-16	1.103798E-17
5.140000E+03	3.980898E-16	1.100004E-17
5.150000E+03	3.979952E-16	1.095731E-17
5.160000E+03	3.979351E-16	1.091009E-17
5.170000E+03	3.979196E-16	1.085855E-17
5.180000E+03	3.979528E-16	1.080279E-17
5.190000E+03	3.980488E-16	1.074323E-17
5.200000E+03	3.982035E-16	1.067988E-17
5.210000E+03	3.984228E-16	1.061314E-17
5.220000E+03	3.987105E-16	1.054345E-17
5.230000E+03	3.990601E-16	1.047117E-17
5.240000E+03	3.994675E-16	1.039686E-17
5.250000E+03	3.999267E-16	1.032126E-17
5.260000E+03	4.004382E-16	1.024547E-17
5.270000E+03	4.009806E-16	1.017031E-17
5.280000E+03	4.015558E-16	1.009737E-17
5.290000E+03	4.021442E-16	1.002794E-17
5.300000E+03	4.027413E-16	9.963859E-18
5.310000E+03	4.033259E-16	9.906683E-18
5.320000E+03	4.038921E-16	9.858402E-18
5.330000E+03	4.044255E-16	9.820759E-18
5.340000E+03	4.049065E-16	9.795233E-18
5.350000E+03	4.053232E-16	9.783174E-18
5.360000E+03	4.056580E-16	9.785315E-18
5.370000E+03	4.058963E-16	9.801743E-18
5.380000E+03	4.060129E-16	9.831358E-18
5.390000E+03	4.059884E-16	9.872114E-18
5.400000E+03	4.058016E-16	9.921104E-18
5.410000E+03	4.054186E-16	9.974620E-18
5.420000E+03	4.048218E-16	1.002917E-17
5.430000E+03	4.039865E-16	1.008114E-17
5.440000E+03	4.028854E-16	1.012711E-17
5.450000E+03	4.015056E-16	1.016437E-17
5.460000E+03	3.998244E-16	1.019045E-17
5.470000E+03	3.978265E-16	1.020351E-17
5.480000E+03	3.955039E-16	1.020244E-17
5.490000E+03	3.928488E-16	1.018655E-17
5.500000E+03	3.898533E-16	1.015560E-17
5.510000E+03	3.865187E-16	1.010990E-17
5.520000E+03	3.828547E-16	1.005025E-17
5.530000E+03	3.788725E-16	9.977688E-18
5.540000E+03	3.745848E-16	9.893382E-18
5.550000E+03	3.700133E-16	9.798812E-18
5.560000E+03	3.651845E-16	9.695605E-18
5.570000E+03	3.601297E-16	9.585500E-18
5.580000E+03	3.548841E-16	9.470319E-18
5.590000E+03	3.494828E-16	9.351854E-18
5.600000E+03	3.439670E-16	9.232018E-18
5.610000E+03	3.383833E-16	9.112807E-18
5.620000E+03	3.327693E-16	8.995880E-18
5.630000E+03	3.271701E-16	8.882969E-18
5.640000E+03	3.216335E-16	8.775716E-18
5.650000E+03	3.162003E-16	8.675371E-18
5.660000E+03	3.109126E-16	8.583020E-18
5.670000E+03	3.058109E-16	8.499486E-18
5.680000E+03	3.009296E-16	8.425250E-18
5.690000E+03	2.963032E-16	8.360640E-18
5.700000E+03	2.919623E-16	8.305777E-18
5.710000E+03	2.879363E-16	8.260678E-18
5.720000E+03	2.842412E-16	8.224959E-18
5.730000E+03	2.808941E-16	8.198250E-18
5.740000E+03	2.779096E-16	8.180124E-18
5.750000E+03	2.752919E-16	8.169861E-18
5.760000E+03	2.730425E-16	8.166704E-18
5.770000E+03	2.711610E-16	8.169884E-18
5.780000E+03	2.696344E-16	8.178312E-18
5.790000E+03	2.684509E-16	8.191008E-18
5.800000E+03	2.676003E-16	8.207115E-18
5.810000E+03	2.670559E-16	8.225347E-18
5.820000E+03	2.668012E-16	8.244808E-18
5.830000E+03	2.668125E-16	8.264430E-18
5.840000E+03	2.670586E-16	8.282986E-18
5.850000E+03	2.675150E-16	8.299503E-18
5.860000E+03	2.681563E-16	8.313039E-18
5.870000E+03	2.689490E-16	8.322461E-18
5.880000E+03	2.698649E-16	8.326886E-18
5.890000E+03	2.708816E-16	8.325719E-18
5.900000E+03	2.719650E-16	8.318118E-18
5.910000E+03	2.730953E-16	8.303840E-18
5.920000E+03	2.742495E-16	8.282696E-18
5.930000E+03	2.754016E-16	8.254562E-18
5.940000E+03	2.765387E-16	8.219866E-18
5.950000E+03	2.776427E-16	8.179006E-18
5.960000E+03	2.786984E-16	8.132577E-18
5.970000E+03	2.797017E-16	8.081572E-18
5.980000E+03	2.806434E-16	8.026862E-18
5.990000E+03	2.815201E-16	7.969464E-18
6.000000E+03	2.823313E-16	7.910406E-18
6.010000E+03	2.830795E-16	7.850671E-18
6.020000E+03	2.837700E-16	7.791148E-18
6.030000E+03	2.844135E-16	7.732685E-18
6.040000E+03	2.850149E-16	7.675766E-18
6.050000E+03	2.855954E-16	7.621121E-18
6.060000E+03	2.861644E-16	7.568982E-18
6.070000E+03	2.867440E-16	7.519778E-18
6.080000E+03	2.873462E-16	7.473559E-18
6.090000E+03	2.879982E-16	7.430694E-18
6.100000E+03	2.887130E-16	7.391161E-18
6.110000E+03	2.895177E-16	7.355319E-18
6.120000E+03	2.904242E-16	7.323203E-18
6.130000E+03	2.914547E-16	7.295220E-18
6.140000E+03	2.926208E-16	7.271652E-18
6.150000E+03	2.939375E-16	7.253042E-18
6.160000E+03	2.954140E-16	7.239974E-18
6.170000E+03	2.970476E-16	7.232927E-18
6.180000E+03	2.988433E-16	7.232765E-18
6.190000E+03	3.007964E-16	7.240278E-18
6.200000E+03	3.029100E-16	7.256568E-18
6.210000E+03	3.051710E-16	7.282408E-18
6.220000E+03	3.075678E-16	7.318588E-18
6.230000E+03	3.100756E-16	7.365436E-18
6.240000E+03	3.126749E-16	7.423130E-18
6.250000E+03	3.153370E-16	7.491143E-18
6.260000E+03	3.180303E-16	7.568357E-18
6.270000E+03	3.207273E-16	7.653355E-18
6.280000E+03	3.233881E-16	7.744156E-18
6.290000E+03	3.259844E-16	7.838868E-18
6.300000E+03	3.284704E-16	7.935086E-18
6.310000E+03	3.308131E-16	8.030697E-18
6.320000E+03	3.329805E-16	8.123643E-18
6.330000E+03	3.349348E-16	8.211820E-18
6.340000E+03	3.366408E-16	8.293284E-18
6.350000E+03	3.380761E-16	8.366565E-18
6.360000E+03	3.392115E-16	8.430203E-18
6.370000E+03	3.400250E-16	8.483137E-18
6.380000E+03	3.404989E-16	8.524660E-18
6.390000E+03	3.406232E-16	8.554547E-18
6.400000E+03	3.403854E-16	8.572799E-18
6.410000E+03	3.397880E-16	8.580089E-18
6.420000E+03	3.388240E-16	8.577118E-18
6.430000E+03	3.375048E-16	8.565279E-18
6.440000E+03	3.358391E-16	8.546064E-18
6.450000E+03	3.338364E-16	8.521070E-18
6.460000E+03	3.315202E-16	8.492263E-18
6.470000E+03	3.289109E-16	8.461436E-18
6.480000E+03	3.260282E-16	8.430195E-18
6.490000E+03	3.229052E-16	8.400235E-18
6.500000E+03	3.195665E-16	8.372729E-18
6.510000E+03	3.160483E-16	8.348809E-18
6.520000E+03	3.123708E-16	8.328827E-18
6.530000E+03	3.085742E-16	8.313323E-18
6.540000E+03	3.046812E-16	8.302054E-18
6.550000E+03	3.007230E-16	8.294728E-18
6.560000E+03	2.967186E-16	8.290498E-18
6.570000E+03	2.927003E-16	8.288715E-18
6.580000E+03	2.886782E-16	8.287996E-18
6.590000E+03	2.846750E-16	8.287272E-18
6.600000E+03	2.807038E-16	8.285234E-18
6.610000E+03	2.767726E-16	8.280508E-18
6.620000E+03	2.728902E-16	8.271908E-18
6.630000E+03	2.690674E-16	8.258505E-18
6.640000E+03	2.653109E-16	8.239485E-18
6.650000E+03	2.616273E-16	8.214266E-18
6.660000E+03	2.580202E-16	8.182409E-18
6.670000E+03	2.545022E-16	8.143962E-18
6.680000E+03	2.510777E-16	8.098888E-18
6.690000E+03	2.477543E-16	8.047389E-18
6.700000E+03	2.445402E-16	7.989770E-18
6.710000E+03	2.414466E-16	7.926484E-18
6.720000E+03	2.384821E-16	7.857924E-18
6.730000E+03	2.356552E-16	7.784479E-18
6.740000E+03	2.329745E-16	7.706533E-18
6.750000E+03	2.304509E-16	7.624550E-18
6.760000E+03	2.280899E-16	7.538840E-18
6.770000E+03	2.258996E-16	7.449839E-18
6.780000E+03	2.238905E-16	7.358132E-18
6.790000E+03	2.220701E-16	7.264306E-18
6.800000E+03	2.204462E-16	7.169045E-18
6.810000E+03	2.190261E-16	7.073141E-18
6.820000E+03	2.178197E-16	6.977569E-18
6.830000E+03	2.168315E-16	6.883227E-18
6.840000E+03	2.160708E-16	6.791246E-18
6.850000E+03	2.155413E-16	6.702640E-18
6.860000E+03	2.152512E-16	6.618595E-18
6.870000E+03	2.152053E-16	6.540201E-18
6.880000E+03	2.154071E-16	6.468502E-18
6.890000E+03	2.158587E-16	6.404465E-18
6.900000E+03	2.165627E-16	6.349023E-18
6.910000E+03	2.175123E-16	6.302754E-18
6.920000E+03	2.187085E-16	6.266390E-18
6.930000E+03	2.201423E-16	6.240284E-18
6.940000E+03	2.218076E-16	6.224791E-18
6.950000E+03	2.236901E-16	6.219977E-18
6.960000E+03	2.257787E-16	6.225940E-18
6.970000E+03	2.280546E-16	6.242526E-18
6.980000E+03	2.305026E-16	6.269645E-18
6.990000E+03	2.331034E-16	6.307064E-18
7.000000E+03	2.358342E-16	6.354414E-18
7.010000E+03	2.386751E-16	6.411353E-18
7.020000E+03	2.416130E-16	6.477658E-18
7.030000E+03	2.446249E-16	6.552757E-18
7.040000E+03	2.476992E-16	6.636277E-18
7.050000E+03	2.508210E-16	6.727648E-18
7.060000E+03	2.539853E-16	6.826411E-18
7.070000E+03	2.571838E-16	6.931883E-18
7.080000E+03	2.604181E-16	7.043470E-18
7.090000E+03	2.636890E-16	7.160405E-18
7.100000E+03	2.669960E-16	7.281725E-18
7.110000E+03	2.703461E-16	7.406529E-18
7.120000E+03	2.737396E-16	7.533613E-18
7.130000E+03	2.771789E-16	7.661742E-18
7.140000E+03	2.806683E-16	7.789663E-18
7.150000E+03	2.842018E-16	7.915829E-18
7.160000E+03	2.877737E-16	8.038704E-18
7.170000E+03	2.913776E-16	8.156801E-18
7.180000E+03	2.949915E-16	8.268297E-18
7.190000E+03	2.986035E-16	8.371808E-18
7.200000E+03	3.021857E-16	8.465709E-18
7.210000E+03	3.057095E-16	8.548609E-18
7.220000E+03	3.091419E-16	8.619308E-18
7.230000E+03	3.124461E-16	8.676851E-18
7.240000E+03	3.155784E-16	8.720453E-18
7.250000E+03	3.185049E-16	8.749968E-18
7.260000E+03	3.211786E-16	8.765217E-18
7.270000E+03	3.235565E-16	8.766407E-18
7.280000E+03	3.255969E-16	8.753973E-18
7.290000E+03	3.272610E-16	8.728513E-18
7.300000E+03	3.285145E-16	8.690720E-18
7.310000E+03	3.293286E-16	8.641315E-18
7.320000E+03	3.296816E-16	8.580993E-18
7.330000E+03	3.295641E-16	8.510501E-18
7.340000E+03	3.289708E-16	8.430397E-18
7.350000E+03	3.279050E-16	8.341172E-18
7.360000E+03	3.263780E-16	8.243270E-18
7.370000E+03	3.244131E-16	8.137238E-18
7.380000E+03	3.220357E-16	8.023554E-18
7.390000E+03	3.192810E-16	7.902892E-18
7.400000E+03	3.161840E-16	7.775952E-18
7.410000E+03	3.127828E-16	7.643607E-18
7.420000E+03	3.091258E-16	7.507129E-18
7.430000E+03	3.052499E-16	7.367701E-18
7.440000E+03	3.011926E-16	7.226734E-18
7.450000E+03	2.969951E-16	7.085965E-18
7.460000E+03	2.926937E-16	6.947240E-18
7.470000E+03	2.883275E-16	6.812664E-18
7.480000E+03	2.839302E-16	6.684354E-18
7.490000E+03	2.795336E-16	6.564445E-18
7.500000E+03	2.751714E-16	6.455056E-18
7.510000E+03	2.708748E-16	6.358066E-18
7.520000E+03	2.666656E-16	6.274794E-18
7.530000E+03	2.625774E-16	6.206357E-18
7.540000E+03	2.586271E-16	6.152867E-18
7.550000E+03	2.548370E-16	6.113784E-18
7.560000E+03	2.512298E-16	6.088004E-18
7.570000E+03	2.478155E-16	6.073771E-18
7.580000E+03	2.446142E-16	6.069452E-18
7.590000E+03	2.416298E-16	6.073045E-18
7.600000E+03	2.388761E-16	6.082973E-18
7.610000E+03	2.363508E-16	6.097516E-18
7.620000E+03	2.340586E-16	6.115437E-18
7.630000E+03	2.319979E-16	6.135676E-18
7.640000E+03	2.301646E-16	6.157422E-18
7.650000E+03	2.285519E-16	6.180079E-18
7.660000E+03	2.271506E-16	6.203230E-18
7.670000E+03	2.259457E-16	6.226499E-18
7.680000E+03	2.249294E-16	6.249839E-18
7.690000E+03	2.240788E-16	6.272902E-18
7.700000E+03	2.233815E-16	6.295675E-18
7.710000E+03	2.228107E-16	6.317781E-18
7.720000E+03	2.223499E-16	6.339151E-18
7.730000E+03	2.219722E-16	6.359419E-18
7.740000E+03	2.216529E-16	6.378273E-18
7.750000E+03	2.213696E-16	6.395467E-18
7.760000E+03	2.210939E-16	6.410566E-18
