#wls	flux	fluxerr
1.600000E+03	3.045370E-16	2.069257E-16
1.640000E+03	3.114318E-16	2.084877E-16
1.680000E+03	3.182539E-16	2.097893E-16
1.720000E+03	3.250357E-16	2.108488E-16
1.760000E+03	3.318126E-16	2.116848E-16
1.800000E+03	3.384965E-16	2.122371E-16
1.840000E+03	3.450570E-16	2.124850E-16
1.880000E+03	3.515268E-16	2.124478E-16
1.920000E+03	3.578747E-16	2.121057E-16
1.960000E+03	3.640013E-16	2.114007E-16
2.000000E+03	3.700712E-16	2.104306E-16
2.040000E+03	3.758486E-16	2.090624E-16
2.080000E+03	3.814988E-16	2.073936E-16
2.120000E+03	3.868476E-16	2.053339E-16
2.160000E+03	3.919930E-16	2.029431E-16
2.200000E+03	3.968948E-16	2.002071E-16
2.240000E+03	4.014419E-16	1.970798E-16
2.280000E+03	4.057301E-16	1.936206E-16
2.320000E+03	4.097154E-16	1.898198E-16
2.360000E+03	4.133518E-16	1.856702E-16
2.400000E+03	4.166614E-16	1.811976E-16
2.440000E+03	4.195951E-16	1.763979E-16
2.480000E+03	4.221708E-16	1.712977E-16
2.520000E+03	4.243359E-16	1.658965E-16
2.560000E+03	4.261034E-16	1.602224E-16
2.600000E+03	4.274822E-16	1.543027E-16
2.640000E+03	4.284771E-16	1.481636E-16
2.680000E+03	4.290881E-16	1.418310E-16
2.720000E+03	4.293106E-16	1.353301E-16
2.760000E+03	4.290756E-16	1.286685E-16
2.800000E+03	4.284900E-16	1.219092E-16
2.840000E+03	4.274753E-16	1.150598E-16
2.880000E+03	4.261198E-16	1.081762E-16
2.920000E+03	4.243899E-16	1.012806E-16
2.960000E+03	4.223010E-16	9.440933E-17
3.000000E+03	4.198609E-16	8.759717E-17
3.010000E+03	4.192332E-16	8.591490E-17
3.020000E+03	4.185516E-16	8.423223E-17
3.030000E+03	4.178626E-16	8.255928E-17
3.040000E+03	4.171644E-16	8.089603E-17
3.050000E+03	4.164087E-16	7.923373E-17
3.060000E+03	4.156867E-16	7.759031E-17
3.070000E+03	4.149044E-16	7.594854E-17
3.080000E+03	4.141064E-16	7.431738E-17
3.090000E+03	4.133351E-16	7.270478E-17
3.100000E+03	4.124999E-16	7.109518E-17
3.110000E+03	4.116870E-16	6.950415E-17
3.120000E+03	4.108508E-16	6.792424E-17
3.130000E+03	4.099897E-16	6.635580E-17
3.140000E+03	4.091023E-16	6.479924E-17
3.150000E+03	4.082282E-16	6.326133E-17
3.160000E+03	4.073243E-16	6.173574E-17
3.170000E+03	4.064291E-16	6.022891E-17
3.180000E+03	4.055006E-16	5.873505E-17
3.190000E+03	4.045377E-16	5.725474E-17
3.200000E+03	4.036163E-16	5.579922E-17
3.210000E+03	4.026564E-16	5.435774E-17
3.220000E+03	4.016948E-16	5.293594E-17
3.230000E+03	4.007290E-16	5.153400E-17
3.240000E+03	3.997568E-16	5.015215E-17
3.250000E+03	3.987403E-16	4.878630E-17
3.260000E+03	3.977496E-16	4.744571E-17
3.270000E+03	3.967462E-16	4.612624E-17
3.280000E+03	3.957284E-16	4.482832E-17
3.290000E+03	3.947280E-16	4.355616E-17
3.300000E+03	3.937084E-16	4.230628E-17
3.310000E+03	3.926681E-16	4.107926E-17
3.320000E+03	3.916698E-16	3.988232E-17
3.330000E+03	3.906139E-16	3.870586E-17
3.340000E+03	3.895939E-16	3.756006E-17
3.350000E+03	3.885442E-16	3.643913E-17
3.360000E+03	3.874936E-16	3.534666E-17
3.370000E+03	3.864394E-16	3.428310E-17
3.380000E+03	3.854082E-16	3.325150E-17
3.390000E+03	3.843386E-16	3.224723E-17
3.400000E+03	3.832861E-16	3.127582E-17
3.410000E+03	3.822192E-16	3.033532E-17
3.420000E+03	3.811632E-16	2.942842E-17
3.430000E+03	3.801148E-16	2.855538E-17
3.440000E+03	3.790445E-16	2.771454E-17
3.450000E+03	3.779768E-16	2.690820E-17
3.460000E+03	3.769095E-16	2.613649E-17
3.470000E+03	3.758404E-16	2.539948E-17
3.480000E+03	3.747926E-16	2.469872E-17
3.490000E+03	3.737153E-16	2.403075E-17
3.500000E+03	3.726567E-16	2.339843E-17
3.510000E+03	3.716154E-16	2.280116E-17
3.520000E+03	3.705677E-16	2.223680E-17
3.530000E+03	3.695370E-16	2.170599E-17
3.540000E+03	3.685237E-16	2.120774E-17
3.550000E+03	3.675284E-16	2.074095E-17
3.560000E+03	3.665737E-16	2.030565E-17
3.570000E+03	3.656184E-16	1.989819E-17
3.580000E+03	3.647069E-16	1.951960E-17
3.590000E+03	3.638407E-16	1.916844E-17
3.600000E+03	3.630022E-16	1.884224E-17
3.610000E+03	3.622145E-16	1.854065E-17
3.620000E+03	3.614996E-16	1.826320E-17
3.630000E+03	3.608230E-16	1.800654E-17
3.640000E+03	3.602082E-16	1.777027E-17
3.650000E+03	3.596780E-16	1.755395E-17
3.660000E+03	3.592369E-16	1.735620E-17
3.670000E+03	3.588723E-16	1.717486E-17
3.680000E+03	3.586077E-16	1.700957E-17
3.690000E+03	3.584488E-16	1.685911E-17
3.700000E+03	3.584016E-16	1.672234E-17
3.710000E+03	3.584887E-16	1.659892E-17
3.720000E+03	3.586837E-16	1.648632E-17
3.730000E+03	3.590251E-16	1.638504E-17
3.740000E+03	3.595184E-16	1.629413E-17
3.750000E+03	3.601686E-16	1.621266E-17
3.760000E+03	3.609654E-16	1.613912E-17
3.770000E+03	3.619431E-16	1.607403E-17
3.780000E+03	3.630753E-16	1.601530E-17
3.790000E+03	3.643934E-16	1.596352E-17
3.800000E+03	3.658840E-16	1.591735E-17
3.810000E+03	3.675609E-16	1.587678E-17
3.820000E+03	3.694085E-16	1.584062E-17
3.830000E+03	3.714371E-16	1.580893E-17
3.840000E+03	3.736418E-16	1.578123E-17
3.850000E+03	3.760024E-16	1.575654E-17
3.860000E+03	3.785237E-16	1.573507E-17
3.870000E+03	3.812082E-16	1.571702E-17
3.880000E+03	3.840174E-16	1.570105E-17
3.890000E+03	3.869628E-16	1.568796E-17
3.900000E+03	3.900027E-16	1.567647E-17
3.910000E+03	3.931446E-16	1.566739E-17
3.920000E+03	3.963563E-16	1.565993E-17
3.930000E+03	3.996171E-16	1.565383E-17
3.940000E+03	4.029171E-16	1.564920E-17
3.950000E+03	4.062089E-16	1.564471E-17
3.960000E+03	4.094929E-16	1.564082E-17
3.970000E+03	4.127332E-16	1.563652E-17
3.980000E+03	4.159055E-16	1.563122E-17
3.990000E+03	4.189862E-16	1.562428E-17
4.000000E+03	4.219407E-16	1.561461E-17
4.010000E+03	4.247695E-16	1.560239E-17
4.020000E+03	4.274290E-16	1.558613E-17
4.030000E+03	4.299110E-16	1.556568E-17
4.040000E+03	4.321873E-16	1.554012E-17
4.050000E+03	4.342429E-16	1.550907E-17
4.060000E+03	4.360756E-16	1.547263E-17
4.070000E+03	4.376545E-16	1.542993E-17
4.080000E+03	4.389732E-16	1.538097E-17
4.090000E+03	4.400384E-16	1.532629E-17
4.100000E+03	4.408397E-16	1.526579E-17
4.110000E+03	4.413803E-16	1.519984E-17
4.120000E+03	4.416570E-16	1.512857E-17
4.130000E+03	4.416705E-16	1.505218E-17
4.140000E+03	4.414532E-16	1.497185E-17
4.150000E+03	4.410024E-16	1.488747E-17
4.160000E+03	4.403280E-16	1.479928E-17
4.170000E+03	4.394695E-16	1.470838E-17
4.180000E+03	4.384233E-16	1.461435E-17
4.190000E+03	4.372148E-16	1.451768E-17
4.200000E+03	4.358785E-16	1.441911E-17
4.210000E+03	4.344243E-16	1.431854E-17
4.220000E+03	4.328874E-16	1.421675E-17
4.230000E+03	4.312786E-16	1.411374E-17
4.240000E+03	4.296246E-16	1.401013E-17
4.250000E+03	4.279435E-16	1.390636E-17
4.260000E+03	4.262605E-16	1.380322E-17
4.270000E+03	4.245991E-16	1.370158E-17
4.280000E+03	4.229670E-16	1.360194E-17
4.290000E+03	4.213926E-16	1.350560E-17
4.300000E+03	4.198882E-16	1.341346E-17
4.310000E+03	4.184580E-16	1.332624E-17
4.320000E+03	4.171260E-16	1.324537E-17
4.330000E+03	4.159005E-16	1.317175E-17
4.340000E+03	4.147960E-16	1.310645E-17
4.350000E+03	4.138122E-16	1.304998E-17
4.360000E+03	4.129678E-16	1.300326E-17
4.370000E+03	4.122674E-16	1.296659E-17
4.380000E+03	4.117146E-16	1.293999E-17
4.390000E+03	4.113243E-16	1.292362E-17
4.400000E+03	4.110920E-16	1.291672E-17
4.410000E+03	4.110238E-16	1.291870E-17
4.420000E+03	4.111302E-16	1.292889E-17
4.430000E+03	4.114077E-16	1.294608E-17
4.440000E+03	4.118512E-16	1.296891E-17
4.450000E+03	4.124645E-16	1.299630E-17
4.460000E+03	4.132374E-16	1.302676E-17
4.470000E+03	4.141573E-16	1.305882E-17
4.480000E+03	4.152140E-16	1.309118E-17
4.490000E+03	4.163947E-16	1.312262E-17
4.500000E+03	4.176724E-16	1.315163E-17
4.510000E+03	4.190338E-16	1.317727E-17
4.520000E+03	4.204518E-16	1.319837E-17
4.530000E+03	4.219024E-16	1.321396E-17
4.540000E+03	4.233537E-16	1.322303E-17
4.550000E+03	4.247776E-16	1.322479E-17
4.560000E+03	4.261502E-16	1.321875E-17
4.570000E+03	4.274304E-16	1.320400E-17
4.580000E+03	4.285881E-16	1.318012E-17
4.590000E+03	4.295993E-16	1.314698E-17
4.600000E+03	4.304305E-16	1.310430E-17
4.610000E+03	4.310562E-16	1.305215E-17
4.620000E+03	4.314587E-16	1.299098E-17
4.630000E+03	4.316087E-16	1.292099E-17
4.640000E+03	4.315021E-16	1.284324E-17
4.650000E+03	4.311288E-16	1.275874E-17
4.660000E+03	4.304793E-16	1.266857E-17
4.670000E+03	4.295546E-16	1.257421E-17
4.680000E+03	4.283708E-16	1.247760E-17
4.690000E+03	4.269344E-16	1.238037E-17
4.700000E+03	4.252618E-16	1.228440E-17
4.710000E+03	4.233786E-16	1.219170E-17
4.720000E+03	4.213141E-16	1.210418E-17
4.730000E+03	4.190911E-16	1.202332E-17
4.740000E+03	4.167443E-16	1.195065E-17
4.750000E+03	4.143007E-16	1.188706E-17
4.760000E+03	4.117974E-16	1.183338E-17
4.770000E+03	4.092668E-16	1.178988E-17
4.780000E+03	4.067410E-16	1.175646E-17
4.790000E+03	4.042511E-16	1.173277E-17
4.800000E+03	4.018265E-16	1.171823E-17
4.810000E+03	3.994950E-16	1.171211E-17
4.820000E+03	3.972776E-16	1.171348E-17
4.830000E+03	3.951967E-16	1.172151E-17
4.840000E+03	3.932765E-16	1.173548E-17
4.850000E+03	3.915329E-16	1.175458E-17
4.860000E+03	3.899743E-16	1.177791E-17
4.870000E+03	3.886178E-16	1.180500E-17
4.880000E+03	3.874597E-16	1.183488E-17
4.890000E+03	3.865048E-16	1.186703E-17
4.900000E+03	3.857539E-16	1.190094E-17
4.910000E+03	3.851992E-16	1.193601E-17
4.920000E+03	3.848253E-16	1.197153E-17
4.930000E+03	3.846253E-16	1.200718E-17
4.940000E+03	3.845771E-16	1.204230E-17
4.950000E+03	3.846637E-16	1.207648E-17
4.960000E+03	3.848622E-16	1.210920E-17
4.970000E+03	3.851484E-16	1.213997E-17
4.980000E+03	3.855016E-16	1.216844E-17
4.990000E+03	3.858973E-16	1.219415E-17
5.000000E+03	3.863123E-16	1.221663E-17
5.010000E+03	3.867294E-16	1.223560E-17
5.020000E+03	3.871258E-16	1.225049E-17
5.030000E+03	3.874943E-16	1.226115E-17
5.040000E+03	3.878188E-16	1.226708E-17
5.050000E+03	3.880914E-16	1.226790E-17
5.060000E+03	3.883113E-16	1.226342E-17
5.070000E+03	3.884777E-16	1.225331E-17
5.080000E+03	3.885924E-16	1.223732E-17
5.090000E+03	3.886640E-16	1.221536E-17
5.100000E+03	3.886952E-16	1.218711E-17
5.110000E+03	3.886940E-16	1.215245E-17
5.120000E+03	3.886731E-16	1.211142E-17
5.130000E+03	3.886459E-16	1.206412E-17
5.140000E+03	3.886134E-16	1.201028E-17
5.150000E+03	3.885882E-16	1.195007E-17
5.160000E+03	3.885819E-16	1.188367E-17
5.170000E+03	3.885972E-16	1.181106E-17
5.180000E+03	3.886433E-16	1.173249E-17
5.190000E+03	3.887200E-16	1.164802E-17
5.200000E+03	3.888337E-16	1.155798E-17
5.210000E+03	3.889810E-16	1.146257E-17
5.220000E+03	3.891691E-16	1.136244E-17
5.230000E+03	3.893876E-16	1.125788E-17
5.240000E+03	3.896366E-16	1.114970E-17
5.250000E+03	3.899149E-16	1.103888E-17
5.260000E+03	3.902080E-16	1.092625E-17
5.270000E+03	3.905162E-16	1.081336E-17
5.280000E+03	3.908270E-16	1.070164E-17
5.290000E+03	3.911346E-16	1.059298E-17
5.300000E+03	3.914289E-16	1.048941E-17
5.310000E+03	3.916952E-16	1.039308E-17
5.320000E+03	3.919260E-16	1.030650E-17
5.330000E+03	3.921098E-16	1.023222E-17
5.340000E+03	3.922385E-16	1.017285E-17
5.350000E+03	3.922997E-16	1.013078E-17
5.360000E+03	3.922766E-16	1.010793E-17
5.370000E+03	3.921593E-16	1.010565E-17
5.380000E+03	3.919353E-16	1.012385E-17
5.390000E+03	3.915800E-16	1.016016E-17
5.400000E+03	3.910748E-16	1.021105E-17
5.410000E+03	3.904008E-16	1.027241E-17
5.420000E+03	3.895318E-16	1.033979E-17
5.430000E+03	3.884510E-16	1.040911E-17
5.440000E+03	3.871393E-16	1.047653E-17
5.450000E+03	3.855800E-16	1.053865E-17
5.460000E+03	3.837667E-16	1.059278E-17
5.470000E+03	3.816801E-16	1.063640E-17
5.480000E+03	3.793161E-16	1.066785E-17
5.490000E+03	3.766738E-16	1.068601E-17
5.500000E+03	3.737447E-16	1.068997E-17
5.510000E+03	3.705394E-16	1.067970E-17
5.520000E+03	3.670612E-16	1.065527E-17
5.530000E+03	3.633214E-16	1.061723E-17
5.540000E+03	3.593354E-16	1.056643E-17
5.550000E+03	3.551225E-16	1.050398E-17
5.560000E+03	3.507024E-16	1.043111E-17
5.570000E+03	3.461016E-16	1.034931E-17
5.580000E+03	3.413500E-16	1.026017E-17
5.590000E+03	3.364797E-16	1.016541E-17
5.600000E+03	3.315216E-16	1.006666E-17
5.610000E+03	3.265148E-16	9.965743E-18
5.620000E+03	3.214894E-16	9.864163E-18
5.630000E+03	3.164855E-16	9.763625E-18
5.640000E+03	3.115368E-16	9.665519E-18
5.650000E+03	3.066790E-16	9.571181E-18
5.660000E+03	3.019469E-16	9.481768E-18
5.670000E+03	2.973731E-16	9.398247E-18
5.680000E+03	2.929852E-16	9.321294E-18
5.690000E+03	2.888108E-16	9.251487E-18
5.700000E+03	2.848777E-16	9.189305E-18
5.710000E+03	2.812014E-16	9.134777E-18
5.720000E+03	2.778052E-16	9.088131E-18
5.730000E+03	2.746975E-16	9.049079E-18
5.740000E+03	2.718883E-16	9.017372E-18
5.750000E+03	2.693864E-16	8.992720E-18
5.760000E+03	2.671914E-16	8.974540E-18
5.770000E+03	2.653043E-16	8.962322E-18
5.780000E+03	2.637150E-16	8.955209E-18
5.790000E+03	2.624204E-16	8.952621E-18
5.800000E+03	2.614069E-16	8.953660E-18
5.810000E+03	2.606579E-16	8.957387E-18
5.820000E+03	2.601600E-16	8.963008E-18
5.830000E+03	2.598953E-16	8.969628E-18
5.840000E+03	2.598443E-16	8.976352E-18
5.850000E+03	2.599836E-16	8.982211E-18
5.860000E+03	2.602946E-16	8.986449E-18
5.870000E+03	2.607504E-16	8.988097E-18
5.880000E+03	2.613368E-16	8.986707E-18
5.890000E+03	2.620250E-16	8.981399E-18
5.900000E+03	2.627993E-16	8.971854E-18
5.910000E+03	2.636352E-16	8.957539E-18
5.920000E+03	2.645197E-16	8.938427E-18
5.930000E+03	2.654337E-16	8.914384E-18
5.940000E+03	2.663601E-16	8.885434E-18
5.950000E+03	2.672915E-16	8.852018E-18
5.960000E+03	2.682124E-16	8.814362E-18
5.970000E+03	2.691174E-16	8.773070E-18
5.980000E+03	2.700009E-16	8.728749E-18
5.990000E+03	2.708597E-16	8.682065E-18
6.000000E+03	2.716929E-16	8.633712E-18
6.010000E+03	2.725019E-16	8.584385E-18
6.020000E+03	2.732905E-16	8.534753E-18
6.030000E+03	2.740642E-16	8.485438E-18
6.040000E+03	2.748309E-16	8.437005E-18
6.050000E+03	2.756027E-16	8.390042E-18
6.060000E+03	2.763877E-16	8.344907E-18
6.070000E+03	2.772006E-16	8.302075E-18
6.080000E+03	2.780545E-16	8.261896E-18
6.090000E+03	2.789627E-16	8.224694E-18
6.100000E+03	2.799414E-16	8.190870E-18
6.110000E+03	2.809982E-16	8.160589E-18
6.120000E+03	2.821512E-16	8.134371E-18
6.130000E+03	2.834087E-16	8.112534E-18
6.140000E+03	2.847747E-16	8.095371E-18
6.150000E+03	2.862624E-16	8.083561E-18
6.160000E+03	2.878686E-16	8.077437E-18
6.170000E+03	2.895987E-16	8.077709E-18
6.180000E+03	2.914492E-16	8.084960E-18
6.190000E+03	2.934134E-16	8.099782E-18
6.200000E+03	2.954931E-16	8.123065E-18
6.210000E+03	2.976748E-16	8.155295E-18
6.220000E+03	2.999477E-16	8.196981E-18
6.230000E+03	3.022976E-16	8.248421E-18
6.240000E+03	3.047018E-16	8.309448E-18
6.250000E+03	3.071410E-16	8.379644E-18
6.260000E+03	3.095915E-16	8.458077E-18
6.270000E+03	3.120273E-16	8.543470E-18
6.280000E+03	3.144211E-16	8.634280E-18
6.290000E+03	3.167375E-16	8.728598E-18
6.300000E+03	3.189565E-16	8.824833E-18
6.310000E+03	3.210385E-16	8.920819E-18
6.320000E+03	3.229572E-16	9.014758E-18
6.330000E+03	3.246840E-16	9.104844E-18
6.340000E+03	3.261918E-16	9.189399E-18
6.350000E+03	3.274523E-16	9.266833E-18
6.360000E+03	3.284498E-16	9.336060E-18
6.370000E+03	3.291582E-16	9.395875E-18
6.380000E+03	3.295649E-16	9.445651E-18
6.390000E+03	3.296575E-16	9.484972E-18
6.400000E+03	3.294272E-16	9.513741E-18
6.410000E+03	3.288729E-16	9.532273E-18
6.420000E+03	3.279868E-16	9.540882E-18
6.430000E+03	3.267788E-16	9.540538E-18
6.440000E+03	3.252523E-16	9.532130E-18
6.450000E+03	3.234213E-16	9.516909E-18
6.460000E+03	3.212962E-16	9.496024E-18
6.470000E+03	3.189004E-16	9.470955E-18
6.480000E+03	3.162470E-16	9.442750E-18
6.490000E+03	3.133576E-16	9.412562E-18
6.500000E+03	3.102625E-16	9.381597E-18
6.510000E+03	3.069830E-16	9.350573E-18
6.520000E+03	3.035446E-16	9.320095E-18
6.530000E+03	2.999727E-16	9.290532E-18
6.540000E+03	2.962923E-16	9.262024E-18
6.550000E+03	2.925307E-16	9.234581E-18
6.560000E+03	2.887072E-16	9.207812E-18
6.570000E+03	2.848489E-16	9.181446E-18
6.580000E+03	2.809715E-16	9.154775E-18
6.590000E+03	2.770917E-16	9.127095E-18
6.600000E+03	2.732246E-16	9.097653E-18
6.610000E+03	2.693891E-16	9.065897E-18
6.620000E+03	2.655881E-16	9.030822E-18
6.630000E+03	2.618406E-16	8.992106E-18
6.640000E+03	2.581533E-16	8.949143E-18
6.650000E+03	2.545350E-16	8.901562E-18
6.660000E+03	2.509943E-16	8.849129E-18
6.670000E+03	2.475448E-16	8.791946E-18
6.680000E+03	2.441864E-16	8.729750E-18
6.690000E+03	2.409354E-16	8.662971E-18
6.700000E+03	2.377971E-16	8.591739E-18
6.710000E+03	2.347794E-16	8.516345E-18
6.720000E+03	2.318904E-16	8.437133E-18
6.730000E+03	2.291404E-16	8.354575E-18
6.740000E+03	2.265369E-16	8.269078E-18
6.750000E+03	2.240849E-16	8.180983E-18
6.760000E+03	2.217966E-16	8.090941E-18
6.770000E+03	2.196764E-16	7.999361E-18
6.780000E+03	2.177310E-16	7.906794E-18
6.790000E+03	2.159669E-16	7.813842E-18
6.800000E+03	2.143952E-16	7.721344E-18
6.810000E+03	2.130170E-16	7.629836E-18
6.820000E+03	2.118405E-16	7.540177E-18
6.830000E+03	2.108708E-16	7.453179E-18
6.840000E+03	2.101130E-16	7.369689E-18
6.850000E+03	2.095714E-16	7.290569E-18
6.860000E+03	2.092522E-16	7.216763E-18
6.870000E+03	2.091559E-16	7.149022E-18
6.880000E+03	2.092868E-16	7.088228E-18
6.890000E+03	2.096434E-16	7.035030E-18
6.900000E+03	2.102278E-16	6.990172E-18
6.910000E+03	2.110355E-16	6.954136E-18
6.920000E+03	2.120682E-16	6.927556E-18
6.930000E+03	2.133158E-16	6.910625E-18
6.940000E+03	2.147742E-16	6.903681E-18
6.950000E+03	2.164376E-16	6.906960E-18
6.960000E+03	2.182910E-16	6.920350E-18
6.970000E+03	2.203257E-16	6.943902E-18
6.980000E+03	2.225291E-16	6.977506E-18
6.990000E+03	2.248881E-16	7.020979E-18
7.000000E+03	2.273888E-16	7.074079E-18
7.010000E+03	2.300173E-16	7.136506E-18
7.020000E+03	2.327631E-16	7.207999E-18
7.030000E+03	2.356079E-16	7.287982E-18
7.040000E+03	2.385431E-16	7.376096E-18
7.050000E+03	2.415585E-16	7.471842E-18
7.060000E+03	2.446459E-16	7.574664E-18
7.070000E+03	2.477984E-16	7.683945E-18
7.080000E+03	2.510108E-16	7.798994E-18
7.090000E+03	2.542759E-16	7.918943E-18
7.100000E+03	2.575933E-16	8.043032E-18
7.110000E+03	2.609602E-16	8.170310E-18
7.120000E+03	2.643734E-16	8.299735E-18
7.130000E+03	2.678252E-16	8.430064E-18
7.140000E+03	2.713100E-16	8.560066E-18
7.150000E+03	2.748235E-16	8.688544E-18
7.160000E+03	2.783556E-16	8.814136E-18
7.170000E+03	2.818863E-16	8.935213E-18
7.180000E+03	2.854065E-16	9.050582E-18
7.190000E+03	2.888931E-16	9.158733E-18
7.200000E+03	2.923235E-16	9.258322E-18
7.210000E+03	2.956680E-16	9.347980E-18
7.220000E+03	2.989053E-16	9.426824E-18
7.230000E+03	3.019969E-16	9.493654E-18
7.240000E+03	3.049135E-16	9.547819E-18
7.250000E+03	3.076209E-16	9.588749E-18
7.260000E+03	3.100806E-16	9.615956E-18
7.270000E+03	3.122625E-16	9.629394E-18
7.280000E+03	3.141344E-16	9.629077E-18
7.290000E+03	3.156621E-16	9.615045E-18
7.300000E+03	3.168194E-16	9.587583E-18
7.310000E+03	3.175885E-16	9.547199E-18
7.320000E+03	3.179531E-16	9.494336E-18
7.330000E+03	3.179026E-16	9.429492E-18
7.340000E+03	3.174286E-16	9.353075E-18
7.350000E+03	3.165458E-16	9.266025E-18
7.360000E+03	3.152543E-16	9.168713E-18
7.370000E+03	3.135726E-16	9.061941E-18
7.380000E+03	3.115245E-16	8.946587E-18
7.390000E+03	3.091382E-16	8.823629E-18
7.400000E+03	3.064457E-16	8.694160E-18
7.410000E+03	3.034779E-16	8.559295E-18
7.420000E+03	3.002719E-16	8.420405E-18
7.430000E+03	2.968618E-16	8.278900E-18
7.440000E+03	2.932828E-16	8.136334E-18
7.450000E+03	2.895663E-16	7.994284E-18
7.460000E+03	2.857395E-16	7.854334E-18
7.470000E+03	2.818368E-16	7.718348E-18
7.480000E+03	2.778840E-16	7.587999E-18
7.490000E+03	2.739166E-16	7.465212E-18
7.500000E+03	2.699539E-16	7.351376E-18
7.510000E+03	2.660279E-16	7.248066E-18
7.520000E+03	2.621648E-16	7.156442E-18
7.530000E+03	2.583820E-16	7.077084E-18
7.540000E+03	2.547084E-16	7.010478E-18
7.550000E+03	2.511578E-16	6.956171E-18
7.560000E+03	2.477516E-16	6.913537E-18
7.570000E+03	2.445024E-16	6.881463E-18
7.580000E+03	2.414264E-16	6.858842E-18
7.590000E+03	2.385340E-16	6.844399E-18
7.600000E+03	2.358292E-16	6.836779E-18
7.610000E+03	2.333171E-16	6.834792E-18
7.620000E+03	2.310027E-16	6.837453E-18
7.630000E+03	2.288826E-16	6.843730E-18
7.640000E+03	2.269567E-16	6.852916E-18
7.650000E+03	2.252198E-16	6.864342E-18
7.660000E+03	2.236612E-16	6.877361E-18
7.670000E+03	2.222739E-16	6.891599E-18
7.680000E+03	2.210492E-16	6.906750E-18
7.690000E+03	2.199671E-16	6.922266E-18
7.700000E+03	2.190152E-16	6.937900E-18
7.710000E+03	2.181762E-16	6.953317E-18
7.720000E+03	2.174316E-16	6.968171E-18
7.730000E+03	2.167618E-16	6.982108E-18
7.740000E+03	2.161496E-16	6.994853E-18
7.750000E+03	2.155713E-16	7.005933E-18
7.760000E+03	2.150092E-16	7.015053E-18
