#wls	flux	fluxerr
1.600000E+03	2.945594E-16	2.005914E-16
1.640000E+03	3.013081E-16	2.021663E-16
1.680000E+03	3.079927E-16	2.034909E-16
1.720000E+03	3.146446E-16	2.045821E-16
1.760000E+03	3.212978E-16	2.054576E-16
1.800000E+03	3.278072E-16	2.060208E-16
1.840000E+03	3.343246E-16	2.063652E-16
1.880000E+03	3.406377E-16	2.063571E-16
1.920000E+03	3.469004E-16	2.060902E-16
1.960000E+03	3.530193E-16	2.055074E-16
2.000000E+03	3.590248E-16	2.046270E-16
2.040000E+03	3.647527E-16	2.033577E-16
2.080000E+03	3.703610E-16	2.017924E-16
2.120000E+03	3.757476E-16	1.998783E-16
2.160000E+03	3.808733E-16	1.976009E-16
2.200000E+03	3.858306E-16	1.950150E-16
2.240000E+03	3.904446E-16	1.920398E-16
2.280000E+03	3.947387E-16	1.886996E-16
2.320000E+03	3.988019E-16	1.850484E-16
2.360000E+03	4.025208E-16	1.810457E-16
2.400000E+03	4.059142E-16	1.767153E-16
2.440000E+03	4.089322E-16	1.720526E-16
2.480000E+03	4.115892E-16	1.670828E-16
2.520000E+03	4.138961E-16	1.618305E-16
2.560000E+03	4.157967E-16	1.562950E-16
2.600000E+03	4.172966E-16	1.505032E-16
2.640000E+03	4.184588E-16	1.445025E-16
2.680000E+03	4.191569E-16	1.382753E-16
2.720000E+03	4.194466E-16	1.318706E-16
2.760000E+03	4.193742E-16	1.253326E-16
2.800000E+03	4.188648E-16	1.186696E-16
2.840000E+03	4.179545E-16	1.119258E-16
2.880000E+03	4.166702E-16	1.051423E-16
2.920000E+03	4.149796E-16	9.834600E-17
2.960000E+03	4.128981E-16	9.157773E-17
3.000000E+03	4.104815E-16	8.488704E-17
3.010000E+03	4.098646E-16	8.323882E-17
3.020000E+03	4.091468E-16	8.158210E-17
3.030000E+03	4.084653E-16	7.994520E-17
3.040000E+03	4.077719E-16	7.831883E-17
3.050000E+03	4.070202E-16	7.669476E-17
3.060000E+03	4.062539E-16	7.508208E-17
3.070000E+03	4.054713E-16	7.348100E-17
3.080000E+03	4.046705E-16	7.189180E-17
3.090000E+03	4.038925E-16	7.032215E-17
3.100000E+03	4.030504E-16	6.875740E-17
3.110000E+03	4.021855E-16	6.720556E-17
3.120000E+03	4.013373E-16	6.567371E-17
3.130000E+03	4.004625E-16	6.415519E-17
3.140000E+03	3.995597E-16	6.265047E-17
3.150000E+03	3.986671E-16	6.116611E-17
3.160000E+03	3.977432E-16	5.969622E-17
3.170000E+03	3.967867E-16	5.824139E-17
3.180000E+03	3.958345E-16	5.680767E-17
3.190000E+03	3.948842E-16	5.539510E-17
3.200000E+03	3.938964E-16	5.399877E-17
3.210000E+03	3.929066E-16	5.262424E-17
3.220000E+03	3.919126E-16	5.127171E-17
3.230000E+03	3.908769E-16	4.993690E-17
3.240000E+03	3.898684E-16	4.862927E-17
3.250000E+03	3.888151E-16	4.734028E-17
3.260000E+03	3.877841E-16	4.607881E-17
3.270000E+03	3.867386E-16	4.484089E-17
3.280000E+03	3.856770E-16	4.362694E-17
3.290000E+03	3.845976E-16	4.243741E-17
3.300000E+03	3.835304E-16	4.127619E-17
3.310000E+03	3.824413E-16	4.014008E-17
3.320000E+03	3.813596E-16	3.903274E-17
3.330000E+03	3.802522E-16	3.795129E-17
3.340000E+03	3.791477E-16	3.689919E-17
3.350000E+03	3.780436E-16	3.587663E-17
3.360000E+03	3.769085E-16	3.488114E-17
3.370000E+03	3.757985E-16	3.391841E-17
3.380000E+03	3.746821E-16	3.298587E-17
3.390000E+03	3.735572E-16	3.208373E-17
3.400000E+03	3.724221E-16	3.121220E-17
3.410000E+03	3.713019E-16	3.037363E-17
3.420000E+03	3.701676E-16	2.956581E-17
3.430000E+03	3.690437E-16	2.879083E-17
3.440000E+03	3.679030E-16	2.804657E-17
3.450000E+03	3.667696E-16	2.733487E-17
3.460000E+03	3.656419E-16	2.665541E-17
3.470000E+03	3.645187E-16	2.600782E-17
3.480000E+03	3.634228E-16	2.539327E-17
3.490000E+03	3.623062E-16	2.480789E-17
3.500000E+03	3.612155E-16	2.425431E-17
3.510000E+03	3.601275E-16	2.373019E-17
3.520000E+03	3.590649E-16	2.323617E-17
3.530000E+03	3.580278E-16	2.277129E-17
3.540000E+03	3.569955E-16	2.233316E-17
3.550000E+03	3.560116E-16	2.192339E-17
3.560000E+03	3.550356E-16	2.153827E-17
3.570000E+03	3.541105E-16	2.117914E-17
3.580000E+03	3.532177E-16	2.084358E-17
3.590000E+03	3.523793E-16	2.053154E-17
3.600000E+03	3.515784E-16	2.024066E-17
3.610000E+03	3.508371E-16	1.997087E-17
3.620000E+03	3.501582E-16	1.972095E-17
3.630000E+03	3.495451E-16	1.948974E-17
3.640000E+03	3.490014E-16	1.927611E-17
3.650000E+03	3.485310E-16	1.907897E-17
3.660000E+03	3.481552E-16	1.889823E-17
3.670000E+03	3.478609E-16	1.873194E-17
3.680000E+03	3.476691E-16	1.858005E-17
3.690000E+03	3.475838E-16	1.844162E-17
3.700000E+03	3.476090E-16	1.831578E-17
3.710000E+03	3.477487E-16	1.820169E-17
3.720000E+03	3.480068E-16	1.809860E-17
3.730000E+03	3.484022E-16	1.800653E-17
3.740000E+03	3.489227E-16	1.792400E-17
3.750000E+03	3.495860E-16	1.785110E-17
3.760000E+03	3.503796E-16	1.778645E-17
3.770000E+03	3.513338E-16	1.773090E-17
3.780000E+03	3.524207E-16	1.768242E-17
3.790000E+03	3.536684E-16	1.764186E-17
3.800000E+03	3.550616E-16	1.760798E-17
3.810000E+03	3.565983E-16	1.758027E-17
3.820000E+03	3.582887E-16	1.755889E-17
3.830000E+03	3.601149E-16	1.754268E-17
3.840000E+03	3.620973E-16	1.753245E-17
3.850000E+03	3.642027E-16	1.752645E-17
3.860000E+03	3.664230E-16	1.752424E-17
3.870000E+03	3.687737E-16	1.752656E-17
3.880000E+03	3.712310E-16	1.753232E-17
3.890000E+03	3.737822E-16	1.754106E-17
3.900000E+03	3.764259E-16	1.755283E-17
3.910000E+03	3.791227E-16	1.756599E-17
3.920000E+03	3.818807E-16	1.758112E-17
3.930000E+03	3.846709E-16	1.759711E-17
3.940000E+03	3.874871E-16	1.761390E-17
3.950000E+03	3.902989E-16	1.763033E-17
3.960000E+03	3.930877E-16	1.764577E-17
3.970000E+03	3.958453E-16	1.766005E-17
3.980000E+03	3.985415E-16	1.767198E-17
3.990000E+03	4.011681E-16	1.768138E-17
4.000000E+03	4.036958E-16	1.768707E-17
4.010000E+03	4.061070E-16	1.768840E-17
4.020000E+03	4.083851E-16	1.768473E-17
4.030000E+03	4.105149E-16	1.767550E-17
4.040000E+03	4.124928E-16	1.766062E-17
4.050000E+03	4.142863E-16	1.763874E-17
4.060000E+03	4.158956E-16	1.760994E-17
4.070000E+03	4.173030E-16	1.757352E-17
4.080000E+03	4.185130E-16	1.752971E-17
4.090000E+03	4.195127E-16	1.747802E-17
4.100000E+03	4.203018E-16	1.741846E-17
4.110000E+03	4.208823E-16	1.735115E-17
4.120000E+03	4.212589E-16	1.727629E-17
4.130000E+03	4.214205E-16	1.719343E-17
4.140000E+03	4.213950E-16	1.710369E-17
4.150000E+03	4.211764E-16	1.700682E-17
4.160000E+03	4.207789E-16	1.690336E-17
4.170000E+03	4.202185E-16	1.679394E-17
4.180000E+03	4.195128E-16	1.667922E-17
4.190000E+03	4.186724E-16	1.655963E-17
4.200000E+03	4.177175E-16	1.643599E-17
4.210000E+03	4.166611E-16	1.630889E-17
4.220000E+03	4.155250E-16	1.617930E-17
4.230000E+03	4.143234E-16	1.604795E-17
4.240000E+03	4.130712E-16	1.591570E-17
4.250000E+03	4.117980E-16	1.578401E-17
4.260000E+03	4.105109E-16	1.565359E-17
4.270000E+03	4.092314E-16	1.552576E-17
4.280000E+03	4.079800E-16	1.540187E-17
4.290000E+03	4.067628E-16	1.528279E-17
4.300000E+03	4.055990E-16	1.516992E-17
4.310000E+03	4.045000E-16	1.506439E-17
4.320000E+03	4.034764E-16	1.496726E-17
4.330000E+03	4.025441E-16	1.487976E-17
4.340000E+03	4.017050E-16	1.480251E-17
4.350000E+03	4.009727E-16	1.473644E-17
4.360000E+03	4.003531E-16	1.468205E-17
4.370000E+03	3.998507E-16	1.463961E-17
4.380000E+03	3.994687E-16	1.460912E-17
4.390000E+03	3.992087E-16	1.459033E-17
4.400000E+03	3.990765E-16	1.458293E-17
4.410000E+03	3.990590E-16	1.458570E-17
4.420000E+03	3.991642E-16	1.459805E-17
4.430000E+03	3.993869E-16	1.461874E-17
4.440000E+03	3.997199E-16	1.464640E-17
4.450000E+03	4.001542E-16	1.467950E-17
4.460000E+03	4.006845E-16	1.471664E-17
4.470000E+03	4.013030E-16	1.475635E-17
4.480000E+03	4.019949E-16	1.479695E-17
4.490000E+03	4.027434E-16	1.483676E-17
4.500000E+03	4.035352E-16	1.487434E-17
4.510000E+03	4.043606E-16	1.490851E-17
4.520000E+03	4.051978E-16	1.493777E-17
4.530000E+03	4.060289E-16	1.496091E-17
4.540000E+03	4.068299E-16	1.497667E-17
4.550000E+03	4.075913E-16	1.498447E-17
4.560000E+03	4.082828E-16	1.498315E-17
4.570000E+03	4.088896E-16	1.497226E-17
4.580000E+03	4.093918E-16	1.495138E-17
4.590000E+03	4.097708E-16	1.492026E-17
4.600000E+03	4.100039E-16	1.487871E-17
4.610000E+03	4.100802E-16	1.482710E-17
4.620000E+03	4.099859E-16	1.476586E-17
4.630000E+03	4.097047E-16	1.469549E-17
4.640000E+03	4.092329E-16	1.461706E-17
4.650000E+03	4.085696E-16	1.453183E-17
4.660000E+03	4.077027E-16	1.444077E-17
4.670000E+03	4.066424E-16	1.434567E-17
4.680000E+03	4.053879E-16	1.424795E-17
4.690000E+03	4.039557E-16	1.414959E-17
4.700000E+03	4.023604E-16	1.405244E-17
4.710000E+03	4.006098E-16	1.395799E-17
4.720000E+03	3.987329E-16	1.386825E-17
4.730000E+03	3.967509E-16	1.378478E-17
4.740000E+03	3.946957E-16	1.370924E-17
4.750000E+03	3.925911E-16	1.364270E-17
4.760000E+03	3.904833E-16	1.358673E-17
4.770000E+03	3.883963E-16	1.354178E-17
4.780000E+03	3.863713E-16	1.350863E-17
4.790000E+03	3.844141E-16	1.348663E-17
4.800000E+03	3.825347E-16	1.347508E-17
4.810000E+03	3.807383E-16	1.347302E-17
4.820000E+03	3.790209E-16	1.347905E-17
4.830000E+03	3.774021E-16	1.349263E-17
4.840000E+03	3.758793E-16	1.351241E-17
4.850000E+03	3.744604E-16	1.353745E-17
4.860000E+03	3.731552E-16	1.356700E-17
4.870000E+03	3.719710E-16	1.360027E-17
4.880000E+03	3.709049E-16	1.363623E-17
4.890000E+03	3.699672E-16	1.367443E-17
4.900000E+03	3.691503E-16	1.371389E-17
4.910000E+03	3.684557E-16	1.375405E-17
4.920000E+03	3.678791E-16	1.379427E-17
4.930000E+03	3.674176E-16	1.383405E-17
4.940000E+03	3.670590E-16	1.387259E-17
4.950000E+03	3.668013E-16	1.390959E-17
4.960000E+03	3.666294E-16	1.394428E-17
4.970000E+03	3.665391E-16	1.397636E-17
4.980000E+03	3.665102E-16	1.400496E-17
4.990000E+03	3.665416E-16	1.402994E-17
5.000000E+03	3.666133E-16	1.405044E-17
5.010000E+03	3.667210E-16	1.406621E-17
5.020000E+03	3.668538E-16	1.407672E-17
5.030000E+03	3.670016E-16	1.408144E-17
5.040000E+03	3.671596E-16	1.408004E-17
5.050000E+03	3.673168E-16	1.407190E-17
5.060000E+03	3.674747E-16	1.405686E-17
5.070000E+03	3.676253E-16	1.403437E-17
5.080000E+03	3.677654E-16	1.400403E-17
5.090000E+03	3.679006E-16	1.396577E-17
5.100000E+03	3.680228E-16	1.391899E-17
5.110000E+03	3.681396E-16	1.386367E-17
5.120000E+03	3.682517E-16	1.379957E-17
5.130000E+03	3.683566E-16	1.372632E-17
5.140000E+03	3.684597E-16	1.364390E-17
5.150000E+03	3.685624E-16	1.355219E-17
5.160000E+03	3.686662E-16	1.345111E-17
5.170000E+03	3.687721E-16	1.334068E-17
5.180000E+03	3.688846E-16	1.322112E-17
5.190000E+03	3.690000E-16	1.309246E-17
5.200000E+03	3.691176E-16	1.295503E-17
5.210000E+03	3.692399E-16	1.280939E-17
5.220000E+03	3.693647E-16	1.265614E-17
5.230000E+03	3.694853E-16	1.249598E-17
5.240000E+03	3.696019E-16	1.233007E-17
5.250000E+03	3.697062E-16	1.215957E-17
5.260000E+03	3.697968E-16	1.198619E-17
5.270000E+03	3.698679E-16	1.181183E-17
5.280000E+03	3.699130E-16	1.163870E-17
5.290000E+03	3.699251E-16	1.146936E-17
5.300000E+03	3.698932E-16	1.130656E-17
5.310000E+03	3.698169E-16	1.115369E-17
5.320000E+03	3.696809E-16	1.101389E-17
5.330000E+03	3.694841E-16	1.089084E-17
5.340000E+03	3.692146E-16	1.078785E-17
5.350000E+03	3.688634E-16	1.070804E-17
5.360000E+03	3.684250E-16	1.065406E-17
5.370000E+03	3.678893E-16	1.062748E-17
5.380000E+03	3.672446E-16	1.062841E-17
5.390000E+03	3.664769E-16	1.065515E-17
5.400000E+03	3.655749E-16	1.070471E-17
5.410000E+03	3.645270E-16	1.077322E-17
5.420000E+03	3.633149E-16	1.085615E-17
5.430000E+03	3.619325E-16	1.094918E-17
5.440000E+03	3.603677E-16	1.104789E-17
5.450000E+03	3.586142E-16	1.114825E-17
5.460000E+03	3.566605E-16	1.124646E-17
5.470000E+03	3.545116E-16	1.133960E-17
5.480000E+03	3.521573E-16	1.142474E-17
5.490000E+03	3.496042E-16	1.149993E-17
5.500000E+03	3.468543E-16	1.156351E-17
5.510000E+03	3.439057E-16	1.161407E-17
5.520000E+03	3.407730E-16	1.165115E-17
5.530000E+03	3.374631E-16	1.167435E-17
5.540000E+03	3.339890E-16	1.168376E-17
5.550000E+03	3.303630E-16	1.167970E-17
5.560000E+03	3.265996E-16	1.166275E-17
5.570000E+03	3.227220E-16	1.163398E-17
5.580000E+03	3.187455E-16	1.159428E-17
5.590000E+03	3.146963E-16	1.154503E-17
5.600000E+03	3.105955E-16	1.148750E-17
5.610000E+03	3.064651E-16	1.142299E-17
5.620000E+03	3.023334E-16	1.135305E-17
5.630000E+03	2.982228E-16	1.127901E-17
5.640000E+03	2.941583E-16	1.120224E-17
5.650000E+03	2.901611E-16	1.112393E-17
5.660000E+03	2.862575E-16	1.104542E-17
5.670000E+03	2.824665E-16	1.096768E-17
5.680000E+03	2.788110E-16	1.089181E-17
5.690000E+03	2.753067E-16	1.081854E-17
5.700000E+03	2.719701E-16	1.074856E-17
5.710000E+03	2.688154E-16	1.068245E-17
5.720000E+03	2.658572E-16	1.062074E-17
5.730000E+03	2.631023E-16	1.056362E-17
5.740000E+03	2.605581E-16	1.051125E-17
5.750000E+03	2.582295E-16	1.046369E-17
5.760000E+03	2.561190E-16	1.042086E-17
5.770000E+03	2.542271E-16	1.038261E-17
5.780000E+03	2.525519E-16	1.034868E-17
5.790000E+03	2.510898E-16	1.031874E-17
5.800000E+03	2.498377E-16	1.029248E-17
5.810000E+03	2.487837E-16	1.026926E-17
5.820000E+03	2.479216E-16	1.024868E-17
5.830000E+03	2.472441E-16	1.023031E-17
5.840000E+03	2.467356E-16	1.021341E-17
5.850000E+03	2.463893E-16	1.019764E-17
5.860000E+03	2.461885E-16	1.018226E-17
5.870000E+03	2.461230E-16	1.016686E-17
5.880000E+03	2.461804E-16	1.015097E-17
5.890000E+03	2.463483E-16	1.013416E-17
5.900000E+03	2.466147E-16	1.011605E-17
5.910000E+03	2.469680E-16	1.009635E-17
5.920000E+03	2.473952E-16	1.007471E-17
5.930000E+03	2.478886E-16	1.005108E-17
5.940000E+03	2.484371E-16	1.002528E-17
5.950000E+03	2.490355E-16	9.997410E-18
5.960000E+03	2.496748E-16	9.967440E-18
5.970000E+03	2.503524E-16	9.935607E-18
5.980000E+03	2.510624E-16	9.902018E-18
5.990000E+03	2.518023E-16	9.866927E-18
6.000000E+03	2.525715E-16	9.830639E-18
6.010000E+03	2.533703E-16	9.793491E-18
6.020000E+03	2.542007E-16	9.755851E-18
6.030000E+03	2.550632E-16	9.718015E-18
6.040000E+03	2.559643E-16	9.680485E-18
6.050000E+03	2.569066E-16	9.643586E-18
6.060000E+03	2.578983E-16	9.607846E-18
6.070000E+03	2.589407E-16	9.573518E-18
6.080000E+03	2.600403E-16	9.541059E-18
6.090000E+03	2.612065E-16	9.511033E-18
6.100000E+03	2.624430E-16	9.483836E-18
6.110000E+03	2.637561E-16	9.459978E-18
6.120000E+03	2.651510E-16	9.439990E-18
6.130000E+03	2.666295E-16	9.424341E-18
6.140000E+03	2.681974E-16	9.413705E-18
6.150000E+03	2.698564E-16	9.408690E-18
6.160000E+03	2.716038E-16	9.409822E-18
6.170000E+03	2.734377E-16	9.417727E-18
6.180000E+03	2.753487E-16	9.432829E-18
6.190000E+03	2.773330E-16	9.455798E-18
6.200000E+03	2.793851E-16	9.487241E-18
6.210000E+03	2.814970E-16	9.527670E-18
6.220000E+03	2.836529E-16	9.577268E-18
6.230000E+03	2.858408E-16	9.636219E-18
6.240000E+03	2.880440E-16	9.704373E-18
6.250000E+03	2.902477E-16	9.781348E-18
6.260000E+03	2.924277E-16	9.866135E-18
6.270000E+03	2.945670E-16	9.957745E-18
6.280000E+03	2.966482E-16	1.005498E-17
6.290000E+03	2.986467E-16	1.015628E-17
6.300000E+03	3.005468E-16	1.026028E-17
6.310000E+03	3.023200E-16	1.036513E-17
6.320000E+03	3.039475E-16	1.046928E-17
6.330000E+03	3.054076E-16	1.057112E-17
6.340000E+03	3.066798E-16	1.066909E-17
6.350000E+03	3.077445E-16	1.076176E-17
6.360000E+03	3.085874E-16	1.084794E-17
6.370000E+03	3.091863E-16	1.092631E-17
6.380000E+03	3.095343E-16	1.099617E-17
6.390000E+03	3.096174E-16	1.105668E-17
6.400000E+03	3.094307E-16	1.110748E-17
6.410000E+03	3.089627E-16	1.114804E-17
6.420000E+03	3.082144E-16	1.117841E-17
6.430000E+03	3.071901E-16	1.119881E-17
6.440000E+03	3.058839E-16	1.120919E-17
6.450000E+03	3.043121E-16	1.121033E-17
6.460000E+03	3.024778E-16	1.120254E-17
6.470000E+03	3.003929E-16	1.118644E-17
6.480000E+03	2.980715E-16	1.116271E-17
6.490000E+03	2.955295E-16	1.113204E-17
6.500000E+03	2.927844E-16	1.109512E-17
6.510000E+03	2.898550E-16	1.105259E-17
6.520000E+03	2.867578E-16	1.100492E-17
6.530000E+03	2.835190E-16	1.095287E-17
6.540000E+03	2.801588E-16	1.089687E-17
6.550000E+03	2.766940E-16	1.083714E-17
6.560000E+03	2.731534E-16	1.077432E-17
6.570000E+03	2.695497E-16	1.070834E-17
6.580000E+03	2.659070E-16	1.063956E-17
6.590000E+03	2.622424E-16	1.056806E-17
6.600000E+03	2.585721E-16	1.049385E-17
6.610000E+03	2.549138E-16	1.041706E-17
6.620000E+03	2.512790E-16	1.033759E-17
6.630000E+03	2.476890E-16	1.025577E-17
6.640000E+03	2.441477E-16	1.017131E-17
6.650000E+03	2.406747E-16	1.008461E-17
6.660000E+03	2.372776E-16	9.995638E-18
6.670000E+03	2.339691E-16	9.904662E-18
6.680000E+03	2.307556E-16	9.811752E-18
6.690000E+03	2.276509E-16	9.717353E-18
6.700000E+03	2.246579E-16	9.621515E-18
6.710000E+03	2.217919E-16	9.524865E-18
6.720000E+03	2.190523E-16	9.427419E-18
6.730000E+03	2.164533E-16	9.329867E-18
6.740000E+03	2.139987E-16	9.232496E-18
6.750000E+03	2.116920E-16	9.135623E-18
6.760000E+03	2.095457E-16	9.040002E-18
6.770000E+03	2.075580E-16	8.945786E-18
6.780000E+03	2.057406E-16	8.853764E-18
6.790000E+03	2.040932E-16	8.764229E-18
6.800000E+03	2.026223E-16	8.677794E-18
6.810000E+03	2.013314E-16	8.594983E-18
6.820000E+03	2.002264E-16	8.516425E-18
6.830000E+03	1.993054E-16	8.442453E-18
6.840000E+03	1.985756E-16	8.373796E-18
6.850000E+03	1.980391E-16	8.310973E-18
6.860000E+03	1.976952E-16	8.254394E-18
6.870000E+03	1.975449E-16	8.204542E-18
6.880000E+03	1.975935E-16	8.162068E-18
6.890000E+03	1.978362E-16	8.127196E-18
6.900000E+03	1.982722E-16	8.100308E-18
6.910000E+03	1.989047E-16	8.081930E-18
6.920000E+03	1.997295E-16	8.072249E-18
6.930000E+03	2.007410E-16	8.071399E-18
6.940000E+03	2.019407E-16	8.079747E-18
6.950000E+03	2.033193E-16	8.097218E-18
6.960000E+03	2.048742E-16	8.123969E-18
6.970000E+03	2.066024E-16	8.160101E-18
6.980000E+03	2.084927E-16	8.205365E-18
6.990000E+03	2.105433E-16	8.259849E-18
7.000000E+03	2.127422E-16	8.323186E-18
7.010000E+03	2.150845E-16	8.395255E-18
7.020000E+03	2.175652E-16	8.475882E-18
7.030000E+03	2.201713E-16	8.564528E-18
7.040000E+03	2.228976E-16	8.660904E-18
7.050000E+03	2.257362E-16	8.764558E-18
7.060000E+03	2.286764E-16	8.874868E-18
7.070000E+03	2.317129E-16	8.991362E-18
7.080000E+03	2.348378E-16	9.113396E-18
7.090000E+03	2.380426E-16	9.240257E-18
7.100000E+03	2.413156E-16	9.371042E-18
7.110000E+03	2.446505E-16	9.505008E-18
7.120000E+03	2.480311E-16	9.640989E-18
7.130000E+03	2.514558E-16	9.778348E-18
7.140000E+03	2.549030E-16	9.915659E-18
7.150000E+03	2.583625E-16	1.005193E-17
7.160000E+03	2.618228E-16	1.018612E-17
7.170000E+03	2.652609E-16	1.031678E-17
7.180000E+03	2.686623E-16	1.044282E-17
7.190000E+03	2.720073E-16	1.056304E-17
7.200000E+03	2.752717E-16	1.067608E-17
7.210000E+03	2.784329E-16	1.078079E-17
7.220000E+03	2.814710E-16	1.087618E-17
7.230000E+03	2.843581E-16	1.096109E-17
7.240000E+03	2.870694E-16	1.103455E-17
7.250000E+03	2.895802E-16	1.109572E-17
7.260000E+03	2.918660E-16	1.114388E-17
7.270000E+03	2.939037E-16	1.117843E-17
7.280000E+03	2.956675E-16	1.119877E-17
7.290000E+03	2.971416E-16	1.120472E-17
7.300000E+03	2.983088E-16	1.119611E-17
7.310000E+03	2.991474E-16	1.117262E-17
7.320000E+03	2.996584E-16	1.113480E-17
7.330000E+03	2.998233E-16	1.108250E-17
7.340000E+03	2.996509E-16	1.101655E-17
7.350000E+03	2.991349E-16	1.093723E-17
7.360000E+03	2.982806E-16	1.084524E-17
7.370000E+03	2.971049E-16	1.074172E-17
7.380000E+03	2.956132E-16	1.062738E-17
7.390000E+03	2.938257E-16	1.050348E-17
7.400000E+03	2.917695E-16	1.037156E-17
7.410000E+03	2.894550E-16	1.023258E-17
7.420000E+03	2.869176E-16	1.008845E-17
7.430000E+03	2.841790E-16	9.940609E-18
7.440000E+03	2.812621E-16	9.790586E-18
7.450000E+03	2.781979E-16	9.640218E-18
7.460000E+03	2.750066E-16	9.490979E-18
7.470000E+03	2.717156E-16	9.344584E-18
7.480000E+03	2.683518E-16	9.202696E-18
7.490000E+03	2.649377E-16	9.066756E-18
7.500000E+03	2.614981E-16	8.938189E-18
7.510000E+03	2.580567E-16	8.818230E-18
7.520000E+03	2.546356E-16	8.707877E-18
7.530000E+03	2.512519E-16	8.607738E-18
7.540000E+03	2.479280E-16	8.518317E-18
7.550000E+03	2.446816E-16	8.439603E-18
7.560000E+03	2.415258E-16	8.371154E-18
7.570000E+03	2.384779E-16	8.312525E-18
7.580000E+03	2.355468E-16	8.262903E-18
7.590000E+03	2.327455E-16	8.221606E-18
7.600000E+03	2.300814E-16	8.187795E-18
7.610000E+03	2.275598E-16	8.160627E-18
7.620000E+03	2.251807E-16	8.139171E-18
7.630000E+03	2.229512E-16	8.122858E-18
7.640000E+03	2.208640E-16	8.110734E-18
7.650000E+03	2.189221E-16	8.102330E-18
7.660000E+03	2.171176E-16	8.096901E-18
7.670000E+03	2.154440E-16	8.093860E-18
7.680000E+03	2.138959E-16	8.092764E-18
7.690000E+03	2.124610E-16	8.092986E-18
7.700000E+03	2.111312E-16	8.094143E-18
7.710000E+03	2.098918E-16	8.095650E-18
7.720000E+03	2.087327E-16	8.097155E-18
7.730000E+03	2.076404E-16	8.098202E-18
7.740000E+03	2.065981E-16	8.098237E-18
7.750000E+03	2.055940E-16	8.096925E-18
7.760000E+03	2.046136E-16	8.093830E-18
