#wls	flux	fluxerr
1.600000E+03	2.912250E-16	1.985231E-16
1.640000E+03	2.978799E-16	2.000736E-16
1.680000E+03	3.045284E-16	2.014141E-16
1.720000E+03	3.111474E-16	2.025244E-16
1.760000E+03	3.177116E-16	2.033838E-16
1.800000E+03	3.242536E-16	2.040096E-16
1.840000E+03	3.306869E-16	2.043439E-16
1.880000E+03	3.370421E-16	2.044038E-16
1.920000E+03	3.432893E-16	2.041695E-16
1.960000E+03	3.493964E-16	2.036217E-16
2.000000E+03	3.553297E-16	2.027416E-16
2.040000E+03	3.611178E-16	2.015478E-16
2.080000E+03	3.667252E-16	2.000224E-16
2.120000E+03	3.721143E-16	1.981493E-16
2.160000E+03	3.773113E-16	1.959475E-16
2.200000E+03	3.822105E-16	1.933689E-16
2.240000E+03	3.869010E-16	1.904676E-16
2.280000E+03	3.912079E-16	1.871673E-16
2.320000E+03	3.952836E-16	1.835543E-16
2.360000E+03	3.990813E-16	1.796175E-16
2.400000E+03	4.024868E-16	1.753203E-16
2.440000E+03	4.055806E-16	1.707154E-16
2.480000E+03	4.082456E-16	1.657721E-16
2.520000E+03	4.106203E-16	1.605675E-16
2.560000E+03	4.125829E-16	1.550740E-16
2.600000E+03	4.141377E-16	1.493182E-16
2.640000E+03	4.152849E-16	1.433262E-16
2.680000E+03	4.160208E-16	1.371246E-16
2.720000E+03	4.163955E-16	1.307583E-16
2.760000E+03	4.163364E-16	1.242343E-16
2.800000E+03	4.158279E-16	1.175816E-16
2.840000E+03	4.149050E-16	1.108455E-16
2.880000E+03	4.136453E-16	1.040813E-16
2.920000E+03	4.119114E-16	9.729060E-17
2.960000E+03	4.098198E-16	9.054086E-17
3.000000E+03	4.073735E-16	8.387075E-17
3.010000E+03	4.067112E-16	8.222122E-17
3.020000E+03	4.060391E-16	8.058217E-17
3.030000E+03	4.053106E-16	7.894503E-17
3.040000E+03	4.045695E-16	7.731919E-17
3.050000E+03	4.038140E-16	7.570483E-17
3.060000E+03	4.030422E-16	7.410221E-17
3.070000E+03	4.022525E-16	7.251161E-17
3.080000E+03	4.014433E-16	7.093334E-17
3.090000E+03	4.006129E-16	6.936776E-17
3.100000E+03	3.997597E-16	6.781527E-17
3.110000E+03	3.988824E-16	6.627630E-17
3.120000E+03	3.979794E-16	6.475132E-17
3.130000E+03	3.970494E-16	6.324081E-17
3.140000E+03	3.961304E-16	6.175142E-17
3.150000E+03	3.952195E-16	6.028306E-17
3.160000E+03	3.942377E-16	5.882434E-17
3.170000E+03	3.932609E-16	5.738748E-17
3.180000E+03	3.922865E-16	5.597253E-17
3.190000E+03	3.912754E-16	5.457448E-17
3.200000E+03	3.902628E-16	5.319899E-17
3.210000E+03	3.892109E-16	5.184147E-17
3.220000E+03	3.881891E-16	5.051182E-17
3.230000E+03	3.871246E-16	4.920099E-17
3.240000E+03	3.860510E-16	4.791399E-17
3.250000E+03	3.849662E-16	4.665115E-17
3.260000E+03	3.838683E-16	4.541281E-17
3.270000E+03	3.827884E-16	4.420312E-17
3.280000E+03	3.816587E-16	4.301478E-17
3.290000E+03	3.805426E-16	4.185561E-17
3.300000E+03	3.794057E-16	4.072227E-17
3.310000E+03	3.782776E-16	3.961844E-17
3.320000E+03	3.771250E-16	3.854109E-17
3.330000E+03	3.759766E-16	3.749366E-17
3.340000E+03	3.748006E-16	3.647338E-17
3.350000E+03	3.736249E-16	3.548346E-17
3.360000E+03	3.724471E-16	3.452401E-17
3.370000E+03	3.712653E-16	3.359512E-17
3.380000E+03	3.700774E-16	3.269689E-17
3.390000E+03	3.689087E-16	3.183172E-17
3.400000E+03	3.677033E-16	3.099491E-17
3.410000E+03	3.665134E-16	3.019105E-17
3.420000E+03	3.653108E-16	2.941779E-17
3.430000E+03	3.641199E-16	2.867704E-17
3.440000E+03	3.629140E-16	2.796653E-17
3.450000E+03	3.617172E-16	2.728790E-17
3.460000E+03	3.605521E-16	2.664244E-17
3.470000E+03	3.593694E-16	2.602603E-17
3.480000E+03	3.581930E-16	2.543991E-17
3.490000E+03	3.570225E-16	2.488342E-17
3.500000E+03	3.558804E-16	2.435736E-17
3.510000E+03	3.547442E-16	2.385932E-17
3.520000E+03	3.536147E-16	2.338846E-17
3.530000E+03	3.525144E-16	2.294527E-17
3.540000E+03	3.514439E-16	2.252868E-17
3.550000E+03	3.504042E-16	2.213758E-17
3.560000E+03	3.493967E-16	2.177087E-17
3.570000E+03	3.484428E-16	2.142863E-17
3.580000E+03	3.475053E-16	2.110729E-17
3.590000E+03	3.466256E-16	2.080811E-17
3.600000E+03	3.457872E-16	2.052880E-17
3.610000E+03	3.450117E-16	2.026936E-17
3.620000E+03	3.443017E-16	2.002867E-17
3.630000E+03	3.436605E-16	1.980564E-17
3.640000E+03	3.430913E-16	1.959924E-17
3.650000E+03	3.425979E-16	1.940848E-17
3.660000E+03	3.422006E-16	1.923337E-17
3.670000E+03	3.418863E-16	1.907205E-17
3.680000E+03	3.416753E-16	1.892458E-17
3.690000E+03	3.415551E-16	1.878924E-17
3.700000E+03	3.415455E-16	1.866617E-17
3.710000E+03	3.416651E-16	1.855544E-17
3.720000E+03	3.418863E-16	1.845468E-17
3.730000E+03	3.422423E-16	1.836489E-17
3.740000E+03	3.427207E-16	1.828462E-17
3.750000E+03	3.433380E-16	1.821404E-17
3.760000E+03	3.440953E-16	1.815257E-17
3.770000E+03	3.449794E-16	1.809892E-17
3.780000E+03	3.460182E-16	1.805400E-17
3.790000E+03	3.471833E-16	1.801586E-17
3.800000E+03	3.485004E-16	1.798541E-17
3.810000E+03	3.499532E-16	1.796144E-17
3.820000E+03	3.515511E-16	1.794414E-17
3.830000E+03	3.532764E-16	1.793235E-17
3.840000E+03	3.551361E-16	1.792624E-17
3.850000E+03	3.571103E-16	1.792468E-17
3.860000E+03	3.592159E-16	1.792841E-17
3.870000E+03	3.614183E-16	1.793570E-17
3.880000E+03	3.637313E-16	1.794723E-17
3.890000E+03	3.661307E-16	1.796184E-17
3.900000E+03	3.685916E-16	1.797842E-17
3.910000E+03	3.711353E-16	1.799809E-17
3.920000E+03	3.737115E-16	1.801855E-17
3.930000E+03	3.763273E-16	1.804029E-17
3.940000E+03	3.789659E-16	1.806263E-17
3.950000E+03	3.815874E-16	1.808383E-17
3.960000E+03	3.842078E-16	1.810480E-17
3.970000E+03	3.867868E-16	1.812375E-17
3.980000E+03	3.893067E-16	1.813998E-17
3.990000E+03	3.917608E-16	1.815329E-17
4.000000E+03	3.941213E-16	1.816247E-17
4.010000E+03	3.963823E-16	1.816733E-17
4.020000E+03	3.985281E-16	1.816719E-17
4.030000E+03	4.005242E-16	1.816051E-17
4.040000E+03	4.023781E-16	1.814767E-17
4.050000E+03	4.040686E-16	1.812772E-17
4.060000E+03	4.055865E-16	1.810024E-17
4.070000E+03	4.069245E-16	1.806490E-17
4.080000E+03	4.080772E-16	1.802146E-17
4.090000E+03	4.090325E-16	1.796932E-17
4.100000E+03	4.097990E-16	1.790887E-17
4.110000E+03	4.103693E-16	1.783972E-17
4.120000E+03	4.107564E-16	1.776242E-17
4.130000E+03	4.109487E-16	1.767640E-17
4.140000E+03	4.109551E-16	1.758203E-17
4.150000E+03	4.107949E-16	1.748010E-17
4.160000E+03	4.104638E-16	1.737041E-17
4.170000E+03	4.099928E-16	1.725428E-17
4.180000E+03	4.093731E-16	1.713137E-17
4.190000E+03	4.086306E-16	1.700284E-17
4.200000E+03	4.077835E-16	1.686957E-17
4.210000E+03	4.068435E-16	1.673221E-17
4.220000E+03	4.058230E-16	1.659153E-17
4.230000E+03	4.047503E-16	1.644901E-17
4.240000E+03	4.036240E-16	1.630499E-17
4.250000E+03	4.024799E-16	1.616142E-17
4.260000E+03	4.013243E-16	1.601914E-17
4.270000E+03	4.001779E-16	1.587965E-17
4.280000E+03	3.990540E-16	1.574421E-17
4.290000E+03	3.979652E-16	1.561414E-17
4.300000E+03	3.969241E-16	1.549079E-17
4.310000E+03	3.959551E-16	1.537597E-17
4.320000E+03	3.950559E-16	1.527045E-17
4.330000E+03	3.942426E-16	1.517566E-17
4.340000E+03	3.935238E-16	1.509265E-17
4.350000E+03	3.929070E-16	1.502227E-17
4.360000E+03	3.923982E-16	1.496516E-17
4.370000E+03	3.920022E-16	1.492169E-17
4.380000E+03	3.917162E-16	1.489171E-17
4.390000E+03	3.915477E-16	1.487520E-17
4.400000E+03	3.914851E-16	1.487115E-17
4.410000E+03	3.915377E-16	1.487912E-17
4.420000E+03	3.916961E-16	1.489773E-17
4.430000E+03	3.919493E-16	1.492539E-17
4.440000E+03	3.922900E-16	1.496053E-17
4.450000E+03	3.927199E-16	1.500186E-17
4.460000E+03	3.932171E-16	1.504714E-17
4.470000E+03	3.937796E-16	1.509493E-17
4.480000E+03	3.943981E-16	1.514353E-17
4.490000E+03	3.950615E-16	1.519129E-17
4.500000E+03	3.957521E-16	1.523640E-17
4.510000E+03	3.964609E-16	1.527752E-17
4.520000E+03	3.971779E-16	1.531340E-17
4.530000E+03	3.978765E-16	1.534235E-17
4.540000E+03	3.985447E-16	1.536338E-17
4.550000E+03	3.991651E-16	1.537549E-17
4.560000E+03	3.997249E-16	1.537801E-17
4.570000E+03	4.002013E-16	1.537011E-17
4.580000E+03	4.005821E-16	1.535153E-17
4.590000E+03	4.008510E-16	1.532205E-17
4.600000E+03	4.009926E-16	1.528167E-17
4.610000E+03	4.009884E-16	1.523046E-17
4.620000E+03	4.008360E-16	1.516925E-17
4.630000E+03	4.005207E-16	1.509861E-17
4.640000E+03	4.000349E-16	1.501950E-17
4.650000E+03	3.993782E-16	1.493329E-17
4.660000E+03	3.985482E-16	1.484136E-17
4.670000E+03	3.975497E-16	1.474545E-17
4.680000E+03	3.963809E-16	1.464706E-17
4.690000E+03	3.950519E-16	1.454813E-17
4.700000E+03	3.935755E-16	1.445063E-17
4.710000E+03	3.919662E-16	1.435646E-17
4.720000E+03	3.902411E-16	1.426744E-17
4.730000E+03	3.884184E-16	1.418521E-17
4.740000E+03	3.865226E-16	1.411135E-17
4.750000E+03	3.845787E-16	1.404714E-17
4.760000E+03	3.826166E-16	1.399372E-17
4.770000E+03	3.806706E-16	1.395198E-17
4.780000E+03	3.787658E-16	1.392221E-17
4.790000E+03	3.769106E-16	1.390381E-17
4.800000E+03	3.751170E-16	1.389614E-17
4.810000E+03	3.733804E-16	1.389779E-17
4.820000E+03	3.717117E-16	1.390787E-17
4.830000E+03	3.701210E-16	1.392538E-17
4.840000E+03	3.686085E-16	1.394902E-17
4.850000E+03	3.671893E-16	1.397807E-17
4.860000E+03	3.658645E-16	1.401135E-17
4.870000E+03	3.646414E-16	1.404803E-17
4.880000E+03	3.635288E-16	1.408746E-17
4.890000E+03	3.625260E-16	1.412869E-17
4.900000E+03	3.616301E-16	1.417086E-17
4.910000E+03	3.608481E-16	1.421356E-17
4.920000E+03	3.601732E-16	1.425595E-17
4.930000E+03	3.596048E-16	1.429754E-17
4.940000E+03	3.591332E-16	1.433756E-17
4.950000E+03	3.587550E-16	1.437554E-17
4.960000E+03	3.584657E-16	1.441104E-17
4.970000E+03	3.582523E-16	1.444331E-17
4.980000E+03	3.581129E-16	1.447209E-17
4.990000E+03	3.580338E-16	1.449665E-17
5.000000E+03	3.580051E-16	1.451644E-17
5.010000E+03	3.580211E-16	1.453106E-17
5.020000E+03	3.580764E-16	1.454012E-17
5.030000E+03	3.581623E-16	1.454310E-17
5.040000E+03	3.582676E-16	1.453934E-17
5.050000E+03	3.583928E-16	1.452865E-17
5.060000E+03	3.585284E-16	1.451041E-17
5.070000E+03	3.586733E-16	1.448430E-17
5.080000E+03	3.588236E-16	1.444990E-17
5.090000E+03	3.589763E-16	1.440681E-17
5.100000E+03	3.591329E-16	1.435480E-17
5.110000E+03	3.592882E-16	1.429338E-17
5.120000E+03	3.594449E-16	1.422237E-17
5.130000E+03	3.596026E-16	1.414152E-17
5.140000E+03	3.597610E-16	1.405060E-17
5.150000E+03	3.599235E-16	1.394960E-17
5.160000E+03	3.600864E-16	1.383825E-17
5.170000E+03	3.602492E-16	1.371656E-17
5.180000E+03	3.604150E-16	1.358473E-17
5.190000E+03	3.605828E-16	1.344297E-17
5.200000E+03	3.607474E-16	1.329145E-17
5.210000E+03	3.609141E-16	1.313097E-17
5.220000E+03	3.610693E-16	1.296180E-17
5.230000E+03	3.612207E-16	1.278527E-17
5.240000E+03	3.613610E-16	1.260243E-17
5.250000E+03	3.614820E-16	1.241462E-17
5.260000E+03	3.615822E-16	1.222377E-17
5.270000E+03	3.616563E-16	1.203203E-17
5.280000E+03	3.616980E-16	1.184189E-17
5.290000E+03	3.617008E-16	1.165622E-17
5.300000E+03	3.616541E-16	1.147809E-17
5.310000E+03	3.615543E-16	1.131108E-17
5.320000E+03	3.613937E-16	1.115882E-17
5.330000E+03	3.611606E-16	1.102485E-17
5.340000E+03	3.608505E-16	1.091276E-17
5.350000E+03	3.604545E-16	1.082560E-17
5.360000E+03	3.599634E-16	1.076572E-17
5.370000E+03	3.593674E-16	1.073445E-17
5.380000E+03	3.586557E-16	1.073184E-17
5.390000E+03	3.578167E-16	1.075649E-17
5.400000E+03	3.568418E-16	1.080586E-17
5.410000E+03	3.557189E-16	1.087636E-17
5.420000E+03	3.544400E-16	1.096393E-17
5.430000E+03	3.529945E-16	1.106408E-17
5.440000E+03	3.513764E-16	1.117243E-17
5.450000E+03	3.495817E-16	1.128474E-17
5.460000E+03	3.476077E-16	1.139716E-17
5.470000E+03	3.454541E-16	1.150623E-17
5.480000E+03	3.431191E-16	1.160893E-17
5.490000E+03	3.406067E-16	1.170285E-17
5.500000E+03	3.379197E-16	1.178601E-17
5.510000E+03	3.350666E-16	1.185704E-17
5.520000E+03	3.320451E-16	1.191461E-17
5.530000E+03	3.288719E-16	1.195841E-17
5.540000E+03	3.255557E-16	1.198817E-17
5.550000E+03	3.221045E-16	1.200385E-17
5.560000E+03	3.185345E-16	1.200596E-17
5.570000E+03	3.148639E-16	1.199526E-17
5.580000E+03	3.111057E-16	1.197249E-17
5.590000E+03	3.072839E-16	1.193889E-17
5.600000E+03	3.034168E-16	1.189558E-17
5.610000E+03	2.995264E-16	1.184390E-17
5.620000E+03	2.956352E-16	1.178521E-17
5.630000E+03	2.917651E-16	1.172085E-17
5.640000E+03	2.879323E-16	1.165195E-17
5.650000E+03	2.841663E-16	1.158013E-17
5.660000E+03	2.804815E-16	1.150636E-17
5.670000E+03	2.768969E-16	1.143177E-17
5.680000E+03	2.734327E-16	1.135748E-17
5.690000E+03	2.701020E-16	1.128427E-17
5.700000E+03	2.669189E-16	1.121291E-17
5.710000E+03	2.638985E-16	1.114415E-17
5.720000E+03	2.610510E-16	1.107854E-17
5.730000E+03	2.583822E-16	1.101634E-17
5.740000E+03	2.559010E-16	1.095796E-17
5.750000E+03	2.536094E-16	1.090345E-17
5.760000E+03	2.515124E-16	1.085299E-17
5.770000E+03	2.496107E-16	1.080654E-17
5.780000E+03	2.479033E-16	1.076397E-17
5.790000E+03	2.463850E-16	1.072500E-17
5.800000E+03	2.450541E-16	1.068944E-17
5.810000E+03	2.439051E-16	1.065698E-17
5.820000E+03	2.429313E-16	1.062726E-17
5.830000E+03	2.421226E-16	1.059975E-17
5.840000E+03	2.414729E-16	1.057415E-17
5.850000E+03	2.409752E-16	1.055011E-17
5.860000E+03	2.406128E-16	1.052689E-17
5.870000E+03	2.403829E-16	1.050437E-17
5.880000E+03	2.402706E-16	1.048194E-17
5.890000E+03	2.402707E-16	1.045943E-17
5.900000E+03	2.403663E-16	1.043620E-17
5.910000E+03	2.405553E-16	1.041226E-17
5.920000E+03	2.408218E-16	1.038708E-17
5.930000E+03	2.411650E-16	1.036078E-17
5.940000E+03	2.415705E-16	1.033294E-17
5.950000E+03	2.420369E-16	1.030369E-17
5.960000E+03	2.425568E-16	1.027295E-17
5.970000E+03	2.431260E-16	1.024076E-17
5.980000E+03	2.437418E-16	1.020725E-17
5.990000E+03	2.444022E-16	1.017259E-17
6.000000E+03	2.451046E-16	1.013688E-17
6.010000E+03	2.458493E-16	1.010038E-17
6.020000E+03	2.466404E-16	1.006349E-17
6.030000E+03	2.474758E-16	1.002635E-17
6.040000E+03	2.483613E-16	9.989402E-18
6.050000E+03	2.492988E-16	9.952947E-18
6.060000E+03	2.502904E-16	9.917302E-18
6.070000E+03	2.513440E-16	9.883008E-18
6.080000E+03	2.524598E-16	9.850339E-18
6.090000E+03	2.536457E-16	9.819891E-18
6.100000E+03	2.549043E-16	9.792091E-18
6.110000E+03	2.562378E-16	9.767399E-18
6.120000E+03	2.576501E-16	9.746400E-18
6.130000E+03	2.591415E-16	9.729609E-18
6.140000E+03	2.607139E-16	9.717668E-18
6.150000E+03	2.623728E-16	9.711428E-18
6.160000E+03	2.641119E-16	9.711370E-18
6.170000E+03	2.659417E-16	9.718651E-18
6.180000E+03	2.678654E-16	9.734221E-18
6.190000E+03	2.698716E-16	9.758510E-18
6.200000E+03	2.719408E-16	9.791688E-18
6.210000E+03	2.740624E-16	9.834208E-18
6.220000E+03	2.762208E-16	9.886282E-18
6.230000E+03	2.783985E-16	9.947930E-18
6.240000E+03	2.805850E-16	1.001922E-17
6.250000E+03	2.827575E-16	1.009950E-17
6.260000E+03	2.849041E-16	1.018817E-17
6.270000E+03	2.870093E-16	1.028429E-17
6.280000E+03	2.890477E-16	1.038634E-17
6.290000E+03	2.910081E-16	1.049321E-17
6.300000E+03	2.928669E-16	1.060320E-17
6.310000E+03	2.946032E-16	1.071468E-17
6.320000E+03	2.961992E-16	1.082608E-17
6.330000E+03	2.976346E-16	1.093576E-17
6.340000E+03	2.988898E-16	1.104210E-17
6.350000E+03	2.999463E-16	1.114363E-17
6.360000E+03	3.007871E-16	1.123895E-17
6.370000E+03	3.013970E-16	1.132687E-17
6.380000E+03	3.017661E-16	1.140645E-17
6.390000E+03	3.018774E-16	1.147660E-17
6.400000E+03	3.017292E-16	1.153691E-17
6.410000E+03	3.013097E-16	1.158670E-17
6.420000E+03	3.006227E-16	1.162593E-17
6.430000E+03	2.996590E-16	1.165418E-17
6.440000E+03	2.984312E-16	1.167192E-17
6.450000E+03	2.969356E-16	1.167901E-17
6.460000E+03	2.951839E-16	1.167597E-17
6.470000E+03	2.931868E-16	1.166327E-17
6.480000E+03	2.909543E-16	1.164133E-17
6.490000E+03	2.885041E-16	1.161088E-17
6.500000E+03	2.858496E-16	1.157242E-17
6.510000E+03	2.830114E-16	1.152671E-17
6.520000E+03	2.800080E-16	1.147435E-17
6.530000E+03	2.768587E-16	1.141592E-17
6.540000E+03	2.735826E-16	1.135195E-17
6.550000E+03	2.702023E-16	1.128305E-17
6.560000E+03	2.667368E-16	1.120965E-17
6.570000E+03	2.632049E-16	1.113211E-17
6.580000E+03	2.596303E-16	1.105101E-17
6.590000E+03	2.560303E-16	1.096662E-17
6.600000E+03	2.524184E-16	1.087908E-17
6.610000E+03	2.488186E-16	1.078896E-17
6.620000E+03	2.452397E-16	1.069622E-17
6.630000E+03	2.417009E-16	1.060131E-17
6.640000E+03	2.382147E-16	1.050442E-17
6.650000E+03	2.347930E-16	1.040575E-17
6.660000E+03	2.314490E-16	1.030564E-17
6.670000E+03	2.281905E-16	1.020421E-17
6.680000E+03	2.250318E-16	1.010196E-17
6.690000E+03	2.219815E-16	9.999160E-18
6.700000E+03	2.190451E-16	9.896005E-18
6.710000E+03	2.162324E-16	9.792933E-18
6.720000E+03	2.135503E-16	9.690289E-18
6.730000E+03	2.110050E-16	9.588440E-18
6.740000E+03	2.086072E-16	9.487986E-18
6.750000E+03	2.063573E-16	9.389106E-18
6.760000E+03	2.042627E-16	9.292319E-18
6.770000E+03	2.023278E-16	9.198049E-18
6.780000E+03	2.005568E-16	9.106729E-18
6.790000E+03	1.989557E-16	9.018904E-18
6.800000E+03	1.975255E-16	8.934915E-18
6.810000E+03	1.962716E-16	8.855312E-18
6.820000E+03	1.951943E-16	8.780442E-18
6.830000E+03	1.943005E-16	8.710954E-18
6.840000E+03	1.935876E-16	8.647078E-18
6.850000E+03	1.930616E-16	8.589445E-18
6.860000E+03	1.927191E-16	8.538261E-18
6.870000E+03	1.925655E-16	8.494118E-18
6.880000E+03	1.925986E-16	8.457282E-18
6.890000E+03	1.928183E-16	8.428092E-18
6.900000E+03	1.932263E-16	8.406954E-18
6.910000E+03	1.938190E-16	8.394039E-18
6.920000E+03	1.945948E-16	8.389580E-18
6.930000E+03	1.955538E-16	8.393870E-18
6.940000E+03	1.966908E-16	8.406956E-18
6.950000E+03	1.980050E-16	8.429044E-18
6.960000E+03	1.994902E-16	8.460090E-18
6.970000E+03	2.011445E-16	8.500205E-18
6.980000E+03	2.029632E-16	8.549353E-18
6.990000E+03	2.049362E-16	8.607235E-18
7.000000E+03	2.070654E-16	8.674028E-18
7.010000E+03	2.093398E-16	8.749329E-18
7.020000E+03	2.117531E-16	8.832892E-18
7.030000E+03	2.142986E-16	8.924415E-18
7.040000E+03	2.169722E-16	9.023649E-18
7.050000E+03	2.197639E-16	9.130065E-18
7.060000E+03	2.226690E-16	9.243298E-18
7.070000E+03	2.256768E-16	9.362689E-18
7.080000E+03	2.287761E-16	9.487507E-18
7.090000E+03	2.319636E-16	9.617305E-18
7.100000E+03	2.352271E-16	9.751217E-18
7.110000E+03	2.385562E-16	9.888423E-18
7.120000E+03	2.419399E-16	1.002803E-17
7.130000E+03	2.453629E-16	1.016897E-17
7.140000E+03	2.488152E-16	1.031033E-17
7.150000E+03	2.522824E-16	1.045105E-17
7.160000E+03	2.557456E-16	1.058988E-17
7.170000E+03	2.591878E-16	1.072566E-17
7.180000E+03	2.625940E-16	1.085732E-17
7.190000E+03	2.659413E-16	1.098356E-17
7.200000E+03	2.692091E-16	1.110315E-17
7.210000E+03	2.723722E-16	1.121480E-17
7.220000E+03	2.754150E-16	1.131764E-17
7.230000E+03	2.783075E-16	1.141031E-17
7.240000E+03	2.810301E-16	1.149193E-17
7.250000E+03	2.835563E-16	1.156143E-17
7.260000E+03	2.858636E-16	1.161799E-17
7.270000E+03	2.879345E-16	1.166105E-17
7.280000E+03	2.897417E-16	1.168972E-17
7.290000E+03	2.912750E-16	1.170388E-17
7.300000E+03	2.925114E-16	1.170292E-17
7.310000E+03	2.934420E-16	1.168687E-17
7.320000E+03	2.940534E-16	1.165560E-17
7.330000E+03	2.943434E-16	1.160944E-17
7.340000E+03	2.943054E-16	1.154862E-17
7.350000E+03	2.939442E-16	1.147381E-17
7.360000E+03	2.932571E-16	1.138539E-17
7.370000E+03	2.922558E-16	1.128439E-17
7.380000E+03	2.909521E-16	1.117183E-17
7.390000E+03	2.893607E-16	1.104886E-17
7.400000E+03	2.874916E-16	1.091653E-17
7.410000E+03	2.853686E-16	1.077643E-17
7.420000E+03	2.830100E-16	1.062996E-17
7.430000E+03	2.804361E-16	1.047866E-17
7.440000E+03	2.776716E-16	1.032425E-17
7.450000E+03	2.747461E-16	1.016863E-17
7.460000E+03	2.716854E-16	1.001357E-17
7.470000E+03	2.685154E-16	9.860809E-18
7.480000E+03	2.652650E-16	9.712163E-18
7.490000E+03	2.619553E-16	9.569074E-18
7.500000E+03	2.586099E-16	9.432975E-18
7.510000E+03	2.552548E-16	9.305232E-18
7.520000E+03	2.519107E-16	9.186859E-18
7.530000E+03	2.485940E-16	9.078478E-18
7.540000E+03	2.453262E-16	8.980634E-18
7.550000E+03	2.421243E-16	8.893365E-18
7.560000E+03	2.390040E-16	8.816396E-18
7.570000E+03	2.359789E-16	8.749237E-18
7.580000E+03	2.330609E-16	8.691250E-18
7.590000E+03	2.302595E-16	8.641706E-18
7.600000E+03	2.275853E-16	8.599936E-18
7.610000E+03	2.250375E-16	8.564920E-18
7.620000E+03	2.226255E-16	8.536096E-18
7.630000E+03	2.203505E-16	8.512705E-18
7.640000E+03	2.182088E-16	8.493906E-18
7.650000E+03	2.162011E-16	8.479129E-18
7.660000E+03	2.143230E-16	8.467729E-18
7.670000E+03	2.125660E-16	8.458988E-18
7.680000E+03	2.109286E-16	8.452561E-18
7.690000E+03	2.093967E-16	8.447682E-18
7.700000E+03	2.079636E-16	8.443945E-18
7.710000E+03	2.066213E-16	8.440966E-18
7.720000E+03	2.053530E-16	8.438035E-18
7.730000E+03	2.041520E-16	8.434905E-18
7.740000E+03	2.030030E-16	8.431002E-18
7.750000E+03	2.018930E-16	8.425872E-18
7.760000E+03	2.008091E-16	8.419070E-18
