#wls	flux	fluxerr
1.600000E+03	2.914321E-16	1.986301E-16
1.640000E+03	2.980943E-16	2.001827E-16
1.680000E+03	3.047501E-16	2.015250E-16
1.720000E+03	3.113761E-16	2.026368E-16
1.760000E+03	3.179471E-16	2.034976E-16
1.800000E+03	3.244957E-16	2.041244E-16
1.840000E+03	3.309352E-16	2.044594E-16
1.880000E+03	3.372963E-16	2.045200E-16
1.920000E+03	3.435490E-16	2.042860E-16
1.960000E+03	3.496612E-16	2.037382E-16
2.000000E+03	3.555992E-16	2.028580E-16
2.040000E+03	3.613915E-16	2.016638E-16
2.080000E+03	3.670027E-16	2.001380E-16
2.120000E+03	3.723951E-16	1.982642E-16
2.160000E+03	3.775950E-16	1.960617E-16
2.200000E+03	3.824966E-16	1.934823E-16
2.240000E+03	3.871891E-16	1.905803E-16
2.280000E+03	3.914976E-16	1.872792E-16
2.320000E+03	3.955747E-16	1.836656E-16
2.360000E+03	3.993734E-16	1.797284E-16
2.400000E+03	4.027798E-16	1.754309E-16
2.440000E+03	4.058744E-16	1.708261E-16
2.480000E+03	4.085402E-16	1.658832E-16
2.520000E+03	4.109158E-16	1.606793E-16
2.560000E+03	4.128796E-16	1.551870E-16
2.600000E+03	4.144358E-16	1.494327E-16
2.640000E+03	4.155850E-16	1.434426E-16
2.680000E+03	4.163235E-16	1.372433E-16
2.720000E+03	4.167014E-16	1.308796E-16
2.760000E+03	4.166464E-16	1.243584E-16
2.800000E+03	4.161429E-16	1.177087E-16
2.840000E+03	4.152259E-16	1.109755E-16
2.880000E+03	4.139734E-16	1.042141E-16
2.920000E+03	4.122479E-16	9.742576E-17
2.960000E+03	4.101660E-16	9.067775E-17
3.000000E+03	4.077308E-16	8.400846E-17
3.010000E+03	4.070716E-16	8.235895E-17
3.020000E+03	4.064027E-16	8.071985E-17
3.030000E+03	4.056774E-16	7.908255E-17
3.040000E+03	4.049396E-16	7.745645E-17
3.050000E+03	4.041875E-16	7.584174E-17
3.060000E+03	4.034193E-16	7.423866E-17
3.070000E+03	4.026333E-16	7.264749E-17
3.080000E+03	4.018279E-16	7.106853E-17
3.090000E+03	4.010014E-16	6.950214E-17
3.100000E+03	4.001522E-16	6.794871E-17
3.110000E+03	3.992790E-16	6.640866E-17
3.120000E+03	3.983803E-16	6.488245E-17
3.130000E+03	3.974547E-16	6.337056E-17
3.140000E+03	3.965402E-16	6.187965E-17
3.150000E+03	3.956340E-16	6.040962E-17
3.160000E+03	3.946571E-16	5.894904E-17
3.170000E+03	3.936852E-16	5.751016E-17
3.180000E+03	3.927159E-16	5.609303E-17
3.190000E+03	3.917100E-16	5.469262E-17
3.200000E+03	3.907028E-16	5.331457E-17
3.210000E+03	3.896563E-16	5.195431E-17
3.220000E+03	3.886403E-16	5.062176E-17
3.230000E+03	3.875816E-16	4.930781E-17
3.240000E+03	3.865139E-16	4.801752E-17
3.250000E+03	3.854353E-16	4.675119E-17
3.260000E+03	3.843437E-16	4.550918E-17
3.270000E+03	3.832702E-16	4.429563E-17
3.280000E+03	3.821471E-16	4.310324E-17
3.290000E+03	3.810376E-16	4.193985E-17
3.300000E+03	3.799077E-16	4.080212E-17
3.310000E+03	3.787865E-16	3.969374E-17
3.320000E+03	3.776410E-16	3.861167E-17
3.330000E+03	3.764998E-16	3.755938E-17
3.340000E+03	3.753311E-16	3.653411E-17
3.350000E+03	3.741626E-16	3.553909E-17
3.360000E+03	3.729922E-16	3.457443E-17
3.370000E+03	3.718178E-16	3.364025E-17
3.380000E+03	3.706373E-16	3.273666E-17
3.390000E+03	3.694761E-16	3.186610E-17
3.400000E+03	3.682780E-16	3.102389E-17
3.410000E+03	3.670953E-16	3.021463E-17
3.420000E+03	3.658999E-16	2.943599E-17
3.430000E+03	3.647160E-16	2.868993E-17
3.440000E+03	3.635169E-16	2.797418E-17
3.450000E+03	3.623267E-16	2.729042E-17
3.460000E+03	3.611680E-16	2.663997E-17
3.470000E+03	3.599914E-16	2.601872E-17
3.480000E+03	3.588208E-16	2.542793E-17
3.490000E+03	3.576557E-16	2.486696E-17
3.500000E+03	3.565187E-16	2.433664E-17
3.510000E+03	3.553872E-16	2.383456E-17
3.520000E+03	3.542620E-16	2.335989E-17
3.530000E+03	3.531657E-16	2.291313E-17
3.540000E+03	3.520987E-16	2.249320E-17
3.550000E+03	3.510620E-16	2.209902E-17
3.560000E+03	3.500572E-16	2.172946E-17
3.570000E+03	3.491056E-16	2.138459E-17
3.580000E+03	3.481699E-16	2.106086E-17
3.590000E+03	3.472916E-16	2.075951E-17
3.600000E+03	3.464542E-16	2.047823E-17
3.610000E+03	3.456793E-16	2.021701E-17
3.620000E+03	3.449697E-16	1.997472E-17
3.630000E+03	3.443284E-16	1.975025E-17
3.640000E+03	3.437589E-16	1.954257E-17
3.650000E+03	3.432648E-16	1.935066E-17
3.660000E+03	3.428668E-16	1.917452E-17
3.670000E+03	3.425516E-16	1.901226E-17
3.680000E+03	3.423396E-16	1.886394E-17
3.690000E+03	3.422184E-16	1.872783E-17
3.700000E+03	3.422078E-16	1.860404E-17
3.710000E+03	3.423266E-16	1.849263E-17
3.720000E+03	3.425473E-16	1.839123E-17
3.730000E+03	3.429032E-16	1.830081E-17
3.740000E+03	3.433818E-16	1.821991E-17
3.750000E+03	3.439998E-16	1.814870E-17
3.760000E+03	3.447586E-16	1.808659E-17
3.770000E+03	3.456448E-16	1.803226E-17
3.780000E+03	3.466866E-16	1.798664E-17
3.790000E+03	3.478556E-16	1.794776E-17
3.800000E+03	3.491775E-16	1.791653E-17
3.810000E+03	3.506361E-16	1.789173E-17
3.820000E+03	3.522411E-16	1.787356E-17
3.830000E+03	3.539745E-16	1.786085E-17
3.840000E+03	3.558433E-16	1.785377E-17
3.850000E+03	3.578279E-16	1.785120E-17
3.860000E+03	3.599450E-16	1.785389E-17
3.870000E+03	3.621600E-16	1.786010E-17
3.880000E+03	3.644868E-16	1.787052E-17
3.890000E+03	3.669008E-16	1.788402E-17
3.900000E+03	3.693773E-16	1.789947E-17
3.910000E+03	3.719375E-16	1.791802E-17
3.920000E+03	3.745308E-16	1.793737E-17
3.930000E+03	3.771644E-16	1.795803E-17
3.940000E+03	3.798212E-16	1.797932E-17
3.950000E+03	3.824611E-16	1.799952E-17
3.960000E+03	3.851001E-16	1.801952E-17
3.970000E+03	3.876977E-16	1.803757E-17
3.980000E+03	3.902360E-16	1.805297E-17
3.990000E+03	3.927081E-16	1.806551E-17
4.000000E+03	3.950860E-16	1.807399E-17
4.010000E+03	3.973637E-16	1.807823E-17
4.020000E+03	3.995256E-16	1.807756E-17
4.030000E+03	4.015365E-16	1.807044E-17
4.040000E+03	4.034043E-16	1.805726E-17
4.050000E+03	4.051074E-16	1.803706E-17
4.060000E+03	4.066366E-16	1.800945E-17
4.070000E+03	4.079843E-16	1.797409E-17
4.080000E+03	4.091455E-16	1.793074E-17
4.090000E+03	4.101076E-16	1.787885E-17
4.100000E+03	4.108796E-16	1.781879E-17
4.110000E+03	4.114538E-16	1.775018E-17
4.120000E+03	4.118434E-16	1.767358E-17
4.130000E+03	4.120368E-16	1.758844E-17
4.140000E+03	4.120430E-16	1.749512E-17
4.150000E+03	4.118814E-16	1.739443E-17
4.160000E+03	4.115479E-16	1.728616E-17
4.170000E+03	4.110736E-16	1.717163E-17
4.180000E+03	4.104499E-16	1.705050E-17
4.190000E+03	4.097028E-16	1.692391E-17
4.200000E+03	4.088506E-16	1.679273E-17
4.210000E+03	4.079052E-16	1.665762E-17
4.220000E+03	4.068793E-16	1.651930E-17
4.230000E+03	4.058010E-16	1.637925E-17
4.240000E+03	4.046693E-16	1.623779E-17
4.250000E+03	4.035198E-16	1.609684E-17
4.260000E+03	4.023592E-16	1.595721E-17
4.270000E+03	4.012080E-16	1.582037E-17
4.280000E+03	4.000795E-16	1.568754E-17
4.290000E+03	3.989866E-16	1.556003E-17
4.300000E+03	3.979415E-16	1.543912E-17
4.310000E+03	3.969687E-16	1.532661E-17
4.320000E+03	3.960659E-16	1.522322E-17
4.330000E+03	3.952492E-16	1.513033E-17
4.340000E+03	3.945270E-16	1.504897E-17
4.350000E+03	3.939069E-16	1.497994E-17
4.360000E+03	3.933948E-16	1.492387E-17
4.370000E+03	3.929954E-16	1.488109E-17
4.380000E+03	3.927062E-16	1.485146E-17
4.390000E+03	3.925345E-16	1.483494E-17
4.400000E+03	3.924688E-16	1.483055E-17
4.410000E+03	3.925186E-16	1.483786E-17
4.420000E+03	3.926745E-16	1.485552E-17
4.430000E+03	3.929257E-16	1.488199E-17
4.440000E+03	3.932651E-16	1.491575E-17
4.450000E+03	3.936943E-16	1.495552E-17
4.460000E+03	3.941918E-16	1.499913E-17
4.470000E+03	3.947554E-16	1.504517E-17
4.480000E+03	3.953758E-16	1.509198E-17
4.490000E+03	3.960420E-16	1.513795E-17
4.500000E+03	3.967362E-16	1.518130E-17
4.510000E+03	3.974495E-16	1.522071E-17
4.520000E+03	3.981714E-16	1.525498E-17
4.530000E+03	3.988753E-16	1.528241E-17
4.540000E+03	3.995491E-16	1.530204E-17
4.550000E+03	4.001749E-16	1.531287E-17
4.560000E+03	4.007396E-16	1.531427E-17
4.570000E+03	4.012202E-16	1.530539E-17
4.580000E+03	4.016043E-16	1.528599E-17
4.590000E+03	4.018751E-16	1.525582E-17
4.600000E+03	4.020171E-16	1.521491E-17
4.610000E+03	4.020113E-16	1.516329E-17
4.620000E+03	4.018552E-16	1.510182E-17
4.630000E+03	4.015340E-16	1.503103E-17
4.640000E+03	4.010398E-16	1.495188E-17
4.650000E+03	4.003724E-16	1.486570E-17
4.660000E+03	3.995292E-16	1.477388E-17
4.670000E+03	3.985150E-16	1.467812E-17
4.680000E+03	3.973284E-16	1.457990E-17
4.690000E+03	3.959796E-16	1.448114E-17
4.700000E+03	3.944816E-16	1.438375E-17
4.710000E+03	3.928494E-16	1.428964E-17
4.720000E+03	3.911002E-16	1.420058E-17
4.730000E+03	3.892528E-16	1.411820E-17
4.740000E+03	3.873320E-16	1.404404E-17
4.750000E+03	3.853632E-16	1.397939E-17
4.760000E+03	3.833768E-16	1.392537E-17
4.770000E+03	3.814074E-16	1.388287E-17
4.780000E+03	3.794806E-16	1.385219E-17
4.790000E+03	3.776049E-16	1.383276E-17
4.800000E+03	3.757927E-16	1.382397E-17
4.810000E+03	3.740396E-16	1.382442E-17
4.820000E+03	3.723567E-16	1.383326E-17
4.830000E+03	3.707541E-16	1.384951E-17
4.840000E+03	3.692324E-16	1.387190E-17
4.850000E+03	3.678066E-16	1.389972E-17
4.860000E+03	3.664779E-16	1.393182E-17
4.870000E+03	3.652535E-16	1.396738E-17
4.880000E+03	3.641423E-16	1.400574E-17
4.890000E+03	3.631434E-16	1.404600E-17
4.900000E+03	3.622538E-16	1.408727E-17
4.910000E+03	3.614800E-16	1.412915E-17
4.920000E+03	3.608153E-16	1.417083E-17
4.930000E+03	3.602587E-16	1.421179E-17
4.940000E+03	3.598001E-16	1.425127E-17
4.950000E+03	3.594357E-16	1.428879E-17
4.960000E+03	3.591607E-16	1.432392E-17
4.970000E+03	3.589618E-16	1.435591E-17
4.980000E+03	3.588364E-16	1.438448E-17
4.990000E+03	3.587708E-16	1.440893E-17
5.000000E+03	3.587547E-16	1.442867E-17
5.010000E+03	3.587820E-16	1.444333E-17
5.020000E+03	3.588469E-16	1.445251E-17
5.030000E+03	3.589409E-16	1.445569E-17
5.040000E+03	3.590524E-16	1.445222E-17
5.050000E+03	3.591819E-16	1.444189E-17
5.060000E+03	3.593199E-16	1.442411E-17
5.070000E+03	3.594654E-16	1.439856E-17
5.080000E+03	3.596145E-16	1.436482E-17
5.090000E+03	3.597644E-16	1.432250E-17
5.100000E+03	3.599169E-16	1.427137E-17
5.110000E+03	3.600668E-16	1.421096E-17
5.120000E+03	3.602172E-16	1.414110E-17
5.130000E+03	3.603679E-16	1.406153E-17
5.140000E+03	3.605187E-16	1.397205E-17
5.150000E+03	3.606735E-16	1.387263E-17
5.160000E+03	3.608286E-16	1.376304E-17
5.170000E+03	3.609837E-16	1.364326E-17
5.180000E+03	3.611423E-16	1.351352E-17
5.190000E+03	3.613033E-16	1.337399E-17
5.200000E+03	3.614617E-16	1.322488E-17
5.210000E+03	3.616230E-16	1.306695E-17
5.220000E+03	3.617736E-16	1.290048E-17
5.230000E+03	3.619214E-16	1.272676E-17
5.240000E+03	3.620589E-16	1.254682E-17
5.250000E+03	3.621780E-16	1.236199E-17
5.260000E+03	3.622774E-16	1.217415E-17
5.270000E+03	3.623514E-16	1.198541E-17
5.280000E+03	3.623940E-16	1.179823E-17
5.290000E+03	3.623987E-16	1.161540E-17
5.300000E+03	3.623547E-16	1.143996E-17
5.310000E+03	3.622584E-16	1.127543E-17
5.320000E+03	3.621021E-16	1.112539E-17
5.330000E+03	3.618742E-16	1.099336E-17
5.340000E+03	3.615700E-16	1.088289E-17
5.350000E+03	3.611809E-16	1.079703E-17
5.360000E+03	3.606976E-16	1.073815E-17
5.370000E+03	3.601102E-16	1.070758E-17
5.380000E+03	3.594078E-16	1.070538E-17
5.390000E+03	3.585785E-16	1.073013E-17
5.400000E+03	3.576133E-16	1.077922E-17
5.410000E+03	3.564998E-16	1.084905E-17
5.420000E+03	3.552295E-16	1.093552E-17
5.430000E+03	3.537913E-16	1.103416E-17
5.440000E+03	3.521792E-16	1.114059E-17
5.450000E+03	3.503884E-16	1.125065E-17
5.460000E+03	3.484164E-16	1.136049E-17
5.470000E+03	3.462624E-16	1.146674E-17
5.480000E+03	3.439244E-16	1.156642E-17
5.490000E+03	3.414063E-16	1.165716E-17
5.500000E+03	3.387107E-16	1.173705E-17
5.510000E+03	3.358463E-16	1.180476E-17
5.520000E+03	3.328106E-16	1.185901E-17
5.530000E+03	3.296203E-16	1.189951E-17
5.540000E+03	3.262843E-16	1.192604E-17
5.550000E+03	3.228108E-16	1.193859E-17
5.560000E+03	3.192161E-16	1.193770E-17
5.570000E+03	3.155186E-16	1.192416E-17
5.580000E+03	3.117318E-16	1.189872E-17
5.590000E+03	3.078798E-16	1.186264E-17
5.600000E+03	3.039814E-16	1.181707E-17
5.610000E+03	3.000590E-16	1.176335E-17
5.620000E+03	2.961355E-16	1.170284E-17
5.630000E+03	2.922332E-16	1.163693E-17
5.640000E+03	2.883687E-16	1.156671E-17
5.650000E+03	2.845720E-16	1.149381E-17
5.660000E+03	2.808578E-16	1.141923E-17
5.670000E+03	2.772457E-16	1.134406E-17
5.680000E+03	2.737559E-16	1.126942E-17
5.690000E+03	2.704022E-16	1.119609E-17
5.700000E+03	2.671988E-16	1.112484E-17
5.710000E+03	2.641610E-16	1.105639E-17
5.720000E+03	2.612993E-16	1.099127E-17
5.730000E+03	2.586196E-16	1.092974E-17
5.740000E+03	2.561309E-16	1.087219E-17
5.750000E+03	2.538353E-16	1.081864E-17
5.760000E+03	2.517377E-16	1.076926E-17
5.770000E+03	2.498389E-16	1.072399E-17
5.780000E+03	2.481375E-16	1.068269E-17
5.790000E+03	2.466284E-16	1.064504E-17
5.800000E+03	2.453097E-16	1.061085E-17
5.810000E+03	2.441757E-16	1.057978E-17
5.820000E+03	2.432193E-16	1.055145E-17
5.830000E+03	2.424302E-16	1.052533E-17
5.840000E+03	2.418020E-16	1.050108E-17
5.850000E+03	2.413275E-16	1.047835E-17
5.860000E+03	2.409896E-16	1.045639E-17
5.870000E+03	2.407852E-16	1.043506E-17
5.880000E+03	2.406990E-16	1.041374E-17
5.890000E+03	2.407256E-16	1.039226E-17
5.900000E+03	2.408477E-16	1.036997E-17
5.910000E+03	2.410630E-16	1.034689E-17
5.920000E+03	2.413553E-16	1.032248E-17
5.930000E+03	2.417234E-16	1.029685E-17
5.940000E+03	2.421529E-16	1.026961E-17
5.950000E+03	2.426422E-16	1.024088E-17
5.960000E+03	2.431835E-16	1.021060E-17
5.970000E+03	2.437726E-16	1.017882E-17
5.980000E+03	2.444067E-16	1.014568E-17
5.990000E+03	2.450838E-16	1.011135E-17
6.000000E+03	2.458010E-16	1.007596E-17
6.010000E+03	2.465587E-16	1.003978E-17
6.020000E+03	2.473612E-16	1.000321E-17
6.030000E+03	2.482062E-16	9.966383E-18
6.040000E+03	2.490996E-16	9.929776E-18
6.050000E+03	2.500433E-16	9.893679E-18
6.060000E+03	2.510398E-16	9.858413E-18
6.070000E+03	2.520967E-16	9.824517E-18
6.080000E+03	2.532147E-16	9.792265E-18
6.090000E+03	2.544016E-16	9.762245E-18
6.100000E+03	2.556603E-16	9.734880E-18
6.110000E+03	2.569931E-16	9.710620E-18
6.120000E+03	2.584039E-16	9.690041E-18
6.130000E+03	2.598934E-16	9.673650E-18
6.140000E+03	2.614634E-16	9.662075E-18
6.150000E+03	2.631197E-16	9.656158E-18
6.160000E+03	2.648562E-16	9.656368E-18
6.170000E+03	2.666832E-16	9.663847E-18
6.180000E+03	2.686043E-16	9.679532E-18
6.190000E+03	2.706080E-16	9.703845E-18
6.200000E+03	2.726750E-16	9.736946E-18
6.210000E+03	2.747944E-16	9.779278E-18
6.220000E+03	2.769509E-16	9.831047E-18
6.230000E+03	2.791270E-16	9.892263E-18
6.240000E+03	2.813119E-16	9.962993E-18
6.250000E+03	2.834830E-16	1.004258E-17
6.260000E+03	2.856281E-16	1.013042E-17
6.270000E+03	2.877317E-16	1.022556E-17
6.280000E+03	2.897684E-16	1.032652E-17
6.290000E+03	2.917268E-16	1.043215E-17
6.300000E+03	2.935831E-16	1.054079E-17
6.310000E+03	2.953164E-16	1.065080E-17
6.320000E+03	2.969088E-16	1.076063E-17
6.330000E+03	2.983399E-16	1.086864E-17
6.340000E+03	2.995900E-16	1.097324E-17
6.350000E+03	3.006407E-16	1.107296E-17
6.360000E+03	3.014748E-16	1.116645E-17
6.370000E+03	3.020773E-16	1.125250E-17
6.380000E+03	3.024381E-16	1.133021E-17
6.390000E+03	3.025405E-16	1.139853E-17
6.400000E+03	3.023826E-16	1.145706E-17
6.410000E+03	3.019528E-16	1.150514E-17
6.420000E+03	3.012549E-16	1.154278E-17
6.430000E+03	3.002799E-16	1.156958E-17
6.440000E+03	2.990403E-16	1.158602E-17
6.450000E+03	2.975329E-16	1.159202E-17
6.460000E+03	2.957691E-16	1.158809E-17
6.470000E+03	2.937599E-16	1.157472E-17
6.480000E+03	2.915153E-16	1.155238E-17
6.490000E+03	2.890533E-16	1.152178E-17
6.500000E+03	2.863874E-16	1.148343E-17
6.510000E+03	2.835382E-16	1.143809E-17
6.520000E+03	2.805243E-16	1.138636E-17
6.530000E+03	2.773651E-16	1.132881E-17
6.540000E+03	2.740798E-16	1.126595E-17
6.550000E+03	2.706908E-16	1.119836E-17
6.560000E+03	2.672175E-16	1.112645E-17
6.570000E+03	2.636783E-16	1.105056E-17
6.580000E+03	2.600971E-16	1.097122E-17
6.590000E+03	2.564911E-16	1.088869E-17
6.600000E+03	2.528737E-16	1.080307E-17
6.610000E+03	2.492687E-16	1.071488E-17
6.620000E+03	2.456851E-16	1.062409E-17
6.630000E+03	2.421417E-16	1.053107E-17
6.640000E+03	2.386510E-16	1.043602E-17
6.650000E+03	2.352248E-16	1.033912E-17
6.660000E+03	2.318765E-16	1.024068E-17
6.670000E+03	2.286134E-16	1.014080E-17
6.680000E+03	2.254501E-16	1.003998E-17
6.690000E+03	2.223950E-16	9.938470E-18
6.700000E+03	2.194536E-16	9.836464E-18
6.710000E+03	2.166359E-16	9.734394E-18
6.720000E+03	2.139485E-16	9.632604E-18
6.730000E+03	2.113979E-16	9.531459E-18
6.740000E+03	2.089947E-16	9.431560E-18
6.750000E+03	2.067395E-16	9.333090E-18
6.760000E+03	2.046397E-16	9.236571E-18
6.770000E+03	2.026997E-16	9.142434E-18
6.780000E+03	2.009239E-16	9.051116E-18
6.790000E+03	1.993183E-16	8.963170E-18
6.800000E+03	1.978841E-16	8.878947E-18
6.810000E+03	1.966266E-16	8.799007E-18
6.820000E+03	1.955464E-16	8.723708E-18
6.830000E+03	1.946504E-16	8.653709E-18
6.840000E+03	1.939360E-16	8.589256E-18
6.850000E+03	1.934094E-16	8.530989E-18
6.860000E+03	1.930672E-16	8.479129E-18
6.870000E+03	1.929147E-16	8.434280E-18
6.880000E+03	1.929500E-16	8.396720E-18
6.890000E+03	1.931730E-16	8.366798E-18
6.900000E+03	1.935851E-16	8.344929E-18
6.910000E+03	1.941830E-16	8.331294E-18
6.920000E+03	1.949649E-16	8.326133E-18
6.930000E+03	1.959307E-16	8.329743E-18
6.940000E+03	1.970753E-16	8.342176E-18
6.950000E+03	1.983977E-16	8.363638E-18
6.960000E+03	1.998915E-16	8.394087E-18
6.970000E+03	2.015547E-16	8.433634E-18
6.980000E+03	2.033825E-16	8.482240E-18
6.990000E+03	2.053643E-16	8.539606E-18
7.000000E+03	2.075021E-16	8.605901E-18
7.010000E+03	2.097847E-16	8.680723E-18
7.020000E+03	2.122055E-16	8.763820E-18
7.030000E+03	2.147579E-16	8.854886E-18
7.040000E+03	2.174374E-16	8.953668E-18
7.050000E+03	2.202341E-16	9.059635E-18
7.060000E+03	2.231433E-16	9.172413E-18
7.070000E+03	2.261541E-16	9.291344E-18
7.080000E+03	2.292556E-16	9.415692E-18
7.090000E+03	2.324444E-16	9.545005E-18
7.100000E+03	2.357085E-16	9.678413E-18
7.110000E+03	2.390377E-16	9.815093E-18
7.120000E+03	2.424210E-16	9.954152E-18
7.130000E+03	2.458435E-16	1.009451E-17
7.140000E+03	2.492952E-16	1.023526E-17
7.150000E+03	2.527618E-16	1.037533E-17
7.160000E+03	2.562248E-16	1.051347E-17
7.170000E+03	2.596673E-16	1.064851E-17
7.180000E+03	2.630742E-16	1.077941E-17
7.190000E+03	2.664228E-16	1.090482E-17
7.200000E+03	2.696925E-16	1.102357E-17
7.210000E+03	2.728580E-16	1.113433E-17
7.220000E+03	2.759036E-16	1.123625E-17
7.230000E+03	2.787993E-16	1.132797E-17
7.240000E+03	2.815253E-16	1.140864E-17
7.250000E+03	2.840548E-16	1.147720E-17
7.260000E+03	2.863651E-16	1.153283E-17
7.270000E+03	2.884385E-16	1.157500E-17
7.280000E+03	2.902475E-16	1.160284E-17
7.290000E+03	2.917816E-16	1.161622E-17
7.300000E+03	2.930174E-16	1.161458E-17
7.310000E+03	2.939461E-16	1.159795E-17
7.320000E+03	2.945541E-16	1.156621E-17
7.330000E+03	2.948388E-16	1.151970E-17
7.340000E+03	2.947938E-16	1.145866E-17
7.350000E+03	2.944240E-16	1.138376E-17
7.360000E+03	2.937263E-16	1.129539E-17
7.370000E+03	2.927130E-16	1.119456E-17
7.380000E+03	2.913956E-16	1.108229E-17
7.390000E+03	2.897893E-16	1.095973E-17
7.400000E+03	2.879041E-16	1.082792E-17
7.410000E+03	2.857641E-16	1.068843E-17
7.420000E+03	2.833879E-16	1.054267E-17
7.430000E+03	2.807958E-16	1.039216E-17
7.440000E+03	2.780131E-16	1.023860E-17
7.450000E+03	2.750693E-16	1.008389E-17
7.460000E+03	2.719907E-16	9.929802E-18
7.470000E+03	2.688032E-16	9.778061E-18
7.480000E+03	2.655361E-16	9.630471E-18
7.490000E+03	2.622106E-16	9.488474E-18
7.500000E+03	2.588505E-16	9.353498E-18
7.510000E+03	2.554817E-16	9.226901E-18
7.520000E+03	2.521255E-16	9.109692E-18
7.530000E+03	2.487980E-16	9.002487E-18
7.540000E+03	2.455210E-16	8.905826E-18
7.550000E+03	2.423115E-16	8.819739E-18
7.560000E+03	2.391852E-16	8.743941E-18
7.570000E+03	2.361559E-16	8.677936E-18
7.580000E+03	2.332353E-16	8.621079E-18
7.590000E+03	2.304331E-16	8.572633E-18
7.600000E+03	2.277597E-16	8.531925E-18
7.610000E+03	2.252144E-16	8.497928E-18
7.620000E+03	2.228066E-16	8.470078E-18
7.630000E+03	2.205373E-16	8.447610E-18
7.640000E+03	2.184029E-16	8.429688E-18
7.650000E+03	2.164037E-16	8.415737E-18
7.660000E+03	2.145355E-16	8.405116E-18
7.670000E+03	2.127896E-16	8.397110E-18
7.680000E+03	2.111643E-16	8.391376E-18
7.690000E+03	2.096454E-16	8.387152E-18
7.700000E+03	2.082260E-16	8.384036E-18
7.710000E+03	2.068981E-16	8.381645E-18
7.720000E+03	2.056444E-16	8.379275E-18
7.730000E+03	2.044583E-16	8.376682E-18
7.740000E+03	2.033241E-16	8.373293E-18
7.750000E+03	2.022289E-16	8.368657E-18
7.760000E+03	2.011592E-16	8.362331E-18
