#wls	flux	fluxerr
1.600000E+03	2.891820E-16	1.973148E-16
1.640000E+03	2.958282E-16	1.988848E-16
1.680000E+03	3.024706E-16	2.002467E-16
1.720000E+03	3.090861E-16	2.013801E-16
1.760000E+03	3.156496E-16	2.022646E-16
1.800000E+03	3.221934E-16	2.029169E-16
1.840000E+03	3.286317E-16	2.032792E-16
1.880000E+03	3.349945E-16	2.033685E-16
1.920000E+03	3.412521E-16	2.031647E-16
1.960000E+03	3.473726E-16	2.026481E-16
2.000000E+03	3.533221E-16	2.018000E-16
2.040000E+03	3.591288E-16	2.006382E-16
2.080000E+03	3.647568E-16	1.991448E-16
2.120000E+03	3.701687E-16	1.973031E-16
2.160000E+03	3.753898E-16	1.951318E-16
2.200000E+03	3.803147E-16	1.925826E-16
2.240000E+03	3.850311E-16	1.897087E-16
2.280000E+03	3.894302E-16	1.864652E-16
2.320000E+03	3.935317E-16	1.828741E-16
2.360000E+03	3.973534E-16	1.789560E-16
2.400000E+03	4.008461E-16	1.747024E-16
2.440000E+03	4.039589E-16	1.701081E-16
2.480000E+03	4.067033E-16	1.651975E-16
2.520000E+03	4.090877E-16	1.599941E-16
2.560000E+03	4.110548E-16	1.544977E-16
2.600000E+03	4.126686E-16	1.487567E-16
2.640000E+03	4.138655E-16	1.427729E-16
2.680000E+03	4.146405E-16	1.365729E-16
2.720000E+03	4.149847E-16	1.301841E-16
2.760000E+03	4.149413E-16	1.236514E-16
2.800000E+03	4.144898E-16	1.170011E-16
2.840000E+03	4.135534E-16	1.102470E-16
2.880000E+03	4.122132E-16	1.034496E-16
2.920000E+03	4.104859E-16	9.665080E-17
2.960000E+03	4.083805E-16	8.989144E-17
3.000000E+03	4.058535E-16	8.320302E-17
3.010000E+03	4.051458E-16	8.154506E-17
3.020000E+03	4.044274E-16	7.989818E-17
3.030000E+03	4.036966E-16	7.826251E-17
3.040000E+03	4.029514E-16	7.663829E-17
3.050000E+03	4.021469E-16	7.501769E-17
3.060000E+03	4.013682E-16	7.341738E-17
3.070000E+03	4.005277E-16	7.182180E-17
3.080000E+03	3.996669E-16	7.023938E-17
3.090000E+03	3.988255E-16	6.867760E-17
3.100000E+03	3.979191E-16	6.712248E-17
3.110000E+03	3.970280E-16	6.558844E-17
3.120000E+03	3.961097E-16	6.406892E-17
3.130000E+03	3.951628E-16	6.256446E-17
3.140000E+03	3.941861E-16	6.107561E-17
3.150000E+03	3.932166E-16	5.960879E-17
3.160000E+03	3.922138E-16	5.815841E-17
3.170000E+03	3.911768E-16	5.672513E-17
3.180000E+03	3.901413E-16	5.531484E-17
3.190000E+03	3.891048E-16	5.392768E-17
3.200000E+03	3.880293E-16	5.255898E-17
3.210000E+03	3.869491E-16	5.121416E-17
3.220000E+03	3.858623E-16	4.989346E-17
3.230000E+03	3.847665E-16	4.859716E-17
3.240000E+03	3.836262E-16	4.732141E-17
3.250000E+03	3.824741E-16	4.607100E-17
3.260000E+03	3.813410E-16	4.485014E-17
3.270000E+03	3.801594E-16	4.365134E-17
3.280000E+03	3.789924E-16	4.248254E-17
3.290000E+03	3.778059E-16	4.134027E-17
3.300000E+03	3.766291E-16	4.022825E-17
3.310000E+03	3.753987E-16	3.914015E-17
3.320000E+03	3.742044E-16	3.808589E-17
3.330000E+03	3.729542E-16	3.705636E-17
3.340000E+03	3.717352E-16	3.606073E-17
3.350000E+03	3.704868E-16	3.509330E-17
3.360000E+03	3.692363E-16	3.415700E-17
3.370000E+03	3.679819E-16	3.325184E-17
3.380000E+03	3.667217E-16	3.237782E-17
3.390000E+03	3.654541E-16	3.153489E-17
3.400000E+03	3.642040E-16	3.072519E-17
3.410000E+03	3.629175E-16	2.994410E-17
3.420000E+03	3.616455E-16	2.919579E-17
3.430000E+03	3.603860E-16	2.847980E-17
3.440000E+03	3.591129E-16	2.779376E-17
3.450000E+03	3.578501E-16	2.713915E-17
3.460000E+03	3.565728E-16	2.651364E-17
3.470000E+03	3.553279E-16	2.592013E-17
3.480000E+03	3.540682E-16	2.535448E-17
3.490000E+03	3.528395E-16	2.481925E-17
3.500000E+03	3.516188E-16	2.431194E-17
3.510000E+03	3.504069E-16	2.383170E-17
3.520000E+03	3.492259E-16	2.337904E-17
3.530000E+03	3.480760E-16	2.295289E-17
3.540000E+03	3.469376E-16	2.255082E-17
3.550000E+03	3.458327E-16	2.217315E-17
3.560000E+03	3.447629E-16	2.181877E-17
3.570000E+03	3.437299E-16	2.148655E-17
3.580000E+03	3.427360E-16	2.117542E-17
3.590000E+03	3.418024E-16	2.088543E-17
3.600000E+03	3.409127E-16	2.061433E-17
3.610000E+03	3.400704E-16	2.036111E-17
3.620000E+03	3.393139E-16	2.012688E-17
3.630000E+03	3.386110E-16	1.990851E-17
3.640000E+03	3.379826E-16	1.970610E-17
3.650000E+03	3.374487E-16	1.951971E-17
3.660000E+03	3.369795E-16	1.934652E-17
3.670000E+03	3.366117E-16	1.918762E-17
3.680000E+03	3.363482E-16	1.904219E-17
3.690000E+03	3.361766E-16	1.890859E-17
3.700000E+03	3.361313E-16	1.878786E-17
3.710000E+03	3.361844E-16	1.867759E-17
3.720000E+03	3.363542E-16	1.857803E-17
3.730000E+03	3.366434E-16	1.848858E-17
3.740000E+03	3.370683E-16	1.840946E-17
3.750000E+03	3.376163E-16	1.833933E-17
3.760000E+03	3.383024E-16	1.827842E-17
3.770000E+03	3.391268E-16	1.822622E-17
3.780000E+03	3.400758E-16	1.818148E-17
3.790000E+03	3.411753E-16	1.814518E-17
3.800000E+03	3.424096E-16	1.811610E-17
3.810000E+03	3.437761E-16	1.809375E-17
3.820000E+03	3.452709E-16	1.807767E-17
3.830000E+03	3.469021E-16	1.806804E-17
3.840000E+03	3.486510E-16	1.806370E-17
3.850000E+03	3.505231E-16	1.806480E-17
3.860000E+03	3.525220E-16	1.807143E-17
3.870000E+03	3.546140E-16	1.808179E-17
3.880000E+03	3.568008E-16	1.809597E-17
3.890000E+03	3.590709E-16	1.811337E-17
3.900000E+03	3.614114E-16	1.813340E-17
3.910000E+03	3.638204E-16	1.815602E-17
3.920000E+03	3.662714E-16	1.817999E-17
3.930000E+03	3.687494E-16	1.820464E-17
3.940000E+03	3.712494E-16	1.822984E-17
3.950000E+03	3.737436E-16	1.825432E-17
3.960000E+03	3.762261E-16	1.827788E-17
3.970000E+03	3.786796E-16	1.829976E-17
3.980000E+03	3.810761E-16	1.831871E-17
3.990000E+03	3.834096E-16	1.833448E-17
4.000000E+03	3.856532E-16	1.834584E-17
4.010000E+03	3.878015E-16	1.835259E-17
4.020000E+03	3.898396E-16	1.835402E-17
4.030000E+03	3.917438E-16	1.834902E-17
4.040000E+03	3.935118E-16	1.833748E-17
4.050000E+03	3.951133E-16	1.831795E-17
4.060000E+03	3.965686E-16	1.829133E-17
4.070000E+03	3.978416E-16	1.825591E-17
4.080000E+03	3.989464E-16	1.821227E-17
4.090000E+03	3.998613E-16	1.815934E-17
4.100000E+03	4.006039E-16	1.809785E-17
4.110000E+03	4.011576E-16	1.802696E-17
4.120000E+03	4.015261E-16	1.794679E-17
4.130000E+03	4.017242E-16	1.785789E-17
4.140000E+03	4.017424E-16	1.775981E-17
4.150000E+03	4.016078E-16	1.765368E-17
4.160000E+03	4.013151E-16	1.753926E-17
4.170000E+03	4.008701E-16	1.741682E-17
4.180000E+03	4.003038E-16	1.728775E-17
4.190000E+03	3.996167E-16	1.715217E-17
4.200000E+03	3.988264E-16	1.701101E-17
4.210000E+03	3.979512E-16	1.686528E-17
4.220000E+03	3.970029E-16	1.671579E-17
4.230000E+03	3.960010E-16	1.656376E-17
4.240000E+03	3.949586E-16	1.641023E-17
4.250000E+03	3.938888E-16	1.625636E-17
4.260000E+03	3.928120E-16	1.610367E-17
4.270000E+03	3.917483E-16	1.595380E-17
4.280000E+03	3.907040E-16	1.580788E-17
4.290000E+03	3.896986E-16	1.566768E-17
4.300000E+03	3.887506E-16	1.553499E-17
4.310000E+03	3.878590E-16	1.541083E-17
4.320000E+03	3.870475E-16	1.529721E-17
4.330000E+03	3.863197E-16	1.519530E-17
4.340000E+03	3.856908E-16	1.510665E-17
4.350000E+03	3.851624E-16	1.503211E-17
4.360000E+03	3.847412E-16	1.497252E-17
4.370000E+03	3.844264E-16	1.492820E-17
4.380000E+03	3.842327E-16	1.489977E-17
4.390000E+03	3.841447E-16	1.488632E-17
4.400000E+03	3.841676E-16	1.488745E-17
4.410000E+03	3.842937E-16	1.490192E-17
4.420000E+03	3.845190E-16	1.492839E-17
4.430000E+03	3.848268E-16	1.496484E-17
4.440000E+03	3.852151E-16	1.500966E-17
4.450000E+03	3.856692E-16	1.506066E-17
4.460000E+03	3.861832E-16	1.511601E-17
4.470000E+03	3.867495E-16	1.517380E-17
4.480000E+03	3.873589E-16	1.523214E-17
4.490000E+03	3.880055E-16	1.528938E-17
4.500000E+03	3.886721E-16	1.534355E-17
4.510000E+03	3.893550E-16	1.539336E-17
4.520000E+03	3.900347E-16	1.543706E-17
4.530000E+03	3.907006E-16	1.547344E-17
4.540000E+03	3.913366E-16	1.550124E-17
4.550000E+03	3.919263E-16	1.551938E-17
4.560000E+03	3.924577E-16	1.552718E-17
4.570000E+03	3.929146E-16	1.552395E-17
4.580000E+03	3.932809E-16	1.550923E-17
4.590000E+03	3.935462E-16	1.548298E-17
4.600000E+03	3.936963E-16	1.544521E-17
4.610000E+03	3.937137E-16	1.539599E-17
4.620000E+03	3.935965E-16	1.533623E-17
4.630000E+03	3.933355E-16	1.526669E-17
4.640000E+03	3.929233E-16	1.518840E-17
4.650000E+03	3.923548E-16	1.510263E-17
4.660000E+03	3.916317E-16	1.501104E-17
4.670000E+03	3.907583E-16	1.491547E-17
4.680000E+03	3.897319E-16	1.481757E-17
4.690000E+03	3.885659E-16	1.471961E-17
4.700000E+03	3.872712E-16	1.462371E-17
4.710000E+03	3.858476E-16	1.453146E-17
4.720000E+03	3.843234E-16	1.444537E-17
4.730000E+03	3.827020E-16	1.436674E-17
4.740000E+03	3.810017E-16	1.429716E-17
4.750000E+03	3.792416E-16	1.423787E-17
4.760000E+03	3.774333E-16	1.418939E-17
4.770000E+03	3.755934E-16	1.415201E-17
4.780000E+03	3.737301E-16	1.412531E-17
4.790000E+03	3.718645E-16	1.410905E-17
4.800000E+03	3.700170E-16	1.410275E-17
4.810000E+03	3.682070E-16	1.410575E-17
4.820000E+03	3.664492E-16	1.411713E-17
4.830000E+03	3.647609E-16	1.413605E-17
4.840000E+03	3.631499E-16	1.416134E-17
4.850000E+03	3.616267E-16	1.419201E-17
4.860000E+03	3.601999E-16	1.422710E-17
4.870000E+03	3.588726E-16	1.426554E-17
4.880000E+03	3.576537E-16	1.430661E-17
4.890000E+03	3.565428E-16	1.434935E-17
4.900000E+03	3.555451E-16	1.439315E-17
4.910000E+03	3.546565E-16	1.443715E-17
4.920000E+03	3.538754E-16	1.448067E-17
4.930000E+03	3.532020E-16	1.452322E-17
4.940000E+03	3.526280E-16	1.456403E-17
4.950000E+03	3.521512E-16	1.460266E-17
4.960000E+03	3.517650E-16	1.463853E-17
4.970000E+03	3.514616E-16	1.467107E-17
4.980000E+03	3.512332E-16	1.469973E-17
4.990000E+03	3.510749E-16	1.472410E-17
5.000000E+03	3.509784E-16	1.474364E-17
5.010000E+03	3.509353E-16	1.475782E-17
5.020000E+03	3.509411E-16	1.476626E-17
5.030000E+03	3.509809E-16	1.476812E-17
5.040000E+03	3.510586E-16	1.476336E-17
5.050000E+03	3.511641E-16	1.475132E-17
5.060000E+03	3.512916E-16	1.473151E-17
5.070000E+03	3.514399E-16	1.470362E-17
5.080000E+03	3.516011E-16	1.466703E-17
5.090000E+03	3.517753E-16	1.462147E-17
5.100000E+03	3.519596E-16	1.456653E-17
5.110000E+03	3.521554E-16	1.450198E-17
5.120000E+03	3.523572E-16	1.442732E-17
5.130000E+03	3.525672E-16	1.434240E-17
5.140000E+03	3.527806E-16	1.424681E-17
5.150000E+03	3.529999E-16	1.414051E-17
5.160000E+03	3.532240E-16	1.402334E-17
5.170000E+03	3.534519E-16	1.389529E-17
5.180000E+03	3.536856E-16	1.375654E-17
5.190000E+03	3.539163E-16	1.360700E-17
5.200000E+03	3.541492E-16	1.344729E-17
5.210000E+03	3.543746E-16	1.327765E-17
5.220000E+03	3.545967E-16	1.309907E-17
5.230000E+03	3.548120E-16	1.291253E-17
5.240000E+03	3.550094E-16	1.271901E-17
5.250000E+03	3.551913E-16	1.252036E-17
5.260000E+03	3.553491E-16	1.231836E-17
5.270000E+03	3.554772E-16	1.211531E-17
5.280000E+03	3.555731E-16	1.191402E-17
5.290000E+03	3.556230E-16	1.171731E-17
5.300000E+03	3.556235E-16	1.152874E-17
5.310000E+03	3.555708E-16	1.135213E-17
5.320000E+03	3.554464E-16	1.119100E-17
5.330000E+03	3.552529E-16	1.104957E-17
5.340000E+03	3.549747E-16	1.093129E-17
5.350000E+03	3.546066E-16	1.083944E-17
5.360000E+03	3.541392E-16	1.077648E-17
5.370000E+03	3.535559E-16	1.074358E-17
5.380000E+03	3.528537E-16	1.074108E-17
5.390000E+03	3.520222E-16	1.076767E-17
5.400000E+03	3.510437E-16	1.082055E-17
5.410000E+03	3.499186E-16	1.089651E-17
5.420000E+03	3.486301E-16	1.099113E-17
5.430000E+03	3.471730E-16	1.109993E-17
5.440000E+03	3.455431E-16	1.121835E-17
5.450000E+03	3.437379E-16	1.134197E-17
5.460000E+03	3.417563E-16	1.146667E-17
5.470000E+03	3.395992E-16	1.158879E-17
5.480000E+03	3.372760E-16	1.170539E-17
5.490000E+03	3.347879E-16	1.181374E-17
5.500000E+03	3.321449E-16	1.191190E-17
5.510000E+03	3.293426E-16	1.199785E-17
5.520000E+03	3.263950E-16	1.207067E-17
5.530000E+03	3.232989E-16	1.212919E-17
5.540000E+03	3.200663E-16	1.217311E-17
5.550000E+03	3.167108E-16	1.220251E-17
5.560000E+03	3.132384E-16	1.221741E-17
5.570000E+03	3.096695E-16	1.221861E-17
5.580000E+03	3.060222E-16	1.220698E-17
5.590000E+03	3.023156E-16	1.218356E-17
5.600000E+03	2.985638E-16	1.214931E-17
5.610000E+03	2.947930E-16	1.210572E-17
5.620000E+03	2.910207E-16	1.205398E-17
5.630000E+03	2.872699E-16	1.199555E-17
5.640000E+03	2.835576E-16	1.193161E-17
5.650000E+03	2.799056E-16	1.186355E-17
5.660000E+03	2.763294E-16	1.179245E-17
5.670000E+03	2.728487E-16	1.171956E-17
5.680000E+03	2.694766E-16	1.164579E-17
5.690000E+03	2.662325E-16	1.157229E-17
5.700000E+03	2.631239E-16	1.149965E-17
5.710000E+03	2.601670E-16	1.142879E-17
5.720000E+03	2.573660E-16	1.136005E-17
5.730000E+03	2.547334E-16	1.129413E-17
5.740000E+03	2.522726E-16	1.123128E-17
5.750000E+03	2.499901E-16	1.117183E-17
5.760000E+03	2.478858E-16	1.111584E-17
5.770000E+03	2.459604E-16	1.106333E-17
5.780000E+03	2.442158E-16	1.101440E-17
5.790000E+03	2.426472E-16	1.096881E-17
5.800000E+03	2.412537E-16	1.092649E-17
5.810000E+03	2.400305E-16	1.088720E-17
5.820000E+03	2.389696E-16	1.085055E-17
5.830000E+03	2.380668E-16	1.081631E-17
5.840000E+03	2.373147E-16	1.078414E-17
5.850000E+03	2.367032E-16	1.075355E-17
5.860000E+03	2.362238E-16	1.072417E-17
5.870000E+03	2.358728E-16	1.069583E-17
5.880000E+03	2.356367E-16	1.066797E-17
5.890000E+03	2.355070E-16	1.064024E-17
5.900000E+03	2.354777E-16	1.061242E-17
5.910000E+03	2.355383E-16	1.058414E-17
5.920000E+03	2.356839E-16	1.055526E-17
5.930000E+03	2.359027E-16	1.052538E-17
5.940000E+03	2.361935E-16	1.049456E-17
5.950000E+03	2.365487E-16	1.046262E-17
5.960000E+03	2.369639E-16	1.042951E-17
5.970000E+03	2.374334E-16	1.039514E-17
5.980000E+03	2.379574E-16	1.035969E-17
5.990000E+03	2.385322E-16	1.032316E-17
6.000000E+03	2.391600E-16	1.028583E-17
6.010000E+03	2.398368E-16	1.024770E-17
6.020000E+03	2.405668E-16	1.020913E-17
6.030000E+03	2.413503E-16	1.017031E-17
6.040000E+03	2.421906E-16	1.013159E-17
6.050000E+03	2.430893E-16	1.009324E-17
6.060000E+03	2.440535E-16	1.005577E-17
6.070000E+03	2.450857E-16	1.001952E-17
6.080000E+03	2.461883E-16	9.984894E-18
6.090000E+03	2.473665E-16	9.952403E-18
6.100000E+03	2.486225E-16	9.922512E-18
6.110000E+03	2.499606E-16	9.895820E-18
6.120000E+03	2.513843E-16	9.872961E-18
6.130000E+03	2.528914E-16	9.854411E-18
6.140000E+03	2.544858E-16	9.840967E-18
6.150000E+03	2.561677E-16	9.833358E-18
6.160000E+03	2.579307E-16	9.832130E-18
6.170000E+03	2.597742E-16	9.838127E-18
6.180000E+03	2.616934E-16	9.852077E-18
6.190000E+03	2.636785E-16	9.874571E-18
6.200000E+03	2.657261E-16	9.906425E-18
6.210000E+03	2.678251E-16	9.948154E-18
6.220000E+03	2.699627E-16	1.000012E-17
6.230000E+03	2.721243E-16	1.006251E-17
6.240000E+03	2.742965E-16	1.013531E-17
6.250000E+03	2.764625E-16	1.021812E-17
6.260000E+03	2.786051E-16	1.031012E-17
6.270000E+03	2.807061E-16	1.041024E-17
6.280000E+03	2.827493E-16	1.051728E-17
6.290000E+03	2.847178E-16	1.062985E-17
6.300000E+03	2.865883E-16	1.074622E-17
6.310000E+03	2.883430E-16	1.086480E-17
6.320000E+03	2.899583E-16	1.098374E-17
6.330000E+03	2.914198E-16	1.110153E-17
6.340000E+03	2.927050E-16	1.121638E-17
6.350000E+03	2.937951E-16	1.132668E-17
6.360000E+03	2.946731E-16	1.143097E-17
6.370000E+03	2.953267E-16	1.152802E-17
6.380000E+03	2.957364E-16	1.161645E-17
6.390000E+03	2.958974E-16	1.169552E-17
6.400000E+03	2.957981E-16	1.176432E-17
6.410000E+03	2.954329E-16	1.182228E-17
6.420000E+03	2.947988E-16	1.186900E-17
6.430000E+03	2.938927E-16	1.190418E-17
6.440000E+03	2.927173E-16	1.192778E-17
6.450000E+03	2.912781E-16	1.193996E-17
6.460000E+03	2.895831E-16	1.194099E-17
6.470000E+03	2.876427E-16	1.193127E-17
6.480000E+03	2.854664E-16	1.191117E-17
6.490000E+03	2.830689E-16	1.188125E-17
6.500000E+03	2.804631E-16	1.184201E-17
6.510000E+03	2.776725E-16	1.179433E-17
6.520000E+03	2.747152E-16	1.173886E-17
6.530000E+03	2.716045E-16	1.167599E-17
6.540000E+03	2.683685E-16	1.160671E-17
6.550000E+03	2.650235E-16	1.153149E-17
6.560000E+03	2.615946E-16	1.145111E-17
6.570000E+03	2.580976E-16	1.136595E-17
6.580000E+03	2.545538E-16	1.127662E-17
6.590000E+03	2.509832E-16	1.118365E-17
6.600000E+03	2.474027E-16	1.108743E-17
6.610000E+03	2.438307E-16	1.098846E-17
6.620000E+03	2.402820E-16	1.088705E-17
6.630000E+03	2.367732E-16	1.078366E-17
6.640000E+03	2.333171E-16	1.067859E-17
6.650000E+03	2.299282E-16	1.057226E-17
6.660000E+03	2.266151E-16	1.046486E-17
6.670000E+03	2.233929E-16	1.035692E-17
6.680000E+03	2.202684E-16	1.024864E-17
6.690000E+03	2.172528E-16	1.014045E-17
6.700000E+03	2.143563E-16	1.003280E-17
6.710000E+03	2.115811E-16	9.925793E-18
6.720000E+03	2.089410E-16	9.820123E-18
6.730000E+03	2.064373E-16	9.715923E-18
6.740000E+03	2.040776E-16	9.613674E-18
6.750000E+03	2.018692E-16	9.513863E-18
6.760000E+03	1.998144E-16	9.416763E-18
6.770000E+03	1.979170E-16	9.322765E-18
6.780000E+03	1.961830E-16	9.232371E-18
6.790000E+03	1.946180E-16	9.146081E-18
6.800000E+03	1.932203E-16	9.064079E-18
6.810000E+03	1.919946E-16	8.986864E-18
6.820000E+03	1.909455E-16	8.914934E-18
6.830000E+03	1.900726E-16	8.848565E-18
6.840000E+03	1.893773E-16	8.788133E-18
6.850000E+03	1.888632E-16	8.734105E-18
6.860000E+03	1.885289E-16	8.686726E-18
6.870000E+03	1.883793E-16	8.646532E-18
6.880000E+03	1.884080E-16	8.613525E-18
6.890000E+03	1.886214E-16	8.588302E-18
6.900000E+03	1.890167E-16	8.571020E-18
6.910000E+03	1.895907E-16	8.561809E-18
6.920000E+03	1.903443E-16	8.560973E-18
6.930000E+03	1.912757E-16	8.568683E-18
6.940000E+03	1.923849E-16	8.585175E-18
6.950000E+03	1.936649E-16	8.610338E-18
6.960000E+03	1.951148E-16	8.644333E-18
6.970000E+03	1.967312E-16	8.687177E-18
6.980000E+03	1.985103E-16	8.738843E-18
6.990000E+03	2.004479E-16	8.799262E-18
7.000000E+03	2.025368E-16	8.868207E-18
7.010000E+03	2.047771E-16	8.945730E-18
7.020000E+03	2.071608E-16	9.031508E-18
7.030000E+03	2.096796E-16	9.125157E-18
7.040000E+03	2.123299E-16	9.226463E-18
7.050000E+03	2.151050E-16	9.335042E-18
7.060000E+03	2.179978E-16	9.450448E-18
7.070000E+03	2.210007E-16	9.572173E-18
7.080000E+03	2.241026E-16	9.699519E-18
7.090000E+03	2.272946E-16	9.831838E-18
7.100000E+03	2.305696E-16	9.968536E-18
7.110000E+03	2.339173E-16	1.010883E-17
7.120000E+03	2.373201E-16	1.025161E-17
7.130000E+03	2.407714E-16	1.039621E-17
7.140000E+03	2.442544E-16	1.054151E-17
7.150000E+03	2.477542E-16	1.068646E-17
7.160000E+03	2.512548E-16	1.082996E-17
7.170000E+03	2.547386E-16	1.097087E-17
7.180000E+03	2.581873E-16	1.110802E-17
7.190000E+03	2.615777E-16	1.124007E-17
7.200000E+03	2.648890E-16	1.136580E-17
7.210000E+03	2.681031E-16	1.148416E-17
7.220000E+03	2.711977E-16	1.159399E-17
7.230000E+03	2.741435E-16	1.169386E-17
7.240000E+03	2.769211E-16	1.178284E-17
7.250000E+03	2.795082E-16	1.185992E-17
7.260000E+03	2.818833E-16	1.192422E-17
7.270000E+03	2.840222E-16	1.197478E-17
7.280000E+03	2.859057E-16	1.201092E-17
7.290000E+03	2.875205E-16	1.203228E-17
7.300000E+03	2.888442E-16	1.203817E-17
7.310000E+03	2.898684E-16	1.202851E-17
7.320000E+03	2.905839E-16	1.200326E-17
7.330000E+03	2.909772E-16	1.196224E-17
7.340000E+03	2.910529E-16	1.190607E-17
7.350000E+03	2.908045E-16	1.183494E-17
7.360000E+03	2.902362E-16	1.174953E-17
7.370000E+03	2.893519E-16	1.165056E-17
7.380000E+03	2.881662E-16	1.153920E-17
7.390000E+03	2.866858E-16	1.141637E-17
7.400000E+03	2.849237E-16	1.128327E-17
7.410000E+03	2.829029E-16	1.114157E-17
7.420000E+03	2.806374E-16	1.099258E-17
7.430000E+03	2.781466E-16	1.083789E-17
7.440000E+03	2.754549E-16	1.067930E-17
7.450000E+03	2.725911E-16	1.051877E-17
7.460000E+03	2.695840E-16	1.035827E-17
7.470000E+03	2.664590E-16	1.019960E-17
7.480000E+03	2.632446E-16	1.004463E-17
7.490000E+03	2.599648E-16	9.894979E-18
7.500000E+03	2.566462E-16	9.752240E-18
7.510000E+03	2.533075E-16	9.617573E-18
7.520000E+03	2.499758E-16	9.492285E-18
7.530000E+03	2.466669E-16	9.377037E-18
7.540000E+03	2.434020E-16	9.272416E-18
7.550000E+03	2.401978E-16	9.178481E-18
7.560000E+03	2.370729E-16	9.095090E-18
7.570000E+03	2.340346E-16	9.021528E-18
7.580000E+03	2.311006E-16	8.957416E-18
7.590000E+03	2.282776E-16	8.901921E-18
7.600000E+03	2.255758E-16	8.854398E-18
7.610000E+03	2.230007E-16	8.814067E-18
7.620000E+03	2.205555E-16	8.780149E-18
7.630000E+03	2.182387E-16	8.751777E-18
7.640000E+03	2.160558E-16	8.728459E-18
7.650000E+03	2.140015E-16	8.709392E-18
7.660000E+03	2.120750E-16	8.694043E-18
7.670000E+03	2.102652E-16	8.681569E-18
7.680000E+03	2.085712E-16	8.671619E-18
7.690000E+03	2.069850E-16	8.663640E-18
7.700000E+03	2.054948E-16	8.656986E-18
7.710000E+03	2.040935E-16	8.651262E-18
7.720000E+03	2.027675E-16	8.645857E-18
7.730000E+03	2.015084E-16	8.640404E-18
7.740000E+03	2.003014E-16	8.634314E-18
7.750000E+03	1.991373E-16	8.627241E-18
7.760000E+03	1.980037E-16	8.618732E-18
