#wls	flux	fluxerr
1.600000E+03	1.718442E-16	1.218694E-16
1.640000E+03	1.758510E-16	1.230486E-16
1.680000E+03	1.798507E-16	1.241037E-16
1.720000E+03	1.838942E-16	1.250660E-16
1.760000E+03	1.879072E-16	1.258810E-16
1.800000E+03	1.919082E-16	1.265584E-16
1.840000E+03	1.958837E-16	1.270861E-16
1.880000E+03	1.998526E-16	1.274739E-16
1.920000E+03	2.037666E-16	1.276882E-16
1.960000E+03	2.076437E-16	1.277388E-16
2.000000E+03	2.114327E-16	1.275927E-16
2.040000E+03	2.151856E-16	1.272808E-16
2.080000E+03	2.188140E-16	1.267504E-16
2.120000E+03	2.223694E-16	1.260327E-16
2.160000E+03	2.257965E-16	1.250972E-16
2.200000E+03	2.290747E-16	1.239355E-16
2.240000E+03	2.322553E-16	1.225787E-16
2.280000E+03	2.352807E-16	1.209997E-16
2.320000E+03	2.381290E-16	1.191927E-16
2.360000E+03	2.407778E-16	1.171534E-16
2.400000E+03	2.432777E-16	1.149140E-16
2.440000E+03	2.455331E-16	1.124376E-16
2.480000E+03	2.476306E-16	1.097741E-16
2.520000E+03	2.494751E-16	1.068915E-16
2.560000E+03	2.510809E-16	1.038094E-16
2.600000E+03	2.524269E-16	1.005335E-16
2.640000E+03	2.535627E-16	9.709879E-17
2.680000E+03	2.544332E-16	9.349980E-17
2.720000E+03	2.550202E-16	8.974867E-17
2.760000E+03	2.553749E-16	8.588308E-17
2.800000E+03	2.554806E-16	8.191712E-17
2.840000E+03	2.553236E-16	7.786812E-17
2.880000E+03	2.548933E-16	7.375659E-17
2.920000E+03	2.542441E-16	6.962291E-17
2.960000E+03	2.533689E-16	6.548967E-17
3.000000E+03	2.522652E-16	6.138243E-17
3.010000E+03	2.519618E-16	6.036486E-17
3.020000E+03	2.516531E-16	5.935315E-17
3.030000E+03	2.513391E-16	5.834761E-17
3.040000E+03	2.509915E-16	5.734217E-17
3.050000E+03	2.506389E-16	5.634390E-17
3.060000E+03	2.502813E-16	5.535314E-17
3.070000E+03	2.499185E-16	5.437025E-17
3.080000E+03	2.495508E-16	5.339560E-17
3.090000E+03	2.491510E-16	5.242387E-17
3.100000E+03	2.487467E-16	5.146140E-17
3.110000E+03	2.483646E-16	5.051399E-17
3.120000E+03	2.479514E-16	4.957104E-17
3.130000E+03	2.475341E-16	4.863850E-17
3.140000E+03	2.471129E-16	4.771672E-17
3.150000E+03	2.466621E-16	4.680121E-17
3.160000E+03	2.462337E-16	4.590223E-17
3.170000E+03	2.458021E-16	4.501513E-17
3.180000E+03	2.453674E-16	4.414027E-17
3.190000E+03	2.449051E-16	4.327360E-17
3.200000E+03	2.444654E-16	4.242437E-17
3.210000E+03	2.440237E-16	4.158837E-17
3.220000E+03	2.435560E-16	4.076187E-17
3.230000E+03	2.431114E-16	3.995336E-17
3.240000E+03	2.426660E-16	3.915895E-17
3.250000E+03	2.421964E-16	3.837514E-17
3.260000E+03	2.417507E-16	3.760972E-17
3.270000E+03	2.413053E-16	3.685904E-17
3.280000E+03	2.408609E-16	3.612326E-17
3.290000E+03	2.404179E-16	3.540250E-17
3.300000E+03	2.399769E-16	3.469686E-17
3.310000E+03	2.395383E-16	3.400639E-17
3.320000E+03	2.391248E-16	3.333420E-17
3.330000E+03	2.386925E-16	3.267403E-17
3.340000E+03	2.382860E-16	3.203192E-17
3.350000E+03	2.378836E-16	3.140469E-17
3.360000E+03	2.374860E-16	3.079223E-17
3.370000E+03	2.370936E-16	3.019438E-17
3.380000E+03	2.367070E-16	2.961095E-17
3.390000E+03	2.363473E-16	2.904426E-17
3.400000E+03	2.359939E-16	2.849138E-17
3.410000E+03	2.356474E-16	2.795202E-17
3.420000E+03	2.353283E-16	2.742823E-17
3.430000E+03	2.349966E-16	2.691493E-17
3.440000E+03	2.346927E-16	2.641639E-17
3.450000E+03	2.343970E-16	2.592993E-17
3.460000E+03	2.341291E-16	2.545727E-17
3.470000E+03	2.338697E-16	2.499584E-17
3.480000E+03	2.336191E-16	2.454525E-17
3.490000E+03	2.333965E-16	2.410709E-17
3.500000E+03	2.331829E-16	2.367896E-17
3.510000E+03	2.329787E-16	2.326050E-17
3.520000E+03	2.328025E-16	2.285319E-17
3.530000E+03	2.326358E-16	2.245485E-17
3.540000E+03	2.324790E-16	2.206518E-17
3.550000E+03	2.323502E-16	2.168561E-17
3.560000E+03	2.322315E-16	2.131418E-17
3.570000E+03	2.321409E-16	2.095229E-17
3.580000E+03	2.320610E-16	2.059814E-17
3.590000E+03	2.319921E-16	2.025163E-17
3.600000E+03	2.319520E-16	1.991416E-17
3.610000E+03	2.319408E-16	1.958559E-17
3.620000E+03	2.319419E-16	1.926445E-17
3.630000E+03	2.319564E-16	1.895077E-17
3.640000E+03	2.320017E-16	1.864597E-17
3.650000E+03	2.320620E-16	1.834877E-17
3.660000E+03	2.321548E-16	1.806055E-17
3.670000E+03	2.322652E-16	1.778015E-17
3.680000E+03	2.324104E-16	1.750894E-17
3.690000E+03	2.325918E-16	1.724699E-17
3.700000E+03	2.327796E-16	1.699213E-17
3.710000E+03	2.330225E-16	1.674795E-17
3.720000E+03	2.332910E-16	1.651227E-17
3.730000E+03	2.335871E-16	1.628523E-17
3.740000E+03	2.339282E-16	1.606801E-17
3.750000E+03	2.343008E-16	1.585959E-17
3.760000E+03	2.347219E-16	1.566104E-17
3.770000E+03	2.351932E-16	1.547230E-17
3.780000E+03	2.357014E-16	1.529234E-17
3.790000E+03	2.362480E-16	1.512109E-17
3.800000E+03	2.368488E-16	1.495938E-17
3.810000E+03	2.374901E-16	1.480610E-17
3.820000E+03	2.381869E-16	1.466197E-17
3.830000E+03	2.389388E-16	1.452673E-17
3.840000E+03	2.397311E-16	1.439923E-17
3.850000E+03	2.405626E-16	1.427922E-17
3.860000E+03	2.414459E-16	1.416722E-17
3.870000E+03	2.423645E-16	1.406208E-17
3.880000E+03	2.433292E-16	1.396427E-17
3.890000E+03	2.443225E-16	1.387262E-17
3.900000E+03	2.453401E-16	1.378677E-17
3.910000E+03	2.463906E-16	1.370709E-17
3.920000E+03	2.474685E-16	1.363316E-17
3.930000E+03	2.485404E-16	1.356306E-17
3.940000E+03	2.496271E-16	1.349784E-17
3.950000E+03	2.507215E-16	1.343702E-17
3.960000E+03	2.517896E-16	1.337870E-17
3.970000E+03	2.528512E-16	1.332384E-17
3.980000E+03	2.538987E-16	1.327192E-17
3.990000E+03	2.548988E-16	1.322107E-17
4.000000E+03	2.558709E-16	1.317219E-17
4.010000E+03	2.567825E-16	1.312344E-17
4.020000E+03	2.576535E-16	1.307573E-17
4.030000E+03	2.584786E-16	1.302859E-17
4.040000E+03	2.592272E-16	1.298033E-17
4.050000E+03	2.599082E-16	1.293125E-17
4.060000E+03	2.605188E-16	1.288104E-17
4.070000E+03	2.610692E-16	1.283005E-17
4.080000E+03	2.615331E-16	1.277681E-17
4.090000E+03	2.619227E-16	1.272180E-17
4.100000E+03	2.622388E-16	1.266489E-17
4.110000E+03	2.624830E-16	1.260601E-17
4.120000E+03	2.626578E-16	1.254515E-17
4.130000E+03	2.627665E-16	1.248233E-17
4.140000E+03	2.628016E-16	1.241706E-17
4.150000E+03	2.627800E-16	1.235004E-17
4.160000E+03	2.626956E-16	1.228087E-17
4.170000E+03	2.625779E-16	1.221085E-17
4.180000E+03	2.623988E-16	1.213859E-17
4.190000E+03	2.621999E-16	1.206598E-17
4.200000E+03	2.619542E-16	1.199176E-17
4.210000E+03	2.617032E-16	1.191782E-17
4.220000E+03	2.614207E-16	1.184304E-17
4.230000E+03	2.611366E-16	1.176884E-17
4.240000E+03	2.608471E-16	1.169521E-17
4.250000E+03	2.605597E-16	1.162262E-17
4.260000E+03	2.602920E-16	1.155209E-17
4.270000E+03	2.600294E-16	1.148321E-17
4.280000E+03	2.597994E-16	1.141747E-17
4.290000E+03	2.595972E-16	1.135496E-17
4.300000E+03	2.594180E-16	1.129579E-17
4.310000E+03	2.592875E-16	1.124139E-17
4.320000E+03	2.591894E-16	1.119137E-17
4.330000E+03	2.591379E-16	1.114661E-17
4.340000E+03	2.591361E-16	1.110749E-17
4.350000E+03	2.591767E-16	1.107389E-17
4.360000E+03	2.592814E-16	1.104686E-17
4.370000E+03	2.594217E-16	1.102523E-17
4.380000E+03	2.596181E-16	1.100982E-17
4.390000E+03	2.598701E-16	1.100048E-17
4.400000E+03	2.601671E-16	1.099652E-17
4.410000E+03	2.605171E-16	1.099794E-17
4.420000E+03	2.608984E-16	1.100342E-17
4.430000E+03	2.613271E-16	1.101316E-17
4.440000E+03	2.617896E-16	1.102605E-17
4.450000E+03	2.622908E-16	1.104171E-17
4.460000E+03	2.628064E-16	1.105855E-17
4.470000E+03	2.633399E-16	1.107608E-17
4.480000E+03	2.638937E-16	1.109382E-17
4.490000E+03	2.644422E-16	1.111009E-17
4.500000E+03	2.649958E-16	1.112478E-17
4.510000E+03	2.655278E-16	1.113627E-17
4.520000E+03	2.660387E-16	1.114413E-17
4.530000E+03	2.665105E-16	1.114720E-17
4.540000E+03	2.669520E-16	1.114556E-17
4.550000E+03	2.673359E-16	1.113783E-17
4.560000E+03	2.676623E-16	1.112389E-17
4.570000E+03	2.679135E-16	1.110294E-17
4.580000E+03	2.680899E-16	1.107507E-17
4.590000E+03	2.681753E-16	1.103978E-17
4.600000E+03	2.681717E-16	1.099739E-17
4.610000E+03	2.680644E-16	1.094771E-17
4.620000E+03	2.678575E-16	1.089137E-17
4.630000E+03	2.675391E-16	1.082848E-17
4.640000E+03	2.671157E-16	1.076001E-17
4.650000E+03	2.665783E-16	1.068638E-17
4.660000E+03	2.659280E-16	1.060854E-17
4.670000E+03	2.651674E-16	1.052755E-17
4.680000E+03	2.643087E-16	1.044495E-17
4.690000E+03	2.633492E-16	1.036169E-17
4.700000E+03	2.622956E-16	1.027913E-17
4.710000E+03	2.611560E-16	1.019868E-17
4.720000E+03	2.599474E-16	1.012201E-17
4.730000E+03	2.586639E-16	1.004984E-17
4.740000E+03	2.573321E-16	9.983985E-18
4.750000E+03	2.559555E-16	9.925148E-18
4.760000E+03	2.545461E-16	9.873985E-18
4.770000E+03	2.531168E-16	9.830588E-18
4.780000E+03	2.516882E-16	9.795037E-18
4.790000E+03	2.502579E-16	9.766375E-18
4.800000E+03	2.488461E-16	9.744427E-18
4.810000E+03	2.474721E-16	9.728957E-18
4.820000E+03	2.461324E-16	9.718846E-18
4.830000E+03	2.448522E-16	9.714132E-18
4.840000E+03	2.436336E-16	9.714016E-18
4.850000E+03	2.424784E-16	9.717738E-18
4.860000E+03	2.414082E-16	9.725424E-18
4.870000E+03	2.404223E-16	9.736392E-18
4.880000E+03	2.395261E-16	9.750278E-18
4.890000E+03	2.387235E-16	9.766745E-18
4.900000E+03	2.380175E-16	9.785479E-18
4.910000E+03	2.374098E-16	9.806181E-18
4.920000E+03	2.369010E-16	9.828558E-18
4.930000E+03	2.364904E-16	9.852317E-18
4.940000E+03	2.361765E-16	9.877162E-18
4.950000E+03	2.359567E-16	9.902791E-18
4.960000E+03	2.358343E-16	9.929171E-18
4.970000E+03	2.357921E-16	9.955425E-18
4.980000E+03	2.358385E-16	9.981785E-18
4.990000E+03	2.359621E-16	1.000764E-17
5.000000E+03	2.361575E-16	1.003265E-17
5.010000E+03	2.364193E-16	1.005649E-17
5.020000E+03	2.367422E-16	1.007881E-17
5.030000E+03	2.371209E-16	1.009928E-17
5.040000E+03	2.375570E-16	1.011788E-17
5.050000E+03	2.380326E-16	1.013374E-17
5.060000E+03	2.385564E-16	1.014715E-17
5.070000E+03	2.391178E-16	1.015756E-17
5.080000E+03	2.397132E-16	1.016476E-17
5.090000E+03	2.403457E-16	1.016885E-17
5.100000E+03	2.409992E-16	1.016915E-17
5.110000E+03	2.416836E-16	1.016612E-17
5.120000E+03	2.423898E-16	1.015945E-17
5.130000E+03	2.431213E-16	1.014945E-17
5.140000E+03	2.438624E-16	1.013564E-17
5.150000E+03	2.446230E-16	1.011870E-17
5.160000E+03	2.453936E-16	1.009855E-17
5.170000E+03	2.461771E-16	1.007570E-17
5.180000E+03	2.469633E-16	1.005015E-17
5.190000E+03	2.477481E-16	1.002223E-17
5.200000E+03	2.485270E-16	9.992274E-18
5.210000E+03	2.493017E-16	9.960935E-18
5.220000E+03	2.500604E-16	9.928335E-18
5.230000E+03	2.507973E-16	9.894876E-18
5.240000E+03	2.515131E-16	9.861228E-18
5.250000E+03	2.521947E-16	9.827533E-18
5.260000E+03	2.528421E-16	9.794451E-18
5.270000E+03	2.534417E-16	9.762112E-18
5.280000E+03	2.539862E-16	9.730895E-18
5.290000E+03	2.544749E-16	9.701420E-18
5.300000E+03	2.548937E-16	9.673773E-18
5.310000E+03	2.552418E-16	9.648530E-18
5.320000E+03	2.555048E-16	9.625727E-18
5.330000E+03	2.556752E-16	9.605612E-18
5.340000E+03	2.557525E-16	9.588628E-18
5.350000E+03	2.557294E-16	9.574882E-18
5.360000E+03	2.555923E-16	9.564117E-18
5.370000E+03	2.553343E-16	9.556157E-18
5.380000E+03	2.549553E-16	9.550744E-18
5.390000E+03	2.544475E-16	9.546767E-18
5.400000E+03	2.537968E-16	9.542578E-18
5.410000E+03	2.530027E-16	9.536949E-18
5.420000E+03	2.520525E-16	9.528172E-18
5.430000E+03	2.509412E-16	9.514874E-18
5.440000E+03	2.496778E-16	9.496315E-18
5.450000E+03	2.482465E-16	9.470949E-18
5.460000E+03	2.466461E-16	9.437938E-18
5.470000E+03	2.448830E-16	9.396921E-18
5.480000E+03	2.429588E-16	9.347533E-18
5.490000E+03	2.408702E-16	9.289412E-18
5.500000E+03	2.386283E-16	9.222924E-18
5.510000E+03	2.362391E-16	9.148418E-18
5.520000E+03	2.337103E-16	9.066457E-18
5.530000E+03	2.310449E-16	8.977557E-18
5.540000E+03	2.282597E-16	8.882867E-18
5.550000E+03	2.253603E-16	8.783201E-18
5.560000E+03	2.223716E-16	8.680155E-18
5.570000E+03	2.192956E-16	8.574473E-18
5.580000E+03	2.161529E-16	8.467604E-18
5.590000E+03	2.129532E-16	8.360537E-18
5.600000E+03	2.097233E-16	8.254864E-18
5.610000E+03	2.064683E-16	8.151231E-18
5.620000E+03	2.032093E-16	8.050817E-18
5.630000E+03	1.999622E-16	7.954452E-18
5.640000E+03	1.967420E-16	7.862814E-18
5.650000E+03	1.935633E-16	7.776422E-18
5.660000E+03	1.904398E-16	7.695627E-18
5.670000E+03	1.873842E-16	7.620622E-18
5.680000E+03	1.844033E-16	7.551251E-18
5.690000E+03	1.815170E-16	7.487812E-18
5.700000E+03	1.787249E-16	7.429701E-18
5.710000E+03	1.760441E-16	7.376996E-18
5.720000E+03	1.734762E-16	7.329119E-18
5.730000E+03	1.710217E-16	7.285447E-18
5.740000E+03	1.686935E-16	7.245891E-18
5.750000E+03	1.664895E-16	7.209777E-18
5.760000E+03	1.644113E-16	7.176623E-18
5.770000E+03	1.624591E-16	7.145956E-18
5.780000E+03	1.606327E-16	7.117323E-18
5.790000E+03	1.589305E-16	7.090298E-18
5.800000E+03	1.573508E-16	7.064483E-18
5.810000E+03	1.558948E-16	7.039696E-18
5.820000E+03	1.545556E-16	7.015418E-18
5.830000E+03	1.533297E-16	6.991349E-18
5.840000E+03	1.522135E-16	6.967221E-18
5.850000E+03	1.512034E-16	6.942798E-18
5.860000E+03	1.502994E-16	6.918055E-18
5.870000E+03	1.494940E-16	6.892637E-18
5.880000E+03	1.487837E-16	6.866402E-18
5.890000E+03	1.481653E-16	6.839239E-18
5.900000E+03	1.476398E-16	6.811246E-18
5.910000E+03	1.472008E-16	6.782195E-18
5.920000E+03	1.468464E-16	6.752068E-18
5.930000E+03	1.465787E-16	6.721053E-18
5.940000E+03	1.463932E-16	6.689014E-18
5.950000E+03	1.462933E-16	6.656194E-18
5.960000E+03	1.462715E-16	6.622340E-18
5.970000E+03	1.463363E-16	6.587919E-18
5.980000E+03	1.464893E-16	6.553068E-18
5.990000E+03	1.467287E-16	6.517773E-18
6.000000E+03	1.470569E-16	6.482207E-18
6.010000E+03	1.474812E-16	6.446730E-18
6.020000E+03	1.480012E-16	6.411368E-18
6.030000E+03	1.486250E-16	6.376497E-18
6.040000E+03	1.493532E-16	6.342166E-18
6.050000E+03	1.501946E-16	6.308767E-18
6.060000E+03	1.511503E-16	6.276367E-18
6.070000E+03	1.522296E-16	6.245379E-18
6.080000E+03	1.534336E-16	6.215898E-18
6.090000E+03	1.547676E-16	6.188204E-18
6.100000E+03	1.562405E-16	6.162763E-18
6.110000E+03	1.578570E-16	6.139907E-18
6.120000E+03	1.596170E-16	6.119839E-18
6.130000E+03	1.615279E-16	6.103135E-18
6.140000E+03	1.635878E-16	6.090101E-18
6.150000E+03	1.658021E-16	6.081431E-18
6.160000E+03	1.681661E-16	6.077572E-18
6.170000E+03	1.706824E-16	6.079380E-18
6.180000E+03	1.733473E-16	6.087639E-18
6.190000E+03	1.761505E-16	6.103066E-18
6.200000E+03	1.790884E-16	6.126789E-18
6.210000E+03	1.821458E-16	6.159669E-18
6.220000E+03	1.853141E-16	6.202914E-18
6.230000E+03	1.885775E-16	6.257508E-18
6.240000E+03	1.919117E-16	6.324060E-18
6.250000E+03	1.952984E-16	6.402849E-18
6.260000E+03	1.987104E-16	6.493216E-18
6.270000E+03	2.021120E-16	6.593946E-18
6.280000E+03	2.054759E-16	6.703912E-18
6.290000E+03	2.087681E-16	6.821622E-18
6.300000E+03	2.119474E-16	6.945257E-18
6.310000E+03	2.149896E-16	7.073476E-18
6.320000E+03	2.178480E-16	7.204131E-18
6.330000E+03	2.204880E-16	7.335441E-18
6.340000E+03	2.228896E-16	7.466057E-18
6.350000E+03	2.250111E-16	7.593886E-18
6.360000E+03	2.268325E-16	7.717527E-18
6.370000E+03	2.283315E-16	7.835495E-18
6.380000E+03	2.294842E-16	7.946220E-18
6.390000E+03	2.302900E-16	8.048946E-18
6.400000E+03	2.307283E-16	8.142214E-18
6.410000E+03	2.308022E-16	8.225413E-18
6.420000E+03	2.305137E-16	8.297909E-18
6.430000E+03	2.298691E-16	8.359260E-18
6.440000E+03	2.288792E-16	8.409222E-18
6.450000E+03	2.275587E-16	8.447729E-18
6.460000E+03	2.259195E-16	8.474653E-18
6.470000E+03	2.239950E-16	8.490722E-18
6.480000E+03	2.218022E-16	8.496090E-18
6.490000E+03	2.193598E-16	8.491013E-18
6.500000E+03	2.167061E-16	8.476540E-18
6.510000E+03	2.138556E-16	8.452825E-18
6.520000E+03	2.108471E-16	8.421002E-18
6.530000E+03	2.076950E-16	8.381266E-18
6.540000E+03	2.044369E-16	8.334745E-18
6.550000E+03	2.010858E-16	8.281602E-18
6.560000E+03	1.976766E-16	8.222903E-18
6.570000E+03	1.942255E-16	8.158967E-18
6.580000E+03	1.907529E-16	8.090311E-18
6.590000E+03	1.872779E-16	8.017407E-18
6.600000E+03	1.838176E-16	7.940695E-18
6.610000E+03	1.803878E-16	7.860587E-18
6.620000E+03	1.770077E-16	7.777693E-18
6.630000E+03	1.736802E-16	7.691944E-18
6.640000E+03	1.704266E-16	7.604148E-18
6.650000E+03	1.672522E-16	7.514446E-18
6.660000E+03	1.641663E-16	7.423198E-18
6.670000E+03	1.611817E-16	7.330969E-18
6.680000E+03	1.582963E-16	7.237691E-18
6.690000E+03	1.555257E-16	7.144129E-18
6.700000E+03	1.528710E-16	7.050410E-18
6.710000E+03	1.503414E-16	6.957060E-18
6.720000E+03	1.479370E-16	6.864185E-18
6.730000E+03	1.456574E-16	6.771885E-18
6.740000E+03	1.435185E-16	6.681021E-18
6.750000E+03	1.415106E-16	6.591268E-18
6.760000E+03	1.396445E-16	6.503254E-18
6.770000E+03	1.379183E-16	6.417016E-18
6.780000E+03	1.363380E-16	6.332958E-18
6.790000E+03	1.349011E-16	6.251106E-18
6.800000E+03	1.336093E-16	6.171667E-18
6.810000E+03	1.324679E-16	6.095028E-18
6.820000E+03	1.314702E-16	6.021042E-18
6.830000E+03	1.306291E-16	5.950448E-18
6.840000E+03	1.299340E-16	5.882940E-18
6.850000E+03	1.293935E-16	5.819093E-18
6.860000E+03	1.290085E-16	5.759138E-18
6.870000E+03	1.287722E-16	5.702983E-18
6.880000E+03	1.286929E-16	5.651223E-18
6.890000E+03	1.287711E-16	5.604119E-18
6.900000E+03	1.290036E-16	5.561782E-18
6.910000E+03	1.293905E-16	5.524496E-18
6.920000E+03	1.299321E-16	5.492548E-18
6.930000E+03	1.306320E-16	5.466393E-18
6.940000E+03	1.314901E-16	5.446314E-18
6.950000E+03	1.324981E-16	5.432271E-18
6.960000E+03	1.336631E-16	5.424845E-18
6.970000E+03	1.349801E-16	5.424114E-18
6.980000E+03	1.364520E-16	5.430443E-18
6.990000E+03	1.380733E-16	5.443827E-18
7.000000E+03	1.398465E-16	5.464533E-18
7.010000E+03	1.417613E-16	5.492273E-18
7.020000E+03	1.438240E-16	5.527333E-18
7.030000E+03	1.460278E-16	5.569429E-18
7.040000E+03	1.483744E-16	5.618513E-18
7.050000E+03	1.508563E-16	5.674115E-18
7.060000E+03	1.534698E-16	5.735828E-18
7.070000E+03	1.562106E-16	5.803152E-18
7.080000E+03	1.590784E-16	5.875669E-18
7.090000E+03	1.620624E-16	5.952527E-18
7.100000E+03	1.651554E-16	6.032967E-18
7.110000E+03	1.683533E-16	6.116349E-18
7.120000E+03	1.716356E-16	6.201426E-18
7.130000E+03	1.749997E-16	6.287650E-18
7.140000E+03	1.784254E-16	6.373896E-18
7.150000E+03	1.818950E-16	6.459217E-18
7.160000E+03	1.853881E-16	6.542680E-18
7.170000E+03	1.888812E-16	6.623380E-18
7.180000E+03	1.923542E-16	6.700656E-18
7.190000E+03	1.957723E-16	6.773499E-18
7.200000E+03	1.990980E-16	6.840940E-18
7.210000E+03	2.023094E-16	6.902681E-18
7.220000E+03	2.053651E-16	6.957838E-18
7.230000E+03	2.082284E-16	7.005752E-18
7.240000E+03	2.108558E-16	7.045544E-18
7.250000E+03	2.132237E-16	7.076950E-18
7.260000E+03	2.152909E-16	7.099024E-18
7.270000E+03	2.170249E-16	7.110988E-18
7.280000E+03	2.183971E-16	7.112022E-18
7.290000E+03	2.193762E-16	7.101076E-18
7.300000E+03	2.199570E-16	7.077775E-18
7.310000E+03	2.201130E-16	7.040954E-18
7.320000E+03	2.198515E-16	6.990448E-18
7.330000E+03	2.191593E-16	6.925419E-18
7.340000E+03	2.180505E-16	6.845925E-18
7.350000E+03	2.165387E-16	6.752097E-18
7.360000E+03	2.146435E-16	6.644383E-18
7.370000E+03	2.123832E-16	6.523359E-18
7.380000E+03	2.097939E-16	6.390336E-18
7.390000E+03	2.069086E-16	6.246726E-18
7.400000E+03	2.037628E-16	6.094213E-18
7.410000E+03	2.003935E-16	5.934715E-18
7.420000E+03	1.968326E-16	5.770159E-18
7.430000E+03	1.931241E-16	5.602970E-18
7.440000E+03	1.892990E-16	5.435302E-18
7.450000E+03	1.853988E-16	5.269687E-18
7.460000E+03	1.814571E-16	5.108458E-18
7.470000E+03	1.775049E-16	4.953880E-18
7.480000E+03	1.735654E-16	4.807953E-18
7.490000E+03	1.696699E-16	4.672818E-18
7.500000E+03	1.658362E-16	4.550092E-18
7.510000E+03	1.620898E-16	4.441407E-18
7.520000E+03	1.584428E-16	4.347759E-18
7.530000E+03	1.549152E-16	4.269998E-18
7.540000E+03	1.515192E-16	4.208252E-18
7.550000E+03	1.482606E-16	4.161568E-18
7.560000E+03	1.451479E-16	4.128537E-18
7.570000E+03	1.421969E-16	4.107840E-18
7.580000E+03	1.393983E-16	4.097491E-18
7.590000E+03	1.367639E-16	4.096242E-18
7.600000E+03	1.342944E-16	4.102726E-18
7.610000E+03	1.319851E-16	4.115616E-18
7.620000E+03	1.298341E-16	4.133892E-18
7.630000E+03	1.278426E-16	4.156831E-18
7.640000E+03	1.260023E-16	4.183598E-18
7.650000E+03	1.243124E-16	4.213746E-18
7.660000E+03	1.227629E-16	4.246667E-18
7.670000E+03	1.213475E-16	4.281962E-18
7.680000E+03	1.200629E-16	4.319428E-18
7.690000E+03	1.188975E-16	4.358628E-18
7.700000E+03	1.178472E-16	4.399424E-18
7.710000E+03	1.168958E-16	4.441270E-18
7.720000E+03	1.160459E-16	4.484330E-18
7.730000E+03	1.152771E-16	4.527911E-18
7.740000E+03	1.145879E-16	4.572035E-18
7.750000E+03	1.139688E-16	4.616429E-18
7.760000E+03	1.134034E-16	4.660516E-18
