#wls	flux	fluxerr
1.600000E+03	1.626225E-16	1.158021E-16
1.640000E+03	1.664086E-16	1.169412E-16
1.680000E+03	1.701912E-16	1.179665E-16
1.720000E+03	1.739890E-16	1.188876E-16
1.760000E+03	1.777914E-16	1.196939E-16
1.800000E+03	1.815871E-16	1.203744E-16
1.840000E+03	1.853639E-16	1.209181E-16
1.880000E+03	1.891085E-16	1.213142E-16
1.920000E+03	1.928069E-16	1.215517E-16
1.960000E+03	1.964767E-16	1.216400E-16
2.000000E+03	2.000704E-16	1.215484E-16
2.040000E+03	2.036379E-16	1.213067E-16
2.080000E+03	2.070966E-16	1.208648E-16
2.120000E+03	2.104622E-16	1.202334E-16
2.160000E+03	2.137170E-16	1.194039E-16
2.200000E+03	2.168767E-16	1.183873E-16
2.240000E+03	2.199227E-16	1.171756E-16
2.280000E+03	2.228014E-16	1.157444E-16
2.320000E+03	2.255278E-16	1.141070E-16
2.360000E+03	2.281166E-16	1.122767E-16
2.400000E+03	2.305483E-16	1.102498E-16
2.440000E+03	2.327683E-16	1.080084E-16
2.480000E+03	2.347917E-16	1.055694E-16
2.520000E+03	2.366336E-16	1.029498E-16
2.560000E+03	2.382408E-16	1.001380E-16
2.600000E+03	2.396632E-16	9.716788E-17
2.640000E+03	2.408493E-16	9.403193E-17
2.680000E+03	2.417833E-16	9.074005E-17
2.720000E+03	2.425164E-16	8.732821E-17
2.760000E+03	2.430018E-16	8.379674E-17
2.800000E+03	2.432918E-16	8.018241E-17
2.840000E+03	2.433131E-16	7.648070E-17
2.880000E+03	2.431515E-16	7.274017E-17
2.920000E+03	2.427704E-16	6.897064E-17
2.960000E+03	2.421970E-16	6.520243E-17
3.000000E+03	2.414317E-16	6.145843E-17
3.010000E+03	2.412300E-16	6.053388E-17
3.020000E+03	2.409992E-16	5.960830E-17
3.030000E+03	2.407671E-16	5.868907E-17
3.040000E+03	2.405065E-16	5.776986E-17
3.050000E+03	2.402722E-16	5.686422E-17
3.060000E+03	2.400097E-16	5.595941E-17
3.070000E+03	2.397194E-16	5.505608E-17
3.080000E+03	2.394552E-16	5.416696E-17
3.090000E+03	2.391638E-16	5.328013E-17
3.100000E+03	2.388719E-16	5.240201E-17
3.110000E+03	2.385797E-16	5.153285E-17
3.120000E+03	2.382873E-16	5.067293E-17
3.130000E+03	2.379690E-16	4.981713E-17
3.140000E+03	2.376766E-16	4.897658E-17
3.150000E+03	2.373590E-16	4.814090E-17
3.160000E+03	2.370421E-16	4.731572E-17
3.170000E+03	2.367012E-16	4.649638E-17
3.180000E+03	2.363865E-16	4.569300E-17
3.190000E+03	2.360485E-16	4.489614E-17
3.200000E+03	2.357367E-16	4.411542E-17
3.210000E+03	2.354025E-16	4.334185E-17
3.220000E+03	2.350708E-16	4.258023E-17
3.230000E+03	2.347418E-16	4.183075E-17
3.240000E+03	2.344158E-16	4.109353E-17
3.250000E+03	2.340698E-16	4.036468E-17
3.260000E+03	2.337509E-16	3.965244E-17
3.270000E+03	2.334360E-16	3.895277E-17
3.280000E+03	2.331026E-16	3.826200E-17
3.290000E+03	2.327968E-16	3.758773E-17
3.300000E+03	2.324736E-16	3.692259E-17
3.310000E+03	2.321784E-16	3.627376E-17
3.320000E+03	2.318668E-16	3.563419E-17
3.330000E+03	2.315618E-16	3.500735E-17
3.340000E+03	2.312851E-16	3.439639E-17
3.350000E+03	2.309938E-16	3.379467E-17
3.360000E+03	2.307313E-16	3.320842E-17
3.370000E+03	2.304552E-16	3.263127E-17
3.380000E+03	2.302082E-16	3.206909E-17
3.390000E+03	2.299486E-16	3.151580E-17
3.400000E+03	2.297184E-16	3.097692E-17
3.410000E+03	2.294970E-16	3.044931E-17
3.420000E+03	2.292847E-16	2.993273E-17
3.430000E+03	2.290817E-16	2.942692E-17
3.440000E+03	2.288685E-16	2.892911E-17
3.450000E+03	2.287049E-16	2.844655E-17
3.460000E+03	2.285315E-16	2.797143E-17
3.470000E+03	2.283685E-16	2.750599E-17
3.480000E+03	2.282352E-16	2.705223E-17
3.490000E+03	2.280933E-16	2.660527E-17
3.500000E+03	2.279812E-16	2.616935E-17
3.510000E+03	2.278800E-16	2.574195E-17
3.520000E+03	2.277898E-16	2.532284E-17
3.530000E+03	2.277109E-16	2.491179E-17
3.540000E+03	2.276617E-16	2.451059E-17
3.550000E+03	2.276057E-16	2.411507E-17
3.560000E+03	2.275798E-16	2.372896E-17
3.570000E+03	2.275657E-16	2.335018E-17
3.580000E+03	2.275639E-16	2.297862E-17
3.590000E+03	2.275923E-16	2.261596E-17
3.600000E+03	2.276160E-16	2.225859E-17
3.610000E+03	2.276706E-16	2.190996E-17
3.620000E+03	2.277388E-16	2.156832E-17
3.630000E+03	2.278214E-16	2.123369E-17
3.640000E+03	2.279358E-16	2.090767E-17
3.650000E+03	2.280657E-16	2.058869E-17
3.660000E+03	2.282119E-16	2.027684E-17
3.670000E+03	2.283751E-16	1.997221E-17
3.680000E+03	2.285563E-16	1.967491E-17
3.690000E+03	2.287728E-16	1.938643E-17
3.700000E+03	2.290090E-16	1.910543E-17
3.710000E+03	2.292661E-16	1.883203E-17
3.720000E+03	2.295450E-16	1.856634E-17
3.730000E+03	2.298626E-16	1.830971E-17
3.740000E+03	2.302039E-16	1.806092E-17
3.750000E+03	2.305699E-16	1.782003E-17
3.760000E+03	2.309769E-16	1.758828E-17
3.770000E+03	2.313947E-16	1.736331E-17
3.780000E+03	2.318549E-16	1.714748E-17
3.790000E+03	2.323422E-16	1.693958E-17
3.800000E+03	2.328572E-16	1.673957E-17
3.810000E+03	2.334146E-16	1.654847E-17
3.820000E+03	2.339992E-16	1.636506E-17
3.830000E+03	2.345955E-16	1.618821E-17
3.840000E+03	2.352324E-16	1.601985E-17
3.850000E+03	2.359084E-16	1.585975E-17
3.860000E+03	2.365926E-16	1.570575E-17
3.870000E+03	2.373121E-16	1.555959E-17
3.880000E+03	2.380500E-16	1.542006E-17
3.890000E+03	2.387892E-16	1.528598E-17
3.900000E+03	2.395555E-16	1.515895E-17
3.910000E+03	2.403452E-16	1.503864E-17
3.920000E+03	2.411261E-16	1.492295E-17
3.930000E+03	2.419086E-16	1.481245E-17
3.940000E+03	2.426885E-16	1.470682E-17
3.950000E+03	2.434754E-16	1.460654E-17
3.960000E+03	2.442370E-16	1.450956E-17
3.970000E+03	2.449965E-16	1.441717E-17
3.980000E+03	2.457219E-16	1.432734E-17
3.990000E+03	2.464229E-16	1.424052E-17
4.000000E+03	2.471088E-16	1.415708E-17
4.010000E+03	2.477485E-16	1.407508E-17
4.020000E+03	2.483523E-16	1.399493E-17
4.030000E+03	2.489168E-16	1.391623E-17
4.040000E+03	2.494394E-16	1.383865E-17
4.050000E+03	2.499177E-16	1.376184E-17
4.060000E+03	2.503371E-16	1.368476E-17
4.070000E+03	2.507225E-16	1.360856E-17
4.080000E+03	2.510474E-16	1.353156E-17
4.090000E+03	2.513119E-16	1.345355E-17
4.100000E+03	2.515424E-16	1.337572E-17
4.110000E+03	2.517145E-16	1.329654E-17
4.120000E+03	2.518304E-16	1.321592E-17
4.130000E+03	2.519174E-16	1.313510E-17
4.140000E+03	2.519533E-16	1.305274E-17
4.150000E+03	2.519418E-16	1.296886E-17
4.160000E+03	2.518990E-16	1.288418E-17
4.170000E+03	2.518170E-16	1.279817E-17
4.180000E+03	2.517002E-16	1.271101E-17
4.190000E+03	2.515656E-16	1.262350E-17
4.200000E+03	2.514179E-16	1.253591E-17
4.210000E+03	2.512387E-16	1.244736E-17
4.220000E+03	2.510567E-16	1.235938E-17
4.230000E+03	2.508653E-16	1.227182E-17
4.240000E+03	2.506812E-16	1.218569E-17
4.250000E+03	2.504866E-16	1.210038E-17
4.260000E+03	2.502979E-16	1.201699E-17
4.270000E+03	2.501308E-16	1.193664E-17
4.280000E+03	2.499675E-16	1.185886E-17
4.290000E+03	2.498342E-16	1.178531E-17
4.300000E+03	2.497127E-16	1.171557E-17
4.310000E+03	2.496282E-16	1.165126E-17
4.320000E+03	2.495621E-16	1.159192E-17
4.330000E+03	2.495277E-16	1.153859E-17
4.340000E+03	2.495167E-16	1.149121E-17
4.350000E+03	2.495516E-16	1.145112E-17
4.360000E+03	2.496127E-16	1.141760E-17
4.370000E+03	2.497007E-16	1.139079E-17
4.380000E+03	2.498362E-16	1.137161E-17
4.390000E+03	2.499882E-16	1.135851E-17
4.400000E+03	2.501862E-16	1.135258E-17
4.410000E+03	2.503984E-16	1.135200E-17
4.420000E+03	2.506430E-16	1.135712E-17
4.430000E+03	2.509173E-16	1.136726E-17
4.440000E+03	2.512083E-16	1.138120E-17
4.450000E+03	2.515126E-16	1.139811E-17
4.460000E+03	2.518262E-16	1.141711E-17
4.470000E+03	2.521544E-16	1.143772E-17
4.480000E+03	2.524826E-16	1.145859E-17
4.490000E+03	2.527962E-16	1.147837E-17
4.500000E+03	2.531089E-16	1.149706E-17
4.510000E+03	2.534055E-16	1.151338E-17
4.520000E+03	2.536897E-16	1.152700E-17
4.530000E+03	2.539366E-16	1.153634E-17
4.540000E+03	2.541497E-16	1.154123E-17
4.550000E+03	2.543234E-16	1.154114E-17
4.560000E+03	2.544428E-16	1.153522E-17
4.570000E+03	2.545212E-16	1.152401E-17
4.580000E+03	2.545443E-16	1.150688E-17
4.590000E+03	2.544987E-16	1.148334E-17
4.600000E+03	2.543896E-16	1.145388E-17
4.610000E+03	2.542139E-16	1.141866E-17
4.620000E+03	2.539602E-16	1.137758E-17
4.630000E+03	2.536360E-16	1.133151E-17
4.640000E+03	2.532404E-16	1.128098E-17
4.650000E+03	2.527735E-16	1.122669E-17
4.660000E+03	2.522277E-16	1.116902E-17
4.670000E+03	2.516135E-16	1.110927E-17
4.680000E+03	2.509253E-16	1.104800E-17
4.690000E+03	2.501752E-16	1.098664E-17
4.700000E+03	2.493593E-16	1.092589E-17
4.710000E+03	2.484912E-16	1.086719E-17
4.720000E+03	2.475768E-16	1.081162E-17
4.730000E+03	2.466056E-16	1.075945E-17
4.740000E+03	2.456097E-16	1.071268E-17
4.750000E+03	2.445796E-16	1.067136E-17
4.760000E+03	2.435236E-16	1.063596E-17
4.770000E+03	2.424582E-16	1.060692E-17
4.780000E+03	2.413845E-16	1.058377E-17
4.790000E+03	2.403113E-16	1.056621E-17
4.800000E+03	2.392553E-16	1.055421E-17
4.810000E+03	2.382248E-16	1.054737E-17
4.820000E+03	2.372121E-16	1.054453E-17
4.830000E+03	2.362402E-16	1.054593E-17
4.840000E+03	2.353160E-16	1.055112E-17
4.850000E+03	2.344381E-16	1.055932E-17
4.860000E+03	2.336120E-16	1.057013E-17
4.870000E+03	2.328500E-16	1.058349E-17
4.880000E+03	2.321489E-16	1.059871E-17
4.890000E+03	2.315119E-16	1.061544E-17
4.900000E+03	2.309491E-16	1.063371E-17
4.910000E+03	2.304549E-16	1.065287E-17
4.920000E+03	2.300377E-16	1.067298E-17
4.930000E+03	2.296906E-16	1.069341E-17
4.940000E+03	2.294134E-16	1.071390E-17
4.950000E+03	2.292123E-16	1.073451E-17
4.960000E+03	2.290789E-16	1.075464E-17
4.970000E+03	2.290111E-16	1.077403E-17
4.980000E+03	2.290137E-16	1.079274E-17
4.990000E+03	2.290769E-16	1.081017E-17
5.000000E+03	2.292047E-16	1.082639E-17
5.010000E+03	2.293869E-16	1.084080E-17
5.020000E+03	2.296200E-16	1.085314E-17
5.030000E+03	2.299076E-16	1.086348E-17
5.040000E+03	2.302390E-16	1.087126E-17
5.050000E+03	2.306176E-16	1.087656E-17
5.060000E+03	2.310328E-16	1.087883E-17
5.070000E+03	2.314881E-16	1.087819E-17
5.080000E+03	2.319729E-16	1.087414E-17
5.090000E+03	2.324836E-16	1.086651E-17
5.100000E+03	2.330237E-16	1.085549E-17
5.110000E+03	2.335897E-16	1.084099E-17
5.120000E+03	2.341711E-16	1.082259E-17
5.130000E+03	2.347642E-16	1.080026E-17
5.140000E+03	2.353723E-16	1.077432E-17
5.150000E+03	2.359917E-16	1.074481E-17
5.160000E+03	2.366114E-16	1.071148E-17
5.170000E+03	2.372272E-16	1.067444E-17
5.180000E+03	2.378419E-16	1.063417E-17
5.190000E+03	2.384510E-16	1.059086E-17
5.200000E+03	2.390427E-16	1.054444E-17
5.210000E+03	2.396121E-16	1.049521E-17
5.220000E+03	2.401683E-16	1.044411E-17
5.230000E+03	2.406846E-16	1.039059E-17
5.240000E+03	2.411768E-16	1.033600E-17
5.250000E+03	2.416251E-16	1.028020E-17
5.260000E+03	2.420235E-16	1.022371E-17
5.270000E+03	2.423734E-16	1.016739E-17
5.280000E+03	2.426687E-16	1.011183E-17
5.290000E+03	2.429034E-16	1.005768E-17
5.300000E+03	2.430645E-16	1.000528E-17
5.310000E+03	2.431460E-16	9.955302E-18
5.320000E+03	2.431563E-16	9.908977E-18
5.330000E+03	2.430756E-16	9.866336E-18
5.340000E+03	2.428984E-16	9.827933E-18
5.350000E+03	2.426335E-16	9.794783E-18
5.360000E+03	2.422618E-16	9.766609E-18
5.370000E+03	2.417854E-16	9.743775E-18
5.380000E+03	2.411923E-16	9.725706E-18
5.390000E+03	2.404846E-16	9.711874E-18
5.400000E+03	2.396574E-16	9.701130E-18
5.410000E+03	2.387063E-16	9.692175E-18
5.420000E+03	2.376208E-16	9.683378E-18
5.430000E+03	2.364117E-16	9.673957E-18
5.440000E+03	2.350634E-16	9.662087E-18
5.450000E+03	2.335750E-16	9.646616E-18
5.460000E+03	2.319602E-16	9.627096E-18
5.470000E+03	2.302068E-16	9.602146E-18
5.480000E+03	2.283241E-16	9.571406E-18
5.490000E+03	2.263220E-16	9.534708E-18
5.500000E+03	2.241858E-16	9.490989E-18
5.510000E+03	2.219408E-16	9.441018E-18
5.520000E+03	2.195875E-16	9.384649E-18
5.530000E+03	2.171275E-16	9.321905E-18
5.540000E+03	2.145822E-16	9.253756E-18
5.550000E+03	2.119491E-16	9.180224E-18
5.560000E+03	2.092446E-16	9.102228E-18
5.570000E+03	2.064799E-16	9.020490E-18
5.580000E+03	2.036723E-16	8.936035E-18
5.590000E+03	2.008217E-16	8.849137E-18
5.600000E+03	1.979462E-16	8.760844E-18
5.610000E+03	1.950577E-16	8.671919E-18
5.620000E+03	1.921683E-16	8.583084E-18
5.630000E+03	1.892895E-16	8.495003E-18
5.640000E+03	1.864327E-16	8.408271E-18
5.650000E+03	1.836087E-16	8.323402E-18
5.660000E+03	1.808278E-16	8.240824E-18
5.670000E+03	1.780996E-16	8.160880E-18
5.680000E+03	1.754378E-16	8.084058E-18
5.690000E+03	1.728404E-16	8.010064E-18
5.700000E+03	1.703243E-16	7.939455E-18
5.710000E+03	1.678910E-16	7.872026E-18
5.720000E+03	1.655409E-16	7.807518E-18
5.730000E+03	1.632882E-16	7.746291E-18
5.740000E+03	1.611364E-16	7.688212E-18
5.750000E+03	1.590789E-16	7.632672E-18
5.760000E+03	1.571227E-16	7.579703E-18
5.770000E+03	1.552735E-16	7.529315E-18
5.780000E+03	1.535276E-16	7.481069E-18
5.790000E+03	1.518853E-16	7.434743E-18
5.800000E+03	1.503505E-16	7.390326E-18
5.810000E+03	1.489182E-16	7.347387E-18
5.820000E+03	1.475873E-16	7.305714E-18
5.830000E+03	1.463565E-16	7.265111E-18
5.840000E+03	1.452245E-16	7.225392E-18
5.850000E+03	1.441936E-16	7.186594E-18
5.860000E+03	1.432622E-16	7.148564E-18
5.870000E+03	1.424203E-16	7.110753E-18
5.880000E+03	1.416745E-16	7.073459E-18
5.890000E+03	1.410195E-16	7.036380E-18
5.900000E+03	1.404578E-16	6.999645E-18
5.910000E+03	1.399844E-16	6.962995E-18
5.920000E+03	1.395985E-16	6.926397E-18
5.930000E+03	1.393036E-16	6.890036E-18
5.940000E+03	1.390996E-16	6.853916E-18
5.950000E+03	1.389785E-16	6.817663E-18
5.960000E+03	1.389490E-16	6.781715E-18
5.970000E+03	1.390119E-16	6.746130E-18
5.980000E+03	1.391644E-16	6.710782E-18
5.990000E+03	1.394122E-16	6.675955E-18
6.000000E+03	1.397530E-16	6.641555E-18
6.010000E+03	1.401891E-16	6.607695E-18
6.020000E+03	1.407271E-16	6.574693E-18
6.030000E+03	1.413696E-16	6.542685E-18
6.040000E+03	1.421155E-16	6.511630E-18
6.050000E+03	1.429678E-16	6.481691E-18
6.060000E+03	1.439379E-16	6.453428E-18
6.070000E+03	1.450164E-16	6.426472E-18
6.080000E+03	1.462147E-16	6.401425E-18
6.090000E+03	1.475357E-16	6.378539E-18
6.100000E+03	1.489820E-16	6.358100E-18
6.110000E+03	1.505514E-16	6.340254E-18
6.120000E+03	1.522456E-16	6.325387E-18
6.130000E+03	1.540700E-16	6.314131E-18
6.140000E+03	1.560251E-16	6.307005E-18
6.150000E+03	1.581102E-16	6.304612E-18
6.160000E+03	1.603190E-16	6.307454E-18
6.170000E+03	1.626486E-16	6.316320E-18
6.180000E+03	1.651044E-16	6.332462E-18
6.190000E+03	1.676712E-16	6.356475E-18
6.200000E+03	1.703415E-16	6.389393E-18
6.210000E+03	1.731163E-16	6.432662E-18
6.220000E+03	1.759747E-16	6.486949E-18
6.230000E+03	1.789033E-16	6.553192E-18
6.240000E+03	1.818975E-16	6.632458E-18
6.250000E+03	1.849282E-16	6.724446E-18
6.260000E+03	1.879795E-16	6.828785E-18
6.270000E+03	1.910221E-16	6.944285E-18
6.280000E+03	1.940419E-16	7.070082E-18
6.290000E+03	1.970009E-16	7.204264E-18
6.300000E+03	1.998772E-16	7.345377E-18
6.310000E+03	2.026366E-16	7.491429E-18
6.320000E+03	2.052636E-16	7.641031E-18
6.330000E+03	2.077184E-16	7.791875E-18
6.340000E+03	2.099811E-16	7.942353E-18
6.350000E+03	2.120272E-16	8.090687E-18
6.360000E+03	2.138343E-16	8.235182E-18
6.370000E+03	2.153762E-16	8.374005E-18
6.380000E+03	2.166491E-16	8.506213E-18
6.390000E+03	2.176263E-16	8.630002E-18
6.400000E+03	2.183043E-16	8.744504E-18
6.410000E+03	2.186769E-16	8.848773E-18
6.420000E+03	2.187412E-16	8.942044E-18
6.430000E+03	2.184984E-16	9.023737E-18
6.440000E+03	2.179462E-16	9.093171E-18
6.450000E+03	2.171057E-16	9.150668E-18
6.460000E+03	2.159745E-16	9.195600E-18
6.470000E+03	2.145793E-16	9.228603E-18
6.480000E+03	2.129229E-16	9.249318E-18
6.490000E+03	2.110361E-16	9.258631E-18
6.500000E+03	2.089254E-16	9.256387E-18
6.510000E+03	2.066241E-16	9.243645E-18
6.520000E+03	2.041408E-16	9.220386E-18
6.530000E+03	2.015036E-16	9.187490E-18
6.540000E+03	1.987404E-16	9.145864E-18
6.550000E+03	1.958604E-16	9.095581E-18
6.560000E+03	1.928969E-16	9.037854E-18
6.570000E+03	1.898582E-16	8.972767E-18
6.580000E+03	1.867758E-16	8.901517E-18
6.590000E+03	1.836622E-16	8.824451E-18
6.600000E+03	1.805348E-16	8.742182E-18
6.610000E+03	1.774101E-16	8.655307E-18
6.620000E+03	1.743031E-16	8.564405E-18
6.630000E+03	1.712278E-16	8.470041E-18
6.640000E+03	1.681971E-16	8.372760E-18
6.650000E+03	1.652226E-16	8.273094E-18
6.660000E+03	1.623201E-16	8.171811E-18
6.670000E+03	1.594939E-16	8.069144E-18
6.680000E+03	1.567526E-16	7.965572E-18
6.690000E+03	1.541039E-16	7.861555E-18
6.700000E+03	1.515546E-16	7.757534E-18
6.710000E+03	1.491110E-16	7.653931E-18
6.720000E+03	1.467829E-16	7.551386E-18
6.730000E+03	1.445703E-16	7.450037E-18
6.740000E+03	1.424774E-16	7.350246E-18
6.750000E+03	1.405078E-16	7.252357E-18
6.760000E+03	1.386691E-16	7.156921E-18
6.770000E+03	1.369550E-16	7.063788E-18
6.780000E+03	1.353768E-16	6.973702E-18
6.790000E+03	1.339321E-16	6.886712E-18
6.800000E+03	1.326268E-16	6.803299E-18
6.810000E+03	1.314541E-16	6.723279E-18
6.820000E+03	1.304236E-16	6.647328E-18
6.830000E+03	1.295324E-16	6.575463E-18
6.840000E+03	1.287854E-16	6.508124E-18
6.850000E+03	1.281794E-16	6.445319E-18
6.860000E+03	1.277110E-16	6.387063E-18
6.870000E+03	1.273931E-16	6.334186E-18
6.880000E+03	1.272139E-16	6.286282E-18
6.890000E+03	1.271819E-16	6.243965E-18
6.900000E+03	1.272932E-16	6.207232E-18
6.910000E+03	1.275481E-16	6.176279E-18
6.920000E+03	1.279465E-16	6.151292E-18
6.930000E+03	1.284924E-16	6.132647E-18
6.940000E+03	1.291813E-16	6.120308E-18
6.950000E+03	1.300129E-16	6.114421E-18
6.960000E+03	1.309905E-16	6.115308E-18
6.970000E+03	1.321049E-16	6.122671E-18
6.980000E+03	1.333633E-16	6.136975E-18
6.990000E+03	1.347600E-16	6.158051E-18
7.000000E+03	1.362976E-16	6.186086E-18
7.010000E+03	1.379652E-16	6.220617E-18
7.020000E+03	1.397689E-16	6.261931E-18
7.030000E+03	1.417012E-16	6.309651E-18
7.040000E+03	1.437631E-16	6.363747E-18
7.050000E+03	1.459407E-16	6.423494E-18
7.060000E+03	1.482383E-16	6.488934E-18
7.070000E+03	1.506402E-16	6.559191E-18
7.080000E+03	1.531491E-16	6.634169E-18
7.090000E+03	1.557518E-16	6.713056E-18
7.100000E+03	1.584440E-16	6.795405E-18
7.110000E+03	1.612042E-16	6.880033E-18
7.120000E+03	1.640306E-16	6.966587E-18
7.130000E+03	1.668980E-16	7.053745E-18
7.140000E+03	1.698015E-16	7.141052E-18
7.150000E+03	1.727178E-16	7.227312E-18
7.160000E+03	1.756274E-16	7.311522E-18
7.170000E+03	1.785088E-16	7.392643E-18
7.180000E+03	1.813390E-16	7.469614E-18
7.190000E+03	1.840933E-16	7.541357E-18
7.200000E+03	1.867461E-16	7.606787E-18
7.210000E+03	1.892705E-16	7.664819E-18
7.220000E+03	1.916394E-16	7.714378E-18
7.230000E+03	1.938318E-16	7.754666E-18
7.240000E+03	1.958081E-16	7.784138E-18
7.250000E+03	1.975490E-16	7.802071E-18
7.260000E+03	1.990303E-16	7.807537E-18
7.270000E+03	2.002303E-16	7.799693E-18
7.280000E+03	2.011300E-16	7.777789E-18
7.290000E+03	2.017139E-16	7.741201E-18
7.300000E+03	2.019703E-16	7.689456E-18
7.310000E+03	2.018851E-16	7.621996E-18
7.320000E+03	2.014688E-16	7.539238E-18
7.330000E+03	2.007096E-16	7.440795E-18
7.340000E+03	1.996205E-16	7.327287E-18
7.350000E+03	1.982191E-16	7.199574E-18
7.360000E+03	1.965001E-16	7.057800E-18
7.370000E+03	1.945023E-16	6.903824E-18
7.380000E+03	1.922410E-16	6.738778E-18
7.390000E+03	1.897344E-16	6.564046E-18
7.400000E+03	1.870161E-16	6.381679E-18
7.410000E+03	1.841142E-16	6.193676E-18
7.420000E+03	1.810521E-16	6.001987E-18
7.430000E+03	1.778717E-16	5.809300E-18
7.440000E+03	1.745901E-16	5.617570E-18
7.450000E+03	1.712420E-16	5.429407E-18
7.460000E+03	1.678491E-16	5.247039E-18
7.470000E+03	1.644431E-16	5.073024E-18
7.480000E+03	1.610481E-16	4.909634E-18
7.490000E+03	1.576804E-16	4.758823E-18
7.500000E+03	1.543653E-16	4.622656E-18
7.510000E+03	1.511202E-16	4.502724E-18
7.520000E+03	1.479549E-16	4.400081E-18
7.530000E+03	1.448873E-16	4.315605E-18
7.540000E+03	1.419279E-16	4.249357E-18
7.550000E+03	1.390811E-16	4.200383E-18
7.560000E+03	1.363592E-16	4.167381E-18
7.570000E+03	1.337629E-16	4.148484E-18
7.580000E+03	1.313007E-16	4.142017E-18
7.590000E+03	1.289702E-16	4.146046E-18
7.600000E+03	1.267766E-16	4.159029E-18
7.610000E+03	1.247192E-16	4.179440E-18
7.620000E+03	1.227919E-16	4.205783E-18
7.630000E+03	1.209921E-16	4.236894E-18
7.640000E+03	1.193207E-16	4.271933E-18
7.650000E+03	1.177734E-16	4.310078E-18
7.660000E+03	1.163412E-16	4.350492E-18
7.670000E+03	1.150189E-16	4.392609E-18
7.680000E+03	1.138048E-16	4.436112E-18
7.690000E+03	1.126927E-16	4.480614E-18
7.700000E+03	1.116685E-16	4.525469E-18
7.710000E+03	1.107372E-16	4.570867E-18
7.720000E+03	1.098842E-16	4.616237E-18
7.730000E+03	1.091026E-16	4.661347E-18
7.740000E+03	1.083854E-16	4.705982E-18
7.750000E+03	1.077295E-16	4.750105E-18
7.760000E+03	1.071277E-16	4.793521E-18
