#wls	flux	fluxerr
1.600000E+03	1.519534E-16	1.101906E-16
1.640000E+03	1.554469E-16	1.113412E-16
1.680000E+03	1.589506E-16	1.124018E-16
1.720000E+03	1.624839E-16	1.133830E-16
1.760000E+03	1.660110E-16	1.142567E-16
1.800000E+03	1.695510E-16	1.150335E-16
1.840000E+03	1.730657E-16	1.156849E-16
1.880000E+03	1.766037E-16	1.162411E-16
1.920000E+03	1.800956E-16	1.166542E-16
1.960000E+03	1.835600E-16	1.169351E-16
2.000000E+03	1.869854E-16	1.170752E-16
2.040000E+03	1.903909E-16	1.170856E-16
2.080000E+03	1.937019E-16	1.169201E-16
2.120000E+03	1.969999E-16	1.166286E-16
2.160000E+03	2.001769E-16	1.161473E-16
2.200000E+03	2.033154E-16	1.155263E-16
2.240000E+03	2.063375E-16	1.147230E-16
2.280000E+03	2.092619E-16	1.137511E-16
2.320000E+03	2.120749E-16	1.126070E-16
2.360000E+03	2.147627E-16	1.112881E-16
2.400000E+03	2.173451E-16	1.098098E-16
2.440000E+03	2.197756E-16	1.081547E-16
2.480000E+03	2.220746E-16	1.063404E-16
2.520000E+03	2.242297E-16	1.043686E-16
2.560000E+03	2.262293E-16	1.022427E-16
2.600000E+03	2.280954E-16	9.998241E-17
2.640000E+03	2.297522E-16	9.756507E-17
2.680000E+03	2.312893E-16	9.504095E-17
2.720000E+03	2.326337E-16	9.239147E-17
2.760000E+03	2.338436E-16	8.965311E-17
2.800000E+03	2.348818E-16	8.682440E-17
2.840000E+03	2.357455E-16	8.391867E-17
2.880000E+03	2.364954E-16	8.097170E-17
2.920000E+03	2.370695E-16	7.797577E-17
2.960000E+03	2.375311E-16	7.496629E-17
3.000000E+03	2.378535E-16	7.194793E-17
3.010000E+03	2.379296E-16	7.119871E-17
3.020000E+03	2.379864E-16	7.044674E-17
3.030000E+03	2.380241E-16	6.969239E-17
3.040000E+03	2.380721E-16	6.894445E-17
3.050000E+03	2.381303E-16	6.820293E-17
3.060000E+03	2.381698E-16	6.745964E-17
3.070000E+03	2.381908E-16	6.671496E-17
3.080000E+03	2.381938E-16	6.596926E-17
3.090000E+03	2.382358E-16	6.523843E-17
3.100000E+03	2.382315E-16	6.449913E-17
3.110000E+03	2.382380E-16	6.376713E-17
3.120000E+03	2.382552E-16	6.304240E-17
3.130000E+03	2.382552E-16	6.231762E-17
3.140000E+03	2.382660E-16	6.160028E-17
3.150000E+03	2.382600E-16	6.088328E-17
3.160000E+03	2.382376E-16	6.016693E-17
3.170000E+03	2.382264E-16	5.945834E-17
3.180000E+03	2.381993E-16	5.875075E-17
3.190000E+03	2.381836E-16	5.805101E-17
3.200000E+03	2.381793E-16	5.735907E-17
3.210000E+03	2.381597E-16	5.666845E-17
3.220000E+03	2.381250E-16	5.597942E-17
3.230000E+03	2.381023E-16	5.529835E-17
3.240000E+03	2.380913E-16	5.462513E-17
3.250000E+03	2.380660E-16	5.395372E-17
3.260000E+03	2.380266E-16	5.328432E-17
3.270000E+03	2.379995E-16	5.262285E-17
3.280000E+03	2.379847E-16	5.196916E-17
3.290000E+03	2.379564E-16	5.131759E-17
3.300000E+03	2.379407E-16	5.067372E-17
3.310000E+03	2.379119E-16	5.003207E-17
3.320000E+03	2.378959E-16	4.939799E-17
3.330000E+03	2.378673E-16	4.876618E-17
3.340000E+03	2.378516E-16	4.814179E-17
3.350000E+03	2.378238E-16	4.751969E-17
3.360000E+03	2.378091E-16	4.690482E-17
3.370000E+03	2.377827E-16	4.629222E-17
3.380000E+03	2.377696E-16	4.568664E-17
3.390000E+03	2.377695E-16	4.508789E-17
3.400000E+03	2.377583E-16	4.449123E-17
3.410000E+03	2.377603E-16	4.390116E-17
3.420000E+03	2.377516E-16	4.331310E-17
3.430000E+03	2.377562E-16	4.273137E-17
3.440000E+03	2.377504E-16	4.215155E-17
3.450000E+03	2.377581E-16	4.157779E-17
3.460000E+03	2.377558E-16	4.100584E-17
3.470000E+03	2.377901E-16	4.044361E-17
3.480000E+03	2.377915E-16	3.987906E-17
3.490000E+03	2.378065E-16	3.932000E-17
3.500000E+03	2.378349E-16	3.876624E-17
3.510000E+03	2.378768E-16	3.821757E-17
3.520000E+03	2.379093E-16	3.767021E-17
3.530000E+03	2.379329E-16	3.712420E-17
3.540000E+03	2.379701E-16	3.658297E-17
3.550000E+03	2.380208E-16	3.604634E-17
3.560000E+03	2.380628E-16	3.551085E-17
3.570000E+03	2.381185E-16	3.497974E-17
3.580000E+03	2.381659E-16	3.444970E-17
3.590000E+03	2.382269E-16	3.392386E-17
3.600000E+03	2.383015E-16	3.340207E-17
3.610000E+03	2.383681E-16	3.288123E-17
3.620000E+03	2.384484E-16	3.236430E-17
3.630000E+03	2.385212E-16	3.184833E-17
3.640000E+03	2.386076E-16	3.133616E-17
3.650000E+03	2.387077E-16	3.082769E-17
3.660000E+03	2.388006E-16	3.032020E-17
3.670000E+03	2.388865E-16	2.981379E-17
3.680000E+03	2.389863E-16	2.931109E-17
3.690000E+03	2.390999E-16	2.881205E-17
3.700000E+03	2.392069E-16	2.831424E-17
3.710000E+03	2.393276E-16	2.782014E-17
3.720000E+03	2.394420E-16	2.732747E-17
3.730000E+03	2.395702E-16	2.683864E-17
3.740000E+03	2.397120E-16	2.635368E-17
3.750000E+03	2.398476E-16	2.587051E-17
3.760000E+03	2.399771E-16	2.538935E-17
3.770000E+03	2.401202E-16	2.491249E-17
3.780000E+03	2.402767E-16	2.444004E-17
3.790000E+03	2.404271E-16	2.397022E-17
3.800000E+03	2.405713E-16	2.350334E-17
3.810000E+03	2.407478E-16	2.304340E-17
3.820000E+03	2.408989E-16	2.258515E-17
3.830000E+03	2.410627E-16	2.213257E-17
3.840000E+03	2.412389E-16	2.168597E-17
3.850000E+03	2.414084E-16	2.124400E-17
3.860000E+03	2.415711E-16	2.080715E-17
3.870000E+03	2.417454E-16	2.037747E-17
3.880000E+03	2.419310E-16	1.995536E-17
3.890000E+03	2.421089E-16	1.953976E-17
3.900000E+03	2.422790E-16	1.913121E-17
3.910000E+03	2.424591E-16	1.873167E-17
3.920000E+03	2.426305E-16	1.834022E-17
3.930000E+03	2.428109E-16	1.795873E-17
3.940000E+03	2.429816E-16	1.758631E-17
3.950000E+03	2.431422E-16	1.722346E-17
3.960000E+03	2.433097E-16	1.687186E-17
3.970000E+03	2.434657E-16	1.653064E-17
3.980000E+03	2.436269E-16	1.620131E-17
3.990000E+03	2.437578E-16	1.588184E-17
4.000000E+03	2.439095E-16	1.557587E-17
4.010000E+03	2.440296E-16	1.528022E-17
4.020000E+03	2.441516E-16	1.499719E-17
4.030000E+03	2.442579E-16	1.472577E-17
4.040000E+03	2.443648E-16	1.446697E-17
4.050000E+03	2.444382E-16	1.421871E-17
4.060000E+03	2.445116E-16	1.398286E-17
4.070000E+03	2.445680E-16	1.375823E-17
4.080000E+03	2.446242E-16	1.354549E-17
4.090000E+03	2.446639E-16	1.334338E-17
4.100000E+03	2.446715E-16	1.315064E-17
4.110000E+03	2.446965E-16	1.296946E-17
4.120000E+03	2.446914E-16	1.279674E-17
4.130000E+03	2.446736E-16	1.263283E-17
4.140000E+03	2.446605E-16	1.247796E-17
4.150000E+03	2.446218E-16	1.232994E-17
4.160000E+03	2.445910E-16	1.218977E-17
4.170000E+03	2.445541E-16	1.205607E-17
4.180000E+03	2.445130E-16	1.192828E-17
4.190000E+03	2.444697E-16	1.180589E-17
4.200000E+03	2.444262E-16	1.168842E-17
4.210000E+03	2.443845E-16	1.157546E-17
4.220000E+03	2.443617E-16	1.146737E-17
4.230000E+03	2.443292E-16	1.136248E-17
4.240000E+03	2.443041E-16	1.126131E-17
4.250000E+03	2.442880E-16	1.116378E-17
4.260000E+03	2.442824E-16	1.106988E-17
4.270000E+03	2.442887E-16	1.097972E-17
4.280000E+03	2.443081E-16	1.089347E-17
4.290000E+03	2.443417E-16	1.081140E-17
4.300000E+03	2.443904E-16	1.073387E-17
4.310000E+03	2.444406E-16	1.066066E-17
4.320000E+03	2.445218E-16	1.059353E-17
4.330000E+03	2.446056E-16	1.053171E-17
4.340000E+03	2.447068E-16	1.047633E-17
4.350000E+03	2.448256E-16	1.042787E-17
4.360000E+03	2.449621E-16	1.038667E-17
4.370000E+03	2.451022E-16	1.035236E-17
4.380000E+03	2.452600E-16	1.032557E-17
4.390000E+03	2.454351E-16	1.030609E-17
4.400000E+03	2.456274E-16	1.029347E-17
4.410000E+03	2.458226E-16	1.028648E-17
4.420000E+03	2.460338E-16	1.028492E-17
4.430000E+03	2.462606E-16	1.028788E-17
4.440000E+03	2.464882E-16	1.029390E-17
4.450000E+03	2.467294E-16	1.030264E-17
4.460000E+03	2.469827E-16	1.031325E-17
4.470000E+03	2.472331E-16	1.032440E-17
4.480000E+03	2.474923E-16	1.033597E-17
4.490000E+03	2.477448E-16	1.034682E-17
4.500000E+03	2.480016E-16	1.035706E-17
4.510000E+03	2.482467E-16	1.036577E-17
4.520000E+03	2.484905E-16	1.037324E-17
4.530000E+03	2.487298E-16	1.037932E-17
4.540000E+03	2.489482E-16	1.038339E-17
4.550000E+03	2.491423E-16	1.038548E-17
4.560000E+03	2.493219E-16	1.038624E-17
4.570000E+03	2.494835E-16	1.038583E-17
4.580000E+03	2.495978E-16	1.038338E-17
4.590000E+03	2.497008E-16	1.038077E-17
4.600000E+03	2.497510E-16	1.037668E-17
4.610000E+03	2.497720E-16	1.037250E-17
4.620000E+03	2.497620E-16	1.036853E-17
4.630000E+03	2.497070E-16	1.036455E-17
4.640000E+03	2.496066E-16	1.036088E-17
4.650000E+03	2.494735E-16	1.035834E-17
4.660000E+03	2.492957E-16	1.035670E-17
4.670000E+03	2.490747E-16	1.035622E-17
4.680000E+03	2.488248E-16	1.035771E-17
4.690000E+03	2.485235E-16	1.036039E-17
4.700000E+03	2.482110E-16	1.036606E-17
4.710000E+03	2.478533E-16	1.037340E-17
4.720000E+03	2.474786E-16	1.038366E-17
4.730000E+03	2.470785E-16	1.039647E-17
4.740000E+03	2.466691E-16	1.041246E-17
4.750000E+03	2.462302E-16	1.043061E-17
4.760000E+03	2.457901E-16	1.045184E-17
4.770000E+03	2.453406E-16	1.047538E-17
4.780000E+03	2.448974E-16	1.050140E-17
4.790000E+03	2.444526E-16	1.052893E-17
4.800000E+03	2.440096E-16	1.055751E-17
4.810000E+03	2.435721E-16	1.058662E-17
4.820000E+03	2.431434E-16	1.061574E-17
4.830000E+03	2.427382E-16	1.064488E-17
4.840000E+03	2.423365E-16	1.067253E-17
4.850000E+03	2.419752E-16	1.069973E-17
4.860000E+03	2.416225E-16	1.072455E-17
4.870000E+03	2.412918E-16	1.074708E-17
4.880000E+03	2.409964E-16	1.076746E-17
4.890000E+03	2.407264E-16	1.078487E-17
4.900000E+03	2.404831E-16	1.079903E-17
4.910000E+03	2.402674E-16	1.080969E-17
4.920000E+03	2.400800E-16	1.081664E-17
4.930000E+03	2.399326E-16	1.082020E-17
4.940000E+03	2.398142E-16	1.081969E-17
4.950000E+03	2.397248E-16	1.081497E-17
4.960000E+03	2.396640E-16	1.080588E-17
4.970000E+03	2.396312E-16	1.079226E-17
4.980000E+03	2.396368E-16	1.077446E-17
4.990000E+03	2.396685E-16	1.075179E-17
5.000000E+03	2.397252E-16	1.072410E-17
5.010000E+03	2.398053E-16	1.069122E-17
5.020000E+03	2.399073E-16	1.065299E-17
5.030000E+03	2.400402E-16	1.060975E-17
5.040000E+03	2.401803E-16	1.056043E-17
5.050000E+03	2.403474E-16	1.050594E-17
5.060000E+03	2.405287E-16	1.044577E-17
5.070000E+03	2.407219E-16	1.037998E-17
5.080000E+03	2.409357E-16	1.030915E-17
5.090000E+03	2.411464E-16	1.023254E-17
5.100000E+03	2.413731E-16	1.015132E-17
5.110000E+03	2.416026E-16	1.006534E-17
5.120000E+03	2.418321E-16	9.975015E-18
5.130000E+03	2.420696E-16	9.881209E-18
5.140000E+03	2.422902E-16	9.783537E-18
5.150000E+03	2.425120E-16	9.683406E-18
5.160000E+03	2.427204E-16	9.580939E-18
5.170000E+03	2.429110E-16	9.476722E-18
5.180000E+03	2.430901E-16	9.371762E-18
5.190000E+03	2.432313E-16	9.265832E-18
5.200000E+03	2.433509E-16	9.160357E-18
5.210000E+03	2.434327E-16	9.055523E-18
5.220000E+03	2.434818E-16	8.952321E-18
5.230000E+03	2.434713E-16	8.850550E-18
5.240000E+03	2.434168E-16	8.751570E-18
5.250000E+03	2.433018E-16	8.655557E-18
5.260000E+03	2.431208E-16	8.563061E-18
5.270000E+03	2.428789E-16	8.474982E-18
5.280000E+03	2.425600E-16	8.391442E-18
5.290000E+03	2.421591E-16	8.312912E-18
5.300000E+03	2.416713E-16	8.239818E-18
5.310000E+03	2.411024E-16	8.172890E-18
5.320000E+03	2.404272E-16	8.111728E-18
5.330000E+03	2.396733E-16	8.057617E-18
5.340000E+03	2.388060E-16	8.009632E-18
5.350000E+03	2.378433E-16	7.968462E-18
5.360000E+03	2.367725E-16	7.933587E-18
5.370000E+03	2.355918E-16	7.904645E-18
5.380000E+03	2.343003E-16	7.881052E-18
5.390000E+03	2.329072E-16	7.862341E-18
5.400000E+03	2.314124E-16	7.847534E-18
5.410000E+03	2.297966E-16	7.834878E-18
5.420000E+03	2.280809E-16	7.823934E-18
5.430000E+03	2.262573E-16	7.813277E-18
5.440000E+03	2.243379E-16	7.802227E-18
5.450000E+03	2.223066E-16	7.789214E-18
5.460000E+03	2.201958E-16	7.774470E-18
5.470000E+03	2.179814E-16	7.756370E-18
5.480000E+03	2.156873E-16	7.735100E-18
5.490000E+03	2.133097E-16	7.709988E-18
5.500000E+03	2.108636E-16	7.681149E-18
5.510000E+03	2.083468E-16	7.648151E-18
5.520000E+03	2.057663E-16	7.610987E-18
5.530000E+03	2.031386E-16	7.570056E-18
5.540000E+03	2.004627E-16	7.525174E-18
5.550000E+03	1.977557E-16	7.476857E-18
5.560000E+03	1.950175E-16	7.425026E-18
5.570000E+03	1.922570E-16	7.369967E-18
5.580000E+03	1.894912E-16	7.312309E-18
5.590000E+03	1.867210E-16	7.252085E-18
5.600000E+03	1.839631E-16	7.189974E-18
5.610000E+03	1.812183E-16	7.126059E-18
5.620000E+03	1.784952E-16	7.060751E-18
5.630000E+03	1.758098E-16	6.994768E-18
5.640000E+03	1.731697E-16	6.928524E-18
5.650000E+03	1.705678E-16	6.861850E-18
5.660000E+03	1.680331E-16	6.796030E-18
5.670000E+03	1.655575E-16	6.730869E-18
5.680000E+03	1.631474E-16	6.666734E-18
5.690000E+03	1.608151E-16	6.604240E-18
5.700000E+03	1.585588E-16	6.543391E-18
5.710000E+03	1.563894E-16	6.484701E-18
5.720000E+03	1.543041E-16	6.428073E-18
5.730000E+03	1.523122E-16	6.373894E-18
5.740000E+03	1.504160E-16	6.322208E-18
5.750000E+03	1.486045E-16	6.272456E-18
5.760000E+03	1.468977E-16	6.225355E-18
5.770000E+03	1.452834E-16	6.180221E-18
5.780000E+03	1.437616E-16	6.136859E-18
5.790000E+03	1.423379E-16	6.095287E-18
5.800000E+03	1.410111E-16	6.055229E-18
5.810000E+03	1.397738E-16	6.016131E-18
5.820000E+03	1.386305E-16	5.977947E-18
5.830000E+03	1.375794E-16	5.940369E-18
5.840000E+03	1.366125E-16	5.902850E-18
5.850000E+03	1.357282E-16	5.865113E-18
5.860000E+03	1.349304E-16	5.827156E-18
5.870000E+03	1.342172E-16	5.788751E-18
5.880000E+03	1.335814E-16	5.749458E-18
5.890000E+03	1.330273E-16	5.709370E-18
5.900000E+03	1.325537E-16	5.668370E-18
5.910000E+03	1.321542E-16	5.626147E-18
5.920000E+03	1.318338E-16	5.582919E-18
5.930000E+03	1.315923E-16	5.538711E-18
5.940000E+03	1.314243E-16	5.493367E-18
5.950000E+03	1.313358E-16	5.447256E-18
5.960000E+03	1.313277E-16	5.400565E-18
5.970000E+03	1.313955E-16	5.353305E-18
5.980000E+03	1.315465E-16	5.306005E-18
5.990000E+03	1.317769E-16	5.258784E-18
6.000000E+03	1.321005E-16	5.212481E-18
6.010000E+03	1.325085E-16	5.167075E-18
6.020000E+03	1.330043E-16	5.123025E-18
6.030000E+03	1.336027E-16	5.081243E-18
6.040000E+03	1.342962E-16	5.041769E-18
6.050000E+03	1.350951E-16	5.005295E-18
6.060000E+03	1.359982E-16	4.972063E-18
6.070000E+03	1.370166E-16	4.942714E-18
6.080000E+03	1.381556E-16	4.917641E-18
6.090000E+03	1.394210E-16	4.897193E-18
6.100000E+03	1.408187E-16	4.881677E-18
6.110000E+03	1.423486E-16	4.871153E-18
6.120000E+03	1.440226E-16	4.866070E-18
6.130000E+03	1.458463E-16	4.866647E-18
6.140000E+03	1.478187E-16	4.872888E-18
6.150000E+03	1.499570E-16	4.885443E-18
6.160000E+03	1.522525E-16	4.904154E-18
6.170000E+03	1.547144E-16	4.929542E-18
6.180000E+03	1.573445E-16	4.961980E-18
6.190000E+03	1.601358E-16	5.001695E-18
6.200000E+03	1.630934E-16	5.049399E-18
6.210000E+03	1.662203E-16	5.105854E-18
6.220000E+03	1.694881E-16	5.170927E-18
6.230000E+03	1.729081E-16	5.245743E-18
6.240000E+03	1.764594E-16	5.330374E-18
6.250000E+03	1.801155E-16	5.424575E-18
6.260000E+03	1.838686E-16	5.528463E-18
6.270000E+03	1.876752E-16	5.640952E-18
6.280000E+03	1.915118E-16	5.761480E-18
6.290000E+03	1.953351E-16	5.888868E-18
6.300000E+03	1.991248E-16	6.022629E-18
6.310000E+03	2.028340E-16	6.161498E-18
6.320000E+03	2.064139E-16	6.304199E-18
6.330000E+03	2.098342E-16	6.450040E-18
6.340000E+03	2.130570E-16	6.598131E-18
6.350000E+03	2.160466E-16	6.747659E-18
6.360000E+03	2.187706E-16	6.897901E-18
6.370000E+03	2.212003E-16	7.048214E-18
6.380000E+03	2.233116E-16	7.198036E-18
6.390000E+03	2.250852E-16	7.346870E-18
6.400000E+03	2.264970E-16	7.493938E-18
6.410000E+03	2.275478E-16	7.639133E-18
6.420000E+03	2.282440E-16	7.782380E-18
6.430000E+03	2.285663E-16	7.922558E-18
6.440000E+03	2.285305E-16	8.059521E-18
6.450000E+03	2.281460E-16	8.192722E-18
6.460000E+03	2.274360E-16	8.321912E-18
6.470000E+03	2.263963E-16	8.445656E-18
6.480000E+03	2.250454E-16	8.563156E-18
6.490000E+03	2.234235E-16	8.674319E-18
6.500000E+03	2.215419E-16	8.777871E-18
6.510000E+03	2.194227E-16	8.872889E-18
6.520000E+03	2.170886E-16	8.958459E-18
6.530000E+03	2.145621E-16	9.033708E-18
6.540000E+03	2.118564E-16	9.097431E-18
6.550000E+03	2.090125E-16	9.149747E-18
6.560000E+03	2.060423E-16	9.189690E-18
6.570000E+03	2.029576E-16	9.216438E-18
6.580000E+03	1.997969E-16	9.230565E-18
6.590000E+03	1.965613E-16	9.231164E-18
6.600000E+03	1.932871E-16	9.219147E-18
6.610000E+03	1.899827E-16	9.194344E-18
6.620000E+03	1.866562E-16	9.156732E-18
6.630000E+03	1.833402E-16	9.107662E-18
6.640000E+03	1.800325E-16	9.046955E-18
6.650000E+03	1.767630E-16	8.976170E-18
6.660000E+03	1.735361E-16	8.895720E-18
6.670000E+03	1.703557E-16	8.806092E-18
6.680000E+03	1.672478E-16	8.709016E-18
6.690000E+03	1.642143E-16	8.605048E-18
6.700000E+03	1.612567E-16	8.494772E-18
6.710000E+03	1.583975E-16	8.379928E-18
6.720000E+03	1.556364E-16	8.261073E-18
6.730000E+03	1.529794E-16	8.139127E-18
6.740000E+03	1.504253E-16	8.014608E-18
6.750000E+03	1.479926E-16	7.889083E-18
6.760000E+03	1.456784E-16	7.762965E-18
6.770000E+03	1.434863E-16	7.636981E-18
6.780000E+03	1.414194E-16	7.511800E-18
6.790000E+03	1.394801E-16	7.388034E-18
6.800000E+03	1.376708E-16	7.266237E-18
6.810000E+03	1.359933E-16	7.146907E-18
6.820000E+03	1.344492E-16	7.030493E-18
6.830000E+03	1.330399E-16	6.917392E-18
6.840000E+03	1.317667E-16	6.807954E-18
6.850000E+03	1.306306E-16	6.702489E-18
6.860000E+03	1.296325E-16	6.601270E-18
6.870000E+03	1.287791E-16	6.504835E-18
6.880000E+03	1.280594E-16	6.412796E-18
6.890000E+03	1.274799E-16	6.325653E-18
6.900000E+03	1.270472E-16	6.243873E-18
6.910000E+03	1.267501E-16	6.167051E-18
6.920000E+03	1.265950E-16	6.095650E-18
6.930000E+03	1.265884E-16	6.030118E-18
6.940000E+03	1.267188E-16	5.970070E-18
6.950000E+03	1.269986E-16	5.916240E-18
6.960000E+03	1.274162E-16	5.868256E-18
6.970000E+03	1.279836E-16	5.826846E-18
6.980000E+03	1.286949E-16	5.791911E-18
6.990000E+03	1.295440E-16	5.763344E-18
7.000000E+03	1.305424E-16	5.741826E-18
7.010000E+03	1.316833E-16	5.727198E-18
7.020000E+03	1.329594E-16	5.719266E-18
7.030000E+03	1.343813E-16	5.718581E-18
7.040000E+03	1.359407E-16	5.724837E-18
7.050000E+03	1.376281E-16	5.737656E-18
7.060000E+03	1.394528E-16	5.757389E-18
7.070000E+03	1.414037E-16	5.783507E-18
7.080000E+03	1.434753E-16	5.815670E-18
7.090000E+03	1.456542E-16	5.853186E-18
7.100000E+03	1.479459E-16	5.896112E-18
7.110000E+03	1.503346E-16	5.943613E-18
7.120000E+03	1.528023E-16	5.994780E-18
7.130000E+03	1.553512E-16	6.049487E-18
7.140000E+03	1.579602E-16	6.106708E-18
7.150000E+03	1.606062E-16	6.165351E-18
7.160000E+03	1.632868E-16	6.225137E-18
7.170000E+03	1.659673E-16	6.284572E-18
7.180000E+03	1.686423E-16	6.343281E-18
7.190000E+03	1.712731E-16	6.399653E-18
7.200000E+03	1.738510E-16	6.453230E-18
7.210000E+03	1.763339E-16	6.502300E-18
7.220000E+03	1.787025E-16	6.546035E-18
7.230000E+03	1.809376E-16	6.583602E-18
7.240000E+03	1.829936E-16	6.613234E-18
7.250000E+03	1.848509E-16	6.634119E-18
7.260000E+03	1.864824E-16	6.645185E-18
7.270000E+03	1.878624E-16	6.645430E-18
7.280000E+03	1.889676E-16	6.633951E-18
7.290000E+03	1.897778E-16	6.609971E-18
7.300000E+03	1.902671E-16	6.572547E-18
7.310000E+03	1.904415E-16	6.521859E-18
7.320000E+03	1.902752E-16	6.457025E-18
7.330000E+03	1.897838E-16	6.378623E-18
7.340000E+03	1.889515E-16	6.286225E-18
7.350000E+03	1.877948E-16	6.180565E-18
7.360000E+03	1.863260E-16	6.062310E-18
7.370000E+03	1.845615E-16	5.932367E-18
7.380000E+03	1.825128E-16	5.791601E-18
7.390000E+03	1.802213E-16	5.641944E-18
7.400000E+03	1.776956E-16	5.484421E-18
7.410000E+03	1.749729E-16	5.321073E-18
7.420000E+03	1.720913E-16	5.154078E-18
7.430000E+03	1.690563E-16	4.984752E-18
7.440000E+03	1.659237E-16	4.816015E-18
7.450000E+03	1.627161E-16	4.649865E-18
7.460000E+03	1.594557E-16	4.488372E-18
7.470000E+03	1.561796E-16	4.334047E-18
7.480000E+03	1.529155E-16	4.189108E-18
7.490000E+03	1.496892E-16	4.055642E-18
7.500000E+03	1.465243E-16	3.935517E-18
7.510000E+03	1.434350E-16	3.830097E-18
7.520000E+03	1.404467E-16	3.740688E-18
7.530000E+03	1.375740E-16	3.667856E-18
7.540000E+03	1.348280E-16	3.611520E-18
7.550000E+03	1.322153E-16	3.570902E-18
7.560000E+03	1.297328E-16	3.544500E-18
7.570000E+03	1.273875E-16	3.530835E-18
7.580000E+03	1.251782E-16	3.528116E-18
7.590000E+03	1.230960E-16	3.534399E-18
7.600000E+03	1.211498E-16	3.548394E-18
7.610000E+03	1.193233E-16	3.568304E-18
7.620000E+03	1.176181E-16	3.593081E-18
7.630000E+03	1.160235E-16	3.621539E-18
7.640000E+03	1.145462E-16	3.653239E-18
7.650000E+03	1.131694E-16	3.687193E-18
7.660000E+03	1.118881E-16	3.722914E-18
7.670000E+03	1.107078E-16	3.760397E-18
7.680000E+03	1.096119E-16	3.798974E-18
7.690000E+03	1.086002E-16	3.838586E-18
7.700000E+03	1.076669E-16	3.879023E-18
7.710000E+03	1.068008E-16	3.919892E-18
7.720000E+03	1.060013E-16	3.961197E-18
7.730000E+03	1.052624E-16	4.002754E-18
7.740000E+03	1.045784E-16	4.044374E-18
7.750000E+03	1.039380E-16	4.085664E-18
7.760000E+03	1.033411E-16	4.126638E-18
