#wls	flux	fluxerr
1.600000E+03	1.606850E-16	1.148012E-16
1.640000E+03	1.643952E-16	1.159271E-16
1.680000E+03	1.681325E-16	1.169635E-16
1.720000E+03	1.718878E-16	1.179002E-16
1.760000E+03	1.756212E-16	1.187068E-16
1.800000E+03	1.793509E-16	1.193928E-16
1.840000E+03	1.830653E-16	1.199477E-16
1.880000E+03	1.867832E-16	1.203813E-16
1.920000E+03	1.904292E-16	1.206425E-16
1.960000E+03	1.940520E-16	1.207613E-16
2.000000E+03	1.976055E-16	1.207076E-16
2.040000E+03	2.011068E-16	1.204913E-16
2.080000E+03	2.045404E-16	1.201029E-16
2.120000E+03	2.078568E-16	1.195141E-16
2.160000E+03	2.111057E-16	1.187552E-16
2.200000E+03	2.142365E-16	1.177992E-16
2.240000E+03	2.172314E-16	1.166397E-16
2.280000E+03	2.201063E-16	1.152892E-16
2.320000E+03	2.228431E-16	1.137427E-16
2.360000E+03	2.254235E-16	1.119963E-16
2.400000E+03	2.278290E-16	1.100480E-16
2.440000E+03	2.300416E-16	1.078972E-16
2.480000E+03	2.321117E-16	1.055766E-16
2.520000E+03	2.339533E-16	1.030564E-16
2.560000E+03	2.355838E-16	1.003568E-16
2.600000E+03	2.370543E-16	9.751142E-17
2.640000E+03	2.382821E-16	9.449902E-17
2.680000E+03	2.392868E-16	9.134310E-17
2.720000E+03	2.400883E-16	8.806714E-17
2.760000E+03	2.406750E-16	8.468335E-17
2.800000E+03	2.410374E-16	8.120639E-17
2.840000E+03	2.411687E-16	7.765338E-17
2.880000E+03	2.411254E-16	7.406237E-17
2.920000E+03	2.408735E-16	7.044253E-17
2.960000E+03	2.404429E-16	6.682367E-17
3.000000E+03	2.398645E-16	6.323480E-17
3.010000E+03	2.396884E-16	6.234243E-17
3.020000E+03	2.394861E-16	6.144918E-17
3.030000E+03	2.393136E-16	6.056976E-17
3.040000E+03	2.391151E-16	5.969011E-17
3.050000E+03	2.388910E-16	5.881085E-17
3.060000E+03	2.386964E-16	5.794583E-17
3.070000E+03	2.384766E-16	5.708184E-17
3.080000E+03	2.382320E-16	5.621949E-17
3.090000E+03	2.379901E-16	5.536559E-17
3.100000E+03	2.377507E-16	5.452032E-17
3.110000E+03	2.375141E-16	5.368388E-17
3.120000E+03	2.372540E-16	5.285061E-17
3.130000E+03	2.369970E-16	5.202677E-17
3.140000E+03	2.367433E-16	5.121256E-17
3.150000E+03	2.364930E-16	5.040813E-17
3.160000E+03	2.362207E-16	4.960829E-17
3.170000E+03	2.359524E-16	4.881879E-17
3.180000E+03	2.356631E-16	4.803466E-17
3.190000E+03	2.354035E-16	4.726638E-17
3.200000E+03	2.351235E-16	4.650395E-17
3.210000E+03	2.348486E-16	4.575260E-17
3.220000E+03	2.345789E-16	4.501242E-17
3.230000E+03	2.342904E-16	4.427891E-17
3.240000E+03	2.340079E-16	4.355694E-17
3.250000E+03	2.337316E-16	4.284655E-17
3.260000E+03	2.334619E-16	4.214776E-17
3.270000E+03	2.331988E-16	4.146061E-17
3.280000E+03	2.329426E-16	4.078508E-17
3.290000E+03	2.326705E-16	4.011717E-17
3.300000E+03	2.324062E-16	3.946100E-17
3.310000E+03	2.321499E-16	3.881653E-17
3.320000E+03	2.319020E-16	3.818367E-17
3.330000E+03	2.316625E-16	3.756233E-17
3.340000E+03	2.314096E-16	3.694884E-17
3.350000E+03	2.311882E-16	3.635025E-17
3.360000E+03	2.309541E-16	3.575939E-17
3.370000E+03	2.307298E-16	3.517964E-17
3.380000E+03	2.305157E-16	3.461083E-17
3.390000E+03	2.303117E-16	3.405274E-17
3.400000E+03	2.301183E-16	3.350518E-17
3.410000E+03	2.299356E-16	3.296793E-17
3.420000E+03	2.297637E-16	3.244075E-17
3.430000E+03	2.296028E-16	3.192342E-17
3.440000E+03	2.294326E-16	3.141287E-17
3.450000E+03	2.292945E-16	3.091457E-17
3.460000E+03	2.291476E-16	3.042270E-17
3.470000E+03	2.290328E-16	2.994246E-17
3.480000E+03	2.289099E-16	2.946828E-17
3.490000E+03	2.288190E-16	2.900514E-17
3.500000E+03	2.287204E-16	2.854773E-17
3.510000E+03	2.286344E-16	2.809840E-17
3.520000E+03	2.285804E-16	2.765929E-17
3.530000E+03	2.285195E-16	2.722546E-17
3.540000E+03	2.284716E-16	2.679914E-17
3.550000E+03	2.284557E-16	2.638235E-17
3.560000E+03	2.284339E-16	2.597053E-17
3.570000E+03	2.284256E-16	2.556579E-17
3.580000E+03	2.284309E-16	2.516802E-17
3.590000E+03	2.284685E-16	2.477915E-17
3.600000E+03	2.285018E-16	2.439506E-17
3.610000E+03	2.285495E-16	2.401776E-17
3.620000E+03	2.286301E-16	2.364907E-17
3.630000E+03	2.287078E-16	2.328524E-17
3.640000E+03	2.288012E-16	2.292817E-17
3.650000E+03	2.289283E-16	2.257961E-17
3.660000E+03	2.290542E-16	2.223611E-17
3.670000E+03	2.292147E-16	2.190114E-17
3.680000E+03	2.293754E-16	2.157140E-17
3.690000E+03	2.295715E-16	2.125025E-17
3.700000E+03	2.297691E-16	2.093455E-17
3.710000E+03	2.300031E-16	2.062750E-17
3.720000E+03	2.302401E-16	2.032613E-17
3.730000E+03	2.305142E-16	2.003349E-17
3.740000E+03	2.307926E-16	1.974673E-17
3.750000E+03	2.311089E-16	1.946877E-17
3.760000E+03	2.314467E-16	1.919820E-17
3.770000E+03	2.317902E-16	1.893376E-17
3.780000E+03	2.321720E-16	1.867814E-17
3.790000E+03	2.325597E-16	1.842875E-17
3.800000E+03	2.329854E-16	1.818813E-17
3.810000E+03	2.334168E-16	1.795378E-17
3.820000E+03	2.338850E-16	1.772810E-17
3.830000E+03	2.343578E-16	1.750866E-17
3.840000E+03	2.348656E-16	1.729773E-17
3.850000E+03	2.353759E-16	1.709293E-17
3.860000E+03	2.359031E-16	1.689533E-17
3.870000E+03	2.364607E-16	1.670588E-17
3.880000E+03	2.370160E-16	1.652227E-17
3.890000E+03	2.375824E-16	1.634545E-17
3.900000E+03	2.381575E-16	1.617525E-17
3.910000E+03	2.387387E-16	1.601148E-17
3.920000E+03	2.393083E-16	1.585295E-17
3.930000E+03	2.398934E-16	1.570143E-17
3.940000E+03	2.404613E-16	1.555471E-17
3.950000E+03	2.410237E-16	1.541353E-17
3.960000E+03	2.415776E-16	1.527761E-17
3.970000E+03	2.421198E-16	1.514666E-17
3.980000E+03	2.426473E-16	1.502038E-17
3.990000E+03	2.431428E-16	1.489757E-17
4.000000E+03	2.436180E-16	1.477881E-17
4.010000E+03	2.440703E-16	1.466376E-17
4.020000E+03	2.444832E-16	1.455124E-17
4.030000E+03	2.448829E-16	1.444260E-17
4.040000E+03	2.452256E-16	1.433501E-17
4.050000E+03	2.455517E-16	1.423061E-17
4.060000E+03	2.458327E-16	1.412745E-17
4.070000E+03	2.460815E-16	1.402602E-17
4.080000E+03	2.462846E-16	1.392525E-17
4.090000E+03	2.464421E-16	1.382487E-17
4.100000E+03	2.465818E-16	1.372613E-17
4.110000E+03	2.466646E-16	1.362658E-17
4.120000E+03	2.467318E-16	1.352821E-17
4.130000E+03	2.467458E-16	1.342869E-17
4.140000E+03	2.467352E-16	1.332933E-17
4.150000E+03	2.467025E-16	1.323005E-17
4.160000E+03	2.466249E-16	1.312940E-17
4.170000E+03	2.465314E-16	1.302879E-17
4.180000E+03	2.464251E-16	1.292826E-17
4.190000E+03	2.462845E-16	1.282660E-17
4.200000E+03	2.461387E-16	1.272530E-17
4.210000E+03	2.459788E-16	1.262394E-17
4.220000E+03	2.458089E-16	1.252282E-17
4.230000E+03	2.456450E-16	1.242291E-17
4.240000E+03	2.454667E-16	1.232340E-17
4.250000E+03	2.453021E-16	1.222600E-17
4.260000E+03	2.451308E-16	1.213004E-17
4.270000E+03	2.449801E-16	1.203732E-17
4.280000E+03	2.448298E-16	1.194730E-17
4.290000E+03	2.447064E-16	1.186182E-17
4.300000E+03	2.445893E-16	1.178045E-17
4.310000E+03	2.444928E-16	1.170449E-17
4.320000E+03	2.444191E-16	1.163463E-17
4.330000E+03	2.443700E-16	1.157155E-17
4.340000E+03	2.443469E-16	1.151583E-17
4.350000E+03	2.443399E-16	1.146749E-17
4.360000E+03	2.443609E-16	1.142741E-17
4.370000E+03	2.444102E-16	1.139584E-17
4.380000E+03	2.444767E-16	1.137230E-17
4.390000E+03	2.445711E-16	1.135717E-17
4.400000E+03	2.446922E-16	1.135010E-17
4.410000E+03	2.448281E-16	1.135005E-17
4.420000E+03	2.449878E-16	1.135683E-17
4.430000E+03	2.451586E-16	1.136914E-17
4.440000E+03	2.453380E-16	1.138605E-17
4.450000E+03	2.455338E-16	1.140706E-17
4.460000E+03	2.457323E-16	1.143067E-17
4.470000E+03	2.459406E-16	1.145635E-17
4.480000E+03	2.461444E-16	1.148258E-17
4.490000E+03	2.463399E-16	1.150842E-17
4.500000E+03	2.465231E-16	1.153296E-17
4.510000E+03	2.466998E-16	1.155584E-17
4.520000E+03	2.468555E-16	1.157582E-17
4.530000E+03	2.469859E-16	1.159225E-17
4.540000E+03	2.470868E-16	1.160455E-17
4.550000E+03	2.471539E-16	1.161229E-17
4.560000E+03	2.471933E-16	1.161556E-17
4.570000E+03	2.471812E-16	1.161319E-17
4.580000E+03	2.471342E-16	1.160600E-17
4.590000E+03	2.470295E-16	1.159303E-17
4.600000E+03	2.468842E-16	1.157530E-17
4.610000E+03	2.466766E-16	1.155212E-17
4.620000E+03	2.464150E-16	1.152427E-17
4.630000E+03	2.461080E-16	1.149260E-17
4.640000E+03	2.457362E-16	1.145674E-17
4.650000E+03	2.453095E-16	1.141776E-17
4.660000E+03	2.448288E-16	1.137633E-17
4.670000E+03	2.442957E-16	1.133322E-17
4.680000E+03	2.437032E-16	1.128881E-17
4.690000E+03	2.430728E-16	1.124478E-17
4.700000E+03	2.423893E-16	1.120114E-17
4.710000E+03	2.416660E-16	1.115916E-17
4.720000E+03	2.409073E-16	1.111963E-17
4.730000E+03	2.401092E-16	1.108287E-17
4.740000E+03	2.392949E-16	1.105035E-17
4.750000E+03	2.384523E-16	1.102173E-17
4.760000E+03	2.375875E-16	1.099735E-17
4.770000E+03	2.367246E-16	1.097816E-17
4.780000E+03	2.358525E-16	1.096332E-17
4.790000E+03	2.349865E-16	1.095311E-17
4.800000E+03	2.341246E-16	1.094687E-17
4.810000E+03	2.332817E-16	1.094469E-17
4.820000E+03	2.324640E-16	1.094623E-17
4.830000E+03	2.316769E-16	1.095109E-17
4.840000E+03	2.309178E-16	1.095850E-17
4.850000E+03	2.301997E-16	1.096847E-17
4.860000E+03	2.295190E-16	1.098021E-17
4.870000E+03	2.288877E-16	1.099376E-17
4.880000E+03	2.283093E-16	1.100877E-17
4.890000E+03	2.277786E-16	1.102451E-17
4.900000E+03	2.273058E-16	1.104107E-17
4.910000E+03	2.268928E-16	1.105813E-17
4.920000E+03	2.265329E-16	1.107503E-17
4.930000E+03	2.262346E-16	1.109189E-17
4.940000E+03	2.259982E-16	1.110845E-17
4.950000E+03	2.258156E-16	1.112405E-17
4.960000E+03	2.256938E-16	1.113885E-17
4.970000E+03	2.256241E-16	1.115222E-17
4.980000E+03	2.256128E-16	1.116430E-17
4.990000E+03	2.256580E-16	1.117485E-17
5.000000E+03	2.257575E-16	1.118366E-17
5.010000E+03	2.259015E-16	1.119010E-17
5.020000E+03	2.260874E-16	1.119397E-17
5.030000E+03	2.263277E-16	1.119579E-17
5.040000E+03	2.266043E-16	1.119462E-17
5.050000E+03	2.269142E-16	1.119024E-17
5.060000E+03	2.272695E-16	1.118322E-17
5.070000E+03	2.276517E-16	1.117264E-17
5.080000E+03	2.280575E-16	1.115834E-17
5.090000E+03	2.284987E-16	1.114091E-17
5.100000E+03	2.289567E-16	1.111951E-17
5.110000E+03	2.294278E-16	1.109401E-17
5.120000E+03	2.299236E-16	1.106510E-17
5.130000E+03	2.304250E-16	1.103198E-17
5.140000E+03	2.309359E-16	1.099500E-17
5.150000E+03	2.314445E-16	1.095382E-17
5.160000E+03	2.319619E-16	1.090920E-17
5.170000E+03	2.324685E-16	1.086052E-17
5.180000E+03	2.329676E-16	1.080826E-17
5.190000E+03	2.334468E-16	1.075225E-17
5.200000E+03	2.339090E-16	1.069306E-17
5.210000E+03	2.343494E-16	1.063098E-17
5.220000E+03	2.347629E-16	1.056633E-17
5.230000E+03	2.351443E-16	1.049952E-17
5.240000E+03	2.354807E-16	1.043067E-17
5.250000E+03	2.357745E-16	1.036064E-17
5.260000E+03	2.360204E-16	1.029002E-17
5.270000E+03	2.362128E-16	1.021948E-17
5.280000E+03	2.363389E-16	1.014940E-17
5.290000E+03	2.364087E-16	1.008121E-17
5.300000E+03	2.364016E-16	1.001505E-17
5.310000E+03	2.363203E-16	9.952068E-18
5.320000E+03	2.361598E-16	9.893067E-18
5.330000E+03	2.359154E-16	9.838802E-18
5.340000E+03	2.355750E-16	9.789616E-18
5.350000E+03	2.351494E-16	9.746660E-18
5.360000E+03	2.346194E-16	9.709619E-18
5.370000E+03	2.339887E-16	9.678863E-18
5.380000E+03	2.332536E-16	9.654119E-18
5.390000E+03	2.324105E-16	9.634767E-18
5.400000E+03	2.314563E-16	9.619889E-18
5.410000E+03	2.303882E-16	9.608361E-18
5.420000E+03	2.291967E-16	9.598628E-18
5.430000E+03	2.278951E-16	9.590011E-18
5.440000E+03	2.264752E-16	9.580925E-18
5.450000E+03	2.249301E-16	9.569861E-18
5.460000E+03	2.232752E-16	9.556339E-18
5.470000E+03	2.214982E-16	9.538806E-18
5.480000E+03	2.196163E-16	9.517091E-18
5.490000E+03	2.176194E-16	9.489984E-18
5.500000E+03	2.155260E-16	9.457667E-18
5.510000E+03	2.133283E-16	9.419292E-18
5.520000E+03	2.110463E-16	9.375379E-18
5.530000E+03	2.086807E-16	9.325701E-18
5.540000E+03	2.062327E-16	9.270174E-18
5.550000E+03	2.037244E-16	9.209722E-18
5.560000E+03	2.011582E-16	9.144477E-18
5.570000E+03	1.985437E-16	9.074947E-18
5.580000E+03	1.958908E-16	9.001697E-18
5.590000E+03	1.932095E-16	8.925332E-18
5.600000E+03	1.905102E-16	8.846473E-18
5.610000E+03	1.878029E-16	8.765744E-18
5.620000E+03	1.851036E-16	8.684033E-18
5.630000E+03	1.824101E-16	8.601366E-18
5.640000E+03	1.797436E-16	8.518838E-18
5.650000E+03	1.771073E-16	8.436670E-18
5.660000E+03	1.745098E-16	8.355306E-18
5.670000E+03	1.719591E-16	8.275132E-18
5.680000E+03	1.694680E-16	8.196734E-18
5.690000E+03	1.670323E-16	8.119855E-18
5.700000E+03	1.646691E-16	8.045222E-18
5.710000E+03	1.623782E-16	7.972724E-18
5.720000E+03	1.601696E-16	7.902712E-18
5.730000E+03	1.580371E-16	7.834734E-18
5.740000E+03	1.559942E-16	7.769300E-18
5.750000E+03	1.540436E-16	7.706377E-18
5.760000E+03	1.521777E-16	7.645415E-18
5.770000E+03	1.504079E-16	7.586819E-18
5.780000E+03	1.487305E-16	7.530240E-18
5.790000E+03	1.471509E-16	7.475796E-18
5.800000E+03	1.456647E-16	7.423118E-18
5.810000E+03	1.442719E-16	7.372069E-18
5.820000E+03	1.429723E-16	7.322511E-18
5.830000E+03	1.417697E-16	7.274539E-18
5.840000E+03	1.406636E-16	7.228016E-18
5.850000E+03	1.396440E-16	7.182352E-18
5.860000E+03	1.387236E-16	7.138120E-18
5.870000E+03	1.378882E-16	7.094524E-18
5.880000E+03	1.371457E-16	7.051926E-18
5.890000E+03	1.364910E-16	7.010019E-18
5.900000E+03	1.359279E-16	6.968962E-18
5.910000E+03	1.354558E-16	6.928702E-18
5.920000E+03	1.350658E-16	6.888763E-18
5.930000E+03	1.347708E-16	6.849789E-18
5.940000E+03	1.345580E-16	6.811118E-18
5.950000E+03	1.344407E-16	6.773422E-18
5.960000E+03	1.344067E-16	6.736075E-18
5.970000E+03	1.344697E-16	6.699773E-18
5.980000E+03	1.346225E-16	6.664140E-18
5.990000E+03	1.348663E-16	6.629249E-18
6.000000E+03	1.352071E-16	6.595400E-18
6.010000E+03	1.356425E-16	6.562478E-18
6.020000E+03	1.361789E-16	6.530805E-18
6.030000E+03	1.368186E-16	6.500506E-18
6.040000E+03	1.375596E-16	6.471511E-18
6.050000E+03	1.384085E-16	6.444185E-18
6.060000E+03	1.393636E-16	6.418497E-18
6.070000E+03	1.404316E-16	6.394853E-18
6.080000E+03	1.416103E-16	6.373276E-18
6.090000E+03	1.429111E-16	6.354437E-18
6.100000E+03	1.443220E-16	6.338019E-18
6.110000E+03	1.458586E-16	6.324988E-18
6.120000E+03	1.475125E-16	6.315337E-18
6.130000E+03	1.492890E-16	6.309737E-18
6.140000E+03	1.511834E-16	6.308521E-18
6.150000E+03	1.531994E-16	6.312511E-18
6.160000E+03	1.553356E-16	6.322401E-18
6.170000E+03	1.575841E-16	6.338759E-18
6.180000E+03	1.599513E-16	6.362845E-18
6.190000E+03	1.624164E-16	6.394933E-18
6.200000E+03	1.649886E-16	6.436574E-18
6.210000E+03	1.676493E-16	6.488252E-18
6.220000E+03	1.703938E-16	6.551001E-18
6.230000E+03	1.732106E-16	6.625488E-18
6.240000E+03	1.760858E-16	6.712117E-18
6.250000E+03	1.789973E-16	6.810700E-18
6.260000E+03	1.819323E-16	6.921075E-18
6.270000E+03	1.848702E-16	7.042504E-18
6.280000E+03	1.877824E-16	7.173699E-18
6.290000E+03	1.906575E-16	7.313835E-18
6.300000E+03	1.934585E-16	7.460942E-18
6.310000E+03	1.961664E-16	7.613628E-18
6.320000E+03	1.987558E-16	7.770172E-18
6.330000E+03	2.011951E-16	7.928546E-18
6.340000E+03	2.034733E-16	8.087501E-18
6.350000E+03	2.055540E-16	8.244771E-18
6.360000E+03	2.074226E-16	8.398949E-18
6.370000E+03	2.090599E-16	8.548456E-18
6.380000E+03	2.104489E-16	8.691834E-18
6.390000E+03	2.115757E-16	8.827758E-18
6.400000E+03	2.124290E-16	8.955051E-18
6.410000E+03	2.129936E-16	9.072396E-18
6.420000E+03	2.132791E-16	9.179543E-18
6.430000E+03	2.132697E-16	9.275196E-18
6.440000E+03	2.129741E-16	9.359139E-18
6.450000E+03	2.124042E-16	9.431326E-18
6.460000E+03	2.115534E-16	9.490911E-18
6.470000E+03	2.104390E-16	9.538137E-18
6.480000E+03	2.090737E-16	9.573057E-18
6.490000E+03	2.074722E-16	9.595838E-18
6.500000E+03	2.056509E-16	9.606748E-18
6.510000E+03	2.036275E-16	9.606141E-18
6.520000E+03	2.014209E-16	9.594444E-18
6.530000E+03	1.990505E-16	9.572144E-18
6.540000E+03	1.965364E-16	9.539776E-18
6.550000E+03	1.938985E-16	9.497916E-18
6.560000E+03	1.911568E-16	9.447164E-18
6.570000E+03	1.883308E-16	9.388146E-18
6.580000E+03	1.854395E-16	9.321498E-18
6.590000E+03	1.825011E-16	9.247866E-18
6.600000E+03	1.795332E-16	9.167899E-18
6.610000E+03	1.765583E-16	9.082557E-18
6.620000E+03	1.735797E-16	8.991858E-18
6.630000E+03	1.706181E-16	8.896752E-18
6.640000E+03	1.676927E-16	8.798170E-18
6.650000E+03	1.648041E-16	8.696118E-18
6.660000E+03	1.619753E-16	8.591798E-18
6.670000E+03	1.592107E-16	8.485492E-18
6.680000E+03	1.565197E-16	8.377766E-18
6.690000E+03	1.539108E-16	8.269167E-18
6.700000E+03	1.513915E-16	8.160220E-18
6.710000E+03	1.489685E-16	8.051431E-18
6.720000E+03	1.466529E-16	7.943556E-18
6.730000E+03	1.444397E-16	7.836499E-18
6.740000E+03	1.423437E-16	7.731240E-18
6.750000E+03	1.403639E-16	7.627917E-18
6.760000E+03	1.385038E-16	7.526916E-18
6.770000E+03	1.367664E-16	7.428602E-18
6.780000E+03	1.351545E-16	7.333318E-18
6.790000E+03	1.336749E-16	7.241641E-18
6.800000E+03	1.323203E-16	7.153364E-18
6.810000E+03	1.311016E-16	7.069276E-18
6.820000E+03	1.300155E-16	6.989391E-18
6.830000E+03	1.290633E-16	6.913962E-18
6.840000E+03	1.282505E-16	6.843469E-18
6.850000E+03	1.275689E-16	6.777653E-18
6.860000E+03	1.270282E-16	6.717206E-18
6.870000E+03	1.266245E-16	6.662091E-18
6.880000E+03	1.263582E-16	6.612498E-18
6.890000E+03	1.262297E-16	6.568607E-18
6.900000E+03	1.262391E-16	6.530587E-18
6.910000E+03	1.263911E-16	6.498827E-18
6.920000E+03	1.266812E-16	6.473239E-18
6.930000E+03	1.271047E-16	6.453724E-18
6.940000E+03	1.276747E-16	6.441085E-18
6.950000E+03	1.283773E-16	6.434729E-18
6.960000E+03	1.292163E-16	6.434959E-18
6.970000E+03	1.301953E-16	6.442052E-18
6.980000E+03	1.313038E-16	6.455569E-18
6.990000E+03	1.325496E-16	6.475955E-18
7.000000E+03	1.339261E-16	6.502928E-18
7.010000E+03	1.354310E-16	6.536393E-18
7.020000E+03	1.370662E-16	6.576444E-18
7.030000E+03	1.388185E-16	6.622418E-18
7.040000E+03	1.406936E-16	6.674539E-18
7.050000E+03	1.426768E-16	6.732019E-18
7.060000E+03	1.447723E-16	6.794967E-18
7.070000E+03	1.469684E-16	6.862703E-18
7.080000E+03	1.492575E-16	6.934718E-18
7.090000E+03	1.516307E-16	7.010431E-18
7.100000E+03	1.540779E-16	7.089192E-18
7.110000E+03	1.565932E-16	7.170536E-18
7.120000E+03	1.591526E-16	7.253156E-18
7.130000E+03	1.617475E-16	7.336448E-18
7.140000E+03	1.643679E-16	7.419754E-18
7.150000E+03	1.669848E-16	7.501557E-18
7.160000E+03	1.695914E-16	7.581359E-18
7.170000E+03	1.721619E-16	7.657805E-18
7.180000E+03	1.746685E-16	7.729491E-18
7.190000E+03	1.771016E-16	7.795823E-18
7.200000E+03	1.794253E-16	7.855069E-18
7.210000E+03	1.816289E-16	7.906625E-18
7.220000E+03	1.836823E-16	7.949044E-18
7.230000E+03	1.855552E-16	7.980898E-18
7.240000E+03	1.872384E-16	8.001678E-18
7.250000E+03	1.886966E-16	8.009774E-18
7.260000E+03	1.899166E-16	8.004538E-18
7.270000E+03	1.908875E-16	7.985431E-18
7.280000E+03	1.915798E-16	7.951165E-18
7.290000E+03	1.919883E-16	7.901487E-18
7.300000E+03	1.921036E-16	7.836027E-18
7.310000E+03	1.919201E-16	7.754610E-18
7.320000E+03	1.914361E-16	7.657277E-18
7.330000E+03	1.906534E-16	7.544296E-18
7.340000E+03	1.895709E-16	7.415902E-18
7.350000E+03	1.882121E-16	7.273401E-18
7.360000E+03	1.865759E-16	7.117248E-18
7.370000E+03	1.846858E-16	6.948959E-18
7.380000E+03	1.825607E-16	6.770002E-18
7.390000E+03	1.802222E-16	6.582065E-18
7.400000E+03	1.776872E-16	6.386795E-18
7.410000E+03	1.749873E-16	6.186506E-18
7.420000E+03	1.721486E-16	5.983410E-18
7.430000E+03	1.691974E-16	5.779845E-18
7.440000E+03	1.661600E-16	5.578237E-18
7.450000E+03	1.630564E-16	5.380868E-18
7.460000E+03	1.599178E-16	5.190446E-18
7.470000E+03	1.567682E-16	5.009427E-18
7.480000E+03	1.536242E-16	4.839981E-18
7.490000E+03	1.505122E-16	4.684477E-18
7.500000E+03	1.474509E-16	4.544825E-18
7.510000E+03	1.444568E-16	4.422574E-18
7.520000E+03	1.415388E-16	4.318648E-18
7.530000E+03	1.387145E-16	4.233749E-18
7.540000E+03	1.359885E-16	4.167616E-18
7.550000E+03	1.333738E-16	4.119654E-18
7.560000E+03	1.308762E-16	4.088563E-18
7.570000E+03	1.284994E-16	4.072681E-18
7.580000E+03	1.262410E-16	4.069998E-18
7.590000E+03	1.241066E-16	4.078759E-18
7.600000E+03	1.220914E-16	4.096960E-18
7.610000E+03	1.201986E-16	4.123039E-18
7.620000E+03	1.184216E-16	4.155295E-18
7.630000E+03	1.167619E-16	4.192543E-18
7.640000E+03	1.152160E-16	4.233635E-18
7.650000E+03	1.137754E-16	4.277444E-18
7.660000E+03	1.124400E-16	4.323336E-18
7.670000E+03	1.112007E-16	4.370492E-18
7.680000E+03	1.100566E-16	4.418544E-18
7.690000E+03	1.090024E-16	4.467062E-18
7.700000E+03	1.080283E-16	4.515520E-18
7.710000E+03	1.071286E-16	4.563621E-18
7.720000E+03	1.063017E-16	4.611297E-18
7.730000E+03	1.055418E-16	4.658340E-18
7.740000E+03	1.048388E-16	4.704389E-18
7.750000E+03	1.041908E-16	4.749458E-18
7.760000E+03	1.035880E-16	4.793212E-18
