#wls	flux	fluxerr
1.600000E+03	1.489057E-16	1.080708E-16
1.640000E+03	1.523042E-16	1.091859E-16
1.680000E+03	1.557393E-16	1.102323E-16
1.720000E+03	1.592043E-16	1.112018E-16
1.760000E+03	1.626641E-16	1.120669E-16
1.800000E+03	1.661095E-16	1.128189E-16
1.840000E+03	1.695590E-16	1.134681E-16
1.880000E+03	1.730034E-16	1.140061E-16
1.920000E+03	1.764035E-16	1.144050E-16
1.960000E+03	1.798071E-16	1.146947E-16
2.000000E+03	1.831439E-16	1.148289E-16
2.040000E+03	1.864625E-16	1.148375E-16
2.080000E+03	1.897207E-16	1.146941E-16
2.120000E+03	1.929060E-16	1.143916E-16
2.160000E+03	1.960053E-16	1.139237E-16
2.200000E+03	1.990691E-16	1.133210E-16
2.240000E+03	2.019892E-16	1.125237E-16
2.280000E+03	2.048480E-16	1.115815E-16
2.320000E+03	2.076004E-16	1.104728E-16
2.360000E+03	2.102009E-16	1.091781E-16
2.400000E+03	2.127339E-16	1.077467E-16
2.440000E+03	2.150892E-16	1.061283E-16
2.480000E+03	2.173196E-16	1.043568E-16
2.520000E+03	2.194134E-16	1.024340E-16
2.560000E+03	2.213271E-16	1.003486E-16
2.600000E+03	2.231151E-16	9.813535E-17
2.640000E+03	2.247359E-16	9.578555E-17
2.680000E+03	2.262130E-16	9.332063E-17
2.720000E+03	2.275075E-16	9.073620E-17
2.760000E+03	2.286456E-16	8.805579E-17
2.800000E+03	2.296228E-16	8.529071E-17
2.840000E+03	2.304365E-16	8.245362E-17
2.880000E+03	2.311164E-16	7.956882E-17
2.920000E+03	2.316626E-16	7.664949E-17
2.960000E+03	2.320771E-16	7.370951E-17
3.000000E+03	2.323347E-16	7.075429E-17
3.010000E+03	2.323817E-16	7.001687E-17
3.020000E+03	2.324394E-16	6.928560E-17
3.030000E+03	2.324787E-16	6.855197E-17
3.040000E+03	2.325000E-16	6.781635E-17
3.050000E+03	2.325321E-16	6.708731E-17
3.060000E+03	2.325749E-16	6.636483E-17
3.070000E+03	2.325718E-16	6.563294E-17
3.080000E+03	2.325796E-16	6.490804E-17
3.090000E+03	2.325984E-16	6.419011E-17
3.100000E+03	2.326001E-16	6.347151E-17
3.110000E+03	2.325852E-16	6.275256E-17
3.120000E+03	2.325814E-16	6.204094E-17
3.130000E+03	2.325614E-16	6.132936E-17
3.140000E+03	2.325527E-16	6.062525E-17
3.150000E+03	2.325281E-16	5.992155E-17
3.160000E+03	2.325150E-16	5.922542E-17
3.170000E+03	2.324864E-16	5.853003E-17
3.180000E+03	2.324427E-16	5.783564E-17
3.190000E+03	2.324108E-16	5.714907E-17
3.200000E+03	2.323909E-16	5.647023E-17
3.210000E+03	2.323299E-16	5.578634E-17
3.220000E+03	2.323074E-16	5.511666E-17
3.230000E+03	2.322709E-16	5.444851E-17
3.240000E+03	2.322205E-16	5.378209E-17
3.250000E+03	2.321826E-16	5.312352E-17
3.260000E+03	2.321313E-16	5.246684E-17
3.270000E+03	2.320926E-16	5.181796E-17
3.280000E+03	2.320410E-16	5.117111E-17
3.290000E+03	2.320023E-16	5.053196E-17
3.300000E+03	2.319510E-16	4.989493E-17
3.310000E+03	2.319127E-16	4.926548E-17
3.320000E+03	2.318624E-16	4.863820E-17
3.330000E+03	2.318252E-16	4.801835E-17
3.340000E+03	2.317764E-16	4.740070E-17
3.350000E+03	2.317408E-16	4.679029E-17
3.360000E+03	2.316941E-16	4.618206E-17
3.370000E+03	2.316607E-16	4.558087E-17
3.380000E+03	2.316164E-16	4.498181E-17
3.390000E+03	2.315857E-16	4.438956E-17
3.400000E+03	2.315445E-16	4.379938E-17
3.410000E+03	2.315169E-16	4.321575E-17
3.420000E+03	2.314791E-16	4.263410E-17
3.430000E+03	2.314550E-16	4.205873E-17
3.440000E+03	2.314212E-16	4.148524E-17
3.450000E+03	2.314010E-16	4.091776E-17
3.460000E+03	2.313945E-16	4.035607E-17
3.470000E+03	2.313785E-16	3.979600E-17
3.480000E+03	2.313534E-16	3.923757E-17
3.490000E+03	2.313420E-16	3.868459E-17
3.500000E+03	2.313444E-16	3.813684E-17
3.510000E+03	2.313379E-16	3.759048E-17
3.520000E+03	2.313229E-16	3.704551E-17
3.530000E+03	2.313217E-16	3.650546E-17
3.540000E+03	2.313342E-16	3.597012E-17
3.550000E+03	2.313385E-16	3.543596E-17
3.560000E+03	2.313566E-16	3.490627E-17
3.570000E+03	2.313667E-16	3.437767E-17
3.580000E+03	2.313906E-16	3.385334E-17
3.590000E+03	2.314069E-16	3.333002E-17
3.600000E+03	2.314370E-16	3.281079E-17
3.610000E+03	2.314596E-16	3.229254E-17
3.620000E+03	2.314962E-16	3.177821E-17
3.630000E+03	2.315257E-16	3.126485E-17
3.640000E+03	2.315691E-16	3.075530E-17
3.650000E+03	2.316056E-16	3.024673E-17
3.660000E+03	2.316562E-16	2.974189E-17
3.670000E+03	2.317207E-16	2.924067E-17
3.680000E+03	2.317786E-16	2.874049E-17
3.690000E+03	2.318302E-16	2.824146E-17
3.700000E+03	2.318958E-16	2.774612E-17
3.710000E+03	2.319553E-16	2.725207E-17
3.720000E+03	2.320289E-16	2.676178E-17
3.730000E+03	2.321164E-16	2.627524E-17
3.740000E+03	2.321782E-16	2.578809E-17
3.750000E+03	2.322737E-16	2.530709E-17
3.760000E+03	2.323634E-16	2.482800E-17
3.770000E+03	2.324473E-16	2.435103E-17
3.780000E+03	2.325450E-16	2.387843E-17
3.790000E+03	2.326371E-16	2.340841E-17
3.800000E+03	2.327426E-16	2.294314E-17
3.810000E+03	2.328425E-16	2.248099E-17
3.820000E+03	2.329556E-16	2.202409E-17
3.830000E+03	2.330628E-16	2.157095E-17
3.840000E+03	2.331643E-16	2.112199E-17
3.850000E+03	2.332786E-16	2.067930E-17
3.860000E+03	2.333868E-16	2.024162E-17
3.870000E+03	2.335073E-16	1.981101E-17
3.880000E+03	2.336215E-16	1.938634E-17
3.890000E+03	2.337473E-16	1.896963E-17
3.900000E+03	2.338664E-16	1.855990E-17
3.910000E+03	2.339786E-16	1.815769E-17
3.920000E+03	2.341013E-16	1.776495E-17
3.930000E+03	2.342164E-16	1.738078E-17
3.940000E+03	2.343235E-16	1.700574E-17
3.950000E+03	2.344396E-16	1.664157E-17
3.960000E+03	2.345466E-16	1.628742E-17
3.970000E+03	2.346612E-16	1.594492E-17
3.980000E+03	2.347481E-16	1.561205E-17
3.990000E+03	2.348411E-16	1.529146E-17
4.000000E+03	2.349395E-16	1.498334E-17
4.010000E+03	2.350082E-16	1.468570E-17
4.020000E+03	2.350807E-16	1.440085E-17
4.030000E+03	2.351393E-16	1.412781E-17
4.040000E+03	2.352004E-16	1.386759E-17
4.050000E+03	2.352466E-16	1.361915E-17
4.060000E+03	2.352613E-16	1.338146E-17
4.070000E+03	2.352775E-16	1.315627E-17
4.080000E+03	2.352951E-16	1.294329E-17
4.090000E+03	2.352817E-16	1.274042E-17
4.100000E+03	2.352705E-16	1.254908E-17
4.110000E+03	2.352459E-16	1.236796E-17
4.120000E+03	2.352090E-16	1.219658E-17
4.130000E+03	2.351610E-16	1.203444E-17
4.140000E+03	2.351033E-16	1.188096E-17
4.150000E+03	2.350375E-16	1.173557E-17
4.160000E+03	2.349808E-16	1.159843E-17
4.170000E+03	2.349038E-16	1.146741E-17
4.180000E+03	2.348395E-16	1.134346E-17
4.190000E+03	2.347588E-16	1.122453E-17
4.200000E+03	2.346944E-16	1.111161E-17
4.210000E+03	2.346329E-16	1.100352E-17
4.220000E+03	2.345608E-16	1.089919E-17
4.230000E+03	2.345103E-16	1.079973E-17
4.240000E+03	2.344679E-16	1.070421E-17
4.250000E+03	2.344201E-16	1.061184E-17
4.260000E+03	2.343982E-16	1.052391E-17
4.270000E+03	2.343738E-16	1.043911E-17
4.280000E+03	2.343774E-16	1.035890E-17
4.290000E+03	2.343808E-16	1.028215E-17
4.300000E+03	2.343993E-16	1.020978E-17
4.310000E+03	2.344337E-16	1.014212E-17
4.320000E+03	2.344844E-16	1.007951E-17
4.330000E+03	2.345518E-16	1.002234E-17
4.340000E+03	2.346362E-16	9.970979E-18
4.350000E+03	2.347235E-16	9.925142E-18
4.360000E+03	2.348281E-16	9.885677E-18
4.370000E+03	2.349499E-16	9.852695E-18
4.380000E+03	2.350887E-16	9.826148E-18
4.390000E+03	2.352305E-16	9.805230E-18
4.400000E+03	2.354027E-16	9.790686E-18
4.410000E+03	2.355775E-16	9.780795E-18
4.420000E+03	2.357543E-16	9.774880E-18
4.430000E+03	2.359601E-16	9.773321E-18
4.440000E+03	2.361668E-16	9.774202E-18
4.450000E+03	2.363735E-16	9.776760E-18
4.460000E+03	2.366062E-16	9.781390E-18
4.470000E+03	2.368231E-16	9.785762E-18
4.480000E+03	2.370627E-16	9.790973E-18
4.490000E+03	2.372964E-16	9.795432E-18
4.500000E+03	2.375352E-16	9.799307E-18
4.510000E+03	2.377633E-16	9.801763E-18
4.520000E+03	2.379912E-16	9.803158E-18
4.530000E+03	2.382158E-16	9.803389E-18
4.540000E+03	2.384206E-16	9.801898E-18
4.550000E+03	2.386024E-16	9.798755E-18
4.560000E+03	2.387708E-16	9.794632E-18
4.570000E+03	2.389223E-16	9.789719E-18
4.580000E+03	2.390407E-16	9.783725E-18
4.590000E+03	2.391228E-16	9.776931E-18
4.600000E+03	2.391790E-16	9.770164E-18
4.610000E+03	2.391939E-16	9.763208E-18
4.620000E+03	2.391786E-16	9.756893E-18
4.630000E+03	2.391317E-16	9.751509E-18
4.640000E+03	2.390273E-16	9.746303E-18
4.650000E+03	2.388909E-16	9.742571E-18
4.660000E+03	2.387230E-16	9.740557E-18
4.670000E+03	2.385123E-16	9.739978E-18
4.680000E+03	2.382608E-16	9.741059E-18
4.690000E+03	2.379832E-16	9.744522E-18
4.700000E+03	2.376699E-16	9.750067E-18
4.710000E+03	2.373242E-16	9.757893E-18
4.720000E+03	2.369618E-16	9.768678E-18
4.730000E+03	2.365741E-16	9.782066E-18
4.740000E+03	2.361770E-16	9.798644E-18
4.750000E+03	2.357625E-16	9.817912E-18
4.760000E+03	2.353344E-16	9.839741E-18
4.770000E+03	2.348965E-16	9.863855E-18
4.780000E+03	2.344645E-16	9.890360E-18
4.790000E+03	2.340299E-16	9.918288E-18
4.800000E+03	2.335963E-16	9.947129E-18
4.810000E+03	2.331788E-16	9.976854E-18
4.820000E+03	2.327687E-16	1.000644E-17
4.830000E+03	2.323691E-16	1.003536E-17
4.840000E+03	2.319944E-16	1.006363E-17
4.850000E+03	2.316354E-16	1.009028E-17
4.860000E+03	2.312944E-16	1.011487E-17
4.870000E+03	2.309735E-16	1.013702E-17
4.880000E+03	2.306856E-16	1.015685E-17
4.890000E+03	2.304095E-16	1.017307E-17
4.900000E+03	2.301801E-16	1.018689E-17
4.910000E+03	2.299646E-16	1.019659E-17
4.920000E+03	2.297859E-16	1.020298E-17
4.930000E+03	2.296334E-16	1.020539E-17
4.940000E+03	2.295071E-16	1.020368E-17
4.950000E+03	2.294070E-16	1.019772E-17
4.960000E+03	2.293439E-16	1.018786E-17
4.970000E+03	2.293061E-16	1.017347E-17
4.980000E+03	2.292928E-16	1.015440E-17
4.990000E+03	2.293031E-16	1.013048E-17
5.000000E+03	2.293465E-16	1.010203E-17
5.010000E+03	2.294108E-16	1.006840E-17
5.020000E+03	2.294942E-16	1.002941E-17
5.030000E+03	2.296060E-16	9.985412E-18
5.040000E+03	2.297224E-16	9.935337E-18
5.050000E+03	2.298635E-16	9.880063E-18
5.060000E+03	2.300272E-16	9.819572E-18
5.070000E+03	2.301899E-16	9.752993E-18
5.080000E+03	2.303713E-16	9.681372E-18
5.090000E+03	2.305586E-16	9.604453E-18
5.100000E+03	2.307497E-16	9.522515E-18
5.110000E+03	2.309423E-16	9.435911E-18
5.120000E+03	2.311449E-16	9.345498E-18
5.130000E+03	2.313440E-16	9.251311E-18
5.140000E+03	2.315367E-16	9.153884E-18
5.150000E+03	2.317305E-16	9.054209E-18
5.160000E+03	2.319110E-16	8.952461E-18
5.170000E+03	2.320742E-16	8.849260E-18
5.180000E+03	2.322158E-16	8.745238E-18
5.190000E+03	2.323418E-16	8.641422E-18
5.200000E+03	2.324364E-16	8.538032E-18
5.210000E+03	2.324945E-16	8.435686E-18
5.220000E+03	2.325108E-16	8.334989E-18
5.230000E+03	2.324903E-16	8.236912E-18
5.240000E+03	2.324169E-16	8.141641E-18
5.250000E+03	2.322851E-16	8.049731E-18
5.260000E+03	2.321003E-16	7.962068E-18
5.270000E+03	2.318463E-16	7.878770E-18
5.280000E+03	2.315182E-16	7.800283E-18
5.290000E+03	2.311214E-16	7.727358E-18
5.300000E+03	2.306408E-16	7.659973E-18
5.310000E+03	2.300719E-16	7.598406E-18
5.320000E+03	2.294210E-16	7.543197E-18
5.330000E+03	2.286740E-16	7.494110E-18
5.340000E+03	2.278277E-16	7.451151E-18
5.350000E+03	2.268794E-16	7.414198E-18
5.360000E+03	2.258370E-16	7.383318E-18
5.370000E+03	2.246990E-16	7.358072E-18
5.380000E+03	2.234440E-16	7.337182E-18
5.390000E+03	2.220916E-16	7.320525E-18
5.400000E+03	2.206320E-16	7.306852E-18
5.410000E+03	2.190758E-16	7.295497E-18
5.420000E+03	2.174145E-16	7.285117E-18
5.430000E+03	2.156595E-16	7.275057E-18
5.440000E+03	2.138038E-16	7.264081E-18
5.450000E+03	2.118505E-16	7.251390E-18
5.460000E+03	2.098035E-16	7.236310E-18
5.470000E+03	2.076762E-16	7.218626E-18
5.480000E+03	2.054734E-16	7.197935E-18
5.490000E+03	2.031910E-16	7.173637E-18
5.500000E+03	2.008350E-16	7.145572E-18
5.510000E+03	1.984118E-16	7.113680E-18
5.520000E+03	1.959459E-16	7.078613E-18
5.530000E+03	1.934179E-16	7.039506E-18
5.540000E+03	1.908532E-16	6.997133E-18
5.550000E+03	1.882509E-16	6.951363E-18
5.560000E+03	1.856277E-16	6.902730E-18
5.570000E+03	1.829917E-16	6.851483E-18
5.580000E+03	1.803352E-16	6.797295E-18
5.590000E+03	1.776910E-16	6.741389E-18
5.600000E+03	1.750435E-16	6.683192E-18
5.610000E+03	1.724171E-16	6.623662E-18
5.620000E+03	1.698196E-16	6.563167E-18
5.630000E+03	1.672513E-16	6.501798E-18
5.640000E+03	1.647272E-16	6.440239E-18
5.650000E+03	1.622473E-16	6.378592E-18
5.660000E+03	1.598256E-16	6.317529E-18
5.670000E+03	1.574612E-16	6.257140E-18
5.680000E+03	1.551670E-16	6.198055E-18
5.690000E+03	1.529415E-16	6.140318E-18
5.700000E+03	1.507962E-16	6.084484E-18
5.710000E+03	1.487284E-16	6.030514E-18
5.720000E+03	1.467484E-16	5.978852E-18
5.730000E+03	1.448525E-16	5.929341E-18
5.740000E+03	1.430492E-16	5.882285E-18
5.750000E+03	1.413339E-16	5.837392E-18
5.760000E+03	1.397198E-16	5.795081E-18
5.770000E+03	1.381887E-16	5.754413E-18
5.780000E+03	1.367526E-16	5.715688E-18
5.790000E+03	1.354109E-16	5.678644E-18
5.800000E+03	1.341623E-16	5.642986E-18
5.810000E+03	1.329993E-16	5.608151E-18
5.820000E+03	1.319202E-16	5.573823E-18
5.830000E+03	1.309291E-16	5.539933E-18
5.840000E+03	1.300240E-16	5.506174E-18
5.850000E+03	1.292028E-16	5.472258E-18
5.860000E+03	1.284577E-16	5.437678E-18
5.870000E+03	1.277928E-16	5.402448E-18
5.880000E+03	1.272006E-16	5.366129E-18
5.890000E+03	1.266855E-16	5.328803E-18
5.900000E+03	1.262462E-16	5.290352E-18
5.910000E+03	1.258763E-16	5.250466E-18
5.920000E+03	1.255807E-16	5.209356E-18
5.930000E+03	1.253593E-16	5.167044E-18
5.940000E+03	1.252066E-16	5.123377E-18
5.950000E+03	1.251285E-16	5.078721E-18
5.960000E+03	1.251259E-16	5.033264E-18
5.970000E+03	1.251943E-16	4.987030E-18
5.980000E+03	1.253409E-16	4.940551E-18
5.990000E+03	1.255675E-16	4.894182E-18
6.000000E+03	1.258708E-16	4.848111E-18
6.010000E+03	1.262648E-16	4.803218E-18
6.020000E+03	1.267412E-16	4.759546E-18
6.030000E+03	1.273034E-16	4.717596E-18
6.040000E+03	1.279668E-16	4.678292E-18
6.050000E+03	1.287243E-16	4.641706E-18
6.060000E+03	1.295864E-16	4.608522E-18
6.070000E+03	1.305523E-16	4.578972E-18
6.080000E+03	1.316393E-16	4.553862E-18
6.090000E+03	1.328415E-16	4.533126E-18
6.100000E+03	1.341707E-16	4.517259E-18
6.110000E+03	1.356330E-16	4.506503E-18
6.120000E+03	1.372284E-16	4.500852E-18
6.130000E+03	1.389688E-16	4.500680E-18
6.140000E+03	1.408597E-16	4.506141E-18
6.150000E+03	1.429062E-16	4.517399E-18
6.160000E+03	1.451127E-16	4.534645E-18
6.170000E+03	1.474757E-16	4.557914E-18
6.180000E+03	1.500040E-16	4.587712E-18
6.190000E+03	1.526981E-16	4.624415E-18
6.200000E+03	1.555570E-16	4.668470E-18
6.210000E+03	1.585771E-16	4.720377E-18
6.220000E+03	1.617450E-16	4.780428E-18
6.230000E+03	1.650658E-16	4.849512E-18
6.240000E+03	1.685113E-16	4.927484E-18
6.250000E+03	1.720709E-16	5.014560E-18
6.260000E+03	1.757216E-16	5.110402E-18
6.270000E+03	1.794280E-16	5.214184E-18
6.280000E+03	1.831749E-16	5.325617E-18
6.290000E+03	1.869111E-16	5.443366E-18
6.300000E+03	1.906166E-16	5.567020E-18
6.310000E+03	1.942351E-16	5.695176E-18
6.320000E+03	1.977358E-16	5.827216E-18
6.330000E+03	2.010794E-16	5.962330E-18
6.340000E+03	2.042282E-16	6.099782E-18
6.350000E+03	2.071375E-16	6.238633E-18
6.360000E+03	2.097938E-16	6.378882E-18
6.370000E+03	2.121502E-16	6.519460E-18
6.380000E+03	2.142026E-16	6.660542E-18
6.390000E+03	2.159128E-16	6.801155E-18
6.400000E+03	2.172774E-16	6.941264E-18
6.410000E+03	2.182885E-16	7.080541E-18
6.420000E+03	2.189430E-16	7.218642E-18
6.430000E+03	2.192429E-16	7.355176E-18
6.440000E+03	2.191944E-16	7.489686E-18
6.450000E+03	2.188079E-16	7.621629E-18
6.460000E+03	2.180868E-16	7.750005E-18
6.470000E+03	2.170678E-16	7.874779E-18
6.480000E+03	2.157591E-16	7.994753E-18
6.490000E+03	2.141709E-16	8.108619E-18
6.500000E+03	2.123443E-16	8.216127E-18
6.510000E+03	2.102813E-16	8.315492E-18
6.520000E+03	2.080234E-16	8.406454E-18
6.530000E+03	2.055732E-16	8.487252E-18
6.540000E+03	2.029619E-16	8.557367E-18
6.550000E+03	2.002200E-16	8.616412E-18
6.560000E+03	1.973493E-16	8.662937E-18
6.570000E+03	1.943792E-16	8.696853E-18
6.580000E+03	1.913287E-16	8.717847E-18
6.590000E+03	1.882249E-16	8.726191E-18
6.600000E+03	1.850676E-16	8.721110E-18
6.610000E+03	1.818822E-16	8.703217E-18
6.620000E+03	1.786844E-16	8.672876E-18
6.630000E+03	1.754891E-16	8.630588E-18
6.640000E+03	1.723181E-16	8.577379E-18
6.650000E+03	1.691680E-16	8.513166E-18
6.660000E+03	1.660590E-16	8.439166E-18
6.670000E+03	1.630022E-16	8.356253E-18
6.680000E+03	1.600077E-16	8.265351E-18
6.690000E+03	1.570921E-16	8.167793E-18
6.700000E+03	1.542488E-16	8.063767E-18
6.710000E+03	1.514930E-16	7.954623E-18
6.720000E+03	1.488312E-16	7.841302E-18
6.730000E+03	1.462694E-16	7.724719E-18
6.740000E+03	1.438196E-16	7.606108E-18
6.750000E+03	1.414726E-16	7.485569E-18
6.760000E+03	1.392392E-16	7.364244E-18
6.770000E+03	1.371293E-16	7.243192E-18
6.780000E+03	1.351326E-16	7.122379E-18
6.790000E+03	1.332583E-16	7.002754E-18
6.800000E+03	1.315145E-16	6.885188E-18
6.810000E+03	1.298906E-16	6.769507E-18
6.820000E+03	1.284006E-16	6.656798E-18
6.830000E+03	1.270333E-16	6.546806E-18
6.840000E+03	1.258022E-16	6.440500E-18
6.850000E+03	1.246963E-16	6.337556E-18
6.860000E+03	1.237284E-16	6.238845E-18
6.870000E+03	1.228874E-16	6.143989E-18
6.880000E+03	1.221859E-16	6.053784E-18
6.890000E+03	1.216129E-16	5.967825E-18
6.900000E+03	1.211806E-16	5.886858E-18
6.910000E+03	1.208838E-16	5.810757E-18
6.920000E+03	1.207173E-16	5.739407E-18
6.930000E+03	1.206932E-16	5.673532E-18
6.940000E+03	1.208063E-16	5.613023E-18
6.950000E+03	1.210512E-16	5.557794E-18
6.960000E+03	1.214400E-16	5.508571E-18
6.970000E+03	1.219670E-16	5.465272E-18
6.980000E+03	1.226325E-16	5.428088E-18
6.990000E+03	1.234364E-16	5.397198E-18
7.000000E+03	1.243725E-16	5.372506E-18
7.010000E+03	1.254520E-16	5.354669E-18
7.020000E+03	1.266681E-16	5.343520E-18
7.030000E+03	1.280195E-16	5.339105E-18
7.040000E+03	1.295040E-16	5.341408E-18
7.050000E+03	1.311128E-16	5.350081E-18
7.060000E+03	1.328553E-16	5.365484E-18
7.070000E+03	1.347211E-16	5.387115E-18
7.080000E+03	1.367050E-16	5.414657E-18
7.090000E+03	1.388009E-16	5.447715E-18
7.100000E+03	1.409947E-16	5.485555E-18
7.110000E+03	1.432915E-16	5.528182E-18
7.120000E+03	1.456747E-16	5.574740E-18
7.130000E+03	1.481327E-16	5.624584E-18
7.140000E+03	1.506451E-16	5.676743E-18
7.150000E+03	1.532120E-16	5.731030E-18
7.160000E+03	1.558096E-16	5.786379E-18
7.170000E+03	1.584117E-16	5.841666E-18
7.180000E+03	1.610138E-16	5.896578E-18
7.190000E+03	1.635780E-16	5.949602E-18
7.200000E+03	1.660968E-16	6.000342E-18
7.210000E+03	1.685286E-16	6.047187E-18
7.220000E+03	1.708550E-16	6.089375E-18
7.230000E+03	1.730485E-16	6.125835E-18
7.240000E+03	1.750899E-16	6.155795E-18
7.250000E+03	1.769340E-16	6.177588E-18
7.260000E+03	1.785622E-16	6.190497E-18
7.270000E+03	1.799490E-16	6.193565E-18
7.280000E+03	1.810707E-16	6.185922E-18
7.290000E+03	1.818977E-16	6.166506E-18
7.300000E+03	1.824313E-16	6.135314E-18
7.310000E+03	1.826406E-16	6.091275E-18
7.320000E+03	1.825358E-16	6.034722E-18
7.330000E+03	1.820959E-16	5.964974E-18
7.340000E+03	1.813320E-16	5.882470E-18
7.350000E+03	1.802603E-16	5.787862E-18
7.360000E+03	1.788746E-16	5.681154E-18
7.370000E+03	1.771912E-16	5.563180E-18
7.380000E+03	1.752479E-16	5.435552E-18
7.390000E+03	1.730586E-16	5.299244E-18
7.400000E+03	1.706405E-16	5.155454E-18
7.410000E+03	1.680299E-16	5.006094E-18
7.420000E+03	1.652641E-16	4.853203E-18
7.430000E+03	1.623560E-16	4.698203E-18
7.440000E+03	1.593358E-16	4.543136E-18
7.450000E+03	1.562498E-16	4.390553E-18
7.460000E+03	1.531187E-16	4.242328E-18
7.470000E+03	1.499630E-16	4.100348E-18
7.480000E+03	1.468174E-16	3.966865E-18
7.490000E+03	1.437069E-16	3.843778E-18
7.500000E+03	1.406543E-16	3.732781E-18
7.510000E+03	1.376729E-16	3.635088E-18
7.520000E+03	1.347947E-16	3.552083E-18
7.530000E+03	1.320202E-16	3.483914E-18
7.540000E+03	1.293670E-16	3.430690E-18
7.550000E+03	1.268418E-16	3.391708E-18
7.560000E+03	1.244414E-16	3.365588E-18
7.570000E+03	1.221792E-16	3.351181E-18
7.580000E+03	1.200417E-16	3.346536E-18
7.590000E+03	1.180327E-16	3.350247E-18
7.600000E+03	1.161430E-16	3.360683E-18
7.610000E+03	1.143810E-16	3.376914E-18
7.620000E+03	1.127303E-16	3.397514E-18
7.630000E+03	1.111926E-16	3.421780E-18
7.640000E+03	1.097629E-16	3.449022E-18
7.650000E+03	1.084307E-16	3.478526E-18
7.660000E+03	1.071966E-16	3.510059E-18
7.670000E+03	1.060552E-16	3.543305E-18
7.680000E+03	1.050012E-16	3.578011E-18
7.690000E+03	1.040236E-16	3.613775E-18
7.700000E+03	1.031275E-16	3.650776E-18
7.710000E+03	1.022965E-16	3.688443E-18
7.720000E+03	1.015247E-16	3.726581E-18
7.730000E+03	1.008170E-16	3.765383E-18
7.740000E+03	1.001570E-16	3.804260E-18
7.750000E+03	9.954431E-17	3.843208E-18
7.760000E+03	9.896815E-17	3.881821E-18
