#wls	flux	fluxerr
1.600000E+03	1.435712E-16	1.046081E-16
1.640000E+03	1.468810E-16	1.057314E-16
1.680000E+03	1.501789E-16	1.067558E-16
1.720000E+03	1.535086E-16	1.077098E-16
1.760000E+03	1.568636E-16	1.085857E-16
1.800000E+03	1.601822E-16	1.093382E-16
1.840000E+03	1.635370E-16	1.100150E-16
1.880000E+03	1.668646E-16	1.105707E-16
1.920000E+03	1.701834E-16	1.110160E-16
1.960000E+03	1.734839E-16	1.113429E-16
2.000000E+03	1.767559E-16	1.115437E-16
2.040000E+03	1.799594E-16	1.115925E-16
2.080000E+03	1.831421E-16	1.115192E-16
2.120000E+03	1.862935E-16	1.113166E-16
2.160000E+03	1.893417E-16	1.109425E-16
2.200000E+03	1.923352E-16	1.104274E-16
2.240000E+03	1.952626E-16	1.097660E-16
2.280000E+03	1.980809E-16	1.089366E-16
2.320000E+03	2.008089E-16	1.079535E-16
2.360000E+03	2.034347E-16	1.068140E-16
2.400000E+03	2.059782E-16	1.055330E-16
2.440000E+03	2.083647E-16	1.040774E-16
2.480000E+03	2.106462E-16	1.024802E-16
2.520000E+03	2.128120E-16	1.007428E-16
2.560000E+03	2.148204E-16	9.885307E-17
2.600000E+03	2.166937E-16	9.683053E-17
2.640000E+03	2.184234E-16	9.468065E-17
2.680000E+03	2.200331E-16	9.242347E-17
2.720000E+03	2.214850E-16	9.005328E-17
2.760000E+03	2.227740E-16	8.757982E-17
2.800000E+03	2.239576E-16	8.503736E-17
2.840000E+03	2.249716E-16	8.241288E-17
2.880000E+03	2.258755E-16	7.974073E-17
2.920000E+03	2.266391E-16	7.702183E-17
2.960000E+03	2.272644E-16	7.426918E-17
3.000000E+03	2.278128E-16	7.151415E-17
3.010000E+03	2.279355E-16	7.082539E-17
3.020000E+03	2.280412E-16	7.013346E-17
3.030000E+03	2.281300E-16	6.943868E-17
3.040000E+03	2.282306E-16	6.874989E-17
3.050000E+03	2.283427E-16	6.806705E-17
3.060000E+03	2.284101E-16	6.737351E-17
3.070000E+03	2.284894E-16	6.668628E-17
3.080000E+03	2.285804E-16	6.600531E-17
3.090000E+03	2.286552E-16	6.532258E-17
3.100000E+03	2.287142E-16	6.463840E-17
3.110000E+03	2.287851E-16	6.396075E-17
3.120000E+03	2.288404E-16	6.328196E-17
3.130000E+03	2.288804E-16	6.260231E-17
3.140000E+03	2.289325E-16	6.192942E-17
3.150000E+03	2.289967E-16	6.126321E-17
3.160000E+03	2.290188E-16	6.058932E-17
3.170000E+03	2.290803E-16	5.992940E-17
3.180000E+03	2.291002E-16	5.926227E-17
3.190000E+03	2.291327E-16	5.860210E-17
3.200000E+03	2.291775E-16	5.794878E-17
3.210000E+03	2.292083E-16	5.729562E-17
3.220000E+03	2.292252E-16	5.664280E-17
3.230000E+03	2.292548E-16	5.599690E-17
3.240000E+03	2.292710E-16	5.535152E-17
3.250000E+03	2.292998E-16	5.471299E-17
3.260000E+03	2.293156E-16	5.407512E-17
3.270000E+03	2.293185E-16	5.343804E-17
3.280000E+03	2.293343E-16	5.280779E-17
3.290000E+03	2.293631E-16	5.218420E-17
3.300000E+03	2.293794E-16	5.156143E-17
3.310000E+03	2.293834E-16	5.093960E-17
3.320000E+03	2.294006E-16	5.032431E-17
3.330000E+03	2.294059E-16	4.970998E-17
3.340000E+03	2.294244E-16	4.910202E-17
3.350000E+03	2.294313E-16	4.849502E-17
3.360000E+03	2.294513E-16	4.789417E-17
3.370000E+03	2.294601E-16	4.729426E-17
3.380000E+03	2.294821E-16	4.670030E-17
3.390000E+03	2.294930E-16	4.610722E-17
3.400000E+03	2.295172E-16	4.551984E-17
3.410000E+03	2.295307E-16	4.493328E-17
3.420000E+03	2.295336E-16	4.434758E-17
3.430000E+03	2.295499E-16	4.376729E-17
3.440000E+03	2.295794E-16	4.319219E-17
3.450000E+03	2.295986E-16	4.261773E-17
3.460000E+03	2.296078E-16	4.204394E-17
3.470000E+03	2.296303E-16	4.147503E-17
3.480000E+03	2.296660E-16	4.091077E-17
3.490000E+03	2.296919E-16	4.034695E-17
3.500000E+03	2.297082E-16	3.978357E-17
3.510000E+03	2.297377E-16	3.922454E-17
3.520000E+03	2.297578E-16	3.866585E-17
3.530000E+03	2.297912E-16	3.811125E-17
3.540000E+03	2.298155E-16	3.755689E-17
3.550000E+03	2.298529E-16	3.700638E-17
3.560000E+03	2.298813E-16	3.645602E-17
3.570000E+03	2.299230E-16	3.590928E-17
3.580000E+03	2.299559E-16	3.536263E-17
3.590000E+03	2.300019E-16	3.481938E-17
3.600000E+03	2.300394E-16	3.427617E-17
3.610000E+03	2.300901E-16	3.373618E-17
3.620000E+03	2.301325E-16	3.319619E-17
3.630000E+03	2.301880E-16	3.265928E-17
3.640000E+03	2.302354E-16	3.212236E-17
3.650000E+03	2.302749E-16	3.158551E-17
3.660000E+03	2.303277E-16	3.105163E-17
3.670000E+03	2.303936E-16	3.052063E-17
3.680000E+03	2.304518E-16	2.998972E-17
3.690000E+03	2.305027E-16	2.945901E-17
3.700000E+03	2.305667E-16	2.893121E-17
3.710000E+03	2.306236E-16	2.840375E-17
3.720000E+03	2.306937E-16	2.787924E-17
3.730000E+03	2.307568E-16	2.735527E-17
3.740000E+03	2.308331E-16	2.683436E-17
3.750000E+03	2.309026E-16	2.631426E-17
3.760000E+03	2.309655E-16	2.579520E-17
3.770000E+03	2.310417E-16	2.527958E-17
3.780000E+03	2.311114E-16	2.476539E-17
3.790000E+03	2.311945E-16	2.425497E-17
3.800000E+03	2.312712E-16	2.374649E-17
3.810000E+03	2.313612E-16	2.324224E-17
3.820000E+03	2.314452E-16	2.274056E-17
3.830000E+03	2.315233E-16	2.224188E-17
3.840000E+03	2.316146E-16	2.174842E-17
3.850000E+03	2.317004E-16	2.125881E-17
3.860000E+03	2.317994E-16	2.077526E-17
3.870000E+03	2.318743E-16	2.029494E-17
3.880000E+03	2.319814E-16	1.982338E-17
3.890000E+03	2.320648E-16	1.935634E-17
3.900000E+03	2.321618E-16	1.889764E-17
3.910000E+03	2.322541E-16	1.844642E-17
3.920000E+03	2.323599E-16	1.800485E-17
3.930000E+03	2.324611E-16	1.757216E-17
3.940000E+03	2.325575E-16	1.714909E-17
3.950000E+03	2.326671E-16	1.673761E-17
3.960000E+03	2.327535E-16	1.633574E-17
3.970000E+03	2.328700E-16	1.594782E-17
3.980000E+03	2.329624E-16	1.557060E-17
3.990000E+03	2.330656E-16	1.520695E-17
4.000000E+03	2.331610E-16	1.485605E-17
4.010000E+03	2.332480E-16	1.451825E-17
4.020000E+03	2.333257E-16	1.419386E-17
4.030000E+03	2.334107E-16	1.388414E-17
4.040000E+03	2.334848E-16	1.358822E-17
4.050000E+03	2.335474E-16	1.330626E-17
4.060000E+03	2.335982E-16	1.303836E-17
4.070000E+03	2.336369E-16	1.278452E-17
4.080000E+03	2.336802E-16	1.254560E-17
4.090000E+03	2.337113E-16	1.232048E-17
4.100000E+03	2.337142E-16	1.210808E-17
4.110000E+03	2.337393E-16	1.191061E-17
4.120000E+03	2.337380E-16	1.172509E-17
4.130000E+03	2.337280E-16	1.155183E-17
4.140000E+03	2.337109E-16	1.139023E-17
4.150000E+03	2.337045E-16	1.124041E-17
4.160000E+03	2.336782E-16	1.110008E-17
4.170000E+03	2.336662E-16	1.097003E-17
4.180000E+03	2.336543E-16	1.084877E-17
4.190000E+03	2.336288E-16	1.073486E-17
4.200000E+03	2.336231E-16	1.062907E-17
4.210000E+03	2.336234E-16	1.053008E-17
4.220000E+03	2.336159E-16	1.043663E-17
4.230000E+03	2.336333E-16	1.034966E-17
4.240000E+03	2.336615E-16	1.026805E-17
4.250000E+03	2.336867E-16	1.019080E-17
4.260000E+03	2.337405E-16	1.011897E-17
4.270000E+03	2.337936E-16	1.005102E-17
4.280000E+03	2.338769E-16	9.988094E-18
4.290000E+03	2.339610E-16	9.928784E-18
4.300000E+03	2.340614E-16	9.873664E-18
4.310000E+03	2.341785E-16	9.822682E-18
4.320000E+03	2.343124E-16	9.775801E-18
4.330000E+03	2.344632E-16	9.732974E-18
4.340000E+03	2.346307E-16	9.694132E-18
4.350000E+03	2.348003E-16	9.658564E-18
4.360000E+03	2.349863E-16	9.626717E-18
4.370000E+03	2.351886E-16	9.598364E-18
4.380000E+03	2.354071E-16	9.573211E-18
4.390000E+03	2.356270E-16	9.550317E-18
4.400000E+03	2.358773E-16	9.530440E-18
4.410000E+03	2.361291E-16	9.511967E-18
4.420000E+03	2.363969E-16	9.495014E-18
4.430000E+03	2.366666E-16	9.478547E-18
4.440000E+03	2.369522E-16	9.462699E-18
4.450000E+03	2.372536E-16	9.447059E-18
4.460000E+03	2.375702E-16	9.431267E-18
4.470000E+03	2.378872E-16	9.414465E-18
4.480000E+03	2.382174E-16	9.396981E-18
4.490000E+03	2.385453E-16	9.378105E-18
4.500000E+03	2.388829E-16	9.358302E-18
4.510000E+03	2.392276E-16	9.337557E-18
4.520000E+03	2.395627E-16	9.315390E-18
4.530000E+03	2.398986E-16	9.292475E-18
4.540000E+03	2.402179E-16	9.268484E-18
4.550000E+03	2.405302E-16	9.244225E-18
4.560000E+03	2.408313E-16	9.220038E-18
4.570000E+03	2.411030E-16	9.195803E-18
4.580000E+03	2.413544E-16	9.172498E-18
4.590000E+03	2.415675E-16	9.150087E-18
4.600000E+03	2.417519E-16	9.129577E-18
4.610000E+03	2.418904E-16	9.110921E-18
4.620000E+03	2.419802E-16	9.094532E-18
4.630000E+03	2.420328E-16	9.081250E-18
4.640000E+03	2.420471E-16	9.071313E-18
4.650000E+03	2.420096E-16	9.064382E-18
4.660000E+03	2.419344E-16	9.061058E-18
4.670000E+03	2.418100E-16	9.060909E-18
4.680000E+03	2.416385E-16	9.063985E-18
4.690000E+03	2.414359E-16	9.070829E-18
4.700000E+03	2.411921E-16	9.081004E-18
4.710000E+03	2.409237E-16	9.095067E-18
4.720000E+03	2.406211E-16	9.112601E-18
4.730000E+03	2.403013E-16	9.134166E-18
4.740000E+03	2.399425E-16	9.158845E-18
4.750000E+03	2.395873E-16	9.188121E-18
4.760000E+03	2.392016E-16	9.220384E-18
4.770000E+03	2.388145E-16	9.256056E-18
4.780000E+03	2.384296E-16	9.294467E-18
4.790000E+03	2.380379E-16	9.334432E-18
4.800000E+03	2.376431E-16	9.375249E-18
4.810000E+03	2.372488E-16	9.416218E-18
4.820000E+03	2.368708E-16	9.457145E-18
4.830000E+03	2.364999E-16	9.496870E-18
4.840000E+03	2.361513E-16	9.535248E-18
4.850000E+03	2.358151E-16	9.571185E-18
4.860000E+03	2.354938E-16	9.604120E-18
4.870000E+03	2.351892E-16	9.633542E-18
4.880000E+03	2.349146E-16	9.659487E-18
4.890000E+03	2.346592E-16	9.681067E-18
4.900000E+03	2.344356E-16	9.698461E-18
4.910000E+03	2.342325E-16	9.710938E-18
4.920000E+03	2.340503E-16	9.718349E-18
4.930000E+03	2.338893E-16	9.720614E-18
4.940000E+03	2.337615E-16	9.718189E-18
4.950000E+03	2.336552E-16	9.710558E-18
4.960000E+03	2.335817E-16	9.698156E-18
4.970000E+03	2.335174E-16	9.679906E-18
4.980000E+03	2.334963E-16	9.657104E-18
4.990000E+03	2.334825E-16	9.628085E-18
5.000000E+03	2.334976E-16	9.593571E-18
5.010000E+03	2.335282E-16	9.552817E-18
5.020000E+03	2.335723E-16	9.505555E-18
5.030000E+03	2.336278E-16	9.451531E-18
5.040000E+03	2.337039E-16	9.390991E-18
5.050000E+03	2.337988E-16	9.323771E-18
5.060000E+03	2.338874E-16	9.248890E-18
5.070000E+03	2.339911E-16	9.167318E-18
5.080000E+03	2.340969E-16	9.078782E-18
5.090000E+03	2.342150E-16	8.984043E-18
5.100000E+03	2.343211E-16	8.882663E-18
5.110000E+03	2.344369E-16	8.776077E-18
5.120000E+03	2.345609E-16	8.664936E-18
5.130000E+03	2.346800E-16	8.549569E-18
5.140000E+03	2.347922E-16	8.430826E-18
5.150000E+03	2.348948E-16	8.309627E-18
5.160000E+03	2.349961E-16	8.187326E-18
5.170000E+03	2.350809E-16	8.064485E-18
5.180000E+03	2.351447E-16	7.942052E-18
5.190000E+03	2.351939E-16	7.821316E-18
5.200000E+03	2.352115E-16	7.702757E-18
5.210000E+03	2.351918E-16	7.587207E-18
5.220000E+03	2.351403E-16	7.475820E-18
5.230000E+03	2.350397E-16	7.368987E-18
5.240000E+03	2.348955E-16	7.267777E-18
5.250000E+03	2.346798E-16	7.172155E-18
5.260000E+03	2.344206E-16	7.083737E-18
5.270000E+03	2.340793E-16	7.001976E-18
5.280000E+03	2.336729E-16	6.927887E-18
5.290000E+03	2.331854E-16	6.861322E-18
5.300000E+03	2.326230E-16	6.802630E-18
5.310000E+03	2.319698E-16	6.751357E-18
5.320000E+03	2.312214E-16	6.707250E-18
5.330000E+03	2.303847E-16	6.670258E-18
5.340000E+03	2.294450E-16	6.639586E-18
5.350000E+03	2.283996E-16	6.614655E-18
5.360000E+03	2.272569E-16	6.595088E-18
5.370000E+03	2.260047E-16	6.579783E-18
5.380000E+03	2.246531E-16	6.568178E-18
5.390000E+03	2.231915E-16	6.559019E-18
5.400000E+03	2.216313E-16	6.551642E-18
5.410000E+03	2.199634E-16	6.544771E-18
5.420000E+03	2.181902E-16	6.537478E-18
5.430000E+03	2.163245E-16	6.529222E-18
5.440000E+03	2.143594E-16	6.518966E-18
5.450000E+03	2.123084E-16	6.506423E-18
5.460000E+03	2.101656E-16	6.490859E-18
5.470000E+03	2.079357E-16	6.472004E-18
5.480000E+03	2.056331E-16	6.450041E-18
5.490000E+03	2.032534E-16	6.424668E-18
5.500000E+03	2.008119E-16	6.396273E-18
5.510000E+03	1.983147E-16	6.364996E-18
5.520000E+03	1.957499E-16	6.330411E-18
5.530000E+03	1.931522E-16	6.293580E-18
5.540000E+03	1.905020E-16	6.253788E-18
5.550000E+03	1.878343E-16	6.212070E-18
5.560000E+03	1.851309E-16	6.167704E-18
5.570000E+03	1.824264E-16	6.121705E-18
5.580000E+03	1.797040E-16	6.073379E-18
5.590000E+03	1.769894E-16	6.023489E-18
5.600000E+03	1.742911E-16	5.972260E-18
5.610000E+03	1.716096E-16	5.919680E-18
5.620000E+03	1.689611E-16	5.866332E-18
5.630000E+03	1.663458E-16	5.812274E-18
5.640000E+03	1.637792E-16	5.758135E-18
5.650000E+03	1.612686E-16	5.704282E-18
5.660000E+03	1.588134E-16	5.650828E-18
5.670000E+03	1.564204E-16	5.598162E-18
5.680000E+03	1.541032E-16	5.546931E-18
5.690000E+03	1.518602E-16	5.497254E-18
5.700000E+03	1.497105E-16	5.449998E-18
5.710000E+03	1.476377E-16	5.404715E-18
5.720000E+03	1.456663E-16	5.362410E-18
5.730000E+03	1.437790E-16	5.322491E-18
5.740000E+03	1.419983E-16	5.285756E-18
5.750000E+03	1.403122E-16	5.251637E-18
5.760000E+03	1.387216E-16	5.219951E-18
5.770000E+03	1.372391E-16	5.190895E-18
5.780000E+03	1.358510E-16	5.163610E-18
5.790000E+03	1.345557E-16	5.137669E-18
5.800000E+03	1.333575E-16	5.112847E-18
5.810000E+03	1.322538E-16	5.088667E-18
5.820000E+03	1.312357E-16	5.064422E-18
5.830000E+03	1.303064E-16	5.039900E-18
5.840000E+03	1.294629E-16	5.014680E-18
5.850000E+03	1.286961E-16	4.988149E-18
5.860000E+03	1.280095E-16	4.960200E-18
5.870000E+03	1.273945E-16	4.930306E-18
5.880000E+03	1.268607E-16	4.898678E-18
5.890000E+03	1.263943E-16	4.864651E-18
5.900000E+03	1.259938E-16	4.828069E-18
5.910000E+03	1.256639E-16	4.789049E-18
5.920000E+03	1.254038E-16	4.747531E-18
5.930000E+03	1.252132E-16	4.703508E-18
5.940000E+03	1.250863E-16	4.656823E-18
5.950000E+03	1.250293E-16	4.607828E-18
5.960000E+03	1.250430E-16	4.556739E-18
5.970000E+03	1.251228E-16	4.503647E-18
5.980000E+03	1.252820E-16	4.449370E-18
5.990000E+03	1.255107E-16	4.393972E-18
6.000000E+03	1.258112E-16	4.338027E-18
6.010000E+03	1.261981E-16	4.282582E-18
6.020000E+03	1.266627E-16	4.227931E-18
6.030000E+03	1.272086E-16	4.174822E-18
6.040000E+03	1.278519E-16	4.124414E-18
6.050000E+03	1.285853E-16	4.077075E-18
6.060000E+03	1.294263E-16	4.033911E-18
6.070000E+03	1.303626E-16	3.994996E-18
6.080000E+03	1.314193E-16	3.961440E-18
6.090000E+03	1.325914E-16	3.933284E-18
6.100000E+03	1.338991E-16	3.911185E-18
6.110000E+03	1.353382E-16	3.894932E-18
6.120000E+03	1.369166E-16	3.884565E-18
6.130000E+03	1.386553E-16	3.880385E-18
6.140000E+03	1.405491E-16	3.881886E-18
6.150000E+03	1.426116E-16	3.889076E-18
6.160000E+03	1.448495E-16	3.901794E-18
6.170000E+03	1.472685E-16	3.919937E-18
6.180000E+03	1.498734E-16	3.943497E-18
6.190000E+03	1.526602E-16	3.972404E-18
6.200000E+03	1.556376E-16	4.007095E-18
6.210000E+03	1.588046E-16	4.047954E-18
6.220000E+03	1.621576E-16	4.095476E-18
6.230000E+03	1.656892E-16	4.150220E-18
6.240000E+03	1.693873E-16	4.212721E-18
6.250000E+03	1.732249E-16	4.282820E-18
6.260000E+03	1.771833E-16	4.360181E-18
6.270000E+03	1.812388E-16	4.444345E-18
6.280000E+03	1.853364E-16	4.534192E-18
6.290000E+03	1.894327E-16	4.629049E-18
6.300000E+03	1.934993E-16	4.728786E-18
6.310000E+03	1.974787E-16	4.832749E-18
6.320000E+03	2.013119E-16	4.940397E-18
6.330000E+03	2.049695E-16	5.052024E-18
6.340000E+03	2.083865E-16	5.167096E-18
6.350000E+03	2.115308E-16	5.285889E-18
6.360000E+03	2.143662E-16	5.408507E-18
6.370000E+03	2.168624E-16	5.535099E-18
6.380000E+03	2.189954E-16	5.665825E-18
6.390000E+03	2.207480E-16	5.800816E-18
6.400000E+03	2.221093E-16	5.940142E-18
6.410000E+03	2.230642E-16	6.083471E-18
6.420000E+03	2.236358E-16	6.231198E-18
6.430000E+03	2.238096E-16	6.382369E-18
6.440000E+03	2.236087E-16	6.536715E-18
6.450000E+03	2.230601E-16	6.693784E-18
6.460000E+03	2.221620E-16	6.851945E-18
6.470000E+03	2.209473E-16	7.010304E-18
6.480000E+03	2.194396E-16	7.167445E-18
6.490000E+03	2.176632E-16	7.321760E-18
6.500000E+03	2.156426E-16	7.471497E-18
6.510000E+03	2.134016E-16	7.614817E-18
6.520000E+03	2.109635E-16	7.749879E-18
6.530000E+03	2.083506E-16	7.874923E-18
6.540000E+03	2.055846E-16	7.988344E-18
6.550000E+03	2.026859E-16	8.088750E-18
6.560000E+03	1.996746E-16	8.175002E-18
6.570000E+03	1.965602E-16	8.245838E-18
6.580000E+03	1.933802E-16	8.301477E-18
6.590000E+03	1.901427E-16	8.341213E-18
6.600000E+03	1.868551E-16	8.364583E-18
6.610000E+03	1.835520E-16	8.372585E-18
6.620000E+03	1.802392E-16	8.365199E-18
6.630000E+03	1.769225E-16	8.342586E-18
6.640000E+03	1.736329E-16	8.306288E-18
6.650000E+03	1.703745E-16	8.256749E-18
6.660000E+03	1.671507E-16	8.194524E-18
6.670000E+03	1.639893E-16	8.121459E-18
6.680000E+03	1.608841E-16	8.037847E-18
6.690000E+03	1.578603E-16	7.945611E-18
6.700000E+03	1.549183E-16	7.845498E-18
6.710000E+03	1.520581E-16	7.738266E-18
6.720000E+03	1.493018E-16	7.625807E-18
6.730000E+03	1.466402E-16	7.508448E-18
6.740000E+03	1.440933E-16	7.387969E-18
6.750000E+03	1.416580E-16	7.264961E-18
6.760000E+03	1.393313E-16	7.139960E-18
6.770000E+03	1.371301E-16	7.014486E-18
6.780000E+03	1.350501E-16	6.888905E-18
6.790000E+03	1.330868E-16	6.763536E-18
6.800000E+03	1.312554E-16	6.639644E-18
6.810000E+03	1.295509E-16	6.517415E-18
6.820000E+03	1.279684E-16	6.397001E-18
6.830000E+03	1.265220E-16	6.279461E-18
6.840000E+03	1.252066E-16	6.164823E-18
6.850000E+03	1.240231E-16	6.053384E-18
6.860000E+03	1.229665E-16	5.945085E-18
6.870000E+03	1.220500E-16	5.840712E-18
6.880000E+03	1.212681E-16	5.740118E-18
6.890000E+03	1.206217E-16	5.643430E-18
6.900000E+03	1.201114E-16	5.550770E-18
6.910000E+03	1.197318E-16	5.461987E-18
6.920000E+03	1.194959E-16	5.377771E-18
6.930000E+03	1.193982E-16	5.298001E-18
6.940000E+03	1.194395E-16	5.222864E-18
6.950000E+03	1.196208E-16	5.152575E-18
6.960000E+03	1.199427E-16	5.087379E-18
6.970000E+03	1.204059E-16	5.027547E-18
6.980000E+03	1.210050E-16	4.973126E-18
6.990000E+03	1.217527E-16	4.924932E-18
7.000000E+03	1.226431E-16	4.883025E-18
7.010000E+03	1.236763E-16	4.847705E-18
7.020000E+03	1.248523E-16	4.819232E-18
7.030000E+03	1.261703E-16	4.797798E-18
7.040000E+03	1.276293E-16	4.783506E-18
7.050000E+03	1.292276E-16	4.776351E-18
7.060000E+03	1.309630E-16	4.776217E-18
7.070000E+03	1.328254E-16	4.782631E-18
7.080000E+03	1.348243E-16	4.795746E-18
7.090000E+03	1.369480E-16	4.814890E-18
7.100000E+03	1.391901E-16	4.839566E-18
7.110000E+03	1.415435E-16	4.869216E-18
7.120000E+03	1.439920E-16	4.903002E-18
7.130000E+03	1.465401E-16	4.940818E-18
7.140000E+03	1.491688E-16	4.981804E-18
7.150000E+03	1.518570E-16	5.025090E-18
7.160000E+03	1.546049E-16	5.070568E-18
7.170000E+03	1.573796E-16	5.117082E-18
7.180000E+03	1.601775E-16	5.164477E-18
7.190000E+03	1.629608E-16	5.211498E-18
7.200000E+03	1.657219E-16	5.257892E-18
7.210000E+03	1.684177E-16	5.302272E-18
7.220000E+03	1.710280E-16	5.344007E-18
7.230000E+03	1.735224E-16	5.382154E-18
7.240000E+03	1.758783E-16	5.416027E-18
7.250000E+03	1.780448E-16	5.444095E-18
7.260000E+03	1.799983E-16	5.465682E-18
7.270000E+03	1.816972E-16	5.479587E-18
7.280000E+03	1.831303E-16	5.485526E-18
7.290000E+03	1.842614E-16	5.482444E-18
7.300000E+03	1.850677E-16	5.469669E-18
7.310000E+03	1.855223E-16	5.446362E-18
7.320000E+03	1.856329E-16	5.412670E-18
7.330000E+03	1.853756E-16	5.367762E-18
7.340000E+03	1.847615E-16	5.311830E-18
7.350000E+03	1.837989E-16	5.244979E-18
7.360000E+03	1.825015E-16	5.167528E-18
7.370000E+03	1.808877E-16	5.080025E-18
7.380000E+03	1.789803E-16	4.983252E-18
7.390000E+03	1.767957E-16	4.877964E-18
7.400000E+03	1.743805E-16	4.765902E-18
7.410000E+03	1.717460E-16	4.647972E-18
7.420000E+03	1.689321E-16	4.525988E-18
7.430000E+03	1.659700E-16	4.401620E-18
7.440000E+03	1.628910E-16	4.276603E-18
7.450000E+03	1.597258E-16	4.152702E-18
7.460000E+03	1.564964E-16	4.031457E-18
7.470000E+03	1.532486E-16	3.915001E-18
7.480000E+03	1.499937E-16	3.804531E-18
7.490000E+03	1.467661E-16	3.701746E-18
7.500000E+03	1.435899E-16	3.607973E-18
7.510000E+03	1.404870E-16	3.524332E-18
7.520000E+03	1.374696E-16	3.451511E-18
7.530000E+03	1.345690E-16	3.390451E-18
7.540000E+03	1.317843E-16	3.340949E-18
7.550000E+03	1.291298E-16	3.302498E-18
7.560000E+03	1.266014E-16	3.273764E-18
7.570000E+03	1.242140E-16	3.253840E-18
7.580000E+03	1.219538E-16	3.241129E-18
7.590000E+03	1.198258E-16	3.234654E-18
7.600000E+03	1.178277E-16	3.233408E-18
7.610000E+03	1.159562E-16	3.236569E-18
7.620000E+03	1.142078E-16	3.243502E-18
7.630000E+03	1.125722E-16	3.253582E-18
7.640000E+03	1.110514E-16	3.266695E-18
7.650000E+03	1.096405E-16	3.282677E-18
7.660000E+03	1.083289E-16	3.301273E-18
7.670000E+03	1.071231E-16	3.322792E-18
7.680000E+03	1.060060E-16	3.346820E-18
7.690000E+03	1.049775E-16	3.373427E-18
7.700000E+03	1.040259E-16	3.402248E-18
7.710000E+03	1.031560E-16	3.433406E-18
7.720000E+03	1.023500E-16	3.466231E-18
7.730000E+03	1.016068E-16	3.500587E-18
7.740000E+03	1.009143E-16	3.535952E-18
7.750000E+03	1.002771E-16	3.572391E-18
7.760000E+03	9.967774E-17	3.609213E-18
