#wls	flux	fluxerr
1.600000E+03	1.147432E-16	8.480318E-17
1.640000E+03	1.173590E-16	8.575131E-17
1.680000E+03	1.199943E-16	8.664534E-17
1.720000E+03	1.226655E-16	8.749466E-17
1.760000E+03	1.253471E-16	8.827871E-17
1.800000E+03	1.280338E-16	8.899169E-17
1.840000E+03	1.307196E-16	8.962776E-17
1.880000E+03	1.333983E-16	9.018113E-17
1.920000E+03	1.360862E-16	9.066130E-17
1.960000E+03	1.387776E-16	9.106266E-17
2.000000E+03	1.414425E-16	9.136449E-17
2.040000E+03	1.440974E-16	9.157667E-17
2.080000E+03	1.467112E-16	9.167896E-17
2.120000E+03	1.493247E-16	9.169675E-17
2.160000E+03	1.518821E-16	9.159541E-17
2.200000E+03	1.543999E-16	9.138593E-17
2.240000E+03	1.568703E-16	9.106468E-17
2.280000E+03	1.592856E-16	9.062855E-17
2.320000E+03	1.616635E-16	9.008931E-17
2.360000E+03	1.639710E-16	8.943046E-17
2.400000E+03	1.662003E-16	8.865084E-17
2.440000E+03	1.683699E-16	8.776368E-17
2.480000E+03	1.704467E-16	8.675537E-17
2.520000E+03	1.724498E-16	8.564023E-17
2.560000E+03	1.743729E-16	8.441961E-17
2.600000E+03	1.761837E-16	8.308326E-17
2.640000E+03	1.779292E-16	8.165930E-17
2.680000E+03	1.795782E-16	8.013887E-17
2.720000E+03	1.811263E-16	7.852661E-17
2.760000E+03	1.825700E-16	7.682793E-17
2.800000E+03	1.839323E-16	7.505955E-17
2.840000E+03	1.851848E-16	7.321680E-17
2.880000E+03	1.863521E-16	7.131673E-17
2.920000E+03	1.874330E-16	6.936569E-17
2.960000E+03	1.884020E-16	6.736123E-17
3.000000E+03	1.893104E-16	6.532850E-17
3.010000E+03	1.895147E-16	6.481197E-17
3.020000E+03	1.897075E-16	6.429155E-17
3.030000E+03	1.899138E-16	6.377579E-17
3.040000E+03	1.901086E-16	6.325628E-17
3.050000E+03	1.902920E-16	6.273318E-17
3.060000E+03	1.904889E-16	6.221477E-17
3.070000E+03	1.906744E-16	6.169292E-17
3.080000E+03	1.908485E-16	6.116779E-17
3.090000E+03	1.910114E-16	6.063953E-17
3.100000E+03	1.911878E-16	6.011603E-17
3.110000E+03	1.913529E-16	5.958953E-17
3.120000E+03	1.915069E-16	5.906018E-17
3.130000E+03	1.916500E-16	5.852813E-17
3.140000E+03	1.918064E-16	5.800086E-17
3.150000E+03	1.919518E-16	5.747100E-17
3.160000E+03	1.920864E-16	5.693868E-17
3.170000E+03	1.922102E-16	5.640405E-17
3.180000E+03	1.923473E-16	5.587418E-17
3.190000E+03	1.924738E-16	5.534208E-17
3.200000E+03	1.925896E-16	5.480786E-17
3.210000E+03	1.927187E-16	5.427834E-17
3.220000E+03	1.928372E-16	5.374675E-17
3.230000E+03	1.929453E-16	5.321323E-17
3.240000E+03	1.930430E-16	5.267788E-17
3.250000E+03	1.931540E-16	5.214715E-17
3.260000E+03	1.932546E-16	5.161461E-17
3.270000E+03	1.933451E-16	5.108039E-17
3.280000E+03	1.934487E-16	5.055064E-17
3.290000E+03	1.935422E-16	5.001921E-17
3.300000E+03	1.936257E-16	4.948620E-17
3.310000E+03	1.936992E-16	4.895170E-17
3.320000E+03	1.937858E-16	4.842151E-17
3.330000E+03	1.938625E-16	4.788982E-17
3.340000E+03	1.939295E-16	4.735671E-17
3.350000E+03	1.940095E-16	4.682773E-17
3.360000E+03	1.940798E-16	4.629732E-17
3.370000E+03	1.941404E-16	4.576554E-17
3.380000E+03	1.941916E-16	4.523247E-17
3.390000E+03	1.942557E-16	4.470331E-17
3.400000E+03	1.943103E-16	4.417283E-17
3.410000E+03	1.943557E-16	4.364110E-17
3.420000E+03	1.944138E-16	4.311306E-17
3.430000E+03	1.944408E-16	4.257893E-17
3.440000E+03	1.945025E-16	4.205318E-17
3.450000E+03	1.945332E-16	4.152147E-17
3.460000E+03	1.945767E-16	4.099323E-17
3.470000E+03	1.946113E-16	4.046379E-17
3.480000E+03	1.946370E-16	3.993322E-17
3.490000E+03	1.946540E-16	3.940157E-17
3.500000E+03	1.946838E-16	3.887319E-17
3.510000E+03	1.947049E-16	3.834371E-17
3.520000E+03	1.947388E-16	3.781732E-17
3.530000E+03	1.947431E-16	3.728579E-17
3.540000E+03	1.947601E-16	3.675733E-17
3.550000E+03	1.947690E-16	3.622793E-17
3.560000E+03	1.947906E-16	3.570146E-17
3.570000E+03	1.948042E-16	3.517405E-17
3.580000E+03	1.948099E-16	3.464579E-17
3.590000E+03	1.948078E-16	3.411678E-17
3.600000E+03	1.947982E-16	3.358710E-17
3.610000E+03	1.948016E-16	3.306031E-17
3.620000E+03	1.947976E-16	3.253293E-17
3.630000E+03	1.948067E-16	3.200839E-17
3.640000E+03	1.947886E-16	3.148011E-17
3.650000E+03	1.947838E-16	3.095478E-17
3.660000E+03	1.947724E-16	3.042924E-17
3.670000E+03	1.947743E-16	2.990666E-17
3.680000E+03	1.947501E-16	2.938106E-17
3.690000E+03	1.947397E-16	2.885862E-17
3.700000E+03	1.947234E-16	2.833649E-17
3.710000E+03	1.947016E-16	2.781485E-17
3.720000E+03	1.946938E-16	2.729664E-17
3.730000E+03	1.946810E-16	2.677922E-17
3.740000E+03	1.946632E-16	2.626284E-17
3.750000E+03	1.946410E-16	2.574775E-17
3.760000E+03	1.946336E-16	2.523669E-17
3.770000E+03	1.946033E-16	2.472494E-17
3.780000E+03	1.945883E-16	2.421771E-17
3.790000E+03	1.945701E-16	2.371284E-17
3.800000E+03	1.945677E-16	2.321292E-17
3.810000E+03	1.945441E-16	2.271380E-17
3.820000E+03	1.945369E-16	2.222030E-17
3.830000E+03	1.945279E-16	2.173059E-17
3.840000E+03	1.945175E-16	2.124513E-17
3.850000E+03	1.945245E-16	2.076635E-17
3.860000E+03	1.945126E-16	2.029077E-17
3.870000E+03	1.945189E-16	1.982276E-17
3.880000E+03	1.945254E-16	1.936092E-17
3.890000E+03	1.945326E-16	1.890579E-17
3.900000E+03	1.945409E-16	1.845795E-17
3.910000E+03	1.945508E-16	1.801796E-17
3.920000E+03	1.945802E-16	1.758800E-17
3.930000E+03	1.946118E-16	1.716694E-17
3.940000E+03	1.946281E-16	1.675383E-17
3.950000E+03	1.946645E-16	1.635228E-17
3.960000E+03	1.947036E-16	1.596123E-17
3.970000E+03	1.947628E-16	1.558257E-17
3.980000E+03	1.948074E-16	1.521390E-17
3.990000E+03	1.948718E-16	1.485839E-17
4.000000E+03	1.949217E-16	1.451373E-17
4.010000E+03	1.949911E-16	1.418284E-17
4.020000E+03	1.950628E-16	1.386468E-17
4.030000E+03	1.951197E-16	1.355830E-17
4.040000E+03	1.951956E-16	1.326627E-17
4.050000E+03	1.952736E-16	1.298750E-17
4.060000E+03	1.953703E-16	1.272314E-17
4.070000E+03	1.954524E-16	1.247099E-17
4.080000E+03	1.955367E-16	1.223210E-17
4.090000E+03	1.956236E-16	1.200633E-17
4.100000E+03	1.957299E-16	1.179448E-17
4.110000E+03	1.958232E-16	1.159426E-17
4.120000E+03	1.959206E-16	1.140634E-17
4.130000E+03	1.960391E-16	1.123124E-17
4.140000E+03	1.961469E-16	1.106662E-17
4.150000E+03	1.962774E-16	1.091380E-17
4.160000E+03	1.963991E-16	1.077041E-17
4.170000E+03	1.965453E-16	1.063765E-17
4.180000E+03	1.966848E-16	1.051315E-17
4.190000E+03	1.968347E-16	1.039720E-17
4.200000E+03	1.970118E-16	1.029000E-17
4.210000E+03	1.971850E-16	1.018931E-17
4.220000E+03	1.973870E-16	1.009621E-17
4.230000E+03	1.975868E-16	1.000853E-17
4.240000E+03	1.978007E-16	9.926599E-18
4.250000E+03	1.980292E-16	9.849974E-18
4.260000E+03	1.982725E-16	9.778253E-18
4.270000E+03	1.985309E-16	9.711084E-18
4.280000E+03	1.988043E-16	9.648174E-18
4.290000E+03	1.990925E-16	9.589283E-18
4.300000E+03	1.993951E-16	9.534226E-18
4.310000E+03	1.997117E-16	9.482874E-18
4.320000E+03	2.000261E-16	9.434425E-18
4.330000E+03	2.003531E-16	9.389590E-18
4.340000E+03	2.007070E-16	9.349098E-18
4.350000E+03	2.010559E-16	9.311558E-18
4.360000E+03	2.014143E-16	9.277740E-18
4.370000E+03	2.017809E-16	9.247654E-18
4.380000E+03	2.021398E-16	9.220496E-18
4.390000E+03	2.025212E-16	9.197329E-18
4.400000E+03	2.028951E-16	9.176199E-18
4.410000E+03	2.032775E-16	9.157072E-18
4.420000E+03	2.036692E-16	9.139164E-18
4.430000E+03	2.040712E-16	9.121701E-18
4.440000E+03	2.044841E-16	9.103954E-18
4.450000E+03	2.048934E-16	9.084590E-18
4.460000E+03	2.053144E-16	9.063697E-18
4.470000E+03	2.057470E-16	9.040766E-18
4.480000E+03	2.061910E-16	9.015372E-18
4.490000E+03	2.066457E-16	8.987175E-18
4.500000E+03	2.070950E-16	8.955269E-18
4.510000E+03	2.075527E-16	8.920136E-18
4.520000E+03	2.080169E-16	8.881682E-18
4.530000E+03	2.084709E-16	8.839262E-18
4.540000E+03	2.089271E-16	8.793583E-18
4.550000E+03	2.093831E-16	8.744790E-18
4.560000E+03	2.098360E-16	8.693105E-18
4.570000E+03	2.102680E-16	8.638214E-18
4.580000E+03	2.107059E-16	8.581717E-18
4.590000E+03	2.111020E-16	8.522244E-18
4.600000E+03	2.114979E-16	8.462121E-18
4.610000E+03	2.118611E-16	8.400736E-18
4.620000E+03	2.122037E-16	8.339332E-18
4.630000E+03	2.125233E-16	8.278614E-18
4.640000E+03	2.128028E-16	8.218780E-18
4.650000E+03	2.130551E-16	8.161241E-18
4.660000E+03	2.132639E-16	8.106332E-18
4.670000E+03	2.134569E-16	8.056130E-18
4.680000E+03	2.136035E-16	8.010540E-18
4.690000E+03	2.137027E-16	7.970640E-18
4.700000E+03	2.137824E-16	7.938620E-18
4.710000E+03	2.137979E-16	7.913965E-18
4.720000E+03	2.137918E-16	7.899369E-18
4.730000E+03	2.137341E-16	7.894744E-18
4.740000E+03	2.136387E-16	7.901418E-18
4.750000E+03	2.134913E-16	7.919310E-18
4.760000E+03	2.133079E-16	7.948859E-18
4.770000E+03	2.130916E-16	7.989351E-18
4.780000E+03	2.128330E-16	8.039059E-18
4.790000E+03	2.125511E-16	8.097053E-18
4.800000E+03	2.122511E-16	8.161764E-18
4.810000E+03	2.119238E-16	8.231063E-18
4.820000E+03	2.115878E-16	8.303948E-18
4.830000E+03	2.112332E-16	8.378409E-18
4.840000E+03	2.108778E-16	8.453637E-18
4.850000E+03	2.105249E-16	8.528395E-18
4.860000E+03	2.101636E-16	8.601011E-18
4.870000E+03	2.098102E-16	8.671058E-18
4.880000E+03	2.094530E-16	8.737111E-18
4.890000E+03	2.091075E-16	8.798997E-18
4.900000E+03	2.087750E-16	8.856094E-18
4.910000E+03	2.084431E-16	8.907309E-18
4.920000E+03	2.081260E-16	8.952790E-18
4.930000E+03	2.078108E-16	8.991613E-18
4.940000E+03	2.075113E-16	9.024077E-18
4.950000E+03	2.072141E-16	9.049374E-18
4.960000E+03	2.069324E-16	9.067897E-18
4.970000E+03	2.066658E-16	9.079488E-18
4.980000E+03	2.064004E-16	9.083432E-18
4.990000E+03	2.061486E-16	9.080190E-18
5.000000E+03	2.058963E-16	9.069085E-18
5.010000E+03	2.056556E-16	9.050617E-18
5.020000E+03	2.054251E-16	9.024730E-18
5.030000E+03	2.051906E-16	8.990830E-18
5.040000E+03	2.049636E-16	8.949507E-18
5.050000E+03	2.047299E-16	8.900260E-18
5.060000E+03	2.045010E-16	8.843775E-18
5.070000E+03	2.042755E-16	8.780223E-18
5.080000E+03	2.040393E-16	8.709294E-18
5.090000E+03	2.037910E-16	8.631304E-18
5.100000E+03	2.035421E-16	8.547165E-18
5.110000E+03	2.032910E-16	8.457295E-18
5.120000E+03	2.030235E-16	8.361642E-18
5.130000E+03	2.027506E-16	8.261257E-18
5.140000E+03	2.024703E-16	8.156690E-18
5.150000E+03	2.021678E-16	8.048020E-18
5.160000E+03	2.018535E-16	7.936358E-18
5.170000E+03	2.015120E-16	7.821829E-18
5.180000E+03	2.011531E-16	7.705544E-18
5.190000E+03	2.007612E-16	7.587648E-18
5.200000E+03	2.003456E-16	7.469232E-18
5.210000E+03	1.999027E-16	7.350904E-18
5.220000E+03	1.994169E-16	7.232823E-18
5.230000E+03	1.988970E-16	7.116054E-18
5.240000E+03	1.983274E-16	7.000775E-18
5.250000E+03	1.977170E-16	6.888041E-18
5.260000E+03	1.970625E-16	6.778468E-18
5.270000E+03	1.963488E-16	6.672271E-18
5.280000E+03	1.955852E-16	6.570501E-18
5.290000E+03	1.947570E-16	6.473397E-18
5.300000E+03	1.938739E-16	6.382009E-18
5.310000E+03	1.929337E-16	6.296979E-18
5.320000E+03	1.919228E-16	6.218566E-18
5.330000E+03	1.908518E-16	6.147781E-18
5.340000E+03	1.897079E-16	6.084829E-18
5.350000E+03	1.885136E-16	6.030951E-18
5.360000E+03	1.872345E-16	5.985384E-18
5.370000E+03	1.859049E-16	5.949278E-18
5.380000E+03	1.844913E-16	5.921153E-18
5.390000E+03	1.830279E-16	5.901170E-18
5.400000E+03	1.814931E-16	5.887315E-18
5.410000E+03	1.798990E-16	5.878478E-18
5.420000E+03	1.782361E-16	5.872836E-18
5.430000E+03	1.765278E-16	5.869718E-18
5.440000E+03	1.747443E-16	5.866824E-18
5.450000E+03	1.729202E-16	5.864145E-18
5.460000E+03	1.710374E-16	5.860083E-18
5.470000E+03	1.690997E-16	5.853922E-18
5.480000E+03	1.671311E-16	5.845818E-18
5.490000E+03	1.651053E-16	5.834318E-18
5.500000E+03	1.630569E-16	5.820210E-18
5.510000E+03	1.609707E-16	5.802642E-18
5.520000E+03	1.588613E-16	5.781905E-18
5.530000E+03	1.567338E-16	5.758017E-18
5.540000E+03	1.545842E-16	5.730713E-18
5.550000E+03	1.524275E-16	5.700469E-18
5.560000E+03	1.502692E-16	5.667458E-18
5.570000E+03	1.481062E-16	5.631545E-18
5.580000E+03	1.459531E-16	5.593308E-18
5.590000E+03	1.438072E-16	5.552673E-18
5.600000E+03	1.416915E-16	5.510591E-18
5.610000E+03	1.395942E-16	5.466698E-18
5.620000E+03	1.375212E-16	5.421318E-18
5.630000E+03	1.354944E-16	5.375427E-18
5.640000E+03	1.335022E-16	5.328708E-18
5.650000E+03	1.315577E-16	5.281817E-18
5.660000E+03	1.296575E-16	5.234764E-18
5.670000E+03	1.278138E-16	5.188182E-18
5.680000E+03	1.260303E-16	5.142367E-18
5.690000E+03	1.243105E-16	5.097590E-18
5.700000E+03	1.226501E-16	5.053789E-18
5.710000E+03	1.210593E-16	5.011472E-18
5.720000E+03	1.195401E-16	4.970794E-18
5.730000E+03	1.180874E-16	4.931566E-18
5.740000E+03	1.167166E-16	4.894427E-18
5.750000E+03	1.154146E-16	4.858784E-18
5.760000E+03	1.141819E-16	4.824581E-18
5.770000E+03	1.130324E-16	4.792284E-18
5.780000E+03	1.119520E-16	4.761161E-18
5.790000E+03	1.109468E-16	4.731305E-18
5.800000E+03	1.100093E-16	4.702211E-18
5.810000E+03	1.091514E-16	4.674200E-18
5.820000E+03	1.083586E-16	4.646459E-18
5.830000E+03	1.076361E-16	4.619012E-18
5.840000E+03	1.069823E-16	4.591607E-18
5.850000E+03	1.063893E-16	4.563730E-18
5.860000E+03	1.058620E-16	4.535430E-18
5.870000E+03	1.053992E-16	4.506501E-18
5.880000E+03	1.049996E-16	4.476758E-18
5.890000E+03	1.046622E-16	4.446043E-18
5.900000E+03	1.043800E-16	4.413961E-18
5.910000E+03	1.041588E-16	4.380680E-18
5.920000E+03	1.039982E-16	4.346134E-18
5.930000E+03	1.038982E-16	4.310288E-18
5.940000E+03	1.038529E-16	4.272894E-18
5.950000E+03	1.038752E-16	4.234506E-18
5.960000E+03	1.039535E-16	4.194699E-18
5.970000E+03	1.040951E-16	4.153851E-18
5.980000E+03	1.042952E-16	4.111875E-18
5.990000E+03	1.045679E-16	4.069465E-18
6.000000E+03	1.049028E-16	4.026357E-18
6.010000E+03	1.053084E-16	3.983055E-18
6.020000E+03	1.057874E-16	3.939835E-18
6.030000E+03	1.063426E-16	3.896985E-18
6.040000E+03	1.069775E-16	3.854799E-18
6.050000E+03	1.076891E-16	3.813339E-18
6.060000E+03	1.084942E-16	3.773344E-18
6.070000E+03	1.093841E-16	3.734619E-18
6.080000E+03	1.103697E-16	3.697634E-18
6.090000E+03	1.114557E-16	3.662609E-18
6.100000E+03	1.126400E-16	3.629529E-18
6.110000E+03	1.139408E-16	3.599030E-18
6.120000E+03	1.153493E-16	3.570885E-18
6.130000E+03	1.168767E-16	3.545549E-18
6.140000E+03	1.185270E-16	3.523319E-18
6.150000E+03	1.203039E-16	3.504580E-18
6.160000E+03	1.222103E-16	3.489843E-18
6.170000E+03	1.242481E-16	3.479783E-18
6.180000E+03	1.264106E-16	3.475057E-18
6.190000E+03	1.287125E-16	3.477175E-18
6.200000E+03	1.311365E-16	3.487036E-18
6.210000E+03	1.336861E-16	3.506373E-18
6.220000E+03	1.363553E-16	3.536841E-18
6.230000E+03	1.391352E-16	3.580047E-18
6.240000E+03	1.420140E-16	3.637242E-18
6.250000E+03	1.449762E-16	3.708963E-18
6.260000E+03	1.479938E-16	3.794694E-18
6.270000E+03	1.510620E-16	3.893973E-18
6.280000E+03	1.541372E-16	4.005048E-18
6.290000E+03	1.572003E-16	4.126664E-18
6.300000E+03	1.602214E-16	4.257258E-18
6.310000E+03	1.631793E-16	4.395526E-18
6.320000E+03	1.660229E-16	4.539425E-18
6.330000E+03	1.687203E-16	4.687491E-18
6.340000E+03	1.712617E-16	4.838958E-18
6.350000E+03	1.736090E-16	4.992345E-18
6.360000E+03	1.757366E-16	5.146580E-18
6.370000E+03	1.776113E-16	5.300397E-18
6.380000E+03	1.792361E-16	5.453611E-18
6.390000E+03	1.805746E-16	5.604859E-18
6.400000E+03	1.816271E-16	5.753847E-18
6.410000E+03	1.823985E-16	5.900395E-18
6.420000E+03	1.828644E-16	6.043296E-18
6.430000E+03	1.830374E-16	6.182433E-18
6.440000E+03	1.829228E-16	6.317340E-18
6.450000E+03	1.825289E-16	6.447532E-18
6.460000E+03	1.818667E-16	6.572489E-18
6.470000E+03	1.809495E-16	6.691649E-18
6.480000E+03	1.797813E-16	6.803983E-18
6.490000E+03	1.784006E-16	6.909667E-18
6.500000E+03	1.768133E-16	7.007604E-18
6.510000E+03	1.750267E-16	7.096663E-18
6.520000E+03	1.730801E-16	7.177024E-18
6.530000E+03	1.709702E-16	7.247163E-18
6.540000E+03	1.687359E-16	7.307384E-18
6.550000E+03	1.663738E-16	7.356296E-18
6.560000E+03	1.639213E-16	7.394418E-18
6.570000E+03	1.613746E-16	7.420578E-18
6.580000E+03	1.587598E-16	7.435103E-18
6.590000E+03	1.561018E-16	7.438461E-18
6.600000E+03	1.533956E-16	7.429879E-18
6.610000E+03	1.506648E-16	7.410087E-18
6.620000E+03	1.479227E-16	7.379481E-18
6.630000E+03	1.451816E-16	7.338560E-18
6.640000E+03	1.424531E-16	7.287921E-18
6.650000E+03	1.397480E-16	7.228237E-18
6.660000E+03	1.370765E-16	7.160247E-18
6.670000E+03	1.344478E-16	7.084737E-18
6.680000E+03	1.318705E-16	7.002526E-18
6.690000E+03	1.293524E-16	6.914453E-18
6.700000E+03	1.269007E-16	6.821363E-18
6.710000E+03	1.245217E-16	6.724092E-18
6.720000E+03	1.222210E-16	6.623459E-18
6.730000E+03	1.200039E-16	6.520257E-18
6.740000E+03	1.178672E-16	6.414840E-18
6.750000E+03	1.158298E-16	6.308728E-18
6.760000E+03	1.138875E-16	6.202180E-18
6.770000E+03	1.120362E-16	6.095429E-18
6.780000E+03	1.102925E-16	5.989810E-18
6.790000E+03	1.086513E-16	5.885447E-18
6.800000E+03	1.071079E-16	5.782441E-18
6.810000E+03	1.056772E-16	5.681937E-18
6.820000E+03	1.043538E-16	5.583936E-18
6.830000E+03	1.031323E-16	5.488418E-18
6.840000E+03	1.020268E-16	5.396362E-18
6.850000E+03	1.010253E-16	5.307333E-18
6.860000E+03	1.001412E-16	5.222218E-18
6.870000E+03	9.936277E-17	5.140541E-18
6.880000E+03	9.870306E-17	5.063118E-18
6.890000E+03	9.815027E-17	4.989452E-18
6.900000E+03	9.771739E-17	4.920311E-18
6.910000E+03	9.739265E-17	4.855195E-18
6.920000E+03	9.718282E-17	4.794544E-18
6.930000E+03	9.709458E-17	4.738780E-18
6.940000E+03	9.711624E-17	4.687428E-18
6.950000E+03	9.725448E-17	4.640922E-18
6.960000E+03	9.751599E-17	4.599687E-18
6.970000E+03	9.788892E-17	4.563274E-18
6.980000E+03	9.837981E-17	4.532110E-18
6.990000E+03	9.898895E-17	4.506324E-18
7.000000E+03	9.971648E-17	4.486030E-18
7.010000E+03	1.005623E-16	4.471322E-18
7.020000E+03	1.015262E-16	4.462266E-18
7.030000E+03	1.026140E-16	4.459177E-18
7.040000E+03	1.038118E-16	4.461473E-18
7.050000E+03	1.051245E-16	4.469376E-18
7.060000E+03	1.065435E-16	4.482485E-18
7.070000E+03	1.080796E-16	4.501196E-18
7.080000E+03	1.097228E-16	4.524998E-18
7.090000E+03	1.114691E-16	4.553605E-18
7.100000E+03	1.133135E-16	4.586682E-18
7.110000E+03	1.152500E-16	4.623844E-18
7.120000E+03	1.172641E-16	4.664359E-18
7.130000E+03	1.193625E-16	4.708350E-18
7.140000E+03	1.215282E-16	4.755005E-18
7.150000E+03	1.237424E-16	4.803461E-18
7.160000E+03	1.260084E-16	4.853737E-18
7.170000E+03	1.282963E-16	4.904574E-18
7.180000E+03	1.305985E-16	4.955601E-18
7.190000E+03	1.329066E-16	5.006416E-18
7.200000E+03	1.351849E-16	5.055610E-18
7.210000E+03	1.374218E-16	5.102693E-18
7.220000E+03	1.395962E-16	5.146824E-18
7.230000E+03	1.416948E-16	5.187470E-18
7.240000E+03	1.436765E-16	5.223077E-18
7.250000E+03	1.455271E-16	5.253094E-18
7.260000E+03	1.472236E-16	5.276652E-18
7.270000E+03	1.487341E-16	5.292571E-18
7.280000E+03	1.500571E-16	5.300757E-18
7.290000E+03	1.511641E-16	5.300158E-18
7.300000E+03	1.520288E-16	5.289813E-18
7.310000E+03	1.526577E-16	5.269909E-18
7.320000E+03	1.530211E-16	5.239387E-18
7.330000E+03	1.531330E-16	5.198707E-18
7.340000E+03	1.529712E-16	5.147129E-18
7.350000E+03	1.525475E-16	5.085108E-18
7.360000E+03	1.518672E-16	5.012940E-18
7.370000E+03	1.509396E-16	4.931110E-18
7.380000E+03	1.497767E-16	4.840288E-18
7.390000E+03	1.483935E-16	4.741330E-18
7.400000E+03	1.468073E-16	4.635265E-18
7.410000E+03	1.450276E-16	4.522987E-18
7.420000E+03	1.430943E-16	4.406441E-18
7.430000E+03	1.410098E-16	4.286509E-18
7.440000E+03	1.388150E-16	4.165345E-18
7.450000E+03	1.365137E-16	4.044060E-18
7.460000E+03	1.341375E-16	3.924668E-18
7.470000E+03	1.317081E-16	3.808935E-18
7.480000E+03	1.292463E-16	3.698630E-18
7.490000E+03	1.267722E-16	3.595480E-18
7.500000E+03	1.242963E-16	3.500892E-18
7.510000E+03	1.218525E-16	3.416808E-18
7.520000E+03	1.194400E-16	3.343977E-18
7.530000E+03	1.170808E-16	3.283408E-18
7.540000E+03	1.147859E-16	3.235242E-18
7.550000E+03	1.125636E-16	3.198861E-18
7.560000E+03	1.104199E-16	3.173060E-18
7.570000E+03	1.083590E-16	3.156360E-18
7.580000E+03	1.063836E-16	3.147254E-18
7.590000E+03	1.044884E-16	3.144129E-18
7.600000E+03	1.026886E-16	3.146176E-18
7.610000E+03	1.009702E-16	3.151939E-18
7.620000E+03	9.933962E-17	3.160791E-18
7.630000E+03	9.779582E-17	3.172080E-18
7.640000E+03	9.633705E-17	3.185307E-18
7.650000E+03	9.495478E-17	3.199893E-18
7.660000E+03	9.365936E-17	3.216000E-18
7.670000E+03	9.243513E-17	3.233004E-18
7.680000E+03	9.128525E-17	3.250973E-18
7.690000E+03	9.020619E-17	3.269787E-18
7.700000E+03	8.919419E-17	3.289337E-18
7.710000E+03	8.824529E-17	3.309516E-18
7.720000E+03	8.734946E-17	3.329985E-18
7.730000E+03	8.651445E-17	3.351077E-18
7.740000E+03	8.572424E-17	3.372212E-18
7.750000E+03	8.498056E-17	3.393489E-18
7.760000E+03	8.427933E-17	3.414776E-18
