#wls	flux	fluxerr
1.600000E+03	9.278211E-17	6.988537E-17
1.640000E+03	9.489477E-17	7.072721E-17
1.680000E+03	9.703349E-17	7.153673E-17
1.720000E+03	9.919569E-17	7.231013E-17
1.760000E+03	1.013786E-16	7.304351E-17
1.800000E+03	1.035791E-16	7.373292E-17
1.840000E+03	1.057939E-16	7.437434E-17
1.880000E+03	1.080013E-16	7.495099E-17
1.920000E+03	1.102339E-16	7.548429E-17
1.960000E+03	1.124697E-16	7.595756E-17
2.000000E+03	1.147046E-16	7.636687E-17
2.040000E+03	1.169538E-16	7.672123E-17
2.080000E+03	1.191741E-16	7.699125E-17
2.120000E+03	1.214002E-16	7.719905E-17
2.160000E+03	1.236077E-16	7.732842E-17
2.200000E+03	1.258124E-16	7.738897E-17
2.240000E+03	1.279683E-16	7.735237E-17
2.280000E+03	1.301329E-16	7.725399E-17
2.320000E+03	1.322600E-16	7.706618E-17
2.360000E+03	1.343443E-16	7.678707E-17
2.400000E+03	1.364244E-16	7.643967E-17
2.440000E+03	1.384305E-16	7.598593E-17
2.480000E+03	1.404237E-16	7.546145E-17
2.520000E+03	1.423556E-16	7.484168E-17
2.560000E+03	1.442665E-16	7.415005E-17
2.600000E+03	1.461077E-16	7.336355E-17
2.640000E+03	1.478975E-16	7.249460E-17
2.680000E+03	1.496325E-16	7.154431E-17
2.720000E+03	1.513093E-16	7.051421E-17
2.760000E+03	1.529247E-16	6.940620E-17
2.800000E+03	1.544759E-16	6.822254E-17
2.840000E+03	1.559831E-16	6.697564E-17
2.880000E+03	1.574213E-16	6.565797E-17
2.920000E+03	1.587883E-16	6.427256E-17
2.960000E+03	1.600822E-16	6.282264E-17
3.000000E+03	1.613016E-16	6.131157E-17
3.010000E+03	1.616103E-16	6.093056E-17
3.020000E+03	1.619114E-16	6.054483E-17
3.030000E+03	1.621820E-16	6.014600E-17
3.040000E+03	1.624678E-16	5.975114E-17
3.050000E+03	1.627687E-16	5.936010E-17
3.060000E+03	1.630391E-16	5.895629E-17
3.070000E+03	1.633019E-16	5.854817E-17
3.080000E+03	1.635796E-16	5.814388E-17
3.090000E+03	1.638270E-16	5.772730E-17
3.100000E+03	1.640893E-16	5.731457E-17
3.110000E+03	1.643438E-16	5.689771E-17
3.120000E+03	1.646132E-16	5.648454E-17
3.130000E+03	1.648522E-16	5.605956E-17
3.140000E+03	1.650835E-16	5.563070E-17
3.150000E+03	1.653296E-16	5.520555E-17
3.160000E+03	1.655678E-16	5.477652E-17
3.170000E+03	1.657983E-16	5.434368E-17
3.180000E+03	1.660210E-16	5.390713E-17
3.190000E+03	1.662359E-16	5.346694E-17
3.200000E+03	1.664430E-16	5.302320E-17
3.210000E+03	1.666647E-16	5.258302E-17
3.220000E+03	1.668563E-16	5.213234E-17
3.230000E+03	1.670623E-16	5.168523E-17
3.240000E+03	1.672606E-16	5.123473E-17
3.250000E+03	1.674512E-16	5.078093E-17
3.260000E+03	1.676561E-16	5.033057E-17
3.270000E+03	1.678310E-16	4.987034E-17
3.280000E+03	1.680203E-16	4.941354E-17
3.290000E+03	1.681798E-16	4.894721E-17
3.300000E+03	1.683536E-16	4.848433E-17
3.310000E+03	1.685197E-16	4.801849E-17
3.320000E+03	1.686781E-16	4.754978E-17
3.330000E+03	1.688507E-16	4.708438E-17
3.340000E+03	1.689937E-16	4.661011E-17
3.350000E+03	1.691509E-16	4.613917E-17
3.360000E+03	1.693004E-16	4.566555E-17
3.370000E+03	1.694206E-16	4.518357E-17
3.380000E+03	1.695550E-16	4.470496E-17
3.390000E+03	1.697035E-16	4.422959E-17
3.400000E+03	1.698228E-16	4.374621E-17
3.410000E+03	1.699562E-16	4.326610E-17
3.420000E+03	1.700608E-16	4.277833E-17
3.430000E+03	1.701794E-16	4.229389E-17
3.440000E+03	1.702907E-16	4.180740E-17
3.450000E+03	1.703948E-16	4.131897E-17
3.460000E+03	1.704916E-16	4.082870E-17
3.470000E+03	1.705814E-16	4.033672E-17
3.480000E+03	1.706853E-16	3.984806E-17
3.490000E+03	1.707822E-16	3.935778E-17
3.500000E+03	1.708511E-16	3.886119E-17
3.510000E+03	1.709344E-16	3.836808E-17
3.520000E+03	1.710108E-16	3.787371E-17
3.530000E+03	1.710808E-16	3.737821E-17
3.540000E+03	1.711650E-16	3.688622E-17
3.550000E+03	1.712220E-16	3.638882E-17
3.560000E+03	1.712936E-16	3.589506E-17
3.570000E+03	1.713383E-16	3.539634E-17
3.580000E+03	1.713978E-16	3.490143E-17
3.590000E+03	1.714513E-16	3.440614E-17
3.600000E+03	1.714992E-16	3.391063E-17
3.610000E+03	1.715416E-16	3.341510E-17
3.620000E+03	1.715787E-16	3.291970E-17
3.630000E+03	1.716310E-16	3.242846E-17
3.640000E+03	1.716580E-16	3.193382E-17
3.650000E+03	1.717004E-16	3.144359E-17
3.660000E+03	1.717383E-16	3.095412E-17
3.670000E+03	1.717718E-16	3.046562E-17
3.680000E+03	1.718013E-16	2.997832E-17
3.690000E+03	1.718268E-16	2.949242E-17
3.700000E+03	1.718487E-16	2.900816E-17
3.710000E+03	1.718673E-16	2.852576E-17
3.720000E+03	1.718829E-16	2.804547E-17
3.730000E+03	1.719154E-16	2.757068E-17
3.740000E+03	1.719453E-16	2.709836E-17
3.750000E+03	1.719533E-16	2.662574E-17
3.760000E+03	1.719790E-16	2.615920E-17
3.770000E+03	1.720031E-16	2.569592E-17
3.780000E+03	1.720259E-16	2.523617E-17
3.790000E+03	1.720477E-16	2.478023E-17
3.800000E+03	1.720688E-16	2.432838E-17
3.810000E+03	1.720897E-16	2.388090E-17
3.820000E+03	1.721299E-16	2.344069E-17
3.830000E+03	1.721512E-16	2.300276E-17
3.840000E+03	1.721734E-16	2.257008E-17
3.850000E+03	1.722157E-16	2.214536E-17
3.860000E+03	1.722405E-16	2.172397E-17
3.870000E+03	1.722861E-16	2.131101E-17
3.880000E+03	1.723339E-16	2.090434E-17
3.890000E+03	1.723842E-16	2.050423E-17
3.900000E+03	1.724187E-16	2.010877E-17
3.910000E+03	1.724753E-16	1.972264E-17
3.920000E+03	1.725356E-16	1.934387E-17
3.930000E+03	1.725998E-16	1.897270E-17
3.940000E+03	1.726685E-16	1.860937E-17
3.950000E+03	1.727418E-16	1.825409E-17
3.960000E+03	1.728387E-16	1.790897E-17
3.970000E+03	1.729226E-16	1.757033E-17
3.980000E+03	1.730122E-16	1.724029E-17
3.990000E+03	1.731079E-16	1.691900E-17
4.000000E+03	1.732101E-16	1.660657E-17
4.010000E+03	1.733373E-16	1.630481E-17
4.020000E+03	1.734532E-16	1.601034E-17
4.030000E+03	1.735766E-16	1.572496E-17
4.040000E+03	1.737257E-16	1.545029E-17
4.050000E+03	1.738646E-16	1.518308E-17
4.060000E+03	1.740118E-16	1.492495E-17
4.070000E+03	1.741854E-16	1.467736E-17
4.080000E+03	1.743498E-16	1.443718E-17
4.090000E+03	1.745410E-16	1.420732E-17
4.100000E+03	1.747236E-16	1.398471E-17
4.110000E+03	1.749156E-16	1.377072E-17
4.120000E+03	1.751349E-16	1.356656E-17
4.130000E+03	1.753462E-16	1.336931E-17
4.140000E+03	1.755674E-16	1.318020E-17
4.150000E+03	1.758163E-16	1.300035E-17
4.160000E+03	1.760576E-16	1.282696E-17
4.170000E+03	1.763090E-16	1.266118E-17
4.180000E+03	1.765705E-16	1.250283E-17
4.190000E+03	1.768598E-16	1.235298E-17
4.200000E+03	1.771415E-16	1.220899E-17
4.210000E+03	1.774332E-16	1.207197E-17
4.220000E+03	1.777347E-16	1.194176E-17
4.230000E+03	1.780459E-16	1.181826E-17
4.240000E+03	1.783665E-16	1.170133E-17
4.250000E+03	1.786963E-16	1.159088E-17
4.260000E+03	1.790350E-16	1.148681E-17
4.270000E+03	1.793822E-16	1.138904E-17
4.280000E+03	1.797201E-16	1.129636E-17
4.290000E+03	1.800832E-16	1.121091E-17
4.300000E+03	1.804537E-16	1.113146E-17
4.310000E+03	1.808137E-16	1.105684E-17
4.320000E+03	1.811975E-16	1.098906E-17
4.330000E+03	1.815700E-16	1.092582E-17
4.340000E+03	1.819481E-16	1.086802E-17
4.350000E+03	1.823313E-16	1.081539E-17
4.360000E+03	1.827192E-16	1.076768E-17
4.370000E+03	1.831114E-16	1.072456E-17
4.380000E+03	1.835075E-16	1.068565E-17
4.390000E+03	1.839072E-16	1.065053E-17
4.400000E+03	1.843102E-16	1.061874E-17
4.410000E+03	1.846988E-16	1.058876E-17
4.420000E+03	1.851074E-16	1.056203E-17
4.430000E+03	1.855010E-16	1.053600E-17
4.440000E+03	1.858968E-16	1.051106E-17
4.450000E+03	1.862943E-16	1.048659E-17
4.460000E+03	1.866934E-16	1.046199E-17
4.470000E+03	1.870936E-16	1.043664E-17
4.480000E+03	1.874945E-16	1.040998E-17
4.490000E+03	1.878957E-16	1.038146E-17
4.500000E+03	1.882795E-16	1.034962E-17
4.510000E+03	1.886625E-16	1.031497E-17
4.520000E+03	1.890442E-16	1.027712E-17
4.530000E+03	1.894239E-16	1.023576E-17
4.540000E+03	1.898007E-16	1.019063E-17
4.550000E+03	1.901739E-16	1.014161E-17
4.560000E+03	1.905426E-16	1.008862E-17
4.570000E+03	1.908886E-16	1.003081E-17
4.580000E+03	1.912281E-16	9.969278E-18
4.590000E+03	1.915601E-16	9.904287E-18
4.600000E+03	1.918834E-16	9.836244E-18
4.610000E+03	1.921969E-16	9.765677E-18
4.620000E+03	1.924995E-16	9.693247E-18
4.630000E+03	1.927728E-16	9.618890E-18
4.640000E+03	1.930328E-16	9.544400E-18
4.650000E+03	1.932784E-16	9.470819E-18
4.660000E+03	1.935084E-16	9.399309E-18
4.670000E+03	1.937218E-16	9.331125E-18
4.680000E+03	1.939004E-16	9.266787E-18
4.690000E+03	1.940775E-16	9.209310E-18
4.700000E+03	1.942181E-16	9.158458E-18
4.710000E+03	1.943386E-16	9.116384E-18
4.720000E+03	1.944384E-16	9.084325E-18
4.730000E+03	1.945001E-16	9.062554E-18
4.740000E+03	1.945575E-16	9.053461E-18
4.750000E+03	1.945765E-16	9.055954E-18
4.760000E+03	1.945742E-16	9.070918E-18
4.770000E+03	1.945340E-16	9.097255E-18
4.780000E+03	1.944901E-16	9.135845E-18
4.790000E+03	1.944094E-16	9.184115E-18
4.800000E+03	1.943262E-16	9.242405E-18
4.810000E+03	1.942077E-16	9.307737E-18
4.820000E+03	1.940551E-16	9.378607E-18
4.830000E+03	1.939024E-16	9.455091E-18
4.840000E+03	1.937175E-16	9.534063E-18
4.850000E+03	1.935178E-16	9.614858E-18
4.860000E+03	1.933043E-16	9.696077E-18
4.870000E+03	1.930778E-16	9.776413E-18
4.880000E+03	1.928228E-16	9.853827E-18
4.890000E+03	1.925728E-16	9.928888E-18
4.900000E+03	1.922956E-16	9.998937E-18
4.910000E+03	1.919920E-16	1.006309E-17
4.920000E+03	1.916948E-16	1.012227E-17
4.930000E+03	1.913720E-16	1.017413E-17
4.940000E+03	1.910560E-16	1.021982E-17
4.950000E+03	1.907147E-16	1.025715E-17
4.960000E+03	1.903483E-16	1.028575E-17
4.970000E+03	1.899885E-16	1.030705E-17
4.980000E+03	1.896034E-16	1.031910E-17
4.990000E+03	1.892084E-16	1.032262E-17
5.000000E+03	1.888032E-16	1.031752E-17
5.010000E+03	1.883873E-16	1.030379E-17
5.020000E+03	1.879445E-16	1.028061E-17
5.030000E+03	1.874899E-16	1.024891E-17
5.040000E+03	1.870227E-16	1.020882E-17
5.050000E+03	1.865423E-16	1.016053E-17
5.060000E+03	1.860325E-16	1.010341E-17
5.070000E+03	1.855079E-16	1.003854E-17
5.080000E+03	1.849677E-16	9.966227E-18
5.090000E+03	1.844109E-16	9.886769E-18
5.100000E+03	1.838367E-16	9.800510E-18
5.110000E+03	1.832290E-16	9.707020E-18
5.120000E+03	1.826020E-16	9.607503E-18
5.130000E+03	1.819549E-16	9.502373E-18
5.140000E+03	1.812865E-16	9.392066E-18
5.150000E+03	1.805811E-16	9.276279E-18
5.160000E+03	1.798674E-16	9.157015E-18
5.170000E+03	1.791148E-16	9.033270E-18
5.180000E+03	1.783227E-16	8.905596E-18
5.190000E+03	1.775192E-16	8.775999E-18
5.200000E+03	1.766745E-16	8.643610E-18
5.210000E+03	1.758023E-16	8.509751E-18
5.220000E+03	1.749018E-16	8.375045E-18
5.230000E+03	1.739722E-16	8.240143E-18
5.240000E+03	1.729990E-16	8.105071E-18
5.250000E+03	1.720097E-16	7.971858E-18
5.260000E+03	1.709759E-16	7.839935E-18
5.270000E+03	1.698978E-16	7.710088E-18
5.280000E+03	1.688026E-16	7.584335E-18
5.290000E+03	1.676629E-16	7.462204E-18
5.300000E+03	1.664926E-16	7.345070E-18
5.310000E+03	1.652918E-16	7.233656E-18
5.320000E+03	1.640610E-16	7.128635E-18
5.330000E+03	1.628006E-16	7.030603E-18
5.340000E+03	1.614982E-16	6.939501E-18
5.350000E+03	1.601677E-16	6.856261E-18
5.360000E+03	1.588099E-16	6.781079E-18
5.370000E+03	1.574131E-16	6.713419E-18
5.380000E+03	1.560035E-16	6.654149E-18
5.390000E+03	1.545571E-16	6.601768E-18
5.400000E+03	1.530876E-16	6.556197E-18
5.410000E+03	1.515963E-16	6.516677E-18
5.420000E+03	1.500843E-16	6.482362E-18
5.430000E+03	1.485413E-16	6.451840E-18
5.440000E+03	1.469809E-16	6.424730E-18
5.450000E+03	1.454047E-16	6.400157E-18
5.460000E+03	1.438145E-16	6.377298E-18
5.470000E+03	1.422122E-16	6.355397E-18
5.480000E+03	1.405887E-16	6.333278E-18
5.490000E+03	1.389574E-16	6.310867E-18
5.500000E+03	1.373207E-16	6.287671E-18
5.510000E+03	1.356808E-16	6.263291E-18
5.520000E+03	1.340401E-16	6.237416E-18
5.530000E+03	1.323906E-16	6.209326E-18
5.540000E+03	1.307560E-16	6.179860E-18
5.550000E+03	1.291178E-16	6.147954E-18
5.560000E+03	1.274893E-16	6.114085E-18
5.570000E+03	1.258629E-16	6.077807E-18
5.580000E+03	1.242614E-16	6.040168E-18
5.590000E+03	1.226674E-16	6.000330E-18
5.600000E+03	1.210935E-16	5.958923E-18
5.610000E+03	1.195422E-16	5.916123E-18
5.620000E+03	1.180159E-16	5.872119E-18
5.630000E+03	1.165169E-16	5.827112E-18
5.640000E+03	1.150385E-16	5.780851E-18
5.650000E+03	1.136011E-16	5.734462E-18
5.660000E+03	1.121889E-16	5.687237E-18
5.670000E+03	1.108130E-16	5.639829E-18
5.680000E+03	1.094752E-16	5.592427E-18
5.690000E+03	1.081688E-16	5.544767E-18
5.700000E+03	1.069126E-16	5.497892E-18
5.710000E+03	1.056912E-16	5.451077E-18
5.720000E+03	1.045144E-16	5.404893E-18
5.730000E+03	1.033835E-16	5.359457E-18
5.740000E+03	1.022996E-16	5.314870E-18
5.750000E+03	1.012636E-16	5.271219E-18
5.760000E+03	1.002684E-16	5.228163E-18
5.770000E+03	9.933072E-17	5.186587E-18
5.780000E+03	9.843532E-17	5.145711E-18
5.790000E+03	9.759062E-17	5.105978E-18
5.800000E+03	9.679705E-17	5.067405E-18
5.810000E+03	9.605495E-17	5.029996E-18
5.820000E+03	9.536463E-17	4.993748E-18
5.830000E+03	9.471890E-17	4.958252E-18
5.840000E+03	9.412558E-17	4.923883E-18
5.850000E+03	9.359232E-17	4.890993E-18
5.860000E+03	9.310457E-17	4.858769E-18
5.870000E+03	9.267007E-17	4.827555E-18
5.880000E+03	9.228918E-17	4.797302E-18
5.890000E+03	9.195507E-17	4.767579E-18
5.900000E+03	9.168276E-17	4.739084E-18
5.910000E+03	9.145833E-17	4.711009E-18
5.920000E+03	9.129689E-17	4.684041E-18
5.930000E+03	9.118478E-17	4.657380E-18
5.940000E+03	9.113008E-17	4.631339E-18
5.950000E+03	9.113372E-17	4.605861E-18
5.960000E+03	9.119677E-17	4.580894E-18
5.970000E+03	9.131316E-17	4.556029E-18
5.980000E+03	9.149851E-17	4.531941E-18
5.990000E+03	9.173972E-17	4.507874E-18
6.000000E+03	9.205262E-17	4.484510E-18
6.010000E+03	9.242413E-17	4.461117E-18
6.020000E+03	9.286295E-17	4.438037E-18
6.030000E+03	9.337057E-17	4.415272E-18
6.040000E+03	9.394844E-17	4.392840E-18
6.050000E+03	9.459801E-17	4.370778E-18
6.060000E+03	9.531312E-17	4.348805E-18
6.070000E+03	9.611003E-17	4.327701E-18
6.080000E+03	9.698241E-17	4.307249E-18
6.090000E+03	9.792345E-17	4.287281E-18
6.100000E+03	9.894146E-17	4.268359E-18
6.110000E+03	1.000448E-16	4.251099E-18
6.120000E+03	1.012177E-16	4.235175E-18
6.130000E+03	1.024677E-16	4.221346E-18
6.140000E+03	1.037941E-16	4.210117E-18
6.150000E+03	1.051872E-16	4.201747E-18
6.160000E+03	1.066615E-16	4.197584E-18
6.170000E+03	1.082063E-16	4.198063E-18
6.180000E+03	1.098095E-16	4.203697E-18
6.190000E+03	1.114843E-16	4.216055E-18
6.200000E+03	1.132081E-16	4.235403E-18
6.210000E+03	1.149927E-16	4.263329E-18
6.220000E+03	1.168132E-16	4.300009E-18
6.230000E+03	1.186706E-16	4.346496E-18
6.240000E+03	1.205561E-16	4.403297E-18
6.250000E+03	1.224598E-16	4.470648E-18
6.260000E+03	1.243707E-16	4.548481E-18
6.270000E+03	1.262771E-16	4.636434E-18
6.280000E+03	1.281665E-16	4.733879E-18
6.290000E+03	1.300152E-16	4.839581E-18
6.300000E+03	1.318300E-16	4.953268E-18
6.310000E+03	1.335863E-16	5.073392E-18
6.320000E+03	1.352589E-16	5.198272E-18
6.330000E+03	1.368550E-16	5.327395E-18
6.340000E+03	1.383386E-16	5.458569E-18
6.350000E+03	1.397069E-16	5.590850E-18
6.360000E+03	1.409580E-16	5.723366E-18
6.370000E+03	1.420577E-16	5.853930E-18
6.380000E+03	1.430061E-16	5.981765E-18
6.390000E+03	1.437938E-16	6.105724E-18
6.400000E+03	1.444126E-16	6.224746E-18
6.410000E+03	1.448563E-16	6.337865E-18
6.420000E+03	1.451202E-16	6.444212E-18
6.430000E+03	1.452014E-16	6.543025E-18
6.440000E+03	1.450874E-16	6.633115E-18
6.450000E+03	1.448022E-16	6.714984E-18
6.460000E+03	1.443367E-16	6.787664E-18
6.470000E+03	1.436952E-16	6.850812E-18
6.480000E+03	1.428719E-16	6.903635E-18
6.490000E+03	1.418971E-16	6.947091E-18
6.500000E+03	1.407563E-16	6.980021E-18
6.510000E+03	1.394819E-16	7.003578E-18
6.520000E+03	1.380618E-16	7.016762E-18
6.530000E+03	1.365185E-16	7.020330E-18
6.540000E+03	1.348745E-16	7.015112E-18
6.550000E+03	1.331204E-16	7.000312E-18
6.560000E+03	1.312794E-16	6.976882E-18
6.570000E+03	1.293640E-16	6.945263E-18
6.580000E+03	1.273865E-16	6.905936E-18
6.590000E+03	1.253591E-16	6.859423E-18
6.600000E+03	1.232938E-16	6.806275E-18
6.610000E+03	1.212021E-16	6.747068E-18
6.620000E+03	1.190951E-16	6.682395E-18
6.630000E+03	1.169832E-16	6.612864E-18
6.640000E+03	1.148764E-16	6.539084E-18
6.650000E+03	1.127842E-16	6.461667E-18
6.660000E+03	1.107151E-16	6.381219E-18
6.670000E+03	1.086773E-16	6.298337E-18
6.680000E+03	1.066697E-16	6.213099E-18
6.690000E+03	1.047163E-16	6.127079E-18
6.700000E+03	1.028146E-16	6.040310E-18
6.710000E+03	1.009620E-16	5.952823E-18
6.720000E+03	9.917994E-17	5.866077E-18
6.730000E+03	9.745668E-17	5.779575E-18
6.740000E+03	9.581208E-17	5.694687E-18
6.750000E+03	9.423393E-17	5.610880E-18
6.760000E+03	9.274066E-17	5.529437E-18
6.770000E+03	9.131972E-17	5.449788E-18
6.780000E+03	8.998835E-17	5.373129E-18
6.790000E+03	8.873376E-17	5.298855E-18
6.800000E+03	8.756504E-17	5.227656E-18
6.810000E+03	8.649067E-17	5.160173E-18
6.820000E+03	8.549769E-17	5.095754E-18
6.830000E+03	8.459428E-17	5.034997E-18
6.840000E+03	8.378133E-17	4.978052E-18
6.850000E+03	8.306637E-17	4.925452E-18
6.860000E+03	8.243647E-17	4.876502E-18
6.870000E+03	8.189903E-17	4.831704E-18
6.880000E+03	8.145457E-17	4.791136E-18
6.890000E+03	8.110354E-17	4.754866E-18
6.900000E+03	8.084633E-17	4.722946E-18
6.910000E+03	8.068331E-17	4.695416E-18
6.920000E+03	8.061479E-17	4.672305E-18
6.930000E+03	8.064103E-17	4.653630E-18
6.940000E+03	8.075563E-17	4.639014E-18
6.950000E+03	8.097197E-17	4.629212E-18
6.960000E+03	8.128350E-17	4.623823E-18
6.970000E+03	8.169020E-17	4.622814E-18
6.980000E+03	8.218516E-17	4.625759E-18
6.990000E+03	8.278153E-17	4.633354E-18
7.000000E+03	8.347211E-17	4.645139E-18
7.010000E+03	8.424925E-17	4.660634E-18
7.020000E+03	8.512574E-17	4.680485E-18
7.030000E+03	8.608632E-17	4.703782E-18
7.040000E+03	8.714341E-17	4.731133E-18
7.050000E+03	8.828062E-17	4.761571E-18
7.060000E+03	8.950982E-17	4.795658E-18
7.070000E+03	9.081320E-17	4.832360E-18
7.080000E+03	9.219428E-17	4.871790E-18
7.090000E+03	9.365639E-17	4.914044E-18
7.100000E+03	9.517901E-17	4.957969E-18
7.110000E+03	9.676382E-17	5.003592E-18
7.120000E+03	9.840406E-17	5.050503E-18
7.130000E+03	1.001004E-16	5.098681E-18
7.140000E+03	1.018278E-16	5.146812E-18
7.150000E+03	1.035849E-16	5.194809E-18
7.160000E+03	1.053614E-16	5.242141E-18
7.170000E+03	1.071460E-16	5.288252E-18
7.180000E+03	1.089265E-16	5.332565E-18
7.190000E+03	1.106807E-16	5.374039E-18
7.200000E+03	1.124135E-16	5.412961E-18
7.210000E+03	1.141015E-16	5.448279E-18
7.220000E+03	1.157301E-16	5.479385E-18
7.230000E+03	1.172750E-16	5.505224E-18
7.240000E+03	1.187408E-16	5.526133E-18
7.250000E+03	1.201033E-16	5.541105E-18
7.260000E+03	1.213385E-16	5.549161E-18
7.270000E+03	1.224432E-16	5.550299E-18
7.280000E+03	1.234155E-16	5.544579E-18
7.290000E+03	1.242241E-16	5.530733E-18
7.300000E+03	1.248804E-16	5.509434E-18
7.310000E+03	1.253560E-16	5.479589E-18
7.320000E+03	1.256556E-16	5.441597E-18
7.330000E+03	1.257757E-16	5.395498E-18
7.340000E+03	1.257149E-16	5.341451E-18
7.350000E+03	1.254737E-16	5.279732E-18
7.360000E+03	1.250551E-16	5.210737E-18
7.370000E+03	1.244639E-16	5.134989E-18
7.380000E+03	1.237067E-16	5.053126E-18
7.390000E+03	1.227921E-16	4.965903E-18
7.400000E+03	1.217196E-16	4.873770E-18
7.410000E+03	1.205214E-16	4.778516E-18
7.420000E+03	1.191893E-16	4.680361E-18
7.430000E+03	1.177566E-16	4.581211E-18
7.440000E+03	1.162170E-16	4.481428E-18
7.450000E+03	1.146044E-16	4.382951E-18
7.460000E+03	1.129132E-16	4.286197E-18
7.470000E+03	1.111671E-16	4.192683E-18
7.480000E+03	1.093796E-16	4.103486E-18
7.490000E+03	1.075730E-16	4.019935E-18
7.500000E+03	1.057411E-16	3.942198E-18
7.510000E+03	1.039045E-16	3.871329E-18
7.520000E+03	1.020650E-16	3.807516E-18
7.530000E+03	1.002498E-16	3.751713E-18
7.540000E+03	9.845814E-17	3.703646E-18
7.550000E+03	9.669725E-17	3.663132E-18
7.560000E+03	9.496503E-17	3.629465E-18
7.570000E+03	9.328290E-17	3.602723E-18
7.580000E+03	9.163881E-17	3.581643E-18
7.590000E+03	9.004416E-17	3.565840E-18
7.600000E+03	8.850909E-17	3.554912E-18
7.610000E+03	8.702008E-17	3.547560E-18
7.620000E+03	8.558614E-17	3.543440E-18
7.630000E+03	8.420803E-17	3.541956E-18
7.640000E+03	8.288601E-17	3.542573E-18
7.650000E+03	8.161997E-17	3.544821E-18
7.660000E+03	8.040249E-17	3.547986E-18
7.670000E+03	7.924681E-17	3.552334E-18
7.680000E+03	7.814486E-17	3.557268E-18
7.690000E+03	7.708870E-17	3.562238E-18
7.700000E+03	7.608377E-17	3.567356E-18
7.710000E+03	7.513506E-17	3.572776E-18
7.720000E+03	7.422773E-17	3.577752E-18
7.730000E+03	7.336665E-17	3.582497E-18
7.740000E+03	7.254999E-17	3.586938E-18
7.750000E+03	7.177590E-17	3.591019E-18
7.760000E+03	7.104251E-17	3.594702E-18
