#wls	flux	fluxerr
1.600000E+03	6.932385E-17	5.424135E-17
1.640000E+03	7.092350E-17	5.499970E-17
1.680000E+03	7.254558E-17	5.574092E-17
1.720000E+03	7.420202E-17	5.647269E-17
1.760000E+03	7.587930E-17	5.718311E-17
1.800000E+03	7.758971E-17	5.787994E-17
1.840000E+03	7.933279E-17	5.856108E-17
1.880000E+03	8.107990E-17	5.920390E-17
1.920000E+03	8.287173E-17	5.983666E-17
1.960000E+03	8.467921E-17	6.043653E-17
2.000000E+03	8.651560E-17	6.101145E-17
2.040000E+03	8.836490E-17	6.154853E-17
2.080000E+03	9.024075E-17	6.205581E-17
2.120000E+03	9.212645E-17	6.252022E-17
2.160000E+03	9.403608E-17	6.294991E-17
2.200000E+03	9.596849E-17	6.334245E-17
2.240000E+03	9.792250E-17	6.369540E-17
2.280000E+03	9.988003E-17	6.399557E-17
2.320000E+03	1.018560E-16	6.425127E-17
2.360000E+03	1.038492E-16	6.446012E-17
2.400000E+03	1.058404E-16	6.460899E-17
2.440000E+03	1.078453E-16	6.470635E-17
2.480000E+03	1.098625E-16	6.474994E-17
2.520000E+03	1.118905E-16	6.473752E-17
2.560000E+03	1.139277E-16	6.466691E-17
2.600000E+03	1.159537E-16	6.452544E-17
2.640000E+03	1.179852E-16	6.432174E-17
2.680000E+03	1.200208E-16	6.405382E-17
2.720000E+03	1.220588E-16	6.371979E-17
2.760000E+03	1.240976E-16	6.331779E-17
2.800000E+03	1.261155E-16	6.283603E-17
2.840000E+03	1.281508E-16	6.229306E-17
2.880000E+03	1.301615E-16	6.166736E-17
2.920000E+03	1.321661E-16	6.096754E-17
2.960000E+03	1.341629E-16	6.019227E-17
3.000000E+03	1.361504E-16	5.934035E-17
3.010000E+03	1.366316E-16	5.910924E-17
3.020000E+03	1.371321E-16	5.888189E-17
3.030000E+03	1.376305E-16	5.864907E-17
3.040000E+03	1.381054E-16	5.840171E-17
3.050000E+03	1.385996E-16	5.815796E-17
3.060000E+03	1.390916E-16	5.790872E-17
3.070000E+03	1.395814E-16	5.765400E-17
3.080000E+03	1.400691E-16	5.739378E-17
3.090000E+03	1.405545E-16	5.712807E-17
3.100000E+03	1.410376E-16	5.685688E-17
3.110000E+03	1.415184E-16	5.658020E-17
3.120000E+03	1.419968E-16	5.629805E-17
3.130000E+03	1.424947E-16	5.601899E-17
3.140000E+03	1.429684E-16	5.572584E-17
3.150000E+03	1.434397E-16	5.542724E-17
3.160000E+03	1.439086E-16	5.512319E-17
3.170000E+03	1.443968E-16	5.482205E-17
3.180000E+03	1.448607E-16	5.450710E-17
3.190000E+03	1.453440E-16	5.419496E-17
3.200000E+03	1.458028E-16	5.386914E-17
3.210000E+03	1.462810E-16	5.354606E-17
3.220000E+03	1.467567E-16	5.321751E-17
3.230000E+03	1.472076E-16	5.287553E-17
3.240000E+03	1.476780E-16	5.253616E-17
3.250000E+03	1.481458E-16	5.219138E-17
3.260000E+03	1.486109E-16	5.184123E-17
3.270000E+03	1.490733E-16	5.148572E-17
3.280000E+03	1.495330E-16	5.112490E-17
3.290000E+03	1.499899E-16	5.075878E-17
3.300000E+03	1.504441E-16	5.038742E-17
3.310000E+03	1.508954E-16	5.001084E-17
3.320000E+03	1.513439E-16	4.962909E-17
3.330000E+03	1.517896E-16	4.924221E-17
3.340000E+03	1.522324E-16	4.885023E-17
3.350000E+03	1.526723E-16	4.845322E-17
3.360000E+03	1.531319E-16	4.805833E-17
3.370000E+03	1.535660E-16	4.765133E-17
3.380000E+03	1.539971E-16	4.723944E-17
3.390000E+03	1.544480E-16	4.682963E-17
3.400000E+03	1.548732E-16	4.640810E-17
3.410000E+03	1.553182E-16	4.598862E-17
3.420000E+03	1.557374E-16	4.555769E-17
3.430000E+03	1.561764E-16	4.512882E-17
3.440000E+03	1.566124E-16	4.469532E-17
3.450000E+03	1.570224E-16	4.425082E-17
3.460000E+03	1.574523E-16	4.380839E-17
3.470000E+03	1.578792E-16	4.336157E-17
3.480000E+03	1.582800E-16	4.290424E-17
3.490000E+03	1.587007E-16	4.244902E-17
3.500000E+03	1.591183E-16	4.198970E-17
3.510000E+03	1.595328E-16	4.152639E-17
3.520000E+03	1.599442E-16	4.105919E-17
3.530000E+03	1.603525E-16	4.058821E-17
3.540000E+03	1.607577E-16	4.011357E-17
3.550000E+03	1.611597E-16	3.963539E-17
3.560000E+03	1.615586E-16	3.915380E-17
3.570000E+03	1.619543E-16	3.866892E-17
3.580000E+03	1.623469E-16	3.818090E-17
3.590000E+03	1.627363E-16	3.768988E-17
3.600000E+03	1.631226E-16	3.719599E-17
3.610000E+03	1.635289E-16	3.670463E-17
3.620000E+03	1.639089E-16	3.620542E-17
3.630000E+03	1.642857E-16	3.570382E-17
3.640000E+03	1.646593E-16	3.520003E-17
3.650000E+03	1.650530E-16	3.469910E-17
3.660000E+03	1.654203E-16	3.419135E-17
3.670000E+03	1.657844E-16	3.368194E-17
3.680000E+03	1.661687E-16	3.317575E-17
3.690000E+03	1.665264E-16	3.266356E-17
3.700000E+03	1.669045E-16	3.215485E-17
3.710000E+03	1.672559E-16	3.164073E-17
3.720000E+03	1.676277E-16	3.113038E-17
3.730000E+03	1.679729E-16	3.061526E-17
3.740000E+03	1.683384E-16	3.010422E-17
3.750000E+03	1.686774E-16	2.958907E-17
3.760000E+03	1.690367E-16	2.907836E-17
3.770000E+03	1.693695E-16	2.856422E-17
3.780000E+03	1.697227E-16	2.805493E-17
3.790000E+03	1.700493E-16	2.754292E-17
3.800000E+03	1.703965E-16	2.703618E-17
3.810000E+03	1.707407E-16	2.653115E-17
3.820000E+03	1.710584E-16	2.602454E-17
3.830000E+03	1.713967E-16	2.552392E-17
3.840000E+03	1.717322E-16	2.502595E-17
3.850000E+03	1.720413E-16	2.452763E-17
3.860000E+03	1.723712E-16	2.403608E-17
3.870000E+03	1.726984E-16	2.354822E-17
3.880000E+03	1.729994E-16	2.306126E-17
3.890000E+03	1.733215E-16	2.258192E-17
3.900000E+03	1.736410E-16	2.210734E-17
3.910000E+03	1.739347E-16	2.163495E-17
3.920000E+03	1.742496E-16	2.117106E-17
3.930000E+03	1.745625E-16	2.071301E-17
3.940000E+03	1.748497E-16	2.025844E-17
3.950000E+03	1.751587E-16	1.981321E-17
3.960000E+03	1.754661E-16	1.937488E-17
3.970000E+03	1.757719E-16	1.894376E-17
3.980000E+03	1.760527E-16	1.851767E-17
3.990000E+03	1.763560E-16	1.810194E-17
4.000000E+03	1.766584E-16	1.769429E-17
4.010000E+03	1.769365E-16	1.729263E-17
4.020000E+03	1.772377E-16	1.690185E-17
4.030000E+03	1.775386E-16	1.651976E-17
4.040000E+03	1.778159E-16	1.614435E-17
4.050000E+03	1.781171E-16	1.578004E-17
4.060000E+03	1.784187E-16	1.542472E-17
4.070000E+03	1.786973E-16	1.507638E-17
4.080000E+03	1.790006E-16	1.473904E-17
4.090000E+03	1.792813E-16	1.440871E-17
4.100000E+03	1.795871E-16	1.408911E-17
4.110000E+03	1.798944E-16	1.377817E-17
4.120000E+03	1.801798E-16	1.347397E-17
4.130000E+03	1.804906E-16	1.317990E-17
4.140000E+03	1.807798E-16	1.289227E-17
4.150000E+03	1.810947E-16	1.261431E-17
4.160000E+03	1.813879E-16	1.234248E-17
4.170000E+03	1.817067E-16	1.207987E-17
4.180000E+03	1.820038E-16	1.182316E-17
4.190000E+03	1.823026E-16	1.157383E-17
4.200000E+03	1.826266E-16	1.133330E-17
4.210000E+03	1.829281E-16	1.109859E-17
4.220000E+03	1.832305E-16	1.087127E-17
4.230000E+03	1.835571E-16	1.065286E-17
4.240000E+03	1.838598E-16	1.044082E-17
4.250000E+03	1.841619E-16	1.023686E-17
4.260000E+03	1.844863E-16	1.004269E-17
4.270000E+03	1.847851E-16	9.856218E-18
4.280000E+03	1.850809E-16	9.679352E-18
4.290000E+03	1.853731E-16	9.512763E-18
4.300000E+03	1.856608E-16	9.357178E-18
4.310000E+03	1.859429E-16	9.213358E-18
4.320000E+03	1.862187E-16	9.082060E-18
4.330000E+03	1.864870E-16	8.963995E-18
4.340000E+03	1.867472E-16	8.859782E-18
4.350000E+03	1.869982E-16	8.769891E-18
4.360000E+03	1.872393E-16	8.694590E-18
4.370000E+03	1.874698E-16	8.633899E-18
4.380000E+03	1.876653E-16	8.586464E-18
4.390000E+03	1.878728E-16	8.553887E-18
4.400000E+03	1.880683E-16	8.534200E-18
4.410000E+03	1.882276E-16	8.525178E-18
4.420000E+03	1.883982E-16	8.527590E-18
4.430000E+03	1.885325E-16	8.537736E-18
4.440000E+03	1.886779E-16	8.556098E-18
4.450000E+03	1.887871E-16	8.578824E-18
4.460000E+03	1.889076E-16	8.606360E-18
4.470000E+03	1.889923E-16	8.634915E-18
4.480000E+03	1.890648E-16	8.664015E-18
4.490000E+03	1.891490E-16	8.693324E-18
4.500000E+03	1.891979E-16	8.719404E-18
4.510000E+03	1.892352E-16	8.742224E-18
4.520000E+03	1.892609E-16	8.760842E-18
4.530000E+03	1.892754E-16	8.774490E-18
4.540000E+03	1.892787E-16	8.782578E-18
4.550000E+03	1.892709E-16	8.784691E-18
4.560000E+03	1.892521E-16	8.780588E-18
4.570000E+03	1.892226E-16	8.770199E-18
4.580000E+03	1.891591E-16	8.752543E-18
4.590000E+03	1.891085E-16	8.730043E-18
4.600000E+03	1.890475E-16	8.702034E-18
4.610000E+03	1.889532E-16	8.668025E-18
4.620000E+03	1.888723E-16	8.630864E-18
4.630000E+03	1.887585E-16	8.589282E-18
4.640000E+03	1.886586E-16	8.546364E-18
4.650000E+03	1.885264E-16	8.501093E-18
4.660000E+03	1.883856E-16	8.455694E-18
4.670000E+03	1.882363E-16	8.411398E-18
4.680000E+03	1.881018E-16	8.370495E-18
4.690000E+03	1.879367E-16	8.332204E-18
4.700000E+03	1.877641E-16	8.298776E-18
4.710000E+03	1.875845E-16	8.271351E-18
4.720000E+03	1.873755E-16	8.249937E-18
4.730000E+03	1.871830E-16	8.237373E-18
4.740000E+03	1.869844E-16	8.233272E-18
4.750000E+03	1.867802E-16	8.238011E-18
4.760000E+03	1.865481E-16	8.250703E-18
4.770000E+03	1.863335E-16	8.273179E-18
4.780000E+03	1.860916E-16	8.303030E-18
4.790000E+03	1.858674E-16	8.341605E-18
4.800000E+03	1.856163E-16	8.386056E-18
4.810000E+03	1.853608E-16	8.436386E-18
4.820000E+03	1.851009E-16	8.491488E-18
4.830000E+03	1.848365E-16	8.550184E-18
4.840000E+03	1.845676E-16	8.611271E-18
4.850000E+03	1.842939E-16	8.673549E-18
4.860000E+03	1.840152E-16	8.735850E-18
4.870000E+03	1.837310E-16	8.797059E-18
4.880000E+03	1.834410E-16	8.856126E-18
4.890000E+03	1.831229E-16	8.911019E-18
4.900000E+03	1.828196E-16	8.962971E-18
4.910000E+03	1.824869E-16	9.009050E-18
4.920000E+03	1.821675E-16	9.050679E-18
4.930000E+03	1.818172E-16	9.085078E-18
4.940000E+03	1.814568E-16	9.112765E-18
4.950000E+03	1.811067E-16	9.134345E-18
4.960000E+03	1.807229E-16	9.147242E-18
4.970000E+03	1.803256E-16	9.152195E-18
4.980000E+03	1.799138E-16	9.148919E-18
4.990000E+03	1.794861E-16	9.137184E-18
5.000000E+03	1.790201E-16	9.115738E-18
5.010000E+03	1.785567E-16	9.086607E-18
5.020000E+03	1.780735E-16	9.048626E-18
5.030000E+03	1.775480E-16	9.000692E-18
5.040000E+03	1.770209E-16	8.944927E-18
5.050000E+03	1.764489E-16	8.879254E-18
5.060000E+03	1.758723E-16	8.805837E-18
5.070000E+03	1.752484E-16	8.722700E-18
5.080000E+03	1.745965E-16	8.631022E-18
5.090000E+03	1.739155E-16	8.530971E-18
5.100000E+03	1.732041E-16	8.422742E-18
5.110000E+03	1.724612E-16	8.306561E-18
5.120000E+03	1.716859E-16	8.182682E-18
5.130000E+03	1.708770E-16	8.051392E-18
5.140000E+03	1.700139E-16	7.912082E-18
5.150000E+03	1.691358E-16	7.766974E-18
5.160000E+03	1.682220E-16	7.615515E-18
5.170000E+03	1.672526E-16	7.457272E-18
5.180000E+03	1.662665E-16	7.294487E-18
5.190000E+03	1.652245E-16	7.125984E-18
5.200000E+03	1.641464E-16	6.953246E-18
5.210000E+03	1.630325E-16	6.776960E-18
5.220000E+03	1.618831E-16	6.597907E-18
5.230000E+03	1.606992E-16	6.416969E-18
5.240000E+03	1.594817E-16	6.235141E-18
5.250000E+03	1.582317E-16	6.053548E-18
5.260000E+03	1.569508E-16	5.873451E-18
5.270000E+03	1.556407E-16	5.696255E-18
5.280000E+03	1.542854E-16	5.522869E-18
5.290000E+03	1.529229E-16	5.356276E-18
5.300000E+03	1.515201E-16	5.197008E-18
5.310000E+03	1.501145E-16	5.048156E-18
5.320000E+03	1.486738E-16	4.910413E-18
5.330000E+03	1.472182E-16	4.786191E-18
5.340000E+03	1.457502E-16	4.677124E-18
5.350000E+03	1.442889E-16	4.585076E-18
5.360000E+03	1.428030E-16	4.509882E-18
5.370000E+03	1.413114E-16	4.452443E-18
5.380000E+03	1.397997E-16	4.411987E-18
5.390000E+03	1.383016E-16	4.388650E-18
5.400000E+03	1.368019E-16	4.380485E-18
5.410000E+03	1.353015E-16	4.385645E-18
5.420000E+03	1.337856E-16	4.401520E-18
5.430000E+03	1.322857E-16	4.426915E-18
5.440000E+03	1.307719E-16	4.458629E-18
5.450000E+03	1.292601E-16	4.495102E-18
5.460000E+03	1.277657E-16	4.534974E-18
5.470000E+03	1.262599E-16	4.575547E-18
5.480000E+03	1.247585E-16	4.615911E-18
5.490000E+03	1.232625E-16	4.654874E-18
5.500000E+03	1.217729E-16	4.691466E-18
5.510000E+03	1.202911E-16	4.724923E-18
5.520000E+03	1.188182E-16	4.754662E-18
5.530000E+03	1.173557E-16	4.780263E-18
5.540000E+03	1.159051E-16	4.801446E-18
5.550000E+03	1.144547E-16	4.817498E-18
5.560000E+03	1.130326E-16	4.829464E-18
5.570000E+03	1.116143E-16	4.836264E-18
5.580000E+03	1.102270E-16	4.839102E-18
5.590000E+03	1.088471E-16	4.837024E-18
5.600000E+03	1.074887E-16	4.830784E-18
5.610000E+03	1.061656E-16	4.821167E-18
5.620000E+03	1.048548E-16	4.807332E-18
5.630000E+03	1.035701E-16	4.790111E-18
5.640000E+03	1.023127E-16	4.769798E-18
5.650000E+03	1.010841E-16	4.746695E-18
5.660000E+03	9.988528E-17	4.721103E-18
5.670000E+03	9.871751E-17	4.693321E-18
5.680000E+03	9.758177E-17	4.663643E-18
5.690000E+03	9.646800E-17	4.631822E-18
5.700000E+03	9.539921E-17	4.599192E-18
5.710000E+03	9.436500E-17	4.565473E-18
5.720000E+03	9.335539E-17	4.530387E-18
5.730000E+03	9.239239E-17	4.495188E-18
5.740000E+03	9.145528E-17	4.459044E-18
5.750000E+03	9.055514E-17	4.422648E-18
5.760000E+03	8.970253E-17	4.386651E-18
5.770000E+03	8.887716E-17	4.350178E-18
5.780000E+03	8.808962E-17	4.313839E-18
5.790000E+03	8.734008E-17	4.277717E-18
5.800000E+03	8.662872E-17	4.241869E-18
5.810000E+03	8.595570E-17	4.206334E-18
5.820000E+03	8.532119E-17	4.171127E-18
5.830000E+03	8.472537E-17	4.136243E-18
5.840000E+03	8.416846E-17	4.101657E-18
5.850000E+03	8.365071E-17	4.067327E-18
5.860000E+03	8.317247E-17	4.033193E-18
5.870000E+03	8.272469E-17	3.998728E-18
5.880000E+03	8.232676E-17	3.964758E-18
5.890000E+03	8.196043E-17	3.930277E-18
5.900000E+03	8.164509E-17	3.896075E-18
5.910000E+03	8.136287E-17	3.861143E-18
5.920000E+03	8.113323E-17	3.826238E-18
5.930000E+03	8.093863E-17	3.790351E-18
5.940000E+03	8.078947E-17	3.753785E-18
5.950000E+03	8.069613E-17	3.716820E-18
5.960000E+03	8.064157E-17	3.678460E-18
5.970000E+03	8.063643E-17	3.638982E-18
5.980000E+03	8.068223E-17	3.598237E-18
5.990000E+03	8.078063E-17	3.556072E-18
6.000000E+03	8.093334E-17	3.512336E-18
6.010000E+03	8.114218E-17	3.466880E-18
6.020000E+03	8.140903E-17	3.419558E-18
6.030000E+03	8.173581E-17	3.370235E-18
6.040000E+03	8.212452E-17	3.318785E-18
6.050000E+03	8.257717E-17	3.265101E-18
6.060000E+03	8.308631E-17	3.208737E-18
6.070000E+03	8.367285E-17	3.150383E-18
6.080000E+03	8.432936E-17	3.089670E-18
6.090000E+03	8.504811E-17	3.026320E-18
6.100000E+03	8.585025E-17	2.961182E-18
6.110000E+03	8.671805E-17	2.893837E-18
6.120000E+03	8.767275E-17	2.825358E-18
6.130000E+03	8.869587E-17	2.755679E-18
6.140000E+03	8.979842E-17	2.685938E-18
6.150000E+03	9.099157E-17	2.617514E-18
6.160000E+03	9.225515E-17	2.551195E-18
6.170000E+03	9.359932E-17	2.489044E-18
6.180000E+03	9.503428E-17	2.433467E-18
6.190000E+03	9.653718E-17	2.386400E-18
6.200000E+03	9.811652E-17	2.350912E-18
6.210000E+03	9.976912E-17	2.329926E-18
6.220000E+03	1.014906E-16	2.326265E-18
6.230000E+03	1.032754E-16	2.342352E-18
6.240000E+03	1.051163E-16	2.379895E-18
6.250000E+03	1.070045E-16	2.439644E-18
6.260000E+03	1.089298E-16	2.521308E-18
6.270000E+03	1.108800E-16	2.623631E-18
6.280000E+03	1.128288E-16	2.744281E-18
6.290000E+03	1.147869E-16	2.881345E-18
6.300000E+03	1.167256E-16	3.031734E-18
6.310000E+03	1.186281E-16	3.192584E-18
6.320000E+03	1.204632E-16	3.360704E-18
6.330000E+03	1.222403E-16	3.534181E-18
6.340000E+03	1.239283E-16	3.710176E-18
6.350000E+03	1.254955E-16	3.885981E-18
6.360000E+03	1.269537E-16	4.060415E-18
6.370000E+03	1.282588E-16	4.230739E-18
6.380000E+03	1.294255E-16	4.396279E-18
6.390000E+03	1.304121E-16	4.554632E-18
6.400000E+03	1.312375E-16	4.705605E-18
6.410000E+03	1.318633E-16	4.847111E-18
6.420000E+03	1.322981E-16	4.978830E-18
6.430000E+03	1.325529E-16	5.100679E-18
6.440000E+03	1.325958E-16	5.211002E-18
6.450000E+03	1.324424E-16	5.310024E-18
6.460000E+03	1.320955E-16	5.397545E-18
6.470000E+03	1.315748E-16	5.474123E-18
6.480000E+03	1.308568E-16	5.538566E-18
6.490000E+03	1.299650E-16	5.591650E-18
6.500000E+03	1.289092E-16	5.633631E-18
6.510000E+03	1.277002E-16	5.664841E-18
6.520000E+03	1.263503E-16	5.685686E-18
6.530000E+03	1.248719E-16	5.696624E-18
6.540000E+03	1.232785E-16	5.698164E-18
6.550000E+03	1.215834E-16	5.690847E-18
6.560000E+03	1.198004E-16	5.675243E-18
6.570000E+03	1.179429E-16	5.651945E-18
6.580000E+03	1.160243E-16	5.621555E-18
6.590000E+03	1.140576E-16	5.584688E-18
6.600000E+03	1.120552E-16	5.541960E-18
6.610000E+03	1.100164E-16	5.493356E-18
6.620000E+03	1.079782E-16	5.440756E-18
6.630000E+03	1.059384E-16	5.384126E-18
6.640000E+03	1.039068E-16	5.324059E-18
6.650000E+03	1.018810E-16	5.260528E-18
6.660000E+03	9.989313E-17	5.195308E-18
6.670000E+03	9.793913E-17	5.128327E-18
6.680000E+03	9.601494E-17	5.059516E-18
6.690000E+03	9.414923E-17	4.990537E-18
6.700000E+03	9.232576E-17	4.920691E-18
6.710000E+03	9.057101E-17	4.851550E-18
6.720000E+03	8.886828E-17	4.782385E-18
6.730000E+03	8.724204E-17	4.714674E-18
6.740000E+03	8.567526E-17	4.647657E-18
6.750000E+03	8.419065E-17	4.582717E-18
6.760000E+03	8.277092E-17	4.519067E-18
6.770000E+03	8.143729E-17	4.458003E-18
6.780000E+03	8.017238E-17	4.398713E-18
6.790000E+03	7.898703E-17	4.341916E-18
6.800000E+03	7.789126E-17	4.288283E-18
6.810000E+03	7.686776E-17	4.236974E-18
6.820000E+03	7.592628E-17	4.188628E-18
6.830000E+03	7.507600E-17	4.143844E-18
6.840000E+03	7.429982E-17	4.101764E-18
6.850000E+03	7.360681E-17	4.062964E-18
6.860000E+03	7.299718E-17	4.027521E-18
6.870000E+03	7.247106E-17	3.995501E-18
6.880000E+03	7.202857E-17	3.966958E-18
6.890000E+03	7.166978E-17	3.941935E-18
6.900000E+03	7.140303E-17	3.920923E-18
6.910000E+03	7.121177E-17	3.903035E-18
6.920000E+03	7.110431E-17	3.888746E-18
6.930000E+03	7.108065E-17	3.878063E-18
6.940000E+03	7.114073E-17	3.870987E-18
6.950000E+03	7.128448E-17	3.867509E-18
6.960000E+03	7.150346E-17	3.867161E-18
6.970000E+03	7.181403E-17	3.870816E-18
6.980000E+03	7.220762E-17	3.877985E-18
6.990000E+03	7.268383E-17	3.888618E-18
7.000000E+03	7.324208E-17	3.902653E-18
7.010000E+03	7.388165E-17	3.920013E-18
7.020000E+03	7.460159E-17	3.940604E-18
7.030000E+03	7.539190E-17	3.963852E-18
7.040000E+03	7.626854E-17	3.990544E-18
7.050000E+03	7.722094E-17	4.020067E-18
7.060000E+03	7.823772E-17	4.051767E-18
7.070000E+03	7.933426E-17	4.086380E-18
7.080000E+03	8.049831E-17	4.123200E-18
7.090000E+03	8.171651E-17	4.161475E-18
7.100000E+03	8.300333E-17	4.201873E-18
7.110000E+03	8.434424E-17	4.243580E-18
7.120000E+03	8.572336E-17	4.285728E-18
7.130000E+03	8.715390E-17	4.328910E-18
7.140000E+03	8.860820E-17	4.371684E-18
7.150000E+03	9.009851E-17	4.414595E-18
7.160000E+03	9.159482E-17	4.456114E-18
7.170000E+03	9.309753E-17	4.496221E-18
7.180000E+03	9.460699E-17	4.534888E-18
7.190000E+03	9.608974E-17	4.570481E-18
7.200000E+03	9.754457E-17	4.602930E-18
7.210000E+03	9.897043E-17	4.632179E-18
7.220000E+03	1.003312E-16	4.656541E-18
7.230000E+03	1.016252E-16	4.675961E-18
7.240000E+03	1.028390E-16	4.689865E-18
7.250000E+03	1.039718E-16	4.698261E-18
7.260000E+03	1.049866E-16	4.699539E-18
7.270000E+03	1.058838E-16	4.693801E-18
7.280000E+03	1.066523E-16	4.680660E-18
7.290000E+03	1.072823E-16	4.659805E-18
7.300000E+03	1.077658E-16	4.631016E-18
7.310000E+03	1.080960E-16	4.594166E-18
7.320000E+03	1.082682E-16	4.549238E-18
7.330000E+03	1.082796E-16	4.496329E-18
7.340000E+03	1.081294E-16	4.435653E-18
7.350000E+03	1.078190E-16	4.367552E-18
7.360000E+03	1.073517E-16	4.292491E-18
7.370000E+03	1.067328E-16	4.211062E-18
7.380000E+03	1.059693E-16	4.123978E-18
7.390000E+03	1.050577E-16	4.031594E-18
7.400000E+03	1.040330E-16	3.935816E-18
7.410000E+03	1.028941E-16	3.837196E-18
7.420000E+03	1.016533E-16	3.736859E-18
7.430000E+03	1.003119E-16	3.635571E-18
7.440000E+03	9.890717E-17	3.535452E-18
7.450000E+03	9.744078E-17	3.437336E-18
7.460000E+03	9.591493E-17	3.342103E-18
7.470000E+03	9.436591E-17	3.251810E-18
7.480000E+03	9.278394E-17	3.166859E-18
7.490000E+03	9.120340E-17	3.089101E-18
7.500000E+03	8.961372E-17	3.018737E-18
7.510000E+03	8.804668E-17	2.957250E-18
7.520000E+03	8.649032E-17	2.904458E-18
7.530000E+03	8.496323E-17	2.860979E-18
7.540000E+03	8.348202E-17	2.827125E-18
7.550000E+03	8.203199E-17	2.801910E-18
7.560000E+03	8.062741E-17	2.785125E-18
7.570000E+03	7.928085E-17	2.776363E-18
7.580000E+03	7.797539E-17	2.774104E-18
7.590000E+03	7.672205E-17	2.777770E-18
7.600000E+03	7.552159E-17	2.786442E-18
7.610000E+03	7.437422E-17	2.799239E-18
7.620000E+03	7.327974E-17	2.815334E-18
7.630000E+03	7.223759E-17	2.833982E-18
7.640000E+03	7.124690E-17	2.854517E-18
7.650000E+03	7.030662E-17	2.876362E-18
7.660000E+03	6.941547E-17	2.899024E-18
7.670000E+03	6.857209E-17	2.922088E-18
7.680000E+03	6.777498E-17	2.945210E-18
7.690000E+03	6.702257E-17	2.968111E-18
7.700000E+03	6.631325E-17	2.990567E-18
7.710000E+03	6.564540E-17	3.012403E-18
7.720000E+03	6.500953E-17	3.033119E-18
7.730000E+03	6.441973E-17	3.053345E-18
7.740000E+03	6.386646E-17	3.072648E-18
7.750000E+03	6.334049E-17	3.090609E-18
7.760000E+03	6.285560E-17	3.107948E-18
