#wls	flux	fluxerr
1.565382E+03	1.956718E-16	5.214945E-18
1.604516E+03	2.039241E-16	5.426889E-18
1.643651E+03	2.124909E-16	5.646334E-18
1.682785E+03	2.213534E-16	5.872717E-18
1.721920E+03	2.305263E-16	6.106357E-18
1.761054E+03	2.399454E-16	6.345488E-18
1.800189E+03	2.495750E-16	6.589103E-18
1.839323E+03	2.592475E-16	6.832716E-18
1.878458E+03	2.688832E-16	7.074195E-18
1.917592E+03	2.782931E-16	7.308542E-18
1.956727E+03	2.873622E-16	7.532741E-18
1.995862E+03	2.961747E-16	7.749006E-18
2.034996E+03	3.051591E-16	7.968528E-18
2.074131E+03	3.151676E-16	8.213460E-18
2.113265E+03	3.273308E-16	8.512998E-18
2.152400E+03	3.427625E-16	8.895659E-18
2.191534E+03	3.619338E-16	9.373047E-18
2.230669E+03	3.848544E-16	9.944708E-18
2.269803E+03	4.108024E-16	1.059130E-17
2.308938E+03	4.389873E-16	1.129186E-17
2.348072E+03	4.688631E-16	1.203187E-17
2.387207E+03	5.000783E-16	1.280188E-17
2.426341E+03	5.325895E-16	1.360042E-17
2.465476E+03	5.663488E-16	1.442589E-17
2.504611E+03	6.014365E-16	1.527995E-17
2.543745E+03	6.378570E-16	1.616229E-17
2.582880E+03	6.756565E-16	1.707366E-17
2.622014E+03	7.147975E-16	1.801267E-17
2.661149E+03	7.552381E-16	1.897783E-17
2.700283E+03	7.968441E-16	1.996532E-17
2.739418E+03	8.393578E-16	2.096827E-17
2.778552E+03	8.825443E-16	2.198044E-17
2.817687E+03	9.259947E-16	2.299137E-17
2.856821E+03	9.694689E-16	2.399484E-17
2.895956E+03	1.013155E-15	2.499535E-17
2.935090E+03	1.057218E-15	2.599665E-17
2.944874E+03	1.068324E-15	2.624786E-17
2.954658E+03	1.079463E-15	2.649934E-17
2.964441E+03	1.090627E-15	2.675087E-17
2.974225E+03	1.101863E-15	2.700360E-17
2.984009E+03	1.113144E-15	2.725686E-17
2.993792E+03	1.124495E-15	2.751128E-17
3.003576E+03	1.135904E-15	2.776656E-17
3.013360E+03	1.147387E-15	2.802304E-17
3.023143E+03	1.158929E-15	2.828039E-17
3.032927E+03	1.170553E-15	2.853916E-17
3.042710E+03	1.182226E-15	2.879851E-17
3.052494E+03	1.193976E-15	2.905914E-17
3.062278E+03	1.205813E-15	2.932130E-17
3.072061E+03	1.217722E-15	2.958458E-17
3.081845E+03	1.229735E-15	2.984977E-17
3.091629E+03	1.241788E-15	3.011530E-17
3.101412E+03	1.253914E-15	3.038196E-17
3.111196E+03	1.266097E-15	3.064938E-17
3.120980E+03	1.278346E-15	3.091774E-17
3.130763E+03	1.290620E-15	3.118608E-17
3.140547E+03	1.302954E-15	3.145519E-17
3.150330E+03	1.315331E-15	3.172470E-17
3.160114E+03	1.327712E-15	3.199364E-17
3.169898E+03	1.340130E-15	3.226280E-17
3.179681E+03	1.352592E-15	3.253236E-17
3.189465E+03	1.365038E-15	3.280085E-17
3.199249E+03	1.377498E-15	3.306901E-17
3.209032E+03	1.389959E-15	3.333652E-17
3.218816E+03	1.402405E-15	3.360298E-17
3.228600E+03	1.414824E-15	3.386812E-17
3.238383E+03	1.427224E-15	3.413211E-17
3.248167E+03	1.439590E-15	3.439462E-17
3.257950E+03	1.451912E-15	3.465537E-17
3.267734E+03	1.464175E-15	3.491405E-17
3.277518E+03	1.476369E-15	3.517039E-17
3.287301E+03	1.488503E-15	3.542461E-17
3.297085E+03	1.500544E-15	3.567596E-17
3.306869E+03	1.512485E-15	3.592423E-17
3.316652E+03	1.524315E-15	3.616917E-17
3.326436E+03	1.536026E-15	3.641064E-17
3.336220E+03	1.547610E-15	3.664843E-17
3.346003E+03	1.559042E-15	3.688195E-17
3.355787E+03	1.570297E-15	3.711061E-17
3.365570E+03	1.581390E-15	3.733480E-17
3.375354E+03	1.592299E-15	3.755400E-17
3.385138E+03	1.602985E-15	3.776730E-17
3.394921E+03	1.613447E-15	3.797472E-17
3.404705E+03	1.623670E-15	3.817587E-17
3.414489E+03	1.633620E-15	3.837000E-17
3.424272E+03	1.643267E-15	3.855642E-17
3.434056E+03	1.652618E-15	3.873531E-17
3.443839E+03	1.661593E-15	3.890481E-17
3.453623E+03	1.670188E-15	3.906488E-17
3.463407E+03	1.678312E-15	3.921340E-17
3.473190E+03	1.685898E-15	3.934885E-17
3.482974E+03	1.692883E-15	3.946980E-17
3.492758E+03	1.699194E-15	3.957459E-17
3.502541E+03	1.704775E-15	3.966198E-17
3.512325E+03	1.709547E-15	3.973016E-17
3.522109E+03	1.713432E-15	3.977740E-17
3.531892E+03	1.716407E-15	3.980324E-17
3.541676E+03	1.718469E-15	3.980767E-17
3.551459E+03	1.719629E-15	3.979102E-17
3.561243E+03	1.719919E-15	3.975411E-17
3.571027E+03	1.719398E-15	3.969834E-17
3.580810E+03	1.718094E-15	3.962444E-17
3.590594E+03	1.716065E-15	3.953379E-17
3.600378E+03	1.713350E-15	3.942737E-17
3.610161E+03	1.710004E-15	3.930648E-17
3.619945E+03	1.706062E-15	3.917201E-17
3.629729E+03	1.701575E-15	3.902513E-17
3.639512E+03	1.696589E-15	3.886696E-17
3.649296E+03	1.691135E-15	3.869824E-17
3.659079E+03	1.685254E-15	3.851995E-17
3.668863E+03	1.678985E-15	3.833302E-17
3.678647E+03	1.672337E-15	3.813770E-17
3.688430E+03	1.665373E-15	3.793546E-17
3.698214E+03	1.658084E-15	3.772608E-17
3.707998E+03	1.650539E-15	3.751121E-17
3.717781E+03	1.642725E-15	3.729054E-17
3.727565E+03	1.634681E-15	3.706499E-17
3.737349E+03	1.626415E-15	3.683477E-17
3.747132E+03	1.617948E-15	3.660036E-17
3.756916E+03	1.609299E-15	3.636221E-17
3.766699E+03	1.600482E-15	3.612069E-17
3.776483E+03	1.591501E-15	3.587585E-17
3.786267E+03	1.582369E-15	3.562804E-17
3.796050E+03	1.573097E-15	3.537749E-17
3.805834E+03	1.563694E-15	3.512446E-17
3.815618E+03	1.554147E-15	3.486863E-17
3.825401E+03	1.544487E-15	3.461073E-17
3.835185E+03	1.534696E-15	3.435035E-17
3.844969E+03	1.524782E-15	3.408771E-17
3.854752E+03	1.514760E-15	3.382316E-17
3.864536E+03	1.504602E-15	3.355606E-17
3.874319E+03	1.494336E-15	3.328705E-17
3.884103E+03	1.483953E-15	3.301595E-17
3.893887E+03	1.473436E-15	3.274241E-17
3.903670E+03	1.462812E-15	3.246700E-17
3.913454E+03	1.452060E-15	3.218932E-17
3.923238E+03	1.441177E-15	3.190928E-17
3.933021E+03	1.430177E-15	3.162723E-17
3.942805E+03	1.419054E-15	3.134302E-17
3.952589E+03	1.407795E-15	3.105637E-17
3.962372E+03	1.396424E-15	3.076787E-17
3.972156E+03	1.384919E-15	3.047701E-17
3.981939E+03	1.373299E-15	3.018424E-17
3.991723E+03	1.361552E-15	2.988929E-17
4.001507E+03	1.349700E-15	2.959265E-17
4.011290E+03	1.337733E-15	2.929414E-17
4.021074E+03	1.325675E-15	2.899429E-17
4.030858E+03	1.313511E-15	2.869275E-17
4.040641E+03	1.301266E-15	2.839012E-17
4.050425E+03	1.288949E-15	2.808659E-17
4.060208E+03	1.276578E-15	2.778255E-17
4.069992E+03	1.264156E-15	2.747806E-17
4.079776E+03	1.251712E-15	2.717379E-17
4.089559E+03	1.239262E-15	2.687008E-17
4.099343E+03	1.226820E-15	2.656723E-17
4.109127E+03	1.214406E-15	2.626565E-17
4.118910E+03	1.202052E-15	2.596608E-17
4.128694E+03	1.189782E-15	2.566898E-17
4.138478E+03	1.177621E-15	2.537494E-17
4.148261E+03	1.165593E-15	2.508443E-17
4.158045E+03	1.153727E-15	2.479808E-17
4.167828E+03	1.142056E-15	2.451658E-17
4.177612E+03	1.130601E-15	2.424037E-17
4.187396E+03	1.119404E-15	2.397032E-17
4.197179E+03	1.108486E-15	2.370688E-17
4.206963E+03	1.097888E-15	2.345088E-17
4.216747E+03	1.087623E-15	2.320261E-17
4.226530E+03	1.077737E-15	2.296300E-17
4.236314E+03	1.068251E-15	2.273247E-17
4.246098E+03	1.059200E-15	2.251174E-17
4.255881E+03	1.050619E-15	2.230149E-17
4.265665E+03	1.042530E-15	2.210217E-17
4.275448E+03	1.034955E-15	2.191419E-17
4.285232E+03	1.027885E-15	2.173735E-17
4.295016E+03	1.021335E-15	2.157192E-17
4.304799E+03	1.015280E-15	2.141728E-17
4.314583E+03	1.009725E-15	2.127355E-17
4.324367E+03	1.004639E-15	2.114001E-17
4.334150E+03	1.000008E-15	2.101635E-17
4.343934E+03	9.958056E-16	2.090195E-17
4.353718E+03	9.920232E-16	2.079662E-17
4.363501E+03	9.886408E-16	2.069989E-17
4.373285E+03	9.856238E-16	2.061102E-17
4.383068E+03	9.829512E-16	2.052953E-17
4.392852E+03	9.806208E-16	2.045536E-17
4.402636E+03	9.785972E-16	2.038773E-17
4.412419E+03	9.768597E-16	2.032620E-17
4.422203E+03	9.753977E-16	2.027052E-17
4.431987E+03	9.741852E-16	2.022013E-17
4.441770E+03	9.732092E-16	2.017473E-17
4.451554E+03	9.724526E-16	2.013397E-17
4.461338E+03	9.718802E-16	2.009709E-17
4.471121E+03	9.714969E-16	2.006418E-17
4.480905E+03	9.712619E-16	2.003438E-17
4.490688E+03	9.711809E-16	2.000781E-17
4.500472E+03	9.712112E-16	1.998356E-17
4.510256E+03	9.713516E-16	1.996162E-17
4.520039E+03	9.715761E-16	1.994142E-17
4.529823E+03	9.718680E-16	1.992264E-17
4.539607E+03	9.722095E-16	1.990489E-17
4.549390E+03	9.725768E-16	1.988769E-17
4.559174E+03	9.729530E-16	1.987070E-17
4.568958E+03	9.733231E-16	1.985359E-17
4.578741E+03	9.736785E-16	1.983622E-17
4.588525E+03	9.739982E-16	1.981813E-17
4.598308E+03	9.742757E-16	1.979921E-17
4.608092E+03	9.744975E-16	1.977919E-17
4.617876E+03	9.746610E-16	1.975802E-17
4.627659E+03	9.747542E-16	1.973546E-17
4.637443E+03	9.747830E-16	1.971164E-17
4.647227E+03	9.747299E-16	1.968620E-17
4.657010E+03	9.746116E-16	1.965950E-17
4.666794E+03	9.744123E-16	1.963122E-17
4.676577E+03	9.741424E-16	1.960158E-17
4.686361E+03	9.737876E-16	1.957029E-17
4.696145E+03	9.733600E-16	1.953760E-17
4.705928E+03	9.728467E-16	1.950327E-17
4.715712E+03	9.722528E-16	1.946740E-17
4.725496E+03	9.715763E-16	1.942996E-17
4.735279E+03	9.708232E-16	1.939108E-17
4.745063E+03	9.699829E-16	1.935055E-17
4.754847E+03	9.690557E-16	1.930839E-17
4.764630E+03	9.680485E-16	1.926473E-17
4.774414E+03	9.669529E-16	1.921943E-17
4.784197E+03	9.657773E-16	1.917265E-17
4.793981E+03	9.645150E-16	1.912427E-17
4.803765E+03	9.631735E-16	1.907445E-17
4.813548E+03	9.617470E-16	1.902307E-17
4.823332E+03	9.602358E-16	1.897015E-17
4.833116E+03	9.586516E-16	1.891593E-17
4.842899E+03	9.569861E-16	1.886026E-17
4.852683E+03	9.552421E-16	1.880319E-17
4.862467E+03	9.534217E-16	1.874477E-17
4.872250E+03	9.515183E-16	1.868487E-17
4.882034E+03	9.495537E-16	1.862395E-17
4.891817E+03	9.475031E-16	1.856151E-17
4.901601E+03	9.453965E-16	1.849814E-17
4.911385E+03	9.432103E-16	1.843340E-17
4.921168E+03	9.409661E-16	1.836772E-17
4.930952E+03	9.386490E-16	1.830079E-17
4.940736E+03	9.362813E-16	1.823308E-17
4.950519E+03	9.338483E-16	1.816429E-17
4.960303E+03	9.313627E-16	1.809468E-17
4.970087E+03	9.288195E-16	1.802416E-17
4.979870E+03	9.262223E-16	1.795280E-17
4.989654E+03	9.235833E-16	1.788084E-17
4.999437E+03	9.208899E-16	1.780805E-17
5.009221E+03	9.181535E-16	1.773464E-17
5.019005E+03	9.153788E-16	1.766072E-17
5.028788E+03	9.125590E-16	1.758616E-17
5.038572E+03	9.097086E-16	1.751124E-17
5.048356E+03	9.068129E-16	1.743568E-17
5.058139E+03	9.038921E-16	1.735988E-17
5.067923E+03	9.009421E-16	1.728375E-17
5.077707E+03	8.979569E-16	1.720719E-17
5.087490E+03	8.949497E-16	1.713046E-17
5.097274E+03	8.919144E-16	1.705343E-17
5.107057E+03	8.888626E-16	1.697634E-17
5.116841E+03	8.857811E-16	1.689894E-17
5.126625E+03	8.826902E-16	1.682161E-17
5.136408E+03	8.795843E-16	1.674425E-17
5.146192E+03	8.764673E-16	1.666694E-17
5.155976E+03	8.733327E-16	1.658956E-17
5.165759E+03	8.701936E-16	1.651235E-17
5.175543E+03	8.670524E-16	1.643537E-17
5.185327E+03	8.639043E-16	1.635852E-17
5.195110E+03	8.607524E-16	1.628188E-17
5.204894E+03	8.576101E-16	1.620568E-17
5.214677E+03	8.544724E-16	1.612983E-17
5.224461E+03	8.513527E-16	1.605460E-17
5.234245E+03	8.482376E-16	1.597973E-17
5.244028E+03	8.451498E-16	1.590564E-17
5.253812E+03	8.420784E-16	1.583214E-17
5.263596E+03	8.390368E-16	1.575947E-17
5.273379E+03	8.360311E-16	1.568775E-17
5.283163E+03	8.330686E-16	1.561712E-17
5.292946E+03	8.301393E-16	1.554738E-17
5.302730E+03	8.272669E-16	1.547898E-17
5.312514E+03	8.244504E-16	1.541190E-17
5.322297E+03	8.216806E-16	1.534597E-17
5.332081E+03	8.189812E-16	1.528162E-17
5.341865E+03	8.163425E-16	1.521868E-17
5.351648E+03	8.137707E-16	1.515725E-17
5.361432E+03	8.112712E-16	1.509743E-17
5.371216E+03	8.088481E-16	1.503928E-17
5.380999E+03	8.065034E-16	1.498285E-17
5.390783E+03	8.042189E-16	1.492778E-17
5.400566E+03	8.020070E-16	1.487430E-17
5.410350E+03	7.998547E-16	1.482217E-17
5.420134E+03	7.977483E-16	1.477112E-17
5.429917E+03	7.956895E-16	1.472119E-17
5.439701E+03	7.936557E-16	1.467196E-17
5.449485E+03	7.916480E-16	1.462343E-17
5.459268E+03	7.896595E-16	1.457549E-17
5.469052E+03	7.876675E-16	1.452770E-17
5.478836E+03	7.856814E-16	1.448025E-17
5.488619E+03	7.836789E-16	1.443272E-17
5.498403E+03	7.816621E-16	1.438515E-17
5.508186E+03	7.796256E-16	1.433743E-17
5.517970E+03	7.775564E-16	1.428934E-17
5.527754E+03	7.754581E-16	1.424093E-17
5.537537E+03	7.733108E-16	1.419184E-17
5.547321E+03	7.711274E-16	1.414230E-17
5.557105E+03	7.688971E-16	1.409213E-17
5.566888E+03	7.666259E-16	1.404142E-17
5.576672E+03	7.642960E-16	1.398986E-17
5.586456E+03	7.619226E-16	1.393772E-17
5.596239E+03	7.594972E-16	1.388485E-17
5.606023E+03	7.570196E-16	1.383124E-17
5.615806E+03	7.544983E-16	1.377706E-17
5.625590E+03	7.519340E-16	1.372231E-17
5.635374E+03	7.493116E-16	1.366671E-17
5.645157E+03	7.466568E-16	1.361075E-17
5.654941E+03	7.439551E-16	1.355414E-17
5.664725E+03	7.412160E-16	1.349707E-17
5.674508E+03	7.384499E-16	1.343973E-17
5.684292E+03	7.356422E-16	1.338185E-17
5.694076E+03	7.328112E-16	1.332376E-17
5.703859E+03	7.299509E-16	1.326535E-17
5.713643E+03	7.270710E-16	1.320680E-17
5.723426E+03	7.241653E-16	1.314800E-17
5.733210E+03	7.212514E-16	1.308926E-17
5.742994E+03	7.183145E-16	1.303032E-17
5.752777E+03	7.153719E-16	1.297148E-17
5.762561E+03	7.124162E-16	1.291262E-17
5.772345E+03	7.094560E-16	1.285389E-17
5.782128E+03	7.064834E-16	1.279514E-17
5.791912E+03	7.035061E-16	1.273651E-17
5.801696E+03	7.005237E-16	1.267800E-17
5.811479E+03	6.975435E-16	1.261974E-17
5.821263E+03	6.945479E-16	1.256140E-17
5.831046E+03	6.915600E-16	1.250341E-17
5.840830E+03	6.885618E-16	1.244543E-17
5.850614E+03	6.855596E-16	1.238759E-17
5.860397E+03	6.825514E-16	1.232984E-17
5.870181E+03	6.795353E-16	1.227214E-17
5.879965E+03	6.765174E-16	1.221462E-17
5.889748E+03	6.734957E-16	1.215722E-17
5.899532E+03	6.704685E-16	1.209993E-17
5.909315E+03	6.674343E-16	1.204271E-17
5.919099E+03	6.643999E-16	1.198568E-17
5.928883E+03	6.613562E-16	1.192868E-17
5.938666E+03	6.583109E-16	1.187185E-17
5.948450E+03	6.552635E-16	1.181517E-17
5.958234E+03	6.522227E-16	1.175881E-17
5.968017E+03	6.491808E-16	1.170262E-17
5.977801E+03	6.461553E-16	1.164691E-17
5.987585E+03	6.431314E-16	1.159143E-17
5.997368E+03	6.401273E-16	1.153650E-17
6.007152E+03	6.371371E-16	1.148200E-17
6.016935E+03	6.341716E-16	1.142814E-17
6.026719E+03	6.312256E-16	1.137482E-17
6.036503E+03	6.283187E-16	1.132239E-17
6.046286E+03	6.254543E-16	1.127091E-17
6.056070E+03	6.226363E-16	1.122045E-17
6.065854E+03	6.198680E-16	1.117107E-17
6.075637E+03	6.171616E-16	1.112300E-17
6.085421E+03	6.145212E-16	1.107629E-17
6.095205E+03	6.119419E-16	1.103088E-17
6.104988E+03	6.094357E-16	1.098696E-17
6.114772E+03	6.069979E-16	1.094445E-17
6.124555E+03	6.046401E-16	1.090358E-17
6.134339E+03	6.023652E-16	1.086438E-17
6.144123E+03	6.001760E-16	1.082691E-17
6.153906E+03	5.980664E-16	1.079105E-17
6.163690E+03	5.960637E-16	1.075731E-17
6.173474E+03	5.941609E-16	1.072556E-17
6.183257E+03	5.923674E-16	1.069597E-17
6.193041E+03	5.906922E-16	1.066870E-17
6.202825E+03	5.891440E-16	1.064391E-17
6.212608E+03	5.877217E-16	1.062158E-17
6.222392E+03	5.864415E-16	1.060202E-17
6.232175E+03	5.853099E-16	1.058533E-17
6.241959E+03	5.843329E-16	1.057164E-17
6.251743E+03	5.835073E-16	1.056089E-17
6.261526E+03	5.828375E-16	1.055315E-17
6.271310E+03	5.823012E-16	1.054804E-17
6.281094E+03	5.819103E-16	1.054577E-17
6.290877E+03	5.816316E-16	1.054573E-17
6.300661E+03	5.814578E-16	1.054779E-17
6.310445E+03	5.813628E-16	1.055147E-17
6.320228E+03	5.813284E-16	1.055646E-17
6.330012E+03	5.813362E-16	1.056240E-17
6.339795E+03	5.813756E-16	1.056911E-17
6.349579E+03	5.814180E-16	1.057606E-17
6.359363E+03	5.814523E-16	1.058304E-17
6.369146E+03	5.814584E-16	1.058970E-17
6.378930E+03	5.814252E-16	1.059582E-17
6.388714E+03	5.813325E-16	1.060103E-17
6.398497E+03	5.811793E-16	1.060530E-17
6.408281E+03	5.809378E-16	1.060813E-17
6.418065E+03	5.806175E-16	1.060968E-17
6.427848E+03	5.801919E-16	1.060945E-17
6.437632E+03	5.796534E-16	1.060731E-17
6.447415E+03	5.790048E-16	1.060330E-17
6.457199E+03	5.782313E-16	1.059713E-17
6.466983E+03	5.773377E-16	1.058889E-17
6.476766E+03	5.763109E-16	1.057832E-17
6.486550E+03	5.751577E-16	1.056555E-17
6.496334E+03	5.738669E-16	1.055035E-17
6.506117E+03	5.724379E-16	1.053272E-17
6.515901E+03	5.708806E-16	1.051280E-17
6.525684E+03	5.691960E-16	1.049063E-17
6.535468E+03	5.673769E-16	1.046605E-17
6.545252E+03	5.654262E-16	1.043912E-17
6.555035E+03	5.633574E-16	1.041005E-17
6.564819E+03	5.611654E-16	1.037877E-17
6.574603E+03	5.588653E-16	1.034552E-17
6.584386E+03	5.564629E-16	1.031042E-17
6.594170E+03	5.539554E-16	1.027339E-17
6.603954E+03	5.513591E-16	1.023474E-17
6.613737E+03	5.486817E-16	1.019460E-17
6.623521E+03	5.459211E-16	1.015292E-17
6.633304E+03	5.430857E-16	1.010985E-17
6.643088E+03	5.402025E-16	1.006588E-17
6.652872E+03	5.372608E-16	1.002081E-17
6.662655E+03	5.342783E-16	9.974958E-18
6.672439E+03	5.312633E-16	9.928481E-18
6.682223E+03	5.282144E-16	9.881342E-18
6.692006E+03	5.251489E-16	9.833863E-18
6.701790E+03	5.220650E-16	9.786001E-18
6.711574E+03	5.189887E-16	9.738245E-18
6.721357E+03	5.159085E-16	9.690371E-18
6.731141E+03	5.128306E-16	9.642496E-18
6.740924E+03	5.097802E-16	9.595090E-18
6.750708E+03	5.067441E-16	9.547902E-18
6.760492E+03	5.037370E-16	9.501210E-18
6.770275E+03	5.007544E-16	9.454923E-18
6.780059E+03	4.978099E-16	9.409298E-18
6.789843E+03	4.949071E-16	9.364407E-18
6.799626E+03	4.920403E-16	9.320138E-18
6.809410E+03	4.892216E-16	9.276719E-18
6.819194E+03	4.864440E-16	9.234021E-18
6.828977E+03	4.837188E-16	9.192257E-18
6.838761E+03	4.810473E-16	9.151452E-18
6.848544E+03	4.784214E-16	9.111455E-18
6.858328E+03	4.758510E-16	9.072453E-18
6.868112E+03	4.733270E-16	9.034274E-18
6.877895E+03	4.708493E-16	8.996918E-18
6.887679E+03	4.684266E-16	8.960553E-18
6.897463E+03	4.660581E-16	8.925163E-18
6.907246E+03	4.637241E-16	8.890373E-18
6.917030E+03	4.614418E-16	8.856515E-18
6.926814E+03	4.592094E-16	8.823553E-18
6.936597E+03	4.570157E-16	8.791277E-18
6.946381E+03	4.548588E-16	8.759648E-18
6.956164E+03	4.527364E-16	8.728622E-18
6.965948E+03	4.506550E-16	8.698329E-18
6.975732E+03	4.485938E-16	8.668367E-18
6.985515E+03	4.465688E-16	8.639041E-18
6.995299E+03	4.445770E-16	8.610301E-18
7.005083E+03	4.425977E-16	8.581741E-18
7.014866E+03	4.406372E-16	8.553486E-18
7.024650E+03	4.386930E-16	8.525487E-18
7.034434E+03	4.367719E-16	8.497873E-18
7.044217E+03	4.348530E-16	8.470243E-18
7.054001E+03	4.329525E-16	8.442907E-18
7.063784E+03	4.310501E-16	8.415471E-18
7.073568E+03	4.291620E-16	8.388251E-18
7.083352E+03	4.272684E-16	8.360860E-18
7.093135E+03	4.253771E-16	8.333446E-18
7.102919E+03	4.234960E-16	8.306166E-18
7.112703E+03	4.216057E-16	8.278638E-18
7.122486E+03	4.197146E-16	8.251028E-18
7.132270E+03	4.178223E-16	8.223324E-18
7.142053E+03	4.159284E-16	8.195519E-18
7.151837E+03	4.140330E-16	8.167614E-18
7.161621E+03	4.121454E-16	8.139791E-18
7.171404E+03	4.102475E-16	8.111693E-18
7.181188E+03	4.083581E-16	8.083691E-18
7.190972E+03	4.064688E-16	8.055617E-18
7.200755E+03	4.045894E-16	8.027666E-18
7.210539E+03	4.027119E-16	7.999678E-18
7.220323E+03	4.008554E-16	7.972036E-18
7.230106E+03	3.990213E-16	7.944763E-18
7.239890E+03	3.972105E-16	7.917884E-18
7.249673E+03	3.954337E-16	7.891609E-18
7.259457E+03	3.936919E-16	7.865963E-18
7.269241E+03	3.920049E-16	7.841343E-18
7.279024E+03	3.903556E-16	7.817409E-18
7.288808E+03	3.887636E-16	7.794559E-18
7.298592E+03	3.872210E-16	7.772635E-18
7.308375E+03	3.857197E-16	7.751478E-18
7.318159E+03	3.842701E-16	7.731302E-18
7.327943E+03	3.828455E-16	7.711572E-18
7.337726E+03	3.814655E-16	7.692682E-18
7.347510E+03	3.801218E-16	7.674469E-18
7.357293E+03	3.788060E-16	7.656766E-18
7.367077E+03	3.775281E-16	7.639777E-18
7.376861E+03	3.762795E-16	7.623333E-18
7.386644E+03	3.750517E-16	7.607258E-18
7.396428E+03	3.738637E-16	7.591942E-18
7.406212E+03	3.727068E-16	7.577210E-18
7.415995E+03	3.715719E-16	7.562882E-18
7.425779E+03	3.704689E-16	7.549157E-18
7.435563E+03	3.693885E-16	7.535850E-18
7.445346E+03	3.683308E-16	7.522966E-18
7.455130E+03	3.673055E-16	7.510701E-18
7.464913E+03	3.663127E-16	7.499061E-18
7.474697E+03	3.653335E-16	7.487661E-18
7.484481E+03	3.643866E-16	7.476888E-18
7.494264E+03	3.634628E-16	7.466551E-18
7.504048E+03	3.625616E-16	7.456644E-18
7.513832E+03	3.616925E-16	7.447366E-18
7.523615E+03	3.608458E-16	7.438516E-18
7.533399E+03	3.600212E-16	7.430090E-18
7.543183E+03	3.592279E-16	7.422282E-18
7.552966E+03	3.584560E-16	7.414888E-18
7.562750E+03	3.577145E-16	7.408096E-18
7.572533E+03	3.569934E-16	7.401703E-18
7.582317E+03	3.563016E-16	7.395892E-18
7.592101E+03	3.556287E-16	7.390452E-18
