#wls	flux	fluxerr
1.565382E+03	2.203084E-16	2.226070E-18
1.604516E+03	2.306543E-16	2.329444E-18
1.643651E+03	2.414753E-16	2.437481E-18
1.682785E+03	2.527691E-16	2.550143E-18
1.721920E+03	2.645394E-16	2.667456E-18
1.761054E+03	2.767291E-16	2.788832E-18
1.800189E+03	2.892750E-16	2.913621E-18
1.839323E+03	3.020456E-16	3.040489E-18
1.878458E+03	3.148424E-16	3.167428E-18
1.917592E+03	3.274474E-16	3.292240E-18
1.956727E+03	3.396973E-16	3.413281E-18
1.995862E+03	3.516572E-16	3.531207E-18
2.034996E+03	3.636884E-16	3.649642E-18
2.074131E+03	3.767700E-16	3.778398E-18
2.113265E+03	3.922094E-16	3.930549E-18
2.152400E+03	4.110634E-16	4.116622E-18
2.191534E+03	4.337755E-16	4.340974E-18
2.230669E+03	4.598578E-16	4.598633E-18
2.269803E+03	4.883818E-16	4.880232E-18
2.308938E+03	5.183875E-16	5.176118E-18
2.348072E+03	5.491856E-16	5.479364E-18
2.387207E+03	5.804516E-16	5.786700E-18
2.426341E+03	6.119884E-16	6.096135E-18
2.465476E+03	6.438124E-16	6.407809E-18
2.504611E+03	6.759820E-16	6.722279E-18
2.543745E+03	7.084983E-16	7.039530E-18
2.582880E+03	7.413834E-16	7.359755E-18
2.622014E+03	7.745892E-16	7.682450E-18
2.661149E+03	8.080704E-16	8.007140E-18
2.700283E+03	8.417066E-16	8.332606E-18
2.739418E+03	8.753517E-16	8.657382E-18
2.778552E+03	9.088166E-16	8.979580E-18
2.817687E+03	9.419946E-16	9.298136E-18
2.856821E+03	9.747365E-16	9.611568E-18
2.895956E+03	1.006880E-15	9.918273E-18
2.935090E+03	1.038374E-15	1.021775E-17
2.944874E+03	1.046144E-15	1.029147E-17
2.954658E+03	1.053859E-15	1.036461E-17
2.964441E+03	1.061515E-15	1.043710E-17
2.974225E+03	1.069133E-15	1.050917E-17
2.984009E+03	1.076717E-15	1.058085E-17
2.993792E+03	1.084271E-15	1.065219E-17
3.003576E+03	1.091789E-15	1.072312E-17
3.013360E+03	1.099262E-15	1.079357E-17
3.023143E+03	1.106685E-15	1.086346E-17
3.032927E+03	1.114083E-15	1.093305E-17
3.042710E+03	1.121428E-15	1.100208E-17
3.052494E+03	1.128732E-15	1.107065E-17
3.062278E+03	1.136030E-15	1.113912E-17
3.072061E+03	1.143271E-15	1.120696E-17
3.081845E+03	1.150464E-15	1.127429E-17
3.091629E+03	1.157627E-15	1.134127E-17
3.101412E+03	1.164729E-15	1.140761E-17
3.111196E+03	1.171785E-15	1.147343E-17
3.120980E+03	1.178765E-15	1.153846E-17
3.130763E+03	1.185686E-15	1.160287E-17
3.140547E+03	1.192541E-15	1.166657E-17
3.150330E+03	1.199304E-15	1.172933E-17
3.160114E+03	1.205990E-15	1.179129E-17
3.169898E+03	1.212596E-15	1.185241E-17
3.179681E+03	1.219117E-15	1.191264E-17
3.189465E+03	1.225550E-15	1.197197E-17
3.199249E+03	1.231890E-15	1.203035E-17
3.209032E+03	1.238137E-15	1.208776E-17
3.218816E+03	1.244265E-15	1.214396E-17
3.228600E+03	1.250315E-15	1.219936E-17
3.238383E+03	1.256245E-15	1.225354E-17
3.248167E+03	1.262074E-15	1.230668E-17
3.257950E+03	1.267782E-15	1.235859E-17
3.267734E+03	1.273388E-15	1.240947E-17
3.277518E+03	1.278894E-15	1.245933E-17
3.287301E+03	1.284262E-15	1.250779E-17
3.297085E+03	1.289531E-15	1.255525E-17
3.306869E+03	1.294666E-15	1.260136E-17
3.316652E+03	1.299690E-15	1.264635E-17
3.326436E+03	1.304604E-15	1.269022E-17
3.336220E+03	1.309377E-15	1.273268E-17
3.346003E+03	1.314049E-15	1.277412E-17
3.355787E+03	1.318590E-15	1.281424E-17
3.365570E+03	1.323004E-15	1.285309E-17
3.375354E+03	1.327298E-15	1.289073E-17
3.385138E+03	1.331462E-15	1.292708E-17
3.394921E+03	1.335520E-15	1.296235E-17
3.404705E+03	1.339446E-15	1.299632E-17
3.414489E+03	1.343250E-15	1.302905E-17
3.424272E+03	1.346923E-15	1.306049E-17
3.434056E+03	1.350493E-15	1.309089E-17
3.443839E+03	1.353937E-15	1.312004E-17
3.453623E+03	1.357250E-15	1.314788E-17
3.463407E+03	1.360460E-15	1.317469E-17
3.473190E+03	1.363531E-15	1.320012E-17
3.482974E+03	1.366475E-15	1.322430E-17
3.492758E+03	1.369304E-15	1.324733E-17
3.502541E+03	1.372001E-15	1.326906E-17
3.512325E+03	1.374579E-15	1.328960E-17
3.522109E+03	1.377020E-15	1.330880E-17
3.531892E+03	1.379323E-15	1.332664E-17
3.541676E+03	1.381503E-15	1.334325E-17
3.551459E+03	1.383527E-15	1.335834E-17
3.561243E+03	1.385426E-15	1.337220E-17
3.571027E+03	1.387182E-15	1.338466E-17
3.580810E+03	1.388795E-15	1.339572E-17
3.590594E+03	1.390248E-15	1.340522E-17
3.600378E+03	1.391557E-15	1.341330E-17
3.610161E+03	1.392717E-15	1.341993E-17
3.619945E+03	1.393713E-15	1.342496E-17
3.629729E+03	1.394553E-15	1.342848E-17
3.639512E+03	1.395235E-15	1.343046E-17
3.649296E+03	1.395739E-15	1.343071E-17
3.659079E+03	1.396099E-15	1.342957E-17
3.668863E+03	1.396282E-15	1.342670E-17
3.678647E+03	1.396289E-15	1.342215E-17
3.688430E+03	1.396139E-15	1.341607E-17
3.698214E+03	1.395793E-15	1.340810E-17
3.707998E+03	1.395279E-15	1.339851E-17
3.717781E+03	1.394570E-15	1.338704E-17
3.727565E+03	1.393676E-15	1.337380E-17
3.737349E+03	1.392597E-15	1.335878E-17
3.747132E+03	1.391316E-15	1.334183E-17
3.756916E+03	1.389831E-15	1.332291E-17
3.766699E+03	1.388150E-15	1.330213E-17
3.776483E+03	1.386259E-15	1.327934E-17
3.786267E+03	1.384169E-15	1.325464E-17
3.796050E+03	1.381865E-15	1.322791E-17
3.805834E+03	1.379360E-15	1.319926E-17
3.815618E+03	1.376655E-15	1.316870E-17
3.825401E+03	1.373751E-15	1.313627E-17
3.835185E+03	1.370666E-15	1.310210E-17
3.844969E+03	1.367390E-15	1.306614E-17
3.854752E+03	1.363943E-15	1.302856E-17
3.864536E+03	1.360342E-15	1.298953E-17
3.874319E+03	1.356570E-15	1.294887E-17
3.884103E+03	1.352669E-15	1.290702E-17
3.893887E+03	1.348635E-15	1.286391E-17
3.903670E+03	1.344471E-15	1.281959E-17
3.913454E+03	1.340193E-15	1.277422E-17
3.923238E+03	1.335796E-15	1.272772E-17
3.933021E+03	1.331301E-15	1.268033E-17
3.942805E+03	1.326711E-15	1.263205E-17
3.952589E+03	1.322023E-15	1.258288E-17
3.962372E+03	1.317223E-15	1.253267E-17
3.972156E+03	1.312332E-15	1.248162E-17
3.981939E+03	1.307345E-15	1.242970E-17
3.991723E+03	1.302259E-15	1.237686E-17
4.001507E+03	1.297071E-15	1.232309E-17
4.011290E+03	1.291776E-15	1.226834E-17
4.021074E+03	1.286384E-15	1.221270E-17
4.030858E+03	1.280883E-15	1.215606E-17
4.040641E+03	1.275286E-15	1.209856E-17
4.050425E+03	1.269594E-15	1.204019E-17
4.060208E+03	1.263810E-15	1.198099E-17
4.069992E+03	1.257940E-15	1.192101E-17
4.079776E+03	1.251990E-15	1.186032E-17
4.089559E+03	1.245979E-15	1.179908E-17
4.099343E+03	1.239893E-15	1.173719E-17
4.109127E+03	1.233753E-15	1.167483E-17
4.118910E+03	1.227582E-15	1.161221E-17
4.128694E+03	1.221368E-15	1.154924E-17
4.138478E+03	1.215136E-15	1.148614E-17
4.148261E+03	1.208888E-15	1.142293E-17
4.158045E+03	1.202647E-15	1.135985E-17
4.167828E+03	1.196418E-15	1.129691E-17
4.177612E+03	1.190202E-15	1.123415E-17
4.187396E+03	1.184031E-15	1.117186E-17
4.197179E+03	1.177890E-15	1.110990E-17
4.206963E+03	1.171808E-15	1.104854E-17
4.216747E+03	1.165783E-15	1.098776E-17
4.226530E+03	1.159827E-15	1.092768E-17
4.236314E+03	1.153933E-15	1.086823E-17
4.246098E+03	1.148117E-15	1.080956E-17
4.255881E+03	1.142381E-15	1.075169E-17
4.265665E+03	1.136717E-15	1.069454E-17
4.275448E+03	1.131153E-15	1.063838E-17
4.285232E+03	1.125676E-15	1.058308E-17
4.295016E+03	1.120302E-15	1.052879E-17
4.304799E+03	1.115023E-15	1.047544E-17
4.314583E+03	1.109853E-15	1.042315E-17
4.324367E+03	1.104777E-15	1.037179E-17
4.334150E+03	1.099818E-15	1.032156E-17
4.343934E+03	1.094970E-15	1.027242E-17
4.353718E+03	1.090228E-15	1.022432E-17
4.363501E+03	1.085619E-15	1.017749E-17
4.373285E+03	1.081141E-15	1.013194E-17
4.383068E+03	1.076805E-15	1.008774E-17
4.392852E+03	1.072619E-15	1.004500E-17
4.402636E+03	1.068596E-15	1.000382E-17
4.412419E+03	1.064738E-15	9.964210E-18
4.422203E+03	1.061064E-15	9.926366E-18
4.431987E+03	1.057584E-15	9.890358E-18
4.441770E+03	1.054294E-15	9.856169E-18
4.451554E+03	1.051192E-15	9.823753E-18
4.461338E+03	1.048287E-15	9.793219E-18
4.471121E+03	1.045580E-15	9.764561E-18
4.480905E+03	1.043049E-15	9.737575E-18
4.490688E+03	1.040710E-15	9.712403E-18
4.500472E+03	1.038527E-15	9.688709E-18
4.510256E+03	1.036501E-15	9.666510E-18
4.520039E+03	1.034625E-15	9.645728E-18
4.529823E+03	1.032879E-15	9.626184E-18
4.539607E+03	1.031256E-15	9.607808E-18
4.549390E+03	1.029728E-15	9.590336E-18
4.559174E+03	1.028304E-15	9.573859E-18
4.568958E+03	1.026950E-15	9.558045E-18
4.578741E+03	1.025667E-15	9.542923E-18
4.588525E+03	1.024443E-15	9.528362E-18
4.598308E+03	1.023272E-15	9.514315E-18
4.608092E+03	1.022133E-15	9.500586E-18
4.617876E+03	1.021024E-15	9.487160E-18
4.627659E+03	1.019928E-15	9.473874E-18
4.637443E+03	1.018857E-15	9.460835E-18
4.647227E+03	1.017785E-15	9.447819E-18
4.657010E+03	1.016720E-15	9.434879E-18
4.666794E+03	1.015658E-15	9.421985E-18
4.676577E+03	1.014587E-15	9.409035E-18
4.686361E+03	1.013518E-15	9.396123E-18
4.696145E+03	1.012440E-15	9.383154E-18
4.705928E+03	1.011355E-15	9.370137E-18
4.715712E+03	1.010264E-15	9.357088E-18
4.725496E+03	1.009167E-15	9.344006E-18
4.735279E+03	1.008056E-15	9.330822E-18
4.745063E+03	1.006952E-15	9.317715E-18
4.754847E+03	1.005823E-15	9.304412E-18
4.764630E+03	1.004689E-15	9.291076E-18
4.774414E+03	1.003536E-15	9.277600E-18
4.784197E+03	1.002371E-15	9.264037E-18
4.793981E+03	1.001170E-15	9.250161E-18
4.803765E+03	9.999342E-16	9.235987E-18
4.813548E+03	9.986563E-16	9.221454E-18
4.823332E+03	9.973154E-16	9.206366E-18
4.833116E+03	9.959139E-16	9.190746E-18
4.842899E+03	9.944297E-16	9.174390E-18
4.852683E+03	9.928652E-16	9.157323E-18
4.862467E+03	9.911932E-16	9.139293E-18
4.872250E+03	9.894271E-16	9.120427E-18
4.882034E+03	9.875456E-16	9.100528E-18
4.891817E+03	9.855571E-16	9.079674E-18
4.901601E+03	9.834537E-16	9.057796E-18
4.911385E+03	9.812490E-16	9.035017E-18
4.921168E+03	9.789489E-16	9.011395E-18
4.930952E+03	9.765387E-16	8.986794E-18
4.940736E+03	9.740345E-16	8.961364E-18
4.950519E+03	9.714414E-16	8.935153E-18
4.960303E+03	9.687644E-16	8.908207E-18
4.970087E+03	9.659855E-16	8.880362E-18
4.979870E+03	9.631268E-16	8.851822E-18
4.989654E+03	9.601891E-16	8.822595E-18
4.999437E+03	9.571425E-16	8.792407E-18
5.009221E+03	9.540150E-16	8.761516E-18
5.019005E+03	9.507878E-16	8.729750E-18
5.028788E+03	9.474608E-16	8.697109E-18
5.038572E+03	9.440366E-16	8.663617E-18
5.048356E+03	9.405081E-16	8.629212E-18
5.058139E+03	9.368915E-16	8.594042E-18
5.067923E+03	9.331835E-16	8.558076E-18
5.077707E+03	9.293934E-16	8.521401E-18
5.087490E+03	9.255330E-16	8.484126E-18
5.097274E+03	9.215938E-16	8.446174E-18
5.107057E+03	9.176092E-16	8.407851E-18
5.116841E+03	9.135826E-16	8.369189E-18
5.126625E+03	9.095184E-16	8.330227E-18
5.136408E+03	9.054293E-16	8.291083E-18
5.146192E+03	9.013291E-16	8.251884E-18
5.155976E+03	8.972205E-16	8.212653E-18
5.165759E+03	8.931231E-16	8.173572E-18
5.175543E+03	8.890278E-16	8.134554E-18
5.185327E+03	8.849532E-16	8.095774E-18
5.195110E+03	8.808885E-16	8.057128E-18
5.204894E+03	8.768482E-16	8.018752E-18
5.214677E+03	8.728281E-16	7.980607E-18
5.224461E+03	8.688335E-16	7.942739E-18
5.234245E+03	8.648669E-16	7.905174E-18
5.244028E+03	8.609144E-16	7.867783E-18
5.253812E+03	8.569891E-16	7.830685E-18
5.263596E+03	8.530860E-16	7.793837E-18
5.273379E+03	8.492103E-16	7.757283E-18
5.283163E+03	8.453509E-16	7.720924E-18
5.292946E+03	8.415323E-16	7.684982E-18
5.302730E+03	8.377374E-16	7.649302E-18
5.312514E+03	8.339758E-16	7.613970E-18
5.322297E+03	8.302574E-16	7.579078E-18
5.332081E+03	8.265512E-16	7.544342E-18
5.341865E+03	8.228265E-16	7.509480E-18
5.351648E+03	8.190525E-16	7.474211E-18
5.361432E+03	8.152712E-16	7.438917E-18
5.371216E+03	8.115141E-16	7.403886E-18
5.380999E+03	8.077962E-16	7.369253E-18
5.390783E+03	8.041330E-16	7.335159E-18
5.400566E+03	8.005385E-16	7.301731E-18
5.410350E+03	7.970082E-16	7.268926E-18
5.420134E+03	7.935671E-16	7.236973E-18
5.429917E+03	7.902054E-16	7.205781E-18
5.439701E+03	7.869195E-16	7.175314E-18
5.449485E+03	7.837190E-16	7.145662E-18
5.459268E+03	7.805882E-16	7.116680E-18
5.469052E+03	7.775257E-16	7.088354E-18
5.478836E+03	7.745289E-16	7.060661E-18
5.488619E+03	7.715870E-16	7.033501E-18
5.498403E+03	7.686967E-16	7.006841E-18
5.508186E+03	7.658467E-16	6.980581E-18
5.517970E+03	7.630267E-16	6.954625E-18
5.527754E+03	7.602350E-16	6.928957E-18
5.537537E+03	7.574551E-16	6.903426E-18
5.547321E+03	7.547030E-16	6.878178E-18
5.557105E+03	7.519569E-16	6.853012E-18
5.566888E+03	7.492271E-16	6.828023E-18
5.576672E+03	7.465091E-16	6.803170E-18
5.586456E+03	7.437917E-16	6.778347E-18
5.596239E+03	7.410873E-16	6.753671E-18
5.606023E+03	7.383858E-16	6.729047E-18
5.615806E+03	7.356928E-16	6.704525E-18
5.625590E+03	7.330064E-16	6.680089E-18
5.635374E+03	7.303329E-16	6.655795E-18
5.645157E+03	7.276634E-16	6.631561E-18
5.654941E+03	7.250124E-16	6.607520E-18
5.664725E+03	7.223637E-16	6.583524E-18
5.674508E+03	7.197251E-16	6.559641E-18
5.684292E+03	7.171042E-16	6.535943E-18
5.694076E+03	7.145018E-16	6.512435E-18
5.703859E+03	7.119113E-16	6.489057E-18
5.713643E+03	7.093419E-16	6.465893E-18
5.723426E+03	7.068040E-16	6.443037E-18
5.733210E+03	7.042849E-16	6.420372E-18
5.742994E+03	7.017959E-16	6.398002E-18
5.752777E+03	6.993483E-16	6.376029E-18
5.762561E+03	6.969307E-16	6.354349E-18
5.772345E+03	6.945620E-16	6.333133E-18
5.782128E+03	6.922447E-16	6.312406E-18
5.791912E+03	6.899650E-16	6.292040E-18
5.801696E+03	6.877307E-16	6.272105E-18
5.811479E+03	6.855475E-16	6.252655E-18
5.821263E+03	6.833959E-16	6.233510E-18
5.831046E+03	6.812778E-16	6.214688E-18
5.840830E+03	6.791853E-16	6.196118E-18
5.850614E+03	6.771014E-16	6.177643E-18
5.860397E+03	6.750162E-16	6.159172E-18
5.870181E+03	6.729191E-16	6.140608E-18
5.879965E+03	6.707923E-16	6.121791E-18
5.889748E+03	6.686344E-16	6.102704E-18
5.899532E+03	6.664301E-16	6.083210E-18
5.909315E+03	6.641733E-16	6.063251E-18
5.919099E+03	6.618449E-16	6.042652E-18
5.928883E+03	6.594587E-16	6.021540E-18
5.938666E+03	6.569918E-16	5.999706E-18
5.948450E+03	6.544626E-16	5.977315E-18
5.958234E+03	6.518517E-16	5.954192E-18
5.968017E+03	6.491808E-16	5.930532E-18
5.977801E+03	6.464335E-16	5.906186E-18
5.987585E+03	6.436253E-16	5.881296E-18
5.997368E+03	6.407646E-16	5.855937E-18
6.007152E+03	6.378524E-16	5.830117E-18
6.016935E+03	6.348892E-16	5.803842E-18
6.026719E+03	6.318913E-16	5.777260E-18
6.036503E+03	6.288666E-16	5.750442E-18
6.046286E+03	6.258224E-16	5.723454E-18
6.056070E+03	6.227650E-16	5.696354E-18
6.065854E+03	6.197159E-16	5.669339E-18
6.075637E+03	6.166876E-16	5.642522E-18
6.085421E+03	6.136684E-16	5.615797E-18
6.095205E+03	6.106771E-16	5.589334E-18
6.104988E+03	6.077083E-16	5.563085E-18
6.114772E+03	6.047637E-16	5.537065E-18
6.124555E+03	6.018603E-16	5.511429E-18
6.134339E+03	5.989991E-16	5.486187E-18
6.144123E+03	5.961887E-16	5.461416E-18
6.153906E+03	5.934295E-16	5.437123E-18
6.163690E+03	5.907222E-16	5.413311E-18
6.173474E+03	5.880910E-16	5.390203E-18
6.183257E+03	5.855203E-16	5.367657E-18
6.193041E+03	5.830265E-16	5.345822E-18
6.202825E+03	5.806017E-16	5.324627E-18
6.212608E+03	5.782622E-16	5.304222E-18
6.222392E+03	5.759998E-16	5.284530E-18
6.232175E+03	5.738220E-16	5.265622E-18
6.241959E+03	5.717361E-16	5.247564E-18
6.251743E+03	5.697244E-16	5.230195E-18
6.261526E+03	5.678010E-16	5.213645E-18
6.271310E+03	5.659630E-16	5.197885E-18
6.281094E+03	5.642062E-16	5.182880E-18
6.290877E+03	5.625339E-16	5.168658E-18
6.300661E+03	5.609483E-16	5.155239E-18
6.310445E+03	5.594503E-16	5.142634E-18
6.320228E+03	5.580317E-16	5.130765E-18
6.330012E+03	5.566832E-16	5.119548E-18
6.339795E+03	5.554025E-16	5.108963E-18
6.349579E+03	5.541620E-16	5.098754E-18
6.359363E+03	5.529668E-16	5.088969E-18
6.369146E+03	5.518047E-16	5.079496E-18
6.378930E+03	5.506637E-16	5.070224E-18
6.388714E+03	5.495314E-16	5.061038E-18
6.398497E+03	5.483947E-16	5.051818E-18
6.408281E+03	5.472489E-16	5.042520E-18
6.418065E+03	5.460724E-16	5.032945E-18
6.427848E+03	5.448625E-16	5.023066E-18
6.437632E+03	5.436088E-16	5.012789E-18
6.447415E+03	5.422942E-16	5.001954E-18
6.457199E+03	5.409205E-16	4.990578E-18
6.466983E+03	5.394821E-16	4.978607E-18
6.476766E+03	5.379750E-16	4.966005E-18
6.486550E+03	5.363955E-16	4.952736E-18
6.496334E+03	5.347415E-16	4.938780E-18
6.506117E+03	5.330113E-16	4.924120E-18
6.515901E+03	5.311947E-16	4.908663E-18
6.525684E+03	5.293004E-16	4.892486E-18
6.535468E+03	5.273197E-16	4.875510E-18
6.545252E+03	5.252627E-16	4.857824E-18
6.555035E+03	5.231314E-16	4.839449E-18
6.564819E+03	5.209195E-16	4.820325E-18
6.574603E+03	5.186309E-16	4.800486E-18
6.584386E+03	5.162791E-16	4.780057E-18
6.594170E+03	5.138514E-16	4.758920E-18
6.603954E+03	5.113724E-16	4.737301E-18
6.613737E+03	5.088398E-16	4.715180E-18
6.623521E+03	5.062520E-16	4.692539E-18
6.633304E+03	5.036259E-16	4.669536E-18
6.643088E+03	5.009698E-16	4.646246E-18
6.652872E+03	4.982826E-16	4.622659E-18
6.662655E+03	4.955817E-16	4.598936E-18
6.672439E+03	4.928663E-16	4.575069E-18
6.682223E+03	4.901534E-16	4.551215E-18
6.692006E+03	4.874329E-16	4.527281E-18
6.701790E+03	4.847302E-16	4.503502E-18
6.711574E+03	4.820349E-16	4.479782E-18
6.721357E+03	4.793721E-16	4.456353E-18
6.731141E+03	4.767306E-16	4.433113E-18
6.740924E+03	4.741258E-16	4.410203E-18
6.750708E+03	4.715551E-16	4.387599E-18
6.760492E+03	4.690327E-16	4.365436E-18
6.770275E+03	4.665551E-16	4.343677E-18
6.780059E+03	4.641357E-16	4.322452E-18
6.789843E+03	4.617611E-16	4.301633E-18
6.799626E+03	4.594529E-16	4.281423E-18
6.809410E+03	4.572056E-16	4.261770E-18
6.819194E+03	4.550133E-16	4.242621E-18
6.828977E+03	4.528964E-16	4.224165E-18
6.838761E+03	4.508395E-16	4.206260E-18
6.848544E+03	4.488536E-16	4.189008E-18
6.858328E+03	4.469315E-16	4.172344E-18
6.868112E+03	4.450834E-16	4.156362E-18
6.877895E+03	4.433018E-16	4.140992E-18
6.887679E+03	4.415959E-16	4.126322E-18
6.897463E+03	4.399488E-16	4.112193E-18
6.907246E+03	4.383776E-16	4.098767E-18
6.917030E+03	4.368642E-16	4.085874E-18
6.926814E+03	4.354249E-16	4.073668E-18
6.936597E+03	4.340405E-16	4.061969E-18
6.946381E+03	4.327172E-16	4.050835E-18
6.956164E+03	4.314435E-16	4.040160E-18
6.965948E+03	4.302244E-16	4.029990E-18
6.975732E+03	4.290556E-16	4.020285E-18
6.985515E+03	4.279150E-16	4.010840E-18
6.995299E+03	4.268148E-16	4.001768E-18
7.005083E+03	4.257495E-16	3.993018E-18
7.014866E+03	4.246958E-16	3.984371E-18
7.024650E+03	4.236567E-16	3.975856E-18
7.034434E+03	4.226264E-16	3.967419E-18
7.044217E+03	4.215908E-16	3.958928E-18
7.054001E+03	4.205626E-16	3.950500E-18
7.063784E+03	4.195202E-16	3.941933E-18
7.073568E+03	4.184604E-16	3.933197E-18
7.083352E+03	4.173895E-16	3.924352E-18
7.093135E+03	4.162891E-16	3.915223E-18
7.102919E+03	4.151760E-16	3.905968E-18
7.112703E+03	4.140421E-16	3.896513E-18
7.122486E+03	4.128890E-16	3.886870E-18
7.132270E+03	4.117100E-16	3.876976E-18
7.142053E+03	4.105079E-16	3.866858E-18
7.151837E+03	4.092942E-16	3.856624E-18
7.161621E+03	4.080635E-16	3.846223E-18
7.171404E+03	4.068104E-16	3.835604E-18
7.181188E+03	4.055384E-16	3.824799E-18
7.190972E+03	4.042505E-16	3.813836E-18
7.200755E+03	4.029497E-16	3.802745E-18
7.210539E+03	4.016304E-16	3.791471E-18
7.220323E+03	4.002868E-16	3.779960E-18
7.230106E+03	3.989211E-16	3.768232E-18
7.239890E+03	3.975186E-16	3.756148E-18
7.249673E+03	3.960984E-16	3.743888E-18
7.259457E+03	3.946369E-16	3.731230E-18
7.269241E+03	3.931360E-16	3.718189E-18
7.279024E+03	3.916057E-16	3.704863E-18
7.288808E+03	3.900562E-16	3.691345E-18
7.298592E+03	3.884805E-16	3.677569E-18
7.308375E+03	3.868971E-16	3.663711E-18
7.318159E+03	3.853074E-16	3.649783E-18
7.327943E+03	3.837296E-16	3.635959E-18
7.337726E+03	3.821564E-16	3.622169E-18
7.347510E+03	3.806060E-16	3.608586E-18
7.357293E+03	3.790795E-16	3.595218E-18
7.367077E+03	3.775775E-16	3.582075E-18
7.376861E+03	3.761094E-16	3.569245E-18
7.386644E+03	3.746672E-16	3.556650E-18
7.396428E+03	3.732679E-16	3.544455E-18
7.406212E+03	3.719032E-16	3.532579E-18
7.415995E+03	3.705730E-16	3.521023E-18
7.425779E+03	3.692852E-16	3.509861E-18
7.435563E+03	3.680391E-16	3.499087E-18
7.445346E+03	3.668339E-16	3.488695E-18
7.455130E+03	3.656601E-16	3.478594E-18
7.464913E+03	3.645333E-16	3.468934E-18
7.474697E+03	3.634355E-16	3.459542E-18
7.484481E+03	3.623822E-16	3.450567E-18
7.494264E+03	3.613556E-16	3.441839E-18
7.504048E+03	3.603712E-16	3.433507E-18
7.513832E+03	3.594112E-16	3.425401E-18
7.523615E+03	3.584916E-16	3.417675E-18
7.533399E+03	3.576034E-16	3.410242E-18
7.543183E+03	3.567462E-16	3.403099E-18
7.552966E+03	3.559112E-16	3.396163E-18
7.562750E+03	3.551152E-16	3.389593E-18
7.572533E+03	3.543500E-16	3.383312E-18
7.582317E+03	3.536155E-16	3.377320E-18
7.592101E+03	3.529038E-16	3.371540E-18
