#wls	flux	fluxerr
1.565382E+03	2.161394E-16	3.736517E-18
1.604516E+03	2.262164E-16	3.906890E-18
1.643651E+03	2.367391E-16	4.084511E-18
1.682785E+03	2.477532E-16	4.270129E-18
1.721920E+03	2.592198E-16	4.463033E-18
1.761054E+03	2.711325E-16	4.663070E-18
1.800189E+03	2.833868E-16	4.868403E-18
1.839323E+03	2.958819E-16	5.077261E-18
1.878458E+03	3.084506E-16	5.286745E-18
1.917592E+03	3.209066E-16	5.493644E-18
1.956727E+03	3.330680E-16	5.694830E-18
1.995862E+03	3.450005E-16	5.891428E-18
2.034996E+03	3.571509E-16	6.091048E-18
2.074131E+03	3.704322E-16	6.309205E-18
2.113265E+03	3.861316E-16	6.567698E-18
2.152400E+03	4.053187E-16	6.884494E-18
2.191534E+03	4.283271E-16	7.264977E-18
2.230669E+03	4.547108E-16	7.701274E-18
2.269803E+03	4.835145E-16	8.176935E-18
2.308938E+03	5.139457E-16	8.678344E-18
2.348072E+03	5.454107E-16	9.195312E-18
2.387207E+03	5.775765E-16	9.722099E-18
2.426341E+03	6.103854E-16	1.025762E-17
2.465476E+03	6.438366E-16	1.080174E-17
2.504611E+03	6.779376E-16	1.135449E-17
2.543745E+03	7.127931E-16	1.191748E-17
2.582880E+03	7.483653E-16	1.248996E-17
2.622014E+03	7.846466E-16	1.307167E-17
2.661149E+03	8.214958E-16	1.366013E-17
2.700283E+03	8.588230E-16	1.425373E-17
2.739418E+03	8.964028E-16	1.484862E-17
2.778552E+03	9.340385E-16	1.544145E-17
2.817687E+03	9.715365E-16	1.602895E-17
2.856821E+03	1.008734E-15	1.660839E-17
2.895956E+03	1.045526E-15	1.717800E-17
2.935090E+03	1.081860E-15	1.773691E-17
2.944874E+03	1.090859E-15	1.787474E-17
2.954658E+03	1.099837E-15	1.801204E-17
2.964441E+03	1.108765E-15	1.814831E-17
2.974225E+03	1.117688E-15	1.828430E-17
2.984009E+03	1.126584E-15	1.841965E-17
2.993792E+03	1.135458E-15	1.855442E-17
3.003576E+03	1.144298E-15	1.868845E-17
3.013360E+03	1.153148E-15	1.882241E-17
3.023143E+03	1.161948E-15	1.895538E-17
3.032927E+03	1.170749E-15	1.908814E-17
3.042710E+03	1.179496E-15	1.921983E-17
3.052494E+03	1.188247E-15	1.935137E-17
3.062278E+03	1.196992E-15	1.948260E-17
3.072061E+03	1.205719E-15	1.961333E-17
3.081845E+03	1.214416E-15	1.974338E-17
3.091629E+03	1.223099E-15	1.987296E-17
3.101412E+03	1.231732E-15	2.000155E-17
3.111196E+03	1.240331E-15	2.012936E-17
3.120980E+03	1.248885E-15	2.025625E-17
3.130763E+03	1.257386E-15	2.038205E-17
3.140547E+03	1.265849E-15	2.050703E-17
3.150330E+03	1.274221E-15	2.063032E-17
3.160114E+03	1.282560E-15	2.075288E-17
3.169898E+03	1.290794E-15	2.087354E-17
3.179681E+03	1.298983E-15	2.099325E-17
3.189465E+03	1.307076E-15	2.111121E-17
3.199249E+03	1.315089E-15	2.122767E-17
3.209032E+03	1.323018E-15	2.134256E-17
3.218816E+03	1.330836E-15	2.145547E-17
3.228600E+03	1.338581E-15	2.156699E-17
3.238383E+03	1.346209E-15	2.167642E-17
3.248167E+03	1.353715E-15	2.178370E-17
3.257950E+03	1.361138E-15	2.188944E-17
3.267734E+03	1.368436E-15	2.199297E-17
3.277518E+03	1.375606E-15	2.209426E-17
3.287301E+03	1.382650E-15	2.219332E-17
3.297085E+03	1.389585E-15	2.229045E-17
3.306869E+03	1.396374E-15	2.238504E-17
3.316652E+03	1.403018E-15	2.247713E-17
3.326436E+03	1.409538E-15	2.256705E-17
3.336220E+03	1.415917E-15	2.265453E-17
3.346003E+03	1.422159E-15	2.273963E-17
3.355787E+03	1.428230E-15	2.282183E-17
3.365570E+03	1.434154E-15	2.290152E-17
3.375354E+03	1.439937E-15	2.297877E-17
3.385138E+03	1.445550E-15	2.305314E-17
3.394921E+03	1.450999E-15	2.312474E-17
3.404705E+03	1.456275E-15	2.319342E-17
3.414489E+03	1.461405E-15	2.325961E-17
3.424272E+03	1.466346E-15	2.332265E-17
3.434056E+03	1.471127E-15	2.338299E-17
3.443839E+03	1.475724E-15	2.344026E-17
3.453623E+03	1.480134E-15	2.349441E-17
3.463407E+03	1.484352E-15	2.354538E-17
3.473190E+03	1.488360E-15	2.359288E-17
3.482974E+03	1.492172E-15	2.363715E-17
3.492758E+03	1.495756E-15	2.367768E-17
3.502541E+03	1.499110E-15	2.371445E-17
3.512325E+03	1.502253E-15	2.374776E-17
3.522109E+03	1.505168E-15	2.377737E-17
3.531892E+03	1.507858E-15	2.380331E-17
3.541676E+03	1.510310E-15	2.382540E-17
3.551459E+03	1.512509E-15	2.384341E-17
3.561243E+03	1.514460E-15	2.385741E-17
3.571027E+03	1.516135E-15	2.386698E-17
3.580810E+03	1.517551E-15	2.387241E-17
3.590594E+03	1.518684E-15	2.387330E-17
3.600378E+03	1.519533E-15	2.386969E-17
3.610161E+03	1.520117E-15	2.386184E-17
3.619945E+03	1.520409E-15	2.384936E-17
3.629729E+03	1.520409E-15	2.383226E-17
3.639512E+03	1.520145E-15	2.381099E-17
3.649296E+03	1.519601E-15	2.378530E-17
3.659079E+03	1.518776E-15	2.375520E-17
3.668863E+03	1.517693E-15	2.372105E-17
3.678647E+03	1.516335E-15	2.368257E-17
3.688430E+03	1.514707E-15	2.363990E-17
3.698214E+03	1.512831E-15	2.359335E-17
3.707998E+03	1.510697E-15	2.354280E-17
3.717781E+03	1.508308E-15	2.348830E-17
3.727565E+03	1.505670E-15	2.342993E-17
3.737349E+03	1.502782E-15	2.336772E-17
3.747132E+03	1.499659E-15	2.330189E-17
3.756916E+03	1.496290E-15	2.323227E-17
3.766699E+03	1.492687E-15	2.315907E-17
3.776483E+03	1.488862E-15	2.308249E-17
3.786267E+03	1.484803E-15	2.300236E-17
3.796050E+03	1.480512E-15	2.291869E-17
3.805834E+03	1.476013E-15	2.283188E-17
3.815618E+03	1.471307E-15	2.274196E-17
3.825401E+03	1.466385E-15	2.264877E-17
3.835185E+03	1.461271E-15	2.255273E-17
3.844969E+03	1.455981E-15	2.245406E-17
3.854752E+03	1.450494E-15	2.235245E-17
3.864536E+03	1.444835E-15	2.224832E-17
3.874319E+03	1.439019E-15	2.214188E-17
3.884103E+03	1.433051E-15	2.203322E-17
3.893887E+03	1.426919E-15	2.192217E-17
3.903670E+03	1.420662E-15	2.180932E-17
3.913454E+03	1.414269E-15	2.169452E-17
3.923238E+03	1.407741E-15	2.157779E-17
3.933021E+03	1.401102E-15	2.145950E-17
3.942805E+03	1.394340E-15	2.133947E-17
3.952589E+03	1.387477E-15	2.121803E-17
3.962372E+03	1.380489E-15	2.109486E-17
3.972156E+03	1.373408E-15	2.097041E-17
3.981939E+03	1.366223E-15	2.084453E-17
3.991723E+03	1.358931E-15	2.071719E-17
4.001507E+03	1.351555E-15	2.058873E-17
4.011290E+03	1.344073E-15	2.045883E-17
4.021074E+03	1.336517E-15	2.032798E-17
4.030858E+03	1.328869E-15	2.019590E-17
4.040641E+03	1.321142E-15	2.006280E-17
4.050425E+03	1.313351E-15	1.992892E-17
4.060208E+03	1.305491E-15	1.979417E-17
4.069992E+03	1.297579E-15	1.965883E-17
4.079776E+03	1.289624E-15	1.952301E-17
4.089559E+03	1.281625E-15	1.938673E-17
4.099343E+03	1.273612E-15	1.925043E-17
4.109127E+03	1.265578E-15	1.911400E-17
4.118910E+03	1.257554E-15	1.897793E-17
4.128694E+03	1.249535E-15	1.884212E-17
4.138478E+03	1.241543E-15	1.870693E-17
4.148261E+03	1.233596E-15	1.857261E-17
4.158045E+03	1.225686E-15	1.843904E-17
4.167828E+03	1.217850E-15	1.830679E-17
4.177612E+03	1.210093E-15	1.817591E-17
4.187396E+03	1.202420E-15	1.804649E-17
4.197179E+03	1.194836E-15	1.791860E-17
4.206963E+03	1.187363E-15	1.779257E-17
4.216747E+03	1.180016E-15	1.766862E-17
4.226530E+03	1.172778E-15	1.754648E-17
4.236314E+03	1.165677E-15	1.742660E-17
4.246098E+03	1.158695E-15	1.730867E-17
4.255881E+03	1.151861E-15	1.719313E-17
4.265665E+03	1.145160E-15	1.707974E-17
4.275448E+03	1.138606E-15	1.696875E-17
4.285232E+03	1.132214E-15	1.686031E-17
4.295016E+03	1.125991E-15	1.675458E-17
4.304799E+03	1.119946E-15	1.665165E-17
4.314583E+03	1.114089E-15	1.655168E-17
4.324367E+03	1.108432E-15	1.645484E-17
4.334150E+03	1.102975E-15	1.636111E-17
4.343934E+03	1.097728E-15	1.627064E-17
4.353718E+03	1.092682E-15	1.618330E-17
4.363501E+03	1.087857E-15	1.609937E-17
4.373285E+03	1.083245E-15	1.601870E-17
4.383068E+03	1.078846E-15	1.594134E-17
4.392852E+03	1.074664E-15	1.586728E-17
4.402636E+03	1.070698E-15	1.579655E-17
4.412419E+03	1.066952E-15	1.572917E-17
4.422203E+03	1.063426E-15	1.566514E-17
4.431987E+03	1.060103E-15	1.560421E-17
4.441770E+03	1.057002E-15	1.554663E-17
4.451554E+03	1.054102E-15	1.549211E-17
4.461338E+03	1.051401E-15	1.544061E-17
4.471121E+03	1.048886E-15	1.539194E-17
4.480905E+03	1.046563E-15	1.534616E-17
4.490688E+03	1.044417E-15	1.530304E-17
4.500472E+03	1.042423E-15	1.526225E-17
4.510256E+03	1.040593E-15	1.522391E-17
4.520039E+03	1.038899E-15	1.518764E-17
4.529823E+03	1.037326E-15	1.515321E-17
4.539607E+03	1.035875E-15	1.512063E-17
4.549390E+03	1.034539E-15	1.508978E-17
4.559174E+03	1.033281E-15	1.506014E-17
4.568958E+03	1.032116E-15	1.503190E-17
4.578741E+03	1.031027E-15	1.500485E-17
4.588525E+03	1.030000E-15	1.497876E-17
4.598308E+03	1.029033E-15	1.495358E-17
4.608092E+03	1.028112E-15	1.492914E-17
4.617876E+03	1.027236E-15	1.490542E-17
4.627659E+03	1.026378E-15	1.488201E-17
4.637443E+03	1.025538E-15	1.485891E-17
4.647227E+03	1.024719E-15	1.483619E-17
4.657010E+03	1.023886E-15	1.481332E-17
4.666794E+03	1.023054E-15	1.479052E-17
4.676577E+03	1.022209E-15	1.476760E-17
4.686361E+03	1.021339E-15	1.474437E-17
4.696145E+03	1.020460E-15	1.472108E-17
4.705928E+03	1.019541E-15	1.469728E-17
4.715712E+03	1.018611E-15	1.467339E-17
4.725496E+03	1.017638E-15	1.464894E-17
4.735279E+03	1.016641E-15	1.462422E-17
4.745063E+03	1.015598E-15	1.459891E-17
4.754847E+03	1.014529E-15	1.457330E-17
4.764630E+03	1.013410E-15	1.454704E-17
4.774414E+03	1.012248E-15	1.452025E-17
4.784197E+03	1.011041E-15	1.449289E-17
4.793981E+03	1.009775E-15	1.446476E-17
4.803765E+03	1.008445E-15	1.443579E-17
4.813548E+03	1.007047E-15	1.440594E-17
4.823332E+03	1.005585E-15	1.437526E-17
4.833116E+03	1.004035E-15	1.434340E-17
4.842899E+03	1.002412E-15	1.431060E-17
4.852683E+03	1.000691E-15	1.427649E-17
4.862467E+03	9.988794E-16	1.424119E-17
4.872250E+03	9.969649E-16	1.420452E-17
4.882034E+03	9.949453E-16	1.416645E-17
4.891817E+03	9.928213E-16	1.412700E-17
4.901601E+03	9.906035E-16	1.408633E-17
4.911385E+03	9.882728E-16	1.404416E-17
4.921168E+03	9.858421E-16	1.400068E-17
4.930952E+03	9.833049E-16	1.395581E-17
4.940736E+03	9.806734E-16	1.390972E-17
4.950519E+03	9.779417E-16	1.386232E-17
4.960303E+03	9.751030E-16	1.381354E-17
4.970087E+03	9.721696E-16	1.376354E-17
4.979870E+03	9.691458E-16	1.371238E-17
4.989654E+03	9.660229E-16	1.365996E-17
4.999437E+03	9.627951E-16	1.360619E-17
5.009221E+03	9.594832E-16	1.355136E-17
5.019005E+03	9.560719E-16	1.349527E-17
5.028788E+03	9.525646E-16	1.343796E-17
5.038572E+03	9.489645E-16	1.337948E-17
5.048356E+03	9.452773E-16	1.331992E-17
5.058139E+03	9.414997E-16	1.325923E-17
5.067923E+03	9.376475E-16	1.319764E-17
5.077707E+03	9.337097E-16	1.313500E-17
5.087490E+03	9.297039E-16	1.307155E-17
5.097274E+03	9.256217E-16	1.300717E-17
5.107057E+03	9.214915E-16	1.294228E-17
5.116841E+03	9.173032E-16	1.287672E-17
5.126625E+03	9.130787E-16	1.281081E-17
5.136408E+03	9.088087E-16	1.274442E-17
5.146192E+03	9.045134E-16	1.267783E-17
5.155976E+03	9.002020E-16	1.261117E-17
5.165759E+03	8.958654E-16	1.254432E-17
5.175543E+03	8.915136E-16	1.247741E-17
5.185327E+03	8.871635E-16	1.241069E-17
5.195110E+03	8.828136E-16	1.234412E-17
5.204894E+03	8.784629E-16	1.227770E-17
5.214677E+03	8.741174E-16	1.221152E-17
5.224461E+03	8.697848E-16	1.214567E-17
5.234245E+03	8.654702E-16	1.208023E-17
5.244028E+03	8.611720E-16	1.201518E-17
5.253812E+03	8.569046E-16	1.195072E-17
5.263596E+03	8.526664E-16	1.188682E-17
5.273379E+03	8.484718E-16	1.182369E-17
5.283163E+03	8.443202E-16	1.176131E-17
5.292946E+03	8.402357E-16	1.170002E-17
5.302730E+03	8.362341E-16	1.164004E-17
5.312514E+03	8.323147E-16	1.158136E-17
5.322297E+03	8.285101E-16	1.152442E-17
5.332081E+03	8.248279E-16	1.146935E-17
5.341865E+03	8.212421E-16	1.141576E-17
5.351648E+03	8.177846E-16	1.136409E-17
5.361432E+03	8.144451E-16	1.131421E-17
5.371216E+03	8.112135E-16	1.126597E-17
5.380999E+03	8.080863E-16	1.121931E-17
5.390783E+03	8.050493E-16	1.117403E-17
5.400566E+03	8.020875E-16	1.112993E-17
5.410350E+03	7.992007E-16	1.108700E-17
5.420134E+03	7.963716E-16	1.104499E-17
5.429917E+03	7.936057E-16	1.100398E-17
5.439701E+03	7.908988E-16	1.096391E-17
5.449485E+03	7.882377E-16	1.092459E-17
5.459268E+03	7.856240E-16	1.088604E-17
5.469052E+03	7.830504E-16	1.084817E-17
5.478836E+03	7.805090E-16	1.081085E-17
5.488619E+03	7.779991E-16	1.077408E-17
5.498403E+03	7.755123E-16	1.073774E-17
5.508186E+03	7.730397E-16	1.070170E-17
5.517970E+03	7.705811E-16	1.066596E-17
5.527754E+03	7.681282E-16	1.063041E-17
5.537537E+03	7.656817E-16	1.059504E-17
5.547321E+03	7.632347E-16	1.055977E-17
5.557105E+03	7.607811E-16	1.052451E-17
5.566888E+03	7.583233E-16	1.048929E-17
5.576672E+03	7.558566E-16	1.045404E-17
5.586456E+03	7.533773E-16	1.041871E-17
5.596239E+03	7.508895E-16	1.038336E-17
5.606023E+03	7.483906E-16	1.034795E-17
5.615806E+03	7.458862E-16	1.031255E-17
5.625590E+03	7.433665E-16	1.027703E-17
5.635374E+03	7.408460E-16	1.024159E-17
5.645157E+03	7.383161E-16	1.020611E-17
5.654941E+03	7.357760E-16	1.017057E-17
5.664725E+03	7.332415E-16	1.013520E-17
5.674508E+03	7.306971E-16	1.009977E-17
5.684292E+03	7.281590E-16	1.006451E-17
5.694076E+03	7.256283E-16	1.002943E-17
5.703859E+03	7.231063E-16	9.994549E-18
5.713643E+03	7.205866E-16	9.959783E-18
5.723426E+03	7.180866E-16	9.925366E-18
5.733210E+03	7.156007E-16	9.891219E-18
5.742994E+03	7.131384E-16	9.857474E-18
5.752777E+03	7.107017E-16	9.824157E-18
5.762561E+03	7.082845E-16	9.791181E-18
5.772345E+03	7.058957E-16	9.758670E-18
5.782128E+03	7.035438E-16	9.726740E-18
5.791912E+03	7.012129E-16	9.695171E-18
5.801696E+03	6.989099E-16	9.664057E-18
5.811479E+03	6.966327E-16	9.633367E-18
5.821263E+03	6.943863E-16	9.603170E-18
5.831046E+03	6.921511E-16	9.573195E-18
5.840830E+03	6.899379E-16	9.543589E-18
5.850614E+03	6.877260E-16	9.514066E-18
5.860397E+03	6.855175E-16	9.484653E-18
5.870181E+03	6.833065E-16	9.455270E-18
5.879965E+03	6.810799E-16	9.425731E-18
5.889748E+03	6.788402E-16	9.396073E-18
5.899532E+03	6.765676E-16	9.366020E-18
5.909315E+03	6.742744E-16	9.335741E-18
5.919099E+03	6.719348E-16	9.304879E-18
5.928883E+03	6.695635E-16	9.273634E-18
5.938666E+03	6.671451E-16	9.241794E-18
5.948450E+03	6.646889E-16	9.209486E-18
5.958234E+03	6.621818E-16	9.176526E-18
5.968017E+03	6.596275E-16	9.142966E-18
5.977801E+03	6.570226E-16	9.108757E-18
5.987585E+03	6.543724E-16	9.073971E-18
5.997368E+03	6.516668E-16	9.038467E-18
6.007152E+03	6.489043E-16	9.002222E-18
6.016935E+03	6.460910E-16	8.965320E-18
6.026719E+03	6.432253E-16	8.927739E-18
6.036503E+03	6.402898E-16	8.889233E-18
6.046286E+03	6.372904E-16	8.849884E-18
6.056070E+03	6.342244E-16	8.809653E-18
6.065854E+03	6.310970E-16	8.768611E-18
6.075637E+03	6.279204E-16	8.726925E-18
6.085421E+03	6.247065E-16	8.684758E-18
6.095205E+03	6.214743E-16	8.642376E-18
6.104988E+03	6.182584E-16	8.600257E-18
6.114772E+03	6.150690E-16	8.558543E-18
6.124555E+03	6.119083E-16	8.517262E-18
6.134339E+03	6.088095E-16	8.476879E-18
6.144123E+03	6.057817E-16	8.437520E-18
6.153906E+03	6.028183E-16	8.399092E-18
6.163690E+03	5.999516E-16	8.362046E-18
6.173474E+03	5.971664E-16	8.326169E-18
6.183257E+03	5.944865E-16	8.291797E-18
6.193041E+03	5.919042E-16	8.258822E-18
6.202825E+03	5.894271E-16	8.227348E-18
6.212608E+03	5.870544E-16	8.197370E-18
6.222392E+03	5.847850E-16	8.168869E-18
6.232175E+03	5.826174E-16	8.141829E-18
6.241959E+03	5.805412E-16	8.116103E-18
6.251743E+03	5.785456E-16	8.091542E-18
6.261526E+03	5.766352E-16	8.068213E-18
6.271310E+03	5.747895E-16	8.045825E-18
6.281094E+03	5.730117E-16	8.024424E-18
6.290877E+03	5.712878E-16	8.003815E-18
6.300661E+03	5.696114E-16	7.983906E-18
6.310445E+03	5.679835E-16	7.964712E-18
6.320228E+03	5.664135E-16	7.946361E-18
6.330012E+03	5.648930E-16	7.928739E-18
6.339795E+03	5.634222E-16	7.911847E-18
6.349579E+03	5.620012E-16	7.895684E-18
6.359363E+03	5.606127E-16	7.880010E-18
6.369146E+03	5.592654E-16	7.864944E-18
6.378930E+03	5.579512E-16	7.850372E-18
6.388714E+03	5.566535E-16	7.836060E-18
6.398497E+03	5.553793E-16	7.822107E-18
6.408281E+03	5.541066E-16	7.808200E-18
6.418065E+03	5.528134E-16	7.794030E-18
6.427848E+03	5.515055E-16	7.779675E-18
6.437632E+03	5.501632E-16	7.764856E-18
6.447415E+03	5.487773E-16	7.749444E-18
6.457199E+03	5.473486E-16	7.733444E-18
6.466983E+03	5.458528E-16	7.716512E-18
6.476766E+03	5.442841E-16	7.698564E-18
6.486550E+03	5.426563E-16	7.679792E-18
6.496334E+03	5.409482E-16	7.659893E-18
6.506117E+03	5.391578E-16	7.638836E-18
6.515901E+03	5.372928E-16	7.616727E-18
6.525684E+03	5.353443E-16	7.593437E-18
6.535468E+03	5.333129E-16	7.568969E-18
6.545252E+03	5.312090E-16	7.543473E-18
6.555035E+03	5.290174E-16	7.516724E-18
6.564819E+03	5.267410E-16	7.488763E-18
6.574603E+03	5.244022E-16	7.459906E-18
6.584386E+03	5.219875E-16	7.429957E-18
6.594170E+03	5.195025E-16	7.398993E-18
6.603954E+03	5.169622E-16	7.367225E-18
6.613737E+03	5.143643E-16	7.334618E-18
6.623521E+03	5.117158E-16	7.301269E-18
6.633304E+03	5.090241E-16	7.267281E-18
6.643088E+03	5.062967E-16	7.232760E-18
6.652872E+03	5.035327E-16	7.197690E-18
6.662655E+03	5.007488E-16	7.162308E-18
6.672439E+03	4.979529E-16	7.126727E-18
6.682223E+03	4.951440E-16	7.090930E-18
6.692006E+03	4.923385E-16	7.055153E-18
6.701790E+03	4.895352E-16	7.019375E-18
6.711574E+03	4.867412E-16	6.983699E-18
6.721357E+03	4.839636E-16	6.948224E-18
6.731141E+03	4.812001E-16	6.912920E-18
6.740924E+03	4.784749E-16	6.878131E-18
6.750708E+03	4.757851E-16	6.843818E-18
6.760492E+03	4.731272E-16	6.809931E-18
6.770275E+03	4.705154E-16	6.776673E-18
6.780059E+03	4.679454E-16	6.743985E-18
6.789843E+03	4.654217E-16	6.711929E-18
6.799626E+03	4.629570E-16	6.680690E-18
6.809410E+03	4.605457E-16	6.650189E-18
6.819194E+03	4.581910E-16	6.620474E-18
6.828977E+03	4.558956E-16	6.591583E-18
6.838761E+03	4.536616E-16	6.563550E-18
6.848544E+03	4.514822E-16	6.536275E-18
6.858328E+03	4.493764E-16	6.510035E-18
6.868112E+03	4.473277E-16	6.484593E-18
6.877895E+03	4.453369E-16	6.459961E-18
6.887679E+03	4.434129E-16	6.436270E-18
6.897463E+03	4.415469E-16	6.413394E-18
6.907246E+03	4.397383E-16	6.391323E-18
6.917030E+03	4.379860E-16	6.370046E-18
6.926814E+03	4.362886E-16	6.349542E-18
6.936597E+03	4.346530E-16	6.329911E-18
6.946381E+03	4.330593E-16	6.310867E-18
6.956164E+03	4.315048E-16	6.292370E-18
6.965948E+03	4.299949E-16	6.274500E-18
6.975732E+03	4.285261E-16	6.257208E-18
6.985515E+03	4.270859E-16	6.240310E-18
6.995299E+03	4.256791E-16	6.223877E-18
7.005083E+03	4.242837E-16	6.207590E-18
7.014866E+03	4.229132E-16	6.191644E-18
7.024650E+03	4.215544E-16	6.175848E-18
7.034434E+03	4.202034E-16	6.160143E-18
7.044217E+03	4.188477E-16	6.144347E-18
7.054001E+03	4.175010E-16	6.128662E-18
7.063784E+03	4.161433E-16	6.112791E-18
7.073568E+03	4.147804E-16	6.096822E-18
7.083352E+03	4.134021E-16	6.080602E-18
7.093135E+03	4.120157E-16	6.064237E-18
7.102919E+03	4.106117E-16	6.047590E-18
7.112703E+03	4.091901E-16	6.030658E-18
7.122486E+03	4.077599E-16	6.013574E-18
7.132270E+03	4.063134E-16	5.996224E-18
7.142053E+03	4.048605E-16	5.978753E-18
7.151837E+03	4.033858E-16	5.960932E-18
7.161621E+03	4.018995E-16	5.942913E-18
7.171404E+03	4.004126E-16	5.924856E-18
7.181188E+03	3.989099E-16	5.906539E-18
7.190972E+03	3.974022E-16	5.888118E-18
7.200755E+03	3.958833E-16	5.869503E-18
7.210539E+03	3.943638E-16	5.850851E-18
7.220323E+03	3.928375E-16	5.832067E-18
7.230106E+03	3.913063E-16	5.813183E-18
7.239890E+03	3.897722E-16	5.794225E-18
7.249673E+03	3.882285E-16	5.775096E-18
7.259457E+03	3.866771E-16	5.755820E-18
7.269241E+03	3.851195E-16	5.736423E-18
7.279024E+03	3.835575E-16	5.716930E-18
7.288808E+03	3.820011E-16	5.697490E-18
7.298592E+03	3.804432E-16	5.677996E-18
7.308375E+03	3.789021E-16	5.658723E-18
7.318159E+03	3.773791E-16	5.639691E-18
7.327943E+03	3.758755E-16	5.620918E-18
7.337726E+03	3.743923E-16	5.602420E-18
7.347510E+03	3.729304E-16	5.584213E-18
7.357293E+03	3.715078E-16	5.566565E-18
7.367077E+03	3.701080E-16	5.549231E-18
7.376861E+03	3.687403E-16	5.532351E-18
7.386644E+03	3.674051E-16	5.515930E-18
7.396428E+03	3.661110E-16	5.500103E-18
7.406212E+03	3.648414E-16	5.484616E-18
7.415995E+03	3.636047E-16	5.469598E-18
7.425779E+03	3.624005E-16	5.455047E-18
7.435563E+03	3.612372E-16	5.441087E-18
7.445346E+03	3.600973E-16	5.427456E-18
7.455130E+03	3.589971E-16	5.414401E-18
7.464913E+03	3.579277E-16	5.401788E-18
7.474697E+03	3.568796E-16	5.389477E-18
7.484481E+03	3.558693E-16	5.377716E-18
7.494264E+03	3.548874E-16	5.366364E-18
7.504048E+03	3.539333E-16	5.355413E-18
7.513832E+03	3.530063E-16	5.344852E-18
7.523615E+03	3.521057E-16	5.334676E-18
7.533399E+03	3.512311E-16	5.324873E-18
7.543183E+03	3.503904E-16	5.315568E-18
7.552966E+03	3.495662E-16	5.306497E-18
7.562750E+03	3.487753E-16	5.297915E-18
7.572533E+03	3.480087E-16	5.289689E-18
7.582317E+03	3.472664E-16	5.281816E-18
7.592101E+03	3.465481E-16	5.274292E-18
