#wls	flux	fluxerr
1.565382E+03	2.151865E-16	3.667983E-18
1.604516E+03	2.251919E-16	3.834747E-18
1.643651E+03	2.356379E-16	4.008574E-18
1.682785E+03	2.465698E-16	4.190193E-18
1.721920E+03	2.579486E-16	4.378900E-18
1.761054E+03	2.697677E-16	4.574544E-18
1.800189E+03	2.819229E-16	4.775316E-18
1.839323E+03	2.943136E-16	4.979476E-18
1.878458E+03	3.067736E-16	5.184181E-18
1.917592E+03	3.191174E-16	5.386280E-18
1.956727E+03	3.311639E-16	5.582705E-18
1.995862E+03	3.429789E-16	5.774560E-18
2.034996E+03	3.550062E-16	5.969306E-18
2.074131E+03	3.681532E-16	6.182142E-18
2.113265E+03	3.836985E-16	6.434415E-18
2.152400E+03	4.027035E-16	6.743706E-18
2.191534E+03	4.254983E-16	7.115260E-18
2.230669E+03	4.516377E-16	7.541333E-18
2.269803E+03	4.801718E-16	8.005798E-18
2.308938E+03	5.103123E-16	8.495300E-18
2.348072E+03	5.414692E-16	8.999860E-18
2.387207E+03	5.733116E-16	9.513850E-18
2.426341E+03	6.057819E-16	1.003621E-17
2.465476E+03	6.388793E-16	1.056680E-17
2.504611E+03	6.726113E-16	1.110565E-17
2.543745E+03	7.070817E-16	1.165435E-17
2.582880E+03	7.422533E-16	1.221216E-17
2.622014E+03	7.781190E-16	1.277883E-17
2.661149E+03	8.145396E-16	1.335195E-17
2.700283E+03	8.514257E-16	1.392995E-17
2.739418E+03	8.885558E-16	1.450909E-17
2.778552E+03	9.257360E-16	1.508612E-17
2.817687E+03	9.627770E-16	1.565789E-17
2.856821E+03	9.995199E-16	1.622177E-17
2.895956E+03	1.035863E-15	1.677607E-17
2.935090E+03	1.071757E-15	1.731997E-17
2.944874E+03	1.080648E-15	1.745411E-17
2.954658E+03	1.089520E-15	1.758776E-17
2.964441E+03	1.098342E-15	1.772039E-17
2.974225E+03	1.107160E-15	1.785277E-17
2.984009E+03	1.115952E-15	1.798454E-17
2.993792E+03	1.124723E-15	1.811575E-17
3.003576E+03	1.133462E-15	1.824626E-17
3.013360E+03	1.142212E-15	1.837672E-17
3.023143E+03	1.150913E-15	1.850623E-17
3.032927E+03	1.159617E-15	1.863555E-17
3.042710E+03	1.168268E-15	1.876384E-17
3.052494E+03	1.176925E-15	1.889202E-17
3.062278E+03	1.185578E-15	1.901992E-17
3.072061E+03	1.194214E-15	1.914734E-17
3.081845E+03	1.202823E-15	1.927414E-17
3.091629E+03	1.211419E-15	1.940051E-17
3.101412E+03	1.219968E-15	1.952594E-17
3.111196E+03	1.228485E-15	1.965063E-17
3.120980E+03	1.236960E-15	1.977445E-17
3.130763E+03	1.245386E-15	1.989728E-17
3.140547E+03	1.253775E-15	2.001932E-17
3.150330E+03	1.262077E-15	2.013976E-17
3.160114E+03	1.270349E-15	2.025952E-17
3.169898E+03	1.278521E-15	2.037747E-17
3.179681E+03	1.286650E-15	2.049454E-17
3.189465E+03	1.294687E-15	2.060995E-17
3.199249E+03	1.302649E-15	2.072395E-17
3.209032E+03	1.310530E-15	2.083646E-17
3.218816E+03	1.318306E-15	2.094710E-17
3.228600E+03	1.326013E-15	2.105644E-17
3.238383E+03	1.333607E-15	2.116379E-17
3.248167E+03	1.341084E-15	2.126909E-17
3.257950E+03	1.348484E-15	2.137297E-17
3.267734E+03	1.355763E-15	2.147474E-17
3.277518E+03	1.362921E-15	2.157441E-17
3.287301E+03	1.369958E-15	2.167196E-17
3.297085E+03	1.376891E-15	2.176768E-17
3.306869E+03	1.383685E-15	2.186101E-17
3.316652E+03	1.390339E-15	2.195196E-17
3.326436E+03	1.396875E-15	2.204086E-17
3.336220E+03	1.403278E-15	2.212747E-17
3.346003E+03	1.409548E-15	2.221182E-17
3.355787E+03	1.415656E-15	2.229343E-17
3.365570E+03	1.421623E-15	2.237265E-17
3.375354E+03	1.427455E-15	2.244958E-17
3.385138E+03	1.433123E-15	2.252376E-17
3.394921E+03	1.438634E-15	2.259532E-17
3.404705E+03	1.443980E-15	2.266411E-17
3.414489E+03	1.449185E-15	2.273055E-17
3.424272E+03	1.454210E-15	2.279399E-17
3.434056E+03	1.459080E-15	2.285488E-17
3.443839E+03	1.463774E-15	2.291284E-17
3.453623E+03	1.468287E-15	2.296783E-17
3.463407E+03	1.472617E-15	2.301981E-17
3.473190E+03	1.476742E-15	2.306847E-17
3.482974E+03	1.480679E-15	2.311405E-17
3.492758E+03	1.484394E-15	2.315604E-17
3.502541E+03	1.487887E-15	2.319445E-17
3.512325E+03	1.491175E-15	2.322953E-17
3.522109E+03	1.494242E-15	2.326108E-17
3.531892E+03	1.497091E-15	2.328911E-17
3.541676E+03	1.499707E-15	2.331342E-17
3.551459E+03	1.502078E-15	2.333383E-17
3.561243E+03	1.504206E-15	2.335036E-17
3.571027E+03	1.506064E-15	2.336262E-17
3.580810E+03	1.507670E-15	2.337089E-17
3.590594E+03	1.508997E-15	2.337476E-17
3.600378E+03	1.510047E-15	2.337429E-17
3.610161E+03	1.510837E-15	2.336972E-17
3.619945E+03	1.511340E-15	2.336066E-17
3.629729E+03	1.511554E-15	2.334709E-17
3.639512E+03	1.511510E-15	2.332949E-17
3.649296E+03	1.511190E-15	2.330760E-17
3.659079E+03	1.510593E-15	2.328141E-17
3.668863E+03	1.509740E-15	2.325126E-17
3.678647E+03	1.508615E-15	2.321690E-17
3.688430E+03	1.507223E-15	2.317843E-17
3.698214E+03	1.505583E-15	2.313615E-17
3.707998E+03	1.503688E-15	2.308995E-17
3.717781E+03	1.501539E-15	2.303987E-17
3.727565E+03	1.499139E-15	2.298597E-17
3.737349E+03	1.496490E-15	2.292826E-17
3.747132E+03	1.493605E-15	2.286698E-17
3.756916E+03	1.490472E-15	2.280193E-17
3.766699E+03	1.487103E-15	2.273331E-17
3.776483E+03	1.483510E-15	2.266134E-17
3.786267E+03	1.479682E-15	2.258582E-17
3.796050E+03	1.475617E-15	2.250676E-17
3.805834E+03	1.471342E-15	2.242456E-17
3.815618E+03	1.466858E-15	2.233926E-17
3.825401E+03	1.462154E-15	2.225069E-17
3.835185E+03	1.457258E-15	2.215928E-17
3.844969E+03	1.452183E-15	2.206525E-17
3.854752E+03	1.446910E-15	2.196830E-17
3.864536E+03	1.441464E-15	2.186883E-17
3.874319E+03	1.435863E-15	2.176712E-17
3.884103E+03	1.430108E-15	2.166320E-17
3.893887E+03	1.424191E-15	2.155694E-17
3.903670E+03	1.418150E-15	2.144893E-17
3.913454E+03	1.411976E-15	2.133903E-17
3.923238E+03	1.405670E-15	2.122727E-17
3.933021E+03	1.399255E-15	2.111399E-17
3.942805E+03	1.392719E-15	2.099904E-17
3.952589E+03	1.386086E-15	2.088275E-17
3.962372E+03	1.379330E-15	2.076477E-17
3.972156E+03	1.372483E-15	2.064558E-17
3.981939E+03	1.365534E-15	2.052498E-17
3.991723E+03	1.358480E-15	2.040298E-17
4.001507E+03	1.351342E-15	2.027988E-17
4.011290E+03	1.344099E-15	2.015536E-17
4.021074E+03	1.336783E-15	2.002991E-17
4.030858E+03	1.329374E-15	1.990324E-17
4.040641E+03	1.321885E-15	1.977555E-17
4.050425E+03	1.314331E-15	1.964706E-17
4.060208E+03	1.306707E-15	1.951770E-17
4.069992E+03	1.299028E-15	1.938771E-17
4.079776E+03	1.291305E-15	1.925723E-17
4.089559E+03	1.283535E-15	1.912624E-17
4.099343E+03	1.275748E-15	1.899519E-17
4.109127E+03	1.267936E-15	1.886396E-17
4.118910E+03	1.260132E-15	1.873303E-17
4.128694E+03	1.252329E-15	1.860230E-17
4.138478E+03	1.244550E-15	1.847212E-17
4.148261E+03	1.236809E-15	1.834270E-17
4.158045E+03	1.229102E-15	1.821398E-17
4.167828E+03	1.221463E-15	1.808646E-17
4.177612E+03	1.213897E-15	1.796021E-17
4.187396E+03	1.206410E-15	1.783531E-17
4.197179E+03	1.199004E-15	1.771179E-17
4.206963E+03	1.191703E-15	1.759003E-17
4.216747E+03	1.184520E-15	1.747018E-17
4.226530E+03	1.177437E-15	1.735199E-17
4.236314E+03	1.170482E-15	1.723589E-17
4.246098E+03	1.163638E-15	1.712157E-17
4.255881E+03	1.156927E-15	1.700941E-17
4.265665E+03	1.150339E-15	1.689922E-17
4.275448E+03	1.143885E-15	1.679118E-17
4.285232E+03	1.137579E-15	1.668546E-17
4.295016E+03	1.131428E-15	1.658220E-17
4.304799E+03	1.125439E-15	1.648148E-17
4.314583E+03	1.119626E-15	1.638347E-17
4.324367E+03	1.113997E-15	1.628832E-17
4.334150E+03	1.108554E-15	1.619604E-17
4.343934E+03	1.103308E-15	1.610679E-17
4.353718E+03	1.098252E-15	1.602044E-17
4.363501E+03	1.093405E-15	1.593728E-17
4.373285E+03	1.088760E-15	1.585720E-17
4.383068E+03	1.084320E-15	1.578023E-17
4.392852E+03	1.080089E-15	1.570642E-17
4.402636E+03	1.076068E-15	1.563580E-17
4.412419E+03	1.072262E-15	1.556840E-17
4.422203E+03	1.068673E-15	1.550427E-17
4.431987E+03	1.065284E-15	1.544314E-17
4.441770E+03	1.062115E-15	1.538530E-17
4.451554E+03	1.059146E-15	1.533046E-17
4.461338E+03	1.056378E-15	1.527861E-17
4.471121E+03	1.053795E-15	1.522954E-17
4.480905E+03	1.051406E-15	1.518334E-17
4.490688E+03	1.049194E-15	1.513980E-17
4.500472E+03	1.047135E-15	1.509853E-17
4.510256E+03	1.045240E-15	1.505970E-17
4.520039E+03	1.043484E-15	1.502295E-17
4.529823E+03	1.041848E-15	1.498800E-17
4.539607E+03	1.040334E-15	1.495487E-17
4.549390E+03	1.038935E-15	1.492345E-17
4.559174E+03	1.037614E-15	1.489323E-17
4.568958E+03	1.036385E-15	1.486438E-17
4.578741E+03	1.035232E-15	1.483668E-17
4.588525E+03	1.034140E-15	1.480992E-17
4.598308E+03	1.033106E-15	1.478406E-17
4.608092E+03	1.032117E-15	1.475890E-17
4.617876E+03	1.031173E-15	1.473445E-17
4.627659E+03	1.030245E-15	1.471028E-17
4.637443E+03	1.029334E-15	1.468641E-17
4.647227E+03	1.028444E-15	1.466291E-17
4.657010E+03	1.027540E-15	1.463926E-17
4.666794E+03	1.026635E-15	1.461567E-17
4.676577E+03	1.025718E-15	1.459198E-17
4.686361E+03	1.024777E-15	1.456799E-17
4.696145E+03	1.023827E-15	1.454396E-17
4.705928E+03	1.022840E-15	1.451945E-17
4.715712E+03	1.021842E-15	1.449488E-17
4.725496E+03	1.020805E-15	1.446980E-17
4.735279E+03	1.019744E-15	1.444447E-17
4.745063E+03	1.018641E-15	1.441861E-17
4.754847E+03	1.017514E-15	1.439249E-17
4.764630E+03	1.016341E-15	1.436579E-17
4.774414E+03	1.015128E-15	1.433861E-17
4.784197E+03	1.013872E-15	1.431089E-17
4.793981E+03	1.012559E-15	1.428247E-17
4.803765E+03	1.011185E-15	1.425326E-17
4.813548E+03	1.009743E-15	1.422318E-17
4.823332E+03	1.008239E-15	1.419231E-17
4.833116E+03	1.006647E-15	1.416030E-17
4.842899E+03	1.004981E-15	1.412733E-17
4.852683E+03	1.003217E-15	1.409309E-17
4.862467E+03	1.001360E-15	1.405763E-17
4.872250E+03	9.993974E-16	1.402081E-17
4.882034E+03	9.973291E-16	1.398260E-17
4.891817E+03	9.951530E-16	1.394299E-17
4.901601E+03	9.928806E-16	1.390213E-17
4.911385E+03	9.904943E-16	1.385980E-17
4.921168E+03	9.880056E-16	1.381614E-17
4.930952E+03	9.854093E-16	1.377111E-17
4.940736E+03	9.827179E-16	1.372486E-17
4.950519E+03	9.799245E-16	1.367731E-17
4.960303E+03	9.770248E-16	1.362840E-17
4.970087E+03	9.740296E-16	1.357829E-17
4.979870E+03	9.709422E-16	1.352703E-17
4.989654E+03	9.677548E-16	1.347450E-17
4.999437E+03	9.644616E-16	1.342064E-17
5.009221E+03	9.610833E-16	1.336573E-17
5.019005E+03	9.576031E-16	1.330955E-17
5.028788E+03	9.540243E-16	1.325213E-17
5.038572E+03	9.503517E-16	1.319356E-17
5.048356E+03	9.465896E-16	1.313388E-17
5.058139E+03	9.427335E-16	1.307306E-17
5.067923E+03	9.388011E-16	1.301132E-17
5.077707E+03	9.347814E-16	1.294853E-17
5.087490E+03	9.306919E-16	1.288492E-17
5.097274E+03	9.265250E-16	1.282039E-17
5.107057E+03	9.223084E-16	1.275533E-17
5.116841E+03	9.180354E-16	1.268965E-17
5.126625E+03	9.137261E-16	1.262362E-17
5.136408E+03	9.093721E-16	1.255713E-17
5.146192E+03	9.049935E-16	1.249046E-17
5.155976E+03	9.006014E-16	1.242377E-17
5.165759E+03	8.961856E-16	1.235691E-17
5.175543E+03	8.917572E-16	1.229003E-17
5.185327E+03	8.873330E-16	1.222337E-17
5.195110E+03	8.829105E-16	1.215689E-17
5.204894E+03	8.784898E-16	1.209060E-17
5.214677E+03	8.740769E-16	1.202457E-17
5.224461E+03	8.696776E-16	1.195890E-17
5.234245E+03	8.652989E-16	1.189366E-17
5.244028E+03	8.609365E-16	1.182881E-17
5.253812E+03	8.566066E-16	1.176456E-17
5.263596E+03	8.523058E-16	1.170087E-17
5.273379E+03	8.480496E-16	1.163795E-17
5.283163E+03	8.438360E-16	1.157577E-17
5.292946E+03	8.396895E-16	1.151467E-17
5.302730E+03	8.356261E-16	1.145486E-17
5.312514E+03	8.316451E-16	1.139634E-17
5.322297E+03	8.277791E-16	1.133954E-17
5.332081E+03	8.240357E-16	1.128458E-17
5.341865E+03	8.203895E-16	1.123110E-17
5.351648E+03	8.168722E-16	1.117952E-17
5.361432E+03	8.134738E-16	1.112972E-17
5.371216E+03	8.101842E-16	1.108154E-17
5.380999E+03	8.070000E-16	1.103494E-17
5.390783E+03	8.039079E-16	1.098973E-17
5.400566E+03	8.008933E-16	1.094571E-17
5.410350E+03	7.979567E-16	1.090288E-17
5.420134E+03	7.950811E-16	1.086102E-17
5.429917E+03	7.922720E-16	1.082018E-17
5.439701E+03	7.895257E-16	1.078032E-17
5.449485E+03	7.868289E-16	1.074126E-17
5.459268E+03	7.841829E-16	1.070300E-17
5.469052E+03	7.815803E-16	1.066545E-17
5.478836E+03	7.790129E-16	1.062850E-17
5.488619E+03	7.764799E-16	1.059212E-17
5.498403E+03	7.739721E-16	1.055619E-17
5.508186E+03	7.714807E-16	1.052060E-17
5.517970E+03	7.690049E-16	1.048533E-17
5.527754E+03	7.665365E-16	1.045025E-17
5.537537E+03	7.640756E-16	1.041539E-17
5.547321E+03	7.616154E-16	1.038063E-17
5.557105E+03	7.591495E-16	1.034589E-17
5.566888E+03	7.566806E-16	1.031121E-17
5.576672E+03	7.542037E-16	1.027652E-17
5.586456E+03	7.517150E-16	1.024176E-17
5.596239E+03	7.492188E-16	1.020699E-17
5.606023E+03	7.467125E-16	1.017218E-17
5.615806E+03	7.442014E-16	1.013739E-17
5.625590E+03	7.416762E-16	1.010250E-17
5.635374E+03	7.391509E-16	1.006769E-17
5.645157E+03	7.366169E-16	1.003285E-17
5.654941E+03	7.340735E-16	9.997972E-18
5.664725E+03	7.315364E-16	9.963258E-18
5.674508E+03	7.289900E-16	9.928501E-18
5.684292E+03	7.264505E-16	9.893918E-18
5.694076E+03	7.239188E-16	9.859521E-18
5.703859E+03	7.213963E-16	9.825329E-18
5.713643E+03	7.188767E-16	9.791253E-18
5.723426E+03	7.163778E-16	9.757533E-18
5.733210E+03	7.138935E-16	9.724088E-18
5.742994E+03	7.114340E-16	9.691054E-18
5.752777E+03	7.090015E-16	9.658460E-18
5.762561E+03	7.065900E-16	9.626223E-18
5.772345E+03	7.042087E-16	9.594468E-18
5.782128E+03	7.018662E-16	9.563311E-18
5.791912E+03	6.995472E-16	9.532542E-18
5.801696E+03	6.972581E-16	9.502248E-18
5.811479E+03	6.949972E-16	9.472404E-18
5.821263E+03	6.927690E-16	9.443073E-18
5.831046E+03	6.905537E-16	9.413980E-18
5.840830E+03	6.883618E-16	9.385272E-18
5.850614E+03	6.861719E-16	9.356652E-18
5.860397E+03	6.839855E-16	9.328143E-18
5.870181E+03	6.817962E-16	9.299655E-18
5.879965E+03	6.795901E-16	9.270999E-18
5.889748E+03	6.773695E-16	9.242203E-18
5.899532E+03	6.751138E-16	9.212988E-18
5.909315E+03	6.728351E-16	9.183515E-18
5.919099E+03	6.705074E-16	9.153430E-18
5.928883E+03	6.681453E-16	9.122930E-18
5.938666E+03	6.657332E-16	9.091803E-18
5.948450E+03	6.632807E-16	9.060177E-18
5.958234E+03	6.607750E-16	9.027875E-18
5.968017E+03	6.582199E-16	8.994951E-18
5.977801E+03	6.556125E-16	8.961361E-18
5.987585E+03	6.529585E-16	8.927183E-18
5.997368E+03	6.502482E-16	8.892282E-18
6.007152E+03	6.474803E-16	8.856640E-18
6.016935E+03	6.446615E-16	8.820348E-18
6.026719E+03	6.417906E-16	8.783386E-18
6.036503E+03	6.388503E-16	8.745517E-18
6.046286E+03	6.358468E-16	8.706823E-18
6.056070E+03	6.327778E-16	8.667272E-18
6.065854E+03	6.296483E-16	8.626932E-18
6.075637E+03	6.264708E-16	8.585970E-18
6.085421E+03	6.232570E-16	8.544547E-18
6.095205E+03	6.200261E-16	8.502923E-18
6.104988E+03	6.168122E-16	8.461568E-18
6.114772E+03	6.136259E-16	8.420623E-18
6.124555E+03	6.104689E-16	8.380113E-18
6.134339E+03	6.073744E-16	8.340492E-18
6.144123E+03	6.043515E-16	8.301888E-18
6.153906E+03	6.013933E-16	8.264204E-18
6.163690E+03	5.985325E-16	8.227888E-18
6.173474E+03	5.957533E-16	8.192728E-18
6.183257E+03	5.930802E-16	8.159057E-18
6.193041E+03	5.905050E-16	8.126767E-18
6.202825E+03	5.880358E-16	8.095968E-18
6.212608E+03	5.856718E-16	8.066650E-18
6.222392E+03	5.834121E-16	8.038803E-18
6.232175E+03	5.812554E-16	8.012411E-18
6.241959E+03	5.791917E-16	7.987335E-18
6.251743E+03	5.772102E-16	7.963427E-18
6.261526E+03	5.753157E-16	7.940757E-18
6.271310E+03	5.734881E-16	7.919044E-18
6.281094E+03	5.717305E-16	7.898334E-18
6.290877E+03	5.700292E-16	7.878435E-18
6.300661E+03	5.683777E-16	7.859255E-18
6.310445E+03	5.667771E-16	7.840812E-18
6.320228E+03	5.652363E-16	7.823228E-18
6.330012E+03	5.637471E-16	7.806389E-18
6.339795E+03	5.623092E-16	7.790291E-18
6.349579E+03	5.609223E-16	7.774929E-18
6.359363E+03	5.595690E-16	7.760061E-18
6.369146E+03	5.582575E-16	7.745800E-18
6.378930E+03	5.569791E-16	7.732027E-18
6.388714E+03	5.557169E-16	7.718504E-18
6.398497E+03	5.544772E-16	7.705320E-18
6.408281E+03	5.532382E-16	7.692169E-18
6.418065E+03	5.519779E-16	7.678746E-18
6.427848E+03	5.507017E-16	7.665124E-18
6.437632E+03	5.493901E-16	7.651029E-18
6.447415E+03	5.480338E-16	7.636331E-18
6.457199E+03	5.466337E-16	7.621038E-18
6.466983E+03	5.451653E-16	7.604808E-18
6.476766E+03	5.436233E-16	7.587564E-18
6.486550E+03	5.420213E-16	7.569493E-18
6.496334E+03	5.403383E-16	7.550298E-18
6.506117E+03	5.385722E-16	7.529949E-18
6.515901E+03	5.367308E-16	7.508550E-18
6.525684E+03	5.348049E-16	7.485971E-18
6.535468E+03	5.327953E-16	7.462217E-18
6.545252E+03	5.307124E-16	7.437433E-18
6.555035E+03	5.285405E-16	7.411397E-18
6.564819E+03	5.262829E-16	7.384149E-18
6.574603E+03	5.239617E-16	7.355998E-18
6.584386E+03	5.215634E-16	7.326752E-18
6.594170E+03	5.190937E-16	7.296487E-18
6.603954E+03	5.165675E-16	7.265410E-18
6.613737E+03	5.139826E-16	7.233488E-18
6.623521E+03	5.113459E-16	7.200816E-18
6.633304E+03	5.086651E-16	7.167499E-18
6.643088E+03	5.059478E-16	7.133642E-18
6.652872E+03	5.031928E-16	7.099227E-18
6.662655E+03	5.004173E-16	7.064493E-18
6.672439E+03	4.976290E-16	7.029552E-18
6.682223E+03	4.948270E-16	6.994384E-18
6.692006E+03	4.920279E-16	6.959227E-18
6.701790E+03	4.892303E-16	6.924059E-18
6.711574E+03	4.864415E-16	6.888981E-18
6.721357E+03	4.836686E-16	6.854096E-18
6.731141E+03	4.809093E-16	6.819370E-18
6.740924E+03	4.781880E-16	6.785147E-18
6.750708E+03	4.755017E-16	6.751386E-18
6.760492E+03	4.728470E-16	6.718040E-18
6.770275E+03	4.702381E-16	6.685309E-18
6.780059E+03	4.676707E-16	6.653134E-18
6.789843E+03	4.651493E-16	6.621579E-18
6.799626E+03	4.626865E-16	6.590824E-18
6.809410E+03	4.602771E-16	6.560794E-18
6.819194E+03	4.579240E-16	6.531535E-18
6.828977E+03	4.556299E-16	6.503085E-18
6.838761E+03	4.533972E-16	6.475479E-18
6.848544E+03	4.512189E-16	6.448618E-18
6.858328E+03	4.491140E-16	6.422776E-18
6.868112E+03	4.470663E-16	6.397720E-18
6.877895E+03	4.450764E-16	6.373463E-18
6.887679E+03	4.431535E-16	6.350136E-18
6.897463E+03	4.412887E-16	6.327612E-18
6.907246E+03	4.394814E-16	6.305887E-18
6.917030E+03	4.377307E-16	6.284947E-18
6.926814E+03	4.360353E-16	6.264773E-18
6.936597E+03	4.344017E-16	6.245463E-18
6.946381E+03	4.328102E-16	6.226734E-18
6.956164E+03	4.312580E-16	6.208545E-18
6.965948E+03	4.297506E-16	6.190977E-18
6.975732E+03	4.282842E-16	6.173976E-18
6.985515E+03	4.268463E-16	6.157363E-18
6.995299E+03	4.254411E-16	6.141199E-18
7.005083E+03	4.240471E-16	6.125174E-18
7.014866E+03	4.226769E-16	6.109470E-18
7.024650E+03	4.213175E-16	6.093900E-18
7.034434E+03	4.199646E-16	6.078401E-18
7.044217E+03	4.186056E-16	6.062790E-18
7.054001E+03	4.172540E-16	6.047264E-18
7.063784E+03	4.158895E-16	6.031527E-18
7.073568E+03	4.145182E-16	6.015668E-18
7.083352E+03	4.131295E-16	5.999531E-18
7.093135E+03	4.117306E-16	5.983223E-18
7.102919E+03	4.103125E-16	5.966608E-18
7.112703E+03	4.088750E-16	5.949687E-18
7.122486E+03	4.074273E-16	5.932590E-18
7.132270E+03	4.059621E-16	5.915211E-18
7.142053E+03	4.044890E-16	5.897692E-18
7.151837E+03	4.029931E-16	5.879811E-18
7.161621E+03	4.014850E-16	5.861723E-18
7.171404E+03	3.999753E-16	5.843585E-18
7.181188E+03	3.984495E-16	5.825181E-18
7.190972E+03	3.969183E-16	5.806670E-18
7.200755E+03	3.953757E-16	5.787962E-18
7.210539E+03	3.938324E-16	5.769215E-18
7.220323E+03	3.922821E-16	5.750335E-18
7.230106E+03	3.907271E-16	5.731356E-18
7.239890E+03	3.891691E-16	5.712302E-18
7.249673E+03	3.876016E-16	5.693080E-18
7.259457E+03	3.860265E-16	5.673714E-18
7.269241E+03	3.844454E-16	5.654229E-18
7.279024E+03	3.828599E-16	5.634648E-18
7.288808E+03	3.812800E-16	5.615120E-18
7.298592E+03	3.796987E-16	5.595538E-18
7.308375E+03	3.781344E-16	5.576176E-18
7.318159E+03	3.765884E-16	5.557052E-18
7.327943E+03	3.750617E-16	5.538184E-18
7.337726E+03	3.735555E-16	5.519588E-18
7.347510E+03	3.720708E-16	5.501280E-18
7.357293E+03	3.706254E-16	5.483522E-18
7.367077E+03	3.692030E-16	5.466078E-18
7.376861E+03	3.678128E-16	5.449082E-18
7.386644E+03	3.664553E-16	5.432542E-18
7.396428E+03	3.651389E-16	5.416586E-18
7.406212E+03	3.638472E-16	5.400968E-18
7.415995E+03	3.625883E-16	5.385813E-18
7.425779E+03	3.613620E-16	5.371118E-18
7.435563E+03	3.601765E-16	5.357003E-18
7.445346E+03	3.590143E-16	5.343212E-18
7.455130E+03	3.578917E-16	5.329987E-18
7.464913E+03	3.567995E-16	5.317193E-18
7.474697E+03	3.557285E-16	5.304691E-18
7.484481E+03	3.546947E-16	5.292726E-18
7.494264E+03	3.536889E-16	5.281156E-18
7.504048E+03	3.527104E-16	5.269974E-18
7.513832E+03	3.517583E-16	5.259168E-18
7.523615E+03	3.508321E-16	5.248729E-18
7.533399E+03	3.499313E-16	5.238652E-18
7.543183E+03	3.490637E-16	5.229054E-18
7.552966E+03	3.482121E-16	5.219679E-18
7.562750E+03	3.473931E-16	5.210776E-18
7.572533E+03	3.465979E-16	5.202214E-18
7.582317E+03	3.458266E-16	5.193995E-18
7.592101E+03	3.450787E-16	5.186112E-18
