#wls	flux	fluxerr
1.565382E+03	1.789977E-16	3.977352E-18
1.604516E+03	1.854483E-16	4.114459E-18
1.643651E+03	1.920239E-16	4.253741E-18
1.682785E+03	1.987073E-16	4.394784E-18
1.721920E+03	2.055193E-16	4.538019E-18
1.761054E+03	2.124061E-16	4.682221E-18
1.800189E+03	2.193023E-16	4.825926E-18
1.839323E+03	2.261154E-16	4.967073E-18
1.878458E+03	2.327027E-16	5.102524E-18
1.917592E+03	2.390207E-16	5.231330E-18
1.956727E+03	2.449177E-16	5.350188E-18
1.995862E+03	2.505752E-16	5.463088E-18
2.034996E+03	2.563578E-16	5.577975E-18
2.074131E+03	2.630459E-16	5.711755E-18
2.113265E+03	2.716781E-16	5.886787E-18
2.152400E+03	2.831898E-16	6.123000E-18
2.191534E+03	2.980248E-16	6.429526E-18
2.230669E+03	3.160566E-16	6.803112E-18
2.269803E+03	3.368436E-16	7.233746E-18
2.308938E+03	3.597706E-16	7.707763E-18
2.348072E+03	3.844499E-16	8.216472E-18
2.387207E+03	4.105291E-16	8.751997E-18
2.426341E+03	4.379055E-16	9.311841E-18
2.465476E+03	4.665260E-16	9.894565E-18
2.504611E+03	4.963696E-16	1.049942E-17
2.543745E+03	5.274499E-16	1.112637E-17
2.582880E+03	5.597047E-16	1.177379E-17
2.622014E+03	5.931737E-16	1.244218E-17
2.661149E+03	6.277119E-16	1.312817E-17
2.700283E+03	6.632692E-16	1.383038E-17
2.739418E+03	6.997310E-16	1.454612E-17
2.778552E+03	7.369188E-16	1.527137E-17
2.817687E+03	7.747760E-16	1.600470E-17
2.856821E+03	8.132682E-16	1.674512E-17
2.895956E+03	8.524426E-16	1.749334E-17
2.935090E+03	8.923839E-16	1.825080E-17
2.944874E+03	9.025322E-16	1.844245E-17
2.954658E+03	9.127035E-16	1.863415E-17
2.964441E+03	9.229198E-16	1.882634E-17
2.974225E+03	9.332344E-16	1.902010E-17
2.984009E+03	9.436163E-16	1.921479E-17
2.993792E+03	9.540636E-16	1.941037E-17
3.003576E+03	9.646245E-16	1.960780E-17
3.013360E+03	9.752280E-16	1.980565E-17
3.023143E+03	9.859505E-16	2.000546E-17
3.032927E+03	9.967581E-16	2.020652E-17
3.042710E+03	1.007619E-15	2.040821E-17
3.052494E+03	1.018617E-15	2.061218E-17
3.062278E+03	1.029706E-15	2.081752E-17
3.072061E+03	1.040927E-15	2.102503E-17
3.081845E+03	1.052237E-15	2.123383E-17
3.091629E+03	1.063618E-15	2.144358E-17
3.101412E+03	1.075139E-15	2.165563E-17
3.111196E+03	1.086728E-15	2.186855E-17
3.120980E+03	1.098422E-15	2.208306E-17
3.130763E+03	1.110207E-15	2.229887E-17
3.140547E+03	1.122064E-15	2.251559E-17
3.150330E+03	1.134004E-15	2.273345E-17
3.160114E+03	1.146009E-15	2.295206E-17
3.169898E+03	1.158115E-15	2.317215E-17
3.179681E+03	1.170251E-15	2.339229E-17
3.189465E+03	1.182453E-15	2.361318E-17
3.199249E+03	1.194701E-15	2.383445E-17
3.209032E+03	1.207004E-15	2.405623E-17
3.218816E+03	1.219317E-15	2.427765E-17
3.228600E+03	1.231648E-15	2.449885E-17
3.238383E+03	1.243978E-15	2.471947E-17
3.248167E+03	1.256315E-15	2.493962E-17
3.257950E+03	1.268639E-15	2.515896E-17
3.267734E+03	1.280907E-15	2.537660E-17
3.277518E+03	1.293125E-15	2.559268E-17
3.287301E+03	1.305254E-15	2.580641E-17
3.297085E+03	1.317300E-15	2.601792E-17
3.306869E+03	1.329221E-15	2.622639E-17
3.316652E+03	1.341003E-15	2.643153E-17
3.326436E+03	1.352607E-15	2.663261E-17
3.336220E+03	1.364019E-15	2.682935E-17
3.346003E+03	1.375205E-15	2.702108E-17
3.355787E+03	1.386152E-15	2.720758E-17
3.365570E+03	1.396785E-15	2.738735E-17
3.375354E+03	1.407118E-15	2.756072E-17
3.385138E+03	1.417100E-15	2.772672E-17
3.394921E+03	1.426686E-15	2.788447E-17
3.404705E+03	1.435875E-15	2.803395E-17
3.414489E+03	1.444603E-15	2.817399E-17
3.424272E+03	1.452835E-15	2.830389E-17
3.434056E+03	1.460578E-15	2.842384E-17
3.443839E+03	1.467760E-15	2.853246E-17
3.453623E+03	1.474395E-15	2.863007E-17
3.463407E+03	1.480421E-15	2.871547E-17
3.473190E+03	1.485857E-15	2.878911E-17
3.482974E+03	1.490650E-15	2.884997E-17
3.492758E+03	1.494807E-15	2.889826E-17
3.502541E+03	1.498322E-15	2.893387E-17
3.512325E+03	1.501208E-15	2.895712E-17
3.522109E+03	1.503465E-15	2.896802E-17
3.531892E+03	1.505075E-15	2.896630E-17
3.541676E+03	1.506081E-15	2.895279E-17
3.551459E+03	1.506454E-15	2.892701E-17
3.561243E+03	1.506222E-15	2.888952E-17
3.571027E+03	1.505382E-15	2.884031E-17
3.580810E+03	1.503981E-15	2.878032E-17
3.590594E+03	1.502018E-15	2.870957E-17
3.600378E+03	1.499527E-15	2.862874E-17
3.610161E+03	1.496555E-15	2.853879E-17
3.619945E+03	1.493121E-15	2.844007E-17
3.629729E+03	1.489284E-15	2.833378E-17
3.639512E+03	1.485060E-15	2.822022E-17
3.649296E+03	1.480506E-15	2.810051E-17
3.659079E+03	1.475662E-15	2.797543E-17
3.668863E+03	1.470549E-15	2.784542E-17
3.678647E+03	1.465217E-15	2.771140E-17
3.688430E+03	1.459694E-15	2.757398E-17
3.698214E+03	1.454023E-15	2.743393E-17
3.707998E+03	1.448226E-15	2.729169E-17
3.717781E+03	1.442335E-15	2.714790E-17
3.727565E+03	1.436354E-15	2.700261E-17
3.737349E+03	1.430334E-15	2.685681E-17
3.747132E+03	1.424256E-15	2.671014E-17
3.756916E+03	1.418167E-15	2.656348E-17
3.766699E+03	1.412056E-15	2.641661E-17
3.776483E+03	1.405945E-15	2.627000E-17
3.786267E+03	1.399821E-15	2.612336E-17
3.796050E+03	1.393703E-15	2.597705E-17
3.805834E+03	1.387582E-15	2.583092E-17
3.815618E+03	1.381447E-15	2.568480E-17
3.825401E+03	1.375315E-15	2.553894E-17
3.835185E+03	1.369171E-15	2.539309E-17
3.844969E+03	1.363001E-15	2.524701E-17
3.854752E+03	1.356800E-15	2.510063E-17
3.864536E+03	1.350568E-15	2.495389E-17
3.874319E+03	1.344285E-15	2.480648E-17
3.884103E+03	1.337936E-15	2.465809E-17
3.893887E+03	1.331503E-15	2.450842E-17
3.903670E+03	1.324990E-15	2.435757E-17
3.913454E+03	1.318383E-15	2.420524E-17
3.923238E+03	1.311661E-15	2.405110E-17
3.933021E+03	1.304808E-15	2.389485E-17
3.942805E+03	1.297808E-15	2.373619E-17
3.952589E+03	1.290668E-15	2.357528E-17
3.962372E+03	1.283349E-15	2.341142E-17
3.972156E+03	1.275871E-15	2.324499E-17
3.981939E+03	1.268188E-15	2.307517E-17
3.991723E+03	1.260322E-15	2.290236E-17
4.001507E+03	1.252252E-15	2.272620E-17
4.011290E+03	1.243970E-15	2.254657E-17
4.021074E+03	1.235471E-15	2.236338E-17
4.030858E+03	1.226751E-15	2.217659E-17
4.040641E+03	1.217820E-15	2.198640E-17
4.050425E+03	1.208679E-15	2.179282E-17
4.060208E+03	1.199320E-15	2.159577E-17
4.069992E+03	1.189753E-15	2.139539E-17
4.079776E+03	1.179995E-15	2.119205E-17
4.089559E+03	1.170059E-15	2.098596E-17
4.099343E+03	1.159960E-15	2.077744E-17
4.109127E+03	1.149706E-15	2.056663E-17
4.118910E+03	1.139318E-15	2.035390E-17
4.128694E+03	1.128830E-15	2.013989E-17
4.138478E+03	1.118268E-15	1.992505E-17
4.148261E+03	1.107640E-15	1.970957E-17
4.158045E+03	1.097008E-15	1.949451E-17
4.167828E+03	1.086376E-15	1.927998E-17
4.177612E+03	1.075789E-15	1.906675E-17
4.187396E+03	1.065294E-15	1.885566E-17
4.197179E+03	1.054910E-15	1.864706E-17
4.206963E+03	1.044686E-15	1.844179E-17
4.216747E+03	1.034655E-15	1.824041E-17
4.226530E+03	1.024854E-15	1.804359E-17
4.236314E+03	1.015325E-15	1.785203E-17
4.246098E+03	1.006089E-15	1.766607E-17
4.255881E+03	9.971726E-16	1.748619E-17
4.265665E+03	9.886107E-16	1.731295E-17
4.275448E+03	9.804496E-16	1.714714E-17
4.285232E+03	9.727149E-16	1.698918E-17
4.295016E+03	9.654316E-16	1.683947E-17
4.304799E+03	9.586202E-16	1.669834E-17
4.314583E+03	9.522602E-16	1.656540E-17
4.324367E+03	9.463500E-16	1.644058E-17
4.334150E+03	9.408688E-16	1.632350E-17
4.343934E+03	9.357962E-16	1.621377E-17
4.353718E+03	9.311235E-16	1.611121E-17
4.363501E+03	9.268193E-16	1.601525E-17
4.373285E+03	9.228758E-16	1.592572E-17
4.383068E+03	9.192621E-16	1.584208E-17
4.392852E+03	9.159649E-16	1.576407E-17
4.402636E+03	9.129775E-16	1.569154E-17
4.412419E+03	9.102720E-16	1.562400E-17
4.422203E+03	9.078446E-16	1.556137E-17
4.431987E+03	9.056696E-16	1.550318E-17
4.441770E+03	9.037363E-16	1.544923E-17
4.451554E+03	9.020339E-16	1.539932E-17
4.461338E+03	9.005540E-16	1.535330E-17
4.471121E+03	8.992780E-16	1.531083E-17
4.480905E+03	8.981975E-16	1.527175E-17
4.490688E+03	8.972930E-16	1.523571E-17
4.500472E+03	8.965551E-16	1.520256E-17
4.510256E+03	8.959803E-16	1.517221E-17
4.520039E+03	8.955508E-16	1.514435E-17
4.529823E+03	8.952470E-16	1.511864E-17
4.539607E+03	8.950651E-16	1.509501E-17
4.549390E+03	8.949872E-16	1.507315E-17
4.559174E+03	8.950087E-16	1.505298E-17
4.568958E+03	8.951029E-16	1.503403E-17
4.578741E+03	8.952676E-16	1.501627E-17
4.588525E+03	8.954857E-16	1.499940E-17
4.598308E+03	8.957396E-16	1.498314E-17
4.608092E+03	8.959989E-16	1.496696E-17
4.617876E+03	8.962635E-16	1.495086E-17
4.627659E+03	8.965060E-16	1.493440E-17
4.637443E+03	8.967058E-16	1.491722E-17
4.647227E+03	8.968370E-16	1.489891E-17
4.657010E+03	8.969068E-16	1.487958E-17
4.666794E+03	8.968781E-16	1.485863E-17
4.676577E+03	8.967520E-16	1.483607E-17
4.686361E+03	8.965170E-16	1.481173E-17
4.696145E+03	8.961724E-16	1.478561E-17
4.705928E+03	8.957082E-16	1.475755E-17
4.715712E+03	8.951248E-16	1.472755E-17
4.725496E+03	8.944245E-16	1.469568E-17
4.735279E+03	8.936022E-16	1.466185E-17
4.745063E+03	8.926674E-16	1.462622E-17
4.754847E+03	8.916339E-16	1.458904E-17
4.764630E+03	8.904886E-16	1.455009E-17
4.774414E+03	8.892459E-16	1.450963E-17
4.784197E+03	8.879173E-16	1.446783E-17
4.793981E+03	8.864999E-16	1.442467E-17
4.803765E+03	8.849998E-16	1.438024E-17
4.813548E+03	8.834380E-16	1.433490E-17
4.823332E+03	8.818118E-16	1.428861E-17
4.833116E+03	8.801186E-16	1.424133E-17
4.842899E+03	8.783875E-16	1.419353E-17
4.852683E+03	8.766095E-16	1.414507E-17
4.862467E+03	8.747965E-16	1.409616E-17
4.872250E+03	8.729555E-16	1.404689E-17
4.882034E+03	8.710919E-16	1.399738E-17
4.891817E+03	8.692202E-16	1.394784E-17
4.901601E+03	8.673377E-16	1.389824E-17
4.911385E+03	8.654590E-16	1.384881E-17
4.921168E+03	8.635816E-16	1.379951E-17
4.930952E+03	8.617200E-16	1.375059E-17
4.940736E+03	8.598807E-16	1.370213E-17
4.950519E+03	8.580606E-16	1.365409E-17
4.960303E+03	8.562735E-16	1.360669E-17
4.970087E+03	8.545341E-16	1.356016E-17
4.979870E+03	8.528296E-16	1.351430E-17
4.989654E+03	8.511731E-16	1.346931E-17
4.999437E+03	8.495696E-16	1.342528E-17
5.009221E+03	8.480136E-16	1.338210E-17
5.019005E+03	8.465266E-16	1.334012E-17
5.028788E+03	8.450940E-16	1.329911E-17
5.038572E+03	8.437275E-16	1.325924E-17
5.048356E+03	8.424207E-16	1.322042E-17
5.058139E+03	8.411829E-16	1.318278E-17
5.067923E+03	8.400084E-16	1.314624E-17
5.077707E+03	8.389051E-16	1.311091E-17
5.087490E+03	8.378656E-16	1.307668E-17
5.097274E+03	8.368801E-16	1.304340E-17
5.107057E+03	8.359647E-16	1.301130E-17
5.116841E+03	8.351079E-16	1.298021E-17
5.126625E+03	8.342999E-16	1.294998E-17
5.136408E+03	8.335433E-16	1.292065E-17
5.146192E+03	8.328261E-16	1.289202E-17
5.155976E+03	8.321504E-16	1.286413E-17
5.165759E+03	8.314934E-16	1.283663E-17
5.175543E+03	8.308559E-16	1.280952E-17
5.185327E+03	8.302297E-16	1.278270E-17
5.195110E+03	8.296066E-16	1.275602E-17
5.204894E+03	8.289614E-16	1.272910E-17
5.214677E+03	8.283017E-16	1.270208E-17
5.224461E+03	8.276109E-16	1.267468E-17
5.234245E+03	8.268726E-16	1.264667E-17
5.244028E+03	8.260882E-16	1.261808E-17
5.253812E+03	8.252350E-16	1.258856E-17
5.263596E+03	8.243249E-16	1.255829E-17
5.273379E+03	8.233386E-16	1.252700E-17
5.283163E+03	8.222752E-16	1.249468E-17
5.292946E+03	8.211439E-16	1.246147E-17
5.302730E+03	8.199315E-16	1.242717E-17
5.312514E+03	8.186434E-16	1.239188E-17
5.322297E+03	8.172948E-16	1.235583E-17
5.332081E+03	8.158862E-16	1.231904E-17
5.341865E+03	8.144354E-16	1.228178E-17
5.351648E+03	8.129446E-16	1.224409E-17
5.361432E+03	8.114153E-16	1.220598E-17
5.371216E+03	8.098563E-16	1.216760E-17
5.380999E+03	8.082641E-16	1.212890E-17
5.390783E+03	8.066512E-16	1.209006E-17
5.400566E+03	8.049948E-16	1.205074E-17
5.410350E+03	8.032868E-16	1.201083E-17
5.420134E+03	8.015266E-16	1.197031E-17
5.429917E+03	7.996890E-16	1.192883E-17
5.439701E+03	7.977900E-16	1.188661E-17
5.449485E+03	7.957971E-16	1.184317E-17
5.459268E+03	7.937118E-16	1.179855E-17
5.469052E+03	7.915284E-16	1.175267E-17
5.478836E+03	7.892425E-16	1.170546E-17
5.488619E+03	7.868514E-16	1.165689E-17
5.498403E+03	7.843618E-16	1.160707E-17
5.508186E+03	7.817573E-16	1.155575E-17
5.517970E+03	7.790472E-16	1.150308E-17
5.527754E+03	7.762340E-16	1.144910E-17
5.537537E+03	7.733132E-16	1.139376E-17
5.547321E+03	7.703055E-16	1.133735E-17
5.557105E+03	7.672080E-16	1.127984E-17
5.566888E+03	7.640267E-16	1.122133E-17
5.576672E+03	7.607680E-16	1.116191E-17
5.586456E+03	7.574386E-16	1.110168E-17
5.596239E+03	7.540457E-16	1.104075E-17
5.606023E+03	7.505961E-16	1.097923E-17
5.615806E+03	7.470969E-16	1.091721E-17
5.625590E+03	7.435631E-16	1.085493E-17
5.635374E+03	7.399931E-16	1.079235E-17
5.645157E+03	7.363936E-16	1.072958E-17
5.654941E+03	7.327788E-16	1.066682E-17
5.664725E+03	7.291467E-16	1.060405E-17
5.674508E+03	7.255189E-16	1.054158E-17
5.684292E+03	7.218849E-16	1.047925E-17
5.694076E+03	7.182499E-16	1.041715E-17
5.703859E+03	7.146347E-16	1.035557E-17
5.713643E+03	7.110360E-16	1.029447E-17
5.723426E+03	7.074662E-16	1.023402E-17
5.733210E+03	7.039211E-16	1.017417E-17
5.742994E+03	7.004044E-16	1.011495E-17
5.752777E+03	6.969351E-16	1.005666E-17
5.762561E+03	6.934996E-16	9.999079E-18
5.772345E+03	6.901160E-16	9.942481E-18
5.782128E+03	6.867852E-16	9.886872E-18
5.791912E+03	6.834997E-16	9.832144E-18
5.801696E+03	6.802669E-16	9.778401E-18
5.811479E+03	6.770934E-16	9.725736E-18
5.821263E+03	6.739688E-16	9.673997E-18
5.831046E+03	6.709057E-16	9.623365E-18
5.840830E+03	6.678920E-16	9.573664E-18
5.850614E+03	6.649225E-16	9.524820E-18
5.860397E+03	6.620076E-16	9.476978E-18
5.870181E+03	6.591408E-16	9.430044E-18
5.879965E+03	6.563153E-16	9.383922E-18
5.889748E+03	6.535322E-16	9.338626E-18
5.899532E+03	6.507922E-16	9.294166E-18
5.909315E+03	6.480885E-16	9.250441E-18
5.919099E+03	6.454142E-16	9.207355E-18
5.928883E+03	6.427793E-16	9.165050E-18
5.938666E+03	6.401780E-16	9.123442E-18
5.948450E+03	6.376137E-16	9.082579E-18
5.958234E+03	6.350821E-16	9.042400E-18
5.968017E+03	6.325963E-16	9.003092E-18
5.977801E+03	6.301460E-16	8.964507E-18
5.987585E+03	6.277301E-16	8.926628E-18
5.997368E+03	6.253643E-16	8.889680E-18
6.007152E+03	6.230413E-16	8.853559E-18
6.016935E+03	6.207463E-16	8.818054E-18
6.026719E+03	6.184817E-16	8.783199E-18
6.036503E+03	6.162585E-16	8.749151E-18
6.046286E+03	6.140726E-16	8.715851E-18
6.056070E+03	6.119608E-16	8.683822E-18
6.065854E+03	6.099120E-16	8.652907E-18
6.075637E+03	6.079399E-16	8.623299E-18
6.085421E+03	6.060588E-16	8.595201E-18
6.095205E+03	6.042669E-16	8.568589E-18
6.104988E+03	6.025711E-16	8.543560E-18
6.114772E+03	6.009786E-16	8.520218E-18
6.124555E+03	5.994803E-16	8.498432E-18
6.134339E+03	5.980837E-16	8.478311E-18
6.144123E+03	5.967965E-16	8.459966E-18
6.153906E+03	5.956264E-16	8.443506E-18
6.163690E+03	5.945562E-16	8.428688E-18
6.173474E+03	5.936096E-16	8.415852E-18
6.183257E+03	5.927770E-16	8.404862E-18
6.193041E+03	5.920565E-16	8.395695E-18
6.202825E+03	5.914623E-16	8.388552E-18
6.212608E+03	5.909824E-16	8.383268E-18
6.222392E+03	5.906205E-16	8.379899E-18
6.232175E+03	5.903706E-16	8.378360E-18
6.241959E+03	5.902421E-16	8.378793E-18
6.251743E+03	5.902260E-16	8.381068E-18
6.261526E+03	5.903279E-16	8.385274E-18
6.271310E+03	5.905351E-16	8.391232E-18
6.281094E+03	5.908408E-16	8.398847E-18
6.290877E+03	5.912360E-16	8.407990E-18
6.300661E+03	5.917181E-16	8.418624E-18
6.310445E+03	5.922648E-16	8.430428E-18
6.320228E+03	5.928690E-16	8.443302E-18
6.330012E+03	5.935125E-16	8.456983E-18
6.339795E+03	5.941753E-16	8.471186E-18
6.349579E+03	5.948444E-16	8.485722E-18
6.359363E+03	5.954787E-16	8.500003E-18
6.369146E+03	5.960719E-16	8.513933E-18
6.378930E+03	5.965812E-16	8.526898E-18
6.388714E+03	5.970004E-16	8.538805E-18
6.398497E+03	5.973014E-16	8.549245E-18
6.408281E+03	5.974630E-16	8.557908E-18
6.418065E+03	5.974843E-16	8.564771E-18
6.427848E+03	5.973565E-16	8.569703E-18
6.437632E+03	5.970625E-16	8.572448E-18
6.447415E+03	5.966053E-16	8.573039E-18
6.457199E+03	5.959607E-16	8.571121E-18
6.466983E+03	5.951434E-16	8.566891E-18
6.476766E+03	5.941319E-16	8.560030E-18
6.486550E+03	5.929433E-16	8.550774E-18
6.496334E+03	5.915590E-16	8.538842E-18
6.506117E+03	5.899895E-16	8.524373E-18
6.515901E+03	5.882284E-16	8.507262E-18
6.525684E+03	5.862891E-16	8.487689E-18
6.535468E+03	5.841676E-16	8.465587E-18
6.545252E+03	5.818710E-16	8.441042E-18
6.555035E+03	5.794165E-16	8.414292E-18
6.564819E+03	5.768040E-16	8.385323E-18
6.574603E+03	5.740434E-16	8.354267E-18
6.584386E+03	5.711550E-16	8.321410E-18
6.594170E+03	5.681412E-16	8.286771E-18
6.603954E+03	5.650142E-16	8.250519E-18
6.613737E+03	5.617863E-16	8.212824E-18
6.623521E+03	5.584707E-16	8.173868E-18
6.633304E+03	5.550893E-16	8.133961E-18
6.643088E+03	5.516456E-16	8.093148E-18
6.652872E+03	5.481615E-16	8.051741E-18
6.662655E+03	5.446306E-16	8.009639E-18
6.672439E+03	5.410831E-16	7.967279E-18
6.682223E+03	5.375302E-16	7.924820E-18
6.692006E+03	5.339637E-16	7.882139E-18
6.701790E+03	5.304211E-16	7.839781E-18
6.711574E+03	5.268837E-16	7.797467E-18
6.721357E+03	5.233869E-16	7.755719E-18
6.731141E+03	5.199107E-16	7.714237E-18
6.740924E+03	5.164886E-16	7.673517E-18
6.750708E+03	5.131081E-16	7.633369E-18
6.760492E+03	5.097735E-16	7.593859E-18
6.770275E+03	5.064980E-16	7.555181E-18
6.780059E+03	5.032846E-16	7.517380E-18
6.789843E+03	5.001352E-16	7.480485E-18
6.799626E+03	4.970519E-16	7.444527E-18
6.809410E+03	4.940264E-16	7.409383E-18
6.819194E+03	4.910771E-16	7.375328E-18
6.828977E+03	4.881861E-16	7.342096E-18
6.838761E+03	4.853616E-16	7.309811E-18
6.848544E+03	4.826028E-16	7.278461E-18
6.858328E+03	4.799170E-16	7.248159E-18
6.868112E+03	4.772850E-16	7.218615E-18
6.877895E+03	4.747226E-16	7.190068E-18
6.887679E+03	4.722186E-16	7.162354E-18
6.897463E+03	4.697709E-16	7.135440E-18
6.907246E+03	4.673770E-16	7.109288E-18
6.917030E+03	4.650431E-16	7.083996E-18
6.926814E+03	4.627576E-16	7.059388E-18
6.936597E+03	4.605266E-16	7.035557E-18
6.946381E+03	4.583385E-16	7.012327E-18
6.956164E+03	4.561992E-16	6.989791E-18
6.965948E+03	4.541055E-16	6.967902E-18
6.975732E+03	4.520460E-16	6.946481E-18
6.985515E+03	4.500263E-16	6.925619E-18
6.995299E+03	4.480435E-16	6.905271E-18
7.005083E+03	4.460945E-16	6.885390E-18
7.014866E+03	4.441855E-16	6.866072E-18
7.024650E+03	4.422957E-16	6.846997E-18
7.034434E+03	4.404311E-16	6.828256E-18
7.044217E+03	4.385979E-16	6.809948E-18
7.054001E+03	4.367847E-16	6.791895E-18
7.063784E+03	4.349888E-16	6.774054E-18
7.073568E+03	4.332168E-16	6.756529E-18
7.083352E+03	4.314576E-16	6.739149E-18
7.093135E+03	4.297182E-16	6.722017E-18
7.102919E+03	4.279877E-16	6.704969E-18
7.112703E+03	4.262736E-16	6.688119E-18
7.122486E+03	4.245745E-16	6.671445E-18
7.132270E+03	4.228894E-16	6.654930E-18
7.142053E+03	4.212083E-16	6.638419E-18
7.151837E+03	4.195487E-16	6.622188E-18
7.161621E+03	4.178924E-16	6.605946E-18
7.171404E+03	4.162482E-16	6.589834E-18
7.181188E+03	4.146162E-16	6.573853E-18
7.190972E+03	4.129970E-16	6.558013E-18
7.200755E+03	4.113910E-16	6.542321E-18
7.210539E+03	4.097991E-16	6.526789E-18
7.220323E+03	4.082224E-16	6.511436E-18
7.230106E+03	4.066709E-16	6.496424E-18
7.239890E+03	4.051280E-16	6.481486E-18
7.249673E+03	4.036131E-16	6.466933E-18
7.259457E+03	4.021276E-16	6.452791E-18
7.269241E+03	4.006732E-16	6.439086E-18
7.279024E+03	3.992423E-16	6.425698E-18
7.288808E+03	3.978364E-16	6.412654E-18
7.298592E+03	3.964572E-16	6.399980E-18
7.308375E+03	3.951059E-16	6.387700E-18
7.318159E+03	3.937841E-16	6.375840E-18
7.327943E+03	3.924929E-16	6.364417E-18
7.337726E+03	3.912334E-16	6.353455E-18
7.347510E+03	3.900068E-16	6.342973E-18
7.357293E+03	3.888048E-16	6.332836E-18
7.367077E+03	3.876462E-16	6.323356E-18
7.376861E+03	3.865136E-16	6.314249E-18
7.386644E+03	3.854163E-16	6.305670E-18
7.396428E+03	3.843547E-16	6.297627E-18
7.406212E+03	3.833383E-16	6.290278E-18
7.415995E+03	3.823487E-16	6.283324E-18
7.425779E+03	3.813951E-16	6.276919E-18
7.435563E+03	3.804867E-16	6.271215E-18
7.445346E+03	3.796050E-16	6.265910E-18
7.455130E+03	3.787683E-16	6.261311E-18
7.464913E+03	3.779579E-16	6.257109E-18
7.474697E+03	3.771923E-16	6.253613E-18
7.484481E+03	3.764623E-16	6.250673E-18
7.494264E+03	3.757679E-16	6.248293E-18
7.504048E+03	3.751091E-16	6.246474E-18
7.513832E+03	3.744770E-16	6.245069E-18
7.523615E+03	3.738997E-16	6.244553E-18
7.533399E+03	3.733496E-16	6.244465E-18
7.543183E+03	3.728365E-16	6.244972E-18
7.552966E+03	3.723704E-16	6.246245E-18
7.562750E+03	3.719331E-16	6.247980E-18
7.572533E+03	3.715439E-16	6.250505E-18
7.582317E+03	3.712034E-16	6.253835E-18
7.592101E+03	3.708932E-16	6.257661E-18
