#wls	flux	fluxerr
1.565382E+03	1.359681E-16	1.877665E-18
1.604516E+03	1.393403E-16	1.919931E-18
1.643651E+03	1.426759E-16	1.961374E-18
1.682785E+03	1.459350E-16	2.001441E-18
1.721920E+03	1.491263E-16	2.040249E-18
1.761054E+03	1.522132E-16	2.077294E-18
1.800189E+03	1.551661E-16	2.112172E-18
1.839323E+03	1.578797E-16	2.143461E-18
1.878458E+03	1.602975E-16	2.170410E-18
1.917592E+03	1.623351E-16	2.191903E-18
1.956727E+03	1.639782E-16	2.207783E-18
1.995862E+03	1.652854E-16	2.218876E-18
2.034996E+03	1.664693E-16	2.228058E-18
2.074131E+03	1.680571E-16	2.242375E-18
2.113265E+03	1.705972E-16	2.269062E-18
2.152400E+03	1.745791E-16	2.314477E-18
2.191534E+03	1.800865E-16	2.379527E-18
2.230669E+03	1.869401E-16	2.461628E-18
2.269803E+03	1.946314E-16	2.553901E-18
2.308938E+03	2.027965E-16	2.651445E-18
2.348072E+03	2.110828E-16	2.749569E-18
2.387207E+03	2.192998E-16	2.845757E-18
2.426341E+03	2.273912E-16	2.939259E-18
2.465476E+03	2.353172E-16	3.029553E-18
2.504611E+03	2.430632E-16	3.116447E-18
2.543745E+03	2.506218E-16	3.199845E-18
2.582880E+03	2.579842E-16	3.279636E-18
2.622014E+03	2.651787E-16	3.356185E-18
2.661149E+03	2.721847E-16	3.429230E-18
2.700283E+03	2.789737E-16	3.498417E-18
2.739418E+03	2.855972E-16	3.564401E-18
2.778552E+03	2.920128E-16	3.626660E-18
2.817687E+03	2.981714E-16	3.684596E-18
2.856821E+03	3.041488E-16	3.739166E-18
2.895956E+03	3.099262E-16	3.790150E-18
2.935090E+03	3.155212E-16	3.837776E-18
2.944874E+03	3.169000E-16	3.849263E-18
2.954658E+03	3.182641E-16	3.860502E-18
2.964441E+03	3.196122E-16	3.871476E-18
2.974225E+03	3.209436E-16	3.882178E-18
2.984009E+03	3.222596E-16	3.892623E-18
2.993792E+03	3.236037E-16	3.903337E-18
3.003576E+03	3.249312E-16	3.913780E-18
3.013360E+03	3.262398E-16	3.923926E-18
3.023143E+03	3.275696E-16	3.934254E-18
3.032927E+03	3.288789E-16	3.944264E-18
3.042710E+03	3.302009E-16	3.954356E-18
3.052494E+03	3.315039E-16	3.964149E-18
3.062278E+03	3.328261E-16	3.974099E-18
3.072061E+03	3.341641E-16	3.984165E-18
3.081845E+03	3.354737E-16	3.993819E-18
3.091629E+03	3.368338E-16	4.003999E-18
3.101412E+03	3.381596E-16	4.013699E-18
3.111196E+03	3.394890E-16	4.023366E-18
3.120980E+03	3.408190E-16	4.032967E-18
3.130763E+03	3.421471E-16	4.042470E-18
3.140547E+03	3.435101E-16	4.052309E-18
3.150330E+03	3.448652E-16	4.061978E-18
3.160114E+03	3.462098E-16	4.071447E-18
3.169898E+03	3.475413E-16	4.080687E-18
3.179681E+03	3.488963E-16	4.090125E-18
3.189465E+03	3.502715E-16	4.099722E-18
3.199249E+03	3.516258E-16	4.108995E-18
3.209032E+03	3.529948E-16	4.118362E-18
3.218816E+03	3.543757E-16	4.127789E-18
3.228600E+03	3.557656E-16	4.137241E-18
3.238383E+03	3.571617E-16	4.146685E-18
3.248167E+03	3.585615E-16	4.156090E-18
3.257950E+03	3.599988E-16	4.165848E-18
3.267734E+03	3.613974E-16	4.175076E-18
3.277518E+03	3.628639E-16	4.185006E-18
3.287301E+03	3.643228E-16	4.194763E-18
3.297085E+03	3.657716E-16	4.204319E-18
3.306869E+03	3.672785E-16	4.214457E-18
3.316652E+03	3.687698E-16	4.224330E-18
3.326436E+03	3.703126E-16	4.234705E-18
3.336220E+03	3.718347E-16	4.244753E-18
3.346003E+03	3.734020E-16	4.255229E-18
3.355787E+03	3.750113E-16	4.266091E-18
3.365570E+03	3.766256E-16	4.276918E-18
3.375354E+03	3.782755E-16	4.288056E-18
3.385138E+03	3.799582E-16	4.299469E-18
3.394921E+03	3.816381E-16	4.310755E-18
3.404705E+03	3.833775E-16	4.322615E-18
3.414489E+03	3.851727E-16	4.335004E-18
3.424272E+03	3.869577E-16	4.347177E-18
3.434056E+03	3.888243E-16	4.360162E-18
3.443839E+03	3.907071E-16	4.373224E-18
3.453623E+03	3.926349E-16	4.386681E-18
3.463407E+03	3.946052E-16	4.400505E-18
3.473190E+03	3.966158E-16	4.414666E-18
3.482974E+03	3.986651E-16	4.429145E-18
3.492758E+03	4.007807E-16	4.444245E-18
3.502541E+03	4.029605E-16	4.459938E-18
3.512325E+03	4.052030E-16	4.476203E-18
3.522109E+03	4.075070E-16	4.493024E-18
3.531892E+03	4.098719E-16	4.510386E-18
3.541676E+03	4.122973E-16	4.528285E-18
3.551459E+03	4.148103E-16	4.547012E-18
3.561243E+03	4.173839E-16	4.566264E-18
3.571027E+03	4.200449E-16	4.586333E-18
3.580810E+03	4.228198E-16	4.607499E-18
3.590594E+03	4.256564E-16	4.629188E-18
3.600378E+03	4.286070E-16	4.651962E-18
3.610161E+03	4.316461E-16	4.675538E-18
3.619945E+03	4.347995E-16	4.700188E-18
3.629729E+03	4.380670E-16	4.725902E-18
3.639512E+03	4.414484E-16	4.752672E-18
3.649296E+03	4.449438E-16	4.780487E-18
3.659079E+03	4.485528E-16	4.809338E-18
3.668863E+03	4.522985E-16	4.839465E-18
3.678647E+03	4.561565E-16	4.870595E-18
3.688430E+03	4.601720E-16	4.903203E-18
3.698214E+03	4.642969E-16	4.936767E-18
3.707998E+03	4.685526E-16	4.971504E-18
3.717781E+03	4.729364E-16	5.007381E-18
3.727565E+03	4.774679E-16	5.044591E-18
3.737349E+03	4.821432E-16	5.083084E-18
3.747132E+03	4.869153E-16	5.122357E-18
3.756916E+03	4.918451E-16	5.163041E-18
3.766699E+03	4.969063E-16	5.204848E-18
3.776483E+03	5.020733E-16	5.247504E-18
3.786267E+03	5.073830E-16	5.291383E-18
3.796050E+03	5.127889E-16	5.335993E-18
3.805834E+03	5.183266E-16	5.381695E-18
3.815618E+03	5.239898E-16	5.428415E-18
3.825401E+03	5.297325E-16	5.475669E-18
3.835185E+03	5.355883E-16	5.523797E-18
3.844969E+03	5.415501E-16	5.572717E-18
3.854752E+03	5.475908E-16	5.622145E-18
3.864536E+03	5.537219E-16	5.672190E-18
3.874319E+03	5.599342E-16	5.722754E-18
3.884103E+03	5.661993E-16	5.773539E-18
3.893887E+03	5.725070E-16	5.824440E-18
3.903670E+03	5.788828E-16	5.875710E-18
3.913454E+03	5.852587E-16	5.926658E-18
3.923238E+03	5.916581E-16	5.977517E-18
3.933021E+03	5.980660E-16	6.028136E-18
3.942805E+03	6.044487E-16	6.078177E-18
3.952589E+03	6.107900E-16	6.127475E-18
3.962372E+03	6.170727E-16	6.175864E-18
3.972156E+03	6.232792E-16	6.223171E-18
3.981939E+03	6.293919E-16	6.269227E-18
3.991723E+03	6.353759E-16	6.313692E-18
4.001507E+03	6.412312E-16	6.356574E-18
4.011290E+03	6.469246E-16	6.397556E-18
4.021074E+03	6.524247E-16	6.436340E-18
4.030858E+03	6.577344E-16	6.472967E-18
4.040641E+03	6.628257E-16	6.507177E-18
4.050425E+03	6.676882E-16	6.538886E-18
4.060208E+03	6.723142E-16	6.568034E-18
4.069992E+03	6.766665E-16	6.594277E-18
4.079776E+03	6.807574E-16	6.617753E-18
4.089559E+03	6.845699E-16	6.638320E-18
4.099343E+03	6.881051E-16	6.656007E-18
4.109127E+03	6.913512E-16	6.670722E-18
4.118910E+03	6.942992E-16	6.682400E-18
4.128694E+03	6.969572E-16	6.691141E-18
4.138478E+03	6.993351E-16	6.697062E-18
4.148261E+03	7.014174E-16	6.700037E-18
4.158045E+03	7.032192E-16	6.700231E-18
4.167828E+03	7.047439E-16	6.697699E-18
4.177612E+03	7.060109E-16	6.692646E-18
4.187396E+03	7.070149E-16	6.685040E-18
4.197179E+03	7.077919E-16	6.675244E-18
4.206963E+03	7.083278E-16	6.663140E-18
4.216747E+03	7.086486E-16	6.648993E-18
4.226530E+03	7.087814E-16	6.633072E-18
4.236314E+03	7.087290E-16	6.615419E-18
4.246098E+03	7.085196E-16	6.596309E-18
4.255881E+03	7.081575E-16	6.575798E-18
4.265665E+03	7.076596E-16	6.554054E-18
4.275448E+03	7.070544E-16	6.531350E-18
4.285232E+03	7.063585E-16	6.507849E-18
4.295016E+03	7.055661E-16	6.483505E-18
4.304799E+03	7.047177E-16	6.458698E-18
4.314583E+03	7.038209E-16	6.433503E-18
4.324367E+03	7.028945E-16	6.408096E-18
4.334150E+03	7.019563E-16	6.382639E-18
4.343934E+03	7.010238E-16	6.357292E-18
4.353718E+03	7.001028E-16	6.332109E-18
4.363501E+03	6.992296E-16	6.307413E-18
4.373285E+03	6.984177E-16	6.283325E-18
4.383068E+03	6.977001E-16	6.260135E-18
4.392852E+03	6.970969E-16	6.238017E-18
4.402636E+03	6.966075E-16	6.216957E-18
4.412419E+03	6.962779E-16	6.197356E-18
4.422203E+03	6.961029E-16	6.179156E-18
4.431987E+03	6.961135E-16	6.162622E-18
4.441770E+03	6.962994E-16	6.147649E-18
4.451554E+03	6.966763E-16	6.134363E-18
4.461338E+03	6.972559E-16	6.122854E-18
4.471121E+03	6.980374E-16	6.113099E-18
4.480905E+03	6.990161E-16	6.105044E-18
4.490688E+03	7.001837E-16	6.098604E-18
4.500472E+03	7.015373E-16	6.093738E-18
4.510256E+03	7.030611E-16	6.090299E-18
4.520039E+03	7.047356E-16	6.088105E-18
4.529823E+03	7.065471E-16	6.087029E-18
4.539607E+03	7.084698E-16	6.086840E-18
4.549390E+03	7.104842E-16	6.087363E-18
4.559174E+03	7.125689E-16	6.088410E-18
4.568958E+03	7.146833E-16	6.089630E-18
4.578741E+03	7.168038E-16	6.090822E-18
4.588525E+03	7.189069E-16	6.091787E-18
4.598308E+03	7.209702E-16	6.092336E-18
4.608092E+03	7.229547E-16	6.092147E-18
4.617876E+03	7.248505E-16	6.091141E-18
4.627659E+03	7.266237E-16	6.089042E-18
4.637443E+03	7.282704E-16	6.085827E-18
4.647227E+03	7.297632E-16	6.081277E-18
4.657010E+03	7.310962E-16	6.075355E-18
4.666794E+03	7.322575E-16	6.067976E-18
4.676577E+03	7.332389E-16	6.059082E-18
4.686361E+03	7.340520E-16	6.048785E-18
4.696145E+03	7.346757E-16	6.036924E-18
4.705928E+03	7.351256E-16	6.023641E-18
4.715712E+03	7.354007E-16	6.008940E-18
4.725496E+03	7.355010E-16	5.992836E-18
4.735279E+03	7.354262E-16	5.975339E-18
4.745063E+03	7.351762E-16	5.956460E-18
4.754847E+03	7.347587E-16	5.936278E-18
4.764630E+03	7.341722E-16	5.914790E-18
4.774414E+03	7.334147E-16	5.891995E-18
4.784197E+03	7.324920E-16	5.867952E-18
4.793981E+03	7.313845E-16	5.842517E-18
4.803765E+03	7.301063E-16	5.815816E-18
4.813548E+03	7.286549E-16	5.787842E-18
4.823332E+03	7.270288E-16	5.758596E-18
4.833116E+03	7.252360E-16	5.728155E-18
4.842899E+03	7.232613E-16	5.696411E-18
4.852683E+03	7.211244E-16	5.663533E-18
4.862467E+03	7.188306E-16	5.629573E-18
4.872250E+03	7.163794E-16	5.594541E-18
4.882034E+03	7.137966E-16	5.558649E-18
4.891817E+03	7.110783E-16	5.521876E-18
4.901601E+03	7.082539E-16	5.484461E-18
4.911385E+03	7.053308E-16	5.446468E-18
4.921168E+03	7.023253E-16	5.408031E-18
4.930952E+03	6.992623E-16	5.369348E-18
4.940736E+03	6.961512E-16	5.330496E-18
4.950519E+03	6.930169E-16	5.291668E-18
4.960303E+03	6.898757E-16	5.252993E-18
4.970087E+03	6.867361E-16	5.214535E-18
4.979870E+03	6.836204E-16	5.176466E-18
4.989654E+03	6.805428E-16	5.138892E-18
4.999437E+03	6.775161E-16	5.101908E-18
5.009221E+03	6.745529E-16	5.065608E-18
5.019005E+03	6.716649E-16	5.030075E-18
5.028788E+03	6.688637E-16	4.995395E-18
5.038572E+03	6.661606E-16	4.961646E-18
5.048356E+03	6.635670E-16	4.928909E-18
5.058139E+03	6.610944E-16	4.897264E-18
5.067923E+03	6.587539E-16	4.866787E-18
5.077707E+03	6.565564E-16	4.837553E-18
5.087490E+03	6.545121E-16	4.809629E-18
5.097274E+03	6.526301E-16	4.783075E-18
5.107057E+03	6.509174E-16	4.757935E-18
5.116841E+03	6.493793E-16	4.734238E-18
5.126625E+03	6.480246E-16	4.712041E-18
5.136408E+03	6.468388E-16	4.691231E-18
5.146192E+03	6.458245E-16	4.671820E-18
5.155976E+03	6.449740E-16	4.653743E-18
5.165759E+03	6.442762E-16	4.636915E-18
5.175543E+03	6.437099E-16	4.621178E-18
5.185327E+03	6.432714E-16	4.606501E-18
5.195110E+03	6.429277E-16	4.592644E-18
5.204894E+03	6.426642E-16	4.579500E-18
5.214677E+03	6.424516E-16	4.566861E-18
5.224461E+03	6.422737E-16	4.554610E-18
5.234245E+03	6.421074E-16	4.542588E-18
5.244028E+03	6.419241E-16	4.530593E-18
5.253812E+03	6.417096E-16	4.518530E-18
5.263596E+03	6.414387E-16	4.506226E-18
5.273379E+03	6.410954E-16	4.493576E-18
5.283163E+03	6.406730E-16	4.480538E-18
5.292946E+03	6.401552E-16	4.467005E-18
5.302730E+03	6.395290E-16	4.452895E-18
5.312514E+03	6.388049E-16	4.438288E-18
5.322297E+03	6.379772E-16	4.423152E-18
5.332081E+03	6.370441E-16	4.407481E-18
5.341865E+03	6.360260E-16	4.391422E-18
5.351648E+03	6.349202E-16	4.374962E-18
5.361432E+03	6.337396E-16	4.358190E-18
5.371216E+03	6.325049E-16	4.341248E-18
5.380999E+03	6.312254E-16	4.324200E-18
5.390783E+03	6.298869E-16	4.306949E-18
5.400566E+03	6.284791E-16	4.289423E-18
5.410350E+03	6.269987E-16	4.271601E-18
5.420134E+03	6.254246E-16	4.253339E-18
5.429917E+03	6.237673E-16	4.234708E-18
5.439701E+03	6.220072E-16	4.215578E-18
5.449485E+03	6.201444E-16	4.195949E-18
5.459268E+03	6.181678E-16	4.175746E-18
5.469052E+03	6.160864E-16	4.155032E-18
5.478836E+03	6.138862E-16	4.133714E-18
5.488619E+03	6.115735E-16	4.111834E-18
5.498403E+03	6.091568E-16	4.089450E-18
5.508186E+03	6.066285E-16	4.066511E-18
5.517970E+03	6.040074E-16	4.043144E-18
5.527754E+03	6.012907E-16	4.019330E-18
5.537537E+03	5.985013E-16	3.995221E-18
5.547321E+03	5.956400E-16	3.970822E-18
5.557105E+03	5.927323E-16	3.946300E-18
5.566888E+03	5.897810E-16	3.921675E-18
5.576672E+03	5.868068E-16	3.897081E-18
5.586456E+03	5.838237E-16	3.872608E-18
5.596239E+03	5.808454E-16	3.848346E-18
5.606023E+03	5.778785E-16	3.824333E-18
5.615806E+03	5.749396E-16	3.800679E-18
5.625590E+03	5.720324E-16	3.777403E-18
5.635374E+03	5.691708E-16	3.754595E-18
5.645157E+03	5.663507E-16	3.732224E-18
5.654941E+03	5.635892E-16	3.710399E-18
5.664725E+03	5.608864E-16	3.689118E-18
5.674508E+03	5.582478E-16	3.668414E-18
5.684292E+03	5.556794E-16	3.648322E-18
5.694076E+03	5.531824E-16	3.628848E-18
5.703859E+03	5.507697E-16	3.610074E-18
5.713643E+03	5.484447E-16	3.592017E-18
5.723426E+03	5.462173E-16	3.574740E-18
5.733210E+03	5.441036E-16	3.558347E-18
5.742994E+03	5.421052E-16	3.542843E-18
5.752777E+03	5.402395E-16	3.528340E-18
5.762561E+03	5.385195E-16	3.514919E-18
5.772345E+03	5.369521E-16	3.502624E-18
5.782128E+03	5.355485E-16	3.491524E-18
5.791912E+03	5.343235E-16	3.481714E-18
5.801696E+03	5.332743E-16	3.473172E-18
5.811479E+03	5.324154E-16	3.465992E-18
5.821263E+03	5.317326E-16	3.460078E-18
5.831046E+03	5.312384E-16	3.455513E-18
5.840830E+03	5.309107E-16	3.452148E-18
5.850614E+03	5.307490E-16	3.449982E-18
5.860397E+03	5.307334E-16	3.448883E-18
5.870181E+03	5.308462E-16	3.448737E-18
5.879965E+03	5.310613E-16	3.449374E-18
5.889748E+03	5.313609E-16	3.450679E-18
5.899532E+03	5.317209E-16	3.452497E-18
5.909315E+03	5.321117E-16	3.454636E-18
5.919099E+03	5.325041E-16	3.456908E-18
5.928883E+03	5.328855E-16	3.459231E-18
5.938666E+03	5.332244E-16	3.461404E-18
5.948450E+03	5.335073E-16	3.463338E-18
5.958234E+03	5.337126E-16	3.464897E-18
5.968017E+03	5.338271E-16	3.465995E-18
5.977801E+03	5.338401E-16	3.466562E-18
5.987585E+03	5.337383E-16	3.466516E-18
5.997368E+03	5.335164E-16	3.465820E-18
6.007152E+03	5.331705E-16	3.464452E-18
6.016935E+03	5.326993E-16	3.462401E-18
6.026719E+03	5.320972E-16	3.459634E-18
6.036503E+03	5.313755E-16	3.456223E-18
6.046286E+03	5.305363E-16	3.452182E-18
6.056070E+03	5.295822E-16	3.447528E-18
6.065854E+03	5.285064E-16	3.442215E-18
6.075637E+03	5.273235E-16	3.436341E-18
6.085421E+03	5.260336E-16	3.429902E-18
6.095205E+03	5.246424E-16	3.422937E-18
6.104988E+03	5.231622E-16	3.415525E-18
6.114772E+03	5.215957E-16	3.407683E-18
6.124555E+03	5.199622E-16	3.399537E-18
6.134339E+03	5.182673E-16	3.391121E-18
6.144123E+03	5.165271E-16	3.382542E-18
6.153906E+03	5.147596E-16	3.373915E-18
6.163690E+03	5.129782E-16	3.365330E-18
6.173474E+03	5.111973E-16	3.356880E-18
6.183257E+03	5.094325E-16	3.348668E-18
6.193041E+03	5.077098E-16	3.340866E-18
6.202825E+03	5.060358E-16	3.333518E-18
6.212608E+03	5.044383E-16	3.326808E-18
6.222392E+03	5.029352E-16	3.320857E-18
6.232175E+03	5.015398E-16	3.315756E-18
6.241959E+03	5.002865E-16	3.311734E-18
6.251743E+03	4.991844E-16	3.308857E-18
6.261526E+03	4.982578E-16	3.307292E-18
6.271310E+03	4.975314E-16	3.307205E-18
6.281094E+03	4.970240E-16	3.308731E-18
6.290877E+03	4.967533E-16	3.311995E-18
6.300661E+03	4.967413E-16	3.317153E-18
6.310445E+03	4.970080E-16	3.324347E-18
6.320228E+03	4.975710E-16	3.333704E-18
6.330012E+03	4.984401E-16	3.345298E-18
6.339795E+03	4.996265E-16	3.359211E-18
6.349579E+03	5.011428E-16	3.375539E-18
6.359363E+03	5.029806E-16	3.394235E-18
6.369146E+03	5.051417E-16	3.415322E-18
6.378930E+03	5.075952E-16	3.438601E-18
6.388714E+03	5.103177E-16	3.463925E-18
6.398497E+03	5.132804E-16	3.491108E-18
6.408281E+03	5.164193E-16	3.519722E-18
6.418065E+03	5.196904E-16	3.549475E-18
6.427848E+03	5.230270E-16	3.579915E-18
6.437632E+03	5.263581E-16	3.610557E-18
6.447415E+03	5.296270E-16	3.641010E-18
6.457199E+03	5.327590E-16	3.670757E-18
6.466983E+03	5.356862E-16	3.699322E-18
6.476766E+03	5.383433E-16	3.726241E-18
6.486550E+03	5.406696E-16	3.751079E-18
6.496334E+03	5.426159E-16	3.773476E-18
6.506117E+03	5.441288E-16	3.793040E-18
6.515901E+03	5.451690E-16	3.809472E-18
6.525684E+03	5.457124E-16	3.822577E-18
6.535468E+03	5.457383E-16	3.832182E-18
6.545252E+03	5.452299E-16	3.838139E-18
6.555035E+03	5.441982E-16	3.840492E-18
6.564819E+03	5.426389E-16	3.839180E-18
6.574603E+03	5.405747E-16	3.834335E-18
6.584386E+03	5.380304E-16	3.826097E-18
6.594170E+03	5.350375E-16	3.814663E-18
6.603954E+03	5.316334E-16	3.800271E-18
6.613737E+03	5.278667E-16	3.783241E-18
6.623521E+03	5.237775E-16	3.763837E-18
6.633304E+03	5.194207E-16	3.742431E-18
6.643088E+03	5.148402E-16	3.719321E-18
6.652872E+03	5.100865E-16	3.694854E-18
6.662655E+03	5.052208E-16	3.669461E-18
6.672439E+03	5.002793E-16	3.643393E-18
6.682223E+03	4.953071E-16	3.616974E-18
6.692006E+03	4.903581E-16	3.590588E-18
6.701790E+03	4.854595E-16	3.564436E-18
6.711574E+03	4.806515E-16	3.538811E-18
6.721357E+03	4.759649E-16	3.513942E-18
6.731141E+03	4.714263E-16	3.490030E-18
6.740924E+03	4.670578E-16	3.467246E-18
6.750708E+03	4.628779E-16	3.445733E-18
6.760492E+03	4.588956E-16	3.425566E-18
6.770275E+03	4.551321E-16	3.406916E-18
6.780059E+03	4.515840E-16	3.389766E-18
6.789843E+03	4.482657E-16	3.374236E-18
6.799626E+03	4.451675E-16	3.360264E-18
6.809410E+03	4.422984E-16	3.347930E-18
6.819194E+03	4.396440E-16	3.337137E-18
6.828977E+03	4.372037E-16	3.327892E-18
6.838761E+03	4.349701E-16	3.320151E-18
6.848544E+03	4.329349E-16	3.313859E-18
6.858328E+03	4.310834E-16	3.308917E-18
6.868112E+03	4.294160E-16	3.305336E-18
6.877895E+03	4.279118E-16	3.302968E-18
6.887679E+03	4.265603E-16	3.301738E-18
6.897463E+03	4.253608E-16	3.301649E-18
6.907246E+03	4.242872E-16	3.302507E-18
6.917030E+03	4.233439E-16	3.304353E-18
6.926814E+03	4.225048E-16	3.306991E-18
6.936597E+03	4.217694E-16	3.310421E-18
6.946381E+03	4.211272E-16	3.314568E-18
6.956164E+03	4.205575E-16	3.319271E-18
6.965948E+03	4.200603E-16	3.324535E-18
6.975732E+03	4.196203E-16	3.330243E-18
6.985515E+03	4.192275E-16	3.336317E-18
6.995299E+03	4.188671E-16	3.342642E-18
7.005083E+03	4.185401E-16	3.349227E-18
7.014866E+03	4.182272E-16	3.355917E-18
7.024650E+03	4.179300E-16	3.362727E-18
7.034434E+03	4.176251E-16	3.369467E-18
7.044217E+03	4.173204E-16	3.376200E-18
7.054001E+03	4.169988E-16	3.382788E-18
7.063784E+03	4.166542E-16	3.389177E-18
7.073568E+03	4.162865E-16	3.395366E-18
7.083352E+03	4.158861E-16	3.401272E-18
7.093135E+03	4.154495E-16	3.406866E-18
7.102919E+03	4.149789E-16	3.412162E-18
7.112703E+03	4.144622E-16	3.417057E-18
7.122486E+03	4.139083E-16	3.421622E-18
7.132270E+03	4.133116E-16	3.425806E-18
7.142053E+03	4.126668E-16	3.429563E-18
7.151837E+03	4.119848E-16	3.432980E-18
7.161621E+03	4.112562E-16	3.435975E-18
7.171404E+03	4.104874E-16	3.438599E-18
7.181188E+03	4.096799E-16	3.440861E-18
7.190972E+03	4.088357E-16	3.442774E-18
7.200755E+03	4.079564E-16	3.444350E-18
7.210539E+03	4.070391E-16	3.445561E-18
7.220323E+03	4.060908E-16	3.446464E-18
7.230106E+03	4.051134E-16	3.447073E-18
7.239890E+03	4.041091E-16	3.447405E-18
7.249673E+03	4.030798E-16	3.447473E-18
7.259457E+03	4.020221E-16	3.447247E-18
7.269241E+03	4.009479E-16	3.446827E-18
7.279024E+03	3.998589E-16	3.446227E-18
7.288808E+03	3.987518E-16	3.445415E-18
7.298592E+03	3.976328E-16	3.444447E-18
7.308375E+03	3.964934E-16	3.443246E-18
7.318159E+03	3.953401E-16	3.441868E-18
7.327943E+03	3.941741E-16	3.440322E-18
7.337726E+03	3.929916E-16	3.438574E-18
7.347510E+03	3.917986E-16	3.436675E-18
7.357293E+03	3.905908E-16	3.434588E-18
7.367077E+03	3.893737E-16	3.432361E-18
7.376861E+03	3.881424E-16	3.429948E-18
7.386644E+03	3.868968E-16	3.427347E-18
7.396428E+03	3.856360E-16	3.424551E-18
7.406212E+03	3.843593E-16	3.421553E-18
7.415995E+03	3.830702E-16	3.418382E-18
7.425779E+03	3.817573E-16	3.414936E-18
7.435563E+03	3.804286E-16	3.411285E-18
7.445346E+03	3.790776E-16	3.407370E-18
7.455130E+03	3.777022E-16	3.403171E-18
7.464913E+03	3.763008E-16	3.398671E-18
7.474697E+03	3.748769E-16	3.393902E-18
7.484481E+03	3.734197E-16	3.388763E-18
7.494264E+03	3.719337E-16	3.383294E-18
7.504048E+03	3.704238E-16	3.377538E-18
7.513832E+03	3.688860E-16	3.371457E-18
7.523615E+03	3.673170E-16	3.365019E-18
7.533399E+03	3.657289E-16	3.358334E-18
7.543183E+03	3.641248E-16	3.351429E-18
7.552966E+03	3.624991E-16	3.344251E-18
7.562750E+03	3.608655E-16	3.336927E-18
7.572533E+03	3.592199E-16	3.329418E-18
7.582317E+03	3.575771E-16	3.321860E-18
7.592101E+03	3.559428E-16	3.314310E-18
