#wls	flux	fluxerr
1.565382E+03	1.432584E-16	1.904569E-18
1.604516E+03	1.467591E-16	1.947816E-18
1.643651E+03	1.502185E-16	1.990273E-18
1.682785E+03	1.536248E-16	2.031781E-18
1.721920E+03	1.569587E-16	2.072080E-18
1.761054E+03	1.601512E-16	2.110258E-18
1.800189E+03	1.632319E-16	2.146708E-18
1.839323E+03	1.660607E-16	2.179591E-18
1.878458E+03	1.686102E-16	2.208562E-18
1.917592E+03	1.707606E-16	2.232070E-18
1.956727E+03	1.724965E-16	2.249940E-18
1.995862E+03	1.739131E-16	2.263440E-18
2.034996E+03	1.752343E-16	2.275501E-18
2.074131E+03	1.769818E-16	2.292886E-18
2.113265E+03	1.797681E-16	2.323465E-18
2.152400E+03	1.840774E-16	2.373381E-18
2.191534E+03	1.900714E-16	2.444554E-18
2.230669E+03	1.974611E-16	2.533104E-18
2.269803E+03	2.058218E-16	2.633436E-18
2.308938E+03	2.146998E-16	2.739644E-18
2.348072E+03	2.237231E-16	2.846918E-18
2.387207E+03	2.327308E-16	2.953178E-18
2.426341E+03	2.416227E-16	3.057133E-18
2.465476E+03	2.503560E-16	3.158233E-18
2.504611E+03	2.588709E-16	3.255718E-18
2.543745E+03	2.671999E-16	3.350001E-18
2.582880E+03	2.753331E-16	3.440953E-18
2.622014E+03	2.832091E-16	3.527814E-18
2.661149E+03	2.908931E-16	3.611398E-18
2.700283E+03	2.983084E-16	3.690761E-18
2.739418E+03	3.054151E-16	3.765423E-18
2.778552E+03	3.122122E-16	3.835390E-18
2.817687E+03	3.186464E-16	3.900032E-18
2.856821E+03	3.247500E-16	3.959774E-18
2.895956E+03	3.305035E-16	4.014405E-18
2.935090E+03	3.358811E-16	4.063647E-18
2.944874E+03	3.371707E-16	4.075166E-18
2.954658E+03	3.384446E-16	4.086446E-18
2.964441E+03	3.397017E-16	4.097474E-18
2.974225E+03	3.409412E-16	4.108239E-18
2.984009E+03	3.421645E-16	4.118760E-18
2.993792E+03	3.433729E-16	4.129052E-18
3.003576E+03	3.445639E-16	4.139086E-18
3.013360E+03	3.457354E-16	4.148836E-18
3.023143E+03	3.469291E-16	4.158802E-18
3.032927E+03	3.480575E-16	4.167938E-18
3.042710E+03	3.492432E-16	4.177710E-18
3.052494E+03	3.503655E-16	4.186675E-18
3.062278E+03	3.515081E-16	4.195834E-18
3.072061E+03	3.526676E-16	4.205145E-18
3.081845E+03	3.537973E-16	4.214051E-18
3.091629E+03	3.548944E-16	4.222521E-18
3.101412E+03	3.560414E-16	4.231534E-18
3.111196E+03	3.571498E-16	4.240039E-18
3.120980E+03	3.582591E-16	4.248506E-18
3.130763E+03	3.593663E-16	4.256898E-18
3.140547E+03	3.605102E-16	4.265674E-18
3.150330E+03	3.616043E-16	4.273811E-18
3.160114E+03	3.626876E-16	4.281771E-18
3.169898E+03	3.637985E-16	4.290008E-18
3.179681E+03	3.648928E-16	4.297997E-18
3.189465E+03	3.660084E-16	4.306188E-18
3.199249E+03	3.671018E-16	4.314066E-18
3.209032E+03	3.682504E-16	4.322542E-18
3.218816E+03	3.693313E-16	4.330172E-18
3.228600E+03	3.704611E-16	4.338324E-18
3.238383E+03	3.715969E-16	4.346494E-18
3.248167E+03	3.727357E-16	4.354647E-18
3.257950E+03	3.738745E-16	4.362747E-18
3.267734E+03	3.750487E-16	4.371208E-18
3.277518E+03	3.762169E-16	4.379544E-18
3.287301E+03	3.773764E-16	4.387725E-18
3.297085E+03	3.785991E-16	4.396587E-18
3.306869E+03	3.798069E-16	4.405220E-18
3.316652E+03	3.810707E-16	4.414446E-18
3.326436E+03	3.823501E-16	4.423795E-18
3.336220E+03	3.836423E-16	4.433234E-18
3.346003E+03	3.849443E-16	4.442729E-18
3.355787E+03	3.862887E-16	4.452653E-18
3.365570E+03	3.876722E-16	4.462967E-18
3.375354E+03	3.890914E-16	4.473629E-18
3.385138E+03	3.905431E-16	4.484602E-18
3.394921E+03	3.920247E-16	4.495855E-18
3.404705E+03	3.935335E-16	4.507353E-18
3.414489E+03	3.951002E-16	4.519449E-18
3.424272E+03	3.967219E-16	4.532104E-18
3.434056E+03	3.983633E-16	4.544915E-18
3.443839E+03	4.000870E-16	4.558593E-18
3.453623E+03	4.018266E-16	4.572380E-18
3.463407E+03	4.036753E-16	4.587331E-18
3.473190E+03	4.055367E-16	4.602350E-18
3.482974E+03	4.074719E-16	4.618127E-18
3.492758E+03	4.094794E-16	4.634643E-18
3.502541E+03	4.115875E-16	4.652213E-18
3.512325E+03	4.137356E-16	4.670148E-18
3.522109E+03	4.159533E-16	4.688780E-18
3.531892E+03	4.182691E-16	4.708428E-18
3.541676E+03	4.206825E-16	4.729079E-18
3.551459E+03	4.231650E-16	4.750409E-18
3.561243E+03	4.257730E-16	4.773048E-18
3.571027E+03	4.284512E-16	4.796369E-18
3.580810E+03	4.312553E-16	4.820992E-18
3.590594E+03	4.341586E-16	4.846613E-18
3.600378E+03	4.371622E-16	4.873240E-18
3.610161E+03	4.403198E-16	4.901463E-18
3.619945E+03	4.435794E-16	4.930699E-18
3.629729E+03	4.469682E-16	4.961244E-18
3.639512E+03	4.504872E-16	4.993101E-18
3.649296E+03	4.541371E-16	5.026274E-18
3.659079E+03	4.579189E-16	5.060765E-18
3.668863E+03	4.618577E-16	5.096846E-18
3.678647E+03	4.659536E-16	5.134509E-18
3.688430E+03	4.701827E-16	5.173484E-18
3.698214E+03	4.745454E-16	5.213767E-18
3.707998E+03	4.790886E-16	5.255866E-18
3.717781E+03	4.837647E-16	5.299251E-18
3.727565E+03	4.886191E-16	5.344412E-18
3.737349E+03	4.936047E-16	5.390825E-18
3.747132E+03	4.987653E-16	5.438959E-18
3.756916E+03	5.040761E-16	5.488537E-18
3.766699E+03	5.095347E-16	5.539525E-18
3.776483E+03	5.151382E-16	5.591884E-18
3.786267E+03	5.209052E-16	5.645805E-18
3.796050E+03	5.268098E-16	5.701002E-18
3.805834E+03	5.328478E-16	5.757422E-18
3.815618E+03	5.390354E-16	5.815232E-18
3.825401E+03	5.453458E-16	5.874135E-18
3.835185E+03	5.517938E-16	5.934283E-18
3.844969E+03	5.583312E-16	5.995153E-18
3.854752E+03	5.650118E-16	6.057315E-18
3.864536E+03	5.717667E-16	6.120025E-18
3.874319E+03	5.786072E-16	6.183399E-18
3.884103E+03	5.855435E-16	6.247541E-18
3.893887E+03	5.925452E-16	6.312122E-18
3.903670E+03	5.995820E-16	6.376817E-18
3.913454E+03	6.066808E-16	6.441907E-18
3.923238E+03	6.137905E-16	6.506849E-18
3.933021E+03	6.209172E-16	6.571706E-18
3.942805E+03	6.280282E-16	6.636131E-18
3.952589E+03	6.351284E-16	6.700177E-18
3.962372E+03	6.421844E-16	6.763492E-18
3.972156E+03	6.491816E-16	6.825926E-18
3.981939E+03	6.560872E-16	6.887134E-18
3.991723E+03	6.629047E-16	6.947160E-18
4.001507E+03	6.696193E-16	7.005854E-18
4.011290E+03	6.761815E-16	7.062704E-18
4.021074E+03	6.826133E-16	7.117947E-18
4.030858E+03	6.888494E-16	7.170909E-18
4.040641E+03	6.949129E-16	7.221843E-18
4.050425E+03	7.007928E-16	7.270642E-18
4.060208E+03	7.064287E-16	7.316691E-18
4.069992E+03	7.118464E-16	7.360269E-18
4.079776E+03	7.170223E-16	7.401145E-18
4.089559E+03	7.219351E-16	7.439113E-18
4.099343E+03	7.265975E-16	7.474317E-18
4.109127E+03	7.309754E-16	7.506422E-18
4.118910E+03	7.350851E-16	7.535608E-18
4.128694E+03	7.388967E-16	7.561585E-18
4.138478E+03	7.424294E-16	7.584567E-18
4.148261E+03	7.456731E-16	7.604465E-18
4.158045E+03	7.486349E-16	7.621367E-18
4.167828E+03	7.512934E-16	7.635070E-18
4.177612E+03	7.536739E-16	7.645851E-18
4.187396E+03	7.557736E-16	7.653695E-18
4.197179E+03	7.575915E-16	7.658606E-18
4.206963E+03	7.591422E-16	7.660750E-18
4.216747E+03	7.604275E-16	7.660159E-18
4.226530E+03	7.614647E-16	7.657022E-18
4.236314E+03	7.622579E-16	7.651394E-18
4.246098E+03	7.628127E-16	7.643345E-18
4.255881E+03	7.631627E-16	7.633225E-18
4.265665E+03	7.632891E-16	7.620858E-18
4.275448E+03	7.632403E-16	7.606739E-18
4.285232E+03	7.630135E-16	7.590850E-18
4.295016E+03	7.626209E-16	7.573324E-18
4.304799E+03	7.621013E-16	7.554554E-18
4.314583E+03	7.614450E-16	7.534452E-18
4.324367E+03	7.607050E-16	7.513549E-18
4.334150E+03	7.598855E-16	7.491892E-18
4.343934E+03	7.590153E-16	7.469767E-18
4.353718E+03	7.580986E-16	7.447217E-18
4.363501E+03	7.571741E-16	7.424627E-18
4.373285E+03	7.562671E-16	7.402242E-18
4.383068E+03	7.553900E-16	7.380183E-18
4.392852E+03	7.545647E-16	7.358662E-18
4.402636E+03	7.538219E-16	7.337975E-18
4.412419E+03	7.531682E-16	7.318181E-18
4.422203E+03	7.526185E-16	7.299421E-18
4.431987E+03	7.521856E-16	7.281812E-18
4.441770E+03	7.518797E-16	7.265447E-18
4.451554E+03	7.517082E-16	7.250389E-18
4.461338E+03	7.516758E-16	7.236679E-18
4.471121E+03	7.517847E-16	7.224329E-18
4.480905E+03	7.520345E-16	7.213327E-18
4.490688E+03	7.524219E-16	7.203635E-18
4.500472E+03	7.529415E-16	7.195194E-18
4.510256E+03	7.535852E-16	7.187918E-18
4.520039E+03	7.543426E-16	7.181704E-18
4.529823E+03	7.552116E-16	7.176525E-18
4.539607E+03	7.561583E-16	7.172053E-18
4.549390E+03	7.571866E-16	7.168322E-18
4.559174E+03	7.582605E-16	7.164987E-18
4.568958E+03	7.593813E-16	7.162058E-18
4.578741E+03	7.605117E-16	7.159181E-18
4.588525E+03	7.616326E-16	7.156178E-18
4.598308E+03	7.627352E-16	7.152965E-18
4.608092E+03	7.637916E-16	7.149284E-18
4.617876E+03	7.647840E-16	7.144970E-18
4.627659E+03	7.656862E-16	7.139783E-18
4.637443E+03	7.664823E-16	7.133581E-18
4.647227E+03	7.671580E-16	7.126235E-18
4.657010E+03	7.676812E-16	7.117457E-18
4.666794E+03	7.680407E-16	7.107150E-18
4.676577E+03	7.682261E-16	7.095226E-18
4.686361E+03	7.682195E-16	7.081533E-18
4.696145E+03	7.680409E-16	7.066263E-18
4.705928E+03	7.676749E-16	7.049285E-18
4.715712E+03	7.671255E-16	7.030647E-18
4.725496E+03	7.664159E-16	7.010569E-18
4.735279E+03	7.655245E-16	6.988866E-18
4.745063E+03	7.644675E-16	6.965692E-18
4.754847E+03	7.632518E-16	6.941123E-18
4.764630E+03	7.618856E-16	6.915240E-18
4.774414E+03	7.603600E-16	6.887971E-18
4.784197E+03	7.587016E-16	6.859568E-18
4.793981E+03	7.568945E-16	6.829892E-18
4.803765E+03	7.549492E-16	6.799046E-18
4.813548E+03	7.528854E-16	6.767218E-18
4.823332E+03	7.506979E-16	6.734366E-18
4.833116E+03	7.483996E-16	6.700612E-18
4.842899E+03	7.459868E-16	6.665932E-18
4.852683E+03	7.434907E-16	6.630608E-18
4.862467E+03	7.408927E-16	6.594483E-18
4.872250E+03	7.382253E-16	6.557848E-18
4.882034E+03	7.354883E-16	6.520708E-18
4.891817E+03	7.326908E-16	6.483147E-18
4.901601E+03	7.298505E-16	6.445324E-18
4.911385E+03	7.269692E-16	6.407260E-18
4.921168E+03	7.240736E-16	6.369192E-18
4.930952E+03	7.211586E-16	6.331077E-18
4.940736E+03	7.182508E-16	6.293148E-18
4.950519E+03	7.153457E-16	6.255369E-18
4.960303E+03	7.124700E-16	6.217970E-18
4.970087E+03	7.096343E-16	6.181045E-18
4.979870E+03	7.068412E-16	6.144616E-18
4.989654E+03	7.041088E-16	6.108837E-18
4.999437E+03	7.014466E-16	6.073788E-18
5.009221E+03	6.988564E-16	6.039483E-18
5.019005E+03	6.963542E-16	6.006056E-18
5.028788E+03	6.939481E-16	5.973573E-18
5.038572E+03	6.916452E-16	5.942093E-18
5.048356E+03	6.894449E-16	5.911604E-18
5.058139E+03	6.873675E-16	5.882276E-18
5.067923E+03	6.854030E-16	5.854020E-18
5.077707E+03	6.835698E-16	5.826988E-18
5.087490E+03	6.818632E-16	5.801133E-18
5.097274E+03	6.802774E-16	5.776401E-18
5.107057E+03	6.788201E-16	5.752853E-18
5.116841E+03	6.774969E-16	5.730531E-18
5.126625E+03	6.762912E-16	5.709289E-18
5.136408E+03	6.752132E-16	5.689209E-18
5.146192E+03	6.742432E-16	5.670120E-18
5.155976E+03	6.733817E-16	5.652022E-18
5.165759E+03	6.726206E-16	5.634844E-18
5.175543E+03	6.719437E-16	5.618446E-18
5.185327E+03	6.713547E-16	5.602857E-18
5.195110E+03	6.708287E-16	5.587867E-18
5.204894E+03	6.703540E-16	5.573378E-18
5.214677E+03	6.699325E-16	5.559402E-18
5.224461E+03	6.695381E-16	5.545726E-18
5.234245E+03	6.691590E-16	5.532249E-18
5.244028E+03	6.687902E-16	5.518933E-18
5.253812E+03	6.684207E-16	5.505688E-18
5.263596E+03	6.680263E-16	5.492317E-18
5.273379E+03	6.676114E-16	5.478857E-18
5.283163E+03	6.671607E-16	5.465188E-18
5.292946E+03	6.666668E-16	5.451252E-18
5.302730E+03	6.661236E-16	5.437001E-18
5.312514E+03	6.655255E-16	5.422395E-18
5.322297E+03	6.648681E-16	5.407403E-18
5.332081E+03	6.641475E-16	5.391996E-18
5.341865E+03	6.633602E-16	5.376151E-18
5.351648E+03	6.624965E-16	5.359792E-18
5.361432E+03	6.615531E-16	5.342897E-18
5.371216E+03	6.605408E-16	5.325554E-18
5.380999E+03	6.594440E-16	5.307642E-18
5.390783E+03	6.582678E-16	5.289203E-18
5.400566E+03	6.570108E-16	5.270231E-18
5.410350E+03	6.556847E-16	5.250820E-18
5.420134E+03	6.542814E-16	5.230910E-18
5.429917E+03	6.527991E-16	5.210488E-18
5.439701E+03	6.512297E-16	5.189492E-18
5.449485E+03	6.495716E-16	5.167912E-18
5.459268E+03	6.478301E-16	5.145795E-18
5.469052E+03	6.459919E-16	5.123036E-18
5.478836E+03	6.440638E-16	5.099693E-18
5.488619E+03	6.420531E-16	5.075826E-18
5.498403E+03	6.399495E-16	5.051357E-18
5.508186E+03	6.377687E-16	5.026413E-18
5.517970E+03	6.355024E-16	5.000930E-18
5.527754E+03	6.331621E-16	4.975002E-18
5.537537E+03	6.307541E-16	4.948679E-18
5.547321E+03	6.282855E-16	4.922019E-18
5.557105E+03	6.257640E-16	4.895085E-18
5.566888E+03	6.231921E-16	4.867897E-18
5.576672E+03	6.205848E-16	4.840573E-18
5.586456E+03	6.179516E-16	4.813188E-18
5.596239E+03	6.152958E-16	4.785769E-18
5.606023E+03	6.126272E-16	4.758390E-18
5.615806E+03	6.099616E-16	4.731176E-18
5.625590E+03	6.073025E-16	4.704152E-18
5.635374E+03	6.046595E-16	4.677392E-18
5.645157E+03	6.020361E-16	4.650922E-18
5.654941E+03	5.994532E-16	4.624902E-18
5.664725E+03	5.969082E-16	4.599312E-18
5.674508E+03	5.944154E-16	4.574259E-18
5.684292E+03	5.919779E-16	4.549765E-18
5.694076E+03	5.896039E-16	4.525893E-18
5.703859E+03	5.873074E-16	4.502745E-18
5.713643E+03	5.850846E-16	4.480294E-18
5.723426E+03	5.829489E-16	4.458636E-18
5.733210E+03	5.809017E-16	4.437783E-18
5.742994E+03	5.789550E-16	4.417822E-18
5.752777E+03	5.771148E-16	4.398796E-18
5.762561E+03	5.753749E-16	4.380656E-18
5.772345E+03	5.737449E-16	4.363474E-18
5.782128E+03	5.722223E-16	4.347226E-18
5.791912E+03	5.708200E-16	4.332009E-18
5.801696E+03	5.695215E-16	4.317697E-18
5.811479E+03	5.683368E-16	4.304361E-18
5.821263E+03	5.672521E-16	4.291896E-18
5.831046E+03	5.662743E-16	4.280352E-18
5.840830E+03	5.653861E-16	4.269598E-18
5.850614E+03	5.645804E-16	4.259579E-18
5.860397E+03	5.638534E-16	4.250265E-18
5.870181E+03	5.631953E-16	4.241580E-18
5.879965E+03	5.625838E-16	4.233359E-18
5.889748E+03	5.620177E-16	4.225592E-18
5.899532E+03	5.614735E-16	4.218102E-18
5.909315E+03	5.609490E-16	4.210874E-18
5.919099E+03	5.604203E-16	4.203728E-18
5.928883E+03	5.598800E-16	4.196612E-18
5.938666E+03	5.593159E-16	4.189435E-18
5.948450E+03	5.587215E-16	4.182150E-18
5.958234E+03	5.580755E-16	4.174599E-18
5.968017E+03	5.573734E-16	4.166751E-18
5.977801E+03	5.566068E-16	4.158544E-18
5.987585E+03	5.557740E-16	4.149970E-18
5.997368E+03	5.548691E-16	4.140984E-18
6.007152E+03	5.538877E-16	4.131556E-18
6.016935E+03	5.528375E-16	4.121747E-18
6.026719E+03	5.517169E-16	4.111544E-18
6.036503E+03	5.505363E-16	4.101028E-18
6.046286E+03	5.493021E-16	4.090248E-18
6.056070E+03	5.480271E-16	4.079301E-18
6.065854E+03	5.466934E-16	4.068053E-18
6.075637E+03	5.453057E-16	4.056542E-18
6.085421E+03	5.438591E-16	4.044733E-18
6.095205E+03	5.423550E-16	4.032636E-18
6.104988E+03	5.408015E-16	4.020314E-18
6.114772E+03	5.392075E-16	4.007832E-18
6.124555E+03	5.375827E-16	3.995264E-18
6.134339E+03	5.359325E-16	3.982651E-18
6.144123E+03	5.342682E-16	3.970077E-18
6.153906E+03	5.326125E-16	3.957711E-18
6.163690E+03	5.309673E-16	3.945568E-18
6.173474E+03	5.293510E-16	3.933786E-18
6.183257E+03	5.277770E-16	3.922464E-18
6.193041E+03	5.262588E-16	3.911702E-18
6.202825E+03	5.248155E-16	3.901644E-18
6.212608E+03	5.234553E-16	3.892353E-18
6.222392E+03	5.221969E-16	3.883967E-18
6.232175E+03	5.210587E-16	3.876625E-18
6.241959E+03	5.200428E-16	3.870344E-18
6.251743E+03	5.191715E-16	3.865291E-18
6.261526E+03	5.184504E-16	3.861512E-18
6.271310E+03	5.178895E-16	3.859083E-18
6.281094E+03	5.175079E-16	3.858147E-18
6.290877E+03	5.172966E-16	3.858644E-18
6.300661E+03	5.172770E-16	3.860735E-18
6.310445E+03	5.174417E-16	3.864368E-18
6.320228E+03	5.177971E-16	3.869592E-18
6.330012E+03	5.183365E-16	3.876358E-18
6.339795E+03	5.190613E-16	3.884678E-18
6.349579E+03	5.199592E-16	3.894459E-18
6.359363E+03	5.210256E-16	3.905671E-18
6.369146E+03	5.222417E-16	3.918172E-18
6.378930E+03	5.236011E-16	3.931917E-18
6.388714E+03	5.250768E-16	3.946704E-18
6.398497E+03	5.266596E-16	3.962465E-18
6.408281E+03	5.283139E-16	3.978933E-18
6.418065E+03	5.300114E-16	3.995896E-18
6.427848E+03	5.317158E-16	4.013080E-18
6.437632E+03	5.334004E-16	4.030280E-18
6.447415E+03	5.350264E-16	4.047203E-18
6.457199E+03	5.365492E-16	4.063508E-18
6.466983E+03	5.379422E-16	4.078989E-18
6.476766E+03	5.391690E-16	4.093365E-18
6.486550E+03	5.401955E-16	4.106369E-18
6.496334E+03	5.409960E-16	4.117800E-18
6.506117E+03	5.415429E-16	4.127437E-18
6.515901E+03	5.418066E-16	4.135045E-18
6.525684E+03	5.417795E-16	4.140556E-18
6.535468E+03	5.414412E-16	4.143801E-18
6.545252E+03	5.407883E-16	4.144741E-18
6.555035E+03	5.398100E-16	4.143281E-18
6.564819E+03	5.385130E-16	4.139458E-18
6.574603E+03	5.369026E-16	4.133298E-18
6.584386E+03	5.349886E-16	4.124863E-18
6.594170E+03	5.327850E-16	4.114249E-18
6.603954E+03	5.303098E-16	4.101577E-18
6.613737E+03	5.275840E-16	4.087000E-18
6.623521E+03	5.246374E-16	4.070735E-18
6.633304E+03	5.214902E-16	4.052926E-18
6.643088E+03	5.181699E-16	4.033777E-18
6.652872E+03	5.147109E-16	4.013546E-18
6.662655E+03	5.111366E-16	3.992404E-18
6.672439E+03	5.074816E-16	3.970618E-18
6.682223E+03	5.037690E-16	3.948357E-18
6.692006E+03	5.000318E-16	3.925879E-18
6.701790E+03	4.962908E-16	3.903339E-18
6.711574E+03	4.925765E-16	3.880976E-18
6.721357E+03	4.889116E-16	3.858967E-18
6.731141E+03	4.853059E-16	3.837386E-18
6.740924E+03	4.817950E-16	3.816517E-18
6.750708E+03	4.783844E-16	3.796403E-18
6.760492E+03	4.750884E-16	3.777160E-18
6.770275E+03	4.719248E-16	3.758933E-18
6.780059E+03	4.689036E-16	3.741802E-18
6.789843E+03	4.660218E-16	3.725748E-18
6.799626E+03	4.633018E-16	3.710955E-18
6.809410E+03	4.607315E-16	3.697329E-18
6.819194E+03	4.583239E-16	3.684982E-18
6.828977E+03	4.560748E-16	3.673883E-18
6.838761E+03	4.539834E-16	3.664031E-18
6.848544E+03	4.520480E-16	3.655419E-18
6.858328E+03	4.502657E-16	3.648027E-18
6.868112E+03	4.486325E-16	3.641830E-18
6.877895E+03	4.471438E-16	3.636793E-18
6.887679E+03	4.457886E-16	3.632834E-18
6.897463E+03	4.445715E-16	3.629995E-18
6.907246E+03	4.434701E-16	3.628097E-18
6.917030E+03	4.424879E-16	3.627174E-18
6.926814E+03	4.416176E-16	3.627170E-18
6.936597E+03	4.408411E-16	3.627939E-18
6.946381E+03	4.401612E-16	3.629510E-18
6.956164E+03	4.395595E-16	3.631732E-18
6.965948E+03	4.390335E-16	3.634587E-18
6.975732E+03	4.385700E-16	3.637970E-18
6.985515E+03	4.381665E-16	3.641861E-18
6.995299E+03	4.378154E-16	3.646199E-18
7.005083E+03	4.374987E-16	3.650835E-18
7.014866E+03	4.372142E-16	3.655752E-18
7.024650E+03	4.369550E-16	3.660893E-18
7.034434E+03	4.367093E-16	3.666158E-18
7.044217E+03	4.364758E-16	3.671537E-18
7.054001E+03	4.362435E-16	3.676937E-18
7.063784E+03	4.360013E-16	3.682264E-18
7.073568E+03	4.357550E-16	3.687565E-18
7.083352E+03	4.354894E-16	3.692709E-18
7.093135E+03	4.352055E-16	3.697705E-18
7.102919E+03	4.348944E-16	3.702475E-18
7.112703E+03	4.345531E-16	3.706990E-18
7.122486E+03	4.341733E-16	3.711178E-18
7.132270E+03	4.337637E-16	3.715110E-18
7.142053E+03	4.333117E-16	3.718677E-18
7.151837E+03	4.328214E-16	3.721910E-18
7.161621E+03	4.322863E-16	3.724752E-18
7.171404E+03	4.317059E-16	3.727194E-18
7.181188E+03	4.310798E-16	3.729232E-18
7.190972E+03	4.304081E-16	3.730862E-18
7.200755E+03	4.296910E-16	3.732082E-18
7.210539E+03	4.289289E-16	3.732895E-18
7.220323E+03	4.281224E-16	3.733302E-18
7.230106E+03	4.272723E-16	3.733308E-18
7.239890E+03	4.263741E-16	3.732869E-18
7.249673E+03	4.254341E-16	3.732040E-18
7.259457E+03	4.244480E-16	3.730780E-18
7.269241E+03	4.234222E-16	3.729141E-18
7.279024E+03	4.223578E-16	3.727131E-18
7.288808E+03	4.212556E-16	3.724756E-18
7.298592E+03	4.201063E-16	3.721929E-18
7.308375E+03	4.189266E-16	3.718797E-18
7.318159E+03	4.177068E-16	3.715271E-18
7.327943E+03	4.164478E-16	3.711358E-18
7.337726E+03	4.151502E-16	3.707060E-18
7.347510E+03	4.138199E-16	3.702427E-18
7.357293E+03	4.124575E-16	3.697463E-18
7.367077E+03	4.110527E-16	3.692075E-18
7.376861E+03	4.096166E-16	3.686358E-18
7.386644E+03	4.081490E-16	3.680310E-18
7.396428E+03	4.066398E-16	3.673837E-18
7.406212E+03	4.050994E-16	3.667031E-18
7.415995E+03	4.035279E-16	3.659892E-18
7.425779E+03	4.019200E-16	3.652370E-18
7.435563E+03	4.002758E-16	3.644462E-18
7.445346E+03	3.986006E-16	3.636216E-18
7.455130E+03	3.968947E-16	3.627633E-18
7.464913E+03	3.951534E-16	3.618668E-18
7.474697E+03	3.933822E-16	3.609369E-18
7.484481E+03	3.915771E-16	3.599699E-18
7.494264E+03	3.897493E-16	3.589758E-18
7.504048E+03	3.878902E-16	3.579465E-18
7.513832E+03	3.860114E-16	3.568927E-18
7.523615E+03	3.841051E-16	3.558071E-18
7.533399E+03	3.821837E-16	3.547009E-18
7.543183E+03	3.802448E-16	3.535718E-18
7.552966E+03	3.782914E-16	3.524227E-18
7.562750E+03	3.763267E-16	3.512563E-18
7.572533E+03	3.743591E-16	3.500805E-18
7.582317E+03	3.723873E-16	3.488941E-18
7.592101E+03	3.704198E-16	3.477050E-18
