#wls	flux	fluxerr
1.565382E+03	9.264554E-17	2.736681E-18
1.604516E+03	9.531185E-17	2.811983E-18
1.643651E+03	9.794536E-17	2.886035E-18
1.682785E+03	1.005719E-16	2.959593E-18
1.721920E+03	1.031592E-16	3.031702E-18
1.761054E+03	1.056797E-16	3.101546E-18
1.800189E+03	1.081086E-16	3.168395E-18
1.839323E+03	1.103709E-16	3.230060E-18
1.878458E+03	1.124415E-16	3.285819E-18
1.917592E+03	1.142372E-16	3.333261E-18
1.956727E+03	1.157211E-16	3.371336E-18
1.995862E+03	1.169499E-16	3.401731E-18
2.034996E+03	1.180928E-16	3.429390E-18
2.074131E+03	1.194768E-16	3.463799E-18
2.113265E+03	1.215147E-16	3.516862E-18
2.152400E+03	1.245754E-16	3.599129E-18
2.191534E+03	1.287237E-16	3.712301E-18
2.230669E+03	1.337841E-16	3.851144E-18
2.269803E+03	1.394843E-16	4.007664E-18
2.308938E+03	1.454892E-16	4.172125E-18
2.348072E+03	1.515902E-16	4.338481E-18
2.387207E+03	1.576717E-16	4.503390E-18
2.426341E+03	1.636621E-16	4.664785E-18
2.465476E+03	1.695532E-16	4.822427E-18
2.504611E+03	1.753302E-16	4.975887E-18
2.543745E+03	1.810359E-16	5.126372E-18
2.582880E+03	1.866609E-16	5.273602E-18
2.622014E+03	1.922175E-16	5.417915E-18
2.661149E+03	1.977399E-16	5.560263E-18
2.700283E+03	2.032033E-16	5.699926E-18
2.739418E+03	2.086038E-16	5.836786E-18
2.778552E+03	2.139858E-16	5.972069E-18
2.817687E+03	2.193351E-16	6.105355E-18
2.856821E+03	2.246323E-16	6.236088E-18
2.895956E+03	2.298805E-16	6.364340E-18
2.935090E+03	2.350783E-16	6.490058E-18
2.944874E+03	2.363955E-16	6.521800E-18
2.954658E+03	2.376923E-16	6.552900E-18
2.964441E+03	2.389676E-16	6.583338E-18
2.974225E+03	2.402724E-16	6.614515E-18
2.984009E+03	2.415563E-16	6.645045E-18
2.993792E+03	2.428461E-16	6.675661E-18
3.003576E+03	2.441400E-16	6.706314E-18
3.013360E+03	2.454364E-16	6.736962E-18
3.023143E+03	2.467337E-16	6.767560E-18
3.032927E+03	2.480326E-16	6.798125E-18
3.042710E+03	2.493268E-16	6.828486E-18
3.052494E+03	2.506242E-16	6.858854E-18
3.062278E+03	2.519469E-16	6.889841E-18
3.072061E+03	2.532437E-16	6.920042E-18
3.081845E+03	2.545618E-16	6.950745E-18
3.091629E+03	2.558990E-16	6.981888E-18
3.101412E+03	2.572049E-16	7.012101E-18
3.111196E+03	2.585262E-16	7.042653E-18
3.120980E+03	2.598610E-16	7.073491E-18
3.130763E+03	2.611837E-16	7.103919E-18
3.140547E+03	2.625166E-16	7.134543E-18
3.150330E+03	2.638346E-16	7.164679E-18
3.160114E+03	2.651828E-16	7.195555E-18
3.169898E+03	2.665133E-16	7.225866E-18
3.179681E+03	2.678478E-16	7.256204E-18
3.189465E+03	2.691623E-16	7.285915E-18
3.199249E+03	2.705010E-16	7.316199E-18
3.209032E+03	2.718398E-16	7.346401E-18
3.218816E+03	2.731775E-16	7.376488E-18
3.228600E+03	2.745351E-16	7.407024E-18
3.238383E+03	2.758671E-16	7.436785E-18
3.248167E+03	2.772165E-16	7.466930E-18
3.257950E+03	2.785603E-16	7.496837E-18
3.267734E+03	2.799191E-16	7.527059E-18
3.277518E+03	2.812914E-16	7.557558E-18
3.287301E+03	2.826550E-16	7.587732E-18
3.297085E+03	2.840301E-16	7.618124E-18
3.306869E+03	2.854153E-16	7.648699E-18
3.316652E+03	2.867891E-16	7.678877E-18
3.326436E+03	2.881916E-16	7.709734E-18
3.336220E+03	2.896012E-16	7.740686E-18
3.346003E+03	2.910168E-16	7.771706E-18
3.355787E+03	2.924574E-16	7.803298E-18
3.365570E+03	2.938820E-16	7.834371E-18
3.375354E+03	2.953491E-16	7.866479E-18
3.385138E+03	2.968180E-16	7.898536E-18
3.394921E+03	2.982879E-16	7.930525E-18
3.404705E+03	2.997962E-16	7.963435E-18
3.414489E+03	3.013034E-16	7.996214E-18
3.424272E+03	3.028275E-16	8.029342E-18
3.434056E+03	3.043674E-16	8.062786E-18
3.443839E+03	3.059403E-16	8.097002E-18
3.453623E+03	3.075264E-16	8.131461E-18
3.463407E+03	3.091247E-16	8.166134E-18
3.473190E+03	3.107519E-16	8.201465E-18
3.482974E+03	3.124065E-16	8.237409E-18
3.492758E+03	3.140695E-16	8.273465E-18
3.502541E+03	3.157745E-16	8.310514E-18
3.512325E+03	3.174854E-16	8.347602E-18
3.522109E+03	3.192179E-16	8.385148E-18
3.531892E+03	3.209876E-16	8.423551E-18
3.541676E+03	3.227758E-16	8.462320E-18
3.551459E+03	3.245975E-16	8.501848E-18
3.561243E+03	3.264344E-16	8.541653E-18
3.571027E+03	3.283013E-16	8.582118E-18
3.580810E+03	3.301961E-16	8.623187E-18
3.590594E+03	3.321169E-16	8.664809E-18
3.600378E+03	3.340773E-16	8.707333E-18
3.610161E+03	3.360438E-16	8.749886E-18
3.619945E+03	3.380456E-16	8.793226E-18
3.629729E+03	3.400800E-16	8.837281E-18
3.639512E+03	3.421296E-16	8.881591E-18
3.649296E+03	3.442070E-16	8.926489E-18
3.659079E+03	3.463098E-16	8.971902E-18
3.668863E+03	3.484351E-16	9.017758E-18
3.678647E+03	3.505802E-16	9.063987E-18
3.688430E+03	3.527427E-16	9.110518E-18
3.698214E+03	3.549336E-16	9.157639E-18
3.707998E+03	3.571500E-16	9.205269E-18
3.717781E+03	3.593745E-16	9.252961E-18
3.727565E+03	3.616319E-16	9.301349E-18
3.737349E+03	3.638913E-16	9.349634E-18
3.747132E+03	3.661631E-16	9.398089E-18
3.756916E+03	3.684442E-16	9.446627E-18
3.766699E+03	3.707441E-16	9.495494E-18
3.776483E+03	3.730462E-16	9.544263E-18
3.786267E+03	3.753600E-16	9.593173E-18
3.796050E+03	3.776818E-16	9.642130E-18
3.805834E+03	3.799952E-16	9.690716E-18
3.815618E+03	3.823094E-16	9.739167E-18
3.825401E+03	3.846209E-16	9.787389E-18
3.835185E+03	3.869259E-16	9.835289E-18
3.844969E+03	3.892210E-16	9.882781E-18
3.854752E+03	3.915029E-16	9.929779E-18
3.864536E+03	3.937799E-16	9.976495E-18
3.874319E+03	3.960369E-16	1.002255E-17
3.884103E+03	3.982708E-16	1.006787E-17
3.893887E+03	4.004901E-16	1.011266E-17
3.903670E+03	4.026804E-16	1.015656E-17
3.913454E+03	4.048395E-16	1.019953E-17
3.923238E+03	4.069757E-16	1.024176E-17
3.933021E+03	4.090867E-16	1.028322E-17
3.942805E+03	4.111598E-16	1.032357E-17
3.952589E+03	4.131933E-16	1.036279E-17
3.962372E+03	4.151964E-16	1.040110E-17
3.972156E+03	4.171577E-16	1.043822E-17
3.981939E+03	4.190765E-16	1.047413E-17
3.991723E+03	4.209627E-16	1.050910E-17
4.001507E+03	4.228064E-16	1.054287E-17
4.011290E+03	4.245981E-16	1.057521E-17
4.021074E+03	4.263587E-16	1.060664E-17
4.030858E+03	4.280700E-16	1.063673E-17
4.040641E+03	4.297438E-16	1.066575E-17
4.050425E+03	4.313731E-16	1.069355E-17
4.060208E+03	4.329611E-16	1.072021E-17
4.069992E+03	4.345111E-16	1.074581E-17
4.079776E+03	4.360186E-16	1.077024E-17
4.089559E+03	4.374970E-16	1.079384E-17
4.099343E+03	4.389341E-16	1.081631E-17
4.109127E+03	4.403446E-16	1.083802E-17
4.118910E+03	4.417263E-16	1.085892E-17
4.128694E+03	4.430781E-16	1.087897E-17
4.138478E+03	4.444159E-16	1.089858E-17
4.148261E+03	4.457315E-16	1.091755E-17
4.158045E+03	4.470340E-16	1.093609E-17
4.167828E+03	4.483329E-16	1.095445E-17
4.177612E+03	4.496225E-16	1.097248E-17
4.187396E+03	4.509135E-16	1.099045E-17
4.197179E+03	4.522096E-16	1.100845E-17
4.206963E+03	4.535225E-16	1.102676E-17
4.216747E+03	4.548496E-16	1.104531E-17
4.226530E+03	4.562035E-16	1.106442E-17
4.236314E+03	4.575826E-16	1.108403E-17
4.246098E+03	4.590004E-16	1.110449E-17
4.255881E+03	4.604559E-16	1.112575E-17
4.265665E+03	4.619555E-16	1.114798E-17
4.275448E+03	4.635120E-16	1.117147E-17
4.285232E+03	4.651163E-16	1.119600E-17
4.295016E+03	4.667722E-16	1.122166E-17
4.304799E+03	4.684885E-16	1.124865E-17
4.314583E+03	4.702512E-16	1.127664E-17
4.324367E+03	4.720724E-16	1.130591E-17
4.334150E+03	4.739356E-16	1.133607E-17
4.343934E+03	4.758371E-16	1.136701E-17
4.353718E+03	4.777857E-16	1.139895E-17
4.363501E+03	4.797629E-16	1.143143E-17
4.373285E+03	4.817832E-16	1.146481E-17
4.383068E+03	4.838405E-16	1.149894E-17
4.392852E+03	4.859281E-16	1.153364E-17
4.402636E+03	4.880526E-16	1.156907E-17
4.412419E+03	4.902191E-16	1.160536E-17
4.422203E+03	4.924202E-16	1.164232E-17
4.431987E+03	4.946604E-16	1.168005E-17
4.441770E+03	4.969313E-16	1.171835E-17
4.451554E+03	4.992490E-16	1.175760E-17
4.461338E+03	5.015978E-16	1.179743E-17
4.471121E+03	5.039806E-16	1.183789E-17
4.480905E+03	5.063994E-16	1.187904E-17
4.490688E+03	5.088436E-16	1.192061E-17
4.500472E+03	5.113206E-16	1.196279E-17
4.510256E+03	5.138252E-16	1.200545E-17
4.520039E+03	5.163453E-16	1.204829E-17
4.529823E+03	5.188810E-16	1.209133E-17
4.539607E+03	5.214318E-16	1.213455E-17
4.549390E+03	5.239908E-16	1.217778E-17
4.559174E+03	5.265447E-16	1.222072E-17
4.568958E+03	5.290920E-16	1.226334E-17
4.578741E+03	5.316251E-16	1.230544E-17
4.588525E+03	5.341295E-16	1.234672E-17
4.598308E+03	5.365972E-16	1.238697E-17
4.608092E+03	5.390260E-16	1.242616E-17
4.617876E+03	5.413949E-16	1.246380E-17
4.627659E+03	5.437016E-16	1.249985E-17
4.637443E+03	5.459253E-16	1.253384E-17
4.647227E+03	5.480573E-16	1.256557E-17
4.657010E+03	5.500955E-16	1.259500E-17
4.666794E+03	5.520252E-16	1.262181E-17
4.676577E+03	5.538385E-16	1.264582E-17
4.686361E+03	5.555334E-16	1.266701E-17
4.696145E+03	5.570964E-16	1.268507E-17
4.705928E+03	5.585324E-16	1.270014E-17
4.715712E+03	5.598344E-16	1.271205E-17
4.725496E+03	5.609960E-16	1.272069E-17
4.735279E+03	5.620233E-16	1.272621E-17
4.745063E+03	5.629108E-16	1.272848E-17
4.754847E+03	5.636655E-16	1.272769E-17
4.764630E+03	5.642828E-16	1.272374E-17
4.774414E+03	5.647586E-16	1.271656E-17
4.784197E+03	5.650954E-16	1.270620E-17
4.793981E+03	5.653025E-16	1.269291E-17
4.803765E+03	5.653652E-16	1.267636E-17
4.813548E+03	5.652938E-16	1.265679E-17
4.823332E+03	5.650871E-16	1.263420E-17
4.833116E+03	5.647502E-16	1.260870E-17
4.842899E+03	5.642770E-16	1.258018E-17
4.852683E+03	5.636738E-16	1.254879E-17
4.862467E+03	5.629477E-16	1.251470E-17
4.872250E+03	5.620878E-16	1.247768E-17
4.882034E+03	5.611142E-16	1.243820E-17
4.891817E+03	5.600171E-16	1.239603E-17
4.901601E+03	5.588053E-16	1.235141E-17
4.911385E+03	5.574820E-16	1.230439E-17
4.921168E+03	5.560566E-16	1.225521E-17
4.930952E+03	5.545272E-16	1.220383E-17
4.940736E+03	5.529037E-16	1.215049E-17
4.950519E+03	5.511906E-16	1.209528E-17
4.960303E+03	5.493925E-16	1.203832E-17
4.970087E+03	5.475142E-16	1.197972E-17
4.979870E+03	5.455606E-16	1.191961E-17
4.989654E+03	5.435369E-16	1.185809E-17
4.999437E+03	5.414539E-16	1.179542E-17
5.009221E+03	5.393166E-16	1.173171E-17
5.019005E+03	5.371302E-16	1.166707E-17
5.028788E+03	5.348941E-16	1.160151E-17
5.038572E+03	5.326190E-16	1.153526E-17
5.048356E+03	5.303152E-16	1.146854E-17
5.058139E+03	5.279766E-16	1.140123E-17
5.067923E+03	5.256134E-16	1.133354E-17
5.077707E+03	5.232352E-16	1.126571E-17
5.087490E+03	5.208413E-16	1.119770E-17
5.097274E+03	5.184355E-16	1.112960E-17
5.107057E+03	5.160219E-16	1.106151E-17
5.116841E+03	5.136096E-16	1.099362E-17
5.126625E+03	5.111913E-16	1.092577E-17
5.136408E+03	5.087811E-16	1.085827E-17
5.146192E+03	5.063768E-16	1.079108E-17
5.155976E+03	5.039865E-16	1.072435E-17
5.165759E+03	5.016027E-16	1.065794E-17
5.175543E+03	4.992332E-16	1.059201E-17
5.185327E+03	4.968803E-16	1.052660E-17
5.195110E+03	4.945465E-16	1.046178E-17
5.204894E+03	4.922339E-16	1.039758E-17
5.214677E+03	4.899395E-16	1.033394E-17
5.224461E+03	4.876654E-16	1.027091E-17
5.234245E+03	4.854185E-16	1.020862E-17
5.244028E+03	4.831908E-16	1.014691E-17
5.253812E+03	4.809939E-16	1.008602E-17
5.263596E+03	4.788150E-16	1.002568E-17
5.273379E+03	4.766655E-16	9.966134E-18
5.283163E+03	4.745426E-16	9.907312E-18
5.292946E+03	4.724382E-16	9.849050E-18
5.302730E+03	4.703638E-16	9.791585E-18
5.312514E+03	4.683067E-16	9.734653E-18
5.322297E+03	4.662690E-16	9.678294E-18
5.332081E+03	4.642476E-16	9.622445E-18
5.341865E+03	4.622394E-16	9.567041E-18
5.351648E+03	4.602319E-16	9.511821E-18
5.361432E+03	4.582218E-16	9.456719E-18
5.371216E+03	4.562098E-16	9.401746E-18
5.380999E+03	4.541913E-16	9.346814E-18
5.390783E+03	4.521702E-16	9.291999E-18
5.400566E+03	4.501635E-16	9.237650E-18
5.410350E+03	4.481691E-16	9.183726E-18
5.420134E+03	4.461938E-16	9.130363E-18
5.429917E+03	4.442441E-16	9.077693E-18
5.439701E+03	4.423221E-16	9.025758E-18
5.449485E+03	4.404255E-16	8.974507E-18
5.459268E+03	4.385562E-16	8.923977E-18
5.469052E+03	4.367211E-16	8.874305E-18
5.478836E+03	4.349090E-16	8.825267E-18
5.488619E+03	4.331273E-16	8.777005E-18
5.498403E+03	4.313742E-16	8.729482E-18
5.508186E+03	4.296438E-16	8.682578E-18
5.517970E+03	4.279437E-16	8.636446E-18
5.527754E+03	4.262687E-16	8.590976E-18
5.537537E+03	4.246222E-16	8.546235E-18
5.547321E+03	4.230035E-16	8.502211E-18
5.557105E+03	4.214123E-16	8.458892E-18
5.566888E+03	4.198442E-16	8.416189E-18
5.576672E+03	4.183074E-16	8.374267E-18
5.586456E+03	4.167978E-16	8.333041E-18
5.596239E+03	4.153200E-16	8.292599E-18
5.606023E+03	4.138698E-16	8.252860E-18
5.615806E+03	4.124479E-16	8.213832E-18
5.625590E+03	4.110589E-16	8.175608E-18
5.635374E+03	4.096991E-16	8.138110E-18
5.645157E+03	4.083734E-16	8.101436E-18
5.654941E+03	4.070824E-16	8.065595E-18
5.664725E+03	4.058225E-16	8.030514E-18
5.674508E+03	4.045986E-16	7.996290E-18
5.684292E+03	4.034114E-16	7.962932E-18
5.694076E+03	4.022573E-16	7.930369E-18
5.703859E+03	4.011410E-16	7.898693E-18
5.713643E+03	4.000588E-16	7.867827E-18
5.723426E+03	3.990154E-16	7.837862E-18
5.733210E+03	3.980109E-16	7.808802E-18
5.742994E+03	3.970417E-16	7.780571E-18
5.752777E+03	3.961078E-16	7.753170E-18
5.762561E+03	3.952134E-16	7.726678E-18
5.772345E+03	3.943503E-16	7.700935E-18
5.782128E+03	3.935265E-16	7.676092E-18
5.791912E+03	3.927335E-16	7.651988E-18
5.801696E+03	3.919749E-16	7.628691E-18
5.811479E+03	3.912504E-16	7.606190E-18
5.821263E+03	3.905552E-16	7.584395E-18
5.831046E+03	3.898887E-16	7.563294E-18
5.840830E+03	3.892501E-16	7.542870E-18
5.850614E+03	3.886386E-16	7.523106E-18
5.860397E+03	3.880492E-16	7.503908E-18
5.870181E+03	3.874811E-16	7.485258E-18
5.879965E+03	3.869332E-16	7.467136E-18
5.889748E+03	3.864046E-16	7.449527E-18
5.899532E+03	3.858864E-16	7.432258E-18
5.909315E+03	3.853854E-16	7.415464E-18
5.919099E+03	3.848890E-16	7.398900E-18
5.928883E+03	3.844044E-16	7.382707E-18
5.938666E+03	3.839189E-16	7.366642E-18
5.948450E+03	3.834398E-16	7.350847E-18
5.958234E+03	3.829586E-16	7.335162E-18
5.968017E+03	3.824713E-16	7.319511E-18
5.977801E+03	3.819815E-16	7.303965E-18
5.987585E+03	3.814813E-16	7.288376E-18
5.997368E+03	3.809709E-16	7.272750E-18
6.007152E+03	3.804507E-16	7.257096E-18
6.016935E+03	3.799174E-16	7.241355E-18
6.026719E+03	3.793679E-16	7.225468E-18
6.036503E+03	3.788109E-16	7.209603E-18
6.046286E+03	3.782437E-16	7.193714E-18
6.056070E+03	3.776638E-16	7.177755E-18
6.065854E+03	3.770769E-16	7.161832E-18
6.075637E+03	3.764845E-16	7.145982E-18
6.085421E+03	3.758889E-16	7.130245E-18
6.095205E+03	3.752920E-16	7.114664E-18
6.104988E+03	3.747002E-16	7.099358E-18
6.114772E+03	3.741199E-16	7.084451E-18
6.124555E+03	3.735498E-16	7.069920E-18
6.134339E+03	3.730005E-16	7.055967E-18
6.144123E+03	3.724709E-16	7.042573E-18
6.153906E+03	3.719639E-16	7.029794E-18
6.163690E+03	3.714945E-16	7.017912E-18
6.173474E+03	3.710539E-16	7.006765E-18
6.183257E+03	3.706530E-16	6.996560E-18
6.193041E+03	3.702952E-16	6.987361E-18
6.202825E+03	3.699836E-16	6.979227E-18
6.212608E+03	3.697213E-16	6.972220E-18
6.222392E+03	3.695076E-16	6.966327E-18
6.232175E+03	3.693534E-16	6.961754E-18
6.241959E+03	3.692581E-16	6.958491E-18
6.251743E+03	3.692244E-16	6.956594E-18
6.261526E+03	3.692555E-16	6.956122E-18
6.271310E+03	3.693503E-16	6.957056E-18
6.281094E+03	3.695194E-16	6.959601E-18
6.290877E+03	3.697578E-16	6.963663E-18
6.300661E+03	3.700681E-16	6.969293E-18
6.310445E+03	3.704526E-16	6.976539E-18
6.320228E+03	3.709177E-16	6.985525E-18
6.330012E+03	3.714616E-16	6.996220E-18
6.339795E+03	3.720820E-16	7.008582E-18
6.349579E+03	3.727843E-16	7.022714E-18
6.359363E+03	3.735692E-16	7.038628E-18
6.369146E+03	3.744364E-16	7.056318E-18
6.378930E+03	3.753842E-16	7.075750E-18
6.388714E+03	3.764083E-16	7.096844E-18
6.398497E+03	3.775063E-16	7.119556E-18
6.408281E+03	3.786688E-16	7.143705E-18
6.418065E+03	3.798840E-16	7.169073E-18
6.427848E+03	3.811470E-16	7.195566E-18
6.437632E+03	3.824436E-16	7.222915E-18
6.447415E+03	3.837545E-16	7.250758E-18
6.457199E+03	3.850778E-16	7.279054E-18
6.466983E+03	3.863941E-16	7.307441E-18
6.476766E+03	3.876888E-16	7.335637E-18
6.486550E+03	3.889563E-16	7.363538E-18
6.496334E+03	3.901743E-16	7.390717E-18
6.506117E+03	3.913431E-16	7.417178E-18
6.515901E+03	3.924505E-16	7.442687E-18
6.525684E+03	3.934807E-16	7.466942E-18
6.535468E+03	3.944232E-16	7.489738E-18
6.545252E+03	3.952824E-16	7.511152E-18
6.555035E+03	3.960360E-16	7.530758E-18
6.564819E+03	3.966904E-16	7.548671E-18
6.574603E+03	3.972350E-16	7.564681E-18
6.584386E+03	3.976645E-16	7.578682E-18
6.594170E+03	3.979795E-16	7.590677E-18
6.603954E+03	3.981772E-16	7.600607E-18
6.613737E+03	3.982555E-16	7.608422E-18
6.623521E+03	3.982137E-16	7.614101E-18
6.633304E+03	3.980568E-16	7.617730E-18
6.643088E+03	3.977810E-16	7.619228E-18
6.652872E+03	3.973932E-16	7.618718E-18
6.662655E+03	3.968960E-16	7.616243E-18
6.672439E+03	3.962884E-16	7.611770E-18
6.682223E+03	3.955840E-16	7.605556E-18
6.692006E+03	3.947831E-16	7.597595E-18
6.701790E+03	3.938907E-16	7.587975E-18
6.711574E+03	3.929175E-16	7.576895E-18
6.721357E+03	3.918646E-16	7.564368E-18
6.731141E+03	3.907434E-16	7.550603E-18
6.740924E+03	3.895554E-16	7.535623E-18
6.750708E+03	3.883072E-16	7.519551E-18
6.760492E+03	3.870150E-16	7.502689E-18
6.770275E+03	3.856760E-16	7.484979E-18
6.780059E+03	3.843012E-16	7.466626E-18
6.789843E+03	3.828924E-16	7.447662E-18
6.799626E+03	3.814603E-16	7.428290E-18
6.809410E+03	3.800110E-16	7.408620E-18
6.819194E+03	3.785501E-16	7.388759E-18
6.828977E+03	3.770829E-16	7.368808E-18
6.838761E+03	3.756096E-16	7.348765E-18
6.848544E+03	3.741397E-16	7.328814E-18
6.858328E+03	3.726728E-16	7.308944E-18
6.868112E+03	3.712222E-16	7.289411E-18
6.877895E+03	3.697822E-16	7.270103E-18
6.887679E+03	3.683558E-16	7.251078E-18
6.897463E+03	3.669509E-16	7.232486E-18
6.907246E+03	3.655696E-16	7.214372E-18
6.917030E+03	3.642096E-16	7.196686E-18
6.926814E+03	3.628726E-16	7.179464E-18
6.936597E+03	3.615602E-16	7.162733E-18
6.946381E+03	3.602783E-16	7.146611E-18
6.956164E+03	3.590230E-16	7.131020E-18
6.965948E+03	3.577950E-16	7.115975E-18
6.975732E+03	3.565901E-16	7.101392E-18
6.985515E+03	3.554177E-16	7.087456E-18
6.995299E+03	3.542685E-16	7.073984E-18
7.005083E+03	3.531424E-16	7.060971E-18
7.014866E+03	3.520433E-16	7.048499E-18
7.024650E+03	3.509707E-16	7.036554E-18
7.034434E+03	3.499150E-16	7.024945E-18
7.044217E+03	3.488796E-16	7.013743E-18
7.054001E+03	3.478594E-16	7.002839E-18
7.063784E+03	3.468621E-16	6.992393E-18
7.073568E+03	3.458734E-16	6.982113E-18
7.083352E+03	3.448965E-16	6.972064E-18
7.093135E+03	3.439303E-16	6.962224E-18
7.102919E+03	3.429691E-16	6.952476E-18
7.112703E+03	3.420163E-16	6.942887E-18
7.122486E+03	3.410617E-16	6.933250E-18
7.132270E+03	3.401042E-16	6.923540E-18
7.142053E+03	3.391426E-16	6.913733E-18
7.151837E+03	3.381759E-16	6.903804E-18
7.161621E+03	3.371987E-16	6.893642E-18
7.171404E+03	3.362054E-16	6.883131E-18
7.181188E+03	3.351954E-16	6.872253E-18
7.190972E+03	3.341631E-16	6.860895E-18
7.200755E+03	3.331080E-16	6.849040E-18
7.210539E+03	3.320251E-16	6.836582E-18
7.220323E+03	3.309135E-16	6.823502E-18
7.230106E+03	3.297645E-16	6.809611E-18
7.239890E+03	3.285774E-16	6.794896E-18
7.249673E+03	3.273478E-16	6.779257E-18
7.259457E+03	3.260797E-16	6.762774E-18
7.269241E+03	3.247645E-16	6.745264E-18
7.279024E+03	3.234065E-16	6.726810E-18
7.288808E+03	3.220059E-16	6.707412E-18
7.298592E+03	3.205627E-16	6.687065E-18
7.308375E+03	3.190813E-16	6.665856E-18
7.318159E+03	3.175621E-16	6.643791E-18
7.327943E+03	3.160096E-16	6.620956E-18
7.337726E+03	3.144284E-16	6.597444E-18
7.347510E+03	3.128189E-16	6.573264E-18
7.357293E+03	3.111857E-16	6.548506E-18
7.367077E+03	3.095294E-16	6.523181E-18
7.376861E+03	3.078506E-16	6.497298E-18
7.386644E+03	3.061541E-16	6.470956E-18
7.396428E+03	3.044445E-16	6.444250E-18
7.406212E+03	3.027187E-16	6.417113E-18
7.415995E+03	3.009815E-16	6.389642E-18
7.425779E+03	2.992378E-16	6.361940E-18
7.435563E+03	2.974843E-16	6.333939E-18
7.445346E+03	2.957300E-16	6.305828E-18
7.455130E+03	2.939680E-16	6.277456E-18
7.464913E+03	2.922033E-16	6.248931E-18
7.474697E+03	2.904407E-16	6.220357E-18
7.484481E+03	2.886815E-16	6.191757E-18
7.494264E+03	2.869228E-16	6.163073E-18
7.504048E+03	2.851698E-16	6.134412E-18
7.513832E+03	2.834235E-16	6.105798E-18
7.523615E+03	2.816852E-16	6.077260E-18
7.533399E+03	2.799561E-16	6.048825E-18
7.543183E+03	2.782377E-16	6.020522E-18
7.552966E+03	2.765348E-16	5.992458E-18
7.562750E+03	2.748414E-16	5.964504E-18
7.572533E+03	2.731663E-16	5.936852E-18
7.582317E+03	2.715070E-16	5.909449E-18
7.592101E+03	2.698650E-16	5.882330E-18
