#wls	flux	fluxerr
1.565382E+03	7.957904E-17	3.363268E-18
1.604516E+03	8.177062E-17	3.449932E-18
1.643651E+03	8.393847E-17	3.535113E-18
1.682785E+03	8.608896E-17	3.619067E-18
1.721920E+03	8.817966E-17	3.700002E-18
1.761054E+03	9.021714E-17	3.778189E-18
1.800189E+03	9.214853E-17	3.851416E-18
1.839323E+03	9.394241E-17	3.918380E-18
1.878458E+03	9.552838E-17	3.976171E-18
1.917592E+03	9.688566E-17	4.023966E-18
1.956727E+03	9.796811E-17	4.059898E-18
1.995862E+03	9.880833E-17	4.085381E-18
2.034996E+03	9.955054E-17	4.106421E-18
2.074131E+03	1.005036E-16	4.135746E-18
2.113265E+03	1.019969E-16	4.186798E-18
2.152400E+03	1.043012E-16	4.270491E-18
2.191534E+03	1.074819E-16	4.389206E-18
2.230669E+03	1.114202E-16	4.537802E-18
2.269803E+03	1.158311E-16	4.704411E-18
2.308938E+03	1.204506E-16	4.878140E-18
2.348072E+03	1.251227E-16	5.052575E-18
2.387207E+03	1.297149E-16	5.222312E-18
2.426341E+03	1.341691E-16	5.385006E-18
2.465476E+03	1.385196E-16	5.542034E-18
2.504611E+03	1.427193E-16	5.691507E-18
2.543745E+03	1.467846E-16	5.834092E-18
2.582880E+03	1.507531E-16	5.971284E-18
2.622014E+03	1.545988E-16	6.102052E-18
2.661149E+03	1.583327E-16	6.226835E-18
2.700283E+03	1.619622E-16	6.345925E-18
2.739418E+03	1.655118E-16	6.460283E-18
2.778552E+03	1.689202E-16	6.567512E-18
2.817687E+03	1.722464E-16	6.669919E-18
2.856821E+03	1.754439E-16	6.765708E-18
2.895956E+03	1.785051E-16	6.854608E-18
2.935090E+03	1.814405E-16	6.937040E-18
2.944874E+03	1.821579E-16	6.956762E-18
2.954658E+03	1.828638E-16	6.975942E-18
2.964441E+03	1.835576E-16	6.994559E-18
2.974225E+03	1.842393E-16	7.012617E-18
2.984009E+03	1.849295E-16	7.030892E-18
2.993792E+03	1.855899E-16	7.047937E-18
3.003576E+03	1.862588E-16	7.065202E-18
3.013360E+03	1.869157E-16	7.081907E-18
3.023143E+03	1.875788E-16	7.098751E-18
3.032927E+03	1.882298E-16	7.115030E-18
3.042710E+03	1.888642E-16	7.130580E-18
3.052494E+03	1.894882E-16	7.145637E-18
3.062278E+03	1.901193E-16	7.160863E-18
3.072061E+03	1.907376E-16	7.175504E-18
3.081845E+03	1.913605E-16	7.190214E-18
3.091629E+03	1.919683E-16	7.204255E-18
3.101412E+03	1.925599E-16	7.217591E-18
3.111196E+03	1.931533E-16	7.230891E-18
3.120980E+03	1.937475E-16	7.244116E-18
3.130763E+03	1.943233E-16	7.256557E-18
3.140547E+03	1.948804E-16	7.268194E-18
3.150330E+03	1.954544E-16	7.280364E-18
3.160114E+03	1.959908E-16	7.291031E-18
3.169898E+03	1.965430E-16	7.302190E-18
3.179681E+03	1.970751E-16	7.312500E-18
3.189465E+03	1.976048E-16	7.322620E-18
3.199249E+03	1.981318E-16	7.332543E-18
3.209032E+03	1.986388E-16	7.341624E-18
3.218816E+03	1.991432E-16	7.350514E-18
3.228600E+03	1.996454E-16	7.359221E-18
3.238383E+03	2.001454E-16	7.367748E-18
3.248167E+03	2.006436E-16	7.376110E-18
3.257950E+03	2.011236E-16	7.383704E-18
3.267734E+03	2.016194E-16	7.391782E-18
3.277518E+03	2.020984E-16	7.399139E-18
3.287301E+03	2.025941E-16	7.407012E-18
3.297085E+03	2.030745E-16	7.414221E-18
3.306869E+03	2.035729E-16	7.421991E-18
3.316652E+03	2.040738E-16	7.429748E-18
3.326436E+03	2.045624E-16	7.436951E-18
3.336220E+03	2.050713E-16	7.444791E-18
3.346003E+03	2.055856E-16	7.452721E-18
3.355787E+03	2.061219E-16	7.461342E-18
3.365570E+03	2.066656E-16	7.470123E-18
3.375354E+03	2.072025E-16	7.478548E-18
3.385138E+03	2.077798E-16	7.488317E-18
3.394921E+03	2.083529E-16	7.497821E-18
3.404705E+03	2.089532E-16	7.508188E-18
3.414489E+03	2.095818E-16	7.519450E-18
3.424272E+03	2.102250E-16	7.531115E-18
3.434056E+03	2.108840E-16	7.543222E-18
3.443839E+03	2.115749E-16	7.556343E-18
3.453623E+03	2.122845E-16	7.569997E-18
3.463407E+03	2.130283E-16	7.584737E-18
3.473190E+03	2.138076E-16	7.600602E-18
3.482974E+03	2.146095E-16	7.617125E-18
3.492758E+03	2.154492E-16	7.634847E-18
3.502541E+03	2.163281E-16	7.653802E-18
3.512325E+03	2.172474E-16	7.674028E-18
3.522109E+03	2.181943E-16	7.695070E-18
3.531892E+03	2.191839E-16	7.717450E-18
3.541676E+03	2.202175E-16	7.741204E-18
3.551459E+03	2.212958E-16	7.766355E-18
3.561243E+03	2.224201E-16	7.792930E-18
3.571027E+03	2.235779E-16	7.820492E-18
3.580810E+03	2.247969E-16	7.849999E-18
3.590594E+03	2.260644E-16	7.880993E-18
3.600378E+03	2.273683E-16	7.913047E-18
3.610161E+03	2.287353E-16	7.947081E-18
3.619945E+03	2.301529E-16	7.982649E-18
3.629729E+03	2.316216E-16	8.019756E-18
3.639512E+03	2.331418E-16	8.058404E-18
3.649296E+03	2.347135E-16	8.098591E-18
3.659079E+03	2.363496E-16	8.140742E-18
3.668863E+03	2.380246E-16	8.183972E-18
3.678647E+03	2.397636E-16	8.229131E-18
3.688430E+03	2.415534E-16	8.275757E-18
3.698214E+03	2.434059E-16	8.324245E-18
3.707998E+03	2.453078E-16	8.374127E-18
3.717781E+03	2.472458E-16	8.424941E-18
3.727565E+03	2.492556E-16	8.477890E-18
3.737349E+03	2.512989E-16	8.531662E-18
3.747132E+03	2.533986E-16	8.587023E-18
3.756916E+03	2.555406E-16	8.643486E-18
3.766699E+03	2.577349E-16	8.701380E-18
3.776483E+03	2.599672E-16	8.760207E-18
3.786267E+03	2.622350E-16	8.819875E-18
3.796050E+03	2.645477E-16	8.880693E-18
3.805834E+03	2.668902E-16	8.942147E-18
3.815618E+03	2.692597E-16	9.004132E-18
3.825401E+03	2.716531E-16	9.066536E-18
3.835185E+03	2.740786E-16	9.129632E-18
3.844969E+03	2.765209E-16	9.192901E-18
3.854752E+03	2.789882E-16	9.256606E-18
3.864536E+03	2.814531E-16	9.319838E-18
3.874319E+03	2.839353E-16	9.383244E-18
3.884103E+03	2.864190E-16	9.446301E-18
3.893887E+03	2.889004E-16	9.508876E-18
3.903670E+03	2.913867E-16	9.571211E-18
3.913454E+03	2.938509E-16	9.632412E-18
3.923238E+03	2.963118E-16	9.693103E-18
3.933021E+03	2.987426E-16	9.752403E-18
3.942805E+03	3.011506E-16	9.810556E-18
3.952589E+03	3.035432E-16	9.867810E-18
3.962372E+03	3.058940E-16	9.923302E-18
3.972156E+03	3.082107E-16	9.977294E-18
3.981939E+03	3.104785E-16	1.002931E-17
3.991723E+03	3.127167E-16	1.007999E-17
4.001507E+03	3.148997E-16	1.012850E-17
4.011290E+03	3.170250E-16	1.017479E-17
4.021074E+03	3.191012E-16	1.021912E-17
4.030858E+03	3.211151E-16	1.026111E-17
4.040641E+03	3.230650E-16	1.030069E-17
4.050425E+03	3.249496E-16	1.033784E-17
4.060208E+03	3.267787E-16	1.037288E-17
4.069992E+03	3.285301E-16	1.040513E-17
4.079776E+03	3.302145E-16	1.043493E-17
4.089559E+03	3.318320E-16	1.046231E-17
4.099343E+03	3.333834E-16	1.048730E-17
4.109127E+03	3.348595E-16	1.050963E-17
4.118910E+03	3.362617E-16	1.052935E-17
4.128694E+03	3.376025E-16	1.054688E-17
4.138478E+03	3.388742E-16	1.056199E-17
4.148261E+03	3.400796E-16	1.057476E-17
4.158045E+03	3.412117E-16	1.058502E-17
4.167828E+03	3.422947E-16	1.059351E-17
4.177612E+03	3.433123E-16	1.059975E-17
4.187396E+03	3.442689E-16	1.060389E-17
4.197179E+03	3.451790E-16	1.060638E-17
4.206963E+03	3.460376E-16	1.060709E-17
4.216747E+03	3.468499E-16	1.060618E-17
4.226530E+03	3.476114E-16	1.060352E-17
4.236314E+03	3.483466E-16	1.059988E-17
4.246098E+03	3.490418E-16	1.059484E-17
4.255881E+03	3.497030E-16	1.058860E-17
4.265665E+03	3.503448E-16	1.058160E-17
4.275448E+03	3.509636E-16	1.057374E-17
4.285232E+03	3.515655E-16	1.056521E-17
4.295016E+03	3.521563E-16	1.055619E-17
4.304799E+03	3.527339E-16	1.054661E-17
4.314583E+03	3.533151E-16	1.053698E-17
4.324367E+03	3.538987E-16	1.052728E-17
4.334150E+03	3.545014E-16	1.051798E-17
4.343934E+03	3.551220E-16	1.050905E-17
4.353718E+03	3.557591E-16	1.050045E-17
4.363501E+03	3.564371E-16	1.049289E-17
4.373285E+03	3.571455E-16	1.048604E-17
4.383068E+03	3.578989E-16	1.048034E-17
4.392852E+03	3.586948E-16	1.047569E-17
4.402636E+03	3.595469E-16	1.047250E-17
4.412419E+03	3.604432E-16	1.047038E-17
4.422203E+03	3.614048E-16	1.046995E-17
4.431987E+03	3.624268E-16	1.047105E-17
4.441770E+03	3.635124E-16	1.047375E-17
4.451554E+03	3.646557E-16	1.047787E-17
4.461338E+03	3.658750E-16	1.048392E-17
4.471121E+03	3.671467E-16	1.049120E-17
4.480905E+03	3.684957E-16	1.050042E-17
4.490688E+03	3.698975E-16	1.051086E-17
4.500472E+03	3.713670E-16	1.052293E-17
4.510256E+03	3.729027E-16	1.053656E-17
4.520039E+03	3.744860E-16	1.055122E-17
4.529823E+03	3.761298E-16	1.056726E-17
4.539607E+03	3.778224E-16	1.058434E-17
4.549390E+03	3.795593E-16	1.060231E-17
4.559174E+03	3.813276E-16	1.062081E-17
4.568958E+03	3.831375E-16	1.064012E-17
4.578741E+03	3.849752E-16	1.065983E-17
4.588525E+03	3.868259E-16	1.067954E-17
4.598308E+03	3.886988E-16	1.069949E-17
4.608092E+03	3.905705E-16	1.071904E-17
4.617876E+03	3.924414E-16	1.073819E-17
4.627659E+03	3.943036E-16	1.075674E-17
4.637443E+03	3.961492E-16	1.077447E-17
4.647227E+03	3.979700E-16	1.079115E-17
4.657010E+03	3.997497E-16	1.080636E-17
4.666794E+03	4.014960E-16	1.082032E-17
4.676577E+03	4.031845E-16	1.083237E-17
4.686361E+03	4.048151E-16	1.084253E-17
4.696145E+03	4.063796E-16	1.085060E-17
4.705928E+03	4.078697E-16	1.085637E-17
4.715712E+03	4.092698E-16	1.085944E-17
4.725496E+03	4.105880E-16	1.086005E-17
4.735279E+03	4.118088E-16	1.085782E-17
4.745063E+03	4.129250E-16	1.085259E-17
4.754847E+03	4.139219E-16	1.084399E-17
4.764630E+03	4.148092E-16	1.083230E-17
4.774414E+03	4.155806E-16	1.081740E-17
4.784197E+03	4.162152E-16	1.079877E-17
4.793981E+03	4.167240E-16	1.077673E-17
4.803765E+03	4.170954E-16	1.075102E-17
4.813548E+03	4.173261E-16	1.072159E-17
4.823332E+03	4.174219E-16	1.068862E-17
4.833116E+03	4.173735E-16	1.065191E-17
4.842899E+03	4.171887E-16	1.061171E-17
4.852683E+03	4.168602E-16	1.056785E-17
4.862467E+03	4.163978E-16	1.052063E-17
4.872250E+03	4.158044E-16	1.047016E-17
4.882034E+03	4.150763E-16	1.041638E-17
4.891817E+03	4.142261E-16	1.035964E-17
4.901601E+03	4.132598E-16	1.030013E-17
4.911385E+03	4.121843E-16	1.023805E-17
4.921168E+03	4.110072E-16	1.017361E-17
4.930952E+03	4.097294E-16	1.010687E-17
4.940736E+03	4.083748E-16	1.003844E-17
4.950519E+03	4.069455E-16	9.968406E-18
4.960303E+03	4.054440E-16	9.896836E-18
4.970087E+03	4.038950E-16	9.824362E-18
4.979870E+03	4.023086E-16	9.751239E-18
4.989654E+03	4.006808E-16	9.677384E-18
4.999437E+03	3.990288E-16	9.603225E-18
5.009221E+03	3.973697E-16	9.529181E-18
5.019005E+03	3.957062E-16	9.455319E-18
5.028788E+03	3.940545E-16	9.382029E-18
5.038572E+03	3.924093E-16	9.309188E-18
5.048356E+03	3.907997E-16	9.237481E-18
5.058139E+03	3.892122E-16	9.166589E-18
5.067923E+03	3.876677E-16	9.096992E-18
5.077707E+03	3.861649E-16	9.028660E-18
5.087490E+03	3.847159E-16	8.961860E-18
5.097274E+03	3.833180E-16	8.896521E-18
5.107057E+03	3.819744E-16	8.832709E-18
5.116841E+03	3.806941E-16	8.770616E-18
5.126625E+03	3.794782E-16	8.710259E-18
5.136408E+03	3.783205E-16	8.651477E-18
5.146192E+03	3.772202E-16	8.594246E-18
5.155976E+03	3.761825E-16	8.538669E-18
5.165759E+03	3.751987E-16	8.484535E-18
5.175543E+03	3.742720E-16	8.431910E-18
5.185327E+03	3.733925E-16	8.380559E-18
5.195110E+03	3.725560E-16	8.330376E-18
5.204894E+03	3.717644E-16	8.281402E-18
5.214677E+03	3.710065E-16	8.233375E-18
5.224461E+03	3.702838E-16	8.186325E-18
5.234245E+03	3.695848E-16	8.139996E-18
5.244028E+03	3.689110E-16	8.094415E-18
5.253812E+03	3.682516E-16	8.049344E-18
5.263596E+03	3.676085E-16	8.004824E-18
5.273379E+03	3.669712E-16	7.960630E-18
5.283163E+03	3.663361E-16	7.916684E-18
5.292946E+03	3.657065E-16	7.873060E-18
5.302730E+03	3.650735E-16	7.829569E-18
5.312514E+03	3.644409E-16	7.786299E-18
5.322297E+03	3.638006E-16	7.743080E-18
5.332081E+03	3.631509E-16	7.699883E-18
5.341865E+03	3.624966E-16	7.656814E-18
5.351648E+03	3.618359E-16	7.613840E-18
5.361432E+03	3.611612E-16	7.570800E-18
5.371216E+03	3.604765E-16	7.527779E-18
5.380999E+03	3.597730E-16	7.484597E-18
5.390783E+03	3.590529E-16	7.441305E-18
5.400566E+03	3.583057E-16	7.397685E-18
5.410350E+03	3.575331E-16	7.353782E-18
5.420134E+03	3.567304E-16	7.309500E-18
5.429917E+03	3.558874E-16	7.264640E-18
5.439701E+03	3.550059E-16	7.219248E-18
5.449485E+03	3.540826E-16	7.173263E-18
5.459268E+03	3.531145E-16	7.126634E-18
5.469052E+03	3.520996E-16	7.079330E-18
5.478836E+03	3.510302E-16	7.031211E-18
5.488619E+03	3.499181E-16	6.982518E-18
5.498403E+03	3.487513E-16	6.933025E-18
5.508186E+03	3.475430E-16	6.883005E-18
5.517970E+03	3.462831E-16	6.832269E-18
5.527754E+03	3.449861E-16	6.781110E-18
5.537537E+03	3.436495E-16	6.729488E-18
5.547321E+03	3.422772E-16	6.677488E-18
5.557105E+03	3.408795E-16	6.625317E-18
5.566888E+03	3.394554E-16	6.572965E-18
5.576672E+03	3.380105E-16	6.520539E-18
5.586456E+03	3.365557E-16	6.468259E-18
5.596239E+03	3.350913E-16	6.416129E-18
5.606023E+03	3.336287E-16	6.364368E-18
5.615806E+03	3.321678E-16	6.312978E-18
5.625590E+03	3.307202E-16	6.262174E-18
5.635374E+03	3.292912E-16	6.212058E-18
5.645157E+03	3.278806E-16	6.162621E-18
5.654941E+03	3.264992E-16	6.114060E-18
5.664725E+03	3.251516E-16	6.066459E-18
5.674508E+03	3.238425E-16	6.019896E-18
5.684292E+03	3.225702E-16	5.974335E-18
5.694076E+03	3.213498E-16	5.930047E-18
5.703859E+03	3.201736E-16	5.886880E-18
5.713643E+03	3.190554E-16	5.845083E-18
5.723426E+03	3.179868E-16	5.804492E-18
5.733210E+03	3.169756E-16	5.765239E-18
5.742994E+03	3.160290E-16	5.727444E-18
5.752777E+03	3.151370E-16	5.690919E-18
5.762561E+03	3.143115E-16	5.655869E-18
5.772345E+03	3.135415E-16	5.622087E-18
5.782128E+03	3.128378E-16	5.589758E-18
5.791912E+03	3.121941E-16	5.558760E-18
5.801696E+03	3.116090E-16	5.529060E-18
5.811479E+03	3.110807E-16	5.500617E-18
5.821263E+03	3.106065E-16	5.473382E-18
5.831046E+03	3.101836E-16	5.447296E-18
5.840830E+03	3.098141E-16	5.422390E-18
5.850614E+03	3.094888E-16	5.398500E-18
5.860397E+03	3.091979E-16	5.375453E-18
5.870181E+03	3.089481E-16	5.353362E-18
5.879965E+03	3.087291E-16	5.332049E-18
5.889748E+03	3.085417E-16	5.311526E-18
5.899532E+03	3.083701E-16	5.291524E-18
5.909315E+03	3.082207E-16	5.272154E-18
5.919099E+03	3.080779E-16	5.253151E-18
5.928883E+03	3.079481E-16	5.234633E-18
5.938666E+03	3.078221E-16	5.216444E-18
5.948450E+03	3.076962E-16	5.198529E-18
5.958234E+03	3.075673E-16	5.180842E-18
5.968017E+03	3.074329E-16	5.163347E-18
5.977801E+03	3.072964E-16	5.146110E-18
5.987585E+03	3.071454E-16	5.128930E-18
5.997368E+03	3.069903E-16	5.111988E-18
6.007152E+03	3.068254E-16	5.095201E-18
6.016935E+03	3.066457E-16	5.078491E-18
6.026719E+03	3.064635E-16	5.062071E-18
6.036503E+03	3.062751E-16	5.045889E-18
6.046286E+03	3.060833E-16	5.029996E-18
6.056070E+03	3.058963E-16	5.014538E-18
6.065854E+03	3.057070E-16	4.999403E-18
6.075637E+03	3.055252E-16	4.984761E-18
6.085421E+03	3.053612E-16	4.970785E-18
6.095205E+03	3.052094E-16	4.957390E-18
6.104988E+03	3.050865E-16	4.944855E-18
6.114772E+03	3.049880E-16	4.933108E-18
6.124555E+03	3.049316E-16	4.922445E-18
6.134339E+03	3.049189E-16	4.912896E-18
6.144123E+03	3.049576E-16	4.904586E-18
6.153906E+03	3.050612E-16	4.897739E-18
6.163690E+03	3.052269E-16	4.892311E-18
6.173474E+03	3.054741E-16	4.888622E-18
6.183257E+03	3.058063E-16	4.886727E-18
6.193041E+03	3.062324E-16	4.886777E-18
6.202825E+03	3.067674E-16	4.889010E-18
6.212608E+03	3.074091E-16	4.893399E-18
6.222392E+03	3.081782E-16	4.900279E-18
6.232175E+03	3.090839E-16	4.909802E-18
6.241959E+03	3.101240E-16	4.921939E-18
6.251743E+03	3.113245E-16	4.937109E-18
6.261526E+03	3.126765E-16	4.955183E-18
6.271310E+03	3.141995E-16	4.976479E-18
6.281094E+03	3.159007E-16	5.001123E-18
6.290877E+03	3.177805E-16	5.029134E-18
6.300661E+03	3.198440E-16	5.060609E-18
6.310445E+03	3.221068E-16	5.095813E-18
6.320228E+03	3.245530E-16	5.134514E-18
6.330012E+03	3.272010E-16	5.177024E-18
6.339795E+03	3.300363E-16	5.223139E-18
6.349579E+03	3.330605E-16	5.272909E-18
6.359363E+03	3.362661E-16	5.326238E-18
6.369146E+03	3.396428E-16	5.382977E-18
6.378930E+03	3.431770E-16	5.442924E-18
6.388714E+03	3.468460E-16	5.505734E-18
6.398497E+03	3.506440E-16	5.571330E-18
6.408281E+03	3.545446E-16	5.639305E-18
6.418065E+03	3.585244E-16	5.709303E-18
6.427848E+03	3.625573E-16	5.780921E-18
6.437632E+03	3.666138E-16	5.853702E-18
6.447415E+03	3.706619E-16	5.927140E-18
6.457199E+03	3.746738E-16	6.000802E-18
6.466983E+03	3.786059E-16	6.073987E-18
6.476766E+03	3.824273E-16	6.146201E-18
6.486550E+03	3.860839E-16	6.216569E-18
6.496334E+03	3.895594E-16	6.284815E-18
6.506117E+03	3.928006E-16	6.350065E-18
6.515901E+03	3.957707E-16	6.411698E-18
6.525684E+03	3.984506E-16	6.469379E-18
6.535468E+03	4.007938E-16	6.522315E-18
6.545252E+03	4.027724E-16	6.570009E-18
6.555035E+03	4.043791E-16	6.612295E-18
6.564819E+03	4.055794E-16	6.648557E-18
6.574603E+03	4.063680E-16	6.678646E-18
6.584386E+03	4.067369E-16	6.702370E-18
6.594170E+03	4.066836E-16	6.719618E-18
6.603954E+03	4.062027E-16	6.730234E-18
6.613737E+03	4.053185E-16	6.734548E-18
6.623521E+03	4.040357E-16	6.732563E-18
6.633304E+03	4.023714E-16	6.724494E-18
6.643088E+03	4.003469E-16	6.710623E-18
6.652872E+03	3.979864E-16	6.691286E-18
6.662655E+03	3.953251E-16	6.667006E-18
6.672439E+03	3.923763E-16	6.637941E-18
6.682223E+03	3.891863E-16	6.604814E-18
6.692006E+03	3.857787E-16	6.567967E-18
6.701790E+03	3.821853E-16	6.527888E-18
6.711574E+03	3.784451E-16	6.485195E-18
6.721357E+03	3.745734E-16	6.440109E-18
6.731141E+03	3.706154E-16	6.393368E-18
6.740924E+03	3.665989E-16	6.345418E-18
6.750708E+03	3.625357E-16	6.296437E-18
6.760492E+03	3.584653E-16	6.247088E-18
6.770275E+03	3.544032E-16	6.197622E-18
6.780059E+03	3.503771E-16	6.148515E-18
6.789843E+03	3.463984E-16	6.099952E-18
6.799626E+03	3.424836E-16	6.052223E-18
6.809410E+03	3.386472E-16	6.005583E-18
6.819194E+03	3.349086E-16	5.960376E-18
6.828977E+03	3.312714E-16	5.916672E-18
6.838761E+03	3.277443E-16	5.874635E-18
6.848544E+03	3.243414E-16	5.834526E-18
6.858328E+03	3.210545E-16	5.796214E-18
6.868112E+03	3.179012E-16	5.760026E-18
6.877895E+03	3.148777E-16	5.725910E-18
6.887679E+03	3.119856E-16	5.693911E-18
6.897463E+03	3.092254E-16	5.664057E-18
6.907246E+03	3.066030E-16	5.636474E-18
6.917030E+03	3.041044E-16	5.610922E-18
6.926814E+03	3.017341E-16	5.587503E-18
6.936597E+03	2.994956E-16	5.566302E-18
6.946381E+03	2.973732E-16	5.547042E-18
6.956164E+03	2.953694E-16	5.529792E-18
6.965948E+03	2.934861E-16	5.514605E-18
6.975732E+03	2.917069E-16	5.501189E-18
6.985515E+03	2.900271E-16	5.489472E-18
6.995299E+03	2.884537E-16	5.479606E-18
7.005083E+03	2.869699E-16	5.471283E-18
7.014866E+03	2.855765E-16	5.464535E-18
7.024650E+03	2.842624E-16	5.459163E-18
7.034434E+03	2.830284E-16	5.455195E-18
7.044217E+03	2.818632E-16	5.452427E-18
7.054001E+03	2.807679E-16	5.450890E-18
7.063784E+03	2.797315E-16	5.450381E-18
7.073568E+03	2.787548E-16	5.450926E-18
7.083352E+03	2.778273E-16	5.452327E-18
7.093135E+03	2.769440E-16	5.454495E-18
7.102919E+03	2.761006E-16	5.457352E-18
7.112703E+03	2.752982E-16	5.460923E-18
7.122486E+03	2.745211E-16	5.464904E-18
7.132270E+03	2.737764E-16	5.469440E-18
7.142053E+03	2.730486E-16	5.474225E-18
7.151837E+03	2.723454E-16	5.479414E-18
7.161621E+03	2.716512E-16	5.484697E-18
7.171404E+03	2.709683E-16	5.490121E-18
7.181188E+03	2.702931E-16	5.495614E-18
7.190972E+03	2.696222E-16	5.501107E-18
7.200755E+03	2.689467E-16	5.506415E-18
7.210539E+03	2.682693E-16	5.511592E-18
7.220323E+03	2.675870E-16	5.516576E-18
7.230106E+03	2.668914E-16	5.521193E-18
7.239890E+03	2.661858E-16	5.525503E-18
7.249673E+03	2.654621E-16	5.529338E-18
7.259457E+03	2.647239E-16	5.532766E-18
7.269241E+03	2.639636E-16	5.535627E-18
7.279024E+03	2.631853E-16	5.537999E-18
7.288808E+03	2.623764E-16	5.539612E-18
7.298592E+03	2.615524E-16	5.540789E-18
7.308375E+03	2.606955E-16	5.541148E-18
7.318159E+03	2.598166E-16	5.540912E-18
7.327943E+03	2.589094E-16	5.539944E-18
7.337726E+03	2.579740E-16	5.538239E-18
7.347510E+03	2.570159E-16	5.535909E-18
7.357293E+03	2.560244E-16	5.532719E-18
7.367077E+03	2.550113E-16	5.528917E-18
7.376861E+03	2.539720E-16	5.524396E-18
7.386644E+03	2.529074E-16	5.519176E-18
7.396428E+03	2.518189E-16	5.513278E-18
7.406212E+03	2.507080E-16	5.506733E-18
7.415995E+03	2.495766E-16	5.499575E-18
7.425779E+03	2.484264E-16	5.491843E-18
7.435563E+03	2.472651E-16	5.483697E-18
7.445346E+03	2.460839E-16	5.474946E-18
7.455130E+03	2.448907E-16	5.465759E-18
7.464913E+03	2.436932E-16	5.456309E-18
7.474697E+03	2.424834E-16	5.446414E-18
7.484481E+03	2.412694E-16	5.436253E-18
7.494264E+03	2.400539E-16	5.425890E-18
7.504048E+03	2.388448E-16	5.415504E-18
7.513832E+03	2.376345E-16	5.404924E-18
7.523615E+03	2.364311E-16	5.394333E-18
7.533399E+03	2.352323E-16	5.383684E-18
7.543183E+03	2.340511E-16	5.373276E-18
7.552966E+03	2.328852E-16	5.363061E-18
7.562750E+03	2.317372E-16	5.353102E-18
7.572533E+03	2.306046E-16	5.343346E-18
7.582317E+03	2.294948E-16	5.333970E-18
7.592101E+03	2.284102E-16	5.325036E-18
