#wls	flux	fluxerr
1.565382E+03	7.598988E-17	2.201145E-18
1.604516E+03	7.797295E-17	2.255138E-18
1.643651E+03	7.991219E-17	2.307605E-18
1.682785E+03	8.181307E-17	2.358700E-18
1.721920E+03	8.366364E-17	2.408077E-18
1.761054E+03	8.544186E-17	2.455102E-18
1.800189E+03	8.711276E-17	2.498775E-18
1.839323E+03	8.863242E-17	2.537846E-18
1.878458E+03	8.995060E-17	2.570895E-18
1.917592E+03	9.103386E-17	2.596994E-18
1.956727E+03	9.184097E-17	2.615000E-18
1.995862E+03	9.243491E-17	2.626742E-18
2.034996E+03	9.292249E-17	2.635282E-18
2.074131E+03	9.357730E-17	2.648377E-18
2.113265E+03	9.472018E-17	2.675055E-18
2.152400E+03	9.661437E-17	2.722639E-18
2.191534E+03	9.931592E-17	2.792557E-18
2.230669E+03	1.026634E-16	2.880118E-18
2.269803E+03	1.064210E-16	2.978578E-18
2.308938E+03	1.103617E-16	3.081502E-18
2.348072E+03	1.143103E-16	3.183956E-18
2.387207E+03	1.181474E-16	3.282597E-18
2.426341E+03	1.218405E-16	3.376533E-18
2.465476E+03	1.253900E-16	3.465784E-18
2.504611E+03	1.287750E-16	3.549786E-18
2.543745E+03	1.320343E-16	3.629629E-18
2.582880E+03	1.351528E-16	3.704904E-18
2.622014E+03	1.381313E-16	3.775654E-18
2.661149E+03	1.410058E-16	3.842873E-18
2.700283E+03	1.437534E-16	3.905951E-18
2.739418E+03	1.464051E-16	3.965741E-18
2.778552E+03	1.489143E-16	4.020996E-18
2.817687E+03	1.513268E-16	4.072969E-18
2.856821E+03	1.536115E-16	4.120839E-18
2.895956E+03	1.557735E-16	4.164760E-18
2.935090E+03	1.577983E-16	4.204371E-18
2.944874E+03	1.582940E-16	4.213893E-18
2.954658E+03	1.587684E-16	4.222809E-18
2.964441E+03	1.592396E-16	4.231603E-18
2.974225E+03	1.596896E-16	4.239793E-18
2.984009E+03	1.601557E-16	4.248372E-18
2.993792E+03	1.606026E-16	4.256404E-18
3.003576E+03	1.610297E-16	4.263872E-18
3.013360E+03	1.614724E-16	4.271714E-18
3.023143E+03	1.618941E-16	4.278965E-18
3.032927E+03	1.623135E-16	4.286117E-18
3.042710E+03	1.627268E-16	4.293070E-18
3.052494E+03	1.631395E-16	4.299971E-18
3.062278E+03	1.635329E-16	4.306324E-18
3.072061E+03	1.639411E-16	4.313031E-18
3.081845E+03	1.643282E-16	4.319144E-18
3.091629E+03	1.647107E-16	4.325101E-18
3.101412E+03	1.650705E-16	4.330425E-18
3.111196E+03	1.654417E-16	4.336012E-18
3.120980E+03	1.657888E-16	4.340932E-18
3.130763E+03	1.661457E-16	4.346073E-18
3.140547E+03	1.664774E-16	4.350521E-18
3.150330E+03	2.277702E-16	5.946459E-18
3.155222E+03	2.234796E-16	5.831583E-18
3.160114E+03	2.194858E-16	5.724554E-18
3.165006E+03	2.141484E-16	5.582593E-18
3.169898E+03	2.087571E-16	5.439360E-18
3.174790E+03	2.046054E-16	5.328542E-18
3.179681E+03	2.023045E-16	5.266005E-18
3.184573E+03	1.992836E-16	5.184788E-18
3.189465E+03	1.959528E-16	5.095585E-18
3.194357E+03	1.951337E-16	5.071747E-18
3.199249E+03	1.935951E-16	5.029231E-18
3.204140E+03	1.924352E-16	4.996586E-18
3.209032E+03	1.924804E-16	4.995239E-18
3.213924E+03	1.894045E-16	4.912929E-18
3.218816E+03	1.873491E-16	4.857152E-18
3.223708E+03	1.868980E-16	4.842994E-18
3.228600E+03	1.857097E-16	4.809752E-18
3.233491E+03	1.854542E-16	4.800681E-18
3.238383E+03	1.850439E-16	4.787608E-18
3.243275E+03	1.854456E-16	4.795540E-18
3.248167E+03	1.833126E-16	4.737941E-18
3.253059E+03	1.795468E-16	4.638217E-18
3.257950E+03	1.816190E-16	4.689321E-18
3.262842E+03	1.831387E-16	4.726108E-18
3.267734E+03	1.859522E-16	4.796219E-18
3.272626E+03	1.865344E-16	4.808728E-18
3.277518E+03	1.873781E-16	4.827957E-18
3.282410E+03	1.886690E-16	4.858671E-18
3.287301E+03	1.844212E-16	4.746789E-18
3.292193E+03	1.810632E-16	4.657905E-18
3.297085E+03	1.815465E-16	4.667873E-18
3.301977E+03	1.798502E-16	4.621814E-18
3.306869E+03	1.787852E-16	4.592009E-18
3.311760E+03	1.766972E-16	4.535967E-18
3.316652E+03	1.746214E-16	4.480291E-18
3.321544E+03	1.728368E-16	4.432136E-18
3.326436E+03	1.692833E-16	4.338688E-18
3.331328E+03	1.642681E-16	4.207890E-18
3.336220E+03	1.610151E-16	4.122343E-18
3.341111E+03	1.601322E-16	4.097527E-18
3.346003E+03	1.629578E-16	4.167576E-18
3.350895E+03	1.591845E-16	4.068868E-18
3.355787E+03	1.574268E-16	4.021754E-18
3.360679E+03	1.558066E-16	3.978196E-18
3.365570E+03	1.572793E-16	4.013604E-18
3.370462E+03	1.603865E-16	4.090659E-18
3.375354E+03	1.635269E-16	4.168466E-18
3.380246E+03	1.659063E-16	4.226794E-18
3.385138E+03	1.688169E-16	4.298576E-18
3.390029E+03	1.740052E-16	4.428239E-18
3.394921E+03	1.775911E-16	4.516990E-18
3.399813E+03	1.814913E-16	4.613630E-18
3.404705E+03	1.845044E-16	4.687615E-18
3.409597E+03	1.840526E-16	4.673526E-18
3.414489E+03	1.853805E-16	4.704613E-18
3.419380E+03	1.863024E-16	4.725359E-18
3.424272E+03	1.855200E-16	4.702870E-18
3.429164E+03	1.854713E-16	4.698989E-18
3.434056E+03	1.848742E-16	4.681216E-18
3.438948E+03	1.845263E-16	4.669763E-18
3.443839E+03	1.819065E-16	4.600855E-18
3.448731E+03	1.803650E-16	4.559271E-18
3.453623E+03	1.787118E-16	4.514908E-18
3.458515E+03	1.788755E-16	4.516463E-18
3.463407E+03	1.788975E-16	4.514433E-18
3.468299E+03	1.778205E-16	4.484679E-18
3.473190E+03	1.781077E-16	4.489338E-18
3.478082E+03	1.760388E-16	4.434633E-18
3.482974E+03	1.730095E-16	4.355803E-18
3.487866E+03	1.717690E-16	4.322065E-18
3.492758E+03	1.708414E-16	4.296229E-18
3.497649E+03	1.688901E-16	4.244689E-18
3.502541E+03	1.680226E-16	4.220421E-18
3.507433E+03	1.684757E-16	4.229330E-18
3.512325E+03	1.682832E-16	4.222022E-18
3.517217E+03	1.680899E-16	4.214697E-18
3.522109E+03	1.694873E-16	4.247232E-18
3.527000E+03	1.699552E-16	4.256445E-18
3.531892E+03	1.704859E-16	4.267213E-18
3.536784E+03	1.712057E-16	4.282690E-18
3.541676E+03	1.727300E-16	4.318253E-18
3.546568E+03	1.732606E-16	4.328940E-18
3.551459E+03	1.743120E-16	4.352610E-18
3.556351E+03	1.760267E-16	4.392798E-18
3.561243E+03	1.781053E-16	4.442008E-18
3.566135E+03	1.787785E-16	4.456119E-18
3.571027E+03	1.787402E-16	4.452484E-18
3.575919E+03	1.790651E-16	4.457883E-18
3.580810E+03	1.789467E-16	4.452244E-18
3.585702E+03	1.794765E-16	4.462719E-18
3.590594E+03	1.801010E-16	4.475528E-18
3.595486E+03	1.808046E-16	4.490276E-18
3.600378E+03	1.815713E-16	4.506567E-18
3.605269E+03	1.825599E-16	4.528333E-18
3.610161E+03	1.835959E-16	4.551241E-18
3.615053E+03	1.845212E-16	4.571371E-18
3.619945E+03	1.852246E-16	4.585972E-18
3.624837E+03	1.856105E-16	4.592694E-18
3.629729E+03	1.856314E-16	4.590372E-18
3.634620E+03	1.852076E-16	4.577054E-18
3.639512E+03	1.843068E-16	4.551965E-18
3.644404E+03	1.835955E-16	4.531578E-18
3.649296E+03	1.827404E-16	4.507659E-18
3.654188E+03	1.832981E-16	4.518591E-18
3.659079E+03	1.817265E-16	4.477044E-18
3.663971E+03	1.815998E-16	4.471116E-18
3.668863E+03	1.808526E-16	4.449920E-18
3.673755E+03	1.796592E-16	4.417771E-18
3.678647E+03	1.798803E-16	4.420415E-18
3.683539E+03	1.795283E-16	4.408974E-18
3.688430E+03	1.775365E-16	4.357293E-18
3.693322E+03	1.761640E-16	4.320861E-18
3.698214E+03	1.761756E-16	4.318394E-18
3.703106E+03	1.766007E-16	4.326053E-18
3.707998E+03	1.786026E-16	4.372294E-18
3.712889E+03	1.808599E-16	4.424718E-18
3.717781E+03	1.819384E-16	4.448246E-18
3.722673E+03	1.823634E-16	4.455769E-18
3.727565E+03	1.846854E-16	4.509595E-18
3.732457E+03	1.872631E-16	4.569584E-18
3.737349E+03	1.901605E-16	4.637283E-18
3.742240E+03	1.961062E-16	4.779174E-18
3.747132E+03	1.997399E-16	4.864564E-18
3.752024E+03	2.026243E-16	4.931598E-18
3.756916E+03	2.060203E-16	5.010981E-18
3.761808E+03	2.092096E-16	5.085227E-18
3.766699E+03	2.115211E-16	5.138044E-18
3.771591E+03	2.149352E-16	5.217549E-18
3.776483E+03	2.173594E-16	5.272926E-18
3.781375E+03	2.196241E-16	5.324355E-18
3.786267E+03	2.215214E-16	5.366806E-18
3.791159E+03	2.245539E-16	5.436674E-18
3.796050E+03	2.284983E-16	5.528506E-18
3.800942E+03	2.306043E-16	5.575754E-18
3.805834E+03	2.329982E-16	5.629887E-18
3.810726E+03	2.339683E-16	5.649558E-18
3.815618E+03	2.347779E-16	5.665320E-18
3.820509E+03	2.341466E-16	5.646304E-18
3.825401E+03	2.333702E-16	5.623808E-18
3.830293E+03	2.319523E-16	5.585884E-18
3.835185E+03	2.310937E-16	5.561461E-18
3.840077E+03	2.316916E-16	5.572088E-18
3.844969E+03	2.324810E-16	5.587296E-18
3.849860E+03	2.322765E-16	5.578603E-18
3.854752E+03	2.333211E-16	5.599891E-18
3.859644E+03	2.334677E-16	5.599601E-18
3.864536E+03	2.332449E-16	5.590449E-18
3.869428E+03	2.341434E-16	5.608157E-18
3.874319E+03	2.382478E-16	5.702564E-18
3.879211E+03	2.403481E-16	5.748898E-18
3.884103E+03	2.417905E-16	5.779433E-18
3.888995E+03	2.436013E-16	5.818716E-18
3.893887E+03	2.444973E-16	5.836098E-18
3.898779E+03	2.468845E-16	5.889019E-18
3.903670E+03	2.483729E-16	5.920429E-18
3.908562E+03	2.503742E-16	5.964003E-18
3.913454E+03	2.518934E-16	5.996033E-18
3.918346E+03	2.538614E-16	6.038681E-18
3.923238E+03	2.560534E-16	6.086587E-18
3.928129E+03	2.584375E-16	6.138978E-18
3.933021E+03	2.622337E-16	6.224806E-18
3.937913E+03	2.666076E-16	6.324204E-18
3.942805E+03	2.687491E-16	6.370538E-18
3.947697E+03	2.707453E-16	6.413352E-18
3.952589E+03	2.735757E-16	6.475843E-18
3.957480E+03	2.767104E-16	6.545434E-18
3.962372E+03	2.792662E-16	6.601231E-18
3.967264E+03	2.825117E-16	6.673229E-18
3.972156E+03	2.850174E-16	6.727652E-18
3.977048E+03	2.886948E-16	6.809623E-18
3.981939E+03	2.927889E-16	6.901291E-18
3.986831E+03	2.982958E-16	7.026092E-18
3.991723E+03	3.029341E-16	7.130261E-18
3.996615E+03	3.053059E-16	7.180958E-18
4.001507E+03	3.086724E-16	7.254952E-18
4.006398E+03	3.117003E-16	7.320872E-18
4.011290E+03	3.139554E-16	7.368552E-18
4.016182E+03	3.121438E-16	7.320772E-18
4.021074E+03	3.092217E-16	7.247023E-18
4.025966E+03	3.055268E-16	7.155270E-18
4.030858E+03	3.014125E-16	7.053821E-18
4.035749E+03	2.993856E-16	7.001322E-18
4.040641E+03	2.965857E-16	6.930826E-18
4.045533E+03	2.941701E-16	6.869392E-18
4.050425E+03	2.925563E-16	6.826748E-18
4.055317E+03	2.909249E-16	6.783743E-18
4.060208E+03	2.905935E-16	6.771079E-18
4.065100E+03	2.926701E-16	6.814494E-18
4.069992E+03	2.965443E-16	6.899655E-18
4.074884E+03	2.993080E-16	6.958864E-18
4.079776E+03	3.026639E-16	7.031734E-18
4.084668E+03	3.055036E-16	7.092500E-18
4.089559E+03	3.079396E-16	7.143802E-18
4.094451E+03	3.118348E-16	7.228843E-18
4.099343E+03	3.153421E-16	7.304761E-18
4.104235E+03	3.190235E-16	7.384586E-18
4.109127E+03	3.228467E-16	7.467561E-18
4.114018E+03	3.263942E-16	7.544030E-18
4.118910E+03	3.295537E-16	7.611412E-18
4.123802E+03	3.315225E-16	7.651202E-18
4.128694E+03	3.338740E-16	7.699746E-18
4.133586E+03	3.342489E-16	7.702656E-18
4.138478E+03	3.345091E-16	7.702908E-18
4.143369E+03	3.335638E-16	7.675411E-18
4.148261E+03	3.319590E-16	7.632777E-18
4.153153E+03	3.304324E-16	7.591992E-18
4.158045E+03	3.280862E-16	7.532442E-18
4.162937E+03	3.264600E-16	7.489485E-18
4.167828E+03	3.243191E-16	7.434781E-18
4.172720E+03	3.234106E-16	7.408379E-18
4.177612E+03	3.231891E-16	7.397732E-18
4.182504E+03	3.226608E-16	7.380074E-18
4.187396E+03	3.218420E-16	7.355790E-18
4.192288E+03	3.215496E-16	7.343554E-18
4.197179E+03	3.232402E-16	7.376578E-18
4.202071E+03	3.255036E-16	7.422604E-18
4.206963E+03	3.259872E-16	7.427995E-18
4.211855E+03	3.232523E-16	7.360084E-18
4.216747E+03	3.200364E-16	7.281322E-18
4.221638E+03	3.161158E-16	7.186650E-18
4.226530E+03	3.111077E-16	7.067405E-18
4.231422E+03	3.067550E-16	6.963210E-18
4.236314E+03	3.011559E-16	6.830894E-18
4.241206E+03	2.972027E-16	6.736072E-18
4.246098E+03	2.925307E-16	6.625108E-18
4.250989E+03	2.886413E-16	6.532014E-18
4.255881E+03	2.848475E-16	6.441216E-18
4.260773E+03	2.815641E-16	6.362082E-18
4.265665E+03	2.774352E-16	6.263970E-18
4.270557E+03	2.744224E-16	6.191180E-18
4.275448E+03	2.729074E-16	6.152258E-18
4.280340E+03	2.723308E-16	6.134527E-18
4.285232E+03	2.725801E-16	6.135406E-18
4.290124E+03	2.739410E-16	6.161275E-18
4.295016E+03	2.757119E-16	6.196311E-18
4.299908E+03	2.786241E-16	6.256913E-18
4.304799E+03	2.825328E-16	6.339775E-18
4.309691E+03	2.863244E-16	6.419873E-18
4.314583E+03	2.901734E-16	6.501124E-18
4.319475E+03	2.943020E-16	6.588502E-18
4.324367E+03	2.989795E-16	6.688013E-18
4.329258E+03	3.017459E-16	6.744644E-18
4.334150E+03	3.050458E-16	6.813095E-18
4.339042E+03	3.071348E-16	6.854405E-18
4.343934E+03	3.078086E-16	6.864084E-18
4.348826E+03	3.096344E-16	6.899408E-18
4.353718E+03	3.104106E-16	6.911299E-18
4.358609E+03	3.104711E-16	6.907238E-18
4.363501E+03	3.088682E-16	6.866198E-18
4.368393E+03	3.085753E-16	6.854313E-18
4.373285E+03	3.088481E-16	6.854993E-18
4.378177E+03	3.064658E-16	6.796779E-18
4.383068E+03	3.048403E-16	6.755417E-18
4.387960E+03	3.034501E-16	6.719321E-18
4.392852E+03	3.028619E-16	6.701021E-18
4.397744E+03	3.015787E-16	6.667372E-18
4.402636E+03	3.013169E-16	6.656334E-18
4.407528E+03	3.010838E-16	6.645937E-18
4.412419E+03	3.006909E-16	6.632024E-18
4.417311E+03	3.004998E-16	6.622571E-18
4.422203E+03	2.998821E-16	6.603732E-18
4.427095E+03	2.991840E-16	6.583143E-18
4.431987E+03	2.981233E-16	6.554605E-18
4.436878E+03	2.991447E-16	6.571847E-18
4.441770E+03	2.985338E-16	6.553221E-18
4.446662E+03	2.977800E-16	6.531483E-18
4.451554E+03	2.970246E-16	6.509734E-18
4.456446E+03	2.947988E-16	6.455811E-18
4.461338E+03	2.917772E-16	6.384554E-18
4.466229E+03	2.897245E-16	6.334587E-18
4.471121E+03	2.873448E-16	6.277545E-18
4.476013E+03	2.843896E-16	6.208024E-18
4.480905E+03	2.813740E-16	6.137288E-18
4.485797E+03	2.786714E-16	6.073480E-18
4.490688E+03	2.771360E-16	6.035184E-18
4.495580E+03	2.762217E-16	6.010456E-18
4.500472E+03	2.745460E-16	5.969206E-18
4.505364E+03	2.739402E-16	5.951258E-18
4.510256E+03	2.729303E-16	5.924557E-18
4.515148E+03	2.729877E-16	5.921042E-18
4.520039E+03	2.740788E-16	5.939929E-18
4.524931E+03	2.754439E-16	5.964711E-18
4.529823E+03	2.779162E-16	6.013401E-18
4.534715E+03	2.815081E-16	6.086214E-18
4.539607E+03	2.860628E-16	6.179698E-18
4.544498E+03	2.926556E-16	6.317018E-18
4.549390E+03	2.978650E-16	6.424272E-18
4.554282E+03	3.036932E-16	6.544677E-18
4.559174E+03	3.097083E-16	6.668905E-18
4.564066E+03	3.163239E-16	6.805847E-18
4.568958E+03	3.234772E-16	6.954114E-18
4.573849E+03	3.285619E-16	7.057700E-18
4.578741E+03	3.343694E-16	7.176623E-18
4.583633E+03	3.394294E-16	7.279312E-18
4.588525E+03	3.431175E-16	7.352429E-18
4.593417E+03	3.467350E-16	7.423905E-18
4.598308E+03	3.508918E-16	7.506795E-18
4.603200E+03	3.543371E-16	7.574331E-18
4.608092E+03	3.561443E-16	7.606762E-18
4.612984E+03	3.582037E-16	7.644512E-18
4.617876E+03	3.595575E-16	7.667146E-18
4.622767E+03	3.607540E-16	7.686381E-18
4.627659E+03	3.614602E-16	7.695138E-18
4.632551E+03	3.625256E-16	7.711513E-18
4.637443E+03	3.624361E-16	7.703307E-18
4.642335E+03	3.622533E-16	7.693121E-18
4.647227E+03	3.612375E-16	7.665268E-18
4.652118E+03	3.602360E-16	7.637756E-18
4.657010E+03	3.599119E-16	7.624631E-18
4.661902E+03	3.593149E-16	7.605740E-18
4.666794E+03	3.581447E-16	7.574751E-18
4.671686E+03	3.566589E-16	7.537133E-18
4.676577E+03	3.551585E-16	7.499261E-18
4.681469E+03	3.537786E-16	7.463983E-18
4.686361E+03	3.527284E-16	7.435707E-18
4.691253E+03	3.503165E-16	7.378788E-18
4.696145E+03	3.477429E-16	7.318550E-18
4.701037E+03	3.452469E-16	7.260035E-18
4.705928E+03	3.419933E-16	7.185692E-18
4.710820E+03	3.394592E-16	7.126569E-18
4.715712E+03	3.372557E-16	7.074469E-18
4.720604E+03	3.334197E-16	6.988233E-18
4.725496E+03	3.302580E-16	6.916252E-18
4.730387E+03	3.284206E-16	6.872095E-18
4.735279E+03	3.259483E-16	6.814728E-18
4.740171E+03	3.237603E-16	6.763388E-18
4.745063E+03	3.208065E-16	6.696142E-18
4.749955E+03	3.193185E-16	6.659573E-18
4.754847E+03	3.179645E-16	6.625847E-18
4.759738E+03	3.179222E-16	6.619482E-18
4.764630E+03	3.192606E-16	6.641845E-18
4.769522E+03	3.204908E-16	6.661917E-18
4.774414E+03	3.220977E-16	6.689772E-18
4.779306E+03	3.259414E-16	6.763995E-18
4.784197E+03	3.309160E-16	6.861535E-18
4.789089E+03	3.390502E-16	7.024369E-18
4.793981E+03	3.491493E-16	7.227601E-18
4.798873E+03	3.607832E-16	7.462235E-18
4.803765E+03	3.735090E-16	7.719039E-18
4.808657E+03	3.876572E-16	8.004782E-18
4.813548E+03	4.014346E-16	8.282392E-18
4.818440E+03	4.142467E-16	8.539637E-18
4.823332E+03	4.270251E-16	8.795753E-18
4.828224E+03	4.394655E-16	9.044480E-18
4.833116E+03	4.489506E-16	9.232015E-18
4.838007E+03	4.556932E-16	9.362886E-18
4.842899E+03	4.593862E-16	9.430922E-18
4.847791E+03	4.609630E-16	9.455433E-18
4.852683E+03	4.605035E-16	9.438160E-18
4.857575E+03	4.575983E-16	9.370827E-18
4.862467E+03	4.538793E-16	9.286947E-18
4.867358E+03	4.485610E-16	9.170502E-18
4.872250E+03	4.422508E-16	9.033984E-18
4.877142E+03	4.354249E-16	8.887160E-18
4.882034E+03	4.274852E-16	8.717860E-18
4.886926E+03	4.188926E-16	8.535533E-18
4.891817E+03	4.100917E-16	8.349263E-18
4.896709E+03	4.008272E-16	8.153866E-18
4.901601E+03	3.914847E-16	7.957203E-18
4.906493E+03	3.826185E-16	7.770535E-18
4.911385E+03	3.723838E-16	7.556404E-18
4.916277E+03	3.622445E-16	7.344557E-18
4.921168E+03	3.552260E-16	7.196281E-18
4.926060E+03	3.482380E-16	7.048866E-18
4.930952E+03	3.403077E-16	6.882631E-18
4.935844E+03	3.324948E-16	6.719044E-18
4.940736E+03	3.246023E-16	6.554117E-18
4.945627E+03	3.180494E-16	6.416486E-18
4.950519E+03	3.125923E-16	6.301168E-18
4.955411E+03	3.090253E-16	6.224108E-18
4.960303E+03	3.056901E-16	6.151839E-18
4.965195E+03	3.029770E-16	6.092196E-18
4.970087E+03	3.014417E-16	6.056314E-18
4.974978E+03	3.023616E-16	6.069776E-18
4.979870E+03	3.038758E-16	6.095136E-18
4.984762E+03	3.071218E-16	6.155158E-18
4.989654E+03	3.121617E-16	6.251004E-18
4.994546E+03	3.181152E-16	6.364969E-18
4.999437E+03	3.250200E-16	6.497764E-18
5.004329E+03	3.327891E-16	6.647605E-18
5.009221E+03	3.413501E-16	6.813003E-18
5.014113E+03	3.496659E-16	6.973238E-18
5.019005E+03	3.587696E-16	7.148909E-18
5.023897E+03	3.672833E-16	7.312545E-18
5.028788E+03	3.724775E-16	7.409877E-18
5.033680E+03	3.762165E-16	7.478123E-18
5.038572E+03	3.769182E-16	7.485933E-18
5.043464E+03	3.754017E-16	7.449711E-18
5.048356E+03	3.713895E-16	7.364064E-18
5.053247E+03	3.651782E-16	7.234988E-18
5.058139E+03	3.579479E-16	7.085952E-18
5.063031E+03	3.483434E-16	6.890197E-18
5.067923E+03	3.382346E-16	6.684797E-18
5.072815E+03	3.291559E-16	6.500074E-18
5.077707E+03	3.193025E-16	6.300365E-18
5.082598E+03	3.087316E-16	6.086838E-18
5.087490E+03	2.989180E-16	5.888579E-18
5.092382E+03	2.893062E-16	5.694612E-18
5.097274E+03	2.809453E-16	5.525566E-18
5.102166E+03	2.735481E-16	5.375730E-18
5.107057E+03	2.669896E-16	5.242610E-18
5.111949E+03	2.630766E-16	5.161611E-18
5.116841E+03	2.620390E-16	5.137115E-18
5.121733E+03	2.615383E-16	5.123179E-18
5.126625E+03	2.615457E-16	5.119212E-18
5.131517E+03	2.624188E-16	5.132186E-18
5.136408E+03	2.640611E-16	5.160172E-18
5.141300E+03	2.672936E-16	5.219166E-18
5.146192E+03	2.715385E-16	5.297824E-18
5.151084E+03	2.760758E-16	5.382058E-18
5.155976E+03	2.811689E-16	5.476989E-18
5.160867E+03	2.870139E-16	5.586409E-18
5.165759E+03	2.929870E-16	5.698150E-18
5.170651E+03	2.991140E-16	5.812711E-18
5.175543E+03	3.047097E-16	5.916779E-18
5.180435E+03	3.104994E-16	6.024451E-18
5.185327E+03	3.164560E-16	6.135195E-18
5.190218E+03	3.210449E-16	6.219276E-18
5.195110E+03	3.252537E-16	6.295873E-18
5.200002E+03	3.290971E-16	6.365290E-18
5.204894E+03	3.326290E-16	6.428584E-18
5.209786E+03	3.351987E-16	6.473205E-18
5.214677E+03	3.377868E-16	6.518117E-18
5.219569E+03	3.400159E-16	6.556048E-18
5.224461E+03	3.416933E-16	6.583295E-18
5.229353E+03	3.427303E-16	6.598181E-18
5.234245E+03	3.432202E-16	6.602528E-18
5.239136E+03	3.439282E-16	6.611068E-18
5.244028E+03	3.437043E-16	6.601706E-18
5.248920E+03	3.433519E-16	6.589899E-18
5.253812E+03	3.425754E-16	6.569986E-18
5.258704E+03	3.417751E-16	6.549657E-18
5.263596E+03	3.419908E-16	6.548824E-18
5.268487E+03	3.434235E-16	6.571289E-18
5.273379E+03	3.440968E-16	6.579210E-18
5.278271E+03	3.451899E-16	6.595151E-18
5.283163E+03	3.468160E-16	6.621253E-18
5.288055E+03	3.474942E-16	6.629245E-18
5.292946E+03	3.482468E-16	6.638655E-18
5.297838E+03	3.486541E-16	6.641483E-18
5.302730E+03	3.490095E-16	6.643333E-18
5.307622E+03	3.498583E-16	6.654577E-18
5.312514E+03	3.507809E-16	6.667218E-18
5.317406E+03	3.508794E-16	6.664202E-18
5.322297E+03	3.508515E-16	6.658803E-18
5.327189E+03	3.512020E-16	6.660604E-18
5.332081E+03	3.521435E-16	6.673615E-18
5.336973E+03	3.530450E-16	6.685864E-18
5.341865E+03	3.529273E-16	6.678821E-18
5.346756E+03	3.533370E-16	6.681776E-18
5.351648E+03	3.540589E-16	6.690641E-18
5.356540E+03	3.536662E-16	6.678461E-18
5.361432E+03	3.530754E-16	6.662574E-18
5.366324E+03	3.535216E-16	6.666279E-18
5.371216E+03	3.542536E-16	6.675378E-18
