#wls	flux	fluxerr
1.565382E+03	3.371974E-17	2.451362E-18
1.604516E+03	3.440617E-17	2.498993E-18
1.643651E+03	3.506270E-17	2.544311E-18
1.682785E+03	3.569275E-17	2.587564E-18
1.721920E+03	3.628584E-17	2.627996E-18
1.761054E+03	3.683987E-17	2.665457E-18
1.800189E+03	3.734129E-17	2.698976E-18
1.839323E+03	3.776020E-17	2.726399E-18
1.878458E+03	3.809701E-17	2.747773E-18
1.917592E+03	3.832092E-17	2.760895E-18
1.956727E+03	3.843062E-17	2.765696E-18
1.995862E+03	3.843653E-17	2.762950E-18
2.034996E+03	3.840505E-17	2.757450E-18
2.074131E+03	3.843806E-17	2.756510E-18
2.113265E+03	3.867343E-17	2.769989E-18
2.152400E+03	3.921008E-17	2.804906E-18
2.191534E+03	4.006714E-17	2.862544E-18
2.230669E+03	4.117598E-17	2.937912E-18
2.269803E+03	4.244128E-17	3.024140E-18
2.308938E+03	4.376691E-17	3.114335E-18
2.348072E+03	4.507849E-17	3.203186E-18
2.387207E+03	4.634698E-17	3.288628E-18
2.426341E+03	4.755826E-17	3.369666E-18
2.465476E+03	4.871101E-17	3.446215E-18
2.504611E+03	4.981013E-17	3.518633E-18
2.543745E+03	5.085461E-17	3.586860E-18
2.582880E+03	5.186033E-17	3.652025E-18
2.622014E+03	5.283485E-17	3.714664E-18
2.661149E+03	5.378512E-17	3.775272E-18
2.700283E+03	5.471755E-17	3.834300E-18
2.739418E+03	5.562922E-17	3.891543E-18
2.778552E+03	5.654354E-17	3.948639E-18
2.817687E+03	5.744822E-17	4.004725E-18
2.856821E+03	5.835783E-17	4.060814E-18
2.895956E+03	5.927823E-17	4.117305E-18
2.935090E+03	6.021559E-17	4.174618E-18
2.944874E+03	6.044718E-17	4.188698E-18
2.954658E+03	6.068915E-17	4.203475E-18
2.964441E+03	6.093223E-17	4.218306E-18
2.974225E+03	6.116718E-17	4.232552E-18
2.984009E+03	6.141354E-17	4.247562E-18
2.993792E+03	6.166243E-17	4.262724E-18
3.003576E+03	6.191382E-17	4.278035E-18
3.013360E+03	6.216767E-17	4.293492E-18
3.023143E+03	6.242398E-17	4.309093E-18
3.032927E+03	6.268324E-17	4.324873E-18
3.042710E+03	6.294427E-17	4.340751E-18
3.052494E+03	6.320938E-17	4.356884E-18
3.062278E+03	6.348812E-17	4.373931E-18
3.072061E+03	6.376093E-17	4.390543E-18
3.081845E+03	6.403740E-17	4.407380E-18
3.091629E+03	6.431742E-17	4.424436E-18
3.101412E+03	6.461075E-17	4.442380E-18
3.111196E+03	6.489774E-17	4.459860E-18
3.120980E+03	6.519803E-17	4.478226E-18
3.130763E+03	6.549188E-17	4.496122E-18
3.140547E+03	6.579913E-17	4.514909E-18
3.150330E+03	6.610991E-17	4.533909E-18
3.160114E+03	6.641425E-17	4.552439E-18
3.169898E+03	6.673224E-17	4.571874E-18
3.179681E+03	6.705395E-17	4.591535E-18
3.189465E+03	6.737950E-17	4.611427E-18
3.199249E+03	6.770897E-17	4.631558E-18
3.209032E+03	6.804249E-17	4.651934E-18
3.218816E+03	6.838018E-17	4.672564E-18
3.228600E+03	6.872219E-17	4.693457E-18
3.238383E+03	6.906866E-17	4.714623E-18
3.248167E+03	6.941973E-17	4.736070E-18
3.257950E+03	6.977557E-17	4.757809E-18
3.267734E+03	7.013635E-17	4.779852E-18
3.277518E+03	7.050223E-17	4.802209E-18
3.287301E+03	7.088389E-17	4.825606E-18
3.297085E+03	7.126057E-17	4.848628E-18
3.306869E+03	7.164290E-17	4.872000E-18
3.316652E+03	7.204168E-17	4.896455E-18
3.326436E+03	7.243593E-17	4.920565E-18
3.336220E+03	7.284710E-17	4.945788E-18
3.346003E+03	7.325404E-17	4.970686E-18
3.355787E+03	7.367838E-17	4.996727E-18
3.365570E+03	7.410962E-17	5.023196E-18
3.375354E+03	7.453710E-17	5.049371E-18
3.385138E+03	7.498269E-17	5.076734E-18
3.394921E+03	7.543577E-17	5.104563E-18
3.404705E+03	7.588552E-17	5.132125E-18
3.414489E+03	7.635411E-17	5.160921E-18
3.424272E+03	7.683075E-17	5.190218E-18
3.434056E+03	7.731563E-17	5.220028E-18
3.443839E+03	7.780892E-17	5.250362E-18
3.453623E+03	7.831082E-17	5.281232E-18
3.463407E+03	7.882145E-17	5.312646E-18
3.473190E+03	7.934101E-17	5.344616E-18
3.482974E+03	7.986962E-17	5.377149E-18
3.492758E+03	8.040741E-17	5.410253E-18
3.502541E+03	8.095459E-17	5.443940E-18
3.512325E+03	8.151120E-17	5.478212E-18
3.522109E+03	8.207744E-17	5.513082E-18
3.531892E+03	8.266510E-17	5.549340E-18
3.541676E+03	8.325092E-17	5.585423E-18
3.551459E+03	8.384652E-17	5.622110E-18
3.561243E+03	8.445209E-17	5.659414E-18
3.571027E+03	8.507969E-17	5.698139E-18
3.580810E+03	8.570536E-17	5.736681E-18
3.590594E+03	8.634108E-17	5.775840E-18
3.600378E+03	8.699920E-17	5.816442E-18
3.610161E+03	8.765513E-17	5.856840E-18
3.619945E+03	8.833357E-17	5.898685E-18
3.629729E+03	8.900973E-17	5.940319E-18
3.639512E+03	8.970842E-17	5.983397E-18
3.649296E+03	9.040451E-17	6.026242E-18
3.659079E+03	9.112314E-17	6.070529E-18
3.668863E+03	9.183893E-17	6.114565E-18
3.678647E+03	9.257719E-17	6.160035E-18
3.688430E+03	9.331204E-17	6.205216E-18
3.698214E+03	9.406930E-17	6.251823E-18
3.707998E+03	9.482273E-17	6.298112E-18
3.717781E+03	9.559826E-17	6.345804E-18
3.727565E+03	9.638274E-17	6.394025E-18
3.737349E+03	9.716254E-17	6.441868E-18
3.747132E+03	9.796400E-17	6.491082E-18
3.756916E+03	9.877365E-17	6.540771E-18
3.766699E+03	9.957756E-17	6.590013E-18
3.776483E+03	1.004026E-16	6.640587E-18
3.786267E+03	1.012350E-16	6.691576E-18
3.796050E+03	1.020605E-16	6.742038E-18
3.805834E+03	1.029064E-16	6.793782E-18
3.815618E+03	1.037587E-16	6.845877E-18
3.825401E+03	1.046026E-16	6.897354E-18
3.835185E+03	1.054663E-16	6.950063E-18
3.844969E+03	1.063354E-16	7.003053E-18
3.854752E+03	1.071947E-16	7.055333E-18
3.864536E+03	1.080730E-16	7.108790E-18
3.874319E+03	1.089554E-16	7.162452E-18
3.884103E+03	1.098416E-16	7.216287E-18
3.893887E+03	1.107163E-16	7.269299E-18
3.903670E+03	1.116089E-16	7.323415E-18
3.913454E+03	1.125042E-16	7.377637E-18
3.923238E+03	1.133868E-16	7.430956E-18
3.933021E+03	1.142864E-16	7.485321E-18
3.942805E+03	1.151878E-16	7.539733E-18
3.952589E+03	1.160752E-16	7.593158E-18
3.962372E+03	1.169792E-16	7.647601E-18
3.972156E+03	1.178841E-16	7.702033E-18
3.981939E+03	1.187740E-16	7.755418E-18
3.991723E+03	1.196801E-16	7.809796E-18
4.001507E+03	1.205707E-16	7.863094E-18
4.011290E+03	1.214775E-16	7.917376E-18
4.021074E+03	1.223843E-16	7.971597E-18
4.030858E+03	1.232752E-16	8.024715E-18
4.040641E+03	1.241823E-16	8.078821E-18
4.050425E+03	1.250732E-16	8.131814E-18
4.060208E+03	1.259807E-16	8.185818E-18
4.069992E+03	1.268720E-16	8.238703E-18
4.079776E+03	1.277803E-16	8.292630E-18
4.089559E+03	1.286726E-16	8.345460E-18
4.099343E+03	1.295658E-16	8.398284E-18
4.109127E+03	1.304770E-16	8.452220E-18
4.118910E+03	1.313729E-16	8.505101E-18
4.128694E+03	1.322707E-16	8.558044E-18
4.138478E+03	1.331881E-16	8.612194E-18
4.148261E+03	1.340912E-16	8.665363E-18
4.158045E+03	1.349977E-16	8.718694E-18
4.167828E+03	1.359257E-16	8.773355E-18
4.177612E+03	1.368408E-16	8.827128E-18
4.187396E+03	1.377612E-16	8.881181E-18
4.197179E+03	1.386873E-16	8.935555E-18
4.206963E+03	1.396201E-16	8.990297E-18
4.216747E+03	1.405601E-16	9.045456E-18
4.226530E+03	1.415082E-16	9.101073E-18
4.236314E+03	1.424649E-16	9.157192E-18
4.246098E+03	1.434311E-16	9.213869E-18
4.255881E+03	1.444074E-16	9.271143E-18
4.265665E+03	1.453946E-16	9.329055E-18
4.275448E+03	1.463931E-16	9.387649E-18
4.285232E+03	1.473850E-16	9.445763E-18
4.295016E+03	1.484080E-16	9.505815E-18
4.304799E+03	1.494438E-16	9.566639E-18
4.314583E+03	1.504738E-16	9.627037E-18
4.324367E+03	1.515360E-16	9.689445E-18
4.334150E+03	1.525923E-16	9.751426E-18
4.343934E+03	1.536810E-16	9.815425E-18
4.353718E+03	1.547635E-16	9.878982E-18
4.363501E+03	1.558786E-16	9.944563E-18
4.373285E+03	1.569869E-16	1.000966E-17
4.383068E+03	1.581076E-16	1.007551E-17
4.392852E+03	1.592603E-16	1.014334E-17
4.402636E+03	1.604050E-16	1.021061E-17
4.412419E+03	1.615610E-16	1.027856E-17
4.422203E+03	1.627278E-16	1.034714E-17
4.431987E+03	1.639049E-16	1.041634E-17
4.441770E+03	1.650917E-16	1.048610E-17
4.451554E+03	1.662877E-16	1.055640E-17
4.461338E+03	1.674921E-16	1.062719E-17
4.471121E+03	1.687042E-16	1.069843E-17
4.480905E+03	1.699025E-16	1.076874E-17
4.490688E+03	1.711278E-16	1.084073E-17
4.500472E+03	1.723585E-16	1.091302E-17
4.510256E+03	1.735726E-16	1.098421E-17
4.520039E+03	1.748116E-16	1.105695E-17
4.529823E+03	1.760319E-16	1.112846E-17
4.539607E+03	1.772754E-16	1.120140E-17
4.549390E+03	1.784980E-16	1.127299E-17
4.559174E+03	1.797203E-16	1.134453E-17
4.568958E+03	1.809413E-16	1.141596E-17
4.578741E+03	1.821820E-16	1.148860E-17
4.588525E+03	1.833972E-16	1.155960E-17
4.598308E+03	1.846080E-16	1.163030E-17
4.608092E+03	1.858131E-16	1.170063E-17
4.617876E+03	1.869889E-16	1.176908E-17
4.627659E+03	1.881795E-16	1.183845E-17
4.637443E+03	1.893612E-16	1.190724E-17
4.647227E+03	1.905330E-16	1.197539E-17
4.657010E+03	1.916705E-16	1.204138E-17
4.666794E+03	1.928190E-16	1.210805E-17
4.676577E+03	1.939309E-16	1.217242E-17
4.686361E+03	1.950517E-16	1.223734E-17
4.696145E+03	1.961336E-16	1.229982E-17
4.705928E+03	1.971990E-16	1.236127E-17
4.715712E+03	1.982468E-16	1.242163E-17
4.725496E+03	1.992761E-16	1.248083E-17
4.735279E+03	2.002860E-16	1.253882E-17
4.745063E+03	2.012755E-16	1.259555E-17
4.754847E+03	2.022437E-16	1.265098E-17
4.764630E+03	2.031899E-16	1.270504E-17
4.774414E+03	2.041134E-16	1.275771E-17
4.784197E+03	2.049887E-16	1.280739E-17
4.793981E+03	2.058641E-16	1.285711E-17
4.803765E+03	2.066900E-16	1.290377E-17
4.813548E+03	2.075149E-16	1.295041E-17
4.823332E+03	2.082890E-16	1.299391E-17
4.833116E+03	2.090363E-16	1.303579E-17
4.842899E+03	2.097814E-16	1.307758E-17
4.852683E+03	2.104742E-16	1.311615E-17
4.862467E+03	2.111391E-16	1.315304E-17
4.872250E+03	2.117759E-16	1.318824E-17
4.882034E+03	2.123843E-16	1.322172E-17
4.891817E+03	2.129392E-16	1.325194E-17
4.901601E+03	2.134905E-16	1.328200E-17
4.911385E+03	2.140131E-16	1.331034E-17
4.921168E+03	2.144817E-16	1.333540E-17
4.930952E+03	2.149470E-16	1.336032E-17
4.940736E+03	2.153584E-16	1.338198E-17
4.950519E+03	2.157667E-16	1.340352E-17
4.960303E+03	2.161214E-16	1.342181E-17
4.970087E+03	2.164480E-16	1.343845E-17
4.979870E+03	2.167468E-16	1.345344E-17
4.989654E+03	2.170181E-16	1.346683E-17
4.999437E+03	2.172621E-16	1.347861E-17
5.009221E+03	2.174793E-16	1.348883E-17
5.019005E+03	2.176699E-16	1.349750E-17
5.028788E+03	2.178091E-16	1.350308E-17
5.038572E+03	2.179479E-16	1.350874E-17
5.048356E+03	2.180614E-16	1.351294E-17
5.058139E+03	2.181245E-16	1.351413E-17
5.067923E+03	2.181887E-16	1.351549E-17
5.077707E+03	2.182034E-16	1.351389E-17
5.087490E+03	2.181945E-16	1.351096E-17
5.097274E+03	2.181624E-16	1.350670E-17
5.107057E+03	2.181075E-16	1.350115E-17
5.116841E+03	2.180302E-16	1.349434E-17
5.126625E+03	2.179310E-16	1.348628E-17
5.136408E+03	2.178102E-16	1.347702E-17
5.146192E+03	2.176681E-16	1.346656E-17
5.155976E+03	2.175052E-16	1.345495E-17
5.165759E+03	2.172965E-16	1.344062E-17
5.175543E+03	2.170927E-16	1.342674E-17
5.185327E+03	2.168439E-16	1.341020E-17
5.195110E+03	2.166007E-16	1.339413E-17
5.204894E+03	2.163129E-16	1.337544E-17
5.214677E+03	2.160060E-16	1.335571E-17
5.224461E+03	2.156803E-16	1.333495E-17
5.234245E+03	2.153607E-16	1.331471E-17
5.244028E+03	2.149979E-16	1.329193E-17
5.253812E+03	2.146168E-16	1.326815E-17
5.263596E+03	2.141929E-16	1.324187E-17
5.273379E+03	2.137760E-16	1.321616E-17
5.283163E+03	2.133413E-16	1.318949E-17
5.292946E+03	2.128891E-16	1.316188E-17
5.302730E+03	2.123952E-16	1.313184E-17
5.312514E+03	2.119088E-16	1.310239E-17
5.322297E+03	2.113812E-16	1.307054E-17
5.332081E+03	2.108370E-16	1.303781E-17
5.341865E+03	2.103010E-16	1.300573E-17
5.351648E+03	2.097248E-16	1.297130E-17
5.361432E+03	2.091332E-16	1.293606E-17
5.371216E+03	2.085265E-16	1.290001E-17
5.380999E+03	2.079053E-16	1.286320E-17
5.390783E+03	2.072704E-16	1.282568E-17
5.400566E+03	2.066226E-16	1.278748E-17
5.410350E+03	2.059629E-16	1.274867E-17
5.420134E+03	2.052921E-16	1.270929E-17
5.429917E+03	2.045877E-16	1.266794E-17
5.439701E+03	2.038978E-16	1.262761E-17
5.449485E+03	2.031765E-16	1.258543E-17
5.459268E+03	2.024712E-16	1.254436E-17
5.469052E+03	2.017367E-16	1.250158E-17
5.478836E+03	2.009970E-16	1.245858E-17
5.488619E+03	2.002762E-16	1.241685E-17
5.498403E+03	1.995291E-16	1.237358E-17
5.508186E+03	1.987797E-16	1.233026E-17
5.517970E+03	1.980289E-16	1.228694E-17
5.527754E+03	1.972775E-16	1.224367E-17
5.537537E+03	1.965263E-16	1.220050E-17
5.547321E+03	1.957761E-16	1.215746E-17
5.557105E+03	1.950277E-16	1.211462E-17
5.566888E+03	1.942596E-16	1.207062E-17
5.576672E+03	1.935169E-16	1.202828E-17
5.586456E+03	1.927779E-16	1.198623E-17
5.596239E+03	1.920213E-16	1.194315E-17
5.606023E+03	1.912915E-16	1.190181E-17
5.615806E+03	1.905453E-16	1.185951E-17
5.625590E+03	1.898050E-16	1.181763E-17
5.635374E+03	1.890925E-16	1.177755E-17
5.645157E+03	1.883650E-16	1.173658E-17
5.654941E+03	1.876443E-16	1.169609E-17
5.664725E+03	1.869308E-16	1.165610E-17
5.674508E+03	1.862245E-16	1.161661E-17
5.684292E+03	1.855256E-16	1.157762E-17
5.694076E+03	1.848342E-16	1.153915E-17
5.703859E+03	1.841503E-16	1.150119E-17
5.713643E+03	1.834740E-16	1.146374E-17
5.723426E+03	1.828050E-16	1.142680E-17
5.733210E+03	1.821434E-16	1.139035E-17
5.742994E+03	1.814683E-16	1.135309E-17
5.752777E+03	1.808211E-16	1.131761E-17
5.762561E+03	1.801602E-16	1.128131E-17
5.772345E+03	1.795264E-16	1.124673E-17
5.782128E+03	1.788786E-16	1.121131E-17
5.791912E+03	1.782573E-16	1.117758E-17
5.801696E+03	1.776216E-16	1.114296E-17
5.811479E+03	1.769914E-16	1.110872E-17
5.821263E+03	1.763865E-16	1.107609E-17
5.831046E+03	1.757665E-16	1.104253E-17
5.840830E+03	1.751510E-16	1.100927E-17
5.850614E+03	1.745397E-16	1.097630E-17
5.860397E+03	1.739323E-16	1.094358E-17
5.870181E+03	1.733284E-16	1.091111E-17
5.879965E+03	1.727279E-16	1.087886E-17
5.889748E+03	1.721303E-16	1.084681E-17
5.899532E+03	1.715354E-16	1.081493E-17
5.909315E+03	1.709430E-16	1.078323E-17
5.919099E+03	1.703528E-16	1.075167E-17
5.928883E+03	1.697454E-16	1.071902E-17
5.938666E+03	1.691592E-16	1.068773E-17
5.948450E+03	1.685749E-16	1.065656E-17
5.958234E+03	1.679732E-16	1.062429E-17
5.968017E+03	1.673923E-16	1.059334E-17
5.977801E+03	1.667942E-16	1.056129E-17
5.987585E+03	1.662169E-16	1.053057E-17
5.997368E+03	1.656226E-16	1.049877E-17
6.007152E+03	1.650305E-16	1.046709E-17
6.016935E+03	1.644594E-16	1.043675E-17
6.026719E+03	1.638720E-16	1.040536E-17
6.036503E+03	1.632874E-16	1.037415E-17
6.046286E+03	1.627245E-16	1.034430E-17
6.056070E+03	1.621464E-16	1.031347E-17
6.065854E+03	1.615719E-16	1.028287E-17
6.075637E+03	1.610016E-16	1.025252E-17
6.085421E+03	1.604357E-16	1.022245E-17
6.095205E+03	1.598749E-16	1.019267E-17
6.104988E+03	1.593194E-16	1.016322E-17
6.114772E+03	1.587697E-16	1.013414E-17
6.124555E+03	1.582263E-16	1.010543E-17
6.134339E+03	1.576897E-16	1.007715E-17
6.144123E+03	1.571422E-16	1.004815E-17
6.153906E+03	1.566205E-16	1.002078E-17
6.163690E+03	1.561067E-16	9.993900E-18
6.173474E+03	1.556014E-16	9.967547E-18
6.183257E+03	1.550873E-16	9.940615E-18
6.193041E+03	1.546003E-16	9.915395E-18
6.202825E+03	1.541229E-16	9.890776E-18
6.212608E+03	1.536379E-16	9.865650E-18
6.222392E+03	1.531808E-16	9.842294E-18
6.232175E+03	1.527167E-16	9.818472E-18
6.241959E+03	1.522809E-16	9.796452E-18
6.251743E+03	1.518386E-16	9.773989E-18
6.261526E+03	1.514248E-16	9.753349E-18
6.271310E+03	1.510048E-16	9.732289E-18
6.281094E+03	1.505961E-16	9.711938E-18
6.290877E+03	1.502160E-16	9.693409E-18
6.300661E+03	1.498299E-16	9.674480E-18
6.310445E+03	1.494551E-16	9.656256E-18
6.320228E+03	1.490914E-16	9.638735E-18
6.330012E+03	1.487556E-16	9.623002E-18
6.339795E+03	1.484137E-16	9.606853E-18
6.349579E+03	1.480825E-16	9.591380E-18
6.359363E+03	1.477617E-16	9.576561E-18
6.369146E+03	1.474510E-16	9.562385E-18
6.378930E+03	1.471505E-16	9.548849E-18
6.388714E+03	1.468595E-16	9.535918E-18
6.398497E+03	1.465782E-16	9.523594E-18
6.408281E+03	1.463061E-16	9.511853E-18
6.418065E+03	1.460428E-16	9.500674E-18
6.427848E+03	1.457883E-16	9.490047E-18
6.437632E+03	1.455422E-16	9.479948E-18
6.447415E+03	1.453042E-16	9.470368E-18
6.457199E+03	1.450741E-16	9.461283E-18
6.466983E+03	1.448350E-16	9.451593E-18
6.476766E+03	1.446198E-16	9.443449E-18
6.486550E+03	1.444115E-16	9.435745E-18
6.496334E+03	1.442101E-16	9.428471E-18
6.506117E+03	1.439984E-16	9.420509E-18
6.515901E+03	1.438094E-16	9.414023E-18
6.525684E+03	1.436262E-16	9.407899E-18
6.535468E+03	1.434321E-16	9.401040E-18
6.545252E+03	1.432597E-16	9.395592E-18
6.555035E+03	1.430757E-16	9.389374E-18
6.564819E+03	1.429130E-16	9.384527E-18
6.574603E+03	1.427380E-16	9.378870E-18
6.584386E+03	1.425837E-16	9.374551E-18
6.594170E+03	1.424169E-16	9.369392E-18
6.603954E+03	1.422701E-16	9.365538E-18
6.613737E+03	1.421103E-16	9.360813E-18
6.623521E+03	1.419702E-16	9.357367E-18
6.633304E+03	1.418167E-16	9.353025E-18
6.643088E+03	1.416660E-16	9.348854E-18
6.652872E+03	1.415345E-16	9.345929E-18
6.662655E+03	1.413889E-16	9.342066E-18
6.672439E+03	1.412459E-16	9.338351E-18
6.682223E+03	1.411215E-16	9.335849E-18
6.692006E+03	1.409829E-16	9.332396E-18
6.701790E+03	1.408463E-16	9.329055E-18
6.711574E+03	1.407117E-16	9.325828E-18
6.721357E+03	1.405788E-16	9.322703E-18
6.731141E+03	1.404478E-16	9.319679E-18
6.740924E+03	1.403182E-16	9.316739E-18
6.750708E+03	1.402064E-16	9.314958E-18
6.760492E+03	1.400798E-16	9.312175E-18
6.770275E+03	1.399543E-16	9.309452E-18
6.780059E+03	1.398299E-16	9.306784E-18
6.789843E+03	1.397064E-16	9.304158E-18
6.799626E+03	1.395837E-16	9.301563E-18
6.809410E+03	1.394453E-16	9.297909E-18
6.819194E+03	1.393236E-16	9.295345E-18
6.828977E+03	1.392020E-16	9.292765E-18
6.838761E+03	1.390803E-16	9.290162E-18
6.848544E+03	1.389583E-16	9.287525E-18
6.858328E+03	1.388358E-16	9.284828E-18
6.868112E+03	1.387124E-16	9.282055E-18
6.877895E+03	1.385718E-16	9.278110E-18
6.887679E+03	1.384460E-16	9.275134E-18
6.897463E+03	1.383185E-16	9.272028E-18
6.907246E+03	1.381731E-16	9.267693E-18
6.917030E+03	1.380416E-16	9.264276E-18
6.926814E+03	1.379076E-16	9.260667E-18
6.936597E+03	1.377550E-16	9.255785E-18
6.946381E+03	1.376155E-16	9.251762E-18
6.956164E+03	1.374729E-16	9.247503E-18
6.965948E+03	1.373108E-16	9.241915E-18
6.975732E+03	1.371615E-16	9.237156E-18
6.985515E+03	1.369923E-16	9.231042E-18
6.995299E+03	1.368354E-16	9.225726E-18
7.005083E+03	1.366586E-16	9.219046E-18
7.014866E+03	1.364780E-16	9.212080E-18
7.024650E+03	1.363092E-16	9.205890E-18
7.034434E+03	1.361205E-16	9.198320E-18
7.044217E+03	1.359277E-16	9.190457E-18
7.054001E+03	1.357470E-16	9.183375E-18
7.063784E+03	1.355464E-16	9.174923E-18
7.073568E+03	1.353419E-16	9.166176E-18
7.083352E+03	1.351336E-16	9.157145E-18
7.093135E+03	1.349375E-16	9.148915E-18
7.102919E+03	1.347220E-16	9.139334E-18
7.112703E+03	1.345031E-16	9.129493E-18
7.122486E+03	1.342808E-16	9.119396E-18
7.132270E+03	1.340554E-16	9.109050E-18
7.142053E+03	1.338268E-16	9.098460E-18
7.151837E+03	1.335952E-16	9.087638E-18
7.161621E+03	1.333607E-16	9.076584E-18
7.171404E+03	1.331233E-16	9.065298E-18
7.181188E+03	1.328832E-16	9.053797E-18
7.190972E+03	1.326403E-16	9.042074E-18
7.200755E+03	1.323945E-16	9.030124E-18
7.210539E+03	1.321459E-16	9.017947E-18
7.220323E+03	1.318945E-16	9.005548E-18
7.230106E+03	1.316245E-16	8.991846E-18
7.239890E+03	1.313671E-16	8.978965E-18
7.249673E+03	1.311064E-16	8.965831E-18
7.259457E+03	1.308423E-16	8.952432E-18
7.269241E+03	1.305593E-16	8.937696E-18
7.279024E+03	1.302878E-16	8.923721E-18
7.288808E+03	1.300124E-16	8.909438E-18
7.298592E+03	1.297172E-16	8.893766E-18
7.308375E+03	1.294328E-16	8.878802E-18
7.318159E+03	1.291282E-16	8.862417E-18
7.327943E+03	1.288340E-16	8.846703E-18
7.337726E+03	1.285190E-16	8.829531E-18
7.347510E+03	1.282137E-16	8.812980E-18
7.357293E+03	1.278871E-16	8.794932E-18
7.367077E+03	1.275543E-16	8.776424E-18
7.376861E+03	1.272305E-16	8.758488E-18
7.386644E+03	1.268847E-16	8.739010E-18
7.396428E+03	1.265323E-16	8.719027E-18
7.406212E+03	1.261879E-16	8.699561E-18
7.415995E+03	1.258214E-16	8.678537E-18
7.425779E+03	1.254479E-16	8.656982E-18
7.435563E+03	1.250673E-16	8.634901E-18
7.445346E+03	1.246795E-16	8.612283E-18
7.455130E+03	1.242848E-16	8.589144E-18
7.464913E+03	1.238833E-16	8.565490E-18
7.474697E+03	1.234750E-16	8.541328E-18
7.484481E+03	1.230603E-16	8.516680E-18
7.494264E+03	1.226394E-16	8.491559E-18
7.504048E+03	1.222127E-16	8.465995E-18
7.513832E+03	1.217805E-16	8.440006E-18
7.523615E+03	1.213434E-16	8.413636E-18
7.533399E+03	1.209018E-16	8.386907E-18
7.543183E+03	1.204562E-16	8.359858E-18
7.552966E+03	1.199927E-16	8.331525E-18
7.562750E+03	1.195410E-16	8.303962E-18
7.572533E+03	1.190872E-16	8.276214E-18
7.582317E+03	1.186176E-16	8.247322E-18
7.592101E+03	1.181617E-16	8.219331E-18
