#wls	flux	fluxerr
1.570321E+03	3.836560E-19	1.335228E-20
1.609579E+03	3.805789E-19	1.318770E-20
1.648837E+03	3.784912E-19	1.305703E-20
1.688095E+03	3.774014E-19	1.296009E-20
1.727353E+03	3.773561E-19	1.289802E-20
1.766611E+03	3.784318E-19	1.287292E-20
1.805869E+03	3.805713E-19	1.288229E-20
1.845127E+03	3.838798E-19	1.292911E-20
1.884385E+03	3.883718E-19	1.301325E-20
1.923643E+03	3.940744E-19	1.313495E-20
1.962901E+03	4.010132E-19	1.329437E-20
2.002159E+03	4.092986E-19	1.349442E-20
2.041417E+03	4.190938E-19	1.373965E-20
2.080675E+03	4.306743E-19	1.403812E-20
2.119933E+03	4.445640E-19	1.440570E-20
2.159191E+03	4.612477E-19	1.485656E-20
2.198449E+03	4.811338E-19	1.540202E-20
2.237707E+03	5.044979E-19	1.604879E-20
2.276965E+03	5.315722E-19	1.680195E-20
2.316223E+03	5.627277E-19	1.767067E-20
2.355481E+03	5.985421E-19	1.867025E-20
2.394739E+03	6.398219E-19	1.982250E-20
2.433997E+03	6.877111E-19	2.115888E-20
2.473255E+03	7.435597E-19	2.271610E-20
2.512513E+03	8.091151E-19	2.454167E-20
2.551772E+03	8.864599E-19	2.669157E-20
2.591030E+03	9.782425E-19	2.923674E-20
2.630288E+03	1.087738E-18	3.226422E-20
2.669546E+03	1.219113E-18	3.588431E-20
2.708804E+03	1.377720E-18	4.023791E-20
2.748062E+03	1.570430E-18	4.550502E-20
2.787320E+03	1.806197E-18	5.191901E-20
2.826578E+03	2.096889E-18	5.978808E-20
2.865836E+03	2.458112E-18	6.951497E-20
2.905094E+03	2.911045E-18	8.164439E-20
2.944352E+03	3.484030E-18	9.690070E-20
2.954166E+03	3.650395E-18	1.013146E-19
2.963981E+03	3.827294E-18	1.060008E-19
2.973795E+03	4.015501E-18	1.109790E-19
2.983610E+03	4.216039E-18	1.162754E-19
2.993424E+03	4.429736E-18	1.219106E-19
3.003239E+03	4.657586E-18	1.279097E-19
3.013053E+03	4.900770E-18	1.343027E-19
3.022868E+03	5.160357E-18	1.411160E-19
3.032682E+03	5.437624E-18	1.483819E-19
3.042497E+03	5.734150E-18	1.561401E-19
3.052311E+03	6.051289E-18	1.644244E-19
3.062126E+03	6.390783E-18	1.732783E-19
3.071940E+03	6.754278E-18	1.827427E-19
3.081755E+03	7.144113E-18	1.928765E-19
3.091569E+03	7.561975E-18	2.037210E-19
3.101384E+03	8.010287E-18	2.153363E-19
3.111198E+03	8.491691E-18	2.277883E-19
3.121013E+03	9.008904E-18	2.411443E-19
3.130827E+03	9.564531E-18	2.554678E-19
3.140642E+03	1.016230E-17	2.708518E-19
3.150456E+03	1.080534E-17	2.873724E-19
3.160271E+03	1.149763E-17	3.051279E-19
3.170085E+03	1.224309E-17	3.242140E-19
3.179900E+03	1.304641E-17	3.447457E-19
3.189714E+03	1.391245E-17	3.668421E-19
3.199529E+03	1.484653E-17	3.906324E-19
3.209343E+03	1.585410E-17	4.162493E-19
3.219158E+03	1.694164E-17	4.438503E-19
3.228972E+03	1.811589E-17	4.735987E-19
3.238787E+03	1.938381E-17	5.056626E-19
3.248601E+03	2.075356E-17	5.402392E-19
3.258416E+03	2.223328E-17	5.775237E-19
3.268230E+03	2.383240E-17	6.177437E-19
3.278045E+03	2.556033E-17	6.611236E-19
3.287859E+03	2.742751E-17	7.079126E-19
3.297674E+03	2.944506E-17	7.583760E-19
3.307488E+03	3.162483E-17	8.127948E-19
3.317303E+03	3.397934E-17	8.714655E-19
3.327117E+03	3.652127E-17	9.346861E-19
3.336932E+03	3.926491E-17	1.002793E-18
3.346746E+03	4.222338E-17	1.076091E-18
3.356561E+03	4.541250E-17	1.154950E-18
3.366376E+03	4.884584E-17	1.239681E-18
3.376190E+03	5.253807E-17	1.330619E-18
3.386005E+03	5.650346E-17	1.428087E-18
3.395819E+03	6.075447E-17	1.532362E-18
3.405634E+03	6.530359E-17	1.643716E-18
3.415448E+03	7.015919E-17	1.762318E-18
3.425263E+03	7.532588E-17	1.888242E-18
3.435077E+03	8.080490E-17	2.021477E-18
3.444892E+03	8.659166E-17	2.161865E-18
3.454706E+03	9.267942E-17	2.309199E-18
3.464521E+03	9.905283E-17	2.463058E-18
3.474335E+03	1.056972E-16	2.623043E-18
3.484150E+03	1.125925E-16	2.788625E-18
3.493964E+03	1.197169E-16	2.959239E-18
3.503779E+03	1.270438E-16	3.134200E-18
3.513593E+03	1.345459E-16	3.312816E-18
3.523408E+03	1.421976E-16	3.494444E-18
3.533222E+03	1.499664E-16	3.678276E-18
3.543037E+03	1.578255E-16	3.863650E-18
3.552851E+03	1.657450E-16	4.049833E-18
3.562666E+03	1.736932E-16	4.236055E-18
3.572480E+03	1.816407E-16	4.421607E-18
3.582295E+03	1.895607E-16	4.605852E-18
3.592109E+03	1.974239E-16	4.788092E-18
3.601924E+03	2.052090E-16	4.967835E-18
3.611738E+03	2.128886E-16	5.144439E-18
3.621553E+03	2.204450E-16	5.317500E-18
3.631367E+03	2.278622E-16	5.486658E-18
3.641182E+03	2.351312E-16	5.651722E-18
3.650996E+03	2.422430E-16	5.812504E-18
3.660811E+03	2.491975E-16	5.969030E-18
3.670625E+03	2.559963E-16	6.121359E-18
3.680440E+03	2.626464E-16	6.269689E-18
3.690254E+03	2.691548E-16	6.414208E-18
3.700069E+03	2.755323E-16	6.555200E-18
3.709883E+03	2.817880E-16	6.692897E-18
3.719698E+03	2.879305E-16	6.827523E-18
3.729512E+03	2.939758E-16	6.959478E-18
3.739327E+03	2.999243E-16	7.088784E-18
3.749141E+03	3.057854E-16	7.215678E-18
3.758956E+03	3.115657E-16	7.340330E-18
3.768770E+03	3.172595E-16	7.462620E-18
3.778585E+03	3.228636E-16	7.582483E-18
3.788399E+03	3.283734E-16	7.699826E-18
3.798214E+03	3.337775E-16	7.814396E-18
3.808028E+03	3.390607E-16	7.925850E-18
3.817843E+03	3.442011E-16	8.033690E-18
3.827657E+03	3.491795E-16	8.137489E-18
3.837472E+03	3.539712E-16	8.236690E-18
3.847286E+03	3.585493E-16	8.330690E-18
3.857101E+03	3.628856E-16	8.418857E-18
3.866915E+03	3.669516E-16	8.500557E-18
3.876730E+03	3.707227E-16	8.575250E-18
3.886544E+03	3.741724E-16	8.642351E-18
3.896359E+03	3.772730E-16	8.701260E-18
3.906173E+03	3.800103E-16	8.751678E-18
3.915988E+03	3.823633E-16	8.793163E-18
3.925802E+03	3.843222E-16	8.825524E-18
3.935617E+03	3.858786E-16	8.848606E-18
3.945431E+03	3.870253E-16	8.862282E-18
3.955246E+03	3.877705E-16	8.866780E-18
3.965060E+03	3.881170E-16	8.862199E-18
3.974875E+03	3.880791E-16	8.848902E-18
3.984689E+03	3.876724E-16	8.827279E-18
3.994504E+03	3.869168E-16	8.797813E-18
4.004318E+03	3.858358E-16	8.761070E-18
4.014133E+03	3.844601E-16	8.717773E-18
4.023947E+03	3.828162E-16	8.668545E-18
4.033762E+03	3.809361E-16	8.614137E-18
4.043576E+03	3.788600E-16	8.555471E-18
4.053391E+03	3.766148E-16	8.493170E-18
4.063205E+03	3.742375E-16	8.428081E-18
4.073020E+03	3.717608E-16	8.360948E-18
4.082834E+03	3.692161E-16	8.292482E-18
4.092649E+03	3.666334E-16	8.223359E-18
4.102463E+03	3.640412E-16	8.154220E-18
4.112278E+03	3.614665E-16	8.085665E-18
4.122092E+03	3.589349E-16	8.018264E-18
4.131907E+03	3.564710E-16	7.952557E-18
4.141721E+03	3.540981E-16	7.889057E-18
4.151536E+03	3.518359E-16	7.828190E-18
4.161350E+03	3.497062E-16	7.770432E-18
4.171165E+03	3.477336E-16	7.716310E-18
4.180979E+03	3.459388E-16	7.666271E-18
4.190794E+03	3.443364E-16	7.620619E-18
4.200608E+03	3.429496E-16	7.579846E-18
4.210423E+03	3.417979E-16	7.544366E-18
4.220238E+03	3.409004E-16	7.514578E-18
4.230052E+03	3.402756E-16	7.490862E-18
4.239867E+03	3.399377E-16	7.473507E-18
4.249681E+03	3.399088E-16	7.462973E-18
4.259496E+03	3.401972E-16	7.459412E-18
4.269310E+03	3.408214E-16	7.463201E-18
4.279125E+03	3.417909E-16	7.474520E-18
4.288939E+03	3.431154E-16	7.493549E-18
4.298754E+03	3.447983E-16	7.520328E-18
4.308568E+03	3.468415E-16	7.554870E-18
4.318383E+03	3.492397E-16	7.597028E-18
4.328197E+03	3.519890E-16	7.646684E-18
4.338012E+03	3.550739E-16	7.703470E-18
4.347826E+03	3.584733E-16	7.766904E-18
4.357641E+03	3.621669E-16	7.836517E-18
4.367455E+03	3.661222E-16	7.911581E-18
4.377270E+03	3.703036E-16	7.991304E-18
4.387084E+03	3.746729E-16	8.074847E-18
4.396899E+03	3.791765E-16	8.161036E-18
4.406713E+03	3.837653E-16	8.248805E-18
4.416528E+03	3.883825E-16	8.336928E-18
4.426342E+03	3.929639E-16	8.424028E-18
4.436157E+03	3.974464E-16	8.508757E-18
4.445971E+03	4.017658E-16	8.589750E-18
4.455786E+03	4.058576E-16	8.665646E-18
4.465600E+03	4.096591E-16	8.735125E-18
4.475415E+03	4.131065E-16	8.796857E-18
4.485229E+03	4.161403E-16	8.849607E-18
4.495044E+03	4.187189E-16	8.892523E-18
4.504858E+03	4.207917E-16	8.924578E-18
4.514673E+03	4.223205E-16	8.945003E-18
4.524487E+03	4.232841E-16	8.953395E-18
4.534302E+03	4.236668E-16	8.949477E-18
4.544116E+03	4.234508E-16	8.932918E-18
4.553931E+03	4.226519E-16	8.904106E-18
4.563745E+03	4.212669E-16	8.863024E-18
4.573560E+03	4.193263E-16	8.810360E-18
4.583374E+03	4.168559E-16	8.746705E-18
4.593189E+03	4.138888E-16	8.672801E-18
4.603003E+03	4.104652E-16	8.589526E-18
4.612818E+03	4.066302E-16	8.497868E-18
4.622632E+03	4.024419E-16	8.399072E-18
4.632447E+03	3.979503E-16	8.294210E-18
4.642261E+03	3.932118E-16	8.184482E-18
4.652076E+03	3.882891E-16	8.071213E-18
4.661890E+03	3.832336E-16	7.955487E-18
4.671705E+03	3.781160E-16	7.838779E-18
4.681519E+03	3.729823E-16	7.722047E-18
4.691334E+03	3.678949E-16	7.606586E-18
4.701148E+03	3.629042E-16	7.493432E-18
4.710963E+03	3.580491E-16	7.383376E-18
4.720777E+03	3.533735E-16	7.277318E-18
4.730592E+03	3.489159E-16	7.176029E-18
4.740406E+03	3.446989E-16	7.079960E-18
4.750221E+03	3.407516E-16	6.989686E-18
4.760035E+03	3.370954E-16	6.905627E-18
4.769850E+03	3.337451E-16	6.828062E-18
4.779664E+03	3.307156E-16	6.757267E-18
4.789479E+03	3.280205E-16	6.693498E-18
4.799293E+03	3.256632E-16	6.636796E-18
4.809108E+03	3.236498E-16	6.587257E-18
4.818922E+03	3.219724E-16	6.544694E-18
4.828737E+03	3.206299E-16	6.509058E-18
4.838551E+03	3.196161E-16	6.480197E-18
4.848366E+03	3.189198E-16	6.457860E-18
4.858180E+03	3.185367E-16	6.441934E-18
4.867995E+03	3.184564E-16	6.432186E-18
4.877809E+03	3.186764E-16	6.428545E-18
4.887624E+03	3.191895E-16	6.430842E-18
4.897438E+03	3.199936E-16	6.439014E-18
4.907253E+03	3.210847E-16	6.452961E-18
4.917067E+03	3.224700E-16	6.472808E-18
4.926882E+03	3.241442E-16	6.498427E-18
4.936696E+03	3.261077E-16	6.529807E-18
4.946511E+03	3.283633E-16	6.566986E-18
4.956325E+03	3.309054E-16	6.609831E-18
4.966140E+03	3.337285E-16	6.658216E-18
4.975954E+03	3.368244E-16	6.711960E-18
4.985769E+03	3.401812E-16	6.770808E-18
4.995583E+03	3.437791E-16	6.834353E-18
5.005398E+03	3.475977E-16	6.902177E-18
5.015212E+03	3.516161E-16	6.973849E-18
5.025027E+03	3.557979E-16	7.048645E-18
5.034841E+03	3.601174E-16	7.126045E-18
5.044656E+03	3.645265E-16	7.205093E-18
5.054471E+03	3.689921E-16	7.285138E-18
5.064285E+03	3.734677E-16	7.365258E-18
5.074100E+03	3.779081E-16	7.444573E-18
5.083914E+03	3.822670E-16	7.522177E-18
5.093729E+03	3.864939E-16	7.597086E-18
5.103543E+03	3.905420E-16	7.668396E-18
5.113358E+03	3.943616E-16	7.735149E-18
5.123172E+03	3.979170E-16	7.796666E-18
5.132987E+03	4.011561E-16	7.851946E-18
5.142801E+03	4.040471E-16	7.900393E-18
5.152616E+03	4.065597E-16	7.941444E-18
5.162430E+03	4.086698E-16	7.974651E-18
5.172245E+03	4.103517E-16	7.999544E-18
5.182059E+03	4.115991E-16	8.016027E-18
5.191874E+03	4.124042E-16	8.023981E-18
5.201688E+03	4.127706E-16	8.023499E-18
5.211503E+03	4.127038E-16	8.014714E-18
5.221317E+03	4.122231E-16	7.998021E-18
5.231132E+03	4.113389E-16	7.973642E-18
5.240946E+03	4.100735E-16	7.942026E-18
5.250761E+03	4.084466E-16	7.903573E-18
5.260575E+03	4.064875E-16	7.858864E-18
5.270390E+03	4.042092E-16	7.808162E-18
5.280204E+03	4.016403E-16	7.752035E-18
5.290019E+03	3.988001E-16	7.690861E-18
5.299833E+03	3.957057E-16	7.624984E-18
5.309648E+03	3.923646E-16	7.554552E-18
5.319462E+03	3.887898E-16	7.479824E-18
5.329277E+03	3.849929E-16	7.401030E-18
5.339091E+03	3.809687E-16	7.318076E-18
5.348906E+03	3.767270E-16	7.231156E-18
5.358720E+03	3.722664E-16	7.140249E-18
5.368535E+03	3.675940E-16	7.045494E-18
5.378349E+03	3.627359E-16	6.947398E-18
5.388164E+03	3.577053E-16	6.846215E-18
5.397978E+03	3.525315E-16	6.742510E-18
5.407793E+03	3.472393E-16	6.636756E-18
5.417607E+03	3.418664E-16	6.529675E-18
5.427422E+03	3.364356E-16	6.421702E-18
5.437236E+03	3.309829E-16	6.313520E-18
5.447051E+03	3.255405E-16	6.205740E-18
5.456865E+03	3.201526E-16	6.099201E-18
5.466680E+03	3.148527E-16	5.994532E-18
5.476494E+03	3.096824E-16	5.892521E-18
5.486309E+03	3.046813E-16	5.793912E-18
5.496123E+03	2.998956E-16	5.699572E-18
5.505938E+03	2.953613E-16	5.610174E-18
5.515752E+03	2.911183E-16	5.526469E-18
5.525567E+03	2.872040E-16	5.449151E-18
5.535381E+03	2.836484E-16	5.378775E-18
5.545196E+03	2.804801E-16	5.315873E-18
5.555010E+03	2.777165E-16	5.260758E-18
5.564825E+03	2.753752E-16	5.213751E-18
5.574639E+03	2.734680E-16	5.175062E-18
5.584454E+03	2.719977E-16	5.144731E-18
5.594268E+03	2.709609E-16	5.122679E-18
5.604083E+03	2.703484E-16	5.108722E-18
5.613897E+03	2.701502E-16	5.102660E-18
5.623712E+03	2.703397E-16	5.103979E-18
5.633526E+03	2.708958E-16	5.112272E-18
5.643341E+03	2.717870E-16	5.126940E-18
5.653155E+03	2.729738E-16	5.147226E-18
5.662970E+03	2.744180E-16	5.172407E-18
5.672784E+03	2.760780E-16	5.201695E-18
5.682599E+03	2.779025E-16	5.234123E-18
5.692413E+03	2.798415E-16	5.268744E-18
5.702228E+03	2.818497E-16	5.304709E-18
5.712042E+03	2.838695E-16	5.340932E-18
5.721857E+03	2.858528E-16	5.376512E-18
5.731671E+03	2.877508E-16	5.410537E-18
5.741486E+03	2.895175E-16	5.442141E-18
5.751300E+03	2.911137E-16	5.470596E-18
5.761115E+03	2.924954E-16	5.495080E-18
5.770929E+03	2.936364E-16	5.515105E-18
5.780744E+03	2.945062E-16	5.530104E-18
5.790558E+03	2.950829E-16	5.539671E-18
5.800373E+03	2.953499E-16	5.543503E-18
5.810187E+03	2.952957E-16	5.541385E-18
5.820002E+03	2.949174E-16	5.533272E-18
5.829816E+03	2.942065E-16	5.519006E-18
5.839631E+03	2.931654E-16	5.498635E-18
5.849445E+03	2.918035E-16	5.472341E-18
5.859260E+03	2.901302E-16	5.440304E-18
5.869074E+03	2.881519E-16	5.402643E-18
5.878889E+03	2.858911E-16	5.359784E-18
5.888704E+03	2.833573E-16	5.311904E-18
5.898518E+03	2.805826E-16	5.259607E-18
5.908333E+03	2.775826E-16	5.203182E-18
5.918147E+03	2.743852E-16	5.143153E-18
5.927962E+03	2.710240E-16	5.080149E-18
5.937776E+03	2.675279E-16	5.014707E-18
5.947591E+03	2.639304E-16	4.947457E-18
5.957405E+03	2.602593E-16	4.878913E-18
5.967220E+03	2.565548E-16	4.809830E-18
5.977034E+03	2.528403E-16	4.740643E-18
5.986849E+03	2.491532E-16	4.672049E-18
5.996663E+03	2.455185E-16	4.604516E-18
6.006478E+03	2.419578E-16	4.538446E-18
6.016292E+03	2.384920E-16	4.474227E-18
6.026107E+03	2.351404E-16	4.412218E-18
6.035921E+03	2.319123E-16	4.352586E-18
6.045736E+03	2.288160E-16	4.295484E-18
6.055550E+03	2.258626E-16	4.241114E-18
6.065365E+03	2.230488E-16	4.189412E-18
6.075179E+03	2.203784E-16	4.140443E-18
6.084994E+03	2.178531E-16	4.094241E-18
6.094808E+03	2.154746E-16	4.050831E-18
6.104623E+03	2.132377E-16	4.010119E-18
6.114437E+03	2.111399E-16	3.972049E-18
6.124252E+03	2.091802E-16	3.936607E-18
6.134066E+03	2.073521E-16	3.903666E-18
6.143881E+03	2.056533E-16	3.873182E-18
6.153695E+03	2.040780E-16	3.845045E-18
6.163510E+03	2.026220E-16	3.819178E-18
6.173324E+03	2.012775E-16	3.795432E-18
6.183139E+03	2.000361E-16	3.773645E-18
6.192953E+03	1.988912E-16	3.753698E-18
6.202768E+03	1.978363E-16	3.735463E-18
6.212582E+03	1.968592E-16	3.718712E-18
6.222397E+03	1.959537E-16	3.703326E-18
6.232211E+03	1.951141E-16	3.689196E-18
6.242026E+03	1.943297E-16	3.676121E-18
6.251840E+03	1.935994E-16	3.664078E-18
6.261655E+03	1.929168E-16	3.652946E-18
6.271469E+03	1.922772E-16	3.642635E-18
6.281284E+03	1.916767E-16	3.633069E-18
6.291098E+03	1.911181E-16	3.624301E-18
6.300913E+03	1.905972E-16	3.616253E-18
6.310727E+03	1.901187E-16	3.609011E-18
6.320542E+03	1.896825E-16	3.602573E-18
6.330356E+03	1.892882E-16	3.596930E-18
6.340171E+03	1.889379E-16	3.592122E-18
6.349985E+03	1.886297E-16	3.588114E-18
6.359800E+03	1.883636E-16	3.584904E-18
6.369614E+03	1.881296E-16	3.582304E-18
6.379429E+03	1.879277E-16	3.580309E-18
6.389243E+03	1.877507E-16	3.578784E-18
6.399058E+03	1.875877E-16	3.577522E-18
6.408872E+03	1.874331E-16	3.576412E-18
6.418687E+03	1.872775E-16	3.575276E-18
6.428501E+03	1.871119E-16	3.573939E-18
6.438316E+03	1.869270E-16	3.572224E-18
6.448130E+03	1.867173E-16	3.570020E-18
6.457945E+03	1.864713E-16	3.567111E-18
6.467759E+03	1.861814E-16	3.563344E-18
6.477574E+03	1.858437E-16	3.558646E-18
6.487388E+03	1.854526E-16	3.552905E-18
6.497203E+03	1.849999E-16	3.545961E-18
6.507017E+03	1.844851E-16	3.537804E-18
6.516832E+03	1.839017E-16	3.528307E-18
6.526646E+03	1.832542E-16	3.517550E-18
6.536461E+03	1.825347E-16	3.505384E-18
6.546275E+03	1.817428E-16	3.491796E-18
6.556090E+03	1.808820E-16	3.476849E-18
6.565904E+03	1.799536E-16	3.460570E-18
6.575719E+03	1.789566E-16	3.442936E-18
6.585533E+03	1.778948E-16	3.424015E-18
6.595348E+03	1.767751E-16	3.403943E-18
6.605162E+03	1.756000E-16	3.382763E-18
6.614977E+03	1.743790E-16	3.360659E-18
6.624791E+03	1.731133E-16	3.337651E-18
6.634606E+03	1.718173E-16	3.314017E-18
6.644420E+03	1.704944E-16	3.289822E-18
6.654235E+03	1.691604E-16	3.265371E-18
6.664049E+03	1.678196E-16	3.240745E-18
6.673864E+03	1.664851E-16	3.216199E-18
6.683678E+03	1.651665E-16	3.191919E-18
6.693493E+03	1.638698E-16	3.168019E-18
6.703307E+03	1.626060E-16	3.144717E-18
6.713122E+03	1.613790E-16	3.122088E-18
6.722937E+03	1.601977E-16	3.100304E-18
6.732751E+03	1.590606E-16	3.079338E-18
6.742566E+03	1.579769E-16	3.059369E-18
6.752380E+03	1.569454E-16	3.040376E-18
6.762195E+03	1.559668E-16	3.022376E-18
6.772009E+03	1.550382E-16	3.005311E-18
6.781824E+03	1.541644E-16	2.989277E-18
6.791638E+03	1.533353E-16	2.974079E-18
6.801453E+03	1.525577E-16	2.959851E-18
6.811267E+03	1.518239E-16	2.946445E-18
6.821082E+03	1.511320E-16	2.933825E-18
6.830896E+03	1.504832E-16	2.922014E-18
6.840711E+03	1.498729E-16	2.910927E-18
6.850525E+03	1.492999E-16	2.900541E-18
6.860340E+03	1.487634E-16	2.890841E-18
6.870154E+03	1.482624E-16	2.881808E-18
6.879969E+03	1.477959E-16	2.873424E-18
6.889783E+03	1.473598E-16	2.865610E-18
6.899598E+03	1.469583E-16	2.858451E-18
6.909412E+03	1.465804E-16	2.851733E-18
6.919227E+03	1.462320E-16	2.845571E-18
6.929041E+03	1.459011E-16	2.839732E-18
6.938856E+03	1.455902E-16	2.834267E-18
6.948670E+03	1.452923E-16	2.829042E-18
6.958485E+03	1.450043E-16	2.823994E-18
6.968299E+03	1.447251E-16	2.819106E-18
6.978114E+03	1.444459E-16	2.814204E-18
6.987928E+03	1.441661E-16	2.809279E-18
6.997743E+03	1.438795E-16	2.804213E-18
7.007557E+03	1.435857E-16	2.798994E-18
7.017372E+03	1.432810E-16	2.793555E-18
7.027186E+03	1.429586E-16	2.787763E-18
7.037001E+03	1.426169E-16	2.781589E-18
7.046815E+03	1.422454E-16	2.774824E-18
7.056630E+03	1.418442E-16	2.767476E-18
7.066444E+03	1.414048E-16	2.759376E-18
7.076259E+03	1.409176E-16	2.750341E-18
7.086073E+03	1.403793E-16	2.740305E-18
7.095888E+03	1.397832E-16	2.729136E-18
7.105702E+03	1.391202E-16	2.716661E-18
7.115517E+03	1.383853E-16	2.702778E-18
7.125331E+03	1.375743E-16	2.687408E-18
7.135146E+03	1.366850E-16	2.670508E-18
7.144960E+03	1.357179E-16	2.652089E-18
7.154775E+03	1.346704E-16	2.632098E-18
7.164589E+03	1.335537E-16	2.610757E-18
7.174404E+03	1.323733E-16	2.588169E-18
7.184218E+03	1.311367E-16	2.564485E-18
7.194033E+03	1.298579E-16	2.539978E-18
7.203847E+03	1.285433E-16	2.514775E-18
7.213662E+03	1.272051E-16	2.489111E-18
7.223476E+03	1.258548E-16	2.463215E-18
7.233291E+03	1.245011E-16	2.437257E-18
7.243105E+03	1.231573E-16	2.411499E-18
7.252920E+03	1.218257E-16	2.385984E-18
7.262734E+03	1.205208E-16	2.361000E-18
7.272549E+03	1.192463E-16	2.336618E-18
7.282363E+03	1.180129E-16	2.313049E-18
7.292178E+03	1.168253E-16	2.290389E-18
7.301992E+03	1.156904E-16	2.268772E-18
7.311807E+03	1.146168E-16	2.248369E-18
7.321621E+03	1.136070E-16	2.229230E-18
7.331436E+03	1.126727E-16	2.211586E-18
7.341250E+03	1.118121E-16	2.195406E-18
7.351065E+03	1.110324E-16	2.180830E-18
7.360879E+03	1.103317E-16	2.167825E-18
7.370694E+03	1.097168E-16	2.156527E-18
7.380508E+03	1.091830E-16	2.146847E-18
7.390323E+03	1.087271E-16	2.138721E-18
7.400137E+03	1.083465E-16	2.132103E-18
7.409952E+03	1.080353E-16	2.126878E-18
7.419766E+03	1.077906E-16	2.122995E-18
7.429581E+03	1.075999E-16	2.120206E-18
7.439395E+03	1.074567E-16	2.118383E-18
7.449210E+03	1.073542E-16	2.117394E-18
7.459024E+03	1.072805E-16	2.117007E-18
7.468839E+03	1.072290E-16	2.117085E-18
7.478653E+03	1.071883E-16	2.117409E-18
7.488468E+03	1.071551E-16	2.117912E-18
7.498282E+03	1.071174E-16	2.118353E-18
7.508097E+03	1.070739E-16	2.118711E-18
7.517911E+03	1.070152E-16	2.118794E-18
7.527726E+03	1.069424E-16	2.118624E-18
7.537540E+03	1.068482E-16	2.118059E-18
7.547355E+03	1.067365E-16	2.117167E-18
7.557169E+03	1.066039E-16	2.115887E-18
7.566984E+03	1.064509E-16	2.114222E-18
7.576799E+03	1.062782E-16	2.112189E-18
7.586613E+03	1.060869E-16	2.109804E-18
7.596428E+03	1.058786E-16	2.107099E-18
7.606242E+03	1.056521E-16	2.104051E-18
7.616057E+03	1.054142E-16	2.100790E-18
