#wls	flux	fluxerr
1.570321E+03	4.278844E-19	1.074122E-20
1.609579E+03	4.251050E-19	1.063253E-20
1.648837E+03	4.234128E-19	1.055058E-20
1.688095E+03	4.228211E-19	1.049540E-20
1.727353E+03	4.233862E-19	1.046805E-20
1.766611E+03	4.251977E-19	1.047040E-20
1.805869E+03	4.281952E-19	1.050056E-20
1.845127E+03	4.325003E-19	1.056111E-20
1.884385E+03	4.381327E-19	1.065209E-20
1.923643E+03	4.451258E-19	1.077384E-20
1.962901E+03	4.535107E-19	1.092660E-20
2.002159E+03	4.634144E-19	1.111291E-20
2.041417E+03	4.750233E-19	1.133661E-20
2.080675E+03	4.886510E-19	1.160449E-20
2.119933E+03	5.048933E-19	1.192981E-20
2.159191E+03	5.243031E-19	1.232451E-20
2.198449E+03	5.473446E-19	1.279816E-20
2.237707E+03	5.743325E-19	1.335655E-20
2.276965E+03	6.055266E-19	1.400402E-20
2.316223E+03	6.413453E-19	1.474835E-20
2.355481E+03	6.824373E-19	1.560229E-20
2.394739E+03	7.297087E-19	1.658406E-20
2.433997E+03	7.844457E-19	1.771988E-20
2.473255E+03	8.481620E-19	1.904028E-20
2.512513E+03	9.228161E-19	2.058474E-20
2.551772E+03	1.010732E-18	2.239963E-20
2.591030E+03	1.114862E-18	2.454359E-20
2.630288E+03	1.238843E-18	2.708837E-20
2.669546E+03	1.387291E-18	3.012457E-20
2.708804E+03	1.566116E-18	3.376759E-20
2.748062E+03	1.782882E-18	3.816434E-20
2.787320E+03	2.047412E-18	4.350458E-20
2.826578E+03	2.372686E-18	5.003805E-20
2.865836E+03	2.775704E-18	5.808967E-20
2.905094E+03	3.279468E-18	6.809737E-20
2.944352E+03	3.914626E-18	8.064065E-20
2.954166E+03	4.098652E-18	8.426147E-20
2.963981E+03	4.294154E-18	8.810198E-20
2.973795E+03	4.501959E-18	9.217770E-20
2.983610E+03	4.723176E-18	9.650963E-20
2.993424E+03	4.958687E-18	1.011140E-19
3.003239E+03	5.209556E-18	1.060107E-19
3.013053E+03	5.477048E-18	1.112233E-19
3.022868E+03	5.762306E-18	1.167729E-19
3.032682E+03	6.066695E-18	1.226846E-19
3.042497E+03	6.391896E-18	1.289900E-19
3.052311E+03	6.739354E-18	1.357155E-19
3.062126E+03	7.110925E-18	1.428952E-19
3.071940E+03	7.508364E-18	1.505614E-19
3.081755E+03	7.934160E-18	1.587604E-19
3.091569E+03	8.390098E-18	1.675241E-19
3.101384E+03	8.878749E-18	1.768998E-19
3.111198E+03	9.402927E-18	1.869390E-19
3.121013E+03	9.965501E-18	1.976940E-19
3.130827E+03	1.056923E-17	2.092142E-19
3.140642E+03	1.121806E-17	2.215725E-19
3.150456E+03	1.191532E-17	2.348279E-19
3.160271E+03	1.266519E-17	2.490567E-19
3.170085E+03	1.347182E-17	2.643330E-19
3.179900E+03	1.434016E-17	2.807464E-19
3.189714E+03	1.527535E-17	2.983890E-19
3.199529E+03	1.628300E-17	3.173610E-19
3.209343E+03	1.736884E-17	3.377646E-19
3.219158E+03	1.853971E-17	3.597218E-19
3.228972E+03	1.980270E-17	3.833585E-19
3.238787E+03	2.116513E-17	4.088037E-19
3.248601E+03	2.263557E-17	4.362095E-19
3.258416E+03	2.422254E-17	4.657253E-19
3.268230E+03	2.593595E-17	4.975252E-19
3.278045E+03	2.778560E-17	5.317801E-19
3.287859E+03	2.978234E-17	5.686791E-19
3.297674E+03	3.193774E-17	6.084225E-19
3.307488E+03	3.426399E-17	6.512210E-19
3.317303E+03	3.677396E-17	6.972956E-19
3.327117E+03	3.948049E-17	7.468645E-19
3.336932E+03	4.239801E-17	8.001737E-19
3.346746E+03	4.553948E-17	8.574390E-19
3.356561E+03	4.892049E-17	9.189231E-19
3.366376E+03	5.255395E-17	9.848359E-19
3.376190E+03	5.645366E-17	1.055401E-18
3.386005E+03	6.063268E-17	1.130828E-18
3.395819E+03	6.510224E-17	1.211286E-18
3.405634E+03	6.987352E-17	1.296945E-18
3.415448E+03	7.495454E-17	1.387913E-18
3.425263E+03	8.035197E-17	1.484271E-18
3.435077E+03	8.607209E-17	1.586093E-18
3.444892E+03	9.211811E-17	1.693394E-18
3.454706E+03	9.849283E-17	1.806184E-18
3.464521E+03	1.051914E-16	1.924328E-18
3.474335E+03	1.122106E-16	2.047725E-18
3.484150E+03	1.195417E-16	2.176176E-18
3.493964E+03	1.271746E-16	2.309451E-18
3.503779E+03	1.350929E-16	2.447217E-18
3.513593E+03	1.432789E-16	2.589115E-18
3.523408E+03	1.517158E-16	2.734808E-18
3.533222E+03	1.603781E-16	2.883804E-18
3.543037E+03	1.692452E-16	3.035705E-18
3.552851E+03	1.782918E-16	3.190032E-18
3.562666E+03	1.874894E-16	3.346253E-18
3.572480E+03	1.968108E-16	3.503864E-18
3.582295E+03	2.062309E-16	3.662405E-18
3.592109E+03	2.157204E-16	3.821346E-18
3.601924E+03	2.252578E-16	3.980301E-18
3.611738E+03	2.348134E-16	4.138739E-18
3.621553E+03	2.443657E-16	4.296281E-18
3.631367E+03	2.538926E-16	4.452542E-18
3.641182E+03	2.633767E-16	4.607221E-18
3.650996E+03	2.727975E-16	4.759967E-18
3.660811E+03	2.821420E-16	4.910561E-18
3.670625E+03	2.913966E-16	5.058779E-18
3.680440E+03	3.005523E-16	5.204477E-18
3.690254E+03	3.095990E-16	5.347493E-18
3.700069E+03	3.185305E-16	5.487735E-18
3.709883E+03	3.273385E-16	5.625076E-18
3.719698E+03	3.360147E-16	5.759388E-18
3.729512E+03	3.445601E-16	5.890708E-18
3.739327E+03	3.529589E-16	6.018782E-18
3.749141E+03	3.612067E-16	6.143555E-18
3.758956E+03	3.692982E-16	6.264956E-18
3.768770E+03	3.772151E-16	6.382697E-18
3.778585E+03	3.849438E-16	6.496567E-18
3.788399E+03	3.924716E-16	6.606381E-18
3.798214E+03	3.997799E-16	6.711852E-18
3.808028E+03	4.068473E-16	6.812646E-18
3.817843E+03	4.136458E-16	6.908333E-18
3.827657E+03	4.201531E-16	6.998570E-18
3.837472E+03	4.263410E-16	7.082929E-18
3.847286E+03	4.321798E-16	7.160959E-18
3.857101E+03	4.376388E-16	7.232199E-18
3.866915E+03	4.426871E-16	7.296189E-18
3.876730E+03	4.472984E-16	7.352546E-18
3.886544E+03	4.514431E-16	7.400847E-18
3.896359E+03	4.550895E-16	7.440631E-18
3.906173E+03	4.582207E-16	7.471688E-18
3.915988E+03	4.608106E-16	7.493663E-18
3.925802E+03	4.628454E-16	7.506400E-18
3.935617E+03	4.643116E-16	7.509754E-18
3.945431E+03	4.651971E-16	7.503607E-18
3.955246E+03	4.655118E-16	7.488191E-18
3.965060E+03	4.652670E-16	7.463764E-18
3.974875E+03	4.644919E-16	7.430866E-18
3.984689E+03	4.632181E-16	7.390072E-18
3.994504E+03	4.614837E-16	7.342052E-18
4.004318E+03	4.593313E-16	7.287543E-18
4.014133E+03	4.568092E-16	7.227366E-18
4.023947E+03	4.539579E-16	7.162207E-18
4.033762E+03	4.508221E-16	7.092814E-18
4.043576E+03	4.474542E-16	7.020047E-18
4.053391E+03	4.438894E-16	6.944487E-18
4.063205E+03	4.401738E-16	6.866878E-18
4.073020E+03	4.363481E-16	6.787876E-18
4.082834E+03	4.324514E-16	6.708101E-18
4.092649E+03	4.285213E-16	6.628145E-18
4.102463E+03	4.245937E-16	6.548566E-18
4.112278E+03	4.207033E-16	6.469897E-18
4.122092E+03	4.168829E-16	6.392638E-18
4.131907E+03	4.131641E-16	6.317262E-18
4.141721E+03	4.095776E-16	6.244225E-18
4.151536E+03	4.061493E-16	6.173901E-18
4.161350E+03	4.029083E-16	6.106712E-18
4.171165E+03	3.998875E-16	6.043132E-18
4.180979E+03	3.971163E-16	5.983574E-18
4.190794E+03	3.946176E-16	5.928349E-18
4.200608E+03	3.924257E-16	5.877934E-18
4.210423E+03	3.905715E-16	5.832751E-18
4.220238E+03	3.890859E-16	5.793217E-18
4.230052E+03	3.880003E-16	5.759745E-18
4.239867E+03	3.873415E-16	5.732683E-18
4.249681E+03	3.871464E-16	5.712517E-18
4.259496E+03	3.874368E-16	5.699507E-18
4.269310E+03	3.882476E-16	5.694098E-18
4.279125E+03	3.896054E-16	5.696613E-18
4.288939E+03	3.915387E-16	5.707394E-18
4.298754E+03	3.940711E-16	5.726706E-18
4.308568E+03	3.972273E-16	5.754828E-18
4.318383E+03	4.010246E-16	5.791928E-18
4.328197E+03	4.054843E-16	5.838227E-18
4.338012E+03	4.106158E-16	5.893773E-18
4.347826E+03	4.164224E-16	5.958523E-18
4.357641E+03	4.229082E-16	6.032446E-18
4.367455E+03	4.300616E-16	6.115289E-18
4.377270E+03	4.378635E-16	6.206691E-18
4.387084E+03	4.462875E-16	6.306196E-18
4.396899E+03	4.552825E-16	6.413002E-18
4.406713E+03	4.647936E-16	6.526263E-18
4.416528E+03	4.747466E-16	6.644875E-18
4.426342E+03	4.850472E-16	6.767464E-18
4.436157E+03	4.955885E-16	6.892499E-18
4.445971E+03	5.062473E-16	7.018244E-18
4.455786E+03	5.168870E-16	7.142800E-18
4.465600E+03	5.273595E-16	7.264130E-18
4.475415E+03	5.375022E-16	7.380027E-18
4.485229E+03	5.471472E-16	7.488243E-18
4.495044E+03	5.561455E-16	7.586815E-18
4.504858E+03	5.643324E-16	7.673590E-18
4.514673E+03	5.715603E-16	7.746681E-18
4.524487E+03	5.777172E-16	7.804704E-18
4.534302E+03	5.827076E-16	7.846520E-18
4.544116E+03	5.864457E-16	7.871133E-18
4.553931E+03	5.889180E-16	7.878534E-18
4.563745E+03	5.901001E-16	7.868563E-18
4.573560E+03	5.900251E-16	7.841834E-18
4.583374E+03	5.887365E-16	7.799092E-18
4.593189E+03	5.862977E-16	7.741332E-18
4.603003E+03	5.827846E-16	7.669708E-18
4.612818E+03	5.782855E-16	7.585518E-18
4.622632E+03	5.729078E-16	7.490296E-18
4.632447E+03	5.667492E-16	7.385429E-18
4.642261E+03	5.599209E-16	7.272464E-18
4.652076E+03	5.525411E-16	7.153016E-18
4.661890E+03	5.447081E-16	7.028427E-18
4.671705E+03	5.365451E-16	6.900336E-18
4.681519E+03	5.281343E-16	6.769840E-18
4.691334E+03	5.195765E-16	6.638258E-18
4.701148E+03	5.109566E-16	6.506687E-18
4.710963E+03	5.023372E-16	6.375930E-18
4.720777E+03	4.937802E-16	6.246768E-18
4.730592E+03	4.853320E-16	6.119777E-18
4.740406E+03	4.770111E-16	5.995175E-18
4.750221E+03	4.688430E-16	5.873263E-18
4.760035E+03	4.608458E-16	5.754246E-18
4.769850E+03	4.530474E-16	5.638451E-18
4.779664E+03	4.455045E-16	5.526551E-18
4.789479E+03	4.382926E-16	5.419451E-18
4.799293E+03	4.314826E-16	5.317977E-18
4.809108E+03	4.251459E-16	5.222949E-18
4.818922E+03	4.193224E-16	5.134798E-18
4.828737E+03	4.140497E-16	5.053914E-18
4.838551E+03	4.093474E-16	4.980466E-18
4.848366E+03	4.052182E-16	4.914416E-18
4.858180E+03	4.016630E-16	4.855704E-18
4.867995E+03	3.986674E-16	4.804084E-18
4.877809E+03	3.962209E-16	4.759363E-18
4.887624E+03	3.943021E-16	4.721221E-18
4.897438E+03	3.928944E-16	4.689394E-18
4.907253E+03	3.919814E-16	4.663628E-18
4.917067E+03	3.915619E-16	4.643850E-18
4.926882E+03	3.916240E-16	4.629862E-18
4.936696E+03	3.921731E-16	4.621673E-18
4.946511E+03	3.932244E-16	4.619406E-18
4.956325E+03	3.947898E-16	4.623142E-18
4.966140E+03	3.968934E-16	4.633107E-18
4.975954E+03	3.995622E-16	4.649553E-18
4.985769E+03	4.028188E-16	4.672683E-18
4.995583E+03	4.066738E-16	4.702555E-18
5.005398E+03	4.111351E-16	4.739193E-18
5.015212E+03	4.162054E-16	4.782565E-18
5.025027E+03	4.218627E-16	4.832355E-18
5.034841E+03	4.280915E-16	4.888322E-18
5.044656E+03	4.348432E-16	4.949856E-18
5.054471E+03	4.420755E-16	5.016421E-18
5.064285E+03	4.497203E-16	5.087199E-18
5.074100E+03	4.577029E-16	5.161306E-18
5.083914E+03	4.659368E-16	5.237738E-18
5.093729E+03	4.743204E-16	5.315331E-18
5.103543E+03	4.827500E-16	5.392916E-18
5.113358E+03	4.911157E-16	5.469267E-18
5.123172E+03	4.993202E-16	5.543313E-18
5.132987E+03	5.072413E-16	5.613723E-18
5.142801E+03	5.147825E-16	5.679466E-18
5.152616E+03	5.218482E-16	5.739530E-18
5.162430E+03	5.283520E-16	5.793024E-18
5.172245E+03	5.342128E-16	5.839121E-18
5.182059E+03	5.393801E-16	5.877338E-18
5.191874E+03	5.438082E-16	5.907254E-18
5.201688E+03	5.474780E-16	5.928738E-18
5.211503E+03	5.503818E-16	5.941787E-18
5.221317E+03	5.525378E-16	5.946674E-18
5.231132E+03	5.539643E-16	5.943670E-18
5.240946E+03	5.547027E-16	5.933291E-18
5.250761E+03	5.547995E-16	5.916098E-18
5.260575E+03	5.543226E-16	5.892877E-18
5.270390E+03	5.533237E-16	5.864232E-18
5.280204E+03	5.518785E-16	5.831012E-18
5.290019E+03	5.500508E-16	5.793934E-18
5.299833E+03	5.478931E-16	5.753582E-18
5.309648E+03	5.454230E-16	5.710174E-18
5.319462E+03	5.426344E-16	5.663674E-18
5.329277E+03	5.394746E-16	5.613564E-18
5.339091E+03	5.358429E-16	5.558834E-18
5.348906E+03	5.316646E-16	5.498755E-18
5.358720E+03	5.268550E-16	5.432505E-18
5.368535E+03	5.213550E-16	5.359532E-18
5.378349E+03	5.151603E-16	5.279859E-18
5.388164E+03	5.082641E-16	5.193478E-18
5.397978E+03	5.006968E-16	5.100760E-18
5.407793E+03	4.925026E-16	5.002217E-18
5.417607E+03	4.837544E-16	4.898641E-18
5.427422E+03	4.745092E-16	4.790656E-18
5.437236E+03	4.648531E-16	4.679172E-18
5.447051E+03	4.548695E-16	4.565058E-18
5.456865E+03	4.446590E-16	4.449348E-18
5.466680E+03	4.343073E-16	4.332915E-18
5.476494E+03	4.239112E-16	4.216731E-18
5.486309E+03	4.135640E-16	4.101721E-18
5.496123E+03	4.033683E-16	3.988891E-18
5.505938E+03	3.934132E-16	3.879105E-18
5.515752E+03	3.837977E-16	3.773311E-18
5.525567E+03	3.746271E-16	3.672508E-18
5.535381E+03	3.660002E-16	3.577622E-18
5.545196E+03	3.580125E-16	3.489534E-18
5.555010E+03	3.507459E-16	3.408984E-18
5.564825E+03	3.442793E-16	3.336674E-18
5.574639E+03	3.386765E-16	3.273152E-18
5.584454E+03	3.339806E-16	3.218764E-18
5.594268E+03	3.302211E-16	3.173717E-18
5.604083E+03	3.274124E-16	3.138075E-18
5.613897E+03	3.255599E-16	3.111816E-18
5.623712E+03	3.246430E-16	3.094669E-18
5.633526E+03	3.246447E-16	3.086402E-18
5.643341E+03	3.255279E-16	3.086599E-18
5.653155E+03	3.272431E-16	3.094728E-18
5.662970E+03	3.297388E-16	3.110247E-18
5.672784E+03	3.329543E-16	3.132534E-18
5.682599E+03	3.368124E-16	3.160820E-18
5.692413E+03	3.412308E-16	3.194298E-18
5.702228E+03	3.461260E-16	3.232157E-18
5.712042E+03	3.513903E-16	3.273371E-18
5.721857E+03	3.569193E-16	3.316957E-18
5.731671E+03	3.626000E-16	3.361861E-18
5.741486E+03	3.683137E-16	3.406988E-18
5.751300E+03	3.739474E-16	3.451304E-18
5.761115E+03	3.793874E-16	3.493782E-18
5.770929E+03	3.845433E-16	3.533618E-18
5.780744E+03	3.893184E-16	3.569952E-18
5.790558E+03	3.936343E-16	3.602104E-18
5.800373E+03	3.974224E-16	3.629486E-18
5.810187E+03	4.006227E-16	3.651592E-18
5.820002E+03	4.031954E-16	3.668102E-18
5.829816E+03	4.050965E-16	3.678660E-18
5.839631E+03	4.062990E-16	3.683066E-18
5.849445E+03	4.067919E-16	3.681261E-18
5.859260E+03	4.065666E-16	3.673208E-18
5.869074E+03	4.056116E-16	3.658840E-18
5.878889E+03	4.039426E-16	3.638335E-18
5.888704E+03	4.015591E-16	3.611722E-18
5.898518E+03	3.984959E-16	3.579340E-18
5.908333E+03	3.947704E-16	3.541371E-18
5.918147E+03	3.904218E-16	3.498187E-18
5.927962E+03	3.855023E-16	3.450271E-18
5.937776E+03	3.800654E-16	3.398116E-18
5.947591E+03	3.741775E-16	3.342320E-18
5.957405E+03	3.679075E-16	3.283503E-18
5.967220E+03	3.613589E-16	3.222587E-18
5.977034E+03	3.546195E-16	3.160350E-18
5.986849E+03	3.477965E-16	3.097739E-18
5.996663E+03	3.409807E-16	3.035551E-18
6.006478E+03	3.342532E-16	2.974496E-18
6.016292E+03	3.276843E-16	2.915182E-18
6.026107E+03	3.213288E-16	2.858074E-18
6.035921E+03	3.152136E-16	2.803387E-18
6.045736E+03	3.093490E-16	2.751191E-18
6.055550E+03	3.037325E-16	2.701444E-18
6.065365E+03	2.983340E-16	2.653858E-18
6.075179E+03	2.931312E-16	2.608215E-18
6.084994E+03	2.881081E-16	2.564360E-18
6.094808E+03	2.832770E-16	2.522385E-18
6.104623E+03	2.786680E-16	2.482543E-18
6.114437E+03	2.743130E-16	2.445108E-18
6.124252E+03	2.702435E-16	2.410348E-18
6.134066E+03	2.664811E-16	2.378449E-18
6.143881E+03	2.630470E-16	2.349592E-18
6.153695E+03	2.599517E-16	2.323867E-18
6.163510E+03	2.572006E-16	2.301318E-18
6.173324E+03	2.547846E-16	2.281862E-18
6.183139E+03	2.526872E-16	2.265350E-18
6.192953E+03	2.508898E-16	2.251615E-18
6.202768E+03	2.493671E-16	2.240432E-18
6.212582E+03	2.480831E-16	2.231476E-18
6.222397E+03	2.470073E-16	2.224474E-18
6.232211E+03	2.461085E-16	2.219145E-18
6.242026E+03	2.453493E-16	2.215150E-18
6.251840E+03	2.447046E-16	2.212262E-18
6.261655E+03	2.441455E-16	2.210219E-18
6.271469E+03	2.436470E-16	2.208791E-18
6.281284E+03	2.431881E-16	2.207783E-18
6.291098E+03	2.427607E-16	2.207120E-18
6.300913E+03	2.423508E-16	2.206671E-18
6.310727E+03	2.419593E-16	2.206439E-18
6.320542E+03	2.415855E-16	2.206414E-18
6.330356E+03	2.412325E-16	2.206620E-18
6.340171E+03	2.409093E-16	2.207137E-18
6.349985E+03	2.406233E-16	2.208029E-18
6.359800E+03	2.403871E-16	2.209409E-18
6.369614E+03	2.402021E-16	2.211290E-18
6.379429E+03	2.400826E-16	2.213800E-18
6.389243E+03	2.400347E-16	2.216995E-18
6.399058E+03	2.400587E-16	2.220878E-18
6.408872E+03	2.401587E-16	2.225486E-18
6.418687E+03	2.403327E-16	2.230801E-18
6.428501E+03	2.405760E-16	2.236778E-18
6.438316E+03	2.408795E-16	2.243334E-18
6.448130E+03	2.412354E-16	2.250395E-18
6.457945E+03	2.416272E-16	2.257806E-18
6.467759E+03	2.420419E-16	2.265444E-18
6.477574E+03	2.424697E-16	2.273215E-18
6.487388E+03	2.428976E-16	2.280995E-18
6.497203E+03	2.433097E-16	2.288631E-18
6.507017E+03	2.436989E-16	2.296053E-18
6.516832E+03	2.440500E-16	2.303114E-18
6.526646E+03	2.443603E-16	2.309785E-18
6.536461E+03	2.446110E-16	2.315882E-18
6.546275E+03	2.447906E-16	2.321291E-18
6.556090E+03	2.448908E-16	2.325928E-18
6.565904E+03	2.448990E-16	2.329667E-18
6.575719E+03	2.447980E-16	2.332338E-18
6.585533E+03	2.445735E-16	2.333800E-18
6.595348E+03	2.442166E-16	2.333957E-18
6.605162E+03	2.437116E-16	2.332653E-18
6.614977E+03	2.430545E-16	2.329842E-18
6.624791E+03	2.422316E-16	2.325384E-18
6.634606E+03	2.412507E-16	2.319346E-18
6.644420E+03	2.401073E-16	2.311678E-18
6.654235E+03	2.388186E-16	2.302536E-18
6.664049E+03	2.373873E-16	2.291942E-18
6.673864E+03	2.358321E-16	2.280069E-18
6.683678E+03	2.341695E-16	2.267073E-18
6.693493E+03	2.324134E-16	2.253083E-18
6.703307E+03	2.305872E-16	2.238324E-18
6.713122E+03	2.287064E-16	2.222943E-18
6.722937E+03	2.267955E-16	2.207177E-18
6.732751E+03	2.248660E-16	2.191139E-18
6.742566E+03	2.229464E-16	2.175104E-18
6.752380E+03	2.210514E-16	2.159219E-18
6.762195E+03	2.191988E-16	2.143660E-18
6.772009E+03	2.174008E-16	2.128547E-18
6.781824E+03	2.156792E-16	2.114097E-18
6.791638E+03	2.140316E-16	2.100291E-18
6.801453E+03	2.124775E-16	2.087322E-18
6.811267E+03	2.110138E-16	2.075166E-18
6.821082E+03	2.096433E-16	2.063852E-18
6.830896E+03	2.083706E-16	2.053431E-18
6.840711E+03	2.071912E-16	2.043861E-18
6.850525E+03	2.061025E-16	2.035121E-18
6.860340E+03	2.051002E-16	2.027172E-18
6.870154E+03	2.041791E-16	2.019967E-18
6.879969E+03	2.033326E-16	2.013442E-18
6.889783E+03	2.025494E-16	2.007489E-18
6.899598E+03	2.018299E-16	2.002114E-18
6.909412E+03	2.011549E-16	1.997131E-18
6.919227E+03	2.005294E-16	1.992590E-18
6.929041E+03	1.999345E-16	1.988306E-18
6.938856E+03	1.993727E-16	1.984305E-18
6.948670E+03	1.988352E-16	1.980503E-18
6.958485E+03	1.983174E-16	1.976854E-18
6.968299E+03	1.978192E-16	1.973360E-18
6.978114E+03	1.973294E-16	1.969910E-18
6.987928E+03	1.968489E-16	1.966515E-18
6.997743E+03	1.963710E-16	1.963109E-18
7.007557E+03	1.958965E-16	1.959703E-18
7.017372E+03	1.954222E-16	1.956264E-18
7.027186E+03	1.949392E-16	1.952707E-18
7.037001E+03	1.944461E-16	1.949016E-18
7.046815E+03	1.939279E-16	1.945046E-18
7.056630E+03	1.933834E-16	1.940782E-18
7.066444E+03	1.927986E-16	1.936087E-18
7.076259E+03	1.921599E-16	1.930824E-18
7.086073E+03	1.914614E-16	1.924936E-18
7.095888E+03	1.906945E-16	1.918336E-18
7.105702E+03	1.898479E-16	1.910911E-18
7.115517E+03	1.889151E-16	1.902595E-18
7.125331E+03	1.878910E-16	1.893340E-18
7.135146E+03	1.867728E-16	1.883115E-18
7.144960E+03	1.855587E-16	1.871904E-18
7.154775E+03	1.842417E-16	1.859635E-18
7.164589E+03	1.828329E-16	1.846422E-18
7.174404E+03	1.813362E-16	1.832303E-18
7.184218E+03	1.797583E-16	1.817348E-18
7.194033E+03	1.781151E-16	1.801717E-18
7.203847E+03	1.764130E-16	1.785476E-18
7.213662E+03	1.746668E-16	1.768775E-18
7.223476E+03	1.728914E-16	1.751767E-18
7.233291E+03	1.710978E-16	1.734564E-18
7.243105E+03	1.693031E-16	1.717341E-18
7.252920E+03	1.675104E-16	1.700131E-18
7.262734E+03	1.657395E-16	1.683135E-18
7.272549E+03	1.639952E-16	1.666407E-18
7.282363E+03	1.622930E-16	1.650103E-18
7.292178E+03	1.606417E-16	1.634317E-18
7.301992E+03	1.590532E-16	1.619171E-18
7.311807E+03	1.575430E-16	1.604825E-18
7.321621E+03	1.561207E-16	1.591382E-18
7.331436E+03	1.548087E-16	1.579070E-18
7.341250E+03	1.536111E-16	1.567937E-18
7.351065E+03	1.525436E-16	1.558146E-18
7.360879E+03	1.516092E-16	1.549732E-18
7.370694E+03	1.508215E-16	1.542838E-18
7.380508E+03	1.501760E-16	1.537423E-18
7.390323E+03	1.496685E-16	1.533448E-18
7.400137E+03	1.492945E-16	1.530872E-18
7.409952E+03	1.490429E-16	1.529587E-18
7.419766E+03	1.489060E-16	1.529517E-18
7.429581E+03	1.488586E-16	1.530405E-18
7.439395E+03	1.488817E-16	1.532057E-18
7.449210E+03	1.489526E-16	1.534240E-18
7.459024E+03	1.490381E-16	1.536612E-18
7.468839E+03	1.491065E-16	1.538845E-18
7.478653E+03	1.491184E-16	1.540530E-18
7.488468E+03	1.490477E-16	1.541394E-18
7.498282E+03	1.488630E-16	1.541109E-18
7.508097E+03	1.485586E-16	1.539611E-18
7.517911E+03	1.481291E-16	1.536837E-18
7.527726E+03	1.475904E-16	1.532948E-18
7.537540E+03	1.469502E-16	1.528018E-18
7.547355E+03	1.462312E-16	1.522279E-18
7.557169E+03	1.454452E-16	1.515849E-18
7.566984E+03	1.446074E-16	1.508884E-18
7.576799E+03	1.437320E-16	1.501527E-18
7.586613E+03	1.428325E-16	1.493918E-18
7.596428E+03	1.419212E-16	1.486184E-18
7.606242E+03	1.410060E-16	1.478404E-18
7.616057E+03	1.401025E-16	1.470741E-18
