#wls	flux	fluxerr
1.570321E+03	4.109784E-19	1.349813E-20
1.609579E+03	4.079959E-19	1.334556E-20
1.648837E+03	4.059779E-19	1.322403E-20
1.688095E+03	4.050947E-19	1.313868E-20
1.727353E+03	4.053203E-19	1.308818E-20
1.766611E+03	4.067065E-19	1.307372E-20
1.805869E+03	4.093313E-19	1.309726E-20
1.845127E+03	4.132042E-19	1.315851E-20
1.884385E+03	4.183746E-19	1.325842E-20
1.923643E+03	4.249013E-19	1.339820E-20
1.962901E+03	4.328070E-19	1.357784E-20
2.002159E+03	4.422672E-19	1.380207E-20
2.041417E+03	4.534201E-19	1.407432E-20
2.080675E+03	4.665853E-19	1.440349E-20
2.119933E+03	4.822972E-19	1.480484E-20
2.159191E+03	5.010766E-19	1.529278E-20
2.198449E+03	5.232497E-19	1.587540E-20
2.237707E+03	5.491694E-19	1.656131E-20
2.276965E+03	5.790219E-19	1.735378E-20
2.316223E+03	6.132862E-19	1.826461E-20
2.355481E+03	6.526662E-19	1.931181E-20
2.394739E+03	6.981164E-19	2.052011E-20
2.433997E+03	7.509036E-19	2.192254E-20
2.473255E+03	8.124817E-19	2.355641E-20
2.512513E+03	8.848017E-19	2.547204E-20
2.551772E+03	9.701046E-19	2.772626E-20
2.591030E+03	1.071232E-18	3.039089E-20
2.630288E+03	1.191679E-18	3.355351E-20
2.669546E+03	1.335917E-18	3.732573E-20
2.708804E+03	1.509557E-18	4.184653E-20
2.748062E+03	1.719752E-18	4.729202E-20
2.787320E+03	1.975857E-18	5.389152E-20
2.826578E+03	2.289989E-18	6.194011E-20
2.865836E+03	2.678232E-18	7.182766E-20
2.905094E+03	3.161998E-18	8.407014E-20
2.944352E+03	3.770000E-18	9.935512E-20
2.954166E+03	3.945657E-18	1.037528E-19
2.963981E+03	4.132159E-18	1.084139E-19
2.973795E+03	4.330269E-18	1.133565E-19
2.983610E+03	4.540908E-18	1.186024E-19
2.993424E+03	4.764876E-18	1.241702E-19
3.003239E+03	5.003129E-18	1.300823E-19
3.013053E+03	5.256922E-18	1.363688E-19
3.022868E+03	5.527166E-18	1.430503E-19
3.032682E+03	5.815332E-18	1.501618E-19
3.042497E+03	6.122577E-18	1.577299E-19
3.052311E+03	6.450414E-18	1.657899E-19
3.062126E+03	6.800651E-18	1.743845E-19
3.071940E+03	7.174713E-18	1.835459E-19
3.081755E+03	7.574543E-18	1.933194E-19
3.091569E+03	8.002108E-18	2.037503E-19
3.101384E+03	8.459700E-18	2.148919E-19
3.111198E+03	8.949479E-18	2.267932E-19
3.121013E+03	9.474101E-18	2.395155E-19
3.130827E+03	1.003630E-17	2.531215E-19
3.140642E+03	1.063882E-17	2.676732E-19
3.150456E+03	1.128503E-17	2.832475E-19
3.160271E+03	1.197857E-17	2.999280E-19
3.170085E+03	1.272277E-17	3.177887E-19
3.179900E+03	1.352208E-17	3.369314E-19
3.189714E+03	1.438039E-17	3.574428E-19
3.199529E+03	1.530315E-17	3.794468E-19
3.209343E+03	1.629470E-17	4.030390E-19
3.219158E+03	1.736077E-17	4.283482E-19
3.228972E+03	1.850755E-17	4.555129E-19
3.238787E+03	1.974114E-17	4.846681E-19
3.248601E+03	2.106871E-17	5.159736E-19
3.258416E+03	2.249700E-17	5.495763E-19
3.268230E+03	2.403421E-17	5.856579E-19
3.278045E+03	2.568882E-17	6.244042E-19
3.287859E+03	2.746988E-17	6.660132E-19
3.297674E+03	2.938707E-17	7.106958E-19
3.307488E+03	3.145025E-17	7.586650E-19
3.317303E+03	3.367031E-17	8.101559E-19
3.327117E+03	3.605877E-17	8.654162E-19
3.336932E+03	3.862781E-17	9.247064E-19
3.346746E+03	4.138961E-17	9.882850E-19
3.356561E+03	4.435744E-17	1.056432E-18
3.366376E+03	4.754503E-17	1.129437E-18
3.376190E+03	5.096587E-17	1.207579E-18
3.386005E+03	5.463425E-17	1.291153E-18
3.395819E+03	5.856441E-17	1.380451E-18
3.405634E+03	6.276897E-17	1.475720E-18
3.415448E+03	6.726195E-17	1.577241E-18
3.425263E+03	7.205501E-17	1.685234E-18
3.435077E+03	7.715869E-17	1.799891E-18
3.444892E+03	8.258259E-17	1.921379E-18
3.454706E+03	8.833273E-17	2.049781E-18
3.464521E+03	9.441489E-17	2.185173E-18
3.474335E+03	1.008317E-16	2.327556E-18
3.484150E+03	1.075834E-16	2.476875E-18
3.493964E+03	1.146679E-16	2.633025E-18
3.503779E+03	1.220804E-16	2.795835E-18
3.513593E+03	1.298123E-16	2.965055E-18
3.523408E+03	1.378554E-16	3.140439E-18
3.533222E+03	1.461959E-16	3.321625E-18
3.543037E+03	1.548213E-16	3.508274E-18
3.552851E+03	1.637119E-16	3.699895E-18
3.562666E+03	1.728529E-16	3.896108E-18
3.572480E+03	1.822190E-16	4.096307E-18
3.582295E+03	1.917907E-16	4.300016E-18
3.592109E+03	2.015438E-16	4.506660E-18
3.601924E+03	2.114568E-16	4.715736E-18
3.611738E+03	2.215018E-16	4.926598E-18
3.621553E+03	2.316568E-16	5.138737E-18
3.631367E+03	2.418947E-16	5.351541E-18
3.641182E+03	2.521936E-16	5.564512E-18
3.650996E+03	2.625268E-16	5.777057E-18
3.660811E+03	2.728755E-16	5.988764E-18
3.670625E+03	2.832117E-16	6.199012E-18
3.680440E+03	2.935176E-16	6.407424E-18
3.690254E+03	3.037709E-16	6.613521E-18
3.700069E+03	3.139525E-16	6.816900E-18
3.709883E+03	3.240407E-16	7.017104E-18
3.719698E+03	3.340196E-16	7.213810E-18
3.729512E+03	3.438643E-16	7.406500E-18
3.739327E+03	3.535584E-16	7.594850E-18
3.749141E+03	3.630821E-16	7.778465E-18
3.758956E+03	3.724150E-16	7.956934E-18
3.768770E+03	3.815355E-16	8.129838E-18
3.778585E+03	3.904177E-16	8.296659E-18
3.788399E+03	3.990446E-16	8.457084E-18
3.798214E+03	4.073915E-16	8.610631E-18
3.808028E+03	4.154288E-16	8.756727E-18
3.817843E+03	4.231328E-16	8.894930E-18
3.827657E+03	4.304757E-16	9.024710E-18
3.837472E+03	4.374323E-16	9.145607E-18
3.847286E+03	4.439700E-16	9.257005E-18
3.857101E+03	4.500674E-16	9.358529E-18
3.866915E+03	4.556918E-16	9.449581E-18
3.876730E+03	4.608235E-16	9.529831E-18
3.886544E+03	4.654326E-16	9.598746E-18
3.896359E+03	4.694949E-16	9.655918E-18
3.906173E+03	4.729970E-16	9.701164E-18
3.915988E+03	4.759174E-16	9.734140E-18
3.925802E+03	4.782471E-16	9.754759E-18
3.935617E+03	4.799784E-16	9.762965E-18
3.945431E+03	4.811145E-16	9.758923E-18
3.955246E+03	4.816619E-16	9.742866E-18
3.965060E+03	4.816351E-16	9.715183E-18
3.974875E+03	4.810598E-16	9.676490E-18
3.984689E+03	4.799688E-16	9.627535E-18
3.994504E+03	4.783884E-16	9.568929E-18
4.004318E+03	4.763688E-16	9.501760E-18
4.014133E+03	4.739440E-16	9.426773E-18
4.023947E+03	4.711654E-16	9.345055E-18
4.033762E+03	4.680737E-16	9.257472E-18
4.043576E+03	4.647178E-16	9.165041E-18
4.053391E+03	4.611424E-16	9.068683E-18
4.063205E+03	4.573915E-16	8.969299E-18
4.073020E+03	4.535080E-16	8.867753E-18
4.082834E+03	4.495336E-16	8.764884E-18
4.092649E+03	4.455122E-16	8.661557E-18
4.102463E+03	4.414823E-16	8.558530E-18
4.112278E+03	4.374779E-16	8.456457E-18
4.122092E+03	4.335346E-16	8.356023E-18
4.131907E+03	4.296875E-16	8.257890E-18
4.141721E+03	4.259736E-16	8.162749E-18
4.151536E+03	4.224219E-16	8.071136E-18
4.161350E+03	4.190646E-16	7.983635E-18
4.171165E+03	4.159296E-16	7.900745E-18
4.180979E+03	4.130519E-16	7.823088E-18
4.190794E+03	4.104590E-16	7.751143E-18
4.200608E+03	4.081818E-16	7.685447E-18
4.210423E+03	4.062513E-16	7.626525E-18
4.220238E+03	4.046911E-16	7.574765E-18
4.230052E+03	4.035384E-16	7.530798E-18
4.239867E+03	4.028162E-16	7.494984E-18
4.249681E+03	4.025539E-16	7.467801E-18
4.259496E+03	4.027772E-16	7.449645E-18
4.269310E+03	4.035212E-16	7.441084E-18
4.279125E+03	4.048032E-16	7.442352E-18
4.288939E+03	4.066568E-16	7.453977E-18
4.298754E+03	4.091074E-16	7.476328E-18
4.308568E+03	4.121820E-16	7.509802E-18
4.318383E+03	4.159089E-16	7.554808E-18
4.328197E+03	4.203101E-16	7.611644E-18
4.338012E+03	4.254113E-16	7.680660E-18
4.347826E+03	4.312188E-16	7.761860E-18
4.357641E+03	4.377478E-16	7.855400E-18
4.367455E+03	4.449943E-16	7.961096E-18
4.377270E+03	4.529486E-16	8.078659E-18
4.387084E+03	4.615974E-16	8.207739E-18
4.396899E+03	4.708944E-16	8.347409E-18
4.406713E+03	4.808026E-16	8.496911E-18
4.416528E+03	4.912438E-16	8.654774E-18
4.426342E+03	5.021430E-16	8.819597E-18
4.436157E+03	5.133945E-16	8.989463E-18
4.445971E+03	5.248788E-16	9.162235E-18
4.455786E+03	5.364602E-16	9.335518E-18
4.465600E+03	5.479784E-16	9.506524E-18
4.475415E+03	5.592811E-16	9.672636E-18
4.485229E+03	5.701887E-16	9.830798E-18
4.495044E+03	5.805285E-16	9.978115E-18
4.504858E+03	5.901306E-16	1.011177E-17
4.514673E+03	5.988341E-16	1.022915E-17
4.524487E+03	6.064885E-16	1.032783E-17
4.534302E+03	6.129640E-16	1.040579E-17
4.544116E+03	6.181626E-16	1.046155E-17
4.553931E+03	6.220164E-16	1.049419E-17
4.563745E+03	6.244891E-16	1.050331E-17
4.573560E+03	6.255640E-16	1.048886E-17
4.583374E+03	6.252712E-16	1.045154E-17
4.593189E+03	6.236560E-16	1.039235E-17
4.603003E+03	6.207868E-16	1.031263E-17
4.612818E+03	6.167565E-16	1.021410E-17
4.622632E+03	6.116673E-16	1.009864E-17
4.632447E+03	6.056312E-16	9.968246E-18
4.642261E+03	5.987666E-16	9.825017E-18
4.652076E+03	5.911944E-16	9.671049E-18
4.661890E+03	5.830338E-16	9.508395E-18
4.671705E+03	5.743998E-16	9.339010E-18
4.681519E+03	5.654005E-16	9.164714E-18
4.691334E+03	5.561299E-16	8.987078E-18
4.701148E+03	5.466824E-16	8.807660E-18
4.710963E+03	5.371247E-16	8.627554E-18
4.720777E+03	5.275323E-16	8.447981E-18
4.730592E+03	5.179474E-16	8.269613E-18
4.740406E+03	5.084162E-16	8.093185E-18
4.750221E+03	4.989726E-16	7.919218E-18
4.760035E+03	4.896376E-16	7.748029E-18
4.769850E+03	4.804583E-16	7.580338E-18
4.779664E+03	4.715138E-16	7.417366E-18
4.789479E+03	4.629200E-16	7.260888E-18
4.799293E+03	4.547624E-16	7.112183E-18
4.809108E+03	4.471351E-16	6.972643E-18
4.818922E+03	4.400878E-16	6.842959E-18
4.828737E+03	4.336622E-16	6.723689E-18
4.838551E+03	4.278739E-16	6.614977E-18
4.848366E+03	4.227319E-16	6.516870E-18
4.858180E+03	4.182216E-16	6.429050E-18
4.867995E+03	4.143332E-16	6.351275E-18
4.877809E+03	4.110518E-16	6.283230E-18
4.887624E+03	4.083478E-16	6.224378E-18
4.897438E+03	4.061999E-16	6.174316E-18
4.907253E+03	4.045932E-16	6.132741E-18
4.917067E+03	4.035134E-16	6.099365E-18
4.926882E+03	4.029444E-16	6.073871E-18
4.936696E+03	4.028889E-16	6.056236E-18
4.946511E+03	4.033530E-16	6.046481E-18
4.956325E+03	4.043490E-16	6.044723E-18
4.966140E+03	4.058895E-16	6.051083E-18
4.975954E+03	4.079939E-16	6.065777E-18
4.985769E+03	4.106857E-16	6.089085E-18
4.995583E+03	4.139737E-16	6.121064E-18
5.005398E+03	4.178738E-16	6.161872E-18
5.015212E+03	4.223865E-16	6.211444E-18
5.025027E+03	4.275069E-16	6.269632E-18
5.034841E+03	4.332200E-16	6.336145E-18
5.044656E+03	4.394997E-16	6.410531E-18
5.054471E+03	4.463049E-16	6.492123E-18
5.064285E+03	4.535918E-16	6.580226E-18
5.074100E+03	4.612934E-16	6.673811E-18
5.083914E+03	4.693455E-16	6.771906E-18
5.093729E+03	4.776665E-16	6.873294E-18
5.103543E+03	4.861713E-16	6.976723E-18
5.113358E+03	4.947687E-16	7.080869E-18
5.123172E+03	5.033632E-16	7.184357E-18
5.132987E+03	5.118468E-16	7.285650E-18
5.142801E+03	5.201317E-16	7.383517E-18
5.152616E+03	5.281065E-16	7.476403E-18
5.162430E+03	5.356907E-16	7.563209E-18
5.172245E+03	5.427905E-16	7.642659E-18
5.182059E+03	5.493375E-16	7.713847E-18
5.191874E+03	5.552642E-16	7.775894E-18
5.201688E+03	5.605163E-16	7.828112E-18
5.211503E+03	5.650651E-16	7.870178E-18
5.221317E+03	5.688803E-16	7.901751E-18
5.231132E+03	5.719632E-16	7.922933E-18
5.240946E+03	5.743190E-16	7.933878E-18
5.250761E+03	5.759672E-16	7.934933E-18
5.260575E+03	5.769452E-16	7.926693E-18
5.270390E+03	5.773019E-16	7.909902E-18
5.280204E+03	5.770948E-16	7.885412E-18
5.290019E+03	5.763737E-16	7.853968E-18
5.299833E+03	5.752041E-16	7.816514E-18
5.309648E+03	5.736298E-16	7.773694E-18
5.319462E+03	5.716734E-16	7.725856E-18
5.329277E+03	5.692829E-16	7.672343E-18
5.339091E+03	5.664146E-16	7.612617E-18
5.348906E+03	5.630102E-16	7.545947E-18
5.358720E+03	5.590441E-16	7.472050E-18
5.368535E+03	5.544562E-16	7.390190E-18
5.378349E+03	5.491736E-16	7.299466E-18
5.388164E+03	5.431508E-16	7.199352E-18
5.397978E+03	5.363765E-16	7.089778E-18
5.407793E+03	5.288763E-16	6.971169E-18
5.417607E+03	5.206647E-16	6.843795E-18
5.427422E+03	5.118026E-16	6.708530E-18
5.437236E+03	5.023375E-16	6.566069E-18
5.447051E+03	4.923447E-16	6.417458E-18
5.456865E+03	4.819102E-16	6.263875E-18
5.466680E+03	4.711297E-16	6.106607E-18
5.476494E+03	4.600980E-16	5.946916E-18
5.486309E+03	4.489270E-16	5.786273E-18
5.496123E+03	4.377351E-16	5.626214E-18
5.505938E+03	4.266403E-16	5.468253E-18
5.515752E+03	4.157638E-16	5.313928E-18
5.525567E+03	4.052352E-16	5.164866E-18
5.535381E+03	3.951692E-16	5.022487E-18
5.545196E+03	3.856830E-16	4.888227E-18
5.555010E+03	3.768818E-16	4.763352E-18
5.564825E+03	3.688635E-16	4.649024E-18
5.574639E+03	3.617098E-16	4.546187E-18
5.584454E+03	3.554883E-16	4.455596E-18
5.594268E+03	3.502552E-16	4.377858E-18
5.604083E+03	3.460514E-16	4.313379E-18
5.613897E+03	3.428951E-16	4.262282E-18
5.623712E+03	3.407971E-16	4.224593E-18
5.633526E+03	3.397505E-16	4.200124E-18
5.643341E+03	3.397357E-16	4.188528E-18
5.653155E+03	3.407281E-16	4.189403E-18
5.662970E+03	3.426779E-16	4.202044E-18
5.672784E+03	3.455396E-16	4.225807E-18
5.682599E+03	3.492472E-16	4.259802E-18
5.692413E+03	3.537317E-16	4.303117E-18
5.702228E+03	3.589106E-16	4.354685E-18
5.712042E+03	3.646913E-16	4.413330E-18
5.721857E+03	3.709754E-16	4.477820E-18
5.731671E+03	3.776479E-16	4.546735E-18
5.741486E+03	3.845944E-16	4.618680E-18
5.751300E+03	3.916913E-16	4.692163E-18
5.761115E+03	3.988077E-16	4.765623E-18
5.770929E+03	4.058251E-16	4.837660E-18
5.780744E+03	4.126101E-16	4.906715E-18
5.790558E+03	4.190516E-16	4.971507E-18
5.800373E+03	4.250326E-16	5.030695E-18
5.810187E+03	4.304495E-16	5.083112E-18
5.820002E+03	4.352149E-16	5.127791E-18
5.829816E+03	4.392395E-16	5.163750E-18
5.839631E+03	4.424626E-16	5.190350E-18
5.849445E+03	4.448386E-16	5.207133E-18
5.859260E+03	4.463226E-16	5.213651E-18
5.869074E+03	4.469007E-16	5.209819E-18
5.878889E+03	4.465701E-16	5.195677E-18
5.888704E+03	4.453386E-16	5.171389E-18
5.898518E+03	4.432345E-16	5.137347E-18
5.908333E+03	4.403003E-16	5.094107E-18
5.918147E+03	4.365863E-16	5.042303E-18
5.927962E+03	4.321588E-16	4.982748E-18
5.937776E+03	4.270987E-16	4.916412E-18
5.947591E+03	4.214737E-16	4.844107E-18
5.957405E+03	4.153820E-16	4.766986E-18
5.967220E+03	4.089005E-16	4.685946E-18
5.977034E+03	4.021303E-16	4.602154E-18
5.986849E+03	3.951470E-16	4.516479E-18
5.996663E+03	3.880403E-16	4.429945E-18
6.006478E+03	3.808787E-16	4.343324E-18
6.016292E+03	3.737357E-16	4.257442E-18
6.026107E+03	3.666593E-16	4.172831E-18
6.035921E+03	3.596911E-16	4.089934E-18
6.045736E+03	3.528688E-16	4.009148E-18
6.055550E+03	3.462056E-16	3.930589E-18
6.065365E+03	3.397173E-16	3.854409E-18
6.075179E+03	3.334092E-16	3.780639E-18
6.084994E+03	3.272840E-16	3.709279E-18
6.094808E+03	3.213614E-16	3.640529E-18
6.104623E+03	3.156974E-16	3.574998E-18
6.114437E+03	3.103386E-16	3.513186E-18
6.124252E+03	3.053273E-16	3.455553E-18
6.134066E+03	3.006956E-16	3.402438E-18
6.143881E+03	2.964731E-16	3.354158E-18
6.153695E+03	2.926639E-16	3.310739E-18
6.163510E+03	2.892707E-16	3.272198E-18
6.173324E+03	2.862924E-16	3.238507E-18
6.183139E+03	2.837158E-16	3.209505E-18
6.192953E+03	2.815173E-16	3.184914E-18
6.202768E+03	2.796672E-16	3.164387E-18
6.212582E+03	2.781378E-16	3.147604E-18
6.222397E+03	2.768863E-16	3.134072E-18
6.232211E+03	2.758749E-16	3.123356E-18
6.242026E+03	2.750606E-16	3.114965E-18
6.251840E+03	2.744016E-16	3.108417E-18
6.261655E+03	2.738580E-16	3.103255E-18
6.271469E+03	2.733932E-16	3.099057E-18
6.281284E+03	2.729752E-16	3.095456E-18
6.291098E+03	2.725736E-16	3.092099E-18
6.300913E+03	2.721718E-16	3.088793E-18
6.310727E+03	2.717558E-16	3.085370E-18
6.320542E+03	2.713218E-16	3.081781E-18
6.330356E+03	2.708721E-16	3.078048E-18
6.340171E+03	2.704068E-16	3.074164E-18
6.349985E+03	2.699428E-16	3.070314E-18
6.359800E+03	2.694922E-16	3.066631E-18
6.369614E+03	2.690738E-16	3.063324E-18
6.379429E+03	2.686998E-16	3.060526E-18
6.389243E+03	2.683943E-16	3.058508E-18
6.399058E+03	2.681691E-16	3.057401E-18
6.408872E+03	2.680427E-16	3.057410E-18
6.418687E+03	2.680230E-16	3.058624E-18
6.428501E+03	2.681240E-16	3.061200E-18
6.438316E+03	2.683563E-16	3.065255E-18
6.448130E+03	2.687147E-16	3.070728E-18
6.457945E+03	2.692027E-16	3.077657E-18
6.467759E+03	2.698199E-16	3.086034E-18
6.477574E+03	2.705490E-16	3.095661E-18
6.487388E+03	2.713864E-16	3.106491E-18
6.497203E+03	2.723072E-16	3.118237E-18
6.507017E+03	2.733009E-16	3.130776E-18
6.516832E+03	2.743356E-16	3.143741E-18
6.526646E+03	2.753908E-16	3.156892E-18
6.536461E+03	2.764392E-16	3.169913E-18
6.546275E+03	2.774472E-16	3.182414E-18
6.556090E+03	2.783896E-16	3.194103E-18
6.565904E+03	2.792322E-16	3.204581E-18
6.575719E+03	2.799460E-16	3.213513E-18
6.585533E+03	2.805086E-16	3.220638E-18
6.595348E+03	2.808908E-16	3.225616E-18
6.605162E+03	2.810666E-16	3.228145E-18
6.614977E+03	2.810285E-16	3.228134E-18
6.624791E+03	2.807539E-16	3.225324E-18
6.634606E+03	2.802397E-16	3.219674E-18
6.644420E+03	2.794828E-16	3.211147E-18
6.654235E+03	2.784800E-16	3.199707E-18
6.664049E+03	2.772378E-16	3.185427E-18
6.673864E+03	2.757673E-16	3.168434E-18
6.683678E+03	2.740883E-16	3.148957E-18
6.693493E+03	2.722136E-16	3.127144E-18
6.703307E+03	2.701587E-16	3.103176E-18
6.713122E+03	2.679509E-16	3.077367E-18
6.722937E+03	2.656140E-16	3.049995E-18
6.732751E+03	2.631739E-16	3.021358E-18
6.742566E+03	2.606549E-16	2.991740E-18
6.752380E+03	2.580896E-16	2.961517E-18
6.762195E+03	2.555188E-16	2.931161E-18
6.772009E+03	2.529739E-16	2.901036E-18
6.781824E+03	2.504893E-16	2.871537E-18
6.791638E+03	2.480949E-16	2.843011E-18
6.801453E+03	2.458155E-16	2.815743E-18
6.811267E+03	2.436705E-16	2.789956E-18
6.821082E+03	2.416738E-16	2.765813E-18
6.830896E+03	2.398295E-16	2.743358E-18
6.840711E+03	2.381411E-16	2.722634E-18
6.850525E+03	2.366125E-16	2.703684E-18
6.860340E+03	2.352386E-16	2.686451E-18
6.870154E+03	2.340018E-16	2.670733E-18
6.879969E+03	2.328995E-16	2.656501E-18
6.889783E+03	2.319139E-16	2.643552E-18
6.899598E+03	2.310298E-16	2.631712E-18
6.909412E+03	2.302268E-16	2.620751E-18
6.919227E+03	2.294940E-16	2.610544E-18
6.929041E+03	2.288160E-16	2.600919E-18
6.938856E+03	2.281788E-16	2.591718E-18
6.948670E+03	2.275655E-16	2.582750E-18
6.958485E+03	2.269651E-16	2.573893E-18
6.968299E+03	2.263730E-16	2.565099E-18
6.978114E+03	2.257774E-16	2.556236E-18
6.987928E+03	2.251676E-16	2.547187E-18
6.997743E+03	2.245479E-16	2.538003E-18
7.007557E+03	2.239089E-16	2.528584E-18
7.017372E+03	2.232464E-16	2.518886E-18
7.027186E+03	2.225512E-16	2.508809E-18
7.037001E+03	2.218227E-16	2.498351E-18
7.046815E+03	2.210554E-16	2.487455E-18
7.056630E+03	2.202385E-16	2.476005E-18
7.066444E+03	2.193660E-16	2.463938E-18
7.076259E+03	2.184365E-16	2.451245E-18
7.086073E+03	2.174401E-16	2.437820E-18
7.095888E+03	2.163723E-16	2.423620E-18
7.105702E+03	2.152292E-16	2.408607E-18
7.115517E+03	2.140078E-16	2.392753E-18
7.125331E+03	2.127020E-16	2.375997E-18
7.135146E+03	2.113199E-16	2.358436E-18
7.144960E+03	2.098578E-16	2.340035E-18
7.154775E+03	2.083092E-16	2.320729E-18
7.164589E+03	2.066917E-16	2.300718E-18
7.174404E+03	2.049979E-16	2.279926E-18
7.184218E+03	2.032437E-16	2.258537E-18
7.194033E+03	2.014336E-16	2.236604E-18
7.203847E+03	1.995774E-16	2.214243E-18
7.213662E+03	1.976817E-16	2.191529E-18
7.223476E+03	1.957578E-16	2.168592E-18
7.233291E+03	1.938175E-16	2.145568E-18
7.243105E+03	1.918729E-16	2.122593E-18
7.252920E+03	1.899282E-16	2.099714E-18
7.262734E+03	1.880000E-16	2.077121E-18
7.272549E+03	1.860937E-16	2.054872E-18
7.282363E+03	1.842194E-16	2.033081E-18
7.292178E+03	1.823878E-16	2.011869E-18
7.301992E+03	1.806186E-16	1.991452E-18
7.311807E+03	1.789272E-16	1.972003E-18
7.321621E+03	1.773367E-16	1.953777E-18
7.331436E+03	1.758689E-16	1.937014E-18
7.341250E+03	1.745321E-16	1.921805E-18
7.351065E+03	1.733396E-16	1.908299E-18
7.360879E+03	1.723053E-16	1.896650E-18
7.370694E+03	1.714233E-16	1.886793E-18
7.380508E+03	1.706985E-16	1.878786E-18
7.390323E+03	1.701233E-16	1.872546E-18
7.400137E+03	1.696851E-16	1.867939E-18
7.409952E+03	1.693665E-16	1.864773E-18
7.419766E+03	1.691454E-16	1.862802E-18
7.429581E+03	1.689989E-16	1.861772E-18
7.439395E+03	1.688922E-16	1.861295E-18
7.449210E+03	1.687943E-16	1.861027E-18
7.459024E+03	1.686641E-16	1.860510E-18
7.468839E+03	1.684663E-16	1.859351E-18
7.478653E+03	1.681626E-16	1.857123E-18
7.488468E+03	1.677143E-16	1.853389E-18
7.498282E+03	1.670970E-16	1.847875E-18
7.508097E+03	1.663004E-16	1.840457E-18
7.517911E+03	1.653335E-16	1.831226E-18
7.527726E+03	1.642211E-16	1.820447E-18
7.537540E+03	1.629839E-16	1.808342E-18
7.547355E+03	1.616553E-16	1.795271E-18
7.557169E+03	1.602517E-16	1.781410E-18
7.566984E+03	1.587997E-16	1.767047E-18
7.576799E+03	1.573154E-16	1.752355E-18
7.586613E+03	1.558207E-16	1.737571E-18
7.596428E+03	1.543309E-16	1.722862E-18
7.606242E+03	1.528592E-16	1.708372E-18
7.616057E+03	1.514128E-16	1.694176E-18
