#wls	flux	fluxerr
1.570321E+03	7.179694E-19	1.123500E-19
1.609579E+03	7.004723E-19	1.092615E-19
1.648837E+03	6.840529E-19	1.063480E-19
1.688095E+03	6.688224E-19	1.036258E-19
1.727353E+03	6.549891E-19	1.011254E-19
1.766611E+03	6.422972E-19	9.880562E-20
1.805869E+03	6.309214E-19	9.669175E-20
1.845127E+03	6.209099E-19	9.478917E-20
1.884385E+03	6.120977E-19	9.307061E-20
1.923643E+03	6.047358E-19	9.157212E-20
1.962901E+03	5.986848E-19	9.027008E-20
2.002159E+03	5.941676E-19	8.919555E-20
2.041417E+03	5.915204E-19	8.839571E-20
2.080675E+03	5.909686E-19	8.790020E-20
2.119933E+03	5.932768E-19	8.781760E-20
2.159191E+03	5.991103E-19	8.823937E-20
2.198449E+03	6.086451E-19	8.918294E-20
2.237707E+03	6.217765E-19	9.062380E-20
2.276965E+03	6.385287E-19	9.255606E-20
2.316223E+03	6.585040E-19	9.491243E-20
2.355481E+03	6.819200E-19	9.771465E-20
2.394739E+03	7.087824E-19	1.009531E-19
2.433997E+03	7.394220E-19	1.046635E-19
2.473255E+03	7.742837E-19	1.088963E-19
2.512513E+03	8.138132E-19	1.136995E-19
2.551772E+03	8.587607E-19	1.191611E-19
2.591030E+03	9.098935E-19	1.253679E-19
2.630288E+03	9.680032E-19	1.324060E-19
2.669546E+03	1.034258E-18	1.404084E-19
2.708804E+03	1.110035E-18	1.495304E-19
2.748062E+03	1.197095E-18	1.599714E-19
2.787320E+03	1.297406E-18	1.719484E-19
2.826578E+03	1.412474E-18	1.856076E-19
2.865836E+03	1.544977E-18	2.012385E-19
2.905094E+03	1.697486E-18	2.191016E-19
2.944352E+03	1.873731E-18	2.395903E-19
2.954166E+03	1.921830E-18	2.451530E-19
2.963981E+03	1.971998E-18	2.509463E-19
2.973795E+03	2.023972E-18	2.569345E-19
2.983610E+03	2.078007E-18	2.631480E-19
2.993424E+03	2.134010E-18	2.695728E-19
3.003239E+03	2.192253E-18	2.762413E-19
3.013053E+03	2.252836E-18	2.831632E-19
3.022868E+03	2.315862E-18	2.903492E-19
3.032682E+03	2.381245E-18	2.977857E-19
3.042497E+03	2.449478E-18	3.055319E-19
3.052311E+03	2.520519E-18	3.135790E-19
3.062126E+03	2.594272E-18	3.219123E-19
3.071940E+03	2.671295E-18	3.305977E-19
3.081755E+03	2.751509E-18	3.396219E-19
3.091569E+03	2.835054E-18	3.489986E-19
3.101384E+03	2.922076E-18	3.587420E-19
3.111198E+03	3.012972E-18	3.688965E-19
3.121013E+03	3.107671E-18	3.794495E-19
3.130827E+03	3.206593E-18	3.904474E-19
3.140642E+03	3.309931E-18	4.019092E-19
3.150456E+03	3.417624E-18	4.138221E-19
3.160271E+03	3.530134E-18	4.262370E-19
3.170085E+03	3.647958E-18	4.392084E-19
3.179900E+03	3.770779E-18	4.526919E-19
3.189714E+03	3.899397E-18	4.667775E-19
3.199529E+03	4.034086E-18	4.814911E-19
3.209343E+03	4.174822E-18	4.968228E-19
3.219158E+03	4.322193E-18	5.128352E-19
3.228972E+03	4.476182E-18	5.295185E-19
3.238787E+03	4.637748E-18	5.469781E-19
3.248601E+03	4.807251E-18	5.652470E-19
3.258416E+03	4.984716E-18	5.843189E-19
3.268230E+03	5.170860E-18	6.042681E-19
3.278045E+03	5.366090E-18	6.251315E-19
3.287859E+03	5.570823E-18	6.469466E-19
3.297674E+03	5.785885E-18	6.697973E-19
3.307488E+03	6.011759E-18	6.937271E-19
3.317303E+03	6.248944E-18	7.187802E-19
3.327117E+03	6.498809E-18	7.450996E-19
3.336932E+03	6.761087E-18	7.726392E-19
3.346746E+03	7.036785E-18	8.014984E-19
3.356561E+03	7.327434E-18	8.318346E-19
3.366376E+03	7.633271E-18	8.636559E-19
3.376190E+03	7.955477E-18	8.970766E-19
3.386005E+03	8.294806E-18	9.321609E-19
3.395819E+03	8.653072E-18	9.690907E-19
3.405634E+03	9.030629E-18	1.007882E-18
3.415448E+03	9.428895E-18	1.048667E-18
3.425263E+03	9.849375E-18	1.091587E-18
3.435077E+03	1.029308E-17	1.136725E-18
3.444892E+03	1.076223E-17	1.184298E-18
3.454706E+03	1.125738E-17	1.234331E-18
3.464521E+03	1.178029E-17	1.286985E-18
3.474335E+03	1.233284E-17	1.342427E-18
3.484150E+03	1.291629E-17	1.400757E-18
3.493964E+03	1.353194E-17	1.462075E-18
3.503779E+03	1.418040E-17	1.526403E-18
3.513593E+03	1.486438E-17	1.593991E-18
3.523408E+03	1.558378E-17	1.664780E-18
3.533222E+03	1.633985E-17	1.738857E-18
3.543037E+03	1.713384E-17	1.816303E-18
3.552851E+03	1.796697E-17	1.897200E-18
3.562666E+03	1.884045E-17	1.981620E-18
3.572480E+03	1.975371E-17	2.069449E-18
3.582295E+03	2.070952E-17	2.160922E-18
3.592109E+03	2.170713E-17	2.255904E-18
3.601924E+03	2.274833E-17	2.354523E-18
3.611738E+03	2.383306E-17	2.456710E-18
3.621553E+03	2.496202E-17	2.562478E-18
3.631367E+03	2.613481E-17	2.671724E-18
3.641182E+03	2.735189E-17	2.784435E-18
3.650996E+03	2.861466E-17	2.900688E-18
3.660811E+03	2.992124E-17	3.020229E-18
3.670625E+03	3.127160E-17	3.142994E-18
3.680440E+03	3.266564E-17	3.268908E-18
3.690254E+03	3.410307E-17	3.397878E-18
3.700069E+03	3.558223E-17	3.529679E-18
3.709883E+03	3.710246E-17	3.664183E-18
3.719698E+03	3.866290E-17	3.801245E-18
3.729512E+03	4.026125E-17	3.940579E-18
3.739327E+03	4.189620E-17	4.082002E-18
3.749141E+03	4.356496E-17	4.225187E-18
3.758956E+03	4.526579E-17	4.369914E-18
3.768770E+03	4.699677E-17	4.515948E-18
3.778585E+03	4.875580E-17	4.663041E-18
3.788399E+03	5.053771E-17	4.810657E-18
3.798214E+03	5.234133E-17	4.958648E-18
3.808028E+03	5.416396E-17	5.106721E-18
3.817843E+03	5.599968E-17	5.254289E-18
3.827657E+03	5.784531E-17	5.401032E-18
3.837472E+03	5.969905E-17	5.546761E-18
3.847286E+03	6.155437E-17	5.690856E-18
3.857101E+03	6.340918E-17	5.833116E-18
3.866915E+03	6.525653E-17	5.972900E-18
3.876730E+03	6.709252E-17	6.109858E-18
3.886544E+03	6.891478E-17	6.243785E-18
3.896359E+03	7.071597E-17	6.374033E-18
3.906173E+03	7.249192E-17	6.500256E-18
3.915988E+03	7.423849E-17	6.622112E-18
3.925802E+03	7.595151E-17	6.739269E-18
3.935617E+03	7.762339E-17	6.851102E-18
3.945431E+03	7.925183E-17	6.957462E-18
3.955246E+03	8.082966E-17	7.057784E-18
3.965060E+03	8.235723E-17	7.152166E-18
3.974875E+03	8.382670E-17	7.240000E-18
3.984689E+03	8.523942E-17	7.321485E-18
3.994504E+03	8.659025E-17	7.396259E-18
4.004318E+03	8.787807E-17	7.464317E-18
4.014133E+03	8.910226E-17	7.525694E-18
4.023947E+03	9.026099E-17	7.580331E-18
4.033762E+03	9.135471E-17	7.628357E-18
4.043576E+03	9.238432E-17	7.669944E-18
4.053391E+03	9.335120E-17	7.705298E-18
4.063205E+03	9.425361E-17	7.734369E-18
4.073020E+03	9.509735E-17	7.757726E-18
4.082834E+03	9.588157E-17	7.775386E-18
4.092649E+03	9.661116E-17	7.787835E-18
4.102463E+03	9.728790E-17	7.795295E-18
4.112278E+03	9.791564E-17	7.798155E-18
4.122092E+03	9.849855E-17	7.796820E-18
4.131907E+03	9.904274E-17	7.791839E-18
4.141721E+03	9.954928E-17	7.783359E-18
4.151536E+03	1.000262E-16	7.772062E-18
4.161350E+03	1.004765E-16	7.758228E-18
4.171165E+03	1.009032E-16	7.742128E-18
4.180979E+03	1.013160E-16	7.724547E-18
4.190794E+03	1.017161E-16	7.705608E-18
4.200608E+03	1.021116E-16	7.685933E-18
4.210423E+03	1.025037E-16	7.665627E-18
4.220238E+03	1.029018E-16	7.645404E-18
4.230052E+03	1.033086E-16	7.625465E-18
4.239867E+03	1.037301E-16	7.606237E-18
4.249681E+03	1.041704E-16	7.588011E-18
4.259496E+03	1.046370E-16	7.571296E-18
4.269310E+03	1.051318E-16	7.556219E-18
4.279125E+03	1.056618E-16	7.543233E-18
4.288939E+03	1.062319E-16	7.532651E-18
4.298754E+03	1.068450E-16	7.524625E-18
4.308568E+03	1.075056E-16	7.519414E-18
4.318383E+03	1.082176E-16	7.517233E-18
4.328197E+03	1.089829E-16	7.518160E-18
4.338012E+03	1.098084E-16	7.522586E-18
4.347826E+03	1.106921E-16	7.530311E-18
4.357641E+03	1.116402E-16	7.541677E-18
4.367455E+03	1.126520E-16	7.556567E-18
4.377270E+03	1.137281E-16	7.574936E-18
4.387084E+03	1.148672E-16	7.596628E-18
4.396899E+03	1.160691E-16	7.621561E-18
4.406713E+03	1.173315E-16	7.649507E-18
4.416528E+03	1.186515E-16	7.680210E-18
4.426342E+03	1.200241E-16	7.713296E-18
4.436157E+03	1.214483E-16	7.748641E-18
4.445971E+03	1.229192E-16	7.785891E-18
4.455786E+03	1.244294E-16	7.824540E-18
4.465600E+03	1.259739E-16	7.864237E-18
4.475415E+03	1.275448E-16	7.904485E-18
4.485229E+03	1.291353E-16	7.944839E-18
4.495044E+03	1.307333E-16	7.984575E-18
4.504858E+03	1.323310E-16	8.023242E-18
4.514673E+03	1.339163E-16	8.060126E-18
4.524487E+03	1.354737E-16	8.094365E-18
4.534302E+03	1.369923E-16	8.125372E-18
4.544116E+03	1.384583E-16	8.152418E-18
4.553931E+03	1.398541E-16	8.174582E-18
4.563745E+03	1.411687E-16	8.191350E-18
4.573560E+03	1.423822E-16	8.201705E-18
4.583374E+03	1.434858E-16	8.205305E-18
4.593189E+03	1.444598E-16	8.201215E-18
4.603003E+03	1.452966E-16	8.189186E-18
4.612818E+03	1.459801E-16	8.168528E-18
4.622632E+03	1.464993E-16	8.138838E-18
4.632447E+03	1.468479E-16	8.100004E-18
4.642261E+03	1.470168E-16	8.051747E-18
4.652076E+03	1.470024E-16	7.994112E-18
4.661890E+03	1.468024E-16	7.927206E-18
4.671705E+03	1.464159E-16	7.851219E-18
4.681519E+03	1.458509E-16	7.766795E-18
4.691334E+03	1.451135E-16	7.674475E-18
4.701148E+03	1.442154E-16	7.575068E-18
4.710963E+03	1.431717E-16	7.469542E-18
4.720777E+03	1.420007E-16	7.359007E-18
4.730592E+03	1.407240E-16	7.244706E-18
4.740406E+03	1.393655E-16	7.127963E-18
4.750221E+03	1.379501E-16	7.010128E-18
4.760035E+03	1.365040E-16	6.892567E-18
4.769850E+03	1.350526E-16	6.776580E-18
4.779664E+03	1.336195E-16	6.663334E-18
4.789479E+03	1.322313E-16	6.554120E-18
4.799293E+03	1.309070E-16	6.449825E-18
4.809108E+03	1.296666E-16	6.351364E-18
4.818922E+03	1.285296E-16	6.259590E-18
4.828737E+03	1.275114E-16	6.175169E-18
4.838551E+03	1.266249E-16	6.098580E-18
4.848366E+03	1.258796E-16	6.030140E-18
4.858180E+03	1.252809E-16	5.969954E-18
4.867995E+03	1.248351E-16	5.918159E-18
4.877809E+03	1.245458E-16	5.874790E-18
4.887624E+03	1.244107E-16	5.839589E-18
4.897438E+03	1.244311E-16	5.812473E-18
4.907253E+03	1.245998E-16	5.792980E-18
4.917067E+03	1.249132E-16	5.780819E-18
4.926882E+03	1.253621E-16	5.775450E-18
4.936696E+03	1.259327E-16	5.776130E-18
4.946511E+03	1.266113E-16	5.782135E-18
4.956325E+03	1.273806E-16	5.792605E-18
4.966140E+03	1.282208E-16	5.806557E-18
4.975954E+03	1.291145E-16	5.823157E-18
4.985769E+03	1.300404E-16	5.841398E-18
4.995583E+03	1.309780E-16	5.860315E-18
5.005398E+03	1.319133E-16	5.879268E-18
5.015212E+03	1.328281E-16	5.897423E-18
5.025027E+03	1.337108E-16	5.914258E-18
5.034841E+03	1.345554E-16	5.929495E-18
5.044656E+03	1.353583E-16	5.942980E-18
5.054471E+03	1.361216E-16	5.954787E-18
5.064285E+03	1.368494E-16	5.965099E-18
5.074100E+03	1.375527E-16	5.974383E-18
5.083914E+03	1.382386E-16	5.982921E-18
5.093729E+03	1.389202E-16	5.991271E-18
5.103543E+03	1.396065E-16	5.999786E-18
5.113358E+03	1.403067E-16	6.008832E-18
5.123172E+03	1.410304E-16	6.018788E-18
5.132987E+03	1.417831E-16	6.029850E-18
5.142801E+03	1.425706E-16	6.042221E-18
5.152616E+03	1.433990E-16	6.056114E-18
5.162430E+03	1.442702E-16	6.071568E-18
5.172245E+03	1.451866E-16	6.088634E-18
5.182059E+03	1.461513E-16	6.107393E-18
5.191874E+03	1.471647E-16	6.127817E-18
5.201688E+03	1.482250E-16	6.149777E-18
5.211503E+03	1.493306E-16	6.173163E-18
5.221317E+03	1.504803E-16	6.197874E-18
5.231132E+03	1.516683E-16	6.223625E-18
5.240946E+03	1.528901E-16	6.250186E-18
5.250761E+03	1.541366E-16	6.277146E-18
5.260575E+03	1.553987E-16	6.304092E-18
5.270390E+03	1.566670E-16	6.330610E-18
5.280204E+03	1.579278E-16	6.356118E-18
5.290019E+03	1.591690E-16	6.380107E-18
5.299833E+03	1.603729E-16	6.401851E-18
5.309648E+03	1.615273E-16	6.420862E-18
5.319462E+03	1.626154E-16	6.436466E-18
5.329277E+03	1.636233E-16	6.448133E-18
5.339091E+03	1.645326E-16	6.455152E-18
5.348906E+03	1.653318E-16	6.457106E-18
5.358720E+03	1.660035E-16	6.453354E-18
5.368535E+03	1.665378E-16	6.443564E-18
5.378349E+03	1.669197E-16	6.427216E-18
5.388164E+03	1.671423E-16	6.404116E-18
5.397978E+03	1.671935E-16	6.373882E-18
5.407793E+03	1.670683E-16	6.336410E-18
5.417607E+03	1.667618E-16	6.291604E-18
5.427422E+03	1.662703E-16	6.239438E-18
5.437236E+03	1.655923E-16	6.179960E-18
5.447051E+03	1.647295E-16	6.113350E-18
5.456865E+03	1.636818E-16	6.039721E-18
5.466680E+03	1.624559E-16	5.959444E-18
5.476494E+03	1.610557E-16	5.872782E-18
5.486309E+03	1.594887E-16	5.780141E-18
5.496123E+03	1.577667E-16	5.682067E-18
5.505938E+03	1.559006E-16	5.579078E-18
5.515752E+03	1.539075E-16	5.471896E-18
5.525567E+03	1.518056E-16	5.361276E-18
5.535381E+03	1.496158E-16	5.248056E-18
5.545196E+03	1.473604E-16	5.133105E-18
5.555010E+03	1.450680E-16	5.017482E-18
5.564825E+03	1.427692E-16	4.902299E-18
5.574639E+03	1.404926E-16	4.788567E-18
5.584454E+03	1.382745E-16	4.677525E-18
5.594268E+03	1.361482E-16	4.570276E-18
5.604083E+03	1.341485E-16	4.467942E-18
5.613897E+03	1.323106E-16	4.371612E-18
5.623712E+03	1.306704E-16	4.282364E-18
5.633526E+03	1.292598E-16	4.201105E-18
5.643341E+03	1.281100E-16	4.128683E-18
5.653155E+03	1.272523E-16	4.065906E-18
5.662970E+03	1.267144E-16	4.013433E-18
5.672784E+03	1.265192E-16	3.971738E-18
5.682599E+03	1.266924E-16	3.941357E-18
5.692413E+03	1.272551E-16	3.922650E-18
5.702228E+03	1.282242E-16	3.915814E-18
5.712042E+03	1.296149E-16	3.920990E-18
5.721857E+03	1.314390E-16	3.938180E-18
5.731671E+03	1.337044E-16	3.967274E-18
5.741486E+03	1.364123E-16	4.007943E-18
5.751300E+03	1.395602E-16	4.059764E-18
5.761115E+03	1.431459E-16	4.122314E-18
5.770929E+03	1.471579E-16	4.194926E-18
5.780744E+03	1.515799E-16	4.276812E-18
5.790558E+03	1.563850E-16	4.366919E-18
5.800373E+03	1.615378E-16	4.463991E-18
5.810187E+03	1.669915E-16	4.566526E-18
5.820002E+03	1.726829E-16	4.672635E-18
5.829816E+03	1.785291E-16	4.779995E-18
5.839631E+03	1.844365E-16	4.886102E-18
5.849445E+03	1.902949E-16	4.988142E-18
5.859260E+03	1.959799E-16	5.083069E-18
5.869074E+03	2.013621E-16	5.167857E-18
5.878889E+03	2.063110E-16	5.239594E-18
5.888704E+03	2.107009E-16	5.295647E-18
5.898518E+03	2.144188E-16	5.333813E-18
5.908333E+03	2.173686E-16	5.352424E-18
5.918147E+03	2.194777E-16	5.350462E-18
5.927962E+03	2.207071E-16	5.327773E-18
5.937776E+03	2.210410E-16	5.284761E-18
5.947591E+03	2.204916E-16	5.222478E-18
5.957405E+03	2.190995E-16	5.142580E-18
5.967220E+03	2.169280E-16	5.047183E-18
5.977034E+03	2.140595E-16	4.938736E-18
5.986849E+03	2.105909E-16	4.819909E-18
5.996663E+03	2.066303E-16	4.693503E-18
6.006478E+03	2.022915E-16	4.562338E-18
6.016292E+03	1.976885E-16	4.429112E-18
6.026107E+03	1.929378E-16	4.296478E-18
6.035921E+03	1.881465E-16	4.166793E-18
6.045736E+03	1.834158E-16	4.042208E-18
6.055550E+03	1.788391E-16	3.924646E-18
6.065365E+03	1.744911E-16	3.815579E-18
6.075179E+03	1.704346E-16	3.716202E-18
6.084994E+03	1.667146E-16	3.627299E-18
6.094808E+03	1.633609E-16	3.549244E-18
6.104623E+03	1.603827E-16	3.481961E-18
6.114437E+03	1.577719E-16	3.425037E-18
6.124252E+03	1.555187E-16	3.378052E-18
6.134066E+03	1.535983E-16	3.340292E-18
6.143881E+03	1.519859E-16	3.311070E-18
6.153695E+03	1.506505E-16	3.289587E-18
6.163510E+03	1.495632E-16	3.275103E-18
6.173324E+03	1.486914E-16	3.266810E-18
6.183139E+03	1.480063E-16	3.263991E-18
6.192953E+03	1.474775E-16	3.265903E-18
6.202768E+03	1.470808E-16	3.271931E-18
6.212582E+03	1.467908E-16	3.281442E-18
6.222397E+03	1.465871E-16	3.293907E-18
6.232211E+03	1.464469E-16	3.308743E-18
6.242026E+03	1.463515E-16	3.325454E-18
6.251840E+03	1.462818E-16	3.343527E-18
6.261655E+03	1.462175E-16	3.362416E-18
6.271469E+03	1.461418E-16	3.381653E-18
6.281284E+03	1.460393E-16	3.400790E-18
6.291098E+03	1.458927E-16	3.419330E-18
6.300913E+03	1.456898E-16	3.436890E-18
6.310727E+03	1.454221E-16	3.453168E-18
6.320542E+03	1.450848E-16	3.467951E-18
6.330356E+03	1.446778E-16	3.481134E-18
6.340171E+03	1.442063E-16	3.492749E-18
6.349985E+03	1.436748E-16	3.502816E-18
6.359800E+03	1.430976E-16	3.511601E-18
6.369614E+03	1.424845E-16	3.519272E-18
6.379429E+03	1.418472E-16	3.526057E-18
6.389243E+03	1.412005E-16	3.532270E-18
6.399058E+03	1.405593E-16	3.538241E-18
6.408872E+03	1.399422E-16	3.544404E-18
6.418687E+03	1.393693E-16	3.551252E-18
6.428501E+03	1.388619E-16	3.559320E-18
6.438316E+03	1.384427E-16	3.569190E-18
6.448130E+03	1.381363E-16	3.581518E-18
6.457945E+03	1.379652E-16	3.596913E-18
6.467759E+03	1.379512E-16	3.615978E-18
6.477574E+03	1.381142E-16	3.639287E-18
6.487388E+03	1.384743E-16	3.667416E-18
6.497203E+03	1.390477E-16	3.700857E-18
6.507017E+03	1.398430E-16	3.739898E-18
6.516832E+03	1.408720E-16	3.784918E-18
6.526646E+03	1.421323E-16	3.835913E-18
6.536461E+03	1.436230E-16	3.892913E-18
6.546275E+03	1.453332E-16	3.955676E-18
6.556090E+03	1.472503E-16	4.023899E-18
6.565904E+03	1.493553E-16	4.097096E-18
6.575719E+03	1.516243E-16	4.174635E-18
6.585533E+03	1.540309E-16	4.255804E-18
6.595348E+03	1.565383E-16	4.339585E-18
6.605162E+03	1.591151E-16	4.425094E-18
6.614977E+03	1.617154E-16	4.511040E-18
6.624791E+03	1.642988E-16	4.596249E-18
6.634606E+03	1.668138E-16	4.679227E-18
6.644420E+03	1.692162E-16	4.758665E-18
6.654235E+03	1.714557E-16	4.833072E-18
6.664049E+03	1.734862E-16	4.901065E-18
6.673864E+03	1.752676E-16	4.961433E-18
6.683678E+03	1.767605E-16	5.012975E-18
6.693493E+03	1.779365E-16	5.054803E-18
6.703307E+03	1.787724E-16	5.086187E-18
6.713122E+03	1.792509E-16	5.106565E-18
6.722937E+03	1.793675E-16	5.115759E-18
6.732751E+03	1.791281E-16	5.113886E-18
6.742566E+03	1.785404E-16	5.101137E-18
6.752380E+03	1.776282E-16	5.078171E-18
6.762195E+03	1.764215E-16	5.045843E-18
6.772009E+03	1.749554E-16	5.005161E-18
6.781824E+03	1.732769E-16	4.957486E-18
6.791638E+03	1.714305E-16	4.904111E-18
6.801453E+03	1.694649E-16	4.846468E-18
6.811267E+03	1.674294E-16	4.785998E-18
6.821082E+03	1.653729E-16	4.724134E-18
6.830896E+03	1.633417E-16	4.662239E-18
6.840711E+03	1.613789E-16	4.601576E-18
6.850525E+03	1.595231E-16	4.543272E-18
6.860340E+03	1.578057E-16	4.488248E-18
6.870154E+03	1.562589E-16	4.437439E-18
6.879969E+03	1.548998E-16	4.391337E-18
6.889783E+03	1.537483E-16	4.350512E-18
6.899598E+03	1.528101E-16	4.315119E-18
6.909412E+03	1.520890E-16	4.285256E-18
6.919227E+03	1.515873E-16	4.260975E-18
6.929041E+03	1.512928E-16	4.241912E-18
6.938856E+03	1.512012E-16	4.227926E-18
6.948670E+03	1.512941E-16	4.218477E-18
6.958485E+03	1.515531E-16	4.213031E-18
6.968299E+03	1.519564E-16	4.210963E-18
6.978114E+03	1.524813E-16	4.211627E-18
6.987928E+03	1.530966E-16	4.214152E-18
6.997743E+03	1.537766E-16	4.217829E-18
7.007557E+03	1.544947E-16	4.221939E-18
7.017372E+03	1.552169E-16	4.225567E-18
7.027186E+03	1.559238E-16	4.228217E-18
7.037001E+03	1.565850E-16	4.229101E-18
7.046815E+03	1.571842E-16	4.227830E-18
7.056630E+03	1.577021E-16	4.223946E-18
7.066444E+03	1.581257E-16	4.217172E-18
7.076259E+03	1.584451E-16	4.207314E-18
7.086073E+03	1.586576E-16	4.194391E-18
7.095888E+03	1.587679E-16	4.178609E-18
7.105702E+03	1.587791E-16	4.160135E-18
7.115517E+03	1.586970E-16	4.139216E-18
7.125331E+03	1.585330E-16	4.116234E-18
7.135146E+03	1.582920E-16	4.091404E-18
7.144960E+03	1.579875E-16	4.065163E-18
7.154775E+03	1.576233E-16	4.037687E-18
7.164589E+03	1.572064E-16	4.009243E-18
7.174404E+03	1.567409E-16	3.980015E-18
7.184218E+03	1.562346E-16	3.950283E-18
7.194033E+03	1.556896E-16	3.920180E-18
7.203847E+03	1.551095E-16	3.889875E-18
7.213662E+03	1.544947E-16	3.859452E-18
7.223476E+03	1.538439E-16	3.828960E-18
7.233291E+03	1.531593E-16	3.798529E-18
7.243105E+03	1.524347E-16	3.768078E-18
7.252920E+03	1.516719E-16	3.737728E-18
7.262734E+03	1.508608E-16	3.707299E-18
7.272549E+03	1.500015E-16	3.676865E-18
7.282363E+03	1.490857E-16	3.646292E-18
7.292178E+03	1.481117E-16	3.615602E-18
7.301992E+03	1.470746E-16	3.584729E-18
7.311807E+03	1.459734E-16	3.553705E-18
7.321621E+03	1.448057E-16	3.522514E-18
7.331436E+03	1.435687E-16	3.491131E-18
7.341250E+03	1.422607E-16	3.459539E-18
7.351065E+03	1.408796E-16	3.427709E-18
7.360879E+03	1.394282E-16	3.395718E-18
7.370694E+03	1.379013E-16	3.363442E-18
7.380508E+03	1.363031E-16	3.330927E-18
7.390323E+03	1.346344E-16	3.298080E-18
7.400137E+03	1.328967E-16	3.264819E-18
7.409952E+03	1.310968E-16	3.231175E-18
7.419766E+03	1.292343E-16	3.197012E-18
7.429581E+03	1.273150E-16	3.162338E-18
7.439395E+03	1.253449E-16	3.127170E-18
7.449210E+03	1.233281E-16	3.091479E-18
7.459024E+03	1.212688E-16	3.055243E-18
7.468839E+03	1.191740E-16	3.018506E-18
7.478653E+03	1.170474E-16	2.981245E-18
7.488468E+03	1.148973E-16	2.943551E-18
7.498282E+03	1.127297E-16	2.905469E-18
7.508097E+03	1.105574E-16	2.867224E-18
7.517911E+03	1.083887E-16	2.828942E-18
7.527726E+03	1.062349E-16	2.790836E-18
7.537540E+03	1.041084E-16	2.753155E-18
7.547355E+03	1.020180E-16	2.716074E-18
7.557169E+03	9.997270E-17	2.679785E-18
7.566984E+03	9.798221E-17	2.644507E-18
7.576799E+03	9.605188E-17	2.610355E-18
7.586613E+03	9.418888E-17	2.577506E-18
7.596428E+03	9.239639E-17	2.546034E-18
7.606242E+03	9.067824E-17	2.516040E-18
7.616057E+03	8.903749E-17	2.487611E-18
