#wls	flux	fluxerr
1.570321E+03	7.492087E-19	5.807317E-20
1.609579E+03	7.422176E-19	5.747603E-20
1.648837E+03	7.359624E-19	5.693525E-20
1.688095E+03	7.307478E-19	5.647420E-20
1.727353E+03	7.263035E-19	5.607176E-20
1.766611E+03	7.227782E-19	5.573922E-20
1.805869E+03	7.201559E-19	5.547509E-20
1.845127E+03	7.186910E-19	5.529868E-20
1.884385E+03	7.179348E-19	5.517519E-20
1.923643E+03	7.182750E-19	5.513414E-20
1.962901E+03	7.195667E-19	5.516407E-20
2.002159E+03	7.218764E-19	5.526976E-20
2.041417E+03	7.255571E-19	5.547781E-20
2.080675E+03	7.309094E-19	5.581071E-20
2.119933E+03	7.388489E-19	5.633764E-20
2.159191E+03	7.498783E-19	5.709594E-20
2.198449E+03	7.643563E-19	5.811171E-20
2.237707E+03	7.823961E-19	5.939220E-20
2.276965E+03	8.037486E-19	6.091706E-20
2.316223E+03	8.281821E-19	6.266734E-20
2.355481E+03	8.557718E-19	6.464729E-20
2.394739E+03	8.864677E-19	6.685162E-20
2.433997E+03	9.208193E-19	6.932013E-20
2.473255E+03	9.591786E-19	7.207743E-20
2.512513E+03	1.001804E-18	7.514080E-20
2.551772E+03	1.049518E-18	7.856953E-20
2.591030E+03	1.102890E-18	8.240330E-20
2.630288E+03	1.162741E-18	8.670037E-20
2.669546E+03	1.229999E-18	9.152603E-20
2.708804E+03	1.305508E-18	9.693875E-20
2.748062E+03	1.390428E-18	1.030195E-19
2.787320E+03	1.486501E-18	1.098916E-19
2.826578E+03	1.594814E-18	1.176283E-19
2.865836E+03	1.717525E-18	1.263809E-19
2.905094E+03	1.856602E-18	1.362848E-19
2.944352E+03	2.014795E-18	1.475307E-19
2.954166E+03	2.057562E-18	1.505674E-19
2.963981E+03	2.101906E-18	1.537149E-19
2.973795E+03	2.147602E-18	1.569566E-19
2.983610E+03	2.194686E-18	1.602948E-19
2.993424E+03	2.243479E-18	1.637528E-19
3.003239E+03	2.294035E-18	1.673341E-19
3.013053E+03	2.346405E-18	1.710422E-19
3.022868E+03	2.400346E-18	1.748591E-19
3.032682E+03	2.455910E-18	1.787884E-19
3.042497E+03	2.513728E-18	1.828756E-19
3.052311E+03	2.573292E-18	1.870835E-19
3.062126E+03	2.634956E-18	1.914374E-19
3.071940E+03	2.699098E-18	1.959644E-19
3.081755E+03	2.765146E-18	2.006226E-19
3.091569E+03	2.833473E-18	2.054388E-19
3.101384E+03	2.904144E-18	2.104172E-19
3.111198E+03	2.977559E-18	2.155863E-19
3.121013E+03	3.053453E-18	2.209267E-19
3.130827E+03	3.131896E-18	2.264427E-19
3.140642E+03	3.212955E-18	2.321389E-19
3.150456E+03	3.297058E-18	2.380456E-19
3.160271E+03	3.384289E-18	2.441684E-19
3.170085E+03	3.474368E-18	2.504866E-19
3.179900E+03	3.567368E-18	2.570048E-19
3.189714E+03	3.664125E-18	2.637827E-19
3.199529E+03	3.763973E-18	2.707718E-19
3.209343E+03	3.867381E-18	2.780051E-19
3.219158E+03	3.974443E-18	2.854888E-19
3.228972E+03	4.085661E-18	2.932582E-19
3.238787E+03	4.200326E-18	3.012618E-19
3.248601E+03	4.319352E-18	3.095643E-19
3.258416E+03	4.442433E-18	3.181430E-19
3.268230E+03	4.570099E-18	3.270350E-19
3.278045E+03	4.702030E-18	3.362167E-19
3.287859E+03	4.838325E-18	3.456943E-19
3.297674E+03	4.979988E-18	3.555386E-19
3.307488E+03	5.126241E-18	3.656931E-19
3.317303E+03	5.278117E-18	3.762305E-19
3.327117E+03	5.434808E-18	3.870923E-19
3.336932E+03	5.597377E-18	3.983530E-19
3.346746E+03	5.765474E-18	4.099867E-19
3.356561E+03	5.939216E-18	4.220007E-19
3.366376E+03	6.119224E-18	4.344378E-19
3.376190E+03	6.305124E-18	4.472702E-19
3.386005E+03	6.498069E-18	4.605785E-19
3.395819E+03	6.697159E-18	4.742977E-19
3.405634E+03	6.903037E-18	4.884719E-19
3.415448E+03	7.116378E-18	5.031474E-19
3.425263E+03	7.336775E-18	5.182941E-19
3.435077E+03	7.564352E-18	5.339191E-19
3.444892E+03	7.799794E-18	5.500694E-19
3.454706E+03	8.043237E-18	5.667530E-19
3.464521E+03	8.294227E-18	5.839360E-19
3.474335E+03	8.554054E-18	6.017079E-19
3.484150E+03	8.822260E-18	6.200344E-19
3.493964E+03	9.098958E-18	6.389217E-19
3.503779E+03	9.384251E-18	6.583754E-19
3.513593E+03	9.679497E-18	6.784887E-19
3.523408E+03	9.983559E-18	6.991799E-19
3.533222E+03	1.029716E-17	7.204978E-19
3.543037E+03	1.062040E-17	7.424468E-19
3.552851E+03	1.095403E-17	7.650782E-19
3.562666E+03	1.129679E-17	7.883009E-19
3.572480E+03	1.165076E-17	8.122584E-19
3.582295E+03	1.201469E-17	8.368604E-19
3.592109E+03	1.238996E-17	8.622023E-19
3.601924E+03	1.277527E-17	8.881898E-19
3.611738E+03	1.317205E-17	9.149200E-19
3.621553E+03	1.357959E-17	9.423423E-19
3.631367E+03	1.399865E-17	9.705055E-19
3.641182E+03	1.442923E-17	9.994076E-19
3.650996E+03	1.487132E-17	1.029045E-18
3.660811E+03	1.532413E-17	1.059361E-18
3.670625E+03	1.578990E-17	1.090508E-18
3.680440E+03	1.626628E-17	1.122319E-18
3.690254E+03	1.675551E-17	1.154948E-18
3.700069E+03	1.725597E-17	1.188279E-18
3.709883E+03	1.776831E-17	1.222355E-18
3.719698E+03	1.829323E-17	1.257221E-18
3.729512E+03	1.882980E-17	1.292810E-18
3.739327E+03	1.937785E-17	1.329108E-18
3.749141E+03	1.993804E-17	1.366157E-18
3.758956E+03	2.051019E-17	1.403941E-18
3.768770E+03	2.109410E-17	1.442444E-18
3.778585E+03	2.168871E-17	1.481591E-18
3.788399E+03	2.229545E-17	1.521476E-18
3.798214E+03	2.291413E-17	1.562084E-18
3.808028E+03	2.354360E-17	1.603333E-18
3.817843E+03	2.418359E-17	1.645202E-18
3.827657E+03	2.483555E-17	1.687787E-18
3.837472E+03	2.549743E-17	1.730946E-18
3.847286E+03	2.616982E-17	1.774715E-18
3.857101E+03	2.685237E-17	1.819069E-18
3.866915E+03	2.754477E-17	1.863984E-18
3.876730E+03	2.824668E-17	1.909433E-18
3.886544E+03	2.895867E-17	1.955454E-18
3.896359E+03	2.967952E-17	2.001960E-18
3.906173E+03	3.040885E-17	2.048925E-18
3.915988E+03	3.114634E-17	2.096323E-18
3.925802E+03	3.189257E-17	2.144192E-18
3.935617E+03	3.264537E-17	2.192383E-18
3.945431E+03	3.340628E-17	2.240997E-18
3.955246E+03	3.417496E-17	2.290010E-18
3.965060E+03	3.494927E-17	2.339275E-18
3.974875E+03	3.572986E-17	2.388835E-18
3.984689E+03	3.651740E-17	2.438733E-18
3.994504E+03	3.730976E-17	2.488823E-18
4.004318E+03	3.810670E-17	2.539089E-18
4.014133E+03	3.890899E-17	2.589580E-18
4.023947E+03	3.971643E-17	2.640281E-18
4.033762E+03	4.052699E-17	2.691055E-18
4.043576E+03	4.134150E-17	2.741957E-18
4.053391E+03	4.215891E-17	2.792915E-18
4.063205E+03	4.298014E-17	2.843988E-18
4.073020E+03	4.380324E-17	2.895048E-18
4.082834E+03	4.462919E-17	2.946157E-18
4.092649E+03	4.545708E-17	2.997253E-18
4.102463E+03	4.628605E-17	3.048281E-18
4.112278E+03	4.711719E-17	3.099310E-18
4.122092E+03	4.794875E-17	3.150225E-18
4.131907E+03	4.878094E-17	3.201039E-18
4.141721E+03	4.961305E-17	3.251703E-18
4.151536E+03	5.044538E-17	3.302239E-18
4.161350E+03	5.127730E-17	3.352604E-18
4.171165E+03	5.210825E-17	3.402761E-18
4.180979E+03	5.293865E-17	3.452738E-18
4.190794E+03	5.376712E-17	3.502444E-18
4.200608E+03	5.459322E-17	3.551850E-18
4.210423E+03	5.541759E-17	3.600998E-18
4.220238E+03	5.623989E-17	3.649868E-18
4.230052E+03	5.705801E-17	3.698321E-18
4.239867E+03	5.787364E-17	3.746468E-18
4.249681E+03	5.868473E-17	3.794176E-18
4.259496E+03	5.949115E-17	3.841438E-18
4.269310E+03	6.029280E-17	3.888249E-18
4.279125E+03	6.108778E-17	3.934486E-18
4.288939E+03	6.187603E-17	3.980149E-18
4.298754E+03	6.265664E-17	4.025178E-18
4.308568E+03	6.342868E-17	4.069516E-18
4.318383E+03	6.419031E-17	4.113048E-18
4.328197E+03	6.494061E-17	4.155717E-18
4.338012E+03	6.567868E-17	4.197468E-18
4.347826E+03	6.640358E-17	4.238243E-18
4.357641E+03	6.711338E-17	4.277924E-18
4.367455E+03	6.780800E-17	4.316509E-18
4.377270E+03	6.848633E-17	4.353930E-18
4.387084E+03	6.915003E-17	4.390297E-18
4.396899E+03	6.979966E-17	4.425649E-18
4.406713E+03	7.043669E-17	4.460084E-18
4.416528E+03	7.106243E-17	4.493686E-18
4.426342E+03	7.167808E-17	4.526535E-18
4.436157E+03	7.228377E-17	4.558641E-18
4.445971E+03	7.288139E-17	4.590127E-18
4.455786E+03	7.347277E-17	4.621108E-18
4.465600E+03	7.405761E-17	4.651569E-18
4.475415E+03	7.463747E-17	4.681608E-18
4.485229E+03	7.521178E-17	4.711191E-18
4.495044E+03	7.578169E-17	4.740393E-18
4.504858E+03	7.634625E-17	4.769154E-18
4.514673E+03	7.690711E-17	4.797579E-18
4.524487E+03	7.746186E-17	4.825520E-18
4.534302E+03	7.801171E-17	4.853052E-18
4.544116E+03	7.855378E-17	4.880000E-18
4.553931E+03	7.908893E-17	4.906418E-18
4.563745E+03	7.961506E-17	4.932178E-18
4.573560E+03	8.013193E-17	4.957268E-18
4.583374E+03	8.063738E-17	4.981558E-18
4.593189E+03	8.113027E-17	5.004979E-18
4.603003E+03	8.161052E-17	5.027532E-18
4.612818E+03	8.207623E-17	5.049102E-18
4.622632E+03	8.252761E-17	5.069707E-18
4.632447E+03	8.296206E-17	5.089191E-18
4.642261E+03	8.338017E-17	5.107595E-18
4.652076E+03	8.378172E-17	5.124911E-18
4.661890E+03	8.416571E-17	5.141081E-18
4.671705E+03	8.453039E-17	5.156005E-18
4.681519E+03	8.487818E-17	5.169835E-18
4.691334E+03	8.520677E-17	5.182435E-18
4.701148E+03	8.551806E-17	5.193927E-18
4.710963E+03	8.581222E-17	5.204325E-18
4.720777E+03	8.608962E-17	5.213658E-18
4.730592E+03	8.635292E-17	5.222090E-18
4.740406E+03	8.660199E-17	5.229618E-18
4.750221E+03	8.683789E-17	5.236311E-18
4.760035E+03	8.706196E-17	5.242253E-18
4.769850E+03	8.727672E-17	5.247599E-18
4.779664E+03	8.748289E-17	5.252394E-18
4.789479E+03	8.768237E-17	5.256757E-18
4.799293E+03	8.787725E-17	5.260815E-18
4.809108E+03	8.806977E-17	5.264703E-18
4.818922E+03	8.826028E-17	5.268442E-18
4.828737E+03	8.845321E-17	5.272299E-18
4.838551E+03	8.864905E-17	5.276304E-18
4.848366E+03	8.885128E-17	5.280660E-18
4.858180E+03	8.906231E-17	5.285513E-18
4.867995E+03	8.928247E-17	5.290878E-18
4.877809E+03	8.951500E-17	5.296947E-18
4.887624E+03	8.976299E-17	5.303897E-18
4.897438E+03	9.002536E-17	5.311662E-18
4.907253E+03	9.030687E-17	5.320517E-18
4.917067E+03	9.060605E-17	5.330372E-18
4.926882E+03	9.092622E-17	5.341416E-18
4.936696E+03	9.126735E-17	5.353642E-18
4.946511E+03	9.163009E-17	5.367083E-18
4.956325E+03	9.201465E-17	5.381745E-18
4.966140E+03	9.242088E-17	5.397613E-18
4.975954E+03	9.284826E-17	5.414652E-18
4.985769E+03	9.329602E-17	5.432811E-18
4.995583E+03	9.376325E-17	5.452033E-18
5.005398E+03	9.424903E-17	5.472257E-18
5.015212E+03	9.475147E-17	5.493370E-18
5.025027E+03	9.527183E-17	5.515440E-18
5.034841E+03	9.580745E-17	5.538309E-18
5.044656E+03	9.635990E-17	5.562064E-18
5.054471E+03	9.692675E-17	5.586560E-18
5.064285E+03	9.750877E-17	5.611838E-18
5.074100E+03	9.810677E-17	5.637940E-18
5.083914E+03	9.871845E-17	5.664729E-18
5.093729E+03	9.934560E-17	5.692306E-18
5.103543E+03	9.998571E-17	5.720522E-18
5.113358E+03	1.006403E-16	5.749458E-18
5.123172E+03	1.013074E-16	5.779008E-18
5.132987E+03	1.019862E-16	5.809106E-18
5.142801E+03	1.026749E-16	5.839664E-18
5.152616E+03	1.033722E-16	5.870594E-18
5.162430E+03	1.040759E-16	5.901771E-18
5.172245E+03	1.047849E-16	5.933137E-18
5.182059E+03	1.054956E-16	5.964477E-18
5.191874E+03	1.062051E-16	5.995633E-18
5.201688E+03	1.069116E-16	6.026508E-18
5.211503E+03	1.076109E-16	6.056860E-18
5.221317E+03	1.082998E-16	6.086509E-18
5.231132E+03	1.089746E-16	6.115257E-18
5.240946E+03	1.096322E-16	6.142927E-18
5.250761E+03	1.102698E-16	6.169372E-18
5.260575E+03	1.108829E-16	6.194345E-18
5.270390E+03	1.114678E-16	6.217649E-18
5.280204E+03	1.120209E-16	6.239082E-18
5.290019E+03	1.125384E-16	6.258445E-18
5.299833E+03	1.130179E-16	6.275609E-18
5.309648E+03	1.134532E-16	6.290253E-18
5.319462E+03	1.138421E-16	6.302256E-18
5.329277E+03	1.141823E-16	6.311507E-18
5.339091E+03	1.144683E-16	6.317708E-18
5.348906E+03	1.146982E-16	6.320776E-18
5.358720E+03	1.148687E-16	6.320539E-18
5.368535E+03	1.149788E-16	6.316962E-18
5.378349E+03	1.150263E-16	6.309934E-18
5.388164E+03	1.150105E-16	6.299435E-18
5.397978E+03	1.149318E-16	6.285503E-18
5.407793E+03	1.147912E-16	6.268211E-18
5.417607E+03	1.145906E-16	6.247674E-18
5.427422E+03	1.143333E-16	6.224090E-18
5.437236E+03	1.140198E-16	6.197503E-18
5.447051E+03	1.136557E-16	6.168224E-18
5.456865E+03	1.132444E-16	6.136453E-18
5.466680E+03	1.127880E-16	6.102323E-18
5.476494E+03	1.122916E-16	6.066106E-18
5.486309E+03	1.117587E-16	6.028016E-18
5.496123E+03	1.111943E-16	5.988324E-18
5.505938E+03	1.106013E-16	5.947193E-18
5.515752E+03	1.099836E-16	5.904843E-18
5.525567E+03	1.093456E-16	5.861518E-18
5.535381E+03	1.086928E-16	5.817514E-18
5.545196E+03	1.080302E-16	5.773100E-18
5.555010E+03	1.073606E-16	5.728437E-18
5.564825E+03	1.066927E-16	5.683982E-18
5.574639E+03	1.060291E-16	5.639873E-18
5.584454E+03	1.053777E-16	5.596539E-18
5.594268E+03	1.047450E-16	5.554310E-18
5.604083E+03	1.041360E-16	5.513455E-18
5.613897E+03	1.035574E-16	5.474315E-18
5.623712E+03	1.030151E-16	5.437200E-18
5.633526E+03	1.025162E-16	5.402472E-18
5.643341E+03	1.020641E-16	5.370304E-18
5.653155E+03	1.016657E-16	5.341044E-18
5.662970E+03	1.013253E-16	5.314904E-18
5.672784E+03	1.010443E-16	5.291944E-18
5.682599E+03	1.008261E-16	5.272333E-18
5.692413E+03	1.006717E-16	5.256103E-18
5.702228E+03	1.005837E-16	5.243377E-18
5.712042E+03	1.005610E-16	5.234078E-18
5.721857E+03	1.006014E-16	5.228082E-18
5.731671E+03	1.007030E-16	5.225272E-18
5.741486E+03	1.008637E-16	5.225527E-18
5.751300E+03	1.010797E-16	5.228640E-18
5.761115E+03	1.013445E-16	5.234258E-18
5.770929E+03	1.016546E-16	5.242192E-18
5.780744E+03	1.020031E-16	5.252077E-18
5.790558E+03	1.023826E-16	5.263521E-18
5.800373E+03	1.027879E-16	5.276254E-18
5.810187E+03	1.032094E-16	5.289783E-18
5.820002E+03	1.036394E-16	5.303702E-18
5.829816E+03	1.040703E-16	5.317628E-18
5.839631E+03	1.044926E-16	5.331080E-18
5.849445E+03	1.048967E-16	5.343565E-18
5.859260E+03	1.052758E-16	5.354744E-18
5.869074E+03	1.056194E-16	5.364098E-18
5.878889E+03	1.059194E-16	5.371219E-18
5.888704E+03	1.061697E-16	5.375808E-18
5.898518E+03	1.063613E-16	5.377430E-18
5.908333E+03	1.064901E-16	5.375881E-18
5.918147E+03	1.065513E-16	5.370948E-18
5.927962E+03	1.065411E-16	5.362444E-18
5.937776E+03	1.064565E-16	5.350248E-18
5.947591E+03	1.062986E-16	5.334421E-18
5.957405E+03	1.060676E-16	5.314995E-18
5.967220E+03	1.057665E-16	5.292139E-18
5.977034E+03	1.053986E-16	5.266031E-18
5.986849E+03	1.049698E-16	5.236982E-18
5.996663E+03	1.044873E-16	5.205362E-18
6.006478E+03	1.039574E-16	5.171497E-18
6.016292E+03	1.033891E-16	5.135852E-18
6.026107E+03	1.027925E-16	5.098930E-18
6.035921E+03	1.021760E-16	5.061150E-18
6.045736E+03	1.015489E-16	5.022985E-18
6.055550E+03	1.009209E-16	4.984909E-18
6.065365E+03	1.002998E-16	4.947310E-18
6.075179E+03	9.969518E-17	4.910655E-18
6.084994E+03	9.911817E-17	4.875487E-18
6.094808E+03	9.857679E-17	4.842192E-18
6.104623E+03	9.807726E-17	4.811067E-18
6.114437E+03	9.762532E-17	4.782383E-18
6.124252E+03	9.722448E-17	4.756300E-18
6.134066E+03	9.687692E-17	4.732913E-18
6.143881E+03	9.658260E-17	4.712209E-18
6.153695E+03	9.634113E-17	4.694157E-18
6.163510E+03	9.615084E-17	4.678664E-18
6.173324E+03	9.600788E-17	4.665533E-18
6.183139E+03	9.590731E-17	4.654513E-18
6.192953E+03	9.584516E-17	4.645402E-18
6.202768E+03	9.581376E-17	4.637822E-18
6.212582E+03	9.580679E-17	4.631461E-18
6.222397E+03	9.581551E-17	4.625890E-18
6.232211E+03	9.583473E-17	4.620856E-18
6.242026E+03	9.585331E-17	4.615820E-18
6.251840E+03	9.586590E-17	4.610524E-18
6.261655E+03	9.586342E-17	4.604532E-18
6.271469E+03	9.583714E-17	4.597428E-18
6.281284E+03	9.578171E-17	4.588959E-18
6.291098E+03	9.569061E-17	4.578817E-18
6.300913E+03	9.555629E-17	4.566648E-18
6.310727E+03	9.537626E-17	4.552339E-18
6.320542E+03	9.514543E-17	4.535655E-18
6.330356E+03	9.486416E-17	4.516623E-18
6.340171E+03	9.453132E-17	4.495196E-18
6.349985E+03	9.414826E-17	4.471446E-18
6.359800E+03	9.371763E-17	4.445508E-18
6.369614E+03	9.324221E-17	4.417521E-18
6.379429E+03	9.272853E-17	4.387801E-18
6.389243E+03	9.218081E-17	4.356553E-18
6.399058E+03	9.160463E-17	4.324045E-18
6.408872E+03	9.100671E-17	4.290598E-18
6.418687E+03	9.039285E-17	4.256490E-18
6.428501E+03	8.976869E-17	4.221986E-18
6.438316E+03	8.913966E-17	4.187343E-18
6.448130E+03	8.851275E-17	4.152888E-18
6.457945E+03	8.789072E-17	4.118751E-18
6.467759E+03	8.728069E-17	4.085263E-18
6.477574E+03	8.668460E-17	4.052512E-18
6.487388E+03	8.610679E-17	4.020698E-18
6.497203E+03	8.555026E-17	3.989956E-18
6.507017E+03	8.501850E-17	3.960447E-18
6.516832E+03	8.451276E-17	3.932222E-18
6.526646E+03	8.403661E-17	3.905444E-18
6.536461E+03	8.358856E-17	3.880038E-18
6.546275E+03	8.317224E-17	3.856167E-18
6.556090E+03	8.278705E-17	3.833798E-18
6.565904E+03	8.243284E-17	3.812919E-18
6.575719E+03	8.210891E-17	3.793491E-18
6.585533E+03	8.181405E-17	3.775454E-18
6.595348E+03	8.154648E-17	3.758722E-18
6.605162E+03	8.130492E-17	3.743230E-18
6.614977E+03	8.108493E-17	3.728769E-18
6.624791E+03	8.088548E-17	3.715289E-18
6.634606E+03	8.070262E-17	3.702604E-18
6.644420E+03	8.053328E-17	3.690572E-18
6.654235E+03	8.037455E-17	3.679055E-18
6.664049E+03	8.022368E-17	3.667927E-18
6.673864E+03	8.007825E-17	3.657076E-18
6.683678E+03	7.993715E-17	3.646450E-18
6.693493E+03	7.979778E-17	3.635930E-18
6.703307E+03	7.965894E-17	3.625461E-18
6.713122E+03	7.951985E-17	3.615007E-18
6.722937E+03	7.938017E-17	3.604552E-18
6.732751E+03	7.924003E-17	3.594103E-18
6.742566E+03	7.910010E-17	3.583690E-18
6.752380E+03	7.896165E-17	3.573371E-18
6.762195E+03	7.882747E-17	3.563271E-18
6.772009E+03	7.869798E-17	3.553408E-18
6.781824E+03	7.857751E-17	3.543978E-18
6.791638E+03	7.846681E-17	3.535013E-18
6.801453E+03	7.837036E-17	3.526713E-18
6.811267E+03	7.828980E-17	3.519149E-18
6.821082E+03	7.822761E-17	3.512431E-18
6.830896E+03	7.818610E-17	3.506660E-18
6.840711E+03	7.816738E-17	3.501928E-18
6.850525E+03	7.817331E-17	3.498315E-18
6.860340E+03	7.820547E-17	3.495887E-18
6.870154E+03	7.826508E-17	3.494697E-18
6.879969E+03	7.835299E-17	3.494777E-18
6.889783E+03	7.846961E-17	3.496144E-18
6.899598E+03	7.861494E-17	3.498792E-18
6.909412E+03	7.878850E-17	3.502697E-18
6.919227E+03	7.899035E-17	3.507859E-18
6.929041E+03	7.921720E-17	3.514127E-18
6.938856E+03	7.946822E-17	3.521462E-18
6.948670E+03	7.974219E-17	3.529807E-18
6.958485E+03	8.003545E-17	3.538998E-18
6.968299E+03	8.034395E-17	3.548854E-18
6.978114E+03	8.066625E-17	3.559311E-18
6.987928E+03	8.099754E-17	3.570154E-18
6.997743E+03	8.133373E-17	3.581204E-18
7.007557E+03	8.167053E-17	3.592272E-18
7.017372E+03	8.200349E-17	3.603164E-18
7.027186E+03	8.232819E-17	3.613687E-18
7.037001E+03	8.264135E-17	3.623700E-18
7.046815E+03	8.293681E-17	3.632935E-18
7.056630E+03	8.321294E-17	3.641325E-18
7.066444E+03	8.346546E-17	3.648686E-18
7.076259E+03	8.369280E-17	3.654954E-18
7.086073E+03	8.389185E-17	3.659997E-18
7.095888E+03	8.406120E-17	3.663760E-18
7.105702E+03	8.419998E-17	3.666209E-18
7.115517E+03	8.430888E-17	3.667379E-18
7.125331E+03	8.438675E-17	3.667226E-18
7.135146E+03	8.443489E-17	3.665810E-18
7.144960E+03	8.445359E-17	3.663149E-18
7.154775E+03	8.444098E-17	3.659167E-18
7.164589E+03	8.440061E-17	3.654023E-18
7.174404E+03	8.433146E-17	3.647676E-18
7.184218E+03	8.423232E-17	3.640080E-18
7.194033E+03	8.410401E-17	3.631273E-18
7.203847E+03	8.394599E-17	3.621237E-18
7.213662E+03	8.375645E-17	3.609899E-18
7.223476E+03	8.353675E-17	3.597321E-18
7.233291E+03	8.328480E-17	3.583417E-18
7.243105E+03	8.299956E-17	3.568148E-18
7.252920E+03	8.268111E-17	3.551521E-18
7.262734E+03	8.232627E-17	3.533404E-18
7.272549E+03	8.193532E-17	3.513813E-18
7.282363E+03	8.150872E-17	3.492773E-18
7.292178E+03	8.104502E-17	3.470225E-18
7.301992E+03	8.054419E-17	3.446172E-18
7.311807E+03	8.000762E-17	3.420678E-18
7.321621E+03	7.943385E-17	3.393683E-18
7.331436E+03	7.882499E-17	3.365282E-18
7.341250E+03	7.818345E-17	3.335580E-18
7.351065E+03	7.750878E-17	3.304561E-18
7.360879E+03	7.680391E-17	3.272352E-18
7.370694E+03	7.607091E-17	3.239045E-18
7.380508E+03	7.531102E-17	3.204693E-18
7.390323E+03	7.452660E-17	3.169397E-18
7.400137E+03	7.372108E-17	3.133307E-18
7.409952E+03	7.289598E-17	3.096486E-18
7.419766E+03	7.205380E-17	3.059040E-18
7.429581E+03	7.119705E-17	3.021072E-18
7.439395E+03	7.032825E-17	2.982687E-18
7.449210E+03	6.944981E-17	2.943986E-18
7.459024E+03	6.856418E-17	2.905070E-18
7.468839E+03	6.767278E-17	2.865996E-18
7.478653E+03	6.677889E-17	2.826901E-18
7.488468E+03	6.588392E-17	2.787840E-18
7.498282E+03	6.499102E-17	2.748946E-18
7.508097E+03	6.410251E-17	2.710312E-18
7.517911E+03	6.321980E-17	2.671995E-18
7.527726E+03	6.234517E-17	2.634090E-18
7.537540E+03	6.148161E-17	2.596719E-18
7.547355E+03	6.063030E-17	2.559928E-18
7.557169E+03	5.979314E-17	2.523796E-18
7.566984E+03	5.897259E-17	2.488424E-18
7.576799E+03	5.816935E-17	2.453836E-18
7.586613E+03	5.738553E-17	2.420122E-18
7.596428E+03	5.662145E-17	2.387289E-18
7.606242E+03	5.587809E-17	2.355378E-18
7.616057E+03	5.515697E-17	2.324450E-18
