#wls	flux	fluxerr
1.570321E+03	7.756515E-19	5.382598E-20
1.609579E+03	7.690658E-19	5.330095E-20
1.648837E+03	7.632285E-19	5.282696E-20
1.688095E+03	7.583090E-19	5.241553E-20
1.727353E+03	7.543240E-19	5.206754E-20
1.766611E+03	7.512804E-19	5.178319E-20
1.805869E+03	7.491628E-19	5.156112E-20
1.845127E+03	7.480918E-19	5.140930E-20
1.884385E+03	7.480356E-19	5.132520E-20
1.923643E+03	7.488207E-19	5.129655E-20
1.962901E+03	7.507292E-19	5.134231E-20
2.002159E+03	7.536867E-19	5.145697E-20
2.041417E+03	7.580621E-19	5.166521E-20
2.080675E+03	7.641706E-19	5.198791E-20
2.119933E+03	7.728256E-19	5.247953E-20
2.159191E+03	7.848438E-19	5.319434E-20
2.198449E+03	8.004593E-19	5.414671E-20
2.237707E+03	8.197922E-19	5.534310E-20
2.276965E+03	8.424298E-19	5.675396E-20
2.316223E+03	8.685852E-19	5.839191E-20
2.355481E+03	8.977186E-19	6.021891E-20
2.394739E+03	9.304022E-19	6.227159E-20
2.433997E+03	9.667295E-19	6.455416E-20
2.473255E+03	1.007222E-18	6.709918E-20
2.512513E+03	1.052317E-18	6.993331E-20
2.551772E+03	1.102701E-18	7.309913E-20
2.591030E+03	1.159145E-18	7.664433E-20
2.630288E+03	1.222126E-18	8.059663E-20
2.669546E+03	1.292776E-18	8.502616E-20
2.708804E+03	1.372374E-18	9.001182E-20
2.748062E+03	1.461717E-18	9.559977E-20
2.787320E+03	1.562367E-18	1.018852E-19
2.826578E+03	1.676099E-18	1.089757E-19
2.865836E+03	1.804681E-18	1.169766E-19
2.905094E+03	1.950101E-18	1.260058E-19
2.944352E+03	2.115421E-18	1.362483E-19
2.954166E+03	2.160192E-18	1.390181E-19
2.963981E+03	2.206586E-18	1.418869E-19
2.973795E+03	2.254366E-18	1.448392E-19
2.983610E+03	2.303567E-18	1.478770E-19
2.993424E+03	2.354524E-18	1.510215E-19
3.003239E+03	2.406989E-18	1.542565E-19
3.013053E+03	2.461607E-18	1.576229E-19
3.022868E+03	2.517831E-18	1.610854E-19
3.032682E+03	2.575709E-18	1.646469E-19
3.042497E+03	2.635897E-18	1.683487E-19
3.052311E+03	2.697863E-18	1.721565E-19
3.062126E+03	2.762296E-18	1.761140E-19
3.071940E+03	2.828613E-18	1.801834E-19
3.081755E+03	2.897190E-18	1.843884E-19
3.091569E+03	2.968426E-18	1.887539E-19
3.101384E+03	3.041710E-18	1.932406E-19
3.111198E+03	3.117788E-18	1.978953E-19
3.121013E+03	3.196384E-18	2.027001E-19
3.130827E+03	3.277563E-18	2.076585E-19
3.140642E+03	3.361756E-18	2.127974E-19
3.150456E+03	3.449045E-18	2.181213E-19
3.160271E+03	3.538765E-18	2.235875E-19
3.170085E+03	3.632112E-18	2.292710E-19
3.179900E+03	3.728416E-18	2.351290E-19
3.189714E+03	3.828141E-18	2.411899E-19
3.199529E+03	3.931376E-18	2.474588E-19
3.209343E+03	4.038212E-18	2.539405E-19
3.219158E+03	4.148740E-18	2.606401E-19
3.228972E+03	4.263053E-18	2.675626E-19
3.238787E+03	4.381242E-18	2.747130E-19
3.248601E+03	4.503403E-18	2.820964E-19
3.258416E+03	4.630064E-18	2.897452E-19
3.268230E+03	4.761342E-18	2.976655E-19
3.278045E+03	4.896898E-18	3.058353E-19
3.287859E+03	5.036828E-18	3.142596E-19
3.297674E+03	5.182155E-18	3.230013E-19
3.307488E+03	5.332070E-18	3.320088E-19
3.317303E+03	5.487147E-18	3.413169E-19
3.327117E+03	5.647983E-18	3.509615E-19
3.336932E+03	5.813728E-18	3.608886E-19
3.346746E+03	5.985471E-18	3.711647E-19
3.356561E+03	6.163347E-18	3.817968E-19
3.366376E+03	6.346969E-18	3.927596E-19
3.376190E+03	6.536446E-18	4.040586E-19
3.386005E+03	6.732942E-18	4.157643E-19
3.395819E+03	6.935530E-18	4.278180E-19
3.405634E+03	7.145400E-18	4.402917E-19
3.415448E+03	7.361584E-18	4.531242E-19
3.425263E+03	7.585301E-18	4.663888E-19
3.435077E+03	7.816685E-18	4.800923E-19
3.444892E+03	8.055286E-18	4.942052E-19
3.454706E+03	8.301796E-18	5.087682E-19
3.464521E+03	8.556331E-18	5.237867E-19
3.474335E+03	8.819006E-18	5.392659E-19
3.484150E+03	9.089931E-18	5.552105E-19
3.493964E+03	9.369204E-18	5.716246E-19
3.503779E+03	9.657547E-18	5.885503E-19
3.513593E+03	9.954431E-18	6.059532E-19
3.523408E+03	1.026123E-17	6.239147E-19
3.533222E+03	1.057674E-17	6.423597E-19
3.543037E+03	1.090169E-17	6.613303E-19
3.552851E+03	1.123682E-17	6.808687E-19
3.562666E+03	1.158153E-17	7.009360E-19
3.572480E+03	1.193656E-17	7.215756E-19
3.582295E+03	1.230127E-17	7.427454E-19
3.592109E+03	1.267709E-17	7.645296E-19
3.601924E+03	1.306267E-17	7.868439E-19
3.611738E+03	1.345942E-17	8.097715E-19
3.621553E+03	1.386738E-17	8.333109E-19
3.631367E+03	1.428508E-17	8.573722E-19
3.641182E+03	1.471471E-17	8.820840E-19
3.650996E+03	1.515552E-17	9.073982E-19
3.660811E+03	1.560748E-17	9.333099E-19
3.670625E+03	1.607052E-17	9.598120E-19
3.680440E+03	1.654456E-17	9.868982E-19
3.690254E+03	1.703111E-17	1.014654E-18
3.700069E+03	1.752849E-17	1.042977E-18
3.709883E+03	1.803738E-17	1.071905E-18
3.719698E+03	1.855766E-17	1.101428E-18
3.729512E+03	1.908918E-17	1.131534E-18
3.739327E+03	1.963260E-17	1.162258E-18
3.749141E+03	2.018693E-17	1.193541E-18
3.758956E+03	2.075364E-17	1.225464E-18
3.768770E+03	2.133088E-17	1.257916E-18
3.778585E+03	2.191926E-17	1.290930E-18
3.788399E+03	2.251854E-17	1.324489E-18
3.798214E+03	2.312848E-17	1.358575E-18
3.808028E+03	2.374969E-17	1.393222E-18
3.817843E+03	2.438101E-17	1.428360E-18
3.827657E+03	2.502308E-17	1.464021E-18
3.837472E+03	2.567557E-17	1.500184E-18
3.847286E+03	2.633732E-17	1.536779E-18
3.857101E+03	2.700889E-17	1.573835E-18
3.866915E+03	2.769088E-17	1.611385E-18
3.876730E+03	2.838116E-17	1.649302E-18
3.886544E+03	2.908033E-17	1.687618E-18
3.896359E+03	2.978803E-17	1.726311E-18
3.906173E+03	3.050398E-17	1.765360E-18
3.915988E+03	3.122875E-17	1.804797E-18
3.925802E+03	3.196018E-17	1.844495E-18
3.935617E+03	3.269983E-17	1.884541E-18
3.945431E+03	3.344553E-17	1.924808E-18
3.955246E+03	3.419791E-17	1.965331E-18
3.965060E+03	3.495762E-17	2.006144E-18
3.974875E+03	3.572255E-17	2.047125E-18
3.984689E+03	3.649244E-17	2.088257E-18
3.994504E+03	3.726799E-17	2.129578E-18
4.004318E+03	3.804900E-17	2.171075E-18
4.014133E+03	3.883339E-17	2.212629E-18
4.023947E+03	3.962290E-17	2.254336E-18
4.033762E+03	4.041550E-17	2.296079E-18
4.043576E+03	4.121203E-17	2.337906E-18
4.053391E+03	4.201147E-17	2.379757E-18
4.063205E+03	4.281282E-17	2.421575E-18
4.073020E+03	4.361795E-17	2.463464E-18
4.082834E+03	4.442405E-17	2.505265E-18
4.092649E+03	4.523212E-17	2.547033E-18
4.102463E+03	4.604226E-17	2.588773E-18
4.112278E+03	4.685362E-17	2.630438E-18
4.122092E+03	4.766543E-17	2.671982E-18
4.131907E+03	4.847787E-17	2.713416E-18
4.141721E+03	4.929025E-17	2.754701E-18
4.151536E+03	5.010283E-17	2.795851E-18
4.161350E+03	5.091496E-17	2.836829E-18
4.171165E+03	5.172702E-17	2.877657E-18
4.180979E+03	5.253750E-17	2.918251E-18
4.190794E+03	5.334687E-17	2.958638E-18
4.200608E+03	5.415473E-17	2.998794E-18
4.210423E+03	5.496166E-17	3.038752E-18
4.220238E+03	5.576641E-17	3.078444E-18
4.230052E+03	5.656874E-17	3.117858E-18
4.239867E+03	5.736846E-17	3.156981E-18
4.249681E+03	5.816538E-17	3.195807E-18
4.259496E+03	5.895845E-17	3.234276E-18
4.269310E+03	5.974758E-17	3.272385E-18
4.279125E+03	6.053177E-17	3.310082E-18
4.288939E+03	6.131010E-17	3.347317E-18
4.298754E+03	6.208255E-17	3.384090E-18
4.308568E+03	6.284551E-17	3.420206E-18
4.318383E+03	6.359992E-17	3.455720E-18
4.328197E+03	6.434314E-17	3.490489E-18
4.338012E+03	6.507245E-17	3.524372E-18
4.347826E+03	6.578699E-17	3.557324E-18
4.357641E+03	6.648495E-17	3.589252E-18
4.367455E+03	6.716353E-17	3.620009E-18
4.377270E+03	6.782452E-17	3.649697E-18
4.387084E+03	6.846777E-17	3.678315E-18
4.396899E+03	6.909674E-17	3.706050E-18
4.406713E+03	6.971201E-17	3.732939E-18
4.416528E+03	7.031679E-17	3.759158E-18
4.426342E+03	7.091236E-17	3.784778E-18
4.436157E+03	7.150077E-17	3.809910E-18
4.445971E+03	7.208211E-17	3.834563E-18
4.455786E+03	7.266013E-17	3.858937E-18
4.465600E+03	7.323377E-17	3.882978E-18
4.475415E+03	7.380372E-17	3.906724E-18
4.485229E+03	7.437244E-17	3.930306E-18
4.495044E+03	7.493935E-17	3.953695E-18
4.504858E+03	7.550462E-17	3.976900E-18
4.514673E+03	7.606806E-17	3.999913E-18
4.524487E+03	7.662917E-17	4.022708E-18
4.534302E+03	7.718619E-17	4.045194E-18
4.544116E+03	7.773898E-17	4.067367E-18
4.553931E+03	7.828635E-17	4.089164E-18
4.563745E+03	7.882697E-17	4.110520E-18
4.573560E+03	7.935853E-17	4.131317E-18
4.583374E+03	7.987968E-17	4.151486E-18
4.593189E+03	8.039008E-17	4.171015E-18
4.603003E+03	8.088661E-17	4.189744E-18
4.612818E+03	8.137012E-17	4.207724E-18
4.622632E+03	8.183871E-17	4.224858E-18
4.632447E+03	8.229161E-17	4.241114E-18
4.642261E+03	8.272828E-17	4.256466E-18
4.652076E+03	8.314737E-17	4.270853E-18
4.661890E+03	8.354873E-17	4.284270E-18
4.671705E+03	8.393144E-17	4.296677E-18
4.681519E+03	8.429676E-17	4.308144E-18
4.691334E+03	8.464321E-17	4.318599E-18
4.701148E+03	8.497252E-17	4.328138E-18
4.710963E+03	8.528366E-17	4.336713E-18
4.720777E+03	8.557685E-17	4.344342E-18
4.730592E+03	8.585456E-17	4.351153E-18
4.740406E+03	8.611655E-17	4.357141E-18
4.750221E+03	8.636478E-17	4.362409E-18
4.760035E+03	8.659847E-17	4.366923E-18
4.769850E+03	8.682004E-17	4.370808E-18
4.779664E+03	8.703114E-17	4.374152E-18
4.789479E+03	8.723261E-17	4.377001E-18
4.799293E+03	8.742753E-17	4.379511E-18
4.809108E+03	8.761616E-17	4.381698E-18
4.818922E+03	8.780194E-17	4.383738E-18
4.828737E+03	8.798645E-17	4.385710E-18
4.838551E+03	8.817332E-17	4.387796E-18
4.848366E+03	8.836315E-17	4.390027E-18
4.858180E+03	8.855951E-17	4.392579E-18
4.867995E+03	8.876484E-17	4.395574E-18
4.877809E+03	8.898048E-17	4.399074E-18
4.887624E+03	8.920960E-17	4.403235E-18
4.897438E+03	8.945227E-17	4.408057E-18
4.907253E+03	8.971235E-17	4.413726E-18
4.917067E+03	8.998961E-17	4.420225E-18
4.926882E+03	9.028652E-17	4.427671E-18
4.936696E+03	9.060430E-17	4.436120E-18
4.946511E+03	9.094377E-17	4.445606E-18
4.956325E+03	9.130517E-17	4.456137E-18
4.966140E+03	9.168715E-17	4.467639E-18
4.975954E+03	9.208985E-17	4.480116E-18
4.985769E+03	9.251113E-17	4.493459E-18
4.995583E+03	9.295171E-17	4.507697E-18
5.005398E+03	9.340840E-17	4.522672E-18
5.015212E+03	9.388014E-17	4.538329E-18
5.025027E+03	9.436814E-17	4.554723E-18
5.034841E+03	9.486979E-17	4.571723E-18
5.044656E+03	9.538475E-17	4.589310E-18
5.054471E+03	9.591483E-17	4.607569E-18
5.064285E+03	9.645901E-17	4.626446E-18
5.074100E+03	9.701625E-17	4.645889E-18
5.083914E+03	9.758766E-17	4.665947E-18
5.093729E+03	9.817425E-17	4.686666E-18
5.103543E+03	9.877382E-17	4.707937E-18
5.113358E+03	9.938701E-17	4.729788E-18
5.123172E+03	1.000143E-16	4.752240E-18
5.132987E+03	1.006527E-16	4.775144E-18
5.142801E+03	1.013030E-16	4.798535E-18
5.152616E+03	1.019626E-16	4.822294E-18
5.162430E+03	1.026294E-16	4.846316E-18
5.172245E+03	1.033015E-16	4.870505E-18
5.182059E+03	1.039760E-16	4.894732E-18
5.191874E+03	1.046514E-16	4.918917E-18
5.201688E+03	1.053236E-16	4.942874E-18
5.211503E+03	1.059895E-16	4.966457E-18
5.221317E+03	1.066459E-16	4.989516E-18
5.231132E+03	1.072904E-16	5.011942E-18
5.240946E+03	1.079188E-16	5.033541E-18
5.250761E+03	1.085275E-16	5.054153E-18
5.260575E+03	1.091131E-16	5.073617E-18
5.270390E+03	1.096733E-16	5.091834E-18
5.280204E+03	1.102022E-16	5.108536E-18
5.290019E+03	1.106984E-16	5.123668E-18
5.299833E+03	1.111573E-16	5.137020E-18
5.309648E+03	1.115751E-16	5.148428E-18
5.319462E+03	1.119483E-16	5.157738E-18
5.329277E+03	1.122734E-16	5.164800E-18
5.339091E+03	1.125458E-16	5.169407E-18
5.348906E+03	1.127646E-16	5.171537E-18
5.358720E+03	1.129248E-16	5.170967E-18
5.368535E+03	1.130242E-16	5.167610E-18
5.378349E+03	1.130635E-16	5.161510E-18
5.388164E+03	1.130387E-16	5.152498E-18
5.397978E+03	1.129524E-16	5.140705E-18
5.407793E+03	1.128056E-16	5.126190E-18
5.417607E+03	1.125996E-16	5.109022E-18
5.427422E+03	1.123366E-16	5.089320E-18
5.437236E+03	1.120211E-16	5.067293E-18
5.447051E+03	1.116551E-16	5.043042E-18
5.456865E+03	1.112444E-16	5.016839E-18
5.466680E+03	1.107900E-16	4.988744E-18
5.476494E+03	1.102967E-16	4.958973E-18
5.486309E+03	1.097677E-16	4.927685E-18
5.496123E+03	1.092065E-16	4.895041E-18
5.505938E+03	1.086167E-16	4.861207E-18
5.515752E+03	1.080018E-16	4.826348E-18
5.525567E+03	1.073667E-16	4.790686E-18
5.535381E+03	1.067145E-16	4.754363E-18
5.545196E+03	1.060504E-16	4.717617E-18
5.555010E+03	1.053784E-16	4.680624E-18
5.564825E+03	1.047037E-16	4.643613E-18
5.574639E+03	1.040328E-16	4.606883E-18
5.584454E+03	1.033707E-16	4.570646E-18
5.594268E+03	1.027239E-16	4.535189E-18
5.604083E+03	1.020997E-16	4.500833E-18
5.613897E+03	1.015041E-16	4.467832E-18
5.623712E+03	1.009435E-16	4.436469E-18
5.633526E+03	1.004245E-16	4.407023E-18
5.643341E+03	9.995385E-17	4.379782E-18
5.653155E+03	9.953606E-17	4.354933E-18
5.662970E+03	9.917472E-17	4.332624E-18
5.672784E+03	9.887530E-17	4.313082E-18
5.682599E+03	9.863974E-17	4.296379E-18
5.692413E+03	9.846911E-17	4.282551E-18
5.702228E+03	9.836514E-17	4.271660E-18
5.712042E+03	9.832784E-17	4.263694E-18
5.721857E+03	9.835621E-17	4.258596E-18
5.731671E+03	9.844720E-17	4.256225E-18
5.741486E+03	9.859788E-17	4.256441E-18
5.751300E+03	9.880520E-17	4.259102E-18
5.761115E+03	9.906369E-17	4.263963E-18
5.770929E+03	9.936776E-17	4.270775E-18
5.780744E+03	9.971253E-17	4.279319E-18
5.790558E+03	1.000895E-16	4.289226E-18
5.800373E+03	1.004928E-16	4.300238E-18
5.810187E+03	1.009141E-16	4.311997E-18
5.820002E+03	1.013473E-16	4.324242E-18
5.829816E+03	1.017816E-16	4.336506E-18
5.839631E+03	1.022101E-16	4.348502E-18
5.849445E+03	1.026229E-16	4.359806E-18
5.859260E+03	1.030110E-16	4.370048E-18
5.869074E+03	1.033657E-16	4.378858E-18
5.878889E+03	1.036785E-16	4.385887E-18
5.888704E+03	1.039409E-16	4.390785E-18
5.898518E+03	1.041460E-16	4.393266E-18
5.908333E+03	1.042889E-16	4.393142E-18
5.918147E+03	1.043628E-16	4.390138E-18
5.927962E+03	1.043656E-16	4.384174E-18
5.937776E+03	1.042951E-16	4.375175E-18
5.947591E+03	1.041492E-16	4.363062E-18
5.957405E+03	1.039306E-16	4.347970E-18
5.967220E+03	1.036405E-16	4.329954E-18
5.977034E+03	1.032831E-16	4.309210E-18
5.986849E+03	1.028635E-16	4.285952E-18
5.996663E+03	1.023897E-16	4.260534E-18
6.006478E+03	1.018686E-16	4.233244E-18
6.016292E+03	1.013095E-16	4.204485E-18
6.026107E+03	1.007219E-16	4.174648E-18
6.035921E+03	1.001146E-16	4.144105E-18
6.045736E+03	9.949847E-17	4.113314E-18
6.055550E+03	9.888165E-17	4.082606E-18
6.065365E+03	9.827379E-17	4.052379E-18
6.075179E+03	9.768556E-17	4.023071E-18
6.084994E+03	9.712593E-17	3.995044E-18
6.094808E+03	9.660589E-17	3.968743E-18
6.104623E+03	9.613085E-17	3.944384E-18
6.114437E+03	9.570753E-17	3.922231E-18
6.124252E+03	9.533757E-17	3.902345E-18
6.134066E+03	9.502509E-17	3.884882E-18
6.143881E+03	9.477004E-17	3.869832E-18
6.153695E+03	9.457103E-17	3.857127E-18
6.163510E+03	9.442795E-17	3.846754E-18
6.173324E+03	9.433466E-17	3.838453E-18
6.183139E+03	9.428652E-17	3.832029E-18
6.192953E+03	9.427887E-17	3.827284E-18
6.202768E+03	9.430343E-17	3.823874E-18
6.212582E+03	9.435223E-17	3.821474E-18
6.222397E+03	9.441788E-17	3.819778E-18
6.232211E+03	9.449265E-17	3.818471E-18
6.242026E+03	9.456577E-17	3.817117E-18
6.251840E+03	9.463030E-17	3.815434E-18
6.261655E+03	9.467747E-17	3.813070E-18
6.271469E+03	9.469785E-17	3.809647E-18
6.281284E+03	9.468344E-17	3.804846E-18
6.291098E+03	9.462787E-17	3.798416E-18
6.300913E+03	9.452384E-17	3.790068E-18
6.310727E+03	9.436529E-17	3.779564E-18
6.320542E+03	9.414964E-17	3.766808E-18
6.330356E+03	9.387413E-17	3.751696E-18
6.340171E+03	9.353881E-17	3.734237E-18
6.349985E+03	9.314364E-17	3.714436E-18
6.359800E+03	9.269306E-17	3.692477E-18
6.369614E+03	9.219173E-17	3.668552E-18
6.379429E+03	9.164324E-17	3.642807E-18
6.389243E+03	9.105551E-17	3.615565E-18
6.399058E+03	9.043490E-17	3.587080E-18
6.408872E+03	8.978881E-17	3.557649E-18
6.418687E+03	8.912365E-17	3.527529E-18
6.428501E+03	8.844658E-17	3.497003E-18
6.438316E+03	8.776433E-17	3.466340E-18
6.448130E+03	8.708326E-17	3.435788E-18
6.457945E+03	8.640734E-17	3.405505E-18
6.467759E+03	8.574282E-17	3.375734E-18
6.477574E+03	8.509360E-17	3.346628E-18
6.487388E+03	8.446318E-17	3.318321E-18
6.497203E+03	8.385464E-17	3.290930E-18
6.507017E+03	8.327159E-17	3.264596E-18
6.516832E+03	8.271634E-17	3.239403E-18
6.526646E+03	8.219077E-17	3.215422E-18
6.536461E+03	8.169727E-17	3.192743E-18
6.546275E+03	8.123507E-17	3.171330E-18
6.556090E+03	8.080653E-17	3.151272E-18
6.565904E+03	8.041082E-17	3.132532E-18
6.575719E+03	8.004741E-17	3.115085E-18
6.585533E+03	7.971605E-17	3.098917E-18
6.595348E+03	7.941406E-17	3.083919E-18
6.605162E+03	7.914002E-17	3.070034E-18
6.614977E+03	7.888933E-17	3.057078E-18
6.624791E+03	7.866068E-17	3.044997E-18
6.634606E+03	7.845076E-17	3.033662E-18
6.644420E+03	7.825543E-17	3.022909E-18
6.654235E+03	7.807067E-17	3.012581E-18
6.664049E+03	7.789638E-17	3.002673E-18
6.673864E+03	7.772747E-17	2.992987E-18
6.683678E+03	7.756290E-17	2.983483E-18
6.693493E+03	7.740208E-17	2.974138E-18
6.703307E+03	7.724308E-17	2.964876E-18
6.713122E+03	7.708534E-17	2.955676E-18
6.722937E+03	7.692874E-17	2.946533E-18
6.732751E+03	7.677358E-17	2.937459E-18
6.742566E+03	7.662155E-17	2.928517E-18
6.752380E+03	7.647224E-17	2.919693E-18
6.762195E+03	7.632853E-17	2.911095E-18
6.772009E+03	7.619365E-17	2.902846E-18
6.781824E+03	7.606828E-17	2.894971E-18
6.791638E+03	7.595681E-17	2.887635E-18
6.801453E+03	7.586086E-17	2.880899E-18
6.811267E+03	7.578201E-17	2.874821E-18
6.821082E+03	7.572440E-17	2.869556E-18
6.830896E+03	7.568934E-17	2.865151E-18
6.840711E+03	7.567790E-17	2.861645E-18
6.850525E+03	7.569375E-17	2.859172E-18
6.860340E+03	7.573748E-17	2.857753E-18
6.870154E+03	7.580933E-17	2.857393E-18
6.879969E+03	7.591191E-17	2.858188E-18
6.889783E+03	7.604462E-17	2.860112E-18
6.899598E+03	7.620732E-17	2.863155E-18
6.909412E+03	7.639846E-17	2.867258E-18
6.919227E+03	7.661887E-17	2.872448E-18
6.929041E+03	7.686616E-17	2.878633E-18
6.938856E+03	7.713839E-17	2.885737E-18
6.948670E+03	7.743324E-17	2.893671E-18
6.958485E+03	7.774793E-17	2.902330E-18
6.968299E+03	7.807929E-17	2.911593E-18
6.978114E+03	7.842467E-17	2.921361E-18
6.987928E+03	7.877810E-17	2.931410E-18
6.997743E+03	7.913620E-17	2.941616E-18
7.007557E+03	7.949536E-17	2.951843E-18
7.017372E+03	7.984980E-17	2.961879E-18
7.027186E+03	8.019473E-17	2.971547E-18
7.037001E+03	8.052546E-17	2.980676E-18
7.046815E+03	8.083754E-17	2.989105E-18
7.056630E+03	8.112798E-17	2.996724E-18
7.066444E+03	8.139127E-17	3.003336E-18
7.076259E+03	8.162781E-17	3.008959E-18
7.086073E+03	8.183260E-17	3.013413E-18
7.095888E+03	8.200663E-17	3.016739E-18
7.105702E+03	8.214842E-17	3.018887E-18
7.115517E+03	8.225909E-17	3.019904E-18
7.125331E+03	8.233806E-17	3.019772E-18
7.135146E+03	8.238706E-17	3.018560E-18
7.144960E+03	8.240689E-17	3.016300E-18
7.154775E+03	8.239719E-17	3.012985E-18
7.164589E+03	8.235962E-17	3.008680E-18
7.174404E+03	8.229450E-17	3.003399E-18
7.184218E+03	8.220082E-17	2.997111E-18
7.194033E+03	8.208052E-17	2.989890E-18
7.203847E+03	8.193200E-17	2.981682E-18
7.213662E+03	8.175454E-17	2.972464E-18
7.223476E+03	8.154827E-17	2.962245E-18
7.233291E+03	8.131103E-17	2.950951E-18
7.243105E+03	8.104269E-17	2.938581E-18
7.252920E+03	8.074098E-17	2.925057E-18
7.262734E+03	8.040474E-17	2.910340E-18
7.272549E+03	8.003401E-17	2.894437E-18
7.282363E+03	7.962793E-17	2.877320E-18
7.292178E+03	7.918388E-17	2.858899E-18
7.301992E+03	7.870277E-17	2.839210E-18
7.311807E+03	7.818486E-17	2.818267E-18
7.321621E+03	7.763084E-17	2.796098E-18
7.331436E+03	7.704287E-17	2.772785E-18
7.341250E+03	7.642134E-17	2.748344E-18
7.351065E+03	7.576798E-17	2.722841E-18
7.360879E+03	7.508478E-17	2.696350E-18
7.370694E+03	7.437387E-17	2.668949E-18
7.380508E+03	7.363654E-17	2.640686E-18
7.390323E+03	7.287717E-17	2.611722E-18
7.400137E+03	7.209525E-17	2.582037E-18
7.409952E+03	7.129524E-17	2.551794E-18
7.419766E+03	7.047868E-17	2.521046E-18
7.429581E+03	6.964899E-17	2.489914E-18
7.439395E+03	6.880670E-17	2.458415E-18
7.449210E+03	6.795519E-17	2.426666E-18
7.459024E+03	6.709584E-17	2.394717E-18
7.468839E+03	6.623277E-17	2.362710E-18
7.478653E+03	6.536637E-17	2.330658E-18
7.488468E+03	6.449882E-17	2.298635E-18
7.498282E+03	6.363323E-17	2.266751E-18
7.508097E+03	6.277093E-17	2.235050E-18
7.517911E+03	6.191510E-17	2.203642E-18
7.527726E+03	6.106716E-17	2.172575E-18
7.537540E+03	6.023010E-17	2.141953E-18
7.547355E+03	5.940512E-17	2.111816E-18
7.557169E+03	5.859408E-17	2.082228E-18
7.566984E+03	5.779866E-17	2.053245E-18
7.576799E+03	5.702110E-17	2.024944E-18
7.586613E+03	5.626186E-17	1.997340E-18
7.596428E+03	5.552278E-17	1.970495E-18
7.606242E+03	5.480396E-17	1.944411E-18
7.616057E+03	5.410618E-17	1.919112E-18
