#wls	flux	fluxerr
1.570321E+03	1.524097E-18	1.047099E-19
1.609579E+03	1.546510E-18	1.062034E-19
1.648837E+03	1.570839E-18	1.078257E-19
1.688095E+03	1.596900E-18	1.095640E-19
1.727353E+03	1.625368E-18	1.114642E-19
1.766611E+03	1.656335E-18	1.135324E-19
1.805869E+03	1.689540E-18	1.157504E-19
1.845127E+03	1.725288E-18	1.181385E-19
1.884385E+03	1.763563E-18	1.206954E-19
1.923643E+03	1.804337E-18	1.234186E-19
1.962901E+03	1.847944E-18	1.263306E-19
2.002159E+03	1.894263E-18	1.294226E-19
2.041417E+03	1.944208E-18	1.327566E-19
2.080675E+03	1.999355E-18	1.364394E-19
2.119933E+03	2.061250E-18	1.405754E-19
2.159191E+03	2.132217E-18	1.453222E-19
2.198449E+03	2.213529E-18	1.507649E-19
2.237707E+03	2.305702E-18	1.569368E-19
2.276965E+03	2.408159E-18	1.637968E-19
2.316223E+03	2.520637E-18	1.713253E-19
2.355481E+03	2.642446E-18	1.794733E-19
2.394739E+03	2.774956E-18	1.883320E-19
2.433997E+03	2.917840E-18	1.978769E-19
2.473255E+03	3.072682E-18	2.082132E-19
2.512513E+03	3.240845E-18	2.194304E-19
2.551772E+03	3.423341E-18	2.315942E-19
2.591030E+03	3.622242E-18	2.448413E-19
2.630288E+03	3.838219E-18	2.592132E-19
2.669546E+03	4.074059E-18	2.748938E-19
2.708804E+03	4.331101E-18	2.919689E-19
2.748062E+03	4.611269E-18	3.105626E-19
2.787320E+03	4.917159E-18	3.308439E-19
2.826578E+03	5.250879E-18	3.529480E-19
2.865836E+03	5.615218E-18	3.770547E-19
2.905094E+03	6.013066E-18	4.033499E-19
2.944352E+03	6.447373E-18	4.320221E-19
2.954166E+03	6.561300E-18	4.395372E-19
2.963981E+03	6.678685E-18	4.472790E-19
2.973795E+03	6.798137E-18	4.551542E-19
2.983610E+03	6.920393E-18	4.632120E-19
2.993424E+03	7.044748E-18	4.714050E-19
3.003239E+03	7.172688E-18	4.798325E-19
3.013053E+03	7.302768E-18	4.883975E-19
3.022868E+03	7.435744E-18	4.971505E-19
3.032682E+03	7.571664E-18	5.060945E-19
3.042497E+03	7.710492E-18	5.152267E-19
3.052311E+03	7.852356E-18	5.245557E-19
3.062126E+03	7.997269E-18	5.340820E-19
3.071940E+03	8.145239E-18	5.438059E-19
3.081755E+03	8.296278E-18	5.537280E-19
3.091569E+03	8.451188E-18	5.639015E-19
3.101384E+03	8.609194E-18	5.742746E-19
3.111198E+03	8.769481E-18	5.847926E-19
3.121013E+03	8.934489E-18	5.956179E-19
3.130827E+03	9.101777E-18	6.065877E-19
3.140642E+03	9.273830E-18	6.178671E-19
3.150456E+03	9.448158E-18	6.292901E-19
3.160271E+03	9.626425E-18	6.409673E-19
3.170085E+03	9.808648E-18	6.528993E-19
3.179900E+03	9.993968E-18	6.650289E-19
3.189714E+03	1.018410E-17	6.774700E-19
3.199529E+03	1.037733E-17	6.901073E-19
3.209343E+03	1.057362E-17	7.029398E-19
3.219158E+03	1.077473E-17	7.160828E-19
3.228972E+03	1.097979E-17	7.294778E-19
3.238787E+03	1.118786E-17	7.430636E-19
3.248601E+03	1.140074E-17	7.569581E-19
3.258416E+03	1.161751E-17	7.711008E-19
3.268230E+03	1.183814E-17	7.854891E-19
3.278045E+03	1.206354E-17	8.001823E-19
3.287859E+03	1.229276E-17	8.151176E-19
3.297674E+03	1.252577E-17	8.302925E-19
3.307488E+03	1.276346E-17	8.457663E-19
3.317303E+03	1.300582E-17	8.615371E-19
3.327117E+03	1.325186E-17	8.775391E-19
3.336932E+03	1.350248E-17	8.938319E-19
3.346746E+03	1.375765E-17	9.104128E-19
3.356561E+03	1.401635E-17	9.272140E-19
3.366376E+03	1.428045E-17	9.443591E-19
3.376190E+03	1.454895E-17	9.617814E-19
3.386005E+03	1.482177E-17	9.794749E-19
3.395819E+03	1.509986E-17	9.975018E-19
3.405634E+03	1.538114E-17	1.015725E-18
3.415448E+03	1.566754E-17	1.034271E-18
3.425263E+03	1.595898E-17	1.053135E-18
3.435077E+03	1.625540E-17	1.072311E-18
3.444892E+03	1.655570E-17	1.091727E-18
3.454706E+03	1.686079E-17	1.111442E-18
3.464521E+03	1.717058E-17	1.131451E-18
3.474335E+03	1.748498E-17	1.151746E-18
3.484150E+03	1.780388E-17	1.172320E-18
3.493964E+03	1.812717E-17	1.193166E-18
3.503779E+03	1.845577E-17	1.214342E-18
3.513593E+03	1.878854E-17	1.235775E-18
3.523408E+03	1.912638E-17	1.257522E-18
3.533222E+03	1.946814E-17	1.279507E-18
3.543037E+03	1.981576E-17	1.301858E-18
3.552851E+03	2.016702E-17	1.324429E-18
3.562666E+03	2.052283E-17	1.347278E-18
3.572480E+03	2.088304E-17	1.370395E-18
3.582295E+03	2.124857E-17	1.393840E-18
3.592109E+03	2.161820E-17	1.417532E-18
3.601924E+03	2.199176E-17	1.441460E-18
3.611738E+03	2.237016E-17	1.465684E-18
3.621553E+03	2.275218E-17	1.490122E-18
3.631367E+03	2.313977E-17	1.514902E-18
3.641182E+03	2.353063E-17	1.539872E-18
3.650996E+03	2.392671E-17	1.565161E-18
3.660811E+03	2.432570E-17	1.590616E-18
3.670625E+03	2.472955E-17	1.616364E-18
3.680440E+03	2.513701E-17	1.642324E-18
3.690254E+03	2.554896E-17	1.668552E-18
3.700069E+03	2.596414E-17	1.694965E-18
3.709883E+03	2.638344E-17	1.721621E-18
3.719698E+03	2.680664E-17	1.748505E-18
3.729512E+03	2.723357E-17	1.775606E-18
3.739327E+03	2.766401E-17	1.802909E-18
3.749141E+03	2.809885E-17	1.830471E-18
3.758956E+03	2.853576E-17	1.858140E-18
3.768770E+03	2.897667E-17	1.886042E-18
3.778585E+03	2.942033E-17	1.914094E-18
3.788399E+03	2.986759E-17	1.942351E-18
3.798214E+03	3.031826E-17	1.970802E-18
3.808028E+03	3.077217E-17	1.999432E-18
3.817843E+03	3.122806E-17	2.028162E-18
3.827657E+03	3.168679E-17	2.057047E-18
3.837472E+03	3.214926E-17	2.086143E-18
3.847286E+03	3.261315E-17	2.115301E-18
3.857101E+03	3.308043E-17	2.144647E-18
3.866915E+03	3.354985E-17	2.174101E-18
3.876730E+03	3.402127E-17	2.203651E-18
3.886544E+03	3.449556E-17	2.233357E-18
3.896359E+03	3.497051E-17	2.263072E-18
3.906173E+03	3.544908E-17	2.292989E-18
3.915988E+03	3.592905E-17	2.322963E-18
3.925802E+03	3.641032E-17	2.352988E-18
3.935617E+03	3.689378E-17	2.383121E-18
3.945431E+03	3.737832E-17	2.413289E-18
3.955246E+03	3.786384E-17	2.443486E-18
3.965060E+03	3.835126E-17	2.473772E-18
3.974875E+03	3.884050E-17	2.504140E-18
3.984689E+03	3.932948E-17	2.534457E-18
3.994504E+03	3.982018E-17	2.564849E-18
4.004318E+03	4.031153E-17	2.595248E-18
4.014133E+03	4.080352E-17	2.625652E-18
4.023947E+03	4.129516E-17	2.655997E-18
4.033762E+03	4.178840E-17	2.686410E-18
4.043576E+03	4.228131E-17	2.716764E-18
4.053391E+03	4.277390E-17	2.747062E-18
4.063205E+03	4.326720E-17	2.777369E-18
4.073020E+03	4.375933E-17	2.807564E-18
4.082834E+03	4.425134E-17	2.837714E-18
4.092649E+03	4.474330E-17	2.867823E-18
4.102463E+03	4.523341E-17	2.897777E-18
4.112278E+03	4.572275E-17	2.927644E-18
4.122092E+03	4.621146E-17	2.957432E-18
4.131907E+03	4.669778E-17	2.987031E-18
4.141721E+03	4.718284E-17	3.016510E-18
4.151536E+03	4.766586E-17	3.045823E-18
4.161350E+03	4.814613E-17	3.074921E-18
4.171165E+03	4.862385E-17	3.103819E-18
4.180979E+03	4.909924E-17	3.132530E-18
4.190794E+03	4.957161E-17	3.161011E-18
4.200608E+03	5.004030E-17	3.189219E-18
4.210423E+03	5.050465E-17	3.217114E-18
4.220238E+03	5.096493E-17	3.244712E-18
4.230052E+03	5.142054E-17	3.271974E-18
4.239867E+03	5.187172E-17	3.298918E-18
4.249681E+03	5.231701E-17	3.325451E-18
4.259496E+03	5.275670E-17	3.351591E-18
4.269310E+03	5.319020E-17	3.377301E-18
4.279125E+03	5.361782E-17	3.402601E-18
4.288939E+03	5.403724E-17	3.427346E-18
4.298754E+03	5.445049E-17	3.451663E-18
4.308568E+03	5.485530E-17	3.475411E-18
4.318383E+03	5.525195E-17	3.498607E-18
4.328197E+03	5.563989E-17	3.521217E-18
4.338012E+03	5.601940E-17	3.543260E-18
4.347826E+03	5.638992E-17	3.564702E-18
4.357641E+03	5.675086E-17	3.585505E-18
4.367455E+03	5.710249E-17	3.605688E-18
4.377270E+03	5.744505E-17	3.625266E-18
4.387084E+03	5.777710E-17	3.644152E-18
4.396899E+03	5.809888E-17	3.662358E-18
4.406713E+03	5.841141E-17	3.679952E-18
4.416528E+03	5.871324E-17	3.696844E-18
4.426342E+03	5.900618E-17	3.713147E-18
4.436157E+03	5.928796E-17	3.728720E-18
4.445971E+03	5.956034E-17	3.743675E-18
4.455786E+03	5.982346E-17	3.758021E-18
4.465600E+03	6.007663E-17	3.771718E-18
4.475415E+03	6.031998E-17	3.784772E-18
4.485229E+03	6.055361E-17	3.797193E-18
4.495044E+03	6.077844E-17	3.809038E-18
4.504858E+03	6.099455E-17	3.820313E-18
4.514673E+03	6.120046E-17	3.830927E-18
4.524487E+03	6.139864E-17	3.841036E-18
4.534302E+03	6.158763E-17	3.850549E-18
4.544116E+03	6.176758E-17	3.859476E-18
4.553931E+03	6.193939E-17	3.867875E-18
4.563745E+03	6.210323E-17	3.875757E-18
4.573560E+03	6.225929E-17	3.883135E-18
4.583374E+03	6.240701E-17	3.889975E-18
4.593189E+03	6.254744E-17	3.896343E-18
4.603003E+03	6.268087E-17	3.902258E-18
4.612818E+03	6.280688E-17	3.907695E-18
4.622632E+03	6.292665E-17	3.912729E-18
4.632447E+03	6.304063E-17	3.917387E-18
4.642261E+03	6.314933E-17	3.921701E-18
4.652076E+03	6.325258E-17	3.925664E-18
4.661890E+03	6.335178E-17	3.929361E-18
4.671705E+03	6.344836E-17	3.932882E-18
4.681519E+03	6.354161E-17	3.936183E-18
4.691334E+03	6.363380E-17	3.939406E-18
4.701148E+03	6.372579E-17	3.942603E-18
4.710963E+03	6.381768E-17	3.945781E-18
4.720777E+03	6.391184E-17	3.949086E-18
4.730592E+03	6.400836E-17	3.952524E-18
4.740406E+03	6.410876E-17	3.956189E-18
4.750221E+03	6.421376E-17	3.960123E-18
4.760035E+03	6.432465E-17	3.964406E-18
4.769850E+03	6.444185E-17	3.969065E-18
4.779664E+03	6.456624E-17	3.974151E-18
4.789479E+03	6.469772E-17	3.979658E-18
4.799293E+03	6.483675E-17	3.985614E-18
4.809108E+03	6.498297E-17	3.991994E-18
4.818922E+03	6.513586E-17	3.998768E-18
4.828737E+03	6.529562E-17	4.005946E-18
4.838551E+03	6.546169E-17	4.013493E-18
4.848366E+03	6.563491E-17	4.021460E-18
4.858180E+03	6.581396E-17	4.029764E-18
4.867995E+03	6.599825E-17	4.038370E-18
4.877809E+03	6.618795E-17	4.047286E-18
4.887624E+03	6.638327E-17	4.056526E-18
4.897438E+03	6.658296E-17	4.066011E-18
4.907253E+03	6.678729E-17	4.075759E-18
4.917067E+03	6.699581E-17	4.085740E-18
4.926882E+03	6.720887E-17	4.095976E-18
4.936696E+03	6.742608E-17	4.106442E-18
4.946511E+03	6.764706E-17	4.117114E-18
4.956325E+03	6.787147E-17	4.127972E-18
4.966140E+03	6.809896E-17	4.138994E-18
4.975954E+03	6.832997E-17	4.150205E-18
4.985769E+03	6.856415E-17	4.161585E-18
4.995583E+03	6.880045E-17	4.173069E-18
5.005398E+03	6.904001E-17	4.184726E-18
5.015212E+03	6.928178E-17	4.196492E-18
5.025027E+03	6.952538E-17	4.208343E-18
5.034841E+03	6.977121E-17	4.220304E-18
5.044656E+03	7.001814E-17	4.232306E-18
5.054471E+03	7.026576E-17	4.244324E-18
5.064285E+03	7.051442E-17	4.256379E-18
5.074100E+03	7.076367E-17	4.268443E-18
5.083914E+03	7.101306E-17	4.280490E-18
5.093729E+03	7.126133E-17	4.292444E-18
5.103543E+03	7.150873E-17	4.304320E-18
5.113358E+03	7.175395E-17	4.316039E-18
5.123172E+03	7.199722E-17	4.327615E-18
5.132987E+03	7.223793E-17	4.339012E-18
5.142801E+03	7.247471E-17	4.350147E-18
5.152616E+03	7.270695E-17	4.360985E-18
5.162430E+03	7.293476E-17	4.371534E-18
5.172245E+03	7.315670E-17	4.381707E-18
5.182059E+03	7.337132E-17	4.391418E-18
5.191874E+03	7.357949E-17	4.400721E-18
5.201688E+03	7.377819E-17	4.409435E-18
5.211503E+03	7.396828E-17	4.417614E-18
5.221317E+03	7.414829E-17	4.425170E-18
5.231132E+03	7.431674E-17	4.432017E-18
5.240946E+03	7.447376E-17	4.438165E-18
5.250761E+03	7.461713E-17	4.443481E-18
5.260575E+03	7.474699E-17	4.447978E-18
5.270390E+03	7.486197E-17	4.451574E-18
5.280204E+03	7.496070E-17	4.454191E-18
5.290019E+03	7.504266E-17	4.455800E-18
5.299833E+03	7.510658E-17	4.456327E-18
5.309648E+03	7.515200E-17	4.455749E-18
5.319462E+03	7.517776E-17	4.453998E-18
5.329277E+03	7.518349E-17	4.451056E-18
5.339091E+03	7.516890E-17	4.446907E-18
5.348906E+03	7.513140E-17	4.441403E-18
5.358720E+03	7.507319E-17	4.434675E-18
5.368535E+03	7.499185E-17	4.426584E-18
5.378349E+03	7.488821E-17	4.417183E-18
5.388164E+03	7.476238E-17	4.406479E-18
5.397978E+03	7.461458E-17	4.394490E-18
5.407793E+03	7.444433E-17	4.381190E-18
5.417607E+03	7.425440E-17	4.366745E-18
5.427422E+03	7.404372E-17	4.351096E-18
5.437236E+03	7.381447E-17	4.334372E-18
5.447051E+03	7.356656E-17	4.316571E-18
5.456865E+03	7.330231E-17	4.297832E-18
5.466680E+03	7.302336E-17	4.278254E-18
5.476494E+03	7.273064E-17	4.257892E-18
5.486309E+03	7.242518E-17	4.236809E-18
5.496123E+03	7.210958E-17	4.215159E-18
5.505938E+03	7.178423E-17	4.192967E-18
5.515752E+03	7.145182E-17	4.170389E-18
5.525567E+03	7.111360E-17	4.147501E-18
5.535381E+03	7.077084E-17	4.124378E-18
5.545196E+03	7.042632E-17	4.101181E-18
5.555010E+03	7.007987E-17	4.077902E-18
5.564825E+03	6.973506E-17	4.054749E-18
5.574639E+03	6.939171E-17	4.031710E-18
5.584454E+03	6.905262E-17	4.008950E-18
5.594268E+03	6.871910E-17	3.986542E-18
5.604083E+03	6.839167E-17	3.964517E-18
5.613897E+03	6.807231E-17	3.942989E-18
5.623712E+03	6.776294E-17	3.922067E-18
5.633526E+03	6.746327E-17	3.901734E-18
5.643341E+03	6.717654E-17	3.882177E-18
5.653155E+03	6.690235E-17	3.863370E-18
5.662970E+03	6.664168E-17	3.845368E-18
5.672784E+03	6.639682E-17	3.828303E-18
5.682599E+03	6.616720E-17	3.812138E-18
5.692413E+03	6.595427E-17	3.796956E-18
5.702228E+03	6.575869E-17	3.782792E-18
5.712042E+03	6.558038E-17	3.769640E-18
5.721857E+03	6.542125E-17	3.757608E-18
5.731671E+03	6.528036E-17	3.746639E-18
5.741486E+03	6.515879E-17	3.736792E-18
5.751300E+03	6.505686E-17	3.728084E-18
5.761115E+03	6.497413E-17	3.720488E-18
5.770929E+03	6.491152E-17	3.714052E-18
5.780744E+03	6.486848E-17	3.708744E-18
5.790558E+03	6.484514E-17	3.704569E-18
5.800373E+03	6.484159E-17	3.701528E-18
5.810187E+03	6.485787E-17	3.699624E-18
5.820002E+03	6.489406E-17	3.698856E-18
5.829816E+03	6.495017E-17	3.699224E-18
5.839631E+03	6.502553E-17	3.700687E-18
5.849445E+03	6.512021E-17	3.703246E-18
5.859260E+03	6.523354E-17	3.706862E-18
5.869074E+03	6.536698E-17	3.711615E-18
5.878889E+03	6.551924E-17	3.717429E-18
5.888704E+03	6.569042E-17	3.724308E-18
5.898518E+03	6.588068E-17	3.732259E-18
5.908333E+03	6.608948E-17	3.741249E-18
5.918147E+03	6.631704E-17	3.751289E-18
5.927962E+03	6.656429E-17	3.762428E-18
5.937776E+03	6.683007E-17	3.774600E-18
5.947591E+03	6.711468E-17	3.787819E-18
5.957405E+03	6.741839E-17	3.802098E-18
5.967220E+03	6.774150E-17	3.817452E-18
5.977034E+03	6.808430E-17	3.833895E-18
5.986849E+03	6.844558E-17	3.851358E-18
5.996663E+03	6.882631E-17	3.869892E-18
6.006478E+03	6.922662E-17	3.889503E-18
6.016292E+03	6.964586E-17	3.910153E-18
6.026107E+03	7.008401E-17	3.931837E-18
6.035921E+03	7.054090E-17	3.954546E-18
6.045736E+03	7.101622E-17	3.978259E-18
6.055550E+03	7.150948E-17	4.002949E-18
6.065365E+03	7.201919E-17	4.028528E-18
6.075179E+03	7.254518E-17	4.054988E-18
6.084994E+03	7.308544E-17	4.082213E-18
6.094808E+03	7.363840E-17	4.110114E-18
6.104623E+03	7.420293E-17	4.138629E-18
6.114437E+03	7.477676E-17	4.167628E-18
6.124252E+03	7.535652E-17	4.196923E-18
6.134066E+03	7.593933E-17	4.226354E-18
6.143881E+03	7.652371E-17	4.255837E-18
6.153695E+03	7.710462E-17	4.285094E-18
6.163510E+03	7.767927E-17	4.313968E-18
6.173324E+03	7.824297E-17	4.342202E-18
6.183139E+03	7.879434E-17	4.369719E-18
6.192953E+03	7.932669E-17	4.396151E-18
6.202768E+03	7.983668E-17	4.421316E-18
6.212582E+03	8.032097E-17	4.445030E-18
6.222397E+03	8.077535E-17	4.467065E-18
6.232211E+03	8.119478E-17	4.487146E-18
6.242026E+03	8.157611E-17	4.505102E-18
6.251840E+03	8.191547E-17	4.520724E-18
6.261655E+03	8.220827E-17	4.533765E-18
6.271469E+03	8.245203E-17	4.544092E-18
6.281284E+03	8.264459E-17	4.551594E-18
6.291098E+03	8.278137E-17	4.556023E-18
6.300913E+03	8.286098E-17	4.557308E-18
6.310727E+03	8.288245E-17	4.555405E-18
6.320542E+03	8.284248E-17	4.550136E-18
6.330356E+03	8.274197E-17	4.541559E-18
6.340171E+03	8.257956E-17	4.529606E-18
6.349985E+03	8.235619E-17	4.514335E-18
6.359800E+03	8.207050E-17	4.495678E-18
6.369614E+03	8.172634E-17	4.473852E-18
6.379429E+03	8.132328E-17	4.448841E-18
6.389243E+03	8.086418E-17	4.420806E-18
6.399058E+03	8.035130E-17	4.389878E-18
6.408872E+03	7.978733E-17	4.356208E-18
6.418687E+03	7.917616E-17	4.320014E-18
6.428501E+03	7.852105E-17	4.281479E-18
6.438316E+03	7.782545E-17	4.240795E-18
6.448130E+03	7.709301E-17	4.198165E-18
6.457945E+03	7.632842E-17	4.153848E-18
6.467759E+03	7.553462E-17	4.108007E-18
6.477574E+03	7.471731E-17	4.060953E-18
6.487388E+03	7.388035E-17	4.012900E-18
6.497203E+03	7.302756E-17	3.964057E-18
6.507017E+03	7.216270E-17	3.914627E-18
6.516832E+03	7.128941E-17	3.864811E-18
6.526646E+03	7.041293E-17	3.814892E-18
6.536461E+03	6.953490E-17	3.764959E-18
6.546275E+03	6.866020E-17	3.715276E-18
6.556090E+03	6.779180E-17	3.666002E-18
6.565904E+03	6.693248E-17	3.617289E-18
6.575719E+03	6.608569E-17	3.569319E-18
6.585533E+03	6.525295E-17	3.522174E-18
6.595348E+03	6.443730E-17	3.476016E-18
6.605162E+03	6.364071E-17	3.430950E-18
6.614977E+03	6.286496E-17	3.387069E-18
6.624791E+03	6.211246E-17	3.344500E-18
6.634606E+03	6.138384E-17	3.303275E-18
6.644420E+03	6.068190E-17	3.263542E-18
6.654235E+03	6.000618E-17	3.225273E-18
6.664049E+03	5.935917E-17	3.188599E-18
6.673864E+03	5.874090E-17	3.153518E-18
6.683678E+03	5.815205E-17	3.120065E-18
6.693493E+03	5.759465E-17	3.088345E-18
6.703307E+03	5.706693E-17	3.058260E-18
6.713122E+03	5.657146E-17	3.029944E-18
6.722937E+03	5.610775E-17	3.003369E-18
6.732751E+03	5.567600E-17	2.978541E-18
6.742566E+03	5.527630E-17	2.955463E-18
6.752380E+03	5.490871E-17	2.934134E-18
6.762195E+03	5.457322E-17	2.914552E-18
6.772009E+03	5.427048E-17	2.896747E-18
6.781824E+03	5.399966E-17	2.880673E-18
6.791638E+03	5.376128E-17	2.866354E-18
6.801453E+03	5.355441E-17	2.853737E-18
6.811267E+03	5.337876E-17	2.842806E-18
6.821082E+03	5.323470E-17	2.833575E-18
6.830896E+03	5.312110E-17	2.825984E-18
6.840711E+03	5.303822E-17	2.820042E-18
6.850525E+03	5.298484E-17	2.815682E-18
6.860340E+03	5.296036E-17	2.812870E-18
6.870154E+03	5.296482E-17	2.811606E-18
6.879969E+03	5.299750E-17	2.811850E-18
6.889783E+03	5.305619E-17	2.813481E-18
6.899598E+03	5.314143E-17	2.816527E-18
6.909412E+03	5.325154E-17	2.820896E-18
6.919227E+03	5.338549E-17	2.826533E-18
6.929041E+03	5.354287E-17	2.833413E-18
6.938856E+03	5.372102E-17	2.841394E-18
6.948670E+03	5.391936E-17	2.850444E-18
6.958485E+03	5.413647E-17	2.860488E-18
6.968299E+03	5.437086E-17	2.871444E-18
6.978114E+03	5.462020E-17	2.883190E-18
6.987928E+03	5.488353E-17	2.895673E-18
6.997743E+03	5.515833E-17	2.908759E-18
7.007557E+03	5.544270E-17	2.922350E-18
7.017372E+03	5.573467E-17	2.936339E-18
7.027186E+03	5.603141E-17	2.950578E-18
7.037001E+03	5.633229E-17	2.965034E-18
7.046815E+03	5.663281E-17	2.979471E-18
7.056630E+03	5.693221E-17	2.993848E-18
7.066444E+03	5.722736E-17	3.008002E-18
7.076259E+03	5.751590E-17	3.021810E-18
7.086073E+03	5.779463E-17	3.035103E-18
7.095888E+03	5.806109E-17	3.047756E-18
7.105702E+03	5.831288E-17	3.059641E-18
7.115517E+03	5.854678E-17	3.070594E-18
7.125331E+03	5.876123E-17	3.080533E-18
7.135146E+03	5.895312E-17	3.089296E-18
7.144960E+03	5.911944E-17	3.096730E-18
7.154775E+03	5.925887E-17	3.102765E-18
7.164589E+03	5.936785E-17	3.107218E-18
7.174404E+03	5.944534E-17	3.110038E-18
7.184218E+03	5.948892E-17	3.111099E-18
7.194033E+03	5.949714E-17	3.110328E-18
7.203847E+03	5.946800E-17	3.107623E-18
7.213662E+03	5.940052E-17	3.102937E-18
7.223476E+03	5.929403E-17	3.096235E-18
7.233291E+03	5.914728E-17	3.087456E-18
7.243105E+03	5.896017E-17	3.076595E-18
7.252920E+03	5.873288E-17	3.063666E-18
7.262734E+03	5.846508E-17	3.048654E-18
7.272549E+03	5.815758E-17	3.031602E-18
7.282363E+03	5.781228E-17	3.012612E-18
7.292178E+03	5.742899E-17	2.991675E-18
7.301992E+03	5.701095E-17	2.968963E-18
7.311807E+03	5.655933E-17	2.944538E-18
7.321621E+03	5.607556E-17	2.918475E-18
7.331436E+03	5.556358E-17	2.890982E-18
7.341250E+03	5.502599E-17	2.862193E-18
7.351065E+03	5.446478E-17	2.832214E-18
7.360879E+03	5.388289E-17	2.801198E-18
7.370694E+03	5.328477E-17	2.769376E-18
7.380508E+03	5.267273E-17	2.736869E-18
7.390323E+03	5.205057E-17	2.703875E-18
7.400137E+03	5.142066E-17	2.670516E-18
7.409952E+03	5.078743E-17	2.637023E-18
7.419766E+03	5.015313E-17	2.603512E-18
7.429581E+03	4.952129E-17	2.570164E-18
7.439395E+03	4.889461E-17	2.537121E-18
7.449210E+03	4.827564E-17	2.504512E-18
7.459024E+03	4.766741E-17	2.472494E-18
7.468839E+03	4.707140E-17	2.441143E-18
7.478653E+03	4.649085E-17	2.410624E-18
7.488468E+03	4.592613E-17	2.380956E-18
7.498282E+03	4.537996E-17	2.352278E-18
7.508097E+03	4.485283E-17	2.324615E-18
7.517911E+03	4.434619E-17	2.298040E-18
7.527726E+03	4.385997E-17	2.272549E-18
7.537540E+03	4.339578E-17	2.248223E-18
7.547355E+03	4.295259E-17	2.225008E-18
7.557169E+03	4.253164E-17	2.202967E-18
7.566984E+03	4.213166E-17	2.182034E-18
7.576799E+03	4.175362E-17	2.162257E-18
7.586613E+03	4.139662E-17	2.143589E-18
7.596428E+03	4.106032E-17	2.126012E-18
7.606242E+03	4.074486E-17	2.109532E-18
7.616057E+03	4.044860E-17	2.094064E-18
