#wls	flux	fluxerr
1.570321E+03	2.531818E-18	1.333107E-19
1.609579E+03	2.592843E-18	1.364744E-19
1.648837E+03	2.657912E-18	1.398472E-19
1.688095E+03	2.726788E-18	1.434161E-19
1.727353E+03	2.800648E-18	1.472428E-19
1.766611E+03	2.879224E-18	1.513126E-19
1.805869E+03	2.963128E-18	1.556572E-19
1.845127E+03	3.052440E-18	1.602803E-19
1.884385E+03	3.146647E-18	1.651544E-19
1.923643E+03	3.246247E-18	1.703050E-19
1.962901E+03	3.351854E-18	1.757638E-19
2.002159E+03	3.463285E-18	1.815204E-19
2.041417E+03	3.582211E-18	1.876618E-19
2.080675E+03	3.710954E-18	1.943085E-19
2.119933E+03	3.853059E-18	2.016451E-19
2.159191E+03	4.012977E-18	2.099029E-19
2.198449E+03	4.193264E-18	2.192138E-19
2.237707E+03	4.394337E-18	2.295972E-19
2.276965E+03	4.615118E-18	2.409945E-19
2.316223E+03	4.855754E-18	2.534112E-19
2.355481E+03	5.114871E-18	2.667731E-19
2.394739E+03	5.392513E-18	2.810801E-19
2.433997E+03	5.690946E-18	2.964476E-19
2.473255E+03	6.011302E-18	3.129318E-19
2.512513E+03	6.354893E-18	3.305979E-19
2.551772E+03	6.724944E-18	3.496100E-19
2.591030E+03	7.122053E-18	3.699955E-19
2.630288E+03	7.548625E-18	3.918750E-19
2.669546E+03	8.008153E-18	4.154255E-19
2.708804E+03	8.501067E-18	4.406639E-19
2.748062E+03	9.031950E-18	4.678224E-19
2.787320E+03	9.601012E-18	4.969056E-19
2.826578E+03	1.021164E-17	5.280825E-19
2.865836E+03	1.086597E-17	5.614562E-19
2.905094E+03	1.156723E-17	5.971862E-19
2.944352E+03	1.231583E-17	6.352847E-19
2.954166E+03	1.251162E-17	6.452430E-19
2.963981E+03	1.270886E-17	6.552705E-19
2.973795E+03	1.291023E-17	6.655056E-19
2.983610E+03	1.311574E-17	6.759486E-19
2.993424E+03	1.332262E-17	6.864567E-19
3.003239E+03	1.353363E-17	6.971719E-19
3.013053E+03	1.374876E-17	7.080932E-19
3.022868E+03	1.396516E-17	7.190747E-19
3.032682E+03	1.418713E-17	7.303365E-19
3.042497E+03	1.441024E-17	7.416510E-19
3.052311E+03	1.463900E-17	7.532499E-19
3.062126E+03	1.486902E-17	7.649074E-19
3.071940E+03	1.510463E-17	7.768457E-19
3.081755E+03	1.534285E-17	7.889120E-19
3.091569E+03	1.558363E-17	8.011029E-19
3.101384E+03	1.582840E-17	8.134917E-19
3.111198E+03	1.607710E-17	8.260760E-19
3.121013E+03	1.632972E-17	8.388542E-19
3.130827E+03	1.658465E-17	8.517437E-19
3.140642E+03	1.684337E-17	8.648204E-19
3.150456E+03	1.710580E-17	8.780801E-19
3.160271E+03	1.737190E-17	8.915201E-19
3.170085E+03	1.764159E-17	9.051368E-19
3.179900E+03	1.791322E-17	9.188452E-19
3.189714E+03	1.818988E-17	9.328031E-19
3.199529E+03	1.846832E-17	9.468440E-19
3.209343E+03	1.875164E-17	9.611266E-19
3.219158E+03	1.903655E-17	9.754821E-19
3.228972E+03	1.932617E-17	9.900705E-19
3.238787E+03	1.961718E-17	1.004721E-18
3.248601E+03	1.991273E-17	1.019595E-18
3.258416E+03	2.021109E-17	1.034604E-18
3.268230E+03	2.051380E-17	1.049826E-18
3.278045E+03	2.081744E-17	1.065087E-18
3.287859E+03	2.112522E-17	1.080549E-18
3.297674E+03	2.143534E-17	1.096122E-18
3.307488E+03	2.174937E-17	1.111885E-18
3.317303E+03	2.206551E-17	1.127745E-18
3.327117E+03	2.238530E-17	1.143782E-18
3.336932E+03	2.270692E-17	1.159902E-18
3.346746E+03	2.303193E-17	1.176185E-18
3.356561E+03	2.335848E-17	1.192536E-18
3.366376E+03	2.368813E-17	1.209035E-18
3.376190E+03	2.402074E-17	1.225673E-18
3.386005E+03	2.435441E-17	1.242356E-18
3.395819E+03	2.469073E-17	1.259162E-18
3.405634E+03	2.502953E-17	1.276083E-18
3.415448E+03	2.537063E-17	1.293110E-18
3.425263E+03	2.571388E-17	1.310236E-18
3.435077E+03	2.605909E-17	1.327449E-18
3.444892E+03	2.640435E-17	1.344653E-18
3.454706E+03	2.675296E-17	1.362016E-18
3.464521E+03	2.710299E-17	1.379440E-18
3.474335E+03	2.745425E-17	1.396914E-18
3.484150E+03	2.780832E-17	1.414519E-18
3.493964E+03	2.816147E-17	1.432065E-18
3.503779E+03	2.851703E-17	1.449720E-18
3.513593E+03	2.887303E-17	1.467386E-18
3.523408E+03	2.923106E-17	1.485142E-18
3.533222E+03	2.958913E-17	1.502888E-18
3.543037E+03	2.994879E-17	1.520701E-18
3.552851E+03	3.030810E-17	1.538484E-18
3.562666E+03	3.066858E-17	1.556313E-18
3.572480E+03	3.102828E-17	1.574090E-18
3.582295E+03	3.138876E-17	1.591893E-18
3.592109E+03	3.174979E-17	1.609711E-18
3.601924E+03	3.210941E-17	1.627444E-18
3.611738E+03	3.247092E-17	1.645260E-18
3.621553E+03	3.283061E-17	1.662970E-18
3.631367E+03	3.319003E-17	1.680652E-18
3.641182E+03	3.354894E-17	1.698296E-18
3.650996E+03	3.390717E-17	1.715891E-18
3.660811E+03	3.426450E-17	1.733427E-18
3.670625E+03	3.462074E-17	1.750895E-18
3.680440E+03	3.497568E-17	1.768283E-18
3.690254E+03	3.533085E-17	1.785669E-18
3.700069E+03	3.568262E-17	1.802869E-18
3.709883E+03	3.603424E-17	1.820049E-18
3.719698E+03	3.638381E-17	1.837111E-18
3.729512E+03	3.673117E-17	1.854047E-18
3.739327E+03	3.707781E-17	1.870934E-18
3.749141E+03	3.742019E-17	1.887592E-18
3.758956E+03	3.776323E-17	1.904269E-18
3.768770E+03	3.810172E-17	1.920703E-18
3.778585E+03	3.843885E-17	1.937055E-18
3.788399E+03	3.877448E-17	1.953318E-18
3.798214E+03	3.910515E-17	1.969317E-18
3.808028E+03	3.943572E-17	1.985298E-18
3.817843E+03	3.976111E-17	2.001004E-18
3.827657E+03	4.008450E-17	2.016596E-18
3.837472E+03	4.040577E-17	2.032068E-18
3.847286E+03	4.072322E-17	2.047334E-18
3.857101E+03	4.103678E-17	2.062391E-18
3.866915E+03	4.134797E-17	2.077316E-18
3.876730E+03	4.165512E-17	2.092026E-18
3.886544E+03	4.195980E-17	2.106597E-18
3.896359E+03	4.225878E-17	2.120870E-18
3.906173E+03	4.255677E-17	2.135079E-18
3.915988E+03	4.284906E-17	2.148990E-18
3.925802E+03	4.313875E-17	2.162758E-18
3.935617E+03	4.342429E-17	2.176305E-18
3.945431E+03	4.370571E-17	2.189633E-18
3.955246E+03	4.398306E-17	2.202744E-18
3.965060E+03	4.425637E-17	2.215640E-18
3.974875E+03	4.452717E-17	2.228400E-18
3.984689E+03	4.479258E-17	2.240876E-18
3.994504E+03	4.505415E-17	2.253149E-18
4.004318E+03	4.531053E-17	2.265150E-18
4.014133E+03	4.556328E-17	2.276958E-18
4.023947E+03	4.581253E-17	2.288579E-18
4.033762E+03	4.605695E-17	2.299947E-18
4.043576E+03	4.629815E-17	2.311143E-18
4.053391E+03	4.653485E-17	2.322104E-18
4.063205E+03	4.676725E-17	2.332838E-18
4.073020E+03	4.699418E-17	2.343289E-18
4.082834E+03	4.721858E-17	2.353602E-18
4.092649E+03	4.743797E-17	2.363655E-18
4.102463E+03	4.765394E-17	2.373528E-18
4.112278E+03	4.786540E-17	2.383165E-18
4.122092E+03	4.807264E-17	2.392581E-18
4.131907E+03	4.827726E-17	2.401857E-18
4.141721E+03	4.847694E-17	2.410877E-18
4.151536E+03	4.867329E-17	2.419722E-18
4.161350E+03	4.886536E-17	2.428344E-18
4.171165E+03	4.905475E-17	2.436823E-18
4.180979E+03	4.924053E-17	2.445113E-18
4.190794E+03	4.942178E-17	2.453169E-18
4.200608E+03	4.960136E-17	2.461133E-18
4.210423E+03	4.977710E-17	2.468897E-18
4.220238E+03	4.994936E-17	2.476480E-18
4.230052E+03	5.011848E-17	2.483898E-18
4.239867E+03	5.028480E-17	2.491168E-18
4.249681E+03	5.044864E-17	2.498308E-18
4.259496E+03	5.060912E-17	2.505272E-18
4.269310E+03	5.076775E-17	2.512135E-18
4.279125E+03	5.092247E-17	2.518798E-18
4.288939E+03	5.107476E-17	2.525332E-18
4.298754E+03	5.122491E-17	2.531752E-18
4.308568E+03	5.137203E-17	2.538015E-18
4.318383E+03	5.151639E-17	2.544133E-18
4.328197E+03	5.165823E-17	2.550119E-18
4.338012E+03	5.179778E-17	2.555985E-18
4.347826E+03	5.193413E-17	2.561685E-18
4.357641E+03	5.206861E-17	2.567287E-18
4.367455E+03	5.220032E-17	2.572743E-18
4.377270E+03	5.232833E-17	2.578011E-18
4.387084E+03	5.245506E-17	2.583209E-18
4.396899E+03	5.257741E-17	2.588185E-18
4.406713E+03	5.269778E-17	2.593056E-18
4.416528E+03	5.281636E-17	2.597833E-18
4.426342E+03	5.293120E-17	2.602419E-18
4.436157E+03	5.304359E-17	2.606879E-18
4.445971E+03	5.315373E-17	2.611222E-18
4.455786E+03	5.326076E-17	2.615406E-18
4.465600E+03	5.336590E-17	2.619493E-18
4.475415E+03	5.346830E-17	2.623438E-18
4.485229E+03	5.356913E-17	2.627302E-18
4.495044E+03	5.366649E-17	2.630989E-18
4.504858E+03	5.376153E-17	2.634558E-18
4.514673E+03	5.385436E-17	2.638013E-18
4.524487E+03	5.394509E-17	2.641361E-18
4.534302E+03	5.403380E-17	2.644605E-18
4.544116E+03	5.411956E-17	2.647699E-18
4.553931E+03	5.420246E-17	2.650650E-18
4.563745E+03	5.428456E-17	2.653557E-18
4.573560E+03	5.436298E-17	2.656280E-18
4.583374E+03	5.443975E-17	2.658918E-18
4.593189E+03	5.451495E-17	2.661475E-18
4.603003E+03	5.458672E-17	2.663862E-18
4.612818E+03	5.465711E-17	2.666177E-18
4.622632E+03	5.472618E-17	2.668425E-18
4.632447E+03	5.479205E-17	2.670513E-18
4.642261E+03	5.485765E-17	2.672585E-18
4.652076E+03	5.492015E-17	2.674502E-18
4.661890E+03	5.498141E-17	2.676357E-18
4.671705E+03	5.504048E-17	2.678101E-18
4.681519E+03	5.509820E-17	2.679778E-18
4.691334E+03	5.515353E-17	2.681336E-18
4.701148E+03	5.520728E-17	2.682814E-18
4.710963E+03	5.525833E-17	2.684159E-18
4.720777E+03	5.530742E-17	2.685407E-18
4.730592E+03	5.535435E-17	2.686548E-18
4.740406E+03	5.539894E-17	2.687574E-18
4.750221E+03	5.544010E-17	2.688432E-18
4.760035E+03	5.547967E-17	2.689211E-18
4.769850E+03	5.551588E-17	2.689827E-18
4.779664E+03	5.555095E-17	2.690386E-18
4.789479E+03	5.558458E-17	2.690875E-18
4.799293E+03	5.561748E-17	2.691327E-18
4.809108E+03	5.565048E-17	2.691783E-18
4.818922E+03	5.568621E-17	2.692371E-18
4.828737E+03	5.572274E-17	2.692997E-18
4.838551E+03	5.576359E-17	2.693830E-18
4.848366E+03	5.580762E-17	2.694816E-18
4.858180E+03	5.585641E-17	2.696030E-18
4.867995E+03	5.591048E-17	2.697498E-18
4.877809E+03	5.597031E-17	2.699242E-18
4.887624E+03	5.603627E-17	2.701280E-18
4.897438E+03	5.610952E-17	2.703667E-18
4.907253E+03	5.618933E-17	2.706368E-18
4.917067E+03	5.627577E-17	2.709385E-18
4.926882E+03	5.636968E-17	2.712759E-18
4.936696E+03	5.647006E-17	2.716441E-18
4.946511E+03	5.657756E-17	2.720462E-18
4.956325E+03	5.669192E-17	2.724809E-18
4.966140E+03	5.681275E-17	2.729463E-18
4.975954E+03	5.693878E-17	2.734363E-18
4.985769E+03	5.707132E-17	2.739571E-18
4.995583E+03	5.720813E-17	2.744979E-18
5.005398E+03	5.735050E-17	2.750649E-18
5.015212E+03	5.749617E-17	2.756472E-18
5.025027E+03	5.764645E-17	2.762511E-18
5.034841E+03	5.780004E-17	2.768704E-18
5.044656E+03	5.795655E-17	2.775031E-18
5.054471E+03	5.811654E-17	2.781519E-18
5.064285E+03	5.827884E-17	2.788112E-18
5.074100E+03	5.844321E-17	2.794799E-18
5.083914E+03	5.860947E-17	2.801570E-18
5.093729E+03	5.877741E-17	2.808416E-18
5.103543E+03	5.894772E-17	2.815370E-18
5.113358E+03	5.911929E-17	2.822378E-18
5.123172E+03	5.929273E-17	2.829469E-18
5.132987E+03	5.946587E-17	2.836540E-18
5.142801E+03	5.964005E-17	2.843656E-18
5.152616E+03	5.981381E-17	2.850745E-18
5.162430E+03	5.998737E-17	2.857820E-18
5.172245E+03	6.015812E-17	2.864754E-18
5.182059E+03	6.032691E-17	2.871591E-18
5.191874E+03	6.049181E-17	2.878236E-18
5.201688E+03	6.065167E-17	2.884637E-18
5.211503E+03	6.080522E-17	2.890734E-18
5.221317E+03	6.095214E-17	2.896510E-18
5.231132E+03	6.108926E-17	2.901818E-18
5.240946E+03	6.121621E-17	2.906638E-18
5.250761E+03	6.133177E-17	2.910915E-18
5.260575E+03	6.143475E-17	2.914592E-18
5.270390E+03	6.152410E-17	2.917620E-18
5.280204E+03	6.159884E-17	2.919955E-18
5.290019E+03	6.165810E-17	2.921555E-18
5.299833E+03	6.170016E-17	2.922340E-18
5.309648E+03	6.172522E-17	2.922321E-18
5.319462E+03	6.173261E-17	2.921466E-18
5.329277E+03	6.172170E-17	2.919748E-18
5.339091E+03	6.169187E-17	2.917139E-18
5.348906E+03	6.164165E-17	2.913568E-18
5.358720E+03	6.157231E-17	2.909099E-18
5.368535E+03	6.148147E-17	2.903620E-18
5.378349E+03	6.136954E-17	2.897151E-18
5.388164E+03	6.123518E-17	2.889631E-18
5.397978E+03	6.107980E-17	2.881127E-18
5.407793E+03	6.090127E-17	2.871541E-18
5.417607E+03	6.070117E-17	2.860947E-18
5.427422E+03	6.047756E-17	2.849257E-18
5.437236E+03	6.023222E-17	2.836555E-18
5.447051E+03	5.996346E-17	2.822762E-18
5.456865E+03	5.967327E-17	2.807974E-18
5.466680E+03	5.936112E-17	2.792168E-18
5.476494E+03	5.902752E-17	2.775368E-18
5.486309E+03	5.867316E-17	2.757608E-18
5.496123E+03	5.829974E-17	2.738970E-18
5.505938E+03	5.790835E-17	2.719504E-18
5.515752E+03	5.749853E-17	2.699192E-18
5.525567E+03	5.707438E-17	2.678226E-18
5.535381E+03	5.663597E-17	2.656610E-18
5.545196E+03	5.618705E-17	2.634522E-18
5.555010E+03	5.572825E-17	2.611990E-18
5.564825E+03	5.526302E-17	2.589179E-18
5.574639E+03	5.479421E-17	2.566219E-18
5.584454E+03	5.432487E-17	2.543257E-18
5.594268E+03	5.385905E-17	2.520480E-18
5.604083E+03	5.339847E-17	2.497969E-18
5.613897E+03	5.294896E-17	2.475995E-18
5.623712E+03	5.251152E-17	2.454607E-18
5.633526E+03	5.209108E-17	2.434033E-18
5.643341E+03	5.169081E-17	2.414420E-18
5.653155E+03	5.131372E-17	2.395907E-18
5.662970E+03	5.096184E-17	2.378589E-18
5.672784E+03	5.063841E-17	2.362615E-18
5.682599E+03	5.034562E-17	2.348086E-18
5.692413E+03	5.008528E-17	2.335085E-18
5.702228E+03	4.985886E-17	2.323678E-18
5.712042E+03	4.966664E-17	2.313877E-18
5.721857E+03	4.951079E-17	2.305781E-18
5.731671E+03	4.939080E-17	2.299365E-18
5.741486E+03	4.930655E-17	2.294621E-18
5.751300E+03	4.925759E-17	2.291527E-18
5.761115E+03	4.924311E-17	2.290044E-18
5.770929E+03	4.926281E-17	2.290155E-18
5.780744E+03	4.931460E-17	2.291763E-18
5.790558E+03	4.939617E-17	2.294757E-18
5.800373E+03	4.950725E-17	2.299126E-18
5.810187E+03	4.964591E-17	2.304777E-18
5.820002E+03	4.980857E-17	2.311544E-18
5.829816E+03	4.999456E-17	2.319395E-18
5.839631E+03	5.020092E-17	2.328190E-18
5.849445E+03	5.042545E-17	2.337828E-18
5.859260E+03	5.066605E-17	2.348211E-18
5.869074E+03	5.092084E-17	2.359250E-18
5.878889E+03	5.118813E-17	2.370868E-18
5.888704E+03	5.146740E-17	2.383040E-18
5.898518E+03	5.175696E-17	2.395687E-18
5.908333E+03	5.205553E-17	2.408750E-18
5.918147E+03	5.236471E-17	2.422304E-18
5.927962E+03	5.268424E-17	2.436334E-18
5.937776E+03	5.301430E-17	2.450851E-18
5.947591E+03	5.335802E-17	2.465997E-18
5.957405E+03	5.371651E-17	2.481825E-18
5.967220E+03	5.409128E-17	2.498404E-18
5.977034E+03	5.448576E-17	2.515892E-18
5.986849E+03	5.490371E-17	2.534462E-18
5.996663E+03	5.534652E-17	2.554177E-18
6.006478E+03	5.581730E-17	2.575181E-18
6.016292E+03	5.632100E-17	2.597701E-18
6.026107E+03	5.685904E-17	2.621801E-18
6.035921E+03	5.743532E-17	2.647662E-18
6.045736E+03	5.805274E-17	2.675414E-18
6.055550E+03	5.871297E-17	2.705136E-18
6.065365E+03	5.941922E-17	2.736972E-18
6.075179E+03	6.017332E-17	2.771006E-18
6.084994E+03	6.097568E-17	2.807257E-18
6.094808E+03	6.182785E-17	2.845795E-18
6.104623E+03	6.272975E-17	2.886615E-18
6.114437E+03	6.367943E-17	2.929625E-18
6.124252E+03	6.467603E-17	2.974786E-18
6.134066E+03	6.571573E-17	3.021921E-18
6.143881E+03	6.679674E-17	3.070947E-18
6.153695E+03	6.791093E-17	3.121488E-18
6.163510E+03	6.905528E-17	3.173407E-18
6.173324E+03	7.022018E-17	3.226261E-18
6.183139E+03	7.139678E-17	3.279644E-18
6.192953E+03	7.257726E-17	3.333197E-18
6.202768E+03	7.374792E-17	3.386290E-18
6.212582E+03	7.489610E-17	3.438345E-18
6.222397E+03	7.601045E-17	3.488840E-18
6.232211E+03	7.707398E-17	3.536998E-18
6.242026E+03	7.807388E-17	3.582234E-18
6.251840E+03	7.899210E-17	3.623719E-18
6.261655E+03	7.981438E-17	3.660805E-18
6.271469E+03	8.052445E-17	3.692745E-18
6.281284E+03	8.111092E-17	3.719023E-18
6.291098E+03	8.156004E-17	3.739009E-18
6.300913E+03	8.186133E-17	3.752228E-18
6.310727E+03	8.200675E-17	3.758313E-18
6.320542E+03	8.199234E-17	3.757087E-18
6.330356E+03	8.181315E-17	3.748325E-18
6.340171E+03	8.147267E-17	3.732193E-18
6.349985E+03	8.097336E-17	3.708804E-18
6.359800E+03	8.032312E-17	3.678523E-18
6.369614E+03	7.952961E-17	3.641703E-18
6.379429E+03	7.860511E-17	3.598910E-18
6.389243E+03	7.756079E-17	3.550655E-18
6.399058E+03	7.641138E-17	3.497614E-18
6.408872E+03	7.517088E-17	3.440430E-18
6.418687E+03	7.385336E-17	3.379748E-18
6.428501E+03	7.247271E-17	3.316202E-18
6.438316E+03	7.104110E-17	3.250350E-18
6.448130E+03	6.957357E-17	3.182882E-18
6.457945E+03	6.808070E-17	3.114278E-18
6.467759E+03	6.657323E-17	3.045032E-18
6.477574E+03	6.506202E-17	2.975638E-18
6.487388E+03	6.355462E-17	2.906442E-18
6.497203E+03	6.205867E-17	2.837791E-18
6.507017E+03	6.058187E-17	2.770038E-18
6.516832E+03	5.912994E-17	2.703443E-18
6.526646E+03	5.770674E-17	2.638180E-18
6.536461E+03	5.631739E-17	2.574484E-18
6.546275E+03	5.496533E-17	2.512510E-18
6.556090E+03	5.365334E-17	2.452385E-18
6.565904E+03	5.238282E-17	2.394171E-18
6.575719E+03	5.115735E-17	2.338031E-18
6.585533E+03	4.997734E-17	2.283983E-18
6.595348E+03	4.884459E-17	2.232109E-18
6.605162E+03	4.775799E-17	2.182356E-18
6.614977E+03	4.671951E-17	2.134813E-18
6.624791E+03	4.572913E-17	2.089480E-18
6.634606E+03	4.478510E-17	2.046276E-18
6.644420E+03	4.388943E-17	2.005291E-18
6.654235E+03	4.304006E-17	1.966431E-18
6.664049E+03	4.223646E-17	1.929671E-18
6.673864E+03	4.147875E-17	1.895016E-18
6.683678E+03	4.076624E-17	1.862434E-18
6.693493E+03	4.009823E-17	1.831893E-18
6.703307E+03	3.947331E-17	1.803327E-18
6.713122E+03	3.889150E-17	1.776737E-18
6.722937E+03	3.835280E-17	1.752124E-18
6.732751E+03	3.785519E-17	1.729394E-18
6.742566E+03	3.739876E-17	1.708551E-18
6.752380E+03	3.698231E-17	1.689541E-18
6.762195E+03	3.660672E-17	1.672403E-18
6.772009E+03	3.627095E-17	1.657090E-18
6.781824E+03	3.597462E-17	1.643584E-18
6.791638E+03	3.571743E-17	1.631872E-18
6.801453E+03	3.549843E-17	1.621909E-18
6.811267E+03	3.531863E-17	1.613744E-18
6.821082E+03	3.517715E-17	1.607334E-18
6.830896E+03	3.507369E-17	1.602668E-18
6.840711E+03	3.500739E-17	1.599705E-18
6.850525E+03	3.497924E-17	1.598491E-18
6.860340E+03	3.498769E-17	1.598955E-18
6.870154E+03	3.503366E-17	1.601141E-18
6.879969E+03	3.511555E-17	1.604974E-18
6.889783E+03	3.523358E-17	1.610466E-18
6.899598E+03	3.538735E-17	1.617597E-18
6.909412E+03	3.557633E-17	1.626346E-18
6.919227E+03	3.579934E-17	1.636658E-18
6.929041E+03	3.605705E-17	1.648565E-18
6.938856E+03	3.634680E-17	1.661944E-18
6.948670E+03	3.666977E-17	1.676851E-18
6.958485E+03	3.702375E-17	1.693185E-18
6.968299E+03	3.740770E-17	1.710900E-18
6.978114E+03	3.782115E-17	1.729974E-18
6.987928E+03	3.826210E-17	1.750316E-18
6.997743E+03	3.872907E-17	1.771860E-18
7.007557E+03	3.922109E-17	1.794562E-18
7.017372E+03	3.973561E-17	1.818305E-18
7.027186E+03	4.027055E-17	1.842996E-18
7.037001E+03	4.082362E-17	1.868530E-18
7.046815E+03	4.139159E-17	1.894760E-18
7.056630E+03	4.197333E-17	1.921635E-18
7.066444E+03	4.256528E-17	1.948992E-18
7.076259E+03	4.316363E-17	1.976658E-18
7.086073E+03	4.376605E-17	2.004526E-18
7.095888E+03	4.436842E-17	2.032409E-18
7.105702E+03	4.496813E-17	2.060186E-18
7.115517E+03	4.556077E-17	2.087656E-18
7.125331E+03	4.614260E-17	2.114649E-18
7.135146E+03	4.671060E-17	2.141026E-18
7.144960E+03	4.725990E-17	2.166564E-18
7.154775E+03	4.778636E-17	2.191073E-18
7.164589E+03	4.828570E-17	2.214356E-18
7.174404E+03	4.875269E-17	2.236174E-18
7.184218E+03	4.918471E-17	2.256405E-18
7.194033E+03	4.957551E-17	2.274764E-18
7.203847E+03	4.992253E-17	2.291130E-18
7.213662E+03	5.021868E-17	2.305179E-18
7.223476E+03	5.046255E-17	2.316843E-18
7.233291E+03	5.064737E-17	2.325812E-18
7.243105E+03	5.077233E-17	2.332046E-18
7.252920E+03	5.083129E-17	2.335262E-18
7.262734E+03	5.082337E-17	2.335417E-18
7.272549E+03	5.074540E-17	2.332365E-18
7.282363E+03	5.059684E-17	2.326077E-18
7.292178E+03	5.037505E-17	2.316430E-18
7.301992E+03	5.008212E-17	2.303518E-18
7.311807E+03	4.971827E-17	2.287349E-18
7.321621E+03	4.928573E-17	2.268022E-18
7.331436E+03	4.878777E-17	2.245685E-18
7.341250E+03	4.822873E-17	2.220537E-18
7.351065E+03	4.761388E-17	2.192816E-18
7.360879E+03	4.694928E-17	2.162800E-18
7.370694E+03	4.624160E-17	2.130793E-18
7.380508E+03	4.549793E-17	2.097121E-18
7.390323E+03	4.472554E-17	2.062117E-18
7.400137E+03	4.393092E-17	2.026078E-18
7.409952E+03	4.312290E-17	1.989410E-18
7.419766E+03	4.230675E-17	1.952356E-18
7.429581E+03	4.149063E-17	1.915291E-18
7.439395E+03	4.067906E-17	1.878423E-18
7.449210E+03	3.987845E-17	1.842048E-18
7.459024E+03	3.909392E-17	1.806402E-18
7.468839E+03	3.832999E-17	1.771695E-18
7.478653E+03	3.758991E-17	1.738075E-18
7.488468E+03	3.687848E-17	1.705767E-18
7.498282E+03	3.619694E-17	1.674828E-18
7.508097E+03	3.554769E-17	1.645370E-18
7.517911E+03	3.493139E-17	1.617424E-18
7.527726E+03	3.434816E-17	1.590998E-18
7.537540E+03	3.379708E-17	1.566049E-18
7.547355E+03	3.327896E-17	1.542616E-18
7.557169E+03	3.279181E-17	1.520610E-18
7.566984E+03	3.233544E-17	1.500020E-18
7.576799E+03	3.190888E-17	1.480805E-18
7.586613E+03	3.151050E-17	1.462889E-18
7.596428E+03	3.114041E-17	1.446278E-18
7.606242E+03	3.079624E-17	1.430865E-18
7.616057E+03	3.047742E-17	1.416623E-18
