#wls	flux	fluxerr
1.570321E+03	4.546876E-18	2.640853E-19
1.609579E+03	4.720751E-18	2.739520E-19
1.648837E+03	4.904357E-18	2.843601E-19
1.688095E+03	5.100910E-18	2.954937E-19
1.727353E+03	5.309469E-18	3.072954E-19
1.766611E+03	5.530662E-18	3.197990E-19
1.805869E+03	5.766882E-18	3.331396E-19
1.845127E+03	6.017664E-18	3.472868E-19
1.884385E+03	6.283319E-18	3.622551E-19
1.923643E+03	6.564070E-18	3.780535E-19
1.962901E+03	6.861372E-18	3.947618E-19
2.002159E+03	7.175109E-18	4.123689E-19
2.041417E+03	7.508956E-18	4.310815E-19
2.080675E+03	7.868113E-18	4.511922E-19
2.119933E+03	8.259265E-18	4.730775E-19
2.159191E+03	8.693851E-18	4.973836E-19
2.198449E+03	9.176849E-18	5.243841E-19
2.237707E+03	9.711398E-18	5.542458E-19
2.276965E+03	1.029433E-17	5.867743E-19
2.316223E+03	1.092636E-17	6.219982E-19
2.355481E+03	1.160295E-17	6.596437E-19
2.394739E+03	1.232763E-17	6.998997E-19
2.433997E+03	1.310010E-17	7.427332E-19
2.473255E+03	1.392435E-17	7.883558E-19
2.512513E+03	1.480295E-17	8.368962E-19
2.551772E+03	1.574070E-17	8.886073E-19
2.591030E+03	1.673802E-17	9.434929E-19
2.630288E+03	1.779947E-17	1.001790E-18
2.669546E+03	1.892963E-17	1.063733E-18
2.708804E+03	2.012772E-17	1.129256E-18
2.748062E+03	2.139740E-17	1.198537E-18
2.787320E+03	2.273920E-17	1.271581E-18
2.826578E+03	2.415577E-17	1.348508E-18
2.865836E+03	2.564289E-17	1.429055E-18
2.905094E+03	2.720790E-17	1.513601E-18
2.944352E+03	2.884116E-17	1.601581E-18
2.954166E+03	2.925871E-17	1.624029E-18
2.963981E+03	2.968187E-17	1.646765E-18
2.973795E+03	3.011058E-17	1.669783E-18
2.983610E+03	3.054120E-17	1.692883E-18
2.993424E+03	3.097718E-17	1.716253E-18
3.003239E+03	3.141482E-17	1.739690E-18
3.013053E+03	3.185760E-17	1.763386E-18
3.022868E+03	3.230543E-17	1.787335E-18
3.032682E+03	3.275460E-17	1.811331E-18
3.042497E+03	3.320841E-17	1.835556E-18
3.052311E+03	3.366722E-17	1.860030E-18
3.062126E+03	3.412708E-17	1.884534E-18
3.071940E+03	3.459156E-17	1.909265E-18
3.081755E+03	3.505663E-17	1.934001E-18
3.091569E+03	3.552983E-17	1.959156E-18
3.101384E+03	3.600322E-17	1.984292E-18
3.111198E+03	3.647652E-17	2.009394E-18
3.121013E+03	3.695343E-17	2.034666E-18
3.130827E+03	3.743377E-17	2.060096E-18
3.140642E+03	3.791733E-17	2.085673E-18
3.150456E+03	3.840389E-17	2.111384E-18
3.160271E+03	3.888914E-17	2.136993E-18
3.170085E+03	3.937690E-17	2.162709E-18
3.179900E+03	3.986279E-17	2.188291E-18
3.189714E+03	4.035067E-17	2.213951E-18
3.199529E+03	4.084449E-17	2.239905E-18
3.209343E+03	4.133139E-17	2.265448E-18
3.219158E+03	4.182374E-17	2.291258E-18
3.228972E+03	4.231278E-17	2.316854E-18
3.238787E+03	4.280675E-17	2.342689E-18
3.248601E+03	4.329684E-17	2.368278E-18
3.258416E+03	4.378267E-17	2.393602E-18
3.268230E+03	4.427261E-17	2.419118E-18
3.278045E+03	4.475768E-17	2.444336E-18
3.287859E+03	4.524193E-17	2.469475E-18
3.297674E+03	4.572502E-17	2.494520E-18
3.307488E+03	4.620666E-17	2.519452E-18
3.317303E+03	4.668654E-17	2.544256E-18
3.327117E+03	4.715987E-17	2.568670E-18
3.336932E+03	4.763076E-17	2.592918E-18
3.346746E+03	4.809888E-17	2.616983E-18
3.356561E+03	4.856392E-17	2.640849E-18
3.366376E+03	4.902552E-17	2.664495E-18
3.376190E+03	4.948337E-17	2.687904E-18
3.386005E+03	4.993712E-17	2.711059E-18
3.395819E+03	5.038191E-17	2.733696E-18
3.405634E+03	5.082192E-17	2.756042E-18
3.415448E+03	5.125681E-17	2.778078E-18
3.425263E+03	5.169080E-17	2.800035E-18
3.435077E+03	5.210990E-17	2.821154E-18
3.444892E+03	5.252743E-17	2.842157E-18
3.454706E+03	5.293853E-17	2.862782E-18
3.464521E+03	5.334285E-17	2.883011E-18
3.474335E+03	5.373551E-17	2.902580E-18
3.484150E+03	5.412533E-17	2.921966E-18
3.493964E+03	5.450285E-17	2.940659E-18
3.503779E+03	5.487692E-17	2.959138E-18
3.513593E+03	5.523810E-17	2.976893E-18
3.523408E+03	5.559065E-17	2.994156E-18
3.533222E+03	5.593432E-17	3.010914E-18
3.543037E+03	5.626880E-17	3.027151E-18
3.552851E+03	5.659386E-17	3.042855E-18
3.562666E+03	5.690921E-17	3.058012E-18
3.572480E+03	5.721011E-17	3.072368E-18
3.582295E+03	5.750537E-17	3.086396E-18
3.592109E+03	5.779025E-17	3.099844E-18
3.601924E+03	5.806002E-17	3.112459E-18
3.611738E+03	5.832351E-17	3.124716E-18
3.621553E+03	5.857155E-17	3.136123E-18
3.631367E+03	5.881295E-17	3.147153E-18
3.641182E+03	5.903860E-17	3.157322E-18
3.650996E+03	5.925286E-17	3.166861E-18
3.660811E+03	5.945560E-17	3.175766E-18
3.670625E+03	5.964672E-17	3.184034E-18
3.680440E+03	5.982615E-17	3.191660E-18
3.690254E+03	5.999380E-17	3.198642E-18
3.700069E+03	6.014531E-17	3.204748E-18
3.709883E+03	6.028931E-17	3.210440E-18
3.719698E+03	6.042144E-17	3.215486E-18
3.729512E+03	6.053746E-17	3.219661E-18
3.739327E+03	6.064169E-17	3.223198E-18
3.749141E+03	6.073417E-17	3.226099E-18
3.758956E+03	6.081497E-17	3.228370E-18
3.768770E+03	6.088416E-17	3.230015E-18
3.778585E+03	6.094185E-17	3.231041E-18
3.788399E+03	6.098406E-17	3.231239E-18
3.798214E+03	6.101914E-17	3.231052E-18
3.808028E+03	6.103910E-17	3.230059E-18
3.817843E+03	6.104821E-17	3.228487E-18
3.827657E+03	6.104665E-17	3.226346E-18
3.837472E+03	6.103069E-17	3.223441E-18
3.847286E+03	6.100457E-17	3.219997E-18
3.857101E+03	6.097244E-17	3.216234E-18
3.866915E+03	6.092288E-17	3.211551E-18
3.876730E+03	6.086785E-17	3.206579E-18
3.886544E+03	6.079996E-17	3.200930E-18
3.896359E+03	6.072339E-17	3.194826E-18
3.906173E+03	6.063847E-17	3.188285E-18
3.915988E+03	6.054185E-17	3.181131E-18
3.925802E+03	6.043763E-17	3.173582E-18
3.935617E+03	6.032620E-17	3.165659E-18
3.945431E+03	6.020435E-17	3.157194E-18
3.955246E+03	6.007614E-17	3.148402E-18
3.965060E+03	5.993845E-17	3.139118E-18
3.974875E+03	5.979528E-17	3.129556E-18
3.984689E+03	5.964364E-17	3.119557E-18
3.994504E+03	5.948744E-17	3.109328E-18
4.004318E+03	5.932716E-17	3.098894E-18
4.014133E+03	5.915990E-17	3.088105E-18
4.023947E+03	5.898621E-17	3.076990E-18
4.033762E+03	5.880995E-17	3.065751E-18
4.043576E+03	5.862834E-17	3.054243E-18
4.053391E+03	5.844516E-17	3.042665E-18
4.063205E+03	5.825453E-17	3.030710E-18
4.073020E+03	5.806657E-17	3.018905E-18
4.082834E+03	5.787231E-17	3.006785E-18
4.092649E+03	5.767860E-17	2.994706E-18
4.102463E+03	5.748285E-17	2.982533E-18
4.112278E+03	5.728565E-17	2.970297E-18
4.122092E+03	5.709052E-17	2.958182E-18
4.131907E+03	5.689204E-17	2.945905E-18
4.141721E+03	5.669670E-17	2.933804E-18
4.151536E+03	5.650205E-17	2.921752E-18
4.161350E+03	5.630863E-17	2.909776E-18
4.171165E+03	5.611411E-17	2.897758E-18
4.180979E+03	5.592472E-17	2.886016E-18
4.190794E+03	5.573808E-17	2.874430E-18
4.200608E+03	5.555468E-17	2.863023E-18
4.210423E+03	5.537498E-17	2.851821E-18
4.220238E+03	5.519942E-17	2.840844E-18
4.230052E+03	5.502578E-17	2.829978E-18
4.239867E+03	5.485985E-17	2.819520E-18
4.249681E+03	5.469665E-17	2.809216E-18
4.259496E+03	5.453928E-17	2.799222E-18
4.269310E+03	5.438807E-17	2.789557E-18
4.279125E+03	5.424078E-17	2.780104E-18
4.288939E+03	5.410033E-17	2.771012E-18
4.298754E+03	5.396700E-17	2.762296E-18
4.308568E+03	5.383856E-17	2.753840E-18
4.318383E+03	5.371777E-17	2.745786E-18
4.328197E+03	5.360485E-17	2.738144E-18
4.338012E+03	5.349755E-17	2.730798E-18
4.347826E+03	5.339851E-17	2.723883E-18
4.357641E+03	5.330548E-17	2.717283E-18
4.367455E+03	5.322099E-17	2.711127E-18
4.377270E+03	5.314278E-17	2.705299E-18
4.387084E+03	5.307099E-17	2.699804E-18
4.396899E+03	5.300803E-17	2.694766E-18
4.406713E+03	5.295159E-17	2.690066E-18
4.416528E+03	5.290174E-17	2.685708E-18
4.426342E+03	5.286078E-17	2.681807E-18
4.436157E+03	5.282640E-17	2.678245E-18
4.445971E+03	5.279857E-17	2.675021E-18
4.455786E+03	5.277949E-17	2.672245E-18
4.465600E+03	5.276458E-17	2.669685E-18
4.475415E+03	5.275823E-17	2.667563E-18
4.485229E+03	5.275809E-17	2.665759E-18
4.495044E+03	5.276402E-17	2.664264E-18
4.504858E+03	5.277803E-17	2.663182E-18
4.514673E+03	5.279558E-17	2.662282E-18
4.524487E+03	5.281867E-17	2.661663E-18
4.534302E+03	5.284708E-17	2.661316E-18
4.544116E+03	5.288271E-17	2.661335E-18
4.553931E+03	5.292101E-17	2.661491E-18
4.563745E+03	5.296600E-17	2.661985E-18
4.573560E+03	5.301310E-17	2.662589E-18
4.583374E+03	5.306416E-17	2.663393E-18
4.593189E+03	5.312099E-17	2.664489E-18
4.603003E+03	5.317899E-17	2.665645E-18
4.612818E+03	5.323994E-17	2.666952E-18
4.622632E+03	5.330349E-17	2.668391E-18
4.632447E+03	5.336926E-17	2.669943E-18
4.642261E+03	5.343477E-17	2.671485E-18
4.652076E+03	5.350382E-17	2.673207E-18
4.661890E+03	5.357183E-17	2.674878E-18
4.671705E+03	5.364253E-17	2.676687E-18
4.681519E+03	5.371136E-17	2.678406E-18
4.691334E+03	5.377791E-17	2.680014E-18
4.701148E+03	5.384584E-17	2.681694E-18
4.710963E+03	5.391265E-17	2.683322E-18
4.720777E+03	5.397583E-17	2.684774E-18
4.730592E+03	5.403696E-17	2.686128E-18
4.740406E+03	5.409561E-17	2.687364E-18
4.750221E+03	5.414928E-17	2.688358E-18
4.760035E+03	5.420162E-17	2.689291E-18
4.769850E+03	5.424827E-17	2.689949E-18
4.779664E+03	5.429155E-17	2.690446E-18
4.789479E+03	5.433223E-17	2.690821E-18
4.799293E+03	5.436908E-17	2.691013E-18
4.809108E+03	5.440496E-17	2.691164E-18
4.818922E+03	5.444067E-17	2.691313E-18
4.828737E+03	5.447699E-17	2.691499E-18
4.838551E+03	5.451270E-17	2.691661E-18
4.848366E+03	5.455048E-17	2.691933E-18
4.858180E+03	5.459102E-17	2.692346E-18
4.867995E+03	5.463490E-17	2.692931E-18
4.877809E+03	5.468073E-17	2.693617E-18
4.887624E+03	5.473097E-17	2.694526E-18
4.897438E+03	5.478607E-17	2.695680E-18
4.907253E+03	5.484641E-17	2.697095E-18
4.917067E+03	5.491034E-17	2.698693E-18
4.926882E+03	5.498204E-17	2.700675E-18
4.936696E+03	5.505779E-17	2.702861E-18
4.946511E+03	5.513773E-17	2.705256E-18
4.956325E+03	5.522586E-17	2.708055E-18
4.966140E+03	5.531827E-17	2.711067E-18
4.975954E+03	5.541687E-17	2.714384E-18
4.985769E+03	5.552159E-17	2.718003E-18
4.995583E+03	5.563031E-17	2.721820E-18
5.005398E+03	5.574675E-17	2.726015E-18
5.015212E+03	5.586673E-17	2.730384E-18
5.025027E+03	5.599193E-17	2.735009E-18
5.034841E+03	5.612200E-17	2.739871E-18
5.044656E+03	5.625457E-17	2.744856E-18
5.054471E+03	5.639313E-17	2.750133E-18
5.064285E+03	5.653327E-17	2.755487E-18
5.074100E+03	5.667642E-17	2.760986E-18
5.083914E+03	5.682200E-17	2.766604E-18
5.093729E+03	5.696938E-17	2.772308E-18
5.103543E+03	5.711592E-17	2.777970E-18
5.113358E+03	5.726288E-17	2.783652E-18
5.123172E+03	5.741145E-17	2.789411E-18
5.132987E+03	5.755690E-17	2.795018E-18
5.142801E+03	5.770034E-17	2.800526E-18
5.152616E+03	5.784088E-17	2.805892E-18
5.162430E+03	5.797561E-17	2.810977E-18
5.172245E+03	5.810752E-17	2.815924E-18
5.182059E+03	5.823364E-17	2.820591E-18
5.191874E+03	5.835097E-17	2.824832E-18
5.201688E+03	5.846044E-17	2.828694E-18
5.211503E+03	5.856298E-17	2.832222E-18
5.221317E+03	5.865354E-17	2.835171E-18
5.231132E+03	5.873304E-17	2.837588E-18
5.240946E+03	5.880041E-17	2.839422E-18
5.250761E+03	5.885458E-17	2.840622E-18
5.260575E+03	5.889452E-17	2.841138E-18
5.270390E+03	5.891920E-17	2.840924E-18
5.280204E+03	5.892763E-17	2.839931E-18
5.290019E+03	5.891887E-17	2.838116E-18
5.299833E+03	5.889201E-17	2.835436E-18
5.309648E+03	5.884622E-17	2.831853E-18
5.319462E+03	5.877872E-17	2.827233E-18
5.329277E+03	5.869275E-17	2.821735E-18
5.339091E+03	5.858569E-17	2.815234E-18
5.348906E+03	5.845697E-17	2.807703E-18
5.358720E+03	5.830614E-17	2.799124E-18
5.368535E+03	5.813283E-17	2.789477E-18
5.378349E+03	5.793674E-17	2.778753E-18
5.388164E+03	5.771967E-17	2.767039E-18
5.397978E+03	5.747769E-17	2.754146E-18
5.407793E+03	5.721282E-17	2.740174E-18
5.417607E+03	5.692717E-17	2.725226E-18
5.427422E+03	5.661724E-17	2.709134E-18
5.437236E+03	5.628730E-17	2.692105E-18
5.447051E+03	5.593601E-17	2.674076E-18
5.456865E+03	5.556413E-17	2.655085E-18
5.466680E+03	5.517252E-17	2.635174E-18
5.476494E+03	5.476217E-17	2.614391E-18
5.486309E+03	5.433424E-17	2.592793E-18
5.496123E+03	5.389178E-17	2.570527E-18
5.505938E+03	5.343439E-17	2.547574E-18
5.515752E+03	5.296359E-17	2.524007E-18
5.525567E+03	5.248100E-17	2.499905E-18
5.535381E+03	5.198838E-17	2.475352E-18
5.545196E+03	5.148929E-17	2.450518E-18
5.555010E+03	5.098387E-17	2.425409E-18
5.564825E+03	5.047414E-17	2.400122E-18
5.574639E+03	4.996209E-17	2.374753E-18
5.584454E+03	4.945145E-17	2.349477E-18
5.594268E+03	4.894260E-17	2.324314E-18
5.604083E+03	4.843762E-17	2.299361E-18
5.613897E+03	4.794015E-17	2.274790E-18
5.623712E+03	4.744895E-17	2.250543E-18
5.633526E+03	4.697075E-17	2.226939E-18
5.643341E+03	4.650265E-17	2.203837E-18
5.653155E+03	4.604956E-17	2.181472E-18
5.662970E+03	4.561160E-17	2.159847E-18
5.672784E+03	4.519186E-17	2.139108E-18
5.682599E+03	4.478879E-17	2.119179E-18
5.692413E+03	4.440823E-17	2.100337E-18
5.702228E+03	4.404692E-17	2.082426E-18
5.712042E+03	4.371039E-17	2.065707E-18
5.721857E+03	4.339524E-17	2.050016E-18
5.731671E+03	4.310526E-17	2.035532E-18
5.741486E+03	4.283979E-17	2.022222E-18
5.751300E+03	4.260093E-17	2.010185E-18
5.761115E+03	4.238926E-17	1.999445E-18
5.770929E+03	4.220243E-17	1.989891E-18
5.780744E+03	4.204515E-17	1.981743E-18
5.790558E+03	4.191353E-17	1.974817E-18
5.800373E+03	4.181077E-17	1.969262E-18
5.810187E+03	4.173712E-17	1.965088E-18
5.820002E+03	4.169145E-17	1.962242E-18
5.829816E+03	4.167543E-17	1.960799E-18
5.839631E+03	4.168789E-17	1.960704E-18
5.849445E+03	4.173051E-17	1.962035E-18
5.859260E+03	4.180215E-17	1.964736E-18
5.869074E+03	4.190453E-17	1.968887E-18
5.878889E+03	4.203797E-17	1.974502E-18
5.888704E+03	4.220145E-17	1.981532E-18
5.898518E+03	4.239537E-17	1.989995E-18
5.908333E+03	4.262306E-17	2.000045E-18
5.918147E+03	4.288074E-17	2.011504E-18
5.927962E+03	4.317331E-17	2.024600E-18
5.937776E+03	4.349850E-17	2.039227E-18
5.947591E+03	4.385695E-17	2.055413E-18
5.957405E+03	4.425234E-17	2.073330E-18
5.967220E+03	4.468243E-17	2.092872E-18
5.977034E+03	4.514795E-17	2.114071E-18
5.986849E+03	4.565117E-17	2.137033E-18
5.996663E+03	4.619283E-17	2.161792E-18
6.006478E+03	4.677367E-17	2.188381E-18
6.016292E+03	4.739269E-17	2.216753E-18
6.026107E+03	4.805203E-17	2.247007E-18
6.035921E+03	4.875042E-17	2.279084E-18
6.045736E+03	4.949139E-17	2.313147E-18
6.055550E+03	5.027157E-17	2.349037E-18
6.065365E+03	5.109228E-17	2.386817E-18
6.075179E+03	5.195101E-17	2.426368E-18
6.084994E+03	5.284826E-17	2.467714E-18
6.094808E+03	5.378212E-17	2.510766E-18
6.104623E+03	5.474997E-17	2.555399E-18
6.114437E+03	5.574648E-17	2.601367E-18
6.124252E+03	5.676945E-17	2.648565E-18
6.134066E+03	5.781412E-17	2.696772E-18
6.143881E+03	5.887505E-17	2.745734E-18
6.153695E+03	5.994616E-17	2.795168E-18
6.163510E+03	6.101859E-17	2.844661E-18
6.173324E+03	6.208705E-17	2.893968E-18
6.183139E+03	6.314365E-17	2.942721E-18
6.192953E+03	6.418000E-17	2.990531E-18
6.202768E+03	6.518733E-17	3.036990E-18
6.212582E+03	6.615422E-17	3.081567E-18
6.222397E+03	6.707361E-17	3.123936E-18
6.232211E+03	6.793615E-17	3.163661E-18
6.242026E+03	6.873258E-17	3.200315E-18
6.251840E+03	6.945390E-17	3.233479E-18
6.261655E+03	7.009151E-17	3.262755E-18
6.271469E+03	7.063742E-17	3.287772E-18
6.281284E+03	7.108186E-17	3.308079E-18
6.291098E+03	7.142351E-17	3.323615E-18
6.300913E+03	7.165207E-17	3.333902E-18
6.310727E+03	7.176594E-17	3.338869E-18
6.320542E+03	7.176229E-17	3.338384E-18
6.330356E+03	7.164216E-17	3.332499E-18
6.340171E+03	7.140036E-17	3.320972E-18
6.349985E+03	7.104066E-17	3.303979E-18
6.359800E+03	7.056312E-17	3.281526E-18
6.369614E+03	6.997658E-17	3.254024E-18
6.379429E+03	6.928351E-17	3.221588E-18
6.389243E+03	6.848995E-17	3.184499E-18
6.399058E+03	6.760284E-17	3.143080E-18
6.408872E+03	6.662984E-17	3.097688E-18
6.418687E+03	6.557924E-17	3.048707E-18
6.428501E+03	6.445742E-17	2.996434E-18
6.438316E+03	6.327796E-17	2.941501E-18
6.448130E+03	6.204760E-17	2.884218E-18
6.457945E+03	6.077532E-17	2.825004E-18
6.467759E+03	5.946999E-17	2.764270E-18
6.477574E+03	5.814016E-17	2.702413E-18
6.487388E+03	5.679401E-17	2.639812E-18
6.497203E+03	5.543929E-17	2.576826E-18
6.507017E+03	5.408322E-17	2.513789E-18
6.516832E+03	5.273245E-17	2.451011E-18
6.526646E+03	5.139493E-17	2.388859E-18
6.536461E+03	5.007239E-17	2.327414E-18
6.546275E+03	4.877163E-17	2.266991E-18
6.556090E+03	4.749868E-17	2.207868E-18
6.565904E+03	4.625545E-17	2.150134E-18
6.575719E+03	4.504354E-17	2.093863E-18
6.585533E+03	4.386896E-17	2.039333E-18
6.595348E+03	4.273224E-17	1.986569E-18
6.605162E+03	4.163517E-17	1.935653E-18
6.614977E+03	4.057915E-17	1.886649E-18
6.624791E+03	3.956665E-17	1.839673E-18
6.634606E+03	3.859546E-17	1.794621E-18
6.644420E+03	3.766888E-17	1.751647E-18
6.654235E+03	3.678431E-17	1.710628E-18
6.664049E+03	3.594444E-17	1.671690E-18
6.673864E+03	3.514769E-17	1.634761E-18
6.683678E+03	3.439371E-17	1.599822E-18
6.693493E+03	3.368201E-17	1.566852E-18
6.703307E+03	3.301323E-17	1.535879E-18
6.713122E+03	3.238424E-17	1.506760E-18
6.722937E+03	3.179674E-17	1.479573E-18
6.732751E+03	3.124874E-17	1.454225E-18
6.742566E+03	3.073946E-17	1.430681E-18
6.752380E+03	3.026810E-17	1.408904E-18
6.762195E+03	2.983386E-17	1.388856E-18
6.772009E+03	2.943597E-17	1.370502E-18
6.781824E+03	2.907470E-17	1.353856E-18
6.791638E+03	2.874713E-17	1.338780E-18
6.801453E+03	2.845463E-17	1.325341E-18
6.811267E+03	2.819537E-17	1.313454E-18
6.821082E+03	2.796864E-17	1.303084E-18
6.830896E+03	2.777370E-17	1.294199E-18
6.840711E+03	2.761088E-17	1.286815E-18
6.850525E+03	2.747742E-17	1.280804E-18
6.860340E+03	2.737470E-17	1.276230E-18
6.870154E+03	2.729999E-17	1.272967E-18
6.879969E+03	2.725465E-17	1.271079E-18
6.889783E+03	2.723700E-17	1.270489E-18
6.899598E+03	2.724635E-17	1.271164E-18
6.909412E+03	2.728199E-17	1.273074E-18
6.919227E+03	2.734321E-17	1.276184E-18
6.929041E+03	2.743029E-17	1.280510E-18
6.938856E+03	2.754038E-17	1.285919E-18
6.948670E+03	2.767372E-17	1.292422E-18
6.958485E+03	2.783044E-17	1.300028E-18
6.968299E+03	2.800754E-17	1.308596E-18
6.978114E+03	2.820612E-17	1.318179E-18
6.987928E+03	2.842405E-17	1.328679E-18
6.997743E+03	2.866015E-17	1.340040E-18
7.007557E+03	2.891209E-17	1.352156E-18
7.017372E+03	2.918068E-17	1.365064E-18
7.027186E+03	2.946337E-17	1.378647E-18
7.037001E+03	2.975858E-17	1.392830E-18
7.046815E+03	3.006461E-17	1.407536E-18
7.056630E+03	3.037850E-17	1.422626E-18
7.066444E+03	3.070059E-17	1.438117E-18
7.076259E+03	3.102767E-17	1.453860E-18
7.086073E+03	3.135757E-17	1.469753E-18
7.095888E+03	3.168798E-17	1.485688E-18
7.105702E+03	3.201526E-17	1.501496E-18
7.115517E+03	3.233935E-17	1.517173E-18
7.125331E+03	3.265518E-17	1.532482E-18
7.135146E+03	3.296259E-17	1.547415E-18
7.144960E+03	3.325633E-17	1.561726E-18
7.154775E+03	3.353622E-17	1.575406E-18
7.164589E+03	3.379694E-17	1.588206E-18
7.174404E+03	3.403706E-17	1.600056E-18
7.184218E+03	3.425391E-17	1.610831E-18
7.194033E+03	3.444495E-17	1.620411E-18
7.203847E+03	3.460641E-17	1.628616E-18
7.213662E+03	3.473869E-17	1.635465E-18
7.223476E+03	3.483704E-17	1.640734E-18
7.233291E+03	3.490236E-17	1.644461E-18
7.243105E+03	3.493040E-17	1.646445E-18
7.252920E+03	3.492128E-17	1.646691E-18
7.262734E+03	3.487274E-17	1.645089E-18
7.272549E+03	3.478698E-17	1.641742E-18
7.282363E+03	3.466114E-17	1.636510E-18
7.292178E+03	3.449682E-17	1.629469E-18
7.301992E+03	3.429465E-17	1.620645E-18
7.311807E+03	3.405434E-17	1.610023E-18
7.321621E+03	3.377998E-17	1.597792E-18
7.331436E+03	3.347067E-17	1.583908E-18
7.341250E+03	3.312859E-17	1.568471E-18
7.351065E+03	3.275874E-17	1.551717E-18
7.360879E+03	3.236123E-17	1.533647E-18
7.370694E+03	3.194029E-17	1.514460E-18
7.380508E+03	3.149898E-17	1.494300E-18
7.390323E+03	3.103928E-17	1.473258E-18
7.400137E+03	3.056576E-17	1.451550E-18
7.409952E+03	3.008172E-17	1.429330E-18
7.419766E+03	2.958930E-17	1.406700E-18
7.429581E+03	2.909292E-17	1.383868E-18
7.439395E+03	2.859573E-17	1.360983E-18
7.449210E+03	2.809956E-17	1.338131E-18
7.459024E+03	2.760836E-17	1.315500E-18
7.468839E+03	2.712363E-17	1.293161E-18
7.478653E+03	2.664987E-17	1.271328E-18
7.488468E+03	2.618592E-17	1.249947E-18
7.498282E+03	2.573670E-17	1.229252E-18
7.508097E+03	2.530141E-17	1.209206E-18
7.517911E+03	2.488081E-17	1.189847E-18
7.527726E+03	2.447741E-17	1.171293E-18
7.537540E+03	2.408850E-17	1.153417E-18
7.547355E+03	2.371713E-17	1.136367E-18
7.557169E+03	2.336132E-17	1.120047E-18
7.566984E+03	2.302098E-17	1.104454E-18
7.576799E+03	2.269682E-17	1.089625E-18
7.586613E+03	2.238853E-17	1.075543E-18
7.596428E+03	2.209485E-17	1.062152E-18
7.606242E+03	2.181631E-17	1.049477E-18
7.616057E+03	2.155158E-17	1.037454E-18
