#wls	flux	fluxerr
1.570321E+03	4.849091E-18	3.508032E-19
1.609579E+03	5.039432E-18	3.643189E-19
1.648837E+03	5.241445E-18	3.786522E-19
1.688095E+03	5.456825E-18	3.939227E-19
1.727353E+03	5.685472E-18	4.101201E-19
1.766611E+03	5.929098E-18	4.273647E-19
1.805869E+03	6.188329E-18	4.456979E-19
1.845127E+03	6.463676E-18	4.651526E-19
1.884385E+03	6.755509E-18	4.857514E-19
1.923643E+03	7.064106E-18	5.075097E-19
1.962901E+03	7.389850E-18	5.304508E-19
2.002159E+03	7.735043E-18	5.547347E-19
2.041417E+03	8.101198E-18	5.804645E-19
2.080675E+03	8.495188E-18	6.081261E-19
2.119933E+03	8.925709E-18	6.383341E-19
2.159191E+03	9.400916E-18	6.716612E-19
2.198449E+03	9.930564E-18	7.087919E-19
2.237707E+03	1.051508E-17	7.497425E-19
2.276965E+03	1.115434E-17	7.944881E-19
2.316223E+03	1.184403E-17	8.427072E-19
2.355481E+03	1.258443E-17	8.944035E-19
2.394739E+03	1.337577E-17	9.495776E-19
2.433997E+03	1.421953E-17	1.008319E-18
2.473255E+03	1.512012E-17	1.070921E-18
2.512513E+03	1.607806E-17	1.137402E-18
2.551772E+03	1.709831E-17	1.208092E-18
2.591030E+03	1.818608E-17	1.283337E-18
2.630288E+03	1.934141E-17	1.363115E-18
2.669546E+03	2.056616E-17	1.447533E-18
2.708804E+03	2.186751E-17	1.537068E-18
2.748062E+03	2.324068E-17	1.631356E-18
2.787320E+03	2.469510E-17	1.731029E-18
2.826578E+03	2.622404E-17	1.835583E-18
2.865836E+03	2.782908E-17	1.945097E-18
2.905094E+03	2.951103E-17	2.059595E-18
2.944352E+03	3.126606E-17	2.178777E-18
2.954166E+03	3.171468E-17	2.209192E-18
2.963981E+03	3.216935E-17	2.240000E-18
2.973795E+03	3.262611E-17	2.270925E-18
2.983610E+03	3.308873E-17	2.302229E-18
2.993424E+03	3.355316E-17	2.333631E-18
3.003239E+03	3.402323E-17	2.365394E-18
3.013053E+03	3.449482E-17	2.397234E-18
3.022868E+03	3.497180E-17	2.429417E-18
3.032682E+03	3.545417E-17	2.461945E-18
3.042497E+03	3.593741E-17	2.494501E-18
3.052311E+03	3.642599E-17	2.527397E-18
3.062126E+03	3.691553E-17	2.560328E-18
3.071940E+03	3.741000E-17	2.593568E-18
3.081755E+03	3.790497E-17	2.626810E-18
3.091569E+03	3.840441E-17	2.660329E-18
3.101384E+03	3.890385E-17	2.693815E-18
3.111198E+03	3.941169E-17	2.727849E-18
3.121013E+03	3.991463E-17	2.761510E-18
3.130827E+03	4.042558E-17	2.795691E-18
3.140642E+03	4.093547E-17	2.829764E-18
3.150456E+03	4.144398E-17	2.863707E-18
3.160271E+03	4.195984E-17	2.898123E-18
3.170085E+03	4.246925E-17	2.932057E-18
3.179900E+03	4.298550E-17	2.966429E-18
3.189714E+03	4.349922E-17	3.000591E-18
3.199529E+03	4.401471E-17	3.034838E-18
3.209343E+03	4.452701E-17	3.068830E-18
3.219158E+03	4.504048E-17	3.102866E-18
3.228972E+03	4.555481E-17	3.136925E-18
3.238787E+03	4.606973E-17	3.170988E-18
3.248601E+03	4.658016E-17	3.204705E-18
3.258416E+03	4.709054E-17	3.238381E-18
3.268230E+03	4.759570E-17	3.271663E-18
3.278045E+03	4.810015E-17	3.304858E-18
3.287859E+03	4.860352E-17	3.337942E-18
3.297674E+03	4.910552E-17	3.370895E-18
3.307488E+03	4.960089E-17	3.403356E-18
3.317303E+03	5.009418E-17	3.435637E-18
3.327117E+03	5.058502E-17	3.467714E-18
3.336932E+03	5.106814E-17	3.499225E-18
3.346746E+03	5.154810E-17	3.530482E-18
3.356561E+03	5.202456E-17	3.561463E-18
3.366376E+03	5.249216E-17	3.591802E-18
3.376190E+03	5.296053E-17	3.622157E-18
3.386005E+03	5.341931E-17	3.651820E-18
3.395819E+03	5.387313E-17	3.681109E-18
3.405634E+03	5.431661E-17	3.709655E-18
3.415448E+03	5.475441E-17	3.737779E-18
3.425263E+03	5.518617E-17	3.765455E-18
3.435077E+03	5.561154E-17	3.792661E-18
3.444892E+03	5.603017E-17	3.819373E-18
3.454706E+03	5.643664E-17	3.845223E-18
3.464521E+03	5.683568E-17	3.870533E-18
3.474335E+03	5.722694E-17	3.895281E-18
3.484150E+03	5.760502E-17	3.919099E-18
3.493964E+03	5.797466E-17	3.942312E-18
3.503779E+03	5.833555E-17	3.964898E-18
3.513593E+03	5.868736E-17	3.986836E-18
3.523408E+03	5.902979E-17	4.008108E-18
3.533222E+03	5.935752E-17	4.028351E-18
3.543037E+03	5.967529E-17	4.047891E-18
3.552851E+03	5.998285E-17	4.066709E-18
3.562666E+03	6.027991E-17	4.084789E-18
3.572480E+03	6.056124E-17	4.101776E-18
3.582295E+03	6.083162E-17	4.117996E-18
3.592109E+03	6.109082E-17	4.133433E-18
3.601924E+03	6.133863E-17	4.148076E-18
3.611738E+03	6.156991E-17	4.161578E-18
3.621553E+03	6.179439E-17	4.174598E-18
3.631367E+03	6.200203E-17	4.186458E-18
3.641182E+03	6.219271E-17	4.197152E-18
3.650996E+03	6.237614E-17	4.207338E-18
3.660811E+03	6.254243E-17	4.216348E-18
3.670625E+03	6.269638E-17	4.224509E-18
3.680440E+03	6.283792E-17	4.231816E-18
3.690254E+03	6.296219E-17	4.237945E-18
3.700069E+03	6.307402E-17	4.243220E-18
3.709883E+03	6.317335E-17	4.247641E-18
3.719698E+03	6.326021E-17	4.251211E-18
3.729512E+03	6.332995E-17	4.253618E-18
3.739327E+03	6.338733E-17	4.255184E-18
3.749141E+03	6.343243E-17	4.255915E-18
3.758956E+03	6.346073E-17	4.255511E-18
3.768770E+03	6.347699E-17	4.254291E-18
3.778585E+03	6.348135E-17	4.252267E-18
3.788399E+03	6.346942E-17	4.249146E-18
3.798214E+03	6.344598E-17	4.245250E-18
3.808028E+03	6.341119E-17	4.240590E-18
3.817843E+03	6.336525E-17	4.235182E-18
3.827657E+03	6.330403E-17	4.228750E-18
3.837472E+03	6.322788E-17	4.221321E-18
3.847286E+03	6.314145E-17	4.213206E-18
3.857101E+03	6.304505E-17	4.204427E-18
3.866915E+03	6.293895E-17	4.195002E-18
3.876730E+03	6.281929E-17	4.184678E-18
3.886544E+03	6.268652E-17	4.173484E-18
3.896359E+03	6.254520E-17	4.161725E-18
3.906173E+03	6.239572E-17	4.149429E-18
3.915988E+03	6.223439E-17	4.136353E-18
3.925802E+03	6.206575E-17	4.122797E-18
3.935617E+03	6.188621E-17	4.108526E-18
3.945431E+03	6.169634E-17	4.093578E-18
3.955246E+03	6.150055E-17	4.078248E-18
3.965060E+03	6.129930E-17	4.062565E-18
3.974875E+03	6.108922E-17	4.046309E-18
3.984689E+03	6.087090E-17	4.029519E-18
3.994504E+03	6.064865E-17	4.012481E-18
4.004318E+03	6.041925E-17	3.994984E-18
4.014133E+03	6.018333E-17	3.977069E-18
4.023947E+03	5.994509E-17	3.959015E-18
4.033762E+03	5.970145E-17	3.940619E-18
4.043576E+03	5.945303E-17	3.921922E-18
4.053391E+03	5.920393E-17	3.903197E-18
4.063205E+03	5.894774E-17	3.884020E-18
4.073020E+03	5.869203E-17	3.864891E-18
4.082834E+03	5.843730E-17	3.845843E-18
4.092649E+03	5.817736E-17	3.826469E-18
4.102463E+03	5.791954E-17	3.807251E-18
4.112278E+03	5.766106E-17	3.788008E-18
4.122092E+03	5.739930E-17	3.768566E-18
4.131907E+03	5.714134E-17	3.749390E-18
4.141721E+03	5.688765E-17	3.730513E-18
4.151536E+03	5.663245E-17	3.711554E-18
4.161350E+03	5.637950E-17	3.692760E-18
4.171165E+03	5.612936E-17	3.674167E-18
4.180979E+03	5.588254E-17	3.655809E-18
4.190794E+03	5.563958E-17	3.637722E-18
4.200608E+03	5.540100E-17	3.619936E-18
4.210423E+03	5.516727E-17	3.602485E-18
4.220238E+03	5.493887E-17	3.585399E-18
4.230052E+03	5.471624E-17	3.568705E-18
4.239867E+03	5.449697E-17	3.552246E-18
4.249681E+03	5.428721E-17	3.536422E-18
4.259496E+03	5.408165E-17	3.520888E-18
4.269310E+03	5.388351E-17	3.505852E-18
4.279125E+03	5.369039E-17	3.491156E-18
4.288939E+03	5.350814E-17	3.477181E-18
4.298754E+03	5.333154E-17	3.463587E-18
4.308568E+03	5.316363E-17	3.450570E-18
4.318383E+03	5.300198E-17	3.437972E-18
4.328197E+03	5.284952E-17	3.425982E-18
4.338012E+03	5.270643E-17	3.414611E-18
4.347826E+03	5.257027E-17	3.403700E-18
4.357641E+03	5.244384E-17	3.393429E-18
4.367455E+03	5.232467E-17	3.383639E-18
4.377270E+03	5.221545E-17	3.374500E-18
4.387084E+03	5.211374E-17	3.365856E-18
4.396899E+03	5.202211E-17	3.357870E-18
4.406713E+03	5.193810E-17	3.350385E-18
4.416528E+03	5.186421E-17	3.343559E-18
4.426342E+03	5.179797E-17	3.337233E-18
4.436157E+03	5.174181E-17	3.331561E-18
4.445971E+03	5.169080E-17	3.326227E-18
4.455786E+03	5.165215E-17	3.321694E-18
4.465600E+03	5.161852E-17	3.317487E-18
4.475415E+03	5.159459E-17	3.313907E-18
4.485229E+03	5.157785E-17	3.310793E-18
4.495044E+03	5.156812E-17	3.308132E-18
4.504858E+03	5.156758E-17	3.306062E-18
4.514673E+03	5.157367E-17	3.304420E-18
4.524487E+03	5.158617E-17	3.303189E-18
4.534302E+03	5.160481E-17	3.302353E-18
4.544116E+03	5.163162E-17	3.302041E-18
4.553931E+03	5.166401E-17	3.302086E-18
4.563745E+03	5.169936E-17	3.302320E-18
4.573560E+03	5.174191E-17	3.303015E-18
4.583374E+03	5.179127E-17	3.304143E-18
4.593189E+03	5.184252E-17	3.305392E-18
4.603003E+03	5.189751E-17	3.306879E-18
4.612818E+03	5.195808E-17	3.308721E-18
4.622632E+03	5.201925E-17	3.310599E-18
4.632447E+03	5.208506E-17	3.312773E-18
4.642261E+03	5.215052E-17	3.314923E-18
4.652076E+03	5.221959E-17	3.317302E-18
4.661890E+03	5.228947E-17	3.319732E-18
4.671705E+03	5.235963E-17	3.322179E-18
4.681519E+03	5.242724E-17	3.324464E-18
4.691334E+03	5.249614E-17	3.326830E-18
4.701148E+03	5.256348E-17	3.329098E-18
4.710963E+03	5.262860E-17	3.331226E-18
4.720777E+03	5.269088E-17	3.333175E-18
4.730592E+03	5.274749E-17	3.334767E-18
4.740406E+03	5.280219E-17	3.336240E-18
4.750221E+03	5.285227E-17	3.337424E-18
4.760035E+03	5.289731E-17	3.338292E-18
4.769850E+03	5.293491E-17	3.338694E-18
4.779664E+03	5.296972E-17	3.338924E-18
4.789479E+03	5.300025E-17	3.338890E-18
4.799293E+03	5.302521E-17	3.338508E-18
4.809108E+03	5.304987E-17	3.338112E-18
4.818922E+03	5.307089E-17	3.337492E-18
4.828737E+03	5.309353E-17	3.336978E-18
4.838551E+03	5.311446E-17	3.336362E-18
4.848366E+03	5.313673E-17	3.335834E-18
4.858180E+03	5.316328E-17	3.335579E-18
4.867995E+03	5.319063E-17	3.335379E-18
4.877809E+03	5.322160E-17	3.335409E-18
4.887624E+03	5.325681E-17	3.335708E-18
4.897438E+03	5.329677E-17	3.336309E-18
4.907253E+03	5.334194E-17	3.337238E-18
4.917067E+03	5.339270E-17	3.338519E-18
4.926882E+03	5.344935E-17	3.340170E-18
4.936696E+03	5.351209E-17	3.342203E-18
4.946511E+03	5.358108E-17	3.344627E-18
4.956325E+03	5.365640E-17	3.347446E-18
4.966140E+03	5.373595E-17	3.350529E-18
4.975954E+03	5.382388E-17	3.354134E-18
4.985769E+03	5.391796E-17	3.358122E-18
4.995583E+03	5.401595E-17	3.362351E-18
5.005398E+03	5.412181E-17	3.367069E-18
5.015212E+03	5.423317E-17	3.372126E-18
5.025027E+03	5.434762E-17	3.377372E-18
5.034841E+03	5.446898E-17	3.383046E-18
5.044656E+03	5.459268E-17	3.388860E-18
5.054471E+03	5.472244E-17	3.395048E-18
5.064285E+03	5.485359E-17	3.401318E-18
5.074100E+03	5.498981E-17	3.407898E-18
5.083914E+03	5.512630E-17	3.414491E-18
5.093729E+03	5.526668E-17	3.421319E-18
5.103543E+03	5.540605E-17	3.428081E-18
5.113358E+03	5.554794E-17	3.434995E-18
5.123172E+03	5.568737E-17	3.441751E-18
5.132987E+03	5.582774E-17	3.448561E-18
5.142801E+03	5.596401E-17	3.455114E-18
5.152616E+03	5.609952E-17	3.461615E-18
5.162430E+03	5.623122E-17	3.467877E-18
5.172245E+03	5.635602E-17	3.473711E-18
5.182059E+03	5.647721E-17	3.479318E-18
5.191874E+03	5.659163E-17	3.484506E-18
5.201688E+03	5.669826E-17	3.489211E-18
5.211503E+03	5.679606E-17	3.493371E-18
5.221317E+03	5.688397E-17	3.496922E-18
5.231132E+03	5.696095E-17	3.499801E-18
5.240946E+03	5.702596E-17	3.501945E-18
5.250761E+03	5.708011E-17	3.503422E-18
5.260575E+03	5.711812E-17	3.503911E-18
5.270390E+03	5.714326E-17	3.503614E-18
5.280204E+03	5.715032E-17	3.502212E-18
5.290019E+03	5.714266E-17	3.499913E-18
5.299833E+03	5.711727E-17	3.496535E-18
5.309648E+03	5.707336E-17	3.492029E-18
5.319462E+03	5.701015E-17	3.486353E-18
5.329277E+03	5.692908E-17	3.479593E-18
5.339091E+03	5.682531E-17	3.471457E-18
5.348906E+03	5.670250E-17	3.462171E-18
5.358720E+03	5.655811E-17	3.451580E-18
5.368535E+03	5.639176E-17	3.439665E-18
5.378349E+03	5.620317E-17	3.426410E-18
5.388164E+03	5.599425E-17	3.411933E-18
5.397978E+03	5.576077E-17	3.395979E-18
5.407793E+03	5.550688E-17	3.378802E-18
5.417607E+03	5.523065E-17	3.360288E-18
5.427422E+03	5.493434E-17	3.340575E-18
5.437236E+03	5.461423E-17	3.319440E-18
5.447051E+03	5.427487E-17	3.297160E-18
5.456865E+03	5.391478E-17	3.273648E-18
5.466680E+03	5.353666E-17	3.249070E-18
5.476494E+03	5.313740E-17	3.223238E-18
5.486309E+03	5.272188E-17	3.196450E-18
5.496123E+03	5.228923E-17	3.168655E-18
5.505938E+03	5.184261E-17	3.140046E-18
5.515752E+03	5.138140E-17	3.110587E-18
5.525567E+03	5.090713E-17	3.080370E-18
5.535381E+03	5.042137E-17	3.049493E-18
5.545196E+03	4.992772E-17	3.018173E-18
5.555010E+03	4.942612E-17	2.986408E-18
5.564825E+03	4.891849E-17	2.954316E-18
5.574639E+03	4.840864E-17	2.922124E-18
5.584454E+03	4.789678E-17	2.889847E-18
5.594268E+03	4.738677E-17	2.857718E-18
5.604083E+03	4.687894E-17	2.825756E-18
5.613897E+03	4.637541E-17	2.794088E-18
5.623712E+03	4.587993E-17	2.762941E-18
5.633526E+03	4.539284E-17	2.732333E-18
5.643341E+03	4.491774E-17	2.702480E-18
5.653155E+03	4.445485E-17	2.673395E-18
5.662970E+03	4.400594E-17	2.645183E-18
5.672784E+03	4.357433E-17	2.618042E-18
5.682599E+03	4.315993E-17	2.591965E-18
5.692413E+03	4.276577E-17	2.567132E-18
5.702228E+03	4.239155E-17	2.543525E-18
5.712042E+03	4.204005E-17	2.521308E-18
5.721857E+03	4.171077E-17	2.500448E-18
5.731671E+03	4.140618E-17	2.481094E-18
5.741486E+03	4.112561E-17	2.463200E-18
5.751300E+03	4.087129E-17	2.446902E-18
5.761115E+03	4.064389E-17	2.432235E-18
5.770929E+03	4.044095E-17	2.419050E-18
5.780744E+03	4.026748E-17	2.407646E-18
5.790558E+03	4.012090E-17	2.397865E-18
5.800373E+03	4.000161E-17	2.389731E-18
5.810187E+03	3.991144E-17	2.383350E-18
5.820002E+03	3.985071E-17	2.378739E-18
5.829816E+03	3.981822E-17	2.375824E-18
5.839631E+03	3.981576E-17	2.374711E-18
5.849445E+03	3.984214E-17	2.375326E-18
5.859260E+03	3.989914E-17	2.377773E-18
5.869074E+03	3.998559E-17	2.381982E-18
5.878889E+03	4.010485E-17	2.388150E-18
5.888704E+03	4.025281E-17	2.396030E-18
5.898518E+03	4.043439E-17	2.405913E-18
5.908333E+03	4.064707E-17	2.417649E-18
5.918147E+03	4.089287E-17	2.431354E-18
5.927962E+03	4.117082E-17	2.446970E-18
5.937776E+03	4.148309E-17	2.464622E-18
5.947591E+03	4.183032E-17	2.484349E-18
5.957405E+03	4.221165E-17	2.506097E-18
5.967220E+03	4.262937E-17	2.530000E-18
5.977034E+03	4.308421E-17	2.556101E-18
5.986849E+03	4.357532E-17	2.584345E-18
5.996663E+03	4.410502E-17	2.614870E-18
6.006478E+03	4.467398E-17	2.647714E-18
6.016292E+03	4.528286E-17	2.682914E-18
6.026107E+03	4.593044E-17	2.720396E-18
6.035921E+03	4.661874E-17	2.760280E-18
6.045736E+03	4.734797E-17	2.802574E-18
6.055550E+03	4.811622E-17	2.847166E-18
6.065365E+03	4.892670E-17	2.894244E-18
6.075179E+03	4.977496E-17	2.943543E-18
6.084994E+03	5.066158E-17	2.995097E-18
6.094808E+03	5.158276E-17	3.048681E-18
6.104623E+03	5.253786E-17	3.104256E-18
6.114437E+03	5.352574E-17	3.161754E-18
6.124252E+03	5.453645E-17	3.220587E-18
6.134066E+03	5.557157E-17	3.280847E-18
6.143881E+03	5.662385E-17	3.342107E-18
6.153695E+03	5.768522E-17	3.403891E-18
6.163510E+03	5.875125E-17	3.465937E-18
6.173324E+03	5.981476E-17	3.527823E-18
6.183139E+03	6.086800E-17	3.589093E-18
6.192953E+03	6.190268E-17	3.649260E-18
6.202768E+03	6.290767E-17	3.707669E-18
6.212582E+03	6.387864E-17	3.764068E-18
6.222397E+03	6.480145E-17	3.817624E-18
6.232211E+03	6.566906E-17	3.867927E-18
6.242026E+03	6.647212E-17	3.914428E-18
6.251840E+03	6.720149E-17	3.956593E-18
6.261655E+03	6.784843E-17	3.993909E-18
6.271469E+03	6.840214E-17	4.025744E-18
6.281284E+03	6.886045E-17	4.051976E-18
6.291098E+03	6.921162E-17	4.071915E-18
6.300913E+03	6.945559E-17	4.085562E-18
6.310727E+03	6.958283E-17	4.092360E-18
6.320542E+03	6.959315E-17	4.092301E-18
6.330356E+03	6.948512E-17	4.085305E-18
6.340171E+03	6.925868E-17	4.071370E-18
6.349985E+03	6.891518E-17	4.050581E-18
6.359800E+03	6.845737E-17	4.023099E-18
6.369614E+03	6.788924E-17	3.989163E-18
6.379429E+03	6.721601E-17	3.949081E-18
6.389243E+03	6.644386E-17	3.903218E-18
6.399058E+03	6.557992E-17	3.851994E-18
6.408872E+03	6.462949E-17	3.795721E-18
6.418687E+03	6.360601E-17	3.735191E-18
6.428501E+03	6.251567E-17	3.670767E-18
6.438316E+03	6.136741E-17	3.602973E-18
6.448130E+03	6.017024E-17	3.532339E-18
6.457945E+03	5.893072E-17	3.459251E-18
6.467759E+03	5.766225E-17	3.384492E-18
6.477574E+03	5.637082E-17	3.308416E-18
6.487388E+03	5.506438E-17	3.231487E-18
6.497203E+03	5.375043E-17	3.154146E-18
6.507017E+03	5.243594E-17	3.076798E-18
6.516832E+03	5.112526E-17	2.999699E-18
6.526646E+03	4.982832E-17	2.923430E-18
6.536461E+03	4.854824E-17	2.848174E-18
6.546275E+03	4.729154E-17	2.774311E-18
6.556090E+03	4.605851E-17	2.701856E-18
6.565904E+03	4.485460E-17	2.631129E-18
6.575719E+03	4.368278E-17	2.562302E-18
6.585533E+03	4.254559E-17	2.495523E-18
6.595348E+03	4.144673E-17	2.431008E-18
6.605162E+03	4.038449E-17	2.368655E-18
6.614977E+03	3.936342E-17	2.308731E-18
6.624791E+03	3.838126E-17	2.251102E-18
6.634606E+03	3.744176E-17	2.195986E-18
6.644420E+03	3.654368E-17	2.143311E-18
6.654235E+03	3.568718E-17	2.093085E-18
6.664049E+03	3.487218E-17	2.045302E-18
6.673864E+03	3.409845E-17	1.999949E-18
6.683678E+03	3.336560E-17	1.957001E-18
6.693493E+03	3.267313E-17	1.916430E-18
6.703307E+03	3.202046E-17	1.878201E-18
6.713122E+03	3.140689E-17	1.842272E-18
6.722937E+03	3.083298E-17	1.808676E-18
6.732751E+03	3.029543E-17	1.777219E-18
6.742566E+03	2.979593E-17	1.748000E-18
6.752380E+03	2.933246E-17	1.720901E-18
6.762195E+03	2.890422E-17	1.695874E-18
6.772009E+03	2.851045E-17	1.672876E-18
6.781824E+03	2.815039E-17	1.651861E-18
6.791638E+03	2.782327E-17	1.632784E-18
6.801453E+03	2.752835E-17	1.615602E-18
6.811267E+03	2.726489E-17	1.600272E-18
6.821082E+03	2.703218E-17	1.586753E-18
6.830896E+03	2.683059E-17	1.575066E-18
6.840711E+03	2.665724E-17	1.565044E-18
6.850525E+03	2.651366E-17	1.556775E-18
6.860340E+03	2.639808E-17	1.550157E-18
6.870154E+03	2.630875E-17	1.545087E-18
6.879969E+03	2.624721E-17	1.541657E-18
6.889783E+03	2.621171E-17	1.539763E-18
6.899598E+03	2.620161E-17	1.539370E-18
6.909412E+03	2.621624E-17	1.540438E-18
6.919227E+03	2.625494E-17	1.542928E-18
6.929041E+03	2.631701E-17	1.546802E-18
6.938856E+03	2.640172E-17	1.552016E-18
6.948670E+03	2.650832E-17	1.558527E-18
6.958485E+03	2.663600E-17	1.566289E-18
6.968299E+03	2.678501E-17	1.575317E-18
6.978114E+03	2.695225E-17	1.585428E-18
6.987928E+03	2.713782E-17	1.596632E-18
6.997743E+03	2.734067E-17	1.608865E-18
7.007557E+03	2.756082E-17	1.622129E-18
7.017372E+03	2.779475E-17	1.636221E-18
7.027186E+03	2.804226E-17	1.651127E-18
7.037001E+03	2.830195E-17	1.666766E-18
7.046815E+03	2.857227E-17	1.683048E-18
7.056630E+03	2.885281E-17	1.699949E-18
7.066444E+03	2.913941E-17	1.717226E-18
7.076259E+03	2.943141E-17	1.734839E-18
7.086073E+03	2.972683E-17	1.752673E-18
7.095888E+03	3.002362E-17	1.770607E-18
7.105702E+03	3.031958E-17	1.788513E-18
7.115517E+03	3.061244E-17	1.806256E-18
7.125331E+03	3.089987E-17	1.823700E-18
7.135146E+03	3.117943E-17	1.840700E-18
7.144960E+03	3.144732E-17	1.857032E-18
7.154775E+03	3.170365E-17	1.872703E-18
7.164589E+03	3.194323E-17	1.887406E-18
7.174404E+03	3.216623E-17	1.901150E-18
7.184218E+03	3.236744E-17	1.913628E-18
7.194033E+03	3.254582E-17	1.924775E-18
7.203847E+03	3.269902E-17	1.934453E-18
7.213662E+03	3.282487E-17	1.942533E-18
7.223476E+03	3.291994E-17	1.948810E-18
7.233291E+03	3.298523E-17	1.953340E-18
7.243105E+03	3.301636E-17	1.955864E-18
7.252920E+03	3.301482E-17	1.956469E-18
7.262734E+03	3.297682E-17	1.954926E-18
7.272549E+03	3.290168E-17	1.951194E-18
7.282363E+03	3.279191E-17	1.945419E-18
7.292178E+03	3.264614E-17	1.937518E-18
7.301992E+03	3.246341E-17	1.927430E-18
7.311807E+03	3.224596E-17	1.915287E-18
7.321621E+03	3.199494E-17	1.901154E-18
7.331436E+03	3.171056E-17	1.885041E-18
7.341250E+03	3.139741E-17	1.867218E-18
7.351065E+03	3.105500E-17	1.847654E-18
7.360879E+03	3.068715E-17	1.826572E-18
7.370694E+03	3.029528E-17	1.804056E-18
7.380508E+03	2.988487E-17	1.780430E-18
7.390323E+03	2.945640E-17	1.755720E-18
7.400137E+03	2.901430E-17	1.730188E-18
7.409952E+03	2.856052E-17	1.703948E-18
7.419766E+03	2.809949E-17	1.677265E-18
7.429581E+03	2.763432E-17	1.650322E-18
7.439395E+03	2.716804E-17	1.623298E-18
7.449210E+03	2.670235E-17	1.596295E-18
7.459024E+03	2.624112E-17	1.569543E-18
7.468839E+03	2.578681E-17	1.543188E-18
7.478653E+03	2.534163E-17	1.517363E-18
7.488468E+03	2.490638E-17	1.492117E-18
7.498282E+03	2.448269E-17	1.467546E-18
7.508097E+03	2.407392E-17	1.443852E-18
7.517911E+03	2.367873E-17	1.420956E-18
7.527726E+03	2.329869E-17	1.398954E-18
7.537540E+03	2.293307E-17	1.377801E-18
7.547355E+03	2.258302E-17	1.357569E-18
7.557169E+03	2.224848E-17	1.338253E-18
7.566984E+03	2.192831E-17	1.319789E-18
7.576799E+03	2.162328E-17	1.302221E-18
7.586613E+03	2.133212E-17	1.285474E-18
7.596428E+03	2.105635E-17	1.269643E-18
7.606242E+03	2.079280E-17	1.254536E-18
7.616057E+03	2.054382E-17	1.240296E-18
