#wls	flux	fluxerr
1.570321E+03	4.958239E-18	3.477777E-19
1.609579E+03	5.155034E-18	3.613526E-19
1.648837E+03	5.363019E-18	3.756879E-19
1.688095E+03	5.585750E-18	3.910304E-19
1.727353E+03	5.822252E-18	4.073088E-19
1.766611E+03	6.074293E-18	4.246439E-19
1.805869E+03	6.341463E-18	4.430036E-19
1.845127E+03	6.625285E-18	4.624910E-19
1.884385E+03	6.927310E-18	4.832104E-19
1.923643E+03	7.245566E-18	5.050203E-19
1.962901E+03	7.582821E-18	5.281093E-19
2.002159E+03	7.938997E-18	5.524675E-19
2.041417E+03	8.316863E-18	5.782826E-19
2.080675E+03	8.723489E-18	6.060404E-19
2.119933E+03	9.167830E-18	6.363553E-19
2.159191E+03	9.659817E-18	6.699073E-19
2.198449E+03	1.020491E-17	7.070634E-19
2.237707E+03	1.080819E-17	7.481628E-19
2.276965E+03	1.146623E-17	7.929549E-19
2.316223E+03	1.217625E-17	8.412326E-19
2.355481E+03	1.294053E-17	8.931393E-19
2.394739E+03	1.375547E-17	9.484124E-19
2.433997E+03	1.462448E-17	1.007272E-18
2.473255E+03	1.554987E-17	1.069860E-18
2.512513E+03	1.653663E-17	1.136503E-18
2.551772E+03	1.758770E-17	1.207384E-18
2.591030E+03	1.870322E-17	1.282491E-18
2.630288E+03	1.989076E-17	1.362323E-18
2.669546E+03	2.114977E-17	1.446817E-18
2.708804E+03	2.248463E-17	1.536251E-18
2.748062E+03	2.389638E-17	1.630666E-18
2.787320E+03	2.538521E-17	1.730050E-18
2.826578E+03	2.695028E-17	1.834318E-18
2.865836E+03	2.859326E-17	1.943552E-18
2.905094E+03	3.031503E-17	2.057785E-18
2.944352E+03	3.210777E-17	2.176453E-18
2.954166E+03	3.256403E-17	2.206605E-18
2.963981E+03	3.302645E-17	2.237149E-18
2.973795E+03	3.349497E-17	2.268081E-18
2.983610E+03	3.396548E-17	2.299121E-18
2.993424E+03	3.444187E-17	2.330532E-18
3.003239E+03	3.491994E-17	2.362030E-18
3.013053E+03	3.540367E-17	2.393883E-18
3.022868E+03	3.588875E-17	2.425800E-18
3.032682E+03	3.637508E-17	2.457773E-18
3.042497E+03	3.687073E-17	2.490348E-18
3.052311E+03	3.736326E-17	2.522683E-18
3.062126E+03	3.786534E-17	2.555634E-18
3.071940E+03	3.836374E-17	2.588307E-18
3.081755E+03	3.887134E-17	2.621572E-18
3.091569E+03	3.937915E-17	2.654820E-18
3.101384E+03	3.988685E-17	2.688030E-18
3.111198E+03	4.039868E-17	2.721489E-18
3.121013E+03	4.091443E-17	2.755181E-18
3.130827E+03	4.142929E-17	2.788781E-18
3.140642E+03	4.194756E-17	2.822579E-18
3.150456E+03	4.246435E-17	2.856246E-18
3.160271E+03	4.298401E-17	2.890075E-18
3.170085E+03	4.350159E-17	2.923732E-18
3.179900E+03	4.402150E-17	2.957512E-18
3.189714E+03	4.454346E-17	2.991398E-18
3.199529E+03	4.506241E-17	3.025050E-18
3.209343E+03	4.558282E-17	3.058766E-18
3.219158E+03	4.610440E-17	3.092528E-18
3.228972E+03	4.662198E-17	3.125989E-18
3.238787E+03	4.714010E-17	3.159452E-18
3.248601E+03	4.765351E-17	3.192567E-18
3.258416E+03	4.816680E-17	3.225640E-18
3.268230E+03	4.867966E-17	3.258651E-18
3.278045E+03	4.918673E-17	3.291241E-18
3.287859E+03	4.969268E-17	3.323722E-18
3.297674E+03	5.019211E-17	3.355734E-18
3.307488E+03	5.069478E-17	3.387929E-18
3.317303E+03	5.118511E-17	3.419266E-18
3.327117E+03	5.167799E-17	3.450740E-18
3.336932E+03	5.216286E-17	3.481646E-18
3.346746E+03	5.264446E-17	3.512301E-18
3.356561E+03	5.311729E-17	3.542338E-18
3.366376E+03	5.359128E-17	3.572419E-18
3.376190E+03	5.405056E-17	3.601487E-18
3.386005E+03	5.451028E-17	3.630551E-18
3.395819E+03	5.495970E-17	3.658899E-18
3.405634E+03	5.540366E-17	3.686850E-18
3.415448E+03	5.583654E-17	3.714032E-18
3.425263E+03	5.626845E-17	3.741119E-18
3.435077E+03	5.668858E-17	3.767391E-18
3.444892E+03	5.709654E-17	3.792824E-18
3.454706E+03	5.750246E-17	3.818092E-18
3.464521E+03	5.789551E-17	3.842475E-18
3.474335E+03	5.827535E-17	3.865952E-18
3.484150E+03	5.865213E-17	3.889197E-18
3.493964E+03	5.901501E-17	3.911492E-18
3.503779E+03	5.936370E-17	3.932819E-18
3.513593E+03	5.970837E-17	3.953852E-18
3.523408E+03	6.003821E-17	3.973877E-18
3.533222E+03	6.035818E-17	3.993223E-18
3.543037E+03	6.066279E-17	4.011526E-18
3.552851E+03	6.096219E-17	4.029460E-18
3.562666E+03	6.124569E-17	4.046320E-18
3.572480E+03	6.151307E-17	4.062091E-18
3.582295E+03	6.177448E-17	4.077445E-18
3.592109E+03	6.201933E-17	4.091684E-18
3.601924E+03	6.224747E-17	4.104799E-18
3.611738E+03	6.246900E-17	4.117458E-18
3.621553E+03	6.267346E-17	4.128972E-18
3.631367E+03	6.286074E-17	4.139336E-18
3.641182E+03	6.304093E-17	4.149215E-18
3.650996E+03	6.320372E-17	4.157932E-18
3.660811E+03	6.335409E-17	4.165815E-18
3.670625E+03	6.348694E-17	4.172531E-18
3.680440E+03	6.360728E-17	4.178410E-18
3.690254E+03	6.371503E-17	4.183450E-18
3.700069E+03	6.381019E-17	4.187649E-18
3.709883E+03	6.388781E-17	4.190686E-18
3.719698E+03	6.394799E-17	4.192568E-18
3.729512E+03	6.400057E-17	4.193943E-18
3.739327E+03	6.403586E-17	4.194175E-18
3.749141E+03	6.405401E-17	4.193277E-18
3.758956E+03	6.406476E-17	4.191887E-18
3.768770E+03	6.405863E-17	4.189387E-18
3.778585E+03	6.403588E-17	4.185795E-18
3.788399E+03	6.400142E-17	4.181434E-18
3.798214E+03	6.395542E-17	4.176316E-18
3.808028E+03	6.389351E-17	4.170156E-18
3.817843E+03	6.382053E-17	4.163274E-18
3.827657E+03	6.373224E-17	4.155392E-18
3.837472E+03	6.363345E-17	4.146826E-18
3.847286E+03	6.352002E-17	4.137307E-18
3.857101E+03	6.339675E-17	4.127150E-18
3.866915E+03	6.326394E-17	4.116376E-18
3.876730E+03	6.311760E-17	4.104725E-18
3.886544E+03	6.295819E-17	4.092230E-18
3.896359E+03	6.279043E-17	4.079197E-18
3.906173E+03	6.261470E-17	4.065654E-18
3.915988E+03	6.242305E-17	4.051084E-18
3.925802E+03	6.222852E-17	4.036336E-18
3.935617E+03	6.201913E-17	4.020633E-18
3.945431E+03	6.180770E-17	4.004807E-18
3.955246E+03	6.158252E-17	3.988100E-18
3.965060E+03	6.135223E-17	3.971074E-18
3.974875E+03	6.111337E-17	3.953505E-18
3.984689E+03	6.087041E-17	3.935683E-18
3.994504E+03	6.061997E-17	3.917390E-18
4.004318E+03	6.036269E-17	3.898669E-18
4.014133E+03	6.010293E-17	3.879801E-18
4.023947E+03	5.983747E-17	3.860580E-18
4.033762E+03	5.956692E-17	3.841045E-18
4.043576E+03	5.929191E-17	3.821237E-18
4.053391E+03	5.901668E-17	3.801431E-18
4.063205E+03	5.873815E-17	3.781428E-18
4.073020E+03	5.845696E-17	3.761270E-18
4.082834E+03	5.817372E-17	3.740997E-18
4.092649E+03	5.788905E-17	3.720648E-18
4.102463E+03	5.760698E-17	3.700483E-18
4.112278E+03	5.732125E-17	3.680100E-18
4.122092E+03	5.703925E-17	3.659974E-18
4.131907E+03	5.675818E-17	3.639924E-18
4.141721E+03	5.647536E-17	3.619779E-18
4.151536E+03	5.619792E-17	3.599996E-18
4.161350E+03	5.592313E-17	3.580401E-18
4.171165E+03	5.565156E-17	3.561028E-18
4.180979E+03	5.538375E-17	3.541913E-18
4.190794E+03	5.512023E-17	3.523088E-18
4.200608E+03	5.485843E-17	3.504390E-18
4.210423E+03	5.460503E-17	3.486245E-18
4.220238E+03	5.435439E-17	3.468293E-18
4.230052E+03	5.411299E-17	3.450945E-18
4.239867E+03	5.387533E-17	3.433852E-18
4.249681E+03	5.364479E-17	3.417227E-18
4.259496E+03	5.342176E-17	3.401096E-18
4.269310E+03	5.320376E-17	3.385300E-18
4.279125E+03	5.299685E-17	3.370222E-18
4.288939E+03	5.279568E-17	3.355523E-18
4.298754E+03	5.260337E-17	3.341401E-18
4.308568E+03	5.241744E-17	3.327696E-18
4.318383E+03	5.224092E-17	3.314601E-18
4.328197E+03	5.207403E-17	3.302129E-18
4.338012E+03	5.191695E-17	3.290289E-18
4.347826E+03	5.176717E-17	3.278922E-18
4.357641E+03	5.162490E-17	3.268041E-18
4.367455E+03	5.149551E-17	3.257986E-18
4.377270E+03	5.137386E-17	3.248428E-18
4.387084E+03	5.126006E-17	3.239375E-18
4.396899E+03	5.115674E-17	3.230993E-18
4.406713E+03	5.106137E-17	3.223119E-18
4.416528E+03	5.097653E-17	3.215917E-18
4.426342E+03	5.089964E-17	3.209222E-18
4.436157E+03	5.083319E-17	3.203192E-18
4.445971E+03	5.077463E-17	3.197664E-18
4.455786E+03	5.072635E-17	3.192787E-18
4.465600E+03	5.068577E-17	3.188399E-18
4.475415E+03	5.065277E-17	3.184492E-18
4.485229E+03	5.062724E-17	3.181057E-18
4.495044E+03	5.061140E-17	3.178233E-18
4.504858E+03	5.060504E-17	3.176007E-18
4.514673E+03	5.060314E-17	3.174062E-18
4.524487E+03	5.061026E-17	3.172685E-18
4.534302E+03	5.062371E-17	3.171705E-18
4.544116E+03	5.064560E-17	3.171255E-18
4.553931E+03	5.067323E-17	3.171163E-18
4.563745E+03	5.070391E-17	3.171263E-18
4.573560E+03	5.074433E-17	3.171972E-18
4.583374E+03	5.078705E-17	3.172823E-18
4.593189E+03	5.083634E-17	3.174084E-18
4.603003E+03	5.088713E-17	3.175438E-18
4.612818E+03	5.094357E-17	3.177143E-18
4.622632E+03	5.100288E-17	3.179026E-18
4.632447E+03	5.106455E-17	3.181055E-18
4.642261E+03	5.113035E-17	3.183339E-18
4.652076E+03	5.119513E-17	3.185559E-18
4.661890E+03	5.126290E-17	3.187963E-18
4.671705E+03	5.133077E-17	3.190373E-18
4.681519E+03	5.139811E-17	3.192748E-18
4.691334E+03	5.146201E-17	3.194910E-18
4.701148E+03	5.152863E-17	3.197239E-18
4.710963E+03	5.159048E-17	3.199273E-18
4.720777E+03	5.164917E-17	3.201111E-18
4.730592E+03	5.170405E-17	3.202713E-18
4.740406E+03	5.175676E-17	3.204181E-18
4.750221E+03	5.180226E-17	3.205205E-18
4.760035E+03	5.184243E-17	3.205901E-18
4.769850E+03	5.187939E-17	3.206401E-18
4.779664E+03	5.191115E-17	3.206583E-18
4.789479E+03	5.193614E-17	3.206349E-18
4.799293E+03	5.195963E-17	3.206027E-18
4.809108E+03	5.198037E-17	3.205538E-18
4.818922E+03	5.199715E-17	3.204809E-18
4.828737E+03	5.201537E-17	3.204172E-18
4.838551E+03	5.203382E-17	3.203553E-18
4.848366E+03	5.205339E-17	3.203006E-18
4.858180E+03	5.207498E-17	3.202587E-18
4.867995E+03	5.209936E-17	3.202342E-18
4.877809E+03	5.212724E-17	3.202316E-18
4.887624E+03	5.215927E-17	3.202547E-18
4.897438E+03	5.219599E-17	3.203068E-18
4.907253E+03	5.223786E-17	3.203908E-18
4.917067E+03	5.228527E-17	3.205088E-18
4.926882E+03	5.233852E-17	3.206627E-18
4.936696E+03	5.239781E-17	3.208537E-18
4.946511E+03	5.246546E-17	3.210959E-18
4.956325E+03	5.253720E-17	3.213630E-18
4.966140E+03	5.261521E-17	3.216685E-18
4.975954E+03	5.269940E-17	3.220116E-18
4.985769E+03	5.279181E-17	3.224048E-18
4.995583E+03	5.288796E-17	3.228207E-18
5.005398E+03	5.299191E-17	3.232839E-18
5.015212E+03	5.309909E-17	3.237665E-18
5.025027E+03	5.321346E-17	3.242927E-18
5.034841E+03	5.333038E-17	3.248340E-18
5.044656E+03	5.345375E-17	3.254143E-18
5.054471E+03	5.358098E-17	3.260176E-18
5.064285E+03	5.371159E-17	3.266411E-18
5.074100E+03	5.384508E-17	3.272816E-18
5.083914E+03	5.398088E-17	3.279358E-18
5.093729E+03	5.411841E-17	3.286000E-18
5.103543E+03	5.425704E-17	3.292703E-18
5.113358E+03	5.439606E-17	3.299426E-18
5.123172E+03	5.453690E-17	3.306254E-18
5.132987E+03	5.467446E-17	3.312878E-18
5.142801E+03	5.481224E-17	3.319511E-18
5.152616E+03	5.494500E-17	3.325836E-18
5.162430E+03	5.507622E-17	3.332062E-18
5.172245E+03	5.520274E-17	3.338001E-18
5.182059E+03	5.532360E-17	3.343593E-18
5.191874E+03	5.543778E-17	3.348779E-18
5.201688E+03	5.554648E-17	3.353631E-18
5.211503E+03	5.564426E-17	3.357821E-18
5.221317E+03	5.573451E-17	3.361555E-18
5.231132E+03	5.581177E-17	3.364505E-18
5.240946E+03	5.587943E-17	3.366875E-18
5.250761E+03	5.593429E-17	3.368475E-18
5.260575E+03	5.597754E-17	3.369377E-18
5.270390E+03	5.600383E-17	3.369259E-18
5.280204E+03	5.601662E-17	3.368333E-18
5.290019E+03	5.601061E-17	3.366281E-18
5.299833E+03	5.598936E-17	3.363318E-18
5.309648E+03	5.595205E-17	3.359396E-18
5.319462E+03	5.589358E-17	3.354211E-18
5.329277E+03	5.581763E-17	3.347986E-18
5.339091E+03	5.571926E-17	3.340425E-18
5.348906E+03	5.560444E-17	3.331890E-18
5.358720E+03	5.546621E-17	3.321964E-18
5.368535E+03	5.530639E-17	3.310758E-18
5.378349E+03	5.512684E-17	3.298386E-18
5.388164E+03	5.492522E-17	3.284709E-18
5.397978E+03	5.470355E-17	3.269851E-18
5.407793E+03	5.445761E-17	3.253560E-18
5.417607E+03	5.419169E-17	3.236096E-18
5.427422E+03	5.390388E-17	3.217345E-18
5.437236E+03	5.359657E-17	3.197453E-18
5.447051E+03	5.326598E-17	3.176195E-18
5.456865E+03	5.291883E-17	3.153975E-18
5.466680E+03	5.254955E-17	3.130461E-18
5.476494E+03	5.216297E-17	3.105944E-18
5.486309E+03	5.175791E-17	3.080354E-18
5.496123E+03	5.133539E-17	3.053754E-18
5.505938E+03	5.089848E-17	3.026328E-18
5.515752E+03	5.044648E-17	2.998035E-18
5.525567E+03	4.998077E-17	2.968958E-18
5.535381E+03	4.950482E-17	2.939305E-18
5.545196E+03	4.901834E-17	2.909059E-18
5.555010E+03	4.852501E-17	2.878439E-18
5.564825E+03	4.802480E-17	2.847445E-18
5.574639E+03	4.751973E-17	2.816196E-18
5.584454E+03	4.701369E-17	2.784922E-18
5.594268E+03	4.650872E-17	2.753746E-18
5.604083E+03	4.600339E-17	2.722581E-18
5.613897E+03	4.550343E-17	2.691767E-18
5.623712E+03	4.501092E-17	2.661427E-18
5.633526E+03	4.452619E-17	2.631579E-18
5.643341E+03	4.405124E-17	2.602341E-18
5.653155E+03	4.358975E-17	2.573928E-18
5.662970E+03	4.314351E-17	2.546446E-18
5.672784E+03	4.271086E-17	2.519796E-18
5.682599E+03	4.229842E-17	2.494366E-18
5.692413E+03	4.190432E-17	2.470046E-18
5.702228E+03	4.152992E-17	2.446912E-18
5.712042E+03	4.117802E-17	2.425129E-18
5.721857E+03	4.084813E-17	2.404667E-18
5.731671E+03	4.054278E-17	2.385672E-18
5.741486E+03	4.026281E-17	2.368192E-18
5.751300E+03	4.000741E-17	2.352177E-18
5.761115E+03	3.977722E-17	2.337664E-18
5.770929E+03	3.957437E-17	2.324775E-18
5.780744E+03	3.939934E-17	2.313536E-18
5.790558E+03	3.925103E-17	2.303882E-18
5.800373E+03	3.913136E-17	2.295923E-18
5.810187E+03	3.904066E-17	2.289675E-18
5.820002E+03	3.897771E-17	2.285067E-18
5.829816E+03	3.894281E-17	2.282113E-18
5.839631E+03	3.893928E-17	2.281006E-18
5.849445E+03	3.896438E-17	2.281584E-18
5.859260E+03	3.901839E-17	2.283862E-18
5.869074E+03	3.910317E-17	2.287945E-18
5.878889E+03	3.921902E-17	2.293851E-18
5.888704E+03	3.936635E-17	2.301601E-18
5.898518E+03	3.954404E-17	2.311127E-18
5.908333E+03	3.975254E-17	2.322456E-18
5.918147E+03	3.999546E-17	2.335794E-18
5.927962E+03	4.027026E-17	2.350993E-18
5.937776E+03	4.057911E-17	2.368178E-18
5.947591E+03	4.092107E-17	2.387292E-18
5.957405E+03	4.129844E-17	2.408467E-18
5.967220E+03	4.171195E-17	2.431744E-18
5.977034E+03	4.216237E-17	2.457167E-18
5.986849E+03	4.264881E-17	2.484682E-18
5.996663E+03	4.317363E-17	2.514425E-18
6.006478E+03	4.373758E-17	2.546438E-18
6.016292E+03	4.433956E-17	2.580655E-18
6.026107E+03	4.498182E-17	2.617206E-18
6.035921E+03	4.566477E-17	2.656114E-18
6.045736E+03	4.638863E-17	2.697390E-18
6.055550E+03	4.715340E-17	2.741032E-18
6.065365E+03	4.795687E-17	2.786910E-18
6.075179E+03	4.880016E-17	2.835090E-18
6.084994E+03	4.968210E-17	2.885500E-18
6.094808E+03	5.059892E-17	2.937924E-18
6.104623E+03	5.155219E-17	2.992450E-18
6.114437E+03	5.253479E-17	3.048665E-18
6.124252E+03	5.354496E-17	3.106465E-18
6.134066E+03	5.457826E-17	3.165593E-18
6.143881E+03	5.562739E-17	3.225626E-18
6.153695E+03	5.669091E-17	3.286480E-18
6.163510E+03	5.775789E-17	3.347522E-18
6.173324E+03	5.882345E-17	3.408469E-18
6.183139E+03	5.987985E-17	3.468875E-18
6.192953E+03	6.091882E-17	3.528263E-18
6.202768E+03	6.193162E-17	3.586125E-18
6.212582E+03	6.290657E-17	3.641790E-18
6.222397E+03	6.383671E-17	3.694855E-18
6.232211E+03	6.471508E-17	3.744922E-18
6.242026E+03	6.552701E-17	3.791143E-18
6.251840E+03	6.626572E-17	3.833129E-18
6.261655E+03	6.692227E-17	3.870366E-18
6.271469E+03	6.748828E-17	3.902373E-18
6.281284E+03	6.795340E-17	3.928555E-18
6.291098E+03	6.831644E-17	3.948846E-18
6.300913E+03	6.856635E-17	3.962612E-18
6.310727E+03	6.870438E-17	3.969927E-18
6.320542E+03	6.872206E-17	3.970307E-18
6.330356E+03	6.862349E-17	3.963990E-18
6.340171E+03	6.840309E-17	3.950658E-18
6.349985E+03	6.806511E-17	3.930559E-18
6.359800E+03	6.761241E-17	3.903861E-18
6.369614E+03	6.704920E-17	3.870809E-18
6.379429E+03	6.638083E-17	3.831714E-18
6.389243E+03	6.561375E-17	3.786950E-18
6.399058E+03	6.475528E-17	3.736941E-18
6.408872E+03	6.381340E-17	3.682150E-18
6.418687E+03	6.279667E-17	3.623070E-18
6.428501E+03	6.171396E-17	3.560213E-18
6.438316E+03	6.057428E-17	3.494101E-18
6.448130E+03	5.938673E-17	3.425258E-18
6.457945E+03	5.816020E-17	3.354196E-18
6.467759E+03	5.690337E-17	3.281415E-18
6.477574E+03	5.562459E-17	3.207397E-18
6.487388E+03	5.433172E-17	3.132594E-18
6.497203E+03	5.303216E-17	3.057431E-18
6.507017E+03	5.173278E-17	2.982304E-18
6.516832E+03	5.043982E-17	2.907572E-18
6.526646E+03	4.915899E-17	2.833562E-18
6.536461E+03	4.789537E-17	2.760566E-18
6.546275E+03	4.665347E-17	2.688842E-18
6.556090E+03	4.543725E-17	2.618618E-18
6.565904E+03	4.425009E-17	2.550088E-18
6.575719E+03	4.309488E-17	2.483417E-18
6.585533E+03	4.197580E-17	2.418843E-18
6.595348E+03	4.089125E-17	2.356276E-18
6.605162E+03	3.984461E-17	2.295906E-18
6.614977E+03	3.883867E-17	2.237895E-18
6.624791E+03	3.787103E-17	2.182103E-18
6.634606E+03	3.694545E-17	2.128747E-18
6.644420E+03	3.605914E-17	2.077664E-18
6.654235E+03	3.521523E-17	2.029034E-18
6.664049E+03	3.441208E-17	1.982762E-18
6.673864E+03	3.364944E-17	1.938833E-18
6.683678E+03	3.292551E-17	1.897142E-18
6.693493E+03	3.224259E-17	1.857822E-18
6.703307E+03	3.159864E-17	1.820755E-18
6.713122E+03	3.099432E-17	1.785978E-18
6.722937E+03	3.042625E-17	1.753297E-18
6.732751E+03	2.989501E-17	1.722744E-18
6.742566E+03	2.939981E-17	1.694273E-18
6.752380E+03	2.894110E-17	1.667912E-18
6.762195E+03	2.851562E-17	1.643471E-18
6.772009E+03	2.812387E-17	1.620979E-18
6.781824E+03	2.776626E-17	1.600460E-18
6.791638E+03	2.744082E-17	1.581801E-18
6.801453E+03	2.714567E-17	1.564893E-18
6.811267E+03	2.688242E-17	1.549830E-18
6.821082E+03	2.664919E-17	1.536502E-18
6.830896E+03	2.644527E-17	1.524870E-18
6.840711E+03	2.627002E-17	1.514897E-18
6.850525E+03	2.612274E-17	1.506542E-18
6.860340E+03	2.600280E-17	1.499770E-18
6.870154E+03	2.590957E-17	1.494545E-18
6.879969E+03	2.584239E-17	1.490829E-18
6.889783E+03	2.580065E-17	1.488588E-18
6.899598E+03	2.578480E-17	1.487848E-18
6.909412E+03	2.579203E-17	1.488446E-18
6.919227E+03	2.582276E-17	1.490409E-18
6.929041E+03	2.587745E-17	1.493763E-18
6.938856E+03	2.595319E-17	1.498341E-18
6.948670E+03	2.605035E-17	1.504165E-18
6.958485E+03	2.616930E-17	1.511257E-18
6.968299E+03	2.630697E-17	1.519440E-18
6.978114E+03	2.646475E-17	1.528796E-18
6.987928E+03	2.663942E-17	1.539139E-18
6.997743E+03	2.683229E-17	1.550545E-18
7.007557E+03	2.703992E-17	1.562817E-18
7.017372E+03	2.726233E-17	1.575956E-18
7.027186E+03	2.749942E-17	1.589957E-18
7.037001E+03	2.774746E-17	1.604605E-18
7.046815E+03	2.800738E-17	1.619956E-18
7.056630E+03	2.827521E-17	1.635780E-18
7.066444E+03	2.855045E-17	1.652048E-18
7.076259E+03	2.883135E-17	1.668660E-18
7.086073E+03	2.911727E-17	1.685580E-18
7.095888E+03	2.940372E-17	1.702547E-18
7.105702E+03	2.968984E-17	1.719514E-18
7.115517E+03	2.997347E-17	1.736354E-18
7.125331E+03	3.025234E-17	1.752938E-18
7.135146E+03	3.052411E-17	1.769128E-18
7.144960E+03	3.078502E-17	1.784708E-18
7.154775E+03	3.103534E-17	1.799693E-18
7.164589E+03	3.127124E-17	1.813861E-18
7.174404E+03	3.148890E-17	1.826989E-18
7.184218E+03	3.168720E-17	1.839014E-18
7.194033E+03	3.186380E-17	1.849796E-18
7.203847E+03	3.201779E-17	1.859284E-18
7.213662E+03	3.214418E-17	1.867186E-18
7.223476E+03	3.224090E-17	1.873382E-18
7.233291E+03	3.230895E-17	1.877927E-18
7.243105E+03	3.234531E-17	1.880645E-18
7.252920E+03	3.234716E-17	1.881371E-18
7.262734E+03	3.231486E-17	1.880123E-18
7.272549E+03	3.224765E-17	1.876855E-18
7.282363E+03	3.214514E-17	1.871542E-18
7.292178E+03	3.200728E-17	1.864180E-18
7.301992E+03	3.183296E-17	1.854701E-18
7.311807E+03	3.162434E-17	1.843229E-18
7.321621E+03	3.138250E-17	1.829825E-18
7.331436E+03	3.110890E-17	1.814571E-18
7.341250E+03	3.080532E-17	1.797569E-18
7.351065E+03	3.047254E-17	1.778862E-18
7.360879E+03	3.011434E-17	1.758668E-18
7.370694E+03	2.973338E-17	1.737141E-18
7.380508E+03	2.933251E-17	1.714445E-18
7.390323E+03	2.891343E-17	1.690678E-18
7.400137E+03	2.848058E-17	1.666098E-18
7.409952E+03	2.803714E-17	1.640888E-18
7.419766E+03	2.758626E-17	1.615234E-18
7.429581E+03	2.712981E-17	1.589241E-18
7.439395E+03	2.667330E-17	1.563233E-18
7.449210E+03	2.621596E-17	1.537163E-18
7.459024E+03	2.576412E-17	1.511401E-18
7.468839E+03	2.531786E-17	1.485952E-18
7.478653E+03	2.488057E-17	1.461015E-18
7.488468E+03	2.445415E-17	1.436701E-18
7.498282E+03	2.403905E-17	1.413038E-18
7.508097E+03	2.363758E-17	1.390160E-18
7.517911E+03	2.325052E-17	1.368116E-18
7.527726E+03	2.287732E-17	1.346873E-18
7.537540E+03	2.251932E-17	1.326510E-18
7.547355E+03	2.217660E-17	1.307034E-18
7.557169E+03	2.184806E-17	1.288381E-18
7.566984E+03	2.153557E-17	1.270661E-18
7.576799E+03	2.123589E-17	1.253684E-18
7.586613E+03	2.095167E-17	1.237608E-18
7.596428E+03	2.068058E-17	1.222297E-18
7.606242E+03	2.042229E-17	1.207731E-18
7.616057E+03	2.017823E-17	1.193996E-18
