#wls	flux	fluxerr
1.570321E+03	5.033315E-18	2.514411E-19
1.609579E+03	5.238408E-18	2.615488E-19
1.648837E+03	5.456249E-18	2.722781E-19
1.688095E+03	5.688654E-18	2.837180E-19
1.727353E+03	5.935577E-18	2.958644E-19
1.766611E+03	6.198863E-18	3.088075E-19
1.805869E+03	6.478137E-18	3.225264E-19
1.845127E+03	6.776143E-18	3.371555E-19
1.884385E+03	7.091100E-18	3.526037E-19
1.923643E+03	7.424451E-18	3.689403E-19
1.962901E+03	7.776660E-18	3.861857E-19
2.002159E+03	8.150218E-18	4.044605E-19
2.041417E+03	8.545392E-18	4.237750E-19
2.080675E+03	8.972243E-18	4.446242E-19
2.119933E+03	9.435704E-18	4.672477E-19
2.159191E+03	9.950452E-18	4.923667E-19
2.198449E+03	1.052077E-17	5.201853E-19
2.237707E+03	1.115031E-17	5.508763E-19
2.276965E+03	1.183723E-17	5.843393E-19
2.316223E+03	1.257877E-17	6.204300E-19
2.355481E+03	1.337534E-17	6.591593E-19
2.394739E+03	1.422520E-17	7.004315E-19
2.433997E+03	1.513195E-17	7.444150E-19
2.473255E+03	1.609808E-17	7.912212E-19
2.512513E+03	1.712638E-17	8.409762E-19
2.551772E+03	1.822229E-17	8.939347E-19
2.591030E+03	1.938327E-17	9.499597E-19
2.630288E+03	2.061984E-17	1.009552E-18
2.669546E+03	2.192846E-17	1.072524E-18
2.708804E+03	2.331661E-17	1.139225E-18
2.748062E+03	2.478214E-17	1.209535E-18
2.787320E+03	2.632493E-17	1.283429E-18
2.826578E+03	2.795109E-17	1.361186E-18
2.865836E+03	2.965154E-17	1.442348E-18
2.905094E+03	3.143046E-17	1.527097E-18
2.944352E+03	3.327931E-17	1.614999E-18
2.954166E+03	3.375407E-17	1.637544E-18
2.963981E+03	3.423113E-17	1.660185E-18
2.973795E+03	3.471034E-17	1.682912E-18
2.983610E+03	3.519581E-17	1.705927E-18
2.993424E+03	3.568746E-17	1.729223E-18
3.003239E+03	3.618084E-17	1.752587E-18
3.013053E+03	3.667574E-17	1.776007E-18
3.022868E+03	3.717198E-17	1.799473E-18
3.032682E+03	3.767841E-17	1.823415E-18
3.042497E+03	3.818115E-17	1.847160E-18
3.052311E+03	3.868955E-17	1.871161E-18
3.062126E+03	3.920344E-17	1.895409E-18
3.071940E+03	3.971798E-17	1.919669E-18
3.081755E+03	4.023758E-17	1.944155E-18
3.091569E+03	4.075730E-17	1.968628E-18
3.101384E+03	4.127685E-17	1.993073E-18
3.111198E+03	4.180070E-17	2.017706E-18
3.121013E+03	4.232382E-17	2.042284E-18
3.130827E+03	4.285074E-17	2.067026E-18
3.140642E+03	4.338123E-17	2.091919E-18
3.150456E+03	4.391013E-17	2.116716E-18
3.160271E+03	4.443707E-17	2.141399E-18
3.170085E+03	4.496672E-17	2.166191E-18
3.179900E+03	4.549883E-17	2.191081E-18
3.189714E+03	4.602805E-17	2.215811E-18
3.199529E+03	4.655400E-17	2.240364E-18
3.209343E+03	4.708147E-17	2.264968E-18
3.219158E+03	4.761015E-17	2.289609E-18
3.228972E+03	4.813454E-17	2.314024E-18
3.238787E+03	4.865950E-17	2.338444E-18
3.248601E+03	4.917944E-17	2.362602E-18
3.258416E+03	4.969926E-17	2.386733E-18
3.268230E+03	5.021333E-17	2.410567E-18
3.278045E+03	5.072656E-17	2.434339E-18
3.287859E+03	5.123329E-17	2.457778E-18
3.297674E+03	5.173844E-17	2.481120E-18
3.307488E+03	5.223631E-17	2.504092E-18
3.317303E+03	5.273187E-17	2.526932E-18
3.327117E+03	5.322477E-17	2.549623E-18
3.336932E+03	5.370922E-17	2.571889E-18
3.346746E+03	5.419024E-17	2.593969E-18
3.356561E+03	5.466200E-17	2.615586E-18
3.366376E+03	5.512957E-17	2.636981E-18
3.376190E+03	5.558707E-17	2.657874E-18
3.386005E+03	5.603962E-17	2.678510E-18
3.395819E+03	5.648130E-17	2.698606E-18
3.405634E+03	5.692281E-17	2.718674E-18
3.415448E+03	5.734712E-17	2.737901E-18
3.425263E+03	5.776495E-17	2.756799E-18
3.435077E+03	5.817594E-17	2.775352E-18
3.444892E+03	5.857972E-17	2.793541E-18
3.454706E+03	5.897033E-17	2.811083E-18
3.464521E+03	5.934742E-17	2.827962E-18
3.474335E+03	5.971621E-17	2.844428E-18
3.484150E+03	6.007634E-17	2.860463E-18
3.493964E+03	6.042191E-17	2.875788E-18
3.503779E+03	6.075816E-17	2.890651E-18
3.513593E+03	6.107918E-17	2.904774E-18
3.523408E+03	6.139027E-17	2.918408E-18
3.533222E+03	6.169111E-17	2.931539E-18
3.543037E+03	6.197584E-17	2.943888E-18
3.552851E+03	6.224977E-17	2.955709E-18
3.562666E+03	6.250707E-17	2.966727E-18
3.572480E+03	6.275306E-17	2.977193E-18
3.582295E+03	6.298749E-17	2.987097E-18
3.592109E+03	6.320463E-17	2.996169E-18
3.601924E+03	6.340432E-17	3.004400E-18
3.611738E+03	6.359188E-17	3.012045E-18
3.621553E+03	6.376714E-17	3.019095E-18
3.631367E+03	6.392449E-17	3.025286E-18
3.641182E+03	6.406928E-17	3.030873E-18
3.650996E+03	6.419598E-17	3.035594E-18
3.660811E+03	6.430993E-17	3.039703E-18
3.670625E+03	6.441104E-17	3.043197E-18
3.680440E+03	6.449394E-17	3.045822E-18
3.690254E+03	6.455865E-17	3.047581E-18
3.700069E+03	6.461051E-17	3.048726E-18
3.709883E+03	6.464950E-17	3.049258E-18
3.719698E+03	6.467046E-17	3.048934E-18
3.729512E+03	6.467352E-17	3.047761E-18
3.739327E+03	6.466909E-17	3.046232E-18
3.749141E+03	6.464189E-17	3.043625E-18
3.758956E+03	6.460233E-17	3.040435E-18
3.768770E+03	6.455057E-17	3.036667E-18
3.778585E+03	6.448175E-17	3.032096E-18
3.788399E+03	6.439616E-17	3.026735E-18
3.798214E+03	6.429903E-17	3.020831E-18
3.808028E+03	6.419057E-17	3.014395E-18
3.817843E+03	6.406618E-17	3.007212E-18
3.827657E+03	6.392623E-17	2.999300E-18
3.837472E+03	6.377588E-17	2.990903E-18
3.847286E+03	6.361072E-17	2.981813E-18
3.857101E+03	6.343584E-17	2.972271E-18
3.866915E+03	6.324697E-17	2.962078E-18
3.876730E+03	6.304456E-17	2.951255E-18
3.886544E+03	6.283365E-17	2.940039E-18
3.896359E+03	6.261015E-17	2.928239E-18
3.906173E+03	6.237901E-17	2.916089E-18
3.915988E+03	6.213184E-17	2.903196E-18
3.925802E+03	6.188241E-17	2.890204E-18
3.935617E+03	6.161807E-17	2.876524E-18
3.945431E+03	6.134809E-17	2.862588E-18
3.955246E+03	6.106870E-17	2.848222E-18
3.965060E+03	6.078470E-17	2.833650E-18
3.974875E+03	6.048827E-17	2.818507E-18
3.984689E+03	6.018838E-17	2.803214E-18
3.994504E+03	5.988148E-17	2.787604E-18
4.004318E+03	5.957221E-17	2.771894E-18
4.014133E+03	5.925713E-17	2.755924E-18
4.023947E+03	5.893296E-17	2.739543E-18
4.033762E+03	5.861209E-17	2.723326E-18
4.043576E+03	5.828344E-17	2.706760E-18
4.053391E+03	5.795156E-17	2.690055E-18
4.063205E+03	5.762084E-17	2.673417E-18
4.073020E+03	5.728438E-17	2.656524E-18
4.082834E+03	5.695028E-17	2.639753E-18
4.092649E+03	5.661542E-17	2.622959E-18
4.102463E+03	5.628043E-17	2.606172E-18
4.112278E+03	5.594593E-17	2.589420E-18
4.122092E+03	5.561254E-17	2.572732E-18
4.131907E+03	5.528088E-17	2.556137E-18
4.141721E+03	5.495496E-17	2.539819E-18
4.151536E+03	5.462852E-17	2.523490E-18
4.161350E+03	5.430558E-17	2.507336E-18
4.171165E+03	5.398673E-17	2.491383E-18
4.180979E+03	5.367253E-17	2.475657E-18
4.190794E+03	5.336353E-17	2.460183E-18
4.200608E+03	5.306024E-17	2.444984E-18
4.210423E+03	5.276318E-17	2.430084E-18
4.220238E+03	5.247283E-17	2.415505E-18
4.230052E+03	5.218659E-17	2.401127E-18
4.239867E+03	5.191108E-17	2.387254E-18
4.249681E+03	5.164060E-17	2.373623E-18
4.259496E+03	5.137862E-17	2.360393E-18
4.269310E+03	5.112550E-17	2.347581E-18
4.279125E+03	5.088157E-17	2.335201E-18
4.288939E+03	5.064425E-17	2.323134E-18
4.298754E+03	5.041677E-17	2.311528E-18
4.308568E+03	5.019940E-17	2.300394E-18
4.318383E+03	4.999233E-17	2.289741E-18
4.328197E+03	4.979300E-17	2.279451E-18
4.338012E+03	4.960439E-17	2.269660E-18
4.347826E+03	4.942666E-17	2.260374E-18
4.357641E+03	4.925720E-17	2.251473E-18
4.367455E+03	4.909886E-17	2.243088E-18
4.377270E+03	4.895170E-17	2.235219E-18
4.387084E+03	4.881309E-17	2.227748E-18
4.396899E+03	4.868575E-17	2.220795E-18
4.406713E+03	4.856704E-17	2.214242E-18
4.416528E+03	4.845957E-17	2.208206E-18
4.426342E+03	4.836071E-17	2.202566E-18
4.436157E+03	4.827299E-17	2.197437E-18
4.445971E+03	4.819629E-17	2.192815E-18
4.455786E+03	4.812797E-17	2.188575E-18
4.465600E+03	4.806788E-17	2.184714E-18
4.475415E+03	4.801845E-17	2.181339E-18
4.485229E+03	4.797946E-17	2.178440E-18
4.495044E+03	4.794571E-17	2.175781E-18
4.504858E+03	4.792448E-17	2.173691E-18
4.514673E+03	4.790805E-17	2.171820E-18
4.524487E+03	4.790110E-17	2.170380E-18
4.534302E+03	4.790332E-17	2.169355E-18
4.544116E+03	4.791191E-17	2.168619E-18
4.553931E+03	4.792652E-17	2.168156E-18
4.563745E+03	4.794920E-17	2.168056E-18
4.573560E+03	4.797708E-17	2.168192E-18
4.583374E+03	4.800974E-17	2.168542E-18
4.593189E+03	4.804912E-17	2.169195E-18
4.603003E+03	4.808991E-17	2.169911E-18
4.612818E+03	4.813879E-17	2.170990E-18
4.622632E+03	4.818805E-17	2.172085E-18
4.632447E+03	4.824189E-17	2.173385E-18
4.642261E+03	4.829734E-17	2.174756E-18
4.652076E+03	4.835620E-17	2.176279E-18
4.661890E+03	4.841308E-17	2.177712E-18
4.671705E+03	4.847211E-17	2.179240E-18
4.681519E+03	4.853027E-17	2.180727E-18
4.691334E+03	4.858926E-17	2.182251E-18
4.701148E+03	4.864608E-17	2.183675E-18
4.710963E+03	4.870006E-17	2.184972E-18
4.720777E+03	4.875058E-17	2.186113E-18
4.730592E+03	4.879701E-17	2.187070E-18
4.740406E+03	4.884112E-17	2.187922E-18
4.750221E+03	4.887776E-17	2.188441E-18
4.760035E+03	4.891355E-17	2.188921E-18
4.769850E+03	4.894144E-17	2.189049E-18
4.779664E+03	4.896405E-17	2.188942E-18
4.789479E+03	4.898433E-17	2.188731E-18
4.799293E+03	4.900084E-17	2.188354E-18
4.809108E+03	4.901451E-17	2.187851E-18
4.818922E+03	4.902638E-17	2.187268E-18
4.828737E+03	4.903741E-17	2.186651E-18
4.838551E+03	4.905086E-17	2.186142E-18
4.848366E+03	4.906537E-17	2.185682E-18
4.858180E+03	4.908180E-17	2.185308E-18
4.867995E+03	4.910097E-17	2.185058E-18
4.877809E+03	4.912355E-17	2.184960E-18
4.887624E+03	4.915245E-17	2.185144E-18
4.897438E+03	4.918596E-17	2.185534E-18
4.907253E+03	4.922451E-17	2.186147E-18
4.917067E+03	4.926847E-17	2.187001E-18
4.926882E+03	4.931812E-17	2.188107E-18
4.936696E+03	4.937586E-17	2.189572E-18
4.946511E+03	4.943736E-17	2.191201E-18
4.956325E+03	4.950708E-17	2.193195E-18
4.966140E+03	4.958276E-17	2.195450E-18
4.975954E+03	4.966425E-17	2.197962E-18
4.985769E+03	4.975363E-17	2.200820E-18
4.995583E+03	4.984619E-17	2.203817E-18
5.005398E+03	4.994612E-17	2.207137E-18
5.015212E+03	5.005088E-17	2.210667E-18
5.025027E+03	5.016012E-17	2.214393E-18
5.034841E+03	5.027571E-17	2.218395E-18
5.044656E+03	5.039284E-17	2.222462E-18
5.054471E+03	5.051556E-17	2.226772E-18
5.064285E+03	5.064125E-17	2.231209E-18
5.074100E+03	5.076950E-17	2.235755E-18
5.083914E+03	5.090206E-17	2.240487E-18
5.093729E+03	5.103399E-17	2.245186E-18
5.103543E+03	5.116922E-17	2.250028E-18
5.113358E+03	5.130491E-17	2.254884E-18
5.123172E+03	5.144265E-17	2.259827E-18
5.132987E+03	5.157720E-17	2.264626E-18
5.142801E+03	5.171229E-17	2.269444E-18
5.152616E+03	5.184479E-17	2.274144E-18
5.162430E+03	5.197382E-17	2.278689E-18
5.172245E+03	5.210069E-17	2.283135E-18
5.182059E+03	5.222219E-17	2.287341E-18
5.191874E+03	5.233732E-17	2.291266E-18
5.201688E+03	5.244511E-17	2.294867E-18
5.211503E+03	5.254682E-17	2.298199E-18
5.221317E+03	5.263695E-17	2.301022E-18
5.231132E+03	5.272135E-17	2.303592E-18
5.240946E+03	5.279221E-17	2.305571E-18
5.250761E+03	5.285316E-17	2.307115E-18
5.260575E+03	5.290097E-17	2.308085E-18
5.270390E+03	5.293476E-17	2.308444E-18
5.280204E+03	5.295360E-17	2.308152E-18
5.290019E+03	5.295896E-17	2.307274E-18
5.299833E+03	5.295000E-17	2.305774E-18
5.309648E+03	5.292142E-17	2.303422E-18
5.319462E+03	5.287706E-17	2.300388E-18
5.329277E+03	5.281402E-17	2.296546E-18
5.339091E+03	5.273399E-17	2.291970E-18
5.348906E+03	5.263198E-17	2.286444E-18
5.358720E+03	5.251432E-17	2.280246E-18
5.368535E+03	5.237395E-17	2.273069E-18
5.378349E+03	5.221507E-17	2.265098E-18
5.388164E+03	5.203530E-17	2.256229E-18
5.397978E+03	5.183671E-17	2.246555E-18
5.407793E+03	5.161705E-17	2.235979E-18
5.417607E+03	5.137635E-17	2.224503E-18
5.427422E+03	5.111688E-17	2.212228E-18
5.437236E+03	5.083661E-17	2.199066E-18
5.447051E+03	5.053791E-17	2.185122E-18
5.456865E+03	5.021892E-17	2.170314E-18
5.466680E+03	4.988001E-17	2.154663E-18
5.476494E+03	4.952376E-17	2.138279E-18
5.486309E+03	4.914861E-17	2.121097E-18
5.496123E+03	4.875730E-17	2.103235E-18
5.505938E+03	4.834854E-17	2.084640E-18
5.515752E+03	4.792329E-17	2.065354E-18
5.525567E+03	4.748467E-17	2.045511E-18
5.535381E+03	4.703392E-17	2.025166E-18
5.545196E+03	4.656849E-17	2.004211E-18
5.555010E+03	4.609599E-17	1.982973E-18
5.564825E+03	4.561426E-17	1.961359E-18
5.574639E+03	4.512529E-17	1.939457E-18
5.584454E+03	4.463317E-17	1.917441E-18
5.594268E+03	4.413820E-17	1.895326E-18
5.604083E+03	4.364460E-17	1.873291E-18
5.613897E+03	4.315285E-17	1.851359E-18
5.623712E+03	4.266715E-17	1.829708E-18
5.633526E+03	4.218977E-17	1.808435E-18
5.643341E+03	4.171935E-17	1.787483E-18
5.653155E+03	4.126338E-17	1.767171E-18
5.662970E+03	4.082031E-17	1.747431E-18
5.672784E+03	4.039201E-17	1.728344E-18
5.682599E+03	3.998192E-17	1.710055E-18
5.692413E+03	3.959157E-17	1.692629E-18
5.702228E+03	3.922066E-17	1.676052E-18
5.712042E+03	3.887211E-17	1.660448E-18
5.721857E+03	3.854698E-17	1.645860E-18
5.731671E+03	3.824458E-17	1.632258E-18
5.741486E+03	3.796577E-17	1.619677E-18
5.751300E+03	3.771287E-17	1.608214E-18
5.761115E+03	3.748647E-17	1.597895E-18
5.770929E+03	3.728550E-17	1.588672E-18
5.780744E+03	3.711200E-17	1.580629E-18
5.790558E+03	3.696634E-17	1.573783E-18
5.800373E+03	3.684727E-17	1.568077E-18
5.810187E+03	3.675665E-17	1.563590E-18
5.820002E+03	3.669473E-17	1.560331E-18
5.829816E+03	3.666019E-17	1.558243E-18
5.839631E+03	3.665478E-17	1.557398E-18
5.849445E+03	3.667876E-17	1.557806E-18
5.859260E+03	3.673074E-17	1.559408E-18
5.869074E+03	3.681255E-17	1.562278E-18
5.878889E+03	3.692288E-17	1.566361E-18
5.888704E+03	3.706518E-17	1.571801E-18
5.898518E+03	3.723666E-17	1.578479E-18
5.908333E+03	3.743768E-17	1.586409E-18
5.918147E+03	3.767191E-17	1.595745E-18
5.927962E+03	3.793667E-17	1.606372E-18
5.937776E+03	3.823417E-17	1.618382E-18
5.947591E+03	3.856340E-17	1.631733E-18
5.957405E+03	3.892672E-17	1.646521E-18
5.967220E+03	3.932492E-17	1.662780E-18
5.977034E+03	3.975881E-17	1.680542E-18
5.986849E+03	4.022923E-17	1.699842E-18
5.996663E+03	4.073526E-17	1.720640E-18
6.006478E+03	4.127946E-17	1.743042E-18
6.016292E+03	4.186261E-17	1.767080E-18
6.026107E+03	4.248358E-17	1.792706E-18
6.035921E+03	4.314662E-17	1.820097E-18
6.045736E+03	4.384850E-17	1.849117E-18
6.055550E+03	4.459131E-17	1.879852E-18
6.065365E+03	4.537509E-17	1.912302E-18
6.075179E+03	4.619750E-17	1.946369E-18
6.084994E+03	4.705970E-17	1.982100E-18
6.094808E+03	4.796236E-17	2.019524E-18
6.104623E+03	4.889709E-17	2.058284E-18
6.114437E+03	4.986733E-17	2.098527E-18
6.124252E+03	5.086746E-17	2.140014E-18
6.134066E+03	5.189106E-17	2.182476E-18
6.143881E+03	5.293778E-17	2.225897E-18
6.153695E+03	5.399755E-17	2.269853E-18
6.163510E+03	5.506641E-17	2.314179E-18
6.173324E+03	5.613505E-17	2.358483E-18
6.183139E+03	5.720075E-17	2.402653E-18
6.192953E+03	5.825292E-17	2.446242E-18
6.202768E+03	5.928013E-17	2.488775E-18
6.212582E+03	6.027561E-17	2.529965E-18
6.222397E+03	6.122958E-17	2.569407E-18
6.232211E+03	6.213202E-17	2.606679E-18
6.242026E+03	6.297276E-17	2.641358E-18
6.251840E+03	6.374171E-17	2.673023E-18
6.261655E+03	6.442905E-17	2.701265E-18
6.271469E+03	6.502549E-17	2.725696E-18
6.281284E+03	6.551965E-17	2.745843E-18
6.291098E+03	6.590691E-17	2.761514E-18
6.300913E+03	6.618397E-17	2.772574E-18
6.310727E+03	6.634022E-17	2.778582E-18
6.320542E+03	6.637539E-17	2.779530E-18
6.330356E+03	6.628800E-17	2.775358E-18
6.340171E+03	6.608116E-17	2.766199E-18
6.349985E+03	6.575094E-17	2.751891E-18
6.359800E+03	6.530083E-17	2.732583E-18
6.369614E+03	6.474164E-17	2.708729E-18
6.379429E+03	6.407665E-17	2.680470E-18
6.389243E+03	6.331320E-17	2.648112E-18
6.399058E+03	6.245945E-17	2.611999E-18
6.408872E+03	6.152418E-17	2.572500E-18
6.418687E+03	6.051392E-17	2.529888E-18
6.428501E+03	5.944350E-17	2.484784E-18
6.438316E+03	5.831963E-17	2.437470E-18
6.448130E+03	5.714903E-17	2.388226E-18
6.457945E+03	5.594587E-17	2.337644E-18
6.467759E+03	5.471373E-17	2.285874E-18
6.477574E+03	5.346573E-17	2.233464E-18
6.487388E+03	5.220701E-17	2.180627E-18
6.497203E+03	5.094234E-17	2.127564E-18
6.507017E+03	4.968283E-17	2.074737E-18
6.516832E+03	4.842984E-17	2.022201E-18
6.526646E+03	4.719302E-17	1.970360E-18
6.536461E+03	4.597485E-17	1.919316E-18
6.546275E+03	4.477737E-17	1.869153E-18
6.556090E+03	4.360823E-17	1.820190E-18
6.565904E+03	4.246837E-17	1.772465E-18
6.575719E+03	4.135845E-17	1.726005E-18
6.585533E+03	4.028432E-17	1.681052E-18
6.595348E+03	3.924575E-17	1.637597E-18
6.605162E+03	3.824401E-17	1.595691E-18
6.614977E+03	3.727836E-17	1.555303E-18
6.624791E+03	3.635289E-17	1.516603E-18
6.634606E+03	3.546627E-17	1.479534E-18
6.644420E+03	3.461864E-17	1.444102E-18
6.654235E+03	3.381000E-17	1.410305E-18
6.664049E+03	3.304013E-17	1.378135E-18
6.673864E+03	3.230870E-17	1.347576E-18
6.683678E+03	3.161522E-17	1.318608E-18
6.693493E+03	3.095917E-17	1.291208E-18
6.703307E+03	3.033988E-17	1.265349E-18
6.713122E+03	2.975668E-17	1.241001E-18
6.722937E+03	2.920882E-17	1.218133E-18
6.732751E+03	2.869554E-17	1.196713E-18
6.742566E+03	2.821737E-17	1.176763E-18
6.752380E+03	2.777094E-17	1.158142E-18
6.762195E+03	2.735679E-17	1.140872E-18
6.772009E+03	2.697544E-17	1.124975E-18
6.781824E+03	2.662366E-17	1.110315E-18
6.791638E+03	2.630198E-17	1.096916E-18
6.801453E+03	2.601091E-17	1.084798E-18
6.811267E+03	2.574734E-17	1.073831E-18
6.821082E+03	2.551299E-17	1.064087E-18
6.830896E+03	2.530483E-17	1.055440E-18
6.840711E+03	2.512458E-17	1.047960E-18
6.850525E+03	2.497044E-17	1.041574E-18
6.860340E+03	2.484064E-17	1.036208E-18
6.870154E+03	2.473689E-17	1.031933E-18
6.879969E+03	2.465747E-17	1.028677E-18
6.889783E+03	2.460064E-17	1.026368E-18
6.899598E+03	2.456815E-17	1.025080E-18
6.909412E+03	2.455826E-17	1.024738E-18
6.919227E+03	2.456926E-17	1.025274E-18
6.929041E+03	2.460286E-17	1.026758E-18
6.938856E+03	2.465732E-17	1.029117E-18
6.948670E+03	2.473200E-17	1.032327E-18
6.958485E+03	2.482510E-17	1.036310E-18
6.968299E+03	2.493822E-17	1.041136E-18
6.978114E+03	2.506946E-17	1.046724E-18
6.987928E+03	2.521682E-17	1.052992E-18
6.997743E+03	2.538178E-17	1.060002E-18
7.007557E+03	2.556219E-17	1.067664E-18
7.017372E+03	2.575581E-17	1.075886E-18
7.027186E+03	2.596395E-17	1.084721E-18
7.037001E+03	2.618293E-17	1.094018E-18
7.046815E+03	2.641394E-17	1.103826E-18
7.056630E+03	2.665310E-17	1.113983E-18
7.066444E+03	2.690144E-17	1.124533E-18
7.076259E+03	2.715485E-17	1.135305E-18
7.086073E+03	2.741293E-17	1.146282E-18
7.095888E+03	2.767525E-17	1.157446E-18
7.105702E+03	2.793733E-17	1.168610E-18
7.115517E+03	2.819853E-17	1.179748E-18
7.125331E+03	2.845684E-17	1.190775E-18
7.135146E+03	2.871014E-17	1.201605E-18
7.144960E+03	2.895629E-17	1.212146E-18
7.154775E+03	2.919305E-17	1.222305E-18
7.164589E+03	2.941673E-17	1.231929E-18
7.174404E+03	2.962783E-17	1.241036E-18
7.184218E+03	2.982123E-17	1.249413E-18
7.194033E+03	2.999747E-17	1.257083E-18
7.203847E+03	3.015140E-17	1.263829E-18
7.213662E+03	3.028228E-17	1.269620E-18
7.223476E+03	3.038801E-17	1.274366E-18
7.233291E+03	3.046663E-17	1.277986E-18
7.243105E+03	3.051486E-17	1.280340E-18
7.252920E+03	3.053409E-17	1.281487E-18
7.262734E+03	3.052001E-17	1.281245E-18
7.272549E+03	3.047309E-17	1.279632E-18
7.282363E+03	3.039406E-17	1.276678E-18
7.292178E+03	3.027815E-17	1.272180E-18
7.301992E+03	3.012978E-17	1.266325E-18
7.311807E+03	2.994789E-17	1.259065E-18
7.321621E+03	2.973183E-17	1.250373E-18
7.331436E+03	2.948424E-17	1.240357E-18
7.341250E+03	2.920669E-17	1.229082E-18
7.351065E+03	2.890110E-17	1.216629E-18
7.360879E+03	2.856973E-17	1.203089E-18
7.370694E+03	2.821369E-17	1.188510E-18
7.380508E+03	2.783718E-17	1.173067E-18
7.390323E+03	2.744314E-17	1.156881E-18
7.400137E+03	2.703464E-17	1.140083E-18
7.409952E+03	2.661486E-17	1.122804E-18
7.419766E+03	2.618565E-17	1.105123E-18
7.429581E+03	2.575152E-17	1.087228E-18
7.439395E+03	2.531550E-17	1.069247E-18
7.449210E+03	2.487931E-17	1.051252E-18
7.459024E+03	2.444818E-17	1.033463E-18
7.468839E+03	2.402225E-17	1.015886E-18
7.478653E+03	2.360505E-17	9.986706E-19
7.488468E+03	2.319743E-17	9.818521E-19
7.498282E+03	2.280333E-17	9.655977E-19
7.508097E+03	2.242159E-17	9.498586E-19
7.517911E+03	2.205293E-17	9.346653E-19
7.527726E+03	2.169986E-17	9.201246E-19
7.537540E+03	2.136027E-17	9.061481E-19
7.547355E+03	2.103521E-17	8.927803E-19
7.557169E+03	2.072452E-17	8.800150E-19
7.566984E+03	2.042692E-17	8.677985E-19
7.576799E+03	2.014320E-17	8.561644E-19
7.586613E+03	1.987300E-17	8.450989E-19
7.596428E+03	1.961598E-17	8.345870E-19
7.606242E+03	1.937077E-17	8.245718E-19
7.616057E+03	1.913797E-17	8.150787E-19
