#wls	flux	fluxerr
1.570321E+03	4.888692E-18	2.706464E-19
1.609579E+03	5.086562E-18	2.814497E-19
1.648837E+03	5.297610E-18	2.929659E-19
1.688095E+03	5.521807E-18	3.051917E-19
1.727353E+03	5.759971E-18	3.181704E-19
1.766611E+03	6.014906E-18	3.320547E-19
1.805869E+03	6.285295E-18	3.467697E-19
1.845127E+03	6.571587E-18	3.623377E-19
1.884385E+03	6.876375E-18	3.788991E-19
1.923643E+03	7.198930E-18	3.964109E-19
1.962901E+03	7.539699E-18	4.148948E-19
2.002159E+03	7.899788E-18	4.344085E-19
2.041417E+03	8.283339E-18	4.551762E-19
2.080675E+03	8.694802E-18	4.774385E-19
2.119933E+03	9.142993E-18	5.016742E-19
2.159191E+03	9.640770E-18	5.285824E-19
2.198449E+03	1.019226E-17	5.583815E-19
2.237707E+03	1.080268E-17	5.913478E-19
2.276965E+03	1.146694E-17	6.271934E-19
2.316223E+03	1.218580E-17	6.659504E-19
2.355481E+03	1.295799E-17	7.075393E-19
2.394739E+03	1.378177E-17	7.518552E-19
2.433997E+03	1.466067E-17	7.990794E-19
2.473255E+03	1.559707E-17	8.493307E-19
2.512513E+03	1.659605E-17	9.028737E-19
2.551772E+03	1.765565E-17	9.595877E-19
2.591030E+03	1.878595E-17	1.020007E-18
2.630288E+03	1.998709E-17	1.084124E-18
2.669546E+03	2.126112E-17	1.152032E-18
2.708804E+03	2.260952E-17	1.223796E-18
2.748062E+03	2.403621E-17	1.299609E-18
2.787320E+03	2.553813E-17	1.379285E-18
2.826578E+03	2.712114E-17	1.463123E-18
2.865836E+03	2.878012E-17	1.550825E-18
2.905094E+03	3.051565E-17	1.642401E-18
2.944352E+03	3.232344E-17	1.737600E-18
2.954166E+03	3.278564E-17	1.761908E-18
2.963981E+03	3.325416E-17	1.786537E-18
2.973795E+03	3.372485E-17	1.811264E-18
2.983610E+03	3.420166E-17	1.836302E-18
2.993424E+03	3.468036E-17	1.861422E-18
3.003239E+03	3.516074E-17	1.886614E-18
3.013053E+03	3.564687E-17	1.912095E-18
3.022868E+03	3.613436E-17	1.937630E-18
3.032682E+03	3.662744E-17	1.963445E-18
3.042497E+03	3.712572E-17	1.989518E-18
3.052311E+03	3.762520E-17	2.015635E-18
3.062126E+03	3.812561E-17	2.041782E-18
3.071940E+03	3.863114E-17	2.068183E-18
3.081755E+03	3.913709E-17	2.094586E-18
3.091569E+03	3.964771E-17	2.121217E-18
3.101384E+03	4.016283E-17	2.148068E-18
3.111198E+03	4.067760E-17	2.174879E-18
3.121013E+03	4.119173E-17	2.201633E-18
3.130827E+03	4.170958E-17	2.228565E-18
3.140642E+03	4.223090E-17	2.255660E-18
3.150456E+03	4.275075E-17	2.282654E-18
3.160271E+03	4.326876E-17	2.309528E-18
3.170085E+03	4.379423E-17	2.336778E-18
3.179900E+03	4.431245E-17	2.363618E-18
3.189714E+03	4.483761E-17	2.390805E-18
3.199529E+03	4.535482E-17	2.417546E-18
3.209343E+03	4.587842E-17	2.444604E-18
3.219158E+03	4.639829E-17	2.471440E-18
3.228972E+03	4.691405E-17	2.498034E-18
3.238787E+03	4.743534E-17	2.524900E-18
3.248601E+03	4.794683E-17	2.551220E-18
3.258416E+03	4.846324E-17	2.577779E-18
3.268230E+03	4.896905E-17	2.603750E-18
3.278045E+03	4.947915E-17	2.629927E-18
3.287859E+03	4.998299E-17	2.655746E-18
3.297674E+03	5.048532E-17	2.681463E-18
3.307488E+03	5.098063E-17	2.706783E-18
3.317303E+03	5.147371E-17	2.731961E-18
3.327117E+03	5.195898E-17	2.756701E-18
3.336932E+03	5.244127E-17	2.781260E-18
3.346746E+03	5.292024E-17	2.805620E-18
3.356561E+03	5.339023E-17	2.829481E-18
3.366376E+03	5.385613E-17	2.853102E-18
3.376190E+03	5.431757E-17	2.876464E-18
3.386005E+03	5.476887E-17	2.899267E-18
3.395819E+03	5.521496E-17	2.921770E-18
3.405634E+03	5.565013E-17	2.943674E-18
3.415448E+03	5.607931E-17	2.965239E-18
3.425263E+03	5.650215E-17	2.986447E-18
3.435077E+03	5.691293E-17	3.006996E-18
3.444892E+03	5.731663E-17	3.027150E-18
3.454706E+03	5.770753E-17	3.046606E-18
3.464521E+03	5.809598E-17	3.065913E-18
3.474335E+03	5.846555E-17	3.084203E-18
3.484150E+03	5.883201E-17	3.102309E-18
3.493964E+03	5.918425E-17	3.119645E-18
3.503779E+03	5.952732E-17	3.136479E-18
3.513593E+03	5.985556E-17	3.152512E-18
3.523408E+03	6.017400E-17	3.168011E-18
3.533222E+03	6.047699E-17	3.182678E-18
3.543037E+03	6.077497E-17	3.197065E-18
3.552851E+03	6.105692E-17	3.210591E-18
3.562666E+03	6.132263E-17	3.223246E-18
3.572480E+03	6.157719E-17	3.235299E-18
3.582295E+03	6.182034E-17	3.246738E-18
3.592109E+03	6.204659E-17	3.257273E-18
3.601924E+03	6.226101E-17	3.267174E-18
3.611738E+03	6.246343E-17	3.276430E-18
3.621553E+03	6.264840E-17	3.284759E-18
3.631367E+03	6.282107E-17	3.292429E-18
3.641182E+03	6.298126E-17	3.299433E-18
3.650996E+03	6.312369E-17	3.305496E-18
3.660811E+03	6.324830E-17	3.310614E-18
3.670625E+03	6.336533E-17	3.315326E-18
3.680440E+03	6.345934E-17	3.318824E-18
3.690254E+03	6.354565E-17	3.321910E-18
3.700069E+03	6.361406E-17	3.324053E-18
3.709883E+03	6.366967E-17	3.325519E-18
3.719698E+03	6.370750E-17	3.326050E-18
3.729512E+03	6.373264E-17	3.325912E-18
3.739327E+03	6.374022E-17	3.324852E-18
3.749141E+03	6.373528E-17	3.323135E-18
3.758956E+03	6.371797E-17	3.320768E-18
3.768770E+03	6.368354E-17	3.317507E-18
3.778585E+03	6.363226E-17	3.313364E-18
3.788399E+03	6.356915E-17	3.308604E-18
3.798214E+03	6.349440E-17	3.303237E-18
3.808028E+03	6.340354E-17	3.297031E-18
3.817843E+03	6.330153E-17	3.290246E-18
3.827657E+03	6.318404E-17	3.282656E-18
3.837472E+03	6.305144E-17	3.274283E-18
3.847286E+03	6.290865E-17	3.265384E-18
3.857101E+03	6.275600E-17	3.255975E-18
3.866915E+03	6.258935E-17	3.245843E-18
3.876730E+03	6.241357E-17	3.235243E-18
3.886544E+03	6.222028E-17	3.223739E-18
3.896359E+03	6.202308E-17	3.212038E-18
3.906173E+03	6.180939E-17	3.199488E-18
3.915988E+03	6.159258E-17	3.186784E-18
3.925802E+03	6.136034E-17	3.173288E-18
3.935617E+03	6.112167E-17	3.159468E-18
3.945431E+03	6.087290E-17	3.145133E-18
3.955246E+03	6.061868E-17	3.130526E-18
3.965060E+03	6.035546E-17	3.115462E-18
3.974875E+03	6.008383E-17	3.099974E-18
3.984689E+03	5.980440E-17	3.084093E-18
3.994504E+03	5.952171E-17	3.068055E-18
4.004318E+03	5.923239E-17	3.051685E-18
4.014133E+03	5.894090E-17	3.035215E-18
4.023947E+03	5.864018E-17	3.018281E-18
4.033762E+03	5.833848E-17	3.001308E-18
4.043576E+03	5.803261E-17	2.984133E-18
4.053391E+03	5.772322E-17	2.966788E-18
4.063205E+03	5.741454E-17	2.949493E-18
4.073020E+03	5.709996E-17	2.931907E-18
4.082834E+03	5.678728E-17	2.914431E-18
4.092649E+03	5.647352E-17	2.896913E-18
4.102463E+03	5.615931E-17	2.879385E-18
4.112278E+03	5.584528E-17	2.861879E-18
4.122092E+03	5.553201E-17	2.844426E-18
4.131907E+03	5.522015E-17	2.827057E-18
4.141721E+03	5.491026E-17	2.809804E-18
4.151536E+03	5.460622E-17	2.792862E-18
4.161350E+03	5.430205E-17	2.775927E-18
4.171165E+03	5.400163E-17	2.759196E-18
4.180979E+03	5.370549E-17	2.742698E-18
4.190794E+03	5.341419E-17	2.726459E-18
4.200608E+03	5.312825E-17	2.710507E-18
4.210423E+03	5.284818E-17	2.694867E-18
4.220238E+03	5.257447E-17	2.679562E-18
4.230052E+03	5.230757E-17	2.664618E-18
4.239867E+03	5.204499E-17	2.649905E-18
4.249681E+03	5.179308E-17	2.635747E-18
4.259496E+03	5.154636E-17	2.621865E-18
4.269310E+03	5.130814E-17	2.608425E-18
4.279125E+03	5.107594E-17	2.595302E-18
4.288939E+03	5.085575E-17	2.582800E-18
4.298754E+03	5.064223E-17	2.570646E-18
4.308568E+03	5.043847E-17	2.558998E-18
4.318383E+03	5.024470E-17	2.547865E-18
4.328197E+03	5.005842E-17	2.537120E-18
4.338012E+03	4.988255E-17	2.526912E-18
4.347826E+03	4.971459E-17	2.517113E-18
4.357641E+03	4.956001E-17	2.507997E-18
4.367455E+03	4.941097E-17	2.499170E-18
4.377270E+03	4.927547E-17	2.491034E-18
4.387084E+03	4.914834E-17	2.483327E-18
4.396899E+03	4.902965E-17	2.476052E-18
4.406713E+03	4.892198E-17	2.469340E-18
4.416528E+03	4.882534E-17	2.463188E-18
4.426342E+03	4.873712E-17	2.457466E-18
4.436157E+03	4.865983E-17	2.452299E-18
4.445971E+03	4.859086E-17	2.447555E-18
4.455786E+03	4.853017E-17	2.443231E-18
4.465600E+03	4.848008E-17	2.439444E-18
4.475415E+03	4.843801E-17	2.436062E-18
4.485229E+03	4.840621E-17	2.433199E-18
4.495044E+03	4.838210E-17	2.430724E-18
4.504858E+03	4.836784E-17	2.428745E-18
4.514673E+03	4.836080E-17	2.427129E-18
4.524487E+03	4.836072E-17	2.425863E-18
4.534302E+03	4.836967E-17	2.425050E-18
4.544116E+03	4.838262E-17	2.424438E-18
4.553931E+03	4.840629E-17	2.424362E-18
4.563745E+03	4.843324E-17	2.424451E-18
4.573560E+03	4.846776E-17	2.424917E-18
4.583374E+03	4.850708E-17	2.425622E-18
4.593189E+03	4.855074E-17	2.426543E-18
4.603003E+03	4.860059E-17	2.427772E-18
4.612818E+03	4.865380E-17	2.429167E-18
4.622632E+03	4.870985E-17	2.430703E-18
4.632447E+03	4.876818E-17	2.432350E-18
4.642261E+03	4.883054E-17	2.434197E-18
4.652076E+03	4.889401E-17	2.436097E-18
4.661890E+03	4.895571E-17	2.437907E-18
4.671705E+03	4.902187E-17	2.439938E-18
4.681519E+03	4.908498E-17	2.441816E-18
4.691334E+03	4.914668E-17	2.443622E-18
4.701148E+03	4.920857E-17	2.445436E-18
4.710963E+03	4.926772E-17	2.447113E-18
4.720777E+03	4.932347E-17	2.448620E-18
4.730592E+03	4.937518E-17	2.449927E-18
4.740406E+03	4.942230E-17	2.451005E-18
4.750221E+03	4.946656E-17	2.451941E-18
4.760035E+03	4.950312E-17	2.452497E-18
4.769850E+03	4.953635E-17	2.452889E-18
4.779664E+03	4.956430E-17	2.453020E-18
4.789479E+03	4.958764E-17	2.452924E-18
4.799293E+03	4.960721E-17	2.452643E-18
4.809108E+03	4.962396E-17	2.452225E-18
4.818922E+03	4.964112E-17	2.451828E-18
4.828737E+03	4.965525E-17	2.451283E-18
4.838551E+03	4.967176E-17	2.450858E-18
4.848366E+03	4.968936E-17	2.450487E-18
4.858180E+03	4.970674E-17	2.450108E-18
4.867995E+03	4.972907E-17	2.449974E-18
4.877809E+03	4.975489E-17	2.450013E-18
4.887624E+03	4.978484E-17	2.450256E-18
4.897438E+03	4.982164E-17	2.450837E-18
4.907253E+03	4.986139E-17	2.451563E-18
4.917067E+03	4.990882E-17	2.452667E-18
4.926882E+03	4.995986E-17	2.453949E-18
4.936696E+03	5.001904E-17	2.455629E-18
4.946511E+03	5.008432E-17	2.457608E-18
4.956325E+03	5.015573E-17	2.459887E-18
4.966140E+03	5.023323E-17	2.462463E-18
4.975954E+03	5.031672E-17	2.465330E-18
4.985769E+03	5.040603E-17	2.468481E-18
4.995583E+03	5.050311E-17	2.472010E-18
5.005398E+03	5.060336E-17	2.475692E-18
5.015212E+03	5.071082E-17	2.479723E-18
5.025027E+03	5.082298E-17	2.483981E-18
5.034841E+03	5.093950E-17	2.488448E-18
5.044656E+03	5.105997E-17	2.493105E-18
5.054471E+03	5.118402E-17	2.497932E-18
5.064285E+03	5.131123E-17	2.502910E-18
5.074100E+03	5.144330E-17	2.508121E-18
5.083914E+03	5.157758E-17	2.513435E-18
5.093729E+03	5.171140E-17	2.518723E-18
5.103543E+03	5.184852E-17	2.524167E-18
5.113358E+03	5.198615E-17	2.529631E-18
5.123172E+03	5.212578E-17	2.535188E-18
5.132987E+03	5.226231E-17	2.540591E-18
5.142801E+03	5.239932E-17	2.546011E-18
5.152616E+03	5.253375E-17	2.551303E-18
5.162430E+03	5.266472E-17	2.556422E-18
5.172245E+03	5.279128E-17	2.561323E-18
5.182059E+03	5.291245E-17	2.565959E-18
5.191874E+03	5.302947E-17	2.570391E-18
5.201688E+03	5.313693E-17	2.574356E-18
5.211503E+03	5.323825E-17	2.578021E-18
5.221317E+03	5.333241E-17	2.581337E-18
5.231132E+03	5.341405E-17	2.584046E-18
5.240946E+03	5.348657E-17	2.586312E-18
5.250761E+03	5.354682E-17	2.587984E-18
5.260575E+03	5.359384E-17	2.589016E-18
5.270390E+03	5.362671E-17	2.589366E-18
5.280204E+03	5.364455E-17	2.588991E-18
5.290019E+03	5.364867E-17	2.587957E-18
5.299833E+03	5.363608E-17	2.586118E-18
5.309648E+03	5.360819E-17	2.583546E-18
5.319462E+03	5.355991E-17	2.579995E-18
5.329277E+03	5.349498E-17	2.575648E-18
5.339091E+03	5.341062E-17	2.570372E-18
5.348906E+03	5.330854E-17	2.564249E-18
5.358720E+03	5.318611E-17	2.557156E-18
5.368535E+03	5.304299E-17	2.549076E-18
5.378349E+03	5.287893E-17	2.540001E-18
5.388164E+03	5.269588E-17	2.530024E-18
5.397978E+03	5.249158E-17	2.519038E-18
5.407793E+03	5.226599E-17	2.507043E-18
5.417607E+03	5.202125E-17	2.494144E-18
5.427422E+03	5.175536E-17	2.480245E-18
5.437236E+03	5.146850E-17	2.465356E-18
5.447051E+03	5.116301E-17	2.449592E-18
5.456865E+03	5.083713E-17	2.432868E-18
5.466680E+03	5.049129E-17	2.415208E-18
5.476494E+03	5.012807E-17	2.396735E-18
5.486309E+03	4.974605E-17	2.377382E-18
5.496123E+03	4.934596E-17	2.357187E-18
5.505938E+03	4.893068E-17	2.336288E-18
5.515752E+03	4.850120E-17	2.314732E-18
5.525567E+03	4.805474E-17	2.292388E-18
5.535381E+03	4.759850E-17	2.269602E-18
5.545196E+03	4.712817E-17	2.246166E-18
5.555010E+03	4.664926E-17	2.222347E-18
5.564825E+03	4.616360E-17	2.198229E-18
5.574639E+03	4.567127E-17	2.173819E-18
5.584454E+03	4.517439E-17	2.149216E-18
5.594268E+03	4.467702E-17	2.124616E-18
5.604083E+03	4.417961E-17	2.100038E-18
5.613897E+03	4.368625E-17	2.075677E-18
5.623712E+03	4.319744E-17	2.051558E-18
5.633526E+03	4.271719E-17	2.027868E-18
5.643341E+03	4.224594E-17	2.004630E-18
5.653155E+03	4.178750E-17	1.982023E-18
5.662970E+03	4.134210E-17	1.960057E-18
5.672784E+03	4.091329E-17	1.938899E-18
5.682599E+03	4.050107E-17	1.918549E-18
5.692413E+03	4.010862E-17	1.899156E-18
5.702228E+03	3.973570E-17	1.880707E-18
5.712042E+03	3.938515E-17	1.863336E-18
5.721857E+03	3.905649E-17	1.847018E-18
5.731671E+03	3.875224E-17	1.831872E-18
5.741486E+03	3.847324E-17	1.817936E-18
5.751300E+03	3.821864E-17	1.805168E-18
5.761115E+03	3.799062E-17	1.793669E-18
5.770929E+03	3.778817E-17	1.783390E-18
5.780744E+03	3.761329E-17	1.774424E-18
5.790558E+03	3.746637E-17	1.766789E-18
5.800373E+03	3.734622E-17	1.760426E-18
5.810187E+03	3.725467E-17	1.755420E-18
5.820002E+03	3.719046E-17	1.751711E-18
5.829816E+03	3.715537E-17	1.749381E-18
5.839631E+03	3.714962E-17	1.748438E-18
5.849445E+03	3.717193E-17	1.748821E-18
5.859260E+03	3.722405E-17	1.750610E-18
5.869074E+03	3.730473E-17	1.753746E-18
5.878889E+03	3.741729E-17	1.758384E-18
5.888704E+03	3.755901E-17	1.764394E-18
5.898518E+03	3.773025E-17	1.771791E-18
5.908333E+03	3.793450E-17	1.780738E-18
5.918147E+03	3.816915E-17	1.791111E-18
5.927962E+03	3.843471E-17	1.802933E-18
5.937776E+03	3.873492E-17	1.816378E-18
5.947591E+03	3.906729E-17	1.831327E-18
5.957405E+03	3.943249E-17	1.847812E-18
5.967220E+03	3.983452E-17	1.866017E-18
5.977034E+03	4.027092E-17	1.885827E-18
5.986849E+03	4.074413E-17	1.907354E-18
5.996663E+03	4.125497E-17	1.930635E-18
6.006478E+03	4.180252E-17	1.955627E-18
6.016292E+03	4.239095E-17	1.982523E-18
6.026107E+03	4.301748E-17	2.011191E-18
6.035921E+03	4.368259E-17	2.041653E-18
6.045736E+03	4.439025E-17	2.074093E-18
6.055550E+03	4.513704E-17	2.108351E-18
6.065365E+03	4.592468E-17	2.144506E-18
6.075179E+03	4.675276E-17	2.182537E-18
6.084994E+03	4.762040E-17	2.222403E-18
6.094808E+03	4.852411E-17	2.263939E-18
6.104623E+03	4.946362E-17	2.307133E-18
6.114437E+03	5.043604E-17	2.351850E-18
6.124252E+03	5.143780E-17	2.397922E-18
6.134066E+03	5.246470E-17	2.445152E-18
6.143881E+03	5.351182E-17	2.493312E-18
6.153695E+03	5.457130E-17	2.542035E-18
6.163510E+03	5.563906E-17	2.591131E-18
6.173324E+03	5.670815E-17	2.640277E-18
6.183139E+03	5.777096E-17	2.689120E-18
6.192953E+03	5.881927E-17	2.737277E-18
6.202768E+03	5.984175E-17	2.784224E-18
6.212582E+03	6.083412E-17	2.829761E-18
6.222397E+03	6.178160E-17	2.873203E-18
6.232211E+03	6.267681E-17	2.914210E-18
6.242026E+03	6.351240E-17	2.952441E-18
6.251840E+03	6.427317E-17	2.987191E-18
6.261655E+03	6.494941E-17	3.018014E-18
6.271469E+03	6.553754E-17	3.044744E-18
6.281284E+03	6.602657E-17	3.066875E-18
6.291098E+03	6.640926E-17	3.084072E-18
6.300913E+03	6.667674E-17	3.095927E-18
6.310727E+03	6.682999E-17	3.102489E-18
6.320542E+03	6.686026E-17	3.103353E-18
6.330356E+03	6.676889E-17	3.098586E-18
6.340171E+03	6.655886E-17	3.088329E-18
6.349985E+03	6.622631E-17	3.072404E-18
6.359800E+03	6.577740E-17	3.051100E-18
6.369614E+03	6.521690E-17	3.024640E-18
6.379429E+03	6.455082E-17	2.993306E-18
6.389243E+03	6.378626E-17	2.957428E-18
6.399058E+03	6.293119E-17	2.917376E-18
6.408872E+03	6.199419E-17	2.873551E-18
6.418687E+03	6.098433E-17	2.826372E-18
6.428501E+03	5.991087E-17	2.776271E-18
6.438316E+03	5.878318E-17	2.723681E-18
6.448130E+03	5.760801E-17	2.668915E-18
6.457945E+03	5.639935E-17	2.612623E-18
6.467759E+03	5.516333E-17	2.555087E-18
6.477574E+03	5.390817E-17	2.496687E-18
6.487388E+03	5.264155E-17	2.437779E-18
6.497203E+03	5.137065E-17	2.378694E-18
6.507017E+03	5.010200E-17	2.319736E-18
6.516832E+03	4.883947E-17	2.261081E-18
6.526646E+03	4.759269E-17	2.203175E-18
6.536461E+03	4.636426E-17	2.146137E-18
6.546275E+03	4.515837E-17	2.090160E-18
6.556090E+03	4.397864E-17	2.035411E-18
6.565904E+03	4.282818E-17	1.982032E-18
6.575719E+03	4.170958E-17	1.930143E-18
6.585533E+03	4.062499E-17	1.879843E-18
6.595348E+03	3.957615E-17	1.831210E-18
6.605162E+03	3.856440E-17	1.784306E-18
6.614977E+03	3.759237E-17	1.739251E-18
6.624791E+03	3.665745E-17	1.695926E-18
6.634606E+03	3.576177E-17	1.654425E-18
6.644420E+03	3.490549E-17	1.614758E-18
6.654235E+03	3.409012E-17	1.576992E-18
6.664049E+03	3.331245E-17	1.540978E-18
6.673864E+03	3.257511E-17	1.506839E-18
6.683678E+03	3.187475E-17	1.474418E-18
6.693493E+03	3.121366E-17	1.443820E-18
6.703307E+03	3.058844E-17	1.414888E-18
6.713122E+03	3.000110E-17	1.387715E-18
6.722937E+03	2.944954E-17	1.362204E-18
6.732751E+03	2.893175E-17	1.338259E-18
6.742566E+03	2.844950E-17	1.315964E-18
6.752380E+03	2.800073E-17	1.295223E-18
6.762195E+03	2.758469E-17	1.276001E-18
6.772009E+03	2.720064E-17	1.258264E-18
6.781824E+03	2.684782E-17	1.241976E-18
6.791638E+03	2.652553E-17	1.227105E-18
6.801453E+03	2.623304E-17	1.213617E-18
6.811267E+03	2.597084E-17	1.201534E-18
6.821082E+03	2.573589E-17	1.190717E-18
6.830896E+03	2.552871E-17	1.181189E-18
6.840711E+03	2.534866E-17	1.172921E-18
6.850525E+03	2.519622E-17	1.165935E-18
6.860340E+03	2.506853E-17	1.160098E-18
6.870154E+03	2.496610E-17	1.155435E-18
6.879969E+03	2.488945E-17	1.151970E-18
6.889783E+03	2.483577E-17	1.149573E-18
6.899598E+03	2.480668E-17	1.148320E-18
6.909412E+03	2.479942E-17	1.148082E-18
6.919227E+03	2.481559E-17	1.148934E-18
6.929041E+03	2.485349E-17	1.150798E-18
6.938856E+03	2.491137E-17	1.153594E-18
6.948670E+03	2.499083E-17	1.157394E-18
6.958485E+03	2.508894E-17	1.162066E-18
6.968299E+03	2.520722E-17	1.167678E-18
6.978114E+03	2.534378E-17	1.174144E-18
6.987928E+03	2.549663E-17	1.181372E-18
6.997743E+03	2.566713E-17	1.189427E-18
7.007557E+03	2.585203E-17	1.198156E-18
7.017372E+03	2.605255E-17	1.207619E-18
7.027186E+03	2.626522E-17	1.217653E-18
7.037001E+03	2.649116E-17	1.228312E-18
7.046815E+03	2.672665E-17	1.239424E-18
7.056630E+03	2.697270E-17	1.251035E-18
7.066444E+03	2.722533E-17	1.262962E-18
7.076259E+03	2.748415E-17	1.275187E-18
7.086073E+03	2.774873E-17	1.287690E-18
7.095888E+03	2.801472E-17	1.300271E-18
7.105702E+03	2.828148E-17	1.312899E-18
7.115517E+03	2.854705E-17	1.325483E-18
7.125331E+03	2.880932E-17	1.337928E-18
7.135146E+03	2.906616E-17	1.350132E-18
7.144960E+03	2.931536E-17	1.361994E-18
7.154775E+03	2.955328E-17	1.373345E-18
7.164589E+03	2.978030E-17	1.384202E-18
7.174404E+03	2.999275E-17	1.394395E-18
7.184218E+03	3.018689E-17	1.403748E-18
7.194033E+03	3.036178E-17	1.412220E-18
7.203847E+03	3.051515E-17	1.419703E-18
7.213662E+03	3.064622E-17	1.426160E-18
7.223476E+03	3.074867E-17	1.431297E-18
7.233291E+03	3.082480E-17	1.435221E-18
7.243105E+03	3.087147E-17	1.437783E-18
7.252920E+03	3.088569E-17	1.438844E-18
7.262734E+03	3.086906E-17	1.438477E-18
7.272549E+03	3.081775E-17	1.436502E-18
7.282363E+03	3.073254E-17	1.432955E-18
7.292178E+03	3.061171E-17	1.427754E-18
7.301992E+03	3.045821E-17	1.421034E-18
7.311807E+03	3.026965E-17	1.412684E-18
7.321621E+03	3.004974E-17	1.402874E-18
7.331436E+03	2.979690E-17	1.391529E-18
7.341250E+03	2.951415E-17	1.378789E-18
7.351065E+03	2.920209E-17	1.364679E-18
7.360879E+03	2.886575E-17	1.349434E-18
7.370694E+03	2.850494E-17	1.333044E-18
7.380508E+03	2.812382E-17	1.315700E-18
7.390323E+03	2.772404E-17	1.297480E-18
7.400137E+03	2.731128E-17	1.278648E-18
7.409952E+03	2.688614E-17	1.259230E-18
7.419766E+03	2.645306E-17	1.239434E-18
7.429581E+03	2.601518E-17	1.219407E-18
7.439395E+03	2.557434E-17	1.199232E-18
7.449210E+03	2.513590E-17	1.179162E-18
7.459024E+03	2.470020E-17	1.159212E-18
7.468839E+03	2.426983E-17	1.139502E-18
7.478653E+03	2.384937E-17	1.120249E-18
7.488468E+03	2.343852E-17	1.101437E-18
7.498282E+03	2.304000E-17	1.083195E-18
7.508097E+03	2.265389E-17	1.065526E-18
7.517911E+03	2.228304E-17	1.048566E-18
7.527726E+03	2.192567E-17	1.032231E-18
7.537540E+03	2.158197E-17	1.016530E-18
7.547355E+03	2.125400E-17	1.001562E-18
7.557169E+03	2.093954E-17	9.872212E-19
7.566984E+03	2.063942E-17	9.735481E-19
7.576799E+03	2.035235E-17	9.604829E-19
7.586613E+03	2.007903E-17	9.480585E-19
7.596428E+03	1.981906E-17	9.362574E-19
7.606242E+03	1.957209E-17	9.250629E-19
7.616057E+03	1.933674E-17	9.144112E-19
