#wls	flux	fluxerr
1.570321E+03	5.616070E-18	2.095652E-19
1.609579E+03	5.870910E-18	2.190305E-19
1.648837E+03	6.142354E-18	2.291100E-19
1.688095E+03	6.431559E-18	2.398464E-19
1.727353E+03	6.739713E-18	2.512833E-19
1.766611E+03	7.067946E-18	2.634622E-19
1.805869E+03	7.418433E-18	2.764634E-19
1.845127E+03	7.790809E-18	2.902725E-19
1.884385E+03	8.187066E-18	3.049628E-19
1.923643E+03	8.606447E-18	3.205051E-19
1.962901E+03	9.051082E-18	3.369779E-19
2.002159E+03	9.522592E-18	3.544404E-19
2.041417E+03	1.002304E-17	3.729681E-19
2.080675E+03	1.056115E-17	3.928845E-19
2.119933E+03	1.114991E-17	4.146710E-19
2.159191E+03	1.179832E-17	4.386598E-19
2.198449E+03	1.251729E-17	4.652544E-19
2.237707E+03	1.331192E-17	4.946411E-19
2.276965E+03	1.417856E-17	5.266815E-19
2.316223E+03	1.511430E-17	5.612641E-19
2.355481E+03	1.612003E-17	5.984185E-19
2.394739E+03	1.719388E-17	6.380723E-19
2.433997E+03	1.834060E-17	6.803977E-19
2.473255E+03	1.956349E-17	7.255138E-19
2.512513E+03	2.086630E-17	7.735554E-19
2.551772E+03	2.225281E-17	8.246582E-19
2.591030E+03	2.372654E-17	8.789483E-19
2.630288E+03	2.529430E-17	9.366724E-19
2.669546E+03	2.695530E-17	9.977961E-19
2.708804E+03	2.871129E-17	1.062379E-18
2.748062E+03	3.056739E-17	1.130604E-18
2.787320E+03	3.252394E-17	1.202477E-18
2.826578E+03	3.457524E-17	1.277782E-18
2.865836E+03	3.672807E-17	1.356763E-18
2.905094E+03	3.896852E-17	1.438898E-18
2.944352E+03	4.130057E-17	1.524330E-18
2.954166E+03	4.189963E-17	1.546266E-18
2.963981E+03	4.249656E-17	1.568117E-18
2.973795E+03	4.310222E-17	1.590285E-18
2.983610E+03	4.371657E-17	1.612767E-18
2.993424E+03	4.432807E-17	1.635138E-18
3.003239E+03	4.494792E-17	1.657811E-18
3.013053E+03	4.557018E-17	1.680567E-18
3.022868E+03	4.619459E-17	1.703396E-18
3.032682E+03	4.682701E-17	1.726514E-18
3.042497E+03	4.746093E-17	1.749681E-18
3.052311E+03	4.809674E-17	1.772911E-18
3.062126E+03	4.873410E-17	1.796191E-18
3.071940E+03	4.937883E-17	1.819737E-18
3.081755E+03	5.002450E-17	1.843310E-18
3.091569E+03	5.067703E-17	1.867129E-18
3.101384E+03	5.132346E-17	1.890717E-18
3.111198E+03	5.197608E-17	1.914527E-18
3.121013E+03	5.262819E-17	1.938310E-18
3.130827E+03	5.328590E-17	1.962293E-18
3.140642E+03	5.394236E-17	1.986223E-18
3.150456E+03	5.459715E-17	2.010084E-18
3.160271E+03	5.524982E-17	2.033860E-18
3.170085E+03	5.590668E-17	2.057783E-18
3.179900E+03	5.656062E-17	2.081592E-18
3.189714E+03	5.721119E-17	2.105268E-18
3.199529E+03	5.786481E-17	2.129051E-18
3.209343E+03	5.851419E-17	2.152670E-18
3.219158E+03	5.915885E-17	2.176108E-18
3.228972E+03	5.980534E-17	2.199606E-18
3.238787E+03	6.044620E-17	2.222890E-18
3.248601E+03	6.108090E-17	2.245940E-18
3.258416E+03	6.170893E-17	2.268738E-18
3.268230E+03	6.233701E-17	2.291530E-18
3.278045E+03	6.295745E-17	2.314034E-18
3.287859E+03	6.357702E-17	2.336499E-18
3.297674E+03	6.418060E-17	2.358369E-18
3.307488E+03	6.478230E-17	2.380162E-18
3.317303E+03	6.538169E-17	2.401864E-18
3.327117E+03	6.596338E-17	2.422908E-18
3.336932E+03	6.654172E-17	2.443823E-18
3.346746E+03	6.711623E-17	2.464589E-18
3.356561E+03	6.767134E-17	2.484637E-18
3.366376E+03	6.822157E-17	2.504498E-18
3.376190E+03	6.875882E-17	2.523876E-18
3.386005E+03	6.929017E-17	2.543030E-18
3.395819E+03	6.980748E-17	2.561663E-18
3.405634E+03	7.031019E-17	2.579753E-18
3.415448E+03	7.079774E-17	2.597281E-18
3.425263E+03	7.127731E-17	2.614510E-18
3.435077E+03	7.174067E-17	2.631138E-18
3.444892E+03	7.218730E-17	2.647146E-18
3.454706E+03	7.262443E-17	2.662800E-18
3.464521E+03	7.304379E-17	2.677796E-18
3.474335E+03	7.344489E-17	2.692118E-18
3.484150E+03	7.383502E-17	2.706031E-18
3.493964E+03	7.420593E-17	2.719235E-18
3.503779E+03	7.455713E-17	2.731712E-18
3.513593E+03	7.489599E-17	2.743731E-18
3.523408E+03	7.520646E-17	2.754705E-18
3.533222E+03	7.550373E-17	2.765191E-18
3.543037E+03	7.578736E-17	2.775174E-18
3.552851E+03	7.604145E-17	2.784070E-18
3.562666E+03	7.628115E-17	2.792435E-18
3.572480E+03	7.650611E-17	2.800257E-18
3.582295E+03	7.670052E-17	2.806957E-18
3.592109E+03	7.687957E-17	2.813091E-18
3.601924E+03	7.703525E-17	2.818367E-18
3.611738E+03	7.716733E-17	2.822777E-18
3.621553E+03	7.728327E-17	2.826593E-18
3.631367E+03	7.737520E-17	2.829529E-18
3.641182E+03	7.744298E-17	2.831579E-18
3.650996E+03	7.748650E-17	2.832740E-18
3.660811E+03	7.751323E-17	2.833286E-18
3.670625E+03	7.751553E-17	2.832937E-18
3.680440E+03	7.749338E-17	2.831694E-18
3.690254E+03	7.745427E-17	2.829829E-18
3.700069E+03	7.738336E-17	2.826803E-18
3.709883E+03	7.729557E-17	2.823159E-18
3.719698E+03	7.718361E-17	2.818632E-18
3.729512E+03	7.705491E-17	2.813494E-18
3.739327E+03	7.689516E-17	2.807222E-18
3.749141E+03	7.671905E-17	2.800354E-18
3.758956E+03	7.651963E-17	2.792636E-18
3.768770E+03	7.630428E-17	2.784338E-18
3.778585E+03	7.605922E-17	2.774956E-18
3.788399E+03	7.579890E-17	2.765020E-18
3.798214E+03	7.551671E-17	2.754289E-18
3.808028E+03	7.521313E-17	2.742779E-18
3.817843E+03	7.488870E-17	2.730511E-18
3.827657E+03	7.455064E-17	2.717749E-18
3.837472E+03	7.418609E-17	2.704024E-18
3.847286E+03	7.380900E-17	2.689846E-18
3.857101E+03	7.341333E-17	2.674993E-18
3.866915E+03	7.300617E-17	2.659726E-18
3.876730E+03	7.257532E-17	2.643600E-18
3.886544E+03	7.212799E-17	2.626877E-18
3.896359E+03	7.167119E-17	2.609814E-18
3.906173E+03	7.119934E-17	2.592207E-18
3.915988E+03	7.071323E-17	2.574086E-18
3.925802E+03	7.021368E-17	2.555481E-18
3.935617E+03	6.970156E-17	2.536423E-18
3.945431E+03	6.917770E-17	2.516943E-18
3.955246E+03	6.864880E-17	2.497286E-18
3.965060E+03	6.810409E-17	2.477058E-18
3.974875E+03	6.755597E-17	2.456713E-18
3.984689E+03	6.699398E-17	2.435869E-18
3.994504E+03	6.643029E-17	2.414969E-18
4.004318E+03	6.586018E-17	2.393842E-18
4.014133E+03	6.528455E-17	2.372521E-18
4.023947E+03	6.470434E-17	2.351039E-18
4.033762E+03	6.412047E-17	2.329431E-18
4.043576E+03	6.353385E-17	2.307729E-18
4.053391E+03	6.294537E-17	2.285966E-18
4.063205E+03	6.235593E-17	2.264176E-18
4.073020E+03	6.176640E-17	2.242388E-18
4.082834E+03	6.117763E-17	2.220634E-18
4.092649E+03	6.059531E-17	2.199121E-18
4.102463E+03	6.001053E-17	2.177526E-18
4.112278E+03	5.942902E-17	2.156056E-18
4.122092E+03	5.885157E-17	2.134740E-18
4.131907E+03	5.827896E-17	2.113606E-18
4.141721E+03	5.771196E-17	2.092683E-18
4.151536E+03	5.715132E-17	2.071996E-18
4.161350E+03	5.659775E-17	2.051572E-18
4.171165E+03	5.605196E-17	2.031437E-18
4.180979E+03	5.551461E-17	2.011614E-18
4.190794E+03	5.498216E-17	1.991975E-18
4.200608E+03	5.446366E-17	1.972847E-18
4.210423E+03	5.395544E-17	1.954098E-18
4.220238E+03	5.345403E-17	1.935601E-18
4.230052E+03	5.296406E-17	1.917525E-18
4.239867E+03	5.248992E-17	1.900028E-18
4.249681E+03	5.202417E-17	1.882839E-18
4.259496E+03	5.157117E-17	1.866118E-18
4.269310E+03	5.112751E-17	1.849740E-18
4.279125E+03	5.070109E-17	1.833992E-18
4.288939E+03	5.028840E-17	1.818745E-18
4.298754E+03	4.988604E-17	1.803876E-18
4.308568E+03	4.949794E-17	1.789529E-18
4.318383E+03	4.912429E-17	1.775707E-18
4.328197E+03	4.876522E-17	1.762418E-18
4.338012E+03	4.842083E-17	1.749664E-18
4.347826E+03	4.808777E-17	1.737323E-18
4.357641E+03	4.776959E-17	1.725524E-18
4.367455E+03	4.746628E-17	1.714266E-18
4.377270E+03	4.717784E-17	1.703548E-18
4.387084E+03	4.690090E-17	1.693250E-18
4.396899E+03	4.664205E-17	1.683608E-18
4.406713E+03	4.639456E-17	1.674379E-18
4.416528E+03	4.615842E-17	1.665563E-18
4.426342E+03	4.593993E-17	1.657387E-18
4.436157E+03	4.573249E-17	1.649612E-18
4.445971E+03	4.553911E-17	1.642347E-18
4.455786E+03	4.535646E-17	1.635471E-18
4.465600E+03	4.519053E-17	1.629201E-18
4.475415E+03	4.503486E-17	1.623302E-18
4.485229E+03	4.489225E-17	1.617877E-18
4.495044E+03	4.475935E-17	1.612803E-18
4.504858E+03	4.463891E-17	1.608180E-18
4.514673E+03	4.453053E-17	1.603993E-18
4.524487E+03	4.443084E-17	1.600121E-18
4.534302E+03	4.434540E-17	1.596763E-18
4.544116E+03	4.426482E-17	1.593582E-18
4.553931E+03	4.419755E-17	1.590881E-18
4.563745E+03	4.413716E-17	1.588429E-18
4.573560E+03	4.408608E-17	1.586313E-18
4.583374E+03	4.404084E-17	1.584408E-18
4.593189E+03	4.400379E-17	1.582799E-18
4.603003E+03	4.397144E-17	1.581359E-18
4.612818E+03	4.394897E-17	1.580276E-18
4.622632E+03	4.393001E-17	1.579319E-18
4.632447E+03	4.391393E-17	1.578467E-18
4.642261E+03	4.390301E-17	1.577800E-18
4.652076E+03	4.389660E-17	1.577297E-18
4.661890E+03	4.389125E-17	1.576832E-18
4.671705E+03	4.388922E-17	1.576487E-18
4.681519E+03	4.388709E-17	1.576139E-18
4.691334E+03	4.388717E-17	1.575870E-18
4.701148E+03	4.388891E-17	1.575663E-18
4.710963E+03	4.388906E-17	1.575398E-18
4.720777E+03	4.389001E-17	1.575163E-18
4.730592E+03	4.388863E-17	1.574845E-18
4.740406E+03	4.388745E-17	1.574535E-18
4.750221E+03	4.388630E-17	1.574227E-18
4.760035E+03	4.388234E-17	1.573819E-18
4.769850E+03	4.387836E-17	1.573410E-18
4.779664E+03	4.387176E-17	1.572909E-18
4.789479E+03	4.386556E-17	1.572423E-18
4.799293E+03	4.385734E-17	1.571865E-18
4.809108E+03	4.385028E-17	1.571349E-18
4.818922E+03	4.384213E-17	1.570796E-18
4.828737E+03	4.383613E-17	1.570320E-18
4.838551E+03	4.383282E-17	1.569941E-18
4.848366E+03	4.383001E-17	1.569581E-18
4.858180E+03	4.383095E-17	1.569357E-18
4.867995E+03	4.383343E-17	1.569188E-18
4.877809E+03	4.383790E-17	1.569091E-18
4.887624E+03	4.385020E-17	1.569275E-18
4.897438E+03	4.386523E-17	1.569558E-18
4.907253E+03	4.388334E-17	1.569951E-18
4.917067E+03	4.390742E-17	1.570559E-18
4.926882E+03	4.393496E-17	1.571291E-18
4.936696E+03	4.396874E-17	1.572246E-18
4.946511E+03	4.400880E-17	1.573427E-18
4.956325E+03	4.405243E-17	1.574735E-18
4.966140E+03	4.410222E-17	1.576265E-18
4.975954E+03	4.415534E-17	1.577913E-18
4.985769E+03	4.421427E-17	1.579770E-18
4.995583E+03	4.427610E-17	1.581730E-18
5.005398E+03	4.434323E-17	1.583880E-18
5.015212E+03	4.441269E-17	1.586114E-18
5.025027E+03	4.448684E-17	1.588515E-18
5.034841E+03	4.456271E-17	1.590978E-18
5.044656E+03	4.464266E-17	1.593586E-18
5.054471E+03	4.472641E-17	1.596331E-18
5.064285E+03	4.481099E-17	1.599105E-18
5.074100E+03	4.489879E-17	1.601994E-18
5.083914E+03	4.498683E-17	1.604892E-18
5.093729E+03	4.507745E-17	1.607882E-18
5.103543E+03	4.516760E-17	1.610855E-18
5.113358E+03	4.525952E-17	1.613892E-18
5.123172E+03	4.535002E-17	1.616879E-18
5.132987E+03	4.544120E-17	1.619889E-18
5.142801E+03	4.553244E-17	1.622903E-18
5.152616E+03	4.562035E-17	1.625797E-18
5.162430E+03	4.570418E-17	1.628547E-18
5.172245E+03	4.578853E-17	1.631316E-18
5.182059E+03	4.586725E-17	1.633884E-18
5.191874E+03	4.593954E-17	1.636225E-18
5.201688E+03	4.600730E-17	1.638404E-18
5.211503E+03	4.606710E-17	1.640300E-18
5.221317E+03	4.612357E-17	1.642079E-18
5.231132E+03	4.616788E-17	1.643426E-18
5.240946E+03	4.620473E-17	1.644508E-18
5.250761E+03	4.623341E-17	1.645301E-18
5.260575E+03	4.625323E-17	1.645779E-18
5.270390E+03	4.626081E-17	1.645824E-18
5.280204E+03	4.625548E-17	1.645410E-18
5.290019E+03	4.624200E-17	1.644709E-18
5.299833E+03	4.621170E-17	1.643410E-18
5.309648E+03	4.617205E-17	1.641781E-18
5.319462E+03	4.611718E-17	1.639613E-18
5.329277E+03	4.604931E-17	1.636985E-18
5.339091E+03	4.596537E-17	1.633788E-18
5.348906E+03	4.586768E-17	1.630105E-18
5.358720E+03	4.575333E-17	1.625832E-18
5.368535E+03	4.562474E-17	1.621055E-18
5.378349E+03	4.548177E-17	1.615771E-18
5.388164E+03	4.532165E-17	1.609880E-18
5.397978E+03	4.514697E-17	1.603475E-18
5.407793E+03	4.495768E-17	1.596554E-18
5.417607E+03	4.475120E-17	1.589026E-18
5.427422E+03	4.453016E-17	1.580985E-18
5.437236E+03	4.429207E-17	1.572341E-18
5.447051E+03	4.404213E-17	1.563281E-18
5.456865E+03	4.377285E-17	1.553538E-18
5.466680E+03	4.349198E-17	1.543387E-18
5.476494E+03	4.319471E-17	1.532658E-18
5.486309E+03	4.288383E-17	1.521451E-18
5.496123E+03	4.255720E-17	1.509689E-18
5.505938E+03	4.221776E-17	1.497476E-18
5.515752E+03	4.186604E-17	1.484832E-18
5.525567E+03	4.150034E-17	1.471697E-18
5.535381E+03	4.112391E-17	1.458186E-18
5.545196E+03	4.073780E-17	1.444336E-18
5.555010E+03	4.034324E-17	1.430190E-18
5.564825E+03	3.993935E-17	1.415719E-18
5.574639E+03	3.953012E-17	1.401063E-18
5.584454E+03	3.911511E-17	1.386206E-18
5.594268E+03	3.869854E-17	1.371299E-18
5.604083E+03	3.828248E-17	1.356415E-18
5.613897E+03	3.786899E-17	1.341626E-18
5.623712E+03	3.745807E-17	1.326932E-18
5.633526E+03	3.705396E-17	1.312484E-18
5.643341E+03	3.665868E-17	1.298353E-18
5.653155E+03	3.627206E-17	1.284533E-18
5.662970E+03	3.590009E-17	1.271236E-18
5.672784E+03	3.553825E-17	1.258301E-18
5.682599E+03	3.519426E-17	1.246002E-18
5.692413E+03	3.486545E-17	1.234244E-18
5.702228E+03	3.455708E-17	1.223214E-18
5.712042E+03	3.426431E-17	1.212739E-18
5.721857E+03	3.399407E-17	1.203065E-18
5.731671E+03	3.374330E-17	1.194082E-18
5.741486E+03	3.351470E-17	1.185887E-18
5.751300E+03	3.330890E-17	1.178502E-18
5.761115E+03	3.312648E-17	1.171946E-18
5.770929E+03	3.296603E-17	1.166170E-18
5.780744E+03	3.282990E-17	1.161257E-18
5.790558E+03	3.271843E-17	1.157218E-18
5.800373E+03	3.263198E-17	1.154065E-18
5.810187E+03	3.256895E-17	1.151744E-18
5.820002E+03	3.253335E-17	1.150394E-18
5.829816E+03	3.252169E-17	1.149891E-18
5.839631E+03	3.253417E-17	1.150244E-18
5.849445E+03	3.257477E-17	1.151593E-18
5.859260E+03	3.263994E-17	1.153811E-18
5.869074E+03	3.273177E-17	1.156973E-18
5.878889E+03	3.285051E-17	1.161086E-18
5.888704E+03	3.299642E-17	1.166161E-18
5.898518E+03	3.316981E-17	1.172208E-18
5.908333E+03	3.336909E-17	1.179171E-18
5.918147E+03	3.359658E-17	1.187131E-18
5.927962E+03	3.385272E-17	1.196104E-18
5.937776E+03	3.413804E-17	1.206108E-18
5.947591E+03	3.445312E-17	1.217165E-18
5.957405E+03	3.479659E-17	1.229224E-18
5.967220E+03	3.517111E-17	1.242381E-18
5.977034E+03	3.557944E-17	1.256732E-18
5.986849E+03	3.601615E-17	1.272085E-18
5.996663E+03	3.648813E-17	1.288685E-18
6.006478E+03	3.699404E-17	1.306483E-18
6.016292E+03	3.753235E-17	1.325425E-18
6.026107E+03	3.810795E-17	1.345683E-18
6.035921E+03	3.871689E-17	1.367120E-18
6.045736E+03	3.936167E-17	1.389821E-18
6.055550E+03	4.004237E-17	1.413791E-18
6.065365E+03	4.075885E-17	1.439025E-18
6.075179E+03	4.150826E-17	1.465421E-18
6.084994E+03	4.229457E-17	1.493119E-18
6.094808E+03	4.311166E-17	1.521905E-18
6.104623E+03	4.396018E-17	1.551800E-18
6.114437E+03	4.484043E-17	1.582816E-18
6.124252E+03	4.574446E-17	1.614672E-18
6.134066E+03	4.666871E-17	1.647242E-18
6.143881E+03	4.761457E-17	1.680575E-18
6.153695E+03	4.857485E-17	1.714418E-18
6.163510E+03	4.954146E-17	1.748485E-18
6.173324E+03	5.051432E-17	1.782773E-18
6.183139E+03	5.148120E-17	1.816852E-18
6.192953E+03	5.243796E-17	1.850574E-18
6.202768E+03	5.338013E-17	1.883783E-18
6.212582E+03	5.429341E-17	1.915974E-18
6.222397E+03	5.517232E-17	1.946954E-18
6.232211E+03	5.600463E-17	1.976292E-18
6.242026E+03	5.678775E-17	2.003895E-18
6.251840E+03	5.750924E-17	2.029327E-18
6.261655E+03	5.815670E-17	2.052148E-18
6.271469E+03	5.872829E-17	2.072295E-18
6.281284E+03	5.920919E-17	2.089244E-18
6.291098E+03	5.959930E-17	2.102993E-18
6.300913E+03	5.988569E-17	2.113084E-18
6.310727E+03	6.006730E-17	2.119482E-18
6.320542E+03	6.014100E-17	2.122075E-18
6.330356E+03	6.010885E-17	2.120936E-18
6.340171E+03	5.996383E-17	2.115817E-18
6.349985E+03	5.971113E-17	2.106903E-18
6.359800E+03	5.935040E-17	2.094179E-18
6.369614E+03	5.889312E-17	2.078051E-18
6.379429E+03	5.834139E-17	2.058594E-18
6.389243E+03	5.770176E-17	2.036037E-18
6.399058E+03	5.698152E-17	2.010639E-18
6.408872E+03	5.618516E-17	1.982557E-18
6.418687E+03	5.532749E-17	1.952314E-18
6.428501E+03	5.441015E-17	1.919968E-18
6.438316E+03	5.344783E-17	1.886036E-18
6.448130E+03	5.244219E-17	1.850577E-18
6.457945E+03	5.140725E-17	1.814085E-18
6.467759E+03	5.034420E-17	1.776603E-18
6.477574E+03	4.926315E-17	1.738487E-18
6.487388E+03	4.817348E-17	1.700067E-18
6.497203E+03	4.707537E-17	1.661350E-18
6.507017E+03	4.597731E-17	1.622635E-18
6.516832E+03	4.488697E-17	1.584194E-18
6.526646E+03	4.380347E-17	1.545993E-18
6.536461E+03	4.273356E-17	1.508273E-18
6.546275E+03	4.168080E-17	1.471158E-18
6.556090E+03	4.064828E-17	1.434757E-18
6.565904E+03	3.963862E-17	1.399162E-18
6.575719E+03	3.865411E-17	1.364455E-18
6.585533E+03	3.769657E-17	1.330700E-18
6.595348E+03	3.676754E-17	1.297950E-18
6.605162E+03	3.586822E-17	1.266248E-18
6.614977E+03	3.499953E-17	1.235628E-18
6.624791E+03	3.416217E-17	1.206112E-18
6.634606E+03	3.335659E-17	1.177718E-18
6.644420E+03	3.258303E-17	1.150453E-18
6.654235E+03	3.184162E-17	1.124323E-18
6.664049E+03	3.113228E-17	1.099324E-18
6.673864E+03	3.045299E-17	1.075386E-18
6.683678E+03	2.980718E-17	1.052629E-18
6.693493E+03	2.919258E-17	1.030974E-18
6.703307E+03	2.860874E-17	1.010404E-18
6.713122E+03	2.805346E-17	9.908418E-19
6.722937E+03	2.752959E-17	9.723887E-19
6.732751E+03	2.703483E-17	9.549628E-19
6.742566E+03	2.656857E-17	9.385430E-19
6.752380E+03	2.612861E-17	9.230516E-19
6.762195E+03	2.571756E-17	9.085811E-19
6.772009E+03	2.533320E-17	8.950531E-19
6.781824E+03	2.497343E-17	8.823931E-19
6.791638E+03	2.464068E-17	8.706879E-19
6.801453E+03	2.433137E-17	8.598102E-19
6.811267E+03	2.404789E-17	8.498451E-19
6.821082E+03	2.378669E-17	8.406671E-19
6.830896E+03	2.355014E-17	8.323604E-19
6.840711E+03	2.333478E-17	8.248025E-19
6.850525E+03	2.314293E-17	8.180754E-19
6.860340E+03	2.297121E-17	8.120600E-19
6.870154E+03	2.282190E-17	8.068372E-19
6.879969E+03	2.269169E-17	8.022899E-19
6.889783E+03	2.258148E-17	7.984499E-19
6.899598E+03	2.249215E-17	7.953486E-19
6.909412E+03	2.242043E-17	7.928706E-19
6.919227E+03	2.236722E-17	7.910477E-19
6.929041E+03	2.233341E-17	7.899116E-19
6.938856E+03	2.231572E-17	7.893466E-19
6.948670E+03	2.231505E-17	7.893844E-19
6.958485E+03	2.233085E-17	7.900057E-19
6.968299E+03	2.236256E-17	7.911908E-19
6.978114E+03	2.240958E-17	7.929191E-19
6.987928E+03	2.247128E-17	7.951676E-19
6.997743E+03	2.254697E-17	7.979130E-19
7.007557E+03	2.263591E-17	8.011281E-19
7.017372E+03	2.273728E-17	8.047851E-19
7.027186E+03	2.284884E-17	8.088044E-19
7.037001E+03	2.297251E-17	8.132536E-19
7.046815E+03	2.310590E-17	8.180489E-19
7.056630E+03	2.324801E-17	8.231551E-19
7.066444E+03	2.339633E-17	8.284827E-19
7.076259E+03	2.355264E-17	8.340953E-19
7.086073E+03	2.371283E-17	8.398474E-19
7.095888E+03	2.387715E-17	8.457476E-19
7.105702E+03	2.404580E-17	8.518038E-19
7.115517E+03	2.421444E-17	8.578615E-19
7.125331E+03	2.438316E-17	8.639245E-19
7.135146E+03	2.455051E-17	8.699408E-19
7.144960E+03	2.471495E-17	8.758565E-19
7.154775E+03	2.487495E-17	8.816169E-19
7.164589E+03	2.502886E-17	8.871639E-19
7.174404E+03	2.517505E-17	8.924396E-19
7.184218E+03	2.531185E-17	8.973844E-19
7.194033E+03	2.543596E-17	9.018812E-19
7.203847E+03	2.554886E-17	9.059828E-19
7.213662E+03	2.564567E-17	9.095158E-19
7.223476E+03	2.572795E-17	9.125355E-19
7.233291E+03	2.579088E-17	9.148703E-19
7.243105E+03	2.583456E-17	9.165239E-19
7.252920E+03	2.585759E-17	9.174463E-19
7.262734E+03	2.585870E-17	9.175926E-19
7.272549E+03	2.583685E-17	9.169250E-19
7.282363E+03	2.578953E-17	9.153543E-19
7.292178E+03	2.571940E-17	9.129750E-19
7.301992E+03	2.562450E-17	9.097167E-19
7.311807E+03	2.550314E-17	9.055193E-19
7.321621E+03	2.535719E-17	9.004491E-19
7.331436E+03	2.518722E-17	8.945256E-19
7.341250E+03	2.499407E-17	8.877785E-19
7.351065E+03	2.477885E-17	8.802466E-19
7.360879E+03	2.454296E-17	8.719797E-19
7.370694E+03	2.428803E-17	8.630354E-19
7.380508E+03	2.401436E-17	8.534238E-19
7.390323E+03	2.372706E-17	8.433264E-19
7.400137E+03	2.342520E-17	8.327098E-19
7.409952E+03	2.311253E-17	8.217075E-19
7.419766E+03	2.279132E-17	8.103992E-19
7.429581E+03	2.246381E-17	7.988649E-19
7.439395E+03	2.213216E-17	7.871812E-19
7.449210E+03	2.179706E-17	7.753729E-19
7.459024E+03	2.146334E-17	7.636106E-19
7.468839E+03	2.112999E-17	7.518597E-19
7.478653E+03	2.080006E-17	7.402278E-19
7.488468E+03	2.047501E-17	7.287671E-19
7.498282E+03	2.015607E-17	7.175211E-19
7.508097E+03	1.984296E-17	7.064803E-19
7.517911E+03	1.953912E-17	6.957672E-19
7.527726E+03	1.924260E-17	6.853125E-19
7.537540E+03	1.895519E-17	6.751794E-19
7.547355E+03	1.867721E-17	6.653802E-19
7.557169E+03	1.840889E-17	6.559228E-19
7.566984E+03	1.815034E-17	6.468113E-19
7.576799E+03	1.790045E-17	6.380061E-19
7.586613E+03	1.766153E-17	6.295899E-19
7.596428E+03	1.743118E-17	6.214773E-19
7.606242E+03	1.721043E-17	6.137050E-19
7.616057E+03	1.699914E-17	6.062679E-19
