#wls	flux	fluxerr
1.570321E+03	1.266852E-17	8.146332E-19
1.609579E+03	1.337012E-17	8.597164E-19
1.648837E+03	1.411875E-17	9.078194E-19
1.688095E+03	1.492033E-17	9.593221E-19
1.727353E+03	1.577315E-17	1.014115E-18
1.766611E+03	1.668884E-17	1.072943E-18
1.805869E+03	1.766192E-17	1.135456E-18
1.845127E+03	1.870089E-17	1.202198E-18
1.884385E+03	1.980837E-17	1.273336E-18
1.923643E+03	2.098302E-17	1.348785E-18
1.962901E+03	2.222687E-17	1.428673E-18
2.002159E+03	2.354789E-17	1.513513E-18
2.041417E+03	2.495151E-17	1.603650E-18
2.080675E+03	2.646032E-17	1.700539E-18
2.119933E+03	2.809849E-17	1.805728E-18
2.159191E+03	2.989813E-17	1.921281E-18
2.198449E+03	3.188863E-17	2.049084E-18
2.237707E+03	3.407929E-17	2.189732E-18
2.276965E+03	3.646092E-17	2.342631E-18
2.316223E+03	3.902595E-17	2.507294E-18
2.355481E+03	4.177679E-17	2.683872E-18
2.394739E+03	4.471497E-17	2.872461E-18
2.433997E+03	4.783793E-17	3.072893E-18
2.473255E+03	5.116051E-17	3.286118E-18
2.512513E+03	5.468231E-17	3.512108E-18
2.551772E+03	5.842002E-17	3.751932E-18
2.591030E+03	6.237124E-17	4.005432E-18
2.630288E+03	6.655178E-17	4.273618E-18
2.669546E+03	7.095486E-17	4.556053E-18
2.708804E+03	7.559367E-17	4.853578E-18
2.748062E+03	8.045523E-17	5.165356E-18
2.787320E+03	8.554840E-17	5.491951E-18
2.826578E+03	9.086678E-17	5.832948E-18
2.865836E+03	9.638425E-17	6.186667E-18
2.905094E+03	1.020997E-16	6.553030E-18
2.944352E+03	1.079752E-16	6.929602E-18
2.954166E+03	1.094658E-16	7.025129E-18
2.963981E+03	1.109643E-16	7.121156E-18
2.973795E+03	1.124698E-16	7.217631E-18
2.983610E+03	1.139821E-16	7.314535E-18
2.993424E+03	1.155188E-16	7.413006E-18
3.003239E+03	1.170428E-16	7.510650E-18
3.013053E+03	1.185715E-16	7.608594E-18
3.022868E+03	1.201234E-16	7.708027E-18
3.032682E+03	1.216602E-16	7.806483E-18
3.042497E+03	1.231992E-16	7.905072E-18
3.052311E+03	1.247611E-16	8.005131E-18
3.062126E+03	1.263057E-16	8.104068E-18
3.071940E+03	1.278718E-16	8.204387E-18
3.081755E+03	1.294181E-16	8.303430E-18
3.091569E+03	1.309847E-16	8.403764E-18
3.101384E+03	1.325498E-16	8.504007E-18
3.111198E+03	1.340916E-16	8.602745E-18
3.121013E+03	1.356510E-16	8.702606E-18
3.130827E+03	1.372061E-16	8.802190E-18
3.140642E+03	1.387338E-16	8.900005E-18
3.150456E+03	1.402766E-16	8.998791E-18
3.160271E+03	1.418117E-16	9.097070E-18
3.170085E+03	1.433378E-16	9.194775E-18
3.179900E+03	1.448310E-16	9.290361E-18
3.189714E+03	1.463355E-16	9.386663E-18
3.199529E+03	1.478274E-16	9.482159E-18
3.209343E+03	1.493055E-16	9.576760E-18
3.219158E+03	1.507685E-16	9.670392E-18
3.228972E+03	1.522151E-16	9.762963E-18
3.238787E+03	1.536438E-16	9.854386E-18
3.248601E+03	1.550536E-16	9.944586E-18
3.258416E+03	1.564428E-16	1.003347E-17
3.268230E+03	1.578103E-16	1.012094E-17
3.278045E+03	1.591544E-16	1.020692E-17
3.287859E+03	1.604740E-16	1.029132E-17
3.297674E+03	1.617674E-16	1.037403E-17
3.307488E+03	1.630586E-16	1.045660E-17
3.317303E+03	1.642955E-16	1.053569E-17
3.327117E+03	1.655021E-16	1.061282E-17
3.336932E+03	1.666766E-16	1.068789E-17
3.346746E+03	1.678435E-16	1.076247E-17
3.356561E+03	1.689498E-16	1.083316E-17
3.366376E+03	1.700195E-16	1.090150E-17
3.376190E+03	1.710513E-16	1.096741E-17
3.386005E+03	1.720699E-16	1.103247E-17
3.395819E+03	1.730213E-16	1.109321E-17
3.405634E+03	1.739568E-16	1.115293E-17
3.415448E+03	1.748218E-16	1.120812E-17
3.425263E+03	1.756412E-16	1.126039E-17
3.435077E+03	1.764407E-16	1.131138E-17
3.444892E+03	1.771647E-16	1.135753E-17
3.454706E+03	1.778661E-16	1.140223E-17
3.464521E+03	1.784890E-16	1.144189E-17
3.474335E+03	1.790865E-16	1.147992E-17
3.484150E+03	1.796301E-16	1.151449E-17
3.493964E+03	1.800909E-16	1.154375E-17
3.503779E+03	1.805223E-16	1.157113E-17
3.513593E+03	1.808684E-16	1.159303E-17
3.523408E+03	1.811826E-16	1.161288E-17
3.533222E+03	1.814362E-16	1.162886E-17
3.543037E+03	1.816009E-16	1.163913E-17
3.552851E+03	1.817302E-16	1.164714E-17
3.562666E+03	1.817683E-16	1.164929E-17
3.572480E+03	1.817689E-16	1.164905E-17
3.582295E+03	1.817038E-16	1.164459E-17
3.592109E+03	1.815720E-16	1.163586E-17
3.601924E+03	1.813455E-16	1.162105E-17
3.611738E+03	1.810779E-16	1.160362E-17
3.621553E+03	1.807415E-16	1.158177E-17
3.631367E+03	1.803354E-16	1.155546E-17
3.641182E+03	1.798326E-16	1.152296E-17
3.650996E+03	1.792862E-16	1.148766E-17
3.660811E+03	1.786691E-16	1.144783E-17
3.670625E+03	1.779809E-16	1.140345E-17
3.680440E+03	1.772216E-16	1.135451E-17
3.690254E+03	1.763649E-16	1.129934E-17
3.700069E+03	1.754634E-16	1.124130E-17
3.709883E+03	1.744910E-16	1.117871E-17
3.719698E+03	1.734478E-16	1.111160E-17
3.729512E+03	1.723345E-16	1.103999E-17
3.739327E+03	1.711261E-16	1.096231E-17
3.749141E+03	1.698741E-16	1.088182E-17
3.758956E+03	1.685538E-16	1.079697E-17
3.768770E+03	1.671661E-16	1.070780E-17
3.778585E+03	1.657121E-16	1.061439E-17
3.788399E+03	1.641928E-16	1.051681E-17
3.798214E+03	1.626097E-16	1.041514E-17
3.808028E+03	1.609407E-16	1.030797E-17
3.817843E+03	1.592346E-16	1.019843E-17
3.827657E+03	1.574695E-16	1.008511E-17
3.837472E+03	1.556472E-16	9.968149E-18
3.847286E+03	1.537698E-16	9.847652E-18
3.857101E+03	1.518394E-16	9.723772E-18
3.866915E+03	1.498584E-16	9.596659E-18
3.876730E+03	1.478079E-16	9.465098E-18
3.886544E+03	1.457337E-16	9.332031E-18
3.896359E+03	1.436169E-16	9.196236E-18
3.906173E+03	1.414604E-16	9.057909E-18
3.915988E+03	1.392672E-16	8.917238E-18
3.925802E+03	1.370406E-16	8.774438E-18
3.935617E+03	1.347645E-16	8.628471E-18
3.945431E+03	1.324813E-16	8.482062E-18
3.955246E+03	1.301749E-16	8.334175E-18
3.965060E+03	1.278490E-16	8.185043E-18
3.974875E+03	1.255070E-16	8.034893E-18
3.984689E+03	1.231352E-16	7.882839E-18
3.994504E+03	1.207727E-16	7.731391E-18
4.004318E+03	1.184052E-16	7.579630E-18
4.014133E+03	1.160366E-16	7.427802E-18
4.023947E+03	1.136539E-16	7.275085E-18
4.033762E+03	1.112937E-16	7.123816E-18
4.043576E+03	1.089428E-16	6.973144E-18
4.053391E+03	1.065893E-16	6.822320E-18
4.063205E+03	1.042670E-16	6.673498E-18
4.073020E+03	1.019635E-16	6.525888E-18
4.082834E+03	9.966755E-17	6.378770E-18
4.092649E+03	9.741043E-17	6.234145E-18
4.102463E+03	9.518021E-17	6.091248E-18
4.112278E+03	9.296609E-17	5.949389E-18
4.122092E+03	9.079681E-17	5.810408E-18
4.131907E+03	8.864840E-17	5.672769E-18
4.141721E+03	8.654790E-17	5.538203E-18
4.151536E+03	8.447224E-17	5.405234E-18
4.161350E+03	8.244687E-17	5.275490E-18
4.171165E+03	8.044955E-17	5.147548E-18
4.180979E+03	7.850420E-17	5.022938E-18
4.190794E+03	7.658941E-17	4.900291E-18
4.200608E+03	7.472763E-17	4.781041E-18
4.210423E+03	7.289829E-17	4.663872E-18
4.220238E+03	7.111249E-17	4.549497E-18
4.230052E+03	6.938023E-17	4.438552E-18
4.239867E+03	6.768209E-17	4.329796E-18
4.249681E+03	6.602804E-17	4.223867E-18
4.259496E+03	6.441805E-17	4.120762E-18
4.269310E+03	6.286070E-17	4.021030E-18
4.279125E+03	6.133806E-17	3.923524E-18
4.288939E+03	5.985881E-17	3.828797E-18
4.298754E+03	5.842252E-17	3.736825E-18
4.308568E+03	5.702877E-17	3.647578E-18
4.318383E+03	5.567703E-17	3.561023E-18
4.328197E+03	5.436674E-17	3.477123E-18
4.338012E+03	5.309728E-17	3.395840E-18
4.347826E+03	5.186800E-17	3.317131E-18
4.357641E+03	5.067821E-17	3.240952E-18
4.367455E+03	4.952718E-17	3.167255E-18
4.377270E+03	4.841418E-17	3.095995E-18
4.387084E+03	4.733843E-17	3.027120E-18
4.396899E+03	4.629915E-17	2.960582E-18
4.406713E+03	4.529553E-17	2.896327E-18
4.416528E+03	4.432070E-17	2.833916E-18
4.426342E+03	4.338612E-17	2.774083E-18
4.436157E+03	4.248475E-17	2.716376E-18
4.445971E+03	4.161578E-17	2.660745E-18
4.455786E+03	4.077285E-17	2.606780E-18
4.465600E+03	3.996636E-17	2.555149E-18
4.475415E+03	3.918448E-17	2.505094E-18
4.485229E+03	3.843721E-17	2.457254E-18
4.495044E+03	3.771318E-17	2.410903E-18
4.504858E+03	3.702197E-17	2.366652E-18
4.514673E+03	3.635263E-17	2.323802E-18
4.524487E+03	3.570955E-17	2.282633E-18
4.534302E+03	3.509670E-17	2.243398E-18
4.544116E+03	3.450378E-17	2.205439E-18
4.553931E+03	3.393488E-17	2.169018E-18
4.563745E+03	3.338931E-17	2.134090E-18
4.573560E+03	3.287078E-17	2.100893E-18
4.583374E+03	3.236969E-17	2.068812E-18
4.593189E+03	3.188988E-17	2.038092E-18
4.603003E+03	3.143069E-17	2.008692E-18
4.612818E+03	3.099147E-17	1.980570E-18
4.622632E+03	3.057159E-17	1.953686E-18
4.632447E+03	3.017045E-17	1.928000E-18
4.642261E+03	2.978743E-17	1.903473E-18
4.652076E+03	2.941797E-17	1.879816E-18
4.661890E+03	2.906945E-17	1.857496E-18
4.671705E+03	2.873728E-17	1.836223E-18
4.681519E+03	2.842090E-17	1.815961E-18
4.691334E+03	2.811600E-17	1.796432E-18
4.701148E+03	2.782956E-17	1.778084E-18
4.710963E+03	2.755359E-17	1.760406E-18
4.720777E+03	2.729493E-17	1.743836E-18
4.730592E+03	2.704575E-17	1.727871E-18
4.740406E+03	2.681277E-17	1.712943E-18
4.750221E+03	2.658832E-17	1.698560E-18
4.760035E+03	2.637552E-17	1.684922E-18
4.769850E+03	2.617735E-17	1.672220E-18
4.779664E+03	2.598640E-17	1.659979E-18
4.789479E+03	2.580569E-17	1.648394E-18
4.799293E+03	2.563482E-17	1.637438E-18
4.809108E+03	2.547337E-17	1.627083E-18
4.818922E+03	2.532092E-17	1.617305E-18
4.828737E+03	2.517708E-17	1.608077E-18
4.838551E+03	2.504149E-17	1.599376E-18
4.848366E+03	2.491376E-17	1.591178E-18
4.858180E+03	2.479354E-17	1.583460E-18
4.867995E+03	2.468048E-17	1.576199E-18
4.877809E+03	2.457099E-17	1.569167E-18
4.887624E+03	2.447124E-17	1.562758E-18
4.897438E+03	2.437766E-17	1.556743E-18
4.907253E+03	2.428673E-17	1.550897E-18
4.917067E+03	2.420456E-17	1.545612E-18
4.926882E+03	2.412448E-17	1.540460E-18
4.936696E+03	2.405255E-17	1.535828E-18
4.946511E+03	2.398216E-17	1.531296E-18
4.956325E+03	2.391937E-17	1.527249E-18
4.966140E+03	2.385761E-17	1.523268E-18
4.975954E+03	2.379978E-17	1.519538E-18
4.985769E+03	2.374565E-17	1.516045E-18
4.995583E+03	2.369808E-17	1.512970E-18
5.005398E+03	2.365062E-17	1.509903E-18
5.015212E+03	2.360616E-17	1.507029E-18
5.025027E+03	2.356451E-17	1.504333E-18
5.034841E+03	2.352545E-17	1.501802E-18
5.044656E+03	2.348877E-17	1.499425E-18
5.054471E+03	2.345123E-17	1.496992E-18
5.064285E+03	2.341878E-17	1.494884E-18
5.074100E+03	2.338816E-17	1.492894E-18
5.083914E+03	2.335921E-17	1.491010E-18
5.093729E+03	2.332870E-17	1.489027E-18
5.103543E+03	2.330257E-17	1.487323E-18
5.113358E+03	2.327459E-17	1.485502E-18
5.123172E+03	2.325067E-17	1.483940E-18
5.132987E+03	2.322460E-17	1.482241E-18
5.142801E+03	2.320229E-17	1.480782E-18
5.152616E+03	2.317756E-17	1.479169E-18
5.162430E+03	2.315632E-17	1.477779E-18
5.172245E+03	2.313241E-17	1.476218E-18
5.182059E+03	2.310875E-17	1.474673E-18
5.191874E+03	2.308520E-17	1.473136E-18
5.201688E+03	2.306167E-17	1.471601E-18
5.211503E+03	2.303808E-17	1.470061E-18
5.221317E+03	2.301431E-17	1.468510E-18
5.231132E+03	2.299031E-17	1.466945E-18
5.240946E+03	2.296601E-17	1.465361E-18
5.250761E+03	2.294134E-17	1.463753E-18
5.260575E+03	2.291627E-17	1.462120E-18
5.270390E+03	2.289076E-17	1.460459E-18
5.280204E+03	2.286183E-17	1.458580E-18
5.290019E+03	2.283538E-17	1.456860E-18
5.299833E+03	2.280845E-17	1.455109E-18
5.309648E+03	2.277813E-17	1.453142E-18
5.319462E+03	2.275032E-17	1.451335E-18
5.329277E+03	2.271917E-17	1.449315E-18
5.339091E+03	2.269059E-17	1.447460E-18
5.348906E+03	2.265880E-17	1.445400E-18
5.358720E+03	2.262972E-17	1.443513E-18
5.368535E+03	2.259756E-17	1.441430E-18
5.378349E+03	2.256536E-17	1.439344E-18
5.388164E+03	2.253318E-17	1.437261E-18
5.397978E+03	2.250405E-17	1.435371E-18
5.407793E+03	2.247225E-17	1.433312E-18
5.417607E+03	2.244080E-17	1.431275E-18
5.427422E+03	2.240984E-17	1.429270E-18
5.437236E+03	2.237949E-17	1.427304E-18
5.447051E+03	2.234987E-17	1.425384E-18
5.456865E+03	2.232112E-17	1.423520E-18
5.466680E+03	2.229053E-17	1.421539E-18
5.476494E+03	2.226398E-17	1.419816E-18
5.486309E+03	2.223875E-17	1.418177E-18
5.496123E+03	2.221502E-17	1.416635E-18
5.505938E+03	2.219012E-17	1.415017E-18
5.515752E+03	2.216991E-17	1.413699E-18
5.525567E+03	2.215175E-17	1.412512E-18
5.535381E+03	2.213298E-17	1.411287E-18
5.545196E+03	2.211950E-17	1.410399E-18
5.555010E+03	2.210585E-17	1.409499E-18
5.564825E+03	2.209510E-17	1.408786E-18
5.574639E+03	2.209031E-17	1.408452E-18
5.584454E+03	2.208606E-17	1.408153E-18
5.594268E+03	2.208543E-17	1.408085E-18
5.604083E+03	2.209153E-17	1.408446E-18
5.613897E+03	2.209895E-17	1.408891E-18
5.623712E+03	2.211079E-17	1.409619E-18
5.633526E+03	2.212734E-17	1.410646E-18
5.643341E+03	2.214889E-17	1.411993E-18
5.653155E+03	2.217573E-17	1.413677E-18
5.662970E+03	2.220816E-17	1.415717E-18
5.672784E+03	2.224647E-17	1.418133E-18
5.682599E+03	2.229096E-17	1.420942E-18
5.692413E+03	2.234194E-17	1.424165E-18
5.702228E+03	2.239972E-17	1.427822E-18
5.712042E+03	2.246460E-17	1.431931E-18
5.721857E+03	2.253690E-17	1.436514E-18
5.731671E+03	2.261403E-17	1.441404E-18
5.741486E+03	2.270207E-17	1.446989E-18
5.751300E+03	2.279847E-17	1.453108E-18
5.761115E+03	2.290060E-17	1.459591E-18
5.770929E+03	2.301461E-17	1.466832E-18
5.780744E+03	2.313494E-17	1.474476E-18
5.790558E+03	2.326781E-17	1.482918E-18
5.800373E+03	2.340756E-17	1.491800E-18
5.810187E+03	2.356051E-17	1.501522E-18
5.820002E+03	2.372092E-17	1.511720E-18
5.829816E+03	2.389516E-17	1.522798E-18
5.839631E+03	2.407741E-17	1.534388E-18
5.849445E+03	2.427100E-17	1.546699E-18
5.859260E+03	2.447935E-17	1.559951E-18
5.869074E+03	2.469648E-17	1.573763E-18
5.878889E+03	2.492576E-17	1.588348E-18
5.888704E+03	2.516744E-17	1.603724E-18
5.898518E+03	2.542174E-17	1.619903E-18
5.908333E+03	2.568889E-17	1.636901E-18
5.918147E+03	2.597239E-17	1.654941E-18
5.927962E+03	2.626581E-17	1.673613E-18
5.937776E+03	2.657258E-17	1.693135E-18
5.947591E+03	2.689277E-17	1.713512E-18
5.957405E+03	2.722648E-17	1.734749E-18
5.967220E+03	2.757019E-17	1.756625E-18
5.977034E+03	2.793088E-17	1.779581E-18
5.986849E+03	2.830497E-17	1.803391E-18
5.996663E+03	2.869233E-17	1.828045E-18
6.006478E+03	2.909271E-17	1.853530E-18
6.016292E+03	2.950584E-17	1.879826E-18
6.026107E+03	2.992749E-17	1.906665E-18
6.035921E+03	3.036478E-17	1.934500E-18
6.045736E+03	3.081337E-17	1.963055E-18
6.055550E+03	3.126856E-17	1.992030E-18
6.065365E+03	3.173748E-17	2.021879E-18
6.075179E+03	3.221116E-17	2.052031E-18
6.084994E+03	3.269670E-17	2.082939E-18
6.094808E+03	3.318886E-17	2.114268E-18
6.104623E+03	3.368199E-17	2.145659E-18
6.114437E+03	3.418318E-17	2.177563E-18
6.124252E+03	3.468211E-17	2.209322E-18
6.134066E+03	3.518131E-17	2.241100E-18
6.143881E+03	3.568344E-17	2.273063E-18
6.153695E+03	3.617737E-17	2.304504E-18
6.163510E+03	3.666538E-17	2.335568E-18
6.173324E+03	3.714991E-17	2.366411E-18
6.183139E+03	3.761907E-17	2.396274E-18
6.192953E+03	3.807500E-17	2.425295E-18
6.202768E+03	3.852003E-17	2.453621E-18
6.212582E+03	3.894167E-17	2.480458E-18
6.222397E+03	3.934211E-17	2.505945E-18
6.232211E+03	3.971866E-17	2.529910E-18
6.242026E+03	4.006871E-17	2.552187E-18
6.251840E+03	4.038967E-17	2.572612E-18
6.261655E+03	4.067912E-17	2.591030E-18
6.271469E+03	4.094004E-17	2.607632E-18
6.281284E+03	4.115989E-17	2.621617E-18
6.291098E+03	4.134202E-17	2.633201E-18
6.300913E+03	4.148486E-17	2.642283E-18
6.310727E+03	4.158714E-17	2.648782E-18
6.320542E+03	4.164253E-17	2.652294E-18
6.330356E+03	4.166111E-17	2.653463E-18
6.340171E+03	4.163723E-17	2.651928E-18
6.349985E+03	4.157098E-17	2.647696E-18
6.359800E+03	4.146278E-17	2.640792E-18
6.369614E+03	4.131336E-17	2.631263E-18
6.379429E+03	4.112380E-17	2.619178E-18
6.389243E+03	4.089022E-17	2.604291E-18
6.399058E+03	4.062479E-17	2.587375E-18
6.408872E+03	4.032411E-17	2.568216E-18
6.418687E+03	3.999026E-17	2.546944E-18
6.428501E+03	3.962042E-17	2.523381E-18
6.438316E+03	3.922719E-17	2.498329E-18
6.448130E+03	3.880796E-17	2.471622E-18
6.457945E+03	3.836034E-17	2.443107E-18
6.467759E+03	3.789682E-17	2.413581E-18
6.477574E+03	3.741506E-17	2.382893E-18
6.487388E+03	3.691284E-17	2.350903E-18
6.497203E+03	3.640226E-17	2.318381E-18
6.507017E+03	3.587633E-17	2.284882E-18
6.516832E+03	3.534674E-17	2.251150E-18
6.526646E+03	3.480657E-17	2.216746E-18
6.536461E+03	3.426699E-17	2.182379E-18
6.546275E+03	3.372116E-17	2.147615E-18
6.556090E+03	3.317973E-17	2.113131E-18
6.565904E+03	3.263584E-17	2.078492E-18
6.575719E+03	3.209546E-17	2.044076E-18
6.585533E+03	3.156417E-17	2.010239E-18
6.595348E+03	3.103513E-17	1.976547E-18
6.605162E+03	3.051373E-17	1.943341E-18
6.614977E+03	3.000494E-17	1.910939E-18
6.624791E+03	2.950198E-17	1.878909E-18
6.634606E+03	2.900965E-17	1.847555E-18
6.644420E+03	2.853243E-17	1.817164E-18
6.654235E+03	2.806358E-17	1.787307E-18
6.664049E+03	2.760741E-17	1.758258E-18
6.673864E+03	2.716444E-17	1.730048E-18
6.683678E+03	2.673505E-17	1.702705E-18
6.693493E+03	2.631961E-17	1.676250E-18
6.703307E+03	2.592171E-17	1.650913E-18
6.713122E+03	2.553479E-17	1.626275E-18
6.722937E+03	2.516237E-17	1.602561E-18
6.732751E+03	2.480450E-17	1.579773E-18
6.742566E+03	2.446117E-17	1.557912E-18
6.752380E+03	2.413234E-17	1.536974E-18
6.762195E+03	2.381786E-17	1.516951E-18
6.772009E+03	2.351758E-17	1.497832E-18
6.781824E+03	2.323132E-17	1.479606E-18
6.791638E+03	2.295881E-17	1.462256E-18
6.801453E+03	2.269984E-17	1.445769E-18
6.811267E+03	2.245409E-17	1.430123E-18
6.821082E+03	2.222129E-17	1.415303E-18
6.830896E+03	2.200113E-17	1.401288E-18
6.840711E+03	2.179328E-17	1.388057E-18
6.850525E+03	2.159465E-17	1.375413E-18
6.860340E+03	2.141050E-17	1.363692E-18
6.870154E+03	2.123770E-17	1.352694E-18
6.879969E+03	2.107591E-17	1.342398E-18
6.889783E+03	2.092478E-17	1.332780E-18
6.899598E+03	2.078130E-17	1.323650E-18
6.909412E+03	2.065052E-17	1.315329E-18
6.919227E+03	2.052939E-17	1.307622E-18
6.929041E+03	2.041755E-17	1.300508E-18
6.938856E+03	2.031202E-17	1.293796E-18
6.948670E+03	2.021774E-17	1.287800E-18
6.958485E+03	2.013170E-17	1.282330E-18
6.968299E+03	2.005091E-17	1.277194E-18
6.978114E+03	1.998026E-17	1.272704E-18
6.987928E+03	1.991673E-17	1.268669E-18
6.997743E+03	1.985738E-17	1.264899E-18
7.007557E+03	1.980701E-17	1.261702E-18
7.017372E+03	1.976004E-17	1.258721E-18
7.027186E+03	1.972126E-17	1.256263E-18
7.037001E+03	1.968511E-17	1.253972E-18
7.046815E+03	1.965632E-17	1.252151E-18
7.056630E+03	1.962936E-17	1.250446E-18
7.066444E+03	1.960894E-17	1.249158E-18
7.076259E+03	1.958952E-17	1.247934E-18
7.086073E+03	1.957322E-17	1.246909E-18
7.095888E+03	1.956219E-17	1.246220E-18
7.105702E+03	1.955088E-17	1.245513E-18
7.115517E+03	1.954141E-17	1.244925E-18
7.125331E+03	1.953591E-17	1.244589E-18
7.135146E+03	1.952883E-17	1.244153E-18
7.144960E+03	1.952229E-17	1.243751E-18
7.154775E+03	1.951843E-17	1.243521E-18
7.164589E+03	1.951171E-17	1.243108E-18
7.174404E+03	1.950426E-17	1.242650E-18
7.184218E+03	1.949569E-17	1.242120E-18
7.194033E+03	1.948558E-17	1.241493E-18
7.203847E+03	1.947612E-17	1.240907E-18
7.213662E+03	1.946182E-17	1.240014E-18
7.223476E+03	1.944489E-17	1.238952E-18
7.233291E+03	1.942498E-17	1.237702E-18
7.243105E+03	1.940181E-17	1.236244E-18
7.252920E+03	1.937510E-17	1.234560E-18
7.262734E+03	1.934457E-17	1.232634E-18
7.272549E+03	1.931003E-17	1.230452E-18
7.282363E+03	1.927128E-17	1.228003E-18
7.292178E+03	1.922817E-17	1.225275E-18
7.301992E+03	1.918061E-17	1.222265E-18
7.311807E+03	1.912850E-17	1.218964E-18
7.321621E+03	1.907182E-17	1.215373E-18
7.331436E+03	1.901058E-17	1.211491E-18
7.341250E+03	1.894482E-17	1.207322E-18
7.351065E+03	1.887462E-17	1.202870E-18
7.360879E+03	1.879762E-17	1.197984E-18
7.370694E+03	1.871896E-17	1.192993E-18
7.380508E+03	1.863633E-17	1.187749E-18
7.390323E+03	1.854994E-17	1.182266E-18
7.400137E+03	1.845759E-17	1.176403E-18
7.409952E+03	1.836445E-17	1.170489E-18
7.419766E+03	1.826834E-17	1.164387E-18
7.429581E+03	1.816956E-17	1.158114E-18
7.439395E+03	1.806602E-17	1.151539E-18
7.449210E+03	1.796284E-17	1.144986E-18
7.459024E+03	1.785555E-17	1.138171E-18
7.468839E+03	1.774923E-17	1.131418E-18
7.478653E+03	1.764181E-17	1.124595E-18
7.488468E+03	1.753126E-17	1.117573E-18
7.498282E+03	1.742255E-17	1.110668E-18
7.508097E+03	1.731133E-17	1.103602E-18
7.517911E+03	1.720248E-17	1.096688E-18
7.527726E+03	1.709165E-17	1.089648E-18
7.537540E+03	1.698141E-17	1.082645E-18
7.547355E+03	1.687419E-17	1.075835E-18
7.557169E+03	1.676569E-17	1.068943E-18
7.566984E+03	1.666058E-17	1.062267E-18
7.576799E+03	1.655453E-17	1.055531E-18
7.586613E+03	1.644993E-17	1.048888E-18
7.596428E+03	1.634688E-17	1.042343E-18
7.606242E+03	1.624764E-17	1.036041E-18
7.616057E+03	1.614794E-17	1.029710E-18
