#wls	flux	fluxerr
1.600000E+03	2.469235E-16	4.946125E-17
1.640000E+03	2.440501E-16	4.622922E-17
1.680000E+03	2.408138E-16	4.305194E-17
1.720000E+03	2.372018E-16	3.995205E-17
1.760000E+03	2.332291E-16	3.695739E-17
1.800000E+03	2.289356E-16	3.409874E-17
1.840000E+03	2.242926E-16	3.139501E-17
1.880000E+03	2.193809E-16	2.887874E-17
1.920000E+03	2.142390E-16	2.657158E-17
1.960000E+03	2.089270E-16	2.449200E-17
2.000000E+03	2.035151E-16	2.265162E-17
2.040000E+03	1.981153E-16	2.105695E-17
2.080000E+03	1.928374E-16	1.970354E-17
2.120000E+03	1.877916E-16	1.857752E-17
2.160000E+03	1.831375E-16	1.766307E-17
2.200000E+03	1.789882E-16	1.693649E-17
2.240000E+03	1.754554E-16	1.637442E-17
2.280000E+03	1.726411E-16	1.595553E-17
2.320000E+03	1.706261E-16	1.566077E-17
2.360000E+03	1.694733E-16	1.547437E-17
2.400000E+03	1.692133E-16	1.538297E-17
2.440000E+03	1.698448E-16	1.537589E-17
2.480000E+03	1.713659E-16	1.544810E-17
2.520000E+03	1.737385E-16	1.559651E-17
2.560000E+03	1.769332E-16	1.582298E-17
2.600000E+03	1.809012E-16	1.612993E-17
2.640000E+03	1.856078E-16	1.652093E-17
2.680000E+03	1.910169E-16	1.699681E-17
2.720000E+03	1.971067E-16	1.755515E-17
2.760000E+03	2.038713E-16	1.818954E-17
2.800000E+03	2.113145E-16	1.888915E-17
2.840000E+03	2.194551E-16	1.964025E-17
2.880000E+03	2.283379E-16	2.042845E-17
2.920000E+03	2.380078E-16	2.123780E-17
2.960000E+03	2.485512E-16	2.205574E-17
3.000000E+03	2.600455E-16	2.286965E-17
3.010000E+03	2.630864E-16	2.307202E-17
3.020000E+03	2.661908E-16	2.327313E-17
3.030000E+03	2.693597E-16	2.347282E-17
3.040000E+03	2.726062E-16	2.367201E-17
3.050000E+03	2.759254E-16	2.387006E-17
3.060000E+03	2.793185E-16	2.406685E-17
3.070000E+03	2.827925E-16	2.426281E-17
3.080000E+03	2.863424E-16	2.445734E-17
3.090000E+03	2.899695E-16	2.465040E-17
3.100000E+03	2.936868E-16	2.484298E-17
3.110000E+03	2.974835E-16	2.503402E-17
3.120000E+03	3.013666E-16	2.522403E-17
3.130000E+03	3.053312E-16	2.541254E-17
3.140000E+03	3.093965E-16	2.560111E-17
3.150000E+03	3.135453E-16	2.578828E-17
3.160000E+03	3.177846E-16	2.597465E-17
3.170000E+03	3.221217E-16	2.616083E-17
3.180000E+03	3.265573E-16	2.634696E-17
3.190000E+03	3.310801E-16	2.653221E-17
3.200000E+03	3.357092E-16	2.671825E-17
3.210000E+03	3.404331E-16	2.690432E-17
3.220000E+03	3.452587E-16	2.709115E-17
3.230000E+03	3.501802E-16	2.727852E-17
3.240000E+03	3.552044E-16	2.746721E-17
3.250000E+03	3.603316E-16	2.765755E-17
3.260000E+03	3.655620E-16	2.784988E-17
3.270000E+03	3.708897E-16	2.804411E-17
3.280000E+03	3.763208E-16	2.824109E-17
3.290000E+03	3.818553E-16	2.844125E-17
3.300000E+03	3.874867E-16	2.864455E-17
3.310000E+03	3.932207E-16	2.885190E-17
3.320000E+03	3.990507E-16	2.906330E-17
3.330000E+03	4.049823E-16	2.927969E-17
3.340000E+03	4.110083E-16	2.950106E-17
3.350000E+03	4.171277E-16	2.972788E-17
3.360000E+03	4.233394E-16	2.996061E-17
3.370000E+03	4.296423E-16	3.019970E-17
3.380000E+03	4.360349E-16	3.044554E-17
3.390000E+03	4.425094E-16	3.069809E-17
3.400000E+03	4.490705E-16	3.095814E-17
3.410000E+03	4.557036E-16	3.122510E-17
3.420000E+03	4.624201E-16	3.150013E-17
3.430000E+03	4.692050E-16	3.178251E-17
3.440000E+03	4.760565E-16	3.207239E-17
3.450000E+03	4.829728E-16	3.236982E-17
3.460000E+03	4.899455E-16	3.267435E-17
3.470000E+03	4.969793E-16	3.298630E-17
3.480000E+03	5.040660E-16	3.330506E-17
3.490000E+03	5.111974E-16	3.362992E-17
3.500000E+03	5.183721E-16	3.396052E-17
3.510000E+03	5.255821E-16	3.429597E-17
3.520000E+03	5.328330E-16	3.463618E-17
3.530000E+03	5.401037E-16	3.497924E-17
3.540000E+03	5.474004E-16	3.532488E-17
3.550000E+03	5.547159E-16	3.567189E-17
3.560000E+03	5.620499E-16	3.601946E-17
3.570000E+03	5.693891E-16	3.636580E-17
3.580000E+03	5.767270E-16	3.670955E-17
3.590000E+03	5.840709E-16	3.705011E-17
3.600000E+03	5.914011E-16	3.738517E-17
3.610000E+03	5.987254E-16	3.771408E-17
3.620000E+03	6.060381E-16	3.803529E-17
3.630000E+03	6.133269E-16	3.834684E-17
3.640000E+03	6.205860E-16	3.864715E-17
3.650000E+03	6.278170E-16	3.893510E-17
3.660000E+03	6.350075E-16	3.920868E-17
3.670000E+03	6.421656E-16	3.946721E-17
3.680000E+03	6.492719E-16	3.970827E-17
3.690000E+03	6.563274E-16	3.993077E-17
3.700000E+03	6.633260E-16	4.013322E-17
3.710000E+03	6.702683E-16	4.031457E-17
3.720000E+03	6.771405E-16	4.047296E-17
3.730000E+03	6.839425E-16	4.060743E-17
3.740000E+03	6.906669E-16	4.071664E-17
3.750000E+03	6.973124E-16	4.079970E-17
3.760000E+03	7.038707E-16	4.085539E-17
3.770000E+03	7.103396E-16	4.088297E-17
3.780000E+03	7.167097E-16	4.088133E-17
3.790000E+03	7.229706E-16	4.084950E-17
3.800000E+03	7.291329E-16	4.078775E-17
3.810000E+03	7.351710E-16	4.069450E-17
3.820000E+03	7.410875E-16	4.056984E-17
3.830000E+03	7.468841E-16	4.041400E-17
3.840000E+03	7.525408E-16	4.022615E-17
3.850000E+03	7.580517E-16	4.000643E-17
3.860000E+03	7.634174E-16	3.975549E-17
3.870000E+03	7.686312E-16	3.947376E-17
3.880000E+03	7.736863E-16	3.916190E-17
3.890000E+03	7.785683E-16	3.882036E-17
3.900000E+03	7.832776E-16	3.845058E-17
3.910000E+03	7.878072E-16	3.805382E-17
3.920000E+03	7.921506E-16	3.763161E-17
3.930000E+03	7.963015E-16	3.718569E-17
3.940000E+03	8.002542E-16	3.671808E-17
3.950000E+03	8.040110E-16	3.623134E-17
3.960000E+03	8.075679E-16	3.572795E-17
3.970000E+03	8.109147E-16	3.521029E-17
3.980000E+03	8.140642E-16	3.468187E-17
3.990000E+03	8.170091E-16	3.414546E-17
4.000000E+03	8.197583E-16	3.360456E-17
4.010000E+03	8.223154E-16	3.306245E-17
4.020000E+03	8.246789E-16	3.252217E-17
4.030000E+03	8.268716E-16	3.198761E-17
4.040000E+03	8.288968E-16	3.146175E-17
4.050000E+03	8.307750E-16	3.094799E-17
4.060000E+03	8.325218E-16	3.044927E-17
4.070000E+03	8.341555E-16	2.996836E-17
4.080000E+03	8.356965E-16	2.950773E-17
4.090000E+03	8.371746E-16	2.906985E-17
4.100000E+03	8.386069E-16	2.865639E-17
4.110000E+03	8.400192E-16	2.826894E-17
4.120000E+03	8.414534E-16	2.790929E-17
4.130000E+03	8.429227E-16	2.757792E-17
4.140000E+03	8.444633E-16	2.727575E-17
4.150000E+03	8.461038E-16	2.700317E-17
4.160000E+03	8.478733E-16	2.676029E-17
4.170000E+03	8.498003E-16	2.654702E-17
4.180000E+03	8.519129E-16	2.636300E-17
4.190000E+03	8.542385E-16	2.620771E-17
4.200000E+03	8.568036E-16	2.608047E-17
4.210000E+03	8.596335E-16	2.598042E-17
4.220000E+03	8.627525E-16	2.590663E-17
4.230000E+03	8.661759E-16	2.585782E-17
4.240000E+03	8.699252E-16	2.583290E-17
4.250000E+03	8.740281E-16	2.583093E-17
4.260000E+03	8.785030E-16	2.585075E-17
4.270000E+03	8.833516E-16	2.589074E-17
4.280000E+03	8.885967E-16	2.594997E-17
4.290000E+03	8.942516E-16	2.602729E-17
4.300000E+03	9.003279E-16	2.612159E-17
4.310000E+03	9.068348E-16	2.623175E-17
4.320000E+03	9.137713E-16	2.635648E-17
4.330000E+03	9.211578E-16	2.649515E-17
4.340000E+03	9.289795E-16	2.664622E-17
4.350000E+03	9.372511E-16	2.680906E-17
4.360000E+03	9.459673E-16	2.698256E-17
4.370000E+03	9.551276E-16	2.716577E-17
4.380000E+03	9.647187E-16	2.735747E-17
4.390000E+03	9.747312E-16	2.755659E-17
4.400000E+03	9.851420E-16	2.776169E-17
4.410000E+03	9.959402E-16	2.797173E-17
4.420000E+03	1.007092E-15	2.818503E-17
4.430000E+03	1.018556E-15	2.839977E-17
4.440000E+03	1.030304E-15	2.861446E-17
4.450000E+03	1.042283E-15	2.882695E-17
4.460000E+03	1.054443E-15	2.903520E-17
4.470000E+03	1.066739E-15	2.923729E-17
4.480000E+03	1.079088E-15	2.943039E-17
4.490000E+03	1.091435E-15	2.961235E-17
4.500000E+03	1.103710E-15	2.978068E-17
4.510000E+03	1.115828E-15	2.993261E-17
4.520000E+03	1.127715E-15	3.006559E-17
4.530000E+03	1.139292E-15	3.017715E-17
4.540000E+03	1.150484E-15	3.026487E-17
4.550000E+03	1.161215E-15	3.032646E-17
4.560000E+03	1.171402E-15	3.035952E-17
4.570000E+03	1.180965E-15	3.036185E-17
4.580000E+03	1.189861E-15	3.033239E-17
4.590000E+03	1.198011E-15	3.026924E-17
4.600000E+03	1.205352E-15	3.017112E-17
4.610000E+03	1.211854E-15	3.003778E-17
4.620000E+03	1.217481E-15	2.986910E-17
4.630000E+03	1.222174E-15	2.966462E-17
4.640000E+03	1.225951E-15	2.942612E-17
4.650000E+03	1.228759E-15	2.915399E-17
4.660000E+03	1.230624E-15	2.885093E-17
4.670000E+03	1.231549E-15	2.851940E-17
4.680000E+03	1.231542E-15	2.816255E-17
4.690000E+03	1.230622E-15	2.778420E-17
4.700000E+03	1.228815E-15	2.738884E-17
4.710000E+03	1.226179E-15	2.698213E-17
4.720000E+03	1.222743E-15	2.656953E-17
4.730000E+03	1.218553E-15	2.615731E-17
4.740000E+03	1.213671E-15	2.575240E-17
4.750000E+03	1.208129E-15	2.536125E-17
4.760000E+03	1.202020E-15	2.499165E-17
4.770000E+03	1.195370E-15	2.464971E-17
4.780000E+03	1.188264E-15	2.434235E-17
4.790000E+03	1.180768E-15	2.407517E-17
4.800000E+03	1.172924E-15	2.385216E-17
4.810000E+03	1.164810E-15	2.367641E-17
4.820000E+03	1.156517E-15	2.354833E-17
4.830000E+03	1.148105E-15	2.346504E-17
4.840000E+03	1.139671E-15	2.342309E-17
4.850000E+03	1.131297E-15	2.341798E-17
4.860000E+03	1.123051E-15	2.344458E-17
4.870000E+03	1.115009E-15	2.349796E-17
4.880000E+03	1.107253E-15	2.357363E-17
4.890000E+03	1.099838E-15	2.366701E-17
4.900000E+03	1.092837E-15	2.377451E-17
4.910000E+03	1.086284E-15	2.389239E-17
4.920000E+03	1.080242E-15	2.401824E-17
4.930000E+03	1.074760E-15	2.414996E-17
4.940000E+03	1.069870E-15	2.428578E-17
4.950000E+03	1.065622E-15	2.442489E-17
4.960000E+03	1.062040E-15	2.456640E-17
4.970000E+03	1.059167E-15	2.471032E-17
4.980000E+03	1.057020E-15	2.485641E-17
4.990000E+03	1.055624E-15	2.500496E-17
5.000000E+03	1.054991E-15	2.515614E-17
5.010000E+03	1.055161E-15	2.531105E-17
5.020000E+03	1.056126E-15	2.546979E-17
5.030000E+03	1.057901E-15	2.563304E-17
5.040000E+03	1.060503E-15	2.580173E-17
5.050000E+03	1.063927E-15	2.597624E-17
5.060000E+03	1.068172E-15	2.615716E-17
5.070000E+03	1.073236E-15	2.634503E-17
5.080000E+03	1.079109E-15	2.654031E-17
5.090000E+03	1.085766E-15	2.674310E-17
5.100000E+03	1.093190E-15	2.695370E-17
5.110000E+03	1.101367E-15	2.717258E-17
5.120000E+03	1.110245E-15	2.739929E-17
5.130000E+03	1.119814E-15	2.763441E-17
5.140000E+03	1.130000E-15	2.787697E-17
5.150000E+03	1.140780E-15	2.812733E-17
5.160000E+03	1.152093E-15	2.838483E-17
5.170000E+03	1.163886E-15	2.864900E-17
5.180000E+03	1.176098E-15	2.891921E-17
5.190000E+03	1.188656E-15	2.919438E-17
5.200000E+03	1.201491E-15	2.947359E-17
5.210000E+03	1.214522E-15	2.975546E-17
5.220000E+03	1.227699E-15	3.003941E-17
5.230000E+03	1.240910E-15	3.032320E-17
5.240000E+03	1.254090E-15	3.060570E-17
5.250000E+03	1.267161E-15	3.088543E-17
5.260000E+03	1.280045E-15	3.116082E-17
5.270000E+03	1.292637E-15	3.142963E-17
5.280000E+03	1.304874E-15	3.169057E-17
5.290000E+03	1.316667E-15	3.194170E-17
5.300000E+03	1.327946E-15	3.218146E-17
5.310000E+03	1.338629E-15	3.240798E-17
5.320000E+03	1.348664E-15	3.262013E-17
5.330000E+03	1.357966E-15	3.281587E-17
5.340000E+03	1.366482E-15	3.299393E-17
5.350000E+03	1.374150E-15	3.315279E-17
5.360000E+03	1.380943E-15	3.329178E-17
5.370000E+03	1.386786E-15	3.340897E-17
5.380000E+03	1.391666E-15	3.350396E-17
5.390000E+03	1.395550E-15	3.357582E-17
5.400000E+03	1.398411E-15	3.362380E-17
5.410000E+03	1.400203E-15	3.364664E-17
5.420000E+03	1.400916E-15	3.364394E-17
5.430000E+03	1.400546E-15	3.361549E-17
5.440000E+03	1.399043E-15	3.355993E-17
5.450000E+03	1.396418E-15	3.347744E-17
5.460000E+03	1.392649E-15	3.336740E-17
5.470000E+03	1.387748E-15	3.323005E-17
5.480000E+03	1.381805E-15	3.306750E-17
5.490000E+03	1.374856E-15	3.288066E-17
5.500000E+03	1.367001E-15	3.267192E-17
5.510000E+03	1.358314E-15	3.244310E-17
5.520000E+03	1.348910E-15	3.219708E-17
5.530000E+03	1.338842E-15	3.193515E-17
5.540000E+03	1.328201E-15	3.165959E-17
5.550000E+03	1.317054E-15	3.137207E-17
5.560000E+03	1.305506E-15	3.107516E-17
5.570000E+03	1.293607E-15	3.077015E-17
5.580000E+03	1.281436E-15	3.045889E-17
5.590000E+03	1.269053E-15	3.014289E-17
5.600000E+03	1.256542E-15	2.982421E-17
5.610000E+03	1.243948E-15	2.950393E-17
5.620000E+03	1.231336E-15	2.918369E-17
5.630000E+03	1.218768E-15	2.886504E-17
5.640000E+03	1.206289E-15	2.854917E-17
5.650000E+03	1.193953E-15	2.823749E-17
5.660000E+03	1.181783E-15	2.793070E-17
5.670000E+03	1.169824E-15	2.763002E-17
5.680000E+03	1.158116E-15	2.733649E-17
5.690000E+03	1.146680E-15	2.705075E-17
5.700000E+03	1.135534E-15	2.677328E-17
5.710000E+03	1.124692E-15	2.650438E-17
5.720000E+03	1.114184E-15	2.624473E-17
5.730000E+03	1.103991E-15	2.599371E-17
5.740000E+03	1.094136E-15	2.575165E-17
5.750000E+03	1.084613E-15	2.551813E-17
5.760000E+03	1.075403E-15	2.529235E-17
5.770000E+03	1.066505E-15	2.507391E-17
5.780000E+03	1.057914E-15	2.486231E-17
5.790000E+03	1.049603E-15	2.465649E-17
5.800000E+03	1.041550E-15	2.445559E-17
5.810000E+03	1.033756E-15	2.425932E-17
5.820000E+03	1.026178E-15	2.406634E-17
5.830000E+03	1.018802E-15	2.387614E-17
5.840000E+03	1.011606E-15	2.368803E-17
5.850000E+03	1.004567E-15	2.350135E-17
5.860000E+03	9.976747E-16	2.331577E-17
5.870000E+03	9.908875E-16	2.313026E-17
5.880000E+03	9.842089E-16	2.294488E-17
5.890000E+03	9.776115E-16	2.275900E-17
5.900000E+03	9.710813E-16	2.257230E-17
5.910000E+03	9.646067E-16	2.238457E-17
5.920000E+03	9.581783E-16	2.219567E-17
5.930000E+03	9.518001E-16	2.200582E-17
5.940000E+03	9.454462E-16	2.181457E-17
5.950000E+03	9.391150E-16	2.162210E-17
5.960000E+03	9.328180E-16	2.142890E-17
5.970000E+03	9.265588E-16	2.123532E-17
5.980000E+03	9.203222E-16	2.104130E-17
5.990000E+03	9.141388E-16	2.084781E-17
6.000000E+03	9.079885E-16	2.065463E-17
6.010000E+03	9.019181E-16	2.046302E-17
6.020000E+03	8.959136E-16	2.027278E-17
6.030000E+03	8.899958E-16	2.008438E-17
6.040000E+03	8.841981E-16	1.989847E-17
6.050000E+03	8.785358E-16	1.971514E-17
6.060000E+03	8.730360E-16	1.953459E-17
6.070000E+03	8.677069E-16	1.935647E-17
6.080000E+03	8.625990E-16	1.918122E-17
6.090000E+03	8.577111E-16	1.900799E-17
6.100000E+03	8.530937E-16	1.883698E-17
6.110000E+03	8.487652E-16	1.866755E-17
6.120000E+03	8.447426E-16	1.849893E-17
6.130000E+03	8.410514E-16	1.833047E-17
6.140000E+03	8.377247E-16	1.816157E-17
6.150000E+03	8.347724E-16	1.799107E-17
6.160000E+03	8.322115E-16	1.781786E-17
6.170000E+03	8.300761E-16	1.764115E-17
6.180000E+03	8.283556E-16	1.745911E-17
6.190000E+03	8.270662E-16	1.727044E-17
6.200000E+03	8.262206E-16	1.707367E-17
6.210000E+03	8.258275E-16	1.686724E-17
6.220000E+03	8.258705E-16	1.664900E-17
6.230000E+03	8.263394E-16	1.641691E-17
6.240000E+03	8.272308E-16	1.616905E-17
6.250000E+03	8.285157E-16	1.590297E-17
6.260000E+03	8.301825E-16	1.561661E-17
6.270000E+03	8.322052E-16	1.530768E-17
6.280000E+03	8.345653E-16	1.497413E-17
6.290000E+03	8.372300E-16	1.461385E-17
6.300000E+03	8.401636E-16	1.422494E-17
6.310000E+03	8.433395E-16	1.380614E-17
6.320000E+03	8.467296E-16	1.335676E-17
6.330000E+03	8.502820E-16	1.287665E-17
6.340000E+03	8.539675E-16	1.236727E-17
6.350000E+03	8.577577E-16	1.183181E-17
6.360000E+03	8.616019E-16	1.127547E-17
6.370000E+03	8.654873E-16	1.070708E-17
6.380000E+03	8.693796E-16	1.013925E-17
6.390000E+03	8.732471E-16	9.589865E-18
6.400000E+03	8.770603E-16	9.083042E-18
6.410000E+03	8.808173E-16	8.649811E-18
6.420000E+03	8.844792E-16	8.326095E-18
6.430000E+03	8.880457E-16	8.149054E-18
6.440000E+03	8.914897E-16	8.148300E-18
6.450000E+03	8.947822E-16	8.330838E-18
6.460000E+03	8.979058E-16	8.674616E-18
6.470000E+03	9.008273E-16	9.145133E-18
6.480000E+03	9.035248E-16	9.705596E-18
6.490000E+03	9.059339E-16	1.032222E-17
6.500000E+03	9.080450E-16	1.096769E-17
6.510000E+03	9.098215E-16	1.162057E-17
6.520000E+03	9.112140E-16	1.226462E-17
6.530000E+03	9.122035E-16	1.288840E-17
6.540000E+03	9.127595E-16	1.348374E-17
6.550000E+03	9.128551E-16	1.404516E-17
6.560000E+03	9.124669E-16	1.456920E-17
6.570000E+03	9.115911E-16	1.505419E-17
6.580000E+03	9.101986E-16	1.549912E-17
6.590000E+03	9.082805E-16	1.590404E-17
6.600000E+03	9.058474E-16	1.626985E-17
6.610000E+03	9.029009E-16	1.659763E-17
6.620000E+03	8.994324E-16	1.688842E-17
6.630000E+03	8.954687E-16	1.714399E-17
6.640000E+03	8.910113E-16	1.736567E-17
6.650000E+03	8.861118E-16	1.755570E-17
6.660000E+03	8.807656E-16	1.771523E-17
6.670000E+03	8.750026E-16	1.784606E-17
6.680000E+03	8.688707E-16	1.795033E-17
6.690000E+03	8.624059E-16	1.803000E-17
6.700000E+03	8.556316E-16	1.808676E-17
6.710000E+03	8.485881E-16	1.812273E-17
6.720000E+03	8.413316E-16	1.814037E-17
6.730000E+03	8.338891E-16	1.814159E-17
6.740000E+03	8.263176E-16	1.812893E-17
6.750000E+03	8.186290E-16	1.810396E-17
6.760000E+03	8.108934E-16	1.806947E-17
6.770000E+03	8.031206E-16	1.802684E-17
6.780000E+03	7.953771E-16	1.797859E-17
6.790000E+03	7.876690E-16	1.792574E-17
6.800000E+03	7.800437E-16	1.787004E-17
6.810000E+03	7.725311E-16	1.781270E-17
6.820000E+03	7.651444E-16	1.775430E-17
6.830000E+03	7.579223E-16	1.769584E-17
6.840000E+03	7.508720E-16	1.763743E-17
6.850000E+03	7.440257E-16	1.757964E-17
6.860000E+03	7.373709E-16	1.752188E-17
6.870000E+03	7.309474E-16	1.746474E-17
6.880000E+03	7.247505E-16	1.740776E-17
6.890000E+03	7.187863E-16	1.735079E-17
6.900000E+03	7.130444E-16	1.729330E-17
6.910000E+03	7.075526E-16	1.723581E-17
6.920000E+03	7.022684E-16	1.717719E-17
6.930000E+03	6.972281E-16	1.711836E-17
6.940000E+03	6.923984E-16	1.705862E-17
6.950000E+03	6.877713E-16	1.699799E-17
6.960000E+03	6.833504E-16	1.693685E-17
6.970000E+03	6.791117E-16	1.687497E-17
6.980000E+03	6.750432E-16	1.681248E-17
6.990000E+03	6.711325E-16	1.674953E-17
7.000000E+03	6.673666E-16	1.668632E-17
7.010000E+03	6.637325E-16	1.662307E-17
7.020000E+03	6.602041E-16	1.655966E-17
7.030000E+03	6.567949E-16	1.649700E-17
7.040000E+03	6.534539E-16	1.643436E-17
7.050000E+03	6.502085E-16	1.637294E-17
7.060000E+03	6.470096E-16	1.631198E-17
7.070000E+03	6.438739E-16	1.625232E-17
7.080000E+03	6.407801E-16	1.619376E-17
7.090000E+03	6.377216E-16	1.613641E-17
7.100000E+03	6.347055E-16	1.608062E-17
7.110000E+03	6.317021E-16	1.602572E-17
7.120000E+03	6.287210E-16	1.597198E-17
7.130000E+03	6.257479E-16	1.591897E-17
7.140000E+03	6.227947E-16	1.586689E-17
7.150000E+03	6.198613E-16	1.581558E-17
7.160000E+03	6.169359E-16	1.576457E-17
7.170000E+03	6.140325E-16	1.571406E-17
7.180000E+03	6.111274E-16	1.566329E-17
7.190000E+03	6.082473E-16	1.561282E-17
7.200000E+03	6.053812E-16	1.556232E-17
7.210000E+03	6.025182E-16	1.551148E-17
7.220000E+03	5.996715E-16	1.546072E-17
7.230000E+03	5.968419E-16	1.541017E-17
7.240000E+03	5.940172E-16	1.535969E-17
7.250000E+03	5.911974E-16	1.530951E-17
7.260000E+03	5.883823E-16	1.525990E-17
7.270000E+03	5.855712E-16	1.521112E-17
7.280000E+03	5.827636E-16	1.516348E-17
7.290000E+03	5.799351E-16	1.511665E-17
7.300000E+03	5.771098E-16	1.507154E-17
7.310000E+03	5.742761E-16	1.502812E-17
7.320000E+03	5.714236E-16	1.498635E-17
7.330000E+03	5.685664E-16	1.494681E-17
7.340000E+03	5.656842E-16	1.490911E-17
7.350000E+03	5.627819E-16	1.487351E-17
7.360000E+03	5.598657E-16	1.484020E-17
7.370000E+03	5.569317E-16	1.480910E-17
7.380000E+03	5.540009E-16	1.478069E-17
7.390000E+03	5.510488E-16	1.475421E-17
7.400000E+03	5.481112E-16	1.473041E-17
7.410000E+03	5.451780E-16	1.470877E-17
7.420000E+03	5.422755E-16	1.468968E-17
7.430000E+03	5.394074E-16	1.467284E-17
7.440000E+03	5.365897E-16	1.465825E-17
7.450000E+03	5.338503E-16	1.464616E-17
7.460000E+03	5.311941E-16	1.463616E-17
7.470000E+03	5.286717E-16	1.462904E-17
7.480000E+03	5.262763E-16	1.462398E-17
7.490000E+03	5.240460E-16	1.462137E-17
7.500000E+03	5.219841E-16	1.462059E-17
7.510000E+03	5.201386E-16	1.462226E-17
7.520000E+03	5.185109E-16	1.462571E-17
7.530000E+03	5.171127E-16	1.463052E-17
7.540000E+03	5.159658E-16	1.463660E-17
7.550000E+03	5.150794E-16	1.464352E-17
7.560000E+03	5.144838E-16	1.465150E-17
7.570000E+03	5.141625E-16	1.465948E-17
7.580000E+03	5.141312E-16	1.466739E-17
7.590000E+03	5.144039E-16	1.467520E-17
7.600000E+03	5.149697E-16	1.468226E-17
7.610000E+03	5.158383E-16	1.468860E-17
7.620000E+03	5.169940E-16	1.469363E-17
7.630000E+03	5.184531E-16	1.469774E-17
7.640000E+03	5.201824E-16	1.470003E-17
7.650000E+03	5.221926E-16	1.470086E-17
7.660000E+03	5.244441E-16	1.469928E-17
7.670000E+03	5.269411E-16	1.469555E-17
7.680000E+03	5.296371E-16	1.468859E-17
7.690000E+03	5.325305E-16	1.467853E-17
7.700000E+03	5.355802E-16	1.466444E-17
7.710000E+03	5.387548E-16	1.464567E-17
7.720000E+03	5.420201E-16	1.462148E-17
7.730000E+03	5.453401E-16	1.459110E-17
7.740000E+03	5.486768E-16	1.455373E-17
7.750000E+03	5.519782E-16	1.450823E-17
7.760000E+03	5.552300E-16	1.445452E-17
