#wls	flux	fluxerr
1.600000E+03	6.107116E-17	2.216634E-17
1.640000E+03	5.929916E-17	2.117385E-17
1.680000E+03	5.753550E-17	2.021048E-17
1.720000E+03	5.578405E-17	1.927716E-17
1.760000E+03	5.406220E-17	1.837918E-17
1.800000E+03	5.237245E-17	1.751642E-17
1.840000E+03	5.072347E-17	1.669063E-17
1.880000E+03	4.912291E-17	1.590299E-17
1.920000E+03	4.757207E-17	1.515244E-17
1.960000E+03	4.609255E-17	1.444423E-17
2.000000E+03	4.467309E-17	1.377301E-17
2.040000E+03	4.333630E-17	1.314393E-17
2.080000E+03	4.208296E-17	1.255519E-17
2.120000E+03	4.092132E-17	1.200717E-17
2.160000E+03	3.986121E-17	1.150061E-17
2.200000E+03	3.891332E-17	1.103630E-17
2.240000E+03	3.808524E-17	1.061400E-17
2.280000E+03	3.738203E-17	1.023267E-17
2.320000E+03	3.680978E-17	9.891443E-18
2.360000E+03	3.635799E-17	9.584997E-18
2.400000E+03	3.602571E-17	9.310668E-18
2.440000E+03	3.579869E-17	9.062455E-18
2.480000E+03	3.567499E-17	8.837699E-18
2.520000E+03	3.565069E-17	8.633297E-18
2.560000E+03	3.572278E-17	8.446456E-18
2.600000E+03	3.589139E-17	8.275177E-18
2.640000E+03	3.615329E-17	8.116727E-18
2.680000E+03	3.651454E-17	7.970523E-18
2.720000E+03	3.697224E-17	7.833993E-18
2.760000E+03	3.753270E-17	7.706633E-18
2.800000E+03	3.820158E-17	7.587780E-18
2.840000E+03	3.898445E-17	7.476805E-18
2.880000E+03	3.989695E-17	7.375054E-18
2.920000E+03	4.095918E-17	7.284571E-18
2.960000E+03	4.219885E-17	7.208585E-18
3.000000E+03	4.364982E-17	7.151101E-18
3.010000E+03	4.405167E-17	7.140409E-18
3.020000E+03	4.446827E-17	7.130980E-18
3.030000E+03	4.490134E-17	7.123068E-18
3.040000E+03	4.535402E-17	7.117138E-18
3.050000E+03	4.582514E-17	7.112969E-18
3.060000E+03	4.631499E-17	7.110577E-18
3.070000E+03	4.682673E-17	7.110417E-18
3.080000E+03	4.735787E-17	7.112074E-18
3.090000E+03	4.791301E-17	7.116210E-18
3.100000E+03	4.849110E-17	7.122635E-18
3.110000E+03	4.909256E-17	7.131378E-18
3.120000E+03	4.972062E-17	7.142876E-18
3.130000E+03	5.037434E-17	7.156960E-18
3.140000E+03	5.105700E-17	7.174062E-18
3.150000E+03	5.176773E-17	7.194024E-18
3.160000E+03	5.250710E-17	7.216894E-18
3.170000E+03	5.327983E-17	7.243292E-18
3.180000E+03	5.408380E-17	7.272889E-18
3.190000E+03	5.492243E-17	7.306114E-18
3.200000E+03	5.579643E-17	7.343024E-18
3.210000E+03	5.670656E-17	7.383685E-18
3.220000E+03	5.765497E-17	7.428345E-18
3.230000E+03	5.864251E-17	7.477075E-18
3.240000E+03	5.967281E-17	7.530303E-18
3.250000E+03	6.074407E-17	7.587762E-18
3.260000E+03	6.186001E-17	7.649883E-18
3.270000E+03	6.302169E-17	7.716756E-18
3.280000E+03	6.423155E-17	7.788643E-18
3.290000E+03	6.548939E-17	7.865477E-18
3.300000E+03	6.679778E-17	7.947527E-18
3.310000E+03	6.815797E-17	8.034902E-18
3.320000E+03	6.957266E-17	8.127877E-18
3.330000E+03	7.104324E-17	8.226567E-18
3.340000E+03	7.256976E-17	8.330932E-18
3.350000E+03	7.415508E-17	8.441256E-18
3.360000E+03	7.579939E-17	8.557511E-18
3.370000E+03	7.750568E-17	8.679985E-18
3.380000E+03	7.927421E-17	8.808657E-18
3.390000E+03	8.110673E-17	8.943666E-18
3.400000E+03	8.300359E-17	9.084998E-18
3.410000E+03	8.496662E-17	9.232799E-18
3.420000E+03	8.699629E-17	9.387059E-18
3.430000E+03	8.909454E-17	9.547929E-18
3.440000E+03	9.125902E-17	9.715097E-18
3.450000E+03	9.349319E-17	9.888869E-18
3.460000E+03	9.579620E-17	1.006909E-17
3.470000E+03	9.816720E-17	1.025560E-17
3.480000E+03	1.006083E-16	1.044856E-17
3.490000E+03	1.031172E-16	1.064766E-17
3.500000E+03	1.056930E-16	1.085272E-17
3.510000E+03	1.083378E-16	1.106391E-17
3.520000E+03	1.110477E-16	1.128074E-17
3.530000E+03	1.138248E-16	1.150334E-17
3.540000E+03	1.166650E-16	1.173124E-17
3.550000E+03	1.195703E-16	1.196454E-17
3.560000E+03	1.225365E-16	1.220273E-17
3.570000E+03	1.255639E-16	1.244578E-17
3.580000E+03	1.286511E-16	1.269345E-17
3.590000E+03	1.317983E-16	1.294567E-17
3.600000E+03	1.350040E-16	1.320220E-17
3.610000E+03	1.382647E-16	1.346261E-17
3.620000E+03	1.415820E-16	1.372695E-17
3.630000E+03	1.449504E-16	1.399461E-17
3.640000E+03	1.483694E-16	1.426542E-17
3.650000E+03	1.518347E-16	1.453889E-17
3.660000E+03	1.553470E-16	1.481498E-17
3.670000E+03	1.589015E-16	1.509314E-17
3.680000E+03	1.624967E-16	1.537312E-17
3.690000E+03	1.661325E-16	1.565483E-17
3.700000E+03	1.698050E-16	1.593780E-17
3.710000E+03	1.735153E-16	1.622203E-17
3.720000E+03	1.772590E-16	1.650702E-17
3.730000E+03	1.810366E-16	1.679272E-17
3.740000E+03	1.848466E-16	1.707890E-17
3.750000E+03	1.886853E-16	1.736511E-17
3.760000E+03	1.925523E-16	1.765125E-17
3.770000E+03	1.964451E-16	1.793697E-17
3.780000E+03	2.003627E-16	1.822212E-17
3.790000E+03	2.043017E-16	1.850630E-17
3.800000E+03	2.082605E-16	1.878928E-17
3.810000E+03	2.122329E-16	1.907042E-17
3.820000E+03	2.162206E-16	1.934981E-17
3.830000E+03	2.202144E-16	1.962658E-17
3.840000E+03	2.242154E-16	1.990074E-17
3.850000E+03	2.282159E-16	2.017156E-17
3.860000E+03	2.322141E-16	2.043883E-17
3.870000E+03	2.362016E-16	2.070177E-17
3.880000E+03	2.401761E-16	2.096014E-17
3.890000E+03	2.441308E-16	2.121333E-17
3.900000E+03	2.480587E-16	2.146068E-17
3.910000E+03	2.519571E-16	2.170197E-17
3.920000E+03	2.558187E-16	2.193656E-17
3.930000E+03	2.596365E-16	2.216383E-17
3.940000E+03	2.634055E-16	2.238338E-17
3.950000E+03	2.671211E-16	2.259481E-17
3.960000E+03	2.707767E-16	2.279758E-17
3.970000E+03	2.743658E-16	2.299117E-17
3.980000E+03	2.778824E-16	2.317510E-17
3.990000E+03	2.813258E-16	2.334935E-17
4.000000E+03	2.846912E-16	2.351356E-17
4.010000E+03	2.879744E-16	2.366740E-17
4.020000E+03	2.911718E-16	2.381063E-17
4.030000E+03	2.942807E-16	2.394305E-17
4.040000E+03	2.973043E-16	2.406497E-17
4.050000E+03	3.002363E-16	2.417592E-17
4.060000E+03	3.030846E-16	2.427654E-17
4.070000E+03	3.058419E-16	2.436632E-17
4.080000E+03	3.085180E-16	2.444602E-17
4.090000E+03	3.111128E-16	2.451567E-17
4.100000E+03	3.136299E-16	2.457555E-17
4.110000E+03	3.160736E-16	2.462600E-17
4.120000E+03	3.184492E-16	2.466742E-17
4.130000E+03	3.207653E-16	2.470044E-17
4.140000E+03	3.230286E-16	2.472555E-17
4.150000E+03	3.252437E-16	2.474302E-17
4.160000E+03	3.274183E-16	2.475339E-17
4.170000E+03	3.295635E-16	2.475740E-17
4.180000E+03	3.316879E-16	2.475558E-17
4.190000E+03	3.338006E-16	2.474849E-17
4.200000E+03	3.359077E-16	2.473642E-17
4.210000E+03	3.380186E-16	2.471989E-17
4.220000E+03	3.401452E-16	2.469958E-17
4.230000E+03	3.422967E-16	2.467592E-17
4.240000E+03	3.444762E-16	2.464891E-17
4.250000E+03	3.467011E-16	2.461951E-17
4.260000E+03	3.489710E-16	2.458739E-17
4.270000E+03	3.512966E-16	2.455297E-17
4.280000E+03	3.536883E-16	2.451663E-17
4.290000E+03	3.561467E-16	2.447803E-17
4.300000E+03	3.586810E-16	2.443739E-17
4.310000E+03	3.612933E-16	2.439442E-17
4.320000E+03	3.639881E-16	2.434894E-17
4.330000E+03	3.667687E-16	2.430071E-17
4.340000E+03	3.696316E-16	2.424896E-17
4.350000E+03	3.725749E-16	2.419305E-17
4.360000E+03	3.755986E-16	2.413242E-17
4.370000E+03	3.787082E-16	2.406685E-17
4.380000E+03	3.819015E-16	2.399559E-17
4.390000E+03	3.851784E-16	2.391801E-17
4.400000E+03	3.885408E-16	2.383358E-17
4.410000E+03	3.919798E-16	2.374106E-17
4.420000E+03	3.954948E-16	2.363975E-17
4.430000E+03	3.990776E-16	2.352844E-17
4.440000E+03	4.027185E-16	2.340585E-17
4.450000E+03	4.064137E-16	2.327105E-17
4.460000E+03	4.101475E-16	2.312244E-17
4.470000E+03	4.139139E-16	2.295895E-17
4.480000E+03	4.176949E-16	2.277892E-17
4.490000E+03	4.214791E-16	2.258105E-17
4.500000E+03	4.252574E-16	2.236423E-17
4.510000E+03	4.290098E-16	2.212676E-17
4.520000E+03	4.327261E-16	2.186760E-17
4.530000E+03	4.363853E-16	2.158516E-17
4.540000E+03	4.399732E-16	2.127830E-17
4.550000E+03	4.434761E-16	2.094600E-17
4.560000E+03	4.468804E-16	2.058735E-17
4.570000E+03	4.501695E-16	2.020139E-17
4.580000E+03	4.533313E-16	1.978753E-17
4.590000E+03	4.563508E-16	1.934516E-17
4.600000E+03	4.592184E-16	1.887411E-17
4.610000E+03	4.619300E-16	1.837457E-17
4.620000E+03	4.644753E-16	1.784669E-17
4.630000E+03	4.668459E-16	1.729092E-17
4.640000E+03	4.690435E-16	1.670836E-17
4.650000E+03	4.710639E-16	1.610019E-17
4.660000E+03	4.729139E-16	1.546828E-17
4.670000E+03	4.745897E-16	1.481463E-17
4.680000E+03	4.761029E-16	1.414221E-17
4.690000E+03	4.774589E-16	1.345447E-17
4.700000E+03	4.786658E-16	1.275574E-17
4.710000E+03	4.797253E-16	1.205128E-17
4.720000E+03	4.806586E-16	1.134824E-17
4.730000E+03	4.814720E-16	1.065516E-17
4.740000E+03	4.821779E-16	9.983005E-18
4.750000E+03	4.827867E-16	9.345559E-18
4.760000E+03	4.833275E-16	8.760314E-18
4.770000E+03	4.838049E-16	8.247843E-18
4.780000E+03	4.842466E-16	7.832147E-18
4.790000E+03	4.846719E-16	7.538140E-18
4.800000E+03	4.851050E-16	7.388220E-18
4.810000E+03	4.855647E-16	7.397220E-18
4.820000E+03	4.860676E-16	7.565290E-18
4.830000E+03	4.866231E-16	7.878107E-18
4.840000E+03	4.872353E-16	8.314039E-18
4.850000E+03	4.879168E-16	8.849268E-18
4.860000E+03	4.886802E-16	9.461273E-18
4.870000E+03	4.895245E-16	1.013044E-17
4.880000E+03	4.904625E-16	1.084105E-17
4.890000E+03	4.915073E-16	1.158089E-17
4.900000E+03	4.926632E-16	1.234042E-17
4.910000E+03	4.939393E-16	1.311254E-17
4.920000E+03	4.953539E-16	1.389228E-17
4.930000E+03	4.969119E-16	1.467571E-17
4.940000E+03	4.986184E-16	1.545999E-17
4.950000E+03	5.004968E-16	1.624372E-17
4.960000E+03	5.025476E-16	1.702545E-17
4.970000E+03	5.047851E-16	1.780470E-17
4.980000E+03	5.072190E-16	1.858124E-17
4.990000E+03	5.098588E-16	1.935519E-17
5.000000E+03	5.127186E-16	2.012706E-17
5.010000E+03	5.158027E-16	2.089724E-17
5.020000E+03	5.191249E-16	2.166663E-17
5.030000E+03	5.226888E-16	2.243582E-17
5.040000E+03	5.265072E-16	2.320594E-17
5.050000E+03	5.305878E-16	2.397793E-17
5.060000E+03	5.349325E-16	2.475254E-17
5.070000E+03	5.395523E-16	2.553099E-17
5.080000E+03	5.444581E-16	2.631449E-17
5.090000E+03	5.496441E-16	2.710351E-17
5.100000E+03	5.551189E-16	2.789918E-17
5.110000E+03	5.608852E-16	2.870233E-17
5.120000E+03	5.669389E-16	2.951344E-17
5.130000E+03	5.732909E-16	3.033374E-17
5.140000E+03	5.799290E-16	3.116321E-17
5.150000E+03	5.868559E-16	3.200259E-17
5.160000E+03	5.940617E-16	3.285190E-17
5.170000E+03	6.015463E-16	3.371162E-17
5.180000E+03	6.092962E-16	3.458146E-17
5.190000E+03	6.173082E-16	3.546167E-17
5.200000E+03	6.255654E-16	3.635162E-17
5.210000E+03	6.340487E-16	3.725053E-17
5.220000E+03	6.427559E-16	3.815851E-17
5.230000E+03	6.516644E-16	3.907446E-17
5.240000E+03	6.607499E-16	3.999705E-17
5.250000E+03	6.699989E-16	4.092558E-17
5.260000E+03	6.793835E-16	4.185840E-17
5.270000E+03	6.888872E-16	4.279451E-17
5.280000E+03	6.984722E-16	4.373151E-17
5.290000E+03	7.081192E-16	4.466812E-17
5.300000E+03	7.178014E-16	4.560252E-17
5.310000E+03	7.274906E-16	4.653276E-17
5.320000E+03	7.371437E-16	4.745587E-17
5.330000E+03	7.467454E-16	4.837064E-17
5.340000E+03	7.562583E-16	4.927440E-17
5.350000E+03	7.656448E-16	5.016438E-17
5.360000E+03	7.748818E-16	5.103877E-17
5.370000E+03	7.839239E-16	5.189425E-17
5.380000E+03	7.927568E-16	5.272952E-17
5.390000E+03	8.013360E-16	5.354124E-17
5.400000E+03	8.096331E-16	5.432718E-17
5.410000E+03	8.176293E-16	5.508567E-17
5.420000E+03	8.252829E-16	5.581354E-17
5.430000E+03	8.325697E-16	5.650878E-17
5.440000E+03	8.394759E-16	5.717008E-17
5.450000E+03	8.459731E-16	5.779514E-17
5.460000E+03	8.520518E-16	5.838298E-17
5.470000E+03	8.576882E-16	5.893162E-17
5.480000E+03	8.628602E-16	5.943925E-17
5.490000E+03	8.675572E-16	5.990481E-17
5.500000E+03	8.717621E-16	6.032686E-17
5.510000E+03	8.754870E-16	6.070597E-17
5.520000E+03	8.787113E-16	6.104049E-17
5.530000E+03	8.814346E-16	6.133017E-17
5.540000E+03	8.836681E-16	6.157561E-17
5.550000E+03	8.853984E-16	6.177572E-17
5.560000E+03	8.866598E-16	6.193276E-17
5.570000E+03	8.874343E-16	6.204538E-17
5.580000E+03	8.877425E-16	6.211493E-17
5.590000E+03	8.875976E-16	6.214227E-17
5.600000E+03	8.870147E-16	6.212843E-17
5.610000E+03	8.860104E-16	6.207457E-17
5.620000E+03	8.846118E-16	6.198258E-17
5.630000E+03	8.828196E-16	6.185254E-17
5.640000E+03	8.806629E-16	6.168654E-17
5.650000E+03	8.781622E-16	6.148608E-17
5.660000E+03	8.753294E-16	6.125206E-17
5.670000E+03	8.722042E-16	6.098735E-17
5.680000E+03	8.687989E-16	6.069289E-17
5.690000E+03	8.651345E-16	6.037026E-17
5.700000E+03	8.612320E-16	6.002103E-17
5.710000E+03	8.571119E-16	5.964675E-17
5.720000E+03	8.527939E-16	5.924888E-17
5.730000E+03	8.482971E-16	5.882889E-17
5.740000E+03	8.436398E-16	5.838814E-17
5.750000E+03	8.388483E-16	5.792857E-17
5.760000E+03	8.339297E-16	5.745077E-17
5.770000E+03	8.288993E-16	5.695590E-17
5.780000E+03	8.237803E-16	5.644565E-17
5.790000E+03	8.185767E-16	5.592036E-17
5.800000E+03	8.133183E-16	5.538216E-17
5.810000E+03	8.079980E-16	5.483064E-17
5.820000E+03	8.026257E-16	5.426651E-17
5.830000E+03	7.972280E-16	5.369164E-17
5.840000E+03	7.918038E-16	5.310598E-17
5.850000E+03	7.863690E-16	5.251063E-17
5.860000E+03	7.809206E-16	5.190540E-17
5.870000E+03	7.754643E-16	5.129068E-17
5.880000E+03	7.700222E-16	5.066794E-17
5.890000E+03	7.645810E-16	5.003626E-17
5.900000E+03	7.591618E-16	4.939701E-17
5.910000E+03	7.537679E-16	4.875035E-17
5.920000E+03	7.483932E-16	4.809584E-17
5.930000E+03	7.430493E-16	4.743415E-17
5.940000E+03	7.377472E-16	4.676589E-17
5.950000E+03	7.324803E-16	4.609056E-17
5.960000E+03	7.272684E-16	4.540927E-17
5.970000E+03	7.221049E-16	4.472147E-17
5.980000E+03	7.169919E-16	4.402715E-17
5.990000E+03	7.119490E-16	4.332734E-17
6.000000E+03	7.069784E-16	4.262196E-17
6.010000E+03	7.020827E-16	4.191094E-17
6.020000E+03	6.972728E-16	4.119469E-17
6.030000E+03	6.925601E-16	4.047357E-17
6.040000E+03	6.879473E-16	3.974744E-17
6.050000E+03	6.834373E-16	3.901611E-17
6.060000E+03	6.790503E-16	3.828034E-17
6.070000E+03	6.747893E-16	3.753986E-17
6.080000E+03	6.706660E-16	3.679484E-17
6.090000E+03	6.666837E-16	3.604495E-17
6.100000E+03	6.628626E-16	3.529069E-17
6.110000E+03	6.591974E-16	3.453116E-17
6.120000E+03	6.556913E-16	3.376587E-17
6.130000E+03	6.523643E-16	3.299514E-17
6.140000E+03	6.492109E-16	3.221792E-17
6.150000E+03	6.462169E-16	3.143273E-17
6.160000E+03	6.433848E-16	3.063892E-17
6.170000E+03	6.407253E-16	2.983616E-17
6.180000E+03	6.382317E-16	2.902329E-17
6.190000E+03	6.359394E-16	2.820102E-17
6.200000E+03	6.338324E-16	2.736765E-17
6.210000E+03	6.319198E-16	2.652261E-17
6.220000E+03	6.302103E-16	2.566525E-17
6.230000E+03	6.286948E-16	2.479418E-17
6.240000E+03	6.273724E-16	2.390840E-17
6.250000E+03	6.262414E-16	2.300689E-17
6.260000E+03	6.252826E-16	2.208810E-17
6.270000E+03	6.244929E-16	2.115122E-17
6.280000E+03	6.238688E-16	2.019554E-17
6.290000E+03	6.234060E-16	1.922057E-17
6.300000E+03	6.230736E-16	1.822528E-17
6.310000E+03	6.228834E-16	1.721035E-17
6.320000E+03	6.228118E-16	1.617598E-17
6.330000E+03	6.228431E-16	1.512333E-17
6.340000E+03	6.229788E-16	1.405503E-17
6.350000E+03	6.231934E-16	1.297446E-17
6.360000E+03	6.234786E-16	1.188749E-17
6.370000E+03	6.238168E-16	1.080286E-17
6.380000E+03	6.242081E-16	9.734202E-18
6.390000E+03	6.246344E-16	8.701924E-18
6.400000E+03	6.250956E-16	7.737538E-18
6.410000E+03	6.255734E-16	6.888191E-18
6.420000E+03	6.260584E-16	6.221139E-18
6.430000E+03	6.265413E-16	5.818976E-18
6.440000E+03	6.270217E-16	5.754335E-18
6.450000E+03	6.274788E-16	6.043106E-18
6.460000E+03	6.279067E-16	6.629829E-18
6.470000E+03	6.282900E-16	7.432031E-18
6.480000E+03	6.286140E-16	8.375077E-18
6.490000E+03	6.288739E-16	9.403869E-18
6.500000E+03	6.290377E-16	1.048040E-17
6.510000E+03	6.291118E-16	1.157966E-17
6.520000E+03	6.290663E-16	1.268420E-17
6.530000E+03	6.289103E-16	1.378256E-17
6.540000E+03	6.286258E-16	1.486619E-17
6.550000E+03	6.281962E-16	1.592882E-17
6.560000E+03	6.276251E-16	1.696619E-17
6.570000E+03	6.269084E-16	1.797502E-17
6.580000E+03	6.260335E-16	1.895254E-17
6.590000E+03	6.250084E-16	1.989720E-17
6.600000E+03	6.238136E-16	2.080702E-17
6.610000E+03	6.224695E-16	2.168169E-17
6.620000E+03	6.209589E-16	2.251990E-17
6.630000E+03	6.193047E-16	2.332202E-17
6.640000E+03	6.174920E-16	2.408722E-17
6.650000E+03	6.155358E-16	2.481597E-17
6.660000E+03	6.134329E-16	2.550817E-17
6.670000E+03	6.112001E-16	2.616465E-17
6.680000E+03	6.088354E-16	2.678559E-17
6.690000E+03	6.063473E-16	2.737167E-17
6.700000E+03	6.037543E-16	2.792414E-17
6.710000E+03	6.010560E-16	2.844347E-17
6.720000E+03	5.982618E-16	2.893061E-17
6.730000E+03	5.953911E-16	2.938710E-17
6.740000E+03	5.924440E-16	2.981354E-17
6.750000E+03	5.894303E-16	3.021106E-17
6.760000E+03	5.863597E-16	3.058083E-17
6.770000E+03	5.832417E-16	3.092401E-17
6.780000E+03	5.800953E-16	3.124232E-17
6.790000E+03	5.769200E-16	3.153643E-17
6.800000E+03	5.737342E-16	3.180806E-17
6.810000E+03	5.705270E-16	3.205732E-17
6.820000E+03	5.673259E-16	3.228644E-17
6.830000E+03	5.641384E-16	3.249655E-17
6.840000E+03	5.609525E-16	3.268765E-17
6.850000E+03	5.578039E-16	3.286250E-17
6.860000E+03	5.546701E-16	3.302043E-17
6.870000E+03	5.515856E-16	3.316415E-17
6.880000E+03	5.485273E-16	3.329289E-17
6.890000E+03	5.455286E-16	3.340931E-17
6.900000E+03	5.425750E-16	3.351310E-17
6.910000E+03	5.396704E-16	3.360509E-17
6.920000E+03	5.368279E-16	3.368663E-17
6.930000E+03	5.340506E-16	3.375847E-17
6.940000E+03	5.313409E-16	3.382127E-17
6.950000E+03	5.287012E-16	3.387567E-17
6.960000E+03	5.261234E-16	3.392164E-17
6.970000E+03	5.236279E-16	3.396093E-17
6.980000E+03	5.211965E-16	3.399280E-17
6.990000E+03	5.188391E-16	3.401828E-17
7.000000E+03	5.165555E-16	3.403777E-17
7.010000E+03	5.143548E-16	3.405223E-17
7.020000E+03	5.122172E-16	3.406068E-17
7.030000E+03	5.101603E-16	3.406463E-17
7.040000E+03	5.081729E-16	3.406363E-17
7.050000E+03	5.062529E-16	3.405783E-17
7.060000E+03	5.043981E-16	3.404734E-17
7.070000E+03	5.026150E-16	3.403285E-17
7.080000E+03	5.008912E-16	3.401375E-17
7.090000E+03	4.992327E-16	3.399067E-17
7.100000E+03	4.976263E-16	3.396289E-17
7.110000E+03	4.960777E-16	3.393099E-17
7.120000E+03	4.945827E-16	3.389485E-17
7.130000E+03	4.931273E-16	3.385365E-17
7.140000E+03	4.917167E-16	3.380789E-17
7.150000E+03	4.903461E-16	3.375738E-17
7.160000E+03	4.890110E-16	3.370189E-17
7.170000E+03	4.877162E-16	3.364186E-17
7.180000E+03	4.864376E-16	3.357573E-17
7.190000E+03	4.851800E-16	3.350390E-17
7.200000E+03	4.839487E-16	3.342681E-17
7.210000E+03	4.827294E-16	3.334352E-17
7.220000E+03	4.815177E-16	3.325379E-17
7.230000E+03	4.803194E-16	3.315806E-17
7.240000E+03	4.791208E-16	3.305543E-17
7.250000E+03	4.779284E-16	3.294637E-17
7.260000E+03	4.767290E-16	3.283000E-17
7.270000E+03	4.755301E-16	3.270685E-17
7.280000E+03	4.743292E-16	3.257677E-17
7.290000E+03	4.731249E-16	3.243967E-17
7.300000E+03	4.719057E-16	3.229476E-17
7.310000E+03	4.706912E-16	3.214337E-17
7.320000E+03	4.694613E-16	3.198413E-17
7.330000E+03	4.682265E-16	3.181773E-17
7.340000E+03	4.669880E-16	3.164424E-17
7.350000E+03	4.657476E-16	3.146375E-17
7.360000E+03	4.645076E-16	3.127637E-17
7.370000E+03	4.632712E-16	3.108226E-17
7.380000E+03	4.620419E-16	3.088161E-17
7.390000E+03	4.608339E-16	3.067530E-17
7.400000E+03	4.596317E-16	3.046221E-17
7.410000E+03	4.584608E-16	3.024392E-17
7.420000E+03	4.573267E-16	3.002070E-17
7.430000E+03	4.562354E-16	2.979280E-17
7.440000E+03	4.551830E-16	2.955979E-17
7.450000E+03	4.541758E-16	2.932194E-17
7.460000E+03	4.532204E-16	2.907947E-17
7.470000E+03	4.523234E-16	2.883261E-17
7.480000E+03	4.514913E-16	2.858154E-17
7.490000E+03	4.507306E-16	2.832641E-17
7.500000E+03	4.500475E-16	2.806732E-17
7.510000E+03	4.494477E-16	2.780433E-17
7.520000E+03	4.489262E-16	2.753679E-17
7.530000E+03	4.485089E-16	2.726591E-17
7.540000E+03	4.481787E-16	2.699028E-17
7.550000E+03	4.479498E-16	2.671031E-17
7.560000E+03	4.478245E-16	2.642570E-17
7.570000E+03	4.478153E-16	2.613670E-17
7.580000E+03	4.479013E-16	2.584156E-17
7.590000E+03	4.480927E-16	2.554035E-17
7.600000E+03	4.483984E-16	2.523301E-17
7.610000E+03	4.487937E-16	2.491757E-17
7.620000E+03	4.492960E-16	2.459438E-17
7.630000E+03	4.498776E-16	2.426131E-17
7.640000E+03	4.505532E-16	2.391853E-17
7.650000E+03	4.513031E-16	2.356436E-17
7.660000E+03	4.521172E-16	2.319762E-17
7.670000E+03	4.529837E-16	2.281711E-17
7.680000E+03	4.538785E-16	2.242100E-17
7.690000E+03	4.548209E-16	2.200969E-17
7.700000E+03	4.557614E-16	2.158020E-17
7.710000E+03	4.566944E-16	2.113181E-17
7.720000E+03	4.576136E-16	2.066378E-17
7.730000E+03	4.584768E-16	2.017385E-17
7.740000E+03	4.592879E-16	1.966195E-17
7.750000E+03	4.600266E-16	1.912702E-17
7.760000E+03	4.606490E-16	1.856722E-17
