#wls	flux	fluxerr
1.600000E+03	5.489666E-17	2.025644E-17
1.640000E+03	5.324165E-17	1.933760E-17
1.680000E+03	5.160350E-17	1.844830E-17
1.720000E+03	4.997876E-17	1.758679E-17
1.760000E+03	4.838361E-17	1.675808E-17
1.800000E+03	4.681470E-17	1.596012E-17
1.840000E+03	4.529184E-17	1.519865E-17
1.880000E+03	4.381597E-17	1.447267E-17
1.920000E+03	4.239306E-17	1.378279E-17
1.960000E+03	4.102811E-17	1.312916E-17
2.000000E+03	3.972961E-17	1.251291E-17
2.040000E+03	3.850843E-17	1.193575E-17
2.080000E+03	3.736109E-17	1.139480E-17
2.120000E+03	3.630306E-17	1.089297E-17
2.160000E+03	3.533905E-17	1.042969E-17
2.200000E+03	3.447541E-17	1.000483E-17
2.240000E+03	3.371953E-17	9.618453E-18
2.280000E+03	3.307345E-17	9.268998E-18
2.320000E+03	3.253795E-17	8.954533E-18
2.360000E+03	3.211553E-17	8.673585E-18
2.400000E+03	3.179235E-17	8.420310E-18
2.440000E+03	3.156885E-17	8.192850E-18
2.480000E+03	3.143373E-17	7.986361E-18
2.520000E+03	3.138867E-17	7.799462E-18
2.560000E+03	3.142697E-17	7.628714E-18
2.600000E+03	3.154948E-17	7.472627E-18
2.640000E+03	3.175566E-17	7.329403E-18
2.680000E+03	3.204958E-17	7.198327E-18
2.720000E+03	3.242718E-17	7.076877E-18
2.760000E+03	3.289640E-17	6.965272E-18
2.800000E+03	3.346099E-17	6.862786E-18
2.840000E+03	3.412778E-17	6.769386E-18
2.880000E+03	3.490663E-17	6.685664E-18
2.920000E+03	3.581627E-17	6.613865E-18
2.960000E+03	3.687941E-17	6.556803E-18
3.000000E+03	3.812448E-17	6.518090E-18
3.010000E+03	3.846928E-17	6.511979E-18
3.020000E+03	3.882785E-17	6.507305E-18
3.030000E+03	3.920043E-17	6.504080E-18
3.040000E+03	3.958993E-17	6.502763E-18
3.050000E+03	3.999523E-17	6.503138E-18
3.060000E+03	4.041793E-17	6.505437E-18
3.070000E+03	4.085696E-17	6.509461E-18
3.080000E+03	4.131659E-17	6.515863E-18
3.090000E+03	4.179448E-17	6.524237E-18
3.100000E+03	4.229227E-17	6.534814E-18
3.110000E+03	4.281161E-17	6.547822E-18
3.120000E+03	4.335288E-17	6.563282E-18
3.130000E+03	4.391777E-17	6.581419E-18
3.140000E+03	4.450539E-17	6.602070E-18
3.150000E+03	4.511878E-17	6.625654E-18
3.160000E+03	4.575842E-17	6.652205E-18
3.170000E+03	4.642608E-17	6.681947E-18
3.180000E+03	4.712102E-17	6.714737E-18
3.190000E+03	4.784510E-17	6.750807E-18
3.200000E+03	4.860019E-17	6.790387E-18
3.210000E+03	4.938693E-17	6.833530E-18
3.220000E+03	5.020727E-17	6.880468E-18
3.230000E+03	5.106194E-17	6.931261E-18
3.240000E+03	5.195295E-17	6.986145E-18
3.250000E+03	5.288112E-17	7.045186E-18
3.260000E+03	5.384728E-17	7.108458E-18
3.270000E+03	5.485360E-17	7.176204E-18
3.280000E+03	5.590101E-17	7.248504E-18
3.290000E+03	5.699049E-17	7.325444E-18
3.300000E+03	5.812564E-17	7.407440E-18
3.310000E+03	5.930626E-17	7.494418E-18
3.320000E+03	6.053349E-17	7.586476E-18
3.330000E+03	6.180850E-17	7.683715E-18
3.340000E+03	6.313512E-17	7.786561E-18
3.350000E+03	6.451207E-17	7.894801E-18
3.360000E+03	6.594197E-17	8.008709E-18
3.370000E+03	6.742624E-17	8.128400E-18
3.380000E+03	6.896503E-17	8.253839E-18
3.390000E+03	7.055983E-17	8.385149E-18
3.400000E+03	7.221352E-17	8.522616E-18
3.410000E+03	7.392376E-17	8.665901E-18
3.420000E+03	7.569483E-17	8.815452E-18
3.430000E+03	7.752444E-17	8.970939E-18
3.440000E+03	7.941567E-17	9.132655E-18
3.450000E+03	8.136624E-17	9.300278E-18
3.460000E+03	8.337931E-17	9.474103E-18
3.470000E+03	8.545262E-17	9.653808E-18
3.480000E+03	8.758801E-17	9.839536E-18
3.490000E+03	8.978319E-17	1.003096E-17
3.500000E+03	9.204002E-17	1.022823E-17
3.510000E+03	9.435617E-17	1.043100E-17
3.520000E+03	9.673207E-17	1.063925E-17
3.530000E+03	9.916668E-17	1.085281E-17
3.540000E+03	1.016590E-16	1.107148E-17
3.550000E+03	1.042092E-16	1.129521E-17
3.560000E+03	1.068133E-16	1.152349E-17
3.570000E+03	1.094713E-16	1.175626E-17
3.580000E+03	1.121835E-16	1.199343E-17
3.590000E+03	1.149481E-16	1.223479E-17
3.600000E+03	1.177638E-16	1.248006E-17
3.610000E+03	1.206286E-16	1.272898E-17
3.620000E+03	1.235422E-16	1.298143E-17
3.630000E+03	1.265041E-16	1.323726E-17
3.640000E+03	1.295089E-16	1.349584E-17
3.650000E+03	1.325573E-16	1.375713E-17
3.660000E+03	1.356451E-16	1.402062E-17
3.670000E+03	1.387741E-16	1.428642E-17
3.680000E+03	1.419413E-16	1.455412E-17
3.690000E+03	1.451449E-16	1.482345E-17
3.700000E+03	1.483847E-16	1.509430E-17
3.710000E+03	1.516585E-16	1.536636E-17
3.720000E+03	1.549672E-16	1.563963E-17
3.730000E+03	1.583064E-16	1.591359E-17
3.740000E+03	1.616767E-16	1.618820E-17
3.750000E+03	1.650765E-16	1.646322E-17
3.760000E+03	1.685059E-16	1.673857E-17
3.770000E+03	1.719611E-16	1.701378E-17
3.776700E+03	1.611442E-16	NAN
3.802300E+03	1.582748E-16	NAN
3.827900E+03	1.232870E-16	NAN
3.853400E+03	8.754309E-17	NAN
3.879000E+03	9.818669E-17	NAN
3.904600E+03	1.640470E-16	NAN
3.930100E+03	2.223120E-16	NAN
3.955700E+03	2.919657E-16	NAN
3.981300E+03	3.221777E-16	NAN
4.006800E+03	3.320135E-16	NAN
4.032400E+03	3.495488E-16	NAN
4.058000E+03	3.514752E-16	NAN
4.083600E+03	3.373628E-16	NAN
4.109100E+03	3.142471E-16	NAN
4.134700E+03	3.011773E-16	NAN
4.160300E+03	2.793193E-16	NAN
4.185800E+03	2.722894E-16	NAN
4.211400E+03	2.526059E-16	NAN
4.237000E+03	2.359036E-16	NAN
4.262600E+03	2.308700E-16	NAN
4.288100E+03	2.382848E-16	NAN
4.313700E+03	2.380408E-16	NAN
4.339300E+03	2.581253E-16	NAN
4.364800E+03	2.605512E-16	NAN
4.390400E+03	2.418213E-16	NAN
4.416000E+03	2.457625E-16	NAN
4.441600E+03	2.678338E-16	NAN
4.467100E+03	2.973594E-16	NAN
4.492700E+03	3.293760E-16	NAN
4.518300E+03	3.658246E-16	NAN
4.543800E+03	4.088239E-16	NAN
4.569400E+03	4.530906E-16	NAN
4.595000E+03	4.902894E-16	NAN
4.620500E+03	5.216489E-16	NAN
4.646100E+03	5.536109E-16	NAN
4.671700E+03	5.592150E-16	NAN
4.697300E+03	5.375688E-16	NAN
4.722800E+03	5.050208E-16	NAN
4.748400E+03	4.883340E-16	NAN
4.774000E+03	4.492543E-16	NAN
4.799500E+03	4.322274E-16	NAN
4.825100E+03	4.144640E-16	NAN
4.850700E+03	4.246804E-16	NAN
4.876300E+03	4.348029E-16	NAN
4.901800E+03	4.472972E-16	NAN
4.927400E+03	4.354907E-16	NAN
4.953000E+03	4.337271E-16	NAN
4.978500E+03	4.348383E-16	NAN
5.004100E+03	4.319106E-16	NAN
5.029700E+03	4.322486E-16	NAN
5.055300E+03	4.338412E-16	NAN
5.080800E+03	4.091516E-16	NAN
5.106400E+03	3.996189E-16	NAN
5.132000E+03	4.011861E-16	NAN
5.157500E+03	4.153820E-16	NAN
5.183100E+03	4.514121E-16	NAN
5.208700E+03	4.810011E-16	NAN
5.234200E+03	5.124689E-16	NAN
5.259800E+03	5.399472E-16	NAN
5.285400E+03	5.667150E-16	NAN
5.311000E+03	6.092805E-16	NAN
5.336500E+03	6.579730E-16	NAN
5.362100E+03	6.887525E-16	NAN
5.387700E+03	7.163568E-16	NAN
5.413200E+03	7.491738E-16	NAN
5.438800E+03	7.994590E-16	NAN
5.464400E+03	8.156570E-16	NAN
5.490000E+03	8.007614E-16	NAN
5.515500E+03	8.051327E-16	NAN
5.541100E+03	8.384574E-16	NAN
5.566700E+03	8.515606E-16	NAN
5.592200E+03	8.284146E-16	NAN
5.617800E+03	7.737714E-16	NAN
5.643400E+03	7.476395E-16	NAN
5.668900E+03	7.490371E-16	NAN
5.694500E+03	7.419628E-16	NAN
5.720100E+03	7.190773E-16	NAN
5.745700E+03	7.033139E-16	NAN
5.771200E+03	6.774481E-16	NAN
5.796800E+03	6.579358E-16	NAN
5.822400E+03	6.462014E-16	NAN
5.847900E+03	6.366896E-16	NAN
5.873500E+03	6.462295E-16	NAN
5.899100E+03	6.686130E-16	NAN
5.924700E+03	6.781421E-16	NAN
5.950200E+03	6.832657E-16	NAN
5.975800E+03	6.730890E-16	NAN
6.001400E+03	6.645167E-16	NAN
6.026900E+03	6.493101E-16	NAN
6.052500E+03	6.335062E-16	NAN
6.078100E+03	6.432697E-16	NAN
6.103700E+03	6.512434E-16	NAN
6.129200E+03	6.572737E-16	NAN
6.154800E+03	6.550860E-16	NAN
6.180400E+03	6.347240E-16	NAN
6.205900E+03	6.124670E-16	NAN
6.231500E+03	5.832938E-16	NAN
6.257100E+03	5.584196E-16	NAN
6.282600E+03	5.536839E-16	NAN
6.308200E+03	5.588219E-16	NAN
6.333800E+03	5.586998E-16	NAN
6.359400E+03	5.580732E-16	NAN
6.384900E+03	5.810859E-16	NAN
6.410500E+03	6.095230E-16	NAN
6.436100E+03	6.345668E-16	NAN
6.461600E+03	6.561219E-16	NAN
6.487200E+03	6.661089E-16	NAN
6.512800E+03	6.676324E-16	NAN
6.538400E+03	6.666568E-16	NAN
6.563900E+03	6.650231E-16	NAN
6.589500E+03	6.664699E-16	NAN
6.615100E+03	6.633316E-16	NAN
6.640600E+03	6.622747E-16	NAN
6.666200E+03	6.564912E-16	NAN
6.691800E+03	6.467669E-16	NAN
6.717400E+03	6.287917E-16	NAN
6.742900E+03	6.028089E-16	NAN
6.768500E+03	5.834548E-16	NAN
6.794100E+03	5.831052E-16	NAN
6.819600E+03	5.825750E-16	NAN
6.845200E+03	5.778453E-16	NAN
6.870800E+03	5.647753E-16	NAN
6.896300E+03	5.514726E-16	NAN
6.921900E+03	5.438312E-16	NAN
6.947500E+03	5.413958E-16	NAN
6.973100E+03	5.366412E-16	NAN
6.998600E+03	5.332560E-16	NAN
7.024200E+03	5.251278E-16	NAN
7.049800E+03	5.115692E-16	NAN
7.075300E+03	4.964668E-16	NAN
7.100900E+03	4.873584E-16	NAN
7.126500E+03	4.865756E-16	NAN
7.152100E+03	4.921297E-16	NAN
7.177600E+03	4.932443E-16	NAN
7.203200E+03	4.938246E-16	NAN
7.228800E+03	4.931829E-16	NAN
7.254300E+03	4.913180E-16	NAN
7.279900E+03	4.981969E-16	NAN
7.305500E+03	5.074181E-16	NAN
7.331100E+03	5.102066E-16	NAN
7.356600E+03	5.128388E-16	NAN
7.382200E+03	5.118399E-16	NAN
7.407800E+03	5.096152E-16	NAN
7.433300E+03	5.056924E-16	NAN
7.458900E+03	4.952173E-16	NAN
7.484500E+03	4.828405E-16	NAN
7.510000E+03	4.739046E-16	NAN
7.535600E+03	4.587349E-16	NAN
7.561200E+03	4.348065E-16	NAN
7.586800E+03	4.052855E-16	NAN
7.612300E+03	3.772758E-16	NAN
7.637900E+03	3.613544E-16	NAN
7.663500E+03	3.660033E-16	NAN
7.689000E+03	3.823631E-16	NAN
7.714600E+03	4.090825E-16	NAN
7.740200E+03	4.363452E-16	NAN
7.765800E+03	4.695288E-16	NAN
7.791300E+03	5.029509E-16	NAN
7.816900E+03	5.261621E-16	NAN
7.842500E+03	5.416257E-16	NAN
7.868000E+03	5.575907E-16	NAN
7.893600E+03	5.746228E-16	NAN
7.919200E+03	5.956158E-16	NAN
7.944700E+03	6.047907E-16	NAN
7.970300E+03	5.988422E-16	NAN
7.995900E+03	5.825091E-16	NAN
8.021500E+03	5.480562E-16	NAN
8.047000E+03	5.090073E-16	NAN
8.072600E+03	4.683123E-16	NAN
8.098200E+03	4.269354E-16	NAN
8.123700E+03	3.857509E-16	NAN
8.149300E+03	3.437013E-16	NAN
8.174900E+03	2.992883E-16	NAN
8.200500E+03	2.582250E-16	NAN
8.226000E+03	2.152535E-16	NAN
8.251600E+03	1.828162E-16	NAN
8.277200E+03	1.609392E-16	NAN
8.302700E+03	1.509528E-16	NAN
8.328300E+03	1.516287E-16	NAN
8.353900E+03	1.537138E-16	NAN
8.379500E+03	1.582415E-16	NAN
8.405000E+03	1.698531E-16	NAN
8.430600E+03	1.813184E-16	NAN
8.456200E+03	2.033079E-16	NAN
8.481700E+03	2.411583E-16	NAN
8.507300E+03	2.863282E-16	NAN
8.532900E+03	3.329564E-16	NAN
8.558400E+03	3.752839E-16	NAN
8.584000E+03	4.127203E-16	NAN
8.609600E+03	4.558505E-16	NAN
8.635200E+03	5.019989E-16	NAN
8.660700E+03	5.443358E-16	NAN
8.686300E+03	5.812602E-16	NAN
8.711900E+03	6.099549E-16	NAN
8.737400E+03	6.215333E-16	NAN
8.763000E+03	6.084059E-16	NAN
8.788600E+03	6.018905E-16	NAN
8.814200E+03	5.963267E-16	NAN
8.839700E+03	5.809487E-16	NAN
8.865300E+03	5.451277E-16	NAN
8.890900E+03	4.878882E-16	NAN
8.916400E+03	4.327509E-16	NAN
8.942000E+03	4.081843E-16	NAN
8.967600E+03	3.933704E-16	NAN
8.993200E+03	3.845200E-16	NAN
9.018700E+03	3.695414E-16	NAN
9.044300E+03	3.494266E-16	NAN
9.069900E+03	3.353698E-16	NAN
9.095400E+03	3.372302E-16	NAN
9.121000E+03	3.537843E-16	NAN
9.146600E+03	3.759776E-16	NAN
9.172100E+03	3.880048E-16	NAN
9.197700E+03	3.870324E-16	NAN
9.223300E+03	3.790368E-16	NAN
9.240000E+03	3.621589E-16	3.603809E-17
9.280000E+03	3.622008E-16	3.636014E-17
9.320000E+03	3.624564E-16	3.670396E-17
9.360000E+03	3.628592E-16	3.706465E-17
9.400000E+03	3.633681E-16	3.743971E-17
9.440000E+03	3.638920E-16	3.782144E-17
9.480000E+03	3.643413E-16	3.820231E-17
9.520000E+03	3.646506E-16	3.857766E-17
9.560000E+03	3.647442E-16	3.894247E-17
9.600000E+03	3.645357E-16	3.929166E-17
9.640000E+03	3.639273E-16	3.962046E-17
9.680000E+03	3.628970E-16	3.993438E-17
9.720000E+03	3.613326E-16	4.023164E-17
9.760000E+03	3.592040E-16	4.052218E-17
9.800000E+03	3.564803E-16	4.081868E-17
9.840000E+03	3.531530E-16	4.113861E-17
9.880000E+03	3.492109E-16	4.150022E-17
9.920000E+03	3.446617E-16	4.192323E-17
9.960000E+03	3.395806E-16	4.243274E-17
1.000000E+04	3.340069E-16	4.304446E-17
1.004000E+04	3.279629E-16	4.376438E-17
1.008000E+04	3.215281E-16	4.459717E-17
1.012000E+04	3.147589E-16	4.553567E-17
1.016000E+04	3.077382E-16	4.656888E-17
1.020000E+04	3.005199E-16	4.767611E-17
1.024000E+04	2.931272E-16	4.882821E-17
1.028000E+04	2.856596E-16	5.000762E-17
1.032000E+04	2.781302E-16	5.118398E-17
