#wls	flux	fluxerr
1.600000E+03	8.197611E-17	2.735986E-17
1.640000E+03	7.976397E-17	2.610850E-17
1.680000E+03	7.754515E-17	2.489385E-17
1.720000E+03	7.532486E-17	2.371740E-17
1.760000E+03	7.313438E-17	2.258837E-17
1.800000E+03	7.096075E-17	2.150163E-17
1.840000E+03	6.883291E-17	2.046461E-17
1.880000E+03	6.675403E-17	1.947643E-17
1.920000E+03	6.474137E-17	1.854002E-17
1.960000E+03	6.279681E-17	1.765353E-17
2.000000E+03	6.093472E-17	1.681841E-17
2.040000E+03	5.916698E-17	1.603514E-17
2.080000E+03	5.749781E-17	1.530188E-17
2.120000E+03	5.594570E-17	1.462047E-17
2.160000E+03	5.452958E-17	1.399253E-17
2.200000E+03	5.325906E-17	1.341706E-17
2.240000E+03	5.214915E-17	1.289427E-17
2.280000E+03	5.122245E-17	1.242600E-17
2.320000E+03	5.047256E-17	1.200684E-17
2.360000E+03	4.989659E-17	1.163234E-17
2.400000E+03	4.948081E-17	1.129566E-17
2.440000E+03	4.921657E-17	1.099136E-17
2.480000E+03	4.909628E-17	1.071439E-17
2.520000E+03	4.911352E-17	1.046007E-17
2.560000E+03	4.926858E-17	1.022522E-17
2.600000E+03	4.956201E-17	1.000666E-17
2.640000E+03	4.998736E-17	9.799811E-18
2.680000E+03	5.055235E-17	9.602887E-18
2.720000E+03	5.125569E-17	9.412262E-18
2.760000E+03	5.210041E-17	9.225142E-18
2.800000E+03	5.308728E-17	9.038350E-18
2.840000E+03	5.422823E-17	8.850671E-18
2.880000E+03	5.553721E-17	8.661140E-18
2.920000E+03	5.704240E-17	8.470900E-18
2.960000E+03	5.878335E-17	8.282435E-18
3.000000E+03	6.080729E-17	8.098872E-18
3.010000E+03	6.136360E-17	8.054153E-18
3.020000E+03	6.194113E-17	8.009937E-18
3.030000E+03	6.254203E-17	7.966446E-18
3.040000E+03	6.316663E-17	7.923670E-18
3.050000E+03	6.381708E-17	7.881824E-18
3.060000E+03	6.449378E-17	7.840904E-18
3.070000E+03	6.519716E-17	7.800914E-18
3.080000E+03	6.592946E-17	7.762078E-18
3.090000E+03	6.669117E-17	7.724412E-18
3.100000E+03	6.748633E-17	7.688338E-18
3.110000E+03	6.831203E-17	7.653485E-18
3.120000E+03	6.917411E-17	7.620478E-18
3.130000E+03	7.006979E-17	7.588976E-18
3.140000E+03	7.100495E-17	7.559594E-18
3.150000E+03	7.197695E-17	7.532027E-18
3.160000E+03	7.299005E-17	7.506710E-18
3.170000E+03	7.404684E-17	7.483895E-18
3.180000E+03	7.514658E-17	7.463497E-18
3.190000E+03	7.629369E-17	7.445955E-18
3.200000E+03	7.748757E-17	7.431209E-18
3.210000E+03	7.873106E-17	7.419545E-18
3.220000E+03	8.002708E-17	7.411249E-18
3.230000E+03	8.137694E-17	7.406454E-18
3.240000E+03	8.278367E-17	7.405456E-18
3.250000E+03	8.424873E-17	7.408401E-18
3.260000E+03	8.577364E-17	7.415449E-18
3.270000E+03	8.736165E-17	7.426907E-18
3.280000E+03	8.901443E-17	7.442941E-18
3.290000E+03	9.073370E-17	7.463725E-18
3.300000E+03	9.252291E-17	7.489572E-18
3.310000E+03	9.438392E-17	7.520657E-18
3.320000E+03	9.632031E-17	7.557289E-18
3.330000E+03	9.833065E-17	7.599381E-18
3.340000E+03	1.004203E-16	7.647374E-18
3.350000E+03	1.025880E-16	7.701184E-18
3.360000E+03	1.048408E-16	7.761370E-18
3.370000E+03	1.071757E-16	7.827717E-18
3.380000E+03	1.095950E-16	7.900394E-18
3.390000E+03	1.121042E-16	7.979811E-18
3.400000E+03	1.147003E-16	8.065749E-18
3.410000E+03	1.173857E-16	8.158362E-18
3.420000E+03	1.201625E-16	8.257793E-18
3.430000E+03	1.230313E-16	8.364057E-18
3.440000E+03	1.259927E-16	8.477165E-18
3.450000E+03	1.290457E-16	8.597004E-18
3.460000E+03	1.321925E-16	8.723692E-18
3.470000E+03	1.354305E-16	8.856989E-18
3.480000E+03	1.387638E-16	8.997119E-18
3.490000E+03	1.421861E-16	9.143595E-18
3.500000E+03	1.457018E-16	9.296635E-18
3.510000E+03	1.493064E-16	9.455861E-18
3.520000E+03	1.529990E-16	9.621128E-18
3.530000E+03	1.567768E-16	9.792168E-18
3.540000E+03	1.606408E-16	9.968943E-18
3.550000E+03	1.645845E-16	1.015094E-17
3.560000E+03	1.686070E-16	1.033799E-17
3.570000E+03	1.727054E-16	1.052981E-17
3.580000E+03	1.768788E-16	1.072622E-17
3.590000E+03	1.811223E-16	1.092678E-17
3.600000E+03	1.854348E-16	1.113131E-17
3.610000E+03	1.898130E-16	1.133947E-17
3.620000E+03	1.942556E-16	1.155105E-17
3.630000E+03	1.987612E-16	1.176581E-17
3.640000E+03	2.033261E-16	1.198339E-17
3.650000E+03	2.079483E-16	1.220354E-17
3.660000E+03	2.126280E-16	1.242610E-17
3.670000E+03	2.173626E-16	1.265078E-17
3.680000E+03	2.221561E-16	1.287765E-17
3.690000E+03	2.270013E-16	1.310615E-17
3.700000E+03	2.319035E-16	1.333642E-17
3.710000E+03	2.368593E-16	1.356810E-17
3.720000E+03	2.418712E-16	1.380120E-17
3.730000E+03	2.469393E-16	1.403557E-17
3.740000E+03	2.520609E-16	1.427090E-17
3.750000E+03	2.572374E-16	1.450712E-17
3.760000E+03	2.624671E-16	1.474400E-17
3.770000E+03	2.677502E-16	1.498141E-17
3.780000E+03	2.730834E-16	1.521905E-17
3.790000E+03	2.784654E-16	1.545672E-17
3.800000E+03	2.838910E-16	1.569403E-17
3.810000E+03	2.893592E-16	1.593082E-17
3.820000E+03	2.948626E-16	1.616662E-17
3.830000E+03	3.003954E-16	1.640103E-17
3.840000E+03	3.059499E-16	1.663359E-17
3.850000E+03	3.115122E-16	1.686349E-17
3.860000E+03	3.170798E-16	1.709060E-17
3.870000E+03	3.226330E-16	1.731385E-17
3.880000E+03	3.281585E-16	1.753254E-17
3.890000E+03	3.336474E-16	1.774623E-17
3.900000E+03	3.390755E-16	1.795368E-17
3.910000E+03	3.444317E-16	1.815438E-17
3.920000E+03	3.496927E-16	1.834718E-17
3.930000E+03	3.548402E-16	1.853122E-17
3.940000E+03	3.598589E-16	1.870581E-17
3.950000E+03	3.647246E-16	1.886982E-17
3.960000E+03	3.694193E-16	1.902245E-17
3.970000E+03	3.739260E-16	1.916298E-17
3.980000E+03	3.782229E-16	1.929044E-17
3.990000E+03	3.823019E-16	1.940459E-17
4.000000E+03	3.861414E-16	1.950450E-17
4.010000E+03	3.897348E-16	1.958999E-17
4.020000E+03	3.930715E-16	1.966072E-17
4.030000E+03	3.961439E-16	1.971648E-17
4.040000E+03	3.989505E-16	1.975736E-17
4.050000E+03	4.014868E-16	1.978331E-17
4.060000E+03	4.037575E-16	1.979474E-17
4.070000E+03	4.057677E-16	1.979205E-17
4.080000E+03	4.075287E-16	1.977595E-17
4.090000E+03	4.090484E-16	1.974695E-17
4.100000E+03	4.103439E-16	1.970603E-17
4.110000E+03	4.114319E-16	1.965410E-17
4.120000E+03	4.123312E-16	1.959215E-17
4.130000E+03	4.130627E-16	1.952129E-17
4.140000E+03	4.136491E-16	1.944264E-17
4.150000E+03	4.141142E-16	1.935739E-17
4.160000E+03	4.144865E-16	1.926690E-17
4.170000E+03	4.147883E-16	1.917222E-17
4.180000E+03	4.150490E-16	1.907470E-17
4.190000E+03	4.152914E-16	1.897534E-17
4.200000E+03	4.155482E-16	1.887558E-17
4.210000E+03	4.158382E-16	1.877619E-17
4.220000E+03	4.161965E-16	1.867862E-17
4.230000E+03	4.166404E-16	1.858352E-17
4.240000E+03	4.171964E-16	1.849188E-17
4.250000E+03	4.178935E-16	1.840478E-17
4.260000E+03	4.187492E-16	1.832275E-17
4.270000E+03	4.197867E-16	1.824652E-17
4.280000E+03	4.210314E-16	1.817689E-17
4.290000E+03	4.225039E-16	1.811440E-17
4.300000E+03	4.242236E-16	1.805950E-17
4.310000E+03	4.262122E-16	1.801267E-17
4.320000E+03	4.284934E-16	1.797447E-17
4.330000E+03	4.310829E-16	1.794504E-17
4.340000E+03	4.340092E-16	1.792502E-17
4.350000E+03	4.372854E-16	1.791433E-17
4.360000E+03	4.409377E-16	1.791341E-17
4.370000E+03	4.449582E-16	1.792125E-17
4.380000E+03	4.493441E-16	1.793700E-17
4.390000E+03	4.540899E-16	1.795969E-17
4.400000E+03	4.591798E-16	1.798793E-17
4.410000E+03	4.646137E-16	1.802090E-17
4.420000E+03	4.703692E-16	1.805690E-17
4.430000E+03	4.764354E-16	1.809467E-17
4.440000E+03	4.827938E-16	1.813261E-17
4.450000E+03	4.894257E-16	1.816913E-17
4.460000E+03	4.963042E-16	1.820232E-17
4.470000E+03	5.034019E-16	1.823025E-17
4.480000E+03	5.106914E-16	1.825099E-17
4.490000E+03	5.181320E-16	1.826217E-17
4.500000E+03	5.256833E-16	1.826145E-17
4.510000E+03	5.333003E-16	1.824636E-17
4.520000E+03	5.409435E-16	1.821469E-17
4.530000E+03	5.485565E-16	1.816372E-17
4.540000E+03	5.560892E-16	1.809103E-17
4.550000E+03	5.634852E-16	1.799409E-17
4.560000E+03	5.706916E-16	1.787060E-17
4.570000E+03	5.776503E-16	1.771825E-17
4.580000E+03	5.843095E-16	1.753506E-17
4.590000E+03	5.906141E-16	1.731916E-17
4.600000E+03	5.965174E-16	1.706912E-17
4.610000E+03	6.019715E-16	1.678373E-17
4.620000E+03	6.069446E-16	1.646246E-17
4.630000E+03	6.113900E-16	1.610470E-17
4.640000E+03	6.152944E-16	1.571106E-17
4.650000E+03	6.186312E-16	1.528220E-17
4.660000E+03	6.213979E-16	1.481983E-17
4.670000E+03	6.235846E-16	1.432599E-17
4.680000E+03	6.252114E-16	1.380404E-17
4.690000E+03	6.262798E-16	1.325763E-17
4.700000E+03	6.268155E-16	1.269185E-17
4.710000E+03	6.268407E-16	1.211276E-17
4.720000E+03	6.263895E-16	1.152798E-17
4.730000E+03	6.255022E-16	1.094675E-17
4.740000E+03	6.242178E-16	1.038014E-17
4.750000E+03	6.225847E-16	9.841365E-18
4.760000E+03	6.206591E-16	9.345869E-18
4.770000E+03	6.184872E-16	8.910717E-18
4.780000E+03	6.161260E-16	8.554066E-18
4.790000E+03	6.136196E-16	8.293132E-18
4.800000E+03	6.110149E-16	8.141955E-18
4.810000E+03	6.083543E-16	8.108519E-18
4.820000E+03	6.056794E-16	8.191302E-18
4.830000E+03	6.030361E-16	8.379787E-18
4.840000E+03	6.004540E-16	8.658180E-18
4.850000E+03	5.979635E-16	9.008637E-18
4.860000E+03	5.955914E-16	9.413652E-18
4.870000E+03	5.933664E-16	9.857676E-18
4.880000E+03	5.913040E-16	1.032754E-17
4.890000E+03	5.894285E-16	1.081289E-17
4.900000E+03	5.877517E-16	1.130559E-17
4.910000E+03	5.862897E-16	1.179967E-17
4.920000E+03	5.850633E-16	1.229098E-17
4.930000E+03	5.840873E-16	1.277661E-17
4.940000E+03	5.833767E-16	1.325476E-17
4.950000E+03	5.829467E-16	1.372449E-17
4.960000E+03	5.828127E-16	1.418550E-17
4.970000E+03	5.829856E-16	1.463791E-17
4.980000E+03	5.834929E-16	1.508262E-17
4.990000E+03	5.843524E-16	1.552061E-17
5.000000E+03	5.855717E-16	1.595279E-17
5.010000E+03	5.871752E-16	1.638072E-17
5.020000E+03	5.891880E-16	1.680606E-17
5.030000E+03	5.916304E-16	1.723048E-17
5.040000E+03	5.945114E-16	1.765535E-17
5.050000E+03	5.978622E-16	1.808275E-17
5.060000E+03	6.016967E-16	1.851427E-17
5.070000E+03	6.060396E-16	1.895181E-17
5.080000E+03	6.109026E-16	1.939692E-17
5.090000E+03	6.163019E-16	1.985123E-17
5.100000E+03	6.222575E-16	2.031648E-17
5.110000E+03	6.287694E-16	2.079373E-17
5.120000E+03	6.358586E-16	2.128469E-17
5.130000E+03	6.435254E-16	2.179033E-17
5.140000E+03	6.517728E-16	2.231166E-17
5.150000E+03	6.606004E-16	2.284950E-17
5.160000E+03	6.699973E-16	2.340424E-17
5.170000E+03	6.799682E-16	2.397675E-17
5.180000E+03	6.904881E-16	2.456677E-17
5.190000E+03	7.015471E-16	2.517450E-17
5.200000E+03	7.131180E-16	2.579944E-17
5.210000E+03	7.251758E-16	2.644110E-17
5.220000E+03	7.376986E-16	2.709900E-17
5.230000E+03	7.506462E-16	2.777195E-17
5.240000E+03	7.639815E-16	2.845875E-17
5.250000E+03	7.776632E-16	2.915803E-17
5.260000E+03	7.916465E-16	2.986819E-17
5.270000E+03	8.058752E-16	3.058714E-17
5.280000E+03	8.203053E-16	3.131319E-17
5.290000E+03	8.348742E-16	3.204391E-17
5.300000E+03	8.495242E-16	3.277698E-17
5.310000E+03	8.642044E-16	3.351032E-17
5.320000E+03	8.788367E-16	3.424075E-17
5.330000E+03	8.933669E-16	3.496599E-17
5.340000E+03	9.077231E-16	3.568300E-17
5.350000E+03	9.218509E-16	3.638944E-17
5.360000E+03	9.356878E-16	3.708261E-17
5.370000E+03	9.491536E-16	3.775907E-17
5.380000E+03	9.621975E-16	3.841655E-17
5.390000E+03	9.747617E-16	3.905247E-17
5.400000E+03	9.867816E-16	3.966396E-17
5.410000E+03	9.981953E-16	4.024824E-17
5.420000E+03	1.008975E-15	4.080390E-17
5.430000E+03	1.019046E-15	4.132765E-17
5.440000E+03	1.028380E-15	4.181802E-17
5.450000E+03	1.036922E-15	4.227248E-17
5.460000E+03	1.044642E-15	4.268955E-17
5.470000E+03	1.051517E-15	4.306796E-17
5.480000E+03	1.057529E-15	4.340673E-17
5.490000E+03	1.062666E-15	4.370511E-17
5.500000E+03	1.066933E-15	4.396304E-17
5.510000E+03	1.070320E-15	4.417987E-17
5.520000E+03	1.072831E-15	4.435563E-17
5.530000E+03	1.074469E-15	4.449015E-17
5.540000E+03	1.075272E-15	4.458487E-17
5.550000E+03	1.075252E-15	4.464014E-17
5.560000E+03	1.074425E-15	4.465649E-17
5.570000E+03	1.072824E-15	4.463514E-17
5.580000E+03	1.070495E-15	4.457795E-17
5.590000E+03	1.067469E-15	4.448606E-17
5.600000E+03	1.063787E-15	4.436119E-17
5.610000E+03	1.059497E-15	4.420521E-17
5.620000E+03	1.054644E-15	4.402008E-17
5.630000E+03	1.049280E-15	4.380783E-17
5.640000E+03	1.043453E-15	4.357056E-17
5.650000E+03	1.037215E-15	4.331037E-17
5.660000E+03	1.030604E-15	4.302894E-17
5.670000E+03	1.023680E-15	4.272879E-17
5.680000E+03	1.016480E-15	4.241152E-17
5.690000E+03	1.009061E-15	4.207955E-17
5.700000E+03	1.001466E-15	4.173475E-17
5.710000E+03	9.937256E-16	4.137845E-17
5.720000E+03	9.858875E-16	4.101274E-17
5.730000E+03	9.779868E-16	4.063913E-17
5.740000E+03	9.700442E-16	4.025855E-17
5.750000E+03	9.620977E-16	3.987263E-17
5.760000E+03	9.541716E-16	3.948243E-17
5.770000E+03	9.462759E-16	3.908842E-17
5.780000E+03	9.384380E-16	3.869174E-17
5.790000E+03	9.306817E-16	3.829341E-17
5.800000E+03	9.229967E-16	3.789300E-17
5.810000E+03	9.154007E-16	3.749122E-17
5.820000E+03	9.079079E-16	3.708866E-17
5.830000E+03	9.005102E-16	3.668495E-17
5.840000E+03	8.932071E-16	3.628004E-17
5.850000E+03	8.860062E-16	3.587421E-17
5.860000E+03	8.789034E-16	3.546723E-17
5.870000E+03	8.718934E-16	3.505886E-17
5.880000E+03	8.649696E-16	3.464880E-17
5.890000E+03	8.581251E-16	3.423671E-17
5.900000E+03	8.513622E-16	3.382265E-17
5.910000E+03	8.446733E-16	3.340628E-17
5.920000E+03	8.380413E-16	3.298687E-17
5.930000E+03	8.314786E-16	3.256489E-17
5.940000E+03	8.249691E-16	3.213965E-17
5.950000E+03	8.185266E-16	3.171166E-17
5.960000E+03	8.121268E-16	3.127991E-17
5.970000E+03	8.057854E-16	3.084496E-17
5.980000E+03	7.994998E-16	3.040665E-17
5.990000E+03	7.932685E-16	2.996484E-17
6.000000E+03	7.871008E-16	2.951980E-17
6.010000E+03	7.809977E-16	2.907145E-17
6.020000E+03	7.749709E-16	2.862012E-17
6.030000E+03	7.690239E-16	2.816578E-17
6.040000E+03	7.631612E-16	2.770843E-17
6.050000E+03	7.574077E-16	2.724875E-17
6.060000E+03	7.517701E-16	2.678675E-17
6.070000E+03	7.462563E-16	2.632243E-17
6.080000E+03	7.408846E-16	2.585611E-17
6.090000E+03	7.356743E-16	2.538807E-17
6.100000E+03	7.306451E-16	2.491856E-17
6.110000E+03	7.258176E-16	2.444778E-17
6.120000E+03	7.212033E-16	2.397555E-17
6.130000E+03	7.168328E-16	2.350223E-17
6.140000E+03	7.127370E-16	2.302811E-17
6.150000E+03	7.089278E-16	2.255272E-17
6.160000E+03	7.054452E-16	2.207640E-17
6.170000E+03	7.023008E-16	2.159846E-17
6.180000E+03	6.994864E-16	2.111750E-17
6.190000E+03	6.969934E-16	2.063205E-17
6.200000E+03	6.948404E-16	2.014136E-17
6.210000E+03	6.930071E-16	1.964345E-17
6.220000E+03	6.915098E-16	1.913732E-17
6.230000E+03	6.903441E-16	1.862129E-17
6.240000E+03	6.895045E-16	1.809359E-17
6.250000E+03	6.890025E-16	1.755283E-17
6.260000E+03	6.888194E-16	1.699681E-17
6.270000E+03	6.889632E-16	1.642401E-17
6.280000E+03	6.894208E-16	1.583242E-17
6.290000E+03	6.901967E-16	1.522054E-17
6.300000E+03	6.912741E-16	1.458657E-17
6.310000E+03	6.926338E-16	1.392898E-17
6.320000E+03	6.942649E-16	1.324689E-17
6.330000E+03	6.961642E-16	1.254023E-17
6.340000E+03	6.982971E-16	1.180935E-17
6.350000E+03	7.006471E-16	1.105641E-17
6.360000E+03	7.031858E-16	1.028547E-17
6.370000E+03	7.058826E-16	9.503715E-18
6.380000E+03	7.087158E-16	8.722960E-18
6.390000E+03	7.116299E-16	7.961245E-18
6.400000E+03	7.146085E-16	7.246536E-18
6.410000E+03	7.176112E-16	6.618994E-18
6.420000E+03	7.206355E-16	6.132790E-18
6.430000E+03	7.236307E-16	5.849625E-18
6.440000E+03	7.265809E-16	5.821815E-18
6.450000E+03	7.294253E-16	6.062601E-18
6.460000E+03	7.321796E-16	6.536952E-18
6.470000E+03	7.347887E-16	7.187251E-18
6.480000E+03	7.372591E-16	7.956845E-18
6.490000E+03	7.395391E-16	8.799425E-18
6.500000E+03	7.416104E-16	9.681202E-18
6.510000E+03	7.434335E-16	1.057802E-17
6.520000E+03	7.449827E-16	1.147302E-17
6.530000E+03	7.462353E-16	1.235435E-17
6.540000E+03	7.471727E-16	1.321367E-17
6.550000E+03	7.477801E-16	1.404508E-17
6.560000E+03	7.480350E-16	1.484420E-17
6.570000E+03	7.479308E-16	1.560818E-17
6.580000E+03	7.474648E-16	1.633511E-17
6.590000E+03	7.466263E-16	1.702359E-17
6.600000E+03	7.454438E-16	1.767360E-17
6.610000E+03	7.438897E-16	1.828420E-17
6.620000E+03	7.419988E-16	1.885622E-17
6.630000E+03	7.397730E-16	1.938996E-17
6.640000E+03	7.372285E-16	1.988622E-17
6.650000E+03	7.343716E-16	2.034570E-17
6.660000E+03	7.312460E-16	2.077025E-17
6.670000E+03	7.278492E-16	2.116052E-17
6.680000E+03	7.242035E-16	2.151794E-17
6.690000E+03	7.203439E-16	2.184436E-17
6.700000E+03	7.162938E-16	2.214139E-17
6.710000E+03	7.120648E-16	2.241026E-17
6.720000E+03	7.076922E-16	2.265298E-17
6.730000E+03	7.031870E-16	2.287082E-17
6.740000E+03	6.985715E-16	2.306538E-17
6.750000E+03	6.938789E-16	2.323864E-17
6.760000E+03	6.891177E-16	2.339176E-17
6.770000E+03	6.843074E-16	2.352620E-17
6.780000E+03	6.794776E-16	2.364379E-17
6.790000E+03	6.746452E-16	2.374590E-17
6.800000E+03	6.698027E-16	2.383297E-17
6.810000E+03	6.649874E-16	2.390704E-17
6.820000E+03	6.602127E-16	2.396923E-17
6.830000E+03	6.554791E-16	2.402018E-17
6.840000E+03	6.508089E-16	2.406132E-17
6.850000E+03	6.462009E-16	2.409314E-17
6.860000E+03	6.416754E-16	2.411694E-17
6.870000E+03	6.372294E-16	2.413309E-17
6.880000E+03	6.328818E-16	2.414281E-17
6.890000E+03	6.286391E-16	2.414679E-17
6.900000E+03	6.244964E-16	2.414528E-17
6.910000E+03	6.204703E-16	2.413934E-17
6.920000E+03	6.165657E-16	2.412958E-17
6.930000E+03	6.127869E-16	2.411653E-17
6.940000E+03	6.091265E-16	2.410029E-17
6.950000E+03	6.056099E-16	2.408220E-17
6.960000E+03	6.022175E-16	2.406184E-17
6.970000E+03	5.989734E-16	2.404048E-17
6.980000E+03	5.958568E-16	2.401760E-17
6.990000E+03	5.928905E-16	2.399441E-17
7.000000E+03	5.900636E-16	2.397074E-17
7.010000E+03	5.873642E-16	2.394637E-17
7.020000E+03	5.848130E-16	2.392239E-17
7.030000E+03	5.824081E-16	2.389894E-17
7.040000E+03	5.801243E-16	2.387520E-17
7.050000E+03	5.779800E-16	2.385212E-17
7.060000E+03	5.759708E-16	2.382970E-17
7.070000E+03	5.740804E-16	2.380743E-17
7.080000E+03	5.723026E-16	2.378519E-17
7.090000E+03	5.706529E-16	2.376377E-17
7.100000E+03	5.691014E-16	2.374204E-17
7.110000E+03	5.676396E-16	2.371976E-17
7.120000E+03	5.662810E-16	2.369757E-17
7.130000E+03	5.650048E-16	2.367470E-17
7.140000E+03	5.637893E-16	2.365031E-17
7.150000E+03	5.626463E-16	2.362495E-17
7.160000E+03	5.615533E-16	2.359773E-17
7.170000E+03	5.605102E-16	2.356869E-17
7.180000E+03	5.594937E-16	2.353690E-17
7.190000E+03	5.584916E-16	2.350187E-17
7.200000E+03	5.575034E-16	2.346361E-17
7.210000E+03	5.565169E-16	2.342162E-17
7.220000E+03	5.555203E-16	2.337544E-17
7.230000E+03	5.545019E-16	2.332459E-17
7.240000E+03	5.534387E-16	2.326812E-17
7.250000E+03	5.523432E-16	2.320658E-17
7.260000E+03	5.511936E-16	2.313908E-17
7.270000E+03	5.499924E-16	2.306574E-17
7.280000E+03	5.487077E-16	2.298525E-17
7.290000E+03	5.473556E-16	2.289831E-17
7.300000E+03	5.459302E-16	2.280472E-17
7.310000E+03	5.444031E-16	2.270331E-17
7.320000E+03	5.427946E-16	2.259498E-17
7.330000E+03	5.410914E-16	2.247921E-17
7.340000E+03	5.392817E-16	2.235554E-17
7.350000E+03	5.373793E-16	2.222459E-17
7.360000E+03	5.353761E-16	2.208607E-17
7.370000E+03	5.332660E-16	2.193974E-17
7.380000E+03	5.310568E-16	2.178598E-17
7.390000E+03	5.287462E-16	2.162470E-17
7.400000E+03	5.263459E-16	2.145642E-17
7.410000E+03	5.238456E-16	2.128071E-17
7.420000E+03	5.212487E-16	2.109774E-17
7.430000E+03	5.185841E-16	2.090865E-17
7.440000E+03	5.158582E-16	2.071369E-17
7.450000E+03	5.131026E-16	2.051408E-17
7.460000E+03	5.103735E-16	2.031199E-17
7.470000E+03	5.076804E-16	2.010770E-17
7.480000E+03	5.050572E-16	1.990240E-17
7.490000E+03	5.025497E-16	1.969772E-17
7.500000E+03	5.001800E-16	1.949432E-17
7.510000E+03	4.979583E-16	1.929233E-17
7.520000E+03	4.959415E-16	1.909368E-17
7.530000E+03	4.941265E-16	1.889789E-17
7.540000E+03	4.925447E-16	1.870582E-17
7.550000E+03	4.912142E-16	1.851773E-17
7.560000E+03	4.901518E-16	1.833380E-17
7.570000E+03	4.893720E-16	1.815409E-17
7.580000E+03	4.888996E-16	1.797900E-17
7.590000E+03	4.887206E-16	1.780744E-17
7.600000E+03	4.888668E-16	1.763997E-17
7.610000E+03	4.893184E-16	1.747527E-17
7.620000E+03	4.901012E-16	1.731358E-17
7.630000E+03	4.911885E-16	1.715328E-17
7.640000E+03	4.925867E-16	1.699386E-17
7.650000E+03	4.942862E-16	1.683425E-17
7.660000E+03	4.962603E-16	1.667276E-17
7.670000E+03	4.985034E-16	1.650841E-17
7.680000E+03	5.009927E-16	1.633962E-17
7.690000E+03	5.037012E-16	1.616468E-17
7.700000E+03	5.065841E-16	1.598129E-17
7.710000E+03	5.096048E-16	1.578749E-17
7.720000E+03	5.127359E-16	1.558162E-17
7.730000E+03	5.159329E-16	1.536151E-17
7.740000E+03	5.191475E-16	1.512500E-17
7.750000E+03	5.223285E-16	1.486990E-17
7.760000E+03	5.254076E-16	1.459371E-17
