#wls	flux	fluxerr
1.600000E+03	3.440360E-17	1.399078E-17
1.640000E+03	3.325864E-17	1.335250E-17
1.680000E+03	3.213292E-17	1.273509E-17
1.720000E+03	3.102402E-17	1.213715E-17
1.760000E+03	2.994705E-17	1.156409E-17
1.800000E+03	2.889869E-17	1.101399E-17
1.840000E+03	2.788397E-17	1.048810E-17
1.880000E+03	2.690712E-17	9.987267E-18
1.920000E+03	2.597504E-17	9.513233E-18
1.960000E+03	2.508995E-17	9.065916E-18
2.000000E+03	2.425351E-17	8.644984E-18
2.040000E+03	2.346973E-17	8.250919E-18
2.080000E+03	2.274159E-17	7.883767E-18
2.120000E+03	2.207112E-17	7.543209E-18
2.160000E+03	2.146459E-17	7.230317E-18
2.200000E+03	2.091706E-17	6.942346E-18
2.240000E+03	2.043318E-17	6.679780E-18
2.280000E+03	2.000986E-17	6.440532E-18
2.320000E+03	1.965034E-17	6.224593E-18
2.360000E+03	1.934922E-17	6.029193E-18
2.400000E+03	1.910738E-17	5.853613E-18
2.440000E+03	1.892019E-17	5.695452E-18
2.480000E+03	1.878716E-17	5.553646E-18
2.520000E+03	1.870640E-17	5.426744E-18
2.560000E+03	1.867505E-17	5.313067E-18
2.600000E+03	1.869397E-17	5.212063E-18
2.640000E+03	1.876153E-17	5.122506E-18
2.680000E+03	1.888097E-17	5.044537E-18
2.720000E+03	1.905185E-17	4.977306E-18
2.760000E+03	1.927713E-17	4.920890E-18
2.800000E+03	1.955912E-17	4.875198E-18
2.840000E+03	1.990095E-17	4.840357E-18
2.880000E+03	2.030776E-17	4.816986E-18
2.920000E+03	2.078330E-17	4.805368E-18
2.960000E+03	2.134002E-17	4.807771E-18
3.000000E+03	2.199202E-17	4.826664E-18
3.010000E+03	2.217265E-17	4.834473E-18
3.020000E+03	2.235981E-17	4.843374E-18
3.030000E+03	2.255467E-17	4.853607E-18
3.040000E+03	2.275736E-17	4.865182E-18
3.050000E+03	2.296902E-17	4.878329E-18
3.060000E+03	2.318979E-17	4.893056E-18
3.070000E+03	2.341878E-17	4.909158E-18
3.080000E+03	2.365819E-17	4.927077E-18
3.090000E+03	2.390715E-17	4.946611E-18
3.100000E+03	2.416684E-17	4.967982E-18
3.110000E+03	2.443642E-17	4.990998E-18
3.120000E+03	2.471810E-17	5.016087E-18
3.130000E+03	2.501105E-17	5.043057E-18
3.140000E+03	2.531649E-17	5.072130E-18
3.150000E+03	2.563462E-17	5.103321E-18
3.160000E+03	2.596568E-17	5.136650E-18
3.170000E+03	2.631091E-17	5.172334E-18
3.180000E+03	2.667054E-17	5.210395E-18
3.190000E+03	2.704486E-17	5.250855E-18
3.200000E+03	2.743514E-17	5.293931E-18
3.210000E+03	2.784167E-17	5.339649E-18
3.220000E+03	2.826477E-17	5.388036E-18
3.230000E+03	2.870577E-17	5.439311E-18
3.240000E+03	2.916501E-17	5.493505E-18
3.250000E+03	2.964288E-17	5.550651E-18
3.260000E+03	3.014074E-17	5.610972E-18
3.270000E+03	3.066002E-17	5.674689E-18
3.280000E+03	3.120016E-17	5.741656E-18
3.290000E+03	3.176360E-17	5.812285E-18
3.300000E+03	3.234883E-17	5.886250E-18
3.310000E+03	3.295937E-17	5.964151E-18
3.320000E+03	3.359475E-17	6.045851E-18
3.330000E+03	3.425553E-17	6.131405E-18
3.340000E+03	3.494433E-17	6.221231E-18
3.350000E+03	3.566076E-17	6.315205E-18
3.360000E+03	3.640546E-17	6.413390E-18
3.370000E+03	3.718117E-17	6.516212E-18
3.380000E+03	3.798758E-17	6.623556E-18
3.390000E+03	3.882542E-17	6.735496E-18
3.400000E+03	3.969652E-17	6.852285E-18
3.410000E+03	4.060169E-17	6.974001E-18
3.420000E+03	4.154177E-17	7.100726E-18
3.430000E+03	4.251763E-17	7.232542E-18
3.440000E+03	4.352914E-17	7.369357E-18
3.450000E+03	4.457826E-17	7.511441E-18
3.460000E+03	4.566596E-17	7.658886E-18
3.470000E+03	4.679001E-17	7.811244E-18
3.480000E+03	4.795353E-17	7.968971E-18
3.490000E+03	4.915539E-17	8.131803E-18
3.500000E+03	5.039548E-17	8.299653E-18
3.510000E+03	5.167371E-17	8.472436E-18
3.520000E+03	5.298888E-17	8.649881E-18
3.530000E+03	5.434083E-17	8.831896E-18
3.540000E+03	5.572827E-17	9.018201E-18
3.550000E+03	5.715213E-17	9.208878E-18
3.560000E+03	5.861106E-17	9.403637E-18
3.570000E+03	6.010360E-17	9.602179E-18
3.580000E+03	6.162943E-17	9.804383E-18
3.590000E+03	6.318697E-17	1.000993E-17
3.600000E+03	6.477340E-17	1.021831E-17
3.610000E+03	6.638812E-17	1.042936E-17
3.620000E+03	6.802807E-17	1.064255E-17
3.630000E+03	6.969613E-17	1.085826E-17
3.640000E+03	7.138908E-17	1.107592E-17
3.650000E+03	7.310972E-17	1.129590E-17
3.660000E+03	7.485968E-17	1.151839E-17
3.670000E+03	7.663679E-17	1.174298E-17
3.680000E+03	7.844257E-17	1.196983E-17
3.690000E+03	8.027855E-17	1.219908E-17
3.700000E+03	8.214496E-17	1.243070E-17
3.710000E+03	8.404068E-17	1.266443E-17
3.720000E+03	8.596580E-17	1.290019E-17
3.730000E+03	8.792170E-17	1.313811E-17
3.740000E+03	8.990705E-17	1.337790E-17
3.750000E+03	9.192316E-17	1.361966E-17
3.760000E+03	9.396857E-17	1.386308E-17
3.770000E+03	9.604448E-17	1.410823E-17
3.780000E+03	9.814788E-17	1.435458E-17
3.790000E+03	1.002813E-16	1.460240E-17
3.800000E+03	1.024414E-16	1.485111E-17
3.810000E+03	1.046294E-16	1.510077E-17
3.820000E+03	1.068447E-16	1.535119E-17
3.830000E+03	1.090867E-16	1.560220E-17
3.840000E+03	1.113535E-16	1.585339E-17
3.850000E+03	1.136442E-16	1.610455E-17
3.860000E+03	1.159597E-16	1.635570E-17
3.870000E+03	1.182993E-16	1.660662E-17
3.880000E+03	1.206591E-16	1.685666E-17
3.890000E+03	1.230413E-16	1.710601E-17
3.900000E+03	1.254436E-16	1.735422E-17
3.910000E+03	1.278649E-16	1.760107E-17
3.920000E+03	1.303045E-16	1.784631E-17
3.930000E+03	1.327629E-16	1.808992E-17
3.940000E+03	1.352362E-16	1.833122E-17
3.950000E+03	1.377249E-16	1.857018E-17
3.960000E+03	1.402298E-16	1.880679E-17
3.970000E+03	1.427468E-16	1.904037E-17
3.980000E+03	1.452784E-16	1.927112E-17
3.990000E+03	1.478204E-16	1.949837E-17
4.000000E+03	1.503755E-16	1.972235E-17
4.010000E+03	1.529396E-16	1.994237E-17
4.020000E+03	1.555155E-16	2.015869E-17
4.030000E+03	1.580992E-16	2.037064E-17
4.040000E+03	1.606939E-16	2.057848E-17
4.050000E+03	1.632973E-16	2.078178E-17
4.060000E+03	1.659073E-16	2.098014E-17
4.070000E+03	1.685275E-16	2.117383E-17
4.080000E+03	1.711559E-16	2.136247E-17
4.090000E+03	1.737906E-16	2.154564E-17
4.100000E+03	1.764336E-16	2.172343E-17
4.110000E+03	1.790871E-16	2.189593E-17
4.120000E+03	1.817455E-16	2.206227E-17
4.130000E+03	1.844151E-16	2.222304E-17
4.140000E+03	1.870925E-16	2.237761E-17
4.150000E+03	1.897781E-16	2.252584E-17
4.160000E+03	1.924725E-16	2.266761E-17
4.170000E+03	1.951765E-16	2.280276E-17
4.180000E+03	1.978886E-16	2.293093E-17
4.190000E+03	2.006118E-16	2.305219E-17
4.200000E+03	2.033426E-16	2.316593E-17
4.210000E+03	2.060839E-16	2.327221E-17
4.220000E+03	2.088321E-16	2.337039E-17
4.230000E+03	2.115881E-16	2.346029E-17
4.240000E+03	2.143525E-16	2.354172E-17
4.250000E+03	2.171215E-16	2.361399E-17
4.260000E+03	2.198957E-16	2.367687E-17
4.270000E+03	2.226733E-16	2.372990E-17
4.280000E+03	2.254523E-16	2.377258E-17
4.290000E+03	2.282306E-16	2.380440E-17
4.300000E+03	2.310037E-16	2.382461E-17
4.310000E+03	2.337712E-16	2.383290E-17
4.320000E+03	2.365259E-16	2.382823E-17
4.330000E+03	2.392693E-16	2.381052E-17
4.340000E+03	2.419936E-16	2.377871E-17
4.350000E+03	2.446976E-16	2.373244E-17
4.360000E+03	2.473775E-16	2.367110E-17
4.370000E+03	2.500293E-16	2.359408E-17
4.380000E+03	2.526561E-16	2.350144E-17
4.390000E+03	2.552535E-16	2.339255E-17
4.400000E+03	2.578294E-16	2.326791E-17
4.410000E+03	2.603867E-16	2.312754E-17
4.420000E+03	2.629285E-16	2.297143E-17
4.430000E+03	2.654603E-16	2.279980E-17
4.440000E+03	2.679851E-16	2.261262E-17
4.450000E+03	2.705061E-16	2.240985E-17
4.460000E+03	2.730265E-16	2.219144E-17
4.470000E+03	2.755494E-16	2.195732E-17
4.480000E+03	2.780755E-16	2.170722E-17
4.490000E+03	2.806081E-16	2.144108E-17
4.500000E+03	2.831481E-16	2.115863E-17
4.510000E+03	2.856962E-16	2.085961E-17
4.520000E+03	2.882533E-16	2.054380E-17
4.530000E+03	2.908176E-16	2.021078E-17
4.540000E+03	2.933901E-16	1.986038E-17
4.550000E+03	2.959720E-16	1.949246E-17
4.560000E+03	2.985590E-16	1.910658E-17
4.570000E+03	3.011523E-16	1.870271E-17
4.580000E+03	3.037507E-16	1.828072E-17
4.590000E+03	3.063501E-16	1.784041E-17
4.600000E+03	3.089523E-16	1.738204E-17
4.610000E+03	3.115504E-16	1.690548E-17
4.620000E+03	3.141467E-16	1.641128E-17
4.630000E+03	3.167375E-16	1.589984E-17
4.640000E+03	3.193162E-16	1.537164E-17
4.650000E+03	3.218857E-16	1.482793E-17
4.660000E+03	3.244333E-16	1.426956E-17
4.670000E+03	3.269620E-16	1.369852E-17
4.680000E+03	3.294624E-16	1.311680E-17
4.690000E+03	3.319283E-16	1.252719E-17
4.700000E+03	3.343534E-16	1.193334E-17
4.710000E+03	3.367281E-16	1.133983E-17
4.720000E+03	3.390492E-16	1.075278E-17
4.730000E+03	3.413201E-16	1.018007E-17
4.740000E+03	3.435411E-16	9.631394E-18
4.750000E+03	3.457156E-16	9.118761E-18
4.760000E+03	3.478542E-16	8.656766E-18
4.770000E+03	3.499540E-16	8.261965E-18
4.780000E+03	3.520258E-16	7.952845E-18
4.790000E+03	3.540704E-16	7.747641E-18
4.800000E+03	3.560922E-16	7.662165E-18
4.810000E+03	3.580993E-16	7.706876E-18
4.820000E+03	3.600982E-16	7.883696E-18
4.830000E+03	3.620940E-16	8.185916E-18
4.840000E+03	3.640953E-16	8.601143E-18
4.850000E+03	3.661074E-16	9.113924E-18
4.860000E+03	3.681391E-16	9.708393E-18
4.870000E+03	3.701992E-16	1.036984E-17
4.880000E+03	3.722930E-16	1.108539E-17
4.890000E+03	3.744289E-16	1.184445E-17
4.900000E+03	3.766084E-16	1.263816E-17
4.910000E+03	3.788395E-16	1.345967E-17
4.920000E+03	3.811268E-16	1.430342E-17
4.930000E+03	3.834745E-16	1.516503E-17
4.940000E+03	3.858902E-16	1.604120E-17
4.950000E+03	3.883739E-16	1.692907E-17
4.960000E+03	3.909293E-16	1.782648E-17
4.970000E+03	3.935670E-16	1.873212E-17
4.980000E+03	3.962827E-16	1.964434E-17
4.990000E+03	3.990790E-16	2.056212E-17
5.000000E+03	4.019662E-16	2.148508E-17
5.010000E+03	4.049349E-16	2.241200E-17
5.020000E+03	4.079989E-16	2.334306E-17
5.030000E+03	4.111520E-16	2.427751E-17
5.040000E+03	4.143957E-16	2.521505E-17
5.050000E+03	4.177351E-16	2.615577E-17
5.060000E+03	4.211712E-16	2.709952E-17
5.070000E+03	4.247003E-16	2.804594E-17
5.080000E+03	4.283228E-16	2.899494E-17
5.090000E+03	4.320384E-16	2.994643E-17
5.100000E+03	4.358465E-16	3.090032E-17
5.110000E+03	4.397508E-16	3.185681E-17
5.120000E+03	4.437413E-16	3.281518E-17
5.130000E+03	4.478251E-16	3.377591E-17
5.140000E+03	4.519915E-16	3.473819E-17
5.150000E+03	4.562381E-16	3.570178E-17
5.160000E+03	4.605709E-16	3.666711E-17
5.170000E+03	4.649732E-16	3.763283E-17
5.180000E+03	4.694504E-16	3.859927E-17
5.190000E+03	4.739939E-16	3.956568E-17
5.200000E+03	4.786039E-16	4.053197E-17
5.210000E+03	4.832661E-16	4.149682E-17
5.220000E+03	4.879798E-16	4.246004E-17
5.230000E+03	4.927394E-16	4.342100E-17
5.240000E+03	4.975340E-16	4.437855E-17
5.250000E+03	5.023571E-16	4.533192E-17
5.260000E+03	5.072067E-16	4.628072E-17
5.270000E+03	5.120707E-16	4.722364E-17
5.280000E+03	5.169418E-16	4.815973E-17
5.290000E+03	5.218071E-16	4.908752E-17
5.300000E+03	5.266637E-16	5.000646E-17
5.310000E+03	5.314982E-16	5.091497E-17
5.320000E+03	5.363075E-16	5.181243E-17
5.330000E+03	5.410725E-16	5.269667E-17
5.340000E+03	5.457898E-16	5.356702E-17
5.350000E+03	5.504509E-16	5.442226E-17
5.360000E+03	5.550416E-16	5.526065E-17
5.370000E+03	5.595587E-16	5.608149E-17
5.380000E+03	5.639827E-16	5.688243E-17
5.390000E+03	5.683105E-16	5.766280E-17
5.400000E+03	5.725340E-16	5.842137E-17
5.410000E+03	5.766337E-16	5.915578E-17
5.420000E+03	5.806132E-16	5.986601E-17
5.430000E+03	5.844535E-16	6.054971E-17
5.440000E+03	5.881473E-16	6.120578E-17
5.450000E+03	5.916878E-16	6.183311E-17
5.460000E+03	5.950628E-16	6.243008E-17
5.470000E+03	5.982603E-16	6.299507E-17
5.480000E+03	6.012746E-16	6.352717E-17
5.490000E+03	6.041069E-16	6.402615E-17
5.500000E+03	6.067528E-16	6.449126E-17
5.510000E+03	6.092025E-16	6.492118E-17
5.520000E+03	6.114651E-16	6.531661E-17
5.530000E+03	6.135381E-16	6.567706E-17
5.540000E+03	6.154073E-16	6.600080E-17
5.550000E+03	6.170900E-16	6.628948E-17
5.560000E+03	6.185732E-16	6.654153E-17
5.570000E+03	6.198568E-16	6.675680E-17
5.580000E+03	6.209538E-16	6.693656E-17
5.590000E+03	6.218527E-16	6.707948E-17
5.600000E+03	6.225615E-16	6.718631E-17
5.610000E+03	6.230823E-16	6.725724E-17
5.620000E+03	6.234177E-16	6.729249E-17
5.630000E+03	6.235771E-16	6.729307E-17
5.640000E+03	6.235578E-16	6.725866E-17
5.650000E+03	6.233634E-16	6.718969E-17
5.660000E+03	6.230048E-16	6.708735E-17
5.670000E+03	6.224800E-16	6.695146E-17
5.680000E+03	6.218002E-16	6.678330E-17
5.690000E+03	6.209705E-16	6.658350E-17
5.700000E+03	6.199962E-16	6.635270E-17
5.710000E+03	6.188827E-16	6.609157E-17
5.720000E+03	6.176357E-16	6.580083E-17
5.730000E+03	6.162672E-16	6.548187E-17
5.740000E+03	6.147765E-16	6.513475E-17
5.750000E+03	6.131694E-16	6.476020E-17
5.760000E+03	6.114583E-16	6.435965E-17
5.770000E+03	6.096424E-16	6.393317E-17
5.780000E+03	6.077404E-16	6.348286E-17
5.790000E+03	6.057516E-16	6.300876E-17
5.800000E+03	6.036752E-16	6.251093E-17
5.810000E+03	6.015296E-16	6.199142E-17
5.820000E+03	5.993202E-16	6.145091E-17
5.830000E+03	5.970394E-16	6.088876E-17
5.840000E+03	5.947119E-16	6.030759E-17
5.850000E+03	5.923297E-16	5.970673E-17
5.860000E+03	5.899106E-16	5.908807E-17
5.870000E+03	5.874464E-16	5.845090E-17
5.880000E+03	5.849547E-16	5.779706E-17
5.890000E+03	5.824335E-16	5.712643E-17
5.900000E+03	5.798933E-16	5.644013E-17
5.910000E+03	5.773384E-16	5.573863E-17
5.920000E+03	5.747662E-16	5.502175E-17
5.930000E+03	5.721934E-16	5.429111E-17
5.940000E+03	5.696171E-16	5.354648E-17
5.950000E+03	5.670408E-16	5.278820E-17
5.960000E+03	5.644743E-16	5.201718E-17
5.970000E+03	5.619143E-16	5.123311E-17
5.980000E+03	5.593766E-16	5.043740E-17
5.990000E+03	5.568513E-16	4.962912E-17
6.000000E+03	5.543539E-16	4.880960E-17
6.010000E+03	5.518805E-16	4.797843E-17
6.020000E+03	5.494400E-16	4.713628E-17
6.030000E+03	5.470284E-16	4.628272E-17
6.040000E+03	5.446541E-16	4.541834E-17
6.050000E+03	5.423192E-16	4.454319E-17
6.060000E+03	5.400192E-16	4.365677E-17
6.070000E+03	5.377686E-16	4.276009E-17
6.080000E+03	5.355626E-16	4.185259E-17
6.090000E+03	5.333965E-16	4.093374E-17
6.100000E+03	5.312842E-16	4.000443E-17
6.110000E+03	5.292142E-16	3.906360E-17
6.120000E+03	5.271878E-16	3.811117E-17
6.130000E+03	5.252058E-16	3.714702E-17
6.140000E+03	5.232626E-16	3.617061E-17
6.150000E+03	5.213527E-16	3.518141E-17
6.160000E+03	5.194640E-16	3.417853E-17
6.170000E+03	5.175779E-16	3.316074E-17
6.180000E+03	5.156945E-16	3.212815E-17
6.190000E+03	5.138387E-16	3.108237E-17
6.200000E+03	5.120040E-16	3.002302E-17
6.210000E+03	5.102149E-16	2.895156E-17
6.220000E+03	5.084645E-16	2.786757E-17
6.230000E+03	5.067644E-16	2.677171E-17
6.240000E+03	5.051198E-16	2.566427E-17
6.250000E+03	5.035170E-16	2.454461E-17
6.260000E+03	5.019734E-16	2.341375E-17
6.270000E+03	5.004810E-16	2.227152E-17
6.280000E+03	4.990317E-16	2.111792E-17
6.290000E+03	4.976360E-16	1.995395E-17
6.300000E+03	4.962854E-16	1.877998E-17
6.310000E+03	4.949775E-16	1.759698E-17
6.320000E+03	4.937158E-16	1.640649E-17
6.330000E+03	4.924911E-16	1.521020E-17
6.340000E+03	4.913003E-16	1.401079E-17
6.350000E+03	4.901462E-16	1.281225E-17
6.360000E+03	4.890190E-16	1.161992E-17
6.370000E+03	4.879273E-16	1.044218E-17
6.380000E+03	4.868544E-16	9.290912E-18
6.390000E+03	4.858022E-16	8.184972E-18
6.400000E+03	4.847726E-16	7.153805E-18
6.410000E+03	4.837609E-16	6.243388E-18
6.420000E+03	4.827624E-16	5.522630E-18
6.430000E+03	4.817727E-16	5.080626E-18
6.440000E+03	4.807810E-16	4.996843E-18
6.450000E+03	4.797846E-16	5.285955E-18
6.460000E+03	4.787699E-16	5.882424E-18
6.470000E+03	4.777430E-16	6.692656E-18
6.480000E+03	4.766911E-16	7.636847E-18
6.490000E+03	4.756141E-16	8.659874E-18
6.500000E+03	4.745059E-16	9.726144E-18
6.510000E+03	4.733664E-16	1.081303E-17
6.520000E+03	4.721891E-16	1.190572E-17
6.530000E+03	4.709805E-16	1.299461E-17
6.540000E+03	4.697339E-16	1.407284E-17
6.550000E+03	4.684492E-16	1.513572E-17
6.560000E+03	4.671264E-16	1.617984E-17
6.570000E+03	4.657589E-16	1.720250E-17
6.580000E+03	4.643598E-16	1.820232E-17
6.590000E+03	4.629225E-16	1.917768E-17
6.600000E+03	4.614474E-16	2.012755E-17
6.610000E+03	4.599348E-16	2.105116E-17
6.620000E+03	4.583916E-16	2.194823E-17
6.630000E+03	4.568119E-16	2.281809E-17
6.640000E+03	4.552095E-16	2.366112E-17
6.650000E+03	4.535656E-16	2.447618E-17
6.660000E+03	4.519009E-16	2.526426E-17
6.670000E+03	4.502098E-16	2.602506E-17
6.680000E+03	4.484937E-16	2.675870E-17
6.690000E+03	4.467604E-16	2.746576E-17
6.700000E+03	4.450048E-16	2.814608E-17
6.710000E+03	4.432350E-16	2.880038E-17
6.720000E+03	4.414461E-16	2.942856E-17
6.730000E+03	4.396464E-16	3.003143E-17
6.740000E+03	4.378443E-16	3.060987E-17
6.750000E+03	4.360282E-16	3.116343E-17
6.760000E+03	4.342068E-16	3.169302E-17
6.770000E+03	4.323819E-16	3.219914E-17
6.780000E+03	4.305618E-16	3.268280E-17
6.790000E+03	4.287421E-16	3.314406E-17
6.800000E+03	4.269244E-16	3.358343E-17
6.810000E+03	4.251107E-16	3.400148E-17
6.820000E+03	4.233094E-16	3.439929E-17
6.830000E+03	4.215222E-16	3.477744E-17
6.840000E+03	4.197443E-16	3.513595E-17
6.850000E+03	4.179774E-16	3.547537E-17
6.860000E+03	4.162296E-16	3.579682E-17
6.870000E+03	4.145024E-16	3.610087E-17
6.880000E+03	4.127908E-16	3.638748E-17
6.890000E+03	4.111025E-16	3.665776E-17
6.900000E+03	4.094390E-16	3.691224E-17
6.910000E+03	4.077947E-16	3.715084E-17
6.920000E+03	4.061773E-16	3.737463E-17
6.930000E+03	4.045811E-16	3.758350E-17
6.940000E+03	4.030137E-16	3.777849E-17
6.950000E+03	4.014757E-16	3.796007E-17
6.960000E+03	3.999678E-16	3.812863E-17
6.970000E+03	3.984838E-16	3.828397E-17
6.980000E+03	3.970309E-16	3.842707E-17
6.990000E+03	3.956027E-16	3.855766E-17
7.000000E+03	3.942060E-16	3.867671E-17
7.010000E+03	3.928410E-16	3.878453E-17
7.020000E+03	3.915076E-16	3.888141E-17
7.030000E+03	3.901991E-16	3.896697E-17
7.040000E+03	3.889220E-16	3.904210E-17
7.050000E+03	3.876694E-16	3.910637E-17
7.060000E+03	3.864541E-16	3.916131E-17
7.070000E+03	3.852625E-16	3.920577E-17
7.080000E+03	3.840941E-16	3.923989E-17
7.090000E+03	3.829549E-16	3.926451E-17
7.100000E+03	3.818443E-16	3.927975E-17
7.110000E+03	3.807616E-16	3.928573E-17
7.120000E+03	3.796995E-16	3.928183E-17
7.130000E+03	3.786638E-16	3.926883E-17
7.140000E+03	3.776538E-16	3.924680E-17
7.150000E+03	3.766618E-16	3.921507E-17
7.160000E+03	3.757007E-16	3.917509E-17
7.170000E+03	3.747559E-16	3.912548E-17
7.180000E+03	3.738334E-16	3.906696E-17
7.190000E+03	3.729325E-16	3.899953E-17
7.200000E+03	3.720591E-16	3.892391E-17
7.210000E+03	3.712056E-16	3.883937E-17
7.220000E+03	3.703712E-16	3.874591E-17
7.230000E+03	3.695551E-16	3.864349E-17
7.240000E+03	3.687637E-16	3.853281E-17
7.250000E+03	3.679963E-16	3.841386E-17
7.260000E+03	3.672522E-16	3.828658E-17
7.270000E+03	3.665311E-16	3.815096E-17
7.280000E+03	3.658323E-16	3.800695E-17
7.290000E+03	3.651626E-16	3.785524E-17
7.300000E+03	3.645216E-16	3.769578E-17
7.310000E+03	3.639091E-16	3.752853E-17
7.320000E+03	3.633249E-16	3.735343E-17
7.330000E+03	3.627830E-16	3.717188E-17
7.340000E+03	3.622693E-16	3.698237E-17
7.350000E+03	3.617908E-16	3.678555E-17
7.360000E+03	3.613548E-16	3.658208E-17
7.370000E+03	3.609614E-16	3.637186E-17
7.380000E+03	3.606109E-16	3.615481E-17
7.390000E+03	3.603033E-16	3.593081E-17
7.400000E+03	3.600390E-16	3.569975E-17
7.410000E+03	3.598255E-16	3.546221E-17
7.420000E+03	3.596484E-16	3.521661E-17
7.430000E+03	3.595152E-16	3.496352E-17
7.440000E+03	3.594186E-16	3.470204E-17
7.450000E+03	3.593736E-16	3.443340E-17
7.460000E+03	3.593653E-16	3.415598E-17
7.470000E+03	3.593938E-16	3.386956E-17
7.480000E+03	3.594662E-16	3.357459E-17
7.490000E+03	3.595674E-16	3.326942E-17
7.500000E+03	3.597118E-16	3.295516E-17
7.510000E+03	3.598765E-16	3.262943E-17
7.520000E+03	3.600756E-16	3.229332E-17
7.530000E+03	3.603006E-16	3.194580E-17
7.540000E+03	3.605353E-16	3.158520E-17
7.550000E+03	3.607934E-16	3.121251E-17
7.560000E+03	3.610657E-16	3.082671E-17
7.570000E+03	3.613504E-16	3.042741E-17
7.580000E+03	3.616376E-16	3.001360E-17
7.590000E+03	3.619251E-16	2.958490E-17
7.600000E+03	3.622102E-16	2.914094E-17
7.610000E+03	3.624978E-16	2.868195E-17
7.620000E+03	3.627616E-16	2.820573E-17
7.630000E+03	3.630215E-16	2.771374E-17
7.640000E+03	3.632583E-16	2.720442E-17
7.650000E+03	3.634762E-16	2.667806E-17
7.660000E+03	3.636633E-16	2.613376E-17
7.670000E+03	3.638151E-16	2.557127E-17
7.680000E+03	3.639354E-16	2.499092E-17
7.690000E+03	3.640116E-16	2.439198E-17
7.700000E+03	3.640390E-16	2.377431E-17
7.710000E+03	3.640207E-16	2.313839E-17
7.720000E+03	3.639439E-16	2.248368E-17
7.730000E+03	3.638036E-16	2.181027E-17
7.740000E+03	3.635948E-16	2.111835E-17
7.750000E+03	3.633206E-16	2.040865E-17
7.760000E+03	3.629680E-16	1.968108E-17
