#wls	flux	fluxerr
1.600000E+03	1.987950E-17	8.930809E-18
1.640000E+03	1.918018E-17	8.528927E-18
1.680000E+03	1.849705E-17	8.140705E-18
1.720000E+03	1.783105E-17	7.766296E-18
1.760000E+03	1.718304E-17	7.405798E-18
1.800000E+03	1.655900E-17	7.061471E-18
1.840000E+03	1.595646E-17	6.731908E-18
1.880000E+03	1.538286E-17	6.419866E-18
1.920000E+03	1.483522E-17	6.123681E-18
1.960000E+03	1.431532E-17	5.843675E-18
2.000000E+03	1.382864E-17	5.581640E-18
2.040000E+03	1.337562E-17	5.337255E-18
2.080000E+03	1.295455E-17	5.109346E-18
2.120000E+03	1.256742E-17	4.898218E-18
2.160000E+03	1.221739E-17	4.704592E-18
2.200000E+03	1.190362E-17	4.527605E-18
2.240000E+03	1.162212E-17	4.365226E-18
2.280000E+03	1.137535E-17	4.217909E-18
2.320000E+03	1.115960E-17	4.083784E-18
2.360000E+03	1.097304E-17	3.961744E-18
2.400000E+03	1.081672E-17	3.851749E-18
2.440000E+03	1.068655E-17	3.751928E-18
2.480000E+03	1.058274E-17	3.661988E-18
2.520000E+03	1.050442E-17	3.581265E-18
2.560000E+03	1.045098E-17	3.509213E-18
2.600000E+03	1.042210E-17	3.445393E-18
2.640000E+03	1.041874E-17	3.389804E-18
2.680000E+03	1.044198E-17	3.342475E-18
2.720000E+03	1.049118E-17	3.302869E-18
2.760000E+03	1.056886E-17	3.271474E-18
2.800000E+03	1.067678E-17	3.248492E-18
2.840000E+03	1.081603E-17	3.233912E-18
2.880000E+03	1.098722E-17	3.227574E-18
2.920000E+03	1.119054E-17	3.229212E-18
2.960000E+03	1.143004E-17	3.239657E-18
3.000000E+03	1.170756E-17	3.259073E-18
3.010000E+03	1.178382E-17	3.265548E-18
3.020000E+03	1.186325E-17	3.272773E-18
3.030000E+03	1.194511E-17	3.280533E-18
3.040000E+03	1.203025E-17	3.289059E-18
3.050000E+03	1.211872E-17	3.298357E-18
3.060000E+03	1.220978E-17	3.308216E-18
3.070000E+03	1.230511E-17	3.319080E-18
3.080000E+03	1.240314E-17	3.330523E-18
3.090000E+03	1.250556E-17	3.342985E-18
3.100000E+03	1.261083E-17	3.356044E-18
3.110000E+03	1.272061E-17	3.370137E-18
3.120000E+03	1.283497E-17	3.385269E-18
3.130000E+03	1.295319E-17	3.401237E-18
3.140000E+03	1.307534E-17	3.418053E-18
3.150000E+03	1.320231E-17	3.435933E-18
3.160000E+03	1.333417E-17	3.454887E-18
3.170000E+03	1.347100E-17	3.474923E-18
3.180000E+03	1.361290E-17	3.496050E-18
3.190000E+03	1.375997E-17	3.518280E-18
3.200000E+03	1.391228E-17	3.541623E-18
3.210000E+03	1.407075E-17	3.566292E-18
3.220000E+03	1.423469E-17	3.592096E-18
3.230000E+03	1.440578E-17	3.619448E-18
3.240000E+03	1.458256E-17	3.647959E-18
3.250000E+03	1.476675E-17	3.678041E-18
3.260000E+03	1.495686E-17	3.709309E-18
3.270000E+03	1.515543E-17	3.742372E-18
3.280000E+03	1.536101E-17	3.776846E-18
3.290000E+03	1.557453E-17	3.812945E-18
3.300000E+03	1.579614E-17	3.850684E-18
3.310000E+03	1.602682E-17	3.890275E-18
3.320000E+03	1.626592E-17	3.931537E-18
3.330000E+03	1.651443E-17	3.974685E-18
3.340000E+03	1.677334E-17	4.019933E-18
3.350000E+03	1.704205E-17	4.067103E-18
3.360000E+03	1.732156E-17	4.116411E-18
3.370000E+03	1.761210E-17	4.167879E-18
3.380000E+03	1.791471E-17	4.221722E-18
3.390000E+03	1.822965E-17	4.277964E-18
3.400000E+03	1.855716E-17	4.336629E-18
3.410000E+03	1.889834E-17	4.397939E-18
3.420000E+03	1.925348E-17	4.461919E-18
3.430000E+03	1.962372E-17	4.528794E-18
3.440000E+03	2.000937E-17	4.598593E-18
3.450000E+03	2.041161E-17	4.671544E-18
3.460000E+03	2.083167E-17	4.747876E-18
3.470000E+03	2.126992E-17	4.827624E-18
3.480000E+03	2.172764E-17	4.911022E-18
3.490000E+03	2.220523E-17	4.998109E-18
3.500000E+03	2.270491E-17	5.089322E-18
3.510000E+03	2.322715E-17	5.184705E-18
3.520000E+03	2.377337E-17	5.284503E-18
3.530000E+03	2.434408E-17	5.388765E-18
3.540000E+03	2.494076E-17	5.497741E-18
3.550000E+03	2.556309E-17	5.611284E-18
3.560000E+03	2.621257E-17	5.729649E-18
3.570000E+03	2.688798E-17	5.852488E-18
3.580000E+03	2.758992E-17	5.979854E-18
3.590000E+03	2.831808E-17	6.111597E-18
3.600000E+03	2.907401E-17	6.247972E-18
3.610000E+03	2.985551E-17	6.388421E-18
3.620000E+03	3.066509E-17	6.533398E-18
3.630000E+03	3.150049E-17	6.682336E-18
3.640000E+03	3.236329E-17	6.835483E-18
3.650000E+03	3.325215E-17	6.992469E-18
3.660000E+03	3.416766E-17	7.153328E-18
3.670000E+03	3.510940E-17	7.317885E-18
3.680000E+03	3.607897E-17	7.486380E-18
3.690000E+03	3.707391E-17	7.658210E-18
3.700000E+03	3.809580E-17	7.833604E-18
3.710000E+03	3.914414E-17	8.012368E-18
3.720000E+03	4.021845E-17	8.194300E-18
3.730000E+03	4.131923E-17	8.379407E-18
3.740000E+03	4.244699E-17	8.567688E-18
3.750000E+03	4.360118E-17	8.758927E-18
3.760000E+03	4.478119E-17	8.952895E-18
3.770000E+03	4.598747E-17	9.149577E-18
3.780000E+03	4.722159E-17	9.349172E-18
3.790000E+03	4.848066E-17	9.550994E-18
3.800000E+03	4.976621E-17	9.755230E-18
3.810000E+03	5.107863E-17	9.961841E-18
3.820000E+03	5.241719E-17	1.017056E-17
3.830000E+03	5.378225E-17	1.038134E-17
3.840000E+03	5.517301E-17	1.059389E-17
3.850000E+03	5.658979E-17	1.080815E-17
3.860000E+03	5.803171E-17	1.102382E-17
3.870000E+03	5.950027E-17	1.124106E-17
3.880000E+03	6.099333E-17	1.145932E-17
3.890000E+03	6.251237E-17	1.167875E-17
3.900000E+03	6.405640E-17	1.189901E-17
3.910000E+03	6.562564E-17	1.212001E-17
3.920000E+03	6.721905E-17	1.234140E-17
3.930000E+03	6.883680E-17	1.256307E-17
3.940000E+03	7.047776E-17	1.278467E-17
3.950000E+03	7.214339E-17	1.300629E-17
3.960000E+03	7.383119E-17	1.322735E-17
3.970000E+03	7.554395E-17	1.344817E-17
3.980000E+03	7.727774E-17	1.366789E-17
3.990000E+03	7.903399E-17	1.388661E-17
4.000000E+03	8.081139E-17	1.410392E-17
4.010000E+03	8.260997E-17	1.431968E-17
4.020000E+03	8.442978E-17	1.453370E-17
4.030000E+03	8.627085E-17	1.474583E-17
4.040000E+03	8.813033E-17	1.495540E-17
4.050000E+03	9.000962E-17	1.516246E-17
4.060000E+03	9.190725E-17	1.536660E-17
4.070000E+03	9.382316E-17	1.556762E-17
4.080000E+03	9.575580E-17	1.576508E-17
4.090000E+03	9.770659E-17	1.595903E-17
4.100000E+03	9.967241E-17	1.614876E-17
4.110000E+03	1.016547E-16	1.633433E-17
4.120000E+03	1.036517E-16	1.651526E-17
4.130000E+03	1.056617E-16	1.669110E-17
4.140000E+03	1.076862E-16	1.686187E-17
4.150000E+03	1.097250E-16	1.702735E-17
4.160000E+03	1.117747E-16	1.718681E-17
4.170000E+03	1.138349E-16	1.734001E-17
4.180000E+03	1.159072E-16	1.748699E-17
4.190000E+03	1.179895E-16	1.762724E-17
4.200000E+03	1.200816E-16	1.776053E-17
4.210000E+03	1.221833E-16	1.788661E-17
4.220000E+03	1.242924E-16	1.800498E-17
4.230000E+03	1.264103E-16	1.811565E-17
4.240000E+03	1.285367E-16	1.821835E-17
4.250000E+03	1.306696E-16	1.831259E-17
4.260000E+03	1.328083E-16	1.839811E-17
4.270000E+03	1.349543E-16	1.847489E-17
4.280000E+03	1.371091E-16	1.854292E-17
4.290000E+03	1.392704E-16	1.860169E-17
4.300000E+03	1.414377E-16	1.865093E-17
4.310000E+03	1.436162E-16	1.869111E-17
4.320000E+03	1.458018E-16	1.872147E-17
4.330000E+03	1.479997E-16	1.874246E-17
4.340000E+03	1.502096E-16	1.875381E-17
4.350000E+03	1.524351E-16	1.875573E-17
4.360000E+03	1.546759E-16	1.874791E-17
4.370000E+03	1.569377E-16	1.873080E-17
4.380000E+03	1.592203E-16	1.870410E-17
4.390000E+03	1.615296E-16	1.866821E-17
4.400000E+03	1.638698E-16	1.862329E-17
4.410000E+03	1.662429E-16	1.856926E-17
4.420000E+03	1.686513E-16	1.850602E-17
4.430000E+03	1.710991E-16	1.843369E-17
4.440000E+03	1.735823E-16	1.835150E-17
4.450000E+03	1.761011E-16	1.825911E-17
4.460000E+03	1.786554E-16	1.815622E-17
4.470000E+03	1.812452E-16	1.804254E-17
4.480000E+03	1.838661E-16	1.791734E-17
4.490000E+03	1.865179E-16	1.778038E-17
4.500000E+03	1.891982E-16	1.763123E-17
4.510000E+03	1.919043E-16	1.746951E-17
4.520000E+03	1.946383E-16	1.729528E-17
4.530000E+03	1.973905E-16	1.710765E-17
4.540000E+03	2.001651E-16	1.690700E-17
4.550000E+03	2.029544E-16	1.669279E-17
4.560000E+03	2.057602E-16	1.646535E-17
4.570000E+03	2.085771E-16	1.622453E-17
4.580000E+03	2.114018E-16	1.597048E-17
4.590000E+03	2.142311E-16	1.570349E-17
4.600000E+03	2.170642E-16	1.542418E-17
4.610000E+03	2.198976E-16	1.513315E-17
4.620000E+03	2.227255E-16	1.483101E-17
4.630000E+03	2.255493E-16	1.451911E-17
4.640000E+03	2.283631E-16	1.419855E-17
4.650000E+03	2.311631E-16	1.387088E-17
4.660000E+03	2.339485E-16	1.353810E-17
4.670000E+03	2.367155E-16	1.320244E-17
4.680000E+03	2.394659E-16	1.286680E-17
4.690000E+03	2.421934E-16	1.253408E-17
4.700000E+03	2.448997E-16	1.220808E-17
4.710000E+03	2.475841E-16	1.189297E-17
4.720000E+03	2.502459E-16	1.159340E-17
4.730000E+03	2.528899E-16	1.131482E-17
4.740000E+03	2.555129E-16	1.106270E-17
4.750000E+03	2.581257E-16	1.084353E-17
4.760000E+03	2.607253E-16	1.066337E-17
4.770000E+03	2.633204E-16	1.052874E-17
4.780000E+03	2.659081E-16	1.044541E-17
4.790000E+03	2.684973E-16	1.041898E-17
4.800000E+03	2.710853E-16	1.045364E-17
4.810000E+03	2.736754E-16	1.055255E-17
4.820000E+03	2.762649E-16	1.071720E-17
4.830000E+03	2.788569E-16	1.094777E-17
4.840000E+03	2.814484E-16	1.124283E-17
4.850000E+03	2.840425E-16	1.159998E-17
4.860000E+03	2.866363E-16	1.201567E-17
4.870000E+03	2.892298E-16	1.248586E-17
4.880000E+03	2.918262E-16	1.300633E-17
4.890000E+03	2.944194E-16	1.357230E-17
4.900000E+03	2.970158E-16	1.417967E-17
4.910000E+03	2.996091E-16	1.482390E-17
4.920000E+03	3.022060E-16	1.550136E-17
4.930000E+03	3.048067E-16	1.620839E-17
4.940000E+03	3.074049E-16	1.694135E-17
4.950000E+03	3.100041E-16	1.769735E-17
4.960000E+03	3.126078E-16	1.847386E-17
4.970000E+03	3.152161E-16	1.926843E-17
4.980000E+03	3.178228E-16	2.007846E-17
4.990000E+03	3.204379E-16	2.090256E-17
5.000000E+03	3.230549E-16	2.173854E-17
5.010000E+03	3.256738E-16	2.258477E-17
5.020000E+03	3.283016E-16	2.344023E-17
5.030000E+03	3.309314E-16	2.430314E-17
5.040000E+03	3.335665E-16	2.517251E-17
5.050000E+03	3.362103E-16	2.604750E-17
5.060000E+03	3.388557E-16	2.692655E-17
5.070000E+03	3.415058E-16	2.780895E-17
5.080000E+03	3.441637E-16	2.869411E-17
5.090000E+03	3.468255E-16	2.958090E-17
5.100000E+03	3.494907E-16	3.046853E-17
5.110000E+03	3.521620E-16	3.135655E-17
5.120000E+03	3.548353E-16	3.224392E-17
5.130000E+03	3.575096E-16	3.312994E-17
5.140000E+03	3.601875E-16	3.401425E-17
5.150000E+03	3.628644E-16	3.489587E-17
5.160000E+03	3.655427E-16	3.577447E-17
5.170000E+03	3.682176E-16	3.664908E-17
5.180000E+03	3.708912E-16	3.751940E-17
5.190000E+03	3.735583E-16	3.838443E-17
5.200000E+03	3.762213E-16	3.924393E-17
5.210000E+03	3.788745E-16	4.009686E-17
5.220000E+03	3.815200E-16	4.094299E-17
5.230000E+03	3.841521E-16	4.178126E-17
5.240000E+03	3.867688E-16	4.261102E-17
5.250000E+03	3.893680E-16	4.343161E-17
5.260000E+03	3.919517E-16	4.424281E-17
5.270000E+03	3.945135E-16	4.504351E-17
5.280000E+03	3.970514E-16	4.583305E-17
5.290000E+03	3.995630E-16	4.661074E-17
5.300000E+03	4.020460E-16	4.737591E-17
5.310000E+03	4.044979E-16	4.812788E-17
5.320000E+03	4.069164E-16	4.886596E-17
5.330000E+03	4.092950E-16	4.958898E-17
5.340000E+03	4.116352E-16	5.029674E-17
5.350000E+03	4.139305E-16	5.098805E-17
5.360000E+03	4.161826E-16	5.166275E-17
5.370000E+03	4.183849E-16	5.231964E-17
5.380000E+03	4.205308E-16	5.295752E-17
5.390000E+03	4.226263E-16	5.357679E-17
5.400000E+03	4.246649E-16	5.417628E-17
5.410000E+03	4.266401E-16	5.475479E-17
5.420000E+03	4.285538E-16	5.531226E-17
5.430000E+03	4.303997E-16	5.584753E-17
5.440000E+03	4.321801E-16	5.636057E-17
5.450000E+03	4.338842E-16	5.684968E-17
5.460000E+03	4.355189E-16	5.731547E-17
5.470000E+03	4.370826E-16	5.775742E-17
5.480000E+03	4.385647E-16	5.817389E-17
5.490000E+03	4.399682E-16	5.856501E-17
5.500000E+03	4.412872E-16	5.892976E-17
5.510000E+03	4.425294E-16	5.926891E-17
5.520000E+03	4.436891E-16	5.958153E-17
5.530000E+03	4.447655E-16	5.986728E-17
5.540000E+03	4.457578E-16	6.012588E-17
5.550000E+03	4.466697E-16	6.035767E-17
5.560000E+03	4.474962E-16	6.056185E-17
5.570000E+03	4.482415E-16	6.073883E-17
5.580000E+03	4.489010E-16	6.088786E-17
5.590000E+03	4.494789E-16	6.100945E-17
5.600000E+03	4.499755E-16	6.110352E-17
5.610000E+03	4.503955E-16	6.117067E-17
5.620000E+03	4.507301E-16	6.120965E-17
5.630000E+03	4.509891E-16	6.122174E-17
5.640000E+03	4.511730E-16	6.120700E-17
5.650000E+03	4.512827E-16	6.116552E-17
5.660000E+03	4.513145E-16	6.109682E-17
5.670000E+03	4.512739E-16	6.100167E-17
5.680000E+03	4.511666E-16	6.088087E-17
5.690000E+03	4.509848E-16	6.073340E-17
5.700000E+03	4.507388E-16	6.056071E-17
5.710000E+03	4.504302E-16	6.036307E-17
5.720000E+03	4.500559E-16	6.014013E-17
5.730000E+03	4.496219E-16	5.989280E-17
5.740000E+03	4.491254E-16	5.962079E-17
5.750000E+03	4.485726E-16	5.932502E-17
5.760000E+03	4.479699E-16	5.900645E-17
5.770000E+03	4.473099E-16	5.866421E-17
5.780000E+03	4.465991E-16	5.829928E-17
5.790000E+03	4.458393E-16	5.791204E-17
5.800000E+03	4.450325E-16	5.750286E-17
5.810000E+03	4.441805E-16	5.707214E-17
5.820000E+03	4.432900E-16	5.662085E-17
5.830000E+03	4.423538E-16	5.614823E-17
5.840000E+03	4.413829E-16	5.565584E-17
5.850000E+03	4.403747E-16	5.514350E-17
5.860000E+03	4.393313E-16	5.461162E-17
5.870000E+03	4.382591E-16	5.406117E-17
5.880000E+03	4.371510E-16	5.349141E-17
5.890000E+03	4.360180E-16	5.290389E-17
5.900000E+03	4.348530E-16	5.229787E-17
5.910000E+03	4.336669E-16	5.167486E-17
5.920000E+03	4.324524E-16	5.103417E-17
5.930000E+03	4.312160E-16	5.037672E-17
5.940000E+03	4.299594E-16	4.970289E-17
5.950000E+03	4.286844E-16	4.901307E-17
5.960000E+03	4.273882E-16	4.830710E-17
5.970000E+03	4.260725E-16	4.758538E-17
5.980000E+03	4.247389E-16	4.684827E-17
5.990000E+03	4.233935E-16	4.609665E-17
6.000000E+03	4.220288E-16	4.532988E-17
6.010000E+03	4.206508E-16	4.454883E-17
6.020000E+03	4.192609E-16	4.375385E-17
6.030000E+03	4.178561E-16	4.294482E-17
6.040000E+03	4.164422E-16	4.212258E-17
6.050000E+03	4.150115E-16	4.128657E-17
6.060000E+03	4.135697E-16	4.043762E-17
6.070000E+03	4.121223E-16	3.957652E-17
6.080000E+03	4.106616E-16	3.870277E-17
6.090000E+03	4.091932E-16	3.781716E-17
6.100000E+03	4.077178E-16	3.692007E-17
6.110000E+03	4.062409E-16	3.601225E-17
6.120000E+03	4.047588E-16	3.509369E-17
6.130000E+03	4.032768E-16	3.416513E-17
6.140000E+03	4.017955E-16	3.322696E-17
6.150000E+03	4.003243E-16	3.228026E-17
6.160000E+03	3.988682E-16	3.132575E-17
6.170000E+03	3.974232E-16	3.036342E-17
6.180000E+03	3.959941E-16	2.939400E-17
6.190000E+03	3.945899E-16	2.841853E-17
6.200000E+03	3.932023E-16	2.743680E-17
6.210000E+03	3.918359E-16	2.644959E-17
6.220000E+03	3.904864E-16	2.545718E-17
6.230000E+03	3.891497E-16	2.445993E-17
6.240000E+03	3.878259E-16	2.345863E-17
6.250000E+03	3.865194E-16	2.245443E-17
6.260000E+03	3.852215E-16	2.144787E-17
6.270000E+03	3.839366E-16	2.044045E-17
6.280000E+03	3.826604E-16	1.943343E-17
6.290000E+03	3.813971E-16	1.842880E-17
6.300000E+03	3.801423E-16	1.742850E-17
6.310000E+03	3.789001E-16	1.643535E-17
6.320000E+03	3.776663E-16	1.545238E-17
6.330000E+03	3.764406E-16	1.448359E-17
6.340000E+03	3.752273E-16	1.353416E-17
6.350000E+03	3.740175E-16	1.261006E-17
6.360000E+03	3.728198E-16	1.171959E-17
6.370000E+03	3.716254E-16	1.087260E-17
6.380000E+03	3.704342E-16	1.008187E-17
6.390000E+03	3.692417E-16	9.363182E-18
6.400000E+03	3.680478E-16	8.735653E-18
6.410000E+03	3.668437E-16	8.220814E-18
6.420000E+03	3.656334E-16	7.841179E-18
6.430000E+03	3.643996E-16	7.615874E-18
6.440000E+03	3.631461E-16	7.556922E-18
6.450000E+03	3.618595E-16	7.664633E-18
6.460000E+03	3.605393E-16	7.927670E-18
6.470000E+03	3.591850E-16	8.325864E-18
6.480000E+03	3.578000E-16	8.835097E-18
6.490000E+03	3.563880E-16	9.431370E-18
6.500000E+03	3.549612E-16	1.009352E-17
6.510000E+03	3.535230E-16	1.080374E-17
6.520000E+03	3.520772E-16	1.154772E-17
6.530000E+03	3.506275E-16	1.231424E-17
6.540000E+03	3.491774E-16	1.309458E-17
6.550000E+03	3.477265E-16	1.388182E-17
6.560000E+03	3.462828E-16	1.467094E-17
6.570000E+03	3.448461E-16	1.545774E-17
6.580000E+03	3.434158E-16	1.623893E-17
6.590000E+03	3.419918E-16	1.701189E-17
6.600000E+03	3.405822E-16	1.777501E-17
6.610000E+03	3.391825E-16	1.852646E-17
6.620000E+03	3.377927E-16	1.926495E-17
6.630000E+03	3.364168E-16	1.998970E-17
6.640000E+03	3.350547E-16	2.069993E-17
6.650000E+03	3.337064E-16	2.139502E-17
6.660000E+03	3.323762E-16	2.207479E-17
6.670000E+03	3.310553E-16	2.273832E-17
6.680000E+03	3.297526E-16	2.338591E-17
6.690000E+03	3.284680E-16	2.401743E-17
6.700000E+03	3.272016E-16	2.463277E-17
6.710000E+03	3.259492E-16	2.523157E-17
6.720000E+03	3.247152E-16	2.581415E-17
6.730000E+03	3.234999E-16	2.638057E-17
6.740000E+03	3.223033E-16	2.693092E-17
6.750000E+03	3.211256E-16	2.746530E-17
6.760000E+03	3.199714E-16	2.798424E-17
6.770000E+03	3.188322E-16	2.848714E-17
6.780000E+03	3.177169E-16	2.897493E-17
6.790000E+03	3.166170E-16	2.944704E-17
6.800000E+03	3.155414E-16	2.990446E-17
6.810000E+03	3.144904E-16	3.034742E-17
6.820000E+03	3.134555E-16	3.077530E-17
6.830000E+03	3.124457E-16	3.118920E-17
6.840000E+03	3.114567E-16	3.158890E-17
6.850000E+03	3.104933E-16	3.197509E-17
6.860000E+03	3.095512E-16	3.234758E-17
6.870000E+03	3.086308E-16	3.270659E-17
6.880000E+03	3.077322E-16	3.305237E-17
6.890000E+03	3.068599E-16	3.338562E-17
6.900000E+03	3.060099E-16	3.370611E-17
6.910000E+03	3.051824E-16	3.401406E-17
6.920000E+03	3.043774E-16	3.430971E-17
6.930000E+03	3.035995E-16	3.459378E-17
6.940000E+03	3.028402E-16	3.486549E-17
6.950000E+03	3.021083E-16	3.512605E-17
6.960000E+03	3.013996E-16	3.537518E-17
6.970000E+03	3.007142E-16	3.561306E-17
6.980000E+03	3.000566E-16	3.584042E-17
6.990000E+03	2.994181E-16	3.605639E-17
7.000000E+03	2.988030E-16	3.626167E-17
7.010000E+03	2.982116E-16	3.645643E-17
7.020000E+03	2.976437E-16	3.664084E-17
7.030000E+03	2.970994E-16	3.681504E-17
7.040000E+03	2.965743E-16	3.697863E-17
7.050000E+03	2.960773E-16	3.713284E-17
7.060000E+03	2.955993E-16	3.727670E-17
7.070000E+03	2.951448E-16	3.741087E-17
7.080000E+03	2.947093E-16	3.753489E-17
7.090000E+03	2.942971E-16	3.764943E-17
7.100000E+03	2.939036E-16	3.775400E-17
7.110000E+03	2.935332E-16	3.784925E-17
7.120000E+03	2.931858E-16	3.793527E-17
7.130000E+03	2.928522E-16	3.801094E-17
7.140000E+03	2.925458E-16	3.807808E-17
7.150000E+03	2.922528E-16	3.813495E-17
7.160000E+03	2.919821E-16	3.818278E-17
7.170000E+03	2.917242E-16	3.822040E-17
7.180000E+03	2.914883E-16	3.824902E-17
7.190000E+03	2.912694E-16	3.826806E-17
7.200000E+03	2.910673E-16	3.827752E-17
7.210000E+03	2.908864E-16	3.827800E-17
7.220000E+03	2.907170E-16	3.826827E-17
7.230000E+03	2.905636E-16	3.824892E-17
7.240000E+03	2.904211E-16	3.821931E-17
7.250000E+03	2.902986E-16	3.818065E-17
7.260000E+03	2.901864E-16	3.813165E-17
7.270000E+03	2.900935E-16	3.807351E-17
7.280000E+03	2.900054E-16	3.800432E-17
7.290000E+03	2.899360E-16	3.792588E-17
7.300000E+03	2.898752E-16	3.783690E-17
7.310000E+03	2.898276E-16	3.773793E-17
7.320000E+03	2.897879E-16	3.762828E-17
7.330000E+03	2.897603E-16	3.750849E-17
7.340000E+03	2.897397E-16	3.737786E-17
7.350000E+03	2.897305E-16	3.723694E-17
7.360000E+03	2.897319E-16	3.708563E-17
7.370000E+03	2.897341E-16	3.692261E-17
7.380000E+03	2.897507E-16	3.674965E-17
7.390000E+03	2.897669E-16	3.656479E-17
7.400000E+03	2.897965E-16	3.636980E-17
7.410000E+03	2.898292E-16	3.616335E-17
7.420000E+03	2.898693E-16	3.594594E-17
7.430000E+03	2.899111E-16	3.571689E-17
7.440000E+03	2.899640E-16	3.547729E-17
7.450000E+03	2.900172E-16	3.522585E-17
7.460000E+03	2.900701E-16	3.496247E-17
7.470000E+03	2.901268E-16	3.468767E-17
7.480000E+03	2.901815E-16	3.440076E-17
7.490000E+03	2.902384E-16	3.410225E-17
7.500000E+03	2.902866E-16	3.379091E-17
7.510000E+03	2.903351E-16	3.346784E-17
7.520000E+03	2.903730E-16	3.313183E-17
7.530000E+03	2.904043E-16	3.278343E-17
7.540000E+03	2.904280E-16	3.242261E-17
7.550000E+03	2.904430E-16	3.204937E-17
7.560000E+03	2.904483E-16	3.166372E-17
7.570000E+03	2.904377E-16	3.126513E-17
7.580000E+03	2.904150E-16	3.085421E-17
7.590000E+03	2.903792E-16	3.043105E-17
7.600000E+03	2.903291E-16	2.999575E-17
7.610000E+03	2.902635E-16	2.954844E-17
7.620000E+03	2.901760E-16	2.908877E-17
7.630000E+03	2.900706E-16	2.861748E-17
7.640000E+03	2.899461E-16	2.813483E-17
7.650000E+03	2.897962E-16	2.764060E-17
7.660000E+03	2.896298E-16	2.713614E-17
7.670000E+03	2.894356E-16	2.662088E-17
7.680000E+03	2.892175E-16	2.609577E-17
7.690000E+03	2.889691E-16	2.556089E-17
7.700000E+03	2.886998E-16	2.501776E-17
7.710000E+03	2.883980E-16	2.446617E-17
7.720000E+03	2.880680E-16	2.390735E-17
7.730000E+03	2.877088E-16	2.334218E-17
7.740000E+03	2.873142E-16	2.277124E-17
7.750000E+03	2.868886E-16	2.219607E-17
7.760000E+03	2.864313E-16	2.161790E-17
