#wls	flux	fluxerr
1.600000E+03	1.395463E-17	6.693733E-18
1.640000E+03	1.346665E-17	6.403837E-18
1.680000E+03	1.298891E-17	6.122687E-18
1.720000E+03	1.252434E-17	5.851534E-18
1.760000E+03	1.207755E-17	5.592346E-18
1.800000E+03	1.164453E-17	5.343056E-18
1.840000E+03	1.122947E-17	5.105390E-18
1.880000E+03	1.083405E-17	4.879883E-18
1.920000E+03	1.045617E-17	4.665334E-18
1.960000E+03	1.010067E-17	4.463668E-18
2.000000E+03	9.765147E-18	4.273539E-18
2.040000E+03	9.452103E-18	4.095778E-18
2.080000E+03	9.163557E-18	3.930961E-18
2.120000E+03	8.896851E-18	3.777644E-18
2.160000E+03	8.655088E-18	3.636849E-18
2.200000E+03	8.439488E-18	3.508762E-18
2.240000E+03	8.247227E-18	3.391880E-18
2.280000E+03	8.075842E-18	3.284899E-18
2.320000E+03	7.926678E-18	3.188089E-18
2.360000E+03	7.795293E-18	3.099395E-18
2.400000E+03	7.683266E-18	3.019209E-18
2.440000E+03	7.587843E-18	2.946212E-18
2.480000E+03	7.508703E-18	2.880071E-18
2.520000E+03	7.445639E-18	2.820502E-18
2.560000E+03	7.397628E-18	2.766923E-18
2.600000E+03	7.365685E-18	2.719526E-18
2.640000E+03	7.349949E-18	2.678164E-18
2.680000E+03	7.349828E-18	2.642430E-18
2.720000E+03	7.366608E-18	2.612594E-18
2.760000E+03	7.401609E-18	2.588918E-18
2.800000E+03	7.457010E-18	2.571936E-18
2.840000E+03	7.534242E-18	2.561890E-18
2.880000E+03	7.630291E-18	2.557506E-18
2.920000E+03	7.747094E-18	2.559208E-18
2.960000E+03	7.883737E-18	2.566455E-18
3.000000E+03	8.042511E-18	2.579755E-18
3.010000E+03	8.085194E-18	2.583847E-18
3.020000E+03	8.130445E-18	2.588674E-18
3.030000E+03	8.176831E-18	2.593775E-18
3.040000E+03	8.225109E-18	2.599387E-18
3.050000E+03	8.274582E-18	2.605282E-18
3.060000E+03	8.326009E-18	2.611697E-18
3.070000E+03	8.379420E-18	2.618634E-18
3.080000E+03	8.434846E-18	2.626097E-18
3.090000E+03	8.491598E-18	2.633867E-18
3.100000E+03	8.551155E-18	2.642395E-18
3.110000E+03	8.612829E-18	2.651461E-18
3.120000E+03	8.675934E-18	2.660849E-18
3.130000E+03	8.741950E-18	2.671006E-18
3.140000E+03	8.810195E-18	2.681714E-18
3.150000E+03	8.880708E-18	2.692980E-18
3.160000E+03	8.953529E-18	2.704807E-18
3.170000E+03	9.029422E-18	2.717418E-18
3.180000E+03	9.107710E-18	2.730600E-18
3.190000E+03	9.189159E-18	2.744574E-18
3.200000E+03	9.273819E-18	2.759345E-18
3.210000E+03	9.361014E-18	2.774701E-18
3.220000E+03	9.451519E-18	2.790864E-18
3.230000E+03	9.546116E-18	2.808051E-18
3.240000E+03	9.643407E-18	2.825840E-18
3.250000E+03	9.744905E-18	2.844664E-18
3.260000E+03	9.850675E-18	2.864528E-18
3.270000E+03	9.960052E-18	2.885223E-18
3.280000E+03	1.007383E-17	2.906969E-18
3.290000E+03	1.019136E-17	2.929560E-18
3.300000E+03	1.031417E-17	2.953426E-18
3.310000E+03	1.044236E-17	2.978573E-18
3.320000E+03	1.057527E-17	3.004797E-18
3.330000E+03	1.071373E-17	3.032317E-18
3.340000E+03	1.085783E-17	3.061140E-18
3.350000E+03	1.100768E-17	3.091276E-18
3.360000E+03	1.116413E-17	3.122943E-18
3.370000E+03	1.132730E-17	3.156152E-18
3.380000E+03	1.149731E-17	3.190913E-18
3.390000E+03	1.167581E-17	3.227658E-18
3.400000E+03	1.186142E-17	3.265978E-18
3.410000E+03	1.205505E-17	3.306096E-18
3.420000E+03	1.225840E-17	3.348448E-18
3.430000E+03	1.247087E-17	3.392838E-18
3.440000E+03	1.269341E-17	3.439494E-18
3.450000E+03	1.292623E-17	3.488432E-18
3.460000E+03	1.317111E-17	3.540094E-18
3.470000E+03	1.342749E-17	3.594291E-18
3.480000E+03	1.369641E-17	3.651254E-18
3.490000E+03	1.397891E-17	3.711222E-18
3.500000E+03	1.427530E-17	3.774218E-18
3.510000E+03	1.458747E-17	3.840698E-18
3.520000E+03	1.491495E-17	3.910477E-18
3.530000E+03	1.525889E-17	3.983800E-18
3.540000E+03	1.562047E-17	4.060916E-18
3.550000E+03	1.600009E-17	4.141859E-18
3.560000E+03	1.639814E-17	4.226665E-18
3.570000E+03	1.681418E-17	4.315156E-18
3.580000E+03	1.725034E-17	4.407802E-18
3.590000E+03	1.770535E-17	4.504207E-18
3.600000E+03	1.817966E-17	4.604409E-18
3.610000E+03	1.867370E-17	4.708446E-18
3.620000E+03	1.918794E-17	4.816355E-18
3.630000E+03	1.972286E-17	4.928175E-18
3.640000E+03	2.027715E-17	5.043499E-18
3.650000E+03	2.085308E-17	5.162807E-18
3.660000E+03	2.144934E-17	5.285689E-18
3.670000E+03	2.206732E-17	5.412400E-18
3.680000E+03	2.270663E-17	5.542750E-18
3.690000E+03	2.336776E-17	5.676768E-18
3.700000E+03	2.405029E-17	5.814258E-18
3.710000E+03	2.475472E-17	5.955243E-18
3.720000E+03	2.548251E-17	6.099976E-18
3.730000E+03	2.623230E-17	6.248022E-18
3.740000E+03	2.700458E-17	6.399398E-18
3.750000E+03	2.779987E-17	6.554120E-18
3.760000E+03	2.861869E-17	6.712200E-18
3.770000E+03	2.946058E-17	6.873415E-18
3.780000E+03	3.032606E-17	7.037770E-18
3.790000E+03	3.121565E-17	7.205267E-18
3.800000E+03	3.212885E-17	7.375669E-18
3.810000E+03	3.306617E-17	7.548969E-18
3.820000E+03	3.402708E-17	7.724918E-18
3.830000E+03	3.501209E-17	7.903501E-18
3.840000E+03	3.602167E-17	8.084695E-18
3.850000E+03	3.705636E-17	8.268478E-18
3.860000E+03	3.811447E-17	8.454337E-18
3.870000E+03	3.919757E-17	8.642476E-18
3.880000E+03	4.030614E-17	8.832857E-18
3.890000E+03	4.143843E-17	9.024946E-18
3.900000E+03	4.259489E-17	9.218688E-18
3.910000E+03	4.377709E-17	9.414272E-18
3.920000E+03	4.498320E-17	9.611141E-18
3.930000E+03	4.621479E-17	9.809472E-18
3.940000E+03	4.746995E-17	1.000869E-17
3.950000E+03	4.874906E-17	1.020872E-17
3.960000E+03	5.005370E-17	1.040972E-17
3.970000E+03	5.138186E-17	1.061109E-17
3.980000E+03	5.273388E-17	1.081273E-17
3.990000E+03	5.411011E-17	1.101453E-17
4.000000E+03	5.551088E-17	1.121638E-17
4.010000E+03	5.693402E-17	1.141765E-17
4.020000E+03	5.838106E-17	1.161847E-17
4.030000E+03	5.984973E-17	1.181819E-17
4.040000E+03	6.134287E-17	1.201719E-17
4.050000E+03	6.285680E-17	1.221454E-17
4.060000E+03	6.439437E-17	1.241061E-17
4.070000E+03	6.595315E-17	1.260472E-17
4.080000E+03	6.753330E-17	1.279671E-17
4.090000E+03	6.913499E-17	1.298641E-17
4.100000E+03	7.075697E-17	1.317337E-17
4.110000E+03	7.239937E-17	1.335742E-17
4.120000E+03	7.406228E-17	1.353836E-17
4.130000E+03	7.574581E-17	1.371601E-17
4.140000E+03	7.744713E-17	1.388963E-17
4.150000E+03	7.916917E-17	1.405954E-17
4.160000E+03	8.090905E-17	1.422501E-17
4.170000E+03	8.266823E-17	1.438608E-17
4.180000E+03	8.444521E-17	1.454227E-17
4.190000E+03	8.623995E-17	1.469336E-17
4.200000E+03	8.805237E-17	1.483911E-17
4.210000E+03	8.988399E-17	1.497955E-17
4.220000E+03	9.173160E-17	1.511392E-17
4.230000E+03	9.359825E-17	1.524250E-17
4.240000E+03	9.548227E-17	1.536478E-17
4.250000E+03	9.738191E-17	1.548024E-17
4.260000E+03	9.930193E-17	1.558943E-17
4.270000E+03	1.012389E-16	1.569155E-17
4.280000E+03	1.031961E-16	1.578686E-17
4.290000E+03	1.051701E-16	1.587459E-17
4.300000E+03	1.071657E-16	1.595524E-17
4.310000E+03	1.091811E-16	1.602827E-17
4.320000E+03	1.112181E-16	1.609368E-17
4.330000E+03	1.132766E-16	1.615118E-17
4.340000E+03	1.153599E-16	1.620099E-17
4.350000E+03	1.174663E-16	1.624258E-17
4.360000E+03	1.195993E-16	1.627616E-17
4.370000E+03	1.217609E-16	1.630168E-17
4.380000E+03	1.239511E-16	1.631885E-17
4.390000E+03	1.261717E-16	1.632761E-17
4.400000E+03	1.284248E-16	1.632790E-17
4.410000E+03	1.307104E-16	1.631941E-17
4.420000E+03	1.330346E-16	1.630255E-17
4.430000E+03	1.353935E-16	1.627654E-17
4.440000E+03	1.377934E-16	1.624176E-17
4.450000E+03	1.402324E-16	1.619767E-17
4.460000E+03	1.427107E-16	1.614398E-17
4.470000E+03	1.452264E-16	1.608015E-17
4.480000E+03	1.477796E-16	1.600592E-17
4.490000E+03	1.503683E-16	1.592081E-17
4.500000E+03	1.529902E-16	1.582439E-17
4.510000E+03	1.556410E-16	1.571603E-17
4.520000E+03	1.583225E-16	1.559581E-17
4.530000E+03	1.610323E-16	1.546343E-17
4.540000E+03	1.637657E-16	1.531842E-17
4.550000E+03	1.665220E-16	1.516081E-17
4.560000E+03	1.692985E-16	1.499050E-17
4.570000E+03	1.720946E-16	1.480767E-17
4.580000E+03	1.749049E-16	1.461221E-17
4.590000E+03	1.777308E-16	1.440470E-17
4.600000E+03	1.805692E-16	1.418545E-17
4.610000E+03	1.834145E-16	1.395478E-17
4.620000E+03	1.862678E-16	1.371368E-17
4.630000E+03	1.891280E-16	1.346317E-17
4.640000E+03	1.919892E-16	1.320413E-17
4.650000E+03	1.948548E-16	1.293837E-17
4.660000E+03	1.977163E-16	1.266716E-17
4.670000E+03	2.005795E-16	1.239305E-17
4.680000E+03	2.034356E-16	1.211800E-17
4.690000E+03	2.062907E-16	1.184528E-17
4.700000E+03	2.091380E-16	1.157786E-17
4.710000E+03	2.119761E-16	1.131948E-17
4.720000E+03	2.148084E-16	1.107463E-17
4.730000E+03	2.176307E-16	1.084789E-17
4.740000E+03	2.204439E-16	1.064456E-17
4.750000E+03	2.232464E-16	1.047019E-17
4.760000E+03	2.260337E-16	1.033049E-17
4.770000E+03	2.288096E-16	1.023162E-17
4.780000E+03	2.315695E-16	1.017916E-17
4.790000E+03	2.343118E-16	1.017837E-17
4.800000E+03	2.370347E-16	1.023370E-17
4.810000E+03	2.397369E-16	1.034840E-17
4.820000E+03	2.424173E-16	1.052421E-17
4.830000E+03	2.450752E-16	1.076119E-17
4.840000E+03	2.477102E-16	1.105807E-17
4.850000E+03	2.503220E-16	1.141249E-17
4.860000E+03	2.529104E-16	1.182126E-17
4.870000E+03	2.554723E-16	1.228053E-17
4.880000E+03	2.580134E-16	1.278652E-17
4.890000E+03	2.605279E-16	1.333483E-17
4.900000E+03	2.630156E-16	1.392137E-17
4.910000E+03	2.654793E-16	1.454235E-17
4.920000E+03	2.679191E-16	1.519409E-17
4.930000E+03	2.703349E-16	1.587313E-17
4.940000E+03	2.727267E-16	1.657632E-17
4.950000E+03	2.750915E-16	1.730056E-17
4.960000E+03	2.774321E-16	1.804339E-17
4.970000E+03	2.797515E-16	1.880259E-17
4.980000E+03	2.820437E-16	1.957556E-17
4.990000E+03	2.843147E-16	2.036072E-17
5.000000E+03	2.865582E-16	2.115579E-17
5.010000E+03	2.887802E-16	2.195955E-17
5.020000E+03	2.909806E-16	2.277046E-17
5.030000E+03	2.931562E-16	2.358687E-17
5.040000E+03	2.953100E-16	2.440771E-17
5.050000E+03	2.974417E-16	2.523176E-17
5.060000E+03	2.995479E-16	2.605762E-17
5.070000E+03	3.016347E-16	2.688477E-17
5.080000E+03	3.036987E-16	2.771194E-17
5.090000E+03	3.057364E-16	2.853787E-17
5.100000E+03	3.077569E-16	2.936258E-17
5.110000E+03	3.097536E-16	3.018461E-17
5.120000E+03	3.117260E-16	3.100315E-17
5.130000E+03	3.136769E-16	3.181774E-17
5.140000E+03	3.156058E-16	3.262765E-17
5.150000E+03	3.175123E-16	3.343216E-17
5.160000E+03	3.193924E-16	3.423023E-17
5.170000E+03	3.212523E-16	3.502190E-17
5.180000E+03	3.230847E-16	3.580579E-17
5.190000E+03	3.248957E-16	3.658201E-17
5.200000E+03	3.266812E-16	3.734958E-17
5.210000E+03	3.284405E-16	3.810789E-17
5.220000E+03	3.301763E-16	3.885674E-17
5.230000E+03	3.318846E-16	3.959517E-17
5.240000E+03	3.335644E-16	4.032260E-17
5.250000E+03	3.352185E-16	4.103890E-17
5.260000E+03	3.368425E-16	4.174310E-17
5.270000E+03	3.384358E-16	4.243466E-17
5.280000E+03	3.400008E-16	4.311348E-17
5.290000E+03	3.415368E-16	4.377907E-17
5.300000E+03	3.430395E-16	4.443046E-17
5.310000E+03	3.445079E-16	4.506716E-17
5.320000E+03	3.459446E-16	4.568912E-17
5.330000E+03	3.473453E-16	4.629541E-17
5.340000E+03	3.487127E-16	4.688603E-17
5.350000E+03	3.500424E-16	4.746003E-17
5.360000E+03	3.513334E-16	4.801698E-17
5.370000E+03	3.525886E-16	4.855690E-17
5.380000E+03	3.538034E-16	4.907890E-17
5.390000E+03	3.549807E-16	4.958304E-17
5.400000E+03	3.561126E-16	5.006793E-17
5.410000E+03	3.572054E-16	5.053418E-17
5.420000E+03	3.582548E-16	5.098090E-17
5.430000E+03	3.592636E-16	5.140826E-17
5.440000E+03	3.602241E-16	5.181488E-17
5.450000E+03	3.611427E-16	5.220146E-17
5.460000E+03	3.620117E-16	5.256664E-17
5.470000E+03	3.628377E-16	5.291118E-17
5.480000E+03	3.636129E-16	5.323374E-17
5.490000E+03	3.643442E-16	5.353514E-17
5.500000E+03	3.650238E-16	5.381405E-17
5.510000E+03	3.656549E-16	5.407079E-17
5.520000E+03	3.662374E-16	5.430517E-17
5.530000E+03	3.667708E-16	5.451699E-17
5.540000E+03	3.672550E-16	5.470611E-17
5.550000E+03	3.676934E-16	5.487294E-17
5.560000E+03	3.680823E-16	5.501680E-17
5.570000E+03	3.684290E-16	5.513870E-17
5.580000E+03	3.687297E-16	5.523802E-17
5.590000E+03	3.689847E-16	5.531472E-17
5.600000E+03	3.691975E-16	5.536929E-17
5.610000E+03	3.693649E-16	5.540118E-17
5.620000E+03	3.694905E-16	5.541095E-17
5.630000E+03	3.695747E-16	5.539861E-17
5.640000E+03	3.696178E-16	5.536422E-17
5.650000E+03	3.696165E-16	5.530727E-17
5.660000E+03	3.695749E-16	5.522839E-17
5.670000E+03	3.694971E-16	5.512822E-17
5.680000E+03	3.693763E-16	5.500578E-17
5.690000E+03	3.692203E-16	5.486229E-17
5.700000E+03	3.690261E-16	5.469733E-17
5.710000E+03	3.687943E-16	5.451106E-17
5.720000E+03	3.685255E-16	5.430365E-17
5.730000E+03	3.682242E-16	5.407582E-17
5.740000E+03	3.678873E-16	5.382721E-17
5.750000E+03	3.675157E-16	5.355804E-17
5.760000E+03	3.671139E-16	5.326905E-17
5.770000E+03	3.666825E-16	5.296047E-17
5.780000E+03	3.662152E-16	5.263146E-17
5.790000E+03	3.657201E-16	5.228333E-17
5.800000E+03	3.651981E-16	5.191633E-17
5.810000E+03	3.646465E-16	5.153019E-17
5.820000E+03	3.640661E-16	5.112519E-17
5.830000E+03	3.634581E-16	5.070160E-17
5.840000E+03	3.628268E-16	5.026020E-17
5.850000E+03	3.621697E-16	4.980079E-17
5.860000E+03	3.614842E-16	4.932314E-17
5.870000E+03	3.607783E-16	4.882856E-17
5.880000E+03	3.600496E-16	4.831685E-17
5.890000E+03	3.592990E-16	4.778831E-17
5.900000E+03	3.585239E-16	4.724277E-17
5.910000E+03	3.577254E-16	4.668056E-17
5.920000E+03	3.569079E-16	4.610247E-17
5.930000E+03	3.560726E-16	4.550881E-17
5.940000E+03	3.552132E-16	4.489899E-17
5.950000E+03	3.543343E-16	4.427380E-17
5.960000E+03	3.534370E-16	4.363358E-17
5.970000E+03	3.525187E-16	4.297823E-17
5.980000E+03	3.515803E-16	4.230809E-17
5.990000E+03	3.506229E-16	4.162353E-17
6.000000E+03	3.496474E-16	4.092489E-17
6.010000E+03	3.486548E-16	4.021252E-17
6.020000E+03	3.476425E-16	3.948639E-17
6.030000E+03	3.466080E-16	3.874648E-17
6.040000E+03	3.455593E-16	3.799394E-17
6.050000E+03	3.444936E-16	3.722877E-17
6.060000E+03	3.434086E-16	3.645097E-17
6.070000E+03	3.423050E-16	3.566095E-17
6.080000E+03	3.411838E-16	3.485911E-17
6.090000E+03	3.400459E-16	3.404585E-17
6.100000E+03	3.388921E-16	3.322161E-17
6.110000E+03	3.377232E-16	3.238679E-17
6.120000E+03	3.365401E-16	3.154182E-17
6.130000E+03	3.353402E-16	3.068681E-17
6.140000E+03	3.341276E-16	2.982255E-17
6.150000E+03	3.328998E-16	2.894917E-17
6.160000E+03	3.316575E-16	2.806718E-17
6.170000E+03	3.304049E-16	2.717735E-17
6.180000E+03	3.291359E-16	2.627965E-17
6.190000E+03	3.278512E-16	2.537465E-17
6.200000E+03	3.265516E-16	2.446294E-17
6.210000E+03	3.252444E-16	2.354566E-17
6.220000E+03	3.239305E-16	2.262343E-17
6.230000E+03	3.226037E-16	2.169648E-17
6.240000E+03	3.212746E-16	2.076625E-17
6.250000E+03	3.199373E-16	1.983313E-17
6.260000E+03	3.185956E-16	1.889824E-17
6.270000E+03	3.172469E-16	1.796246E-17
6.280000E+03	3.158950E-16	1.702719E-17
6.290000E+03	3.145371E-16	1.609367E-17
6.300000E+03	3.131772E-16	1.516375E-17
6.310000E+03	3.118124E-16	1.423929E-17
6.320000E+03	3.104466E-16	1.332294E-17
6.330000E+03	3.090770E-16	1.241763E-17
6.340000E+03	3.077073E-16	1.152741E-17
6.350000E+03	3.063348E-16	1.065713E-17
6.360000E+03	3.049630E-16	9.813431E-18
6.370000E+03	3.035924E-16	9.004828E-18
6.380000E+03	3.022200E-16	8.242490E-18
6.390000E+03	3.008493E-16	7.541325E-18
6.400000E+03	2.994839E-16	6.920478E-18
6.410000E+03	2.981205E-16	6.403319E-18
6.420000E+03	2.967623E-16	6.016272E-18
6.430000E+03	2.954127E-16	5.784389E-18
6.440000E+03	2.940745E-16	5.724316E-18
6.450000E+03	2.927509E-16	5.837168E-18
6.460000E+03	2.914481E-16	6.107330E-18
6.470000E+03	2.901625E-16	6.508446E-18
6.480000E+03	2.889036E-16	7.011706E-18
6.490000E+03	2.876677E-16	7.590607E-18
6.500000E+03	2.864509E-16	8.223397E-18
6.510000E+03	2.852526E-16	8.893298E-18
6.520000E+03	2.840691E-16	9.587578E-18
6.530000E+03	2.828997E-16	1.029682E-17
6.540000E+03	2.817437E-16	1.101401E-17
6.550000E+03	2.806006E-16	1.173391E-17
6.560000E+03	2.794697E-16	1.245255E-17
6.570000E+03	2.783536E-16	1.316709E-17
6.580000E+03	2.772518E-16	1.387523E-17
6.590000E+03	2.761636E-16	1.457523E-17
6.600000E+03	2.750886E-16	1.526571E-17
6.610000E+03	2.740295E-16	1.594579E-17
6.620000E+03	2.729889E-16	1.661485E-17
6.630000E+03	2.719600E-16	1.727189E-17
6.640000E+03	2.709520E-16	1.791702E-17
6.650000E+03	2.699580E-16	1.854947E-17
6.660000E+03	2.689841E-16	1.916941E-17
6.670000E+03	2.680268E-16	1.977642E-17
6.680000E+03	2.670889E-16	2.037062E-17
6.690000E+03	2.661700E-16	2.095192E-17
6.700000E+03	2.652700E-16	2.152031E-17
6.710000E+03	2.643918E-16	2.207604E-17
6.720000E+03	2.635286E-16	2.261862E-17
6.730000E+03	2.626900E-16	2.314891E-17
6.740000E+03	2.618692E-16	2.366644E-17
6.750000E+03	2.610727E-16	2.417189E-17
6.760000E+03	2.602937E-16	2.466477E-17
6.770000E+03	2.595386E-16	2.514582E-17
6.780000E+03	2.588039E-16	2.561484E-17
6.790000E+03	2.580896E-16	2.607198E-17
6.800000E+03	2.573989E-16	2.651772E-17
6.810000E+03	2.567283E-16	2.695185E-17
6.820000E+03	2.560811E-16	2.737489E-17
6.830000E+03	2.554572E-16	2.778699E-17
6.840000E+03	2.548532E-16	2.818795E-17
6.850000E+03	2.542724E-16	2.857829E-17
6.860000E+03	2.537181E-16	2.895855E-17
6.870000E+03	2.531835E-16	2.932814E-17
6.880000E+03	2.526720E-16	2.968759E-17
6.890000E+03	2.521835E-16	3.003706E-17
6.900000E+03	2.517147E-16	3.037631E-17
6.910000E+03	2.512723E-16	3.070629E-17
6.920000E+03	2.508528E-16	3.102675E-17
6.930000E+03	2.504562E-16	3.133783E-17
6.940000E+03	2.500826E-16	3.163968E-17
6.950000E+03	2.497320E-16	3.193245E-17
6.960000E+03	2.494042E-16	3.221625E-17
6.970000E+03	2.490994E-16	3.249122E-17
6.980000E+03	2.488175E-16	3.275749E-17
6.990000E+03	2.485551E-16	3.301473E-17
7.000000E+03	2.483189E-16	3.326394E-17
7.010000E+03	2.481021E-16	3.350435E-17
7.020000E+03	2.479116E-16	3.373695E-17
7.030000E+03	2.477404E-16	3.396093E-17
7.040000E+03	2.475887E-16	3.417638E-17
7.050000E+03	2.474630E-16	3.438432E-17
7.060000E+03	2.473532E-16	3.458341E-17
7.070000E+03	2.472695E-16	3.477515E-17
7.080000E+03	2.472049E-16	3.495865E-17
7.090000E+03	2.471594E-16	3.513398E-17
7.100000E+03	2.471329E-16	3.530117E-17
7.110000E+03	2.471289E-16	3.546078E-17
7.120000E+03	2.471402E-16	3.561185E-17
7.130000E+03	2.471703E-16	3.575492E-17
7.140000E+03	2.472225E-16	3.589052E-17
7.150000E+03	2.472864E-16	3.601716E-17
7.160000E+03	2.473722E-16	3.613637E-17
7.170000E+03	2.474693E-16	3.624665E-17
7.180000E+03	2.475845E-16	3.634901E-17
7.190000E+03	2.477143E-16	3.644295E-17
7.200000E+03	2.478584E-16	3.652847E-17
7.210000E+03	2.480132E-16	3.660504E-17
7.220000E+03	2.481784E-16	3.667264E-17
7.230000E+03	2.483574E-16	3.673177E-17
7.240000E+03	2.485464E-16	3.678190E-17
7.250000E+03	2.487417E-16	3.682248E-17
7.260000E+03	2.489464E-16	3.685400E-17
7.270000E+03	2.491533E-16	3.687538E-17
7.280000E+03	2.493692E-16	3.688765E-17
7.290000E+03	2.495866E-16	3.688972E-17
7.300000E+03	2.498052E-16	3.688156E-17
7.310000E+03	2.500210E-16	3.686261E-17
7.320000E+03	2.502373E-16	3.683337E-17
7.330000E+03	2.504501E-16	3.679328E-17
7.340000E+03	2.506590E-16	3.674231E-17
7.350000E+03	2.508600E-16	3.667993E-17
7.360000E+03	2.510489E-16	3.660558E-17
7.370000E+03	2.512290E-16	3.651979E-17
7.380000E+03	2.513924E-16	3.642150E-17
7.390000E+03	2.515460E-16	3.631178E-17
7.400000E+03	2.516782E-16	3.618906E-17
7.410000E+03	2.517959E-16	3.605443E-17
7.420000E+03	2.518911E-16	3.590688E-17
7.430000E+03	2.519670E-16	3.574699E-17
7.440000E+03	2.520193E-16	3.557431E-17
7.450000E+03	2.520511E-16	3.538944E-17
7.460000E+03	2.520617E-16	3.519248E-17
7.470000E+03	2.520507E-16	3.498354E-17
7.480000E+03	2.520174E-16	3.476275E-17
7.490000E+03	2.519613E-16	3.453026E-17
7.500000E+03	2.518891E-16	3.428724E-17
7.510000E+03	2.517929E-16	3.403286E-17
7.520000E+03	2.516796E-16	3.376832E-17
7.530000E+03	2.515487E-16	3.349383E-17
7.540000E+03	2.513995E-16	3.320963E-17
7.550000E+03	2.512391E-16	3.291695E-17
7.560000E+03	2.510595E-16	3.261507E-17
7.570000E+03	2.508639E-16	3.230479E-17
7.580000E+03	2.506556E-16	3.198689E-17
7.590000E+03	2.504342E-16	3.166171E-17
7.600000E+03	2.501991E-16	3.132962E-17
7.610000E+03	2.499538E-16	3.099147E-17
7.620000E+03	2.496941E-16	3.064721E-17
7.630000E+03	2.494232E-16	3.029775E-17
7.640000E+03	2.491372E-16	2.994310E-17
7.650000E+03	2.488432E-16	2.958471E-17
7.660000E+03	2.485371E-16	2.922265E-17
7.670000E+03	2.482186E-16	2.885750E-17
7.680000E+03	2.478912E-16	2.849032E-17
7.690000E+03	2.475509E-16	2.812133E-17
7.700000E+03	2.471974E-16	2.775122E-17
7.710000E+03	2.468345E-16	2.738118E-17
7.720000E+03	2.464580E-16	2.701156E-17
7.730000E+03	2.460718E-16	2.664359E-17
7.740000E+03	2.456718E-16	2.627774E-17
7.750000E+03	2.452581E-16	2.591492E-17
7.760000E+03	2.448306E-16	2.555610E-17
