#wls	flux	fluxerr
1.600000E+03	7.707438E-18	4.321180E-18
1.640000E+03	7.505172E-18	4.184956E-18
1.680000E+03	7.308574E-18	4.052851E-18
1.720000E+03	7.119170E-18	3.925668E-18
1.760000E+03	6.935636E-18	3.802628E-18
1.800000E+03	6.760718E-18	3.685185E-18
1.840000E+03	6.593043E-18	3.572528E-18
1.880000E+03	6.433862E-18	3.465271E-18
1.920000E+03	6.283077E-18	3.363293E-18
1.960000E+03	6.141779E-18	3.267101E-18
2.000000E+03	6.008634E-18	3.175906E-18
2.040000E+03	5.884683E-18	3.090185E-18
2.080000E+03	5.769768E-18	3.009767E-18
2.120000E+03	5.664815E-18	2.935049E-18
2.160000E+03	5.569618E-18	2.865829E-18
2.200000E+03	5.482969E-18	2.801391E-18
2.240000E+03	5.406784E-18	2.742622E-18
2.280000E+03	5.338899E-18	2.688323E-18
2.320000E+03	5.281194E-18	2.639344E-18
2.360000E+03	5.233533E-18	2.595509E-18
2.400000E+03	5.193970E-18	2.555745E-18
2.440000E+03	5.165271E-18	2.521309E-18
2.480000E+03	5.145578E-18	2.491173E-18
2.520000E+03	5.134956E-18	2.465259E-18
2.560000E+03	5.134373E-18	2.443913E-18
2.600000E+03	5.144786E-18	2.427457E-18
2.640000E+03	5.164630E-18	2.415013E-18
2.680000E+03	5.194973E-18	2.406945E-18
2.720000E+03	5.236897E-18	2.403602E-18
2.760000E+03	5.290688E-18	2.404946E-18
2.800000E+03	5.355888E-18	2.410592E-18
2.840000E+03	5.435356E-18	2.421636E-18
2.880000E+03	5.529561E-18	2.438061E-18
2.920000E+03	5.639059E-18	2.459870E-18
2.960000E+03	5.766910E-18	2.488125E-18
3.000000E+03	5.914670E-18	2.523180E-18
3.010000E+03	5.954595E-18	2.532912E-18
3.020000E+03	5.996790E-18	2.543477E-18
3.030000E+03	6.039661E-18	2.554191E-18
3.040000E+03	6.084836E-18	2.565738E-18
3.050000E+03	6.131526E-18	2.577776E-18
3.060000E+03	6.179751E-18	2.590306E-18
3.070000E+03	6.229528E-18	2.603329E-18
3.080000E+03	6.281688E-18	2.617183E-18
3.090000E+03	6.334631E-18	2.631194E-18
3.100000E+03	6.390811E-18	2.646373E-18
3.110000E+03	6.447818E-18	2.661712E-18
3.120000E+03	6.507300E-18	2.677885E-18
3.130000E+03	6.569284E-18	2.694890E-18
3.140000E+03	6.632981E-18	2.712394E-18
3.150000E+03	6.699235E-18	2.730734E-18
3.160000E+03	6.768078E-18	2.749908E-18
3.170000E+03	6.838718E-18	2.769587E-18
3.180000E+03	6.912834E-18	2.790437E-18
3.190000E+03	6.988812E-18	2.811793E-18
3.200000E+03	7.067511E-18	2.833990E-18
3.210000E+03	7.149799E-18	2.857363E-18
3.220000E+03	7.234888E-18	2.881580E-18
3.230000E+03	7.321984E-18	2.906312E-18
3.240000E+03	7.413633E-18	2.932556E-18
3.250000E+03	7.508212E-18	2.959651E-18
3.260000E+03	7.605768E-18	2.987600E-18
3.270000E+03	7.707190E-18	3.016736E-18
3.280000E+03	7.812536E-18	3.047061E-18
3.290000E+03	7.921011E-18	3.078249E-18
3.300000E+03	8.033520E-18	3.110633E-18
3.310000E+03	8.150984E-18	3.144547E-18
3.320000E+03	8.272615E-18	3.179664E-18
3.330000E+03	8.397614E-18	3.215656E-18
3.340000E+03	8.528642E-18	3.253520E-18
3.350000E+03	8.664049E-18	3.292599E-18
3.360000E+03	8.803908E-18	3.332896E-18
3.370000E+03	8.949171E-18	3.374747E-18
3.380000E+03	9.099927E-18	3.418156E-18
3.390000E+03	9.256268E-18	3.463129E-18
3.400000E+03	9.418288E-18	3.509670E-18
3.410000E+03	9.586084E-18	3.557785E-18
3.420000E+03	9.760655E-18	3.607811E-18
3.430000E+03	9.941215E-18	3.659422E-18
3.440000E+03	1.012878E-17	3.712955E-18
3.450000E+03	1.032255E-17	3.768085E-18
3.460000E+03	1.052448E-17	3.825481E-18
3.470000E+03	1.073380E-17	3.884819E-18
3.480000E+03	1.094970E-17	3.945771E-18
3.490000E+03	1.117511E-17	4.009343E-18
3.500000E+03	1.140832E-17	4.074875E-18
3.510000E+03	1.164949E-17	4.142373E-18
3.520000E+03	1.189970E-17	4.212179E-18
3.530000E+03	1.216008E-17	4.284633E-18
3.540000E+03	1.242891E-17	4.359072E-18
3.550000E+03	1.270826E-17	4.436173E-18
3.560000E+03	1.299738E-17	4.515606E-18
3.570000E+03	1.329743E-17	4.597714E-18
3.580000E+03	1.360862E-17	4.682503E-18
3.590000E+03	1.393018E-17	4.769641E-18
3.600000E+03	1.426429E-17	4.859808E-18
3.610000E+03	1.461021E-17	4.952672E-18
3.620000E+03	1.496917E-17	5.048574E-18
3.630000E+03	1.534043E-17	5.147180E-18
3.640000E+03	1.572523E-17	5.248832E-18
3.650000E+03	1.612283E-17	5.353192E-18
3.660000E+03	1.653555E-17	5.460941E-18
3.670000E+03	1.696265E-17	5.571741E-18
3.680000E+03	1.740547E-17	5.685931E-18
3.690000E+03	1.786327E-17	5.803169E-18
3.700000E+03	1.833741E-17	5.923793E-18
3.710000E+03	1.882716E-17	6.047456E-18
3.720000E+03	1.933499E-17	6.174838E-18
3.730000E+03	1.986018E-17	6.305589E-18
3.740000E+03	2.040307E-17	6.439699E-18
3.750000E+03	2.096404E-17	6.577156E-18
3.760000E+03	2.154456E-17	6.718291E-18
3.770000E+03	2.214502E-17	6.863088E-18
3.780000E+03	2.276470E-17	7.011184E-18
3.790000E+03	2.340627E-17	7.163250E-18
3.800000E+03	2.406788E-17	7.318569E-18
3.810000E+03	2.475223E-17	7.477807E-18
3.820000E+03	2.545864E-17	7.640588E-18
3.830000E+03	2.618870E-17	7.807226E-18
3.840000E+03	2.694173E-17	7.977335E-18
3.850000E+03	2.771818E-17	8.150874E-18
3.860000E+03	2.851971E-17	8.328147E-18
3.870000E+03	2.934683E-17	8.509104E-18
3.880000E+03	3.020004E-17	8.693691E-18
3.890000E+03	3.107864E-17	8.881500E-18
3.900000E+03	3.198435E-17	9.072816E-18
3.910000E+03	3.291895E-17	9.267920E-18
3.920000E+03	3.388050E-17	9.466038E-18
3.930000E+03	3.487078E-17	9.667439E-18
3.940000E+03	3.589161E-17	9.872387E-18
3.950000E+03	3.694100E-17	1.008009E-17
3.960000E+03	3.802080E-17	1.029079E-17
3.970000E+03	3.913157E-17	1.050440E-17
3.980000E+03	4.027519E-17	1.072114E-17
3.990000E+03	4.144963E-17	1.094020E-17
4.000000E+03	4.265544E-17	1.116144E-17
4.010000E+03	4.389588E-17	1.138544E-17
4.020000E+03	4.516883E-17	1.161134E-17
4.030000E+03	4.647488E-17	1.183900E-17
4.040000E+03	4.781597E-17	1.206862E-17
4.050000E+03	4.919271E-17	1.230001E-17
4.060000E+03	5.060288E-17	1.253231E-17
4.070000E+03	5.204843E-17	1.276568E-17
4.080000E+03	5.352994E-17	1.299993E-17
4.090000E+03	5.504654E-17	1.323451E-17
4.100000E+03	5.659876E-17	1.346920E-17
4.110000E+03	5.818861E-17	1.370413E-17
4.120000E+03	5.981369E-17	1.393839E-17
4.130000E+03	6.147448E-17	1.417173E-17
4.140000E+03	6.317149E-17	1.440392E-17
4.150000E+03	6.490671E-17	1.463503E-17
4.160000E+03	6.667606E-17	1.486378E-17
4.170000E+03	6.848148E-17	1.509025E-17
4.180000E+03	7.032340E-17	1.531414E-17
4.190000E+03	7.220067E-17	1.553485E-17
4.200000E+03	7.411365E-17	1.575207E-17
4.210000E+03	7.605950E-17	1.596484E-17
4.220000E+03	7.804012E-17	1.617318E-17
4.230000E+03	8.005580E-17	1.637680E-17
4.240000E+03	8.210353E-17	1.657470E-17
4.250000E+03	8.418187E-17	1.676624E-17
4.260000E+03	8.629261E-17	1.695145E-17
4.270000E+03	8.843424E-17	1.712966E-17
4.280000E+03	9.060517E-17	1.730023E-17
4.290000E+03	9.280372E-17	1.746252E-17
4.300000E+03	9.502815E-17	1.761589E-17
4.310000E+03	9.728014E-17	1.776035E-17
4.320000E+03	9.955612E-17	1.789495E-17
4.330000E+03	1.018542E-16	1.801908E-17
4.340000E+03	1.041723E-16	1.813213E-17
4.350000E+03	1.065120E-16	1.823413E-17
4.360000E+03	1.088675E-16	1.832390E-17
4.370000E+03	1.112385E-16	1.840117E-17
4.380000E+03	1.136246E-16	1.846571E-17
4.390000E+03	1.160196E-16	1.851640E-17
4.400000E+03	1.184268E-16	1.855366E-17
4.410000E+03	1.208398E-16	1.857641E-17
4.420000E+03	1.232562E-16	1.858424E-17
4.430000E+03	1.256771E-16	1.857732E-17
4.440000E+03	1.280997E-16	1.855527E-17
4.450000E+03	1.305213E-16	1.851778E-17
4.460000E+03	1.329411E-16	1.846482E-17
4.470000E+03	1.353562E-16	1.839616E-17
4.480000E+03	1.377636E-16	1.831159E-17
4.490000E+03	1.401664E-16	1.821177E-17
4.500000E+03	1.425615E-16	1.809658E-17
4.510000E+03	1.449459E-16	1.796600E-17
4.520000E+03	1.473206E-16	1.782054E-17
4.530000E+03	1.496846E-16	1.766054E-17
4.540000E+03	1.520369E-16	1.748639E-17
4.550000E+03	1.543762E-16	1.729857E-17
4.560000E+03	1.567017E-16	1.709763E-17
4.570000E+03	1.590142E-16	1.688446E-17
4.580000E+03	1.613107E-16	1.665955E-17
4.590000E+03	1.635944E-16	1.642422E-17
4.600000E+03	1.658620E-16	1.617919E-17
4.610000E+03	1.681103E-16	1.592538E-17
4.620000E+03	1.703449E-16	1.566466E-17
4.630000E+03	1.725602E-16	1.539803E-17
4.640000E+03	1.747574E-16	1.512730E-17
4.650000E+03	1.769356E-16	1.485424E-17
4.660000E+03	1.790936E-16	1.458087E-17
4.670000E+03	1.812327E-16	1.430959E-17
4.680000E+03	1.833497E-16	1.404269E-17
4.690000E+03	1.854436E-16	1.378288E-17
4.700000E+03	1.875155E-16	1.353332E-17
4.710000E+03	1.895623E-16	1.329704E-17
4.720000E+03	1.915853E-16	1.307765E-17
4.730000E+03	1.935811E-16	1.287859E-17
4.740000E+03	1.955464E-16	1.270348E-17
4.750000E+03	1.974850E-16	1.255645E-17
4.760000E+03	1.993912E-16	1.244094E-17
4.770000E+03	2.012662E-16	1.236071E-17
4.780000E+03	2.031093E-16	1.231905E-17
4.790000E+03	2.049194E-16	1.231883E-17
4.800000E+03	2.066980E-16	1.236245E-17
4.810000E+03	2.084419E-16	1.245138E-17
4.820000E+03	2.101550E-16	1.258676E-17
4.830000E+03	2.118389E-16	1.276881E-17
4.840000E+03	2.134905E-16	1.299674E-17
4.850000E+03	2.151139E-16	1.326952E-17
4.860000E+03	2.167108E-16	1.358543E-17
4.870000E+03	2.182781E-16	1.394201E-17
4.880000E+03	2.198176E-16	1.433677E-17
4.890000E+03	2.213312E-16	1.476703E-17
4.900000E+03	2.228183E-16	1.522986E-17
4.910000E+03	2.242808E-16	1.572246E-17
4.920000E+03	2.257181E-16	1.624194E-17
4.930000E+03	2.271324E-16	1.678566E-17
4.940000E+03	2.285179E-16	1.735054E-17
4.950000E+03	2.298819E-16	1.793461E-17
4.960000E+03	2.312214E-16	1.853527E-17
4.970000E+03	2.325358E-16	1.915028E-17
4.980000E+03	2.338275E-16	1.977777E-17
4.990000E+03	2.350960E-16	2.041581E-17
5.000000E+03	2.363384E-16	2.106235E-17
5.010000E+03	2.375595E-16	2.171620E-17
5.020000E+03	2.387564E-16	2.237558E-17
5.030000E+03	2.399288E-16	2.303905E-17
5.040000E+03	2.410790E-16	2.370552E-17
5.050000E+03	2.422043E-16	2.437350E-17
5.060000E+03	2.433096E-16	2.504237E-17
5.070000E+03	2.443867E-16	2.571023E-17
5.080000E+03	2.454435E-16	2.637690E-17
5.090000E+03	2.464771E-16	2.704117E-17
5.100000E+03	2.474847E-16	2.770186E-17
5.110000E+03	2.484714E-16	2.835872E-17
5.120000E+03	2.494319E-16	2.901038E-17
5.130000E+03	2.503713E-16	2.965671E-17
5.140000E+03	2.512869E-16	3.029671E-17
5.150000E+03	2.521787E-16	3.092972E-17
5.160000E+03	2.530464E-16	3.155513E-17
5.170000E+03	2.538902E-16	3.217233E-17
5.180000E+03	2.547100E-16	3.278077E-17
5.190000E+03	2.555084E-16	3.338028E-17
5.200000E+03	2.562827E-16	3.397001E-17
5.210000E+03	2.570331E-16	3.454948E-17
5.220000E+03	2.577594E-16	3.511823E-17
5.230000E+03	2.584617E-16	3.567585E-17
5.240000E+03	2.591400E-16	3.622190E-17
5.250000E+03	2.597945E-16	3.675602E-17
5.260000E+03	2.604279E-16	3.727823E-17
5.270000E+03	2.610349E-16	3.778739E-17
5.280000E+03	2.616209E-16	3.828396E-17
5.290000E+03	2.621807E-16	3.876684E-17
5.300000E+03	2.627170E-16	3.923613E-17
5.310000E+03	2.632301E-16	3.969155E-17
5.320000E+03	2.637199E-16	4.013284E-17
5.330000E+03	2.641868E-16	4.055974E-17
5.340000E+03	2.646307E-16	4.097204E-17
5.350000E+03	2.650492E-16	4.136908E-17
5.360000E+03	2.654425E-16	4.175066E-17
5.370000E+03	2.658160E-16	4.211744E-17
5.380000E+03	2.661620E-16	4.246795E-17
5.390000E+03	2.664859E-16	4.280289E-17
5.400000E+03	2.667881E-16	4.312212E-17
5.410000E+03	2.670660E-16	4.342505E-17
5.420000E+03	2.673198E-16	4.371157E-17
5.430000E+03	2.675497E-16	4.398154E-17
5.440000E+03	2.677561E-16	4.423488E-17
5.450000E+03	2.679391E-16	4.447148E-17
5.460000E+03	2.680990E-16	4.469128E-17
5.470000E+03	2.682360E-16	4.489420E-17
5.480000E+03	2.683478E-16	4.507973E-17
5.490000E+03	2.684373E-16	4.524830E-17
5.500000E+03	2.685021E-16	4.539940E-17
5.510000E+03	2.685451E-16	4.553347E-17
5.520000E+03	2.685641E-16	4.565004E-17
5.530000E+03	2.685592E-16	4.574912E-17
5.540000E+03	2.685336E-16	4.583117E-17
5.550000E+03	2.684848E-16	4.589576E-17
5.560000E+03	2.684185E-16	4.594382E-17
5.570000E+03	2.683270E-16	4.597404E-17
5.580000E+03	2.682186E-16	4.598783E-17
5.590000E+03	2.680911E-16	4.598479E-17
5.600000E+03	2.679447E-16	4.596499E-17
5.610000E+03	2.677825E-16	4.592896E-17
5.620000E+03	2.675995E-16	4.587588E-17
5.630000E+03	2.673986E-16	4.580628E-17
5.640000E+03	2.671829E-16	4.572072E-17
5.650000E+03	2.669474E-16	4.561841E-17
5.660000E+03	2.666978E-16	4.550034E-17
5.670000E+03	2.664291E-16	4.536576E-17
5.680000E+03	2.661470E-16	4.521567E-17
5.690000E+03	2.658467E-16	4.504932E-17
5.700000E+03	2.655310E-16	4.486729E-17
5.710000E+03	2.652004E-16	4.466973E-17
5.720000E+03	2.648526E-16	4.445636E-17
5.730000E+03	2.644881E-16	4.422733E-17
5.740000E+03	2.641097E-16	4.398324E-17
5.750000E+03	2.637154E-16	4.372384E-17
5.760000E+03	2.633080E-16	4.344973E-17
5.770000E+03	2.628829E-16	4.316024E-17
5.780000E+03	2.624430E-16	4.285598E-17
5.790000E+03	2.619886E-16	4.253716E-17
5.800000E+03	2.615203E-16	4.220397E-17
5.810000E+03	2.610358E-16	4.185620E-17
5.820000E+03	2.605381E-16	4.149448E-17
5.830000E+03	2.600226E-16	4.111822E-17
5.840000E+03	2.594947E-16	4.072845E-17
5.850000E+03	2.589523E-16	4.032499E-17
5.860000E+03	2.583933E-16	3.990770E-17
5.870000E+03	2.578207E-16	3.947720E-17
5.880000E+03	2.572324E-16	3.903336E-17
5.890000E+03	2.566312E-16	3.857680E-17
5.900000E+03	2.560152E-16	3.810741E-17
5.910000E+03	2.553823E-16	3.762510E-17
5.920000E+03	2.547379E-16	3.713084E-17
5.930000E+03	2.540774E-16	3.662421E-17
5.940000E+03	2.534037E-16	3.610583E-17
5.950000E+03	2.527148E-16	3.557564E-17
5.960000E+03	2.520112E-16	3.503393E-17
5.970000E+03	2.512957E-16	3.448134E-17
5.980000E+03	2.505638E-16	3.391749E-17
5.990000E+03	2.498209E-16	3.334335E-17
6.000000E+03	2.490625E-16	3.275859E-17
6.010000E+03	2.482937E-16	3.216414E-17
6.020000E+03	2.475104E-16	3.155971E-17
6.030000E+03	2.467127E-16	3.094563E-17
6.040000E+03	2.459060E-16	3.032281E-17
6.050000E+03	2.450858E-16	2.969102E-17
6.060000E+03	2.442549E-16	2.905086E-17
6.070000E+03	2.434136E-16	2.840269E-17
6.080000E+03	2.425624E-16	2.774684E-17
6.090000E+03	2.416993E-16	2.708341E-17
6.100000E+03	2.408292E-16	2.641328E-17
6.110000E+03	2.399478E-16	2.573631E-17
6.120000E+03	2.390602E-16	2.505338E-17
6.130000E+03	2.381620E-16	2.436439E-17
6.140000E+03	2.372536E-16	2.366977E-17
6.150000E+03	2.363376E-16	2.297016E-17
6.160000E+03	2.354098E-16	2.226559E-17
6.170000E+03	2.344658E-16	2.155613E-17
6.180000E+03	2.335039E-16	2.084214E-17
6.190000E+03	2.325266E-16	2.012445E-17
6.200000E+03	2.315343E-16	1.940368E-17
6.210000E+03	2.305319E-16	1.868087E-17
6.220000E+03	2.295241E-16	1.795708E-17
6.230000E+03	2.285089E-16	1.723283E-17
6.240000E+03	2.274889E-16	1.650910E-17
6.250000E+03	2.264665E-16	1.578691E-17
6.260000E+03	2.254419E-16	1.506722E-17
6.270000E+03	2.244131E-16	1.435100E-17
6.280000E+03	2.233825E-16	1.363966E-17
6.290000E+03	2.223526E-16	1.293480E-17
6.300000E+03	2.213191E-16	1.223787E-17
6.310000E+03	2.202866E-16	1.155118E-17
6.320000E+03	2.192552E-16	1.087716E-17
6.330000E+03	2.182231E-16	1.021863E-17
6.340000E+03	2.171946E-16	9.579365E-18
6.350000E+03	2.161656E-16	8.963531E-18
6.360000E+03	2.151407E-16	8.376629E-18
6.370000E+03	2.141199E-16	7.825115E-18
6.380000E+03	2.131012E-16	7.316684E-18
6.390000E+03	2.120890E-16	6.860626E-18
6.400000E+03	2.110814E-16	6.467199E-18
6.410000E+03	2.100806E-16	6.147442E-18
6.420000E+03	2.090845E-16	5.911814E-18
6.430000E+03	2.080931E-16	5.768810E-18
6.440000E+03	2.071108E-16	5.723267E-18
6.450000E+03	2.061311E-16	5.774729E-18
6.460000E+03	2.051563E-16	5.917838E-18
6.470000E+03	2.041840E-16	6.143035E-18
6.480000E+03	2.032143E-16	6.438484E-18
6.490000E+03	2.022449E-16	6.791690E-18
6.500000E+03	2.012737E-16	7.190812E-18
6.510000E+03	2.003048E-16	7.625596E-18
6.520000E+03	1.993401E-16	8.087335E-18
6.530000E+03	1.983839E-16	8.568979E-18
6.540000E+03	1.974337E-16	9.064597E-18
6.550000E+03	1.964938E-16	9.569692E-18
6.560000E+03	1.955660E-16	1.008063E-17
6.570000E+03	1.946501E-16	1.059444E-17
6.580000E+03	1.937462E-16	1.110875E-17
6.590000E+03	1.928559E-16	1.162177E-17
6.600000E+03	1.919793E-16	1.213199E-17
6.610000E+03	1.911183E-16	1.263832E-17
6.620000E+03	1.902686E-16	1.313952E-17
6.630000E+03	1.894341E-16	1.363507E-17
6.640000E+03	1.886127E-16	1.412419E-17
6.650000E+03	1.878063E-16	1.460655E-17
6.660000E+03	1.870147E-16	1.508174E-17
6.670000E+03	1.862379E-16	1.554944E-17
6.680000E+03	1.854736E-16	1.600925E-17
6.690000E+03	1.847258E-16	1.646132E-17
6.700000E+03	1.839923E-16	1.690535E-17
6.710000E+03	1.832709E-16	1.734103E-17
6.720000E+03	1.825657E-16	1.776868E-17
6.730000E+03	1.818743E-16	1.818807E-17
6.740000E+03	1.811988E-16	1.859939E-17
6.750000E+03	1.805370E-16	1.900244E-17
6.760000E+03	1.798887E-16	1.939724E-17
6.770000E+03	1.792558E-16	1.978405E-17
6.780000E+03	1.786362E-16	2.016267E-17
6.790000E+03	1.780317E-16	2.053341E-17
6.800000E+03	1.774403E-16	2.089609E-17
6.810000E+03	1.768637E-16	2.125102E-17
6.820000E+03	1.763000E-16	2.159803E-17
6.830000E+03	1.757529E-16	2.193771E-17
6.840000E+03	1.752163E-16	2.226938E-17
6.850000E+03	1.746961E-16	2.259390E-17
6.860000E+03	1.741882E-16	2.291084E-17
6.870000E+03	1.736944E-16	2.322055E-17
6.880000E+03	1.732147E-16	2.352314E-17
6.890000E+03	1.727489E-16	2.381869E-17
6.900000E+03	1.722949E-16	2.410704E-17
6.910000E+03	1.718545E-16	2.438854E-17
6.920000E+03	1.714278E-16	2.466331E-17
6.930000E+03	1.710124E-16	2.493113E-17
6.940000E+03	1.706104E-16	2.519240E-17
6.950000E+03	1.702196E-16	2.544691E-17
6.960000E+03	1.698439E-16	2.569536E-17
6.970000E+03	1.694772E-16	2.593693E-17
6.980000E+03	1.691234E-16	2.617231E-17
6.990000E+03	1.687824E-16	2.640160E-17
7.000000E+03	1.684521E-16	2.662458E-17
7.010000E+03	1.681323E-16	2.684133E-17
7.020000E+03	1.678250E-16	2.705225E-17
7.030000E+03	1.675281E-16	2.725710E-17
7.040000E+03	1.672414E-16	2.745597E-17
7.050000E+03	1.669649E-16	2.764895E-17
7.060000E+03	1.666985E-16	2.783609E-17
7.070000E+03	1.664400E-16	2.801716E-17
7.080000E+03	1.661934E-16	2.819290E-17
7.090000E+03	1.659546E-16	2.836271E-17
7.100000E+03	1.657255E-16	2.852700E-17
7.110000E+03	1.655040E-16	2.868551E-17
7.120000E+03	1.652900E-16	2.883831E-17
7.130000E+03	1.650854E-16	2.898582E-17
7.140000E+03	1.648882E-16	2.912776E-17
7.150000E+03	1.646982E-16	2.926421E-17
7.160000E+03	1.645153E-16	2.939523E-17
7.170000E+03	1.643376E-16	2.952054E-17
7.180000E+03	1.641668E-16	2.964057E-17
7.190000E+03	1.640029E-16	2.975539E-17
7.200000E+03	1.638439E-16	2.986472E-17
7.210000E+03	1.636896E-16	2.996861E-17
7.220000E+03	1.635399E-16	3.006714E-17
7.230000E+03	1.633969E-16	3.016077E-17
7.240000E+03	1.632563E-16	3.024881E-17
7.250000E+03	1.631202E-16	3.033173E-17
7.260000E+03	1.629865E-16	3.040921E-17
7.270000E+03	1.628590E-16	3.048210E-17
7.280000E+03	1.627317E-16	3.054934E-17
7.290000E+03	1.626086E-16	3.061176E-17
7.300000E+03	1.624875E-16	3.066909E-17
7.310000E+03	1.623705E-16	3.072177E-17
7.320000E+03	1.622533E-16	3.076914E-17
7.330000E+03	1.621401E-16	3.081206E-17
7.340000E+03	1.620266E-16	3.084986E-17
7.350000E+03	1.619169E-16	3.088339E-17
7.360000E+03	1.618068E-16	3.091198E-17
7.370000E+03	1.617004E-16	3.093653E-17
7.380000E+03	1.615935E-16	3.095635E-17
7.390000E+03	1.614902E-16	3.097233E-17
7.400000E+03	1.613884E-16	3.098421E-17
7.410000E+03	1.612859E-16	3.099170E-17
7.420000E+03	1.611869E-16	3.099571E-17
7.430000E+03	1.610912E-16	3.099637E-17
7.440000E+03	1.609948E-16	3.099301E-17
7.450000E+03	1.608997E-16	3.098616E-17
7.460000E+03	1.608057E-16	3.097597E-17
7.470000E+03	1.607150E-16	3.096295E-17
7.480000E+03	1.606235E-16	3.094648E-17
7.490000E+03	1.605330E-16	3.092708E-17
7.500000E+03	1.604416E-16	3.090452E-17
7.510000E+03	1.603533E-16	3.087974E-17
7.520000E+03	1.602641E-16	3.085211E-17
7.530000E+03	1.601738E-16	3.082179E-17
7.540000E+03	1.600845E-16	3.078935E-17
7.550000E+03	1.599943E-16	3.075457E-17
7.560000E+03	1.599029E-16	3.071761E-17
7.570000E+03	1.598105E-16	3.067866E-17
7.580000E+03	1.597191E-16	3.063830E-17
7.590000E+03	1.596267E-16	3.059632E-17
7.600000E+03	1.595352E-16	3.055331E-17
7.610000E+03	1.594406E-16	3.050867E-17
7.620000E+03	1.593471E-16	3.046339E-17
7.630000E+03	1.592525E-16	3.041728E-17
7.640000E+03	1.591589E-16	3.037093E-17
7.650000E+03	1.590644E-16	3.032417E-17
7.660000E+03	1.589688E-16	3.027719E-17
7.670000E+03	1.588744E-16	3.023061E-17
7.680000E+03	1.587790E-16	3.018425E-17
7.690000E+03	1.586848E-16	3.013871E-17
7.700000E+03	1.585898E-16	3.009383E-17
7.710000E+03	1.584960E-16	3.005022E-17
7.720000E+03	1.584014E-16	3.000770E-17
7.730000E+03	1.583102E-16	2.996729E-17
7.740000E+03	1.582184E-16	2.992842E-17
7.750000E+03	1.581259E-16	2.989130E-17
7.760000E+03	1.580370E-16	2.985695E-17
