#wls	flux	fluxerr
1.600000E+03	1.733299E-16	9.903423E-17
1.640000E+03	1.783680E-16	1.008487E-16
1.680000E+03	1.837003E-16	1.027412E-16
1.720000E+03	1.893289E-16	1.047052E-16
1.760000E+03	1.952715E-16	1.067421E-16
1.800000E+03	2.015601E-16	1.088606E-16
1.840000E+03	2.081574E-16	1.110314E-16
1.880000E+03	2.151079E-16	1.132688E-16
1.920000E+03	2.224034E-16	1.155586E-16
1.960000E+03	2.300330E-16	1.178851E-16
2.000000E+03	2.379676E-16	1.202234E-16
2.040000E+03	2.461923E-16	1.225568E-16
2.080000E+03	2.546579E-16	1.248519E-16
2.120000E+03	2.632824E-16	1.270610E-16
2.160000E+03	2.720318E-16	1.291618E-16
2.200000E+03	2.808088E-16	1.311039E-16
2.240000E+03	2.895337E-16	1.328481E-16
2.280000E+03	2.981594E-16	1.343730E-16
2.320000E+03	3.066698E-16	1.356730E-16
2.360000E+03	3.150933E-16	1.367629E-16
2.400000E+03	3.234700E-16	1.376619E-16
2.440000E+03	3.318365E-16	1.383874E-16
2.480000E+03	3.402682E-16	1.389718E-16
2.520000E+03	3.487923E-16	1.394264E-16
2.560000E+03	3.574596E-16	1.397715E-16
2.600000E+03	3.662753E-16	1.400089E-16
2.640000E+03	3.752550E-16	1.401451E-16
2.680000E+03	3.843858E-16	1.401767E-16
2.720000E+03	3.936542E-16	1.401011E-16
2.760000E+03	4.030465E-16	1.399175E-16
2.800000E+03	4.125374E-16	1.396225E-16
2.840000E+03	4.221036E-16	1.392152E-16
2.880000E+03	4.317475E-16	1.387049E-16
2.920000E+03	4.414497E-16	1.380945E-16
2.960000E+03	4.512493E-16	1.374063E-16
3.000000E+03	4.611518E-16	1.366516E-16
3.010000E+03	4.636600E-16	1.364586E-16
3.020000E+03	4.661704E-16	1.362608E-16
3.030000E+03	4.686826E-16	1.360584E-16
3.040000E+03	4.712171E-16	1.358575E-16
3.050000E+03	4.737627E-16	1.356548E-16
3.060000E+03	4.763190E-16	1.354505E-16
3.070000E+03	4.788957E-16	1.352473E-16
3.080000E+03	4.814818E-16	1.350422E-16
3.090000E+03	4.840770E-16	1.348354E-16
3.100000E+03	4.867010E-16	1.346322E-16
3.110000E+03	4.893329E-16	1.344271E-16
3.120000E+03	4.919824E-16	1.342227E-16
3.130000E+03	4.946391E-16	1.340162E-16
3.140000E+03	4.973320E-16	1.338157E-16
3.150000E+03	5.000312E-16	1.336131E-16
3.160000E+03	5.027459E-16	1.334108E-16
3.170000E+03	5.054855E-16	1.332115E-16
3.180000E+03	5.082493E-16	1.330148E-16
3.190000E+03	5.110178E-16	1.328158E-16
3.200000E+03	5.138193E-16	1.326218E-16
3.210000E+03	5.166342E-16	1.324277E-16
3.220000E+03	5.194717E-16	1.322358E-16
3.230000E+03	5.223220E-16	1.320436E-16
3.240000E+03	5.251942E-16	1.318534E-16
3.250000E+03	5.280878E-16	1.316650E-16
3.260000E+03	5.310026E-16	1.314783E-16
3.270000E+03	5.339293E-16	1.312908E-16
3.280000E+03	5.368766E-16	1.311048E-16
3.290000E+03	5.398443E-16	1.309199E-16
3.300000E+03	5.428233E-16	1.307339E-16
3.310000E+03	5.458225E-16	1.305488E-16
3.320000E+03	5.488328E-16	1.303624E-16
3.330000E+03	5.518630E-16	1.301765E-16
3.340000E+03	5.549042E-16	1.299889E-16
3.350000E+03	5.579566E-16	1.297995E-16
3.360000E+03	5.610202E-16	1.296081E-16
3.370000E+03	5.640951E-16	1.294145E-16
3.380000E+03	5.671813E-16	1.292187E-16
3.390000E+03	5.702707E-16	1.290184E-16
3.400000E+03	5.733717E-16	1.288154E-16
3.410000E+03	5.764680E-16	1.286059E-16
3.420000E+03	5.795765E-16	1.283933E-16
3.430000E+03	5.826809E-16	1.281738E-16
3.440000E+03	5.857819E-16	1.279472E-16
3.450000E+03	5.888797E-16	1.277135E-16
3.460000E+03	5.919668E-16	1.274707E-16
3.470000E+03	5.950518E-16	1.272204E-16
3.480000E+03	5.981272E-16	1.269607E-16
3.490000E+03	6.011858E-16	1.266898E-16
3.500000E+03	6.042281E-16	1.264075E-16
3.510000E+03	6.072473E-16	1.261121E-16
3.520000E+03	6.102517E-16	1.258052E-16
3.530000E+03	6.132191E-16	1.254817E-16
3.540000E+03	6.161582E-16	1.251432E-16
3.550000E+03	6.190621E-16	1.247881E-16
3.560000E+03	6.219320E-16	1.244164E-16
3.570000E+03	6.247538E-16	1.240248E-16
3.580000E+03	6.275213E-16	1.236121E-16
3.590000E+03	6.302431E-16	1.231796E-16
3.600000E+03	6.328983E-16	1.227230E-16
3.610000E+03	6.354956E-16	1.222439E-16
3.620000E+03	6.380290E-16	1.217408E-16
3.630000E+03	6.404855E-16	1.212111E-16
3.640000E+03	6.428593E-16	1.206536E-16
3.650000E+03	6.451521E-16	1.200684E-16
3.660000E+03	6.473512E-16	1.194532E-16
3.670000E+03	6.494653E-16	1.188094E-16
3.680000E+03	6.514749E-16	1.181333E-16
3.690000E+03	6.533818E-16	1.174254E-16
3.700000E+03	6.551807E-16	1.166845E-16
3.710000E+03	6.568734E-16	1.159111E-16
3.720000E+03	6.584479E-16	1.151031E-16
3.730000E+03	6.599059E-16	1.142608E-16
3.740000E+03	6.612425E-16	1.133835E-16
3.750000E+03	6.624592E-16	1.124715E-16
3.760000E+03	6.635513E-16	1.115242E-16
3.770000E+03	6.645202E-16	1.105420E-16
3.780000E+03	6.653611E-16	1.095243E-16
3.790000E+03	6.660690E-16	1.084704E-16
3.800000E+03	6.666586E-16	1.073829E-16
3.810000E+03	6.671119E-16	1.062593E-16
3.820000E+03	6.674369E-16	1.051011E-16
3.830000E+03	6.676414E-16	1.039098E-16
3.840000E+03	6.677139E-16	1.026839E-16
3.850000E+03	6.676560E-16	1.014241E-16
3.860000E+03	6.674752E-16	1.001317E-16
3.870000E+03	6.671728E-16	9.880751E-17
3.880000E+03	6.667497E-16	9.745194E-17
3.890000E+03	6.662011E-16	9.606471E-17
3.900000E+03	6.655340E-16	9.464734E-17
3.910000E+03	6.647496E-16	9.320043E-17
3.920000E+03	6.638487E-16	9.172462E-17
3.930000E+03	6.628324E-16	9.022055E-17
3.940000E+03	6.617014E-16	8.868891E-17
3.950000E+03	6.604626E-16	8.713119E-17
3.960000E+03	6.591168E-16	8.554808E-17
3.970000E+03	6.576587E-16	8.393954E-17
3.980000E+03	6.561010E-16	8.230784E-17
3.990000E+03	6.544384E-16	8.065301E-17
4.000000E+03	6.526775E-16	7.897658E-17
4.010000E+03	6.508187E-16	7.727936E-17
4.020000E+03	6.488571E-16	7.556156E-17
4.030000E+03	6.468047E-16	7.382545E-17
4.040000E+03	6.446565E-16	7.207131E-17
4.050000E+03	6.424188E-16	7.030079E-17
4.060000E+03	6.400923E-16	6.851493E-17
4.070000E+03	6.376774E-16	6.671483E-17
4.080000E+03	6.351751E-16	6.490167E-17
4.090000E+03	6.325915E-16	6.307725E-17
4.100000E+03	6.299220E-16	6.124233E-17
4.110000E+03	6.271672E-16	5.939834E-17
4.120000E+03	6.243392E-16	5.754781E-17
4.130000E+03	6.214280E-16	5.569132E-17
4.140000E+03	6.184400E-16	5.383113E-17
4.150000E+03	6.153764E-16	5.196909E-17
4.160000E+03	6.122385E-16	5.010723E-17
4.170000E+03	6.090277E-16	4.824778E-17
4.180000E+03	6.057454E-16	4.639314E-17
4.190000E+03	6.023933E-16	4.454599E-17
4.200000E+03	5.989734E-16	4.270927E-17
4.210000E+03	5.954875E-16	4.088626E-17
4.220000E+03	5.919378E-16	3.908061E-17
4.230000E+03	5.883217E-16	3.729609E-17
4.240000E+03	5.846418E-16	3.553741E-17
4.250000E+03	5.809061E-16	3.381017E-17
4.260000E+03	5.771177E-16	3.212039E-17
4.270000E+03	5.732700E-16	3.047444E-17
4.280000E+03	5.693717E-16	2.888057E-17
4.290000E+03	5.654268E-16	2.734792E-17
4.300000E+03	5.614398E-16	2.588696E-17
4.310000E+03	5.574152E-16	2.450960E-17
4.320000E+03	5.533530E-16	2.322901E-17
4.330000E+03	5.492682E-16	2.206035E-17
4.340000E+03	5.451564E-16	2.101894E-17
4.350000E+03	5.410327E-16	2.012116E-17
4.360000E+03	5.369022E-16	1.938214E-17
4.370000E+03	5.327743E-16	1.881476E-17
4.380000E+03	5.286523E-16	1.842753E-17
4.390000E+03	5.245422E-16	1.822319E-17
4.400000E+03	5.204432E-16	1.819748E-17
4.410000E+03	5.163613E-16	1.833978E-17
4.420000E+03	5.122914E-16	1.863379E-17
4.430000E+03	5.082276E-16	1.905978E-17
4.440000E+03	5.041732E-16	1.959695E-17
4.450000E+03	5.001222E-16	2.022435E-17
4.460000E+03	4.960736E-16	2.092251E-17
4.470000E+03	4.920312E-16	2.167416E-17
4.480000E+03	4.879859E-16	2.246364E-17
4.490000E+03	4.839423E-16	2.327810E-17
4.500000E+03	4.799013E-16	2.410657E-17
4.510000E+03	4.758593E-16	2.493971E-17
4.520000E+03	4.718179E-16	2.576995E-17
4.530000E+03	4.677789E-16	2.659113E-17
4.540000E+03	4.637443E-16	2.739821E-17
4.550000E+03	4.597165E-16	2.818714E-17
4.560000E+03	4.556937E-16	2.895441E-17
4.570000E+03	4.516745E-16	2.969714E-17
4.580000E+03	4.476704E-16	3.041388E-17
4.590000E+03	4.436760E-16	3.110251E-17
4.600000E+03	4.396904E-16	3.176160E-17
4.610000E+03	4.357211E-16	3.239061E-17
4.620000E+03	4.317717E-16	3.298905E-17
4.630000E+03	4.278333E-16	3.355566E-17
4.640000E+03	4.239219E-16	3.409134E-17
4.650000E+03	4.200248E-16	3.459488E-17
4.660000E+03	4.161540E-16	3.506717E-17
4.670000E+03	4.123091E-16	3.550827E-17
4.680000E+03	4.084900E-16	3.591833E-17
4.690000E+03	4.046964E-16	3.629757E-17
4.700000E+03	4.009284E-16	3.664629E-17
4.710000E+03	3.971938E-16	3.696558E-17
4.720000E+03	3.934885E-16	3.725553E-17
4.730000E+03	3.898127E-16	3.751660E-17
4.740000E+03	3.861701E-16	3.774968E-17
4.750000E+03	3.825533E-16	3.795457E-17
4.760000E+03	3.789738E-16	3.813297E-17
4.770000E+03	3.754203E-16	3.828436E-17
4.780000E+03	3.719007E-16	3.841010E-17
4.790000E+03	3.684151E-16	3.851086E-17
4.800000E+03	3.649564E-16	3.858650E-17
4.810000E+03	3.615286E-16	3.863807E-17
4.820000E+03	3.581357E-16	3.866665E-17
4.830000E+03	3.547708E-16	3.867214E-17
4.840000E+03	3.514379E-16	3.865563E-17
4.850000E+03	3.481374E-16	3.861781E-17
4.860000E+03	3.448663E-16	3.855900E-17
4.870000E+03	3.416251E-16	3.847991E-17
4.880000E+03	3.384179E-16	3.838164E-17
4.890000E+03	3.352416E-16	3.826451E-17
4.900000E+03	3.321003E-16	3.812965E-17
4.910000E+03	3.289878E-16	3.797698E-17
4.920000E+03	3.259081E-16	3.780762E-17
4.930000E+03	3.228620E-16	3.762230E-17
4.940000E+03	3.198467E-16	3.742135E-17
4.950000E+03	3.168663E-16	3.720587E-17
4.960000E+03	3.139182E-16	3.697622E-17
4.970000E+03	3.110065E-16	3.673350E-17
4.980000E+03	3.081288E-16	3.647805E-17
4.990000E+03	3.052857E-16	3.621060E-17
5.000000E+03	3.024752E-16	3.593149E-17
5.010000E+03	2.997042E-16	3.564220E-17
5.020000E+03	2.969675E-16	3.534271E-17
5.030000E+03	2.942660E-16	3.503374E-17
5.040000E+03	2.916036E-16	3.471639E-17
5.050000E+03	2.889784E-16	3.439101E-17
5.060000E+03	2.863913E-16	3.405833E-17
5.070000E+03	2.838433E-16	3.371906E-17
5.080000E+03	2.813355E-16	3.337394E-17
5.090000E+03	2.788659E-16	3.302334E-17
5.100000E+03	2.764357E-16	3.266799E-17
5.110000E+03	2.740489E-16	3.230896E-17
5.120000E+03	2.717009E-16	3.194630E-17
5.130000E+03	2.693985E-16	3.158140E-17
5.140000E+03	2.671345E-16	3.121402E-17
5.150000E+03	2.649156E-16	3.084555E-17
5.160000E+03	2.627404E-16	3.047639E-17
5.170000E+03	2.606100E-16	3.010729E-17
5.180000E+03	2.585257E-16	2.973900E-17
5.190000E+03	2.564861E-16	2.937194E-17
5.200000E+03	2.544926E-16	2.900688E-17
5.210000E+03	2.525438E-16	2.864428E-17
5.220000E+03	2.506463E-16	2.828548E-17
5.230000E+03	2.487937E-16	2.793038E-17
5.240000E+03	2.469899E-16	2.758003E-17
5.250000E+03	2.452364E-16	2.723520E-17
5.260000E+03	2.435344E-16	2.689665E-17
5.270000E+03	2.418805E-16	2.656463E-17
5.280000E+03	2.402784E-16	2.624017E-17
5.290000E+03	2.387273E-16	2.592378E-17
5.300000E+03	2.372283E-16	2.561624E-17
5.310000E+03	2.357807E-16	2.531806E-17
5.320000E+03	2.343881E-16	2.503026E-17
5.330000E+03	2.330471E-16	2.475309E-17
5.340000E+03	2.317592E-16	2.448729E-17
5.350000E+03	2.305234E-16	2.423335E-17
5.360000E+03	2.293433E-16	2.399223E-17
5.370000E+03	2.282132E-16	2.376389E-17
5.380000E+03	2.271368E-16	2.354924E-17
5.390000E+03	2.261129E-16	2.334867E-17
5.400000E+03	2.251403E-16	2.316254E-17
5.410000E+03	2.242135E-16	2.299070E-17
5.420000E+03	2.233312E-16	2.283345E-17
5.430000E+03	2.224921E-16	2.269100E-17
5.440000E+03	2.216860E-16	2.256263E-17
5.450000E+03	2.209116E-16	2.244845E-17
5.460000E+03	2.201606E-16	2.234782E-17
5.470000E+03	2.194294E-16	2.226050E-17
5.480000E+03	2.187250E-16	2.218725E-17
5.490000E+03	2.180455E-16	2.212786E-17
5.500000E+03	2.173974E-16	2.208292E-17
5.510000E+03	2.167829E-16	2.205249E-17
5.520000E+03	2.162103E-16	2.203720E-17
5.530000E+03	2.156770E-16	2.203650E-17
5.540000E+03	2.151867E-16	2.205043E-17
5.550000E+03	2.147385E-16	2.207855E-17
5.560000E+03	2.143383E-16	2.212100E-17
5.570000E+03	2.139827E-16	2.217698E-17
5.580000E+03	2.136728E-16	2.224611E-17
5.590000E+03	2.134076E-16	2.232773E-17
5.600000E+03	2.131900E-16	2.242161E-17
5.610000E+03	2.130166E-16	2.252683E-17
5.620000E+03	2.128883E-16	2.264289E-17
5.630000E+03	2.128057E-16	2.276927E-17
5.640000E+03	2.127675E-16	2.290524E-17
5.650000E+03	2.127745E-16	2.305028E-17
5.660000E+03	2.128229E-16	2.320340E-17
5.670000E+03	2.129135E-16	2.336411E-17
5.680000E+03	2.130469E-16	2.353190E-17
5.690000E+03	2.132219E-16	2.370605E-17
5.700000E+03	2.134367E-16	2.388585E-17
5.710000E+03	2.136901E-16	2.407059E-17
5.720000E+03	2.139850E-16	2.426011E-17
5.730000E+03	2.143156E-16	2.445321E-17
5.740000E+03	2.146848E-16	2.464976E-17
5.750000E+03	2.150914E-16	2.484913E-17
5.760000E+03	2.155317E-16	2.505045E-17
5.770000E+03	2.160066E-16	2.525336E-17
5.780000E+03	2.165172E-16	2.545757E-17
5.790000E+03	2.170598E-16	2.566223E-17
5.800000E+03	2.176331E-16	2.586679E-17
5.810000E+03	2.182407E-16	2.607128E-17
5.820000E+03	2.188765E-16	2.627461E-17
5.830000E+03	2.195417E-16	2.647658E-17
5.840000E+03	2.202352E-16	2.667668E-17
5.850000E+03	2.209558E-16	2.687444E-17
5.860000E+03	2.217047E-16	2.706970E-17
5.870000E+03	2.224760E-16	2.726141E-17
5.880000E+03	2.232735E-16	2.744974E-17
5.890000E+03	2.240936E-16	2.763396E-17
5.900000E+03	2.249352E-16	2.781365E-17
5.910000E+03	2.257972E-16	2.798841E-17
5.920000E+03	2.266785E-16	2.815784E-17
5.930000E+03	2.275807E-16	2.832190E-17
5.940000E+03	2.284976E-16	2.847956E-17
5.950000E+03	2.294280E-16	2.863047E-17
5.960000E+03	2.303735E-16	2.877460E-17
5.970000E+03	2.313331E-16	2.891162E-17
5.980000E+03	2.323003E-16	2.904053E-17
5.990000E+03	2.332793E-16	2.916168E-17
6.000000E+03	2.342611E-16	2.927378E-17
6.010000E+03	2.352525E-16	2.937753E-17
6.020000E+03	2.362442E-16	2.947165E-17
6.030000E+03	2.372351E-16	2.955586E-17
6.040000E+03	2.382266E-16	2.963026E-17
6.050000E+03	2.392148E-16	2.969427E-17
6.060000E+03	2.401984E-16	2.974769E-17
6.070000E+03	2.411703E-16	2.978961E-17
6.080000E+03	2.421350E-16	2.982057E-17
6.090000E+03	2.430824E-16	2.983935E-17
6.100000E+03	2.440169E-16	2.984653E-17
6.110000E+03	2.449341E-16	2.984167E-17
6.120000E+03	2.458296E-16	2.982432E-17
6.130000E+03	2.467019E-16	2.979445E-17
6.140000E+03	2.475523E-16	2.975241E-17
6.150000E+03	2.483765E-16	2.969788E-17
6.160000E+03	2.491727E-16	2.963091E-17
6.170000E+03	2.499456E-16	2.955236E-17
6.180000E+03	2.506876E-16	2.946163E-17
6.190000E+03	2.514001E-16	2.935929E-17
6.200000E+03	2.520849E-16	2.924595E-17
6.210000E+03	2.527437E-16	2.912227E-17
6.220000E+03	2.533718E-16	2.898822E-17
6.230000E+03	2.539677E-16	2.884416E-17
6.240000E+03	2.545334E-16	2.869092E-17
6.250000E+03	2.550640E-16	2.852861E-17
6.260000E+03	2.555614E-16	2.835814E-17
6.270000E+03	2.560242E-16	2.818011E-17
6.280000E+03	2.564544E-16	2.799554E-17
6.290000E+03	2.568507E-16	2.780514E-17
6.300000E+03	2.572117E-16	2.760967E-17
6.310000E+03	2.575397E-16	2.741032E-17
6.320000E+03	2.578369E-16	2.720833E-17
6.330000E+03	2.580987E-16	2.700424E-17
6.340000E+03	2.583274E-16	2.679938E-17
6.350000E+03	2.585256E-16	2.659514E-17
6.360000E+03	2.586885E-16	2.639218E-17
6.370000E+03	2.588224E-16	2.619234E-17
6.380000E+03	2.589263E-16	2.599670E-17
6.390000E+03	2.589995E-16	2.580640E-17
6.400000E+03	2.590411E-16	2.562255E-17
6.410000E+03	2.590577E-16	2.544704E-17
6.420000E+03	2.590448E-16	2.528060E-17
6.430000E+03	2.590095E-16	2.512507E-17
6.440000E+03	2.589511E-16	2.498150E-17
6.450000E+03	2.588692E-16	2.485089E-17
6.460000E+03	2.587671E-16	2.473456E-17
6.470000E+03	2.586445E-16	2.463335E-17
6.480000E+03	2.585050E-16	2.454842E-17
6.490000E+03	2.583403E-16	2.447968E-17
6.500000E+03	2.581582E-16	2.442843E-17
6.510000E+03	2.579583E-16	2.439509E-17
6.520000E+03	2.577366E-16	2.437957E-17
6.530000E+03	2.574968E-16	2.438241E-17
6.540000E+03	2.572389E-16	2.440361E-17
6.550000E+03	2.569628E-16	2.444306E-17
6.560000E+03	2.566685E-16	2.450049E-17
6.570000E+03	2.563600E-16	2.457589E-17
6.580000E+03	2.560335E-16	2.466835E-17
6.590000E+03	2.556888E-16	2.477723E-17
6.600000E+03	2.553303E-16	2.490222E-17
6.610000E+03	2.549582E-16	2.504247E-17
6.620000E+03	2.545686E-16	2.519669E-17
6.630000E+03	2.541657E-16	2.536433E-17
6.640000E+03	2.537457E-16	2.554394E-17
6.650000E+03	2.533174E-16	2.573535E-17
6.660000E+03	2.528726E-16	2.593662E-17
6.670000E+03	2.524116E-16	2.614667E-17
6.680000E+03	2.519391E-16	2.636485E-17
6.690000E+03	2.514556E-16	2.659012E-17
6.700000E+03	2.509570E-16	2.682094E-17
6.710000E+03	2.504440E-16	2.705630E-17
6.720000E+03	2.499212E-16	2.729567E-17
6.730000E+03	2.493849E-16	2.753760E-17
6.740000E+03	2.488399E-16	2.778168E-17
6.750000E+03	2.482780E-16	2.802603E-17
6.760000E+03	2.477086E-16	2.827082E-17
6.770000E+03	2.471234E-16	2.851425E-17
6.780000E+03	2.465318E-16	2.875661E-17
6.790000E+03	2.459256E-16	2.899616E-17
6.800000E+03	2.453098E-16	2.923278E-17
6.810000E+03	2.446850E-16	2.946588E-17
6.820000E+03	2.440475E-16	2.969435E-17
6.830000E+03	2.434022E-16	2.991825E-17
6.840000E+03	2.427455E-16	3.013653E-17
6.850000E+03	2.420824E-16	3.034935E-17
6.860000E+03	2.414045E-16	3.055517E-17
6.870000E+03	2.407216E-16	3.075478E-17
6.880000E+03	2.400297E-16	3.094730E-17
6.890000E+03	2.393297E-16	3.113244E-17
6.900000E+03	2.386175E-16	3.130937E-17
6.910000E+03	2.379030E-16	3.147905E-17
6.920000E+03	2.371731E-16	3.163949E-17
6.930000E+03	2.364421E-16	3.179233E-17
6.940000E+03	2.357017E-16	3.193623E-17
6.950000E+03	2.349525E-16	3.207107E-17
6.960000E+03	2.341996E-16	3.219736E-17
6.970000E+03	2.334392E-16	3.231443E-17
6.980000E+03	2.326719E-16	3.242220E-17
6.990000E+03	2.318984E-16	3.252065E-17
7.000000E+03	2.311192E-16	3.260976E-17
7.010000E+03	2.303350E-16	3.268952E-17
7.020000E+03	2.295419E-16	3.275929E-17
7.030000E+03	2.287496E-16	3.282040E-17
7.040000E+03	2.279450E-16	3.287093E-17
7.050000E+03	2.271423E-16	3.291288E-17
7.060000E+03	2.263287E-16	3.294435E-17
7.070000E+03	2.255136E-16	3.296672E-17
7.080000E+03	2.246932E-16	3.297940E-17
7.090000E+03	2.238680E-16	3.298248E-17
7.100000E+03	2.230431E-16	3.297671E-17
7.110000E+03	2.222101E-16	3.296086E-17
7.120000E+03	2.213739E-16	3.293570E-17
7.130000E+03	2.205308E-16	3.290069E-17
7.140000E+03	2.196857E-16	3.285658E-17
7.150000E+03	2.188392E-16	3.280352E-17
7.160000E+03	2.179873E-16	3.274095E-17
7.170000E+03	2.171349E-16	3.266967E-17
7.180000E+03	2.162739E-16	3.258849E-17
7.190000E+03	2.154135E-16	3.249887E-17
7.200000E+03	2.145499E-16	3.240028E-17
7.210000E+03	2.136792E-16	3.229220E-17
7.220000E+03	2.128063E-16	3.217545E-17
7.230000E+03	2.119317E-16	3.205018E-17
7.240000E+03	2.110516E-16	3.191587E-17
7.250000E+03	2.101665E-16	3.177267E-17
7.260000E+03	2.092770E-16	3.162076E-17
7.270000E+03	2.083835E-16	3.146028E-17
7.280000E+03	2.074867E-16	3.129141E-17
7.290000E+03	2.065784E-16	3.111300E-17
7.300000E+03	2.056677E-16	3.092653E-17
7.310000E+03	2.047510E-16	3.073152E-17
7.320000E+03	2.038245E-16	3.052752E-17
7.330000E+03	2.028931E-16	3.031533E-17
7.340000E+03	2.019487E-16	3.009388E-17
7.350000E+03	2.009921E-16	2.986338E-17
7.360000E+03	2.000239E-16	2.962401E-17
7.370000E+03	1.990404E-16	2.937537E-17
7.380000E+03	1.980464E-16	2.911830E-17
7.390000E+03	1.970302E-16	2.885118E-17
7.400000E+03	1.960006E-16	2.857546E-17
7.410000E+03	1.949501E-16	2.829018E-17
7.420000E+03	1.938835E-16	2.799618E-17
7.430000E+03	1.927973E-16	2.769314E-17
7.440000E+03	1.916922E-16	2.738131E-17
7.450000E+03	1.905730E-16	2.706153E-17
7.460000E+03	1.894363E-16	2.673350E-17
7.470000E+03	1.882948E-16	2.639919E-17
7.480000E+03	1.871411E-16	2.605770E-17
7.490000E+03	1.859838E-16	2.571040E-17
7.500000E+03	1.848195E-16	2.535696E-17
7.510000E+03	1.836606E-16	2.499926E-17
7.520000E+03	1.825036E-16	2.463695E-17
7.530000E+03	1.813489E-16	2.427023E-17
7.540000E+03	1.802010E-16	2.389982E-17
7.550000E+03	1.790603E-16	2.352592E-17
7.560000E+03	1.779349E-16	2.314973E-17
7.570000E+03	1.768173E-16	2.277037E-17
7.580000E+03	1.757119E-16	2.238852E-17
7.590000E+03	1.746228E-16	2.200484E-17
7.600000E+03	1.735464E-16	2.161896E-17
7.610000E+03	1.724868E-16	2.123153E-17
7.620000E+03	1.714405E-16	2.084221E-17
7.630000E+03	1.704154E-16	2.045208E-17
7.640000E+03	1.694041E-16	2.006035E-17
7.650000E+03	1.684145E-16	1.966808E-17
7.660000E+03	1.674392E-16	1.927450E-17
7.670000E+03	1.664859E-16	1.888066E-17
7.680000E+03	1.655474E-16	1.848583E-17
7.690000E+03	1.646314E-16	1.809102E-17
7.700000E+03	1.637344E-16	1.769598E-17
7.710000E+03	1.628565E-16	1.730088E-17
7.720000E+03	1.619980E-16	1.690590E-17
7.730000E+03	1.611591E-16	1.651127E-17
7.740000E+03	1.603400E-16	1.611719E-17
7.750000E+03	1.595372E-16	1.572355E-17
7.760000E+03	1.587584E-16	1.533133E-17
