#wls	flux	fluxerr
1.600000E+03	1.788979E-16	1.017193E-16
1.640000E+03	1.842159E-16	1.036236E-16
1.680000E+03	1.898458E-16	1.056086E-16
1.720000E+03	1.957901E-16	1.076674E-16
1.760000E+03	2.020677E-16	1.098012E-16
1.800000E+03	2.087126E-16	1.120190E-16
1.840000E+03	2.156863E-16	1.142900E-16
1.880000E+03	2.230359E-16	1.166290E-16
1.920000E+03	2.307533E-16	1.190207E-16
1.960000E+03	2.388277E-16	1.214487E-16
2.000000E+03	2.472294E-16	1.238869E-16
2.040000E+03	2.559433E-16	1.263175E-16
2.080000E+03	2.649185E-16	1.287054E-16
2.120000E+03	2.740698E-16	1.310008E-16
2.160000E+03	2.833617E-16	1.331801E-16
2.200000E+03	2.926925E-16	1.351902E-16
2.240000E+03	3.019786E-16	1.369902E-16
2.280000E+03	3.111703E-16	1.385572E-16
2.320000E+03	3.202499E-16	1.398845E-16
2.360000E+03	3.292462E-16	1.409865E-16
2.400000E+03	3.382002E-16	1.418827E-16
2.440000E+03	3.471494E-16	1.425899E-16
2.480000E+03	3.561720E-16	1.431411E-16
2.520000E+03	3.652957E-16	1.435473E-16
2.560000E+03	3.745731E-16	1.438288E-16
2.600000E+03	3.840090E-16	1.439872E-16
2.640000E+03	3.936193E-16	1.440289E-16
2.680000E+03	4.033900E-16	1.439500E-16
2.720000E+03	4.133063E-16	1.437483E-16
2.760000E+03	4.233536E-16	1.434231E-16
2.800000E+03	4.335050E-16	1.429716E-16
2.840000E+03	4.437358E-16	1.423940E-16
2.880000E+03	4.540486E-16	1.417010E-16
2.920000E+03	4.644234E-16	1.408976E-16
2.960000E+03	4.749022E-16	1.400087E-16
3.000000E+03	4.854918E-16	1.390484E-16
3.010000E+03	4.881741E-16	1.388036E-16
3.020000E+03	4.908590E-16	1.385541E-16
3.030000E+03	4.935460E-16	1.382999E-16
3.040000E+03	4.962570E-16	1.380473E-16
3.050000E+03	4.989801E-16	1.377931E-16
3.060000E+03	5.017148E-16	1.375374E-16
3.070000E+03	5.044715E-16	1.372831E-16
3.080000E+03	5.072387E-16	1.370273E-16
3.090000E+03	5.100161E-16	1.367701E-16
3.100000E+03	5.128244E-16	1.365170E-16
3.110000E+03	5.156418E-16	1.362625E-16
3.120000E+03	5.184785E-16	1.360092E-16
3.130000E+03	5.213235E-16	1.357546E-16
3.140000E+03	5.242076E-16	1.355066E-16
3.150000E+03	5.270992E-16	1.352572E-16
3.160000E+03	5.300083E-16	1.350090E-16
3.170000E+03	5.329447E-16	1.347646E-16
3.180000E+03	5.359078E-16	1.345239E-16
3.190000E+03	5.388772E-16	1.342818E-16
3.200000E+03	5.418826E-16	1.340458E-16
3.210000E+03	5.449036E-16	1.338108E-16
3.220000E+03	5.479500E-16	1.335792E-16
3.230000E+03	5.510116E-16	1.333487E-16
3.240000E+03	5.540979E-16	1.331214E-16
3.250000E+03	5.572087E-16	1.328973E-16
3.260000E+03	5.603438E-16	1.326762E-16
3.270000E+03	5.634934E-16	1.324559E-16
3.280000E+03	5.666670E-16	1.322385E-16
3.290000E+03	5.698644E-16	1.320239E-16
3.300000E+03	5.730762E-16	1.318098E-16
3.310000E+03	5.763117E-16	1.315983E-16
3.320000E+03	5.795618E-16	1.313871E-16
3.330000E+03	5.828355E-16	1.311782E-16
3.340000E+03	5.861239E-16	1.309694E-16
3.350000E+03	5.894272E-16	1.307607E-16
3.360000E+03	5.927455E-16	1.305517E-16
3.370000E+03	5.960790E-16	1.303426E-16
3.380000E+03	5.994281E-16	1.301330E-16
3.390000E+03	6.027841E-16	1.299209E-16
3.400000E+03	6.061562E-16	1.297080E-16
3.410000E+03	6.095274E-16	1.294906E-16
3.420000E+03	6.129155E-16	1.292720E-16
3.430000E+03	6.163037E-16	1.290485E-16
3.440000E+03	6.196925E-16	1.288200E-16
3.450000E+03	6.230827E-16	1.285862E-16
3.460000E+03	6.264664E-16	1.283454E-16
3.470000E+03	6.298526E-16	1.280990E-16
3.480000E+03	6.332339E-16	1.278451E-16
3.490000E+03	6.366025E-16	1.275820E-16
3.500000E+03	6.399594E-16	1.273093E-16
3.510000E+03	6.432973E-16	1.270255E-16
3.520000E+03	6.466253E-16	1.267319E-16
3.530000E+03	6.499200E-16	1.264236E-16
3.540000E+03	6.531906E-16	1.261021E-16
3.550000E+03	6.564302E-16	1.257656E-16
3.560000E+03	6.596400E-16	1.254141E-16
3.570000E+03	6.628053E-16	1.250444E-16
3.580000E+03	6.659196E-16	1.246551E-16
3.590000E+03	6.689921E-16	1.242474E-16
3.600000E+03	6.720008E-16	1.238171E-16
3.610000E+03	6.749550E-16	1.233655E-16
3.620000E+03	6.778483E-16	1.228912E-16
3.630000E+03	6.806671E-16	1.223914E-16
3.640000E+03	6.834054E-16	1.218649E-16
3.650000E+03	6.860648E-16	1.213116E-16
3.660000E+03	6.886320E-16	1.207291E-16
3.670000E+03	6.911161E-16	1.201188E-16
3.680000E+03	6.934967E-16	1.194768E-16
3.690000E+03	6.957754E-16	1.188034E-16
3.700000E+03	6.979467E-16	1.180975E-16
3.710000E+03	7.000124E-16	1.173593E-16
3.720000E+03	7.019597E-16	1.165866E-16
3.730000E+03	7.037904E-16	1.157796E-16
3.740000E+03	7.054991E-16	1.149374E-16
3.750000E+03	7.070875E-16	1.140604E-16
3.760000E+03	7.085501E-16	1.131476E-16
3.770000E+03	7.098886E-16	1.121993E-16
3.780000E+03	7.110977E-16	1.112148E-16
3.790000E+03	7.121717E-16	1.101933E-16
3.800000E+03	7.131264E-16	1.091372E-16
3.810000E+03	7.139422E-16	1.080439E-16
3.820000E+03	7.146274E-16	1.069146E-16
3.830000E+03	7.151904E-16	1.057508E-16
3.840000E+03	7.156186E-16	1.045508E-16
3.850000E+03	7.159133E-16	1.033151E-16
3.860000E+03	7.160824E-16	1.020450E-16
3.870000E+03	7.161269E-16	1.007410E-16
3.880000E+03	7.160478E-16	9.940337E-17
3.890000E+03	7.158394E-16	9.803172E-17
3.900000E+03	7.155091E-16	9.662739E-17
3.910000E+03	7.150576E-16	9.519084E-17
3.920000E+03	7.144858E-16	9.372252E-17
3.930000E+03	7.137943E-16	9.222293E-17
3.940000E+03	7.129836E-16	9.069259E-17
3.950000E+03	7.120607E-16	8.913283E-17
3.960000E+03	7.110262E-16	8.754419E-17
3.970000E+03	7.098740E-16	8.592643E-17
3.980000E+03	7.086174E-16	8.428170E-17
3.990000E+03	7.072501E-16	8.260983E-17
4.000000E+03	7.057789E-16	8.091220E-17
4.010000E+03	7.042040E-16	7.918945E-17
4.020000E+03	7.025194E-16	7.744160E-17
4.030000E+03	7.007378E-16	7.567078E-17
4.040000E+03	6.988531E-16	7.387707E-17
4.050000E+03	6.968718E-16	7.206195E-17
4.060000E+03	6.947939E-16	7.022629E-17
4.070000E+03	6.926198E-16	6.837098E-17
4.080000E+03	6.903495E-16	6.649702E-17
4.090000E+03	6.879894E-16	6.460603E-17
4.100000E+03	6.855337E-16	6.269855E-17
4.110000E+03	6.829826E-16	6.077579E-17
4.120000E+03	6.803486E-16	5.884009E-17
4.130000E+03	6.776200E-16	5.689180E-17
4.140000E+03	6.748033E-16	5.493291E-17
4.150000E+03	6.718991E-16	5.296504E-17
4.160000E+03	6.689079E-16	5.098995E-17
4.170000E+03	6.658306E-16	4.900958E-17
4.180000E+03	6.626681E-16	4.702604E-17
4.190000E+03	6.594212E-16	4.504168E-17
4.200000E+03	6.560914E-16	4.305910E-17
4.210000E+03	6.526798E-16	4.108121E-17
4.220000E+03	6.491880E-16	3.911130E-17
4.230000E+03	6.456122E-16	3.715278E-17
4.240000E+03	6.419543E-16	3.521000E-17
4.250000E+03	6.382224E-16	3.328825E-17
4.260000E+03	6.344189E-16	3.139334E-17
4.270000E+03	6.305355E-16	2.953161E-17
4.280000E+03	6.265811E-16	2.771158E-17
4.290000E+03	6.225594E-16	2.594311E-17
4.300000E+03	6.184742E-16	2.423815E-17
4.310000E+03	6.143301E-16	2.261118E-17
4.320000E+03	6.101265E-16	2.107958E-17
4.330000E+03	6.058798E-16	1.966477E-17
4.340000E+03	6.015851E-16	1.839118E-17
4.350000E+03	5.972597E-16	1.728720E-17
4.360000E+03	5.929107E-16	1.638269E-17
4.370000E+03	5.885510E-16	1.570640E-17
4.380000E+03	5.841886E-16	1.528118E-17
4.390000E+03	5.798362E-16	1.511899E-17
4.400000E+03	5.754927E-16	1.521374E-17
4.410000E+03	5.711585E-16	1.554244E-17
4.420000E+03	5.668244E-16	1.607208E-17
4.430000E+03	5.624820E-16	1.676551E-17
4.440000E+03	5.581339E-16	1.758648E-17
4.450000E+03	5.537735E-16	1.850199E-17
4.460000E+03	5.493999E-16	1.948401E-17
4.470000E+03	5.450183E-16	2.050970E-17
4.480000E+03	5.406191E-16	2.156018E-17
4.490000E+03	5.362087E-16	2.262093E-17
4.500000E+03	5.317887E-16	2.368040E-17
4.510000E+03	5.273563E-16	2.472933E-17
4.520000E+03	5.229141E-16	2.576063E-17
4.530000E+03	5.184650E-16	2.676881E-17
4.540000E+03	5.140122E-16	2.774961E-17
4.550000E+03	5.095590E-16	2.869977E-17
4.560000E+03	5.051042E-16	2.961655E-17
4.570000E+03	5.006470E-16	3.049783E-17
4.580000E+03	4.962008E-16	3.134285E-17
4.590000E+03	4.917601E-16	3.215015E-17
4.600000E+03	4.873245E-16	3.291884E-17
4.610000E+03	4.829030E-16	3.364898E-17
4.620000E+03	4.784998E-16	3.434055E-17
4.630000E+03	4.741055E-16	3.499273E-17
4.640000E+03	4.697383E-16	3.560689E-17
4.650000E+03	4.653843E-16	3.618213E-17
4.660000E+03	4.610571E-16	3.671977E-17
4.670000E+03	4.567567E-16	3.722017E-17
4.680000E+03	4.524830E-16	3.768377E-17
4.690000E+03	4.482360E-16	3.811107E-17
4.700000E+03	4.440159E-16	3.850263E-17
4.710000E+03	4.398314E-16	3.885982E-17
4.720000E+03	4.356783E-16	3.918291E-17
4.730000E+03	4.315566E-16	3.947259E-17
4.740000E+03	4.274709E-16	3.972995E-17
4.750000E+03	4.234127E-16	3.995494E-17
4.760000E+03	4.193949E-16	4.014949E-17
4.770000E+03	4.154052E-16	4.031317E-17
4.780000E+03	4.114521E-16	4.044755E-17
4.790000E+03	4.075359E-16	4.055342E-17
4.800000E+03	4.036487E-16	4.063075E-17
4.810000E+03	3.997949E-16	4.068074E-17
4.820000E+03	3.959790E-16	4.070461E-17
4.830000E+03	3.921933E-16	4.070234E-17
4.840000E+03	3.884422E-16	4.067513E-17
4.850000E+03	3.847262E-16	4.062380E-17
4.860000E+03	3.810418E-16	4.054873E-17
4.870000E+03	3.773897E-16	4.045074E-17
4.880000E+03	3.737743E-16	4.033105E-17
4.890000E+03	3.701922E-16	4.019004E-17
4.900000E+03	3.666479E-16	4.002893E-17
4.910000E+03	3.631345E-16	3.984771E-17
4.920000E+03	3.596564E-16	3.964759E-17
4.930000E+03	3.562143E-16	3.942936E-17
4.940000E+03	3.528054E-16	3.919343E-17
4.950000E+03	3.494340E-16	3.894099E-17
4.960000E+03	3.460973E-16	3.867244E-17
4.970000E+03	3.427997E-16	3.838897E-17
4.980000E+03	3.395384E-16	3.809097E-17
4.990000E+03	3.363145E-16	3.777924E-17
5.000000E+03	3.331253E-16	3.745417E-17
5.010000E+03	3.299787E-16	3.711734E-17
5.020000E+03	3.268688E-16	3.676874E-17
5.030000E+03	3.237967E-16	3.640918E-17
5.040000E+03	3.207667E-16	3.603981E-17
5.050000E+03	3.177765E-16	3.566105E-17
5.060000E+03	3.148273E-16	3.527368E-17
5.070000E+03	3.119202E-16	3.487848E-17
5.080000E+03	3.090562E-16	3.447624E-17
5.090000E+03	3.062335E-16	3.406739E-17
5.100000E+03	3.034532E-16	3.365272E-17
5.110000E+03	3.007198E-16	3.323337E-17
5.120000E+03	2.980281E-16	3.280944E-17
5.130000E+03	2.953858E-16	3.238242E-17
5.140000E+03	2.927850E-16	3.195208E-17
5.150000E+03	2.902331E-16	3.151992E-17
5.160000E+03	2.877285E-16	3.108641E-17
5.170000E+03	2.852726E-16	3.065237E-17
5.180000E+03	2.828668E-16	3.021862E-17
5.190000E+03	2.805097E-16	2.978568E-17
5.200000E+03	2.782028E-16	2.935440E-17
5.210000E+03	2.759449E-16	2.892533E-17
5.220000E+03	2.737430E-16	2.849992E-17
5.230000E+03	2.715904E-16	2.807816E-17
5.240000E+03	2.694914E-16	2.766122E-17
5.250000E+03	2.674477E-16	2.725001E-17
5.260000E+03	2.654610E-16	2.684542E-17
5.270000E+03	2.635273E-16	2.644780E-17
5.280000E+03	2.616511E-16	2.605837E-17
5.290000E+03	2.598315E-16	2.567778E-17
5.300000E+03	2.580701E-16	2.530699E-17
5.310000E+03	2.563661E-16	2.494668E-17
5.320000E+03	2.547237E-16	2.459806E-17
5.330000E+03	2.531394E-16	2.426158E-17
5.340000E+03	2.516150E-16	2.393820E-17
5.350000E+03	2.501496E-16	2.362863E-17
5.360000E+03	2.487474E-16	2.333403E-17
5.370000E+03	2.474025E-16	2.305462E-17
5.380000E+03	2.461189E-16	2.279152E-17
5.390000E+03	2.448958E-16	2.254536E-17
5.400000E+03	2.437321E-16	2.231674E-17
5.410000E+03	2.426219E-16	2.210574E-17
5.420000E+03	2.415641E-16	2.191287E-17
5.430000E+03	2.405576E-16	2.173855E-17
5.440000E+03	2.395914E-16	2.158225E-17
5.450000E+03	2.386643E-16	2.144425E-17
5.460000E+03	2.377676E-16	2.132406E-17
5.470000E+03	2.368974E-16	2.122153E-17
5.480000E+03	2.360613E-16	2.113743E-17
5.490000E+03	2.352572E-16	2.107155E-17
5.500000E+03	2.344923E-16	2.102442E-17
5.510000E+03	2.337688E-16	2.099597E-17
5.520000E+03	2.330955E-16	2.098669E-17
5.530000E+03	2.324694E-16	2.099587E-17
5.540000E+03	2.318943E-16	2.102335E-17
5.550000E+03	2.313691E-16	2.106845E-17
5.560000E+03	2.308997E-16	2.113106E-17
5.570000E+03	2.304824E-16	2.121013E-17
5.580000E+03	2.301181E-16	2.130500E-17
5.590000E+03	2.298051E-16	2.141475E-17
5.600000E+03	2.295465E-16	2.153886E-17
5.610000E+03	2.293383E-16	2.167612E-17
5.620000E+03	2.291810E-16	2.182576E-17
5.630000E+03	2.290753E-16	2.198702E-17
5.640000E+03	2.290192E-16	2.215889E-17
5.650000E+03	2.290134E-16	2.234063E-17
5.660000E+03	2.290536E-16	2.253103E-17
5.670000E+03	2.291404E-16	2.272936E-17
5.680000E+03	2.292743E-16	2.293494E-17
5.690000E+03	2.294535E-16	2.314687E-17
5.700000E+03	2.296764E-16	2.336426E-17
5.710000E+03	2.299410E-16	2.358626E-17
5.720000E+03	2.302506E-16	2.381255E-17
5.730000E+03	2.305986E-16	2.404183E-17
5.740000E+03	2.309882E-16	2.427386E-17
5.750000E+03	2.314178E-16	2.450790E-17
5.760000E+03	2.318834E-16	2.474297E-17
5.770000E+03	2.323860E-16	2.497867E-17
5.780000E+03	2.329264E-16	2.521460E-17
5.790000E+03	2.335008E-16	2.544986E-17
5.800000E+03	2.341077E-16	2.568385E-17
5.810000E+03	2.347508E-16	2.591653E-17
5.820000E+03	2.354236E-16	2.614679E-17
5.830000E+03	2.361273E-16	2.637435E-17
5.840000E+03	2.368607E-16	2.659869E-17
5.850000E+03	2.376224E-16	2.681929E-17
5.860000E+03	2.384139E-16	2.703598E-17
5.870000E+03	2.392287E-16	2.724766E-17
5.880000E+03	2.400707E-16	2.745447E-17
5.890000E+03	2.409363E-16	2.765567E-17
5.900000E+03	2.418242E-16	2.785081E-17
5.910000E+03	2.427332E-16	2.803947E-17
5.920000E+03	2.436622E-16	2.822123E-17
5.930000E+03	2.446129E-16	2.839602E-17
5.940000E+03	2.455786E-16	2.856280E-17
5.950000E+03	2.465580E-16	2.872118E-17
5.960000E+03	2.475530E-16	2.887113E-17
5.970000E+03	2.485624E-16	2.901228E-17
5.980000E+03	2.495793E-16	2.914363E-17
5.990000E+03	2.506083E-16	2.926550E-17
6.000000E+03	2.516396E-16	2.937656E-17
6.010000E+03	2.526807E-16	2.947752E-17
6.020000E+03	2.537216E-16	2.956705E-17
6.030000E+03	2.547611E-16	2.964486E-17
6.040000E+03	2.558008E-16	2.971103E-17
6.050000E+03	2.568366E-16	2.976496E-17
6.060000E+03	2.578670E-16	2.980641E-17
6.070000E+03	2.588847E-16	2.983447E-17
6.080000E+03	2.598942E-16	2.984964E-17
6.090000E+03	2.608850E-16	2.985068E-17
6.100000E+03	2.618617E-16	2.983818E-17
6.110000E+03	2.628198E-16	2.981164E-17
6.120000E+03	2.637545E-16	2.977063E-17
6.130000E+03	2.646641E-16	2.971508E-17
6.140000E+03	2.655504E-16	2.964535E-17
6.150000E+03	2.664085E-16	2.956109E-17
6.160000E+03	2.672367E-16	2.946236E-17
6.170000E+03	2.680400E-16	2.935000E-17
6.180000E+03	2.688103E-16	2.922344E-17
6.190000E+03	2.695492E-16	2.908323E-17
6.200000E+03	2.702586E-16	2.893001E-17
6.210000E+03	2.709403E-16	2.876443E-17
6.220000E+03	2.715894E-16	2.858650E-17
6.230000E+03	2.722043E-16	2.839664E-17
6.240000E+03	2.727871E-16	2.819570E-17
6.250000E+03	2.733325E-16	2.798385E-17
6.260000E+03	2.738428E-16	2.776207E-17
6.270000E+03	2.743162E-16	2.753105E-17
6.280000E+03	2.747551E-16	2.729191E-17
6.290000E+03	2.751579E-16	2.704547E-17
6.300000E+03	2.755233E-16	2.679263E-17
6.310000E+03	2.758536E-16	2.653474E-17
6.320000E+03	2.761511E-16	2.627322E-17
6.330000E+03	2.764110E-16	2.600882E-17
6.340000E+03	2.766356E-16	2.574312E-17
6.350000E+03	2.768277E-16	2.547774E-17
6.360000E+03	2.769822E-16	2.521368E-17
6.370000E+03	2.771058E-16	2.495305E-17
6.380000E+03	2.771975E-16	2.469731E-17
6.390000E+03	2.772562E-16	2.444799E-17
6.400000E+03	2.772810E-16	2.420662E-17
6.410000E+03	2.772790E-16	2.397547E-17
6.420000E+03	2.772455E-16	2.375576E-17
6.430000E+03	2.771877E-16	2.354977E-17
6.440000E+03	2.771050E-16	2.335901E-17
6.450000E+03	2.769969E-16	2.318495E-17
6.460000E+03	2.768670E-16	2.302935E-17
6.470000E+03	2.767148E-16	2.289350E-17
6.480000E+03	2.765440E-16	2.277892E-17
6.490000E+03	2.763460E-16	2.268593E-17
6.500000E+03	2.761287E-16	2.261606E-17
6.510000E+03	2.758921E-16	2.256998E-17
6.520000E+03	2.756314E-16	2.254778E-17
6.530000E+03	2.753508E-16	2.255004E-17
6.540000E+03	2.750502E-16	2.257677E-17
6.550000E+03	2.747295E-16	2.262775E-17
6.560000E+03	2.743886E-16	2.270254E-17
6.570000E+03	2.740318E-16	2.280088E-17
6.580000E+03	2.736549E-16	2.292157E-17
6.590000E+03	2.732579E-16	2.306361E-17
6.600000E+03	2.728454E-16	2.322624E-17
6.610000E+03	2.724175E-16	2.340819E-17
6.620000E+03	2.719700E-16	2.360772E-17
6.630000E+03	2.715077E-16	2.382379E-17
6.640000E+03	2.710262E-16	2.405451E-17
6.650000E+03	2.705350E-16	2.429918E-17
6.660000E+03	2.700254E-16	2.455548E-17
6.670000E+03	2.694977E-16	2.482189E-17
6.680000E+03	2.689570E-16	2.509736E-17
6.690000E+03	2.684038E-16	2.538045E-17
6.700000E+03	2.678339E-16	2.566933E-17
6.710000E+03	2.672478E-16	2.596268E-17
6.720000E+03	2.666507E-16	2.625966E-17
6.730000E+03	2.660386E-16	2.655862E-17
6.740000E+03	2.654168E-16	2.685890E-17
6.750000E+03	2.647764E-16	2.715849E-17
6.760000E+03	2.641275E-16	2.745737E-17
6.770000E+03	2.634614E-16	2.775362E-17
6.780000E+03	2.627882E-16	2.804741E-17
6.790000E+03	2.620991E-16	2.833694E-17
6.800000E+03	2.613996E-16	2.862200E-17
6.810000E+03	2.606903E-16	2.890194E-17
6.820000E+03	2.599674E-16	2.917566E-17
6.830000E+03	2.592361E-16	2.944314E-17
6.840000E+03	2.584926E-16	2.970335E-17
6.850000E+03	2.577424E-16	2.995644E-17
6.860000E+03	2.569766E-16	3.020088E-17
6.870000E+03	2.562056E-16	3.043747E-17
6.880000E+03	2.554254E-16	3.066536E-17
6.890000E+03	2.546366E-16	3.088427E-17
6.900000E+03	2.538353E-16	3.109341E-17
6.910000E+03	2.530317E-16	3.129377E-17
6.920000E+03	2.522123E-16	3.148341E-17
6.930000E+03	2.513923E-16	3.166399E-17
6.940000E+03	2.505626E-16	3.183422E-17
6.950000E+03	2.497240E-16	3.199402E-17
6.960000E+03	2.488822E-16	3.214394E-17
6.970000E+03	2.480330E-16	3.228336E-17
6.980000E+03	2.471770E-16	3.241225E-17
6.990000E+03	2.463150E-16	3.253062E-17
7.000000E+03	2.454478E-16	3.263849E-17
7.010000E+03	2.445759E-16	3.273591E-17
7.020000E+03	2.436952E-16	3.282227E-17
7.030000E+03	2.428160E-16	3.289895E-17
7.040000E+03	2.419246E-16	3.296406E-17
7.050000E+03	2.410360E-16	3.301965E-17
7.060000E+03	2.401364E-16	3.306385E-17
7.070000E+03	2.392361E-16	3.309808E-17
7.080000E+03	2.383309E-16	3.312179E-17
7.090000E+03	2.374214E-16	3.313509E-17
7.100000E+03	2.365130E-16	3.313878E-17
7.110000E+03	2.355967E-16	3.313165E-17
7.120000E+03	2.346779E-16	3.311452E-17
7.130000E+03	2.337524E-16	3.308683E-17
7.140000E+03	2.328256E-16	3.304942E-17
7.150000E+03	2.318980E-16	3.300242E-17
7.160000E+03	2.309654E-16	3.294532E-17
7.170000E+03	2.300332E-16	3.287895E-17
7.180000E+03	2.290924E-16	3.280210E-17
7.190000E+03	2.281530E-16	3.271629E-17
7.200000E+03	2.272109E-16	3.262101E-17
7.210000E+03	2.262619E-16	3.251574E-17
7.220000E+03	2.253114E-16	3.240133E-17
7.230000E+03	2.243597E-16	3.227793E-17
7.240000E+03	2.234028E-16	3.214506E-17
7.250000E+03	2.224414E-16	3.200288E-17
7.260000E+03	2.214758E-16	3.185156E-17
7.270000E+03	2.205068E-16	3.169127E-17
7.280000E+03	2.195348E-16	3.152220E-17
7.290000E+03	2.185513E-16	3.134321E-17
7.300000E+03	2.175660E-16	3.115580E-17
7.310000E+03	2.165748E-16	3.095948E-17
7.320000E+03	2.155739E-16	3.075381E-17
7.330000E+03	2.145684E-16	3.053962E-17
7.340000E+03	2.135499E-16	3.031581E-17
7.350000E+03	2.125189E-16	3.008261E-17
7.360000E+03	2.114763E-16	2.984022E-17
7.370000E+03	2.104182E-16	2.958823E-17
7.380000E+03	2.093496E-16	2.932748E-17
7.390000E+03	2.082580E-16	2.905634E-17
7.400000E+03	2.071530E-16	2.877629E-17
7.410000E+03	2.060265E-16	2.848636E-17
7.420000E+03	2.048835E-16	2.818739E-17
7.430000E+03	2.037205E-16	2.787905E-17
7.440000E+03	2.025381E-16	2.756161E-17
7.450000E+03	2.013414E-16	2.723591E-17
7.460000E+03	2.001268E-16	2.690163E-17
7.470000E+03	1.989078E-16	2.656076E-17
7.480000E+03	1.976765E-16	2.621239E-17
7.490000E+03	1.964420E-16	2.585789E-17
7.500000E+03	1.952006E-16	2.549694E-17
7.510000E+03	1.939656E-16	2.513139E-17
7.520000E+03	1.927332E-16	2.476091E-17
7.530000E+03	1.915039E-16	2.438567E-17
7.540000E+03	1.902823E-16	2.400640E-17
7.550000E+03	1.890688E-16	2.362327E-17
7.560000E+03	1.878721E-16	2.323748E-17
7.570000E+03	1.866842E-16	2.284813E-17
7.580000E+03	1.855097E-16	2.245590E-17
7.590000E+03	1.843529E-16	2.206140E-17
7.600000E+03	1.832100E-16	2.166428E-17
7.610000E+03	1.820854E-16	2.126514E-17
7.620000E+03	1.809753E-16	2.086363E-17
7.630000E+03	1.798881E-16	2.046080E-17
7.640000E+03	1.788158E-16	2.005584E-17
7.650000E+03	1.777668E-16	1.964976E-17
7.660000E+03	1.767333E-16	1.924179E-17
7.670000E+03	1.757234E-16	1.883292E-17
7.680000E+03	1.747294E-16	1.842239E-17
7.690000E+03	1.737595E-16	1.801119E-17
7.700000E+03	1.728099E-16	1.759900E-17
7.710000E+03	1.718807E-16	1.718596E-17
7.720000E+03	1.709722E-16	1.677221E-17
7.730000E+03	1.700845E-16	1.635791E-17
7.740000E+03	1.692178E-16	1.594322E-17
7.750000E+03	1.683684E-16	1.552797E-17
7.760000E+03	1.675443E-16	1.511308E-17
