#wls	flux	fluxerr
1.600000E+03	2.170328E-16	1.201028E-16
1.640000E+03	2.244065E-16	1.226842E-16
1.680000E+03	2.322285E-16	1.253691E-16
1.720000E+03	2.405075E-16	1.281483E-16
1.760000E+03	2.492719E-16	1.310225E-16
1.800000E+03	2.585694E-16	1.340007E-16
1.840000E+03	2.683584E-16	1.370445E-16
1.880000E+03	2.787028E-16	1.401695E-16
1.920000E+03	2.895983E-16	1.433546E-16
1.960000E+03	3.010370E-16	1.465769E-16
2.000000E+03	3.129861E-16	1.498011E-16
2.040000E+03	3.254306E-16	1.530012E-16
2.080000E+03	3.383090E-16	1.561295E-16
2.120000E+03	3.515141E-16	1.591196E-16
2.160000E+03	3.650003E-16	1.619363E-16
2.200000E+03	3.786351E-16	1.645078E-16
2.240000E+03	3.923063E-16	1.667765E-16
2.280000E+03	4.059433E-16	1.687063E-16
2.320000E+03	4.195160E-16	1.702811E-16
2.360000E+03	4.330538E-16	1.715099E-16
2.400000E+03	4.466025E-16	1.724079E-16
2.440000E+03	4.602030E-16	1.729875E-16
2.480000E+03	4.739504E-16	1.732801E-16
2.520000E+03	4.878732E-16	1.732909E-16
2.560000E+03	5.020328E-16	1.730362E-16
2.600000E+03	5.164265E-16	1.725099E-16
2.640000E+03	5.310659E-16	1.717125E-16
2.680000E+03	5.459216E-16	1.706330E-16
2.720000E+03	5.609626E-16	1.692636E-16
2.760000E+03	5.761574E-16	1.676006E-16
2.800000E+03	5.914575E-16	1.656399E-16
2.840000E+03	6.068178E-16	1.633843E-16
2.880000E+03	6.222310E-16	1.608521E-16
2.920000E+03	6.376604E-16	1.580595E-16
2.960000E+03	6.531562E-16	1.550497E-16
3.000000E+03	6.687239E-16	1.518586E-16
3.010000E+03	6.726511E-16	1.510425E-16
3.020000E+03	6.765769E-16	1.502168E-16
3.030000E+03	6.805007E-16	1.493822E-16
3.040000E+03	6.844525E-16	1.485458E-16
3.050000E+03	6.884162E-16	1.477049E-16
3.060000E+03	6.923913E-16	1.468600E-16
3.070000E+03	6.963922E-16	1.460149E-16
3.080000E+03	7.004032E-16	1.451669E-16
3.090000E+03	7.044240E-16	1.443168E-16
3.100000E+03	7.084836E-16	1.434713E-16
3.110000E+03	7.125520E-16	1.426249E-16
3.120000E+03	7.166437E-16	1.417814E-16
3.130000E+03	7.207437E-16	1.409385E-16
3.140000E+03	7.248951E-16	1.401055E-16
3.150000E+03	7.290543E-16	1.392746E-16
3.160000E+03	7.332358E-16	1.384494E-16
3.170000E+03	7.374534E-16	1.376333E-16
3.180000E+03	7.417070E-16	1.368270E-16
3.190000E+03	7.459686E-16	1.360261E-16
3.200000E+03	7.502801E-16	1.352389E-16
3.210000E+03	7.546139E-16	1.344612E-16
3.220000E+03	7.589839E-16	1.336962E-16
3.230000E+03	7.633769E-16	1.329424E-16
3.240000E+03	7.678067E-16	1.322027E-16
3.250000E+03	7.722739E-16	1.314780E-16
3.260000E+03	7.767789E-16	1.307689E-16
3.270000E+03	7.813090E-16	1.300739E-16
3.280000E+03	7.858783E-16	1.293959E-16
3.290000E+03	7.904875E-16	1.287356E-16
3.300000E+03	7.951246E-16	1.280915E-16
3.310000E+03	7.998035E-16	1.274663E-16
3.320000E+03	8.045125E-16	1.268585E-16
3.330000E+03	8.092655E-16	1.262707E-16
3.340000E+03	8.140513E-16	1.257014E-16
3.350000E+03	8.188713E-16	1.251511E-16
3.360000E+03	8.237270E-16	1.246201E-16
3.370000E+03	8.286201E-16	1.241089E-16
3.380000E+03	8.335524E-16	1.236177E-16
3.390000E+03	8.385133E-16	1.231449E-16
3.400000E+03	8.435173E-16	1.226926E-16
3.410000E+03	8.485419E-16	1.222574E-16
3.420000E+03	8.536137E-16	1.218429E-16
3.430000E+03	8.587109E-16	1.214455E-16
3.440000E+03	8.638359E-16	1.210654E-16
3.450000E+03	8.689913E-16	1.207025E-16
3.460000E+03	8.741680E-16	1.203550E-16
3.470000E+03	8.793805E-16	1.200243E-16
3.480000E+03	8.846197E-16	1.197087E-16
3.490000E+03	8.898770E-16	1.194061E-16
3.500000E+03	8.951556E-16	1.191164E-16
3.510000E+03	9.004469E-16	1.188376E-16
3.520000E+03	9.057656E-16	1.185709E-16
3.530000E+03	9.110808E-16	1.183113E-16
3.540000E+03	9.164073E-16	1.180598E-16
3.550000E+03	9.217373E-16	1.178146E-16
3.560000E+03	9.270741E-16	1.175750E-16
3.570000E+03	9.323990E-16	1.173378E-16
3.580000E+03	9.377045E-16	1.171010E-16
3.590000E+03	9.430055E-16	1.168654E-16
3.600000E+03	9.482725E-16	1.166265E-16
3.610000E+03	9.535203E-16	1.163849E-16
3.620000E+03	9.587415E-16	1.161388E-16
3.630000E+03	9.639182E-16	1.158849E-16
3.640000E+03	9.690434E-16	1.156215E-16
3.650000E+03	9.741207E-16	1.153479E-16
3.660000E+03	9.791325E-16	1.150612E-16
3.670000E+03	9.840929E-16	1.147619E-16
3.680000E+03	9.889736E-16	1.144458E-16
3.690000E+03	9.937782E-16	1.141124E-16
3.700000E+03	9.984995E-16	1.137600E-16
3.710000E+03	1.003141E-15	1.133881E-16
3.720000E+03	1.007684E-15	1.129937E-16
3.730000E+03	1.012133E-15	1.125763E-16
3.740000E+03	1.016479E-15	1.121343E-16
3.750000E+03	1.020725E-15	1.116672E-16
3.760000E+03	1.024865E-15	1.111733E-16
3.770000E+03	1.028899E-15	1.106522E-16
3.780000E+03	1.032821E-15	1.101022E-16
3.790000E+03	1.036621E-15	1.095218E-16
3.800000E+03	1.040323E-15	1.089125E-16
3.810000E+03	1.043897E-15	1.082707E-16
3.820000E+03	1.047355E-15	1.075970E-16
3.830000E+03	1.050709E-15	1.068918E-16
3.840000E+03	1.053939E-15	1.061525E-16
3.850000E+03	1.057047E-15	1.053787E-16
3.860000E+03	1.060043E-15	1.045709E-16
3.870000E+03	1.062927E-15	1.037284E-16
3.880000E+03	1.065701E-15	1.028508E-16
3.890000E+03	1.068354E-15	1.019365E-16
3.900000E+03	1.070897E-15	1.009859E-16
3.910000E+03	1.073328E-15	9.999857E-17
3.920000E+03	1.075649E-15	9.897383E-17
3.930000E+03	1.077859E-15	9.791117E-17
3.940000E+03	1.079956E-15	9.681004E-17
3.950000E+03	1.081950E-15	9.567077E-17
3.960000E+03	1.083840E-15	9.449279E-17
3.970000E+03	1.085615E-15	9.327470E-17
3.980000E+03	1.087293E-15	9.201767E-17
3.990000E+03	1.088863E-15	9.072030E-17
4.000000E+03	1.090332E-15	8.938291E-17
4.010000E+03	1.091700E-15	8.800498E-17
4.020000E+03	1.092954E-15	8.658526E-17
4.030000E+03	1.094112E-15	8.512484E-17
4.040000E+03	1.095161E-15	8.362255E-17
4.050000E+03	1.096109E-15	8.207875E-17
4.060000E+03	1.096952E-15	8.049309E-17
4.070000E+03	1.097689E-15	7.886529E-17
4.080000E+03	1.098315E-15	7.719514E-17
4.090000E+03	1.098837E-15	7.548317E-17
4.100000E+03	1.099243E-15	7.372867E-17
4.110000E+03	1.099527E-15	7.193172E-17
4.120000E+03	1.099707E-15	7.009375E-17
4.130000E+03	1.099757E-15	6.821383E-17
4.140000E+03	1.099684E-15	6.629307E-17
4.150000E+03	1.099483E-15	6.433216E-17
4.160000E+03	1.099148E-15	6.233199E-17
4.170000E+03	1.098676E-15	6.029374E-17
4.180000E+03	1.098059E-15	5.821891E-17
4.190000E+03	1.097293E-15	5.610935E-17
4.200000E+03	1.096372E-15	5.396738E-17
4.210000E+03	1.095288E-15	5.179582E-17
4.220000E+03	1.094036E-15	4.959815E-17
4.230000E+03	1.092598E-15	4.737820E-17
4.240000E+03	1.090967E-15	4.514119E-17
4.250000E+03	1.089145E-15	4.289392E-17
4.260000E+03	1.087122E-15	4.064416E-17
4.270000E+03	1.084871E-15	3.840083E-17
4.280000E+03	1.082393E-15	3.617622E-17
4.290000E+03	1.079677E-15	3.398506E-17
4.300000E+03	1.076714E-15	3.184568E-17
4.310000E+03	1.073492E-15	2.978081E-17
4.320000E+03	1.069992E-15	2.781833E-17
4.330000E+03	1.066220E-15	2.599309E-17
4.340000E+03	1.062148E-15	2.434563E-17
4.350000E+03	1.057783E-15	2.292339E-17
4.360000E+03	1.053114E-15	2.177654E-17
4.370000E+03	1.048144E-15	2.095295E-17
4.380000E+03	1.042865E-15	2.048925E-17
4.390000E+03	1.037285E-15	2.040201E-17
4.400000E+03	1.031407E-15	2.068177E-17
4.410000E+03	1.025256E-15	2.129507E-17
4.420000E+03	1.018844E-15	2.219142E-17
4.430000E+03	1.012184E-15	2.331357E-17
4.440000E+03	1.005308E-15	2.460611E-17
4.450000E+03	9.982301E-16	2.601939E-17
4.460000E+03	9.909726E-16	2.751190E-17
4.470000E+03	9.835668E-16	2.905037E-17
4.480000E+03	9.760157E-16	3.060773E-17
4.490000E+03	9.683485E-16	3.216358E-17
4.500000E+03	9.605845E-16	3.370193E-17
4.510000E+03	9.527330E-16	3.521026E-17
4.520000E+03	9.448115E-16	3.667922E-17
4.530000E+03	9.368364E-16	3.810182E-17
4.540000E+03	9.288232E-16	3.947288E-17
4.550000E+03	9.207867E-16	4.078866E-17
4.560000E+03	9.127321E-16	4.204617E-17
4.570000E+03	9.046642E-16	4.324330E-17
4.580000E+03	8.966125E-16	4.437989E-17
4.590000E+03	8.885720E-16	4.545472E-17
4.600000E+03	8.805455E-16	4.646742E-17
4.610000E+03	8.725523E-16	4.741888E-17
4.620000E+03	8.646026E-16	4.830988E-17
4.630000E+03	8.566812E-16	4.914004E-17
4.640000E+03	8.488224E-16	4.991197E-17
4.650000E+03	8.410022E-16	5.062511E-17
4.660000E+03	8.332457E-16	5.128192E-17
4.670000E+03	8.255531E-16	5.188349E-17
4.680000E+03	8.179243E-16	5.243099E-17
4.690000E+03	8.103591E-16	5.292559E-17
4.700000E+03	8.028571E-16	5.336854E-17
4.710000E+03	7.954336E-16	5.376213E-17
4.720000E+03	7.880800E-16	5.410709E-17
4.730000E+03	7.807956E-16	5.440468E-17
4.740000E+03	7.735873E-16	5.465669E-17
4.750000E+03	7.664387E-16	5.486328E-17
4.760000E+03	7.593720E-16	5.502730E-17
4.770000E+03	7.523633E-16	5.514832E-17
4.780000E+03	7.454270E-16	5.522862E-17
4.790000E+03	7.385620E-16	5.526936E-17
4.800000E+03	7.317525E-16	5.527056E-17
4.810000E+03	7.250053E-16	5.523389E-17
4.820000E+03	7.183268E-16	5.516100E-17
4.830000E+03	7.117017E-16	5.505183E-17
4.840000E+03	7.051366E-16	5.490798E-17
4.850000E+03	6.986309E-16	5.473047E-17
4.860000E+03	6.921770E-16	5.451973E-17
4.870000E+03	6.857744E-16	5.427675E-17
4.880000E+03	6.794300E-16	5.400303E-17
4.890000E+03	6.731362E-16	5.369895E-17
4.900000E+03	6.669000E-16	5.336597E-17
4.910000E+03	6.607074E-16	5.300391E-17
4.920000E+03	6.545654E-16	5.261420E-17
4.930000E+03	6.484741E-16	5.219771E-17
4.940000E+03	6.424270E-16	5.175475E-17
4.950000E+03	6.364313E-16	5.128672E-17
4.960000E+03	6.304806E-16	5.079392E-17
4.970000E+03	6.245822E-16	5.027770E-17
4.980000E+03	6.187302E-16	4.973834E-17
4.990000E+03	6.129254E-16	4.917667E-17
5.000000E+03	6.071626E-16	4.859298E-17
5.010000E+03	6.014553E-16	4.798908E-17
5.020000E+03	5.957921E-16	4.736476E-17
5.030000E+03	5.901746E-16	4.672082E-17
5.040000E+03	5.846102E-16	4.605853E-17
5.050000E+03	5.790943E-16	4.537818E-17
5.060000E+03	5.736286E-16	4.468056E-17
5.070000E+03	5.682150E-16	4.396645E-17
5.080000E+03	5.628552E-16	4.323662E-17
5.090000E+03	5.575455E-16	4.249141E-17
5.100000E+03	5.522881E-16	4.173161E-17
5.110000E+03	5.470908E-16	4.095842E-17
5.120000E+03	5.419447E-16	4.017179E-17
5.130000E+03	5.368634E-16	3.937333E-17
5.140000E+03	5.318328E-16	3.856262E-17
5.150000E+03	5.268666E-16	3.774128E-17
5.160000E+03	5.219621E-16	3.690971E-17
5.170000E+03	5.171220E-16	3.606875E-17
5.180000E+03	5.123492E-16	3.521922E-17
5.190000E+03	5.076414E-16	3.436163E-17
5.200000E+03	5.030017E-16	3.349686E-17
5.210000E+03	4.984281E-16	3.262548E-17
5.220000E+03	4.939341E-16	3.174910E-17
5.230000E+03	4.895077E-16	3.086773E-17
5.240000E+03	4.851574E-16	2.998271E-17
5.250000E+03	4.808866E-16	2.909515E-17
5.260000E+03	4.766987E-16	2.820619E-17
5.270000E+03	4.725876E-16	2.731648E-17
5.280000E+03	4.685618E-16	2.642767E-17
5.290000E+03	4.646202E-16	2.554095E-17
5.300000E+03	4.607668E-16	2.465791E-17
5.310000E+03	4.570006E-16	2.378010E-17
5.320000E+03	4.533304E-16	2.290972E-17
5.330000E+03	4.497510E-16	2.204851E-17
5.340000E+03	4.462667E-16	2.119898E-17
5.350000E+03	4.428772E-16	2.036376E-17
5.360000E+03	4.395915E-16	1.954626E-17
5.370000E+03	4.364009E-16	1.874955E-17
5.380000E+03	4.333146E-16	1.797803E-17
5.390000E+03	4.303330E-16	1.723625E-17
5.400000E+03	4.274568E-16	1.652942E-17
5.410000E+03	4.246783E-16	1.586310E-17
5.420000E+03	4.219989E-16	1.524386E-17
5.430000E+03	4.194199E-16	1.467885E-17
5.440000E+03	4.169261E-16	1.417505E-17
5.450000E+03	4.145192E-16	1.374017E-17
5.460000E+03	4.121884E-16	1.338119E-17
5.470000E+03	4.099308E-16	1.310444E-17
5.480000E+03	4.077632E-16	1.291529E-17
5.490000E+03	4.056842E-16	1.281621E-17
5.500000E+03	4.037064E-16	1.280735E-17
5.510000E+03	4.018318E-16	1.288566E-17
5.520000E+03	4.000727E-16	1.304591E-17
5.530000E+03	3.984195E-16	1.328035E-17
5.540000E+03	3.968742E-16	1.358055E-17
5.550000E+03	3.954305E-16	1.393740E-17
5.560000E+03	3.940942E-16	1.434238E-17
5.570000E+03	3.928551E-16	1.478689E-17
5.580000E+03	3.917112E-16	1.526336E-17
5.590000E+03	3.906568E-16	1.576490E-17
5.600000E+03	3.896944E-16	1.628576E-17
5.610000E+03	3.888149E-16	1.682054E-17
5.620000E+03	3.880172E-16	1.736486E-17
5.630000E+03	3.873005E-16	1.791504E-17
5.640000E+03	3.866604E-16	1.846780E-17
5.650000E+03	3.860965E-16	1.902052E-17
5.660000E+03	3.856007E-16	1.957064E-17
5.670000E+03	3.851731E-16	2.011633E-17
5.680000E+03	3.848138E-16	2.065608E-17
5.690000E+03	3.845195E-16	2.118844E-17
5.700000E+03	3.842865E-16	2.171217E-17
5.710000E+03	3.841116E-16	2.222621E-17
5.720000E+03	3.839998E-16	2.273011E-17
5.730000E+03	3.839399E-16	2.322261E-17
5.740000E+03	3.839373E-16	2.370354E-17
5.750000E+03	3.839891E-16	2.417231E-17
5.760000E+03	3.840886E-16	2.462816E-17
5.770000E+03	3.842373E-16	2.507089E-17
5.780000E+03	3.844370E-16	2.550039E-17
5.790000E+03	3.846811E-16	2.591603E-17
5.800000E+03	3.849674E-16	2.631748E-17
5.810000E+03	3.853021E-16	2.670503E-17
5.820000E+03	3.856747E-16	2.707784E-17
5.830000E+03	3.860873E-16	2.743595E-17
5.840000E+03	3.865380E-16	2.777912E-17
5.850000E+03	3.870249E-16	2.810714E-17
5.860000E+03	3.875504E-16	2.842010E-17
5.870000E+03	3.881043E-16	2.871716E-17
5.880000E+03	3.886934E-16	2.899875E-17
5.890000E+03	3.893118E-16	2.926434E-17
5.900000E+03	3.899577E-16	2.951373E-17
5.910000E+03	3.906297E-16	2.974671E-17
5.920000E+03	3.913262E-16	2.996307E-17
5.930000E+03	3.920501E-16	3.016293E-17
5.940000E+03	3.927911E-16	3.034541E-17
5.950000E+03	3.935478E-16	3.051028E-17
5.960000E+03	3.943233E-16	3.065765E-17
5.970000E+03	3.951161E-16	3.078731E-17
5.980000E+03	3.959160E-16	3.089831E-17
5.990000E+03	3.967306E-16	3.099114E-17
6.000000E+03	3.975450E-16	3.106447E-17
6.010000E+03	3.983717E-16	3.111915E-17
6.020000E+03	3.991955E-16	3.115384E-17
6.030000E+03	4.000151E-16	3.116829E-17
6.040000E+03	4.008340E-16	3.116263E-17
6.050000E+03	4.016462E-16	3.113624E-17
6.060000E+03	4.024506E-16	3.108888E-17
6.070000E+03	4.032362E-16	3.101956E-17
6.080000E+03	4.040115E-16	3.092878E-17
6.090000E+03	4.047606E-16	3.081520E-17
6.100000E+03	4.054920E-16	3.067934E-17
6.110000E+03	4.061996E-16	3.052060E-17
6.120000E+03	4.068770E-16	3.033840E-17
6.130000E+03	4.075230E-16	3.013255E-17
6.140000E+03	4.081411E-16	2.990323E-17
6.150000E+03	4.087251E-16	2.964990E-17
6.160000E+03	4.092734E-16	2.937240E-17
6.170000E+03	4.097949E-16	2.907134E-17
6.180000E+03	4.102780E-16	2.874584E-17
6.190000E+03	4.107264E-16	2.839618E-17
6.200000E+03	4.111438E-16	2.802264E-17
6.210000E+03	4.115341E-16	2.762549E-17
6.220000E+03	4.118906E-16	2.720436E-17
6.230000E+03	4.122117E-16	2.675923E-17
6.240000E+03	4.125012E-16	2.629047E-17
6.250000E+03	4.127520E-16	2.579783E-17
6.260000E+03	4.129677E-16	2.528176E-17
6.270000E+03	4.131465E-16	2.474242E-17
6.280000E+03	4.132921E-16	2.418040E-17
6.290000E+03	4.134024E-16	2.359597E-17
6.300000E+03	4.134756E-16	2.298955E-17
6.310000E+03	4.135151E-16	2.236192E-17
6.320000E+03	4.135244E-16	2.171399E-17
6.330000E+03	4.134957E-16	2.104619E-17
6.340000E+03	4.134324E-16	2.035975E-17
6.350000E+03	4.133380E-16	1.965604E-17
6.360000E+03	4.132042E-16	1.893614E-17
6.370000E+03	4.130402E-16	1.820225E-17
6.380000E+03	4.128437E-16	1.745636E-17
6.390000E+03	4.126122E-16	1.670091E-17
6.400000E+03	4.123430E-16	1.593894E-17
6.410000E+03	4.120457E-16	1.517459E-17
6.420000E+03	4.117117E-16	1.441217E-17
6.430000E+03	4.113506E-16	1.365772E-17
6.440000E+03	4.109602E-16	1.291813E-17
6.450000E+03	4.105380E-16	1.220189E-17
6.460000E+03	4.100879E-16	1.151962E-17
6.470000E+03	4.096078E-16	1.088388E-17
6.480000E+03	4.091019E-16	1.030965E-17
6.490000E+03	4.085557E-16	9.813488E-18
6.500000E+03	4.079800E-16	9.413688E-18
6.510000E+03	4.073731E-16	9.127690E-18
6.520000E+03	4.067273E-16	8.969721E-18
6.530000E+03	4.060474E-16	8.948419E-18
6.540000E+03	4.053324E-16	9.064393E-18
6.550000E+03	4.045812E-16	9.310157E-18
6.560000E+03	4.037929E-16	9.671862E-18
6.570000E+03	4.029734E-16	1.013222E-17
6.580000E+03	4.021158E-16	1.067268E-17
6.590000E+03	4.012198E-16	1.127581E-17
6.600000E+03	4.002919E-16	1.192630E-17
6.610000E+03	3.993323E-16	1.261103E-17
6.620000E+03	3.983347E-16	1.331890E-17
6.630000E+03	3.973062E-16	1.404123E-17
6.640000E+03	3.962409E-16	1.477062E-17
6.650000E+03	3.951529E-16	1.550178E-17
6.660000E+03	3.940298E-16	1.622958E-17
6.670000E+03	3.928726E-16	1.695027E-17
6.680000E+03	3.916893E-16	1.766114E-17
6.690000E+03	3.904811E-16	1.835982E-17
6.700000E+03	3.892427E-16	1.904408E-17
6.710000E+03	3.879754E-16	1.971238E-17
6.720000E+03	3.866878E-16	2.036388E-17
6.730000E+03	3.853745E-16	2.099730E-17
6.740000E+03	3.840442E-16	2.161231E-17
6.750000E+03	3.826849E-16	2.220763E-17
6.760000E+03	3.813119E-16	2.278366E-17
6.770000E+03	3.799136E-16	2.333937E-17
6.780000E+03	3.785055E-16	2.387548E-17
6.790000E+03	3.770757E-16	2.439110E-17
6.800000E+03	3.756329E-16	2.488673E-17
6.810000E+03	3.741791E-16	2.536250E-17
6.820000E+03	3.727094E-16	2.581813E-17
6.830000E+03	3.712324E-16	2.625434E-17
6.840000E+03	3.697432E-16	2.667091E-17
6.850000E+03	3.682506E-16	2.706867E-17
6.860000E+03	3.667426E-16	2.744694E-17
6.870000E+03	3.652347E-16	2.780710E-17
6.880000E+03	3.637220E-16	2.814903E-17
6.890000E+03	3.622060E-16	2.847314E-17
6.900000E+03	3.606816E-16	2.877929E-17
6.910000E+03	3.591642E-16	2.906898E-17
6.920000E+03	3.576347E-16	2.934099E-17
6.930000E+03	3.561153E-16	2.959741E-17
6.940000E+03	3.545936E-16	2.983754E-17
6.950000E+03	3.530712E-16	3.006180E-17
6.960000E+03	3.515560E-16	3.027120E-17
6.970000E+03	3.500426E-16	3.046555E-17
6.980000E+03	3.485321E-16	3.064527E-17
6.990000E+03	3.470257E-16	3.081075E-17
7.000000E+03	3.455243E-16	3.096238E-17
7.010000E+03	3.440291E-16	3.110055E-17
7.020000E+03	3.425341E-16	3.122500E-17
7.030000E+03	3.410537E-16	3.133733E-17
7.040000E+03	3.395684E-16	3.143604E-17
7.050000E+03	3.380992E-16	3.152332E-17
7.060000E+03	3.366267E-16	3.159763E-17
7.070000E+03	3.351648E-16	3.166054E-17
7.080000E+03	3.337074E-16	3.171172E-17
7.090000E+03	3.322550E-16	3.175146E-17
7.100000E+03	3.308149E-16	3.178069E-17
7.110000E+03	3.293741E-16	3.179841E-17
7.120000E+03	3.279397E-16	3.180553E-17
7.130000E+03	3.265056E-16	3.180164E-17
7.140000E+03	3.250786E-16	3.178765E-17
7.150000E+03	3.236592E-16	3.176379E-17
7.160000E+03	3.222412E-16	3.172966E-17
7.170000E+03	3.208313E-16	3.168613E-17
7.180000E+03	3.194170E-16	3.163212E-17
7.190000E+03	3.180117E-16	3.156914E-17
7.200000E+03	3.166090E-16	3.149676E-17
7.210000E+03	3.152031E-16	3.141454E-17
7.220000E+03	3.138007E-16	3.132332E-17
7.230000E+03	3.124023E-16	3.122331E-17
7.240000E+03	3.110019E-16	3.111406E-17
7.250000E+03	3.095999E-16	3.099576E-17
7.260000E+03	3.081969E-16	3.086861E-17
7.270000E+03	3.067934E-16	3.073280E-17
7.280000E+03	3.053899E-16	3.058853E-17
7.290000E+03	3.039745E-16	3.043471E-17
7.300000E+03	3.025605E-16	3.027281E-17
7.310000E+03	3.011421E-16	3.010238E-17
7.320000E+03	2.997139E-16	2.992299E-17
7.330000E+03	2.982829E-16	2.973546E-17
7.340000E+03	2.968375E-16	2.953874E-17
7.350000E+03	2.953784E-16	2.933304E-17
7.360000E+03	2.939067E-16	2.911856E-17
7.370000E+03	2.924171E-16	2.889491E-17
7.380000E+03	2.909168E-16	2.866288E-17
7.390000E+03	2.893883E-16	2.842090E-17
7.400000E+03	2.878450E-16	2.817039E-17
7.410000E+03	2.862758E-16	2.791036E-17
7.420000E+03	2.846878E-16	2.764166E-17
7.430000E+03	2.830761E-16	2.736391E-17
7.440000E+03	2.814419E-16	2.707735E-17
7.450000E+03	2.797922E-16	2.678278E-17
7.460000E+03	2.781222E-16	2.647985E-17
7.470000E+03	2.764507E-16	2.617048E-17
7.480000E+03	2.747669E-16	2.585373E-17
7.490000E+03	2.730835E-16	2.553090E-17
7.500000E+03	2.713955E-16	2.520161E-17
7.510000E+03	2.697215E-16	2.486767E-17
7.520000E+03	2.680563E-16	2.452867E-17
7.530000E+03	2.664005E-16	2.418472E-17
7.540000E+03	2.647609E-16	2.383649E-17
7.550000E+03	2.631379E-16	2.348406E-17
7.560000E+03	2.615438E-16	2.312856E-17
7.570000E+03	2.599675E-16	2.276901E-17
7.580000E+03	2.584153E-16	2.240600E-17
7.590000E+03	2.568934E-16	2.204005E-17
7.600000E+03	2.553966E-16	2.167072E-17
7.610000E+03	2.539310E-16	2.129852E-17
7.620000E+03	2.524912E-16	2.092297E-17
7.630000E+03	2.510891E-16	2.054502E-17
7.640000E+03	2.497135E-16	2.016375E-17
7.650000E+03	2.483762E-16	1.978005E-17
7.660000E+03	2.470660E-16	1.939300E-17
7.670000E+03	2.457946E-16	1.900348E-17
7.680000E+03	2.445510E-16	1.861057E-17
7.690000E+03	2.433466E-16	1.821512E-17
7.700000E+03	2.421759E-16	1.781666E-17
7.710000E+03	2.410393E-16	1.741516E-17
7.720000E+03	2.399368E-16	1.701059E-17
7.730000E+03	2.388686E-16	1.660294E-17
7.740000E+03	2.378348E-16	1.619217E-17
7.750000E+03	2.368300E-16	1.577792E-17
7.760000E+03	2.358653E-16	1.536093E-17
