#wls	flux	fluxerr
1.600000E+03	2.241913E-16	1.235582E-16
1.640000E+03	2.319758E-16	1.262787E-16
1.680000E+03	2.402374E-16	1.291079E-16
1.720000E+03	2.489862E-16	1.320365E-16
1.760000E+03	2.582527E-16	1.350649E-16
1.800000E+03	2.680878E-16	1.382022E-16
1.840000E+03	2.784495E-16	1.414088E-16
1.880000E+03	2.894054E-16	1.447001E-16
1.920000E+03	3.009521E-16	1.480542E-16
1.960000E+03	3.130830E-16	1.514468E-16
2.000000E+03	3.257648E-16	1.548409E-16
2.040000E+03	3.389831E-16	1.582086E-16
2.080000E+03	3.526746E-16	1.614998E-16
2.120000E+03	3.667282E-16	1.646447E-16
2.160000E+03	3.810965E-16	1.676055E-16
2.200000E+03	3.956409E-16	1.703067E-16
2.240000E+03	4.102437E-16	1.726867E-16
2.280000E+03	4.248302E-16	1.747067E-16
2.320000E+03	4.393674E-16	1.763481E-16
2.360000E+03	4.538848E-16	1.776183E-16
2.400000E+03	4.684286E-16	1.785313E-16
2.440000E+03	4.830401E-16	1.790977E-16
2.480000E+03	4.978171E-16	1.793480E-16
2.520000E+03	5.127877E-16	1.792854E-16
2.560000E+03	5.280141E-16	1.789245E-16
2.600000E+03	5.434912E-16	1.782568E-16
2.640000E+03	5.592286E-16	1.772803E-16
2.680000E+03	5.751922E-16	1.759814E-16
2.720000E+03	5.913460E-16	1.743499E-16
2.760000E+03	6.076530E-16	1.723799E-16
2.800000E+03	6.240580E-16	1.700657E-16
2.840000E+03	6.405092E-16	1.674087E-16
2.880000E+03	6.569942E-16	1.644273E-16
2.920000E+03	6.734698E-16	1.611383E-16
2.960000E+03	6.899844E-16	1.575870E-16
3.000000E+03	7.065396E-16	1.538127E-16
3.010000E+03	7.107097E-16	1.528448E-16
3.020000E+03	7.148758E-16	1.518651E-16
3.030000E+03	7.190372E-16	1.508743E-16
3.040000E+03	7.232255E-16	1.498799E-16
3.050000E+03	7.274238E-16	1.488790E-16
3.060000E+03	7.316314E-16	1.478723E-16
3.070000E+03	7.358634E-16	1.468638E-16
3.080000E+03	7.401034E-16	1.458509E-16
3.090000E+03	7.443509E-16	1.448346E-16
3.100000E+03	7.486366E-16	1.438217E-16
3.110000E+03	7.529287E-16	1.428069E-16
3.120000E+03	7.572424E-16	1.417941E-16
3.130000E+03	7.615620E-16	1.407814E-16
3.140000E+03	7.659329E-16	1.397781E-16
3.150000E+03	7.703092E-16	1.387766E-16
3.160000E+03	7.747061E-16	1.377809E-16
3.170000E+03	7.791381E-16	1.367945E-16
3.180000E+03	7.836053E-16	1.358182E-16
3.190000E+03	7.880780E-16	1.348480E-16
3.200000E+03	7.926005E-16	1.338926E-16
3.210000E+03	7.971437E-16	1.329478E-16
3.220000E+03	8.017224E-16	1.320173E-16
3.230000E+03	8.063225E-16	1.310996E-16
3.240000E+03	8.109589E-16	1.301981E-16
3.250000E+03	8.156321E-16	1.293138E-16
3.260000E+03	8.203426E-16	1.284477E-16
3.270000E+03	8.250772E-16	1.275987E-16
3.280000E+03	8.298507E-16	1.267698E-16
3.290000E+03	8.346642E-16	1.259620E-16
3.300000E+03	8.395048E-16	1.251742E-16
3.310000E+03	8.443876E-16	1.244092E-16
3.320000E+03	8.493003E-16	1.236660E-16
3.330000E+03	8.542577E-16	1.229472E-16
3.340000E+03	8.592481E-16	1.222516E-16
3.350000E+03	8.642732E-16	1.215800E-16
3.360000E+03	8.693348E-16	1.209329E-16
3.370000E+03	8.744349E-16	1.203110E-16
3.380000E+03	8.795754E-16	1.197146E-16
3.390000E+03	8.847457E-16	1.191425E-16
3.400000E+03	8.899610E-16	1.185966E-16
3.410000E+03	8.951981E-16	1.180738E-16
3.420000E+03	9.004852E-16	1.175777E-16
3.430000E+03	9.057994E-16	1.171050E-16
3.440000E+03	9.111438E-16	1.166557E-16
3.450000E+03	9.165213E-16	1.162297E-16
3.460000E+03	9.219227E-16	1.158254E-16
3.470000E+03	9.273635E-16	1.154441E-16
3.480000E+03	9.328346E-16	1.150839E-16
3.490000E+03	9.383273E-16	1.147429E-16
3.500000E+03	9.438450E-16	1.144208E-16
3.510000E+03	9.493793E-16	1.141157E-16
3.520000E+03	9.549461E-16	1.138283E-16
3.530000E+03	9.605130E-16	1.135538E-16
3.540000E+03	9.660962E-16	1.132931E-16
3.550000E+03	9.716876E-16	1.130442E-16
3.560000E+03	9.772912E-16	1.128062E-16
3.570000E+03	9.828877E-16	1.125759E-16
3.580000E+03	9.884697E-16	1.123511E-16
3.590000E+03	9.940529E-16	1.121324E-16
3.600000E+03	9.996069E-16	1.119153E-16
3.610000E+03	1.005148E-15	1.117003E-16
3.620000E+03	1.010667E-15	1.114852E-16
3.630000E+03	1.016148E-15	1.112669E-16
3.640000E+03	1.021582E-15	1.110434E-16
3.650000E+03	1.026974E-15	1.108140E-16
3.660000E+03	1.032305E-15	1.105755E-16
3.670000E+03	1.037591E-15	1.103284E-16
3.680000E+03	1.042802E-15	1.100684E-16
3.690000E+03	1.047942E-15	1.097950E-16
3.700000E+03	1.053003E-15	1.095061E-16
3.710000E+03	1.057989E-15	1.092013E-16
3.720000E+03	1.062882E-15	1.088775E-16
3.730000E+03	1.067685E-15	1.085341E-16
3.740000E+03	1.072390E-15	1.081694E-16
3.750000E+03	1.076999E-15	1.077827E-16
3.760000E+03	1.081506E-15	1.073723E-16
3.770000E+03	1.085912E-15	1.069377E-16
3.780000E+03	1.090208E-15	1.064770E-16
3.790000E+03	1.094387E-15	1.059887E-16
3.800000E+03	1.098472E-15	1.054742E-16
3.810000E+03	1.102431E-15	1.049298E-16
3.820000E+03	1.106278E-15	1.043558E-16
3.830000E+03	1.110025E-15	1.037528E-16
3.840000E+03	1.113651E-15	1.031179E-16
3.850000E+03	1.117157E-15	1.024507E-16
3.860000E+03	1.120554E-15	1.017515E-16
3.870000E+03	1.123843E-15	1.010195E-16
3.880000E+03	1.127024E-15	1.002541E-16
3.890000E+03	1.130087E-15	9.945379E-17
3.900000E+03	1.133042E-15	9.861873E-17
3.910000E+03	1.135889E-15	9.774826E-17
3.920000E+03	1.138627E-15	9.684170E-17
3.930000E+03	1.141256E-15	9.589835E-17
3.940000E+03	1.143775E-15	9.491752E-17
3.950000E+03	1.146193E-15	9.389937E-17
3.960000E+03	1.148509E-15	9.284317E-17
3.970000E+03	1.150712E-15	9.174738E-17
3.980000E+03	1.152819E-15	9.061295E-17
3.990000E+03	1.154819E-15	8.943834E-17
4.000000E+03	1.156721E-15	8.822364E-17
4.010000E+03	1.158522E-15	8.696814E-17
4.020000E+03	1.160209E-15	8.567039E-17
4.030000E+03	1.161801E-15	8.433126E-17
4.040000E+03	1.163283E-15	8.294934E-17
4.050000E+03	1.164664E-15	8.152478E-17
4.060000E+03	1.165939E-15	8.005696E-17
4.070000E+03	1.167106E-15	7.854538E-17
4.080000E+03	1.168160E-15	7.698956E-17
4.090000E+03	1.169108E-15	7.538978E-17
4.100000E+03	1.169935E-15	7.374506E-17
4.110000E+03	1.170636E-15	7.205521E-17
4.120000E+03	1.171227E-15	7.032141E-17
4.130000E+03	1.171683E-15	6.854247E-17
4.140000E+03	1.172008E-15	6.671923E-17
4.150000E+03	1.172197E-15	6.485214E-17
4.160000E+03	1.172243E-15	6.294186E-17
4.170000E+03	1.172141E-15	6.098935E-17
4.180000E+03	1.171883E-15	5.899592E-17
4.190000E+03	1.171464E-15	5.696326E-17
4.200000E+03	1.170875E-15	5.489355E-17
4.210000E+03	1.170108E-15	5.278955E-17
4.220000E+03	1.169157E-15	5.065469E-17
4.230000E+03	1.168002E-15	4.849284E-17
4.240000E+03	1.166634E-15	4.630934E-17
4.250000E+03	1.165055E-15	4.411117E-17
4.260000E+03	1.163255E-15	4.190642E-17
4.270000E+03	1.161203E-15	3.970435E-17
4.280000E+03	1.158901E-15	3.751776E-17
4.290000E+03	1.156336E-15	3.536196E-17
4.300000E+03	1.153499E-15	3.325590E-17
4.310000E+03	1.150379E-15	3.122291E-17
4.320000E+03	1.146954E-15	2.929132E-17
4.330000E+03	1.143235E-15	2.749615E-17
4.340000E+03	1.139191E-15	2.587751E-17
4.350000E+03	1.134833E-15	2.448162E-17
4.360000E+03	1.130152E-15	2.335659E-17
4.370000E+03	1.125154E-15	2.254768E-17
4.380000E+03	1.119833E-15	2.208916E-17
4.390000E+03	1.114199E-15	2.199664E-17
4.400000E+03	1.108255E-15	2.226180E-17
4.410000E+03	1.102026E-15	2.285408E-17
4.420000E+03	1.095522E-15	2.372665E-17
4.430000E+03	1.088751E-15	2.482551E-17
4.440000E+03	1.081748E-15	2.609750E-17
4.450000E+03	1.074522E-15	2.749403E-17
4.460000E+03	1.067099E-15	2.897384E-17
4.470000E+03	1.059508E-15	3.050331E-17
4.480000E+03	1.051754E-15	3.205473E-17
4.490000E+03	1.043866E-15	3.360697E-17
4.500000E+03	1.035865E-15	3.514334E-17
4.510000E+03	1.027762E-15	3.665066E-17
4.520000E+03	1.019575E-15	3.811905E-17
4.530000E+03	1.011323E-15	3.954109E-17
4.540000E+03	1.003022E-15	4.091126E-17
4.550000E+03	9.946886E-16	4.222560E-17
4.560000E+03	9.863296E-16	4.348093E-17
4.570000E+03	9.779501E-16	4.467505E-17
4.580000E+03	9.695828E-16	4.580776E-17
4.590000E+03	9.612223E-16	4.687784E-17
4.600000E+03	9.528724E-16	4.788494E-17
4.610000E+03	9.445541E-16	4.883002E-17
4.620000E+03	9.362788E-16	4.971395E-17
4.630000E+03	9.280304E-16	5.053639E-17
4.640000E+03	9.198463E-16	5.130011E-17
4.650000E+03	9.117008E-16	5.200459E-17
4.660000E+03	9.036211E-16	5.265243E-17
4.670000E+03	8.956076E-16	5.324482E-17
4.680000E+03	8.876603E-16	5.378299E-17
4.690000E+03	8.797789E-16	5.426824E-17
4.700000E+03	8.719633E-16	5.470186E-17
4.710000E+03	8.642300E-16	5.508624E-17
4.720000E+03	8.565696E-16	5.542219E-17
4.730000E+03	8.489812E-16	5.571100E-17
4.740000E+03	8.414724E-16	5.595454E-17
4.750000E+03	8.340253E-16	5.615296E-17
4.760000E+03	8.266640E-16	5.630921E-17
4.770000E+03	8.193624E-16	5.642283E-17
4.780000E+03	8.121360E-16	5.649613E-17
4.790000E+03	8.049835E-16	5.653030E-17
4.800000E+03	7.978877E-16	5.652534E-17
4.810000E+03	7.908557E-16	5.648291E-17
4.820000E+03	7.838945E-16	5.640468E-17
4.830000E+03	7.769871E-16	5.629053E-17
4.840000E+03	7.701408E-16	5.614207E-17
4.850000E+03	7.633545E-16	5.596027E-17
4.860000E+03	7.566197E-16	5.574553E-17
4.870000E+03	7.499361E-16	5.549879E-17
4.880000E+03	7.433105E-16	5.522151E-17
4.890000E+03	7.367349E-16	5.491403E-17
4.900000E+03	7.302163E-16	5.457776E-17
4.910000E+03	7.237397E-16	5.421243E-17
4.920000E+03	7.173122E-16	5.381943E-17
4.930000E+03	7.109338E-16	5.339956E-17
4.940000E+03	7.045974E-16	5.295307E-17
4.950000E+03	6.983104E-16	5.248130E-17
4.960000E+03	6.920659E-16	5.198445E-17
4.970000E+03	6.858716E-16	5.146384E-17
4.980000E+03	6.797210E-16	5.091966E-17
4.990000E+03	6.736149E-16	5.035267E-17
5.000000E+03	6.675472E-16	4.976308E-17
5.010000E+03	6.615329E-16	4.915265E-17
5.020000E+03	6.555594E-16	4.852108E-17
5.030000E+03	6.496283E-16	4.786909E-17
5.040000E+03	6.437477E-16	4.719791E-17
5.050000E+03	6.379127E-16	4.650774E-17
5.060000E+03	6.321250E-16	4.579931E-17
5.070000E+03	6.263868E-16	4.507333E-17
5.080000E+03	6.206999E-16	4.433051E-17
5.090000E+03	6.150605E-16	4.357109E-17
5.100000E+03	6.094708E-16	4.279580E-17
5.110000E+03	6.039397E-16	4.200580E-17
5.120000E+03	5.984575E-16	4.120094E-17
5.130000E+03	5.930392E-16	4.038277E-17
5.140000E+03	5.876695E-16	3.955078E-17
5.150000E+03	5.823636E-16	3.870654E-17
5.160000E+03	5.771186E-16	3.785036E-17
5.170000E+03	5.719377E-16	3.698299E-17
5.180000E+03	5.668243E-16	3.610520E-17
5.190000E+03	5.617760E-16	3.521738E-17
5.200000E+03	5.567963E-16	3.432034E-17
5.210000E+03	5.518832E-16	3.341454E-17
5.220000E+03	5.470518E-16	3.250153E-17
5.230000E+03	5.422889E-16	3.158118E-17
5.240000E+03	5.376040E-16	3.065477E-17
5.250000E+03	5.330010E-16	2.972328E-17
5.260000E+03	5.284838E-16	2.878775E-17
5.270000E+03	5.240456E-16	2.784872E-17
5.280000E+03	5.196961E-16	2.690775E-17
5.290000E+03	5.154339E-16	2.596591E-17
5.300000E+03	5.112634E-16	2.502470E-17
5.310000E+03	5.071837E-16	2.408558E-17
5.320000E+03	5.032042E-16	2.315070E-17
5.330000E+03	4.993192E-16	2.222173E-17
5.340000E+03	4.955332E-16	2.130118E-17
5.350000E+03	4.918459E-16	2.039172E-17
5.360000E+03	4.882670E-16	1.949687E-17
5.370000E+03	4.847864E-16	1.861992E-17
5.380000E+03	4.814140E-16	1.776560E-17
5.390000E+03	4.781498E-16	1.693900E-17
5.400000E+03	4.749941E-16	1.614608E-17
5.410000E+03	4.719378E-16	1.539350E-17
5.420000E+03	4.689812E-16	1.468928E-17
5.430000E+03	4.661250E-16	1.404245E-17
5.440000E+03	4.633508E-16	1.346237E-17
5.450000E+03	4.606590E-16	1.295956E-17
5.460000E+03	4.580356E-16	1.254404E-17
5.470000E+03	4.554754E-16	1.222518E-17
5.480000E+03	4.529952E-16	1.201084E-17
5.490000E+03	4.505920E-16	1.190509E-17
5.500000E+03	4.482798E-16	1.190825E-17
5.510000E+03	4.460620E-16	1.201606E-17
5.520000E+03	4.439541E-16	1.222081E-17
5.530000E+03	4.419481E-16	1.251166E-17
5.540000E+03	4.400487E-16	1.287680E-17
5.550000E+03	4.382510E-16	1.330399E-17
5.560000E+03	4.365633E-16	1.378196E-17
5.570000E+03	4.349756E-16	1.429992E-17
5.580000E+03	4.334871E-16	1.484861E-17
5.590000E+03	4.320923E-16	1.541990E-17
5.600000E+03	4.307949E-16	1.600721E-17
5.610000E+03	4.295852E-16	1.660455E-17
5.620000E+03	4.284626E-16	1.720725E-17
5.630000E+03	4.274269E-16	1.781145E-17
5.640000E+03	4.264733E-16	1.841383E-17
5.650000E+03	4.256017E-16	1.901183E-17
5.660000E+03	4.248035E-16	1.960297E-17
5.670000E+03	4.240789E-16	2.018558E-17
5.680000E+03	4.234285E-16	2.075832E-17
5.690000E+03	4.228483E-16	2.131991E-17
5.700000E+03	4.223348E-16	2.186932E-17
5.710000E+03	4.218844E-16	2.240566E-17
5.720000E+03	4.215026E-16	2.292870E-17
5.730000E+03	4.211773E-16	2.343736E-17
5.740000E+03	4.209144E-16	2.393165E-17
5.750000E+03	4.207108E-16	2.441116E-17
5.760000E+03	4.205591E-16	2.487531E-17
5.770000E+03	4.204612E-16	2.532407E-17
5.780000E+03	4.204188E-16	2.575748E-17
5.790000E+03	4.204249E-16	2.617505E-17
5.800000E+03	4.204770E-16	2.657662E-17
5.810000E+03	4.205818E-16	2.696261E-17
5.820000E+03	4.207280E-16	2.733230E-17
5.830000E+03	4.209178E-16	2.768585E-17
5.840000E+03	4.211492E-16	2.802316E-17
5.850000E+03	4.214201E-16	2.834411E-17
5.860000E+03	4.217332E-16	2.864889E-17
5.870000E+03	4.220771E-16	2.893678E-17
5.880000E+03	4.224593E-16	2.920830E-17
5.890000E+03	4.228734E-16	2.946299E-17
5.900000E+03	4.233175E-16	2.970076E-17
5.910000E+03	4.237899E-16	2.992145E-17
5.920000E+03	4.242890E-16	3.012495E-17
5.930000E+03	4.248178E-16	3.031144E-17
5.940000E+03	4.253653E-16	3.048011E-17
5.950000E+03	4.259297E-16	3.063078E-17
5.960000E+03	4.265145E-16	3.076365E-17
5.970000E+03	4.271181E-16	3.087854E-17
5.980000E+03	4.277294E-16	3.097457E-17
5.990000E+03	4.283567E-16	3.105227E-17
6.000000E+03	4.289839E-16	3.111036E-17
6.010000E+03	4.296244E-16	3.114975E-17
6.020000E+03	4.302622E-16	3.116914E-17
6.030000E+03	4.308957E-16	3.116833E-17
6.040000E+03	4.315289E-16	3.114748E-17
6.050000E+03	4.321554E-16	3.110601E-17
6.060000E+03	4.327742E-16	3.104372E-17
6.070000E+03	4.333737E-16	3.095967E-17
6.080000E+03	4.339632E-16	3.085439E-17
6.090000E+03	4.345259E-16	3.072656E-17
6.100000E+03	4.350711E-16	3.057672E-17
6.110000E+03	4.355926E-16	3.040432E-17
6.120000E+03	4.360839E-16	3.020880E-17
6.130000E+03	4.365439E-16	2.998996E-17
6.140000E+03	4.369769E-16	2.974802E-17
6.150000E+03	4.373763E-16	2.948242E-17
6.160000E+03	4.377410E-16	2.919302E-17
6.170000E+03	4.380809E-16	2.888040E-17
6.180000E+03	4.383839E-16	2.854368E-17
6.190000E+03	4.386544E-16	2.818309E-17
6.200000E+03	4.388966E-16	2.779889E-17
6.210000E+03	4.391152E-16	2.739130E-17
6.220000E+03	4.393032E-16	2.695987E-17
6.230000E+03	4.394594E-16	2.650452E-17
6.240000E+03	4.395881E-16	2.602556E-17
6.250000E+03	4.396820E-16	2.552259E-17
6.260000E+03	4.397453E-16	2.499597E-17
6.270000E+03	4.397764E-16	2.444574E-17
6.280000E+03	4.397793E-16	2.387230E-17
6.290000E+03	4.397521E-16	2.327578E-17
6.300000E+03	4.396928E-16	2.265638E-17
6.310000E+03	4.396053E-16	2.201469E-17
6.320000E+03	4.394934E-16	2.135135E-17
6.330000E+03	4.393487E-16	2.066655E-17
6.340000E+03	4.391749E-16	1.996119E-17
6.350000E+03	4.389755E-16	1.923632E-17
6.360000E+03	4.387417E-16	1.849265E-17
6.370000E+03	4.384831E-16	1.773196E-17
6.380000E+03	4.381968E-16	1.695578E-17
6.390000E+03	4.378799E-16	1.616608E-17
6.400000E+03	4.375294E-16	1.536532E-17
6.410000E+03	4.371549E-16	1.455707E-17
6.420000E+03	4.367469E-16	1.374505E-17
6.430000E+03	4.363150E-16	1.293472E-17
6.440000E+03	4.358562E-16	1.213249E-17
6.450000E+03	4.353675E-16	1.134665E-17
6.460000E+03	4.348522E-16	1.058801E-17
6.470000E+03	4.343074E-16	9.870220E-18
6.480000E+03	4.337368E-16	9.210608E-18
6.490000E+03	4.331244E-16	8.629943E-18
6.500000E+03	4.324805E-16	8.152865E-18
6.510000E+03	4.318029E-16	7.804957E-18
6.520000E+03	4.310823E-16	7.608798E-18
6.530000E+03	4.303236E-16	7.578804E-18
6.540000E+03	4.295250E-16	7.716410E-18
6.550000E+03	4.286853E-16	8.009613E-18
6.560000E+03	4.278035E-16	8.436701E-18
6.570000E+03	4.268858E-16	8.971959E-18
6.580000E+03	4.259251E-16	9.589890E-18
6.590000E+03	4.249210E-16	1.026818E-17
6.600000E+03	4.238806E-16	1.098861E-17
6.610000E+03	4.228043E-16	1.173656E-17
6.620000E+03	4.216854E-16	1.250039E-17
6.630000E+03	4.205316E-16	1.327144E-17
6.640000E+03	4.193366E-16	1.404263E-17
6.650000E+03	4.181157E-16	1.480909E-17
6.660000E+03	4.168557E-16	1.556624E-17
6.670000E+03	4.155579E-16	1.631083E-17
6.680000E+03	4.142308E-16	1.704062E-17
6.690000E+03	4.128760E-16	1.775371E-17
6.700000E+03	4.114880E-16	1.844830E-17
6.710000E+03	4.100685E-16	1.912323E-17
6.720000E+03	4.086265E-16	1.977801E-17
6.730000E+03	4.071568E-16	2.041169E-17
6.740000E+03	4.056685E-16	2.102423E-17
6.750000E+03	4.041494E-16	2.161465E-17
6.760000E+03	4.026159E-16	2.218361E-17
6.770000E+03	4.010558E-16	2.273033E-17
6.780000E+03	3.994856E-16	2.325573E-17
6.790000E+03	3.978933E-16	2.375918E-17
6.800000E+03	3.962883E-16	2.424134E-17
6.810000E+03	3.946728E-16	2.470256E-17
6.820000E+03	3.930417E-16	2.514274E-17
6.830000E+03	3.914047E-16	2.556275E-17
6.840000E+03	3.897566E-16	2.596255E-17
6.850000E+03	3.881070E-16	2.634309E-17
6.860000E+03	3.864433E-16	2.670388E-17
6.870000E+03	3.847823E-16	2.704638E-17
6.880000E+03	3.831188E-16	2.737062E-17
6.890000E+03	3.814547E-16	2.767710E-17
6.900000E+03	3.797848E-16	2.796580E-17
6.910000E+03	3.781253E-16	2.823831E-17
6.920000E+03	3.764564E-16	2.849350E-17
6.930000E+03	3.748014E-16	2.873352E-17
6.940000E+03	3.731476E-16	2.895775E-17
6.950000E+03	3.714965E-16	2.916669E-17
6.960000E+03	3.698568E-16	2.936136E-17
6.970000E+03	3.682225E-16	2.954166E-17
6.980000E+03	3.665950E-16	2.970804E-17
6.990000E+03	3.649755E-16	2.986093E-17
7.000000E+03	3.633651E-16	3.000074E-17
7.010000E+03	3.617647E-16	3.012788E-17
7.020000E+03	3.601682E-16	3.024214E-17
7.030000E+03	3.585905E-16	3.034509E-17
7.040000E+03	3.570113E-16	3.043530E-17
7.050000E+03	3.554522E-16	3.051490E-17
7.060000E+03	3.538928E-16	3.058241E-17
7.070000E+03	3.523477E-16	3.063936E-17
7.080000E+03	3.508103E-16	3.068543E-17
7.090000E+03	3.492810E-16	3.072092E-17
7.100000E+03	3.477671E-16	3.074672E-17
7.110000E+03	3.462549E-16	3.076184E-17
7.120000E+03	3.447517E-16	3.076717E-17
7.130000E+03	3.432508E-16	3.076231E-17
7.140000E+03	3.417593E-16	3.074813E-17
7.150000E+03	3.402774E-16	3.072483E-17
7.160000E+03	3.387983E-16	3.069201E-17
7.170000E+03	3.373292E-16	3.065051E-17
7.180000E+03	3.358564E-16	3.059926E-17
7.190000E+03	3.343939E-16	3.053973E-17
7.200000E+03	3.329350E-16	3.047146E-17
7.210000E+03	3.314732E-16	3.039402E-17
7.220000E+03	3.300156E-16	3.030822E-17
7.230000E+03	3.285624E-16	3.021424E-17
7.240000E+03	3.271072E-16	3.011164E-17
7.250000E+03	3.256504E-16	3.000058E-17
7.260000E+03	3.241926E-16	2.988126E-17
7.270000E+03	3.227341E-16	2.975385E-17
7.280000E+03	3.212755E-16	2.961852E-17
7.290000E+03	3.198041E-16	2.947422E-17
7.300000E+03	3.183338E-16	2.932236E-17
7.310000E+03	3.168588E-16	2.916251E-17
7.320000E+03	3.153731E-16	2.899424E-17
7.330000E+03	3.138842E-16	2.881834E-17
7.340000E+03	3.123797E-16	2.863379E-17
7.350000E+03	3.108608E-16	2.844079E-17
7.360000E+03	3.093283E-16	2.823953E-17
7.370000E+03	3.077768E-16	2.802961E-17
7.380000E+03	3.062139E-16	2.781184E-17
7.390000E+03	3.046213E-16	2.758464E-17
7.400000E+03	3.030130E-16	2.734940E-17
7.410000E+03	3.013775E-16	2.710518E-17
7.420000E+03	2.997223E-16	2.685277E-17
7.430000E+03	2.980423E-16	2.659180E-17
7.440000E+03	2.963387E-16	2.632250E-17
7.450000E+03	2.946191E-16	2.604564E-17
7.460000E+03	2.928784E-16	2.576087E-17
7.470000E+03	2.911364E-16	2.547004E-17
7.480000E+03	2.893818E-16	2.517223E-17
7.490000E+03	2.876281E-16	2.486871E-17
7.500000E+03	2.858700E-16	2.455908E-17
7.510000E+03	2.841270E-16	2.424510E-17
7.520000E+03	2.823938E-16	2.392634E-17
7.530000E+03	2.806711E-16	2.360292E-17
7.540000E+03	2.789659E-16	2.327545E-17
7.550000E+03	2.772788E-16	2.294403E-17
7.560000E+03	2.756228E-16	2.260972E-17
7.570000E+03	2.739860E-16	2.227156E-17
7.580000E+03	2.723753E-16	2.193009E-17
7.590000E+03	2.707971E-16	2.158584E-17
7.600000E+03	2.692460E-16	2.123832E-17
7.610000E+03	2.677282E-16	2.088803E-17
7.620000E+03	2.662384E-16	2.053448E-17
7.630000E+03	2.647888E-16	2.017858E-17
7.640000E+03	2.633678E-16	1.981940E-17
7.650000E+03	2.619877E-16	1.945780E-17
7.660000E+03	2.606369E-16	1.909285E-17
7.670000E+03	2.593275E-16	1.872539E-17
7.680000E+03	2.580479E-16	1.835451E-17
7.690000E+03	2.568103E-16	1.798099E-17
7.700000E+03	2.556089E-16	1.760436E-17
7.710000E+03	2.544439E-16	1.722456E-17
7.720000E+03	2.533155E-16	1.684155E-17
7.730000E+03	2.522238E-16	1.645526E-17
7.740000E+03	2.511690E-16	1.606565E-17
7.750000E+03	2.501453E-16	1.567233E-17
7.760000E+03	2.491643E-16	1.527599E-17
