#wls	flux	fluxerr
1.600000E+03	2.824094E-16	1.485473E-16
1.640000E+03	2.917199E-16	1.512558E-16
1.680000E+03	3.014950E-16	1.540045E-16
1.720000E+03	3.117396E-16	1.567789E-16
1.760000E+03	3.225355E-16	1.596019E-16
1.800000E+03	3.338878E-16	1.624555E-16
1.840000E+03	3.458398E-16	1.653395E-16
1.880000E+03	3.584346E-16	1.682513E-16
1.920000E+03	3.716735E-16	1.711669E-16
1.960000E+03	3.857230E-16	1.741359E-16
2.000000E+03	4.004988E-16	1.770905E-16
2.040000E+03	4.162104E-16	1.800920E-16
2.080000E+03	4.328982E-16	1.831217E-16
2.120000E+03	4.506873E-16	1.861931E-16
2.160000E+03	4.697469E-16	1.893317E-16
2.200000E+03	4.902911E-16	1.925726E-16
2.240000E+03	5.125332E-16	1.959409E-16
2.280000E+03	5.366839E-16	1.994500E-16
2.320000E+03	5.629942E-16	2.031179E-16
2.360000E+03	5.914744E-16	2.068657E-16
2.400000E+03	6.222585E-16	2.106551E-16
2.440000E+03	6.552282E-16	2.143579E-16
2.480000E+03	6.904316E-16	2.179032E-16
2.520000E+03	7.278465E-16	2.211966E-16
2.560000E+03	7.674251E-16	2.241376E-16
2.600000E+03	8.091389E-16	2.266345E-16
2.640000E+03	8.528329E-16	2.285652E-16
2.680000E+03	8.985094E-16	2.298580E-16
2.720000E+03	9.458958E-16	2.303783E-16
2.760000E+03	9.948721E-16	2.300455E-16
2.800000E+03	1.045229E-15	2.287723E-16
2.840000E+03	1.096669E-15	2.264717E-16
2.880000E+03	1.149083E-15	2.231184E-16
2.920000E+03	1.202398E-15	2.187117E-16
2.960000E+03	1.256664E-15	2.132895E-16
3.000000E+03	1.311987E-15	2.069141E-16
3.010000E+03	1.326044E-15	2.051877E-16
3.020000E+03	1.340129E-15	2.034005E-16
3.030000E+03	1.354274E-15	2.015591E-16
3.040000E+03	1.368554E-15	1.996757E-16
3.050000E+03	1.382912E-15	1.977432E-16
3.060000E+03	1.397334E-15	1.957612E-16
3.070000E+03	1.411893E-15	1.937414E-16
3.080000E+03	1.426488E-15	1.916716E-16
3.090000E+03	1.441233E-15	1.895690E-16
3.100000E+03	1.456069E-15	1.874276E-16
3.110000E+03	1.470980E-15	1.852474E-16
3.120000E+03	1.486035E-15	1.830391E-16
3.130000E+03	1.501174E-15	1.807977E-16
3.140000E+03	1.516462E-15	1.785333E-16
3.150000E+03	1.531840E-15	1.762413E-16
3.160000E+03	1.547290E-15	1.739227E-16
3.170000E+03	1.562913E-15	1.715919E-16
3.180000E+03	1.578610E-15	1.692406E-16
3.190000E+03	1.594439E-15	1.668788E-16
3.200000E+03	1.610381E-15	1.645075E-16
3.210000E+03	1.626412E-15	1.621281E-16
3.220000E+03	1.642551E-15	1.597465E-16
3.230000E+03	1.658774E-15	1.573643E-16
3.240000E+03	1.675135E-15	1.549912E-16
3.250000E+03	1.691534E-15	1.526220E-16
3.260000E+03	1.708023E-15	1.502665E-16
3.270000E+03	1.724577E-15	1.479273E-16
3.280000E+03	1.741208E-15	1.456107E-16
3.290000E+03	1.757853E-15	1.433166E-16
3.300000E+03	1.774524E-15	1.410517E-16
3.310000E+03	1.791196E-15	1.388196E-16
3.320000E+03	1.807878E-15	1.366267E-16
3.330000E+03	1.824545E-15	1.344770E-16
3.340000E+03	1.841134E-15	1.323716E-16
3.350000E+03	1.857655E-15	1.303173E-16
3.360000E+03	1.874050E-15	1.283157E-16
3.370000E+03	1.890329E-15	1.263732E-16
3.380000E+03	1.906432E-15	1.244913E-16
3.390000E+03	1.922338E-15	1.226737E-16
3.400000E+03	1.937992E-15	1.209220E-16
3.410000E+03	1.953374E-15	1.192392E-16
3.420000E+03	1.968434E-15	1.176264E-16
3.430000E+03	1.983154E-15	1.160861E-16
3.440000E+03	1.997425E-15	1.146147E-16
3.450000E+03	2.011268E-15	1.132158E-16
3.460000E+03	2.024611E-15	1.118870E-16
3.470000E+03	2.037388E-15	1.106257E-16
3.480000E+03	2.049596E-15	1.094321E-16
3.490000E+03	2.061147E-15	1.083011E-16
3.500000E+03	2.071988E-15	1.072290E-16
3.510000E+03	2.082129E-15	1.062150E-16
3.520000E+03	2.091468E-15	1.052517E-16
3.530000E+03	2.100025E-15	1.043377E-16
3.540000E+03	2.107710E-15	1.034656E-16
3.550000E+03	2.114552E-15	1.026336E-16
3.560000E+03	2.120474E-15	1.018345E-16
3.570000E+03	2.125488E-15	1.010651E-16
3.580000E+03	2.129583E-15	1.003212E-16
3.590000E+03	2.132779E-15	9.959998E-17
3.600000E+03	2.135075E-15	9.889742E-17
3.610000E+03	2.136447E-15	9.820876E-17
3.620000E+03	2.136954E-15	9.753303E-17
3.630000E+03	2.136557E-15	9.686493E-17
3.640000E+03	2.135295E-15	9.620296E-17
3.650000E+03	2.133164E-15	9.554371E-17
3.660000E+03	2.130231E-15	9.488731E-17
3.670000E+03	2.126495E-15	9.423090E-17
3.680000E+03	2.122004E-15	9.357398E-17
3.690000E+03	2.116826E-15	9.291719E-17
3.700000E+03	2.110985E-15	9.225924E-17
3.710000E+03	2.104569E-15	9.160185E-17
3.720000E+03	2.097597E-15	9.094381E-17
3.730000E+03	2.090152E-15	9.028678E-17
3.740000E+03	2.082289E-15	8.963132E-17
3.750000E+03	2.074040E-15	8.897698E-17
3.760000E+03	2.065473E-15	8.832496E-17
3.770000E+03	2.056631E-15	8.767542E-17
3.780000E+03	2.047571E-15	8.702913E-17
3.790000E+03	2.038326E-15	8.638582E-17
3.800000E+03	2.028942E-15	8.574582E-17
3.810000E+03	2.019422E-15	8.510760E-17
3.820000E+03	2.009840E-15	8.447267E-17
3.830000E+03	2.000169E-15	8.383828E-17
3.840000E+03	1.990474E-15	8.320549E-17
3.850000E+03	1.980739E-15	8.257197E-17
3.860000E+03	1.970998E-15	8.193757E-17
3.870000E+03	1.961230E-15	8.129968E-17
3.880000E+03	1.951461E-15	8.065785E-17
3.890000E+03	1.941681E-15	8.000998E-17
3.900000E+03	1.931875E-15	7.935392E-17
3.910000E+03	1.922064E-15	7.868889E-17
3.920000E+03	1.912228E-15	7.801260E-17
3.930000E+03	1.902349E-15	7.732277E-17
3.940000E+03	1.892421E-15	7.661782E-17
3.950000E+03	1.882441E-15	7.589615E-17
3.960000E+03	1.872384E-15	7.515554E-17
3.970000E+03	1.862228E-15	7.439383E-17
3.980000E+03	1.851949E-15	7.360895E-17
3.990000E+03	1.841555E-15	7.280025E-17
4.000000E+03	1.831023E-15	7.196583E-17
4.010000E+03	1.820328E-15	7.110394E-17
4.020000E+03	1.809447E-15	7.021299E-17
4.030000E+03	1.798358E-15	6.929152E-17
4.040000E+03	1.787072E-15	6.833946E-17
4.050000E+03	1.775536E-15	6.735446E-17
4.060000E+03	1.763779E-15	6.633732E-17
4.070000E+03	1.751738E-15	6.528551E-17
4.080000E+03	1.739444E-15	6.420012E-17
4.090000E+03	1.726869E-15	6.308014E-17
4.100000E+03	1.714004E-15	6.192531E-17
4.110000E+03	1.700842E-15	6.073559E-17
4.120000E+03	1.687380E-15	5.951112E-17
4.130000E+03	1.673632E-15	5.825278E-17
4.140000E+03	1.659600E-15	5.696115E-17
4.150000E+03	1.645277E-15	5.563659E-17
4.160000E+03	1.630674E-15	5.428027E-17
4.170000E+03	1.615819E-15	5.289414E-17
4.180000E+03	1.600729E-15	5.148003E-17
4.190000E+03	1.585427E-15	5.004020E-17
4.200000E+03	1.569924E-15	4.857698E-17
4.210000E+03	1.554250E-15	4.709369E-17
4.220000E+03	1.538452E-15	4.559464E-17
4.230000E+03	1.522566E-15	4.408445E-17
4.240000E+03	1.506606E-15	4.256781E-17
4.250000E+03	1.490654E-15	4.105212E-17
4.260000E+03	1.474718E-15	3.954367E-17
4.270000E+03	1.458858E-15	3.805131E-17
4.280000E+03	1.443139E-15	3.658508E-17
4.290000E+03	1.427587E-15	3.515549E-17
4.300000E+03	1.412268E-15	3.377544E-17
4.310000E+03	1.397225E-15	3.245877E-17
4.320000E+03	1.382510E-15	3.122106E-17
4.330000E+03	1.368177E-15	3.007916E-17
4.340000E+03	1.354254E-15	2.905023E-17
4.350000E+03	1.340778E-15	2.815189E-17
4.360000E+03	1.327793E-15	2.740109E-17
4.370000E+03	1.315361E-15	2.681296E-17
4.380000E+03	1.303515E-15	2.639843E-17
4.390000E+03	1.292287E-15	2.616329E-17
4.400000E+03	1.281703E-15	2.610308E-17
4.410000E+03	1.271734E-15	2.620299E-17
4.420000E+03	1.262376E-15	2.644482E-17
4.430000E+03	1.253600E-15	2.680769E-17
4.440000E+03	1.245377E-15	2.727018E-17
4.450000E+03	1.237694E-15	2.781207E-17
4.460000E+03	1.230508E-15	2.841405E-17
4.470000E+03	1.223807E-15	2.905965E-17
4.480000E+03	1.217549E-15	2.973393E-17
4.490000E+03	1.211715E-15	3.042475E-17
4.500000E+03	1.206295E-15	3.112235E-17
4.510000E+03	1.201251E-15	3.181810E-17
4.520000E+03	1.196577E-15	3.250585E-17
4.530000E+03	1.192238E-15	3.318004E-17
4.540000E+03	1.188219E-15	3.383684E-17
4.550000E+03	1.184505E-15	3.447341E-17
4.560000E+03	1.181084E-15	3.508775E-17
4.570000E+03	1.177931E-15	3.567818E-17
4.580000E+03	1.175034E-15	3.624384E-17
4.590000E+03	1.172367E-15	3.678397E-17
4.600000E+03	1.169917E-15	3.729842E-17
4.610000E+03	1.167679E-15	3.778765E-17
4.620000E+03	1.165629E-15	3.825161E-17
4.630000E+03	1.163741E-15	3.869040E-17
4.640000E+03	1.162010E-15	3.910491E-17
4.650000E+03	1.160412E-15	3.949539E-17
4.660000E+03	1.158941E-15	3.986288E-17
4.670000E+03	1.157562E-15	4.020739E-17
4.680000E+03	1.156272E-15	4.053003E-17
4.690000E+03	1.155049E-15	4.083124E-17
4.700000E+03	1.153870E-15	4.111149E-17
4.710000E+03	1.152696E-15	4.137051E-17
4.720000E+03	1.151527E-15	4.160956E-17
4.730000E+03	1.150328E-15	4.182842E-17
4.740000E+03	1.149073E-15	4.202727E-17
4.750000E+03	1.147729E-15	4.220591E-17
4.760000E+03	1.146306E-15	4.236569E-17
4.770000E+03	1.144757E-15	4.250568E-17
4.780000E+03	1.143084E-15	4.262688E-17
4.790000E+03	1.141273E-15	4.272949E-17
4.800000E+03	1.139324E-15	4.281413E-17
4.810000E+03	1.137225E-15	4.288096E-17
4.820000E+03	1.134977E-15	4.293056E-17
4.830000E+03	1.132584E-15	4.296344E-17
4.840000E+03	1.130040E-15	4.297967E-17
4.850000E+03	1.127358E-15	4.298008E-17
4.860000E+03	1.124556E-15	4.296543E-17
4.870000E+03	1.121618E-15	4.293525E-17
4.880000E+03	1.118563E-15	4.289020E-17
4.890000E+03	1.115406E-15	4.283089E-17
4.900000E+03	1.112144E-15	4.275710E-17
4.910000E+03	1.108785E-15	4.266896E-17
4.920000E+03	1.105356E-15	4.256738E-17
4.930000E+03	1.101854E-15	4.245203E-17
4.940000E+03	1.098276E-15	4.232262E-17
4.950000E+03	1.094659E-15	4.218041E-17
4.960000E+03	1.090992E-15	4.202470E-17
4.970000E+03	1.087290E-15	4.185598E-17
4.980000E+03	1.083562E-15	4.167439E-17
4.990000E+03	1.079815E-15	4.148006E-17
5.000000E+03	1.076067E-15	4.127354E-17
5.010000E+03	1.072315E-15	4.105461E-17
5.020000E+03	1.068577E-15	4.082384E-17
5.030000E+03	1.064850E-15	4.058103E-17
5.040000E+03	1.061152E-15	4.032671E-17
5.050000E+03	1.057491E-15	4.006104E-17
5.060000E+03	1.053863E-15	3.978376E-17
5.070000E+03	1.050285E-15	3.949533E-17
5.080000E+03	1.046775E-15	3.919614E-17
5.090000E+03	1.043317E-15	3.888545E-17
5.100000E+03	1.039927E-15	3.856354E-17
5.110000E+03	1.036611E-15	3.823026E-17
5.120000E+03	1.033362E-15	3.788505E-17
5.130000E+03	1.030206E-15	3.752834E-17
5.140000E+03	1.027125E-15	3.715907E-17
5.150000E+03	1.024133E-15	3.677714E-17
5.160000E+03	1.021222E-15	3.638170E-17
5.170000E+03	1.018403E-15	3.597252E-17
5.180000E+03	1.015669E-15	3.554858E-17
5.190000E+03	1.013029E-15	3.510948E-17
5.200000E+03	1.010474E-15	3.465409E-17
5.210000E+03	1.007992E-15	3.418119E-17
5.220000E+03	1.005602E-15	3.369054E-17
5.230000E+03	1.003290E-15	3.318083E-17
5.240000E+03	1.001044E-15	3.265076E-17
5.250000E+03	9.988670E-16	3.209966E-17
5.260000E+03	9.967444E-16	3.152626E-17
5.270000E+03	9.946786E-16	3.092998E-17
5.280000E+03	9.926422E-16	3.030942E-17
5.290000E+03	9.906361E-16	2.966428E-17
5.300000E+03	9.886507E-16	2.899415E-17
5.310000E+03	9.866760E-16	2.829891E-17
5.320000E+03	9.846822E-16	2.757830E-17
5.330000E+03	9.826785E-16	2.683363E-17
5.340000E+03	9.806452E-16	2.606598E-17
5.350000E+03	9.785633E-16	2.527718E-17
5.360000E+03	9.764344E-16	2.447046E-17
5.370000E+03	9.742322E-16	2.364937E-17
5.380000E+03	9.719710E-16	2.281968E-17
5.390000E+03	9.696283E-16	2.198765E-17
5.400000E+03	9.672034E-16	2.116174E-17
5.410000E+03	9.647076E-16	2.035248E-17
5.420000E+03	9.621256E-16	1.957182E-17
5.430000E+03	9.594640E-16	1.883429E-17
5.440000E+03	9.567411E-16	1.815661E-17
5.450000E+03	9.539578E-16	1.755669E-17
5.460000E+03	9.511350E-16	1.705361E-17
5.470000E+03	9.482754E-16	1.666548E-17
5.480000E+03	9.453810E-16	1.640808E-17
5.490000E+03	9.424619E-16	1.629293E-17
5.500000E+03	9.395143E-16	1.632338E-17
5.510000E+03	9.365528E-16	1.649132E-17
5.520000E+03	9.335509E-16	1.678151E-17
5.530000E+03	9.304993E-16	1.717546E-17
5.540000E+03	9.273976E-16	1.765340E-17
5.550000E+03	9.242168E-16	1.819526E-17
5.560000E+03	9.209755E-16	1.878329E-17
5.570000E+03	9.176365E-16	1.940066E-17
5.580000E+03	9.142018E-16	2.003363E-17
5.590000E+03	9.106652E-16	2.067053E-17
5.600000E+03	9.070219E-16	2.130187E-17
5.610000E+03	9.032692E-16	2.192001E-17
5.620000E+03	8.994150E-16	2.251923E-17
5.630000E+03	8.954409E-16	2.309451E-17
5.640000E+03	8.913579E-16	2.364267E-17
5.650000E+03	8.871692E-16	2.416132E-17
5.660000E+03	8.828699E-16	2.464858E-17
5.670000E+03	8.784840E-16	2.510403E-17
5.680000E+03	8.740085E-16	2.552702E-17
5.690000E+03	8.694504E-16	2.591758E-17
5.700000E+03	8.648172E-16	2.627608E-17
5.710000E+03	8.601168E-16	2.660316E-17
5.720000E+03	8.553574E-16	2.689969E-17
5.730000E+03	8.505469E-16	2.716665E-17
5.740000E+03	8.456935E-16	2.740517E-17
5.750000E+03	8.408142E-16	2.761673E-17
5.760000E+03	8.359074E-16	2.780226E-17
5.770000E+03	8.309805E-16	2.796301E-17
5.780000E+03	8.260496E-16	2.810053E-17
5.790000E+03	8.211124E-16	2.821574E-17
5.800000E+03	8.161932E-16	2.831048E-17
5.810000E+03	8.112801E-16	2.838530E-17
5.820000E+03	8.063789E-16	2.844130E-17
5.830000E+03	8.015129E-16	2.848021E-17
5.840000E+03	7.966781E-16	2.850274E-17
5.850000E+03	7.918883E-16	2.851019E-17
5.860000E+03	7.871387E-16	2.850315E-17
5.870000E+03	7.824332E-16	2.848248E-17
5.880000E+03	7.777929E-16	2.844963E-17
5.890000E+03	7.732024E-16	2.840467E-17
5.900000E+03	7.686816E-16	2.834892E-17
5.910000E+03	7.642313E-16	2.828298E-17
5.920000E+03	7.598430E-16	2.820704E-17
5.930000E+03	7.555246E-16	2.812187E-17
5.940000E+03	7.512832E-16	2.802817E-17
5.950000E+03	7.471070E-16	2.792589E-17
5.960000E+03	7.430098E-16	2.781592E-17
5.970000E+03	7.389779E-16	2.769808E-17
5.980000E+03	7.350054E-16	2.757245E-17
5.990000E+03	7.311035E-16	2.743969E-17
6.000000E+03	7.272648E-16	2.729977E-17
6.010000E+03	7.234817E-16	2.715260E-17
6.020000E+03	7.197552E-16	2.699838E-17
6.030000E+03	7.160859E-16	2.683726E-17
6.040000E+03	7.124660E-16	2.666907E-17
6.050000E+03	7.088879E-16	2.649358E-17
6.060000E+03	7.053624E-16	2.631122E-17
6.070000E+03	7.018830E-16	2.612177E-17
6.080000E+03	6.984532E-16	2.592529E-17
6.090000E+03	6.950681E-16	2.572155E-17
6.100000E+03	6.917421E-16	2.551095E-17
6.110000E+03	6.884636E-16	2.529290E-17
6.120000E+03	6.852312E-16	2.506716E-17
6.130000E+03	6.820620E-16	2.483410E-17
6.140000E+03	6.789478E-16	2.459312E-17
6.150000E+03	6.758724E-16	2.434332E-17
6.160000E+03	6.728382E-16	2.408440E-17
6.170000E+03	6.698571E-16	2.381640E-17
6.180000E+03	6.669244E-16	2.353867E-17
6.190000E+03	6.640800E-16	2.325212E-17
6.200000E+03	6.613116E-16	2.295577E-17
6.210000E+03	6.586338E-16	2.264953E-17
6.220000E+03	6.560618E-16	2.233326E-17
6.230000E+03	6.535935E-16	2.200622E-17
6.240000E+03	6.512360E-16	2.166789E-17
6.250000E+03	6.489969E-16	2.131777E-17
6.260000E+03	6.468659E-16	2.095472E-17
6.270000E+03	6.448510E-16	2.057816E-17
6.280000E+03	6.429602E-16	2.018749E-17
6.290000E+03	6.412014E-16	1.978206E-17
6.300000E+03	6.395558E-16	1.936038E-17
6.310000E+03	6.380487E-16	1.892231E-17
6.320000E+03	6.366694E-16	1.846659E-17
6.330000E+03	6.354157E-16	1.799228E-17
6.340000E+03	6.343023E-16	1.749894E-17
6.350000E+03	6.333162E-16	1.698540E-17
6.360000E+03	6.324611E-16	1.645109E-17
6.370000E+03	6.317302E-16	1.589534E-17
6.380000E+03	6.311335E-16	1.531811E-17
6.390000E+03	6.306608E-16	1.471919E-17
6.400000E+03	6.303181E-16	1.409923E-17
6.410000E+03	6.300914E-16	1.345902E-17
6.420000E+03	6.299732E-16	1.280037E-17
6.430000E+03	6.299537E-16	1.212621E-17
6.440000E+03	6.300299E-16	1.144117E-17
6.450000E+03	6.301778E-16	1.075160E-17
6.460000E+03	6.303897E-16	1.006699E-17
6.470000E+03	6.306461E-16	9.400389E-18
6.480000E+03	6.309257E-16	8.769604E-18
6.490000E+03	6.312146E-16	8.198283E-18
6.500000E+03	6.314692E-16	7.715666E-18
6.510000E+03	6.316828E-16	7.355900E-18
6.520000E+03	6.318102E-16	7.152470E-18
6.530000E+03	6.318450E-16	7.131262E-18
6.540000E+03	6.317576E-16	7.297147E-18
6.550000E+03	6.315259E-16	7.630523E-18
6.560000E+03	6.311490E-16	8.100244E-18
6.570000E+03	6.306180E-16	8.671926E-18
6.580000E+03	6.299151E-16	9.313660E-18
6.590000E+03	6.290437E-16	9.998971E-18
6.600000E+03	6.279787E-16	1.070643E-17
6.610000E+03	6.267358E-16	1.142008E-17
6.620000E+03	6.252926E-16	1.212720E-17
6.630000E+03	6.236676E-16	1.281880E-17
6.640000E+03	6.218414E-16	1.348748E-17
6.650000E+03	6.198254E-16	1.412822E-17
6.660000E+03	6.176131E-16	1.473696E-17
6.670000E+03	6.152189E-16	1.531122E-17
6.680000E+03	6.126390E-16	1.584892E-17
6.690000E+03	6.098809E-16	1.634895E-17
6.700000E+03	6.069630E-16	1.681108E-17
6.710000E+03	6.038853E-16	1.723506E-17
6.720000E+03	6.006585E-16	1.762133E-17
6.730000E+03	5.973041E-16	1.797101E-17
6.740000E+03	5.938245E-16	1.828493E-17
6.750000E+03	5.902328E-16	1.856448E-17
6.760000E+03	5.865420E-16	1.881124E-17
6.770000E+03	5.827658E-16	1.902698E-17
6.780000E+03	5.789272E-16	1.921390E-17
6.790000E+03	5.750300E-16	1.937364E-17
6.800000E+03	5.710969E-16	1.950855E-17
6.810000E+03	5.671213E-16	1.961999E-17
6.820000E+03	5.631346E-16	1.971063E-17
6.830000E+03	5.591484E-16	1.978244E-17
6.840000E+03	5.551543E-16	1.983662E-17
6.850000E+03	5.511910E-16	1.987602E-17
6.860000E+03	5.472390E-16	1.990130E-17
6.870000E+03	5.433351E-16	1.991508E-17
6.880000E+03	5.394584E-16	1.991780E-17
6.890000E+03	5.356435E-16	1.991184E-17
6.900000E+03	5.318772E-16	1.989772E-17
6.910000E+03	5.281641E-16	1.987652E-17
6.920000E+03	5.245175E-16	1.984955E-17
6.930000E+03	5.209404E-16	1.981766E-17
6.940000E+03	5.174348E-16	1.978160E-17
6.950000E+03	5.140025E-16	1.974200E-17
6.960000E+03	5.106349E-16	1.969905E-17
6.970000E+03	5.073508E-16	1.965391E-17
6.980000E+03	5.041316E-16	1.960626E-17
6.990000E+03	5.009857E-16	1.955677E-17
7.000000E+03	4.979120E-16	1.950570E-17
7.010000E+03	4.949180E-16	1.945361E-17
7.020000E+03	4.919837E-16	1.939995E-17
7.030000E+03	4.891252E-16	1.934557E-17
7.040000E+03	4.863310E-16	1.929020E-17
7.050000E+03	4.835988E-16	1.923391E-17
7.060000E+03	4.809257E-16	1.917673E-17
7.070000E+03	4.783182E-16	1.911908E-17
7.080000E+03	4.757642E-16	1.906058E-17
7.090000E+03	4.732698E-16	1.900160E-17
7.100000E+03	4.708230E-16	1.894177E-17
7.110000E+03	4.684298E-16	1.888142E-17
7.120000E+03	4.660869E-16	1.882053E-17
7.130000E+03	4.637823E-16	1.875869E-17
7.140000E+03	4.615218E-16	1.869621E-17
7.150000E+03	4.593024E-16	1.863306E-17
7.160000E+03	4.571208E-16	1.856919E-17
7.170000E+03	4.549832E-16	1.850491E-17
7.180000E+03	4.528683E-16	1.843942E-17
7.190000E+03	4.507822E-16	1.837305E-17
7.200000E+03	4.487312E-16	1.830611E-17
7.210000E+03	4.467035E-16	1.823817E-17
7.220000E+03	4.446963E-16	1.816920E-17
7.230000E+03	4.427164E-16	1.809952E-17
7.240000E+03	4.407524E-16	1.802873E-17
7.250000E+03	4.388112E-16	1.795715E-17
7.260000E+03	4.368819E-16	1.788440E-17
7.270000E+03	4.349720E-16	1.781082E-17
7.280000E+03	4.330800E-16	1.773640E-17
7.290000E+03	4.312048E-16	1.766114E-17
7.300000E+03	4.293363E-16	1.758467E-17
7.310000E+03	4.274923E-16	1.750773E-17
7.320000E+03	4.256541E-16	1.742961E-17
7.330000E+03	4.238307E-16	1.735068E-17
7.340000E+03	4.220222E-16	1.727098E-17
7.350000E+03	4.202291E-16	1.719053E-17
7.360000E+03	4.184519E-16	1.710938E-17
7.370000E+03	4.166913E-16	1.702755E-17
7.380000E+03	4.149485E-16	1.694509E-17
7.390000E+03	4.132337E-16	1.686239E-17
7.400000E+03	4.115298E-16	1.677877E-17
7.410000E+03	4.098566E-16	1.669499E-17
7.420000E+03	4.082155E-16	1.661109E-17
7.430000E+03	4.066081E-16	1.652709E-17
7.440000E+03	4.050266E-16	1.644265E-17
7.450000E+03	4.034727E-16	1.635776E-17
7.460000E+03	4.019478E-16	1.627244E-17
7.470000E+03	4.004533E-16	1.618668E-17
7.480000E+03	3.989907E-16	1.610046E-17
7.490000E+03	3.975610E-16	1.601376E-17
7.500000E+03	3.961654E-16	1.592652E-17
7.510000E+03	3.948050E-16	1.583870E-17
7.520000E+03	3.934713E-16	1.574987E-17
7.530000E+03	3.921834E-16	1.566067E-17
7.540000E+03	3.909236E-16	1.557028E-17
7.550000E+03	3.897013E-16	1.547896E-17
7.560000E+03	3.885168E-16	1.538659E-17
7.570000E+03	3.873797E-16	1.529341E-17
7.580000E+03	3.862713E-16	1.519855E-17
7.590000E+03	3.852010E-16	1.510221E-17
7.600000E+03	3.841779E-16	1.500460E-17
7.610000E+03	3.831833E-16	1.490483E-17
7.620000E+03	3.822357E-16	1.480342E-17
7.630000E+03	3.813162E-16	1.469947E-17
7.640000E+03	3.804434E-16	1.459349E-17
7.650000E+03	3.796079E-16	1.448492E-17
7.660000E+03	3.788098E-16	1.437354E-17
7.670000E+03	3.780490E-16	1.425910E-17
7.680000E+03	3.773164E-16	1.414103E-17
7.690000E+03	3.766405E-16	1.402012E-17
7.700000E+03	3.759933E-16	1.389505E-17
7.710000E+03	3.753847E-16	1.376590E-17
7.720000E+03	3.748247E-16	1.363273E-17
7.730000E+03	3.742949E-16	1.349454E-17
7.740000E+03	3.738148E-16	1.335173E-17
7.750000E+03	3.733850E-16	1.320395E-17
7.760000E+03	3.729868E-16	1.305021E-17
