#wls	flux	fluxerr
1.600000E+03	2.381289E-16	1.246367E-16
1.640000E+03	2.439035E-16	1.258306E-16
1.680000E+03	2.498878E-16	1.269988E-16
1.720000E+03	2.560819E-16	1.281326E-16
1.760000E+03	2.624850E-16	1.292229E-16
1.800000E+03	2.691795E-16	1.303008E-16
1.840000E+03	2.761239E-16	1.313352E-16
1.880000E+03	2.834470E-16	1.323758E-16
1.920000E+03	2.911075E-16	1.333898E-16
1.960000E+03	2.991497E-16	1.343838E-16
2.000000E+03	3.077107E-16	1.354032E-16
2.040000E+03	3.168408E-16	1.364509E-16
2.080000E+03	3.265434E-16	1.375075E-16
2.120000E+03	3.369144E-16	1.385909E-16
2.160000E+03	3.481004E-16	1.397356E-16
2.200000E+03	3.601531E-16	1.409320E-16
2.240000E+03	3.730216E-16	1.421292E-16
2.280000E+03	3.868485E-16	1.433493E-16
2.320000E+03	4.015725E-16	1.445346E-16
2.360000E+03	4.171737E-16	1.456443E-16
2.400000E+03	4.337281E-16	1.466702E-16
2.440000E+03	4.510954E-16	1.475302E-16
2.480000E+03	4.692806E-16	1.481945E-16
2.520000E+03	4.882253E-16	1.486138E-16
2.560000E+03	5.078596E-16	1.487388E-16
2.600000E+03	5.281004E-16	1.485204E-16
2.640000E+03	5.489054E-16	1.479256E-16
2.680000E+03	5.702185E-16	1.469211E-16
2.720000E+03	5.918607E-16	1.454476E-16
2.760000E+03	6.137995E-16	1.434910E-16
2.800000E+03	6.359322E-16	1.410250E-16
2.840000E+03	6.580851E-16	1.380164E-16
2.880000E+03	6.800143E-16	1.344292E-16
2.920000E+03	7.014088E-16	1.302301E-16
2.960000E+03	7.221572E-16	1.254387E-16
3.000000E+03	7.419754E-16	1.200558E-16
3.010000E+03	7.467937E-16	1.186261E-16
3.020000E+03	7.515702E-16	1.171666E-16
3.030000E+03	7.562492E-16	1.156698E-16
3.040000E+03	7.608781E-16	1.141441E-16
3.050000E+03	7.654525E-16	1.125898E-16
3.060000E+03	7.699174E-16	1.110000E-16
3.070000E+03	7.743697E-16	1.093898E-16
3.080000E+03	7.787039E-16	1.077455E-16
3.090000E+03	7.830162E-16	1.060816E-16
3.100000E+03	7.872017E-16	1.043851E-16
3.110000E+03	7.913556E-16	1.026699E-16
3.120000E+03	7.954726E-16	1.009365E-16
3.130000E+03	7.994981E-16	9.917904E-17
3.140000E+03	8.034274E-16	9.739842E-17
3.150000E+03	8.073044E-16	9.560141E-17
3.160000E+03	8.111235E-16	9.378860E-17
3.170000E+03	8.148791E-16	9.196063E-17
3.180000E+03	8.185655E-16	9.011825E-17
3.190000E+03	8.221770E-16	8.826232E-17
3.200000E+03	8.257079E-16	8.639377E-17
3.210000E+03	8.291993E-16	8.451842E-17
3.220000E+03	8.325979E-16	8.263230E-17
3.230000E+03	8.359904E-16	8.074562E-17
3.240000E+03	8.392771E-16	7.885018E-17
3.250000E+03	8.425435E-16	7.695581E-17
3.260000E+03	8.456911E-16	7.505520E-17
3.270000E+03	8.488486E-16	7.316170E-17
3.280000E+03	8.519181E-16	7.126845E-17
3.290000E+03	8.549368E-16	6.938067E-17
3.300000E+03	8.578965E-16	6.749970E-17
3.310000E+03	8.608327E-16	6.563040E-17
3.320000E+03	8.636931E-16	6.377094E-17
3.330000E+03	8.665122E-16	6.192629E-17
3.340000E+03	8.693232E-16	6.010115E-17
3.350000E+03	8.720735E-16	5.829434E-17
3.360000E+03	8.747955E-16	5.651078E-17
3.370000E+03	8.774785E-16	5.475259E-17
3.380000E+03	8.801527E-16	5.302464E-17
3.390000E+03	8.828064E-16	5.132924E-17
3.400000E+03	8.854278E-16	4.966902E-17
3.410000E+03	8.880444E-16	4.804900E-17
3.420000E+03	8.906433E-16	4.647201E-17
3.430000E+03	8.932497E-16	4.494268E-17
3.440000E+03	8.958488E-16	4.346232E-17
3.450000E+03	8.984631E-16	4.203379E-17
3.460000E+03	9.011140E-16	4.065953E-17
3.470000E+03	9.037856E-16	3.933934E-17
3.480000E+03	9.064986E-16	3.807448E-17
3.490000E+03	9.092370E-16	3.686439E-17
3.500000E+03	9.120569E-16	3.571067E-17
3.510000E+03	9.149419E-16	3.461169E-17
3.520000E+03	9.179102E-16	3.356720E-17
3.530000E+03	9.209451E-16	3.257501E-17
3.540000E+03	9.240642E-16	3.163424E-17
3.550000E+03	9.272177E-16	3.074177E-17
3.560000E+03	9.304260E-16	2.989639E-17
3.570000E+03	9.336119E-16	2.909393E-17
3.580000E+03	9.367669E-16	2.833295E-17
3.590000E+03	9.398545E-16	2.761104E-17
3.600000E+03	9.429027E-16	2.692824E-17
3.610000E+03	9.458204E-16	2.628141E-17
3.620000E+03	9.486805E-16	2.567129E-17
3.630000E+03	9.514094E-16	2.509488E-17
3.640000E+03	9.540570E-16	2.455300E-17
3.650000E+03	9.565920E-16	2.404386E-17
3.660000E+03	9.590451E-16	2.356783E-17
3.670000E+03	9.614216E-16	2.312509E-17
3.680000E+03	9.637882E-16	2.271650E-17
3.690000E+03	9.661056E-16	2.234089E-17
3.700000E+03	9.684446E-16	2.200006E-17
3.710000E+03	9.708237E-16	2.169332E-17
3.720000E+03	9.732629E-16	2.142042E-17
3.730000E+03	9.758093E-16	2.118212E-17
3.740000E+03	9.785087E-16	2.097791E-17
3.750000E+03	9.813829E-16	2.080723E-17
3.760000E+03	9.844535E-16	2.066988E-17
3.770000E+03	9.877603E-16	2.056462E-17
3.780000E+03	9.913646E-16	2.049108E-17
3.790000E+03	9.952301E-16	2.044726E-17
3.800000E+03	9.993980E-16	2.043138E-17
3.810000E+03	1.003881E-15	2.044154E-17
3.820000E+03	1.008665E-15	2.047590E-17
3.830000E+03	1.013745E-15	2.053183E-17
3.840000E+03	1.019087E-15	2.060676E-17
3.850000E+03	1.024681E-15	2.069897E-17
3.860000E+03	1.030488E-15	2.080457E-17
3.870000E+03	1.036512E-15	2.092091E-17
3.880000E+03	1.042692E-15	2.104470E-17
3.890000E+03	1.049033E-15	2.117323E-17
3.900000E+03	1.055499E-15	2.130357E-17
3.910000E+03	1.062074E-15	2.143381E-17
3.920000E+03	1.068725E-15	2.156052E-17
3.930000E+03	1.075442E-15	2.168120E-17
3.940000E+03	1.082193E-15	2.179334E-17
3.950000E+03	1.088991E-15	2.189369E-17
3.960000E+03	1.095789E-15	2.197823E-17
3.970000E+03	1.102618E-15	2.204527E-17
3.980000E+03	1.109412E-15	2.209078E-17
3.990000E+03	1.116182E-15	2.211313E-17
4.000000E+03	1.122898E-15	2.211066E-17
4.010000E+03	1.129548E-15	2.208129E-17
4.020000E+03	1.136114E-15	2.202369E-17
4.030000E+03	1.142577E-15	2.193728E-17
4.040000E+03	1.148868E-15	2.181969E-17
4.050000E+03	1.154971E-15	2.167054E-17
4.060000E+03	1.160831E-15	2.149026E-17
4.070000E+03	1.166409E-15	2.128048E-17
4.080000E+03	1.171644E-15	2.104421E-17
4.090000E+03	1.176516E-15	2.078678E-17
4.100000E+03	1.180947E-15	2.051307E-17
4.110000E+03	1.184917E-15	2.023035E-17
4.120000E+03	1.188374E-15	1.994529E-17
4.130000E+03	1.191288E-15	1.966065E-17
4.140000E+03	1.193667E-15	1.937937E-17
4.150000E+03	1.195505E-15	1.910328E-17
4.160000E+03	1.196767E-15	1.882833E-17
4.170000E+03	1.197450E-15	1.855055E-17
4.180000E+03	1.197571E-15	1.826697E-17
4.190000E+03	1.197104E-15	1.797259E-17
4.200000E+03	1.196036E-15	1.766413E-17
4.210000E+03	1.194357E-15	1.734035E-17
4.220000E+03	1.192038E-15	1.700033E-17
4.230000E+03	1.189084E-15	1.664588E-17
4.240000E+03	1.185487E-15	1.627976E-17
4.250000E+03	1.181238E-15	1.590192E-17
4.260000E+03	1.176349E-15	1.551376E-17
4.270000E+03	1.170859E-15	1.511816E-17
4.280000E+03	1.164825E-15	1.471553E-17
4.290000E+03	1.158284E-15	1.430752E-17
4.300000E+03	1.151291E-15	1.389816E-17
4.310000E+03	1.143956E-15	1.349125E-17
4.320000E+03	1.136318E-15	1.309219E-17
4.330000E+03	1.128485E-15	1.270970E-17
4.340000E+03	1.120527E-15	1.235112E-17
4.350000E+03	1.112537E-15	1.202606E-17
4.360000E+03	1.104571E-15	1.174477E-17
4.370000E+03	1.096714E-15	1.151402E-17
4.380000E+03	1.088998E-15	1.133889E-17
4.390000E+03	1.081484E-15	1.122237E-17
4.400000E+03	1.074195E-15	1.116051E-17
4.410000E+03	1.067128E-15	1.114629E-17
4.420000E+03	1.060277E-15	1.117103E-17
4.430000E+03	1.053649E-15	1.122253E-17
4.440000E+03	1.047193E-15	1.128949E-17
4.450000E+03	1.040889E-15	1.136410E-17
4.460000E+03	1.034728E-15	1.144031E-17
4.470000E+03	1.028702E-15	1.151567E-17
4.480000E+03	1.022792E-15	1.158976E-17
4.490000E+03	1.017037E-15	1.166032E-17
4.500000E+03	1.011477E-15	1.172676E-17
4.510000E+03	1.006153E-15	1.179018E-17
4.520000E+03	1.001138E-15	1.184953E-17
4.530000E+03	9.964480E-16	1.190447E-17
4.540000E+03	9.921615E-16	1.195662E-17
4.550000E+03	9.882795E-16	1.200379E-17
4.560000E+03	9.848432E-16	1.204534E-17
4.570000E+03	9.818518E-16	1.208156E-17
4.580000E+03	9.792963E-16	1.211067E-17
4.590000E+03	9.771613E-16	1.213222E-17
4.600000E+03	9.754375E-16	1.214727E-17
4.610000E+03	9.740869E-16	1.215501E-17
4.620000E+03	9.730556E-16	1.215580E-17
4.630000E+03	9.723182E-16	1.215133E-17
4.640000E+03	9.718008E-16	1.214004E-17
4.650000E+03	9.714360E-16	1.212136E-17
4.660000E+03	9.711657E-16	1.209591E-17
4.670000E+03	9.709148E-16	1.206170E-17
4.680000E+03	9.706281E-16	1.201816E-17
4.690000E+03	9.702207E-16	1.196578E-17
4.700000E+03	9.696487E-16	1.190383E-17
4.710000E+03	9.688602E-16	1.183311E-17
4.720000E+03	9.678089E-16	1.175622E-17
4.730000E+03	9.664864E-16	1.167501E-17
4.740000E+03	9.648583E-16	1.159276E-17
4.750000E+03	9.629500E-16	1.151458E-17
4.760000E+03	9.607569E-16	1.144196E-17
4.770000E+03	9.583233E-16	1.137802E-17
4.780000E+03	9.556552E-16	1.132650E-17
4.790000E+03	9.528106E-16	1.128878E-17
4.800000E+03	9.498090E-16	1.126689E-17
4.810000E+03	9.466910E-16	1.126400E-17
4.820000E+03	9.434776E-16	1.127962E-17
4.830000E+03	9.402100E-16	1.131435E-17
4.840000E+03	9.369080E-16	1.136928E-17
4.850000E+03	9.336066E-16	1.144220E-17
4.860000E+03	9.303198E-16	1.153132E-17
4.870000E+03	9.270698E-16	1.163568E-17
4.880000E+03	9.238839E-16	1.175108E-17
4.890000E+03	9.207585E-16	1.187362E-17
4.900000E+03	9.177253E-16	1.200050E-17
4.910000E+03	9.147632E-16	1.212512E-17
4.920000E+03	9.118858E-16	1.224210E-17
4.930000E+03	9.090856E-16	1.234698E-17
4.940000E+03	9.063277E-16	1.243347E-17
4.950000E+03	9.036042E-16	1.249702E-17
4.960000E+03	9.009091E-16	1.253520E-17
4.970000E+03	8.982314E-16	1.254653E-17
4.980000E+03	8.955439E-16	1.253136E-17
4.990000E+03	8.928697E-16	1.249259E-17
5.000000E+03	8.901963E-16	1.243299E-17
5.010000E+03	8.875335E-16	1.235715E-17
5.020000E+03	8.849156E-16	1.227009E-17
5.030000E+03	8.823579E-16	1.217269E-17
5.040000E+03	8.799091E-16	1.206631E-17
5.050000E+03	8.776160E-16	1.195328E-17
5.060000E+03	8.754927E-16	1.183471E-17
5.070000E+03	8.735786E-16	1.171316E-17
5.080000E+03	8.719073E-16	1.159144E-17
5.090000E+03	8.704742E-16	1.146890E-17
5.100000E+03	8.692780E-16	1.134540E-17
5.110000E+03	8.683228E-16	1.122181E-17
5.120000E+03	8.675822E-16	1.109691E-17
5.130000E+03	8.670355E-16	1.097082E-17
5.140000E+03	8.666715E-16	1.084570E-17
5.150000E+03	8.664630E-16	1.072372E-17
5.160000E+03	8.664011E-16	1.060915E-17
5.170000E+03	8.664671E-16	1.050658E-17
5.180000E+03	8.666829E-16	1.041682E-17
5.190000E+03	8.670602E-16	1.034079E-17
5.200000E+03	8.676319E-16	1.028017E-17
5.210000E+03	8.684229E-16	1.023318E-17
5.220000E+03	8.694790E-16	1.019898E-17
5.230000E+03	8.708244E-16	1.017756E-17
5.240000E+03	8.724786E-16	1.016650E-17
5.250000E+03	8.744569E-16	1.016454E-17
5.260000E+03	8.767767E-16	1.017130E-17
5.270000E+03	8.794155E-16	1.018267E-17
5.280000E+03	8.823527E-16	1.019549E-17
5.290000E+03	8.855653E-16	1.020842E-17
5.300000E+03	8.890229E-16	1.021936E-17
5.310000E+03	8.926929E-16	1.022785E-17
5.320000E+03	8.965390E-16	1.023373E-17
5.330000E+03	9.005077E-16	1.023159E-17
5.340000E+03	9.045594E-16	1.021638E-17
5.350000E+03	9.086333E-16	1.018396E-17
5.360000E+03	9.126794E-16	1.012838E-17
5.370000E+03	9.166256E-16	1.004508E-17
5.380000E+03	9.203979E-16	9.931837E-18
5.390000E+03	9.239486E-16	9.786921E-18
5.400000E+03	9.272004E-16	9.611134E-18
5.410000E+03	9.300764E-16	9.408226E-18
5.420000E+03	9.325282E-16	9.182481E-18
5.430000E+03	9.344884E-16	8.941287E-18
5.440000E+03	9.359137E-16	8.695184E-18
5.450000E+03	9.367607E-16	8.453544E-18
5.460000E+03	9.370254E-16	8.228456E-18
5.470000E+03	9.366960E-16	8.032644E-18
5.480000E+03	9.358000E-16	7.872874E-18
5.490000E+03	9.343918E-16	7.754262E-18
5.500000E+03	9.324956E-16	7.679286E-18
5.510000E+03	9.301926E-16	7.643759E-18
5.520000E+03	9.275249E-16	7.641751E-18
5.530000E+03	9.245302E-16	7.667348E-18
5.540000E+03	9.212606E-16	7.711349E-18
5.550000E+03	9.177744E-16	7.767344E-18
5.560000E+03	9.140976E-16	7.831396E-18
5.570000E+03	9.102537E-16	7.896420E-18
5.580000E+03	9.062383E-16	7.958087E-18
5.590000E+03	9.020576E-16	8.015298E-18
5.600000E+03	8.976948E-16	8.064352E-18
5.610000E+03	8.931365E-16	8.104350E-18
5.620000E+03	8.883465E-16	8.136656E-18
5.630000E+03	8.833399E-16	8.160069E-18
5.640000E+03	8.781183E-16	8.175350E-18
5.650000E+03	8.726910E-16	8.185112E-18
5.660000E+03	8.670859E-16	8.188381E-18
5.670000E+03	8.613557E-16	8.186045E-18
5.680000E+03	8.555536E-16	8.180726E-18
5.690000E+03	8.497123E-16	8.171645E-18
5.700000E+03	8.438995E-16	8.160072E-18
5.710000E+03	8.381597E-16	8.148804E-18
5.720000E+03	8.325141E-16	8.137541E-18
5.730000E+03	8.269956E-16	8.127770E-18
5.740000E+03	8.216139E-16	8.122241E-18
5.750000E+03	8.163774E-16	8.120504E-18
5.760000E+03	8.112886E-16	8.123406E-18
5.770000E+03	8.063238E-16	8.132660E-18
5.780000E+03	8.014789E-16	8.146547E-18
5.790000E+03	7.967402E-16	8.164323E-18
5.800000E+03	7.920951E-16	8.186466E-18
5.810000E+03	7.875339E-16	8.210474E-18
5.820000E+03	7.830558E-16	8.235139E-18
5.830000E+03	7.786377E-16	8.260289E-18
5.840000E+03	7.742946E-16	8.283554E-18
5.850000E+03	7.700192E-16	8.303575E-18
5.860000E+03	7.658157E-16	8.320481E-18
5.870000E+03	7.617076E-16	8.332560E-18
5.880000E+03	7.576981E-16	8.339187E-18
5.890000E+03	7.538252E-16	8.341447E-18
5.900000E+03	7.501071E-16	8.338364E-18
5.910000E+03	7.465963E-16	8.330553E-18
5.920000E+03	7.433125E-16	8.319266E-18
5.930000E+03	7.402944E-16	8.303616E-18
5.940000E+03	7.375714E-16	8.283564E-18
5.950000E+03	7.351655E-16	8.260054E-18
5.960000E+03	7.330675E-16	8.231788E-18
5.970000E+03	7.312692E-16	8.198562E-18
5.980000E+03	7.297540E-16	8.161197E-18
5.990000E+03	7.284865E-16	8.118551E-18
6.000000E+03	7.273999E-16	8.070250E-18
6.010000E+03	7.264491E-16	8.017049E-18
6.020000E+03	7.255739E-16	7.957143E-18
6.030000E+03	7.247048E-16	7.889603E-18
6.040000E+03	7.237919E-16	7.814909E-18
6.050000E+03	7.227751E-16	7.731720E-18
6.060000E+03	7.216222E-16	7.640364E-18
6.070000E+03	7.203066E-16	7.542727E-18
6.080000E+03	7.187963E-16	7.439310E-18
6.090000E+03	7.170881E-16	7.332398E-18
6.100000E+03	7.151759E-16	7.225021E-18
6.110000E+03	7.130754E-16	7.116954E-18
6.120000E+03	7.107911E-16	7.008662E-18
6.130000E+03	7.083441E-16	6.901805E-18
6.140000E+03	7.057509E-16	6.795264E-18
6.150000E+03	7.030444E-16	6.689313E-18
6.160000E+03	7.002490E-16	6.585325E-18
6.170000E+03	6.973723E-16	6.481697E-18
6.180000E+03	6.944367E-16	6.378279E-18
6.190000E+03	6.914695E-16	6.276059E-18
6.200000E+03	6.884598E-16	6.172330E-18
6.210000E+03	6.854174E-16	6.065875E-18
6.220000E+03	6.823360E-16	5.956828E-18
6.230000E+03	6.792080E-16	5.842668E-18
6.240000E+03	6.760325E-16	5.722710E-18
6.250000E+03	6.728179E-16	5.598090E-18
6.260000E+03	6.695540E-16	5.467222E-18
6.270000E+03	6.662546E-16	5.330796E-18
6.280000E+03	6.629206E-16	5.191589E-18
6.290000E+03	6.595748E-16	5.050410E-18
6.300000E+03	6.562267E-16	4.910386E-18
6.310000E+03	6.529034E-16	4.776385E-18
6.320000E+03	6.496247E-16	4.648733E-18
6.330000E+03	6.464200E-16	4.529669E-18
6.340000E+03	6.433274E-16	4.422994E-18
6.350000E+03	6.403678E-16	4.327017E-18
6.360000E+03	6.375933E-16	4.242244E-18
6.370000E+03	6.350265E-16	4.171044E-18
6.380000E+03	6.327070E-16	4.110894E-18
6.390000E+03	6.306675E-16	4.061545E-18
6.400000E+03	6.289441E-16	4.024452E-18
6.410000E+03	6.275463E-16	3.994193E-18
6.420000E+03	6.265018E-16	3.967467E-18
6.430000E+03	6.257967E-16	3.943617E-18
6.440000E+03	6.254375E-16	3.918209E-18
6.450000E+03	6.253960E-16	3.889880E-18
6.460000E+03	6.256604E-16	3.860523E-18
6.470000E+03	6.261981E-16	3.827658E-18
6.480000E+03	6.269781E-16	3.792713E-18
6.490000E+03	6.279668E-16	3.762407E-18
6.500000E+03	6.291373E-16	3.743175E-18
6.510000E+03	6.304444E-16	3.746427E-18
6.520000E+03	6.318404E-16	3.787653E-18
6.530000E+03	6.332739E-16	3.878820E-18
6.540000E+03	6.346881E-16	4.029696E-18
6.550000E+03	6.360159E-16	4.245878E-18
6.560000E+03	6.372111E-16	4.524543E-18
6.570000E+03	6.382120E-16	4.860564E-18
6.580000E+03	6.389622E-16	5.247555E-18
6.590000E+03	6.394257E-16	5.672923E-18
6.600000E+03	6.395900E-16	6.124691E-18
6.610000E+03	6.394246E-16	6.592447E-18
6.620000E+03	6.389261E-16	7.064051E-18
6.630000E+03	6.381058E-16	7.528840E-18
6.640000E+03	6.369653E-16	7.977870E-18
6.650000E+03	6.354984E-16	8.401903E-18
6.660000E+03	6.337057E-16	8.793078E-18
6.670000E+03	6.315676E-16	9.144857E-18
6.680000E+03	6.291104E-16	9.452193E-18
6.690000E+03	6.263482E-16	9.711263E-18
6.700000E+03	6.232970E-16	9.919778E-18
6.710000E+03	6.199683E-16	1.007671E-17
6.720000E+03	6.163917E-16	1.018267E-17
6.730000E+03	6.125895E-16	1.023937E-17
6.740000E+03	6.085878E-16	1.024968E-17
6.750000E+03	6.044133E-16	1.021757E-17
6.760000E+03	6.001039E-16	1.014789E-17
6.770000E+03	5.956813E-16	1.004525E-17
6.780000E+03	5.912020E-16	9.915472E-18
6.790000E+03	5.866869E-16	9.764179E-18
6.800000E+03	5.821804E-16	9.596835E-18
6.810000E+03	5.777078E-16	9.418962E-18
6.820000E+03	5.732767E-16	9.235978E-18
6.830000E+03	5.689225E-16	9.052606E-18
6.840000E+03	5.646552E-16	8.873313E-18
6.850000E+03	5.604988E-16	8.702671E-18
6.860000E+03	5.564566E-16	8.542952E-18
6.870000E+03	5.525384E-16	8.396450E-18
6.880000E+03	5.487529E-16	8.265387E-18
6.890000E+03	5.451139E-16	8.150238E-18
6.900000E+03	5.416185E-16	8.051285E-18
6.910000E+03	5.382703E-16	7.968993E-18
6.920000E+03	5.350688E-16	7.902116E-18
6.930000E+03	5.320198E-16	7.849733E-18
6.940000E+03	5.291053E-16	7.810912E-18
6.950000E+03	5.263347E-16	7.783913E-18
6.960000E+03	5.236935E-16	7.767100E-18
6.970000E+03	5.211748E-16	7.759493E-18
6.980000E+03	5.187791E-16	7.759333E-18
6.990000E+03	5.164842E-16	7.765095E-18
7.000000E+03	5.142907E-16	7.776193E-18
7.010000E+03	5.121930E-16	7.791161E-18
7.020000E+03	5.101854E-16	7.809103E-18
7.030000E+03	5.082630E-16	7.829687E-18
7.040000E+03	5.064140E-16	7.851715E-18
7.050000E+03	5.046502E-16	7.874864E-18
7.060000E+03	5.029529E-16	7.898847E-18
7.070000E+03	5.013271E-16	7.923015E-18
7.080000E+03	4.997624E-16	7.946943E-18
7.090000E+03	4.982643E-16	7.970893E-18
7.100000E+03	4.968236E-16	7.994124E-18
7.110000E+03	4.954465E-16	8.016549E-18
7.120000E+03	4.941317E-16	8.038366E-18
7.130000E+03	4.928630E-16	8.058800E-18
7.140000E+03	4.916622E-16	8.078081E-18
7.150000E+03	4.905050E-16	8.096052E-18
7.160000E+03	4.894040E-16	8.112424E-18
7.170000E+03	4.883403E-16	8.126749E-18
7.180000E+03	4.873257E-16	8.139436E-18
7.190000E+03	4.863465E-16	8.149771E-18
7.200000E+03	4.853962E-16	8.157514E-18
7.210000E+03	4.844760E-16	8.162948E-18
7.220000E+03	4.835631E-16	8.165395E-18
7.230000E+03	4.826578E-16	8.164955E-18
7.240000E+03	4.817452E-16	8.161859E-18
7.250000E+03	4.808353E-16	8.156155E-18
7.260000E+03	4.799070E-16	8.147741E-18
7.270000E+03	4.789713E-16	8.137384E-18
7.280000E+03	4.780018E-16	8.124535E-18
7.290000E+03	4.770193E-16	8.109766E-18
7.300000E+03	4.760059E-16	8.093300E-18
7.310000E+03	4.749680E-16	8.075045E-18
7.320000E+03	4.738965E-16	8.054953E-18
7.330000E+03	4.727982E-16	8.033554E-18
7.340000E+03	4.716654E-16	8.010427E-18
7.350000E+03	4.705062E-16	7.985735E-18
7.360000E+03	4.693216E-16	7.959847E-18
7.370000E+03	4.680975E-16	7.932234E-18
7.380000E+03	4.668597E-16	7.903379E-18
7.390000E+03	4.655871E-16	7.873315E-18
7.400000E+03	4.643068E-16	7.842268E-18
7.410000E+03	4.630073E-16	7.810150E-18
7.420000E+03	4.617006E-16	7.777586E-18
7.430000E+03	4.603837E-16	7.744251E-18
7.440000E+03	4.590769E-16	7.710528E-18
7.450000E+03	4.577697E-16	7.676574E-18
7.460000E+03	4.564668E-16	7.642099E-18
7.470000E+03	4.551807E-16	7.607249E-18
7.480000E+03	4.539080E-16	7.572219E-18
7.490000E+03	4.526602E-16	7.536778E-18
7.500000E+03	4.514248E-16	7.500626E-18
7.510000E+03	4.502201E-16	7.464285E-18
7.520000E+03	4.490311E-16	7.427049E-18
7.530000E+03	4.478661E-16	7.388915E-18
7.540000E+03	4.467245E-16	7.350071E-18
7.550000E+03	4.456044E-16	7.310028E-18
7.560000E+03	4.445032E-16	7.268628E-18
7.570000E+03	4.434102E-16	7.225900E-18
7.580000E+03	4.423293E-16	7.181399E-18
7.590000E+03	4.412563E-16	7.134894E-18
7.600000E+03	4.401866E-16	7.086568E-18
7.610000E+03	4.391153E-16	7.036121E-18
7.620000E+03	4.380296E-16	6.983569E-18
7.630000E+03	4.369321E-16	6.929607E-18
7.640000E+03	4.358169E-16	6.874289E-18
7.650000E+03	4.346706E-16	6.817973E-18
7.660000E+03	4.335033E-16	6.761750E-18
7.670000E+03	4.322958E-16	6.705515E-18
7.680000E+03	4.310525E-16	6.649880E-18
7.690000E+03	4.297633E-16	6.595528E-18
7.700000E+03	4.284451E-16	6.542695E-18
7.710000E+03	4.270845E-16	6.491446E-18
7.720000E+03	4.256925E-16	6.442462E-18
7.730000E+03	4.242757E-16	6.395377E-18
7.740000E+03	4.228339E-16	6.349988E-18
7.750000E+03	4.213825E-16	6.306592E-18
7.760000E+03	4.199301E-16	6.264470E-18
