#wls	flux	fluxerr
1.600000E+03	1.718696E-16	8.944060E-17
1.640000E+03	1.757115E-16	9.013211E-17
1.680000E+03	1.796438E-16	9.078151E-17
1.720000E+03	1.836985E-16	9.140063E-17
1.760000E+03	1.878377E-16	9.196591E-17
1.800000E+03	1.921303E-16	9.250649E-17
1.840000E+03	1.965373E-16	9.299808E-17
1.880000E+03	2.010928E-16	9.345156E-17
1.920000E+03	2.057541E-16	9.384167E-17
1.960000E+03	2.105945E-16	9.419644E-17
2.000000E+03	2.155288E-16	9.447177E-17
2.040000E+03	2.206305E-16	9.469482E-17
2.080000E+03	2.258505E-16	9.483854E-17
2.120000E+03	2.312211E-16	9.491118E-17
2.160000E+03	2.367756E-16	9.492024E-17
2.200000E+03	2.424142E-16	9.481988E-17
2.240000E+03	2.482101E-16	9.463431E-17
2.280000E+03	2.541478E-16	9.435191E-17
2.320000E+03	2.602085E-16	9.396082E-17
2.360000E+03	2.663706E-16	9.344903E-17
2.400000E+03	2.727048E-16	9.283705E-17
2.440000E+03	2.790892E-16	9.207928E-17
2.480000E+03	2.855894E-16	9.119522E-17
2.520000E+03	2.922213E-16	9.018668E-17
2.560000E+03	2.988990E-16	8.902478E-17
2.600000E+03	3.056305E-16	8.771159E-17
2.640000E+03	3.124203E-16	8.624825E-17
2.680000E+03	3.192689E-16	8.463504E-17
2.720000E+03	3.261223E-16	8.285872E-17
2.760000E+03	3.330214E-16	8.093192E-17
2.800000E+03	3.399022E-16	7.884141E-17
2.840000E+03	3.468447E-16	7.660898E-17
2.880000E+03	3.537728E-16	7.422044E-17
2.920000E+03	3.607035E-16	7.168376E-17
2.960000E+03	3.676944E-16	6.901410E-17
3.000000E+03	3.746485E-16	6.619706E-17
3.010000E+03	3.763875E-16	6.547158E-17
3.020000E+03	3.781518E-16	6.474208E-17
3.030000E+03	3.798922E-16	6.400013E-17
3.040000E+03	3.816542E-16	6.325357E-17
3.050000E+03	3.834358E-16	6.250200E-17
3.060000E+03	3.851882E-16	6.173750E-17
3.070000E+03	3.869565E-16	6.096753E-17
3.080000E+03	3.886922E-16	6.018454E-17
3.090000E+03	3.904861E-16	5.940272E-17
3.100000E+03	3.922437E-16	5.860757E-17
3.110000E+03	3.940547E-16	5.781268E-17
3.120000E+03	3.958256E-16	5.700424E-17
3.130000E+03	3.976453E-16	5.619528E-17
3.140000E+03	3.994209E-16	5.537265E-17
3.150000E+03	4.012406E-16	5.454883E-17
3.160000E+03	4.030570E-16	5.371728E-17
3.170000E+03	4.048678E-16	5.287791E-17
3.180000E+03	4.066711E-16	5.203065E-17
3.190000E+03	4.085084E-16	5.118095E-17
3.200000E+03	4.103767E-16	5.032837E-17
3.210000E+03	4.122300E-16	4.946732E-17
3.220000E+03	4.141091E-16	4.860295E-17
3.230000E+03	4.159686E-16	4.773005E-17
3.240000E+03	4.178485E-16	4.685355E-17
3.250000E+03	4.197462E-16	4.597326E-17
3.260000E+03	4.216586E-16	4.508902E-17
3.270000E+03	4.235830E-16	4.420076E-17
3.280000E+03	4.255166E-16	4.330846E-17
3.290000E+03	4.274564E-16	4.241216E-17
3.300000E+03	4.294403E-16	4.151589E-17
3.310000E+03	4.313842E-16	4.061190E-17
3.320000E+03	4.334058E-16	3.971178E-17
3.330000E+03	4.353821E-16	3.880456E-17
3.340000E+03	4.374288E-16	3.790126E-17
3.350000E+03	4.394638E-16	3.699512E-17
3.360000E+03	4.415231E-16	3.608995E-17
3.370000E+03	4.436030E-16	3.518615E-17
3.380000E+03	4.457003E-16	3.428424E-17
3.390000E+03	4.478114E-16	3.338489E-17
3.400000E+03	4.499702E-16	3.249157E-17
3.410000E+03	4.521355E-16	3.160235E-17
3.420000E+03	4.543041E-16	3.071835E-17
3.430000E+03	4.565090E-16	2.984323E-17
3.440000E+03	4.587103E-16	2.897590E-17
3.450000E+03	4.609755E-16	2.812234E-17
3.460000E+03	4.632298E-16	2.727970E-17
3.470000E+03	4.655394E-16	2.645399E-17
3.480000E+03	4.678651E-16	2.564503E-17
3.490000E+03	4.702032E-16	2.485502E-17
3.500000E+03	4.725836E-16	2.408803E-17
3.510000E+03	4.749684E-16	2.334468E-17
3.520000E+03	4.773870E-16	2.262915E-17
3.530000E+03	4.798351E-16	2.194388E-17
3.540000E+03	4.823085E-16	2.129130E-17
3.550000E+03	4.848032E-16	2.067377E-17
3.560000E+03	4.873470E-16	2.009473E-17
3.570000E+03	4.899046E-16	1.955468E-17
3.580000E+03	4.924730E-16	1.905519E-17
3.590000E+03	4.951107E-16	1.859967E-17
3.600000E+03	4.977537E-16	1.818636E-17
3.610000E+03	5.004603E-16	1.781756E-17
3.620000E+03	5.031983E-16	1.749174E-17
3.630000E+03	5.059669E-16	1.720808E-17
3.640000E+03	5.087940E-16	1.696626E-17
3.650000E+03	5.116501E-16	1.676367E-17
3.660000E+03	5.145912E-16	1.660026E-17
3.670000E+03	5.175603E-16	1.647204E-17
3.680000E+03	5.206120E-16	1.637855E-17
3.690000E+03	5.237178E-16	1.631658E-17
3.700000E+03	5.268767E-16	1.628385E-17
3.710000E+03	5.301403E-16	1.627970E-17
3.720000E+03	5.334539E-16	1.630025E-17
3.730000E+03	5.368420E-16	1.634413E-17
3.740000E+03	5.403023E-16	1.640916E-17
3.750000E+03	5.438577E-16	1.649398E-17
3.760000E+03	5.474799E-16	1.659567E-17
3.770000E+03	5.511906E-16	1.671280E-17
3.780000E+03	5.549856E-16	1.684318E-17
3.790000E+03	5.588365E-16	1.698387E-17
3.800000E+03	5.627859E-16	1.713408E-17
3.810000E+03	5.668039E-16	1.729088E-17
3.820000E+03	5.708843E-16	1.745208E-17
3.830000E+03	5.750432E-16	1.761623E-17
3.840000E+03	5.792729E-16	1.778123E-17
3.850000E+03	5.835434E-16	1.794438E-17
3.860000E+03	5.878701E-16	1.810443E-17
3.870000E+03	5.922455E-16	1.825952E-17
3.880000E+03	5.966627E-16	1.840790E-17
3.890000E+03	6.011153E-16	1.854787E-17
3.900000E+03	6.056179E-16	1.867854E-17
3.910000E+03	6.101229E-16	1.879713E-17
3.920000E+03	6.146661E-16	1.890359E-17
3.930000E+03	6.192414E-16	1.899669E-17
3.940000E+03	6.238226E-16	1.907470E-17
3.950000E+03	6.284040E-16	1.913670E-17
3.960000E+03	6.329987E-16	1.918250E-17
3.970000E+03	6.375993E-16	1.921143E-17
3.980000E+03	6.421593E-16	1.922187E-17
3.990000E+03	6.467269E-16	1.921521E-17
4.000000E+03	6.512353E-16	1.918962E-17
4.010000E+03	6.557105E-16	1.914619E-17
4.020000E+03	6.601394E-16	1.908507E-17
4.030000E+03	6.644716E-16	1.900549E-17
4.040000E+03	6.687104E-16	1.890845E-17
4.050000E+03	6.728569E-16	1.879503E-17
4.060000E+03	6.768594E-16	1.866500E-17
4.070000E+03	6.807019E-16	1.851927E-17
4.080000E+03	6.843851E-16	1.835933E-17
4.090000E+03	6.878772E-16	1.818577E-17
4.100000E+03	6.911652E-16	1.799965E-17
4.110000E+03	6.942222E-16	1.780149E-17
4.120000E+03	6.970562E-16	1.759251E-17
4.130000E+03	6.996309E-16	1.737243E-17
4.140000E+03	7.019757E-16	1.714234E-17
4.150000E+03	7.040454E-16	1.690113E-17
4.160000E+03	7.058596E-16	1.664906E-17
4.170000E+03	7.074245E-16	1.638587E-17
4.180000E+03	7.087190E-16	1.611064E-17
4.190000E+03	7.097683E-16	1.582358E-17
4.200000E+03	7.105703E-16	1.552442E-17
4.210000E+03	7.111249E-16	1.521322E-17
4.220000E+03	7.114482E-16	1.489069E-17
4.230000E+03	7.115580E-16	1.455791E-17
4.240000E+03	7.114472E-16	1.421580E-17
4.250000E+03	7.111380E-16	1.386627E-17
4.260000E+03	7.106417E-16	1.351138E-17
4.270000E+03	7.099839E-16	1.315382E-17
4.280000E+03	7.091670E-16	1.279630E-17
4.290000E+03	7.082318E-16	1.244265E-17
4.300000E+03	7.071712E-16	1.209639E-17
4.310000E+03	7.060389E-16	1.176266E-17
4.320000E+03	7.048174E-16	1.144602E-17
4.330000E+03	7.035480E-16	1.115264E-17
4.340000E+03	7.022365E-16	1.088870E-17
4.350000E+03	7.009103E-16	1.066111E-17
4.360000E+03	6.995628E-16	1.047636E-17
4.370000E+03	6.982193E-16	1.034095E-17
4.380000E+03	6.968823E-16	1.025992E-17
4.390000E+03	6.955652E-16	1.023646E-17
4.400000E+03	6.942646E-16	1.026856E-17
4.410000E+03	6.930023E-16	1.034995E-17
4.420000E+03	6.917795E-16	1.047261E-17
4.430000E+03	6.905971E-16	1.062809E-17
4.440000E+03	6.894652E-16	1.080840E-17
4.450000E+03	6.883832E-16	1.100624E-17
4.460000E+03	6.873685E-16	1.121573E-17
4.470000E+03	6.864652E-16	1.143259E-17
4.480000E+03	6.857056E-16	1.165353E-17
4.490000E+03	6.851107E-16	1.187609E-17
4.500000E+03	6.847365E-16	1.209923E-17
4.510000E+03	6.845813E-16	1.232158E-17
4.520000E+03	6.846781E-16	1.254281E-17
4.530000E+03	6.850475E-16	1.276273E-17
4.540000E+03	6.857073E-16	1.298131E-17
4.550000E+03	6.866624E-16	1.319842E-17
4.560000E+03	6.879233E-16	1.341412E-17
4.570000E+03	6.894870E-16	1.362829E-17
4.580000E+03	6.913549E-16	1.384096E-17
4.590000E+03	6.935151E-16	1.405193E-17
4.600000E+03	6.959591E-16	1.426110E-17
4.610000E+03	6.986737E-16	1.446828E-17
4.620000E+03	7.016227E-16	1.467285E-17
4.630000E+03	7.048001E-16	1.487478E-17
4.640000E+03	7.081513E-16	1.507305E-17
4.650000E+03	7.116527E-16	1.526731E-17
4.660000E+03	7.152683E-16	1.545698E-17
4.670000E+03	7.189512E-16	1.564128E-17
4.680000E+03	7.226531E-16	1.581950E-17
4.690000E+03	7.263518E-16	1.599155E-17
4.700000E+03	7.299920E-16	1.615671E-17
4.710000E+03	7.335382E-16	1.631476E-17
4.720000E+03	7.369678E-16	1.646582E-17
4.730000E+03	7.402543E-16	1.660993E-17
4.740000E+03	7.433685E-16	1.674705E-17
4.750000E+03	7.463045E-16	1.687761E-17
4.760000E+03	7.490541E-16	1.700191E-17
4.770000E+03	7.516148E-16	1.712028E-17
4.780000E+03	7.540069E-16	1.723350E-17
4.790000E+03	7.562196E-16	1.734152E-17
4.800000E+03	7.582543E-16	1.744451E-17
4.810000E+03	7.601141E-16	1.754258E-17
4.820000E+03	7.617940E-16	1.763564E-17
4.830000E+03	7.632977E-16	1.772370E-17
4.840000E+03	7.646188E-16	1.780651E-17
4.850000E+03	7.657577E-16	1.788394E-17
4.860000E+03	7.667036E-16	1.795558E-17
4.870000E+03	7.674523E-16	1.802112E-17
4.880000E+03	7.679966E-16	1.808021E-17
4.890000E+03	7.683188E-16	1.813223E-17
4.900000E+03	7.684084E-16	1.817672E-17
4.910000E+03	7.682624E-16	1.821337E-17
4.920000E+03	7.678523E-16	1.824121E-17
4.930000E+03	7.671846E-16	1.826006E-17
4.940000E+03	7.662339E-16	1.826887E-17
4.950000E+03	7.650032E-16	1.826717E-17
4.960000E+03	7.634907E-16	1.825427E-17
4.970000E+03	7.616904E-16	1.822927E-17
4.980000E+03	7.596180E-16	1.819171E-17
4.990000E+03	7.572851E-16	1.814100E-17
5.000000E+03	7.547078E-16	1.807661E-17
5.010000E+03	7.518978E-16	1.799796E-17
5.020000E+03	7.488862E-16	1.790501E-17
5.030000E+03	7.456980E-16	1.779770E-17
5.040000E+03	7.423594E-16	1.767618E-17
5.050000E+03	7.388968E-16	1.754082E-17
5.060000E+03	7.353355E-16	1.739220E-17
5.070000E+03	7.316994E-16	1.723110E-17
5.080000E+03	7.280104E-16	1.705844E-17
5.090000E+03	7.242954E-16	1.687542E-17
5.100000E+03	7.205633E-16	1.668294E-17
5.110000E+03	7.168286E-16	1.648212E-17
5.120000E+03	7.131043E-16	1.627410E-17
5.130000E+03	7.094100E-16	1.606019E-17
5.140000E+03	7.057579E-16	1.584158E-17
5.150000E+03	7.021535E-16	1.561933E-17
5.160000E+03	6.986119E-16	1.539473E-17
5.170000E+03	6.951650E-16	1.516939E-17
5.180000E+03	6.918172E-16	1.494426E-17
5.190000E+03	6.885969E-16	1.472069E-17
5.200000E+03	6.855256E-16	1.449968E-17
5.210000E+03	6.826248E-16	1.428196E-17
5.220000E+03	6.799138E-16	1.406793E-17
5.230000E+03	6.774085E-16	1.385758E-17
5.240000E+03	6.751203E-16	1.365046E-17
5.250000E+03	6.730548E-16	1.344567E-17
5.260000E+03	6.712114E-16	1.324193E-17
5.270000E+03	6.695897E-16	1.303780E-17
5.280000E+03	6.681695E-16	1.283135E-17
5.290000E+03	6.669315E-16	1.262070E-17
5.300000E+03	6.658588E-16	1.240414E-17
5.310000E+03	6.649096E-16	1.217971E-17
5.320000E+03	6.640740E-16	1.194631E-17
5.330000E+03	6.632988E-16	1.170240E-17
5.340000E+03	6.625647E-16	1.144743E-17
5.350000E+03	6.618386E-16	1.118104E-17
5.360000E+03	6.610755E-16	1.090319E-17
5.370000E+03	6.602593E-16	1.061485E-17
5.380000E+03	6.593633E-16	1.031748E-17
5.390000E+03	6.583505E-16	1.001304E-17
5.400000E+03	6.572149E-16	9.704780E-18
5.410000E+03	6.559346E-16	9.396580E-18
5.420000E+03	6.545053E-16	9.093525E-18
5.430000E+03	6.529076E-16	8.801513E-18
5.440000E+03	6.511532E-16	8.527893E-18
5.450000E+03	6.492318E-16	8.280626E-18
5.460000E+03	6.471635E-16	8.068676E-18
5.470000E+03	6.449458E-16	7.900741E-18
5.480000E+03	6.426049E-16	7.785007E-18
5.490000E+03	6.401429E-16	7.727363E-18
5.500000E+03	6.375856E-16	7.729573E-18
5.510000E+03	6.349374E-16	7.785917E-18
5.520000E+03	6.321881E-16	7.887387E-18
5.530000E+03	6.293586E-16	8.024289E-18
5.540000E+03	6.264314E-16	8.186554E-18
5.550000E+03	6.234191E-16	8.365426E-18
5.560000E+03	6.203150E-16	8.553263E-18
5.570000E+03	6.171176E-16	8.744007E-18
5.580000E+03	6.138251E-16	8.933060E-18
5.590000E+03	6.104355E-16	9.117124E-18
5.600000E+03	6.069477E-16	9.293987E-18
5.610000E+03	6.033619E-16	9.462285E-18
5.620000E+03	5.996866E-16	9.621378E-18
5.630000E+03	5.959211E-16	9.770872E-18
5.640000E+03	5.920744E-16	9.910746E-18
5.650000E+03	5.881587E-16	1.004114E-17
5.660000E+03	5.841955E-16	1.016240E-17
5.670000E+03	5.801919E-16	1.027458E-17
5.680000E+03	5.761796E-16	1.037821E-17
5.690000E+03	5.721742E-16	1.047351E-17
5.700000E+03	5.682022E-16	1.056095E-17
5.710000E+03	5.642715E-16	1.064076E-17
5.720000E+03	5.604048E-16	1.071355E-17
5.730000E+03	5.566209E-16	1.078001E-17
5.740000E+03	5.529188E-16	1.084059E-17
5.750000E+03	5.493103E-16	1.089607E-17
5.760000E+03	5.457983E-16	1.094716E-17
5.770000E+03	5.423831E-16	1.099451E-17
5.780000E+03	5.390630E-16	1.103870E-17
5.790000E+03	5.358305E-16	1.108003E-17
5.800000E+03	5.326834E-16	1.111879E-17
5.810000E+03	5.296256E-16	1.115518E-17
5.820000E+03	5.266529E-16	1.118899E-17
5.830000E+03	5.237736E-16	1.122013E-17
5.840000E+03	5.209836E-16	1.124811E-17
5.850000E+03	5.183026E-16	1.127287E-17
5.860000E+03	5.157326E-16	1.129401E-17
5.870000E+03	5.132988E-16	1.131175E-17
5.880000E+03	5.110085E-16	1.132607E-17
5.890000E+03	5.088860E-16	1.133750E-17
5.900000E+03	5.069460E-16	1.134658E-17
5.910000E+03	5.052133E-16	1.135422E-17
5.920000E+03	5.037012E-16	1.136118E-17
5.930000E+03	5.024256E-16	1.136826E-17
5.940000E+03	5.013983E-16	1.137614E-17
5.950000E+03	5.006307E-16	1.138532E-17
5.960000E+03	5.001137E-16	1.139565E-17
5.970000E+03	4.998458E-16	1.140690E-17
5.980000E+03	4.998136E-16	1.141835E-17
5.990000E+03	4.999922E-16	1.142884E-17
6.000000E+03	5.003557E-16	1.143704E-17
6.010000E+03	5.008737E-16	1.144148E-17
6.020000E+03	5.015172E-16	1.144080E-17
6.030000E+03	5.022416E-16	1.143342E-17
6.040000E+03	5.030119E-16	1.141823E-17
6.050000E+03	5.037997E-16	1.139452E-17
6.060000E+03	5.045649E-16	1.136166E-17
6.070000E+03	5.052907E-16	1.131982E-17
6.080000E+03	5.059405E-16	1.126899E-17
6.090000E+03	5.065070E-16	1.121002E-17
6.100000E+03	5.069680E-16	1.114355E-17
6.110000E+03	5.073207E-16	1.107071E-17
6.120000E+03	5.075560E-16	1.099240E-17
6.130000E+03	5.076682E-16	1.090951E-17
6.140000E+03	5.076686E-16	1.082308E-17
6.150000E+03	5.075549E-16	1.073361E-17
6.160000E+03	5.073309E-16	1.064146E-17
6.170000E+03	5.070052E-16	1.054681E-17
6.180000E+03	5.065812E-16	1.044950E-17
6.190000E+03	5.060667E-16	1.034918E-17
6.200000E+03	5.054543E-16	1.024507E-17
6.210000E+03	5.047462E-16	1.013642E-17
6.220000E+03	5.039496E-16	1.002254E-17
6.230000E+03	5.030624E-16	9.902522E-18
6.240000E+03	5.020934E-16	9.775759E-18
6.250000E+03	5.010528E-16	9.641765E-18
6.260000E+03	4.999425E-16	9.500052E-18
6.270000E+03	4.987809E-16	9.350631E-18
6.280000E+03	4.975733E-16	9.193438E-18
6.290000E+03	4.963414E-16	9.028870E-18
6.300000E+03	4.950981E-16	8.857270E-18
6.310000E+03	4.938575E-16	8.679052E-18
6.320000E+03	4.926391E-16	8.494720E-18
6.330000E+03	4.914585E-16	8.304627E-18
6.340000E+03	4.903365E-16	8.109097E-18
6.350000E+03	4.892849E-16	7.908134E-18
6.360000E+03	4.883216E-16	7.701645E-18
6.370000E+03	4.874752E-16	7.489496E-18
6.380000E+03	4.867660E-16	7.271198E-18
6.390000E+03	4.862060E-16	7.045954E-18
6.400000E+03	4.858231E-16	6.813089E-18
6.410000E+03	4.856468E-16	6.571907E-18
6.420000E+03	4.856920E-16	6.321635E-18
6.430000E+03	4.859889E-16	6.062033E-18
6.440000E+03	4.865571E-16	5.793337E-18
6.450000E+03	4.874144E-16	5.516783E-18
6.460000E+03	4.885865E-16	5.235242E-18
6.470000E+03	4.900758E-16	4.953591E-18
6.480000E+03	4.918902E-16	4.679975E-18
6.490000E+03	4.940429E-16	4.426813E-18
6.500000E+03	4.965257E-16	4.211399E-18
6.510000E+03	4.993337E-16	4.056027E-18
6.520000E+03	5.024650E-16	3.985669E-18
6.530000E+03	5.059093E-16	4.022486E-18
6.540000E+03	5.096272E-16	4.173603E-18
6.550000E+03	5.135613E-16	4.426645E-18
6.560000E+03	5.176556E-16	4.761877E-18
6.570000E+03	5.218192E-16	5.158054E-18
6.580000E+03	5.259776E-16	5.596227E-18
6.590000E+03	5.300473E-16	6.060616E-18
6.600000E+03	5.339323E-16	6.538341E-18
6.610000E+03	5.375494E-16	7.019056E-18
6.620000E+03	5.408197E-16	7.494203E-18
6.630000E+03	5.436537E-16	7.956270E-18
6.640000E+03	5.460002E-16	8.399122E-18
6.650000E+03	5.477899E-16	8.816990E-18
6.660000E+03	5.489832E-16	9.205100E-18
6.670000E+03	5.495482E-16	9.559335E-18
6.680000E+03	5.494596E-16	9.876280E-18
6.690000E+03	5.487238E-16	1.015372E-17
6.700000E+03	5.473406E-16	1.039006E-17
6.710000E+03	5.453212E-16	1.058464E-17
6.720000E+03	5.427050E-16	1.073815E-17
6.730000E+03	5.395163E-16	1.085169E-17
6.740000E+03	5.358057E-16	1.092757E-17
6.750000E+03	5.316244E-16	1.096868E-17
6.760000E+03	5.270354E-16	1.097865E-17
6.770000E+03	5.220879E-16	1.096117E-17
6.780000E+03	5.168515E-16	1.092057E-17
6.790000E+03	5.113849E-16	1.086109E-17
6.800000E+03	5.057638E-16	1.078727E-17
6.810000E+03	5.000435E-16	1.070316E-17
6.820000E+03	4.942763E-16	1.061246E-17
6.830000E+03	4.885271E-16	1.051884E-17
6.840000E+03	4.828328E-16	1.042499E-17
6.850000E+03	4.772420E-16	1.033344E-17
6.860000E+03	4.717923E-16	1.024603E-17
6.870000E+03	4.665100E-16	1.016402E-17
6.880000E+03	4.614327E-16	1.008855E-17
6.890000E+03	4.565710E-16	1.001993E-17
6.900000E+03	4.519525E-16	9.958635E-18
6.910000E+03	4.475782E-16	9.904464E-18
6.920000E+03	4.434610E-16	9.857386E-18
6.930000E+03	4.396039E-16	9.817121E-18
6.940000E+03	4.360008E-16	9.783163E-18
6.950000E+03	4.326580E-16	9.755266E-18
6.960000E+03	4.295627E-16	9.732764E-18
6.970000E+03	4.266999E-16	9.714935E-18
6.980000E+03	4.240630E-16	9.701269E-18
6.990000E+03	4.216443E-16	9.691253E-18
7.000000E+03	4.194198E-16	9.684049E-18
7.010000E+03	4.173806E-16	9.679223E-18
7.020000E+03	4.155131E-16	9.676294E-18
7.030000E+03	4.138087E-16	9.674982E-18
7.040000E+03	4.122442E-16	9.674738E-18
7.050000E+03	4.108122E-16	9.675450E-18
7.060000E+03	4.095005E-16	9.676962E-18
7.070000E+03	4.082975E-16	9.679172E-18
7.080000E+03	4.071918E-16	9.682017E-18
7.090000E+03	4.061776E-16	9.685572E-18
7.100000E+03	4.052338E-16	9.689547E-18
7.110000E+03	4.043601E-16	9.694118E-18
7.120000E+03	4.035410E-16	9.699064E-18
7.130000E+03	4.027663E-16	9.704238E-18
7.140000E+03	4.020261E-16	9.709443E-18
7.150000E+03	4.013104E-16	9.714429E-18
7.160000E+03	4.006149E-16	9.719015E-18
7.170000E+03	3.999251E-16	9.722734E-18
7.180000E+03	3.992323E-16	9.725209E-18
7.190000E+03	3.985280E-16	9.726048E-18
7.200000E+03	3.978098E-16	9.724991E-18
7.210000E+03	3.970657E-16	9.721556E-18
7.220000E+03	3.962949E-16	9.715557E-18
7.230000E+03	3.954875E-16	9.706626E-18
7.240000E+03	3.946452E-16	9.694731E-18
7.250000E+03	3.937604E-16	9.679675E-18
7.260000E+03	3.928370E-16	9.661602E-18
7.270000E+03	3.918695E-16	9.640480E-18
7.280000E+03	3.908637E-16	9.616591E-18
7.290000E+03	3.898211E-16	9.590132E-18
7.300000E+03	3.887434E-16	9.561327E-18
7.310000E+03	3.876280E-16	9.530283E-18
7.320000E+03	3.864824E-16	9.497359E-18
7.330000E+03	3.853095E-16	9.462782E-18
7.340000E+03	3.841123E-16	9.426773E-18
7.350000E+03	3.828937E-16	9.389547E-18
7.360000E+03	3.816618E-16	9.351441E-18
7.370000E+03	3.804147E-16	9.312539E-18
7.380000E+03	3.791553E-16	9.273047E-18
7.390000E+03	3.778914E-16	9.233291E-18
7.400000E+03	3.766254E-16	9.193460E-18
7.410000E+03	3.753648E-16	9.153848E-18
7.420000E+03	3.741013E-16	9.114358E-18
7.430000E+03	3.728466E-16	9.075353E-18
7.440000E+03	3.716024E-16	9.036917E-18
7.450000E+03	3.703650E-16	8.998975E-18
7.460000E+03	3.691359E-16	8.961533E-18
7.470000E+03	3.679167E-16	8.924561E-18
7.480000E+03	3.667042E-16	8.887863E-18
7.490000E+03	3.655004E-16	8.851326E-18
7.500000E+03	3.643070E-16	8.814791E-18
7.510000E+03	3.631211E-16	8.777937E-18
7.520000E+03	3.619491E-16	8.740639E-18
7.530000E+03	3.607922E-16	8.702609E-18
7.540000E+03	3.596411E-16	8.663286E-18
7.550000E+03	3.585056E-16	8.622554E-18
7.560000E+03	3.573753E-16	8.579811E-18
7.570000E+03	3.562536E-16	8.534812E-18
7.580000E+03	3.551386E-16	8.487223E-18
7.590000E+03	3.540227E-16	8.436649E-18
7.600000E+03	3.529078E-16	8.383003E-18
7.610000E+03	3.517906E-16	8.326178E-18
7.620000E+03	3.506626E-16	8.266058E-18
7.630000E+03	3.495206E-16	8.202740E-18
7.640000E+03	3.483660E-16	8.136522E-18
7.650000E+03	3.471913E-16	8.067535E-18
7.660000E+03	3.459943E-16	7.996057E-18
7.670000E+03	3.447785E-16	7.922475E-18
7.680000E+03	3.435340E-16	7.846830E-18
7.690000E+03	3.422712E-16	7.769559E-18
7.700000E+03	3.409874E-16	7.690725E-18
7.710000E+03	3.396903E-16	7.610561E-18
7.720000E+03	3.383749E-16	7.528947E-18
7.730000E+03	3.370558E-16	7.446156E-18
7.740000E+03	3.357343E-16	7.362142E-18
7.750000E+03	3.344217E-16	7.277066E-18
7.760000E+03	3.331156E-16	7.190801E-18
