#wls	flux	fluxerr
1.600000E+03	1.634300E-16	8.501727E-17
1.640000E+03	1.672163E-16	8.573921E-17
1.680000E+03	1.711230E-16	8.643613E-17
1.720000E+03	1.751156E-16	8.708601E-17
1.760000E+03	1.792575E-16	8.771577E-17
1.800000E+03	1.834786E-16	8.828605E-17
1.840000E+03	1.878433E-16	8.882329E-17
1.880000E+03	1.923488E-16	8.932051E-17
1.920000E+03	1.969910E-16	8.977024E-17
1.960000E+03	2.017273E-16	9.014783E-17
2.000000E+03	2.066250E-16	9.047839E-17
2.040000E+03	2.116393E-16	9.073642E-17
2.080000E+03	2.167997E-16	9.092937E-17
2.120000E+03	2.220964E-16	9.104752E-17
2.160000E+03	2.275178E-16	9.108078E-17
2.200000E+03	2.330913E-16	9.103497E-17
2.240000E+03	2.388023E-16	9.089895E-17
2.280000E+03	2.445909E-16	9.064552E-17
2.320000E+03	2.505651E-16	9.031066E-17
2.360000E+03	2.566174E-16	8.985072E-17
2.400000E+03	2.628098E-16	8.928443E-17
2.440000E+03	2.691153E-16	8.859890E-17
2.480000E+03	2.755028E-16	8.778151E-17
2.520000E+03	2.819828E-16	8.683417E-17
2.560000E+03	2.885629E-16	8.575795E-17
2.600000E+03	2.952013E-16	8.453996E-17
2.640000E+03	3.019436E-16	8.319380E-17
2.680000E+03	3.087397E-16	8.170623E-17
2.720000E+03	3.155803E-16	8.007727E-17
2.760000E+03	3.224974E-16	7.831794E-17
2.800000E+03	3.294256E-16	7.641593E-17
2.840000E+03	3.363859E-16	7.438152E-17
2.880000E+03	3.433928E-16	7.222343E-17
2.920000E+03	3.504087E-16	6.994006E-17
2.960000E+03	3.574348E-16	6.753953E-17
3.000000E+03	3.645524E-16	6.504504E-17
3.010000E+03	3.663273E-16	6.440424E-17
3.020000E+03	3.681188E-16	6.376012E-17
3.030000E+03	3.698819E-16	6.310504E-17
3.040000E+03	3.716582E-16	6.244641E-17
3.050000E+03	3.734459E-16	6.178398E-17
3.060000E+03	3.752430E-16	6.111756E-17
3.070000E+03	3.770476E-16	6.044697E-17
3.080000E+03	3.788157E-16	5.976539E-17
3.090000E+03	3.806298E-16	5.908616E-17
3.100000E+03	3.824458E-16	5.840237E-17
3.110000E+03	3.842616E-16	5.771397E-17
3.120000E+03	3.860753E-16	5.702092E-17
3.130000E+03	3.878851E-16	5.632321E-17
3.140000E+03	3.896890E-16	5.562087E-17
3.150000E+03	3.915258E-16	5.491965E-17
3.160000E+03	3.933526E-16	5.421370E-17
3.170000E+03	3.952075E-16	5.350856E-17
3.180000E+03	3.970481E-16	5.279872E-17
3.190000E+03	3.989122E-16	5.208957E-17
3.200000E+03	4.007578E-16	5.137593E-17
3.210000E+03	4.026223E-16	5.066300E-17
3.220000E+03	4.045031E-16	4.995076E-17
3.230000E+03	4.063977E-16	4.923920E-17
3.240000E+03	4.082653E-16	4.852386E-17
3.250000E+03	4.101801E-16	4.781407E-17
3.260000E+03	4.120635E-16	4.710101E-17
3.270000E+03	4.139887E-16	4.639367E-17
3.280000E+03	4.159152E-16	4.568791E-17
3.290000E+03	4.178407E-16	4.498408E-17
3.300000E+03	4.197994E-16	4.428644E-17
3.310000E+03	4.217518E-16	4.359140E-17
3.320000E+03	4.237316E-16	4.290314E-17
3.330000E+03	4.256999E-16	4.221841E-17
3.340000E+03	4.277254E-16	4.154475E-17
3.350000E+03	4.297339E-16	4.087562E-17
3.360000E+03	4.317232E-16	4.021184E-17
3.370000E+03	4.337603E-16	3.956054E-17
3.380000E+03	4.358413E-16	3.892208E-17
3.390000E+03	4.378947E-16	3.829098E-17
3.400000E+03	4.399857E-16	3.767403E-17
3.410000E+03	4.420775E-16	3.706899E-17
3.420000E+03	4.441673E-16	3.647676E-17
3.430000E+03	4.463176E-16	3.590348E-17
3.440000E+03	4.484597E-16	3.534455E-17
3.450000E+03	4.506229E-16	3.480340E-17
3.460000E+03	4.528039E-16	3.428080E-17
3.470000E+03	4.549997E-16	3.377751E-17
3.480000E+03	4.572070E-16	3.329427E-17
3.490000E+03	4.594536E-16	3.283402E-17
3.500000E+03	4.617053E-16	3.239510E-17
3.510000E+03	4.639895E-16	3.198021E-17
3.520000E+03	4.663025E-16	3.158973E-17
3.530000E+03	4.686116E-16	3.122197E-17
3.540000E+03	4.709727E-16	3.088112E-17
3.550000E+03	4.733242E-16	3.056336E-17
3.560000E+03	4.757212E-16	3.027243E-17
3.570000E+03	4.781598E-16	3.000801E-17
3.580000E+03	4.806088E-16	2.976792E-17
3.590000E+03	4.830660E-16	2.955175E-17
3.600000E+03	4.855562E-16	2.936053E-17
3.610000E+03	4.881034E-16	2.919507E-17
3.620000E+03	4.906508E-16	2.905117E-17
3.630000E+03	4.932493E-16	2.893099E-17
3.640000E+03	4.958694E-16	2.883179E-17
3.650000E+03	4.985090E-16	2.875237E-17
3.660000E+03	5.012164E-16	2.869437E-17
3.670000E+03	5.039377E-16	2.865345E-17
3.680000E+03	5.066956E-16	2.862966E-17
3.690000E+03	5.094872E-16	2.862154E-17
3.700000E+03	5.123097E-16	2.862764E-17
3.710000E+03	5.151842E-16	2.864782E-17
3.720000E+03	5.180834E-16	2.867925E-17
3.730000E+03	5.210278E-16	2.872176E-17
3.740000E+03	5.240136E-16	2.877388E-17
3.750000E+03	5.270145E-16	2.883287E-17
3.760000E+03	5.300722E-16	2.889980E-17
3.770000E+03	5.331601E-16	2.897200E-17
3.780000E+03	5.362740E-16	2.904804E-17
3.790000E+03	5.394099E-16	2.912657E-17
3.800000E+03	5.425852E-16	2.920738E-17
3.810000E+03	5.457736E-16	2.928795E-17
3.820000E+03	5.490127E-16	2.936922E-17
3.830000E+03	5.522553E-16	2.944760E-17
3.840000E+03	5.554969E-16	2.952185E-17
3.850000E+03	5.587734E-16	2.959287E-17
3.860000E+03	5.620586E-16	2.965832E-17
3.870000E+03	5.653475E-16	2.971700E-17
3.880000E+03	5.686345E-16	2.976772E-17
3.890000E+03	5.719142E-16	2.980935E-17
3.900000E+03	5.751813E-16	2.984078E-17
3.910000E+03	5.784489E-16	2.986193E-17
3.920000E+03	5.816923E-16	2.987076E-17
3.930000E+03	5.849061E-16	2.986633E-17
3.940000E+03	5.880847E-16	2.984770E-17
3.950000E+03	5.912226E-16	2.981400E-17
3.960000E+03	5.943140E-16	2.976442E-17
3.970000E+03	5.973534E-16	2.969819E-17
3.980000E+03	6.003351E-16	2.961458E-17
3.990000E+03	6.032534E-16	2.951296E-17
4.000000E+03	6.060862E-16	2.939192E-17
4.010000E+03	6.088451E-16	2.925175E-17
4.020000E+03	6.115084E-16	2.909120E-17
4.030000E+03	6.140876E-16	2.891066E-17
4.040000E+03	6.165465E-16	2.870829E-17
4.050000E+03	6.188972E-16	2.848461E-17
4.060000E+03	6.211210E-16	2.823874E-17
4.070000E+03	6.232155E-16	2.797060E-17
4.080000E+03	6.251791E-16	2.768016E-17
4.090000E+03	6.269960E-16	2.736682E-17
4.100000E+03	6.286809E-16	2.703136E-17
4.110000E+03	6.302062E-16	2.667274E-17
4.120000E+03	6.315743E-16	2.629129E-17
4.130000E+03	6.328028E-16	2.588799E-17
4.140000E+03	6.338549E-16	2.546163E-17
4.150000E+03	6.347641E-16	2.501394E-17
4.160000E+03	6.354976E-16	2.454408E-17
4.170000E+03	6.360905E-16	2.405396E-17
4.180000E+03	6.365264E-16	2.354362E-17
4.190000E+03	6.368164E-16	2.301431E-17
4.200000E+03	6.369601E-16	2.246699E-17
4.210000E+03	6.369707E-16	2.190337E-17
4.220000E+03	6.368500E-16	2.132499E-17
4.230000E+03	6.366011E-16	2.073378E-17
4.240000E+03	6.362516E-16	2.013282E-17
4.250000E+03	6.357941E-16	1.952450E-17
4.260000E+03	6.352343E-16	1.891218E-17
4.270000E+03	6.346116E-16	1.830082E-17
4.280000E+03	6.339096E-16	1.769442E-17
4.290000E+03	6.331456E-16	1.709879E-17
4.300000E+03	6.323474E-16	1.652086E-17
4.310000E+03	6.315205E-16	1.596792E-17
4.320000E+03	6.306706E-16	1.544825E-17
4.330000E+03	6.298236E-16	1.497154E-17
4.340000E+03	6.289839E-16	1.454768E-17
4.350000E+03	6.281658E-16	1.418720E-17
4.360000E+03	6.273829E-16	1.390047E-17
4.370000E+03	6.266482E-16	1.369697E-17
4.380000E+03	6.259839E-16	1.358465E-17
4.390000E+03	6.253924E-16	1.356831E-17
4.400000E+03	6.248896E-16	1.364751E-17
4.410000E+03	6.245041E-16	1.381678E-17
4.420000E+03	6.242450E-16	1.406777E-17
4.430000E+03	6.241396E-16	1.439112E-17
4.440000E+03	6.241867E-16	1.477628E-17
4.450000E+03	6.244201E-16	1.521374E-17
4.460000E+03	6.248366E-16	1.569377E-17
4.470000E+03	6.254671E-16	1.620851E-17
4.480000E+03	6.263056E-16	1.675029E-17
4.490000E+03	6.273710E-16	1.731320E-17
4.500000E+03	6.286715E-16	1.789216E-17
4.510000E+03	6.301971E-16	1.848250E-17
4.520000E+03	6.319530E-16	1.908082E-17
4.530000E+03	6.339343E-16	1.968414E-17
4.540000E+03	6.361427E-16	2.029026E-17
4.550000E+03	6.385780E-16	2.089744E-17
4.560000E+03	6.412217E-16	2.150373E-17
4.570000E+03	6.440699E-16	2.210796E-17
4.580000E+03	6.471166E-16	2.270916E-17
4.590000E+03	6.503541E-16	2.330651E-17
4.600000E+03	6.537563E-16	2.389866E-17
4.610000E+03	6.573198E-16	2.448520E-17
4.620000E+03	6.610311E-16	2.506544E-17
4.630000E+03	6.648672E-16	2.563840E-17
4.640000E+03	6.688195E-16	2.620366E-17
4.650000E+03	6.728539E-16	2.675985E-17
4.660000E+03	6.769674E-16	2.730685E-17
4.670000E+03	6.811239E-16	2.784319E-17
4.680000E+03	6.853106E-16	2.836835E-17
4.690000E+03	6.894903E-16	2.888079E-17
4.700000E+03	6.936575E-16	2.938027E-17
4.710000E+03	6.977668E-16	2.986488E-17
4.720000E+03	7.018050E-16	3.033401E-17
4.730000E+03	7.057353E-16	3.078605E-17
4.740000E+03	7.095299E-16	3.121972E-17
4.750000E+03	7.131616E-16	3.163377E-17
4.760000E+03	7.166041E-16	3.202695E-17
4.770000E+03	7.198164E-16	3.239732E-17
4.780000E+03	7.227827E-16	3.274407E-17
4.790000E+03	7.254722E-16	3.306569E-17
4.800000E+03	7.278957E-16	3.336255E-17
4.810000E+03	7.300410E-16	3.363398E-17
4.820000E+03	7.319211E-16	3.388049E-17
4.830000E+03	7.335263E-16	3.410154E-17
4.840000E+03	7.348796E-16	3.429813E-17
4.850000E+03	7.359653E-16	3.446943E-17
4.860000E+03	7.368085E-16	3.461656E-17
4.870000E+03	7.373952E-16	3.473880E-17
4.880000E+03	7.377363E-16	3.483658E-17
4.890000E+03	7.378358E-16	3.491002E-17
4.900000E+03	7.376904E-16	3.495889E-17
4.910000E+03	7.373060E-16	3.498341E-17
4.920000E+03	7.366894E-16	3.498381E-17
4.930000E+03	7.358483E-16	3.496038E-17
4.940000E+03	7.347684E-16	3.491237E-17
4.950000E+03	7.334753E-16	3.484093E-17
4.960000E+03	7.319571E-16	3.474539E-17
4.970000E+03	7.302342E-16	3.462667E-17
4.980000E+03	7.283126E-16	3.448498E-17
4.990000E+03	7.261917E-16	3.432023E-17
5.000000E+03	7.238951E-16	3.413350E-17
5.010000E+03	7.214171E-16	3.392447E-17
5.020000E+03	7.187830E-16	3.369434E-17
5.030000E+03	7.159889E-16	3.344291E-17
5.040000E+03	7.130616E-16	3.317145E-17
5.050000E+03	7.100134E-16	3.288056E-17
5.060000E+03	7.068494E-16	3.257056E-17
5.070000E+03	7.035901E-16	3.224243E-17
5.080000E+03	7.002485E-16	3.189687E-17
5.090000E+03	6.968304E-16	3.153423E-17
5.100000E+03	6.933560E-16	3.115554E-17
5.110000E+03	6.898453E-16	3.076180E-17
5.120000E+03	6.862965E-16	3.035302E-17
5.130000E+03	6.827286E-16	2.993017E-17
5.140000E+03	6.791535E-16	2.949384E-17
5.150000E+03	6.755891E-16	2.904490E-17
5.160000E+03	6.720389E-16	2.858353E-17
5.170000E+03	6.685125E-16	2.811018E-17
5.180000E+03	6.650257E-16	2.762553E-17
5.190000E+03	6.615795E-16	2.712959E-17
5.200000E+03	6.581878E-16	2.662289E-17
5.210000E+03	6.548495E-16	2.610530E-17
5.220000E+03	6.515825E-16	2.557747E-17
5.230000E+03	6.483769E-16	2.503887E-17
5.240000E+03	6.452346E-16	2.448951E-17
5.250000E+03	6.421696E-16	2.392981E-17
5.260000E+03	6.391742E-16	2.335944E-17
5.270000E+03	6.362466E-16	2.277832E-17
5.280000E+03	6.333899E-16	2.218661E-17
5.290000E+03	6.305929E-16	2.158413E-17
5.300000E+03	6.278504E-16	2.097101E-17
5.310000E+03	6.251621E-16	2.034776E-17
5.320000E+03	6.225211E-16	1.971490E-17
5.330000E+03	6.199198E-16	1.907324E-17
5.340000E+03	6.173501E-16	1.842394E-17
5.350000E+03	6.148043E-16	1.776860E-17
5.360000E+03	6.122746E-16	1.710939E-17
5.370000E+03	6.097595E-16	1.644929E-17
5.380000E+03	6.072460E-16	1.579172E-17
5.390000E+03	6.047337E-16	1.514134E-17
5.400000E+03	6.022172E-16	1.450372E-17
5.410000E+03	5.996915E-16	1.388564E-17
5.420000E+03	5.971528E-16	1.329520E-17
5.430000E+03	5.945980E-16	1.274187E-17
5.440000E+03	5.920249E-16	1.223647E-17
5.450000E+03	5.894320E-16	1.179084E-17
5.460000E+03	5.868243E-16	1.141746E-17
5.470000E+03	5.841956E-16	1.112819E-17
5.480000E+03	5.815515E-16	1.093352E-17
5.490000E+03	5.788862E-16	1.084068E-17
5.500000E+03	5.761999E-16	1.085155E-17
5.510000E+03	5.734980E-16	1.095976E-17
5.520000E+03	5.707746E-16	1.115443E-17
5.530000E+03	5.680293E-16	1.142254E-17
5.540000E+03	5.652621E-16	1.175030E-17
5.550000E+03	5.624783E-16	1.212437E-17
5.560000E+03	5.596670E-16	1.253215E-17
5.570000E+03	5.568399E-16	1.296304E-17
5.580000E+03	5.539921E-16	1.340767E-17
5.590000E+03	5.511196E-16	1.385823E-17
5.600000E+03	5.482297E-16	1.430862E-17
5.610000E+03	5.453250E-16	1.475387E-17
5.620000E+03	5.424028E-16	1.518994E-17
5.630000E+03	5.394670E-16	1.561383E-17
5.640000E+03	5.365214E-16	1.602329E-17
5.650000E+03	5.335709E-16	1.641669E-17
5.660000E+03	5.306205E-16	1.679293E-17
5.670000E+03	5.276703E-16	1.715111E-17
5.680000E+03	5.247260E-16	1.749084E-17
5.690000E+03	5.217990E-16	1.781219E-17
5.700000E+03	5.188848E-16	1.811490E-17
5.710000E+03	5.159998E-16	1.839959E-17
5.720000E+03	5.131400E-16	1.866628E-17
5.730000E+03	5.103113E-16	1.891545E-17
5.740000E+03	5.075245E-16	1.914787E-17
5.750000E+03	5.047804E-16	1.936394E-17
5.760000E+03	5.020795E-16	1.956412E-17
5.770000E+03	4.994320E-16	1.974926E-17
5.780000E+03	4.968431E-16	1.992005E-17
5.790000E+03	4.943177E-16	2.007715E-17
5.800000E+03	4.918510E-16	2.022085E-17
5.810000E+03	4.894574E-16	2.035219E-17
5.820000E+03	4.871319E-16	2.047142E-17
5.830000E+03	4.848840E-16	2.057938E-17
5.840000E+03	4.827179E-16	2.067666E-17
5.850000E+03	4.806334E-16	2.076365E-17
5.860000E+03	4.786391E-16	2.084111E-17
5.870000E+03	4.767342E-16	2.090937E-17
5.880000E+03	4.749175E-16	2.096871E-17
5.890000E+03	4.732012E-16	2.101999E-17
5.900000E+03	4.715786E-16	2.106322E-17
5.910000E+03	4.700512E-16	2.109873E-17
5.920000E+03	4.686247E-16	2.112703E-17
5.930000E+03	4.672990E-16	2.114835E-17
5.940000E+03	4.660685E-16	2.116261E-17
5.950000E+03	4.649265E-16	2.116970E-17
5.960000E+03	4.638791E-16	2.117003E-17
5.970000E+03	4.629175E-16	2.116332E-17
5.980000E+03	4.620364E-16	2.114941E-17
5.990000E+03	4.612296E-16	2.112810E-17
6.000000E+03	4.604855E-16	2.109890E-17
6.010000E+03	4.598053E-16	2.106191E-17
6.020000E+03	4.591715E-16	2.101635E-17
6.030000E+03	4.585800E-16	2.096204E-17
6.040000E+03	4.580217E-16	2.089859E-17
6.050000E+03	4.574921E-16	2.082579E-17
6.060000E+03	4.569780E-16	2.074303E-17
6.070000E+03	4.564708E-16	2.064995E-17
6.080000E+03	4.559672E-16	2.054638E-17
6.090000E+03	4.554641E-16	2.043220E-17
6.100000E+03	4.549507E-16	2.030689E-17
6.110000E+03	4.544300E-16	2.017057E-17
6.120000E+03	4.539018E-16	2.002319E-17
6.130000E+03	4.533574E-16	1.986432E-17
6.140000E+03	4.528119E-16	1.969454E-17
6.150000E+03	4.522632E-16	1.951363E-17
6.160000E+03	4.517234E-16	1.932198E-17
6.170000E+03	4.512014E-16	1.911976E-17
6.180000E+03	4.506974E-16	1.890677E-17
6.190000E+03	4.502128E-16	1.868279E-17
6.200000E+03	4.497314E-16	1.844686E-17
6.210000E+03	4.492558E-16	1.819879E-17
6.220000E+03	4.487716E-16	1.793766E-17
6.230000E+03	4.482874E-16	1.766348E-17
6.240000E+03	4.477944E-16	1.737557E-17
6.250000E+03	4.472939E-16	1.707360E-17
6.260000E+03	4.467963E-16	1.675762E-17
6.270000E+03	4.463042E-16	1.642730E-17
6.280000E+03	4.458156E-16	1.608219E-17
6.290000E+03	4.453432E-16	1.572233E-17
6.300000E+03	4.448953E-16	1.534758E-17
6.310000E+03	4.444806E-16	1.495781E-17
6.320000E+03	4.441039E-16	1.455272E-17
6.330000E+03	4.437790E-16	1.413230E-17
6.340000E+03	4.435156E-16	1.369641E-17
6.350000E+03	4.433188E-16	1.324477E-17
6.360000E+03	4.432073E-16	1.277754E-17
6.370000E+03	4.431815E-16	1.229437E-17
6.380000E+03	4.432598E-16	1.179556E-17
6.390000E+03	4.434508E-16	1.128124E-17
6.400000E+03	4.437673E-16	1.075190E-17
6.410000E+03	4.442118E-16	1.020809E-17
6.420000E+03	4.447999E-16	9.651202E-18
6.430000E+03	4.455316E-16	9.082983E-18
6.440000E+03	4.464199E-16	8.506504E-18
6.450000E+03	4.474660E-16	7.926107E-18
6.460000E+03	4.486744E-16	7.348362E-18
6.470000E+03	4.500420E-16	6.782821E-18
6.480000E+03	4.515679E-16	6.243448E-18
6.490000E+03	4.532484E-16	5.750029E-18
6.500000E+03	4.550668E-16	5.329342E-18
6.510000E+03	4.570128E-16	5.015108E-18
6.520000E+03	4.590678E-16	4.843624E-18
6.530000E+03	4.612048E-16	4.844212E-18
6.540000E+03	4.634076E-16	5.023914E-18
6.550000E+03	4.656528E-16	5.362704E-18
6.560000E+03	4.679146E-16	5.828243E-18
6.570000E+03	4.701747E-16	6.386929E-18
6.580000E+03	4.724028E-16	7.009656E-18
6.590000E+03	4.745668E-16	7.673501E-18
6.600000E+03	4.766437E-16	8.361255E-18
6.610000E+03	4.786051E-16	9.059947E-18
6.620000E+03	4.804177E-16	9.759644E-18
6.630000E+03	4.820544E-16	1.045275E-17
6.640000E+03	4.834894E-16	1.113330E-17
6.650000E+03	4.847049E-16	1.179666E-17
6.660000E+03	4.856695E-16	1.243873E-17
6.670000E+03	4.863764E-16	1.305667E-17
6.680000E+03	4.868116E-16	1.364798E-17
6.690000E+03	4.869596E-16	1.421055E-17
6.700000E+03	4.868193E-16	1.474306E-17
6.710000E+03	4.863885E-16	1.524445E-17
6.720000E+03	4.856685E-16	1.571407E-17
6.730000E+03	4.846593E-16	1.615148E-17
6.740000E+03	4.833859E-16	1.655731E-17
6.750000E+03	4.818440E-16	1.693139E-17
6.760000E+03	4.800592E-16	1.727481E-17
6.770000E+03	4.780491E-16	1.758850E-17
6.780000E+03	4.758383E-16	1.787385E-17
6.790000E+03	4.734368E-16	1.813180E-17
6.800000E+03	4.708720E-16	1.836403E-17
6.810000E+03	4.681722E-16	1.857235E-17
6.820000E+03	4.653549E-16	1.875821E-17
6.830000E+03	4.624535E-16	1.892374E-17
6.840000E+03	4.594742E-16	1.906999E-17
6.850000E+03	4.564546E-16	1.919928E-17
6.860000E+03	4.534097E-16	1.931304E-17
6.870000E+03	4.503636E-16	1.941304E-17
6.880000E+03	4.473234E-16	1.950031E-17
6.890000E+03	4.443155E-16	1.957669E-17
6.900000E+03	4.413488E-16	1.964322E-17
6.910000E+03	4.384409E-16	1.970133E-17
6.920000E+03	4.356025E-16	1.975206E-17
6.930000E+03	4.328373E-16	1.979615E-17
6.940000E+03	4.301627E-16	1.983490E-17
6.950000E+03	4.275740E-16	1.986860E-17
6.960000E+03	4.250805E-16	1.989812E-17
6.970000E+03	4.226846E-16	1.992401E-17
6.980000E+03	4.203827E-16	1.994651E-17
6.990000E+03	4.181849E-16	1.996648E-17
7.000000E+03	4.160904E-16	1.998423E-17
7.010000E+03	4.140872E-16	1.999954E-17
7.020000E+03	4.121775E-16	2.001284E-17
7.030000E+03	4.103631E-16	2.002452E-17
7.040000E+03	4.086299E-16	2.003419E-17
7.050000E+03	4.069834E-16	2.004238E-17
7.060000E+03	4.054189E-16	2.004913E-17
7.070000E+03	4.039209E-16	2.005393E-17
7.080000E+03	4.024943E-16	2.005724E-17
7.090000E+03	4.011282E-16	2.005874E-17
7.100000E+03	3.998171E-16	2.005836E-17
7.110000E+03	3.985601E-16	2.005624E-17
7.120000E+03	3.973465E-16	2.005202E-17
7.130000E+03	3.961755E-16	2.004582E-17
7.140000E+03	3.950317E-16	2.003700E-17
7.150000E+03	3.939244E-16	2.002616E-17
7.160000E+03	3.928335E-16	2.001241E-17
7.170000E+03	3.917639E-16	1.999609E-17
7.180000E+03	3.907107E-16	1.997706E-17
7.190000E+03	3.896644E-16	1.995491E-17
7.200000E+03	3.886259E-16	1.992977E-17
7.210000E+03	3.875863E-16	1.990126E-17
7.220000E+03	3.865470E-16	1.986951E-17
7.230000E+03	3.855049E-16	1.983442E-17
7.240000E+03	3.844522E-16	1.979567E-17
7.250000E+03	3.833967E-16	1.975368E-17
7.260000E+03	3.823262E-16	1.970789E-17
7.270000E+03	3.812491E-16	1.965880E-17
7.280000E+03	3.801592E-16	1.960612E-17
7.290000E+03	3.790556E-16	1.954986E-17
7.300000E+03	3.779424E-16	1.949028E-17
7.310000E+03	3.768145E-16	1.942715E-17
7.320000E+03	3.756767E-16	1.936076E-17
7.330000E+03	3.745291E-16	1.929116E-17
7.340000E+03	3.733672E-16	1.921814E-17
7.350000E+03	3.722013E-16	1.914226E-17
7.360000E+03	3.710221E-16	1.906306E-17
7.370000E+03	3.698306E-16	1.898061E-17
7.380000E+03	3.686373E-16	1.889546E-17
7.390000E+03	3.674284E-16	1.880690E-17
7.400000E+03	3.662100E-16	1.871522E-17
7.410000E+03	3.649829E-16	1.862048E-17
7.420000E+03	3.637435E-16	1.852243E-17
7.430000E+03	3.624878E-16	1.842087E-17
7.440000E+03	3.612218E-16	1.831604E-17
7.450000E+03	3.599416E-16	1.820771E-17
7.460000E+03	3.586579E-16	1.809635E-17
7.470000E+03	3.573668E-16	1.798169E-17
7.480000E+03	3.560739E-16	1.786394E-17
7.490000E+03	3.547799E-16	1.774303E-17
7.500000E+03	3.534760E-16	1.761843E-17
7.510000E+03	3.521771E-16	1.749077E-17
7.520000E+03	3.508742E-16	1.735950E-17
7.530000E+03	3.495677E-16	1.722452E-17
7.540000E+03	3.482580E-16	1.708573E-17
7.550000E+03	3.469454E-16	1.694303E-17
7.560000E+03	3.456302E-16	1.679630E-17
7.570000E+03	3.443079E-16	1.664522E-17
7.580000E+03	3.429832E-16	1.648989E-17
7.590000E+03	3.416517E-16	1.633000E-17
7.600000E+03	3.403137E-16	1.616544E-17
7.610000E+03	3.389692E-16	1.599613E-17
7.620000E+03	3.376234E-16	1.582221E-17
7.630000E+03	3.362674E-16	1.564318E-17
7.640000E+03	3.349063E-16	1.545919E-17
7.650000E+03	3.335364E-16	1.527000E-17
7.660000E+03	3.321631E-16	1.507577E-17
7.670000E+03	3.307876E-16	1.487649E-17
7.680000E+03	3.294067E-16	1.467194E-17
7.690000E+03	3.280265E-16	1.446233E-17
7.700000E+03	3.266442E-16	1.424747E-17
7.710000E+03	3.252665E-16	1.402756E-17
7.720000E+03	3.238954E-16	1.380262E-17
7.730000E+03	3.225288E-16	1.357250E-17
7.740000E+03	3.211692E-16	1.333723E-17
7.750000E+03	3.198236E-16	1.309703E-17
7.760000E+03	3.184945E-16	1.285193E-17
