#wls	flux	fluxerr
1.600000E+03	1.062572E-16	5.556789E-17
1.640000E+03	1.087050E-16	5.602554E-17
1.680000E+03	1.111980E-16	5.644780E-17
1.720000E+03	1.137722E-16	5.685008E-17
1.760000E+03	1.164064E-16	5.721819E-17
1.800000E+03	1.190974E-16	5.754747E-17
1.840000E+03	1.218418E-16	5.783303E-17
1.880000E+03	1.246354E-16	5.806977E-17
1.920000E+03	1.274948E-16	5.826217E-17
1.960000E+03	1.304155E-16	5.840464E-17
2.000000E+03	1.333922E-16	5.849137E-17
2.040000E+03	1.364412E-16	5.852598E-17
2.080000E+03	1.395112E-16	5.848302E-17
2.120000E+03	1.426393E-16	5.837536E-17
2.160000E+03	1.458176E-16	5.819641E-17
2.200000E+03	1.490371E-16	5.793948E-17
2.240000E+03	1.522878E-16	5.759791E-17
2.280000E+03	1.555583E-16	5.716514E-17
2.320000E+03	1.588849E-16	5.665215E-17
2.360000E+03	1.622307E-16	5.604321E-17
2.400000E+03	1.655814E-16	5.533193E-17
2.440000E+03	1.689461E-16	5.452042E-17
2.480000E+03	1.723083E-16	5.360263E-17
2.520000E+03	1.756500E-16	5.257319E-17
2.560000E+03	1.790023E-16	5.144208E-17
2.600000E+03	1.823196E-16	5.019715E-17
2.640000E+03	1.856306E-16	4.884851E-17
2.680000E+03	1.888614E-16	4.737983E-17
2.720000E+03	1.920630E-16	4.580899E-17
2.760000E+03	1.951843E-16	4.412905E-17
2.800000E+03	1.982479E-16	4.235252E-17
2.840000E+03	2.012251E-16	4.048160E-17
2.880000E+03	2.040857E-16	3.852123E-17
2.920000E+03	2.068237E-16	3.648372E-17
2.960000E+03	2.094555E-16	3.438751E-17
3.000000E+03	2.119477E-16	3.224509E-17
3.010000E+03	2.125465E-16	3.170438E-17
3.020000E+03	2.131369E-16	3.116255E-17
3.030000E+03	2.137184E-16	3.061992E-17
3.040000E+03	2.142904E-16	3.007679E-17
3.050000E+03	2.148524E-16	2.953353E-17
3.060000E+03	2.154038E-16	2.899050E-17
3.070000E+03	2.159442E-16	2.844810E-17
3.080000E+03	2.164730E-16	2.790673E-17
3.090000E+03	2.169897E-16	2.736683E-17
3.100000E+03	2.174939E-16	2.682887E-17
3.110000E+03	2.179850E-16	2.629332E-17
3.120000E+03	2.184625E-16	2.576069E-17
3.130000E+03	2.189485E-16	2.523409E-17
3.140000E+03	2.193975E-16	2.470883E-17
3.150000E+03	2.198539E-16	2.419057E-17
3.160000E+03	2.202950E-16	2.367732E-17
3.170000E+03	2.207202E-16	2.316968E-17
3.180000E+03	2.211294E-16	2.266827E-17
3.190000E+03	2.215440E-16	2.217588E-17
3.200000E+03	2.219418E-16	2.169084E-17
3.210000E+03	2.223228E-16	2.121380E-17
3.220000E+03	2.226868E-16	2.074538E-17
3.230000E+03	2.230549E-16	2.028813E-17
3.240000E+03	2.234060E-16	1.984060E-17
3.250000E+03	2.237401E-16	1.940340E-17
3.260000E+03	2.240783E-16	1.897883E-17
3.270000E+03	2.244000E-16	1.856555E-17
3.280000E+03	2.247057E-16	1.816406E-17
3.290000E+03	2.250164E-16	1.777639E-17
3.300000E+03	2.253121E-16	1.740125E-17
3.310000E+03	2.256138E-16	1.704049E-17
3.320000E+03	2.259020E-16	1.669281E-17
3.330000E+03	2.261976E-16	1.635987E-17
3.340000E+03	2.264817E-16	1.604035E-17
3.350000E+03	2.267749E-16	1.573573E-17
3.360000E+03	2.270589E-16	1.544465E-17
3.370000E+03	2.273541E-16	1.516842E-17
3.380000E+03	2.276617E-16	1.490687E-17
3.390000E+03	2.279639E-16	1.465863E-17
3.400000E+03	2.282810E-16	1.442472E-17
3.410000E+03	2.285956E-16	1.420371E-17
3.420000E+03	2.289279E-16	1.399650E-17
3.430000E+03	2.292792E-16	1.380273E-17
3.440000E+03	2.296508E-16	1.362202E-17
3.450000E+03	2.300262E-16	1.345290E-17
3.460000E+03	2.304251E-16	1.329604E-17
3.470000E+03	2.308490E-16	1.315099E-17
3.480000E+03	2.312994E-16	1.301729E-17
3.490000E+03	2.317605E-16	1.289352E-17
3.500000E+03	2.322516E-16	1.278021E-17
3.510000E+03	2.327917E-16	1.267784E-17
3.520000E+03	2.333480E-16	1.258407E-17
3.530000E+03	2.339396E-16	1.249940E-17
3.540000E+03	2.345683E-16	1.242341E-17
3.550000E+03	2.352194E-16	1.235479E-17
3.560000E+03	2.359284E-16	1.229493E-17
3.570000E+03	2.366803E-16	1.224253E-17
3.580000E+03	2.374771E-16	1.219723E-17
3.590000E+03	2.383208E-16	1.215867E-17
3.600000E+03	2.392134E-16	1.212654E-17
3.610000E+03	2.401567E-16	1.210050E-17
3.620000E+03	2.411527E-16	1.208026E-17
3.630000E+03	2.422033E-16	1.206554E-17
3.640000E+03	2.433104E-16	1.205608E-17
3.650000E+03	2.444756E-16	1.205163E-17
3.660000E+03	2.457164E-16	1.205276E-17
3.670000E+03	2.470031E-16	1.205769E-17
3.680000E+03	2.483686E-16	1.206780E-17
3.690000E+03	2.497986E-16	1.208213E-17
3.700000E+03	2.512946E-16	1.210054E-17
3.710000E+03	2.528733E-16	1.212362E-17
3.720000E+03	2.545051E-16	1.214978E-17
3.730000E+03	2.562217E-16	1.218035E-17
3.740000E+03	2.580085E-16	1.221450E-17
3.750000E+03	2.598663E-16	1.225209E-17
3.760000E+03	2.617954E-16	1.229301E-17
3.770000E+03	2.638111E-16	1.233782E-17
3.780000E+03	2.658981E-16	1.238567E-17
3.790000E+03	2.680560E-16	1.243638E-17
3.800000E+03	2.702989E-16	1.249046E-17
3.810000E+03	2.725959E-16	1.254629E-17
3.820000E+03	2.749753E-16	1.260502E-17
3.830000E+03	2.774352E-16	1.266634E-17
3.840000E+03	2.799439E-16	1.272859E-17
3.850000E+03	2.825284E-16	1.279278E-17
3.860000E+03	2.851711E-16	1.285788E-17
3.870000E+03	2.878689E-16	1.292347E-17
3.880000E+03	2.906184E-16	1.298915E-17
3.890000E+03	2.934306E-16	1.305511E-17
3.900000E+03	2.962721E-16	1.311960E-17
3.910000E+03	2.991681E-16	1.318342E-17
3.920000E+03	3.020995E-16	1.324544E-17
3.930000E+03	3.050762E-16	1.330579E-17
3.940000E+03	3.080640E-16	1.336268E-17
3.950000E+03	3.110724E-16	1.341625E-17
3.960000E+03	3.141109E-16	1.346660E-17
3.970000E+03	3.171592E-16	1.351260E-17
3.980000E+03	3.201971E-16	1.355314E-17
3.990000E+03	3.232479E-16	1.358897E-17
4.000000E+03	3.262766E-16	1.361840E-17
4.010000E+03	3.293061E-16	1.364221E-17
4.020000E+03	3.323013E-16	1.365877E-17
4.030000E+03	3.352704E-16	1.366831E-17
4.040000E+03	3.382073E-16	1.367045E-17
4.050000E+03	3.411058E-16	1.366490E-17
4.060000E+03	3.439599E-16	1.365137E-17
4.070000E+03	3.467492E-16	1.362905E-17
4.080000E+03	3.494681E-16	1.359777E-17
4.090000E+03	3.521398E-16	1.355851E-17
4.100000E+03	3.547306E-16	1.351004E-17
4.110000E+03	3.572356E-16	1.345234E-17
4.120000E+03	3.596648E-16	1.338593E-17
4.130000E+03	3.620000E-16	1.331035E-17
4.140000E+03	3.642377E-16	1.322569E-17
4.150000E+03	3.663890E-16	1.313263E-17
4.160000E+03	3.684233E-16	1.303038E-17
4.170000E+03	3.703666E-16	1.292023E-17
4.180000E+03	3.722036E-16	1.280205E-17
4.190000E+03	3.739195E-16	1.267582E-17
4.200000E+03	3.755418E-16	1.254303E-17
4.210000E+03	3.770433E-16	1.240342E-17
4.220000E+03	3.784388E-16	1.225822E-17
4.230000E+03	3.797297E-16	1.210832E-17
4.240000E+03	3.809050E-16	1.195433E-17
4.250000E+03	3.819809E-16	1.179787E-17
4.260000E+03	3.829477E-16	1.163984E-17
4.270000E+03	3.838097E-16	1.148172E-17
4.280000E+03	3.845715E-16	1.132515E-17
4.290000E+03	3.852517E-16	1.117225E-17
4.300000E+03	3.858427E-16	1.102450E-17
4.310000E+03	3.863379E-16	1.088353E-17
4.320000E+03	3.867695E-16	1.075211E-17
4.330000E+03	3.871188E-16	1.063158E-17
4.340000E+03	3.874054E-16	1.052438E-17
4.350000E+03	3.876241E-16	1.043214E-17
4.360000E+03	3.877946E-16	1.035701E-17
4.370000E+03	3.879244E-16	1.030058E-17
4.380000E+03	3.879968E-16	1.026346E-17
4.390000E+03	3.880442E-16	1.024715E-17
4.400000E+03	3.880638E-16	1.025141E-17
4.410000E+03	3.880665E-16	1.027563E-17
4.420000E+03	3.880629E-16	1.031877E-17
4.430000E+03	3.880640E-16	1.037954E-17
4.440000E+03	3.880805E-16	1.045641E-17
4.450000E+03	3.881229E-16	1.054779E-17
4.460000E+03	3.881900E-16	1.065171E-17
4.470000E+03	3.882920E-16	1.076658E-17
4.480000E+03	3.884496E-16	1.089117E-17
4.490000E+03	3.886719E-16	1.102404E-17
4.500000E+03	3.889561E-16	1.116360E-17
4.510000E+03	3.893105E-16	1.130869E-17
4.520000E+03	3.897423E-16	1.145829E-17
4.530000E+03	3.902582E-16	1.161153E-17
4.540000E+03	3.908748E-16	1.176798E-17
4.550000E+03	3.915755E-16	1.192638E-17
4.560000E+03	3.923752E-16	1.208652E-17
4.570000E+03	3.932769E-16	1.224798E-17
4.580000E+03	3.942824E-16	1.241042E-17
4.590000E+03	3.953926E-16	1.257352E-17
4.600000E+03	3.965965E-16	1.273671E-17
4.610000E+03	3.979029E-16	1.290010E-17
4.620000E+03	3.992986E-16	1.306314E-17
4.630000E+03	4.007899E-16	1.322597E-17
4.640000E+03	4.023714E-16	1.338841E-17
4.650000E+03	4.040263E-16	1.354988E-17
4.660000E+03	4.057471E-16	1.371018E-17
4.670000E+03	4.075360E-16	1.386940E-17
4.680000E+03	4.093734E-16	1.402695E-17
4.690000E+03	4.112497E-16	1.418256E-17
4.700000E+03	4.131652E-16	1.433630E-17
4.710000E+03	4.150991E-16	1.448754E-17
4.720000E+03	4.170408E-16	1.463598E-17
4.730000E+03	4.189799E-16	1.478132E-17
4.740000E+03	4.209164E-16	1.492365E-17
4.750000E+03	4.228297E-16	1.506232E-17
4.760000E+03	4.247097E-16	1.519702E-17
4.770000E+03	4.265468E-16	1.532747E-17
4.780000E+03	4.283419E-16	1.545376E-17
4.790000E+03	4.300649E-16	1.557484E-17
4.800000E+03	4.317275E-16	1.569115E-17
4.810000E+03	4.333103E-16	1.580199E-17
4.820000E+03	4.348043E-16	1.590703E-17
4.830000E+03	4.362108E-16	1.600625E-17
4.840000E+03	4.375000E-16	1.609851E-17
4.850000E+03	4.386833E-16	1.618413E-17
4.860000E+03	4.397410E-16	1.626226E-17
4.870000E+03	4.406638E-16	1.633239E-17
4.880000E+03	4.414527E-16	1.639437E-17
4.890000E+03	4.420781E-16	1.644689E-17
4.900000E+03	4.425519E-16	1.649015E-17
4.910000E+03	4.428664E-16	1.652358E-17
4.920000E+03	4.429941E-16	1.654589E-17
4.930000E+03	4.429501E-16	1.655731E-17
4.940000E+03	4.427199E-16	1.655700E-17
4.950000E+03	4.423116E-16	1.654492E-17
4.960000E+03	4.417147E-16	1.652037E-17
4.970000E+03	4.409309E-16	1.648311E-17
4.980000E+03	4.399744E-16	1.643336E-17
4.990000E+03	4.388510E-16	1.637107E-17
5.000000E+03	4.375490E-16	1.629554E-17
5.010000E+03	4.361080E-16	1.620803E-17
5.020000E+03	4.345101E-16	1.610769E-17
5.030000E+03	4.327977E-16	1.599595E-17
5.040000E+03	4.309560E-16	1.587216E-17
5.050000E+03	4.290291E-16	1.573786E-17
5.060000E+03	4.270134E-16	1.559290E-17
5.070000E+03	4.249349E-16	1.543825E-17
5.080000E+03	4.228003E-16	1.527421E-17
5.090000E+03	4.206354E-16	1.510179E-17
5.100000E+03	4.184473E-16	1.492136E-17
5.110000E+03	4.162700E-16	1.473428E-17
5.120000E+03	4.141008E-16	1.454059E-17
5.130000E+03	4.119637E-16	1.434130E-17
5.140000E+03	4.098642E-16	1.413676E-17
5.150000E+03	4.078250E-16	1.392790E-17
5.160000E+03	4.058678E-16	1.371559E-17
5.170000E+03	4.039783E-16	1.349946E-17
5.180000E+03	4.021938E-16	1.328084E-17
5.190000E+03	4.005155E-16	1.305979E-17
5.200000E+03	3.989429E-16	1.283628E-17
5.210000E+03	3.974916E-16	1.261076E-17
5.220000E+03	3.961663E-16	1.238326E-17
5.230000E+03	3.949700E-16	1.215371E-17
5.240000E+03	3.939035E-16	1.192189E-17
5.250000E+03	3.929652E-16	1.168751E-17
5.260000E+03	3.921433E-16	1.144989E-17
5.270000E+03	3.914486E-16	1.120905E-17
5.280000E+03	3.908652E-16	1.096418E-17
5.290000E+03	3.903751E-16	1.071448E-17
5.300000E+03	3.899758E-16	1.045960E-17
5.310000E+03	3.896632E-16	1.019923E-17
5.320000E+03	3.894078E-16	9.932493E-18
5.330000E+03	3.892042E-16	9.659279E-18
5.340000E+03	3.890386E-16	9.379458E-18
5.350000E+03	3.889054E-16	9.093332E-18
5.360000E+03	3.887751E-16	8.800931E-18
5.370000E+03	3.886432E-16	8.503264E-18
5.380000E+03	3.885063E-16	8.201801E-18
5.390000E+03	3.883377E-16	7.898071E-18
5.400000E+03	3.881364E-16	7.594851E-18
5.410000E+03	3.879032E-16	7.295729E-18
5.420000E+03	3.876156E-16	7.004803E-18
5.430000E+03	3.872856E-16	6.727871E-18
5.440000E+03	3.869024E-16	6.471415E-18
5.450000E+03	3.864567E-16	6.243006E-18
5.460000E+03	3.859650E-16	6.051398E-18
5.470000E+03	3.854204E-16	5.905145E-18
5.480000E+03	3.848327E-16	5.812321E-18
5.490000E+03	3.841871E-16	5.778703E-18
5.500000E+03	3.834984E-16	5.806536E-18
5.510000E+03	3.827509E-16	5.891438E-18
5.520000E+03	3.819355E-16	6.025923E-18
5.530000E+03	3.810427E-16	6.201001E-18
5.540000E+03	3.800717E-16	6.407474E-18
5.550000E+03	3.790069E-16	6.636386E-18
5.560000E+03	3.778420E-16	6.879886E-18
5.570000E+03	3.765801E-16	7.131447E-18
5.580000E+03	3.752102E-16	7.385444E-18
5.590000E+03	3.737309E-16	7.637486E-18
5.600000E+03	3.721502E-16	7.884316E-18
5.610000E+03	3.704620E-16	8.123175E-18
5.620000E+03	3.686777E-16	8.352325E-18
5.630000E+03	3.667945E-16	8.570253E-18
5.640000E+03	3.648265E-16	8.776259E-18
5.650000E+03	3.627815E-16	8.969851E-18
5.660000E+03	3.606609E-16	9.150649E-18
5.670000E+03	3.584749E-16	9.318695E-18
5.680000E+03	3.562420E-16	9.474426E-18
5.690000E+03	3.539736E-16	9.618235E-18
5.700000E+03	3.516815E-16	9.750625E-18
5.710000E+03	3.493701E-16	9.871971E-18
5.720000E+03	3.470586E-16	9.983107E-18
5.730000E+03	3.447581E-16	1.008469E-17
5.740000E+03	3.424793E-16	1.017739E-17
5.750000E+03	3.402248E-16	1.026164E-17
5.760000E+03	3.380110E-16	1.033830E-17
5.770000E+03	3.358531E-16	1.040820E-17
5.780000E+03	3.337442E-16	1.047148E-17
5.790000E+03	3.316981E-16	1.052890E-17
5.800000E+03	3.297207E-16	1.058097E-17
5.810000E+03	3.278173E-16	1.062817E-17
5.820000E+03	3.259925E-16	1.067094E-17
5.830000E+03	3.242508E-16	1.070970E-17
5.840000E+03	3.225962E-16	1.074482E-17
5.850000E+03	3.210322E-16	1.077665E-17
5.860000E+03	3.195622E-16	1.080552E-17
5.870000E+03	3.181890E-16	1.083171E-17
5.880000E+03	3.169151E-16	1.085548E-17
5.890000E+03	3.157491E-16	1.087726E-17
5.900000E+03	3.146854E-16	1.089700E-17
5.910000E+03	3.137179E-16	1.091459E-17
5.920000E+03	3.128596E-16	1.093056E-17
5.930000E+03	3.121090E-16	1.094492E-17
5.940000E+03	3.114501E-16	1.095715E-17
5.950000E+03	3.108927E-16	1.096759E-17
5.960000E+03	3.104183E-16	1.097561E-17
5.970000E+03	3.100408E-16	1.098167E-17
5.980000E+03	3.097328E-16	1.098475E-17
5.990000E+03	3.094928E-16	1.098475E-17
6.000000E+03	3.093180E-16	1.098152E-17
6.010000E+03	3.091987E-16	1.097466E-17
6.020000E+03	3.091113E-16	1.096327E-17
6.030000E+03	3.090588E-16	1.094741E-17
6.040000E+03	3.090243E-16	1.092645E-17
6.050000E+03	3.089979E-16	1.090003E-17
6.060000E+03	3.089772E-16	1.086804E-17
6.070000E+03	3.089471E-16	1.082999E-17
6.080000E+03	3.089001E-16	1.078564E-17
6.090000E+03	3.088368E-16	1.073507E-17
6.100000E+03	3.087453E-16	1.067791E-17
6.110000E+03	3.086285E-16	1.061434E-17
6.120000E+03	3.084704E-16	1.054387E-17
6.130000E+03	3.082895E-16	1.046722E-17
6.140000E+03	3.080653E-16	1.038375E-17
6.150000E+03	3.078119E-16	1.029400E-17
6.160000E+03	3.075310E-16	1.019808E-17
6.170000E+03	3.072117E-16	1.009566E-17
6.180000E+03	3.068706E-16	9.987307E-18
6.190000E+03	3.065119E-16	9.873152E-18
6.200000E+03	3.061334E-16	9.753103E-18
6.210000E+03	3.057472E-16	9.627495E-18
6.220000E+03	3.053456E-16	9.496017E-18
6.230000E+03	3.049554E-16	9.359395E-18
6.240000E+03	3.045698E-16	9.217291E-18
6.250000E+03	3.041963E-16	9.069771E-18
6.260000E+03	3.038495E-16	8.917080E-18
6.270000E+03	3.035311E-16	8.759040E-18
6.280000E+03	3.032568E-16	8.595851E-18
6.290000E+03	3.030291E-16	8.427297E-18
6.300000E+03	3.028650E-16	8.253527E-18
6.310000E+03	3.027747E-16	8.074474E-18
6.320000E+03	3.027627E-16	7.889873E-18
6.330000E+03	3.028473E-16	7.699804E-18
6.340000E+03	3.030339E-16	7.503982E-18
6.350000E+03	3.033420E-16	7.302463E-18
6.360000E+03	3.037780E-16	7.094972E-18
6.370000E+03	3.043627E-16	6.881586E-18
6.380000E+03	3.051103E-16	6.662260E-18
6.390000E+03	3.060358E-16	6.437033E-18
6.400000E+03	3.071475E-16	6.205939E-18
6.410000E+03	3.084679E-16	5.969504E-18
6.420000E+03	3.100127E-16	5.728412E-18
6.430000E+03	3.117976E-16	5.483790E-18
6.440000E+03	3.138309E-16	5.237277E-18
6.450000E+03	3.161417E-16	4.991772E-18
6.460000E+03	3.187295E-16	4.750920E-18
6.470000E+03	3.216140E-16	4.520355E-18
6.480000E+03	3.248061E-16	4.307684E-18
6.490000E+03	3.283143E-16	4.122976E-18
6.500000E+03	3.321364E-16	3.978736E-18
6.510000E+03	3.362897E-16	3.889618E-18
6.520000E+03	3.407640E-16	3.870152E-18
6.530000E+03	3.455512E-16	3.932347E-18
6.540000E+03	3.506334E-16	4.080641E-18
6.550000E+03	3.559798E-16	4.309982E-18
6.560000E+03	3.615520E-16	4.610462E-18
6.570000E+03	3.673041E-16	4.970090E-18
6.580000E+03	3.731835E-16	5.376781E-18
6.590000E+03	3.791396E-16	5.819566E-18
6.600000E+03	3.850993E-16	6.288561E-18
6.610000E+03	3.909929E-16	6.775287E-18
6.620000E+03	3.967472E-16	7.272346E-18
6.630000E+03	4.022963E-16	7.773388E-18
6.640000E+03	4.075552E-16	8.272406E-18
6.650000E+03	4.124496E-16	8.764107E-18
6.660000E+03	4.169180E-16	9.243902E-18
6.670000E+03	4.208847E-16	9.707243E-18
6.680000E+03	4.243008E-16	1.015047E-17
6.690000E+03	4.270959E-16	1.056969E-17
6.700000E+03	4.292599E-16	1.096273E-17
6.710000E+03	4.307434E-16	1.132672E-17
6.720000E+03	4.315289E-16	1.165982E-17
6.730000E+03	4.316213E-16	1.196106E-17
6.740000E+03	4.310166E-16	1.222944E-17
6.750000E+03	4.297429E-16	1.246512E-17
6.760000E+03	4.278282E-16	1.266845E-17
6.770000E+03	4.252995E-16	1.283995E-17
6.780000E+03	4.222120E-16	1.298114E-17
6.790000E+03	4.186064E-16	1.309327E-17
6.800000E+03	4.145584E-16	1.317881E-17
6.810000E+03	4.100959E-16	1.323884E-17
6.820000E+03	4.053082E-16	1.327646E-17
6.830000E+03	4.002347E-16	1.329329E-17
6.840000E+03	3.949333E-16	1.329158E-17
6.850000E+03	3.894787E-16	1.327420E-17
6.860000E+03	3.839040E-16	1.324267E-17
6.870000E+03	3.782672E-16	1.319938E-17
6.880000E+03	3.726036E-16	1.314596E-17
6.890000E+03	3.669624E-16	1.308456E-17
6.900000E+03	3.613794E-16	1.301683E-17
6.910000E+03	3.558857E-16	1.294433E-17
6.920000E+03	3.504996E-16	1.286809E-17
6.930000E+03	3.452529E-16	1.278968E-17
6.940000E+03	3.401647E-16	1.271017E-17
6.950000E+03	3.352504E-16	1.263053E-17
6.960000E+03	3.305142E-16	1.255126E-17
6.970000E+03	3.259737E-16	1.247339E-17
6.980000E+03	3.216277E-16	1.239719E-17
6.990000E+03	3.174886E-16	1.232347E-17
7.000000E+03	3.135587E-16	1.225263E-17
7.010000E+03	3.098384E-16	1.218499E-17
7.020000E+03	3.063190E-16	1.212047E-17
7.030000E+03	3.030057E-16	1.205956E-17
7.040000E+03	2.998874E-16	1.200205E-17
7.050000E+03	2.969669E-16	1.194832E-17
7.060000E+03	2.942388E-16	1.189834E-17
7.070000E+03	2.916895E-16	1.185180E-17
7.080000E+03	2.893123E-16	1.180861E-17
7.090000E+03	2.871073E-16	1.176895E-17
7.100000E+03	2.850668E-16	1.173268E-17
7.110000E+03	2.831756E-16	1.169933E-17
7.120000E+03	2.814330E-16	1.166901E-17
7.130000E+03	2.798235E-16	1.164122E-17
7.140000E+03	2.783391E-16	1.161574E-17
7.150000E+03	2.769786E-16	1.159263E-17
7.160000E+03	2.757270E-16	1.157137E-17
7.170000E+03	2.745764E-16	1.155171E-17
7.180000E+03	2.735262E-16	1.153373E-17
7.190000E+03	2.725620E-16	1.151688E-17
7.200000E+03	2.716768E-16	1.150095E-17
7.210000E+03	2.708640E-16	1.148571E-17
7.220000E+03	2.701239E-16	1.147124E-17
7.230000E+03	2.694436E-16	1.145705E-17
7.240000E+03	2.688174E-16	1.144293E-17
7.250000E+03	2.682332E-16	1.142842E-17
7.260000E+03	2.676993E-16	1.141391E-17
7.270000E+03	2.672040E-16	1.139894E-17
7.280000E+03	2.667495E-16	1.138362E-17
7.290000E+03	2.663177E-16	1.136723E-17
7.300000E+03	2.659043E-16	1.134958E-17
7.310000E+03	2.655187E-16	1.133111E-17
7.320000E+03	2.651498E-16	1.131137E-17
7.330000E+03	2.647937E-16	1.129019E-17
7.340000E+03	2.644398E-16	1.126713E-17
7.350000E+03	2.640908E-16	1.124232E-17
7.360000E+03	2.637429E-16	1.121561E-17
7.370000E+03	2.633926E-16	1.118685E-17
7.380000E+03	2.630362E-16	1.115587E-17
7.390000E+03	2.626636E-16	1.112225E-17
7.400000E+03	2.622782E-16	1.108612E-17
7.410000E+03	2.618704E-16	1.104708E-17
7.420000E+03	2.614439E-16	1.100527E-17
7.430000E+03	2.609963E-16	1.096057E-17
7.440000E+03	2.605184E-16	1.091258E-17
7.450000E+03	2.600151E-16	1.086149E-17
7.460000E+03	2.594778E-16	1.080691E-17
7.470000E+03	2.589119E-16	1.074904E-17
7.480000E+03	2.583164E-16	1.068781E-17
7.490000E+03	2.576772E-16	1.062262E-17
7.500000E+03	2.570074E-16	1.055396E-17
7.510000E+03	2.563069E-16	1.048180E-17
7.520000E+03	2.555695E-16	1.040585E-17
7.530000E+03	2.548023E-16	1.032637E-17
7.540000E+03	2.539933E-16	1.024284E-17
7.550000E+03	2.531568E-16	1.015581E-17
7.560000E+03	2.522945E-16	1.006530E-17
7.570000E+03	2.514016E-16	9.971118E-18
7.580000E+03	2.504802E-16	9.873312E-18
7.590000E+03	2.495325E-16	9.771968E-18
7.600000E+03	2.485676E-16	9.667432E-18
7.610000E+03	2.475750E-16	9.559302E-18
7.620000E+03	2.465771E-16	9.448450E-18
7.630000E+03	2.455574E-16	9.334255E-18
7.640000E+03	2.445255E-16	9.217108E-18
7.650000E+03	2.434911E-16	9.097396E-18
7.660000E+03	2.424510E-16	8.975025E-18
7.670000E+03	2.414087E-16	8.850148E-18
7.680000E+03	2.403741E-16	8.723150E-18
7.690000E+03	2.393382E-16	8.593714E-18
7.700000E+03	2.383172E-16	8.462441E-18
7.710000E+03	2.373024E-16	8.329011E-18
7.720000E+03	2.363099E-16	8.193992E-18
7.730000E+03	2.353371E-16	8.057268E-18
7.740000E+03	2.343876E-16	7.918932E-18
7.750000E+03	2.334649E-16	7.779061E-18
7.760000E+03	2.325724E-16	7.637716E-18
