#wls	flux	fluxerr
1.600000E+03	7.620143E-17	4.084013E-17
1.640000E+03	7.761590E-17	4.104175E-17
1.680000E+03	7.905083E-17	4.121957E-17
1.720000E+03	8.050464E-17	4.137143E-17
1.760000E+03	8.196157E-17	4.148802E-17
1.800000E+03	8.344756E-17	4.158132E-17
1.840000E+03	8.494669E-17	4.164196E-17
1.880000E+03	8.645668E-17	4.166766E-17
1.920000E+03	8.798992E-17	4.166319E-17
1.960000E+03	8.952931E-17	4.161919E-17
2.000000E+03	9.107203E-17	4.153346E-17
2.040000E+03	9.261505E-17	4.140385E-17
2.080000E+03	9.417078E-17	4.123512E-17
2.120000E+03	9.573641E-17	4.102515E-17
2.160000E+03	9.729298E-17	4.076521E-17
2.200000E+03	9.883682E-17	4.045366E-17
2.240000E+03	1.003966E-16	4.010208E-17
2.280000E+03	1.019366E-16	3.969591E-17
2.320000E+03	1.034692E-16	3.924050E-17
2.360000E+03	1.049908E-16	3.873491E-17
2.400000E+03	1.064975E-16	3.817855E-17
2.440000E+03	1.079855E-16	3.757120E-17
2.480000E+03	1.094510E-16	3.691306E-17
2.520000E+03	1.108902E-16	3.620483E-17
2.560000E+03	1.123166E-16	3.545314E-17
2.600000E+03	1.137094E-16	3.465407E-17
2.640000E+03	1.150652E-16	3.381002E-17
2.680000E+03	1.163983E-16	3.292905E-17
2.720000E+03	1.176885E-16	3.200974E-17
2.760000E+03	1.189508E-16	3.106126E-17
2.800000E+03	1.201833E-16	3.008852E-17
2.840000E+03	1.213850E-16	2.909725E-17
2.880000E+03	1.225379E-16	2.809004E-17
2.920000E+03	1.236774E-16	2.708247E-17
2.960000E+03	1.247705E-16	2.607495E-17
3.000000E+03	1.258378E-16	2.508037E-17
3.010000E+03	1.261016E-16	2.483495E-17
3.020000E+03	1.263783E-16	2.459380E-17
3.030000E+03	1.266334E-16	2.435034E-17
3.040000E+03	1.269015E-16	2.411143E-17
3.050000E+03	1.271654E-16	2.387387E-17
3.060000E+03	1.274254E-16	2.363786E-17
3.070000E+03	1.276817E-16	2.340356E-17
3.080000E+03	1.279342E-16	2.317116E-17
3.090000E+03	1.282004E-16	2.294388E-17
3.100000E+03	1.284634E-16	2.271877E-17
3.110000E+03	1.287232E-16	2.249600E-17
3.120000E+03	1.289801E-16	2.227572E-17
3.130000E+03	1.292514E-16	2.206103E-17
3.140000E+03	1.295032E-16	2.184622E-17
3.150000E+03	1.297698E-16	2.163723E-17
3.160000E+03	1.300345E-16	2.143132E-17
3.170000E+03	1.302976E-16	2.122863E-17
3.180000E+03	1.305762E-16	2.103204E-17
3.190000E+03	1.308538E-16	2.083889E-17
3.200000E+03	1.311137E-16	2.064666E-17
3.210000E+03	1.313901E-16	2.046082E-17
3.220000E+03	1.316833E-16	2.028142E-17
3.230000E+03	1.319600E-16	2.010332E-17
3.240000E+03	1.322542E-16	1.993182E-17
3.250000E+03	1.325495E-16	1.976440E-17
3.260000E+03	1.328463E-16	1.960117E-17
3.270000E+03	1.331451E-16	1.944221E-17
3.280000E+03	1.334631E-16	1.929001E-17
3.290000E+03	1.337671E-16	1.913978E-17
3.300000E+03	1.340913E-16	1.899639E-17
3.310000E+03	1.344361E-16	1.885982E-17
3.320000E+03	1.347684E-16	1.872540E-17
3.330000E+03	1.351057E-16	1.859552E-17
3.340000E+03	1.354650E-16	1.847250E-17
3.350000E+03	1.358304E-16	1.835402E-17
3.360000E+03	1.362023E-16	1.824011E-17
3.370000E+03	1.365980E-16	1.813296E-17
3.380000E+03	1.369848E-16	1.802813E-17
3.390000E+03	1.373965E-16	1.793002E-17
3.400000E+03	1.378172E-16	1.783638E-17
3.410000E+03	1.382475E-16	1.774719E-17
3.420000E+03	1.387046E-16	1.766454E-17
3.430000E+03	1.391559E-16	1.758412E-17
3.440000E+03	1.396354E-16	1.751012E-17
3.450000E+03	1.401270E-16	1.744035E-17
3.460000E+03	1.406314E-16	1.737476E-17
3.470000E+03	1.411659E-16	1.731533E-17
3.480000E+03	1.416980E-16	1.725788E-17
3.490000E+03	1.422614E-16	1.720642E-17
3.500000E+03	1.428404E-16	1.715881E-17
3.510000E+03	1.434354E-16	1.711498E-17
3.520000E+03	1.440472E-16	1.707484E-17
3.530000E+03	1.446931E-16	1.704025E-17
3.540000E+03	1.453571E-16	1.700913E-17
3.550000E+03	1.460397E-16	1.698138E-17
3.560000E+03	1.467417E-16	1.695690E-17
3.570000E+03	1.474636E-16	1.693557E-17
3.580000E+03	1.482228E-16	1.691919E-17
3.590000E+03	1.489862E-16	1.690381E-17
3.600000E+03	1.497881E-16	1.689312E-17
3.610000E+03	1.506121E-16	1.688508E-17
3.620000E+03	1.514588E-16	1.687956E-17
3.630000E+03	1.523456E-16	1.687830E-17
3.640000E+03	1.532390E-16	1.687739E-17
3.650000E+03	1.541734E-16	1.688043E-17
3.660000E+03	1.551322E-16	1.688540E-17
3.670000E+03	1.561157E-16	1.689212E-17
3.680000E+03	1.571243E-16	1.690044E-17
3.690000E+03	1.581753E-16	1.691202E-17
3.700000E+03	1.592347E-16	1.692300E-17
3.710000E+03	1.603370E-16	1.693687E-17
3.720000E+03	1.614652E-16	1.695158E-17
3.730000E+03	1.626193E-16	1.696695E-17
3.740000E+03	1.637994E-16	1.698275E-17
3.750000E+03	1.650053E-16	1.699877E-17
3.760000E+03	1.662545E-16	1.701659E-17
3.770000E+03	1.675118E-16	1.703235E-17
3.780000E+03	1.688121E-16	1.704942E-17
3.790000E+03	1.701376E-16	1.706574E-17
3.800000E+03	1.714880E-16	1.708105E-17
3.810000E+03	1.728627E-16	1.709507E-17
3.820000E+03	1.742794E-16	1.710929E-17
3.830000E+03	1.757014E-16	1.711988E-17
3.840000E+03	1.771643E-16	1.713009E-17
3.850000E+03	1.786311E-16	1.713607E-17
3.860000E+03	1.801374E-16	1.714103E-17
3.870000E+03	1.816643E-16	1.714290E-17
3.880000E+03	1.832108E-16	1.714133E-17
3.890000E+03	1.847760E-16	1.713601E-17
3.900000E+03	1.863589E-16	1.712660E-17
3.910000E+03	1.879582E-16	1.711276E-17
3.920000E+03	1.895919E-16	1.709584E-17
3.930000E+03	1.912209E-16	1.707210E-17
3.940000E+03	1.928819E-16	1.704459E-17
3.950000E+03	1.945356E-16	1.700957E-17
3.960000E+03	1.962187E-16	1.697009E-17
3.970000E+03	1.979109E-16	1.692412E-17
3.980000E+03	1.996106E-16	1.687133E-17
3.990000E+03	2.013165E-16	1.681140E-17
4.000000E+03	2.030075E-16	1.674243E-17
4.010000E+03	2.047408E-16	1.666896E-17
4.020000E+03	2.064561E-16	1.658589E-17
4.030000E+03	2.081716E-16	1.649456E-17
4.040000E+03	2.098856E-16	1.639475E-17
4.050000E+03	2.115967E-16	1.628627E-17
4.060000E+03	2.133034E-16	1.616894E-17
4.070000E+03	2.150042E-16	1.604262E-17
4.080000E+03	2.167181E-16	1.590872E-17
4.090000E+03	2.184029E-16	1.576417E-17
4.100000E+03	2.200777E-16	1.561048E-17
4.110000E+03	2.217617E-16	1.544914E-17
4.120000E+03	2.234126E-16	1.527736E-17
4.130000E+03	2.250497E-16	1.509678E-17
4.140000E+03	2.266927E-16	1.490901E-17
4.150000E+03	2.282991E-16	1.471162E-17
4.160000E+03	2.298886E-16	1.450643E-17
4.170000E+03	2.314605E-16	1.429395E-17
4.180000E+03	2.330352E-16	1.407609E-17
4.190000E+03	2.345698E-16	1.385101E-17
4.200000E+03	2.360848E-16	1.362088E-17
4.210000E+03	2.375799E-16	1.338673E-17
4.220000E+03	2.390548E-16	1.314972E-17
4.230000E+03	2.405093E-16	1.291118E-17
4.240000E+03	2.419434E-16	1.267262E-17
4.250000E+03	2.433570E-16	1.243575E-17
4.260000E+03	2.447505E-16	1.220246E-17
4.270000E+03	2.461240E-16	1.197483E-17
4.280000E+03	2.474780E-16	1.175517E-17
4.290000E+03	2.487914E-16	1.154495E-17
4.300000E+03	2.501081E-16	1.134888E-17
4.310000E+03	2.513855E-16	1.116776E-17
4.320000E+03	2.526678E-16	1.100645E-17
4.330000E+03	2.539125E-16	1.086598E-17
4.340000E+03	2.551422E-16	1.075022E-17
4.350000E+03	2.563581E-16	1.066193E-17
4.360000E+03	2.575614E-16	1.060364E-17
4.370000E+03	2.587531E-16	1.057753E-17
4.380000E+03	2.599125E-16	1.058438E-17
4.390000E+03	2.610849E-16	1.062714E-17
4.400000E+03	2.622276E-16	1.070437E-17
4.410000E+03	2.633860E-16	1.081743E-17
4.420000E+03	2.645172E-16	1.096351E-17
4.430000E+03	2.656448E-16	1.114198E-17
4.440000E+03	2.667701E-16	1.135092E-17
4.450000E+03	2.678720E-16	1.158716E-17
4.460000E+03	2.689965E-16	1.185018E-17
4.470000E+03	2.701001E-16	1.213553E-17
4.480000E+03	2.712063E-16	1.244165E-17
4.490000E+03	2.723162E-16	1.276603E-17
4.500000E+03	2.734308E-16	1.310628E-17
4.510000E+03	2.745512E-16	1.346011E-17
4.520000E+03	2.756557E-16	1.382426E-17
4.530000E+03	2.767676E-16	1.419780E-17
4.540000E+03	2.778874E-16	1.457889E-17
4.550000E+03	2.790159E-16	1.496585E-17
4.560000E+03	2.801534E-16	1.535714E-17
4.570000E+03	2.812777E-16	1.575009E-17
4.580000E+03	2.824343E-16	1.614591E-17
4.590000E+03	2.835779E-16	1.654088E-17
4.600000E+03	2.847084E-16	1.693386E-17
4.610000E+03	2.858712E-16	1.732656E-17
4.620000E+03	2.870204E-16	1.771537E-17
4.630000E+03	2.881783E-16	1.810082E-17
4.640000E+03	2.893444E-16	1.848217E-17
4.650000E+03	2.905180E-16	1.885874E-17
4.660000E+03	2.916754E-16	1.922838E-17
4.670000E+03	2.928386E-16	1.959195E-17
4.680000E+03	2.940064E-16	1.994890E-17
4.690000E+03	2.951778E-16	2.029869E-17
4.700000E+03	2.963285E-16	2.063924E-17
4.710000E+03	2.974801E-16	2.097163E-17
4.720000E+03	2.986312E-16	2.129540E-17
4.730000E+03	2.997803E-16	2.161013E-17
4.740000E+03	3.009027E-16	2.191370E-17
4.750000E+03	3.020200E-16	2.220737E-17
4.760000E+03	3.031304E-16	2.249074E-17
4.770000E+03	3.042323E-16	2.276343E-17
4.780000E+03	3.053007E-16	2.302333E-17
4.790000E+03	3.063572E-16	2.327180E-17
4.800000E+03	3.073767E-16	2.350671E-17
4.810000E+03	3.084044E-16	2.373130E-17
4.820000E+03	3.093917E-16	2.394164E-17
4.830000E+03	3.103606E-16	2.413922E-17
4.840000E+03	3.112861E-16	2.432192E-17
4.850000E+03	3.122136E-16	2.449310E-17
4.860000E+03	3.130948E-16	2.464881E-17
4.870000E+03	3.139286E-16	2.478879E-17
4.880000E+03	3.147607E-16	2.491650E-17
4.890000E+03	3.155431E-16	2.502799E-17
4.900000E+03	3.162985E-16	2.512493E-17
4.910000E+03	3.170024E-16	2.520524E-17
4.920000E+03	3.176779E-16	2.527064E-17
4.930000E+03	3.183245E-16	2.532096E-17
4.940000E+03	3.189419E-16	2.535608E-17
4.950000E+03	3.195063E-16	2.537402E-17
4.960000E+03	3.200412E-16	2.537655E-17
4.970000E+03	3.205469E-16	2.536361E-17
4.980000E+03	3.209999E-16	2.533328E-17
4.990000E+03	3.214244E-16	2.528740E-17
5.000000E+03	3.218208E-16	2.522595E-17
5.010000E+03	3.221898E-16	2.514894E-17
5.020000E+03	3.225087E-16	2.505454E-17
5.030000E+03	3.228020E-16	2.494465E-17
5.040000E+03	3.230470E-16	2.481750E-17
5.050000E+03	3.232920E-16	2.467678E-17
5.060000E+03	3.234910E-16	2.451898E-17
5.070000E+03	3.236453E-16	2.434422E-17
5.080000E+03	3.237797E-16	2.415439E-17
5.090000E+03	3.239188E-16	2.395135E-17
5.100000E+03	3.239935E-16	2.373003E-17
5.110000E+03	3.240755E-16	2.349573E-17
5.120000E+03	3.241190E-16	2.324521E-17
5.130000E+03	3.241487E-16	2.298033E-17
5.140000E+03	3.241425E-16	2.269962E-17
5.150000E+03	3.241246E-16	2.240493E-17
5.160000E+03	3.240959E-16	2.209644E-17
5.170000E+03	3.240574E-16	2.177437E-17
5.180000E+03	3.239867E-16	2.143739E-17
5.190000E+03	3.239074E-16	2.108734E-17
5.200000E+03	3.238201E-16	2.072448E-17
5.210000E+03	3.237021E-16	2.034767E-17
5.220000E+03	3.235766E-16	1.995874E-17
5.230000E+03	3.234439E-16	1.955808E-17
5.240000E+03	3.232807E-16	1.914475E-17
5.250000E+03	3.231328E-16	1.872201E-17
5.260000E+03	3.229541E-16	1.828773E-17
5.270000E+03	3.227439E-16	1.784266E-17
5.280000E+03	3.225248E-16	1.738889E-17
5.290000E+03	3.222958E-16	1.692729E-17
5.300000E+03	3.220562E-16	1.645888E-17
5.310000E+03	3.218050E-16	1.598482E-17
5.320000E+03	3.215184E-16	1.550538E-17
5.330000E+03	3.212181E-16	1.502331E-17
5.340000E+03	3.208803E-16	1.453940E-17
5.350000E+03	3.205264E-16	1.405685E-17
5.360000E+03	3.201551E-16	1.357810E-17
5.370000E+03	3.197651E-16	1.310594E-17
5.380000E+03	3.193552E-16	1.264357E-17
5.390000E+03	3.189015E-16	1.219378E-17
5.400000E+03	3.184254E-16	1.176159E-17
5.410000E+03	3.179033E-16	1.135077E-17
5.420000E+03	3.173786E-16	1.096796E-17
5.430000E+03	3.168056E-16	1.061696E-17
5.440000E+03	3.162055E-16	1.030420E-17
5.450000E+03	3.155553E-16	1.003461E-17
5.460000E+03	3.148763E-16	9.814277E-18
5.470000E+03	3.141677E-16	9.647926E-18
5.480000E+03	3.134288E-16	9.539232E-18
5.490000E+03	3.126590E-16	9.490465E-18
5.500000E+03	3.118364E-16	9.501345E-18
5.510000E+03	3.109822E-16	9.570563E-18
5.520000E+03	3.100964E-16	9.694467E-18
5.530000E+03	3.091573E-16	9.867489E-18
5.540000E+03	3.081868E-16	1.008458E-17
5.550000E+03	3.071850E-16	1.033962E-17
5.560000E+03	3.061523E-16	1.062643E-17
5.570000E+03	3.050682E-16	1.093825E-17
5.580000E+03	3.039759E-16	1.127099E-17
5.590000E+03	3.028339E-16	1.161799E-17
5.600000E+03	3.016435E-16	1.197461E-17
5.610000E+03	3.004479E-16	1.233844E-17
5.620000E+03	2.992065E-16	1.270428E-17
5.630000E+03	2.979418E-16	1.306993E-17
5.640000E+03	2.966553E-16	1.343277E-17
5.650000E+03	2.953486E-16	1.379060E-17
5.660000E+03	2.940033E-16	1.414057E-17
5.670000E+03	2.926416E-16	1.448204E-17
5.680000E+03	2.912656E-16	1.481372E-17
5.690000E+03	2.898772E-16	1.513454E-17
5.700000E+03	2.884785E-16	1.544362E-17
5.710000E+03	2.870516E-16	1.573919E-17
5.720000E+03	2.856188E-16	1.602175E-17
5.730000E+03	2.841821E-16	1.629090E-17
5.740000E+03	2.827436E-16	1.654632E-17
5.750000E+03	2.812858E-16	1.678666E-17
5.760000E+03	2.798306E-16	1.701293E-17
5.770000E+03	2.783990E-16	1.722626E-17
5.780000E+03	2.769352E-16	1.742310E-17
5.790000E+03	2.754988E-16	1.760708E-17
5.800000E+03	2.740723E-16	1.777710E-17
5.810000E+03	2.726384E-16	1.793208E-17
5.820000E+03	2.712179E-16	1.807338E-17
5.830000E+03	2.698120E-16	1.820119E-17
5.840000E+03	2.684222E-16	1.831571E-17
5.850000E+03	2.670312E-16	1.841588E-17
5.860000E+03	2.656771E-16	1.850447E-17
5.870000E+03	2.643240E-16	1.857913E-17
5.880000E+03	2.629914E-16	1.864137E-17
5.890000E+03	2.616799E-16	1.869140E-17
5.900000E+03	2.603901E-16	1.872946E-17
5.910000E+03	2.591048E-16	1.875445E-17
5.920000E+03	2.578602E-16	1.876916E-17
5.930000E+03	2.566209E-16	1.877121E-17
5.940000E+03	2.554050E-16	1.876207E-17
5.950000E+03	2.542128E-16	1.874192E-17
5.960000E+03	2.530442E-16	1.871093E-17
5.970000E+03	2.518818E-16	1.866798E-17
5.980000E+03	2.507606E-16	1.861578E-17
5.990000E+03	2.496457E-16	1.855191E-17
6.000000E+03	2.485542E-16	1.847778E-17
6.010000E+03	2.474862E-16	1.839351E-17
6.020000E+03	2.464413E-16	1.829923E-17
6.030000E+03	2.454194E-16	1.819503E-17
6.040000E+03	2.444204E-16	1.808102E-17
6.050000E+03	2.434271E-16	1.795605E-17
6.060000E+03	2.424564E-16	1.782146E-17
6.070000E+03	2.415251E-16	1.767858E-17
6.080000E+03	2.405994E-16	1.752502E-17
6.090000E+03	2.396962E-16	1.736210E-17
6.100000E+03	2.388155E-16	1.718990E-17
6.110000E+03	2.379408E-16	1.700731E-17
6.120000E+03	2.371055E-16	1.681679E-17
6.130000E+03	2.362768E-16	1.661606E-17
6.140000E+03	2.354880E-16	1.640752E-17
6.150000E+03	2.347065E-16	1.618896E-17
6.160000E+03	2.339494E-16	1.596160E-17
6.170000E+03	2.332171E-16	1.572553E-17
6.180000E+03	2.325104E-16	1.548082E-17
6.190000E+03	2.318298E-16	1.522755E-17
6.200000E+03	2.311763E-16	1.496580E-17
6.210000E+03	2.305505E-16	1.469565E-17
6.220000E+03	2.299374E-16	1.441619E-17
6.230000E+03	2.293699E-16	1.412954E-17
6.240000E+03	2.288172E-16	1.383378E-17
6.250000E+03	2.282962E-16	1.353003E-17
6.260000E+03	2.278079E-16	1.321839E-17
6.270000E+03	2.273534E-16	1.289897E-17
6.280000E+03	2.269339E-16	1.257190E-17
6.290000E+03	2.265502E-16	1.223733E-17
6.300000E+03	2.262036E-16	1.189541E-17
6.310000E+03	2.258949E-16	1.154634E-17
6.320000E+03	2.256094E-16	1.118957E-17
6.330000E+03	2.253796E-16	1.082695E-17
6.340000E+03	2.251905E-16	1.045802E-17
6.350000E+03	2.250270E-16	1.008248E-17
6.360000E+03	2.249057E-16	9.701594E-18
6.370000E+03	2.248428E-16	9.316660E-18
6.380000E+03	2.248071E-16	8.927137E-18
6.390000E+03	2.248148E-16	8.534709E-18
6.400000E+03	2.248660E-16	8.140638E-18
6.410000E+03	2.249606E-16	7.746525E-18
6.420000E+03	2.250984E-16	7.354398E-18
6.430000E+03	2.252791E-16	6.966828E-18
6.440000E+03	2.255020E-16	6.587078E-18
6.450000E+03	2.257664E-16	6.219273E-18
6.460000E+03	2.260553E-16	5.868175E-18
6.470000E+03	2.263992E-16	5.541048E-18
6.480000E+03	2.267807E-16	5.245228E-18
6.490000E+03	2.271820E-16	4.989449E-18
6.500000E+03	2.276330E-16	4.784469E-18
6.510000E+03	2.280992E-16	4.639757E-18
6.520000E+03	2.285938E-16	4.564616E-18
6.530000E+03	2.291300E-16	4.565518E-18
6.540000E+03	2.296714E-16	4.643294E-18
6.550000E+03	2.302289E-16	4.794510E-18
6.560000E+03	2.307972E-16	5.011884E-18
6.570000E+03	2.313870E-16	5.286531E-18
6.580000E+03	2.319594E-16	5.607916E-18
6.590000E+03	2.325249E-16	5.967056E-18
6.600000E+03	2.330773E-16	6.355620E-18
6.610000E+03	2.336105E-16	6.766461E-18
6.620000E+03	2.341187E-16	7.193573E-18
6.630000E+03	2.345958E-16	7.631962E-18
6.640000E+03	2.350362E-16	8.077472E-18
6.650000E+03	2.354177E-16	8.526032E-18
6.660000E+03	2.357687E-16	8.975913E-18
6.670000E+03	2.360678E-16	9.424074E-18
6.680000E+03	2.363106E-16	9.868412E-18
6.690000E+03	2.364762E-16	1.030638E-17
6.700000E+03	2.365951E-16	1.073785E-17
6.710000E+03	2.366475E-16	1.116076E-17
6.720000E+03	2.366139E-16	1.157311E-17
6.730000E+03	2.365265E-16	1.197549E-17
6.740000E+03	2.363501E-16	1.236533E-17
6.750000E+03	2.361179E-16	1.274363E-17
6.760000E+03	2.357958E-16	1.310795E-17
6.770000E+03	2.354180E-16	1.345961E-17
6.780000E+03	2.349516E-16	1.379629E-17
6.790000E+03	2.344151E-16	1.411861E-17
6.800000E+03	2.338270E-16	1.442737E-17
6.810000E+03	2.331560E-16	1.472039E-17
6.820000E+03	2.324219E-16	1.499862E-17
6.830000E+03	2.316276E-16	1.526207E-17
6.840000E+03	2.307932E-16	1.551197E-17
6.850000E+03	2.298892E-16	1.574625E-17
6.860000E+03	2.289361E-16	1.596624E-17
6.870000E+03	2.279382E-16	1.617220E-17
6.880000E+03	2.268995E-16	1.636447E-17
6.890000E+03	2.258246E-16	1.654342E-17
6.900000E+03	2.247178E-16	1.670945E-17
6.910000E+03	2.235836E-16	1.686300E-17
6.920000E+03	2.224263E-16	1.700454E-17
6.930000E+03	2.212503E-16	1.713455E-17
6.940000E+03	2.200598E-16	1.725353E-17
6.950000E+03	2.188590E-16	1.736198E-17
6.960000E+03	2.176517E-16	1.746043E-17
6.970000E+03	2.164260E-16	1.754810E-17
6.980000E+03	2.152172E-16	1.762806E-17
6.990000E+03	2.140126E-16	1.769952E-17
7.000000E+03	2.128001E-16	1.776170E-17
7.010000E+03	2.116137E-16	1.781765E-17
7.020000E+03	2.104404E-16	1.786654E-17
7.030000E+03	2.092675E-16	1.790751E-17
7.040000E+03	2.081278E-16	1.794358E-17
7.050000E+03	2.069929E-16	1.797255E-17
7.060000E+03	2.058949E-16	1.799740E-17
7.070000E+03	2.048051E-16	1.801587E-17
7.080000E+03	2.037400E-16	1.802959E-17
7.090000E+03	2.027155E-16	1.804019E-17
7.100000E+03	2.017028E-16	1.804531E-17
7.110000E+03	2.007174E-16	1.804653E-17
7.120000E+03	1.997746E-16	1.804539E-17
7.130000E+03	1.988454E-16	1.803945E-17
7.140000E+03	1.979445E-16	1.803023E-17
7.150000E+03	1.970721E-16	1.801787E-17
7.160000E+03	1.962281E-16	1.800253E-17
7.170000E+03	1.954121E-16	1.798431E-17
7.180000E+03	1.946239E-16	1.796332E-17
7.190000E+03	1.938629E-16	1.793963E-17
7.200000E+03	1.931144E-16	1.791198E-17
7.210000E+03	1.924062E-16	1.788306E-17
7.220000E+03	1.917233E-16	1.785158E-17
7.230000E+03	1.910508E-16	1.781623E-17
7.240000E+03	1.904161E-16	1.777964E-17
7.250000E+03	1.898041E-16	1.774050E-17
7.260000E+03	1.891999E-16	1.769745E-17
7.270000E+03	1.886165E-16	1.765179E-17
7.280000E+03	1.880669E-16	1.760477E-17
7.290000E+03	1.875222E-16	1.755372E-17
7.300000E+03	1.869952E-16	1.749991E-17
7.310000E+03	1.864850E-16	1.744325E-17
7.320000E+03	1.859905E-16	1.738368E-17
7.330000E+03	1.855107E-16	1.732112E-17
7.340000E+03	1.850445E-16	1.725548E-17
7.350000E+03	1.845910E-16	1.718670E-17
7.360000E+03	1.841491E-16	1.711466E-17
7.370000E+03	1.837179E-16	1.703930E-17
7.380000E+03	1.832829E-16	1.695924E-17
7.390000E+03	1.828705E-16	1.687694E-17
7.400000E+03	1.824525E-16	1.678977E-17
7.410000E+03	1.820555E-16	1.670017E-17
7.420000E+03	1.816514E-16	1.660554E-17
7.430000E+03	1.812532E-16	1.650704E-17
7.440000E+03	1.808601E-16	1.640459E-17
7.450000E+03	1.804717E-16	1.629810E-17
7.460000E+03	1.800874E-16	1.618750E-17
7.470000E+03	1.797067E-16	1.607270E-17
7.480000E+03	1.793291E-16	1.595363E-17
7.490000E+03	1.789542E-16	1.583022E-17
7.500000E+03	1.785683E-16	1.570120E-17
7.510000E+03	1.781981E-16	1.556889E-17
7.520000E+03	1.778163E-16	1.543087E-17
7.530000E+03	1.774499E-16	1.528943E-17
7.540000E+03	1.770717E-16	1.514217E-17
7.550000E+03	1.766952E-16	1.499022E-17
7.560000E+03	1.763203E-16	1.483353E-17
7.570000E+03	1.759472E-16	1.467205E-17
7.580000E+03	1.755760E-16	1.450574E-17
7.590000E+03	1.752067E-16	1.433455E-17
7.600000E+03	1.748261E-16	1.415738E-17
7.610000E+03	1.744613E-16	1.397636E-17
7.620000E+03	1.740857E-16	1.378931E-17
7.630000E+03	1.737130E-16	1.359729E-17
7.640000E+03	1.733568E-16	1.340130E-17
7.650000E+03	1.729908E-16	1.319924E-17
7.660000E+03	1.726286E-16	1.299214E-17
7.670000E+03	1.722706E-16	1.277998E-17
7.680000E+03	1.719038E-16	1.256178E-17
7.690000E+03	1.715552E-16	1.233947E-17
7.700000E+03	1.711987E-16	1.211114E-17
7.710000E+03	1.708609E-16	1.187867E-17
7.720000E+03	1.705159E-16	1.164021E-17
7.730000E+03	1.701772E-16	1.139671E-17
7.740000E+03	1.698451E-16	1.114818E-17
7.750000E+03	1.695199E-16	1.089466E-17
7.760000E+03	1.692019E-16	1.063619E-17
