#wls	flux	fluxerr
1.600000E+03	7.936868E-17	4.230422E-17
1.640000E+03	8.089471E-17	4.252905E-17
1.680000E+03	8.244313E-17	4.272811E-17
1.720000E+03	8.402653E-17	4.290634E-17
1.760000E+03	8.562895E-17	4.305388E-17
1.800000E+03	8.724817E-17	4.316818E-17
1.840000E+03	8.888174E-17	4.324662E-17
1.880000E+03	9.052699E-17	4.328658E-17
1.920000E+03	9.219652E-17	4.329270E-17
1.960000E+03	9.388780E-17	4.326223E-17
2.000000E+03	9.558218E-17	4.318524E-17
2.040000E+03	9.729212E-17	4.306627E-17
2.080000E+03	9.899806E-17	4.289558E-17
2.120000E+03	1.007289E-16	4.268475E-17
2.160000E+03	1.024480E-16	4.241724E-17
2.200000E+03	1.041676E-16	4.209774E-17
2.240000E+03	1.058836E-16	4.172407E-17
2.280000E+03	1.075914E-16	4.129427E-17
2.320000E+03	1.093036E-16	4.081309E-17
2.360000E+03	1.109983E-16	4.027241E-17
2.400000E+03	1.126705E-16	3.967118E-17
2.440000E+03	1.143325E-16	3.901479E-17
2.480000E+03	1.159618E-16	3.829672E-17
2.520000E+03	1.175707E-16	3.752303E-17
2.560000E+03	1.191541E-16	3.669414E-17
2.600000E+03	1.206888E-16	3.580577E-17
2.640000E+03	1.222057E-16	3.487054E-17
2.680000E+03	1.236817E-16	3.388545E-17
2.720000E+03	1.251121E-16	3.285389E-17
2.760000E+03	1.264922E-16	3.178017E-17
2.800000E+03	1.278358E-16	3.067396E-17
2.840000E+03	1.291213E-16	2.953690E-17
2.880000E+03	1.303633E-16	2.838044E-17
2.920000E+03	1.315596E-16	2.721267E-17
2.960000E+03	1.326908E-16	2.603938E-17
3.000000E+03	1.337927E-16	2.487821E-17
3.010000E+03	1.340543E-16	2.458934E-17
3.020000E+03	1.343087E-16	2.430112E-17
3.030000E+03	1.345736E-16	2.401696E-17
3.040000E+03	1.348313E-16	2.373383E-17
3.050000E+03	1.350820E-16	2.345195E-17
3.060000E+03	1.353435E-16	2.317457E-17
3.070000E+03	1.355980E-16	2.289883E-17
3.080000E+03	1.358458E-16	2.262495E-17
3.090000E+03	1.360870E-16	2.235318E-17
3.100000E+03	1.363393E-16	2.208658E-17
3.110000E+03	1.365853E-16	2.182247E-17
3.120000E+03	1.368251E-16	2.156107E-17
3.130000E+03	1.370590E-16	2.130262E-17
3.140000E+03	1.373046E-16	2.105001E-17
3.150000E+03	1.375447E-16	2.080071E-17
3.160000E+03	1.377794E-16	2.055494E-17
3.170000E+03	1.380092E-16	2.031292E-17
3.180000E+03	1.382516E-16	2.007735E-17
3.190000E+03	1.384895E-16	1.984586E-17
3.200000E+03	1.387233E-16	1.961864E-17
3.210000E+03	1.389706E-16	1.939827E-17
3.220000E+03	1.392144E-16	1.918245E-17
3.230000E+03	1.394553E-16	1.897136E-17
3.240000E+03	1.396936E-16	1.876515E-17
3.250000E+03	1.399468E-16	1.856621E-17
3.260000E+03	1.401983E-16	1.837237E-17
3.270000E+03	1.404487E-16	1.818373E-17
3.280000E+03	1.407154E-16	1.800258E-17
3.290000E+03	1.409819E-16	1.782679E-17
3.300000E+03	1.412489E-16	1.765644E-17
3.310000E+03	1.415170E-16	1.749160E-17
3.320000E+03	1.418035E-16	1.733438E-17
3.330000E+03	1.420923E-16	1.718272E-17
3.340000E+03	1.423841E-16	1.703665E-17
3.350000E+03	1.426963E-16	1.689816E-17
3.360000E+03	1.430128E-16	1.676524E-17
3.370000E+03	1.433344E-16	1.663789E-17
3.380000E+03	1.436620E-16	1.651609E-17
3.390000E+03	1.440127E-16	1.640168E-17
3.400000E+03	1.443709E-16	1.629272E-17
3.410000E+03	1.447374E-16	1.618915E-17
3.420000E+03	1.451294E-16	1.609274E-17
3.430000E+03	1.455148E-16	1.599976E-17
3.440000E+03	1.459440E-16	1.591555E-17
3.450000E+03	1.463683E-16	1.583462E-17
3.460000E+03	1.468217E-16	1.576044E-17
3.470000E+03	1.472884E-16	1.569113E-17
3.480000E+03	1.477695E-16	1.562660E-17
3.490000E+03	1.482658E-16	1.556675E-17
3.500000E+03	1.487947E-16	1.551317E-17
3.510000E+03	1.493406E-16	1.546403E-17
3.520000E+03	1.499208E-16	1.542089E-17
3.530000E+03	1.505036E-16	1.538027E-17
3.540000E+03	1.511225E-16	1.534541E-17
3.550000E+03	1.517621E-16	1.531451E-17
3.560000E+03	1.524397E-16	1.528908E-17
3.570000E+03	1.531397E-16	1.526735E-17
3.580000E+03	1.538632E-16	1.524920E-17
3.590000E+03	1.546109E-16	1.523451E-17
3.600000E+03	1.553836E-16	1.522315E-17
3.610000E+03	1.561986E-16	1.521659E-17
3.620000E+03	1.570403E-16	1.521309E-17
3.630000E+03	1.579257E-16	1.521409E-17
3.640000E+03	1.588230E-16	1.521631E-17
3.650000E+03	1.597655E-16	1.522275E-17
3.660000E+03	1.607375E-16	1.523170E-17
3.670000E+03	1.617561E-16	1.524456E-17
3.680000E+03	1.627889E-16	1.525808E-17
3.690000E+03	1.638694E-16	1.527519E-17
3.700000E+03	1.649816E-16	1.529420E-17
3.710000E+03	1.661257E-16	1.531494E-17
3.720000E+03	1.673189E-16	1.533875E-17
3.730000E+03	1.685448E-16	1.536393E-17
3.740000E+03	1.698034E-16	1.539028E-17
3.750000E+03	1.710950E-16	1.541761E-17
3.760000E+03	1.724364E-16	1.544723E-17
3.770000E+03	1.737939E-16	1.547590E-17
3.780000E+03	1.752010E-16	1.550640E-17
3.790000E+03	1.766407E-16	1.553700E-17
3.800000E+03	1.781298E-16	1.556895E-17
3.810000E+03	1.796335E-16	1.559899E-17
3.820000E+03	1.811858E-16	1.562985E-17
3.830000E+03	1.827687E-16	1.565976E-17
3.840000E+03	1.843817E-16	1.568841E-17
3.850000E+03	1.860412E-16	1.571700E-17
3.860000E+03	1.877116E-16	1.574226E-17
3.870000E+03	1.894267E-16	1.576681E-17
3.880000E+03	1.911679E-16	1.578885E-17
3.890000E+03	1.929340E-16	1.580804E-17
3.900000E+03	1.947236E-16	1.582403E-17
3.910000E+03	1.965352E-16	1.583648E-17
3.920000E+03	1.983853E-16	1.584647E-17
3.930000E+03	2.002544E-16	1.585217E-17
3.940000E+03	2.021225E-16	1.585180E-17
3.950000E+03	2.040242E-16	1.584785E-17
3.960000E+03	2.059394E-16	1.583852E-17
3.970000E+03	2.078846E-16	1.582485E-17
3.980000E+03	2.098209E-16	1.580366E-17
3.990000E+03	2.117833E-16	1.577740E-17
4.000000E+03	2.137322E-16	1.574294E-17
4.010000E+03	2.157030E-16	1.570272E-17
4.020000E+03	2.176748E-16	1.565502E-17
4.030000E+03	2.196262E-16	1.559820E-17
4.040000E+03	2.215930E-16	1.553471E-17
4.050000E+03	2.235539E-16	1.546291E-17
4.060000E+03	2.255260E-16	1.538391E-17
4.070000E+03	2.274684E-16	1.529488E-17
4.080000E+03	2.293982E-16	1.519698E-17
4.090000E+03	2.313131E-16	1.509013E-17
4.100000E+03	2.332307E-16	1.497551E-17
4.110000E+03	2.351096E-16	1.485058E-17
4.120000E+03	2.369675E-16	1.471668E-17
4.130000E+03	2.388222E-16	1.457514E-17
4.140000E+03	2.406322E-16	1.442372E-17
4.150000E+03	2.424356E-16	1.426509E-17
4.160000E+03	2.441908E-16	1.409724E-17
4.170000E+03	2.459364E-16	1.392298E-17
4.180000E+03	2.476308E-16	1.374056E-17
4.190000E+03	2.492927E-16	1.355183E-17
4.200000E+03	2.509415E-16	1.335869E-17
4.210000E+03	2.525355E-16	1.315988E-17
4.220000E+03	2.541145E-16	1.295864E-17
4.230000E+03	2.556373E-16	1.275411E-17
4.240000E+03	2.571236E-16	1.254876E-17
4.250000E+03	2.585730E-16	1.234415E-17
4.260000E+03	2.599854E-16	1.214205E-17
4.270000E+03	2.613608E-16	1.194436E-17
4.280000E+03	2.626993E-16	1.175318E-17
4.290000E+03	2.640013E-16	1.157076E-17
4.300000E+03	2.652671E-16	1.139948E-17
4.310000E+03	2.664976E-16	1.124182E-17
4.320000E+03	2.676729E-16	1.109950E-17
4.330000E+03	2.688146E-16	1.097595E-17
4.340000E+03	2.699446E-16	1.087450E-17
4.350000E+03	2.710230E-16	1.079583E-17
4.360000E+03	2.720719E-16	1.074290E-17
4.370000E+03	2.730931E-16	1.071750E-17
4.380000E+03	2.740679E-16	1.072020E-17
4.390000E+03	2.750396E-16	1.075344E-17
4.400000E+03	2.759693E-16	1.081587E-17
4.410000E+03	2.768801E-16	1.090796E-17
4.420000E+03	2.777747E-16	1.102887E-17
4.430000E+03	2.786558E-16	1.117730E-17
4.440000E+03	2.795261E-16	1.135159E-17
4.450000E+03	2.803681E-16	1.154901E-17
4.460000E+03	2.812051E-16	1.176832E-17
4.470000E+03	2.820399E-16	1.200735E-17
4.480000E+03	2.828753E-16	1.226394E-17
4.490000E+03	2.837141E-16	1.253595E-17
4.500000E+03	2.845382E-16	1.282038E-17
4.510000E+03	2.853705E-16	1.311618E-17
4.520000E+03	2.862135E-16	1.342149E-17
4.530000E+03	2.870487E-16	1.373365E-17
4.540000E+03	2.878984E-16	1.405202E-17
4.550000E+03	2.887644E-16	1.437518E-17
4.560000E+03	2.896481E-16	1.470184E-17
4.570000E+03	2.905302E-16	1.502975E-17
4.580000E+03	2.914527E-16	1.535998E-17
4.590000E+03	2.923549E-16	1.568831E-17
4.600000E+03	2.932986E-16	1.601713E-17
4.610000E+03	2.942430E-16	1.634345E-17
4.620000E+03	2.952087E-16	1.666767E-17
4.630000E+03	2.961952E-16	1.698913E-17
4.640000E+03	2.971815E-16	1.730606E-17
4.650000E+03	2.981873E-16	1.761907E-17
4.660000E+03	2.991909E-16	1.792644E-17
4.670000E+03	3.002322E-16	1.823013E-17
4.680000E+03	3.012685E-16	1.852722E-17
4.690000E+03	3.022982E-16	1.881725E-17
4.700000E+03	3.033605E-16	1.910234E-17
4.710000E+03	3.043916E-16	1.937821E-17
4.720000E+03	3.054510E-16	1.964838E-17
4.730000E+03	3.064952E-16	1.990984E-17
4.740000E+03	3.075424E-16	2.016352E-17
4.750000E+03	3.085694E-16	2.040771E-17
4.760000E+03	3.095941E-16	2.064338E-17
4.770000E+03	3.106139E-16	2.087019E-17
4.780000E+03	3.116054E-16	2.108639E-17
4.790000E+03	3.125865E-16	2.129301E-17
4.800000E+03	3.135547E-16	2.148972E-17
4.810000E+03	3.144864E-16	2.167476E-17
4.820000E+03	3.153998E-16	2.184921E-17
4.830000E+03	3.162716E-16	2.201132E-17
4.840000E+03	3.171201E-16	2.216222E-17
4.850000E+03	3.179431E-16	2.230162E-17
4.860000E+03	3.187176E-16	2.242776E-17
4.870000E+03	3.194623E-16	2.254185E-17
4.880000E+03	3.201548E-16	2.264218E-17
4.890000E+03	3.208143E-16	2.272997E-17
4.900000E+03	3.214393E-16	2.280503E-17
4.910000E+03	3.220080E-16	2.286569E-17
4.920000E+03	3.225403E-16	2.291328E-17
4.930000E+03	3.230149E-16	2.294618E-17
4.940000E+03	3.234522E-16	2.296577E-17
4.950000E+03	3.238314E-16	2.297048E-17
4.960000E+03	3.241737E-16	2.296175E-17
4.970000E+03	3.244794E-16	2.293955E-17
4.980000E+03	3.247288E-16	2.290242E-17
4.990000E+03	3.249437E-16	2.285186E-17
5.000000E+03	3.251048E-16	2.278646E-17
5.010000E+03	3.252343E-16	2.270778E-17
5.020000E+03	3.253341E-16	2.261591E-17
5.030000E+03	3.253856E-16	2.250954E-17
5.040000E+03	3.254118E-16	2.239026E-17
5.050000E+03	3.253945E-16	2.225682E-17
5.060000E+03	3.253567E-16	2.211082E-17
5.070000E+03	3.253011E-16	2.195243E-17
5.080000E+03	3.252099E-16	2.178050E-17
5.090000E+03	3.250859E-16	2.159524E-17
5.100000E+03	3.249523E-16	2.139826E-17
5.110000E+03	3.248118E-16	2.118977E-17
5.120000E+03	3.246466E-16	2.096865E-17
5.130000E+03	3.244796E-16	2.073647E-17
5.140000E+03	3.243131E-16	2.049343E-17
5.150000E+03	3.241292E-16	2.023848E-17
5.160000E+03	3.239500E-16	1.997313E-17
5.170000E+03	3.237574E-16	1.969636E-17
5.180000E+03	3.235729E-16	1.940964E-17
5.190000E+03	3.233778E-16	1.911200E-17
5.200000E+03	3.231932E-16	1.880489E-17
5.210000E+03	3.230197E-16	1.848855E-17
5.220000E+03	3.228379E-16	1.816211E-17
5.230000E+03	3.226677E-16	1.782701E-17
5.240000E+03	3.224892E-16	1.748250E-17
5.250000E+03	3.223216E-16	1.713007E-17
5.260000E+03	3.221641E-16	1.677013E-17
5.270000E+03	3.219960E-16	1.640216E-17
5.280000E+03	3.218355E-16	1.602780E-17
5.290000E+03	3.216613E-16	1.564677E-17
5.300000E+03	3.214914E-16	1.526086E-17
5.310000E+03	3.213235E-16	1.487102E-17
5.320000E+03	3.211359E-16	1.447747E-17
5.330000E+03	3.209458E-16	1.408245E-17
5.340000E+03	3.207312E-16	1.368663E-17
5.350000E+03	3.205284E-16	1.329346E-17
5.360000E+03	3.202764E-16	1.290256E-17
5.370000E+03	3.200309E-16	1.251867E-17
5.380000E+03	3.197310E-16	1.214218E-17
5.390000E+03	3.194323E-16	1.177836E-17
5.400000E+03	3.190934E-16	1.142908E-17
5.410000E+03	3.187313E-16	1.109875E-17
5.420000E+03	3.183242E-16	1.079067E-17
5.430000E+03	3.179085E-16	1.051033E-17
5.440000E+03	3.174245E-16	1.026007E-17
5.450000E+03	3.169277E-16	1.004601E-17
5.460000E+03	3.163781E-16	9.870808E-18
5.470000E+03	3.157741E-16	9.737876E-18
5.480000E+03	3.151523E-16	9.650927E-18
5.490000E+03	3.144545E-16	9.609644E-18
5.500000E+03	3.137363E-16	9.615885E-18
5.510000E+03	3.129589E-16	9.667233E-18
5.520000E+03	3.121402E-16	9.761763E-18
5.530000E+03	3.112794E-16	9.895988E-18
5.540000E+03	3.103574E-16	1.006513E-17
5.550000E+03	3.093928E-16	1.026521E-17
5.560000E+03	3.083854E-16	1.049150E-17
5.570000E+03	3.073172E-16	1.073871E-17
5.580000E+03	3.062073E-16	1.100300E-17
5.590000E+03	3.050384E-16	1.127955E-17
5.600000E+03	3.038483E-16	1.156591E-17
5.610000E+03	3.026019E-16	1.185729E-17
5.620000E+03	3.013014E-16	1.215065E-17
5.630000E+03	2.999848E-16	1.244478E-17
5.640000E+03	2.986186E-16	1.273595E-17
5.650000E+03	2.972232E-16	1.302292E-17
5.660000E+03	2.957837E-16	1.330326E-17
5.670000E+03	2.943209E-16	1.357635E-17
5.680000E+03	2.928378E-16	1.384105E-17
5.690000E+03	2.913376E-16	1.409645E-17
5.700000E+03	2.898063E-16	1.434095E-17
5.710000E+03	2.882647E-16	1.457481E-17
5.720000E+03	2.867161E-16	1.479761E-17
5.730000E+03	2.851470E-16	1.500814E-17
5.740000E+03	2.835947E-16	1.520801E-17
5.750000E+03	2.820286E-16	1.539530E-17
5.760000E+03	2.804523E-16	1.556996E-17
5.770000E+03	2.789023E-16	1.573388E-17
5.780000E+03	2.773482E-16	1.588529E-17
5.790000E+03	2.758097E-16	1.602525E-17
5.800000E+03	2.742729E-16	1.615299E-17
5.810000E+03	2.727732E-16	1.627062E-17
5.820000E+03	2.712802E-16	1.637642E-17
5.830000E+03	2.698124E-16	1.647160E-17
5.840000E+03	2.683716E-16	1.655638E-17
5.850000E+03	2.669435E-16	1.663002E-17
5.860000E+03	2.655457E-16	1.669374E-17
5.870000E+03	2.641794E-16	1.674777E-17
5.880000E+03	2.628455E-16	1.679232E-17
5.890000E+03	2.615447E-16	1.682761E-17
5.900000E+03	2.602622E-16	1.685283E-17
5.910000E+03	2.590138E-16	1.686915E-17
5.920000E+03	2.577997E-16	1.687675E-17
5.930000E+03	2.566198E-16	1.687576E-17
5.940000E+03	2.554586E-16	1.686531E-17
5.950000E+03	2.543464E-16	1.684753E-17
5.960000E+03	2.532520E-16	1.682048E-17
5.970000E+03	2.521901E-16	1.678527E-17
5.980000E+03	2.511447E-16	1.674094E-17
5.990000E+03	2.501452E-16	1.668955E-17
6.000000E+03	2.491606E-16	1.662914E-17
6.010000E+03	2.482049E-16	1.656074E-17
6.020000E+03	2.472770E-16	1.648436E-17
6.030000E+03	2.463759E-16	1.640001E-17
6.040000E+03	2.455007E-16	1.630770E-17
6.050000E+03	2.446356E-16	1.620645E-17
6.060000E+03	2.438091E-16	1.609821E-17
6.070000E+03	2.429912E-16	1.598104E-17
6.080000E+03	2.421958E-16	1.585591E-17
6.090000E+03	2.414223E-16	1.572282E-17
6.100000E+03	2.406557E-16	1.558084E-17
6.110000E+03	2.399248E-16	1.543186E-17
6.120000E+03	2.392005E-16	1.527402E-17
6.130000E+03	2.384973E-16	1.510829E-17
6.140000E+03	2.378154E-16	1.493469E-17
6.150000E+03	2.371553E-16	1.475324E-17
6.160000E+03	2.365174E-16	1.456399E-17
6.170000E+03	2.359026E-16	1.436698E-17
6.180000E+03	2.352977E-16	1.416139E-17
6.190000E+03	2.347321E-16	1.394901E-17
6.200000E+03	2.341790E-16	1.372819E-17
6.210000E+03	2.336539E-16	1.349985E-17
6.220000E+03	2.331585E-16	1.326405E-17
6.230000E+03	2.326947E-16	1.302085E-17
6.240000E+03	2.322643E-16	1.277033E-17
6.250000E+03	2.318695E-16	1.251256E-17
6.260000E+03	2.314984E-16	1.224687E-17
6.270000E+03	2.311814E-16	1.197484E-17
6.280000E+03	2.308927E-16	1.169509E-17
6.290000E+03	2.306488E-16	1.140847E-17
6.300000E+03	2.304520E-16	1.111509E-17
6.310000E+03	2.303188E-16	1.081574E-17
6.320000E+03	2.302236E-16	1.050924E-17
6.330000E+03	2.301688E-16	1.019585E-17
6.340000E+03	2.301846E-16	9.877079E-18
6.350000E+03	2.302592E-16	9.552592E-18
6.360000E+03	2.303945E-16	9.222794E-18
6.370000E+03	2.305785E-16	8.887663E-18
6.380000E+03	2.308408E-16	8.548970E-18
6.390000E+03	2.311546E-16	8.206517E-18
6.400000E+03	2.315351E-16	7.861966E-18
6.410000E+03	2.319972E-16	7.517221E-18
6.420000E+03	2.325130E-16	7.173209E-18
6.430000E+03	2.330965E-16	6.832804E-18
6.440000E+03	2.337473E-16	6.499073E-18
6.450000E+03	2.344642E-16	6.175908E-18
6.460000E+03	2.352457E-16	5.868195E-18
6.470000E+03	2.360896E-16	5.581967E-18
6.480000E+03	2.369785E-16	5.324157E-18
6.490000E+03	2.379380E-16	5.103829E-18
6.500000E+03	2.389494E-16	4.929807E-18
6.510000E+03	2.399929E-16	4.810952E-18
6.520000E+03	2.410924E-16	4.755808E-18
6.530000E+03	2.422117E-16	4.769119E-18
6.540000E+03	2.433734E-16	4.853083E-18
6.550000E+03	2.445396E-16	5.004720E-18
6.560000E+03	2.457317E-16	5.218929E-18
6.570000E+03	2.469103E-16	5.487279E-18
6.580000E+03	2.480805E-16	5.801443E-18
6.590000E+03	2.492477E-16	6.153279E-18
6.600000E+03	2.503708E-16	6.534198E-18
6.610000E+03	2.514544E-16	6.937608E-18
6.620000E+03	2.524879E-16	7.357498E-18
6.630000E+03	2.534608E-16	7.788722E-18
6.640000E+03	2.543628E-16	8.226883E-18
6.650000E+03	2.551840E-16	8.668216E-18
6.660000E+03	2.559152E-16	9.109477E-18
6.670000E+03	2.565475E-16	9.547856E-18
6.680000E+03	2.570731E-16	9.980904E-18
6.690000E+03	2.574850E-16	1.040648E-17
6.700000E+03	2.577771E-16	1.082271E-17
6.710000E+03	2.579445E-16	1.122795E-17
6.720000E+03	2.579834E-16	1.162077E-17
6.730000E+03	2.578911E-16	1.199995E-17
6.740000E+03	2.576501E-16	1.236366E-17
6.750000E+03	2.572923E-16	1.271255E-17
6.760000E+03	2.568027E-16	1.304518E-17
6.770000E+03	2.561673E-16	1.336015E-17
6.780000E+03	2.554215E-16	1.365873E-17
6.790000E+03	2.545533E-16	1.393985E-17
6.800000E+03	2.535521E-16	1.420252E-17
6.810000E+03	2.524558E-16	1.444852E-17
6.820000E+03	2.512551E-16	1.467712E-17
6.830000E+03	2.499417E-16	1.488763E-17
6.840000E+03	2.485551E-16	1.508227E-17
6.850000E+03	2.470721E-16	1.525960E-17
6.860000E+03	2.455326E-16	1.542205E-17
6.870000E+03	2.439142E-16	1.556828E-17
6.880000E+03	2.422566E-16	1.570087E-17
6.890000E+03	2.405380E-16	1.581857E-17
6.900000E+03	2.387974E-16	1.592407E-17
6.910000E+03	2.370130E-16	1.601612E-17
6.920000E+03	2.352083E-16	1.609649E-17
6.930000E+03	2.334057E-16	1.616696E-17
6.940000E+03	2.315832E-16	1.622627E-17
6.950000E+03	2.297626E-16	1.627619E-17
6.960000E+03	2.279649E-16	1.631849E-17
6.970000E+03	2.261672E-16	1.635183E-17
6.980000E+03	2.243896E-16	1.637793E-17
6.990000E+03	2.226373E-16	1.639746E-17
7.000000E+03	2.209147E-16	1.641104E-17
7.010000E+03	2.192260E-16	1.641927E-17
7.020000E+03	2.175748E-16	1.642269E-17
7.030000E+03	2.159778E-16	1.642288E-17
7.040000E+03	2.144101E-16	1.641822E-17
7.050000E+03	2.128877E-16	1.641018E-17
7.060000E+03	2.113990E-16	1.639812E-17
7.070000E+03	2.099724E-16	1.638448E-17
7.080000E+03	2.085954E-16	1.636855E-17
7.090000E+03	2.072685E-16	1.635059E-17
7.100000E+03	2.059921E-16	1.633087E-17
7.110000E+03	2.047664E-16	1.630958E-17
7.120000E+03	2.035781E-16	1.628587E-17
7.130000E+03	2.024528E-16	1.626197E-17
7.140000E+03	2.013769E-16	1.623696E-17
7.150000E+03	2.003365E-16	1.620989E-17
7.160000E+03	1.993566E-16	1.618291E-17
7.170000E+03	1.984101E-16	1.615399E-17
7.180000E+03	1.975086E-16	1.612419E-17
7.190000E+03	1.966635E-16	1.609456E-17
7.200000E+03	1.958478E-16	1.606300E-17
7.210000E+03	1.950726E-16	1.603052E-17
7.220000E+03	1.943362E-16	1.599708E-17
7.230000E+03	1.936496E-16	1.596365E-17
7.240000E+03	1.929858E-16	1.592809E-17
7.250000E+03	1.923557E-16	1.589136E-17
7.260000E+03	1.917574E-16	1.585337E-17
7.270000E+03	1.911768E-16	1.581300E-17
7.280000E+03	1.906370E-16	1.577219E-17
7.290000E+03	1.901237E-16	1.572981E-17
7.300000E+03	1.896228E-16	1.568471E-17
7.310000E+03	1.891574E-16	1.563884E-17
7.320000E+03	1.887011E-16	1.559002E-17
7.330000E+03	1.882768E-16	1.554016E-17
7.340000E+03	1.878585E-16	1.548712E-17
7.350000E+03	1.874568E-16	1.543179E-17
7.360000E+03	1.870703E-16	1.537403E-17
7.370000E+03	1.866975E-16	1.531373E-17
7.380000E+03	1.863371E-16	1.525077E-17
7.390000E+03	1.859879E-16	1.518502E-17
7.400000E+03	1.856485E-16	1.511638E-17
7.410000E+03	1.853058E-16	1.504373E-17
7.420000E+03	1.849829E-16	1.496895E-17
7.430000E+03	1.846547E-16	1.488996E-17
7.440000E+03	1.843446E-16	1.480862E-17
7.450000E+03	1.840275E-16	1.472289E-17
7.460000E+03	1.837148E-16	1.463365E-17
7.470000E+03	1.834059E-16	1.454082E-17
7.480000E+03	1.831004E-16	1.444431E-17
7.490000E+03	1.827978E-16	1.434406E-17
7.500000E+03	1.824857E-16	1.423905E-17
7.510000E+03	1.821881E-16	1.413110E-17
7.520000E+03	1.818806E-16	1.401828E-17
7.530000E+03	1.815754E-16	1.390149E-17
7.540000E+03	1.812724E-16	1.378066E-17
7.550000E+03	1.809717E-16	1.365576E-17
7.560000E+03	1.806737E-16	1.352675E-17
7.570000E+03	1.803784E-16	1.339359E-17
7.580000E+03	1.800864E-16	1.325626E-17
7.590000E+03	1.797859E-16	1.311383E-17
7.600000E+03	1.795016E-16	1.296805E-17
7.610000E+03	1.792098E-16	1.281715E-17
7.620000E+03	1.789232E-16	1.266198E-17
7.630000E+03	1.786424E-16	1.250252E-17
7.640000E+03	1.783680E-16	1.233874E-17
7.650000E+03	1.780888E-16	1.216981E-17
7.660000E+03	1.778293E-16	1.199735E-17
7.670000E+03	1.775664E-16	1.181971E-17
7.680000E+03	1.773126E-16	1.163769E-17
7.690000E+03	1.770687E-16	1.145126E-17
7.700000E+03	1.768353E-16	1.126039E-17
7.710000E+03	1.766131E-16	1.106506E-17
7.720000E+03	1.763907E-16	1.086451E-17
7.730000E+03	1.761925E-16	1.066019E-17
7.740000E+03	1.759952E-16	1.045063E-17
7.750000E+03	1.758110E-16	1.023654E-17
7.760000E+03	1.756404E-16	1.001791E-17
