#wls	flux	fluxerr
1.600000E+03	8.084701E-17	4.299052E-17
1.640000E+03	8.243499E-17	4.323150E-17
1.680000E+03	8.404666E-17	4.344587E-17
1.720000E+03	8.568011E-17	4.363106E-17
1.760000E+03	8.734812E-17	4.379191E-17
1.800000E+03	8.903386E-17	4.391822E-17
1.840000E+03	9.073474E-17	4.400723E-17
1.880000E+03	9.246348E-17	4.406356E-17
1.920000E+03	9.420182E-17	4.407689E-17
1.960000E+03	9.596238E-17	4.405174E-17
2.000000E+03	9.774217E-17	4.398515E-17
2.040000E+03	9.952144E-17	4.386692E-17
2.080000E+03	1.013292E-16	4.370869E-17
2.120000E+03	1.031287E-16	4.349318E-17
2.160000E+03	1.049320E-16	4.322490E-17
2.200000E+03	1.067346E-16	4.290125E-17
2.240000E+03	1.085494E-16	4.252657E-17
2.280000E+03	1.103541E-16	4.209163E-17
2.320000E+03	1.121436E-16	4.159444E-17
2.360000E+03	1.139301E-16	4.103975E-17
2.400000E+03	1.157084E-16	4.042584E-17
2.440000E+03	1.174548E-16	3.974524E-17
2.480000E+03	1.191814E-16	3.900349E-17
2.520000E+03	1.208823E-16	3.820020E-17
2.560000E+03	1.225516E-16	3.733559E-17
2.600000E+03	1.241830E-16	3.641051E-17
2.640000E+03	1.257891E-16	3.543175E-17
2.680000E+03	1.273453E-16	3.439615E-17
2.720000E+03	1.288641E-16	3.331179E-17
2.760000E+03	1.303214E-16	3.217780E-17
2.800000E+03	1.317486E-16	3.100826E-17
2.840000E+03	1.331036E-16	2.980022E-17
2.880000E+03	1.344002E-16	2.856544E-17
2.920000E+03	1.356529E-16	2.731614E-17
2.960000E+03	1.368400E-16	2.605818E-17
3.000000E+03	1.379598E-16	2.480296E-17
3.010000E+03	1.382404E-16	2.449303E-17
3.020000E+03	1.385122E-16	2.418344E-17
3.030000E+03	1.387754E-16	2.387442E-17
3.040000E+03	1.390299E-16	2.356623E-17
3.050000E+03	1.392937E-16	2.326214E-17
3.060000E+03	1.395489E-16	2.295930E-17
3.070000E+03	1.397957E-16	2.265800E-17
3.080000E+03	1.400518E-16	2.236133E-17
3.090000E+03	1.402997E-16	2.206664E-17
3.100000E+03	1.405393E-16	2.177419E-17
3.110000E+03	1.407886E-16	2.148696E-17
3.120000E+03	1.410300E-16	2.120243E-17
3.130000E+03	1.412635E-16	2.092087E-17
3.140000E+03	1.415071E-16	2.064510E-17
3.150000E+03	1.417258E-16	2.037023E-17
3.160000E+03	1.419722E-16	2.010407E-17
3.170000E+03	1.421943E-16	1.983932E-17
3.180000E+03	1.424272E-16	1.958115E-17
3.190000E+03	1.426537E-16	1.932731E-17
3.200000E+03	1.428741E-16	1.907805E-17
3.210000E+03	1.431062E-16	1.883585E-17
3.220000E+03	1.433329E-16	1.859860E-17
3.230000E+03	1.435546E-16	1.836649E-17
3.240000E+03	1.437890E-16	1.814187E-17
3.250000E+03	1.440194E-16	1.792270E-17
3.260000E+03	1.442632E-16	1.771122E-17
3.270000E+03	1.444868E-16	1.750338E-17
3.280000E+03	1.447250E-16	1.730346E-17
3.290000E+03	1.449782E-16	1.711148E-17
3.300000E+03	1.452131E-16	1.692353E-17
3.310000E+03	1.454642E-16	1.674365E-17
3.320000E+03	1.457321E-16	1.657184E-17
3.330000E+03	1.460006E-16	1.640618E-17
3.340000E+03	1.462705E-16	1.624672E-17
3.350000E+03	1.465425E-16	1.609347E-17
3.360000E+03	1.468342E-16	1.594825E-17
3.370000E+03	1.471295E-16	1.580921E-17
3.380000E+03	1.474295E-16	1.567631E-17
3.390000E+03	1.477515E-16	1.555127E-17
3.400000E+03	1.480799E-16	1.543224E-17
3.410000E+03	1.484155E-16	1.531918E-17
3.420000E+03	1.487757E-16	1.521369E-17
3.430000E+03	1.491451E-16	1.511397E-17
3.440000E+03	1.495246E-16	1.501994E-17
3.450000E+03	1.499316E-16	1.493311E-17
3.460000E+03	1.503507E-16	1.485174E-17
3.470000E+03	1.507991E-16	1.477729E-17
3.480000E+03	1.512617E-16	1.470804E-17
3.490000E+03	1.517395E-16	1.464387E-17
3.500000E+03	1.522336E-16	1.458465E-17
3.510000E+03	1.527611E-16	1.453179E-17
3.520000E+03	1.533071E-16	1.448361E-17
3.530000E+03	1.538725E-16	1.443997E-17
3.540000E+03	1.544745E-16	1.440225E-17
3.550000E+03	1.550981E-16	1.436880E-17
3.560000E+03	1.557604E-16	1.434097E-17
3.570000E+03	1.564303E-16	1.431566E-17
3.580000E+03	1.571571E-16	1.429714E-17
3.590000E+03	1.578935E-16	1.428089E-17
3.600000E+03	1.586727E-16	1.426969E-17
3.610000E+03	1.594797E-16	1.426194E-17
3.620000E+03	1.603153E-16	1.425752E-17
3.630000E+03	1.611966E-16	1.425773E-17
3.640000E+03	1.621085E-16	1.426099E-17
3.650000E+03	1.630517E-16	1.426718E-17
3.660000E+03	1.640431E-16	1.427756E-17
3.670000E+03	1.650676E-16	1.429058E-17
3.680000E+03	1.661257E-16	1.430611E-17
3.690000E+03	1.672343E-16	1.432539E-17
3.700000E+03	1.683616E-16	1.434549E-17
3.710000E+03	1.695569E-16	1.437042E-17
3.720000E+03	1.707718E-16	1.439585E-17
3.730000E+03	1.720393E-16	1.442438E-17
3.740000E+03	1.733435E-16	1.445446E-17
3.750000E+03	1.746844E-16	1.448591E-17
3.760000E+03	1.760788E-16	1.451989E-17
3.770000E+03	1.775101E-16	1.455485E-17
3.780000E+03	1.789783E-16	1.459057E-17
3.790000E+03	1.804832E-16	1.462682E-17
3.800000E+03	1.820412E-16	1.466473E-17
3.810000E+03	1.836352E-16	1.470270E-17
3.820000E+03	1.852646E-16	1.474048E-17
3.830000E+03	1.869288E-16	1.477778E-17
3.840000E+03	1.886440E-16	1.481567E-17
3.850000E+03	1.903923E-16	1.485252E-17
3.860000E+03	1.921727E-16	1.488801E-17
3.870000E+03	1.939841E-16	1.492183E-17
3.880000E+03	1.958424E-16	1.495498E-17
3.890000E+03	1.977290E-16	1.498578E-17
3.900000E+03	1.996423E-16	1.501389E-17
3.910000E+03	2.015807E-16	1.503894E-17
3.920000E+03	2.035600E-16	1.506188E-17
3.930000E+03	2.055431E-16	1.507971E-17
3.940000E+03	2.075633E-16	1.509468E-17
3.950000E+03	2.096008E-16	1.510508E-17
3.960000E+03	2.116533E-16	1.511053E-17
3.970000E+03	2.137367E-16	1.511194E-17
3.980000E+03	2.158123E-16	1.510634E-17
3.990000E+03	2.179140E-16	1.509593E-17
4.000000E+03	2.200211E-16	1.507905E-17
4.010000E+03	2.221125E-16	1.505409E-17
4.020000E+03	2.242409E-16	1.502446E-17
4.030000E+03	2.263482E-16	1.498608E-17
4.040000E+03	2.284501E-16	1.493988E-17
4.050000E+03	2.305439E-16	1.488558E-17
4.060000E+03	2.326457E-16	1.482412E-17
4.070000E+03	2.347340E-16	1.475405E-17
4.080000E+03	2.367871E-16	1.467400E-17
4.090000E+03	2.388403E-16	1.458618E-17
4.100000E+03	2.408720E-16	1.448929E-17
4.110000E+03	2.428798E-16	1.438329E-17
4.120000E+03	2.448610E-16	1.426816E-17
4.130000E+03	2.468134E-16	1.414398E-17
4.140000E+03	2.487346E-16	1.401087E-17
4.150000E+03	2.506226E-16	1.386905E-17
4.160000E+03	2.524753E-16	1.371883E-17
4.170000E+03	2.542908E-16	1.356059E-17
4.180000E+03	2.560673E-16	1.339483E-17
4.190000E+03	2.578231E-16	1.322318E-17
4.200000E+03	2.595174E-16	1.304433E-17
4.210000E+03	2.611685E-16	1.286017E-17
4.220000E+03	2.627753E-16	1.267173E-17
4.230000E+03	2.643371E-16	1.248018E-17
4.240000E+03	2.658532E-16	1.228685E-17
4.250000E+03	2.673229E-16	1.209324E-17
4.260000E+03	2.687461E-16	1.190104E-17
4.270000E+03	2.701025E-16	1.171126E-17
4.280000E+03	2.714323E-16	1.152766E-17
4.290000E+03	2.726958E-16	1.135075E-17
4.300000E+03	2.739334E-16	1.118456E-17
4.310000E+03	2.751059E-16	1.102989E-17
4.320000E+03	2.762542E-16	1.089090E-17
4.330000E+03	2.773395E-16	1.076857E-17
4.340000E+03	2.783830E-16	1.066618E-17
4.350000E+03	2.793666E-16	1.058537E-17
4.360000E+03	2.803319E-16	1.052980E-17
4.370000E+03	2.812612E-16	1.050054E-17
4.380000E+03	2.821368E-16	1.049828E-17
4.390000E+03	2.829815E-16	1.052468E-17
4.400000E+03	2.837982E-16	1.057996E-17
4.410000E+03	2.845901E-16	1.066367E-17
4.420000E+03	2.853412E-16	1.077407E-17
4.430000E+03	2.860748E-16	1.091053E-17
4.440000E+03	2.867948E-16	1.107131E-17
4.450000E+03	2.875050E-16	1.125448E-17
4.460000E+03	2.882094E-16	1.145795E-17
4.470000E+03	2.888921E-16	1.167877E-17
4.480000E+03	2.895766E-16	1.191557E-17
4.490000E+03	2.902666E-16	1.216625E-17
4.500000E+03	2.909656E-16	1.242882E-17
4.510000E+03	2.916573E-16	1.270056E-17
4.520000E+03	2.923643E-16	1.298054E-17
4.530000E+03	2.930701E-16	1.326630E-17
4.540000E+03	2.938163E-16	1.355815E-17
4.550000E+03	2.945661E-16	1.385301E-17
4.560000E+03	2.953216E-16	1.414967E-17
4.570000E+03	2.961233E-16	1.444894E-17
4.580000E+03	2.969335E-16	1.474802E-17
4.590000E+03	2.977534E-16	1.504605E-17
4.600000E+03	2.986224E-16	1.534424E-17
4.610000E+03	2.995020E-16	1.563996E-17
4.620000E+03	3.003919E-16	1.593258E-17
4.630000E+03	3.013114E-16	1.622258E-17
4.640000E+03	3.022595E-16	1.650947E-17
4.650000E+03	3.032354E-16	1.679280E-17
4.660000E+03	3.042181E-16	1.707109E-17
4.670000E+03	3.052061E-16	1.734389E-17
4.680000E+03	3.062362E-16	1.761304E-17
4.690000E+03	3.072674E-16	1.787594E-17
4.700000E+03	3.082972E-16	1.813223E-17
4.710000E+03	3.093425E-16	1.838267E-17
4.720000E+03	3.104005E-16	1.862693E-17
4.730000E+03	3.114486E-16	1.886350E-17
4.740000E+03	3.125033E-16	1.909320E-17
4.750000E+03	3.135418E-16	1.931449E-17
4.760000E+03	3.145803E-16	1.952822E-17
4.770000E+03	3.155958E-16	1.973283E-17
4.780000E+03	3.166045E-16	1.992919E-17
4.790000E+03	3.176029E-16	2.011697E-17
4.800000E+03	3.185680E-16	2.029458E-17
4.810000E+03	3.195161E-16	2.046293E-17
4.820000E+03	3.204241E-16	2.062042E-17
4.830000E+03	3.213086E-16	2.076800E-17
4.840000E+03	3.221467E-16	2.090406E-17
4.850000E+03	3.229552E-16	2.102957E-17
4.860000E+03	3.237117E-16	2.114296E-17
4.870000E+03	3.244332E-16	2.124522E-17
4.880000E+03	3.250979E-16	2.133482E-17
4.890000E+03	3.257233E-16	2.141280E-17
4.900000E+03	3.262881E-16	2.147764E-17
4.910000E+03	3.268104E-16	2.153046E-17
4.920000E+03	3.272892E-16	2.157107E-17
4.930000E+03	3.277041E-16	2.159805E-17
4.940000E+03	3.280548E-16	2.161130E-17
4.950000E+03	3.283608E-16	2.161204E-17
4.960000E+03	3.286226E-16	2.160021E-17
4.970000E+03	3.288215E-16	2.157454E-17
4.980000E+03	3.289587E-16	2.153504E-17
4.990000E+03	3.290553E-16	2.148307E-17
5.000000E+03	3.291131E-16	2.141869E-17
5.010000E+03	3.291150E-16	2.134077E-17
5.020000E+03	3.290639E-16	2.124948E-17
5.030000E+03	3.289818E-16	2.114624E-17
5.040000E+03	3.288719E-16	2.103125E-17
5.050000E+03	3.287185E-16	2.090349E-17
5.060000E+03	3.285250E-16	2.076322E-17
5.070000E+03	3.283146E-16	2.061191E-17
5.080000E+03	3.280908E-16	2.044981E-17
5.090000E+03	3.278385E-16	2.027601E-17
5.100000E+03	3.275617E-16	2.009079E-17
5.110000E+03	3.272831E-16	1.989562E-17
5.120000E+03	3.270064E-16	1.969075E-17
5.130000E+03	3.267164E-16	1.947530E-17
5.140000E+03	3.264352E-16	1.925067E-17
5.150000E+03	3.261472E-16	1.901601E-17
5.160000E+03	3.258553E-16	1.877158E-17
5.170000E+03	3.255810E-16	1.851871E-17
5.180000E+03	3.253262E-16	1.825760E-17
5.190000E+03	3.250743E-16	1.798742E-17
5.200000E+03	3.248452E-16	1.770944E-17
5.210000E+03	3.246216E-16	1.742284E-17
5.220000E+03	3.244225E-16	1.712887E-17
5.230000E+03	3.242295E-16	1.682677E-17
5.240000E+03	3.240610E-16	1.651776E-17
5.250000E+03	3.238976E-16	1.620121E-17
5.260000E+03	3.237567E-16	1.587836E-17
5.270000E+03	3.236184E-16	1.554870E-17
5.280000E+03	3.234990E-16	1.521358E-17
5.290000E+03	3.233962E-16	1.487352E-17
5.300000E+03	3.232708E-16	1.452753E-17
5.310000E+03	3.231747E-16	1.417887E-17
5.320000E+03	3.230681E-16	1.382684E-17
5.330000E+03	3.229659E-16	1.347335E-17
5.340000E+03	3.228464E-16	1.311896E-17
5.350000E+03	3.227060E-16	1.276526E-17
5.360000E+03	3.225772E-16	1.241548E-17
5.370000E+03	3.224019E-16	1.206961E-17
5.380000E+03	3.222306E-16	1.173211E-17
5.390000E+03	3.220237E-16	1.140434E-17
5.400000E+03	3.217777E-16	1.108936E-17
5.410000E+03	3.215072E-16	1.079117E-17
5.420000E+03	3.212089E-16	1.051334E-17
5.430000E+03	3.208620E-16	1.025913E-17
5.440000E+03	3.204816E-16	1.003302E-17
5.450000E+03	3.200473E-16	9.838325E-18
5.460000E+03	3.195746E-16	9.679241E-18
5.470000E+03	3.190613E-16	9.558940E-18
5.480000E+03	3.184878E-16	9.479381E-18
5.490000E+03	3.178703E-16	9.442657E-18
5.500000E+03	3.171894E-16	9.448504E-18
5.510000E+03	3.164611E-16	9.496094E-18
5.520000E+03	3.156839E-16	9.582920E-18
5.530000E+03	3.148392E-16	9.705118E-18
5.540000E+03	3.139262E-16	9.858763E-18
5.550000E+03	3.129790E-16	1.004071E-17
5.560000E+03	3.119628E-16	1.024550E-17
5.570000E+03	3.108779E-16	1.046882E-17
5.580000E+03	3.097595E-16	1.070772E-17
5.590000E+03	3.085740E-16	1.095720E-17
5.600000E+03	3.073232E-16	1.121375E-17
5.610000E+03	3.060260E-16	1.147483E-17
5.620000E+03	3.046846E-16	1.173769E-17
5.630000E+03	3.032848E-16	1.199926E-17
5.640000E+03	3.018631E-16	1.225878E-17
5.650000E+03	3.003727E-16	1.251246E-17
5.660000E+03	2.988672E-16	1.276088E-17
5.670000E+03	2.973172E-16	1.300140E-17
5.680000E+03	2.957431E-16	1.323376E-17
5.690000E+03	2.941329E-16	1.345642E-17
5.700000E+03	2.925073E-16	1.366950E-17
5.710000E+03	2.908704E-16	1.387256E-17
5.720000E+03	2.892106E-16	1.406453E-17
5.730000E+03	2.875484E-16	1.424596E-17
5.740000E+03	2.858879E-16	1.441676E-17
5.750000E+03	2.842334E-16	1.457694E-17
5.760000E+03	2.825733E-16	1.472575E-17
5.770000E+03	2.809273E-16	1.486409E-17
5.780000E+03	2.792835E-16	1.499133E-17
5.790000E+03	2.776764E-16	1.510930E-17
5.800000E+03	2.760786E-16	1.521658E-17
5.810000E+03	2.744933E-16	1.531339E-17
5.820000E+03	2.729536E-16	1.540169E-17
5.830000E+03	2.714318E-16	1.548005E-17
5.840000E+03	2.699452E-16	1.554957E-17
5.850000E+03	2.684958E-16	1.561051E-17
5.860000E+03	2.670704E-16	1.566226E-17
5.870000E+03	2.656851E-16	1.570591E-17
5.880000E+03	2.643411E-16	1.574169E-17
5.890000E+03	2.630389E-16	1.576978E-17
5.900000E+03	2.617647E-16	1.578950E-17
5.910000E+03	2.605330E-16	1.580188E-17
5.920000E+03	2.593438E-16	1.580706E-17
5.930000E+03	2.581967E-16	1.580514E-17
5.940000E+03	2.570768E-16	1.579534E-17
5.950000E+03	2.559976E-16	1.577861E-17
5.960000E+03	2.549579E-16	1.575499E-17
5.970000E+03	2.539566E-16	1.572451E-17
5.980000E+03	2.529783E-16	1.568630E-17
5.990000E+03	2.520494E-16	1.564210E-17
6.000000E+03	2.511403E-16	1.559015E-17
6.010000E+03	2.502634E-16	1.553128E-17
6.020000E+03	2.494030E-16	1.546459E-17
6.030000E+03	2.485852E-16	1.539175E-17
6.040000E+03	2.477806E-16	1.531098E-17
6.050000E+03	2.470013E-16	1.522310E-17
6.060000E+03	2.462459E-16	1.512803E-17
6.070000E+03	2.455129E-16	1.502573E-17
6.080000E+03	2.447874E-16	1.491532E-17
6.090000E+03	2.440956E-16	1.479841E-17
6.100000E+03	2.434094E-16	1.467331E-17
6.110000E+03	2.427416E-16	1.454082E-17
6.120000E+03	2.420920E-16	1.440093E-17
6.130000E+03	2.414468E-16	1.425282E-17
6.140000E+03	2.408330E-16	1.409810E-17
6.150000E+03	2.402241E-16	1.393519E-17
6.160000E+03	2.396475E-16	1.376568E-17
6.170000E+03	2.390773E-16	1.358805E-17
6.180000E+03	2.385280E-16	1.340311E-17
6.190000E+03	2.379878E-16	1.321016E-17
6.200000E+03	2.374848E-16	1.301074E-17
6.210000E+03	2.369946E-16	1.280344E-17
6.220000E+03	2.365456E-16	1.258977E-17
6.230000E+03	2.361138E-16	1.236835E-17
6.240000E+03	2.357151E-16	1.213997E-17
6.250000E+03	2.353520E-16	1.190469E-17
6.260000E+03	2.350277E-16	1.166257E-17
6.270000E+03	2.347451E-16	1.141369E-17
6.280000E+03	2.344943E-16	1.115749E-17
6.290000E+03	2.343049E-16	1.089532E-17
6.300000E+03	2.341541E-16	1.062600E-17
6.310000E+03	2.340715E-16	1.035087E-17
6.320000E+03	2.340342E-16	1.006884E-17
6.330000E+03	2.340589E-16	9.780678E-18
6.340000E+03	2.341489E-16	9.486555E-18
6.350000E+03	2.343076E-16	9.186720E-18
6.360000E+03	2.345380E-16	8.881493E-18
6.370000E+03	2.348432E-16	8.571298E-18
6.380000E+03	2.352126E-16	8.256232E-18
6.390000E+03	2.356751E-16	7.937990E-18
6.400000E+03	2.362063E-16	7.616641E-18
6.410000E+03	2.368346E-16	7.294362E-18
6.420000E+03	2.375344E-16	6.972011E-18
6.430000E+03	2.383198E-16	6.652238E-18
6.440000E+03	2.392044E-16	6.338279E-18
6.450000E+03	2.401606E-16	6.033096E-18
6.460000E+03	2.412005E-16	5.741759E-18
6.470000E+03	2.423219E-16	5.470131E-18
6.480000E+03	2.435217E-16	5.225340E-18
6.490000E+03	2.447960E-16	5.015747E-18
6.500000E+03	2.461257E-16	4.850348E-18
6.510000E+03	2.475325E-16	4.739184E-18
6.520000E+03	2.489955E-16	4.690521E-18
6.530000E+03	2.505066E-16	4.710558E-18
6.540000E+03	2.520420E-16	4.801022E-18
6.550000E+03	2.536200E-16	4.959660E-18
6.560000E+03	2.552005E-16	5.179850E-18
6.570000E+03	2.568004E-16	5.454194E-18
6.580000E+03	2.583774E-16	5.773382E-18
6.590000E+03	2.599473E-16	6.129530E-18
6.600000E+03	2.614665E-16	6.514103E-18
6.610000E+03	2.629502E-16	6.920863E-18
6.620000E+03	2.643538E-16	7.342984E-18
6.630000E+03	2.656778E-16	7.775615E-18
6.640000E+03	2.669233E-16	8.214723E-18
6.650000E+03	2.680459E-16	8.655491E-18
6.660000E+03	2.690479E-16	9.094974E-18
6.670000E+03	2.699172E-16	9.530204E-18
6.680000E+03	2.706429E-16	9.958572E-18
6.690000E+03	2.712310E-16	1.037838E-17
6.700000E+03	2.716422E-16	1.078645E-17
6.710000E+03	2.718855E-16	1.118157E-17
6.720000E+03	2.719561E-16	1.156223E-17
6.730000E+03	2.718509E-16	1.192713E-17
6.740000E+03	2.715685E-16	1.227516E-17
6.750000E+03	2.711095E-16	1.260546E-17
6.760000E+03	2.704760E-16	1.291734E-17
6.770000E+03	2.696721E-16	1.321031E-17
6.780000E+03	2.687030E-16	1.348407E-17
6.790000E+03	2.675757E-16	1.373848E-17
6.800000E+03	2.662984E-16	1.397359E-17
6.810000E+03	2.648804E-16	1.418958E-17
6.820000E+03	2.633318E-16	1.438679E-17
6.830000E+03	2.616638E-16	1.456566E-17
6.840000E+03	2.598879E-16	1.472678E-17
6.850000E+03	2.580010E-16	1.486992E-17
6.860000E+03	2.560456E-16	1.499758E-17
6.870000E+03	2.540189E-16	1.510970E-17
6.880000E+03	2.519330E-16	1.520713E-17
6.890000E+03	2.498000E-16	1.529079E-17
6.900000E+03	2.476315E-16	1.536160E-17
6.910000E+03	2.454242E-16	1.541957E-17
6.920000E+03	2.432178E-16	1.546745E-17
6.930000E+03	2.410078E-16	1.550526E-17
6.940000E+03	2.388037E-16	1.553391E-17
6.950000E+03	2.366001E-16	1.555335E-17
6.960000E+03	2.344330E-16	1.556625E-17
6.970000E+03	2.322957E-16	1.557250E-17
6.980000E+03	2.301811E-16	1.557194E-17
6.990000E+03	2.281222E-16	1.556713E-17
7.000000E+03	2.261103E-16	1.555781E-17
7.010000E+03	2.241366E-16	1.554367E-17
7.020000E+03	2.222314E-16	1.552712E-17
7.030000E+03	2.203714E-16	1.550683E-17
7.040000E+03	2.185852E-16	1.548511E-17
7.050000E+03	2.168488E-16	1.546054E-17
7.060000E+03	2.151893E-16	1.543532E-17
7.070000E+03	2.135820E-16	1.540793E-17
7.080000E+03	2.120529E-16	1.538050E-17
7.090000E+03	2.105767E-16	1.535142E-17
7.100000E+03	2.091659E-16	1.532182E-17
7.110000E+03	2.078321E-16	1.529276E-17
7.120000E+03	2.065497E-16	1.526255E-17
7.130000E+03	2.053299E-16	1.523221E-17
7.140000E+03	2.041714E-16	1.520179E-17
7.150000E+03	2.030726E-16	1.517135E-17
7.160000E+03	2.020317E-16	1.514089E-17
7.170000E+03	2.010469E-16	1.511041E-17
7.180000E+03	2.001161E-16	1.507989E-17
7.190000E+03	1.992372E-16	1.504928E-17
7.200000E+03	1.984082E-16	1.501852E-17
7.210000E+03	1.976267E-16	1.498754E-17
7.220000E+03	1.968787E-16	1.495535E-17
7.230000E+03	1.961856E-16	1.492366E-17
7.240000E+03	1.955214E-16	1.489056E-17
7.250000E+03	1.949075E-16	1.485773E-17
7.260000E+03	1.943181E-16	1.482326E-17
7.270000E+03	1.937743E-16	1.478881E-17
7.280000E+03	1.932505E-16	1.475246E-17
7.290000E+03	1.927562E-16	1.471497E-17
7.300000E+03	1.922893E-16	1.467620E-17
7.310000E+03	1.918478E-16	1.463602E-17
7.320000E+03	1.914294E-16	1.459427E-17
7.330000E+03	1.910323E-16	1.455083E-17
7.340000E+03	1.906546E-16	1.450554E-17
7.350000E+03	1.902828E-16	1.445739E-17
7.360000E+03	1.899383E-16	1.440801E-17
7.370000E+03	1.895963E-16	1.435549E-17
7.380000E+03	1.892784E-16	1.430146E-17
7.390000E+03	1.889598E-16	1.424405E-17
7.400000E+03	1.886508E-16	1.418399E-17
7.410000E+03	1.883501E-16	1.412118E-17
7.420000E+03	1.880564E-16	1.405550E-17
7.430000E+03	1.877685E-16	1.398683E-17
7.440000E+03	1.874741E-16	1.391423E-17
7.450000E+03	1.871952E-16	1.383929E-17
7.460000E+03	1.869080E-16	1.376023E-17
7.470000E+03	1.866349E-16	1.367866E-17
7.480000E+03	1.863524E-16	1.359281E-17
7.490000E+03	1.860714E-16	1.350345E-17
7.500000E+03	1.857916E-16	1.341052E-17
7.510000E+03	1.855015E-16	1.331314E-17
7.520000E+03	1.852238E-16	1.321291E-17
7.530000E+03	1.849471E-16	1.310895E-17
7.540000E+03	1.846600E-16	1.300042E-17
7.550000E+03	1.843743E-16	1.288809E-17
7.560000E+03	1.840902E-16	1.277195E-17
7.570000E+03	1.838082E-16	1.265196E-17
7.580000E+03	1.835288E-16	1.252810E-17
7.590000E+03	1.832412E-16	1.239958E-17
7.600000E+03	1.829688E-16	1.226795E-17
7.610000E+03	1.826897E-16	1.213165E-17
7.620000E+03	1.824159E-16	1.199144E-17
7.630000E+03	1.821483E-16	1.184731E-17
7.640000E+03	1.818878E-16	1.169925E-17
7.650000E+03	1.816240E-16	1.154652E-17
7.660000E+03	1.813805E-16	1.139058E-17
7.670000E+03	1.811356E-16	1.122996E-17
7.680000E+03	1.809015E-16	1.106536E-17
7.690000E+03	1.806792E-16	1.089678E-17
7.700000E+03	1.804696E-16	1.072419E-17
7.710000E+03	1.802621E-16	1.054689E-17
7.720000E+03	1.800805E-16	1.036619E-17
7.730000E+03	1.799025E-16	1.018075E-17
7.740000E+03	1.797404E-16	9.991205E-18
7.750000E+03	1.795948E-16	9.797510E-18
7.760000E+03	1.794545E-16	9.599028E-18
