#wls	flux	fluxerr
1.600000E+03	7.254855E-17	3.910071E-17
1.640000E+03	7.383925E-17	3.927509E-17
1.680000E+03	7.514842E-17	3.942777E-17
1.720000E+03	7.647473E-17	3.955688E-17
1.760000E+03	7.781671E-17	3.966050E-17
1.800000E+03	7.917272E-17	3.973670E-17
1.840000E+03	8.054103E-17	3.978352E-17
1.880000E+03	8.190579E-17	3.979225E-17
1.920000E+03	8.329264E-17	3.977450E-17
1.960000E+03	8.468565E-17	3.972160E-17
2.000000E+03	8.608250E-17	3.963168E-17
2.040000E+03	8.749539E-17	3.950959E-17
2.080000E+03	8.889262E-17	3.934036E-17
2.120000E+03	9.030095E-17	3.913558E-17
2.160000E+03	9.170294E-17	3.888720E-17
2.200000E+03	9.311098E-17	3.860029E-17
2.240000E+03	9.449166E-17	3.826102E-17
2.280000E+03	9.588828E-17	3.788731E-17
2.320000E+03	9.726715E-17	3.746588E-17
2.360000E+03	9.862520E-17	3.699642E-17
2.400000E+03	9.999129E-17	3.649064E-17
2.440000E+03	1.013149E-16	3.593112E-17
2.480000E+03	1.026412E-16	3.533574E-17
2.520000E+03	1.039355E-16	3.469408E-17
2.560000E+03	1.052280E-16	3.401846E-17
2.600000E+03	1.064838E-16	3.329993E-17
2.640000E+03	1.077172E-16	3.254626E-17
2.680000E+03	1.089268E-16	3.176035E-17
2.720000E+03	1.101114E-16	3.094568E-17
2.760000E+03	1.112703E-16	3.010636E-17
2.800000E+03	1.124036E-16	2.924713E-17
2.840000E+03	1.135286E-16	2.837752E-17
2.880000E+03	1.146302E-16	2.749902E-17
2.920000E+03	1.157110E-16	2.661817E-17
2.960000E+03	1.167748E-16	2.574207E-17
3.000000E+03	1.178269E-16	2.487817E-17
3.010000E+03	1.181003E-16	2.466741E-17
3.020000E+03	1.183714E-16	2.445753E-17
3.030000E+03	1.186238E-16	2.424527E-17
3.040000E+03	1.188908E-16	2.403762E-17
3.050000E+03	1.191726E-16	2.383460E-17
3.060000E+03	1.194360E-16	2.362965E-17
3.070000E+03	1.196980E-16	2.342627E-17
3.080000E+03	1.199752E-16	2.322782E-17
3.090000E+03	1.202346E-16	2.302795E-17
3.100000E+03	1.205097E-16	2.283321E-17
3.110000E+03	1.207840E-16	2.264049E-17
3.120000E+03	1.210744E-16	2.245302E-17
3.130000E+03	1.213478E-16	2.226472E-17
3.140000E+03	1.216211E-16	2.207884E-17
3.150000E+03	1.219112E-16	2.189846E-17
3.160000E+03	1.222016E-16	2.172066E-17
3.170000E+03	1.224927E-16	2.154557E-17
3.180000E+03	1.227848E-16	2.137328E-17
3.190000E+03	1.230780E-16	2.120390E-17
3.200000E+03	1.233728E-16	2.103754E-17
3.210000E+03	1.236859E-16	2.087710E-17
3.220000E+03	1.239846E-16	2.071703E-17
3.230000E+03	1.243023E-16	2.056300E-17
3.240000E+03	1.246229E-16	2.041230E-17
3.250000E+03	1.249466E-16	2.026499E-17
3.260000E+03	1.252903E-16	2.012383E-17
3.270000E+03	1.256214E-16	1.998352E-17
3.280000E+03	1.259733E-16	1.984942E-17
3.290000E+03	1.263133E-16	1.971635E-17
3.300000E+03	1.266749E-16	1.958956E-17
3.310000E+03	1.270420E-16	1.946647E-17
3.320000E+03	1.274149E-16	1.934713E-17
3.330000E+03	1.278108E-16	1.923406E-17
3.340000E+03	1.281968E-16	1.912228E-17
3.350000E+03	1.286066E-16	1.901677E-17
3.360000E+03	1.290240E-16	1.891507E-17
3.370000E+03	1.294330E-16	1.881476E-17
3.380000E+03	1.298671E-16	1.872070E-17
3.390000E+03	1.303269E-16	1.863281E-17
3.400000E+03	1.307796E-16	1.854632E-17
3.410000E+03	1.312589E-16	1.846596E-17
3.420000E+03	1.317321E-16	1.838699E-17
3.430000E+03	1.322328E-16	1.831407E-17
3.440000E+03	1.327450E-16	1.824480E-17
3.450000E+03	1.332692E-16	1.817917E-17
3.460000E+03	1.338058E-16	1.811712E-17
3.470000E+03	1.343553E-16	1.805860E-17
3.480000E+03	1.349349E-16	1.800578E-17
3.490000E+03	1.355284E-16	1.795636E-17
3.500000E+03	1.361195E-16	1.790806E-17
3.510000E+03	1.367422E-16	1.786523E-17
3.520000E+03	1.373802E-16	1.782557E-17
3.530000E+03	1.380340E-16	1.778901E-17
3.540000E+03	1.387207E-16	1.775762E-17
3.550000E+03	1.394073E-16	1.772697E-17
3.560000E+03	1.401277E-16	1.770128E-17
3.570000E+03	1.408487E-16	1.767615E-17
3.580000E+03	1.416045E-16	1.765575E-17
3.590000E+03	1.423784E-16	1.763781E-17
3.600000E+03	1.431709E-16	1.762223E-17
3.610000E+03	1.439823E-16	1.760886E-17
3.620000E+03	1.448129E-16	1.759759E-17
3.630000E+03	1.456802E-16	1.759035E-17
3.640000E+03	1.465499E-16	1.758283E-17
3.650000E+03	1.474569E-16	1.757904E-17
3.660000E+03	1.483842E-16	1.757672E-17
3.670000E+03	1.493318E-16	1.757573E-17
3.680000E+03	1.502999E-16	1.757589E-17
3.690000E+03	1.512886E-16	1.757701E-17
3.700000E+03	1.522979E-16	1.757892E-17
3.710000E+03	1.533280E-16	1.758143E-17
3.720000E+03	1.543787E-16	1.758432E-17
3.730000E+03	1.554679E-16	1.758942E-17
3.740000E+03	1.565777E-16	1.759447E-17
3.750000E+03	1.576900E-16	1.759724E-17
3.760000E+03	1.588406E-16	1.760153E-17
3.770000E+03	1.600113E-16	1.760508E-17
3.780000E+03	1.612018E-16	1.760765E-17
3.790000E+03	1.624119E-16	1.760898E-17
3.800000E+03	1.636411E-16	1.760881E-17
3.810000E+03	1.648890E-16	1.760687E-17
3.820000E+03	1.661738E-16	1.760484E-17
3.830000E+03	1.674579E-16	1.759852E-17
3.840000E+03	1.687593E-16	1.758958E-17
3.850000E+03	1.700961E-16	1.757966E-17
3.860000E+03	1.714302E-16	1.756459E-17
3.870000E+03	1.727986E-16	1.754792E-17
3.880000E+03	1.741817E-16	1.752740E-17
3.890000E+03	1.755789E-16	1.750273E-17
3.900000E+03	1.769700E-16	1.747168E-17
3.910000E+03	1.783926E-16	1.743774E-17
3.920000E+03	1.798266E-16	1.739870E-17
3.930000E+03	1.812712E-16	1.735422E-17
3.940000E+03	1.827254E-16	1.730399E-17
3.950000E+03	1.841883E-16	1.724771E-17
3.960000E+03	1.856785E-16	1.718689E-17
3.970000E+03	1.871557E-16	1.711755E-17
3.980000E+03	1.886385E-16	1.704125E-17
3.990000E+03	1.901258E-16	1.695770E-17
4.000000E+03	1.916167E-16	1.686663E-17
4.010000E+03	1.931303E-16	1.676953E-17
4.020000E+03	1.946251E-16	1.666264E-17
4.030000E+03	1.961202E-16	1.654750E-17
4.040000E+03	1.976353E-16	1.642562E-17
4.050000E+03	1.991283E-16	1.629339E-17
4.060000E+03	2.006186E-16	1.615239E-17
4.070000E+03	2.021261E-16	1.600415E-17
4.080000E+03	2.036084E-16	1.584526E-17
4.090000E+03	2.051063E-16	1.567897E-17
4.100000E+03	2.065771E-16	1.550203E-17
4.110000E+03	2.080409E-16	1.531612E-17
4.120000E+03	2.095183E-16	1.512288E-17
4.130000E+03	2.109661E-16	1.491939E-17
4.140000E+03	2.124049E-16	1.470743E-17
4.150000E+03	2.138558E-16	1.448876E-17
4.160000E+03	2.152753E-16	1.426083E-17
4.170000E+03	2.166846E-16	1.402561E-17
4.180000E+03	2.180834E-16	1.378368E-17
4.190000E+03	2.194933E-16	1.353709E-17
4.200000E+03	2.208707E-16	1.328393E-17
4.210000E+03	2.222373E-16	1.302656E-17
4.220000E+03	2.235933E-16	1.276608E-17
4.230000E+03	2.249389E-16	1.250381E-17
4.240000E+03	2.262744E-16	1.224122E-17
4.250000E+03	2.276001E-16	1.198001E-17
4.260000E+03	2.289168E-16	1.172209E-17
4.270000E+03	2.302249E-16	1.146964E-17
4.280000E+03	2.315028E-16	1.122396E-17
4.290000E+03	2.327960E-16	1.098992E-17
4.300000E+03	2.340832E-16	1.076932E-17
4.310000E+03	2.353426E-16	1.056430E-17
4.320000E+03	2.366206E-16	1.038023E-17
4.330000E+03	2.378728E-16	1.021859E-17
4.340000E+03	2.391231E-16	1.008390E-17
4.350000E+03	2.403728E-16	9.979619E-18
4.360000E+03	2.416228E-16	9.908989E-18
4.370000E+03	2.428745E-16	9.874888E-18
4.380000E+03	2.441288E-16	9.879635E-18
4.390000E+03	2.453868E-16	9.924782E-18
4.400000E+03	2.466493E-16	1.001080E-17
4.410000E+03	2.478938E-16	1.013613E-17
4.420000E+03	2.491671E-16	1.030121E-17
4.430000E+03	2.504232E-16	1.050207E-17
4.440000E+03	2.516857E-16	1.073714E-17
4.450000E+03	2.529549E-16	1.100360E-17
4.460000E+03	2.542309E-16	1.129846E-17
4.470000E+03	2.555138E-16	1.161870E-17
4.480000E+03	2.568039E-16	1.196132E-17
4.490000E+03	2.581012E-16	1.232346E-17
4.500000E+03	2.593820E-16	1.270123E-17
4.510000E+03	2.606698E-16	1.309316E-17
4.520000E+03	2.619647E-16	1.349692E-17
4.530000E+03	2.632665E-16	1.391033E-17
4.540000E+03	2.645751E-16	1.433140E-17
4.550000E+03	2.658903E-16	1.475835E-17
4.560000E+03	2.672118E-16	1.518952E-17
4.570000E+03	2.685152E-16	1.562204E-17
4.580000E+03	2.698242E-16	1.605588E-17
4.590000E+03	2.711383E-16	1.648981E-17
4.600000E+03	2.724572E-16	1.692273E-17
4.610000E+03	2.737802E-16	1.735361E-17
4.620000E+03	2.751069E-16	1.778152E-17
4.630000E+03	2.764119E-16	1.820399E-17
4.640000E+03	2.777191E-16	1.862178E-17
4.650000E+03	2.790277E-16	1.903415E-17
4.660000E+03	2.803367E-16	1.944043E-17
4.670000E+03	2.816455E-16	1.983999E-17
4.680000E+03	2.829281E-16	2.023045E-17
4.690000E+03	2.842333E-16	2.061478E-17
4.700000E+03	2.855102E-16	2.098887E-17
4.710000E+03	2.867827E-16	2.135399E-17
4.720000E+03	2.880496E-16	2.170967E-17
4.730000E+03	2.892845E-16	2.205354E-17
4.740000E+03	2.905367E-16	2.238896E-17
4.750000E+03	2.917546E-16	2.271166E-17
4.760000E+03	2.929620E-16	2.302315E-17
4.770000E+03	2.941324E-16	2.332104E-17
4.780000E+03	2.953154E-16	2.360895E-17
4.790000E+03	2.964588E-16	2.388248E-17
4.800000E+03	2.976124E-16	2.414536E-17
4.810000E+03	2.987240E-16	2.439314E-17
4.820000E+03	2.997922E-16	2.462544E-17
4.830000E+03	3.008673E-16	2.484614E-17
4.840000E+03	3.018968E-16	2.505072E-17
4.850000E+03	3.029053E-16	2.524100E-17
4.860000E+03	3.038920E-16	2.541672E-17
4.870000E+03	3.048557E-16	2.557761E-17
4.880000E+03	3.057699E-16	2.572125E-17
4.890000E+03	3.066855E-16	2.585176E-17
4.900000E+03	3.075500E-16	2.596455E-17
4.910000E+03	3.083627E-16	2.605940E-17
4.920000E+03	3.091749E-16	2.614053E-17
4.930000E+03	3.099344E-16	2.620335E-17
4.940000E+03	3.106926E-16	2.625212E-17
4.950000E+03	3.113973E-16	2.628230E-17
4.960000E+03	3.120483E-16	2.629374E-17
4.970000E+03	3.126975E-16	2.629076E-17
4.980000E+03	3.132928E-16	2.626886E-17
4.990000E+03	3.138604E-16	2.623017E-17
5.000000E+03	3.144003E-16	2.617461E-17
5.010000E+03	3.149129E-16	2.610215E-17
5.020000E+03	3.153721E-16	2.601058E-17
5.030000E+03	3.158046E-16	2.590208E-17
5.040000E+03	3.162108E-16	2.577663E-17
5.050000E+03	3.165910E-16	2.563425E-17
5.060000E+03	3.169196E-16	2.547285E-17
5.070000E+03	3.172235E-16	2.529461E-17
5.080000E+03	3.175030E-16	2.509959E-17
5.090000E+03	3.177588E-16	2.488784E-17
5.100000E+03	3.179914E-16	2.465944E-17
5.110000E+03	3.181755E-16	2.441249E-17
5.120000E+03	3.183376E-16	2.414915E-17
5.130000E+03	3.184784E-16	2.386953E-17
5.140000E+03	3.185984E-16	2.357377E-17
5.150000E+03	3.186721E-16	2.326015E-17
5.160000E+03	3.187520E-16	2.293266E-17
5.170000E+03	3.187866E-16	2.258773E-17
5.180000E+03	3.187764E-16	2.222569E-17
5.190000E+03	3.187735E-16	2.185044E-17
5.200000E+03	3.187264E-16	2.145868E-17
5.210000E+03	3.186613E-16	2.105255E-17
5.220000E+03	3.185782E-16	2.063241E-17
5.230000E+03	3.184774E-16	2.019869E-17
5.240000E+03	3.183330E-16	1.975025E-17
5.250000E+03	3.181965E-16	1.929087E-17
5.260000E+03	3.180163E-16	1.881800E-17
5.270000E+03	3.177924E-16	1.833246E-17
5.280000E+03	3.175758E-16	1.783805E-17
5.290000E+03	3.173149E-16	1.733277E-17
5.300000E+03	3.170350E-16	1.681917E-17
5.310000E+03	3.167357E-16	1.629846E-17
5.320000E+03	3.164165E-16	1.577204E-17
5.330000E+03	3.160769E-16	1.524154E-17
5.340000E+03	3.156909E-16	1.470767E-17
5.350000E+03	3.152836E-16	1.417386E-17
5.360000E+03	3.148542E-16	1.364265E-17
5.370000E+03	3.143770E-16	1.311593E-17
5.380000E+03	3.139017E-16	1.259923E-17
5.390000E+03	3.133775E-16	1.209442E-17
5.400000E+03	3.128290E-16	1.160705E-17
5.410000E+03	3.122556E-16	1.114226E-17
5.420000E+03	3.116567E-16	1.070583E-17
5.430000E+03	3.110071E-16	1.030335E-17
5.440000E+03	3.103312E-16	9.942593E-18
5.450000E+03	3.096287E-16	9.630741E-18
5.460000E+03	3.088991E-16	9.374896E-18
5.470000E+03	3.081423E-16	9.181587E-18
5.480000E+03	3.073336E-16	9.055425E-18
5.490000E+03	3.064972E-16	9.000591E-18
5.500000E+03	3.056333E-16	9.017729E-18
5.510000E+03	3.047421E-16	9.104124E-18
5.520000E+03	3.038241E-16	9.254603E-18
5.530000E+03	3.028555E-16	9.461670E-18
5.540000E+03	3.018852E-16	9.719201E-18
5.550000E+03	3.008657E-16	1.001780E-17
5.560000E+03	2.998219E-16	1.035054E-17
5.570000E+03	2.987306E-16	1.070940E-17
5.580000E+03	2.976404E-16	1.108955E-17
5.590000E+03	2.965048E-16	1.148352E-17
5.600000E+03	2.953485E-16	1.188713E-17
5.610000E+03	2.941727E-16	1.229607E-17
5.620000E+03	2.929785E-16	1.270666E-17
5.630000E+03	2.917670E-16	1.311578E-17
5.640000E+03	2.905167E-16	1.351972E-17
5.650000E+03	2.892748E-16	1.391838E-17
5.660000E+03	2.879968E-16	1.430776E-17
5.670000E+03	2.867072E-16	1.468738E-17
5.680000E+03	2.854073E-16	1.505598E-17
5.690000E+03	2.840762E-16	1.541132E-17
5.700000E+03	2.827602E-16	1.575494E-17
5.710000E+03	2.814161E-16	1.608371E-17
5.720000E+03	2.800677E-16	1.639832E-17
5.730000E+03	2.787164E-16	1.669835E-17
5.740000E+03	2.773638E-16	1.698351E-17
5.750000E+03	2.760111E-16	1.725356E-17
5.760000E+03	2.746381E-16	1.750700E-17
5.770000E+03	2.732895E-16	1.774649E-17
5.780000E+03	2.719235E-16	1.796923E-17
5.790000E+03	2.705629E-16	1.817664E-17
5.800000E+03	2.692089E-16	1.836879E-17
5.810000E+03	2.678626E-16	1.854577E-17
5.820000E+03	2.665252E-16	1.870773E-17
5.830000E+03	2.651766E-16	1.885332E-17
5.840000E+03	2.638391E-16	1.898420E-17
5.850000E+03	2.625342E-16	1.910204E-17
5.860000E+03	2.612213E-16	1.920406E-17
5.870000E+03	2.599218E-16	1.929194E-17
5.880000E+03	2.586365E-16	1.936591E-17
5.890000E+03	2.573457E-16	1.942465E-17
5.900000E+03	2.560907E-16	1.947142E-17
5.910000E+03	2.548315E-16	1.950339E-17
5.920000E+03	2.536089E-16	1.952383E-17
5.930000E+03	2.523831E-16	1.952988E-17
5.940000E+03	2.511746E-16	1.952328E-17
5.950000E+03	2.499837E-16	1.950423E-17
5.960000E+03	2.488107E-16	1.947293E-17
5.970000E+03	2.476363E-16	1.942803E-17
5.980000E+03	2.464998E-16	1.937279E-17
5.990000E+03	2.453624E-16	1.930431E-17
6.000000E+03	2.442630E-16	1.922582E-17
6.010000E+03	2.431632E-16	1.913444E-17
6.020000E+03	2.420825E-16	1.903185E-17
6.030000E+03	2.410208E-16	1.891820E-17
6.040000E+03	2.399785E-16	1.879365E-17
6.050000E+03	2.389555E-16	1.865831E-17
6.060000E+03	2.379332E-16	1.851088E-17
6.070000E+03	2.369493E-16	1.835440E-17
6.080000E+03	2.359853E-16	1.818754E-17
6.090000E+03	2.350227E-16	1.800898E-17
6.100000E+03	2.340803E-16	1.782029E-17
6.110000E+03	2.331769E-16	1.762298E-17
6.120000E+03	2.322757E-16	1.741435E-17
6.130000E+03	2.313955E-16	1.719592E-17
6.140000E+03	2.305367E-16	1.696778E-17
6.150000E+03	2.296813E-16	1.672872E-17
6.160000E+03	2.288662E-16	1.648150E-17
6.170000E+03	2.280735E-16	1.622487E-17
6.180000E+03	2.272856E-16	1.595766E-17
6.190000E+03	2.265390E-16	1.568250E-17
6.200000E+03	2.257982E-16	1.539699E-17
6.210000E+03	2.250996E-16	1.510368E-17
6.220000E+03	2.244079E-16	1.480024E-17
6.230000E+03	2.237414E-16	1.448798E-17
6.240000E+03	2.231008E-16	1.416701E-17
6.250000E+03	2.224865E-16	1.383743E-17
6.260000E+03	2.218990E-16	1.349933E-17
6.270000E+03	2.213388E-16	1.315285E-17
6.280000E+03	2.208063E-16	1.279810E-17
6.290000E+03	2.202847E-16	1.243424E-17
6.300000E+03	2.198092E-16	1.206344E-17
6.310000E+03	2.193628E-16	1.168488E-17
6.320000E+03	2.189285E-16	1.129787E-17
6.330000E+03	2.185413E-16	1.090452E-17
6.340000E+03	2.181667E-16	1.050339E-17
6.350000E+03	2.178224E-16	1.009576E-17
6.360000E+03	2.175258E-16	9.682888E-18
6.370000E+03	2.172424E-16	9.263807E-18
6.380000E+03	2.169894E-16	8.840065E-18
6.390000E+03	2.167668E-16	8.412598E-18
6.400000E+03	2.165744E-16	7.982590E-18
6.410000E+03	2.164121E-16	7.551542E-18
6.420000E+03	2.162797E-16	7.121368E-18
6.430000E+03	2.161767E-16	6.694530E-18
6.440000E+03	2.160855E-16	6.273698E-18
6.450000E+03	2.160402E-16	5.864012E-18
6.460000E+03	2.160231E-16	5.470246E-18
6.470000E+03	2.160336E-16	5.099223E-18
6.480000E+03	2.160539E-16	4.759204E-18
6.490000E+03	2.161180E-16	4.461601E-18
6.500000E+03	2.161906E-16	4.218049E-18
6.510000E+03	2.163055E-16	4.042422E-18
6.520000E+03	2.164272E-16	3.946084E-18
6.530000E+03	2.165715E-16	3.937512E-18
6.540000E+03	2.167534E-16	4.018496E-18
6.550000E+03	2.169350E-16	4.182636E-18
6.560000E+03	2.171298E-16	4.419581E-18
6.570000E+03	2.173338E-16	4.716579E-18
6.580000E+03	2.175430E-16	5.061018E-18
6.590000E+03	2.177533E-16	5.441692E-18
6.600000E+03	2.179607E-16	5.849245E-18
6.610000E+03	2.181615E-16	6.276118E-18
6.620000E+03	2.183518E-16	6.716296E-18
6.630000E+03	2.185283E-16	7.165009E-18
6.640000E+03	2.186875E-16	7.618460E-18
6.650000E+03	2.188262E-16	8.073599E-18
6.660000E+03	2.189415E-16	8.527952E-18
6.670000E+03	2.190305E-16	8.979488E-18
6.680000E+03	2.190732E-16	9.425759E-18
6.690000E+03	2.191024E-16	9.866839E-18
6.700000E+03	2.190987E-16	1.030080E-17
6.710000E+03	2.190423E-16	1.072577E-17
6.720000E+03	2.189672E-16	1.114256E-17
6.730000E+03	2.188367E-16	1.154867E-17
6.740000E+03	2.186854E-16	1.194528E-17
6.750000E+03	2.184770E-16	1.232996E-17
6.760000E+03	2.182465E-16	1.270421E-17
6.770000E+03	2.179585E-16	1.306561E-17
6.780000E+03	2.176483E-16	1.341596E-17
6.790000E+03	2.172810E-16	1.375284E-17
6.800000E+03	2.168749E-16	1.407714E-17
6.810000E+03	2.164485E-16	1.438990E-17
6.820000E+03	2.159676E-16	1.468873E-17
6.830000E+03	2.154510E-16	1.497476E-17
6.840000E+03	2.149002E-16	1.524801E-17
6.850000E+03	2.143345E-16	1.550981E-17
6.860000E+03	2.137204E-16	1.575777E-17
6.870000E+03	2.130775E-16	1.599328E-17
6.880000E+03	2.124077E-16	1.621652E-17
6.890000E+03	2.117132E-16	1.642771E-17
6.900000E+03	2.109962E-16	1.662708E-17
6.910000E+03	2.102587E-16	1.681490E-17
6.920000E+03	2.095032E-16	1.699147E-17
6.930000E+03	2.087318E-16	1.715708E-17
6.940000E+03	2.079298E-16	1.731064E-17
6.950000E+03	2.071335E-16	1.745530E-17
6.960000E+03	2.063280E-16	1.759001E-17
6.970000E+03	2.055155E-16	1.771511E-17
6.980000E+03	2.046812E-16	1.782948E-17
6.990000E+03	2.038608E-16	1.793639E-17
7.000000E+03	2.030393E-16	1.803475E-17
7.010000E+03	2.022020E-16	1.812340E-17
7.020000E+03	2.013839E-16	1.820567E-17
7.030000E+03	2.005533E-16	1.827888E-17
7.040000E+03	1.997449E-16	1.834638E-17
7.050000E+03	1.989271E-16	1.840546E-17
7.060000E+03	1.981341E-16	1.845944E-17
7.070000E+03	1.973341E-16	1.850558E-17
7.080000E+03	1.965448E-16	1.854566E-17
7.090000E+03	1.957831E-16	1.858149E-17
7.100000E+03	1.950174E-16	1.861024E-17
7.110000E+03	1.942647E-16	1.863366E-17
7.120000E+03	1.935256E-16	1.865198E-17
7.130000E+03	1.928164E-16	1.866695E-17
7.140000E+03	1.921057E-16	1.867563E-17
7.150000E+03	1.914095E-16	1.867975E-17
7.160000E+03	1.907282E-16	1.867946E-17
7.170000E+03	1.900619E-16	1.867489E-17
7.180000E+03	1.894104E-16	1.866616E-17
7.190000E+03	1.887581E-16	1.865181E-17
7.200000E+03	1.881362E-16	1.863505E-17
7.210000E+03	1.875288E-16	1.861440E-17
7.220000E+03	1.869356E-16	1.858992E-17
7.230000E+03	1.863407E-16	1.856011E-17
7.240000E+03	1.857748E-16	1.852812E-17
7.250000E+03	1.852220E-16	1.849241E-17
7.260000E+03	1.846663E-16	1.845146E-17
7.270000E+03	1.841227E-16	1.840682E-17
7.280000E+03	1.836061E-16	1.836003E-17
7.290000E+03	1.830850E-16	1.830800E-17
7.300000E+03	1.825897E-16	1.825379E-17
7.310000E+03	1.820888E-16	1.819429E-17
7.320000E+03	1.815971E-16	1.813101E-17
7.330000E+03	1.811140E-16	1.806392E-17
7.340000E+03	1.806387E-16	1.799297E-17
7.350000E+03	1.801708E-16	1.791811E-17
7.360000E+03	1.797096E-16	1.783928E-17
7.370000E+03	1.792544E-16	1.775644E-17
7.380000E+03	1.788046E-16	1.766952E-17
7.390000E+03	1.783597E-16	1.757845E-17
7.400000E+03	1.779040E-16	1.748170E-17
7.410000E+03	1.774671E-16	1.738216E-17
7.420000E+03	1.770184E-16	1.727683E-17
7.430000E+03	1.765873E-16	1.716856E-17
7.440000E+03	1.761435E-16	1.705437E-17
7.450000E+03	1.757164E-16	1.693711E-17
7.460000E+03	1.752756E-16	1.681381E-17
7.470000E+03	1.748358E-16	1.668586E-17
7.480000E+03	1.743965E-16	1.655321E-17
7.490000E+03	1.739723E-16	1.641718E-17
7.500000E+03	1.735332E-16	1.627492E-17
7.510000E+03	1.730938E-16	1.612777E-17
7.520000E+03	1.726391E-16	1.597432E-17
7.530000E+03	1.721983E-16	1.581726E-17
7.540000E+03	1.717567E-16	1.565516E-17
7.550000E+03	1.713140E-16	1.548798E-17
7.560000E+03	1.708556E-16	1.531437E-17
7.570000E+03	1.704106E-16	1.513692E-17
7.580000E+03	1.699498E-16	1.495299E-17
7.590000E+03	1.694878E-16	1.476386E-17
7.600000E+03	1.690393E-16	1.457077E-17
7.610000E+03	1.685752E-16	1.437116E-17
7.620000E+03	1.681101E-16	1.416629E-17
7.630000E+03	1.676441E-16	1.395615E-17
7.640000E+03	1.671775E-16	1.374072E-17
7.650000E+03	1.667103E-16	1.352000E-17
7.660000E+03	1.662284E-16	1.329285E-17
7.670000E+03	1.657609E-16	1.306159E-17
7.680000E+03	1.652934E-16	1.282506E-17
7.690000E+03	1.648120E-16	1.258219E-17
7.700000E+03	1.643313E-16	1.233414E-17
7.710000E+03	1.638659E-16	1.208200E-17
7.720000E+03	1.633874E-16	1.182368E-17
7.730000E+03	1.629106E-16	1.156032E-17
7.740000E+03	1.624356E-16	1.129198E-17
7.750000E+03	1.619630E-16	1.101874E-17
7.760000E+03	1.614930E-16	1.074069E-17
