#wls	flux	fluxerr
1.600000E+03	6.765798E-17	3.668325E-17
1.640000E+03	6.882433E-17	3.683785E-17
1.680000E+03	6.999550E-17	3.696685E-17
1.720000E+03	7.119450E-17	3.708147E-17
1.760000E+03	7.239570E-17	3.716723E-17
1.800000E+03	7.359725E-17	3.722252E-17
1.840000E+03	7.482289E-17	3.725851E-17
1.880000E+03	7.604561E-17	3.726077E-17
1.920000E+03	7.728962E-17	3.724046E-17
1.960000E+03	7.852703E-17	3.718330E-17
2.000000E+03	7.976902E-17	3.709414E-17
2.040000E+03	8.102734E-17	3.697777E-17
2.080000E+03	8.227285E-17	3.682032E-17
2.120000E+03	8.351699E-17	3.662684E-17
2.160000E+03	8.477176E-17	3.640227E-17
2.200000E+03	8.602117E-17	3.613944E-17
2.240000E+03	8.724863E-17	3.583166E-17
2.280000E+03	8.848059E-17	3.549023E-17
2.320000E+03	8.971525E-17	3.511454E-17
2.360000E+03	9.092127E-17	3.469292E-17
2.400000E+03	9.212600E-17	3.423693E-17
2.440000E+03	9.332779E-17	3.374672E-17
2.480000E+03	9.449488E-17	3.321217E-17
2.520000E+03	9.567089E-17	3.265039E-17
2.560000E+03	9.680906E-17	3.204702E-17
2.600000E+03	9.793868E-17	3.141432E-17
2.640000E+03	9.905915E-17	3.075431E-17
2.680000E+03	1.001702E-16	3.006949E-17
2.720000E+03	1.012409E-16	2.935376E-17
2.760000E+03	1.023186E-16	2.862449E-17
2.800000E+03	1.033734E-16	2.787669E-17
2.840000E+03	1.044229E-16	2.711919E-17
2.880000E+03	1.054702E-16	2.635677E-17
2.920000E+03	1.065034E-16	2.559082E-17
2.960000E+03	1.075432E-16	2.483091E-17
3.000000E+03	1.085960E-16	2.408284E-17
3.010000E+03	1.088690E-16	2.389988E-17
3.020000E+03	1.091414E-16	2.371767E-17
3.030000E+03	1.093976E-16	2.353290E-17
3.040000E+03	1.096694E-16	2.335253E-17
3.050000E+03	1.099410E-16	2.317323E-17
3.060000E+03	1.102127E-16	2.299509E-17
3.070000E+03	1.104845E-16	2.281824E-17
3.080000E+03	1.107726E-16	2.264600E-17
3.090000E+03	1.110455E-16	2.247197E-17
3.100000E+03	1.113349E-16	2.230271E-17
3.110000E+03	1.116094E-16	2.213192E-17
3.120000E+03	1.119009E-16	2.196603E-17
3.130000E+03	1.121937E-16	2.180197E-17
3.140000E+03	1.124882E-16	2.163983E-17
3.150000E+03	1.127844E-16	2.147970E-17
3.160000E+03	1.130827E-16	2.132167E-17
3.170000E+03	1.133991E-16	2.116881E-17
3.180000E+03	1.137022E-16	2.101524E-17
3.190000E+03	1.140239E-16	2.086694E-17
3.200000E+03	1.143327E-16	2.071816E-17
3.210000E+03	1.146608E-16	2.057477E-17
3.220000E+03	1.149924E-16	2.043393E-17
3.230000E+03	1.153279E-16	2.029571E-17
3.240000E+03	1.156675E-16	2.016020E-17
3.250000E+03	1.160116E-16	2.002744E-17
3.260000E+03	1.163605E-16	1.989751E-17
3.270000E+03	1.167304E-16	1.977317E-17
3.280000E+03	1.170896E-16	1.964905E-17
3.290000E+03	1.174706E-16	1.953057E-17
3.300000E+03	1.178576E-16	1.941509E-17
3.310000E+03	1.182510E-16	1.930264E-17
3.320000E+03	1.186511E-16	1.919326E-17
3.330000E+03	1.190583E-16	1.908700E-17
3.340000E+03	1.194728E-16	1.898387E-17
3.350000E+03	1.198951E-16	1.888391E-17
3.360000E+03	1.203416E-16	1.878965E-17
3.370000E+03	1.207805E-16	1.869606E-17
3.380000E+03	1.212444E-16	1.860815E-17
3.390000E+03	1.217012E-16	1.852096E-17
3.400000E+03	1.221839E-16	1.843944E-17
3.410000E+03	1.226764E-16	1.836110E-17
3.420000E+03	1.231793E-16	1.828592E-17
3.430000E+03	1.236928E-16	1.821391E-17
3.440000E+03	1.242336E-16	1.814741E-17
3.450000E+03	1.247695E-16	1.808164E-17
3.460000E+03	1.253172E-16	1.801895E-17
3.470000E+03	1.258933E-16	1.796165E-17
3.480000E+03	1.264655E-16	1.790500E-17
3.490000E+03	1.270669E-16	1.785364E-17
3.500000E+03	1.276815E-16	1.780517E-17
3.510000E+03	1.283095E-16	1.775953E-17
3.520000E+03	1.289514E-16	1.771667E-17
3.530000E+03	1.296073E-16	1.767651E-17
3.540000E+03	1.302777E-16	1.763898E-17
3.550000E+03	1.309627E-16	1.760401E-17
3.560000E+03	1.316794E-16	1.757375E-17
3.570000E+03	1.323947E-16	1.754361E-17
3.580000E+03	1.331422E-16	1.751798E-17
3.590000E+03	1.338886E-16	1.749231E-17
3.600000E+03	1.346679E-16	1.747090E-17
3.610000E+03	1.354633E-16	1.745143E-17
3.620000E+03	1.362750E-16	1.743378E-17
3.630000E+03	1.371033E-16	1.741782E-17
3.640000E+03	1.379482E-16	1.740342E-17
3.650000E+03	1.388097E-16	1.739043E-17
3.660000E+03	1.396881E-16	1.737870E-17
3.670000E+03	1.405834E-16	1.736809E-17
3.680000E+03	1.414955E-16	1.735842E-17
3.690000E+03	1.424420E-16	1.735166E-17
3.700000E+03	1.433880E-16	1.734337E-17
3.710000E+03	1.443684E-16	1.733762E-17
3.720000E+03	1.453479E-16	1.732997E-17
3.730000E+03	1.463618E-16	1.732445E-17
3.740000E+03	1.473923E-16	1.731876E-17
3.750000E+03	1.484392E-16	1.731266E-17
3.760000E+03	1.494842E-16	1.730386E-17
3.770000E+03	1.505632E-16	1.729631E-17
3.780000E+03	1.516578E-16	1.728769E-17
3.790000E+03	1.527677E-16	1.727776E-17
3.800000E+03	1.538927E-16	1.726626E-17
3.810000E+03	1.550323E-16	1.725296E-17
3.820000E+03	1.562047E-16	1.723965E-17
3.830000E+03	1.573723E-16	1.722194E-17
3.840000E+03	1.585532E-16	1.720165E-17
3.850000E+03	1.597469E-16	1.717848E-17
3.860000E+03	1.609718E-16	1.715420E-17
3.870000E+03	1.621895E-16	1.712446E-17
3.880000E+03	1.634373E-16	1.709302E-17
3.890000E+03	1.646766E-16	1.705559E-17
3.900000E+03	1.659449E-16	1.701587E-17
3.910000E+03	1.672032E-16	1.696961E-17
3.920000E+03	1.684894E-16	1.692047E-17
3.930000E+03	1.697638E-16	1.686423E-17
3.940000E+03	1.710650E-16	1.680453E-17
3.950000E+03	1.723726E-16	1.673913E-17
3.960000E+03	1.736660E-16	1.666585E-17
3.970000E+03	1.749842E-16	1.658825E-17
3.980000E+03	1.763065E-16	1.650416E-17
3.990000E+03	1.776121E-16	1.641145E-17
4.000000E+03	1.789404E-16	1.631366E-17
4.010000E+03	1.802707E-16	1.620866E-17
4.020000E+03	1.815817E-16	1.609444E-17
4.030000E+03	1.829135E-16	1.597445E-17
4.040000E+03	1.842452E-16	1.584670E-17
4.050000E+03	1.855759E-16	1.571102E-17
4.060000E+03	1.868842E-16	1.556557E-17
4.070000E+03	1.882112E-16	1.541375E-17
4.080000E+03	1.895355E-16	1.525372E-17
4.090000E+03	1.908564E-16	1.508547E-17
4.100000E+03	1.921524E-16	1.490735E-17
4.110000E+03	1.934654E-16	1.472273E-17
4.120000E+03	1.947738E-16	1.453005E-17
4.130000E+03	1.960558E-16	1.432789E-17
4.140000E+03	1.973540E-16	1.411963E-17
4.150000E+03	1.986470E-16	1.390396E-17
4.160000E+03	1.999126E-16	1.367973E-17
4.170000E+03	2.011945E-16	1.345041E-17
4.180000E+03	2.024488E-16	1.321356E-17
4.190000E+03	2.037197E-16	1.297273E-17
4.200000E+03	2.049633E-16	1.272582E-17
4.210000E+03	2.062240E-16	1.247651E-17
4.220000E+03	2.074579E-16	1.222310E-17
4.230000E+03	2.086875E-16	1.196816E-17
4.240000E+03	2.099359E-16	1.171431E-17
4.250000E+03	2.111588E-16	1.146061E-17
4.260000E+03	2.123795E-16	1.121011E-17
4.270000E+03	2.135986E-16	1.096486E-17
4.280000E+03	2.148172E-16	1.072713E-17
4.290000E+03	2.160363E-16	1.049946E-17
4.300000E+03	2.172569E-16	1.028466E-17
4.310000E+03	2.184803E-16	1.008579E-17
4.320000E+03	2.197078E-16	9.906121E-18
4.330000E+03	2.209406E-16	9.749116E-18
4.340000E+03	2.221570E-16	9.617316E-18
4.350000E+03	2.234048E-16	9.516274E-18
4.360000E+03	2.246622E-16	9.448332E-18
4.370000E+03	2.259073E-16	9.415519E-18
4.380000E+03	2.271645E-16	9.421229E-18
4.390000E+03	2.284586E-16	9.467999E-18
4.400000E+03	2.297429E-16	9.554401E-18
4.410000E+03	2.310412E-16	9.680875E-18
4.420000E+03	2.323535E-16	9.845983E-18
4.430000E+03	2.336793E-16	1.004761E-17
4.440000E+03	2.350185E-16	1.028316E-17
4.450000E+03	2.363705E-16	1.054979E-17
4.460000E+03	2.377348E-16	1.084447E-17
4.470000E+03	2.390865E-16	1.116307E-17
4.480000E+03	2.404738E-16	1.150484E-17
4.490000E+03	2.418472E-16	1.186467E-17
4.500000E+03	2.432306E-16	1.224102E-17
4.510000E+03	2.446233E-16	1.263139E-17
4.520000E+03	2.460494E-16	1.303481E-17
4.530000E+03	2.474342E-16	1.344524E-17
4.540000E+03	2.488511E-16	1.386469E-17
4.550000E+03	2.502749E-16	1.429012E-17
4.560000E+03	2.517048E-16	1.471993E-17
4.570000E+03	2.531150E-16	1.515116E-17
4.580000E+03	2.545296E-16	1.558394E-17
4.590000E+03	2.559734E-16	1.601865E-17
4.600000E+03	2.573950E-16	1.645105E-17
4.610000E+03	2.588187E-16	1.688169E-17
4.620000E+03	2.602439E-16	1.730965E-17
4.630000E+03	2.616438E-16	1.773231E-17
4.640000E+03	2.630691E-16	1.815236E-17
4.650000E+03	2.644931E-16	1.856734E-17
4.660000E+03	2.658890E-16	1.897470E-17
4.670000E+03	2.672815E-16	1.937560E-17
4.680000E+03	2.686698E-16	1.976942E-17
4.690000E+03	2.700528E-16	2.015559E-17
4.700000E+03	2.714295E-16	2.053357E-17
4.710000E+03	2.727725E-16	2.090081E-17
4.720000E+03	2.741334E-16	2.126086E-17
4.730000E+03	2.754583E-16	2.160915E-17
4.740000E+03	2.767992E-16	2.194938E-17
4.750000E+03	2.781018E-16	2.227691E-17
4.760000E+03	2.793916E-16	2.259341E-17
4.770000E+03	2.806405E-16	2.289630E-17
4.780000E+03	2.819014E-16	2.318954E-17
4.790000E+03	2.831193E-16	2.346836E-17
4.800000E+03	2.843471E-16	2.373686E-17
4.810000E+03	2.855298E-16	2.399018E-17
4.820000E+03	2.866932E-16	2.423024E-17
4.830000E+03	2.878366E-16	2.445671E-17
4.840000E+03	2.889316E-16	2.466696E-17
4.850000E+03	2.900320E-16	2.486534E-17
4.860000E+03	2.910821E-16	2.504689E-17
4.870000E+03	2.921086E-16	2.521366E-17
4.880000E+03	2.931384E-16	2.536782E-17
4.890000E+03	2.940878E-16	2.550192E-17
4.900000E+03	2.950391E-16	2.562292E-17
4.910000E+03	2.959641E-16	2.572821E-17
4.920000E+03	2.968344E-16	2.581516E-17
4.930000E+03	2.976772E-16	2.588599E-17
4.940000E+03	2.984923E-16	2.594053E-17
4.950000E+03	2.992792E-16	2.597863E-17
4.960000E+03	3.000377E-16	2.600013E-17
4.970000E+03	3.007675E-16	2.600490E-17
4.980000E+03	3.014404E-16	2.599040E-17
4.990000E+03	3.020842E-16	2.595896E-17
5.000000E+03	3.027272E-16	2.591291E-17
5.010000E+03	3.032848E-16	2.584493E-17
5.020000E+03	3.038415E-16	2.576221E-17
5.030000E+03	3.043694E-16	2.566229E-17
5.040000E+03	3.048402E-16	2.554278E-17
5.050000E+03	3.052824E-16	2.540605E-17
5.060000E+03	3.057244E-16	2.525445E-17
5.070000E+03	3.060818E-16	2.508100E-17
5.080000E+03	3.064396E-16	2.489273E-17
5.090000E+03	3.067698E-16	2.468736E-17
5.100000E+03	3.070445E-16	2.446272E-17
5.110000E+03	3.072923E-16	2.422118E-17
5.120000E+03	3.075416E-16	2.396506E-17
5.130000E+03	3.077083E-16	2.368788E-17
5.140000E+03	3.078773E-16	2.339640E-17
5.150000E+03	3.080207E-16	2.308859E-17
5.160000E+03	3.081107E-16	2.276257E-17
5.170000E+03	3.081757E-16	2.242070E-17
5.180000E+03	3.082442E-16	2.206526E-17
5.190000E+03	3.082321E-16	2.169051E-17
5.200000E+03	3.082240E-16	2.130281E-17
5.210000E+03	3.081919E-16	2.090051E-17
5.220000E+03	3.081081E-16	2.048218E-17
5.230000E+03	3.080008E-16	2.005023E-17
5.240000E+03	3.078981E-16	1.960696E-17
5.250000E+03	3.077161E-16	1.914765E-17
5.260000E+03	3.075388E-16	1.867831E-17
5.270000E+03	3.073382E-16	1.819793E-17
5.280000E+03	3.070866E-16	1.770578E-17
5.290000E+03	3.068395E-16	1.720610E-17
5.300000E+03	3.065413E-16	1.669686E-17
5.310000E+03	3.062197E-16	1.618096E-17
5.320000E+03	3.058469E-16	1.565845E-17
5.330000E+03	3.054780E-16	1.513391E-17
5.340000E+03	3.050577E-16	1.460648E-17
5.350000E+03	3.046408E-16	1.408109E-17
5.360000E+03	3.041722E-16	1.355772E-17
5.370000E+03	3.036791E-16	1.304062E-17
5.380000E+03	3.031612E-16	1.253319E-17
5.390000E+03	3.025913E-16	1.203823E-17
5.400000E+03	3.020234E-16	1.156237E-17
5.410000E+03	3.014031E-16	1.110850E-17
5.420000E+03	3.007843E-16	1.068422E-17
5.430000E+03	3.001129E-16	1.029368E-17
5.440000E+03	2.994157E-16	9.944377E-18
5.450000E+03	2.986660E-16	9.642135E-18
5.460000E+03	2.979174E-16	9.395200E-18
5.470000E+03	2.971164E-16	9.207695E-18
5.480000E+03	2.963165E-16	9.085853E-18
5.490000E+03	2.954649E-16	9.030722E-18
5.500000E+03	2.945885E-16	9.043437E-18
5.510000E+03	2.936878E-16	9.121811E-18
5.520000E+03	2.927373E-16	9.260633E-18
5.530000E+03	2.917901E-16	9.455554E-18
5.540000E+03	2.908207E-16	9.698831E-18
5.550000E+03	2.898042E-16	9.982290E-18
5.560000E+03	2.887674E-16	1.029957E-17
5.570000E+03	2.877115E-16	1.064388E-17
5.580000E+03	2.866374E-16	1.100901E-17
5.590000E+03	2.855463E-16	1.138942E-17
5.600000E+03	2.844138E-16	1.177918E-17
5.610000E+03	2.832919E-16	1.217616E-17
5.620000E+03	2.821311E-16	1.257460E-17
5.630000E+03	2.809579E-16	1.297247E-17
5.640000E+03	2.797736E-16	1.336717E-17
5.650000E+03	2.785791E-16	1.375648E-17
5.660000E+03	2.773758E-16	1.413855E-17
5.670000E+03	2.761648E-16	1.451184E-17
5.680000E+03	2.749227E-16	1.487374E-17
5.690000E+03	2.736997E-16	1.522577E-17
5.700000E+03	2.724482E-16	1.556440E-17
5.710000E+03	2.711938E-16	1.589023E-17
5.720000E+03	2.699374E-16	1.620268E-17
5.730000E+03	2.686801E-16	1.650128E-17
5.740000E+03	2.674230E-16	1.678570E-17
5.750000E+03	2.661671E-16	1.705565E-17
5.760000E+03	2.648898E-16	1.730941E-17
5.770000E+03	2.636392E-16	1.754989E-17
5.780000E+03	2.623692E-16	1.777394E-17
5.790000E+03	2.611275E-16	1.798466E-17
5.800000E+03	2.598683E-16	1.817889E-17
5.810000E+03	2.586158E-16	1.835827E-17
5.820000E+03	2.573706E-16	1.852286E-17
5.830000E+03	2.561108E-16	1.867112E-17
5.840000E+03	2.548825E-16	1.880648E-17
5.850000E+03	2.536634E-16	1.892741E-17
5.860000E+03	2.524319E-16	1.903240E-17
5.870000E+03	2.512109E-16	1.912327E-17
5.880000E+03	2.500232E-16	1.920190E-17
5.890000E+03	2.488247E-16	1.926507E-17
5.900000E+03	2.476381E-16	1.931465E-17
5.910000E+03	2.464638E-16	1.935084E-17
5.920000E+03	2.453020E-16	1.937382E-17
5.930000E+03	2.441532E-16	1.938377E-17
5.940000E+03	2.429961E-16	1.937917E-17
5.950000E+03	2.418740E-16	1.936362E-17
5.960000E+03	2.407443E-16	1.933388E-17
5.970000E+03	2.396499E-16	1.929356E-17
5.980000E+03	2.385484E-16	1.923941E-17
5.990000E+03	2.374614E-16	1.917331E-17
6.000000E+03	2.363889E-16	1.909543E-17
6.010000E+03	2.353313E-16	1.900593E-17
6.020000E+03	2.342885E-16	1.890497E-17
6.030000E+03	2.332609E-16	1.879271E-17
6.040000E+03	2.322485E-16	1.866930E-17
6.050000E+03	2.312309E-16	1.853323E-17
6.060000E+03	2.302496E-16	1.838795E-17
6.070000E+03	2.292840E-16	1.823194E-17
6.080000E+03	2.283140E-16	1.806372E-17
6.090000E+03	2.273603E-16	1.788506E-17
6.100000E+03	2.264433E-16	1.769765E-17
6.110000E+03	2.255227E-16	1.749846E-17
6.120000E+03	2.246191E-16	1.728920E-17
6.130000E+03	2.237328E-16	1.706997E-17
6.140000E+03	2.228639E-16	1.684089E-17
6.150000E+03	2.220128E-16	1.660207E-17
6.160000E+03	2.211798E-16	1.635361E-17
6.170000E+03	2.203455E-16	1.609419E-17
6.180000E+03	2.195496E-16	1.582678E-17
6.190000E+03	2.187728E-16	1.555005E-17
6.200000E+03	2.179960E-16	1.526272E-17
6.210000E+03	2.172583E-16	1.496763E-17
6.220000E+03	2.165215E-16	1.466219E-17
6.230000E+03	2.158053E-16	1.434786E-17
6.240000E+03	2.151292E-16	1.402599E-17
6.250000E+03	2.144552E-16	1.369416E-17
6.260000E+03	2.138028E-16	1.335374E-17
6.270000E+03	2.131723E-16	1.300487E-17
6.280000E+03	2.125642E-16	1.264766E-17
6.290000E+03	2.119786E-16	1.228226E-17
6.300000E+03	2.114159E-16	1.190881E-17
6.310000E+03	2.108763E-16	1.152751E-17
6.320000E+03	2.103601E-16	1.113856E-17
6.330000E+03	2.098486E-16	1.074124E-17
6.340000E+03	2.093796E-16	1.033780E-17
6.350000E+03	2.089343E-16	9.927602E-18
6.360000E+03	2.084943E-16	9.510228E-18
6.370000E+03	2.080968E-16	9.087944E-18
6.380000E+03	2.077045E-16	8.659754E-18
6.390000E+03	2.073546E-16	8.228074E-18
6.400000E+03	2.070097E-16	7.792447E-18
6.410000E+03	2.066882E-16	7.354990E-18
6.420000E+03	2.064083E-16	6.918053E-18
6.430000E+03	2.061326E-16	6.482606E-18
6.440000E+03	2.058792E-16	6.052248E-18
6.450000E+03	2.056475E-16	5.630855E-18
6.460000E+03	2.054370E-16	5.223558E-18
6.470000E+03	2.052469E-16	4.837138E-18
6.480000E+03	2.050763E-16	4.480471E-18
6.490000E+03	2.049243E-16	4.164882E-18
6.500000E+03	2.047897E-16	3.904112E-18
6.510000E+03	2.046713E-16	3.713348E-18
6.520000E+03	2.045676E-16	3.606777E-18
6.530000E+03	2.044771E-16	3.593830E-18
6.540000E+03	2.043800E-16	3.675502E-18
6.550000E+03	2.043118E-16	3.845137E-18
6.560000E+03	2.042526E-16	4.089222E-18
6.570000E+03	2.041827E-16	4.392159E-18
6.580000E+03	2.041373E-16	4.740379E-18
6.590000E+03	2.040780E-16	5.120948E-18
6.600000E+03	2.040397E-16	5.525115E-18
6.610000E+03	2.039841E-16	5.944466E-18
6.620000E+03	2.039459E-16	6.374340E-18
6.630000E+03	2.038869E-16	6.809273E-18
6.640000E+03	2.038419E-16	7.247109E-18
6.650000E+03	2.037726E-16	7.683981E-18
6.660000E+03	2.036957E-16	8.118465E-18
6.670000E+03	2.036097E-16	8.548938E-18
6.680000E+03	2.035314E-16	8.974909E-18
6.690000E+03	2.034229E-16	9.393734E-18
6.700000E+03	2.033012E-16	9.805318E-18
6.710000E+03	2.031651E-16	1.020894E-17
6.720000E+03	2.030137E-16	1.060400E-17
6.730000E+03	2.028461E-16	1.099001E-17
6.740000E+03	2.026615E-16	1.136655E-17
6.750000E+03	2.024592E-16	1.173327E-17
6.760000E+03	2.022388E-16	1.208988E-17
6.770000E+03	2.019999E-16	1.243617E-17
6.780000E+03	2.017423E-16	1.277194E-17
6.790000E+03	2.014658E-16	1.309705E-17
6.800000E+03	2.011704E-16	1.341141E-17
6.810000E+03	2.008380E-16	1.371369E-17
6.820000E+03	2.005055E-16	1.400634E-17
6.830000E+03	2.001548E-16	1.428813E-17
6.840000E+03	1.997682E-16	1.455776E-17
6.850000E+03	1.993828E-16	1.481791E-17
6.860000E+03	1.989808E-16	1.506735E-17
6.870000E+03	1.985450E-16	1.530480E-17
6.880000E+03	1.981123E-16	1.553313E-17
6.890000E+03	1.976475E-16	1.574968E-17
6.900000E+03	1.971875E-16	1.595746E-17
6.910000E+03	1.966972E-16	1.615374E-17
6.920000E+03	1.962136E-16	1.634165E-17
6.930000E+03	1.957018E-16	1.651840E-17
6.940000E+03	1.951986E-16	1.668722E-17
6.950000E+03	1.946693E-16	1.684528E-17
6.960000E+03	1.941328E-16	1.699431E-17
6.970000E+03	1.935902E-16	1.713454E-17
6.980000E+03	1.930601E-16	1.726779E-17
6.990000E+03	1.925081E-16	1.739113E-17
7.000000E+03	1.919528E-16	1.750638E-17
7.010000E+03	1.913953E-16	1.761376E-17
7.020000E+03	1.908364E-16	1.771350E-17
7.030000E+03	1.902769E-16	1.780584E-17
7.040000E+03	1.897176E-16	1.789100E-17
7.050000E+03	1.891594E-16	1.796919E-17
7.060000E+03	1.886028E-16	1.804064E-17
7.070000E+03	1.880486E-16	1.810554E-17
7.080000E+03	1.874974E-16	1.816410E-17
7.090000E+03	1.869496E-16	1.821651E-17
7.100000E+03	1.864059E-16	1.826295E-17
7.110000E+03	1.858494E-16	1.830191E-17
7.120000E+03	1.853149E-16	1.833692E-17
7.130000E+03	1.847855E-16	1.836645E-17
7.140000E+03	1.842616E-16	1.839065E-17
7.150000E+03	1.837262E-16	1.840795E-17
7.160000E+03	1.832137E-16	1.842188E-17
7.170000E+03	1.826901E-16	1.842914E-17
7.180000E+03	1.821895E-16	1.843326E-17
7.190000E+03	1.816780E-16	1.843092E-17
7.200000E+03	1.811893E-16	1.842562E-17
7.210000E+03	1.806898E-16	1.841401E-17
7.220000E+03	1.801962E-16	1.839787E-17
7.230000E+03	1.797250E-16	1.837898E-17
7.240000E+03	1.792427E-16	1.835396E-17
7.250000E+03	1.787657E-16	1.832456E-17
7.260000E+03	1.782938E-16	1.829082E-17
7.270000E+03	1.778269E-16	1.825276E-17
7.280000E+03	1.773645E-16	1.821041E-17
7.290000E+03	1.769064E-16	1.816376E-17
7.300000E+03	1.764522E-16	1.811283E-17
7.310000E+03	1.760017E-16	1.805761E-17
7.320000E+03	1.755544E-16	1.799810E-17
7.330000E+03	1.751100E-16	1.793427E-17
7.340000E+03	1.746681E-16	1.786612E-17
7.350000E+03	1.742284E-16	1.779362E-17
7.360000E+03	1.737741E-16	1.771508E-17
7.370000E+03	1.733374E-16	1.763379E-17
7.380000E+03	1.728855E-16	1.754641E-17
7.390000E+03	1.724503E-16	1.745620E-17
7.400000E+03	1.719992E-16	1.735984E-17
7.410000E+03	1.715640E-16	1.726055E-17
7.420000E+03	1.711121E-16	1.715504E-17
7.430000E+03	1.706754E-16	1.704650E-17
7.440000E+03	1.702213E-16	1.693166E-17
7.450000E+03	1.697655E-16	1.681210E-17
7.460000E+03	1.693079E-16	1.668776E-17
7.470000E+03	1.688480E-16	1.655861E-17
7.480000E+03	1.683855E-16	1.642460E-17
7.490000E+03	1.679202E-16	1.628569E-17
7.500000E+03	1.674519E-16	1.614184E-17
7.510000E+03	1.669802E-16	1.599301E-17
7.520000E+03	1.665051E-16	1.583916E-17
7.530000E+03	1.660262E-16	1.568026E-17
7.540000E+03	1.655436E-16	1.551628E-17
7.550000E+03	1.650412E-16	1.534573E-17
7.560000E+03	1.645505E-16	1.517153E-17
7.570000E+03	1.640400E-16	1.499075E-17
7.580000E+03	1.635409E-16	1.480626E-17
7.590000E+03	1.630221E-16	1.461519E-17
7.600000E+03	1.625147E-16	1.442036E-17
7.610000E+03	1.619876E-16	1.421900E-17
7.620000E+03	1.614565E-16	1.401250E-17
7.630000E+03	1.609215E-16	1.380089E-17
7.640000E+03	1.603826E-16	1.358418E-17
7.650000E+03	1.598402E-16	1.336240E-17
7.660000E+03	1.592942E-16	1.313559E-17
7.670000E+03	1.587451E-16	1.290379E-17
7.680000E+03	1.581930E-16	1.266704E-17
7.690000E+03	1.576382E-16	1.242542E-17
7.700000E+03	1.570658E-16	1.217781E-17
7.710000E+03	1.565066E-16	1.192667E-17
7.720000E+03	1.559457E-16	1.167089E-17
7.730000E+03	1.553684E-16	1.140947E-17
7.740000E+03	1.547904E-16	1.114368E-17
7.750000E+03	1.542270E-16	1.087471E-17
7.760000E+03	1.536489E-16	1.060058E-17
