#wls	flux	fluxerr
1.600000E+03	4.378134E-17	2.434611E-17
1.640000E+03	4.444609E-17	2.442860E-17
1.680000E+03	4.512236E-17	2.450168E-17
1.720000E+03	4.580185E-17	2.456031E-17
1.760000E+03	4.649207E-17	2.460803E-17
1.800000E+03	4.718446E-17	2.463981E-17
1.840000E+03	4.787836E-17	2.465493E-17
1.880000E+03	4.858157E-17	2.465696E-17
1.920000E+03	4.928515E-17	2.464092E-17
1.960000E+03	4.999709E-17	2.461044E-17
2.000000E+03	5.070825E-17	2.456061E-17
2.040000E+03	5.142685E-17	2.449510E-17
2.080000E+03	5.214355E-17	2.440913E-17
2.120000E+03	5.285772E-17	2.430224E-17
2.160000E+03	5.358714E-17	2.418235E-17
2.200000E+03	5.430402E-17	2.403661E-17
2.240000E+03	5.502634E-17	2.387306E-17
2.280000E+03	5.575397E-17	2.369143E-17
2.320000E+03	5.648689E-17	2.349154E-17
2.360000E+03	5.720579E-17	2.326545E-17
2.400000E+03	5.793962E-17	2.302511E-17
2.440000E+03	5.866925E-17	2.276283E-17
2.480000E+03	5.940483E-17	2.248277E-17
2.520000E+03	6.013699E-17	2.218156E-17
2.560000E+03	6.087648E-17	2.186349E-17
2.600000E+03	6.161417E-17	2.152556E-17
2.640000E+03	6.236150E-17	2.117216E-17
2.680000E+03	6.312017E-17	2.080412E-17
2.720000E+03	6.388169E-17	2.041900E-17
2.760000E+03	6.465879E-17	2.002136E-17
2.800000E+03	6.544360E-17	1.960914E-17
2.840000E+03	6.626061E-17	1.919008E-17
2.880000E+03	6.708132E-17	1.875618E-17
2.920000E+03	6.794227E-17	1.831823E-17
2.960000E+03	6.882653E-17	1.787178E-17
3.000000E+03	6.973931E-17	1.741868E-17
3.010000E+03	6.997821E-17	1.730597E-17
3.020000E+03	7.021937E-17	1.719297E-17
3.030000E+03	7.046290E-17	1.707973E-17
3.040000E+03	7.070891E-17	1.696625E-17
3.050000E+03	7.094622E-17	1.684992E-17
3.060000E+03	7.119746E-17	1.673612E-17
3.070000E+03	7.145149E-17	1.662219E-17
3.080000E+03	7.170844E-17	1.650817E-17
3.090000E+03	7.196841E-17	1.639409E-17
3.100000E+03	7.223153E-17	1.627998E-17
3.110000E+03	7.250936E-17	1.616842E-17
3.120000E+03	7.277918E-17	1.605434E-17
3.130000E+03	7.305253E-17	1.594032E-17
3.140000E+03	7.332953E-17	1.582642E-17
3.150000E+03	7.361033E-17	1.571266E-17
3.160000E+03	7.390664E-17	1.560152E-17
3.170000E+03	7.419547E-17	1.548813E-17
3.180000E+03	7.448850E-17	1.537499E-17
3.190000E+03	7.479759E-17	1.526452E-17
3.200000E+03	7.509952E-17	1.515196E-17
3.210000E+03	7.541787E-17	1.504212E-17
3.220000E+03	7.572931E-17	1.493030E-17
3.230000E+03	7.605755E-17	1.482123E-17
3.240000E+03	7.637912E-17	1.471031E-17
3.250000E+03	7.671789E-17	1.460217E-17
3.260000E+03	7.705025E-17	1.449230E-17
3.270000E+03	7.740021E-17	1.438525E-17
3.280000E+03	7.775605E-17	1.427880E-17
3.290000E+03	7.810586E-17	1.417080E-17
3.300000E+03	7.847393E-17	1.406570E-17
3.310000E+03	7.884839E-17	1.396132E-17
3.320000E+03	7.922943E-17	1.385772E-17
3.330000E+03	7.961724E-17	1.375493E-17
3.340000E+03	7.999972E-17	1.365091E-17
3.350000E+03	8.040157E-17	1.354991E-17
3.360000E+03	8.081074E-17	1.344987E-17
3.370000E+03	8.122742E-17	1.335084E-17
3.380000E+03	8.165180E-17	1.325286E-17
3.390000E+03	8.208408E-17	1.315599E-17
3.400000E+03	8.252445E-17	1.306027E-17
3.410000E+03	8.297310E-17	1.296575E-17
3.420000E+03	8.343022E-17	1.287249E-17
3.430000E+03	8.390875E-17	1.278249E-17
3.440000E+03	8.438345E-17	1.269188E-17
3.450000E+03	8.486720E-17	1.260269E-17
3.460000E+03	8.536020E-17	1.251496E-17
3.470000E+03	8.586262E-17	1.242875E-17
3.480000E+03	8.638770E-17	1.234598E-17
3.490000E+03	8.690962E-17	1.226295E-17
3.500000E+03	8.744152E-17	1.218159E-17
3.510000E+03	8.799681E-17	1.210378E-17
3.520000E+03	8.854928E-17	1.202591E-17
3.530000E+03	8.911226E-17	1.194986E-17
3.540000E+03	8.969935E-17	1.187745E-17
3.550000E+03	9.028391E-17	1.180517E-17
3.560000E+03	9.087945E-17	1.173485E-17
3.570000E+03	9.149977E-17	1.166826E-17
3.580000E+03	9.211778E-17	1.160194E-17
3.590000E+03	9.276098E-17	1.153941E-17
3.600000E+03	9.340196E-17	1.147723E-17
3.610000E+03	9.406852E-17	1.141887E-17
3.620000E+03	9.473289E-17	1.136094E-17
3.630000E+03	9.542318E-17	1.130683E-17
3.640000E+03	9.612549E-17	1.125485E-17
3.650000E+03	9.682557E-17	1.120336E-17
3.660000E+03	9.755197E-17	1.115568E-17
3.670000E+03	9.827603E-17	1.110848E-17
3.680000E+03	9.902660E-17	1.106503E-17
3.690000E+03	9.978930E-17	1.102367E-17
3.700000E+03	1.005493E-16	1.098274E-17
3.710000E+03	1.013360E-16	1.094545E-17
3.720000E+03	1.021347E-16	1.091011E-17
3.730000E+03	1.029301E-16	1.087508E-17
3.740000E+03	1.037522E-16	1.084349E-17
3.750000E+03	1.045859E-16	1.081366E-17
3.760000E+03	1.054156E-16	1.078394E-17
3.770000E+03	1.062718E-16	1.075738E-17
3.780000E+03	1.071389E-16	1.073232E-17
3.790000E+03	1.080168E-16	1.070864E-17
3.800000E+03	1.088894E-16	1.068468E-17
3.810000E+03	1.097877E-16	1.066342E-17
3.820000E+03	1.106959E-16	1.064320E-17
3.830000E+03	1.116136E-16	1.062386E-17
3.840000E+03	1.125404E-16	1.060529E-17
3.850000E+03	1.134596E-16	1.058581E-17
3.860000E+03	1.144032E-16	1.056833E-17
3.870000E+03	1.153548E-16	1.055117E-17
3.880000E+03	1.163137E-16	1.053420E-17
3.890000E+03	1.172627E-16	1.051574E-17
3.900000E+03	1.182348E-16	1.049867E-17
3.910000E+03	1.192128E-16	1.048133E-17
3.920000E+03	1.201962E-16	1.046357E-17
3.930000E+03	1.211844E-16	1.044525E-17
3.940000E+03	1.221595E-16	1.042475E-17
3.950000E+03	1.231556E-16	1.040489E-17
3.960000E+03	1.241549E-16	1.038408E-17
3.970000E+03	1.251569E-16	1.036217E-17
3.980000E+03	1.261609E-16	1.033907E-17
3.990000E+03	1.271485E-16	1.031322E-17
4.000000E+03	1.281549E-16	1.028743E-17
4.010000E+03	1.291619E-16	1.026017E-17
4.020000E+03	1.301688E-16	1.023138E-17
4.030000E+03	1.311567E-16	1.019956E-17
4.040000E+03	1.321621E-16	1.016755E-17
4.050000E+03	1.331661E-16	1.013389E-17
4.060000E+03	1.341495E-16	1.009717E-17
4.070000E+03	1.351495E-16	1.006024E-17
4.080000E+03	1.361470E-16	1.002172E-17
4.090000E+03	1.371419E-16	9.981648E-18
4.100000E+03	1.381145E-16	9.938731E-18
4.110000E+03	1.391032E-16	9.895850E-18
4.120000E+03	1.400691E-16	9.850364E-18
4.130000E+03	1.410511E-16	9.805174E-18
4.140000E+03	1.420298E-16	9.759075E-18
4.150000E+03	1.429854E-16	9.710922E-18
4.160000E+03	1.439575E-16	9.663645E-18
4.170000E+03	1.449066E-16	9.614810E-18
4.180000E+03	1.458729E-16	9.567370E-18
4.190000E+03	1.468164E-16	9.518975E-18
4.200000E+03	1.477780E-16	9.472598E-18
4.210000E+03	1.487173E-16	9.425974E-18
4.220000E+03	1.496757E-16	9.382093E-18
4.230000E+03	1.506128E-16	9.338767E-18
4.240000E+03	1.515702E-16	9.299001E-18
4.250000E+03	1.525072E-16	9.260677E-18
4.260000E+03	1.534452E-16	9.225541E-18
4.270000E+03	1.544059E-16	9.195323E-18
4.280000E+03	1.553479E-16	9.167983E-18
4.290000E+03	1.562931E-16	9.145272E-18
4.300000E+03	1.572637E-16	9.128919E-18
4.310000E+03	1.582178E-16	9.116910E-18
4.320000E+03	1.591774E-16	9.110959E-18
4.330000E+03	1.601435E-16	9.111514E-18
4.340000E+03	1.611168E-16	9.118996E-18
4.350000E+03	1.620982E-16	9.133795E-18
4.360000E+03	1.630885E-16	9.156260E-18
4.370000E+03	1.640884E-16	9.186694E-18
4.380000E+03	1.651209E-16	9.226594E-18
4.390000E+03	1.661199E-16	9.272404E-18
4.400000E+03	1.671527E-16	9.327982E-18
4.410000E+03	1.681976E-16	9.392121E-18
4.420000E+03	1.692551E-16	9.464796E-18
4.430000E+03	1.703255E-16	9.545917E-18
4.440000E+03	1.714092E-16	9.635343E-18
4.450000E+03	1.725063E-16	9.732876E-18
4.460000E+03	1.735937E-16	9.836955E-18
4.470000E+03	1.747180E-16	9.949921E-18
4.480000E+03	1.758559E-16	1.007015E-17
4.490000E+03	1.769837E-16	1.019592E-17
4.500000E+03	1.781485E-16	1.032958E-17
4.510000E+03	1.793264E-16	1.046938E-17
4.520000E+03	1.804931E-16	1.061349E-17
4.530000E+03	1.816960E-16	1.076431E-17
4.540000E+03	1.828866E-16	1.091854E-17
4.550000E+03	1.840882E-16	1.107718E-17
4.560000E+03	1.853248E-16	1.124126E-17
4.570000E+03	1.865465E-16	1.140740E-17
4.580000E+03	1.877771E-16	1.157662E-17
4.590000E+03	1.890156E-16	1.174849E-17
4.600000E+03	1.902862E-16	1.192416E-17
4.610000E+03	1.915377E-16	1.210008E-17
4.620000E+03	1.927940E-16	1.227738E-17
4.630000E+03	1.940539E-16	1.245567E-17
4.640000E+03	1.953162E-16	1.263453E-17
4.650000E+03	1.965796E-16	1.281357E-17
4.660000E+03	1.978427E-16	1.299240E-17
4.670000E+03	1.991043E-16	1.317065E-17
4.680000E+03	2.003366E-16	1.334618E-17
4.690000E+03	2.015905E-16	1.352211E-17
4.700000E+03	2.028385E-16	1.369634E-17
4.710000E+03	2.040791E-16	1.386851E-17
4.720000E+03	2.052838E-16	1.403643E-17
4.730000E+03	2.065047E-16	1.420341E-17
4.740000E+03	2.076865E-16	1.436540E-17
4.750000E+03	2.088818E-16	1.452580E-17
4.760000E+03	2.100346E-16	1.468050E-17
4.770000E+03	2.111981E-16	1.483299E-17
4.780000E+03	2.123159E-16	1.497908E-17
4.790000E+03	2.134139E-16	1.512036E-17
4.800000E+03	2.144907E-16	1.525653E-17
4.810000E+03	2.155450E-16	1.538727E-17
4.820000E+03	2.166035E-16	1.551429E-17
4.830000E+03	2.176087E-16	1.563329E-17
4.840000E+03	2.185875E-16	1.574596E-17
4.850000E+03	2.195385E-16	1.585202E-17
4.860000E+03	2.204322E-16	1.594915E-17
4.870000E+03	2.213244E-16	1.604120E-17
4.880000E+03	2.221857E-16	1.612585E-17
4.890000E+03	2.230150E-16	1.620287E-17
4.900000E+03	2.238116E-16	1.627204E-17
4.910000E+03	2.245456E-16	1.633103E-17
4.920000E+03	2.252742E-16	1.638385E-17
4.930000E+03	2.259388E-16	1.642611E-17
4.940000E+03	2.265968E-16	1.646186E-17
4.950000E+03	2.271897E-16	1.648672E-17
4.960000E+03	2.277461E-16	1.650267E-17
4.970000E+03	2.282950E-16	1.651174E-17
4.980000E+03	2.287778E-16	1.650957E-17
4.990000E+03	2.292235E-16	1.649823E-17
5.000000E+03	2.296321E-16	1.647764E-17
5.010000E+03	2.300038E-16	1.644779E-17
5.020000E+03	2.303387E-16	1.640864E-17
5.030000E+03	2.306370E-16	1.636021E-17
5.040000E+03	2.308992E-16	1.630250E-17
5.050000E+03	2.311256E-16	1.623557E-17
5.060000E+03	2.313167E-16	1.615946E-17
5.070000E+03	2.314730E-16	1.607426E-17
5.080000E+03	2.315658E-16	1.597800E-17
5.090000E+03	2.316547E-16	1.587489E-17
5.100000E+03	2.317109E-16	1.576301E-17
5.110000E+03	2.317058E-16	1.564049E-17
5.120000E+03	2.316992E-16	1.551149E-17
5.130000E+03	2.316329E-16	1.537222E-17
5.140000E+03	2.315374E-16	1.522486E-17
5.150000E+03	2.314429E-16	1.507151E-17
5.160000E+03	2.312916E-16	1.490857E-17
5.170000E+03	2.311138E-16	1.473819E-17
5.180000E+03	2.309103E-16	1.456063E-17
5.190000E+03	2.306822E-16	1.437617E-17
5.200000E+03	2.304302E-16	1.418509E-17
5.210000E+03	2.301553E-16	1.398773E-17
5.220000E+03	2.298582E-16	1.378441E-17
5.230000E+03	2.295398E-16	1.357552E-17
5.240000E+03	2.292007E-16	1.336146E-17
5.250000E+03	2.288129E-16	1.314101E-17
5.260000E+03	2.284348E-16	1.291800E-17
5.270000E+03	2.280381E-16	1.269126E-17
5.280000E+03	2.275947E-16	1.245980E-17
5.290000E+03	2.271625E-16	1.222742E-17
5.300000E+03	2.266847E-16	1.199169E-17
5.310000E+03	2.262190E-16	1.175641E-17
5.320000E+03	2.257088E-16	1.151943E-17
5.330000E+03	2.251828E-16	1.128315E-17
5.340000E+03	2.246698E-16	1.104995E-17
5.350000E+03	2.241135E-16	1.081810E-17
5.360000E+03	2.235424E-16	1.059017E-17
5.370000E+03	2.229569E-16	1.036742E-17
5.380000E+03	2.223572E-16	1.015118E-17
5.390000E+03	2.217436E-16	9.942892E-18
5.400000E+03	2.211162E-16	9.744053E-18
5.410000E+03	2.204755E-16	9.556229E-18
5.420000E+03	2.197941E-16	9.379851E-18
5.430000E+03	2.191275E-16	9.218910E-18
5.440000E+03	2.184485E-16	9.073800E-18
5.450000E+03	2.177301E-16	8.944926E-18
5.460000E+03	2.170273E-16	8.835942E-18
5.470000E+03	2.163134E-16	8.746919E-18
5.480000E+03	2.155619E-16	8.677714E-18
5.490000E+03	2.148273E-16	8.631075E-18
5.500000E+03	2.140565E-16	8.604881E-18
5.510000E+03	2.132773E-16	8.599668E-18
5.520000E+03	2.125172E-16	8.615494E-18
5.530000E+03	2.117239E-16	8.648881E-18
5.540000E+03	2.109250E-16	8.699364E-18
5.550000E+03	2.101215E-16	8.765273E-18
5.560000E+03	2.093146E-16	8.844875E-18
5.570000E+03	2.085053E-16	8.936427E-18
5.580000E+03	2.076947E-16	9.038216E-18
5.590000E+03	2.068840E-16	9.148597E-18
5.600000E+03	2.060742E-16	9.266013E-18
5.610000E+03	2.052664E-16	9.389013E-18
5.620000E+03	2.044363E-16	9.515075E-18
5.630000E+03	2.036361E-16	9.645339E-18
5.640000E+03	2.028412E-16	9.777533E-18
5.650000E+03	2.020274E-16	9.909441E-18
5.660000E+03	2.012463E-16	1.004264E-17
5.670000E+03	2.004734E-16	1.017514E-17
5.680000E+03	1.996848E-16	1.030498E-17
5.690000E+03	1.989311E-16	1.043413E-17
5.700000E+03	1.981636E-16	1.055948E-17
5.710000E+03	1.974078E-16	1.068187E-17
5.720000E+03	1.966888E-16	1.080228E-17
5.730000E+03	1.959581E-16	1.091771E-17
5.740000E+03	1.952409E-16	1.102920E-17
5.750000E+03	1.945375E-16	1.113653E-17
5.760000E+03	1.938483E-16	1.123949E-17
5.770000E+03	1.931736E-16	1.133794E-17
5.780000E+03	1.925136E-16	1.143172E-17
5.790000E+03	1.918683E-16	1.152072E-17
5.800000E+03	1.912378E-16	1.160485E-17
5.810000E+03	1.906220E-16	1.168404E-17
5.820000E+03	1.900208E-16	1.175822E-17
5.830000E+03	1.894339E-16	1.182734E-17
5.840000E+03	1.888611E-16	1.189136E-17
5.850000E+03	1.882785E-16	1.194875E-17
5.860000E+03	1.877325E-16	1.200246E-17
5.870000E+03	1.871992E-16	1.205099E-17
5.880000E+03	1.866547E-16	1.209280E-17
5.890000E+03	1.861447E-16	1.213089E-17
5.900000E+03	1.856222E-16	1.216224E-17
5.910000E+03	1.851326E-16	1.218985E-17
5.920000E+03	1.846288E-16	1.221068E-17
5.930000E+03	1.841560E-16	1.222777E-17
5.940000E+03	1.836672E-16	1.223805E-17
5.950000E+03	1.832072E-16	1.224458E-17
5.960000E+03	1.827294E-16	1.224430E-17
5.970000E+03	1.822556E-16	1.223872E-17
5.980000E+03	1.817846E-16	1.222786E-17
5.990000E+03	1.813154E-16	1.221170E-17
6.000000E+03	1.808695E-16	1.219178E-17
6.010000E+03	1.804008E-16	1.216506E-17
6.020000E+03	1.799309E-16	1.213308E-17
6.030000E+03	1.794588E-16	1.209587E-17
6.040000E+03	1.789837E-16	1.205344E-17
6.050000E+03	1.785048E-16	1.200584E-17
6.060000E+03	1.780214E-16	1.195310E-17
6.070000E+03	1.775328E-16	1.189529E-17
6.080000E+03	1.770164E-16	1.183099E-17
6.090000E+03	1.765160E-16	1.176323E-17
6.100000E+03	1.760090E-16	1.169062E-17
6.110000E+03	1.754952E-16	1.161325E-17
6.120000E+03	1.749528E-16	1.152981E-17
6.130000E+03	1.744252E-16	1.144329E-17
6.140000E+03	1.738908E-16	1.135240E-17
6.150000E+03	1.733282E-16	1.125589E-17
6.160000E+03	1.727807E-16	1.115673E-17
6.170000E+03	1.722273E-16	1.105369E-17
6.180000E+03	1.716469E-16	1.094562E-17
6.190000E+03	1.710830E-16	1.083545E-17
6.200000E+03	1.704934E-16	1.072071E-17
6.210000E+03	1.699003E-16	1.060300E-17
6.220000E+03	1.693255E-16	1.048387E-17
6.230000E+03	1.687276E-16	1.036099E-17
6.240000E+03	1.681494E-16	1.023722E-17
6.250000E+03	1.675501E-16	1.011031E-17
6.260000E+03	1.669514E-16	9.981861E-18
6.270000E+03	1.663544E-16	9.852208E-18
6.280000E+03	1.657805E-16	9.722906E-18
6.290000E+03	1.651894E-16	9.591887E-18
6.300000E+03	1.646027E-16	9.460755E-18
6.310000E+03	1.640214E-16	9.329904E-18
6.320000E+03	1.634463E-16	9.199745E-18
6.330000E+03	1.628783E-16	9.070703E-18
6.340000E+03	1.623183E-16	8.943218E-18
6.350000E+03	1.617670E-16	8.817742E-18
6.360000E+03	1.612252E-16	8.694741E-18
6.370000E+03	1.606936E-16	8.574689E-18
6.380000E+03	1.601728E-16	8.458071E-18
6.390000E+03	1.596634E-16	8.345377E-18
6.400000E+03	1.591660E-16	8.237098E-18
6.410000E+03	1.586810E-16	8.133725E-18
6.420000E+03	1.582089E-16	8.035742E-18
6.430000E+03	1.577500E-16	7.943625E-18
6.440000E+03	1.572851E-16	7.856852E-18
6.450000E+03	1.568535E-16	7.777825E-18
6.460000E+03	1.564359E-16	7.705963E-18
6.470000E+03	1.560323E-16	7.641636E-18
6.480000E+03	1.556234E-16	7.584228E-18
6.490000E+03	1.552480E-16	7.535919E-18
6.500000E+03	1.548867E-16	7.495983E-18
6.510000E+03	1.545201E-16	7.463659E-18
6.520000E+03	1.541865E-16	7.440918E-18
6.530000E+03	1.538473E-16	7.425942E-18
6.540000E+03	1.535407E-16	7.420557E-18
6.550000E+03	1.532278E-16	7.422818E-18
6.560000E+03	1.529467E-16	7.434420E-18
6.570000E+03	1.526589E-16	7.453289E-18
6.580000E+03	1.524019E-16	7.481005E-18
6.590000E+03	1.521372E-16	7.515375E-18
6.600000E+03	1.519024E-16	7.557896E-18
6.610000E+03	1.516591E-16	7.606271E-18
6.620000E+03	1.514446E-16	7.661948E-18
6.630000E+03	1.512205E-16	7.722550E-18
6.640000E+03	1.510052E-16	7.788538E-18
6.650000E+03	1.507982E-16	7.859415E-18
6.660000E+03	1.506179E-16	7.935672E-18
6.670000E+03	1.504259E-16	8.014835E-18
6.680000E+03	1.502408E-16	8.097397E-18
6.690000E+03	1.500621E-16	8.182881E-18
6.700000E+03	1.499080E-16	8.271861E-18
6.710000E+03	1.497407E-16	8.361839E-18
6.720000E+03	1.495787E-16	8.453420E-18
6.730000E+03	1.494215E-16	8.546214E-18
6.740000E+03	1.492691E-16	8.639854E-18
6.750000E+03	1.491212E-16	8.734002E-18
6.760000E+03	1.489777E-16	8.828348E-18
6.770000E+03	1.488385E-16	8.922610E-18
6.780000E+03	1.487036E-16	9.016534E-18
6.790000E+03	1.485729E-16	9.109893E-18
6.800000E+03	1.484466E-16	9.202484E-18
6.810000E+03	1.483248E-16	9.294131E-18
6.820000E+03	1.482076E-16	9.384681E-18
6.830000E+03	1.480951E-16	9.474002E-18
6.840000E+03	1.479875E-16	9.561980E-18
6.850000E+03	1.478851E-16	9.648521E-18
6.860000E+03	1.477879E-16	9.733547E-18
6.870000E+03	1.476961E-16	9.816992E-18
6.880000E+03	1.476100E-16	9.898802E-18
6.890000E+03	1.475110E-16	9.977677E-18
6.900000E+03	1.474364E-16	1.005608E-17
6.910000E+03	1.473676E-16	1.013274E-17
6.920000E+03	1.473045E-16	1.020762E-17
6.930000E+03	1.472287E-16	1.027940E-17
6.940000E+03	1.471768E-16	1.035065E-17
6.950000E+03	1.471303E-16	1.042004E-17
6.960000E+03	1.470701E-16	1.048623E-17
6.970000E+03	1.470330E-16	1.055183E-17
6.980000E+03	1.470000E-16	1.061549E-17
6.990000E+03	1.469520E-16	1.067581E-17
7.000000E+03	1.469253E-16	1.073546E-17
7.010000E+03	1.468823E-16	1.079167E-17
7.020000E+03	1.468591E-16	1.084713E-17
7.030000E+03	1.468180E-16	1.089904E-17
7.040000E+03	1.467952E-16	1.095009E-17
7.050000E+03	1.467527E-16	1.099747E-17
7.060000E+03	1.467266E-16	1.104390E-17
7.070000E+03	1.466790E-16	1.108652E-17
7.080000E+03	1.466461E-16	1.112808E-17
7.090000E+03	1.465899E-16	1.116572E-17
7.100000E+03	1.465282E-16	1.120077E-17
7.110000E+03	1.464787E-16	1.123463E-17
7.120000E+03	1.464038E-16	1.126440E-17
7.130000E+03	1.463212E-16	1.129147E-17
7.140000E+03	1.462492E-16	1.131724E-17
7.150000E+03	1.461501E-16	1.133882E-17
7.160000E+03	1.460423E-16	1.135764E-17
7.170000E+03	1.459440E-16	1.137514E-17
7.180000E+03	1.458184E-16	1.138844E-17
7.190000E+03	1.456838E-16	1.139899E-17
7.200000E+03	1.455405E-16	1.140682E-17
7.210000E+03	1.453889E-16	1.141197E-17
7.220000E+03	1.452294E-16	1.141448E-17
7.230000E+03	1.450624E-16	1.141440E-17
7.240000E+03	1.449070E-16	1.141323E-17
7.250000E+03	1.447270E-16	1.140814E-17
7.260000E+03	1.445416E-16	1.140065E-17
7.270000E+03	1.443514E-16	1.139082E-17
7.280000E+03	1.441574E-16	1.137873E-17
7.290000E+03	1.439602E-16	1.136444E-17
7.300000E+03	1.437607E-16	1.134803E-17
7.310000E+03	1.435413E-16	1.132812E-17
7.320000E+03	1.433393E-16	1.130767E-17
7.330000E+03	1.431370E-16	1.128528E-17
7.340000E+03	1.429349E-16	1.126101E-17
7.350000E+03	1.427336E-16	1.123490E-17
7.360000E+03	1.425334E-16	1.120699E-17
7.370000E+03	1.423345E-16	1.117730E-17
7.380000E+03	1.421190E-16	1.114443E-17
7.390000E+03	1.419233E-16	1.111125E-17
7.400000E+03	1.417290E-16	1.107632E-17
7.410000E+03	1.415180E-16	1.103821E-17
7.420000E+03	1.413261E-16	1.099975E-17
7.430000E+03	1.411349E-16	1.095948E-17
7.440000E+03	1.409257E-16	1.091598E-17
7.450000E+03	1.407342E-16	1.087200E-17
7.460000E+03	1.405416E-16	1.082610E-17
7.470000E+03	1.403291E-16	1.077683E-17
7.480000E+03	1.401320E-16	1.072692E-17
7.490000E+03	1.399135E-16	1.067355E-17
7.500000E+03	1.397086E-16	1.061941E-17
7.510000E+03	1.394805E-16	1.056171E-17
7.520000E+03	1.392643E-16	1.050312E-17
7.530000E+03	1.390231E-16	1.044087E-17
7.540000E+03	1.387742E-16	1.037629E-17
7.550000E+03	1.385346E-16	1.031067E-17
7.560000E+03	1.382677E-16	1.024131E-17
7.570000E+03	1.379909E-16	1.016953E-17
7.580000E+03	1.377212E-16	1.009664E-17
7.590000E+03	1.374226E-16	1.002001E-17
7.600000E+03	1.371125E-16	9.940975E-18
7.610000E+03	1.367906E-16	9.859574E-18
7.620000E+03	1.364745E-16	9.777113E-18
7.630000E+03	1.361287E-16	9.691113E-18
7.640000E+03	1.357710E-16	9.602925E-18
7.650000E+03	1.354017E-16	9.512638E-18
7.660000E+03	1.350212E-16	9.420358E-18
7.670000E+03	1.346298E-16	9.326203E-18
7.680000E+03	1.342283E-16	9.230308E-18
7.690000E+03	1.338172E-16	9.132820E-18
7.700000E+03	1.333976E-16	9.033898E-18
7.710000E+03	1.329701E-16	8.933717E-18
7.720000E+03	1.325360E-16	8.832459E-18
7.730000E+03	1.320962E-16	8.730320E-18
7.740000E+03	1.316518E-16	8.627506E-18
7.750000E+03	1.312041E-16	8.524230E-18
7.760000E+03	1.307542E-16	8.420717E-18
