#wls	flux	fluxerr
1.600000E+03	3.892929E-17	2.179931E-17
1.640000E+03	3.951505E-17	2.187700E-17
1.680000E+03	4.009767E-17	2.193936E-17
1.720000E+03	4.069079E-17	2.199350E-17
1.760000E+03	4.128698E-17	2.203495E-17
1.800000E+03	4.189316E-17	2.206697E-17
1.840000E+03	4.250171E-17	2.208510E-17
1.880000E+03	4.311219E-17	2.208874E-17
1.920000E+03	4.373177E-17	2.208121E-17
1.960000E+03	4.435256E-17	2.205809E-17
2.000000E+03	4.498197E-17	2.202271E-17
2.040000E+03	4.561193E-17	2.197074E-17
2.080000E+03	4.624205E-17	2.190174E-17
2.120000E+03	4.687199E-17	2.181533E-17
2.160000E+03	4.751781E-17	2.171867E-17
2.200000E+03	4.815495E-17	2.160014E-17
2.240000E+03	4.879968E-17	2.146700E-17
2.280000E+03	4.944368E-17	2.131533E-17
2.320000E+03	5.009548E-17	2.114866E-17
2.360000E+03	5.074674E-17	2.096327E-17
2.400000E+03	5.140639E-17	2.076274E-17
2.440000E+03	5.206617E-17	2.054360E-17
2.480000E+03	5.273545E-17	2.030950E-17
2.520000E+03	5.340613E-17	2.005719E-17
2.560000E+03	5.408812E-17	1.979039E-17
2.600000E+03	5.477352E-17	1.950611E-17
2.640000E+03	5.547290E-17	1.920811E-17
2.680000E+03	5.617868E-17	1.889369E-17
2.720000E+03	5.689268E-17	1.856353E-17
2.760000E+03	5.762660E-17	1.822145E-17
2.800000E+03	5.838323E-17	1.786807E-17
2.840000E+03	5.915596E-17	1.750120E-17
2.880000E+03	5.995792E-17	1.712461E-17
2.920000E+03	6.078322E-17	1.673636E-17
2.960000E+03	6.163607E-17	1.633748E-17
3.000000E+03	6.253134E-17	1.593167E-17
3.010000E+03	6.276593E-17	1.583012E-17
3.020000E+03	6.299278E-17	1.572548E-17
3.030000E+03	6.323238E-17	1.562290E-17
3.040000E+03	6.346437E-17	1.551731E-17
3.050000E+03	6.370935E-17	1.541378E-17
3.060000E+03	6.395718E-17	1.530978E-17
3.070000E+03	6.419760E-17	1.520288E-17
3.080000E+03	6.445141E-17	1.509804E-17
3.090000E+03	6.470837E-17	1.499280E-17
3.100000E+03	6.496859E-17	1.488717E-17
3.110000E+03	6.523219E-17	1.478119E-17
3.120000E+03	6.548876E-17	1.467250E-17
3.130000E+03	6.575942E-17	1.456587E-17
3.140000E+03	6.603380E-17	1.445895E-17
3.150000E+03	6.631201E-17	1.435174E-17
3.160000E+03	6.659419E-17	1.424428E-17
3.170000E+03	6.688046E-17	1.413659E-17
3.180000E+03	6.717095E-17	1.402870E-17
3.190000E+03	6.746578E-17	1.392061E-17
3.200000E+03	6.776510E-17	1.381237E-17
3.210000E+03	6.806903E-17	1.370399E-17
3.220000E+03	6.838860E-17	1.359767E-17
3.230000E+03	6.870222E-17	1.348908E-17
3.240000E+03	6.902089E-17	1.338044E-17
3.250000E+03	6.934475E-17	1.327177E-17
3.260000E+03	6.967395E-17	1.316311E-17
3.270000E+03	7.001973E-17	1.305654E-17
3.280000E+03	7.036012E-17	1.294796E-17
3.290000E+03	7.070631E-17	1.283947E-17
3.300000E+03	7.105847E-17	1.273111E-17
3.310000E+03	7.142802E-17	1.262492E-17
3.320000E+03	7.179266E-17	1.251692E-17
3.330000E+03	7.216376E-17	1.240916E-17
3.340000E+03	7.255291E-17	1.230363E-17
3.350000E+03	7.293752E-17	1.219646E-17
3.360000E+03	7.334062E-17	1.209156E-17
3.370000E+03	7.373943E-17	1.198517E-17
3.380000E+03	7.415721E-17	1.188109E-17
3.390000E+03	7.457096E-17	1.177565E-17
3.400000E+03	7.500415E-17	1.167260E-17
3.410000E+03	7.543358E-17	1.156833E-17
3.420000E+03	7.588295E-17	1.146652E-17
3.430000E+03	7.632883E-17	1.136365E-17
3.440000E+03	7.679515E-17	1.126332E-17
3.450000E+03	7.727026E-17	1.116381E-17
3.460000E+03	7.774229E-17	1.106348E-17
3.470000E+03	7.823554E-17	1.096584E-17
3.480000E+03	7.873817E-17	1.086924E-17
3.490000E+03	7.923814E-17	1.077207E-17
3.500000E+03	7.976010E-17	1.067776E-17
3.510000E+03	8.029205E-17	1.058472E-17
3.520000E+03	8.082172E-17	1.049139E-17
3.530000E+03	8.137417E-17	1.040111E-17
3.540000E+03	8.193721E-17	1.031234E-17
3.550000E+03	8.251102E-17	1.022514E-17
3.560000E+03	8.309579E-17	1.013962E-17
3.570000E+03	8.367884E-17	1.005430E-17
3.580000E+03	8.428599E-17	9.972377E-18
3.590000E+03	8.490462E-17	9.892370E-18
3.600000E+03	8.553490E-17	9.814364E-18
3.610000E+03	8.617698E-17	9.738436E-18
3.620000E+03	8.683102E-17	9.664663E-18
3.630000E+03	8.749713E-17	9.593120E-18
3.640000E+03	8.816201E-17	9.522423E-18
3.650000E+03	8.885255E-17	9.455551E-18
3.660000E+03	8.955548E-17	9.391099E-18
3.670000E+03	9.027089E-17	9.329118E-18
3.680000E+03	9.099883E-17	9.269652E-18
3.690000E+03	9.173934E-17	9.212736E-18
3.700000E+03	9.249243E-17	9.158399E-18
3.710000E+03	9.325810E-17	9.106658E-18
3.720000E+03	9.403630E-17	9.057519E-18
3.730000E+03	9.482699E-17	9.010981E-18
3.740000E+03	9.563009E-17	8.967028E-18
3.750000E+03	9.644546E-17	8.925636E-18
3.760000E+03	9.727299E-17	8.886768E-18
3.770000E+03	9.811249E-17	8.850377E-18
3.780000E+03	9.896376E-17	8.816402E-18
3.790000E+03	9.982656E-17	8.784773E-18
3.800000E+03	1.007006E-16	8.755409E-18
3.810000E+03	1.015857E-16	8.728218E-18
3.820000E+03	1.024814E-16	8.703099E-18
3.830000E+03	1.033874E-16	8.679942E-18
3.840000E+03	1.043032E-16	8.658627E-18
3.850000E+03	1.052285E-16	8.639029E-18
3.860000E+03	1.061629E-16	8.621016E-18
3.870000E+03	1.071057E-16	8.604448E-18
3.880000E+03	1.080565E-16	8.589184E-18
3.890000E+03	1.090148E-16	8.575078E-18
3.900000E+03	1.099800E-16	8.561982E-18
3.910000E+03	1.109515E-16	8.549746E-18
3.920000E+03	1.119287E-16	8.538222E-18
3.930000E+03	1.129109E-16	8.527262E-18
3.940000E+03	1.138975E-16	8.516722E-18
3.950000E+03	1.148878E-16	8.506459E-18
3.960000E+03	1.158811E-16	8.496337E-18
3.970000E+03	1.168768E-16	8.486225E-18
3.980000E+03	1.178741E-16	8.476000E-18
3.990000E+03	1.188724E-16	8.465546E-18
4.000000E+03	1.198709E-16	8.454757E-18
4.010000E+03	1.208690E-16	8.443537E-18
4.020000E+03	1.218660E-16	8.431801E-18
4.030000E+03	1.228613E-16	8.419477E-18
4.040000E+03	1.238541E-16	8.406504E-18
4.050000E+03	1.248440E-16	8.392838E-18
4.060000E+03	1.258304E-16	8.378449E-18
4.070000E+03	1.268126E-16	8.363319E-18
4.080000E+03	1.277903E-16	8.347451E-18
4.090000E+03	1.287630E-16	8.330861E-18
4.100000E+03	1.297303E-16	8.313584E-18
4.110000E+03	1.306919E-16	8.295672E-18
4.120000E+03	1.316475E-16	8.277193E-18
4.130000E+03	1.325777E-16	8.257039E-18
4.140000E+03	1.335208E-16	8.237710E-18
4.150000E+03	1.344575E-16	8.218129E-18
4.160000E+03	1.353878E-16	8.198434E-18
4.170000E+03	1.363120E-16	8.178781E-18
4.180000E+03	1.372301E-16	8.159342E-18
4.190000E+03	1.381224E-16	8.139132E-18
4.200000E+03	1.390291E-16	8.120699E-18
4.210000E+03	1.399306E-16	8.103084E-18
4.220000E+03	1.408275E-16	8.086511E-18
4.230000E+03	1.417000E-16	8.070059E-18
4.240000E+03	1.425893E-16	8.056295E-18
4.250000E+03	1.434758E-16	8.044309E-18
4.260000E+03	1.443395E-16	8.033212E-18
4.270000E+03	1.452225E-16	8.025565E-18
4.280000E+03	1.460843E-16	8.019337E-18
4.290000E+03	1.469672E-16	8.017081E-18
4.300000E+03	1.478516E-16	8.017911E-18
4.310000E+03	1.487171E-16	8.020937E-18
4.320000E+03	1.496071E-16	8.028691E-18
4.330000E+03	1.504799E-16	8.039121E-18
4.340000E+03	1.513794E-16	8.054734E-18
4.350000E+03	1.522636E-16	8.073445E-18
4.360000E+03	1.531549E-16	8.096580E-18
4.370000E+03	1.540760E-16	8.125451E-18
4.380000E+03	1.549844E-16	8.157895E-18
4.390000E+03	1.559248E-16	8.196326E-18
4.400000E+03	1.568540E-16	8.238501E-18
4.410000E+03	1.577946E-16	8.285608E-18
4.420000E+03	1.587475E-16	8.337650E-18
4.430000E+03	1.597358E-16	8.395781E-18
4.440000E+03	1.607152E-16	8.457590E-18
4.450000E+03	1.617084E-16	8.524171E-18
4.460000E+03	1.627161E-16	8.595417E-18
4.470000E+03	1.637384E-16	8.671201E-18
4.480000E+03	1.647757E-16	8.751374E-18
4.490000E+03	1.658281E-16	8.835770E-18
4.500000E+03	1.669189E-16	8.925456E-18
4.510000E+03	1.680015E-16	9.017749E-18
4.520000E+03	1.690991E-16	9.113680E-18
4.530000E+03	1.701874E-16	9.211746E-18
4.540000E+03	1.713137E-16	9.314281E-18
4.550000E+03	1.724537E-16	9.419783E-18
4.560000E+03	1.736068E-16	9.528018E-18
4.570000E+03	1.747724E-16	9.638749E-18
4.580000E+03	1.759496E-16	9.751740E-18
4.590000E+03	1.771129E-16	9.865381E-18
4.600000E+03	1.783102E-16	9.982162E-18
4.610000E+03	1.795161E-16	1.010049E-17
4.620000E+03	1.807042E-16	1.021872E-17
4.630000E+03	1.819231E-16	1.033943E-17
4.640000E+03	1.831465E-16	1.046098E-17
4.650000E+03	1.843475E-16	1.058170E-17
4.660000E+03	1.855752E-16	1.070425E-17
4.670000E+03	1.867770E-16	1.082547E-17
4.680000E+03	1.879766E-16	1.094659E-17
4.690000E+03	1.891984E-16	1.106892E-17
4.700000E+03	1.903887E-16	1.118917E-17
4.710000E+03	1.915979E-16	1.131019E-17
4.720000E+03	1.927717E-16	1.142864E-17
4.730000E+03	1.939345E-16	1.154583E-17
4.740000E+03	1.950845E-16	1.166151E-17
4.750000E+03	1.962199E-16	1.177542E-17
4.760000E+03	1.973391E-16	1.188733E-17
4.770000E+03	1.984674E-16	1.199861E-17
4.780000E+03	1.995489E-16	1.210572E-17
4.790000E+03	2.006091E-16	1.221003E-17
4.800000E+03	2.016462E-16	1.231127E-17
4.810000E+03	2.026312E-16	1.240745E-17
4.820000E+03	2.036176E-16	1.250170E-17
4.830000E+03	2.045766E-16	1.259204E-17
4.840000E+03	2.055066E-16	1.267819E-17
4.850000E+03	2.064063E-16	1.275989E-17
4.860000E+03	2.072462E-16	1.283510E-17
4.870000E+03	2.080815E-16	1.290705E-17
4.880000E+03	2.088828E-16	1.297374E-17
4.890000E+03	2.096205E-16	1.303315E-17
4.900000E+03	2.103506E-16	1.308857E-17
4.910000E+03	2.110150E-16	1.313623E-17
4.920000E+03	2.116702E-16	1.317949E-17
4.930000E+03	2.122580E-16	1.321458E-17
4.940000E+03	2.128353E-16	1.324491E-17
4.950000E+03	2.133440E-16	1.326674E-17
4.960000E+03	2.138125E-16	1.328174E-17
4.970000E+03	2.142694E-16	1.329160E-17
4.980000E+03	2.146567E-16	1.329264E-17
4.990000E+03	2.150032E-16	1.328661E-17
5.000000E+03	2.153090E-16	1.327348E-17
5.010000E+03	2.155745E-16	1.325324E-17
5.020000E+03	2.157998E-16	1.322591E-17
5.030000E+03	2.159855E-16	1.319153E-17
5.040000E+03	2.161322E-16	1.315016E-17
5.050000E+03	2.162406E-16	1.310190E-17
5.060000E+03	2.163114E-16	1.304684E-17
5.070000E+03	2.163456E-16	1.298511E-17
5.080000E+03	2.163151E-16	1.291511E-17
5.090000E+03	2.162791E-16	1.284048E-17
5.100000E+03	2.162098E-16	1.275964E-17
5.110000E+03	2.160794E-16	1.267107E-17
5.120000E+03	2.159471E-16	1.257836E-17
5.130000E+03	2.157852E-16	1.248001E-17
5.140000E+03	2.155662E-16	1.237455E-17
5.150000E+03	2.153493E-16	1.226553E-17
5.160000E+03	2.150780E-16	1.214985E-17
5.170000E+03	2.147827E-16	1.202940E-17
5.180000E+03	2.144933E-16	1.190599E-17
5.190000E+03	2.141538E-16	1.177666E-17
5.200000E+03	2.137940E-16	1.164324E-17
5.210000E+03	2.134153E-16	1.150598E-17
5.220000E+03	2.130473E-16	1.136666E-17
5.230000E+03	2.126339E-16	1.122249E-17
5.240000E+03	2.122047E-16	1.107527E-17
5.250000E+03	2.117606E-16	1.092532E-17
5.260000E+03	2.113024E-16	1.077294E-17
5.270000E+03	2.108309E-16	1.061847E-17
5.280000E+03	2.103466E-16	1.046229E-17
5.290000E+03	2.098500E-16	1.030479E-17
5.300000E+03	2.093137E-16	1.014506E-17
5.310000E+03	2.087940E-16	9.986279E-18
5.320000E+03	2.082631E-16	9.827598E-18
5.330000E+03	2.077212E-16	9.669569E-18
5.340000E+03	2.071409E-16	9.511528E-18
5.350000E+03	2.065775E-16	9.356676E-18
5.360000E+03	2.059760E-16	9.203199E-18
5.370000E+03	2.053913E-16	9.054308E-18
5.380000E+03	2.047686E-16	8.908358E-18
5.390000E+03	2.041626E-16	8.768560E-18
5.400000E+03	2.035189E-16	8.633417E-18
5.410000E+03	2.028647E-16	8.504983E-18
5.420000E+03	2.022270E-16	8.385246E-18
5.430000E+03	2.015520E-16	8.272827E-18
5.440000E+03	2.008669E-16	8.169686E-18
5.450000E+03	2.001719E-16	8.076597E-18
5.460000E+03	1.994937E-16	7.995309E-18
5.470000E+03	1.987798E-16	7.924267E-18
5.480000E+03	1.980571E-16	7.864978E-18
5.490000E+03	1.973263E-16	7.817711E-18
5.500000E+03	1.965880E-16	7.782510E-18
5.510000E+03	1.958429E-16	7.759119E-18
5.520000E+03	1.950918E-16	7.747092E-18
5.530000E+03	1.943100E-16	7.744808E-18
5.540000E+03	1.935500E-16	7.753608E-18
5.550000E+03	1.927871E-16	7.771675E-18
5.560000E+03	1.920225E-16	7.798163E-18
5.570000E+03	1.912319E-16	7.831167E-18
5.580000E+03	1.904675E-16	7.871882E-18
5.590000E+03	1.897051E-16	7.918423E-18
5.600000E+03	1.889210E-16	7.968917E-18
5.610000E+03	1.881666E-16	8.024685E-18
5.620000E+03	1.873934E-16	8.082887E-18
5.630000E+03	1.866525E-16	8.144980E-18
5.640000E+03	1.858956E-16	8.208204E-18
5.650000E+03	1.851733E-16	8.274162E-18
5.660000E+03	1.844378E-16	8.340174E-18
5.670000E+03	1.837149E-16	8.406872E-18
5.680000E+03	1.830056E-16	8.473853E-18
5.690000E+03	1.823352E-16	8.541886E-18
5.700000E+03	1.816564E-16	8.608405E-18
5.710000E+03	1.809942E-16	8.674245E-18
5.720000E+03	1.803495E-16	8.739154E-18
5.730000E+03	1.797230E-16	8.802906E-18
5.740000E+03	1.791154E-16	8.865301E-18
5.750000E+03	1.785271E-16	8.926158E-18
5.760000E+03	1.779587E-16	8.985315E-18
5.770000E+03	1.774105E-16	9.042627E-18
5.780000E+03	1.768827E-16	9.097961E-18
5.790000E+03	1.763755E-16	9.151197E-18
5.800000E+03	1.758890E-16	9.202226E-18
5.810000E+03	1.754230E-16	9.250949E-18
5.820000E+03	1.749544E-16	9.296050E-18
5.830000E+03	1.745291E-16	9.339891E-18
5.840000E+03	1.741236E-16	9.381178E-18
5.850000E+03	1.737374E-16	9.419842E-18
5.860000E+03	1.733471E-16	9.454575E-18
5.870000E+03	1.729976E-16	9.487807E-18
5.880000E+03	1.726426E-16	9.516990E-18
5.890000E+03	1.723266E-16	9.544577E-18
5.900000E+03	1.720030E-16	9.568014E-18
5.910000E+03	1.717161E-16	9.589774E-18
5.920000E+03	1.714192E-16	9.607292E-18
5.930000E+03	1.711562E-16	9.623054E-18
5.940000E+03	1.708802E-16	9.634488E-18
5.950000E+03	1.706124E-16	9.642818E-18
5.960000E+03	1.703734E-16	9.649273E-18
5.970000E+03	1.701165E-16	9.651271E-18
5.980000E+03	1.698624E-16	9.650040E-18
5.990000E+03	1.696091E-16	9.645539E-18
6.000000E+03	1.693773E-16	9.638994E-18
6.010000E+03	1.691203E-16	9.627831E-18
6.020000E+03	1.688587E-16	9.613281E-18
6.030000E+03	1.685908E-16	9.595315E-18
6.040000E+03	1.683150E-16	9.573908E-18
6.050000E+03	1.680297E-16	9.549042E-18
6.060000E+03	1.677336E-16	9.520709E-18
6.070000E+03	1.674254E-16	9.488911E-18
6.080000E+03	1.671041E-16	9.453662E-18
6.090000E+03	1.667688E-16	9.414987E-18
6.100000E+03	1.664189E-16	9.372927E-18
6.110000E+03	1.660537E-16	9.327536E-18
6.120000E+03	1.656731E-16	9.278882E-18
6.130000E+03	1.652770E-16	9.227051E-18
6.140000E+03	1.648437E-16	9.170934E-18
6.150000E+03	1.644170E-16	9.113065E-18
6.160000E+03	1.639755E-16	9.052357E-18
6.170000E+03	1.635199E-16	8.988953E-18
6.180000E+03	1.630295E-16	8.921832E-18
6.190000E+03	1.625482E-16	8.853518E-18
6.200000E+03	1.620554E-16	8.783006E-18
6.210000E+03	1.615310E-16	8.709339E-18
6.220000E+03	1.610188E-16	8.635020E-18
6.230000E+03	1.604778E-16	8.557974E-18
6.240000E+03	1.599515E-16	8.480683E-18
6.250000E+03	1.593992E-16	8.401132E-18
6.260000E+03	1.588645E-16	8.321778E-18
6.270000E+03	1.583068E-16	8.240662E-18
6.280000E+03	1.577694E-16	8.160214E-18
6.290000E+03	1.572121E-16	8.078530E-18
6.300000E+03	1.566779E-16	7.998012E-18
6.310000E+03	1.561269E-16	7.916810E-18
6.320000E+03	1.555810E-16	7.836260E-18
6.330000E+03	1.550620E-16	7.757661E-18
6.340000E+03	1.545302E-16	7.679237E-18
6.350000E+03	1.540073E-16	7.602302E-18
6.360000E+03	1.534943E-16	7.527137E-18
6.370000E+03	1.530125E-16	7.455007E-18
6.380000E+03	1.525223E-16	7.384216E-18
6.390000E+03	1.520448E-16	7.316030E-18
6.400000E+03	1.515807E-16	7.250721E-18
6.410000E+03	1.511308E-16	7.188549E-18
6.420000E+03	1.506955E-16	7.129769E-18
6.430000E+03	1.502754E-16	7.074621E-18
6.440000E+03	1.498906E-16	7.024260E-18
6.450000E+03	1.495018E-16	6.977038E-18
6.460000E+03	1.491292E-16	6.934084E-18
6.470000E+03	1.487729E-16	6.895571E-18
6.480000E+03	1.484329E-16	6.861650E-18
6.490000E+03	1.481093E-16	6.832449E-18
6.500000E+03	1.478018E-16	6.808069E-18
6.510000E+03	1.475104E-16	6.788583E-18
6.520000E+03	1.472153E-16	6.773140E-18
6.530000E+03	1.469551E-16	6.763544E-18
6.540000E+03	1.467099E-16	6.758880E-18
6.550000E+03	1.464791E-16	6.759099E-18
6.560000E+03	1.462621E-16	6.764119E-18
6.570000E+03	1.460583E-16	6.773827E-18
6.580000E+03	1.458475E-16	6.787183E-18
6.590000E+03	1.456676E-16	6.805805E-18
6.600000E+03	1.454983E-16	6.828598E-18
6.610000E+03	1.453387E-16	6.855336E-18
6.620000E+03	1.451686E-16	6.884859E-18
6.630000E+03	1.450254E-16	6.918716E-18
6.640000E+03	1.448889E-16	6.955715E-18
6.650000E+03	1.447390E-16	6.994633E-18
6.660000E+03	1.446128E-16	7.037009E-18
6.670000E+03	1.444904E-16	7.081611E-18
6.680000E+03	1.443515E-16	7.127185E-18
6.690000E+03	1.442337E-16	7.175302E-18
6.700000E+03	1.440979E-16	7.223766E-18
6.710000E+03	1.439817E-16	7.274196E-18
6.720000E+03	1.438653E-16	7.325364E-18
6.730000E+03	1.437293E-16	7.376036E-18
6.740000E+03	1.436114E-16	7.427923E-18
6.750000E+03	1.434734E-16	7.478848E-18
6.760000E+03	1.433343E-16	7.529597E-18
6.770000E+03	1.432132E-16	7.581012E-18
6.780000E+03	1.430723E-16	7.630949E-18
6.790000E+03	1.429501E-16	7.681312E-18
6.800000E+03	1.428090E-16	7.729984E-18
6.810000E+03	1.426877E-16	7.778944E-18
6.820000E+03	1.425490E-16	7.826096E-18
6.830000E+03	1.424127E-16	7.872444E-18
6.840000E+03	1.422986E-16	7.919041E-18
6.850000E+03	1.421699E-16	7.963804E-18
6.860000E+03	1.420464E-16	8.007806E-18
6.870000E+03	1.419292E-16	8.051086E-18
6.880000E+03	1.418380E-16	8.094764E-18
6.890000E+03	1.417361E-16	8.136743E-18
6.900000E+03	1.416431E-16	8.178142E-18
6.910000E+03	1.415598E-16	8.219005E-18
6.920000E+03	1.414866E-16	8.259375E-18
6.930000E+03	1.414430E-16	8.300389E-18
6.940000E+03	1.413915E-16	8.339865E-18
6.950000E+03	1.413510E-16	8.378912E-18
6.960000E+03	1.413213E-16	8.417529E-18
6.970000E+03	1.413022E-16	8.455697E-18
6.980000E+03	1.412931E-16	8.493383E-18
6.990000E+03	1.412932E-16	8.530541E-18
7.000000E+03	1.413016E-16	8.567109E-18
7.010000E+03	1.413171E-16	8.603010E-18
7.020000E+03	1.413384E-16	8.638154E-18
7.030000E+03	1.413640E-16	8.672443E-18
7.040000E+03	1.413922E-16	8.705765E-18
7.050000E+03	1.414214E-16	8.738003E-18
7.060000E+03	1.414495E-16	8.769033E-18
7.070000E+03	1.414749E-16	8.798729E-18
7.080000E+03	1.414956E-16	8.826965E-18
7.090000E+03	1.415097E-16	8.853615E-18
7.100000E+03	1.415155E-16	8.878559E-18
7.110000E+03	1.414924E-16	8.900491E-18
7.120000E+03	1.414766E-16	8.921687E-18
7.130000E+03	1.414478E-16	8.940866E-18
7.140000E+03	1.414050E-16	8.957949E-18
7.150000E+03	1.413471E-16	8.972873E-18
7.160000E+03	1.412547E-16	8.984389E-18
7.170000E+03	1.411653E-16	8.994873E-18
7.180000E+03	1.410598E-16	9.003115E-18
7.190000E+03	1.409385E-16	9.009126E-18
7.200000E+03	1.407831E-16	9.011727E-18
7.210000E+03	1.406321E-16	9.013383E-18
7.220000E+03	1.404679E-16	9.012952E-18
7.230000E+03	1.402730E-16	9.009307E-18
7.240000E+03	1.400865E-16	9.004964E-18
7.250000E+03	1.398727E-16	8.997614E-18
7.260000E+03	1.396711E-16	8.989792E-18
7.270000E+03	1.394647E-16	8.980415E-18
7.280000E+03	1.392370E-16	8.968408E-18
7.290000E+03	1.390274E-16	8.956314E-18
7.300000E+03	1.388004E-16	8.941852E-18
7.310000E+03	1.385954E-16	8.927556E-18
7.320000E+03	1.383767E-16	8.911140E-18
7.330000E+03	1.381833E-16	8.895114E-18
7.340000E+03	1.379792E-16	8.877178E-18
7.350000E+03	1.377842E-16	8.858619E-18
7.360000E+03	1.376179E-16	8.840697E-18
7.370000E+03	1.374438E-16	8.821082E-18
7.380000E+03	1.372993E-16	8.802193E-18
7.390000E+03	1.371476E-16	8.781673E-18
7.400000E+03	1.370071E-16	8.760716E-18
7.410000E+03	1.368775E-16	8.739309E-18
7.420000E+03	1.367766E-16	8.718600E-18
7.430000E+03	1.366666E-16	8.696185E-18
7.440000E+03	1.365649E-16	8.673185E-18
7.450000E+03	1.364890E-16	8.650696E-18
7.460000E+03	1.364003E-16	8.626291E-18
7.470000E+03	1.363158E-16	8.601047E-18
7.480000E+03	1.362339E-16	8.574861E-18
7.490000E+03	1.361528E-16	8.547624E-18
7.500000E+03	1.360707E-16	8.519222E-18
7.510000E+03	1.359856E-16	8.489542E-18
7.520000E+03	1.359141E-16	8.459617E-18
7.530000E+03	1.358173E-16	8.427038E-18
7.540000E+03	1.357119E-16	8.392852E-18
7.550000E+03	1.355959E-16	8.356964E-18
7.560000E+03	1.354678E-16	8.319288E-18
7.570000E+03	1.353258E-16	8.279753E-18
7.580000E+03	1.351685E-16	8.238299E-18
7.590000E+03	1.349945E-16	8.194886E-18
7.600000E+03	1.348029E-16	8.149491E-18
7.610000E+03	1.345743E-16	8.101004E-18
7.620000E+03	1.343449E-16	8.051652E-18
7.630000E+03	1.340958E-16	8.000359E-18
7.640000E+03	1.338269E-16	7.947177E-18
7.650000E+03	1.335384E-16	7.892179E-18
7.660000E+03	1.332307E-16	7.835454E-18
7.670000E+03	1.328864E-16	7.776046E-18
7.680000E+03	1.325426E-16	7.716210E-18
7.690000E+03	1.321824E-16	7.655012E-18
7.700000E+03	1.318072E-16	7.592602E-18
7.710000E+03	1.314006E-16	7.528113E-18
7.720000E+03	1.310002E-16	7.463783E-18
7.730000E+03	1.305900E-16	7.398753E-18
7.740000E+03	1.301541E-16	7.332204E-18
7.750000E+03	1.297303E-16	7.266343E-18
7.760000E+03	1.293027E-16	7.200351E-18
