#wls	flux	fluxerr
1.572591E+03	5.194948E-17	5.501789E-18
1.611906E+03	5.212831E-17	5.302272E-18
1.651221E+03	5.191885E-17	5.064879E-18
1.690536E+03	5.130951E-17	4.794097E-18
1.729850E+03	5.029105E-17	4.494805E-18
1.769165E+03	4.882916E-17	4.169813E-18
1.808480E+03	4.686597E-17	3.820391E-18
1.847795E+03	4.437498E-17	3.450845E-18
1.887110E+03	4.134716E-17	3.066696E-18
1.926424E+03	3.783599E-17	2.677338E-18
1.965739E+03	3.399625E-17	2.297413E-18
2.005054E+03	3.011952E-17	1.947495E-18
2.044369E+03	2.660398E-17	1.650629E-18
2.083683E+03	2.385732E-17	1.426072E-18
2.122998E+03	2.216944E-17	1.282877E-18
2.162313E+03	2.160815E-17	1.216856E-18
2.201628E+03	2.206394E-17	1.215891E-18
2.240943E+03	2.335058E-17	1.266255E-18
2.280257E+03	2.526337E-17	1.354983E-18
2.319572E+03	2.762893E-17	1.471890E-18
2.358887E+03	3.033581E-17	1.610610E-18
2.398202E+03	3.332578E-17	1.767661E-18
2.437517E+03	3.657935E-17	1.941482E-18
2.476831E+03	4.008929E-17	2.130980E-18
2.516146E+03	4.385463E-17	2.335231E-18
2.555461E+03	4.786554E-17	2.552712E-18
2.594776E+03	5.211108E-17	2.781760E-18
2.634090E+03	5.659190E-17	3.021307E-18
2.673405E+03	6.132700E-17	3.271295E-18
2.712720E+03	6.634348E-17	3.532168E-18
2.752035E+03	7.166906E-17	3.804165E-18
2.791350E+03	7.733110E-17	4.086108E-18
2.830664E+03	8.336084E-17	4.376295E-18
2.869979E+03	8.978407E-17	4.672315E-18
2.909294E+03	9.663596E-17	4.971873E-18
2.948609E+03	1.039421E-16	5.271870E-18
2.958437E+03	1.058458E-16	5.346716E-18
2.968266E+03	1.077784E-16	5.421260E-18
2.978095E+03	1.097402E-16	5.495437E-18
2.987923E+03	1.117381E-16	5.569528E-18
2.997752E+03	1.137776E-16	5.643729E-18
3.007581E+03	1.158672E-16	5.718379E-18
3.017410E+03	1.180074E-16	5.793426E-18
3.027238E+03	1.201940E-16	5.868571E-18
3.037067E+03	1.224259E-16	5.943695E-18
3.046896E+03	1.247073E-16	6.018913E-18
3.056724E+03	1.270367E-16	6.094084E-18
3.066553E+03	1.294144E-16	6.169147E-18
3.076382E+03	1.318355E-16	6.243804E-18
3.086210E+03	1.343059E-16	6.318264E-18
3.096039E+03	1.368155E-16	6.391994E-18
3.105868E+03	1.393649E-16	6.464974E-18
3.115697E+03	1.419546E-16	6.537191E-18
3.125525E+03	1.445827E-16	6.608515E-18
3.135354E+03	1.472418E-16	6.678585E-18
3.145183E+03	1.499379E-16	6.747666E-18
3.155011E+03	1.526638E-16	6.815419E-18
3.164840E+03	1.554200E-16	6.881886E-18
3.174669E+03	1.582019E-16	6.946880E-18
3.184497E+03	1.610102E-16	7.010468E-18
3.194326E+03	1.638427E-16	7.072613E-18
3.204155E+03	1.666975E-16	7.133293E-18
3.213983E+03	1.695696E-16	7.192378E-18
3.223812E+03	1.724595E-16	7.250005E-18
3.233641E+03	1.753652E-16	7.306202E-18
3.243470E+03	1.782814E-16	7.360895E-18
3.253298E+03	1.812085E-16	7.414273E-18
3.263127E+03	1.841414E-16	7.466308E-18
3.272956E+03	1.870804E-16	7.517226E-18
3.282784E+03	1.900198E-16	7.567041E-18
3.292613E+03	1.929572E-16	7.615907E-18
3.302442E+03	1.958895E-16	7.663999E-18
3.312270E+03	1.988138E-16	7.711517E-18
3.322099E+03	2.017272E-16	7.758680E-18
3.331928E+03	2.046233E-16	7.805614E-18
3.341757E+03	2.075018E-16	7.852697E-18
3.351585E+03	2.103532E-16	7.899978E-18
3.361414E+03	2.131795E-16	7.947981E-18
3.371243E+03	2.159707E-16	7.996786E-18
3.381071E+03	2.187223E-16	8.046706E-18
3.390900E+03	2.214290E-16	8.098051E-18
3.400729E+03	2.240819E-16	8.150997E-18
3.410557E+03	2.266765E-16	8.205906E-18
3.420386E+03	2.291998E-16	8.262834E-18
3.430215E+03	2.316340E-16	8.321669E-18
3.440043E+03	2.339619E-16	8.382310E-18
3.449872E+03	2.361618E-16	8.444499E-18
3.459701E+03	2.382162E-16	8.508071E-18
3.469530E+03	2.400964E-16	8.572411E-18
3.479358E+03	2.417955E-16	8.637620E-18
3.489187E+03	2.433094E-16	8.703821E-18
3.499016E+03	2.446440E-16	8.771161E-18
3.508844E+03	2.458025E-16	8.839551E-18
3.518673E+03	2.467932E-16	8.909029E-18
3.528502E+03	2.476318E-16	8.979852E-18
3.538330E+03	2.483236E-16	9.051872E-18
3.548159E+03	2.488861E-16	9.125357E-18
3.557988E+03	2.493317E-16	9.200372E-18
3.567817E+03	2.496707E-16	9.276884E-18
3.577645E+03	2.499160E-16	9.354963E-18
3.587474E+03	2.500835E-16	9.434781E-18
3.597303E+03	2.501829E-16	9.516305E-18
3.607131E+03	2.502317E-16	9.599794E-18
3.616960E+03	2.502357E-16	9.685082E-18
3.626789E+03	2.502075E-16	9.772291E-18
3.636617E+03	2.501562E-16	9.861412E-18
3.646446E+03	2.500919E-16	9.952512E-18
3.656275E+03	2.500183E-16	1.004543E-17
3.666103E+03	2.499433E-16	1.014016E-17
3.675932E+03	2.498708E-16	1.023661E-17
3.685761E+03	2.498060E-16	1.033471E-17
3.695590E+03	2.497507E-16	1.043430E-17
3.705418E+03	2.497077E-16	1.053526E-17
3.715247E+03	2.496768E-16	1.063737E-17
3.725076E+03	2.496565E-16	1.074037E-17
3.734904E+03	2.496519E-16	1.084427E-17
3.744733E+03	2.496553E-16	1.094858E-17
3.754562E+03	2.496681E-16	1.105317E-17
3.764390E+03	2.496910E-16	1.115792E-17
3.774219E+03	2.497172E-16	1.126236E-17
3.784048E+03	2.497439E-16	1.136623E-17
3.793877E+03	2.497706E-16	1.146935E-17
3.803705E+03	2.497940E-16	1.157144E-17
3.813534E+03	2.498105E-16	1.167220E-17
3.823363E+03	2.498145E-16	1.177124E-17
3.833191E+03	2.498049E-16	1.186837E-17
3.843020E+03	2.497784E-16	1.196334E-17
3.852849E+03	2.497322E-16	1.205589E-17
3.862677E+03	2.496636E-16	1.214577E-17
3.872506E+03	2.495704E-16	1.223278E-17
3.882335E+03	2.494525E-16	1.231682E-17
3.892163E+03	2.493081E-16	1.239769E-17
3.901992E+03	2.491327E-16	1.247510E-17
3.911821E+03	2.489290E-16	1.254909E-17
3.921650E+03	2.486927E-16	1.261938E-17
3.931478E+03	2.484243E-16	1.268591E-17
3.941307E+03	2.481220E-16	1.274854E-17
3.951136E+03	2.477819E-16	1.280699E-17
3.960964E+03	2.474068E-16	1.286138E-17
3.970793E+03	2.469931E-16	1.291145E-17
3.980622E+03	2.465417E-16	1.295721E-17
3.990450E+03	2.460511E-16	1.299856E-17
4.000279E+03	2.455200E-16	1.303538E-17
4.010108E+03	2.449473E-16	1.306761E-17
4.019937E+03	2.443340E-16	1.309527E-17
4.029765E+03	2.436775E-16	1.311821E-17
4.039594E+03	2.429777E-16	1.313642E-17
4.049423E+03	2.422395E-16	1.315017E-17
4.059251E+03	2.414597E-16	1.315928E-17
4.069080E+03	2.406422E-16	1.316398E-17
4.078909E+03	2.397890E-16	1.316440E-17
4.088737E+03	2.389026E-16	1.316071E-17
4.098566E+03	2.379857E-16	1.315309E-17
4.108395E+03	2.370410E-16	1.314171E-17
4.118223E+03	2.360710E-16	1.312677E-17
4.128052E+03	2.350783E-16	1.310846E-17
4.137881E+03	2.340651E-16	1.308696E-17
4.147710E+03	2.330333E-16	1.306244E-17
4.157538E+03	2.319830E-16	1.303495E-17
4.167367E+03	2.309158E-16	1.300467E-17
4.177196E+03	2.298349E-16	1.297184E-17
4.187024E+03	2.287413E-16	1.293659E-17
4.196853E+03	2.276312E-16	1.289880E-17
4.206682E+03	2.265063E-16	1.285863E-17
4.216510E+03	2.253654E-16	1.281610E-17
4.226339E+03	2.242067E-16	1.277119E-17
4.236168E+03	2.230274E-16	1.272383E-17
4.245997E+03	2.218230E-16	1.267380E-17
4.255825E+03	2.205943E-16	1.262122E-17
4.265654E+03	2.193340E-16	1.256573E-17
4.275483E+03	2.180422E-16	1.250740E-17
4.285311E+03	2.167147E-16	1.244607E-17
4.295140E+03	2.153505E-16	1.238175E-17
4.304969E+03	2.139506E-16	1.231455E-17
4.314797E+03	2.125183E-16	1.224475E-17
4.324626E+03	2.110548E-16	1.217251E-17
4.334455E+03	2.095651E-16	1.209818E-17
4.344283E+03	2.080499E-16	1.202188E-17
4.354112E+03	2.065095E-16	1.194373E-17
4.363941E+03	2.049477E-16	1.186403E-17
4.373770E+03	2.033641E-16	1.178284E-17
4.383598E+03	2.017599E-16	1.170033E-17
4.393427E+03	2.001377E-16	1.161672E-17
4.403256E+03	1.984945E-16	1.153195E-17
4.413084E+03	1.968326E-16	1.144622E-17
4.422913E+03	1.951525E-16	1.135966E-17
4.432742E+03	1.934528E-16	1.127227E-17
4.442570E+03	1.917339E-16	1.118417E-17
4.452399E+03	1.899965E-16	1.109548E-17
4.462228E+03	1.882416E-16	1.100634E-17
4.472057E+03	1.864703E-16	1.091691E-17
4.481885E+03	1.846823E-16	1.082723E-17
4.491714E+03	1.828779E-16	1.073741E-17
4.501543E+03	1.810628E-16	1.064786E-17
4.511371E+03	1.792363E-16	1.055859E-17
4.521200E+03	1.773996E-16	1.046976E-17
4.531029E+03	1.755579E-16	1.038172E-17
4.540857E+03	1.737150E-16	1.029477E-17
4.550686E+03	1.718702E-16	1.020892E-17
4.560515E+03	1.700333E-16	1.012479E-17
4.570343E+03	1.682031E-16	1.004238E-17
4.580172E+03	1.663887E-16	9.962263E-18
4.590001E+03	1.645946E-16	9.884751E-18
4.599830E+03	1.628254E-16	9.810172E-18
4.609658E+03	1.610861E-16	9.738856E-18
4.619487E+03	1.593815E-16	9.671138E-18
4.629316E+03	1.577196E-16	9.607539E-18
4.639144E+03	1.561037E-16	9.548287E-18
4.648973E+03	1.545382E-16	9.493603E-18
4.658802E+03	1.530283E-16	9.443724E-18
4.668630E+03	1.515747E-16	9.398613E-18
4.678459E+03	1.501856E-16	9.358707E-18
4.688288E+03	1.488597E-16	9.323870E-18
4.698117E+03	1.476034E-16	9.294444E-18
4.707945E+03	1.464198E-16	9.270585E-18
4.717774E+03	1.453092E-16	9.252272E-18
4.727603E+03	1.442760E-16	9.239765E-18
4.737431E+03	1.433228E-16	9.233210E-18
4.747260E+03	1.424460E-16	9.232372E-18
4.757089E+03	1.416466E-16	9.237303E-18
4.766917E+03	1.409240E-16	9.247975E-18
4.776746E+03	1.402764E-16	9.264271E-18
4.786575E+03	1.397035E-16	9.286177E-18
4.796403E+03	1.392061E-16	9.313777E-18
4.806232E+03	1.387825E-16	9.346967E-18
4.816061E+03	1.384334E-16	9.385827E-18
4.825890E+03	1.381552E-16	9.430138E-18
4.835718E+03	1.379482E-16	9.479949E-18
4.845547E+03	1.378110E-16	9.535208E-18
4.855376E+03	1.377406E-16	9.595737E-18
4.865204E+03	1.377364E-16	9.661541E-18
4.875033E+03	1.377951E-16	9.732409E-18
4.884862E+03	1.379156E-16	9.808319E-18
4.894690E+03	1.380941E-16	9.889028E-18
4.904519E+03	1.383280E-16	9.974387E-18
4.914348E+03	1.386130E-16	1.006413E-17
4.924177E+03	1.389491E-16	1.015828E-17
4.934005E+03	1.393307E-16	1.025644E-17
4.943834E+03	1.397545E-16	1.035843E-17
4.953663E+03	1.402189E-16	1.046413E-17
4.963491E+03	1.407191E-16	1.057321E-17
4.973320E+03	1.412516E-16	1.068542E-17
4.983149E+03	1.418128E-16	1.080050E-17
4.992977E+03	1.423989E-16	1.091817E-17
5.002806E+03	1.430045E-16	1.103802E-17
5.012635E+03	1.436259E-16	1.115974E-17
5.022463E+03	1.442605E-16	1.128315E-17
5.032292E+03	1.449017E-16	1.140771E-17
5.042121E+03	1.455491E-16	1.153336E-17
5.051950E+03	1.461947E-16	1.165945E-17
5.061778E+03	1.468385E-16	1.178595E-17
5.071607E+03	1.474761E-16	1.191247E-17
5.081436E+03	1.481048E-16	1.203878E-17
5.091264E+03	1.487224E-16	1.216463E-17
5.101093E+03	1.493252E-16	1.228971E-17
5.110922E+03	1.499115E-16	1.241381E-17
5.120750E+03	1.504784E-16	1.253665E-17
5.130579E+03	1.510276E-16	1.265834E-17
5.140408E+03	1.515540E-16	1.277838E-17
5.150237E+03	1.520582E-16	1.289679E-17
5.160065E+03	1.525398E-16	1.301350E-17
5.169894E+03	1.529986E-16	1.312841E-17
5.179723E+03	1.534313E-16	1.324121E-17
5.189551E+03	1.538391E-16	1.335197E-17
5.199380E+03	1.542206E-16	1.346049E-17
5.209209E+03	1.545755E-16	1.356672E-17
5.219037E+03	1.549024E-16	1.367049E-17
5.228866E+03	1.552030E-16	1.377189E-17
5.238695E+03	1.554741E-16	1.387060E-17
5.248523E+03	1.557159E-16	1.396660E-17
5.258352E+03	1.559270E-16	1.405972E-17
5.268181E+03	1.561093E-16	1.415007E-17
5.278010E+03	1.562581E-16	1.423720E-17
5.287838E+03	1.563752E-16	1.432121E-17
5.297667E+03	1.564591E-16	1.440194E-17
5.307496E+03	1.565082E-16	1.447919E-17
5.317324E+03	1.565177E-16	1.455247E-17
5.327153E+03	1.564860E-16	1.462158E-17
5.336982E+03	1.564117E-16	1.468632E-17
5.346810E+03	1.562873E-16	1.474592E-17
5.356639E+03	1.561119E-16	1.480019E-17
5.366468E+03	1.558798E-16	1.484851E-17
5.376297E+03	1.555889E-16	1.489057E-17
5.386125E+03	1.552448E-16	1.492684E-17
5.395954E+03	1.548471E-16	1.495717E-17
5.405783E+03	1.544016E-16	1.498206E-17
5.415611E+03	1.539112E-16	1.500171E-17
5.425440E+03	1.533836E-16	1.501678E-17
5.435269E+03	1.528184E-16	1.502720E-17
5.445097E+03	1.522203E-16	1.503337E-17
5.454926E+03	1.515907E-16	1.503539E-17
5.464755E+03	1.509358E-16	1.503381E-17
5.474583E+03	1.502555E-16	1.502859E-17
5.484412E+03	1.495528E-16	1.501999E-17
5.494241E+03	1.488290E-16	1.500812E-17
5.504070E+03	1.480885E-16	1.499340E-17
5.513898E+03	1.473312E-16	1.497578E-17
5.523727E+03	1.465596E-16	1.495552E-17
5.533556E+03	1.457767E-16	1.493288E-17
5.543384E+03	1.449836E-16	1.490798E-17
5.553213E+03	1.441829E-16	1.488107E-17
5.563042E+03	1.433741E-16	1.485211E-17
5.572870E+03	1.425600E-16	1.482137E-17
5.582699E+03	1.417432E-16	1.478910E-17
5.592528E+03	1.409246E-16	1.475543E-17
5.602357E+03	1.401055E-16	1.472048E-17
5.612185E+03	1.392868E-16	1.468436E-17
5.622014E+03	1.384728E-16	1.464753E-17
5.631843E+03	1.376615E-16	1.460978E-17
5.641671E+03	1.368570E-16	1.457156E-17
5.651500E+03	1.360602E-16	1.453298E-17
5.661329E+03	1.352707E-16	1.449402E-17
5.671157E+03	1.344907E-16	1.445493E-17
5.680986E+03	1.337225E-16	1.441598E-17
5.690815E+03	1.329654E-16	1.437709E-17
5.700643E+03	1.322201E-16	1.433839E-17
5.710472E+03	1.314900E-16	1.430025E-17
5.720301E+03	1.307730E-16	1.426247E-17
5.730130E+03	1.300709E-16	1.422527E-17
5.739958E+03	1.293843E-16	1.418872E-17
5.749787E+03	1.287135E-16	1.415291E-17
5.759616E+03	1.280603E-16	1.411804E-17
5.769444E+03	1.274219E-16	1.408384E-17
5.779273E+03	1.268014E-16	1.405066E-17
5.789102E+03	1.261973E-16	1.401836E-17
5.798930E+03	1.256094E-16	1.398696E-17
5.808759E+03	1.250374E-16	1.395643E-17
5.818588E+03	1.244809E-16	1.392676E-17
5.828417E+03	1.239406E-16	1.389804E-17
5.838245E+03	1.234130E-16	1.386992E-17
5.848074E+03	1.228975E-16	1.384233E-17
5.857903E+03	1.223945E-16	1.381534E-17
5.867731E+03	1.219031E-16	1.378888E-17
5.877560E+03	1.214197E-16	1.376256E-17
5.887389E+03	1.209463E-16	1.373661E-17
5.897217E+03	1.204780E-16	1.371049E-17
5.907046E+03	1.200182E-16	1.368461E-17
5.916875E+03	1.195622E-16	1.365845E-17
5.926703E+03	1.191092E-16	1.363192E-17
5.936532E+03	1.186600E-16	1.360516E-17
5.946361E+03	1.182128E-16	1.357793E-17
5.956190E+03	1.177669E-16	1.355019E-17
5.966018E+03	1.173192E-16	1.352160E-17
5.975847E+03	1.168723E-16	1.349244E-17
5.985676E+03	1.164215E-16	1.346221E-17
5.995504E+03	1.159699E-16	1.343126E-17
6.005333E+03	1.155162E-16	1.339947E-17
6.015162E+03	1.150592E-16	1.336670E-17
6.024990E+03	1.145997E-16	1.333304E-17
6.034819E+03	1.141397E-16	1.329876E-17
6.044648E+03	1.136787E-16	1.326381E-17
6.054477E+03	1.132179E-16	1.322832E-17
6.064305E+03	1.127612E-16	1.319278E-17
6.074134E+03	1.123070E-16	1.315701E-17
6.083963E+03	1.118583E-16	1.312137E-17
6.093791E+03	1.114179E-16	1.308622E-17
6.103620E+03	1.109888E-16	1.305191E-17
6.113449E+03	1.105713E-16	1.301850E-17
6.123277E+03	1.101669E-16	1.298619E-17
6.133106E+03	1.097789E-16	1.295538E-17
6.142935E+03	1.094073E-16	1.292610E-17
6.152763E+03	1.090552E-16	1.289872E-17
6.162592E+03	1.087239E-16	1.287341E-17
6.172421E+03	1.084157E-16	1.285049E-17
6.182250E+03	1.081316E-16	1.283006E-17
6.192078E+03	1.078716E-16	1.281218E-17
6.201907E+03	1.076372E-16	1.279702E-17
6.211736E+03	1.074291E-16	1.278469E-17
6.221564E+03	1.072448E-16	1.277491E-17
6.231393E+03	1.070841E-16	1.276767E-17
6.241222E+03	1.069463E-16	1.276292E-17
6.251050E+03	1.068273E-16	1.276017E-17
6.260879E+03	1.067273E-16	1.275944E-17
6.270708E+03	1.066431E-16	1.276034E-17
6.280537E+03	1.065712E-16	1.276247E-17
6.290365E+03	1.065082E-16	1.276539E-17
6.300194E+03	1.064536E-16	1.276903E-17
6.310023E+03	1.064024E-16	1.277278E-17
6.319851E+03	1.063541E-16	1.277658E-17
6.329680E+03	1.063054E-16	1.278004E-17
6.339509E+03	1.062531E-16	1.278273E-17
6.349337E+03	1.061956E-16	1.278445E-17
6.359166E+03	1.061296E-16	1.278482E-17
6.368995E+03	1.060542E-16	1.278369E-17
6.378823E+03	1.059634E-16	1.278033E-17
6.388652E+03	1.058581E-16	1.277484E-17
6.398481E+03	1.057364E-16	1.276697E-17
6.408310E+03	1.055946E-16	1.275629E-17
6.418138E+03	1.054331E-16	1.274278E-17
6.427967E+03	1.052505E-16	1.272632E-17
6.437796E+03	1.050460E-16	1.270676E-17
6.447624E+03	1.048190E-16	1.268403E-17
6.457453E+03	1.045708E-16	1.265828E-17
6.467282E+03	1.042998E-16	1.262930E-17
6.477110E+03	1.040063E-16	1.259712E-17
6.486939E+03	1.036923E-16	1.256198E-17
6.496768E+03	1.033587E-16	1.252398E-17
6.506597E+03	1.030045E-16	1.248299E-17
6.516425E+03	1.026325E-16	1.243935E-17
6.526254E+03	1.022420E-16	1.239298E-17
6.536083E+03	1.018378E-16	1.234443E-17
6.545911E+03	1.014175E-16	1.229343E-17
6.555740E+03	1.009825E-16	1.224015E-17
6.565569E+03	1.005359E-16	1.218495E-17
6.575397E+03	1.000790E-16	1.212799E-17
6.585226E+03	9.961148E-17	1.206924E-17
6.595055E+03	9.913466E-17	1.200886E-17
6.604883E+03	9.865172E-17	1.194724E-17
6.614712E+03	9.816220E-17	1.188432E-17
6.624541E+03	9.766929E-17	1.182049E-17
6.634370E+03	9.717077E-17	1.175548E-17
6.644198E+03	9.667144E-17	1.168989E-17
6.654027E+03	9.616913E-17	1.162344E-17
6.663856E+03	9.566859E-17	1.155673E-17
6.673684E+03	9.516754E-17	1.148947E-17
6.683513E+03	9.466909E-17	1.142205E-17
6.693342E+03	9.417444E-17	1.135461E-17
6.703170E+03	9.368331E-17	1.128714E-17
6.712999E+03	9.319864E-17	1.121997E-17
6.722828E+03	9.272014E-17	1.115310E-17
6.732657E+03	9.225082E-17	1.108687E-17
6.742485E+03	9.178851E-17	1.102103E-17
6.752314E+03	9.133783E-17	1.095614E-17
6.762143E+03	9.089823E-17	1.089214E-17
6.771971E+03	9.047055E-17	1.082912E-17
6.781800E+03	9.005386E-17	1.076699E-17
6.791629E+03	8.965212E-17	1.070621E-17
6.801457E+03	8.926048E-17	1.064621E-17
6.811286E+03	8.888405E-17	1.058759E-17
6.821115E+03	8.851913E-17	1.052992E-17
6.830943E+03	8.816507E-17	1.047313E-17
6.840772E+03	8.782283E-17	1.041732E-17
6.850601E+03	8.748944E-17	1.036214E-17
6.860430E+03	8.716358E-17	1.030745E-17
6.870258E+03	8.684372E-17	1.025306E-17
6.880087E+03	8.652807E-17	1.019877E-17
6.889916E+03	8.621478E-17	1.014437E-17
6.899744E+03	8.590027E-17	1.008944E-17
6.909573E+03	8.558603E-17	1.003416E-17
6.919402E+03	8.526510E-17	9.977737E-18
6.929230E+03	8.494077E-17	9.920561E-18
6.939059E+03	8.460627E-17	9.861856E-18
6.948888E+03	8.426352E-17	9.801866E-18
6.958717E+03	8.390943E-17	9.740243E-18
6.968545E+03	8.354294E-17	9.676888E-18
6.978374E+03	8.316483E-17	9.611911E-18
6.988203E+03	8.277106E-17	9.544868E-18
6.998031E+03	8.236294E-17	9.475933E-18
7.007860E+03	8.193865E-17	9.404923E-18
7.017689E+03	8.150003E-17	9.332076E-18
7.027517E+03	8.104736E-17	9.257450E-18
7.037346E+03	8.057966E-17	9.180959E-18
7.047175E+03	8.009927E-17	9.102900E-18
7.057003E+03	7.960383E-17	9.023029E-18
7.066832E+03	7.909776E-17	8.941878E-18
7.076661E+03	7.858051E-17	8.859411E-18
7.086490E+03	7.805187E-17	8.775632E-18
7.096318E+03	7.751481E-17	8.690902E-18
7.106147E+03	7.697077E-17	8.605407E-18
7.115976E+03	7.641976E-17	8.519173E-18
7.125804E+03	7.586349E-17	8.432418E-18
7.135633E+03	7.530358E-17	8.345343E-18
7.145462E+03	7.474193E-17	8.258180E-18
7.155290E+03	7.418039E-17	8.171155E-18
7.165119E+03	7.361771E-17	8.084151E-18
7.174948E+03	7.305903E-17	7.997749E-18
7.184777E+03	7.250463E-17	7.911998E-18
7.194605E+03	7.195511E-17	7.826976E-18
7.204434E+03	7.141379E-17	7.743060E-18
7.214263E+03	7.087968E-17	7.660152E-18
7.224091E+03	7.035451E-17	7.578452E-18
7.233920E+03	6.984012E-17	7.498167E-18
7.243749E+03	6.933674E-17	7.419333E-18
7.253577E+03	6.884736E-17	7.342276E-18
7.263406E+03	6.836916E-17	7.266699E-18
7.273235E+03	6.790630E-17	7.193056E-18
7.283063E+03	6.745717E-17	7.121176E-18
7.292892E+03	6.702431E-17	7.051335E-18
7.302721E+03	6.660718E-17	6.983480E-18
7.312550E+03	6.620657E-17	6.917695E-18
7.322378E+03	6.582453E-17	6.854200E-18
7.332207E+03	6.546007E-17	6.792890E-18
7.342036E+03	6.511768E-17	6.734236E-18
7.351864E+03	6.479465E-17	6.677955E-18
7.361693E+03	6.449370E-17	6.624328E-18
7.371522E+03	6.421331E-17	6.573200E-18
7.381350E+03	6.395722E-17	6.524953E-18
7.391179E+03	6.372366E-17	6.479406E-18
7.401008E+03	6.351206E-17	6.436503E-18
7.410837E+03	6.332311E-17	6.396315E-18
7.420665E+03	6.315618E-17	6.358783E-18
7.430494E+03	6.301320E-17	6.324104E-18
7.440323E+03	6.289055E-17	6.291920E-18
7.450151E+03	6.278877E-17	6.262292E-18
7.459980E+03	6.270820E-17	6.235265E-18
7.469809E+03	6.264641E-17	6.210607E-18
7.479637E+03	6.260368E-17	6.188358E-18
7.489466E+03	6.257728E-17	6.168266E-18
7.499295E+03	6.256867E-17	6.150491E-18
7.509123E+03	6.257351E-17	6.134628E-18
7.518952E+03	6.259308E-17	6.120823E-18
7.528781E+03	6.262269E-17	6.108645E-18
7.538610E+03	6.266353E-17	6.098236E-18
7.548438E+03	6.271083E-17	6.089162E-18
7.558267E+03	6.276556E-17	6.081552E-18
7.568096E+03	6.282455E-17	6.075130E-18
7.577924E+03	6.288599E-17	6.069758E-18
7.587753E+03	6.294813E-17	6.065307E-18
7.597582E+03	6.300947E-17	6.061669E-18
7.607410E+03	6.306844E-17	6.058734E-18
7.617239E+03	6.312222E-17	6.056272E-18
7.627068E+03	6.317248E-17	6.054485E-18
