#wls	flux	fluxerr
1.572591E+03	5.080178E-17	1.975587E-18
1.611906E+03	5.112837E-17	1.985626E-18
1.651221E+03	5.109159E-17	1.981463E-18
1.690536E+03	5.068132E-17	1.962765E-18
1.729850E+03	4.988999E-17	1.929299E-18
1.769165E+03	4.868495E-17	1.879872E-18
1.808480E+03	4.700888E-17	1.812351E-18
1.847795E+03	4.483326E-17	1.725726E-18
1.887110E+03	4.214335E-17	1.619533E-18
1.926424E+03	3.898255E-17	1.495546E-18
1.965739E+03	3.549295E-17	1.359313E-18
2.005054E+03	3.195742E-17	1.221730E-18
2.044369E+03	2.877911E-17	1.098209E-18
2.083683E+03	2.638475E-17	1.004944E-18
2.122998E+03	2.508254E-17	9.534944E-19
2.162313E+03	2.495086E-17	9.465986E-19
2.201628E+03	2.585764E-17	9.789901E-19
2.240943E+03	2.754722E-17	1.040761E-18
2.280257E+03	2.974085E-17	1.121203E-18
2.319572E+03	3.221184E-17	1.211650E-18
2.358887E+03	3.481294E-17	1.306489E-18
2.398202E+03	3.746917E-17	1.402861E-18
2.437517E+03	4.016110E-17	1.500004E-18
2.476831E+03	4.289368E-17	1.598073E-18
2.516146E+03	4.568879E-17	1.697849E-18
2.555461E+03	4.856810E-17	1.800095E-18
2.594776E+03	5.155585E-17	1.905657E-18
2.634090E+03	5.467251E-17	2.015233E-18
2.673405E+03	5.793852E-17	2.129509E-18
2.712720E+03	6.137517E-17	2.249187E-18
2.752035E+03	6.500342E-17	2.374948E-18
2.791350E+03	6.884638E-17	2.507538E-18
2.830664E+03	7.293374E-17	2.647926E-18
2.869979E+03	7.729420E-17	2.797025E-18
2.909294E+03	8.196945E-17	2.956201E-18
2.948609E+03	8.699859E-17	3.126699E-18
2.958437E+03	8.831902E-17	3.171353E-18
2.968266E+03	8.966396E-17	3.216785E-18
2.978095E+03	9.103403E-17	3.263015E-18
2.987923E+03	9.243567E-17	3.310270E-18
2.997752E+03	9.387377E-17	3.358721E-18
3.007581E+03	9.535584E-17	3.408633E-18
3.017410E+03	9.688291E-17	3.460035E-18
3.027238E+03	9.845198E-17	3.512817E-18
3.037067E+03	1.000629E-16	3.566969E-18
3.046896E+03	1.017197E-16	3.622623E-18
3.056724E+03	1.034218E-16	3.679763E-18
3.066553E+03	1.051704E-16	3.738419E-18
3.076382E+03	1.069623E-16	3.798472E-18
3.086210E+03	1.088030E-16	3.860114E-18
3.096039E+03	1.106855E-16	3.923085E-18
3.105868E+03	1.126110E-16	3.987430E-18
3.115697E+03	1.145811E-16	4.053198E-18
3.125525E+03	1.165955E-16	4.120367E-18
3.135354E+03	1.186491E-16	4.188757E-18
3.145183E+03	1.207483E-16	4.258583E-18
3.155011E+03	1.228882E-16	4.329671E-18
3.164840E+03	1.250707E-16	4.402081E-18
3.174669E+03	1.272935E-16	4.475720E-18
3.184497E+03	1.295583E-16	4.550653E-18
3.194326E+03	1.318652E-16	4.626867E-18
3.204155E+03	1.342138E-16	4.704348E-18
3.213983E+03	1.366017E-16	4.783006E-18
3.223812E+03	1.390312E-16	4.862908E-18
3.233641E+03	1.415019E-16	4.944042E-18
3.243470E+03	1.440114E-16	5.026316E-18
3.253298E+03	1.465619E-16	5.109798E-18
3.263127E+03	1.491509E-16	5.194397E-18
3.272956E+03	1.517805E-16	5.280179E-18
3.282784E+03	1.544482E-16	5.367052E-18
3.292613E+03	1.571538E-16	5.454999E-18
3.302442E+03	1.598971E-16	5.544009E-18
3.312270E+03	1.626777E-16	5.634065E-18
3.322099E+03	1.654955E-16	5.725154E-18
3.331928E+03	1.683478E-16	5.817174E-18
3.341757E+03	1.712367E-16	5.910196E-18
3.351585E+03	1.741571E-16	6.004034E-18
3.361414E+03	1.771136E-16	6.098841E-18
3.371243E+03	1.801008E-16	6.194431E-18
3.381071E+03	1.831187E-16	6.290790E-18
3.390900E+03	1.861669E-16	6.387900E-18
3.400729E+03	1.892426E-16	6.485663E-18
3.410557E+03	1.923482E-16	6.584152E-18
3.420386E+03	1.954810E-16	6.683271E-18
3.430215E+03	1.986383E-16	6.782920E-18
3.440043E+03	2.018200E-16	6.883092E-18
3.449872E+03	2.050236E-16	6.983695E-18
3.459701E+03	2.082518E-16	7.084815E-18
3.469530E+03	2.114968E-16	7.186183E-18
3.479358E+03	2.147615E-16	7.287892E-18
3.489187E+03	2.180434E-16	7.389855E-18
3.499016E+03	2.213431E-16	7.492085E-18
3.508844E+03	2.246556E-16	7.594408E-18
3.518673E+03	2.279788E-16	7.696749E-18
3.528502E+03	2.313159E-16	7.799214E-18
3.538330E+03	2.346595E-16	7.901547E-18
3.548159E+03	2.380130E-16	8.003859E-18
3.557988E+03	2.413744E-16	8.106080E-18
3.567817E+03	2.447390E-16	8.208049E-18
3.577645E+03	2.481048E-16	8.309696E-18
3.587474E+03	2.514726E-16	8.411041E-18
3.597303E+03	2.548374E-16	8.511920E-18
3.607131E+03	2.582027E-16	8.612446E-18
3.616960E+03	2.615608E-16	8.712356E-18
3.626789E+03	2.649120E-16	8.811662E-18
3.636617E+03	2.682538E-16	8.910280E-18
3.646446E+03	2.715865E-16	9.008217E-18
3.656275E+03	2.749044E-16	9.105281E-18
3.666103E+03	2.782073E-16	9.201469E-18
3.675932E+03	2.814919E-16	9.296669E-18
3.685761E+03	2.847578E-16	9.390865E-18
3.695590E+03	2.880010E-16	9.483932E-18
3.705418E+03	2.912206E-16	9.575833E-18
3.715247E+03	2.944122E-16	9.666432E-18
3.725076E+03	2.975713E-16	9.755579E-18
3.734904E+03	3.007018E-16	9.843406E-18
3.744733E+03	3.037928E-16	9.929556E-18
3.754562E+03	3.068447E-16	1.001405E-17
3.764390E+03	3.098579E-16	1.009689E-17
3.774219E+03	3.128235E-16	1.017781E-17
3.784048E+03	3.157383E-16	1.025670E-17
3.793877E+03	3.186021E-16	1.033356E-17
3.803705E+03	3.214113E-16	1.040828E-17
3.813534E+03	3.241625E-16	1.048075E-17
3.823363E+03	3.268487E-16	1.055076E-17
3.833191E+03	3.294694E-16	1.061829E-17
3.843020E+03	3.320209E-16	1.068324E-17
3.852849E+03	3.344995E-16	1.074550E-17
3.862677E+03	3.369016E-16	1.080496E-17
3.872506E+03	3.392241E-16	1.086153E-17
3.882335E+03	3.414668E-16	1.091521E-17
3.892163E+03	3.436271E-16	1.096594E-17
3.901992E+03	3.456997E-16	1.101355E-17
3.911821E+03	3.476891E-16	1.105820E-17
3.921650E+03	3.495912E-16	1.109977E-17
3.931478E+03	3.514089E-16	1.113837E-17
3.941307E+03	3.531428E-16	1.117403E-17
3.951136E+03	3.547916E-16	1.120672E-17
3.960964E+03	3.563646E-16	1.123674E-17
3.970793E+03	3.578628E-16	1.126414E-17
3.980622E+03	3.592947E-16	1.128920E-17
3.990450E+03	3.606673E-16	1.131214E-17
4.000279E+03	3.619886E-16	1.133322E-17
4.010108E+03	3.632681E-16	1.135275E-17
4.019937E+03	3.645193E-16	1.137116E-17
4.029765E+03	3.657504E-16	1.138871E-17
4.039594E+03	3.669739E-16	1.140577E-17
4.049423E+03	3.682091E-16	1.142297E-17
4.059251E+03	3.694629E-16	1.144049E-17
4.069080E+03	3.707525E-16	1.145888E-17
4.078909E+03	3.720920E-16	1.147856E-17
4.088737E+03	3.734953E-16	1.149995E-17
4.098566E+03	3.749766E-16	1.152347E-17
4.108395E+03	3.765497E-16	1.154953E-17
4.118223E+03	3.782283E-16	1.157853E-17
4.128052E+03	3.800256E-16	1.161086E-17
4.137881E+03	3.819545E-16	1.164688E-17
4.147710E+03	3.840271E-16	1.168694E-17
4.157538E+03	3.862521E-16	1.173128E-17
4.167367E+03	3.886405E-16	1.178019E-17
4.177196E+03	3.912063E-16	1.183408E-17
4.187024E+03	3.939598E-16	1.189321E-17
4.196853E+03	3.969033E-16	1.195763E-17
4.206682E+03	4.000490E-16	1.202765E-17
4.216510E+03	4.034049E-16	1.210348E-17
4.226339E+03	4.069784E-16	1.218530E-17
4.236168E+03	4.107757E-16	1.227325E-17
4.245997E+03	4.147989E-16	1.236735E-17
4.255825E+03	4.190594E-16	1.246789E-17
4.265654E+03	4.235531E-16	1.257470E-17
4.275483E+03	4.282890E-16	1.268800E-17
4.285311E+03	4.332673E-16	1.280775E-17
4.295140E+03	4.384902E-16	1.293396E-17
4.304969E+03	4.439541E-16	1.306647E-17
4.314797E+03	4.496569E-16	1.320517E-17
4.324626E+03	4.555901E-16	1.334976E-17
4.334455E+03	4.617505E-16	1.350010E-17
4.344283E+03	4.681239E-16	1.365572E-17
4.354112E+03	4.746925E-16	1.381606E-17
4.363941E+03	4.814440E-16	1.398072E-17
4.373770E+03	4.883526E-16	1.414891E-17
4.383598E+03	4.953959E-16	1.431994E-17
4.393427E+03	5.025498E-16	1.449309E-17
4.403256E+03	5.097750E-16	1.466720E-17
4.413084E+03	5.170425E-16	1.484142E-17
4.422913E+03	5.243159E-16	1.501469E-17
4.432742E+03	5.315521E-16	1.518577E-17
4.442570E+03	5.387108E-16	1.535352E-17
4.452399E+03	5.457502E-16	1.551676E-17
4.462228E+03	5.526290E-16	1.567434E-17
4.472057E+03	5.593060E-16	1.582511E-17
4.481885E+03	5.657357E-16	1.596784E-17
4.491714E+03	5.718734E-16	1.610131E-17
4.501543E+03	5.776934E-16	1.622485E-17
4.511371E+03	5.831515E-16	1.633730E-17
4.521200E+03	5.882117E-16	1.643771E-17
4.531029E+03	5.928538E-16	1.652560E-17
4.540857E+03	5.970553E-16	1.660044E-17
4.550686E+03	6.007823E-16	1.666138E-17
4.560515E+03	6.040400E-16	1.670865E-17
4.570343E+03	6.067972E-16	1.674150E-17
4.580172E+03	6.090641E-16	1.676031E-17
4.590001E+03	6.108374E-16	1.676510E-17
4.599830E+03	6.121199E-16	1.675605E-17
4.609658E+03	6.129182E-16	1.673344E-17
4.619487E+03	6.132438E-16	1.669770E-17
4.629316E+03	6.131247E-16	1.664969E-17
4.639144E+03	6.125738E-16	1.658985E-17
4.648973E+03	6.116146E-16	1.651893E-17
4.658802E+03	6.102781E-16	1.643783E-17
4.668630E+03	6.085812E-16	1.634711E-17
4.678459E+03	6.065712E-16	1.624812E-17
4.688288E+03	6.042620E-16	1.614129E-17
4.698117E+03	6.016990E-16	1.602791E-17
4.707945E+03	5.989159E-16	1.590892E-17
4.717774E+03	5.959358E-16	1.578501E-17
4.727603E+03	5.928020E-16	1.565734E-17
4.737431E+03	5.895611E-16	1.552720E-17
4.747260E+03	5.862425E-16	1.539538E-17
4.757089E+03	5.828965E-16	1.526322E-17
4.766917E+03	5.795650E-16	1.513182E-17
4.776746E+03	5.762838E-16	1.500212E-17
4.786575E+03	5.730926E-16	1.487513E-17
4.796403E+03	5.700349E-16	1.475196E-17
4.806232E+03	5.671398E-16	1.463334E-17
4.816061E+03	5.644478E-16	1.452026E-17
4.825890E+03	5.619769E-16	1.441316E-17
4.835718E+03	5.597627E-16	1.431287E-17
4.845547E+03	5.578314E-16	1.422003E-17
4.855376E+03	5.562019E-16	1.413503E-17
4.865204E+03	5.549025E-16	1.405854E-17
4.875033E+03	5.539485E-16	1.399085E-17
4.884862E+03	5.533646E-16	1.393252E-17
4.894690E+03	5.531623E-16	1.388373E-17
4.904519E+03	5.533588E-16	1.384484E-17
4.914348E+03	5.539620E-16	1.381594E-17
4.924177E+03	5.549973E-16	1.379757E-17
4.934005E+03	5.564645E-16	1.378962E-17
4.943834E+03	5.583742E-16	1.379225E-17
4.953663E+03	5.607397E-16	1.380568E-17
4.963491E+03	5.635623E-16	1.382983E-17
4.973320E+03	5.668451E-16	1.386466E-17
4.983149E+03	5.705896E-16	1.391011E-17
4.992977E+03	5.747943E-16	1.396601E-17
5.002806E+03	5.794492E-16	1.403202E-17
5.012635E+03	5.845469E-16	1.410783E-17
5.022463E+03	5.900825E-16	1.419324E-17
5.032292E+03	5.960306E-16	1.428751E-17
5.042121E+03	6.023857E-16	1.439041E-17
5.051950E+03	6.091093E-16	1.450093E-17
5.061778E+03	6.161908E-16	1.461871E-17
5.071607E+03	6.235971E-16	1.474288E-17
5.081436E+03	6.312984E-16	1.487267E-17
5.091264E+03	6.392625E-16	1.500723E-17
5.101093E+03	6.474472E-16	1.514552E-17
5.110922E+03	6.558148E-16	1.528659E-17
5.120750E+03	6.643185E-16	1.542931E-17
5.130579E+03	6.729299E-16	1.557299E-17
5.140408E+03	6.815836E-16	1.571609E-17
5.150237E+03	6.902427E-16	1.585775E-17
5.160065E+03	6.988599E-16	1.599688E-17
5.169894E+03	7.073890E-16	1.613245E-17
5.179723E+03	7.157692E-16	1.626308E-17
5.189551E+03	7.239605E-16	1.638792E-17
5.199380E+03	7.319103E-16	1.650582E-17
5.209209E+03	7.395750E-16	1.661587E-17
5.219037E+03	7.469051E-16	1.671703E-17
5.228866E+03	7.538675E-16	1.680865E-17
5.238695E+03	7.604103E-16	1.688967E-17
5.248523E+03	7.664991E-16	1.695944E-17
5.258352E+03	7.720965E-16	1.701726E-17
5.268181E+03	7.771832E-16	1.706282E-17
5.278010E+03	7.817126E-16	1.709526E-17
5.287838E+03	7.856735E-16	1.711446E-17
5.297667E+03	7.890451E-16	1.712013E-17
5.307496E+03	7.918082E-16	1.711201E-17
5.317324E+03	7.939341E-16	1.708965E-17
5.327153E+03	7.954142E-16	1.705302E-17
5.336982E+03	7.962438E-16	1.700221E-17
5.346810E+03	7.963914E-16	1.693672E-17
5.356639E+03	7.958623E-16	1.685684E-17
5.366468E+03	7.946420E-16	1.676245E-17
5.376297E+03	7.927365E-16	1.665385E-17
5.386125E+03	7.901954E-16	1.653229E-17
5.395954E+03	7.870400E-16	1.639836E-17
5.405783E+03	7.833271E-16	1.625341E-17
5.415611E+03	7.790979E-16	1.609846E-17
5.425440E+03	7.744216E-16	1.593506E-17
5.435269E+03	7.693268E-16	1.576392E-17
5.445097E+03	7.638684E-16	1.558628E-17
5.454926E+03	7.580856E-16	1.540304E-17
5.464755E+03	7.520404E-16	1.521555E-17
5.474583E+03	7.457638E-16	1.502449E-17
5.484412E+03	7.393023E-16	1.483088E-17
5.494241E+03	7.326927E-16	1.463551E-17
5.504070E+03	7.259864E-16	1.443944E-17
5.513898E+03	7.192098E-16	1.424323E-17
5.523727E+03	7.124041E-16	1.404771E-17
5.533556E+03	7.056068E-16	1.385364E-17
5.543384E+03	6.988469E-16	1.366158E-17
5.553213E+03	6.921567E-16	1.347217E-17
5.563042E+03	6.855529E-16	1.328571E-17
5.572870E+03	6.790628E-16	1.310273E-17
5.582699E+03	6.727112E-16	1.292366E-17
5.592528E+03	6.665129E-16	1.274878E-17
5.602357E+03	6.604795E-16	1.257826E-17
5.612185E+03	6.546202E-16	1.241225E-17
5.622014E+03	6.489535E-16	1.225105E-17
5.631843E+03	6.434691E-16	1.209445E-17
5.641671E+03	6.381815E-16	1.194265E-17
5.651500E+03	6.330872E-16	1.179557E-17
5.661329E+03	6.281747E-16	1.165295E-17
5.671157E+03	6.234435E-16	1.151474E-17
5.680986E+03	6.188911E-16	1.138086E-17
5.690815E+03	6.144991E-16	1.125093E-17
5.700643E+03	6.102553E-16	1.112470E-17
5.710472E+03	6.061588E-16	1.100214E-17
5.720301E+03	6.021818E-16	1.088270E-17
5.730130E+03	5.983171E-16	1.076625E-17
5.739958E+03	5.945488E-16	1.065247E-17
5.749787E+03	5.908627E-16	1.054110E-17
5.759616E+03	5.872522E-16	1.043201E-17
5.769444E+03	5.836907E-16	1.032473E-17
5.779273E+03	5.801802E-16	1.021928E-17
5.789102E+03	5.767038E-16	1.011537E-17
5.798930E+03	5.732528E-16	1.001284E-17
5.808759E+03	5.698198E-16	9.911573E-18
5.818588E+03	5.663991E-16	9.811472E-18
5.828417E+03	5.629927E-16	9.712577E-18
5.838245E+03	5.595853E-16	9.614629E-18
5.848074E+03	5.561755E-16	9.517615E-18
5.857903E+03	5.527700E-16	9.421658E-18
5.867731E+03	5.493707E-16	9.326795E-18
5.877560E+03	5.459685E-16	9.232880E-18
5.887389E+03	5.425813E-16	9.140223E-18
5.897217E+03	5.391973E-16	9.048632E-18
5.907046E+03	5.358447E-16	8.958582E-18
5.916875E+03	5.325156E-16	8.869945E-18
5.926703E+03	5.292232E-16	8.782943E-18
5.936532E+03	5.259889E-16	8.697928E-18
5.946361E+03	5.228231E-16	8.615069E-18
5.956190E+03	5.197440E-16	8.534663E-18
5.966018E+03	5.167587E-16	8.456814E-18
5.975847E+03	5.138996E-16	8.382045E-18
5.985676E+03	5.111686E-16	8.310372E-18
5.995504E+03	5.085985E-16	8.242312E-18
6.005333E+03	5.062026E-16	8.178068E-18
6.015162E+03	5.039937E-16	8.117824E-18
6.024990E+03	5.019892E-16	8.061842E-18
6.034819E+03	5.002111E-16	8.010458E-18
6.044648E+03	4.986675E-16	7.963777E-18
6.054477E+03	4.973700E-16	7.921968E-18
6.064305E+03	4.963411E-16	7.885367E-18
6.074134E+03	4.955755E-16	7.853872E-18
6.083963E+03	4.950843E-16	7.827643E-18
6.093791E+03	4.948762E-16	7.806801E-18
6.103620E+03	4.949571E-16	7.791427E-18
6.113449E+03	4.953178E-16	7.781369E-18
6.123277E+03	4.959527E-16	7.776530E-18
6.133106E+03	4.968600E-16	7.776879E-18
6.142935E+03	4.980221E-16	7.782144E-18
6.152763E+03	4.994319E-16	7.792218E-18
6.162592E+03	5.010732E-16	7.806857E-18
6.172421E+03	5.029340E-16	7.825888E-18
6.182250E+03	5.049935E-16	7.849003E-18
6.192078E+03	5.072289E-16	7.875866E-18
6.201907E+03	5.096224E-16	7.906226E-18
6.211736E+03	5.121552E-16	7.939819E-18
6.221564E+03	5.147942E-16	7.976158E-18
6.231393E+03	5.175199E-16	8.014971E-18
6.241222E+03	5.203134E-16	8.056001E-18
6.251050E+03	5.231429E-16	8.098787E-18
6.260879E+03	5.259999E-16	8.143234E-18
6.270708E+03	5.288638E-16	8.189048E-18
6.280537E+03	5.317161E-16	8.235953E-18
6.290365E+03	5.345409E-16	8.283706E-18
6.300194E+03	5.373395E-16	8.332332E-18
6.310023E+03	5.400914E-16	8.381515E-18
6.319851E+03	5.427997E-16	8.431304E-18
6.329680E+03	5.454506E-16	8.481483E-18
6.339509E+03	5.480278E-16	8.531794E-18
6.349337E+03	5.505202E-16	8.582060E-18
6.359166E+03	5.529058E-16	8.631929E-18
6.368995E+03	5.551688E-16	8.681143E-18
6.378823E+03	5.572668E-16	8.729021E-18
6.388652E+03	5.591903E-16	8.775395E-18
6.398481E+03	5.609136E-16	8.819838E-18
6.408310E+03	5.624029E-16	8.861786E-18
6.418138E+03	5.636429E-16	8.900964E-18
6.427967E+03	5.646117E-16	8.936984E-18
6.437796E+03	5.652893E-16	8.969484E-18
6.447624E+03	5.656582E-16	8.998133E-18
6.457453E+03	5.657130E-16	9.022790E-18
6.467282E+03	5.654332E-16	9.043067E-18
6.477110E+03	5.648109E-16	9.058766E-18
6.486939E+03	5.638504E-16	9.069890E-18
6.496768E+03	5.625513E-16	9.076354E-18
6.506597E+03	5.609066E-16	9.077973E-18
6.516425E+03	5.589320E-16	9.074917E-18
6.526254E+03	5.566277E-16	9.067112E-18
6.536083E+03	5.540257E-16	9.054992E-18
6.545911E+03	5.511230E-16	9.038433E-18
6.555740E+03	5.479386E-16	9.017660E-18
6.565569E+03	5.445030E-16	8.993099E-18
6.575397E+03	5.408397E-16	8.965059E-18
6.585226E+03	5.369644E-16	8.933728E-18
6.595055E+03	5.329037E-16	8.899477E-18
6.604883E+03	5.286941E-16	8.862850E-18
6.614712E+03	5.243542E-16	8.824099E-18
6.624541E+03	5.199214E-16	8.783795E-18
6.634370E+03	5.154048E-16	8.742045E-18
6.644198E+03	5.108501E-16	8.699576E-18
6.654027E+03	5.062651E-16	8.656483E-18
6.663856E+03	5.016931E-16	8.613473E-18
6.673684E+03	4.971394E-16	8.570611E-18
6.683513E+03	4.926353E-16	8.528414E-18
6.693342E+03	4.882009E-16	8.487213E-18
6.703170E+03	4.838457E-16	8.447166E-18
6.712999E+03	4.795953E-16	8.408710E-18
6.722828E+03	4.754551E-16	8.371942E-18
6.732657E+03	4.714467E-16	8.337241E-18
6.742485E+03	4.675627E-16	8.304487E-18
6.752314E+03	4.638290E-16	8.274148E-18
6.762143E+03	4.602431E-16	8.246195E-18
6.771971E+03	4.568094E-16	8.220718E-18
6.781800E+03	4.535214E-16	8.197621E-18
6.791629E+03	4.503969E-16	8.177242E-18
6.801457E+03	4.474089E-16	8.159112E-18
6.811286E+03	4.445802E-16	8.143664E-18
6.821115E+03	4.418893E-16	8.130526E-18
6.830943E+03	4.393307E-16	8.119619E-18
6.840772E+03	4.369063E-16	8.110993E-18
6.850601E+03	4.346002E-16	8.104371E-18
6.860430E+03	4.324040E-16	8.099617E-18
6.870258E+03	4.303095E-16	8.096587E-18
6.880087E+03	4.283074E-16	8.095123E-18
6.889916E+03	4.263890E-16	8.095069E-18
6.899744E+03	4.245369E-16	8.096107E-18
6.909573E+03	4.227593E-16	8.098398E-18
6.919402E+03	4.210229E-16	8.101311E-18
6.929230E+03	4.193449E-16	8.105181E-18
6.939059E+03	4.176933E-16	8.109392E-18
6.948888E+03	4.160786E-16	8.114146E-18
6.958717E+03	4.144869E-16	8.119175E-18
6.968545E+03	4.129139E-16	8.124386E-18
6.978374E+03	4.113641E-16	8.129872E-18
6.988203E+03	4.098185E-16	8.135250E-18
6.998031E+03	4.082838E-16	8.140649E-18
7.007860E+03	4.067509E-16	8.145882E-18
7.017689E+03	4.052281E-16	8.151109E-18
7.027517E+03	4.037159E-16	8.156337E-18
7.037346E+03	4.022071E-16	8.161419E-18
7.047175E+03	4.007115E-16	8.166545E-18
7.057003E+03	3.992141E-16	8.171409E-18
7.066832E+03	3.977326E-16	8.176367E-18
7.076661E+03	3.962603E-16	8.181281E-18
7.086490E+03	3.947898E-16	8.185995E-18
7.096318E+03	3.933300E-16	8.190689E-18
7.106147E+03	3.918810E-16	8.195363E-18
7.115976E+03	3.904344E-16	8.199840E-18
7.125804E+03	3.889897E-16	8.204103E-18
7.135633E+03	3.875457E-16	8.208127E-18
7.145462E+03	3.861014E-16	8.211884E-18
7.155290E+03	3.846552E-16	8.215340E-18
7.165119E+03	3.831900E-16	8.218119E-18
7.174948E+03	3.817205E-16	8.220532E-18
7.184777E+03	3.802381E-16	8.222387E-18
7.194605E+03	3.787345E-16	8.223498E-18
7.204434E+03	3.772181E-16	8.224041E-18
7.214263E+03	3.756744E-16	8.223691E-18
7.224091E+03	3.741060E-16	8.222496E-18
7.233920E+03	3.725165E-16	8.220523E-18
7.243749E+03	3.709026E-16	8.217697E-18
7.253577E+03	3.692784E-16	8.214319E-18
7.263406E+03	3.676277E-16	8.210021E-18
7.273235E+03	3.659744E-16	8.205334E-18
7.283063E+03	3.643126E-16	8.200120E-18
7.292892E+03	3.626605E-16	8.194787E-18
7.302721E+03	3.610214E-16	8.189412E-18
7.312550E+03	3.594072E-16	8.184265E-18
7.322378E+03	3.578375E-16	8.179804E-18
7.332207E+03	3.563172E-16	8.176148E-18
7.342036E+03	3.548814E-16	8.174116E-18
7.351864E+03	3.535269E-16	8.173658E-18
7.361693E+03	3.522807E-16	8.175421E-18
7.371522E+03	3.511466E-16	8.179518E-18
7.381350E+03	3.501580E-16	8.186761E-18
7.391179E+03	3.493176E-16	8.197248E-18
7.401008E+03	3.486345E-16	8.211233E-18
7.410837E+03	3.481251E-16	8.229139E-18
7.420665E+03	3.477967E-16	8.251187E-18
7.430494E+03	3.476715E-16	8.277951E-18
7.440323E+03	3.477397E-16	8.309246E-18
7.450151E+03	3.480136E-16	8.345413E-18
7.459980E+03	3.485040E-16	8.386769E-18
7.469809E+03	3.492051E-16	8.433223E-18
7.479637E+03	3.501250E-16	8.485025E-18
7.489466E+03	3.512543E-16	8.542001E-18
7.499295E+03	3.526053E-16	8.604502E-18
7.509123E+03	3.541566E-16	8.672056E-18
7.518952E+03	3.559161E-16	8.744909E-18
7.528781E+03	3.578571E-16	8.822452E-18
7.538610E+03	3.599827E-16	8.904803E-18
7.548438E+03	3.622606E-16	8.991208E-18
7.558267E+03	3.646891E-16	9.081655E-18
7.568096E+03	3.672389E-16	9.175452E-18
7.577924E+03	3.698873E-16	9.272054E-18
7.587753E+03	3.726091E-16	9.370852E-18
7.597582E+03	3.753777E-16	9.471191E-18
7.607410E+03	3.781654E-16	9.572374E-18
7.617239E+03	3.809341E-16	9.673440E-18
7.627068E+03	3.836717E-16	9.774075E-18
