#wls	flux	fluxerr
1.572591E+03	3.041848E-17	6.404455E-19
1.611906E+03	3.036348E-17	6.386968E-19
1.651221E+03	3.011220E-17	6.328092E-19
1.690536E+03	2.966783E-17	6.228615E-19
1.729850E+03	2.903425E-17	6.089474E-19
1.769165E+03	2.819402E-17	5.907138E-19
1.808480E+03	2.712601E-17	5.677336E-19
1.847795E+03	2.581086E-17	5.396183E-19
1.887110E+03	2.423825E-17	5.061714E-19
1.926424E+03	2.242900E-17	4.678481E-19
1.965739E+03	2.045748E-17	4.262178E-19
2.005054E+03	1.847425E-17	3.844295E-19
2.044369E+03	1.670109E-17	3.470968E-19
2.083683E+03	1.538051E-17	3.192399E-19
2.122998E+03	1.468617E-17	3.044251E-19
2.162313E+03	1.466510E-17	3.035756E-19
2.201628E+03	1.523485E-17	3.149297E-19
2.240943E+03	1.623387E-17	3.351002E-19
2.280257E+03	1.749114E-17	3.605217E-19
2.319572E+03	1.886707E-17	3.882941E-19
2.358887E+03	2.026874E-17	4.164940E-19
2.398202E+03	2.164786E-17	4.441244E-19
2.437517E+03	2.298890E-17	4.708656E-19
2.476831E+03	2.429778E-17	4.968389E-19
2.516146E+03	2.558836E-17	5.223271E-19
2.555461E+03	2.688064E-17	5.477357E-19
2.594776E+03	2.819296E-17	5.734337E-19
2.634090E+03	2.954066E-17	5.997269E-19
2.673405E+03	3.094011E-17	6.269384E-19
2.712720E+03	3.240352E-17	6.553048E-19
2.752035E+03	3.394146E-17	6.850275E-19
2.791350E+03	3.556254E-17	7.162659E-19
2.830664E+03	3.727610E-17	7.491923E-19
2.869979E+03	3.909909E-17	7.841286E-19
2.909294E+03	4.106155E-17	8.216564E-19
2.948609E+03	4.319985E-17	8.624764E-19
2.958437E+03	4.376614E-17	8.732768E-19
2.968266E+03	4.434816E-17	8.843748E-19
2.978095E+03	4.494411E-17	8.957341E-19
2.987923E+03	4.555634E-17	9.074008E-19
2.997752E+03	4.619042E-17	9.194852E-19
3.007581E+03	4.684806E-17	9.320201E-19
3.017410E+03	4.753090E-17	9.450374E-19
3.027238E+03	4.823868E-17	9.585307E-19
3.037067E+03	4.897145E-17	9.725000E-19
3.046896E+03	4.972933E-17	9.869469E-19
3.056724E+03	5.051645E-17	1.001952E-18
3.066553E+03	5.133158E-17	1.017489E-18
3.076382E+03	5.217557E-17	1.033575E-18
3.086210E+03	5.304834E-17	1.050206E-18
3.096039E+03	5.394997E-17	1.067383E-18
3.105868E+03	5.488162E-17	1.085128E-18
3.115697E+03	5.584456E-17	1.103463E-18
3.125525E+03	5.683705E-17	1.122354E-18
3.135354E+03	5.786263E-17	1.141869E-18
3.145183E+03	5.892076E-17	1.161995E-18
3.155011E+03	6.001308E-17	1.182764E-18
3.164840E+03	6.114029E-17	1.204188E-18
3.174669E+03	6.230211E-17	1.226260E-18
3.184497E+03	6.350253E-17	1.249056E-18
3.194326E+03	6.473934E-17	1.272532E-18
3.204155E+03	6.601670E-17	1.296767E-18
3.213983E+03	6.733574E-17	1.321782E-18
3.223812E+03	6.869544E-17	1.347555E-18
3.233641E+03	7.010018E-17	1.374169E-18
3.243470E+03	7.154912E-17	1.401607E-18
3.253298E+03	7.304452E-17	1.429909E-18
3.263127E+03	7.458778E-17	1.459103E-18
3.272956E+03	7.618122E-17	1.489229E-18
3.282784E+03	7.782508E-17	1.520292E-18
3.292613E+03	7.952072E-17	1.552314E-18
3.302442E+03	8.126929E-17	1.585316E-18
3.312270E+03	8.307324E-17	1.619343E-18
3.322099E+03	8.493261E-17	1.654393E-18
3.331928E+03	8.684858E-17	1.690486E-18
3.341757E+03	8.882223E-17	1.727641E-18
3.351585E+03	9.085350E-17	1.765853E-18
3.361414E+03	9.294341E-17	1.805139E-18
3.371243E+03	9.509295E-17	1.845516E-18
3.381071E+03	9.730200E-17	1.886978E-18
3.390900E+03	9.957155E-17	1.929541E-18
3.400729E+03	1.019015E-16	1.973199E-18
3.410557E+03	1.042916E-16	2.017947E-18
3.420386E+03	1.067420E-16	2.063782E-18
3.430215E+03	1.092514E-16	2.110677E-18
3.440043E+03	1.118212E-16	2.158654E-18
3.449872E+03	1.144504E-16	2.207692E-18
3.459701E+03	1.171367E-16	2.257744E-18
3.469530E+03	1.198770E-16	2.308746E-18
3.479358E+03	1.226716E-16	2.360701E-18
3.489187E+03	1.255175E-16	2.413547E-18
3.499016E+03	1.284087E-16	2.467168E-18
3.508844E+03	1.313434E-16	2.521526E-18
3.518673E+03	1.343184E-16	2.576557E-18
3.528502E+03	1.373292E-16	2.632170E-18
3.538330E+03	1.403697E-16	2.688249E-18
3.548159E+03	1.434392E-16	2.744776E-18
3.557988E+03	1.465341E-16	2.801682E-18
3.567817E+03	1.496507E-16	2.858895E-18
3.577645E+03	1.527923E-16	2.916472E-18
3.587474E+03	1.559576E-16	2.974390E-18
3.597303E+03	1.591468E-16	3.032652E-18
3.607131E+03	1.623614E-16	3.091283E-18
3.616960E+03	1.656030E-16	3.150309E-18
3.626789E+03	1.688713E-16	3.209726E-18
3.636617E+03	1.721705E-16	3.269611E-18
3.646446E+03	1.754988E-16	3.329926E-18
3.656275E+03	1.788587E-16	3.390717E-18
3.666103E+03	1.822540E-16	3.452056E-18
3.675932E+03	1.856810E-16	3.513865E-18
3.685761E+03	1.891461E-16	3.576269E-18
3.695590E+03	1.926451E-16	3.639181E-18
3.705418E+03	1.961822E-16	3.702681E-18
3.715247E+03	1.997571E-16	3.766757E-18
3.725076E+03	2.033681E-16	3.831380E-18
3.734904E+03	2.070152E-16	3.896541E-18
3.744733E+03	2.106950E-16	3.962178E-18
3.754562E+03	2.144052E-16	4.028244E-18
3.764390E+03	2.181419E-16	4.094662E-18
3.774219E+03	2.218982E-16	4.161301E-18
3.784048E+03	2.256669E-16	4.228027E-18
3.793877E+03	2.294394E-16	4.294674E-18
3.803705E+03	2.332032E-16	4.361008E-18
3.813534E+03	2.369457E-16	4.426795E-18
3.823363E+03	2.406526E-16	4.491765E-18
3.833191E+03	2.443058E-16	4.555586E-18
3.843020E+03	2.478877E-16	4.617930E-18
3.852849E+03	2.513777E-16	4.678416E-18
3.862677E+03	2.547580E-16	4.736718E-18
3.872506E+03	2.580066E-16	4.792434E-18
3.882335E+03	2.611036E-16	4.845198E-18
3.892163E+03	2.640255E-16	4.894584E-18
3.901992E+03	2.667579E-16	4.940336E-18
3.911821E+03	2.692800E-16	4.982076E-18
3.921650E+03	2.715770E-16	5.019543E-18
3.931478E+03	2.736345E-16	5.052484E-18
3.941307E+03	2.754453E-16	5.080778E-18
3.951136E+03	2.769991E-16	5.104248E-18
3.960964E+03	2.782954E-16	5.122900E-18
3.970793E+03	2.793310E-16	5.136689E-18
3.980622E+03	2.801127E-16	5.145756E-18
3.990450E+03	2.806449E-16	5.150194E-18
4.000279E+03	2.809396E-16	5.150239E-18
4.010108E+03	2.810123E-16	5.146188E-18
4.019937E+03	2.808818E-16	5.138396E-18
4.029765E+03	2.805652E-16	5.127189E-18
4.039594E+03	2.800863E-16	5.113014E-18
4.049423E+03	2.794691E-16	5.096314E-18
4.059251E+03	2.787408E-16	5.077596E-18
4.069080E+03	2.779301E-16	5.057387E-18
4.078909E+03	2.770619E-16	5.036146E-18
4.088737E+03	2.761678E-16	5.014452E-18
4.098566E+03	2.752730E-16	4.992761E-18
4.108395E+03	2.744066E-16	4.971601E-18
4.118223E+03	2.735967E-16	4.951481E-18
4.128052E+03	2.728667E-16	4.932819E-18
4.137881E+03	2.722429E-16	4.916085E-18
4.147710E+03	2.717483E-16	4.901691E-18
4.157538E+03	2.714091E-16	4.890097E-18
4.167367E+03	2.712417E-16	4.881592E-18
4.177196E+03	2.712697E-16	4.876589E-18
4.187024E+03	2.715093E-16	4.875369E-18
4.196853E+03	2.719821E-16	4.878303E-18
4.206682E+03	2.727000E-16	4.885593E-18
4.216510E+03	2.736806E-16	4.897536E-18
4.226339E+03	2.749406E-16	4.914416E-18
4.236168E+03	2.764894E-16	4.936385E-18
4.245997E+03	2.783446E-16	4.963736E-18
4.255825E+03	2.805122E-16	4.996557E-18
4.265654E+03	2.830082E-16	5.035115E-18
4.275483E+03	2.858348E-16	5.079428E-18
4.285311E+03	2.890044E-16	5.129692E-18
4.295140E+03	2.925351E-16	5.186209E-18
4.304969E+03	2.964377E-16	5.249145E-18
4.314797E+03	3.007238E-16	5.318683E-18
4.324626E+03	3.054015E-16	5.394941E-18
4.334455E+03	3.104718E-16	5.477909E-18
4.344283E+03	3.159433E-16	5.567714E-18
4.354112E+03	3.218113E-16	5.664250E-18
4.363941E+03	3.280732E-16	5.767440E-18
4.373770E+03	3.347191E-16	5.877088E-18
4.383598E+03	3.417374E-16	5.992962E-18
4.393427E+03	3.491053E-16	6.114642E-18
4.403256E+03	3.568028E-16	6.241750E-18
4.413084E+03	3.647949E-16	6.373655E-18
4.422913E+03	3.730426E-16	6.509656E-18
4.432742E+03	3.815062E-16	6.649043E-18
4.442570E+03	3.901270E-16	6.790779E-18
4.452399E+03	3.988488E-16	6.933877E-18
4.462228E+03	4.076096E-16	7.077252E-18
4.472057E+03	4.163353E-16	7.219616E-18
4.481885E+03	4.249544E-16	7.359731E-18
4.491714E+03	4.333850E-16	7.496189E-18
4.501543E+03	4.415511E-16	7.627687E-18
4.511371E+03	4.493730E-16	7.752869E-18
4.521200E+03	4.567726E-16	7.870408E-18
4.531029E+03	4.636727E-16	7.979007E-18
4.540857E+03	4.700122E-16	8.077647E-18
4.550686E+03	4.757228E-16	8.165193E-18
4.560515E+03	4.807567E-16	8.240866E-18
4.570343E+03	4.850713E-16	8.303986E-18
4.580172E+03	4.886337E-16	8.354034E-18
4.590001E+03	4.914333E-16	8.390883E-18
4.599830E+03	4.934569E-16	8.414360E-18
4.609658E+03	4.947159E-16	8.424708E-18
4.619487E+03	4.952374E-16	8.422443E-18
4.629316E+03	4.950478E-16	8.408062E-18
4.639144E+03	4.941912E-16	8.382364E-18
4.648973E+03	4.927202E-16	8.346283E-18
4.658802E+03	4.906908E-16	8.300811E-18
4.668630E+03	4.881626E-16	8.246992E-18
4.678459E+03	4.852082E-16	8.186087E-18
4.688288E+03	4.818838E-16	8.119070E-18
4.698117E+03	4.782628E-16	8.047204E-18
4.707945E+03	4.744072E-16	7.971553E-18
4.717774E+03	4.703734E-16	7.893076E-18
4.727603E+03	4.662262E-16	7.812877E-18
4.737431E+03	4.620134E-16	7.731761E-18
4.747260E+03	4.577846E-16	7.650564E-18
4.757089E+03	4.535835E-16	7.570016E-18
4.766917E+03	4.494491E-16	7.490768E-18
4.776746E+03	4.454236E-16	7.413515E-18
4.786575E+03	4.415242E-16	7.338539E-18
4.796403E+03	4.377848E-16	7.266394E-18
4.806232E+03	4.342236E-16	7.197371E-18
4.816061E+03	4.308641E-16	7.131848E-18
4.825890E+03	4.277198E-16	7.070032E-18
4.835718E+03	4.248065E-16	7.012170E-18
4.845547E+03	4.221430E-16	6.958559E-18
4.855376E+03	4.197359E-16	6.909287E-18
4.865204E+03	4.176036E-16	6.864641E-18
4.875033E+03	4.157610E-16	6.824847E-18
4.884862E+03	4.142238E-16	6.790142E-18
4.894690E+03	4.130050E-16	6.760718E-18
4.904519E+03	4.121226E-16	6.736848E-18
4.914348E+03	4.116000E-16	6.718890E-18
4.924177E+03	4.114504E-16	6.707035E-18
4.934005E+03	4.117034E-16	6.701742E-18
4.943834E+03	4.123746E-16	6.703233E-18
4.953663E+03	4.134878E-16	6.711868E-18
4.963491E+03	4.150710E-16	6.728071E-18
4.973320E+03	4.171444E-16	6.752137E-18
4.983149E+03	4.197311E-16	6.784407E-18
4.992977E+03	4.228492E-16	6.825135E-18
5.002806E+03	4.265225E-16	6.874671E-18
5.012635E+03	4.307687E-16	6.933261E-18
5.022463E+03	4.355937E-16	7.000962E-18
5.032292E+03	4.410125E-16	7.077975E-18
5.042121E+03	4.470318E-16	7.164367E-18
5.051950E+03	4.536542E-16	7.260139E-18
5.061778E+03	4.608733E-16	7.365146E-18
5.071607E+03	4.686819E-16	7.479236E-18
5.081436E+03	4.770637E-16	7.602110E-18
5.091264E+03	4.860113E-16	7.733608E-18
5.101093E+03	4.954940E-16	7.873206E-18
5.110922E+03	5.054849E-16	8.020443E-18
5.120750E+03	5.159541E-16	8.174808E-18
5.130579E+03	5.268697E-16	8.335770E-18
5.140408E+03	5.381823E-16	8.502514E-18
5.150237E+03	5.498468E-16	8.674304E-18
5.160065E+03	5.618257E-16	8.850530E-18
5.169894E+03	5.740496E-16	9.030077E-18
5.179723E+03	5.864737E-16	9.212225E-18
5.189551E+03	5.990316E-16	9.395924E-18
5.199380E+03	6.116608E-16	9.580186E-18
5.209209E+03	6.243014E-16	9.764072E-18
5.219037E+03	6.368737E-16	9.946337E-18
5.228866E+03	6.493156E-16	1.012602E-17
5.238695E+03	6.615575E-16	1.030205E-17
5.248523E+03	6.735307E-16	1.047337E-17
5.258352E+03	6.851732E-16	1.063904E-17
5.268181E+03	6.964069E-16	1.079787E-17
5.278010E+03	7.071753E-16	1.094903E-17
5.287838E+03	7.174189E-16	1.109161E-17
5.297667E+03	7.270757E-16	1.122471E-17
5.307496E+03	7.361101E-16	1.134782E-17
5.317324E+03	7.444702E-16	1.146018E-17
5.327153E+03	7.521107E-16	1.156114E-17
5.336982E+03	7.589980E-16	1.165024E-17
5.346810E+03	7.651141E-16	1.172725E-17
5.356639E+03	7.704234E-16	1.179168E-17
5.366468E+03	7.749203E-16	1.184351E-17
5.376297E+03	7.785985E-16	1.188270E-17
5.386125E+03	7.814417E-16	1.190904E-17
5.395954E+03	7.834549E-16	1.192267E-17
5.405783E+03	7.846582E-16	1.192397E-17
5.415611E+03	7.850610E-16	1.191311E-17
5.425440E+03	7.846793E-16	1.189040E-17
5.435269E+03	7.835341E-16	1.185622E-17
5.445097E+03	7.816745E-16	1.181135E-17
5.454926E+03	7.791157E-16	1.175607E-17
5.464755E+03	7.759091E-16	1.169119E-17
5.474583E+03	7.720927E-16	1.161735E-17
5.484412E+03	7.677171E-16	1.153532E-17
5.494241E+03	7.628343E-16	1.144595E-17
5.504070E+03	7.574915E-16	1.134995E-17
5.513898E+03	7.517519E-16	1.124831E-17
5.523727E+03	7.456641E-16	1.114177E-17
5.533556E+03	7.392763E-16	1.103109E-17
5.543384E+03	7.326591E-16	1.091733E-17
5.553213E+03	7.258584E-16	1.080119E-17
5.563042E+03	7.189190E-16	1.068335E-17
5.572870E+03	7.118969E-16	1.056463E-17
5.582699E+03	7.048455E-16	1.044586E-17
5.592528E+03	6.977924E-16	1.032742E-17
5.602357E+03	6.907836E-16	1.021000E-17
5.612185E+03	6.838605E-16	1.009422E-17
5.622014E+03	6.770462E-16	9.980397E-18
5.631843E+03	6.703735E-16	9.869017E-18
5.641671E+03	6.638563E-16	9.760274E-18
5.651500E+03	6.575183E-16	9.654509E-18
5.661329E+03	6.513716E-16	9.551885E-18
5.671157E+03	6.454311E-16	9.452612E-18
5.680986E+03	6.396876E-16	9.356541E-18
5.690815E+03	6.341603E-16	9.263946E-18
5.700643E+03	6.288326E-16	9.174568E-18
5.710472E+03	6.237047E-16	9.088401E-18
5.720301E+03	6.187667E-16	9.005288E-18
5.730130E+03	6.140065E-16	8.925046E-18
5.739958E+03	6.094167E-16	8.847556E-18
5.749787E+03	6.049820E-16	8.772589E-18
5.759616E+03	6.006859E-16	8.699896E-18
5.769444E+03	5.965032E-16	8.629107E-18
5.779273E+03	5.924308E-16	8.560169E-18
5.789102E+03	5.884442E-16	8.492728E-18
5.798930E+03	5.845333E-16	8.426630E-18
5.808759E+03	5.806753E-16	8.361544E-18
5.818588E+03	5.768618E-16	8.297349E-18
5.828417E+03	5.730808E-16	8.233868E-18
5.838245E+03	5.693195E-16	8.170917E-18
5.848074E+03	5.655700E-16	8.108384E-18
5.857903E+03	5.618245E-16	8.046152E-18
5.867731E+03	5.580835E-16	7.984233E-18
5.877560E+03	5.543320E-16	7.922411E-18
5.887389E+03	5.505815E-16	7.860849E-18
5.897217E+03	5.468266E-16	7.799473E-18
5.907046E+03	5.430703E-16	7.738322E-18
5.916875E+03	5.393232E-16	7.677550E-18
5.926703E+03	5.355791E-16	7.617066E-18
5.936532E+03	5.318586E-16	7.557165E-18
5.946361E+03	5.281584E-16	7.497796E-18
5.956190E+03	5.244958E-16	7.439205E-18
5.966018E+03	5.208833E-16	7.381565E-18
5.975847E+03	5.173280E-16	7.324978E-18
5.985676E+03	5.138452E-16	7.269657E-18
5.995504E+03	5.104511E-16	7.215826E-18
6.005333E+03	5.071630E-16	7.163727E-18
6.015162E+03	5.039990E-16	7.113611E-18
6.024990E+03	5.009776E-16	7.065737E-18
6.034819E+03	4.981175E-16	7.020361E-18
6.044648E+03	4.954372E-16	6.977741E-18
6.054477E+03	4.929610E-16	6.938211E-18
6.064305E+03	4.907121E-16	6.902094E-18
6.074134E+03	4.887127E-16	6.869697E-18
6.083963E+03	4.869774E-16	6.841216E-18
6.093791E+03	4.855189E-16	6.816826E-18
6.103620E+03	4.843419E-16	6.796588E-18
6.113449E+03	4.834558E-16	6.780626E-18
6.123277E+03	4.828677E-16	6.769036E-18
6.133106E+03	4.825762E-16	6.761796E-18
6.142935E+03	4.825912E-16	6.759038E-18
6.152763E+03	4.829265E-16	6.760955E-18
6.162592E+03	4.835749E-16	6.767442E-18
6.172421E+03	4.845399E-16	6.778547E-18
6.182250E+03	4.858297E-16	6.794385E-18
6.192078E+03	4.874305E-16	6.814762E-18
6.201907E+03	4.893534E-16	6.839832E-18
6.211736E+03	4.915941E-16	6.869541E-18
6.221564E+03	4.941330E-16	6.903614E-18
6.231393E+03	4.969763E-16	6.942140E-18
6.241222E+03	5.001152E-16	6.985005E-18
6.251050E+03	5.035327E-16	7.031972E-18
6.260879E+03	5.072180E-16	7.082898E-18
6.270708E+03	5.111748E-16	7.137843E-18
6.280537E+03	5.153769E-16	7.196447E-18
6.290365E+03	5.198128E-16	7.258553E-18
6.300194E+03	5.244785E-16	7.324110E-18
6.310023E+03	5.293309E-16	7.392520E-18
6.319851E+03	5.343323E-16	7.463261E-18
6.329680E+03	5.394503E-16	7.535883E-18
6.339509E+03	5.446410E-16	7.609780E-18
6.349337E+03	5.498352E-16	7.683987E-18
6.359166E+03	5.549761E-16	7.757716E-18
6.368995E+03	5.599989E-16	7.830062E-18
6.378823E+03	5.648485E-16	7.900258E-18
6.388652E+03	5.694645E-16	7.967457E-18
6.398481E+03	5.737997E-16	8.030999E-18
6.408310E+03	5.778102E-16	8.090268E-18
6.418138E+03	5.814510E-16	8.144630E-18
6.427967E+03	5.846984E-16	8.193745E-18
6.437796E+03	5.875279E-16	8.237266E-18
6.447624E+03	5.899095E-16	8.274762E-18
6.457453E+03	5.918396E-16	8.306172E-18
6.467282E+03	5.932993E-16	8.331221E-18
6.477110E+03	5.942845E-16	8.349837E-18
6.486939E+03	5.948062E-16	8.362164E-18
6.496768E+03	5.948502E-16	8.367984E-18
6.506597E+03	5.944561E-16	8.367842E-18
6.516425E+03	5.936072E-16	8.361487E-18
6.526254E+03	5.923418E-16	8.349440E-18
6.536083E+03	5.906701E-16	8.331829E-18
6.545911E+03	5.886163E-16	8.308977E-18
6.555740E+03	5.862169E-16	8.281387E-18
6.565569E+03	5.834919E-16	8.249320E-18
6.575397E+03	5.804706E-16	8.213178E-18
6.585226E+03	5.771862E-16	8.173414E-18
6.595055E+03	5.736810E-16	8.130611E-18
6.604883E+03	5.699678E-16	8.084940E-18
6.614712E+03	5.660986E-16	8.037122E-18
6.624541E+03	5.620949E-16	7.987452E-18
6.634370E+03	5.579867E-16	7.936345E-18
6.644198E+03	5.538023E-16	7.884194E-18
6.654027E+03	5.495679E-16	7.831364E-18
6.663856E+03	5.453176E-16	7.778332E-18
6.673684E+03	5.410544E-16	7.725133E-18
6.683513E+03	5.368079E-16	7.672186E-18
6.693342E+03	5.325962E-16	7.619745E-18
6.703170E+03	5.284355E-16	7.568036E-18
6.712999E+03	5.243402E-16	7.517264E-18
6.722828E+03	5.203229E-16	7.467607E-18
6.732657E+03	5.163951E-16	7.419227E-18
6.742485E+03	5.125573E-16	7.372133E-18
6.752314E+03	5.088281E-16	7.326588E-18
6.762143E+03	5.052151E-16	7.282708E-18
6.771971E+03	5.017163E-16	7.240461E-18
6.781800E+03	4.983472E-16	7.200072E-18
6.791629E+03	4.951133E-16	7.161626E-18
6.801457E+03	4.920103E-16	7.125060E-18
6.811286E+03	4.890423E-16	7.090438E-18
6.821115E+03	4.862221E-16	7.057949E-18
6.830943E+03	4.835432E-16	7.027501E-18
6.840772E+03	4.810080E-16	6.999135E-18
6.850601E+03	4.786269E-16	6.973006E-18
6.860430E+03	4.763918E-16	6.949000E-18
6.870258E+03	4.743026E-16	6.927122E-18
6.880087E+03	4.723497E-16	6.907236E-18
6.889916E+03	4.705502E-16	6.889596E-18
6.899744E+03	4.688929E-16	6.874045E-18
6.909573E+03	4.673750E-16	6.860548E-18
6.919402E+03	4.659841E-16	6.848925E-18
6.929230E+03	4.647250E-16	6.839255E-18
6.939059E+03	4.635837E-16	6.831336E-18
6.948888E+03	4.625726E-16	6.825356E-18
6.958717E+03	4.616578E-16	6.820816E-18
6.968545E+03	4.608500E-16	6.817884E-18
6.978374E+03	4.601319E-16	6.816303E-18
6.988203E+03	4.595036E-16	6.816080E-18
6.998031E+03	4.589367E-16	6.816797E-18
7.007860E+03	4.584393E-16	6.818577E-18
7.017689E+03	4.579814E-16	6.820975E-18
7.027517E+03	4.575606E-16	6.823955E-18
7.037346E+03	4.571647E-16	6.827336E-18
7.047175E+03	4.567809E-16	6.830928E-18
7.057003E+03	4.563866E-16	6.834390E-18
7.066832E+03	4.559685E-16	6.837522E-18
7.076661E+03	4.555225E-16	6.840260E-18
7.086490E+03	4.550255E-16	6.842250E-18
7.096318E+03	4.544734E-16	6.843429E-18
7.106147E+03	4.538332E-16	6.843295E-18
7.115976E+03	4.531111E-16	6.841933E-18
7.125804E+03	4.522843E-16	6.838991E-18
7.135633E+03	4.513403E-16	6.834273E-18
7.145462E+03	4.502674E-16	6.827593E-18
7.155290E+03	4.490546E-16	6.818775E-18
7.165119E+03	4.476924E-16	6.807663E-18
7.174948E+03	4.461824E-16	6.794270E-18
7.184777E+03	4.444979E-16	6.778181E-18
7.194605E+03	4.426639E-16	6.759761E-18
7.204434E+03	4.406676E-16	6.738806E-18
7.214263E+03	4.384985E-16	6.715143E-18
7.224091E+03	4.361881E-16	6.689242E-18
7.233920E+03	4.337208E-16	6.660855E-18
7.243749E+03	4.311333E-16	6.630532E-18
7.253577E+03	4.284253E-16	6.598261E-18
7.263406E+03	4.256188E-16	6.564371E-18
7.273235E+03	4.227384E-16	6.529236E-18
7.283063E+03	4.198015E-16	6.493117E-18
7.292892E+03	4.168473E-16	6.456620E-18
7.302721E+03	4.139075E-16	6.420230E-18
7.312550E+03	4.109962E-16	6.384168E-18
7.322378E+03	4.081390E-16	6.348835E-18
7.332207E+03	4.053634E-16	6.314659E-18
7.342036E+03	4.026883E-16	6.281940E-18
7.351864E+03	4.001337E-16	6.250997E-18
7.361693E+03	3.977205E-16	6.222165E-18
7.371522E+03	3.954796E-16	6.195936E-18
7.381350E+03	3.934325E-16	6.172658E-18
7.391179E+03	3.916004E-16	6.152675E-18
7.401008E+03	3.900230E-16	6.136627E-18
7.410837E+03	3.887107E-16	6.124696E-18
7.420665E+03	3.876915E-16	6.117339E-18
7.430494E+03	3.869923E-16	6.115001E-18
7.440323E+03	3.866380E-16	6.118095E-18
7.450151E+03	3.866513E-16	6.127006E-18
7.459980E+03	3.870432E-16	6.141933E-18
7.469809E+03	3.878313E-16	6.163180E-18
7.479637E+03	3.890400E-16	6.191162E-18
7.489466E+03	3.906708E-16	6.225932E-18
7.499295E+03	3.927412E-16	6.267795E-18
7.509123E+03	3.952343E-16	6.316512E-18
7.518952E+03	3.981684E-16	6.372406E-18
7.528781E+03	4.015268E-16	6.435236E-18
7.538610E+03	4.052968E-16	6.504829E-18
7.548438E+03	4.094597E-16	6.580911E-18
7.558267E+03	4.140011E-16	6.663277E-18
7.568096E+03	4.188784E-16	6.751266E-18
7.577924E+03	4.240525E-16	6.844271E-18
7.587753E+03	4.294885E-16	6.941746E-18
7.597582E+03	4.351336E-16	7.042854E-18
7.607410E+03	4.409161E-16	7.146449E-18
7.617239E+03	4.467809E-16	7.251644E-18
7.627068E+03	4.526552E-16	7.357262E-18
