#wls	flux	fluxerr
1.572591E+03	1.558051E-17	2.257042E-19
1.611906E+03	1.542861E-17	2.233186E-19
1.651221E+03	1.518111E-17	2.195491E-19
1.690536E+03	1.484136E-17	2.144478E-19
1.729850E+03	1.441646E-17	2.081209E-19
1.769165E+03	1.389563E-17	2.004163E-19
1.808480E+03	1.327323E-17	1.912574E-19
1.847795E+03	1.253980E-17	1.805126E-19
1.887110E+03	1.169427E-17	1.681719E-19
1.926424E+03	1.074660E-17	1.543844E-19
1.965739E+03	9.734479E-18	1.396960E-19
2.005054E+03	8.730347E-18	1.251495E-19
2.044369E+03	7.837810E-18	1.122293E-19
2.083683E+03	7.168753E-18	1.025310E-19
2.122998E+03	6.801133E-18	9.715830E-20
2.162313E+03	6.751644E-18	9.633437E-20
2.201628E+03	6.980756E-18	9.947940E-20
2.240943E+03	7.416665E-18	1.055562E-19
2.280257E+03	7.977711E-18	1.133922E-19
2.319572E+03	8.596512E-18	1.220230E-19
2.358887E+03	9.226071E-18	1.307783E-19
2.398202E+03	9.841061E-18	1.392978E-19
2.437517E+03	1.043162E-17	1.474421E-19
2.476831E+03	1.099736E-17	1.552062E-19
2.516146E+03	1.154414E-17	1.626734E-19
2.555461E+03	1.207994E-17	1.699561E-19
2.594776E+03	1.261131E-17	1.771463E-19
2.634090E+03	1.314789E-17	1.843782E-19
2.673405E+03	1.369633E-17	1.917439E-19
2.712720E+03	1.426358E-17	1.993385E-19
2.752035E+03	1.485522E-17	2.072374E-19
2.791350E+03	1.547927E-17	2.155493E-19
2.830664E+03	1.614396E-17	2.243850E-19
2.869979E+03	1.686142E-17	2.339084E-19
2.909294E+03	1.764725E-17	2.443295E-19
2.948609E+03	1.851957E-17	2.558920E-19
2.958437E+03	1.875350E-17	2.589922E-19
2.968266E+03	1.899424E-17	2.621823E-19
2.978095E+03	1.924251E-17	2.654722E-19
2.987923E+03	1.949886E-17	2.688692E-19
2.997752E+03	1.976538E-17	2.724018E-19
3.007581E+03	2.004369E-17	2.760922E-19
3.017410E+03	2.033364E-17	2.799382E-19
3.027238E+03	2.063568E-17	2.839455E-19
3.037067E+03	2.094988E-17	2.881148E-19
3.046896E+03	2.127741E-17	2.924617E-19
3.056724E+03	2.161809E-17	2.969838E-19
3.066553E+03	2.197351E-17	3.017023E-19
3.076382E+03	2.234255E-17	3.066014E-19
3.086210E+03	2.272686E-17	3.117036E-19
3.096039E+03	2.312542E-17	3.169943E-19
3.105868E+03	2.353944E-17	3.224899E-19
3.115697E+03	2.396961E-17	3.281993E-19
3.125525E+03	2.441558E-17	3.341175E-19
3.135354E+03	2.487870E-17	3.402622E-19
3.145183E+03	2.535869E-17	3.466294E-19
3.155011E+03	2.585643E-17	3.532304E-19
3.164840E+03	2.637282E-17	3.600774E-19
3.174669E+03	2.690828E-17	3.671753E-19
3.184497E+03	2.746379E-17	3.745371E-19
3.194326E+03	2.803984E-17	3.821690E-19
3.204155E+03	2.863696E-17	3.900773E-19
3.213983E+03	2.925625E-17	3.982767E-19
3.223812E+03	2.989831E-17	4.067746E-19
3.233641E+03	3.056375E-17	4.155790E-19
3.243470E+03	3.125380E-17	4.247055E-19
3.253298E+03	3.196915E-17	4.341630E-19
3.263127E+03	3.271109E-17	4.439683E-19
3.272956E+03	3.347922E-17	4.541151E-19
3.282784E+03	3.427543E-17	4.646284E-19
3.292613E+03	3.509940E-17	4.755031E-19
3.302442E+03	3.595364E-17	4.867723E-19
3.312270E+03	3.683723E-17	4.984226E-19
3.322099E+03	3.775108E-17	5.104654E-19
3.331928E+03	3.869718E-17	5.229269E-19
3.341757E+03	3.967463E-17	5.357940E-19
3.351585E+03	4.068439E-17	5.490786E-19
3.361414E+03	4.172731E-17	5.627914E-19
3.371243E+03	4.280375E-17	5.769359E-19
3.381071E+03	4.391405E-17	5.915159E-19
3.390900E+03	4.505801E-17	6.065276E-19
3.400729E+03	4.623655E-17	6.219824E-19
3.410557E+03	4.744891E-17	6.378690E-19
3.420386E+03	4.869668E-17	6.542078E-19
3.430215E+03	4.997783E-17	6.709702E-19
3.440043E+03	5.129405E-17	6.881781E-19
3.449872E+03	5.264394E-17	7.058114E-19
3.459701E+03	5.402736E-17	7.238671E-19
3.469530E+03	5.544349E-17	7.423333E-19
3.479358E+03	5.689287E-17	7.612161E-19
3.489187E+03	5.837338E-17	7.804860E-19
3.499016E+03	5.988489E-17	8.001403E-19
3.508844E+03	6.142655E-17	8.201665E-19
3.518673E+03	6.299825E-17	8.405621E-19
3.528502E+03	6.459843E-17	8.613054E-19
3.538330E+03	6.622690E-17	8.823928E-19
3.548159E+03	6.788269E-17	9.038102E-19
3.557988E+03	6.956555E-17	9.255534E-19
3.567817E+03	7.127517E-17	9.476174E-19
3.577645E+03	7.301045E-17	9.699866E-19
3.587474E+03	7.477089E-17	9.926533E-19
3.597303E+03	7.655679E-17	1.015621E-18
3.607131E+03	7.836743E-17	1.038878E-18
3.616960E+03	8.020449E-17	1.062447E-18
3.626789E+03	8.206562E-17	1.086294E-18
3.636617E+03	8.395295E-17	1.110449E-18
3.646446E+03	8.586551E-17	1.134896E-18
3.656275E+03	8.780445E-17	1.159650E-18
3.666103E+03	8.977007E-17	1.184713E-18
3.675932E+03	9.176165E-17	1.210076E-18
3.685761E+03	9.377994E-17	1.235748E-18
3.695590E+03	9.582461E-17	1.261721E-18
3.705418E+03	9.789597E-17	1.288001E-18
3.715247E+03	9.999311E-17	1.314573E-18
3.725076E+03	1.021158E-16	1.341434E-18
3.734904E+03	1.042624E-16	1.368561E-18
3.744733E+03	1.064328E-16	1.395951E-18
3.754562E+03	1.086245E-16	1.423572E-18
3.764390E+03	1.108357E-16	1.451398E-18
3.774219E+03	1.130636E-16	1.479393E-18
3.784048E+03	1.153035E-16	1.507492E-18
3.793877E+03	1.175546E-16	1.535686E-18
3.803705E+03	1.198097E-16	1.563880E-18
3.813534E+03	1.220640E-16	1.592012E-18
3.823363E+03	1.243144E-16	1.620039E-18
3.833191E+03	1.265520E-16	1.647846E-18
3.843020E+03	1.287725E-16	1.675379E-18
3.852849E+03	1.309674E-16	1.702525E-18
3.862677E+03	1.331297E-16	1.729196E-18
3.872506E+03	1.352535E-16	1.755315E-18
3.882335E+03	1.373298E-16	1.780766E-18
3.892163E+03	1.393514E-16	1.805458E-18
3.901992E+03	1.413117E-16	1.829307E-18
3.911821E+03	1.432022E-16	1.852205E-18
3.921650E+03	1.450195E-16	1.874109E-18
3.931478E+03	1.467550E-16	1.894911E-18
3.941307E+03	1.484057E-16	1.914575E-18
3.951136E+03	1.499672E-16	1.933047E-18
3.960964E+03	1.514359E-16	1.950284E-18
3.970793E+03	1.528109E-16	1.966275E-18
3.980622E+03	1.540897E-16	1.980994E-18
3.990450E+03	1.552737E-16	1.994459E-18
4.000279E+03	1.563642E-16	2.006691E-18
4.010108E+03	1.573648E-16	2.017742E-18
4.019937E+03	1.582782E-16	2.027646E-18
4.029765E+03	1.591103E-16	2.036483E-18
4.039594E+03	1.598671E-16	2.044332E-18
4.049423E+03	1.605553E-16	2.051282E-18
4.059251E+03	1.611827E-16	2.057433E-18
4.069080E+03	1.617575E-16	2.062895E-18
4.078909E+03	1.622889E-16	2.067782E-18
4.088737E+03	1.627875E-16	2.072235E-18
4.098566E+03	1.632618E-16	2.076363E-18
4.108395E+03	1.637233E-16	2.080310E-18
4.118223E+03	1.641808E-16	2.084189E-18
4.128052E+03	1.646471E-16	2.088164E-18
4.137881E+03	1.651296E-16	2.092329E-18
4.147710E+03	1.656425E-16	2.096859E-18
4.157538E+03	1.661926E-16	2.101844E-18
4.167367E+03	1.667907E-16	2.107417E-18
4.177196E+03	1.674488E-16	2.113727E-18
4.187024E+03	1.681741E-16	2.120863E-18
4.196853E+03	1.689764E-16	2.128947E-18
4.206682E+03	1.698664E-16	2.138110E-18
4.216510E+03	1.708530E-16	2.148460E-18
4.226339E+03	1.719445E-16	2.160100E-18
4.236168E+03	1.731504E-16	2.173144E-18
4.245997E+03	1.744811E-16	2.187718E-18
4.255825E+03	1.759439E-16	2.203908E-18
4.265654E+03	1.775511E-16	2.221865E-18
4.275483E+03	1.793091E-16	2.241663E-18
4.285311E+03	1.812296E-16	2.263442E-18
4.295140E+03	1.833104E-16	2.287169E-18
4.304969E+03	1.855515E-16	2.312837E-18
4.314797E+03	1.879514E-16	2.340422E-18
4.324626E+03	1.905048E-16	2.369852E-18
4.334455E+03	1.932125E-16	2.401131E-18
4.344283E+03	1.960661E-16	2.434151E-18
4.354112E+03	1.990622E-16	2.468859E-18
4.363941E+03	2.021936E-16	2.505166E-18
4.373770E+03	2.054536E-16	2.542980E-18
4.383598E+03	2.088315E-16	2.582165E-18
4.393427E+03	2.123164E-16	2.622583E-18
4.403256E+03	2.158974E-16	2.664093E-18
4.413084E+03	2.195578E-16	2.706487E-18
4.422913E+03	2.232808E-16	2.749555E-18
4.432742E+03	2.270476E-16	2.793063E-18
4.442570E+03	2.308414E-16	2.836802E-18
4.452399E+03	2.346382E-16	2.880477E-18
4.462228E+03	2.384163E-16	2.923821E-18
4.472057E+03	2.421512E-16	2.966536E-18
4.481885E+03	2.458196E-16	3.008338E-18
4.491714E+03	2.493959E-16	3.048914E-18
4.501543E+03	2.528568E-16	3.087986E-18
4.511371E+03	2.561774E-16	3.125253E-18
4.521200E+03	2.593363E-16	3.160461E-18
4.531029E+03	2.623114E-16	3.193346E-18
4.540857E+03	2.650872E-16	3.223728E-18
4.550686E+03	2.676420E-16	3.251348E-18
4.560515E+03	2.699681E-16	3.276125E-18
4.570343E+03	2.720522E-16	3.297905E-18
4.580172E+03	2.738914E-16	3.316662E-18
4.590001E+03	2.754795E-16	3.332331E-18
4.599830E+03	2.768236E-16	3.345009E-18
4.609658E+03	2.779227E-16	3.354691E-18
4.619487E+03	2.787864E-16	3.361504E-18
4.629316E+03	2.794230E-16	3.365557E-18
4.639144E+03	2.798461E-16	3.367023E-18
4.648973E+03	2.800723E-16	3.366109E-18
4.658802E+03	2.801177E-16	3.363018E-18
4.668630E+03	2.800029E-16	3.358003E-18
4.678459E+03	2.797521E-16	3.351360E-18
4.688288E+03	2.793853E-16	3.343335E-18
4.698117E+03	2.789275E-16	3.334231E-18
4.707945E+03	2.783981E-16	3.324284E-18
4.717774E+03	2.778180E-16	3.313745E-18
4.727603E+03	2.772062E-16	3.302844E-18
4.737431E+03	2.765815E-16	3.291806E-18
4.747260E+03	2.759649E-16	3.280880E-18
4.757089E+03	2.753699E-16	3.270228E-18
4.766917E+03	2.748108E-16	3.260018E-18
4.776746E+03	2.743001E-16	3.250397E-18
4.786575E+03	2.738513E-16	3.241526E-18
4.796403E+03	2.734722E-16	3.233490E-18
4.806232E+03	2.731744E-16	3.226426E-18
4.816061E+03	2.729638E-16	3.220402E-18
4.825890E+03	2.728487E-16	3.215510E-18
4.835718E+03	2.728392E-16	3.211868E-18
4.845547E+03	2.729429E-16	3.209559E-18
4.855376E+03	2.731676E-16	3.208671E-18
4.865204E+03	2.735211E-16	3.209292E-18
4.875033E+03	2.740115E-16	3.211510E-18
4.884862E+03	2.746448E-16	3.215390E-18
4.894690E+03	2.754346E-16	3.221088E-18
4.904519E+03	2.763905E-16	3.228707E-18
4.914348E+03	2.775170E-16	3.238295E-18
4.924177E+03	2.788266E-16	3.249992E-18
4.934005E+03	2.803323E-16	3.263940E-18
4.943834E+03	2.820450E-16	3.280260E-18
4.953663E+03	2.839700E-16	3.299006E-18
4.963491E+03	2.861236E-16	3.320358E-18
4.973320E+03	2.885137E-16	3.344398E-18
4.983149E+03	2.911534E-16	3.371271E-18
4.992977E+03	2.940497E-16	3.401047E-18
5.002806E+03	2.972118E-16	3.433823E-18
5.012635E+03	3.006507E-16	3.469717E-18
5.022463E+03	3.043681E-16	3.508736E-18
5.032292E+03	3.083754E-16	3.551004E-18
5.042121E+03	3.126745E-16	3.596527E-18
5.051950E+03	3.172681E-16	3.645331E-18
5.061778E+03	3.221576E-16	3.697418E-18
5.071607E+03	3.273393E-16	3.752733E-18
5.081436E+03	3.328168E-16	3.811310E-18
5.091264E+03	3.385793E-16	3.873012E-18
5.101093E+03	3.446234E-16	3.937791E-18
5.110922E+03	3.509370E-16	4.005499E-18
5.120750E+03	3.575091E-16	4.075999E-18
5.130579E+03	3.643300E-16	4.149173E-18
5.140408E+03	3.713811E-16	4.224798E-18
5.150237E+03	3.786448E-16	4.302670E-18
5.160065E+03	3.861017E-16	4.382558E-18
5.169894E+03	3.937303E-16	4.464212E-18
5.179723E+03	4.015033E-16	4.547318E-18
5.189551E+03	4.093993E-16	4.631627E-18
5.199380E+03	4.173873E-16	4.716788E-18
5.209209E+03	4.254388E-16	4.802475E-18
5.219037E+03	4.335283E-16	4.888399E-18
5.228866E+03	4.416167E-16	4.974117E-18
5.238695E+03	4.496763E-16	5.059322E-18
5.248523E+03	4.576707E-16	5.143604E-18
5.258352E+03	4.655719E-16	5.226651E-18
5.268181E+03	4.733475E-16	5.308108E-18
5.278010E+03	4.809562E-16	5.387515E-18
5.287838E+03	4.883711E-16	5.464579E-18
5.297667E+03	4.955618E-16	5.538968E-18
5.307496E+03	5.024942E-16	5.610310E-18
5.317324E+03	5.091352E-16	5.678248E-18
5.327153E+03	5.154691E-16	5.742618E-18
5.336982E+03	5.214561E-16	5.802989E-18
5.346810E+03	5.270800E-16	5.859194E-18
5.356639E+03	5.323106E-16	5.910913E-18
5.366468E+03	5.371306E-16	5.957969E-18
5.376297E+03	5.415260E-16	6.000224E-18
5.386125E+03	5.454857E-16	6.037568E-18
5.395954E+03	5.490012E-16	6.069927E-18
5.405783E+03	5.520731E-16	6.097322E-18
5.415611E+03	5.546940E-16	6.119691E-18
5.425440E+03	5.568640E-16	6.137050E-18
5.435269E+03	5.585825E-16	6.149409E-18
5.445097E+03	5.598673E-16	6.156982E-18
5.454926E+03	5.607226E-16	6.159830E-18
5.464755E+03	5.611548E-16	6.158041E-18
5.474583E+03	5.611794E-16	6.151798E-18
5.484412E+03	5.608186E-16	6.141361E-18
5.494241E+03	5.600870E-16	6.126903E-18
5.504070E+03	5.590046E-16	6.108656E-18
5.513898E+03	5.575952E-16	6.086891E-18
5.523727E+03	5.558810E-16	6.061865E-18
5.533556E+03	5.538882E-16	6.033873E-18
5.543384E+03	5.516412E-16	6.003188E-18
5.553213E+03	5.491663E-16	5.970108E-18
5.563042E+03	5.464829E-16	5.934851E-18
5.572870E+03	5.436220E-16	5.897760E-18
5.582699E+03	5.406025E-16	5.859047E-18
5.592528E+03	5.374544E-16	5.819041E-18
5.602357E+03	5.342001E-16	5.777990E-18
5.612185E+03	5.308555E-16	5.736069E-18
5.622014E+03	5.274460E-16	5.693555E-18
5.631843E+03	5.239901E-16	5.650651E-18
5.641671E+03	5.204990E-16	5.607478E-18
5.651500E+03	5.169930E-16	5.564255E-18
5.661329E+03	5.134852E-16	5.521126E-18
5.671157E+03	5.099811E-16	5.478150E-18
5.680986E+03	5.064957E-16	5.435485E-18
5.690815E+03	5.030420E-16	5.393273E-18
5.700643E+03	4.996147E-16	5.351455E-18
5.710472E+03	4.962236E-16	5.310136E-18
5.720301E+03	4.928768E-16	5.269399E-18
5.730130E+03	4.895700E-16	5.229201E-18
5.739958E+03	4.863033E-16	5.189539E-18
5.749787E+03	4.830811E-16	5.150459E-18
5.759616E+03	4.799015E-16	5.111941E-18
5.769444E+03	4.767618E-16	5.073954E-18
5.779273E+03	4.736587E-16	5.036462E-18
5.789102E+03	4.705887E-16	4.999427E-18
5.798930E+03	4.675532E-16	4.962864E-18
5.808759E+03	4.645483E-16	4.926729E-18
5.818588E+03	4.615649E-16	4.890925E-18
5.828417E+03	4.586098E-16	4.855525E-18
5.838245E+03	4.556745E-16	4.820436E-18
5.848074E+03	4.527667E-16	4.785742E-18
5.857903E+03	4.498731E-16	4.751300E-18
5.867731E+03	4.470027E-16	4.717203E-18
5.877560E+03	4.441540E-16	4.683439E-18
5.887389E+03	4.413265E-16	4.649998E-18
5.897217E+03	4.385255E-16	4.616937E-18
5.907046E+03	4.357518E-16	4.584263E-18
5.916875E+03	4.330119E-16	4.552046E-18
5.926703E+03	4.303082E-16	4.520307E-18
5.936532E+03	4.276433E-16	4.489075E-18
5.946361E+03	4.250315E-16	4.458498E-18
5.956190E+03	4.224767E-16	4.428617E-18
5.966018E+03	4.199838E-16	4.399480E-18
5.975847E+03	4.175634E-16	4.371197E-18
5.985676E+03	4.152266E-16	4.343885E-18
5.995504E+03	4.129852E-16	4.317662E-18
6.005333E+03	4.108512E-16	4.292654E-18
6.015162E+03	4.088316E-16	4.268932E-18
6.024990E+03	4.069443E-16	4.246680E-18
6.034819E+03	4.052076E-16	4.226086E-18
6.044648E+03	4.036288E-16	4.207225E-18
6.054477E+03	4.022316E-16	4.190341E-18
6.064305E+03	4.010235E-16	4.175507E-18
6.074134E+03	4.000004E-16	4.162682E-18
6.083963E+03	3.991585E-16	4.151820E-18
6.093791E+03	3.985092E-16	4.143039E-18
6.103620E+03	3.980417E-16	4.136225E-18
6.113449E+03	3.977662E-16	4.131482E-18
6.123277E+03	3.976812E-16	4.128790E-18
6.133106E+03	3.977842E-16	4.128126E-18
6.142935E+03	3.980828E-16	4.129564E-18
6.152763E+03	3.985671E-16	4.133001E-18
6.162592E+03	3.992425E-16	4.138493E-18
6.172421E+03	4.001024E-16	4.145971E-18
6.182250E+03	4.011503E-16	4.155468E-18
6.192078E+03	4.023772E-16	4.166894E-18
6.201907E+03	4.037728E-16	4.180141E-18
6.211736E+03	4.053314E-16	4.195152E-18
6.221564E+03	4.070521E-16	4.211916E-18
6.231393E+03	4.089153E-16	4.230232E-18
6.241222E+03	4.109121E-16	4.250009E-18
6.251050E+03	4.130263E-16	4.271082E-18
6.260879E+03	4.152405E-16	4.293274E-18
6.270708E+03	4.175425E-16	4.316458E-18
6.280537E+03	4.199000E-16	4.340303E-18
6.290365E+03	4.223035E-16	4.364713E-18
6.300194E+03	4.247292E-16	4.389443E-18
6.310023E+03	4.271759E-16	4.414479E-18
6.319851E+03	4.296134E-16	4.439510E-18
6.329680E+03	4.320323E-16	4.464441E-18
6.339509E+03	4.343962E-16	4.488895E-18
6.349337E+03	4.367143E-16	4.512968E-18
6.359166E+03	4.389535E-16	4.536316E-18
6.368995E+03	4.411171E-16	4.558976E-18
6.378823E+03	4.431739E-16	4.580625E-18
6.388652E+03	4.451124E-16	4.601143E-18
6.398481E+03	4.469082E-16	4.620278E-18
6.408310E+03	4.485452E-16	4.637862E-18
6.418138E+03	4.500089E-16	4.653745E-18
6.427967E+03	4.512872E-16	4.667802E-18
6.437796E+03	4.523703E-16	4.679927E-18
6.447624E+03	4.532436E-16	4.689970E-18
6.457453E+03	4.539020E-16	4.697875E-18
6.467282E+03	4.543430E-16	4.703612E-18
6.477110E+03	4.545588E-16	4.707100E-18
6.486939E+03	4.545657E-16	4.708505E-18
6.496768E+03	4.543459E-16	4.707639E-18
6.506597E+03	4.539195E-16	4.704707E-18
6.516425E+03	4.532868E-16	4.699707E-18
6.526254E+03	4.524565E-16	4.692728E-18
6.536083E+03	4.514315E-16	4.683796E-18
6.545911E+03	4.502379E-16	4.673177E-18
6.555740E+03	4.488732E-16	4.660842E-18
6.565569E+03	4.473503E-16	4.646922E-18
6.575397E+03	4.456901E-16	4.631629E-18
6.585226E+03	4.439064E-16	4.615104E-18
6.595055E+03	4.420057E-16	4.597411E-18
6.604883E+03	4.400094E-16	4.578769E-18
6.614712E+03	4.379239E-16	4.559240E-18
6.624541E+03	4.357626E-16	4.538962E-18
6.634370E+03	4.335458E-16	4.518143E-18
6.644198E+03	4.312786E-16	4.496833E-18
6.654027E+03	4.289730E-16	4.475154E-18
6.663856E+03	4.266472E-16	4.453295E-18
6.673684E+03	4.243118E-16	4.431365E-18
6.683513E+03	4.219620E-16	4.409309E-18
6.693342E+03	4.196212E-16	4.387373E-18
6.703170E+03	4.172980E-16	4.365642E-18
6.712999E+03	4.149927E-16	4.344120E-18
6.722828E+03	4.127196E-16	4.322954E-18
6.732657E+03	4.104779E-16	4.302136E-18
6.742485E+03	4.082808E-16	4.281803E-18
6.752314E+03	4.061265E-16	4.261935E-18
6.762143E+03	4.040274E-16	4.242661E-18
6.771971E+03	4.019878E-16	4.224027E-18
6.781800E+03	4.000049E-16	4.206003E-18
6.791629E+03	3.980895E-16	4.188702E-18
6.801457E+03	3.962452E-16	4.172163E-18
6.811286E+03	3.944750E-16	4.156417E-18
6.821115E+03	3.927746E-16	4.141419E-18
6.830943E+03	3.911607E-16	4.127345E-18
6.840772E+03	3.896210E-16	4.114067E-18
6.850601E+03	3.881715E-16	4.101754E-18
6.860430E+03	3.867991E-16	4.090270E-18
6.870258E+03	3.855190E-16	4.079774E-18
6.880087E+03	3.843246E-16	4.070200E-18
6.889916E+03	3.832085E-16	4.061468E-18
6.899744E+03	3.821846E-16	4.053729E-18
6.909573E+03	3.812521E-16	4.046975E-18
6.919402E+03	3.803950E-16	4.041036E-18
6.929230E+03	3.796257E-16	4.036046E-18
6.939059E+03	3.789417E-16	4.031979E-18
6.948888E+03	3.783326E-16	4.028729E-18
6.958717E+03	3.777948E-16	4.026255E-18
6.968545E+03	3.773388E-16	4.024672E-18
6.978374E+03	3.769453E-16	4.023774E-18
6.988203E+03	3.766088E-16	4.023505E-18
6.998031E+03	3.763386E-16	4.023965E-18
7.007860E+03	3.761212E-16	4.025010E-18
7.017689E+03	3.759423E-16	4.026489E-18
7.027517E+03	3.758101E-16	4.028488E-18
7.037346E+03	3.757096E-16	4.030849E-18
7.047175E+03	3.756408E-16	4.033573E-18
7.057003E+03	3.755885E-16	4.036494E-18
7.066832E+03	3.755442E-16	4.039524E-18
7.076661E+03	3.755078E-16	4.042660E-18
7.086490E+03	3.754711E-16	4.045812E-18
7.096318E+03	3.754259E-16	4.048895E-18
7.106147E+03	3.753644E-16	4.051821E-18
7.115976E+03	3.752708E-16	4.054419E-18
7.125804E+03	3.751535E-16	4.056779E-18
7.135633E+03	3.749974E-16	4.058736E-18
7.145462E+03	3.748041E-16	4.060306E-18
7.155290E+03	3.745515E-16	4.061249E-18
7.165119E+03	3.742503E-16	4.061678E-18
7.174948E+03	3.738963E-16	4.061546E-18
7.184777E+03	3.734697E-16	4.060634E-18
7.194605E+03	3.729840E-16	4.059089E-18
7.204434E+03	3.724297E-16	4.056804E-18
7.214263E+03	3.717985E-16	4.053686E-18
7.224091E+03	3.710993E-16	4.049830E-18
7.233920E+03	3.703263E-16	4.045170E-18
7.243749E+03	3.694748E-16	4.039652E-18
7.253577E+03	3.685499E-16	4.033328E-18
7.263406E+03	3.675496E-16	4.026175E-18
7.273235E+03	3.664816E-16	4.018274E-18
7.283063E+03	3.653384E-16	4.009541E-18
7.292892E+03	3.641220E-16	3.999995E-18
7.302721E+03	3.628523E-16	3.989851E-18
7.312550E+03	3.615334E-16	3.979154E-18
7.322378E+03	3.601874E-16	3.968144E-18
7.332207E+03	3.588536E-16	3.957254E-18
7.342036E+03	3.575387E-16	3.946558E-18
7.351864E+03	3.562668E-16	3.936322E-18
7.361693E+03	3.550704E-16	3.926907E-18
7.371522E+03	3.539656E-16	3.918493E-18
7.381350E+03	3.529599E-16	3.911166E-18
7.391179E+03	3.520943E-16	3.905385E-18
7.401008E+03	3.513672E-16	3.901134E-18
7.410837E+03	3.508016E-16	3.898676E-18
7.420665E+03	3.504113E-16	3.898167E-18
7.430494E+03	3.502090E-16	3.899756E-18
7.440323E+03	3.502060E-16	3.903573E-18
7.450151E+03	3.504209E-16	3.909835E-18
7.459980E+03	3.508448E-16	3.918447E-18
7.469809E+03	3.515015E-16	3.929683E-18
7.479637E+03	3.523778E-16	3.943402E-18
7.489466E+03	3.534932E-16	3.959832E-18
7.499295E+03	3.548296E-16	3.978777E-18
7.509123E+03	3.563926E-16	4.000307E-18
7.518952E+03	3.581761E-16	4.024362E-18
7.528781E+03	3.601619E-16	4.050744E-18
7.538610E+03	3.623466E-16	4.079423E-18
7.548438E+03	3.647146E-16	4.110229E-18
7.558267E+03	3.672470E-16	4.142955E-18
7.568096E+03	3.699116E-16	4.177245E-18
7.577924E+03	3.726822E-16	4.212807E-18
7.587753E+03	3.755392E-16	4.249422E-18
7.597582E+03	3.784502E-16	4.286728E-18
7.607410E+03	3.813799E-16	4.324326E-18
7.617239E+03	3.842906E-16	4.361788E-18
7.627068E+03	3.871318E-16	4.398542E-18
