#wls	flux	fluxerr
1.572591E+03	1.411032E-18	9.257766E-20
1.611906E+03	1.395838E-18	9.142772E-20
1.651221E+03	1.373382E-18	8.980259E-20
1.690536E+03	1.343687E-18	8.770630E-20
1.729850E+03	1.307128E-18	8.516583E-20
1.769165E+03	1.263170E-18	8.214926E-20
1.808480E+03	1.210683E-18	7.858604E-20
1.847795E+03	1.148363E-18	7.439535E-20
1.887110E+03	1.076049E-18	6.957103E-20
1.926424E+03	9.943363E-19	6.415589E-20
1.965739E+03	9.061807E-19	5.834476E-20
2.005054E+03	8.179384E-19	5.254940E-20
2.044369E+03	7.394956E-19	4.740440E-20
2.083683E+03	6.811723E-19	4.356634E-20
2.122998E+03	6.507065E-19	4.152072E-20
2.162313E+03	6.500075E-19	4.137687E-20
2.201628E+03	6.757942E-19	4.291279E-20
2.240943E+03	7.209336E-19	4.566393E-20
2.280257E+03	7.775135E-19	4.912062E-20
2.319572E+03	8.387714E-19	5.285049E-20
2.358887E+03	9.000508E-19	5.655782E-20
2.398202E+03	9.587773E-19	6.008055E-20
2.437517E+03	1.014111E-18	6.336680E-20
2.476831E+03	1.065688E-18	6.639494E-20
2.516146E+03	1.114164E-18	6.920720E-20
2.555461E+03	1.160266E-18	7.184959E-20
2.594776E+03	1.204598E-18	7.436013E-20
2.634090E+03	1.248312E-18	7.681020E-20
2.673405E+03	1.291760E-18	7.922099E-20
2.712720E+03	1.335802E-18	8.164469E-20
2.752035E+03	1.380858E-18	8.410582E-20
2.791350E+03	1.427699E-18	8.664992E-20
2.830664E+03	1.477075E-18	8.932040E-20
2.869979E+03	1.529305E-18	9.213411E-20
2.909294E+03	1.585533E-18	9.515706E-20
2.948609E+03	1.646512E-18	9.843053E-20
2.958437E+03	1.662442E-18	9.928415E-20
2.968266E+03	1.679010E-18	1.001734E-19
2.978095E+03	1.695792E-18	1.010730E-19
2.987923E+03	1.713048E-18	1.019983E-19
2.997752E+03	1.730906E-18	1.029568E-19
3.007581E+03	1.749498E-18	1.039563E-19
3.017410E+03	1.768803E-18	1.049953E-19
3.027238E+03	1.789022E-18	1.060855E-19
3.037067E+03	1.809705E-18	1.072003E-19
3.046896E+03	1.831067E-18	1.083522E-19
3.056724E+03	1.853400E-18	1.095582E-19
3.066553E+03	1.876458E-18	1.108037E-19
3.076382E+03	1.900223E-18	1.120874E-19
3.086210E+03	1.924907E-18	1.134218E-19
3.096039E+03	1.950271E-18	1.147924E-19
3.105868E+03	1.976535E-18	1.162122E-19
3.115697E+03	2.003461E-18	1.176669E-19
3.125525E+03	2.031514E-18	1.191836E-19
3.135354E+03	2.060224E-18	1.207346E-19
3.145183E+03	2.089588E-18	1.223195E-19
3.155011E+03	2.120086E-18	1.239663E-19
3.164840E+03	2.151486E-18	1.256611E-19
3.174669E+03	2.183796E-18	1.274043E-19
3.184497E+03	2.217025E-18	1.291960E-19
3.194326E+03	2.251430E-18	1.310511E-19
3.204155E+03	2.286781E-18	1.329560E-19
3.213983E+03	2.323341E-18	1.349256E-19
3.223812E+03	2.360878E-18	1.369462E-19
3.233641E+03	2.399917E-18	1.390481E-19
3.243470E+03	2.439975E-18	1.412029E-19
3.253298E+03	2.481328E-18	1.434264E-19
3.263127E+03	2.524004E-18	1.457198E-19
3.272956E+03	2.568289E-18	1.480994E-19
3.282784E+03	2.613956E-18	1.505516E-19
3.292613E+03	2.661300E-18	1.530931E-19
3.302442E+03	2.710090E-18	1.557103E-19
3.312270E+03	2.760629E-18	1.584202E-19
3.322099E+03	2.812957E-18	1.612246E-19
3.331928E+03	2.867386E-18	1.641411E-19
3.341757E+03	2.923692E-18	1.671563E-19
3.351585E+03	2.981920E-18	1.702723E-19
3.361414E+03	3.042395E-18	1.735072E-19
3.371243E+03	3.104890E-18	1.768475E-19
3.381071E+03	3.170019E-18	1.803276E-19
3.390900E+03	3.237561E-18	1.839344E-19
3.400729E+03	3.307577E-18	1.876707E-19
3.410557E+03	3.380127E-18	1.915394E-19
3.420386E+03	3.455856E-18	1.955763E-19
3.430215E+03	3.534258E-18	1.997520E-19
3.440043E+03	3.615697E-18	2.040864E-19
3.449872E+03	3.700246E-18	2.085829E-19
3.459701E+03	3.787986E-18	2.132453E-19
3.469530E+03	3.879304E-18	2.180945E-19
3.479358E+03	3.974285E-18	2.231344E-19
3.489187E+03	4.072720E-18	2.283523E-19
3.499016E+03	4.175316E-18	2.337871E-19
3.508844E+03	4.281559E-18	2.394088E-19
3.518673E+03	4.392172E-18	2.452571E-19
3.528502E+03	4.507270E-18	2.513370E-19
3.538330E+03	4.626645E-18	2.576360E-19
3.548159E+03	4.750740E-18	2.641775E-19
3.557988E+03	4.879672E-18	2.709669E-19
3.567817E+03	5.013250E-18	2.779922E-19
3.577645E+03	5.152583E-18	2.853138E-19
3.587474E+03	5.296824E-18	2.928833E-19
3.597303E+03	5.446777E-18	3.007438E-19
3.607131E+03	5.602599E-18	3.089024E-19
3.616960E+03	5.764100E-18	3.173472E-19
3.626789E+03	5.932129E-18	3.261234E-19
3.636617E+03	6.106157E-18	3.352001E-19
3.646446E+03	6.286703E-18	3.446043E-19
3.656275E+03	6.474298E-18	3.543632E-19
3.666103E+03	6.668775E-18	3.644658E-19
3.675932E+03	6.870313E-18	3.749202E-19
3.685761E+03	7.079474E-18	3.857550E-19
3.695590E+03	7.296094E-18	3.969592E-19
3.705418E+03	7.520747E-18	4.085620E-19
3.715247E+03	7.753274E-18	4.205525E-19
3.725076E+03	7.994264E-18	4.329607E-19
3.734904E+03	8.243954E-18	4.457968E-19
3.744733E+03	8.502571E-18	4.590709E-19
3.754562E+03	8.769964E-18	4.727722E-19
3.764390E+03	9.047161E-18	4.869538E-19
3.774219E+03	9.333625E-18	5.015841E-19
3.784048E+03	9.630006E-18	5.166953E-19
3.793877E+03	9.936568E-18	5.322989E-19
3.803705E+03	1.025317E-17	5.483843E-19
3.813534E+03	1.058091E-17	5.650073E-19
3.823363E+03	1.091923E-17	5.821354E-19
3.833191E+03	1.126884E-17	5.998034E-19
3.843020E+03	1.163003E-17	6.180232E-19
3.852849E+03	1.200267E-17	6.367846E-19
3.862677E+03	1.238749E-17	6.561232E-19
3.872506E+03	1.278436E-17	6.760282E-19
3.882335E+03	1.319403E-17	6.965365E-19
3.892163E+03	1.361637E-17	7.176368E-19
3.901992E+03	1.405169E-17	7.393426E-19
3.911821E+03	1.450032E-17	7.616666E-19
3.921650E+03	1.496258E-17	7.846222E-19
3.931478E+03	1.543880E-17	8.082229E-19
3.941307E+03	1.592883E-17	8.324566E-19
3.951136E+03	1.643350E-17	8.573624E-19
3.960964E+03	1.695215E-17	8.829015E-19
3.970793E+03	1.748611E-17	9.091395E-19
3.980622E+03	1.803523E-17	9.360635E-19
3.990450E+03	1.859933E-17	9.636601E-19
4.000279E+03	1.917926E-17	9.919693E-19
4.010108E+03	1.977486E-17	1.020977E-18
4.019937E+03	2.038645E-17	1.050696E-18
4.029765E+03	2.101438E-17	1.081138E-18
4.039594E+03	2.165843E-17	1.112290E-18
4.049423E+03	2.231894E-17	1.144161E-18
4.059251E+03	2.299623E-17	1.176765E-18
4.069080E+03	2.369007E-17	1.210083E-18
4.078909E+03	2.440133E-17	1.244157E-18
4.088737E+03	2.512977E-17	1.278968E-18
4.098566E+03	2.587511E-17	1.314496E-18
4.108395E+03	2.663823E-17	1.350782E-18
4.118223E+03	2.741885E-17	1.387806E-18
4.128052E+03	2.821663E-17	1.425544E-18
4.137881E+03	2.903246E-17	1.464038E-18
4.147710E+03	2.986537E-17	1.503232E-18
4.157538E+03	3.071623E-17	1.543165E-18
4.167367E+03	3.158464E-17	1.583812E-18
4.177196E+03	3.247019E-17	1.625146E-18
4.187024E+03	3.337374E-17	1.667206E-18
4.196853E+03	3.429482E-17	1.709962E-18
4.206682E+03	3.523365E-17	1.753420E-18
4.216510E+03	3.618901E-17	1.797514E-18
4.226339E+03	3.716174E-17	1.842280E-18
4.236168E+03	3.815127E-17	1.887686E-18
4.245997E+03	3.915771E-17	1.933730E-18
4.255825E+03	4.018043E-17	1.980378E-18
4.265654E+03	4.122023E-17	2.027663E-18
4.275483E+03	4.227496E-17	2.075474E-18
4.285311E+03	4.334612E-17	2.123881E-18
4.295140E+03	4.443300E-17	2.172844E-18
4.304969E+03	4.553399E-17	2.222278E-18
4.314797E+03	4.665065E-17	2.272257E-18
4.324626E+03	4.778205E-17	2.322729E-18
4.334455E+03	4.892742E-17	2.373654E-18
4.344283E+03	5.008660E-17	2.425018E-18
4.354112E+03	5.125939E-17	2.476809E-18
4.363941E+03	5.244572E-17	2.529019E-18
4.373770E+03	5.364454E-17	2.581593E-18
4.383598E+03	5.485732E-17	2.634597E-18
4.393427E+03	5.608134E-17	2.687898E-18
4.403256E+03	5.731719E-17	2.741520E-18
4.413084E+03	5.856371E-17	2.795406E-18
4.422913E+03	5.982142E-17	2.849574E-18
4.432742E+03	6.108828E-17	2.903928E-18
4.442570E+03	6.236388E-17	2.958442E-18
4.452399E+03	6.364877E-17	3.013142E-18
4.462228E+03	6.494064E-17	3.067916E-18
4.472057E+03	6.624090E-17	3.122829E-18
4.481885E+03	6.754819E-17	3.177813E-18
4.491714E+03	6.886104E-17	3.232799E-18
4.501543E+03	7.017897E-17	3.287762E-18
4.511371E+03	7.150233E-17	3.342718E-18
4.521200E+03	7.282967E-17	3.397598E-18
4.531029E+03	7.416031E-17	3.452369E-18
4.540857E+03	7.549370E-17	3.507006E-18
4.550686E+03	7.682916E-17	3.561476E-18
4.560515E+03	7.816612E-17	3.615754E-18
4.570343E+03	7.950389E-17	3.669807E-18
4.580172E+03	8.083973E-17	3.723509E-18
4.590001E+03	8.217498E-17	3.776925E-18
4.599830E+03	8.350788E-17	3.829973E-18
4.609658E+03	8.483660E-17	3.882572E-18
4.619487E+03	8.616149E-17	3.934739E-18
4.629316E+03	8.748065E-17	3.986390E-18
4.639144E+03	8.879336E-17	4.037495E-18
4.648973E+03	9.009875E-17	4.088018E-18
4.658802E+03	9.139495E-17	4.137876E-18
4.668630E+03	9.268107E-17	4.187034E-18
4.678459E+03	9.395635E-17	4.235462E-18
4.688288E+03	9.522110E-17	4.283176E-18
4.698117E+03	9.647330E-17	4.330093E-18
4.707945E+03	9.771222E-17	4.376183E-18
4.717774E+03	9.893816E-17	4.421465E-18
4.727603E+03	1.001492E-16	4.465858E-18
4.737431E+03	1.013457E-16	4.509389E-18
4.747260E+03	1.025283E-16	4.552081E-18
4.757089E+03	1.036950E-16	4.593861E-18
4.766917E+03	1.048463E-16	4.634756E-18
4.776746E+03	1.059841E-16	4.674850E-18
4.786575E+03	1.071065E-16	4.714071E-18
4.796403E+03	1.082142E-16	4.752456E-18
4.806232E+03	1.093067E-16	4.789984E-18
4.816061E+03	1.103860E-16	4.826752E-18
4.825890E+03	1.114491E-16	4.862631E-18
4.835718E+03	1.124980E-16	4.897721E-18
4.845547E+03	1.135335E-16	4.932062E-18
4.855376E+03	1.145541E-16	4.965589E-18
4.865204E+03	1.155594E-16	4.998291E-18
4.875033E+03	1.165514E-16	5.030268E-18
4.884862E+03	1.175287E-16	5.061455E-18
4.894690E+03	1.184922E-16	5.091901E-18
4.904519E+03	1.194417E-16	5.121598E-18
4.914348E+03	1.203768E-16	5.150539E-18
4.924177E+03	1.212974E-16	5.178715E-18
4.934005E+03	1.222045E-16	5.206180E-18
4.943834E+03	1.230978E-16	5.232928E-18
4.953663E+03	1.239773E-16	5.258955E-18
4.963491E+03	1.248427E-16	5.284256E-18
4.973320E+03	1.256938E-16	5.308828E-18
4.983149E+03	1.265319E-16	5.332727E-18
4.992977E+03	1.273567E-16	5.355949E-18
5.002806E+03	1.281668E-16	5.378437E-18
5.012635E+03	1.289633E-16	5.400245E-18
5.022463E+03	1.297463E-16	5.421372E-18
5.032292E+03	1.305155E-16	5.441819E-18
5.042121E+03	1.312708E-16	5.461584E-18
5.051950E+03	1.320122E-16	5.480667E-18
5.061778E+03	1.327410E-16	5.499129E-18
5.071607E+03	1.334542E-16	5.516850E-18
5.081436E+03	1.341560E-16	5.534010E-18
5.091264E+03	1.348421E-16	5.550433E-18
5.101093E+03	1.355153E-16	5.566237E-18
5.110922E+03	1.361756E-16	5.581425E-18
5.120750E+03	1.368213E-16	5.595940E-18
5.130579E+03	1.374526E-16	5.609784E-18
5.140408E+03	1.380707E-16	5.623017E-18
5.150237E+03	1.386742E-16	5.635585E-18
5.160065E+03	1.392644E-16	5.647548E-18
5.169894E+03	1.398415E-16	5.658910E-18
5.179723E+03	1.404024E-16	5.669557E-18
5.189551E+03	1.409515E-16	5.679667E-18
5.199380E+03	1.414858E-16	5.689130E-18
5.209209E+03	1.420054E-16	5.697946E-18
5.219037E+03	1.425102E-16	5.706121E-18
5.228866E+03	1.430017E-16	5.713720E-18
5.238695E+03	1.434799E-16	5.720743E-18
5.248523E+03	1.439419E-16	5.727080E-18
5.258352E+03	1.443906E-16	5.732854E-18
5.268181E+03	1.448245E-16	5.738010E-18
5.278010E+03	1.452438E-16	5.742556E-18
5.287838E+03	1.456498E-16	5.746555E-18
5.297667E+03	1.460411E-16	5.749952E-18
5.307496E+03	1.464164E-16	5.752698E-18
5.317324E+03	1.467785E-16	5.754914E-18
5.327153E+03	1.471261E-16	5.756548E-18
5.336982E+03	1.474592E-16	5.757610E-18
5.346810E+03	1.477778E-16	5.758105E-18
5.356639E+03	1.480821E-16	5.758037E-18
5.366468E+03	1.483720E-16	5.757419E-18
5.376297E+03	1.486477E-16	5.756256E-18
5.386125E+03	1.489107E-16	5.754613E-18
5.395954E+03	1.491582E-16	5.752384E-18
5.405783E+03	1.493932E-16	5.749692E-18
5.415611E+03	1.496157E-16	5.746546E-18
5.425440E+03	1.498230E-16	5.742838E-18
5.435269E+03	1.500151E-16	5.738578E-18
5.445097E+03	1.501936E-16	5.733833E-18
5.454926E+03	1.503586E-16	5.728612E-18
5.464755E+03	1.505117E-16	5.722981E-18
5.474583E+03	1.506516E-16	5.716892E-18
5.484412E+03	1.507800E-16	5.710414E-18
5.494241E+03	1.508968E-16	5.703554E-18
5.504070E+03	1.510008E-16	5.696267E-18
5.513898E+03	1.510922E-16	5.688563E-18
5.523727E+03	1.511726E-16	5.680510E-18
5.533556E+03	1.512405E-16	5.672058E-18
5.543384E+03	1.512963E-16	5.663224E-18
5.553213E+03	1.513415E-16	5.654069E-18
5.563042E+03	1.513733E-16	5.644497E-18
5.572870E+03	1.513949E-16	5.634627E-18
5.582699E+03	1.514036E-16	5.624363E-18
5.592528E+03	1.514024E-16	5.613825E-18
5.602357E+03	1.513886E-16	5.602915E-18
5.612185E+03	1.513638E-16	5.591702E-18
5.622014E+03	1.513269E-16	5.580140E-18
5.631843E+03	1.512793E-16	5.568297E-18
5.641671E+03	1.512214E-16	5.556186E-18
5.651500E+03	1.511520E-16	5.543765E-18
5.661329E+03	1.510712E-16	5.531050E-18
5.671157E+03	1.509806E-16	5.518100E-18
5.680986E+03	1.508777E-16	5.504828E-18
5.690815E+03	1.507656E-16	5.491352E-18
5.700643E+03	1.506416E-16	5.477576E-18
5.710472E+03	1.505058E-16	5.463517E-18
5.720301E+03	1.503616E-16	5.449292E-18
5.730130E+03	1.502047E-16	5.434759E-18
5.739958E+03	1.500384E-16	5.420033E-18
5.749787E+03	1.498613E-16	5.405078E-18
5.759616E+03	1.496724E-16	5.389855E-18
5.769444E+03	1.494734E-16	5.374432E-18
5.779273E+03	1.492644E-16	5.358820E-18
5.789102E+03	1.490444E-16	5.342983E-18
5.798930E+03	1.488136E-16	5.326935E-18
5.808759E+03	1.485724E-16	5.310692E-18
5.818588E+03	1.483194E-16	5.294214E-18
5.828417E+03	1.480565E-16	5.277569E-18
5.838245E+03	1.477825E-16	5.260720E-18
5.848074E+03	1.474992E-16	5.243732E-18
5.857903E+03	1.472039E-16	5.226518E-18
5.867731E+03	1.468983E-16	5.209143E-18
5.877560E+03	1.465815E-16	5.191573E-18
5.887389E+03	1.462550E-16	5.173870E-18
5.897217E+03	1.459178E-16	5.155999E-18
5.907046E+03	1.455701E-16	5.137976E-18
5.916875E+03	1.452123E-16	5.119813E-18
5.926703E+03	1.448460E-16	5.101575E-18
5.936532E+03	1.444688E-16	5.083177E-18
5.946361E+03	1.440823E-16	5.064679E-18
5.956190E+03	1.436868E-16	5.046099E-18
5.966018E+03	1.432826E-16	5.027448E-18
5.975847E+03	1.428700E-16	5.008740E-18
5.985676E+03	1.424521E-16	4.990084E-18
5.995504E+03	1.420264E-16	4.971394E-18
6.005333E+03	1.415957E-16	4.952779E-18
6.015162E+03	1.411606E-16	4.934252E-18
6.024990E+03	1.407225E-16	4.915871E-18
6.034819E+03	1.402803E-16	4.897596E-18
6.044648E+03	1.398357E-16	4.879490E-18
6.054477E+03	1.393902E-16	4.861607E-18
6.064305E+03	1.389399E-16	4.843815E-18
6.074134E+03	1.384866E-16	4.826172E-18
6.083963E+03	1.380277E-16	4.808594E-18
6.093791E+03	1.375647E-16	4.791137E-18
6.103620E+03	1.371007E-16	4.773905E-18
6.113449E+03	1.366344E-16	4.756858E-18
6.123277E+03	1.361662E-16	4.740007E-18
6.133106E+03	1.356961E-16	4.723356E-18
6.142935E+03	1.352244E-16	4.706918E-18
6.152763E+03	1.347486E-16	4.690605E-18
6.162592E+03	1.342715E-16	4.674514E-18
6.172421E+03	1.337908E-16	4.658566E-18
6.182250E+03	1.333064E-16	4.642764E-18
6.192078E+03	1.328200E-16	4.627160E-18
6.201907E+03	1.323304E-16	4.611714E-18
6.211736E+03	1.318377E-16	4.596433E-18
6.221564E+03	1.313420E-16	4.581319E-18
6.231393E+03	1.308449E-16	4.566425E-18
6.241222E+03	1.303450E-16	4.551706E-18
6.251050E+03	1.298438E-16	4.537217E-18
6.260879E+03	1.293414E-16	4.522953E-18
6.270708E+03	1.288380E-16	4.508915E-18
6.280537E+03	1.283334E-16	4.495099E-18
6.290365E+03	1.278292E-16	4.481543E-18
6.300194E+03	1.273239E-16	4.468196E-18
6.310023E+03	1.268178E-16	4.455056E-18
6.319851E+03	1.263134E-16	4.442205E-18
6.329680E+03	1.258094E-16	4.429593E-18
6.339509E+03	1.253072E-16	4.417258E-18
6.349337E+03	1.248054E-16	4.405148E-18
6.359166E+03	1.243079E-16	4.393393E-18
6.368995E+03	1.238148E-16	4.381988E-18
6.378823E+03	1.233245E-16	4.370876E-18
6.388652E+03	1.228410E-16	4.360188E-18
6.398481E+03	1.223605E-16	4.349784E-18
6.408310E+03	1.218854E-16	4.339742E-18
6.418138E+03	1.214130E-16	4.329966E-18
6.427967E+03	1.209459E-16	4.320538E-18
6.437796E+03	1.204827E-16	4.311406E-18
6.447624E+03	1.200260E-16	4.302653E-18
6.457453E+03	1.195730E-16	4.294179E-18
6.467282E+03	1.191276E-16	4.286113E-18
6.477110E+03	1.186883E-16	4.278402E-18
6.486939E+03	1.182550E-16	4.271037E-18
6.496768E+03	1.178303E-16	4.264103E-18
6.506597E+03	1.174126E-16	4.257545E-18
6.516425E+03	1.170031E-16	4.251401E-18
6.526254E+03	1.166019E-16	4.245666E-18
6.536083E+03	1.162100E-16	4.240378E-18
6.545911E+03	1.158273E-16	4.235527E-18
6.555740E+03	1.154537E-16	4.231109E-18
6.565569E+03	1.150904E-16	4.227165E-18
6.575397E+03	1.147359E-16	4.223639E-18
6.585226E+03	1.143903E-16	4.220525E-18
6.595055E+03	1.140558E-16	4.217911E-18
6.604883E+03	1.137311E-16	4.215744E-18
6.614712E+03	1.134162E-16	4.214019E-18
6.624541E+03	1.131109E-16	4.212727E-18
6.634370E+03	1.128164E-16	4.211915E-18
6.644198E+03	1.125326E-16	4.211575E-18
6.654027E+03	1.122581E-16	4.211655E-18
6.663856E+03	1.119941E-16	4.212200E-18
6.673684E+03	1.117392E-16	4.213153E-18
6.683513E+03	1.114960E-16	4.214610E-18
6.693342E+03	1.112630E-16	4.216518E-18
6.703170E+03	1.110388E-16	4.218823E-18
6.712999E+03	1.108260E-16	4.221619E-18
6.722828E+03	1.106232E-16	4.224856E-18
6.732657E+03	1.104303E-16	4.228527E-18
6.742485E+03	1.102472E-16	4.232630E-18
6.752314E+03	1.100739E-16	4.237165E-18
6.762143E+03	1.099103E-16	4.242124E-18
6.771971E+03	1.097576E-16	4.247558E-18
6.781800E+03	1.096144E-16	4.253414E-18
6.791629E+03	1.094807E-16	4.259688E-18
6.801457E+03	1.093565E-16	4.266381E-18
6.811286E+03	1.092416E-16	4.273485E-18
6.821115E+03	1.091360E-16	4.281004E-18
6.830943E+03	1.090396E-16	4.288933E-18
6.840772E+03	1.089525E-16	4.297270E-18
6.850601E+03	1.088744E-16	4.306012E-18
6.860430E+03	1.088067E-16	4.315213E-18
6.870258E+03	1.087455E-16	4.324716E-18
6.880087E+03	1.086945E-16	4.334670E-18
6.889916E+03	1.086511E-16	4.344972E-18
6.899744E+03	1.086166E-16	4.355675E-18
6.909573E+03	1.085909E-16	4.366775E-18
6.919402E+03	1.085727E-16	4.378220E-18
6.929230E+03	1.085620E-16	4.390009E-18
6.939059E+03	1.085585E-16	4.402136E-18
6.948888E+03	1.085624E-16	4.414605E-18
6.958717E+03	1.085735E-16	4.427410E-18
6.968545E+03	1.085919E-16	4.440553E-18
6.978374E+03	1.086175E-16	4.454033E-18
6.988203E+03	1.086475E-16	4.467735E-18
6.998031E+03	1.086859E-16	4.481825E-18
7.007860E+03	1.087288E-16	4.496139E-18
7.017689E+03	1.087773E-16	4.510724E-18
7.027517E+03	1.088300E-16	4.525526E-18
7.037346E+03	1.088897E-16	4.540656E-18
7.047175E+03	1.089522E-16	4.555942E-18
7.057003E+03	1.090188E-16	4.571440E-18
7.066832E+03	1.090909E-16	4.587201E-18
7.076661E+03	1.091643E-16	4.603056E-18
7.086490E+03	1.092429E-16	4.619171E-18
7.096318E+03	1.093228E-16	4.635371E-18
7.106147E+03	1.094052E-16	4.651711E-18
7.115976E+03	1.094887E-16	4.668134E-18
7.125804E+03	1.095746E-16	4.684688E-18
7.135633E+03	1.096601E-16	4.701258E-18
7.145462E+03	1.097479E-16	4.717953E-18
7.155290E+03	1.098338E-16	4.734597E-18
7.165119E+03	1.099204E-16	4.751302E-18
7.174948E+03	1.100065E-16	4.768008E-18
7.184777E+03	1.100919E-16	4.784705E-18
7.194605E+03	1.101737E-16	4.801271E-18
7.204434E+03	1.102546E-16	4.817821E-18
7.214263E+03	1.103332E-16	4.834288E-18
7.224091E+03	1.104096E-16	4.850672E-18
7.233920E+03	1.104821E-16	4.866903E-18
7.243749E+03	1.105506E-16	4.882975E-18
7.253577E+03	1.106167E-16	4.898945E-18
7.263406E+03	1.106786E-16	4.914746E-18
7.273235E+03	1.107365E-16	4.930371E-18
7.283063E+03	1.107901E-16	4.945816E-18
7.292892E+03	1.108396E-16	4.961076E-18
7.302721E+03	1.108846E-16	4.976141E-18
7.312550E+03	1.109253E-16	4.991008E-18
7.322378E+03	1.109615E-16	5.005674E-18
7.332207E+03	1.109932E-16	5.020131E-18
7.342036E+03	1.110203E-16	5.034369E-18
7.351864E+03	1.110427E-16	5.048392E-18
7.361693E+03	1.110605E-16	5.062189E-18
7.371522E+03	1.110734E-16	5.075753E-18
7.381350E+03	1.110801E-16	5.089020E-18
7.391179E+03	1.110833E-16	5.102110E-18
7.401008E+03	1.110802E-16	5.114891E-18
7.410837E+03	1.110735E-16	5.127486E-18
7.420665E+03	1.110618E-16	5.139828E-18
7.430494E+03	1.110450E-16	5.151910E-18
7.440323E+03	1.110246E-16	5.163796E-18
7.450151E+03	1.109990E-16	5.175415E-18
7.459980E+03	1.109696E-16	5.186828E-18
7.469809E+03	1.109366E-16	5.198037E-18
7.479637E+03	1.108997E-16	5.209037E-18
7.489466E+03	1.108591E-16	5.219824E-18
7.499295E+03	1.108146E-16	5.230397E-18
7.509123E+03	1.107678E-16	5.240819E-18
7.518952E+03	1.107171E-16	5.251023E-18
7.528781E+03	1.106641E-16	5.261076E-18
7.538610E+03	1.106072E-16	5.270906E-18
7.548438E+03	1.105495E-16	5.280654E-18
7.558267E+03	1.104880E-16	5.290176E-18
7.568096E+03	1.104241E-16	5.299546E-18
7.577924E+03	1.103594E-16	5.308827E-18
7.587753E+03	1.102911E-16	5.317888E-18
7.597582E+03	1.102219E-16	5.326863E-18
7.607410E+03	1.101505E-16	5.335684E-18
7.617239E+03	1.100770E-16	5.344355E-18
7.627068E+03	1.100014E-16	5.352874E-18
