#wls	flux	fluxerr
1.572591E+03	1.096409E-18	5.799455E-20
1.611906E+03	1.102835E-18	5.832279E-20
1.651221E+03	1.103768E-18	5.836011E-20
1.690536E+03	1.098896E-18	5.809020E-20
1.729850E+03	1.088382E-18	5.752188E-20
1.769165E+03	1.070992E-18	5.659008E-20
1.808480E+03	1.045342E-18	5.522202E-20
1.847795E+03	1.010004E-18	5.334259E-20
1.887110E+03	9.642486E-19	5.091366E-20
1.926424E+03	9.076555E-19	4.791347E-20
1.965739E+03	8.427515E-19	4.447586E-20
2.005054E+03	7.747995E-19	4.087890E-20
2.044369E+03	7.134103E-19	3.762975E-20
2.083683E+03	6.690375E-19	3.527940E-20
2.122998E+03	6.505584E-19	3.429514E-20
2.162313E+03	6.613452E-19	3.485352E-20
2.201628E+03	6.992931E-19	3.684228E-20
2.240943E+03	7.586130E-19	3.995516E-20
2.280257E+03	8.316906E-19	4.379012E-20
2.319572E+03	9.117102E-19	4.798764E-20
2.358887E+03	9.940336E-19	5.230319E-20
2.398202E+03	1.075746E-18	5.658322E-20
2.437517E+03	1.155320E-18	6.074729E-20
2.476831E+03	1.232835E-18	6.479969E-20
2.516146E+03	1.308832E-18	6.876871E-20
2.555461E+03	1.383727E-18	7.267623E-20
2.594776E+03	1.458696E-18	7.658395E-20
2.634090E+03	1.534517E-18	8.053255E-20
2.673405E+03	1.612418E-18	8.458634E-20
2.712720E+03	1.693139E-18	8.878373E-20
2.752035E+03	1.777874E-18	9.318710E-20
2.791350E+03	1.867566E-18	9.784541E-20
2.830664E+03	1.963416E-18	1.028210E-19
2.869979E+03	2.066647E-18	1.081774E-19
2.909294E+03	2.178244E-18	1.139653E-19
2.948609E+03	2.299497E-18	1.202515E-19
2.958437E+03	2.331570E-18	1.219139E-19
2.968266E+03	2.364200E-18	1.236049E-19
2.978095E+03	2.397687E-18	1.253402E-19
2.987923E+03	2.432093E-18	1.271231E-19
2.997752E+03	2.467602E-18	1.289631E-19
3.007581E+03	2.504115E-18	1.308549E-19
3.017410E+03	2.541894E-18	1.328124E-19
3.027238E+03	2.580914E-18	1.348341E-19
3.037067E+03	2.621172E-18	1.369199E-19
3.046896E+03	2.662660E-18	1.390692E-19
3.056724E+03	2.705476E-18	1.412873E-19
3.066553E+03	2.749594E-18	1.435727E-19
3.076382E+03	2.794986E-18	1.459239E-19
3.086210E+03	2.841939E-18	1.483559E-19
3.096039E+03	2.890131E-18	1.508518E-19
3.105868E+03	2.939544E-18	1.534107E-19
3.115697E+03	2.990166E-18	1.560318E-19
3.125525E+03	3.042301E-18	1.587311E-19
3.135354E+03	3.095629E-18	1.614918E-19
3.145183E+03	3.150464E-18	1.643303E-19
3.155011E+03	3.206486E-18	1.672297E-19
3.164840E+03	3.264341E-18	1.702238E-19
3.174669E+03	3.323389E-18	1.732792E-19
3.184497E+03	3.383961E-18	1.764131E-19
3.194326E+03	3.445734E-18	1.796086E-19
3.204155E+03	3.509383E-18	1.829008E-19
3.213983E+03	3.574589E-18	1.862731E-19
3.223812E+03	3.641369E-18	1.897263E-19
3.233641E+03	3.710077E-18	1.932789E-19
3.243470E+03	3.780059E-18	1.968966E-19
3.253298E+03	3.852008E-18	2.006157E-19
3.263127E+03	3.925959E-18	2.044378E-19
3.272956E+03	4.001589E-18	2.083460E-19
3.282784E+03	4.079274E-18	2.123600E-19
3.292613E+03	4.159041E-18	2.164809E-19
3.302442E+03	4.240928E-18	2.207109E-19
3.312270E+03	4.324966E-18	2.250513E-19
3.322099E+03	4.410832E-18	2.294855E-19
3.331928E+03	4.499280E-18	2.340524E-19
3.341757E+03	4.590353E-18	2.387543E-19
3.351585E+03	4.683729E-18	2.435745E-19
3.361414E+03	4.779454E-18	2.485151E-19
3.371243E+03	4.877932E-18	2.535972E-19
3.381071E+03	4.979219E-18	2.588235E-19
3.390900E+03	5.082992E-18	2.641772E-19
3.400729E+03	5.190039E-18	2.696993E-19
3.410557E+03	5.299677E-18	2.753541E-19
3.420386E+03	5.412703E-18	2.811828E-19
3.430215E+03	5.529188E-18	2.871893E-19
3.440043E+03	5.648804E-18	2.933562E-19
3.449872E+03	5.771615E-18	2.996869E-19
3.459701E+03	5.898456E-18	3.062246E-19
3.469530E+03	6.028625E-18	3.129327E-19
3.479358E+03	6.162567E-18	3.198342E-19
3.489187E+03	6.300364E-18	3.269334E-19
3.499016E+03	6.442482E-18	3.342542E-19
3.508844E+03	6.588603E-18	3.417800E-19
3.518673E+03	6.739203E-18	3.495354E-19
3.528502E+03	6.894371E-18	3.575250E-19
3.538330E+03	7.053778E-18	3.657314E-19
3.548159E+03	7.218333E-18	3.742017E-19
3.557988E+03	7.387299E-18	3.828975E-19
3.567817E+03	7.561596E-18	3.918665E-19
3.577645E+03	7.741325E-18	4.011136E-19
3.587474E+03	7.926161E-18	4.106219E-19
3.597303E+03	8.116630E-18	4.204185E-19
3.607131E+03	8.312831E-18	4.305082E-19
3.616960E+03	8.514881E-18	4.408971E-19
3.626789E+03	8.722880E-18	4.515901E-19
3.636617E+03	8.937377E-18	4.626155E-19
3.646446E+03	9.158059E-18	4.739567E-19
3.656275E+03	9.385481E-18	4.856425E-19
3.666103E+03	9.619320E-18	4.976559E-19
3.675932E+03	9.860591E-18	5.100491E-19
3.685761E+03	1.010854E-17	5.227827E-19
3.695590E+03	1.036418E-17	5.359094E-19
3.705418E+03	1.062766E-17	5.494365E-19
3.715247E+03	1.089867E-17	5.633476E-19
3.725076E+03	1.117735E-17	5.776494E-19
3.734904E+03	1.146429E-17	5.923729E-19
3.744733E+03	1.175966E-17	6.075257E-19
3.754562E+03	1.206407E-17	6.231398E-19
3.764390E+03	1.237674E-17	6.391744E-19
3.774219E+03	1.269829E-17	6.556614E-19
3.784048E+03	1.302937E-17	6.726337E-19
3.793877E+03	1.336966E-17	6.900747E-19
3.803705E+03	1.371932E-17	7.079925E-19
3.813534E+03	1.407902E-17	7.264208E-19
3.823363E+03	1.444892E-17	7.453682E-19
3.833191E+03	1.482871E-17	7.648180E-19
3.843020E+03	1.521856E-17	7.847789E-19
3.852849E+03	1.561964E-17	8.053110E-19
3.862677E+03	1.603115E-17	8.263719E-19
3.872506E+03	1.645324E-17	8.479700E-19
3.882335E+03	1.688662E-17	8.701410E-19
3.892163E+03	1.733147E-17	8.928937E-19
3.901992E+03	1.778746E-17	9.162112E-19
3.911821E+03	1.825529E-17	9.401288E-19
3.921650E+03	1.873464E-17	9.646292E-19
3.931478E+03	1.922567E-17	9.897212E-19
3.941307E+03	1.972910E-17	1.015441E-18
3.951136E+03	2.024407E-17	1.041744E-18
3.960964E+03	2.077126E-17	1.068665E-18
3.970793E+03	2.131032E-17	1.096185E-18
3.980622E+03	2.186198E-17	1.124342E-18
3.990450E+03	2.242586E-17	1.153115E-18
4.000279E+03	2.300157E-17	1.182484E-18
4.010108E+03	2.358985E-17	1.212487E-18
4.019937E+03	2.419084E-17	1.243130E-18
4.029765E+03	2.480358E-17	1.274364E-18
4.039594E+03	2.542821E-17	1.306196E-18
4.049423E+03	2.606487E-17	1.338632E-18
4.059251E+03	2.671371E-17	1.371679E-18
4.069080E+03	2.737426E-17	1.405313E-18
4.078909E+03	2.804666E-17	1.439541E-18
4.088737E+03	2.873042E-17	1.474337E-18
4.098566E+03	2.942505E-17	1.509676E-18
4.108395E+03	3.013064E-17	1.545561E-18
4.118223E+03	3.084665E-17	1.581965E-18
4.128052E+03	3.157316E-17	1.618892E-18
4.137881E+03	3.230962E-17	1.656313E-18
4.147710E+03	3.305544E-17	1.694197E-18
4.157538E+03	3.381066E-17	1.732547E-18
4.167367E+03	3.457468E-17	1.771329E-18
4.177196E+03	3.534685E-17	1.810513E-18
4.187024E+03	3.612653E-17	1.850063E-18
4.196853E+03	3.691370E-17	1.889979E-18
4.206682E+03	3.770765E-17	1.930225E-18
4.216510E+03	3.850769E-17	1.970765E-18
4.226339E+03	3.931374E-17	2.011594E-18
4.236168E+03	4.012440E-17	2.052640E-18
4.245997E+03	4.094021E-17	2.093931E-18
4.255825E+03	4.175906E-17	2.135359E-18
4.265654E+03	4.258215E-17	2.176985E-18
4.275483E+03	4.340868E-17	2.218768E-18
4.285311E+03	4.423779E-17	2.260664E-18
4.295140E+03	4.506934E-17	2.302666E-18
4.304969E+03	4.590317E-17	2.344765E-18
4.314797E+03	4.673979E-17	2.386987E-18
4.324626E+03	4.757971E-17	2.429359E-18
4.334455E+03	4.842213E-17	2.471838E-18
4.344283E+03	4.926968E-17	2.514560E-18
4.354112E+03	5.012233E-17	2.557523E-18
4.363941E+03	5.098206E-17	2.600827E-18
4.373770E+03	5.184881E-17	2.644469E-18
4.383598E+03	5.272254E-17	2.688447E-18
4.393427E+03	5.360080E-17	2.732635E-18
4.403256E+03	5.448353E-17	2.777031E-18
4.413084E+03	5.536750E-17	2.821470E-18
4.422913E+03	5.625176E-17	2.865903E-18
4.432742E+03	5.713452E-17	2.910239E-18
4.442570E+03	5.801472E-17	2.954424E-18
4.452399E+03	5.889136E-17	2.998407E-18
4.462228E+03	5.976404E-17	3.042168E-18
4.472057E+03	6.063015E-17	3.085575E-18
4.481885E+03	6.149086E-17	3.128687E-18
4.491714E+03	6.234428E-17	3.171407E-18
4.501543E+03	6.319084E-17	3.213760E-18
4.511371E+03	6.402937E-17	3.255684E-18
4.521200E+03	6.485869E-17	3.297120E-18
4.531029E+03	6.568083E-17	3.338172E-18
4.540857E+03	6.649306E-17	3.378702E-18
4.550686E+03	6.729572E-17	3.418726E-18
4.560515E+03	6.809015E-17	3.458314E-18
4.570343E+03	6.887345E-17	3.497318E-18
4.580172E+03	6.964775E-17	3.535848E-18
4.590001E+03	7.041187E-17	3.573843E-18
4.599830E+03	7.116542E-17	3.611284E-18
4.609658E+03	7.190979E-17	3.648241E-18
4.619487E+03	7.264285E-17	3.684608E-18
4.629316E+03	7.336605E-17	3.720458E-18
4.639144E+03	7.407895E-17	3.755770E-18
4.648973E+03	7.478125E-17	3.790528E-18
4.658802E+03	7.547437E-17	3.824805E-18
4.668630E+03	7.615711E-17	3.858541E-18
4.678459E+03	7.683010E-17	3.891767E-18
4.688288E+03	7.749294E-17	3.924464E-18
4.698117E+03	7.814720E-17	3.956712E-18
4.707945E+03	7.879166E-17	3.988450E-18
4.717774E+03	7.942693E-17	4.019708E-18
4.727603E+03	8.005279E-17	4.050476E-18
4.737431E+03	8.066806E-17	4.080695E-18
4.747260E+03	8.127432E-17	4.110445E-18
4.757089E+03	8.187040E-17	4.139667E-18
4.766917E+03	8.245616E-17	4.168354E-18
4.776746E+03	8.303224E-17	4.196540E-18
4.786575E+03	8.359752E-17	4.224169E-18
4.796403E+03	8.415364E-17	4.251323E-18
4.806232E+03	8.469855E-17	4.277899E-18
4.816061E+03	8.523397E-17	4.303985E-18
4.825890E+03	8.575968E-17	4.329569E-18
4.835718E+03	8.627550E-17	4.354645E-18
4.845547E+03	8.678229E-17	4.379254E-18
4.855376E+03	8.727794E-17	4.403291E-18
4.865204E+03	8.776510E-17	4.426890E-18
4.875033E+03	8.824280E-17	4.450003E-18
4.884862E+03	8.871084E-17	4.472620E-18
4.894690E+03	8.917007E-17	4.494784E-18
4.904519E+03	8.961944E-17	4.516442E-18
4.914348E+03	9.005973E-17	4.537634E-18
4.924177E+03	9.049183E-17	4.558406E-18
4.934005E+03	9.091371E-17	4.578655E-18
4.943834E+03	9.132718E-17	4.598473E-18
4.953663E+03	9.173126E-17	4.617811E-18
4.963491E+03	9.212675E-17	4.636710E-18
4.973320E+03	9.251366E-17	4.655170E-18
4.983149E+03	9.289182E-17	4.673184E-18
4.992977E+03	9.326026E-17	4.690703E-18
5.002806E+03	9.362081E-17	4.707818E-18
5.012635E+03	9.397250E-17	4.724483E-18
5.022463E+03	9.431518E-17	4.740690E-18
5.032292E+03	9.464890E-17	4.756441E-18
5.042121E+03	9.497453E-17	4.771780E-18
5.051950E+03	9.529111E-17	4.786660E-18
5.061778E+03	9.559950E-17	4.801125E-18
5.071607E+03	9.589875E-17	4.815127E-18
5.081436E+03	9.619081E-17	4.828764E-18
5.091264E+03	9.647260E-17	4.841882E-18
5.101093E+03	9.674717E-17	4.854634E-18
5.110922E+03	9.701346E-17	4.866968E-18
5.120750E+03	9.727049E-17	4.878835E-18
5.130579E+03	9.752020E-17	4.890332E-18
5.140408E+03	9.776166E-17	4.901414E-18
5.150237E+03	9.799479E-17	4.912076E-18
5.160065E+03	9.821966E-17	4.922322E-18
5.169894E+03	9.843728E-17	4.932204E-18
5.179723E+03	9.864662E-17	4.941670E-18
5.189551E+03	9.884766E-17	4.950719E-18
5.199380E+03	9.904152E-17	4.959408E-18
5.209209E+03	9.922812E-17	4.967733E-18
5.219037E+03	9.940658E-17	4.975652E-18
5.228866E+03	9.957784E-17	4.983209E-18
5.238695E+03	9.974203E-17	4.990413E-18
5.248523E+03	9.989907E-17	4.997261E-18
5.258352E+03	1.000491E-16	5.003758E-18
5.268181E+03	1.001911E-16	5.009857E-18
5.278010E+03	1.003271E-16	5.015656E-18
5.287838E+03	1.004552E-16	5.021062E-18
5.297667E+03	1.005775E-16	5.026177E-18
5.307496E+03	1.006929E-16	5.030955E-18
5.317324E+03	1.008016E-16	5.035396E-18
5.327153E+03	1.009035E-16	5.039503E-18
5.336982E+03	1.009998E-16	5.043334E-18
5.346810E+03	1.010885E-16	5.046788E-18
5.356639E+03	1.011717E-16	5.049969E-18
5.366468E+03	1.012474E-16	5.052781E-18
5.376297E+03	1.013177E-16	5.055328E-18
5.386125E+03	1.013817E-16	5.057564E-18
5.395954E+03	1.014385E-16	5.059443E-18
5.405783E+03	1.014901E-16	5.061069E-18
5.415611E+03	1.015335E-16	5.062295E-18
5.425440E+03	1.015710E-16	5.063227E-18
5.435269E+03	1.016025E-16	5.063866E-18
5.445097E+03	1.016282E-16	5.064222E-18
5.454926E+03	1.016470E-16	5.064244E-18
5.464755E+03	1.016602E-16	5.063988E-18
5.474583E+03	1.016678E-16	5.063463E-18
5.484412E+03	1.016699E-16	5.062668E-18
5.494241E+03	1.016665E-16	5.061609E-18
5.504070E+03	1.016578E-16	5.060294E-18
5.513898E+03	1.016439E-16	5.058726E-18
5.523727E+03	1.016239E-16	5.056859E-18
5.533556E+03	1.015988E-16	5.054749E-18
5.543384E+03	1.015678E-16	5.052351E-18
5.553213E+03	1.015329E-16	5.049771E-18
5.563042E+03	1.014913E-16	5.046862E-18
5.572870E+03	1.014450E-16	5.043732E-18
5.582699E+03	1.013932E-16	5.040334E-18
5.592528E+03	1.013359E-16	5.036678E-18
5.602357E+03	1.012733E-16	5.032763E-18
5.612185E+03	1.012055E-16	5.028600E-18
5.622014E+03	1.011316E-16	5.024142E-18
5.631843E+03	1.010536E-16	5.019493E-18
5.641671E+03	1.009688E-16	5.014515E-18
5.651500E+03	1.008792E-16	5.009309E-18
5.661329E+03	1.007849E-16	5.003880E-18
5.671157E+03	1.006841E-16	4.998137E-18
5.680986E+03	1.005778E-16	4.992135E-18
5.690815E+03	1.004661E-16	4.985881E-18
5.700643E+03	1.003493E-16	4.979378E-18
5.710472E+03	1.002264E-16	4.972585E-18
5.720301E+03	1.000975E-16	4.965510E-18
5.730130E+03	9.996377E-17	4.958205E-18
5.739958E+03	9.982428E-17	4.950628E-18
5.749787E+03	9.967823E-17	4.942737E-18
5.759616E+03	9.952766E-17	4.934635E-18
5.769444E+03	9.937074E-17	4.926231E-18
5.779273E+03	9.920854E-17	4.917579E-18
5.789102E+03	9.904028E-17	4.908640E-18
5.798930E+03	9.886606E-17	4.899418E-18
5.808759E+03	9.868689E-17	4.889966E-18
5.818588E+03	9.850205E-17	4.880245E-18
5.828417E+03	9.831054E-17	4.870209E-18
5.838245E+03	9.811454E-17	4.859965E-18
5.848074E+03	9.791221E-17	4.849421E-18
5.857903E+03	9.770555E-17	4.838678E-18
5.867731E+03	9.749279E-17	4.827647E-18
5.877560E+03	9.727500E-17	4.816382E-18
5.887389E+03	9.705230E-17	4.804889E-18
5.897217E+03	9.682383E-17	4.793126E-18
5.907046E+03	9.659067E-17	4.781146E-18
5.916875E+03	9.635386E-17	4.769000E-18
5.926703E+03	9.611160E-17	4.756601E-18
5.936532E+03	9.586500E-17	4.744002E-18
5.946361E+03	9.561509E-17	4.731256E-18
5.956190E+03	9.536095E-17	4.718316E-18
5.966018E+03	9.510373E-17	4.705239E-18
5.975847E+03	9.484343E-17	4.692027E-18
5.985676E+03	9.458024E-17	4.678688E-18
5.995504E+03	9.431508E-17	4.665267E-18
6.005333E+03	9.404713E-17	4.651726E-18
6.015162E+03	9.377741E-17	4.638113E-18
6.024990E+03	9.350514E-17	4.624391E-18
6.034819E+03	9.323029E-17	4.610557E-18
6.044648E+03	9.295389E-17	4.596664E-18
6.054477E+03	9.267421E-17	4.582625E-18
6.064305E+03	9.238948E-17	4.568354E-18
6.074134E+03	9.210158E-17	4.553943E-18
6.083963E+03	9.180881E-17	4.539308E-18
6.093791E+03	9.151398E-17	4.524589E-18
6.103620E+03	9.121714E-17	4.509787E-18
6.113449E+03	9.091831E-17	4.494903E-18
6.123277E+03	9.061853E-17	4.479991E-18
6.133106E+03	9.031783E-17	4.465049E-18
6.142935E+03	9.001531E-17	4.450035E-18
6.152763E+03	8.971110E-17	4.434955E-18
6.162592E+03	8.940609E-17	4.419853E-18
6.172421E+03	8.909946E-17	4.404688E-18
6.182250E+03	8.879127E-17	4.389463E-18
6.192078E+03	8.848057E-17	4.374131E-18
6.201907E+03	8.816754E-17	4.358701E-18
6.211736E+03	8.785301E-17	4.343215E-18
6.221564E+03	8.753616E-17	4.327631E-18
6.231393E+03	8.721793E-17	4.311997E-18
6.241222E+03	8.689660E-17	4.296226E-18
6.251050E+03	8.657395E-17	4.280408E-18
6.260879E+03	8.624916E-17	4.264501E-18
6.270708E+03	8.592311E-17	4.248548E-18
6.280537E+03	8.559496E-17	4.232507E-18
6.290365E+03	8.526561E-17	4.216423E-18
6.300194E+03	8.493512E-17	4.200298E-18
6.310023E+03	8.460349E-17	4.184132E-18
6.319851E+03	8.427168E-17	4.167971E-18
6.329680E+03	8.393963E-17	4.151813E-18
6.339509E+03	8.360830E-17	4.135704E-18
6.349337E+03	8.327765E-17	4.119642E-18
6.359166E+03	8.294953E-17	4.103718E-18
6.368995E+03	8.262385E-17	4.087928E-18
6.378823E+03	8.230157E-17	4.072318E-18
6.388652E+03	8.198441E-17	4.056974E-18
6.398481E+03	8.167056E-17	4.041806E-18
6.408310E+03	8.136017E-17	4.026819E-18
6.418138E+03	8.105226E-17	4.011967E-18
6.427967E+03	8.074770E-17	3.997291E-18
6.437796E+03	8.044402E-17	3.982669E-18
6.447624E+03	8.014279E-17	3.968179E-18
6.457453E+03	7.984244E-17	3.953742E-18
6.467282E+03	7.954377E-17	3.939398E-18
6.477110E+03	7.924594E-17	3.925105E-18
6.486939E+03	7.894979E-17	3.910904E-18
6.496768E+03	7.865534E-17	3.896795E-18
6.506597E+03	7.836174E-17	3.882737E-18
6.516425E+03	7.806984E-17	3.868772E-18
6.526254E+03	7.777880E-17	3.854856E-18
6.536083E+03	7.748948E-17	3.841033E-18
6.545911E+03	7.720274E-17	3.827345E-18
6.555740E+03	7.691681E-17	3.813705E-18
6.565569E+03	7.663342E-17	3.800197E-18
6.575397E+03	7.635171E-17	3.786778E-18
6.585226E+03	7.607169E-17	3.773450E-18
6.595055E+03	7.579416E-17	3.760251E-18
6.604883E+03	7.551920E-17	3.747185E-18
6.614712E+03	7.524582E-17	3.734203E-18
6.624541E+03	7.497577E-17	3.721392E-18
6.634370E+03	7.470819E-17	3.708707E-18
6.644198E+03	7.444215E-17	3.696105E-18
6.654027E+03	7.417946E-17	3.683673E-18
6.663856E+03	7.391994E-17	3.671403E-18
6.673684E+03	7.366287E-17	3.659258E-18
6.683513E+03	7.340898E-17	3.647276E-18
6.693342E+03	7.315743E-17	3.635414E-18
6.703170E+03	7.290902E-17	3.623711E-18
6.712999E+03	7.266377E-17	3.612169E-18
6.722828E+03	7.242163E-17	3.600785E-18
6.732657E+03	7.218260E-17	3.589559E-18
6.742485E+03	7.194664E-17	3.578488E-18
6.752314E+03	7.171456E-17	3.567613E-18
6.762143E+03	7.148462E-17	3.556847E-18
6.771971E+03	7.125853E-17	3.546275E-18
6.781800E+03	7.103630E-17	3.535897E-18
6.791629E+03	7.081616E-17	3.525627E-18
6.801457E+03	7.059972E-17	3.515542E-18
6.811286E+03	7.038710E-17	3.505649E-18
6.821115E+03	7.017812E-17	3.495940E-18
6.830943E+03	6.997205E-17	3.486377E-18
6.840772E+03	6.976875E-17	3.476954E-18
6.850601E+03	6.956996E-17	3.467758E-18
6.860430E+03	6.937396E-17	3.458702E-18
6.870258E+03	6.918154E-17	3.449825E-18
6.880087E+03	6.899264E-17	3.441126E-18
6.889916E+03	6.880649E-17	3.432565E-18
6.899744E+03	6.862472E-17	3.424223E-18
6.909573E+03	6.844637E-17	3.416053E-18
6.919402E+03	6.827068E-17	3.408017E-18
6.929230E+03	6.809933E-17	3.400198E-18
6.939059E+03	6.793137E-17	3.392550E-18
6.948888E+03	6.776681E-17	3.385071E-18
6.958717E+03	6.760566E-17	3.377764E-18
6.968545E+03	6.744786E-17	3.370625E-18
6.978374E+03	6.729343E-17	3.363655E-18
6.988203E+03	6.714315E-17	3.356892E-18
6.998031E+03	6.699618E-17	3.350296E-18
7.007860E+03	6.685249E-17	3.343864E-18
7.017689E+03	6.671291E-17	3.337638E-18
7.027517E+03	6.657661E-17	3.331576E-18
7.037346E+03	6.644440E-17	3.325719E-18
7.047175E+03	6.631536E-17	3.320021E-18
7.057003E+03	6.619042E-17	3.314529E-18
7.066832E+03	6.606861E-17	3.309193E-18
7.076661E+03	6.595086E-17	3.304061E-18
7.086490E+03	6.583711E-17	3.299130E-18
7.096318E+03	6.572737E-17	3.294399E-18
7.106147E+03	6.562166E-17	3.289871E-18
7.115976E+03	6.551986E-17	3.285538E-18
7.125804E+03	6.542201E-17	3.281404E-18
7.135633E+03	6.532813E-17	3.277469E-18
7.145462E+03	6.523820E-17	3.273732E-18
7.155290E+03	6.515304E-17	3.270235E-18
7.165119E+03	6.507096E-17	3.266893E-18
7.174948E+03	6.499366E-17	3.263790E-18
7.184777E+03	6.492112E-17	3.260927E-18
7.194605E+03	6.485250E-17	3.258260E-18
7.204434E+03	6.478777E-17	3.255790E-18
7.214263E+03	6.472695E-17	3.253515E-18
7.224091E+03	6.467087E-17	3.251480E-18
7.233920E+03	6.461869E-17	3.249640E-18
7.243749E+03	6.457040E-17	3.247996E-18
7.253577E+03	6.452600E-17	3.246549E-18
7.263406E+03	6.448635E-17	3.245340E-18
7.273235E+03	6.444972E-17	3.244284E-18
7.283063E+03	6.441698E-17	3.243424E-18
7.292892E+03	6.438813E-17	3.242760E-18
7.302721E+03	6.436317E-17	3.242292E-18
7.312550E+03	6.434123E-17	3.241977E-18
7.322378E+03	6.432233E-17	3.241815E-18
7.332207E+03	6.430818E-17	3.241893E-18
7.342036E+03	6.429620E-17	3.242080E-18
7.351864E+03	6.428899E-17	3.242509E-18
7.361693E+03	6.428481E-17	3.243091E-18
7.371522E+03	6.428367E-17	3.243827E-18
7.381350E+03	6.428646E-17	3.244761E-18
7.391179E+03	6.429229E-17	3.245850E-18
7.401008E+03	6.430205E-17	3.247137E-18
7.410837E+03	6.431488E-17	3.248580E-18
7.420665E+03	6.433078E-17	3.250179E-18
7.430494E+03	6.434975E-17	3.251933E-18
7.440323E+03	6.437180E-17	3.253844E-18
7.450151E+03	6.439694E-17	3.255911E-18
7.459980E+03	6.442518E-17	3.258135E-18
7.469809E+03	6.445651E-17	3.260517E-18
7.479637E+03	6.449009E-17	3.263013E-18
7.489466E+03	6.452678E-17	3.265667E-18
7.499295E+03	6.456571E-17	3.268436E-18
7.509123E+03	6.460690E-17	3.271319E-18
7.518952E+03	6.465123E-17	3.274362E-18
7.528781E+03	6.469783E-17	3.277520E-18
7.538610E+03	6.474670E-17	3.280795E-18
7.548438E+03	6.479875E-17	3.284231E-18
7.558267E+03	6.485220E-17	3.287739E-18
7.568096E+03	6.490884E-17	3.291410E-18
7.577924E+03	6.496690E-17	3.295153E-18
7.587753E+03	6.502818E-17	3.299059E-18
7.597582E+03	6.509179E-17	3.303086E-18
7.607410E+03	6.515773E-17	3.307231E-18
7.617239E+03	6.522603E-17	3.311497E-18
7.627068E+03	6.529669E-17	3.315884E-18
