#wls	flux	fluxerr
1.572591E+03	1.158090E-18	4.302296E-20
1.611906E+03	1.162822E-18	4.317216E-20
1.651221E+03	1.161729E-18	4.310424E-20
1.690536E+03	1.154515E-18	4.280864E-20
1.729850E+03	1.141388E-18	4.229352E-20
1.769165E+03	1.121092E-18	4.151276E-20
1.808480E+03	1.092224E-18	4.041508E-20
1.847795E+03	1.053345E-18	3.894800E-20
1.887110E+03	1.003759E-18	3.708664E-20
1.926424E+03	9.430895E-19	3.481811E-20
1.965739E+03	8.740242E-19	3.224263E-20
2.005054E+03	8.020596E-19	2.956370E-20
2.044369E+03	7.371466E-19	2.714820E-20
2.083683E+03	6.900280E-19	2.539094E-20
2.122998E+03	6.696242E-19	2.461828E-20
2.162313E+03	6.795006E-19	2.495860E-20
2.201628E+03	7.172111E-19	2.631905E-20
2.240943E+03	7.766866E-19	2.847416E-20
2.280257E+03	8.498864E-19	3.112693E-20
2.319572E+03	9.300823E-19	3.402949E-20
2.358887E+03	1.012390E-18	3.700229E-20
2.398202E+03	1.093473E-18	3.992305E-20
2.437517E+03	1.172524E-18	4.276215E-20
2.476831E+03	1.249095E-18	4.550326E-20
2.516146E+03	1.323730E-18	4.816628E-20
2.555461E+03	1.397300E-18	5.078280E-20
2.594776E+03	1.470579E-18	5.338078E-20
2.634090E+03	1.544586E-18	5.599699E-20
2.673405E+03	1.620579E-18	5.867657E-20
2.712720E+03	1.699312E-18	6.144624E-20
2.752035E+03	1.781743E-18	6.433989E-20
2.791350E+03	1.869074E-18	6.739998E-20
2.830664E+03	1.962517E-18	7.066913E-20
2.869979E+03	2.062761E-18	7.417074E-20
2.909294E+03	2.171601E-18	7.796787E-20
2.948609E+03	2.289785E-18	8.208543E-20
2.958437E+03	2.320942E-18	8.317007E-20
2.968266E+03	2.352941E-18	8.428384E-20
2.978095E+03	2.385799E-18	8.542725E-20
2.987923E+03	2.419283E-18	8.659197E-20
2.997752E+03	2.453867E-18	8.779489E-20
3.007581E+03	2.489744E-18	8.904289E-20
3.017410E+03	2.526590E-18	9.032427E-20
3.027238E+03	2.564970E-18	9.165924E-20
3.037067E+03	2.604287E-18	9.302633E-20
3.046896E+03	2.644829E-18	9.443580E-20
3.056724E+03	2.686695E-18	9.589116E-20
3.066553E+03	2.729857E-18	9.739128E-20
3.076382E+03	2.774598E-18	9.894621E-20
3.086210E+03	2.820282E-18	1.005332E-19
3.096039E+03	2.867509E-18	1.021735E-19
3.105868E+03	2.915954E-18	1.038556E-19
3.115697E+03	2.965604E-18	1.055789E-19
3.125525E+03	3.016768E-18	1.073542E-19
3.135354E+03	3.069442E-18	1.091815E-19
3.145183E+03	3.122984E-18	1.110378E-19
3.155011E+03	3.178355E-18	1.129571E-19
3.164840E+03	3.234915E-18	1.149167E-19
3.174669E+03	3.292992E-18	1.169281E-19
3.184497E+03	3.352595E-18	1.189916E-19
3.194326E+03	3.413401E-18	1.210956E-19
3.204155E+03	3.476087E-18	1.232640E-19
3.213983E+03	3.540335E-18	1.254855E-19
3.223812E+03	3.605823E-18	1.277486E-19
3.233641E+03	3.673584E-18	1.300897E-19
3.243470E+03	3.742619E-18	1.324734E-19
3.253298E+03	3.813635E-18	1.349246E-19
3.263127E+03	3.886314E-18	1.374320E-19
3.272956E+03	3.961021E-18	1.400083E-19
3.282784E+03	4.037793E-18	1.426547E-19
3.292613E+03	4.116310E-18	1.453599E-19
3.302442E+03	4.196950E-18	1.481370E-19
3.312270E+03	4.280107E-18	1.509999E-19
3.322099E+03	4.365109E-18	1.539245E-19
3.331928E+03	4.452341E-18	1.569246E-19
3.341757E+03	4.542213E-18	1.600142E-19
3.351585E+03	4.634768E-18	1.631949E-19
3.361414E+03	4.729313E-18	1.664420E-19
3.371243E+03	4.827005E-18	1.697961E-19
3.381071E+03	4.927149E-18	1.732325E-19
3.390900E+03	5.030172E-18	1.767662E-19
3.400729E+03	5.136115E-18	1.803984E-19
3.410557E+03	5.245045E-18	1.841312E-19
3.420386E+03	5.357395E-18	1.879797E-19
3.430215E+03	5.472842E-18	1.919323E-19
3.440043E+03	5.591446E-18	1.959910E-19
3.449872E+03	5.713660E-18	2.001713E-19
3.459701E+03	5.839157E-18	2.044616E-19
3.469530E+03	5.968782E-18	2.088913E-19
3.479358E+03	6.102230E-18	2.134495E-19
3.489187E+03	6.239562E-18	2.181380E-19
3.499016E+03	6.380855E-18	2.229593E-19
3.508844E+03	6.526590E-18	2.279298E-19
3.518673E+03	6.676448E-18	2.330383E-19
3.528502E+03	6.830912E-18	2.383012E-19
3.538330E+03	6.990073E-18	2.437214E-19
3.548159E+03	7.154016E-18	2.493017E-19
3.557988E+03	7.322837E-18	2.550450E-19
3.567817E+03	7.497048E-18	2.609687E-19
3.577645E+03	7.676326E-18	2.670614E-19
3.587474E+03	7.861199E-18	2.733410E-19
3.597303E+03	8.051339E-18	2.797958E-19
3.607131E+03	8.247710E-18	2.864589E-19
3.616960E+03	8.449995E-18	2.933188E-19
3.626789E+03	8.658316E-18	3.003795E-19
3.636617E+03	8.872775E-18	3.076439E-19
3.646446E+03	9.093935E-18	3.151313E-19
3.656275E+03	9.321927E-18	3.228457E-19
3.666103E+03	9.556873E-18	3.307908E-19
3.675932E+03	9.798909E-18	3.389708E-19
3.685761E+03	1.004816E-17	3.473898E-19
3.695590E+03	1.030478E-17	3.560522E-19
3.705418E+03	1.056935E-17	3.649779E-19
3.715247E+03	1.084156E-17	3.741555E-19
3.725076E+03	1.112203E-17	3.836055E-19
3.734904E+03	1.141089E-17	3.933326E-19
3.744733E+03	1.170832E-17	4.033416E-19
3.754562E+03	1.201446E-17	4.136373E-19
3.764390E+03	1.232948E-17	4.242245E-19
3.774219E+03	1.265402E-17	4.351249E-19
3.784048E+03	1.298777E-17	4.463271E-19
3.793877E+03	1.333139E-17	4.578528E-19
3.803705E+03	1.368456E-17	4.696908E-19
3.813534E+03	1.404796E-17	4.818629E-19
3.823363E+03	1.442126E-17	4.943579E-19
3.833191E+03	1.480514E-17	5.071982E-19
3.843020E+03	1.520029E-17	5.204064E-19
3.852849E+03	1.560591E-17	5.339541E-19
3.862677E+03	1.602267E-17	5.478639E-19
3.872506E+03	1.645077E-17	5.621417E-19
3.882335E+03	1.688990E-17	5.767756E-19
3.892163E+03	1.734127E-17	5.918067E-19
3.901992E+03	1.780404E-17	6.072051E-19
3.911821E+03	1.827893E-17	6.229947E-19
3.921650E+03	1.876614E-17	6.391810E-19
3.931478E+03	1.926534E-17	6.557520E-19
3.941307E+03	1.977725E-17	6.727314E-19
3.951136E+03	2.030153E-17	6.901065E-19
3.960964E+03	2.083892E-17	7.079016E-19
3.970793E+03	2.138852E-17	7.260850E-19
3.980622E+03	2.195106E-17	7.446807E-19
3.990450E+03	2.252674E-17	7.636941E-19
4.000279E+03	2.311518E-17	7.831115E-19
4.010108E+03	2.371655E-17	8.029379E-19
4.019937E+03	2.433104E-17	8.231783E-19
4.029765E+03	2.495825E-17	8.438180E-19
4.039594E+03	2.559832E-17	8.648614E-19
4.049423E+03	2.625143E-17	8.863131E-19
4.059251E+03	2.691715E-17	9.081571E-19
4.069080E+03	2.759561E-17	9.303975E-19
4.078909E+03	2.828636E-17	9.530177E-19
4.088737E+03	2.898952E-17	9.760209E-19
4.098566E+03	2.970522E-17	9.994105E-19
4.108395E+03	3.043235E-17	1.023148E-18
4.118223E+03	3.117100E-17	1.047235E-18
4.128052E+03	3.192126E-17	1.071674E-18
4.137881E+03	3.268258E-17	1.096446E-18
4.147710E+03	3.345503E-17	1.121551E-18
4.157538E+03	3.423675E-17	1.146928E-18
4.167367E+03	3.502905E-17	1.172617E-18
4.177196E+03	3.583067E-17	1.198578E-18
4.187024E+03	3.664095E-17	1.224786E-18
4.196853E+03	3.745924E-17	1.251220E-18
4.206682E+03	3.828550E-17	1.277876E-18
4.216510E+03	3.911968E-17	1.304754E-18
4.226339E+03	3.995974E-17	1.331783E-18
4.236168E+03	4.080556E-17	1.358960E-18
4.245997E+03	4.165707E-17	1.386281E-18
4.255825E+03	4.251345E-17	1.413719E-18
4.265654E+03	4.337390E-17	1.441246E-18
4.275483E+03	4.423758E-17	1.468835E-18
4.285311E+03	4.510360E-17	1.496455E-18
4.295140E+03	4.597181E-17	1.524101E-18
4.304969E+03	4.684268E-17	1.551788E-18
4.314797E+03	4.771462E-17	1.579465E-18
4.324626E+03	4.858812E-17	1.607145E-18
4.334455E+03	4.946300E-17	1.634823E-18
4.344283E+03	5.033975E-17	1.662516E-18
4.354112E+03	5.121964E-17	1.690264E-18
4.363941E+03	5.210253E-17	1.718064E-18
4.373770E+03	5.299117E-17	1.746004E-18
4.383598E+03	5.388324E-17	1.774009E-18
4.393427E+03	5.477693E-17	1.802018E-18
4.403256E+03	5.567136E-17	1.830002E-18
4.413084E+03	5.656397E-17	1.857877E-18
4.422913E+03	5.745365E-17	1.885607E-18
4.432742E+03	5.833859E-17	1.913132E-18
4.442570E+03	5.921839E-17	1.940439E-18
4.452399E+03	6.009118E-17	1.967468E-18
4.462228E+03	6.095732E-17	1.994231E-18
4.472057E+03	6.181571E-17	2.020693E-18
4.481885E+03	6.266590E-17	2.046839E-18
4.491714E+03	6.350674E-17	2.072632E-18
4.501543E+03	6.433940E-17	2.098112E-18
4.511371E+03	6.516276E-17	2.123241E-18
4.521200E+03	6.597549E-17	2.147979E-18
4.531029E+03	6.677894E-17	2.172369E-18
4.540857E+03	6.757267E-17	2.196398E-18
4.550686E+03	6.835635E-17	2.220056E-18
4.560515E+03	6.912948E-17	2.243328E-18
4.570343E+03	6.989178E-17	2.266205E-18
4.580172E+03	7.064451E-17	2.288730E-18
4.590001E+03	7.138653E-17	2.310865E-18
4.599830E+03	7.211905E-17	2.332651E-18
4.609658E+03	7.284098E-17	2.354054E-18
4.619487E+03	7.355279E-17	2.375089E-18
4.629316E+03	7.425591E-17	2.395804E-18
4.639144E+03	7.494909E-17	2.416160E-18
4.648973E+03	7.563384E-17	2.436204E-18
4.658802E+03	7.631068E-17	2.455957E-18
4.668630E+03	7.697934E-17	2.475408E-18
4.678459E+03	7.764138E-17	2.494609E-18
4.688288E+03	7.829649E-17	2.513551E-18
4.698117E+03	7.894629E-17	2.532287E-18
4.707945E+03	7.958955E-17	2.550777E-18
4.717774E+03	8.022795E-17	2.569076E-18
4.727603E+03	8.085943E-17	2.587118E-18
4.737431E+03	8.148470E-17	2.604927E-18
4.747260E+03	8.210261E-17	2.622467E-18
4.757089E+03	8.271295E-17	2.639732E-18
4.766917E+03	8.331553E-17	2.656717E-18
4.776746E+03	8.391019E-17	2.673417E-18
4.786575E+03	8.449572E-17	2.689794E-18
4.796403E+03	8.507288E-17	2.705874E-18
4.806232E+03	8.564056E-17	2.721623E-18
4.816061E+03	8.619958E-17	2.737066E-18
4.825890E+03	8.674871E-17	2.752166E-18
4.835718E+03	8.728879E-17	2.766951E-18
4.845547E+03	8.781963E-17	2.781416E-18
4.855376E+03	8.834113E-17	2.795557E-18
4.865204E+03	8.885406E-17	2.809401E-18
4.875033E+03	8.935630E-17	2.822881E-18
4.884862E+03	8.984969E-17	2.836056E-18
4.894690E+03	9.033412E-17	2.848923E-18
4.904519E+03	9.080943E-17	2.861478E-18
4.914348E+03	9.127448E-17	2.873687E-18
4.924177E+03	9.173120E-17	2.885611E-18
4.934005E+03	9.217841E-17	2.897213E-18
4.943834E+03	9.261610E-17	2.908494E-18
4.953663E+03	9.304503E-17	2.919480E-18
4.963491E+03	9.346418E-17	2.930137E-18
4.973320E+03	9.387445E-17	2.940497E-18
4.983149E+03	9.427576E-17	2.950557E-18
4.992977E+03	9.466804E-17	2.960316E-18
5.002806E+03	9.505114E-17	2.969770E-18
5.012635E+03	9.542507E-17	2.978920E-18
5.022463E+03	9.578972E-17	2.987764E-18
5.032292E+03	9.614506E-17	2.996302E-18
5.042121E+03	9.649200E-17	3.004563E-18
5.051950E+03	9.682949E-17	3.012515E-18
5.061778E+03	9.715856E-17	3.020190E-18
5.071607E+03	9.747906E-17	3.027587E-18
5.081436E+03	9.779003E-17	3.034675E-18
5.091264E+03	9.809235E-17	3.041482E-18
5.101093E+03	9.838616E-17	3.048014E-18
5.110922E+03	9.867025E-17	3.054235E-18
5.120750E+03	9.894675E-17	3.060210E-18
5.130579E+03	9.921456E-17	3.065908E-18
5.140408E+03	9.947366E-17	3.071328E-18
5.150237E+03	9.972418E-17	3.076475E-18
5.160065E+03	9.996597E-17	3.081345E-18
5.169894E+03	1.001991E-16	3.085941E-18
5.179723E+03	1.004246E-16	3.090297E-18
5.189551E+03	1.006424E-16	3.094413E-18
5.199380E+03	1.008507E-16	3.098228E-18
5.209209E+03	1.010523E-16	3.101837E-18
5.219037E+03	1.012454E-16	3.105179E-18
5.228866E+03	1.014299E-16	3.108256E-18
5.238695E+03	1.016069E-16	3.111102E-18
5.248523E+03	1.017764E-16	3.113718E-18
5.258352E+03	1.019386E-16	3.116107E-18
5.268181E+03	1.020923E-16	3.118239E-18
5.278010E+03	1.022387E-16	3.120148E-18
5.287838E+03	1.023778E-16	3.121836E-18
5.297667E+03	1.025097E-16	3.123308E-18
5.307496E+03	1.026335E-16	3.124531E-18
5.317324E+03	1.027511E-16	3.125573E-18
5.327153E+03	1.028607E-16	3.126375E-18
5.336982E+03	1.029632E-16	3.126967E-18
5.346810E+03	1.030589E-16	3.127357E-18
5.356639E+03	1.031467E-16	3.127513E-18
5.366468E+03	1.032287E-16	3.127502E-18
5.376297E+03	1.033031E-16	3.127266E-18
5.386125E+03	1.033698E-16	3.126806E-18
5.395954E+03	1.034300E-16	3.126157E-18
5.405783E+03	1.034837E-16	3.125325E-18
5.415611E+03	1.035300E-16	3.124277E-18
5.425440E+03	1.035691E-16	3.123021E-18
5.435269E+03	1.036009E-16	3.121560E-18
5.445097E+03	1.036267E-16	3.119928E-18
5.454926E+03	1.036455E-16	3.118098E-18
5.464755E+03	1.036583E-16	3.116103E-18
5.474583E+03	1.036654E-16	3.113949E-18
5.484412E+03	1.036657E-16	3.111609E-18
5.494241E+03	1.036605E-16	3.109115E-18
5.504070E+03	1.036487E-16	3.106444E-18
5.513898E+03	1.036326E-16	3.103659E-18
5.523727E+03	1.036092E-16	3.100671E-18
5.533556E+03	1.035806E-16	3.097548E-18
5.543384E+03	1.035470E-16	3.094293E-18
5.553213E+03	1.035074E-16	3.090877E-18
5.563042E+03	1.034630E-16	3.087339E-18
5.572870E+03	1.034118E-16	3.083619E-18
5.582699E+03	1.033560E-16	3.079781E-18
5.592528E+03	1.032947E-16	3.075802E-18
5.602357E+03	1.032280E-16	3.071686E-18
5.612185E+03	1.031560E-16	3.067435E-18
5.622014E+03	1.030778E-16	3.063023E-18
5.631843E+03	1.029956E-16	3.058517E-18
5.641671E+03	1.029075E-16	3.053861E-18
5.651500E+03	1.028136E-16	3.049056E-18
5.661329E+03	1.027150E-16	3.044139E-18
5.671157E+03	1.026108E-16	3.039082E-18
5.680986E+03	1.025022E-16	3.033923E-18
5.690815E+03	1.023873E-16	3.028605E-18
5.700643E+03	1.022672E-16	3.023162E-18
5.710472E+03	1.021420E-16	3.017598E-18
5.720301E+03	1.020118E-16	3.011915E-18
5.730130E+03	1.018758E-16	3.006093E-18
5.739958E+03	1.017351E-16	3.000162E-18
5.749787E+03	1.015889E-16	2.994100E-18
5.759616E+03	1.014373E-16	2.987908E-18
5.769444E+03	1.012812E-16	2.981622E-18
5.779273E+03	1.011190E-16	2.975186E-18
5.789102E+03	1.009518E-16	2.968634E-18
5.798930E+03	1.007795E-16	2.961972E-18
5.808759E+03	1.006015E-16	2.955173E-18
5.818588E+03	1.004198E-16	2.948300E-18
5.828417E+03	1.002315E-16	2.941272E-18
5.838245E+03	1.000388E-16	2.934149E-18
5.848074E+03	9.984072E-17	2.926906E-18
5.857903E+03	9.963748E-17	2.919549E-18
5.867731E+03	9.943013E-17	2.912109E-18
5.877560E+03	9.921687E-17	2.904534E-18
5.887389E+03	9.899968E-17	2.896883E-18
5.897217E+03	9.877680E-17	2.889105E-18
5.907046E+03	9.854931E-17	2.881231E-18
5.916875E+03	9.831830E-17	2.873294E-18
5.926703E+03	9.808189E-17	2.865240E-18
5.936532E+03	9.784115E-17	2.857100E-18
5.946361E+03	9.759626E-17	2.848881E-18
5.956190E+03	9.734729E-17	2.840583E-18
5.966018E+03	9.709428E-17	2.832210E-18
5.975847E+03	9.683644E-17	2.823738E-18
5.985676E+03	9.657577E-17	2.815226E-18
5.995504E+03	9.631039E-17	2.806620E-18
6.005333E+03	9.604144E-17	2.797953E-18
6.015162E+03	9.576886E-17	2.789224E-18
6.024990E+03	9.549197E-17	2.780414E-18
6.034819E+03	9.521261E-17	2.771575E-18
6.044648E+03	9.492807E-17	2.762630E-18
6.054477E+03	9.464130E-17	2.753664E-18
6.064305E+03	9.435131E-17	2.744650E-18
6.074134E+03	9.405828E-17	2.735593E-18
6.083963E+03	9.376227E-17	2.726494E-18
6.093791E+03	9.346323E-17	2.717352E-18
6.103620E+03	9.316138E-17	2.708174E-18
6.113449E+03	9.285662E-17	2.698958E-18
6.123277E+03	9.254917E-17	2.689709E-18
6.133106E+03	9.223985E-17	2.680452E-18
6.142935E+03	9.192692E-17	2.671135E-18
6.152763E+03	9.161230E-17	2.661817E-18
6.162592E+03	9.129605E-17	2.652497E-18
6.172421E+03	9.097719E-17	2.643147E-18
6.182250E+03	9.065588E-17	2.633773E-18
6.192078E+03	9.033295E-17	2.624399E-18
6.201907E+03	9.000758E-17	2.615000E-18
6.211736E+03	8.968165E-17	2.605631E-18
6.221564E+03	8.935335E-17	2.596240E-18
6.231393E+03	8.902355E-17	2.586851E-18
6.241222E+03	8.869231E-17	2.577468E-18
6.251050E+03	8.835970E-17	2.568091E-18
6.260879E+03	8.802565E-17	2.558718E-18
6.270708E+03	8.769028E-17	2.549350E-18
6.280537E+03	8.735436E-17	2.540011E-18
6.290365E+03	8.701716E-17	2.530676E-18
6.300194E+03	8.667945E-17	2.521368E-18
6.310023E+03	8.634045E-17	2.512063E-18
6.319851E+03	8.600190E-17	2.502809E-18
6.329680E+03	8.566205E-17	2.493556E-18
6.339509E+03	8.532180E-17	2.484329E-18
6.349337E+03	8.498210E-17	2.475153E-18
6.359166E+03	8.464300E-17	2.466030E-18
6.368995E+03	8.430355E-17	2.456931E-18
6.378823E+03	8.396651E-17	2.447935E-18
6.388652E+03	8.363013E-17	2.438990E-18
6.398481E+03	8.329622E-17	2.430149E-18
6.408310E+03	8.296388E-17	2.421383E-18
6.418138E+03	8.263228E-17	2.412668E-18
6.427967E+03	8.230140E-17	2.404002E-18
6.437796E+03	8.197312E-17	2.395440E-18
6.447624E+03	8.164480E-17	2.386903E-18
6.457453E+03	8.131908E-17	2.378468E-18
6.467282E+03	8.099421E-17	2.370082E-18
6.477110E+03	8.067111E-17	2.361771E-18
6.486939E+03	8.035069E-17	2.353562E-18
6.496768E+03	8.003112E-17	2.345401E-18
6.506597E+03	7.971430E-17	2.337341E-18
6.516425E+03	7.940017E-17	2.329381E-18
6.526254E+03	7.908782E-17	2.321492E-18
6.536083E+03	7.877738E-17	2.313679E-18
6.545911E+03	7.847049E-17	2.305988E-18
6.555740E+03	7.816632E-17	2.298395E-18
6.565569E+03	7.786479E-17	2.290897E-18
6.575397E+03	7.756605E-17	2.283496E-18
6.585226E+03	7.726997E-17	2.276190E-18
6.595055E+03	7.697749E-17	2.269004E-18
6.604883E+03	7.668768E-17	2.261912E-18
6.614712E+03	7.640142E-17	2.254938E-18
6.624541E+03	7.611785E-17	2.248056E-18
6.634370E+03	7.583777E-17	2.241290E-18
6.644198E+03	7.556121E-17	2.234639E-18
6.654027E+03	7.528809E-17	2.228102E-18
6.663856E+03	7.501850E-17	2.221681E-18
6.673684E+03	7.475152E-17	2.215346E-18
6.683513E+03	7.448881E-17	2.209148E-18
6.693342E+03	7.422953E-17	2.203062E-18
6.703170E+03	7.397368E-17	2.197085E-18
6.712999E+03	7.372115E-17	2.191216E-18
6.722828E+03	7.347201E-17	2.185456E-18
6.732657E+03	7.322707E-17	2.179828E-18
6.742485E+03	7.298548E-17	2.174306E-18
6.752314E+03	7.274711E-17	2.168888E-18
6.762143E+03	7.251285E-17	2.163598E-18
6.771971E+03	7.228190E-17	2.158413E-18
6.781800E+03	7.205496E-17	2.153353E-18
6.791629E+03	7.183209E-17	2.148421E-18
6.801457E+03	7.161237E-17	2.143587E-18
6.811286E+03	7.139580E-17	2.138852E-18
6.821115E+03	7.118403E-17	2.134265E-18
6.830943E+03	7.097538E-17	2.129776E-18
6.840772E+03	7.077066E-17	2.125408E-18
6.850601E+03	7.056888E-17	2.121132E-18
6.860430E+03	7.037106E-17	2.116978E-18
6.870258E+03	7.017791E-17	2.112967E-18
6.880087E+03	6.998766E-17	2.109046E-18
6.889916E+03	6.980127E-17	2.105244E-18
6.899744E+03	6.961774E-17	2.101531E-18
6.909573E+03	6.943879E-17	2.097957E-18
6.919402E+03	6.926354E-17	2.094497E-18
6.929230E+03	6.909201E-17	2.091151E-18
6.939059E+03	6.892407E-17	2.087915E-18
6.948888E+03	6.875980E-17	2.084791E-18
6.958717E+03	6.859921E-17	2.081780E-18
6.968545E+03	6.844211E-17	2.078876E-18
6.978374E+03	6.828859E-17	2.076081E-18
6.988203E+03	6.813949E-17	2.073420E-18
6.998031E+03	6.799391E-17	2.070868E-18
7.007860E+03	6.785180E-17	2.068421E-18
7.017689E+03	6.771318E-17	2.066081E-18
7.027517E+03	6.757889E-17	2.063873E-18
7.037346E+03	6.744804E-17	2.061770E-18
7.047175E+03	6.732142E-17	2.059795E-18
7.057003E+03	6.719825E-17	2.057927E-18
7.066832E+03	6.707927E-17	2.056186E-18
7.076661E+03	6.696455E-17	2.054576E-18
7.086490E+03	6.685313E-17	2.053066E-18
7.096318E+03	6.674508E-17	2.051659E-18
7.106147E+03	6.664205E-17	2.050406E-18
7.115976E+03	6.654227E-17	2.049253E-18
7.125804E+03	6.644669E-17	2.048228E-18
7.135633E+03	6.635524E-17	2.047329E-18
7.145462E+03	6.626793E-17	2.046559E-18
7.155290E+03	6.618473E-17	2.045913E-18
7.165119E+03	6.610471E-17	2.045366E-18
7.174948E+03	6.602966E-17	2.044972E-18
7.184777E+03	6.595874E-17	2.044705E-18
7.194605E+03	6.589183E-17	2.044562E-18
7.204434E+03	6.582815E-17	2.044519E-18
7.214263E+03	6.576943E-17	2.044629E-18
7.224091E+03	6.571474E-17	2.044863E-18
7.233920E+03	6.566409E-17	2.045223E-18
7.243749E+03	6.561837E-17	2.045736E-18
7.253577E+03	6.557582E-17	2.046348E-18
7.263406E+03	6.553818E-17	2.047112E-18
7.273235E+03	6.550458E-17	2.048002E-18
7.283063E+03	6.547677E-17	2.049073E-18
7.292892E+03	6.545300E-17	2.050271E-18
7.302721E+03	6.543416E-17	2.051623E-18
7.312550E+03	6.542112E-17	2.053156E-18
7.322378E+03	6.541214E-17	2.054818E-18
7.332207E+03	6.540721E-17	2.056607E-18
7.342036E+03	6.540635E-17	2.058525E-18
7.351864E+03	6.541043E-17	2.060598E-18
7.361693E+03	6.541770E-17	2.062772E-18
7.371522E+03	6.542904E-17	2.065076E-18
7.381350E+03	6.544357E-17	2.067481E-18
7.391179E+03	6.546131E-17	2.069988E-18
7.401008E+03	6.548313E-17	2.072625E-18
7.410837E+03	6.550728E-17	2.075337E-18
7.420665E+03	6.553553E-17	2.078179E-18
7.430494E+03	6.556701E-17	2.081125E-18
7.440323E+03	6.560081E-17	2.084145E-18
7.450151E+03	6.563786E-17	2.087270E-18
7.459980E+03	6.567814E-17	2.090498E-18
7.469809E+03	6.572078E-17	2.093803E-18
7.479637E+03	6.576669E-17	2.097213E-18
7.489466E+03	6.581495E-17	2.100699E-18
7.499295E+03	6.586559E-17	2.104262E-18
7.509123E+03	6.591952E-17	2.107932E-18
7.518952E+03	6.597675E-17	2.111708E-18
7.528781E+03	6.603546E-17	2.115533E-18
7.538610E+03	6.609751E-17	2.119466E-18
7.548438E+03	6.616197E-17	2.123478E-18
7.558267E+03	6.622886E-17	2.127569E-18
7.568096E+03	6.629819E-17	2.131740E-18
7.577924E+03	6.636997E-17	2.135991E-18
7.587753E+03	6.644422E-17	2.140323E-18
7.597582E+03	6.652186E-17	2.144766E-18
7.607410E+03	6.660200E-17	2.149291E-18
7.617239E+03	6.668464E-17	2.153898E-18
7.627068E+03	6.676979E-17	2.158588E-18
