#wls	flux	fluxerr
1.572591E+03	9.863920E-19	6.802245E-20
1.611906E+03	9.987484E-19	6.882637E-20
1.651221E+03	1.006063E-18	6.928081E-20
1.690536E+03	1.008322E-18	6.938552E-20
1.729850E+03	1.005364E-18	6.913014E-20
1.769165E+03	9.957482E-19	6.841645E-20
1.808480E+03	9.785908E-19	6.718490E-20
1.847795E+03	9.518291E-19	6.529521E-20
1.887110E+03	9.147484E-19	6.270008E-20
1.926424E+03	8.669085E-19	5.937122E-20
1.965739E+03	8.103339E-19	5.544915E-20
2.005054E+03	7.499634E-19	5.127328E-20
2.044369E+03	6.950809E-19	4.747864E-20
2.083683E+03	6.561885E-19	4.478114E-20
2.122998E+03	6.421225E-19	4.378040E-20
2.162313E+03	6.570677E-19	4.475676E-20
2.201628E+03	6.992460E-19	4.758352E-20
2.240943E+03	7.631891E-19	5.188337E-20
2.280257E+03	8.419491E-19	5.717979E-20
2.319572E+03	9.287143E-19	6.300729E-20
2.358887E+03	1.018662E-18	6.903697E-20
2.398202E+03	1.108766E-18	7.506293E-20
2.437517E+03	1.197753E-18	8.099865E-20
2.476831E+03	1.285442E-18	8.683180E-20
2.516146E+03	1.372089E-18	9.257964E-20
2.555461E+03	1.458475E-18	9.829462E-20
2.594776E+03	1.545763E-18	1.040548E-19
2.634090E+03	1.634503E-18	1.098966E-19
2.673405E+03	1.725912E-18	1.159010E-19
2.712720E+03	1.821225E-18	1.221499E-19
2.752035E+03	1.921175E-18	1.286909E-19
2.791350E+03	2.026975E-18	1.356038E-19
2.830664E+03	2.139862E-18	1.429693E-19
2.869979E+03	2.260821E-18	1.508508E-19
2.909294E+03	2.391133E-18	1.593311E-19
2.948609E+03	2.532413E-18	1.685148E-19
2.958437E+03	2.569859E-18	1.709477E-19
2.968266E+03	2.607602E-18	1.733983E-19
2.978095E+03	2.646526E-18	1.759256E-19
2.987923E+03	2.686410E-18	1.785146E-19
2.997752E+03	2.727155E-18	1.811588E-19
3.007581E+03	2.769272E-18	1.838920E-19
3.017410E+03	2.812727E-18	1.867118E-19
3.027238E+03	2.857491E-18	1.896162E-19
3.037067E+03	2.903862E-18	1.926250E-19
3.046896E+03	2.951222E-18	1.956969E-19
3.056724E+03	2.999982E-18	1.988593E-19
3.066553E+03	3.050420E-18	2.021302E-19
3.076382E+03	3.102197E-18	2.054872E-19
3.086210E+03	3.155287E-18	2.089285E-19
3.096039E+03	3.209982E-18	2.124732E-19
3.105868E+03	3.265948E-18	2.160993E-19
3.115697E+03	3.323168E-18	2.198053E-19
3.125525E+03	3.381948E-18	2.236116E-19
3.135354E+03	3.442283E-18	2.275174E-19
3.145183E+03	3.503839E-18	2.315009E-19
3.155011E+03	3.566939E-18	2.355830E-19
3.164840E+03	3.631583E-18	2.397639E-19
3.174669E+03	3.697438E-18	2.440212E-19
3.184497E+03	3.765175E-18	2.483992E-19
3.194326E+03	3.834129E-18	2.528540E-19
3.204155E+03	3.904985E-18	2.574304E-19
3.213983E+03	3.977413E-18	2.621067E-19
3.223812E+03	4.051426E-18	2.668836E-19
3.233641E+03	4.127038E-18	2.717619E-19
3.243470E+03	4.204606E-18	2.767649E-19
3.253298E+03	4.283809E-18	2.818714E-19
3.263127E+03	4.365017E-18	2.871055E-19
3.272956E+03	4.447896E-18	2.924452E-19
3.282784E+03	4.532825E-18	2.979152E-19
3.292613E+03	4.619830E-18	3.035171E-19
3.302442E+03	4.708583E-18	3.092291E-19
3.312270E+03	4.799831E-18	3.151002E-19
3.322099E+03	4.893250E-18	3.211088E-19
3.331928E+03	4.988872E-18	3.272570E-19
3.341757E+03	5.086726E-18	3.335464E-19
3.351585E+03	5.187222E-18	3.400037E-19
3.361414E+03	5.290032E-18	3.466073E-19
3.371243E+03	5.395565E-18	3.533837E-19
3.381071E+03	5.503493E-18	3.603112E-19
3.390900E+03	5.614228E-18	3.674166E-19
3.400729E+03	5.727822E-18	3.747031E-19
3.410557E+03	5.844323E-18	3.821736E-19
3.420386E+03	5.964169E-18	3.898564E-19
3.430215E+03	6.086632E-18	3.977039E-19
3.440043E+03	6.212546E-18	4.057701E-19
3.449872E+03	6.341572E-18	4.140327E-19
3.459701E+03	6.474162E-18	4.225210E-19
3.469530E+03	6.610379E-18	4.312387E-19
3.479358E+03	6.749880E-18	4.401632E-19
3.489187E+03	6.893526E-18	4.493505E-19
3.499016E+03	7.040588E-18	4.587525E-19
3.508844E+03	7.191931E-18	4.684254E-19
3.518673E+03	7.347218E-18	4.783470E-19
3.528502E+03	7.506932E-18	4.885484E-19
3.538330E+03	7.670739E-18	4.990073E-19
3.548159E+03	7.839119E-18	5.097549E-19
3.557988E+03	8.012155E-18	5.207960E-19
3.567817E+03	8.189924E-18	5.321353E-19
3.577645E+03	8.372505E-18	5.437776E-19
3.587474E+03	8.559989E-18	5.557284E-19
3.597303E+03	8.752876E-18	5.680198E-19
3.607131E+03	8.950837E-18	5.806299E-19
3.616960E+03	9.154384E-18	5.935916E-19
3.626789E+03	9.363621E-18	6.069111E-19
3.636617E+03	9.578630E-18	6.205935E-19
3.646446E+03	9.799522E-18	6.346453E-19
3.656275E+03	1.002639E-17	6.490722E-19
3.666103E+03	1.025978E-17	6.639091E-19
3.675932E+03	1.049935E-17	6.791334E-19
3.685761E+03	1.074567E-17	6.947806E-19
3.695590E+03	1.099837E-17	7.108281E-19
3.705418E+03	1.125849E-17	7.273410E-19
3.715247E+03	1.152524E-17	7.442676E-19
3.725076E+03	1.179963E-17	7.616739E-19
3.734904E+03	1.208133E-17	7.795372E-19
3.744733E+03	1.237046E-17	7.978655E-19
3.754562E+03	1.266762E-17	8.166953E-19
3.764390E+03	1.297245E-17	8.360043E-19
3.774219E+03	1.328604E-17	8.558610E-19
3.784048E+03	1.360756E-17	8.762125E-19
3.793877E+03	1.393715E-17	8.970662E-19
3.803705E+03	1.427590E-17	9.184916E-19
3.813534E+03	1.462346E-17	9.404668E-19
3.823363E+03	1.497998E-17	9.629991E-19
3.833191E+03	1.534608E-17	9.861292E-19
3.843020E+03	1.572092E-17	1.009802E-18
3.852849E+03	1.610565E-17	1.034089E-18
3.862677E+03	1.649989E-17	1.058967E-18
3.872506E+03	1.690430E-17	1.084478E-18
3.882335E+03	1.731852E-17	1.110597E-18
3.892163E+03	1.774271E-17	1.137334E-18
3.901992E+03	1.817751E-17	1.164730E-18
3.911821E+03	1.862258E-17	1.192760E-18
3.921650E+03	1.907856E-17	1.221467E-18
3.931478E+03	1.954510E-17	1.250827E-18
3.941307E+03	2.002235E-17	1.280848E-18
3.951136E+03	2.051044E-17	1.311539E-18
3.960964E+03	2.100952E-17	1.342908E-18
3.970793E+03	2.152029E-17	1.374999E-18
3.980622E+03	2.204181E-17	1.407752E-18
3.990450E+03	2.257477E-17	1.441209E-18
4.000279E+03	2.311876E-17	1.475344E-18
4.010108E+03	2.367447E-17	1.510200E-18
4.019937E+03	2.424149E-17	1.545750E-18
4.029765E+03	2.481995E-17	1.582003E-18
4.039594E+03	2.540998E-17	1.618965E-18
4.049423E+03	2.601172E-17	1.656644E-18
4.059251E+03	2.662416E-17	1.694977E-18
4.069080E+03	2.724854E-17	1.734040E-18
4.078909E+03	2.788384E-17	1.773769E-18
4.088737E+03	2.853017E-17	1.814170E-18
4.098566E+03	2.918762E-17	1.855247E-18
4.108395E+03	2.985630E-17	1.897008E-18
4.118223E+03	3.053570E-17	1.939420E-18
4.128052E+03	3.122591E-17	1.982486E-18
4.137881E+03	3.192640E-17	2.026176E-18
4.147710E+03	3.263725E-17	2.070490E-18
4.157538E+03	3.335791E-17	2.115396E-18
4.167367E+03	3.408781E-17	2.160856E-18
4.177196E+03	3.482761E-17	2.206912E-18
4.187024E+03	3.557609E-17	2.253486E-18
4.196853E+03	3.633329E-17	2.300580E-18
4.206682E+03	3.709919E-17	2.348194E-18
4.216510E+03	3.787257E-17	2.396248E-18
4.226339E+03	3.865337E-17	2.444741E-18
4.236168E+03	3.944095E-17	2.493631E-18
4.245997E+03	4.023462E-17	2.542873E-18
4.255825E+03	4.103431E-17	2.592465E-18
4.265654E+03	4.183867E-17	2.642321E-18
4.275483E+03	4.264760E-17	2.692434E-18
4.285311E+03	4.346035E-17	2.742758E-18
4.295140E+03	4.427613E-17	2.793243E-18
4.304969E+03	4.509414E-17	2.843838E-18
4.314797E+03	4.591360E-17	2.894496E-18
4.324626E+03	4.673428E-17	2.945202E-18
4.334455E+03	4.755406E-17	2.995822E-18
4.344283E+03	4.837334E-17	3.046383E-18
4.354112E+03	4.919127E-17	3.096832E-18
4.363941E+03	5.000692E-17	3.147110E-18
4.373770E+03	5.081936E-17	3.197162E-18
4.383598E+03	5.162830E-17	3.246968E-18
4.393427E+03	5.243359E-17	3.296520E-18
4.403256E+03	5.323418E-17	3.345753E-18
4.413084E+03	5.402906E-17	3.394606E-18
4.422913E+03	5.481802E-17	3.443064E-18
4.432742E+03	5.560138E-17	3.491150E-18
4.442570E+03	5.637823E-17	3.538808E-18
4.452399E+03	5.714823E-17	3.586017E-18
4.462228E+03	5.791032E-17	3.632712E-18
4.472057E+03	5.866565E-17	3.678966E-18
4.481885E+03	5.941248E-17	3.724672E-18
4.491714E+03	6.015119E-17	3.769853E-18
4.501543E+03	6.088148E-17	3.814494E-18
4.511371E+03	6.160302E-17	3.858573E-18
4.521200E+03	6.231478E-17	3.902029E-18
4.531029E+03	6.301714E-17	3.944885E-18
4.540857E+03	6.370975E-17	3.987122E-18
4.550686E+03	6.439159E-17	4.028677E-18
4.560515E+03	6.506312E-17	4.069580E-18
4.570343E+03	6.572465E-17	4.109852E-18
4.580172E+03	6.637449E-17	4.149388E-18
4.590001E+03	6.701372E-17	4.188258E-18
4.599830E+03	6.764136E-17	4.226400E-18
4.609658E+03	6.825855E-17	4.263889E-18
4.619487E+03	6.886586E-17	4.300761E-18
4.629316E+03	6.946222E-17	4.336950E-18
4.639144E+03	7.004971E-17	4.372587E-18
4.648973E+03	7.062882E-17	4.407705E-18
4.658802E+03	7.120176E-17	4.442442E-18
4.668630E+03	7.176909E-17	4.476834E-18
4.678459E+03	7.233543E-17	4.511171E-18
4.688288E+03	7.290152E-17	4.545499E-18
4.698117E+03	7.347127E-17	4.580064E-18
4.707945E+03	7.404215E-17	4.614707E-18
4.717774E+03	7.461235E-17	4.649318E-18
4.727603E+03	7.517933E-17	4.683739E-18
4.737431E+03	7.573886E-17	4.717708E-18
4.747260E+03	7.629145E-17	4.751257E-18
4.757089E+03	7.683373E-17	4.784178E-18
4.766917E+03	7.736461E-17	4.816403E-18
4.776746E+03	7.788392E-17	4.847925E-18
4.786575E+03	7.839142E-17	4.878728E-18
4.796403E+03	7.888530E-17	4.908703E-18
4.806232E+03	7.936706E-17	4.937943E-18
4.816061E+03	7.983479E-17	4.966330E-18
4.825890E+03	8.028919E-17	4.993909E-18
4.835718E+03	8.073012E-17	5.020671E-18
4.845547E+03	8.115824E-17	5.046659E-18
4.855376E+03	8.157261E-17	5.071813E-18
4.865204E+03	8.197475E-17	5.096230E-18
4.875033E+03	8.236371E-17	5.119850E-18
4.884862E+03	8.274116E-17	5.142778E-18
4.894690E+03	8.310517E-17	5.164893E-18
4.904519E+03	8.345827E-17	5.186354E-18
4.914348E+03	8.379860E-17	5.207045E-18
4.924177E+03	8.412793E-17	5.227077E-18
4.934005E+03	8.444604E-17	5.246436E-18
4.943834E+03	8.475298E-17	5.265125E-18
4.953663E+03	8.504944E-17	5.283187E-18
4.963491E+03	8.533460E-17	5.300572E-18
4.973320E+03	8.561011E-17	5.317381E-18
4.983149E+03	8.587503E-17	5.333558E-18
4.992977E+03	8.612935E-17	5.349101E-18
5.002806E+03	8.637481E-17	5.364117E-18
5.012635E+03	8.660956E-17	5.378494E-18
5.022463E+03	8.683541E-17	5.392342E-18
5.032292E+03	8.705230E-17	5.405659E-18
5.042121E+03	8.725929E-17	5.418385E-18
5.051950E+03	8.745730E-17	5.430578E-18
5.061778E+03	8.764633E-17	5.442238E-18
5.071607E+03	8.782635E-17	5.453362E-18
5.081436E+03	8.799737E-17	5.463952E-18
5.091264E+03	8.816031E-17	5.474063E-18
5.101093E+03	8.831417E-17	5.483636E-18
5.110922E+03	8.845910E-17	5.492676E-18
5.120750E+03	8.859595E-17	5.501239E-18
5.130579E+03	8.872470E-17	5.509323E-18
5.140408E+03	8.884446E-17	5.516872E-18
5.150237E+03	8.895623E-17	5.523947E-18
5.160065E+03	8.905906E-17	5.530490E-18
5.169894E+03	8.915389E-17	5.536559E-18
5.179723E+03	8.924080E-17	5.542158E-18
5.189551E+03	8.931973E-17	5.547284E-18
5.199380E+03	8.939080E-17	5.551944E-18
5.209209E+03	8.945308E-17	5.556080E-18
5.219037E+03	8.950843E-17	5.559807E-18
5.228866E+03	8.955512E-17	5.563017E-18
5.238695E+03	8.959490E-17	5.565819E-18
5.248523E+03	8.962699E-17	5.568165E-18
5.258352E+03	8.965145E-17	5.570056E-18
5.268181E+03	8.966923E-17	5.571552E-18
5.278010E+03	8.968031E-17	5.572653E-18
5.287838E+03	8.968476E-17	5.573361E-18
5.297667E+03	8.968265E-17	5.573681E-18
5.307496E+03	8.967497E-17	5.573675E-18
5.317324E+03	8.966266E-17	5.573398E-18
5.327153E+03	8.964481E-17	5.572797E-18
5.336982E+03	8.962337E-17	5.571991E-18
5.346810E+03	8.959833E-17	5.570979E-18
5.356639E+03	8.957063E-17	5.569819E-18
5.366468E+03	8.953951E-17	5.568465E-18
5.376297E+03	8.950768E-17	5.567083E-18
5.386125E+03	8.947332E-17	5.565562E-18
5.395954E+03	8.943839E-17	5.564023E-18
5.405783E+03	8.940291E-17	5.562465E-18
5.415611E+03	8.936510E-17	5.560779E-18
5.425440E+03	8.932686E-17	5.559083E-18
5.435269E+03	8.928732E-17	5.557323E-18
5.445097E+03	8.924650E-17	5.555498E-18
5.454926E+03	8.920367E-17	5.553564E-18
5.464755E+03	8.915790E-17	5.551463E-18
5.474583E+03	8.911020E-17	5.549256E-18
5.484412E+03	8.905878E-17	5.546833E-18
5.494241E+03	8.900466E-17	5.544257E-18
5.504070E+03	8.894700E-17	5.541475E-18
5.513898E+03	8.888497E-17	5.538435E-18
5.523727E+03	8.881952E-17	5.535196E-18
5.533556E+03	8.874981E-17	5.531706E-18
5.543384E+03	8.867601E-17	5.527975E-18
5.553213E+03	8.859717E-17	5.523943E-18
5.563042E+03	8.851437E-17	5.519676E-18
5.572870E+03	8.842674E-17	5.515123E-18
5.582699E+03	8.833527E-17	5.510342E-18
5.592528E+03	8.823916E-17	5.505283E-18
5.602357E+03	8.813841E-17	5.499948E-18
5.612185E+03	8.803319E-17	5.494346E-18
5.622014E+03	8.792442E-17	5.488534E-18
5.631843E+03	8.781130E-17	5.482462E-18
5.641671E+03	8.769390E-17	5.476134E-18
5.651500E+03	8.757232E-17	5.469556E-18
5.661329E+03	8.744664E-17	5.462732E-18
5.671157E+03	8.731696E-17	5.455670E-18
5.680986E+03	8.718336E-17	5.448373E-18
5.690815E+03	8.704589E-17	5.440843E-18
5.700643E+03	8.690552E-17	5.433143E-18
5.710472E+03	8.676061E-17	5.425169E-18
5.720301E+03	8.661213E-17	5.416980E-18
5.730130E+03	8.646095E-17	5.408632E-18
5.739958E+03	8.630552E-17	5.400027E-18
5.749787E+03	8.614757E-17	5.391274E-18
5.759616E+03	8.598556E-17	5.382274E-18
5.769444E+03	8.582040E-17	5.373087E-18
5.779273E+03	8.565217E-17	5.363714E-18
5.789102E+03	8.548092E-17	5.354161E-18
5.798930E+03	8.530678E-17	5.344435E-18
5.808759E+03	8.512987E-17	5.334543E-18
5.818588E+03	8.494939E-17	5.324434E-18
5.828417E+03	8.476632E-17	5.314170E-18
5.838245E+03	8.457986E-17	5.303701E-18
5.848074E+03	8.439094E-17	5.293084E-18
5.857903E+03	8.419887E-17	5.282277E-18
5.867731E+03	8.400453E-17	5.271333E-18
5.877560E+03	8.380722E-17	5.260210E-18
5.887389E+03	8.360707E-17	5.248914E-18
5.897217E+03	8.340409E-17	5.237446E-18
5.907046E+03	8.319838E-17	5.225813E-18
5.916875E+03	8.299014E-17	5.214027E-18
5.926703E+03	8.277861E-17	5.202039E-18
5.936532E+03	8.256467E-17	5.189905E-18
5.946361E+03	8.234762E-17	5.177580E-18
5.956190E+03	8.212840E-17	5.165124E-18
5.966018E+03	8.190550E-17	5.152441E-18
5.975847E+03	8.167903E-17	5.139538E-18
5.985676E+03	8.144987E-17	5.126470E-18
5.995504E+03	8.121732E-17	5.113193E-18
6.005333E+03	8.098162E-17	5.099722E-18
6.015162E+03	8.074272E-17	5.086053E-18
6.024990E+03	8.050002E-17	5.072148E-18
6.034819E+03	8.025447E-17	5.058066E-18
6.044648E+03	8.000613E-17	5.043812E-18
6.054477E+03	7.975429E-17	5.029341E-18
6.064305E+03	7.949914E-17	5.014663E-18
6.074134E+03	7.923925E-17	4.999689E-18
6.083963E+03	7.897544E-17	4.984470E-18
6.093791E+03	7.870866E-17	4.969066E-18
6.103620E+03	7.843988E-17	4.953538E-18
6.113449E+03	7.816838E-17	4.937839E-18
6.123277E+03	7.789499E-17	4.922023E-18
6.133106E+03	7.761996E-17	4.906104E-18
6.142935E+03	7.734413E-17	4.890136E-18
6.152763E+03	7.706601E-17	4.874025E-18
6.162592E+03	7.678649E-17	4.857827E-18
6.172421E+03	7.650655E-17	4.841602E-18
6.182250E+03	7.622540E-17	4.825302E-18
6.192078E+03	7.594479E-17	4.809037E-18
6.201907E+03	7.566318E-17	4.792709E-18
6.211736E+03	7.538151E-17	4.776378E-18
6.221564E+03	7.509986E-17	4.760049E-18
6.231393E+03	7.481830E-17	4.743726E-18
6.241222E+03	7.453690E-17	4.727413E-18
6.251050E+03	7.425650E-17	4.711164E-18
6.260879E+03	7.397572E-17	4.694891E-18
6.270708E+03	7.369601E-17	4.678686E-18
6.280537E+03	7.341685E-17	4.662515E-18
6.290365E+03	7.313882E-17	4.646415E-18
6.300194E+03	7.286062E-17	4.630302E-18
6.310023E+03	7.258302E-17	4.614227E-18
6.319851E+03	7.230670E-17	4.598231E-18
6.329680E+03	7.202948E-17	4.582175E-18
6.339509E+03	7.175367E-17	4.566207E-18
6.349337E+03	7.147764E-17	4.550221E-18
6.359166E+03	7.120150E-17	4.534226E-18
6.368995E+03	7.092513E-17	4.518212E-18
6.378823E+03	7.064854E-17	4.502181E-18
6.388652E+03	7.037179E-17	4.486136E-18
6.398481E+03	7.009469E-17	4.470064E-18
6.408310E+03	6.981652E-17	4.453919E-18
6.418138E+03	6.953868E-17	4.437790E-18
6.427967E+03	6.926117E-17	4.421677E-18
6.437796E+03	6.898314E-17	4.405525E-18
6.447624E+03	6.870673E-17	4.389471E-18
6.457453E+03	6.843047E-17	4.373421E-18
6.467282E+03	6.815566E-17	4.357457E-18
6.477110E+03	6.788236E-17	4.341583E-18
6.486939E+03	6.761033E-17	4.325783E-18
6.496768E+03	6.734037E-17	4.310110E-18
6.506597E+03	6.707164E-17	4.294508E-18
6.516425E+03	6.680622E-17	4.279111E-18
6.526254E+03	6.654185E-17	4.263774E-18
6.536083E+03	6.628069E-17	4.248635E-18
6.545911E+03	6.602194E-17	4.233644E-18
6.555740E+03	6.576623E-17	4.218840E-18
6.565569E+03	6.551283E-17	4.204177E-18
6.575397E+03	6.526304E-17	4.189737E-18
6.585226E+03	6.501539E-17	4.175427E-18
6.595055E+03	6.477206E-17	4.161387E-18
6.604883E+03	6.453068E-17	4.147464E-18
6.614712E+03	6.429345E-17	4.133801E-18
6.624541E+03	6.405957E-17	4.120344E-18
6.634370E+03	6.382830E-17	4.107048E-18
6.644198E+03	6.360176E-17	4.094048E-18
6.654027E+03	6.337767E-17	4.081197E-18
6.663856E+03	6.315826E-17	4.068641E-18
6.673684E+03	6.294188E-17	4.056271E-18
6.683513E+03	6.272940E-17	4.044145E-18
6.693342E+03	6.252060E-17	4.032248E-18
6.703170E+03	6.231627E-17	4.020632E-18
6.712999E+03	6.211490E-17	4.009200E-18
6.722828E+03	6.191790E-17	3.998041E-18
6.732657E+03	6.172525E-17	3.987155E-18
6.742485E+03	6.153618E-17	3.976493E-18
6.752314E+03	6.135065E-17	3.966053E-18
6.762143E+03	6.117009E-17	3.955926E-18
6.771971E+03	6.099302E-17	3.946018E-18
6.781800E+03	6.081943E-17	3.936326E-18
6.791629E+03	6.065071E-17	3.926943E-18
6.801457E+03	6.048614E-17	3.917822E-18
6.811286E+03	6.032496E-17	3.908913E-18
6.821115E+03	6.016861E-17	3.900309E-18
6.830943E+03	6.001559E-17	3.891915E-18
6.840772E+03	5.986664E-17	3.883778E-18
6.850601E+03	5.972245E-17	3.875942E-18
6.860430E+03	5.958155E-17	3.868314E-18
6.870258E+03	5.944538E-17	3.860986E-18
6.880087E+03	5.931247E-17	3.853864E-18
6.889916E+03	5.918354E-17	3.846993E-18
6.899744E+03	5.905930E-17	3.840421E-18
6.909573E+03	5.893828E-17	3.834052E-18
6.919402E+03	5.882120E-17	3.827934E-18
6.929230E+03	5.870805E-17	3.822065E-18
6.939059E+03	5.859809E-17	3.816398E-18
6.948888E+03	5.849203E-17	3.810979E-18
6.958717E+03	5.838987E-17	3.805809E-18
6.968545E+03	5.829162E-17	3.800887E-18
6.978374E+03	5.819651E-17	3.796165E-18
6.988203E+03	5.810529E-17	3.791691E-18
6.998031E+03	5.801648E-17	3.787370E-18
7.007860E+03	5.793227E-17	3.783343E-18
7.017689E+03	5.785047E-17	3.779469E-18
7.027517E+03	5.777180E-17	3.775793E-18
7.037346E+03	5.769698E-17	3.772365E-18
7.047175E+03	5.762457E-17	3.769089E-18
7.057003E+03	5.755526E-17	3.766012E-18
7.066832E+03	5.748909E-17	3.763134E-18
7.076661E+03	5.742530E-17	3.760408E-18
7.086490E+03	5.736389E-17	3.757833E-18
7.096318E+03	5.730560E-17	3.755458E-18
7.106147E+03	5.724968E-17	3.753234E-18
7.115976E+03	5.719615E-17	3.751163E-18
7.125804E+03	5.714500E-17	3.749242E-18
7.135633E+03	5.709623E-17	3.747474E-18
7.145462E+03	5.704984E-17	3.745857E-18
7.155290E+03	5.700509E-17	3.744344E-18
7.165119E+03	5.696272E-17	3.742984E-18
7.174948E+03	5.692273E-17	3.741775E-18
7.184777E+03	5.688365E-17	3.740623E-18
7.194605E+03	5.684769E-17	3.739671E-18
7.204434E+03	5.681264E-17	3.738775E-18
7.214263E+03	5.678071E-17	3.738080E-18
7.224091E+03	5.675042E-17	3.737489E-18
7.233920E+03	5.672178E-17	3.737004E-18
7.243749E+03	5.669626E-17	3.736720E-18
7.253577E+03	5.667240E-17	3.736541E-18
7.263406E+03	5.665093E-17	3.736517E-18
7.273235E+03	5.663332E-17	3.736743E-18
7.283063E+03	5.661738E-17	3.737076E-18
7.292892E+03	5.660532E-17	3.737662E-18
7.302721E+03	5.659641E-17	3.738453E-18
7.312550E+03	5.658992E-17	3.739400E-18
7.322378E+03	5.658658E-17	3.740552E-18
7.332207E+03	5.658493E-17	3.741813E-18
7.342036E+03	5.658497E-17	3.743182E-18
7.351864E+03	5.658669E-17	3.744660E-18
7.361693E+03	5.658936E-17	3.746197E-18
7.371522E+03	5.659299E-17	3.747795E-18
7.381350E+03	5.659757E-17	3.749453E-18
7.391179E+03	5.660311E-17	3.751172E-18
7.401008E+03	5.660885E-17	3.752901E-18
7.410837E+03	5.661555E-17	3.754690E-18
7.420665E+03	5.662321E-17	3.756540E-18
7.430494E+03	5.663108E-17	3.758401E-18
7.440323E+03	5.663991E-17	3.760323E-18
7.450151E+03	5.664895E-17	3.762255E-18
7.459980E+03	5.665895E-17	3.764249E-18
7.469809E+03	5.666992E-17	3.766303E-18
7.479637E+03	5.668185E-17	3.768418E-18
7.489466E+03	5.669400E-17	3.770545E-18
7.499295E+03	5.670786E-17	3.772783E-18
7.509123E+03	5.672194E-17	3.775032E-18
7.518952E+03	5.673775E-17	3.777393E-18
7.528781E+03	5.675453E-17	3.779816E-18
7.538610E+03	5.677229E-17	3.782301E-18
7.548438E+03	5.679179E-17	3.784900E-18
7.558267E+03	5.681227E-17	3.787560E-18
7.568096E+03	5.683449E-17	3.790334E-18
7.577924E+03	5.685770E-17	3.793170E-18
7.587753E+03	5.688266E-17	3.796121E-18
7.597582E+03	5.690939E-17	3.799187E-18
7.607410E+03	5.693711E-17	3.802316E-18
7.617239E+03	5.696660E-17	3.805561E-18
7.627068E+03	5.699786E-17	3.808921E-18
