#wls	flux	fluxerr
1.590182E+03	3.529721E-02	1.035552E-02
1.629937E+03	2.967748E-02	8.686580E-03
1.669691E+03	2.497857E-02	7.293801E-03
1.709446E+03	2.106691E-02	6.136562E-03
1.749200E+03	1.782524E-02	5.179297E-03
1.788955E+03	1.515093E-02	4.390945E-03
1.828710E+03	1.294939E-02	3.743028E-03
1.868464E+03	1.114531E-02	3.212864E-03
1.908219E+03	9.671139E-03	2.780193E-03
1.947973E+03	8.470269E-03	2.428072E-03
1.987728E+03	7.495069E-03	2.142281E-03
2.027482E+03	6.706810E-03	1.911270E-03
2.067237E+03	6.072842E-03	1.725327E-03
2.106991E+03	5.565992E-03	1.576388E-03
2.146746E+03	5.165292E-03	1.458221E-03
2.186501E+03	4.852513E-03	1.365430E-03
2.226255E+03	4.613153E-03	1.293720E-03
2.266010E+03	4.435742E-03	1.239692E-03
2.305764E+03	4.311045E-03	1.200604E-03
2.345519E+03	4.231678E-03	1.174257E-03
2.385273E+03	4.191234E-03	1.158747E-03
2.425028E+03	4.183830E-03	1.152338E-03
2.464782E+03	4.204446E-03	1.153548E-03
2.504537E+03	4.247701E-03	1.160816E-03
2.544292E+03	4.308712E-03	1.172736E-03
2.584046E+03	4.382236E-03	1.187823E-03
2.623801E+03	4.463332E-03	1.204698E-03
2.663555E+03	4.546771E-03	1.221924E-03
2.703310E+03	4.627545E-03	1.238148E-03
2.743064E+03	4.701225E-03	1.252194E-03
2.782819E+03	4.764037E-03	1.263083E-03
2.822573E+03	4.813129E-03	1.270100E-03
2.862328E+03	4.846883E-03	1.272866E-03
2.902083E+03	4.864356E-03	1.271194E-03
2.941837E+03	4.866069E-03	1.265281E-03
2.981592E+03	4.852842E-03	1.255401E-03
2.991530E+03	4.847512E-03	1.252399E-03
3.001469E+03	4.841305E-03	1.249168E-03
3.011408E+03	4.834241E-03	1.245714E-03
3.021346E+03	4.826557E-03	1.242100E-03
3.031285E+03	4.818161E-03	1.238302E-03
3.041223E+03	4.809078E-03	1.234328E-03
3.051162E+03	4.799428E-03	1.230209E-03
3.061101E+03	4.789130E-03	1.225924E-03
3.071039E+03	4.778209E-03	1.221482E-03
3.080978E+03	4.766882E-03	1.216938E-03
3.090917E+03	4.754975E-03	1.212248E-03
3.100855E+03	4.742606E-03	1.207444E-03
3.110794E+03	4.729703E-03	1.202506E-03
3.120733E+03	4.716571E-03	1.197514E-03
3.130671E+03	4.702949E-03	1.192401E-03
3.140610E+03	4.688955E-03	1.187198E-03
3.150549E+03	4.674700E-03	1.181934E-03
3.160487E+03	4.660204E-03	1.176614E-03
3.170426E+03	4.645316E-03	1.171199E-03
3.180364E+03	4.630321E-03	1.165763E-03
3.190303E+03	4.615069E-03	1.160268E-03
3.200242E+03	4.599671E-03	1.154742E-03
3.210180E+03	4.584072E-03	1.149172E-03
3.220119E+03	4.568384E-03	1.143585E-03
3.230058E+03	4.552634E-03	1.137990E-03
3.239996E+03	4.536855E-03	1.132393E-03
3.249935E+03	4.521005E-03	1.126786E-03
3.259874E+03	4.505200E-03	1.121196E-03
3.269812E+03	4.489482E-03	1.115634E-03
3.279751E+03	4.473822E-03	1.110094E-03
3.289689E+03	4.458344E-03	1.104606E-03
3.299628E+03	4.443031E-03	1.099166E-03
3.309567E+03	4.428018E-03	1.093806E-03
3.319505E+03	4.413298E-03	1.088525E-03
3.329444E+03	4.398949E-03	1.083342E-03
3.339383E+03	4.385053E-03	1.078276E-03
3.349321E+03	4.371700E-03	1.073350E-03
3.359260E+03	4.358990E-03	1.068588E-03
3.369199E+03	4.346969E-03	1.063999E-03
3.379137E+03	4.335822E-03	1.059629E-03
3.389076E+03	4.325560E-03	1.055478E-03
3.399014E+03	4.316460E-03	1.051615E-03
3.408953E+03	4.308564E-03	1.048048E-03
3.418892E+03	4.302066E-03	1.044821E-03
3.428830E+03	4.297178E-03	1.041987E-03
3.438769E+03	4.294091E-03	1.039588E-03
3.448708E+03	4.293144E-03	1.037705E-03
3.458646E+03	4.294615E-03	1.036403E-03
3.468585E+03	4.298833E-03	1.035757E-03
3.478524E+03	4.306238E-03	1.035872E-03
3.488462E+03	4.317263E-03	1.036846E-03
3.498401E+03	4.332494E-03	1.038816E-03
3.508340E+03	4.352340E-03	1.041876E-03
3.518278E+03	4.377467E-03	1.046179E-03
3.528217E+03	4.408469E-03	1.051860E-03
3.538155E+03	4.446028E-03	1.059075E-03
3.548094E+03	4.490754E-03	1.067962E-03
3.558033E+03	4.543341E-03	1.078676E-03
3.567971E+03	4.604621E-03	1.091404E-03
3.577910E+03	4.675241E-03	1.106291E-03
3.587849E+03	4.756088E-03	1.123533E-03
3.597787E+03	4.847959E-03	1.143307E-03
3.607726E+03	4.951610E-03	1.165777E-03
3.617665E+03	5.067845E-03	1.191117E-03
3.627603E+03	5.197513E-03	1.219512E-03
3.637542E+03	5.341323E-03	1.251111E-03
3.647480E+03	5.500111E-03	1.286091E-03
3.657419E+03	5.674409E-03	1.324560E-03
3.667358E+03	5.864835E-03	1.366641E-03
3.677296E+03	6.071830E-03	1.412417E-03
3.687235E+03	6.295734E-03	1.461946E-03
3.697174E+03	6.536575E-03	1.515213E-03
3.707112E+03	6.794271E-03	1.572179E-03
3.717051E+03	7.068418E-03	1.632728E-03
3.726990E+03	7.358398E-03	1.696698E-03
3.736928E+03	7.663232E-03	1.763842E-03
3.746867E+03	7.981734E-03	1.833869E-03
3.756805E+03	8.312369E-03	1.906410E-03
3.766744E+03	8.653344E-03	1.981037E-03
3.776683E+03	9.002897E-03	2.057335E-03
3.786621E+03	9.358644E-03	2.134748E-03
3.796560E+03	9.718388E-03	2.212768E-03
3.806499E+03	1.007982E-02	2.290864E-03
3.816437E+03	1.044031E-02	2.368433E-03
3.826376E+03	1.079735E-02	2.444913E-03
3.836315E+03	1.114862E-02	2.519780E-03
3.846253E+03	1.149170E-02	2.592494E-03
3.856192E+03	1.182426E-02	2.662542E-03
3.866131E+03	1.214384E-02	2.729382E-03
3.876069E+03	1.244820E-02	2.792527E-03
3.886008E+03	1.273496E-02	2.851464E-03
3.895946E+03	1.300167E-02	2.905664E-03
3.905885E+03	1.324577E-02	2.954586E-03
3.915824E+03	1.346467E-02	2.997677E-03
3.925762E+03	1.365581E-02	3.034402E-03
3.935701E+03	1.381647E-02	3.064195E-03
3.945640E+03	1.394384E-02	3.086469E-03
3.955578E+03	1.403556E-02	3.100747E-03
3.965517E+03	1.408907E-02	3.106511E-03
3.975456E+03	1.410239E-02	3.103374E-03
3.985394E+03	1.407387E-02	3.091024E-03
3.995333E+03	1.400239E-02	3.069274E-03
4.005271E+03	1.388801E-02	3.038190E-03
4.015210E+03	1.373139E-02	2.997972E-03
4.025149E+03	1.353448E-02	2.949101E-03
4.035087E+03	1.330019E-02	2.892265E-03
4.045026E+03	1.303251E-02	2.828376E-03
4.054965E+03	1.273633E-02	2.758541E-03
4.064903E+03	1.241746E-02	2.684051E-03
4.074842E+03	1.208203E-02	2.606259E-03
4.084781E+03	1.173661E-02	2.526605E-03
4.094719E+03	1.138807E-02	2.446577E-03
4.104658E+03	1.104276E-02	2.367538E-03
4.114596E+03	1.070693E-02	2.290828E-03
4.124535E+03	1.038630E-02	2.217652E-03
4.134474E+03	1.008594E-02	2.149072E-03
4.144412E+03	9.810181E-03	2.085984E-03
4.154351E+03	9.562641E-03	2.029123E-03
4.164290E+03	9.346151E-03	1.979052E-03
4.174228E+03	9.162792E-03	1.936169E-03
4.184167E+03	9.013940E-03	1.900721E-03
4.194106E+03	8.900262E-03	1.872803E-03
4.204044E+03	8.821667E-03	1.852349E-03
4.213983E+03	8.777431E-03	1.839162E-03
4.223922E+03	8.766182E-03	1.832909E-03
4.233860E+03	8.785707E-03	1.833085E-03
4.243799E+03	8.832877E-03	1.838996E-03
4.253737E+03	8.904022E-03	1.849845E-03
4.263676E+03	8.994690E-03	1.864676E-03
4.273615E+03	9.099816E-03	1.882416E-03
4.283553E+03	9.213885E-03	1.901907E-03
4.293492E+03	9.331019E-03	1.921926E-03
4.303431E+03	9.445579E-03	1.941311E-03
4.313369E+03	9.551813E-03	1.958884E-03
4.323308E+03	9.644853E-03	1.973662E-03
4.333247E+03	9.720377E-03	1.984779E-03
4.343185E+03	9.775165E-03	1.991602E-03
4.353124E+03	9.806984E-03	1.993706E-03
4.363062E+03	9.814821E-03	1.990916E-03
4.373001E+03	9.798696E-03	1.983268E-03
4.382940E+03	9.759748E-03	1.971025E-03
4.392878E+03	9.699690E-03	1.954562E-03
4.402817E+03	9.620825E-03	1.934370E-03
4.412756E+03	9.525871E-03	1.911021E-03
4.422694E+03	9.417483E-03	1.885068E-03
4.432633E+03	9.298288E-03	1.857052E-03
4.442572E+03	9.170732E-03	1.827478E-03
4.452510E+03	9.036734E-03	1.796736E-03
4.462449E+03	8.898080E-03	1.765191E-03
4.472387E+03	8.756161E-03	1.733124E-03
4.482326E+03	8.611997E-03	1.700741E-03
4.492265E+03	8.466413E-03	1.668208E-03
4.502203E+03	8.320034E-03	1.635650E-03
4.512142E+03	8.173326E-03	1.603159E-03
4.522081E+03	8.026624E-03	1.570802E-03
4.532019E+03	7.880098E-03	1.538611E-03
4.541958E+03	7.733841E-03	1.506605E-03
4.551897E+03	7.588105E-03	1.474833E-03
4.561835E+03	7.442802E-03	1.443276E-03
4.571774E+03	7.297897E-03	1.411928E-03
4.581713E+03	7.153505E-03	1.380810E-03
4.591651E+03	7.009727E-03	1.349942E-03
4.601590E+03	6.866581E-03	1.319325E-03
4.611528E+03	6.724641E-03	1.289070E-03
4.621467E+03	6.584204E-03	1.259231E-03
4.631406E+03	6.446149E-03	1.229974E-03
4.641344E+03	6.311338E-03	1.201460E-03
4.651283E+03	6.180772E-03	1.173875E-03
4.661222E+03	6.055548E-03	1.147422E-03
4.671160E+03	5.936798E-03	1.122307E-03
4.681099E+03	5.825752E-03	1.098753E-03
4.691038E+03	5.723390E-03	1.076935E-03
4.700976E+03	5.630637E-03	1.057016E-03
4.710915E+03	5.548330E-03	1.039139E-03
4.720853E+03	5.476982E-03	1.023386E-03
4.730792E+03	5.417215E-03	1.009859E-03
4.740731E+03	5.369153E-03	9.985672E-04
4.750669E+03	5.333040E-03	9.895393E-04
4.760608E+03	5.308865E-03	9.827585E-04
4.770547E+03	5.296388E-03	9.781651E-04
4.780485E+03	5.295428E-03	9.757109E-04
4.790424E+03	5.305722E-03	9.753332E-04
4.800363E+03	5.326782E-03	9.769280E-04
4.810301E+03	5.358222E-03	9.804113E-04
4.820240E+03	5.399548E-03	9.856806E-04
4.830178E+03	5.450157E-03	9.926137E-04
4.840117E+03	5.509439E-03	1.001089E-03
4.850056E+03	5.576768E-03	1.010981E-03
4.859994E+03	5.651322E-03	1.022134E-03
4.869933E+03	5.732296E-03	1.034393E-03
4.879872E+03	5.818597E-03	1.047555E-03
4.889810E+03	5.909184E-03	1.061426E-03
4.899749E+03	6.002835E-03	1.075784E-03
4.909688E+03	6.098144E-03	1.090374E-03
4.919626E+03	6.193728E-03	1.104949E-03
4.929565E+03	6.288013E-03	1.119228E-03
4.939504E+03	6.379519E-03	1.132953E-03
4.949442E+03	6.466644E-03	1.145844E-03
4.959381E+03	6.547899E-03	1.157644E-03
4.969319E+03	6.621808E-03	1.168100E-03
4.979258E+03	6.687191E-03	1.177015E-03
4.989197E+03	6.742750E-03	1.184172E-03
4.999135E+03	6.787433E-03	1.189400E-03
5.009074E+03	6.820466E-03	1.192576E-03
5.019013E+03	6.841109E-03	1.193586E-03
5.028951E+03	6.848951E-03	1.192372E-03
5.038890E+03	6.843847E-03	1.188926E-03
5.048829E+03	6.825993E-03	1.183296E-03
5.058767E+03	6.795867E-03	1.175580E-03
5.068706E+03	6.754361E-03	1.165945E-03
5.078644E+03	6.702767E-03	1.154626E-03
5.088583E+03	6.642397E-03	1.141861E-03
5.098522E+03	6.574986E-03	1.127955E-03
5.108460E+03	6.501926E-03	1.113156E-03
5.118399E+03	6.424820E-03	1.097742E-03
5.128338E+03	6.344828E-03	1.081915E-03
5.138276E+03	6.262874E-03	1.065835E-03
5.148215E+03	6.179556E-03	1.049605E-03
5.158154E+03	6.095111E-03	1.033267E-03
5.168092E+03	6.009650E-03	1.016839E-03
5.178031E+03	5.923138E-03	1.000316E-03
5.187969E+03	5.835738E-03	9.837270E-04
5.197908E+03	5.747424E-03	9.670667E-04
5.207847E+03	5.658602E-03	9.504039E-04
5.217785E+03	5.569840E-03	9.338335E-04
5.227724E+03	5.481916E-03	9.174848E-04
5.237663E+03	5.395678E-03	9.014983E-04
5.247601E+03	5.312260E-03	8.860607E-04
5.257540E+03	5.232724E-03	8.713455E-04
5.267479E+03	5.158136E-03	8.575264E-04
5.277417E+03	5.089376E-03	8.447444E-04
5.287356E+03	5.027212E-03	8.331216E-04
5.297295E+03	4.971994E-03	8.227103E-04
5.307233E+03	4.923892E-03	8.135330E-04
5.317172E+03	4.882754E-03	8.055587E-04
5.327110E+03	4.848284E-03	7.987331E-04
5.337049E+03	4.819798E-03	7.929390E-04
5.346988E+03	4.796685E-03	7.880713E-04
5.356926E+03	4.778173E-03	7.839998E-04
5.366865E+03	4.763491E-03	7.805947E-04
5.376804E+03	4.751821E-03	7.777192E-04
5.386742E+03	4.742527E-03	7.752668E-04
5.396681E+03	4.735069E-03	7.731473E-04
5.406620E+03	4.728811E-03	7.712555E-04
5.416558E+03	4.723389E-03	7.695308E-04
5.426497E+03	4.718342E-03	7.678974E-04
5.436435E+03	4.713303E-03	7.662949E-04
5.446374E+03	4.708103E-03	7.646954E-04
5.456313E+03	4.702325E-03	7.630307E-04
5.466251E+03	4.695678E-03	7.612535E-04
5.476190E+03	4.687724E-03	7.592928E-04
5.486129E+03	4.678147E-03	7.570975E-04
5.496067E+03	4.666404E-03	7.545797E-04
5.506006E+03	4.652145E-03	7.516834E-04
5.515945E+03	4.635003E-03	7.483497E-04
5.525883E+03	4.614858E-03	7.445596E-04
5.535822E+03	4.591517E-03	7.402824E-04
5.545760E+03	4.565001E-03	7.355217E-04
5.555699E+03	4.535392E-03	7.302910E-04
5.565638E+03	4.502955E-03	7.246331E-04
5.575576E+03	4.467874E-03	7.185777E-04
5.585515E+03	4.430452E-03	7.121734E-04
5.595454E+03	4.390968E-03	7.054648E-04
5.605392E+03	4.349603E-03	6.984803E-04
5.615331E+03	4.306475E-03	6.912389E-04
5.625270E+03	4.261480E-03	6.837231E-04
5.635208E+03	4.214442E-03	6.759042E-04
5.645147E+03	4.165008E-03	6.677251E-04
5.655086E+03	4.112621E-03	6.590962E-04
5.665024E+03	4.056607E-03	6.499090E-04
5.674963E+03	3.996244E-03	6.400473E-04
5.684901E+03	3.930926E-03	6.294139E-04
5.694840E+03	3.860009E-03	6.179054E-04
5.704779E+03	3.783233E-03	6.054795E-04
5.714717E+03	3.700538E-03	5.921264E-04
5.724656E+03	3.612142E-03	5.778803E-04
5.734595E+03	3.518664E-03	5.628393E-04
5.744533E+03	3.421008E-03	5.471474E-04
5.754472E+03	3.320238E-03	5.309736E-04
5.764411E+03	3.217622E-03	5.145196E-04
5.774349E+03	3.114591E-03	4.980131E-04
5.784288E+03	3.012464E-03	4.816636E-04
5.794226E+03	2.912632E-03	4.656925E-04
5.804165E+03	2.816379E-03	4.503037E-04
5.814104E+03	2.724878E-03	4.356837E-04
5.824042E+03	2.639202E-03	4.220032E-04
5.833981E+03	2.560191E-03	4.093957E-04
5.843920E+03	2.488659E-03	3.979906E-04
5.853858E+03	2.425188E-03	3.878806E-04
5.863797E+03	2.370258E-03	3.791421E-04
5.873736E+03	2.324230E-03	3.718329E-04
5.883674E+03	2.287362E-03	3.659943E-04
5.893613E+03	2.259850E-03	3.616580E-04
5.903551E+03	2.241734E-03	3.588307E-04
5.913490E+03	2.233028E-03	3.575157E-04
5.923429E+03	2.233697E-03	3.577080E-04
5.933367E+03	2.243594E-03	3.593852E-04
5.943306E+03	2.262427E-03	3.625015E-04
5.953245E+03	2.289908E-03	3.670122E-04
5.963183E+03	2.325515E-03	3.728350E-04
5.973122E+03	2.368793E-03	3.798985E-04
5.983061E+03	2.419028E-03	3.880897E-04
5.992999E+03	2.475488E-03	3.972924E-04
6.002938E+03	2.537363E-03	4.073784E-04
6.012877E+03	2.603670E-03	4.181914E-04
6.022815E+03	2.673337E-03	4.295602E-04
6.032754E+03	2.745107E-03	4.412842E-04
6.042692E+03	2.817752E-03	4.531668E-04
6.052631E+03	2.889805E-03	4.649729E-04
6.062570E+03	2.959946E-03	4.764905E-04
6.072508E+03	3.026791E-03	4.874966E-04
6.082447E+03	3.089065E-03	4.977857E-04
6.092386E+03	3.145719E-03	5.071881E-04
6.102324E+03	3.196002E-03	5.155815E-04
6.112263E+03	3.239390E-03	5.228801E-04
6.122202E+03	3.275726E-03	5.290571E-04
6.132140E+03	3.305259E-03	5.341509E-04
6.142079E+03	3.328369E-03	5.382214E-04
6.152017E+03	3.345801E-03	5.413875E-04
6.161956E+03	3.358483E-03	5.437976E-04
6.171895E+03	3.367451E-03	5.456183E-04
6.181833E+03	3.373692E-03	5.470086E-04
6.191772E+03	3.378204E-03	5.481295E-04
6.201711E+03	3.381940E-03	5.491353E-04
6.211649E+03	3.385631E-03	5.501447E-04
6.221588E+03	3.389939E-03	5.512653E-04
6.231527E+03	3.395317E-03	5.525711E-04
6.241465E+03	3.402109E-03	5.541187E-04
6.251404E+03	3.410475E-03	5.559349E-04
6.261342E+03	3.420448E-03	5.580259E-04
6.271281E+03	3.431997E-03	5.603872E-04
6.281220E+03	3.444982E-03	5.629970E-04
6.291158E+03	3.459071E-03	5.658017E-04
6.301097E+03	3.473927E-03	5.687463E-04
6.311036E+03	3.489130E-03	5.717622E-04
6.320974E+03	3.504096E-03	5.747534E-04
6.330913E+03	3.518340E-03	5.776400E-04
6.340852E+03	3.531257E-03	5.803219E-04
6.350790E+03	3.542244E-03	5.826994E-04
6.360729E+03	3.550734E-03	5.846773E-04
6.370667E+03	3.556310E-03	5.861858E-04
6.380606E+03	3.558487E-03	5.871430E-04
6.390545E+03	3.557045E-03	5.875103E-04
6.400483E+03	3.551797E-03	5.872549E-04
6.410422E+03	3.542707E-03	5.863683E-04
6.420361E+03	3.529939E-03	5.848753E-04
6.430299E+03	3.513739E-03	5.828144E-04
6.440238E+03	3.494521E-03	5.802521E-04
6.450177E+03	3.472618E-03	5.772416E-04
6.460115E+03	3.448625E-03	5.738802E-04
6.470054E+03	3.423047E-03	5.702506E-04
6.479993E+03	3.396322E-03	5.664243E-04
6.489931E+03	3.368955E-03	5.624847E-04
6.499870E+03	3.341332E-03	5.584956E-04
6.509808E+03	3.313764E-03	5.545086E-04
6.519747E+03	3.286482E-03	5.505620E-04
6.529686E+03	3.259694E-03	5.466905E-04
6.539624E+03	3.233444E-03	5.429014E-04
6.549563E+03	3.207787E-03	5.392040E-04
6.559502E+03	3.182811E-03	5.356132E-04
6.569440E+03	3.158540E-03	5.321331E-04
6.579379E+03	3.134953E-03	5.287603E-04
6.589318E+03	3.112139E-03	5.255100E-04
6.599256E+03	3.090091E-03	5.223812E-04
6.609195E+03	3.068961E-03	5.193999E-04
6.619133E+03	3.048688E-03	5.165560E-04
6.629072E+03	3.029297E-03	5.138540E-04
6.639011E+03	3.010832E-03	5.113018E-04
6.648949E+03	2.993241E-03	5.088908E-04
6.658888E+03	2.976361E-03	5.065937E-04
6.668827E+03	2.960026E-03	5.043823E-04
6.678765E+03	2.944075E-03	5.022294E-04
6.688704E+03	2.928218E-03	5.000856E-04
6.698643E+03	2.912265E-03	4.979182E-04
6.708581E+03	2.895880E-03	4.956697E-04
6.718520E+03	2.878961E-03	4.933218E-04
6.728458E+03	2.861231E-03	4.908271E-04
6.738397E+03	2.842666E-03	4.881806E-04
6.748336E+03	2.823086E-03	4.853509E-04
6.758274E+03	2.802527E-03	4.823435E-04
6.768213E+03	2.781044E-03	4.791674E-04
6.778152E+03	2.758720E-03	4.758359E-04
6.788090E+03	2.735813E-03	4.723935E-04
6.798029E+03	2.712556E-03	4.688798E-04
6.807968E+03	2.689342E-03	4.653627E-04
6.817906E+03	2.666465E-03	4.618933E-04
6.827845E+03	2.644460E-03	4.585641E-04
6.837784E+03	2.623726E-03	4.554453E-04
6.847722E+03	2.604700E-03	4.526131E-04
6.857661E+03	2.587713E-03	4.501263E-04
6.867599E+03	2.573144E-03	4.480518E-04
6.877538E+03	2.560996E-03	4.463914E-04
6.887477E+03	2.551427E-03	4.451741E-04
6.897415E+03	2.544224E-03	4.443640E-04
6.907354E+03	2.539167E-03	4.439239E-04
6.917293E+03	2.536005E-03	4.438107E-04
6.927231E+03	2.534331E-03	4.439544E-04
6.937170E+03	2.533755E-03	4.442873E-04
6.947109E+03	2.533869E-03	4.447381E-04
6.957047E+03	2.534258E-03	4.452345E-04
6.966986E+03	2.534509E-03	4.457038E-04
6.976924E+03	2.534167E-03	4.460660E-04
6.986863E+03	2.532939E-03	4.462691E-04
6.996802E+03	2.530298E-03	4.462196E-04
7.006740E+03	2.526037E-03	4.458805E-04
7.016679E+03	2.519680E-03	4.451667E-04
7.026618E+03	2.511040E-03	4.440444E-04
7.036556E+03	2.499840E-03	4.424634E-04
7.046495E+03	2.485928E-03	4.403955E-04
7.056434E+03	2.469294E-03	4.378378E-04
7.066372E+03	2.449887E-03	4.347801E-04
7.076311E+03	2.427918E-03	4.312585E-04
7.086249E+03	2.403602E-03	4.273103E-04
7.096188E+03	2.377336E-03	4.230051E-04
7.106127E+03	2.349525E-03	4.184143E-04
7.116065E+03	2.320549E-03	4.136050E-04
7.126004E+03	2.290887E-03	4.086623E-04
7.135943E+03	2.260858E-03	4.036430E-04
7.145881E+03	2.230941E-03	3.986325E-04
7.155820E+03	2.201437E-03	3.936851E-04
7.165759E+03	2.172614E-03	3.888488E-04
7.175697E+03	2.144785E-03	3.841803E-04
7.185636E+03	2.118180E-03	3.797214E-04
7.195575E+03	2.092946E-03	3.754992E-04
7.205513E+03	2.069234E-03	3.715412E-04
7.215452E+03	2.047151E-03	3.678678E-04
7.225390E+03	2.026764E-03	3.644914E-04
7.235329E+03	2.008092E-03	3.614169E-04
7.245268E+03	1.991033E-03	3.586263E-04
7.255206E+03	1.975602E-03	3.561233E-04
7.265145E+03	1.961650E-03	3.538816E-04
7.275084E+03	1.948986E-03	3.518677E-04
7.285022E+03	1.937469E-03	3.500567E-04
7.294961E+03	1.926813E-03	3.483973E-04
7.304900E+03	1.916800E-03	3.468508E-04
7.314838E+03	1.907226E-03	3.453804E-04
7.324777E+03	1.897873E-03	3.439470E-04
7.334715E+03	1.888654E-03	3.425348E-04
7.344654E+03	1.879389E-03	3.411117E-04
7.354593E+03	1.870177E-03	3.396954E-04
7.364531E+03	1.861036E-03	3.382895E-04
7.374470E+03	1.852178E-03	3.369326E-04
7.384409E+03	1.843788E-03	3.356587E-04
7.394347E+03	1.836117E-03	3.345137E-04
7.404286E+03	1.829438E-03	3.335480E-04
7.414225E+03	1.823879E-03	3.327853E-04
7.424163E+03	1.819588E-03	3.322533E-04
7.434102E+03	1.816327E-03	3.319090E-04
7.444040E+03	1.813783E-03	3.316957E-04
7.453979E+03	1.811291E-03	3.314923E-04
7.463918E+03	1.808133E-03	3.311674E-04
7.473856E+03	1.803275E-03	3.305314E-04
7.483795E+03	1.795629E-03	3.293837E-04
7.493734E+03	1.784129E-03	3.275280E-04
7.503672E+03	1.767741E-03	3.247728E-04
7.513611E+03	1.745676E-03	3.209705E-04
7.523550E+03	1.717237E-03	3.159910E-04
7.533488E+03	1.682180E-03	3.097865E-04
7.543427E+03	1.640646E-03	3.023799E-04
7.553366E+03	1.593109E-03	2.938558E-04
7.563304E+03	1.540499E-03	2.843832E-04
7.573243E+03	1.483983E-03	2.741755E-04
7.583181E+03	1.425026E-03	2.635012E-04
7.593120E+03	1.365012E-03	2.526157E-04
7.603059E+03	1.305374E-03	2.417835E-04
7.612997E+03	1.247230E-03	2.312118E-04
7.622936E+03	1.191561E-03	2.210829E-04
7.632875E+03	1.138969E-03	2.115101E-04
7.642813E+03	1.089935E-03	2.025838E-04
7.652752E+03	1.044668E-03	1.943442E-04
7.662691E+03	1.003263E-03	1.868110E-04
7.672629E+03	9.657150E-04	1.799848E-04
7.682568E+03	9.319554E-04	1.738549E-04
7.692506E+03	9.018743E-04	1.684023E-04
7.702445E+03	8.753218E-04	1.636009E-04
7.712384E+03	8.521995E-04	1.594341E-04
