#wls	flux	fluxerr
1.590182E+03	4.341745E-02	1.678932E-03
1.629937E+03	3.606801E-02	1.378427E-03
1.669691E+03	2.975944E-02	1.123762E-03
1.709446E+03	2.440249E-02	9.102652E-04
1.749200E+03	1.990494E-02	7.332902E-04
1.788955E+03	1.617279E-02	5.882743E-04
1.828710E+03	1.310720E-02	4.706363E-04
1.868464E+03	1.062020E-02	3.763501E-04
1.908219E+03	8.625850E-03	3.016135E-04
1.947973E+03	7.046711E-03	2.430718E-04
1.987728E+03	5.814370E-03	1.978171E-04
2.027482E+03	4.870542E-03	1.634066E-04
2.067237E+03	4.166946E-03	1.378368E-04
2.106991E+03	3.665305E-03	1.195203E-04
2.146746E+03	3.337334E-03	1.072636E-04
2.186501E+03	3.165046E-03	1.002530E-04
2.226255E+03	3.142695E-03	9.809256E-05
2.266010E+03	3.277218E-03	1.007896E-04
2.305764E+03	3.589431E-03	1.087612E-04
2.345519E+03	4.116553E-03	1.228783E-04
2.385273E+03	4.914449E-03	1.444970E-04
2.425028E+03	6.058088E-03	1.754303E-04
2.464782E+03	7.638223E-03	2.178124E-04
2.504537E+03	9.747411E-03	2.736721E-04
2.544292E+03	1.245720E-02	3.442994E-04
2.584046E+03	1.578123E-02	4.292875E-04
2.623801E+03	1.964211E-02	5.257736E-04
2.663555E+03	2.389159E-02	6.291657E-04
2.703310E+03	2.833809E-02	7.340088E-04
2.743064E+03	3.275854E-02	8.343785E-04
2.782819E+03	3.693297E-02	9.248135E-04
2.822573E+03	4.068134E-02	1.001215E-03
2.862328E+03	4.389369E-02	1.061490E-03
2.902083E+03	4.653953E-02	1.105620E-03
2.941837E+03	4.867471E-02	1.135654E-03
2.981592E+03	5.041843E-02	1.154999E-03
2.991530E+03	5.081374E-02	1.158694E-03
3.001469E+03	5.119736E-02	1.162048E-03
3.011408E+03	5.157226E-02	1.165132E-03
3.021346E+03	5.194384E-02	1.168071E-03
3.031285E+03	5.231407E-02	1.170909E-03
3.041223E+03	5.268613E-02	1.173719E-03
3.051162E+03	5.306439E-02	1.176598E-03
3.061101E+03	5.345097E-02	1.179590E-03
3.071039E+03	5.384916E-02	1.182764E-03
3.080978E+03	5.426449E-02	1.186238E-03
3.090917E+03	5.469802E-02	1.190029E-03
3.100855E+03	5.515414E-02	1.194226E-03
3.110794E+03	5.563500E-02	1.198867E-03
3.120733E+03	5.614718E-02	1.204086E-03
3.130671E+03	5.669054E-02	1.209870E-03
3.140610E+03	5.726936E-02	1.216299E-03
3.150549E+03	5.788784E-02	1.223451E-03
3.160487E+03	5.854899E-02	1.231377E-03
3.170426E+03	5.925354E-02	1.240078E-03
3.180364E+03	6.000761E-02	1.249668E-03
3.190303E+03	6.081166E-02	1.260141E-03
3.200242E+03	6.166930E-02	1.271555E-03
3.210180E+03	6.258168E-02	1.283918E-03
3.220119E+03	6.355194E-02	1.297276E-03
3.230058E+03	6.458176E-02	1.311645E-03
3.239996E+03	6.567241E-02	1.327032E-03
3.249935E+03	6.682359E-02	1.343412E-03
3.259874E+03	6.803661E-02	1.360791E-03
3.269812E+03	6.931095E-02	1.379141E-03
3.279751E+03	7.064404E-02	1.398391E-03
3.289689E+03	7.203451E-02	1.418496E-03
3.299628E+03	7.347742E-02	1.439340E-03
3.309567E+03	7.496845E-02	1.460824E-03
3.319505E+03	7.649919E-02	1.482769E-03
3.329444E+03	7.806006E-02	1.504978E-03
3.339383E+03	7.963882E-02	1.527206E-03
3.349321E+03	8.122025E-02	1.549157E-03
3.359260E+03	8.278620E-02	1.570487E-03
3.369199E+03	8.431355E-02	1.590763E-03
3.379137E+03	8.577845E-02	1.609550E-03
3.389076E+03	8.715016E-02	1.626294E-03
3.399014E+03	8.840038E-02	1.640498E-03
3.408953E+03	8.949375E-02	1.651546E-03
3.418892E+03	9.039710E-02	1.658880E-03
3.428830E+03	9.107769E-02	1.661960E-03
3.438769E+03	9.150418E-02	1.660288E-03
3.448708E+03	9.165197E-02	1.653498E-03
3.458646E+03	9.149977E-02	1.641295E-03
3.468585E+03	9.103354E-02	1.623522E-03
3.478524E+03	9.024978E-02	1.600216E-03
3.488462E+03	8.915493E-02	1.571587E-03
3.498401E+03	8.776932E-02	1.538090E-03
3.508340E+03	8.612028E-02	1.500290E-03
3.518278E+03	8.425003E-02	1.459000E-03
3.528217E+03	8.220728E-02	1.415126E-03
3.538155E+03	8.004795E-02	1.369676E-03
3.548094E+03	7.783012E-02	1.323675E-03
3.558033E+03	7.561423E-02	1.278160E-03
3.567971E+03	7.346186E-02	1.234166E-03
3.577910E+03	7.142849E-02	1.192599E-03
3.587849E+03	6.956948E-02	1.154340E-03
3.597787E+03	6.793422E-02	1.120148E-03
3.607726E+03	6.656715E-02	1.090684E-03
3.617665E+03	6.550970E-02	1.066536E-03
3.627603E+03	6.480090E-02	1.048240E-03
3.637542E+03	6.447625E-02	1.036256E-03
3.647480E+03	6.457184E-02	1.031041E-03
3.657419E+03	6.512015E-02	1.032978E-03
3.667358E+03	6.615615E-02	1.042474E-03
3.677296E+03	6.771481E-02	1.059923E-03
3.687235E+03	6.983198E-02	1.085717E-03
3.697174E+03	7.254256E-02	1.120217E-03
3.707112E+03	7.588246E-02	1.163785E-03
3.717051E+03	7.988396E-02	1.216711E-03
3.726990E+03	8.457566E-02	1.279217E-03
3.736928E+03	8.997862E-02	1.351397E-03
3.746867E+03	9.610438E-02	1.433195E-03
3.756805E+03	1.029491E-01	1.524322E-03
3.766744E+03	1.104916E-01	1.624231E-03
3.776683E+03	1.186926E-01	1.732128E-03
3.786621E+03	1.274832E-01	1.846799E-03
3.796560E+03	1.367734E-01	1.966758E-03
3.806499E+03	1.464489E-01	2.090211E-03
3.816437E+03	1.563681E-01	2.215030E-03
3.826376E+03	1.663744E-01	2.338930E-03
3.836315E+03	1.763028E-01	2.459583E-03
3.846253E+03	1.859848E-01	2.574681E-03
3.856192E+03	1.952592E-01	2.682091E-03
3.866131E+03	2.039812E-01	2.779973E-03
3.876069E+03	2.120346E-01	2.866938E-03
3.886008E+03	2.193311E-01	2.942021E-03
3.895946E+03	2.258161E-01	3.004746E-03
3.905885E+03	2.314695E-01	3.055115E-03
3.915824E+03	2.363027E-01	3.093552E-03
3.925762E+03	2.403581E-01	3.120882E-03
3.935701E+03	2.436991E-01	3.138177E-03
3.945640E+03	2.464019E-01	3.146652E-03
3.955578E+03	2.485574E-01	3.147670E-03
3.965517E+03	2.502495E-01	3.142473E-03
3.975456E+03	2.515566E-01	3.132194E-03
3.985394E+03	2.525360E-01	3.117673E-03
3.995333E+03	2.532194E-01	3.099416E-03
4.005271E+03	2.536152E-01	3.077629E-03
4.015210E+03	2.536890E-01	3.052002E-03
4.025149E+03	2.533824E-01	3.021952E-03
4.035087E+03	2.526139E-01	2.986645E-03
4.045026E+03	2.512881E-01	2.945119E-03
4.054965E+03	2.493072E-01	2.896422E-03
4.064903E+03	2.465883E-01	2.839808E-03
4.074842E+03	2.430677E-01	2.774786E-03
4.084781E+03	2.387130E-01	2.701236E-03
4.094719E+03	2.335291E-01	2.619467E-03
4.104658E+03	2.275488E-01	2.530092E-03
4.114596E+03	2.208449E-01	2.434143E-03
4.124535E+03	2.135181E-01	2.332927E-03
4.134474E+03	2.056952E-01	2.227985E-03
4.144412E+03	1.975211E-01	2.121003E-03
4.154351E+03	1.891527E-01	2.013731E-03
4.164290E+03	1.807521E-01	1.907916E-03
4.174228E+03	1.724804E-01	1.805230E-03
4.184167E+03	1.644938E-01	1.707237E-03
4.194106E+03	1.569409E-01	1.615366E-03
4.204044E+03	1.499548E-01	1.530840E-03
4.213983E+03	1.436516E-01	1.454667E-03
4.223922E+03	1.381309E-01	1.387655E-03
4.233860E+03	1.334688E-01	1.330357E-03
4.243799E+03	1.297128E-01	1.283020E-03
4.253737E+03	1.268861E-01	1.245656E-03
4.263676E+03	1.249880E-01	1.218043E-03
4.273615E+03	1.239933E-01	1.199732E-03
4.283553E+03	1.238482E-01	1.190023E-03
4.293492E+03	1.244747E-01	1.188006E-03
4.303431E+03	1.257760E-01	1.192626E-03
4.313369E+03	1.276259E-01	1.202588E-03
4.323308E+03	1.298828E-01	1.216490E-03
4.333247E+03	1.323961E-01	1.232886E-03
4.343185E+03	1.350339E-01	1.250543E-03
4.353124E+03	1.377022E-01	1.268604E-03
4.363062E+03	1.403352E-01	1.286492E-03
4.373001E+03	1.428878E-01	1.303830E-03
4.382940E+03	1.453360E-01	1.320429E-03
4.392878E+03	1.476659E-01	1.336181E-03
4.402817E+03	1.498732E-01	1.351061E-03
4.412756E+03	1.519639E-01	1.365135E-03
4.422694E+03	1.539458E-01	1.378482E-03
4.432633E+03	1.558313E-01	1.391214E-03
4.442572E+03	1.576357E-01	1.403471E-03
4.452510E+03	1.593470E-01	1.415140E-03
4.462449E+03	1.608703E-01	1.425378E-03
4.472387E+03	1.620617E-01	1.432911E-03
4.482326E+03	1.627952E-01	1.436631E-03
4.492265E+03	1.629877E-01	1.435810E-03
4.502203E+03	1.625970E-01	1.430081E-03
4.512142E+03	1.616182E-01	1.419406E-03
4.522081E+03	1.600833E-01	1.404060E-03
4.532019E+03	1.580490E-01	1.384537E-03
4.541958E+03	1.555862E-01	1.361446E-03
4.551897E+03	1.527748E-01	1.335473E-03
4.561835E+03	1.496898E-01	1.307258E-03
4.571774E+03	1.464061E-01	1.277438E-03
4.581713E+03	1.429965E-01	1.246633E-03
4.591651E+03	1.395277E-01	1.215403E-03
4.601590E+03	1.360575E-01	1.184237E-03
4.611528E+03	1.326479E-01	1.153659E-03
4.621467E+03	1.293448E-01	1.124051E-03
4.631406E+03	1.261936E-01	1.095794E-03
4.641344E+03	1.232262E-01	1.069151E-03
4.651283E+03	1.204641E-01	1.044295E-03
4.661222E+03	1.179160E-01	1.021289E-03
4.671160E+03	1.155772E-01	1.000080E-03
4.681099E+03	1.134336E-01	9.805386E-04
4.691038E+03	1.114577E-01	9.624137E-04
4.700976E+03	1.096136E-01	9.453890E-04
4.710915E+03	1.078615E-01	9.291138E-04
4.720853E+03	1.061574E-01	9.132035E-04
4.730792E+03	1.044649E-01	8.973421E-04
4.740731E+03	1.027470E-01	8.812106E-04
4.750669E+03	1.009824E-01	8.646278E-04
4.760608E+03	9.916156E-02	8.475141E-04
4.770547E+03	9.728738E-02	8.298986E-04
4.780485E+03	9.538317E-02	8.119845E-04
4.790424E+03	9.348998E-02	7.941252E-04
4.800363E+03	9.165779E-02	7.767472E-04
4.810301E+03	8.994443E-02	7.603396E-04
4.820240E+03	8.840823E-02	7.453911E-04
4.830178E+03	8.710212E-02	7.323385E-04
4.840117E+03	8.606912E-02	7.215301E-04
4.850056E+03	8.533844E-02	7.131926E-04
4.859994E+03	8.492476E-02	7.074270E-04
4.869933E+03	8.483311E-02	7.042504E-04
4.879872E+03	8.505460E-02	7.035622E-04
4.889810E+03	8.557500E-02	7.052169E-04
4.899749E+03	8.637475E-02	7.090248E-04
4.909688E+03	8.743120E-02	7.147721E-04
4.919626E+03	8.872247E-02	7.222522E-04
4.929565E+03	9.022517E-02	7.312485E-04
4.939504E+03	9.191983E-02	7.415780E-04
4.949442E+03	9.378646E-02	7.530556E-04
4.959381E+03	9.580639E-02	7.655093E-04
4.969319E+03	9.796017E-02	7.787633E-04
4.979258E+03	1.002301E-01	7.926585E-04
4.989197E+03	1.025906E-01	8.069777E-04
4.999135E+03	1.050132E-01	8.214852E-04
5.009074E+03	1.074645E-01	8.359117E-04
5.019013E+03	1.099024E-01	8.499274E-04
5.028951E+03	1.122776E-01	8.631584E-04
5.038890E+03	1.145358E-01	8.751992E-04
5.048829E+03	1.166196E-01	8.856360E-04
5.058767E+03	1.184708E-01	8.940585E-04
5.068706E+03	1.200353E-01	9.001022E-04
5.078644E+03	1.212676E-01	9.034794E-04
5.088583E+03	1.221301E-01	9.039680E-04
5.098522E+03	1.226008E-01	9.014744E-04
5.108460E+03	1.226631E-01	8.959456E-04
5.118399E+03	1.223170E-01	8.874558E-04
5.128338E+03	1.215688E-01	8.761243E-04
5.138276E+03	1.204350E-01	8.621421E-04
5.148215E+03	1.189396E-01	8.457499E-04
5.158154E+03	1.171147E-01	8.272395E-04
5.168092E+03	1.150056E-01	8.069879E-04
5.178031E+03	1.126693E-01	7.854444E-04
5.187969E+03	1.101768E-01	7.631420E-04
5.197908E+03	1.076017E-01	7.406166E-04
5.207847E+03	1.050288E-01	7.184667E-04
5.217785E+03	1.025414E-01	6.972650E-04
5.227724E+03	1.002157E-01	6.775209E-04
5.237663E+03	9.811421E-02	6.596411E-04
5.247601E+03	9.628853E-02	6.439495E-04
5.257540E+03	9.476901E-02	6.306243E-04
5.267479E+03	9.356447E-02	6.196990E-04
5.277417E+03	9.266399E-02	6.110794E-04
5.287356E+03	9.204096E-02	6.045732E-04
5.297295E+03	9.164827E-02	5.998603E-04
5.307233E+03	9.142865E-02	5.965623E-04
5.317172E+03	9.131926E-02	5.942718E-04
5.327110E+03	9.125888E-02	5.925980E-04
5.337049E+03	9.118703E-02	5.911592E-04
5.346988E+03	9.105801E-02	5.896689E-04
5.356926E+03	9.084126E-02	5.879241E-04
5.366865E+03	9.052141E-02	5.858120E-04
5.376804E+03	9.009575E-02	5.832995E-04
5.386742E+03	8.958030E-02	5.804716E-04
5.396681E+03	8.901727E-02	5.775816E-04
5.406620E+03	8.846440E-02	5.749839E-04
5.416558E+03	8.798662E-02	5.730823E-04
5.426497E+03	8.763724E-02	5.722093E-04
5.436435E+03	8.745004E-02	5.725747E-04
5.446374E+03	8.743487E-02	5.742355E-04
5.456313E+03	8.757673E-02	5.770880E-04
5.466251E+03	8.785022E-02	5.809601E-04
5.476190E+03	8.821837E-02	5.856023E-04
5.486129E+03	8.864183E-02	5.907462E-04
5.496067E+03	8.907918E-02	5.961062E-04
5.506006E+03	8.949853E-02	6.014563E-04
5.515945E+03	8.987334E-02	6.066031E-04
5.525883E+03	9.018588E-02	6.114100E-04
5.535822E+03	9.042073E-02	6.157539E-04
5.545760E+03	9.056945E-02	6.195576E-04
5.555699E+03	9.062687E-02	6.227658E-04
5.565638E+03	9.059280E-02	6.253571E-04
5.575576E+03	9.046631E-02	6.273052E-04
5.585515E+03	9.024897E-02	6.286020E-04
5.595454E+03	8.994196E-02	6.292374E-04
5.605392E+03	8.954539E-02	6.291946E-04
5.615331E+03	8.906170E-02	6.284743E-04
5.625270E+03	8.849319E-02	6.270774E-04
5.635208E+03	8.784644E-02	6.250363E-04
5.645147E+03	8.713064E-02	6.224040E-04
5.655086E+03	8.635764E-02	6.192546E-04
5.665024E+03	8.554277E-02	6.156895E-04
5.674963E+03	8.470589E-02	6.118454E-04
5.684901E+03	8.387379E-02	6.079122E-04
5.694840E+03	8.307259E-02	6.040782E-04
5.704779E+03	8.233311E-02	6.005688E-04
5.714717E+03	8.168311E-02	5.975902E-04
5.724656E+03	8.114598E-02	5.953191E-04
5.734595E+03	8.073836E-02	5.938840E-04
5.744533E+03	8.046479E-02	5.933251E-04
5.754472E+03	8.031708E-02	5.935885E-04
5.764411E+03	8.027681E-02	5.945434E-04
5.774349E+03	8.031590E-02	5.959856E-04
5.784288E+03	8.039350E-02	5.976142E-04
5.794226E+03	8.046594E-02	5.991053E-04
5.804165E+03	8.048497E-02	6.000990E-04
5.814104E+03	8.040201E-02	6.002316E-04
5.824042E+03	8.017291E-02	5.991715E-04
5.833981E+03	7.975740E-02	5.966166E-04
5.843920E+03	7.912755E-02	5.923571E-04
5.853858E+03	7.826303E-02	5.862416E-04
5.863797E+03	7.715624E-02	5.782156E-04
5.873736E+03	7.581074E-02	5.683100E-04
5.883674E+03	7.424040E-02	5.566349E-04
5.893613E+03	7.246922E-02	5.433776E-04
5.903551E+03	7.052619E-02	5.287646E-04
5.913490E+03	6.844739E-02	5.130759E-04
5.923429E+03	6.627351E-02	4.966272E-04
5.933367E+03	6.404574E-02	4.797373E-04
5.943306E+03	6.180304E-02	4.627078E-04
5.953245E+03	5.958505E-02	4.458450E-04
5.963183E+03	5.742421E-02	4.294000E-04
5.973122E+03	5.535237E-02	4.136180E-04
5.983061E+03	5.339234E-02	3.986759E-04
5.992999E+03	5.156470E-02	3.847322E-04
6.002938E+03	4.988745E-02	3.719255E-04
6.012877E+03	4.837528E-02	3.603684E-04
6.022815E+03	4.704229E-02	3.501684E-04
6.032754E+03	4.590165E-02	3.414255E-04
6.042692E+03	4.497020E-02	3.342666E-04
6.052631E+03	4.426315E-02	3.288061E-04
6.062570E+03	4.379957E-02	3.251874E-04
6.072508E+03	4.359836E-02	3.235529E-04
6.082447E+03	4.367876E-02	3.240488E-04
6.092386E+03	4.405835E-02	3.268099E-04
6.102324E+03	4.475106E-02	3.319464E-04
6.112263E+03	4.576510E-02	3.395288E-04
6.122202E+03	4.710209E-02	3.495816E-04
6.132140E+03	4.875398E-02	3.620615E-04
6.142079E+03	5.069939E-02	3.768302E-04
6.152017E+03	5.290804E-02	3.936869E-04
6.161956E+03	5.533796E-02	4.123474E-04
6.171895E+03	5.793532E-02	4.324414E-04
6.181833E+03	6.063443E-02	4.535116E-04
6.191772E+03	6.336230E-02	4.750448E-04
6.201711E+03	6.604091E-02	4.964875E-04
6.211649E+03	6.858853E-02	5.172525E-04
6.221588E+03	7.092829E-02	5.367810E-04
6.231527E+03	7.298927E-02	5.545492E-04
6.241465E+03	7.471182E-02	5.701065E-04
6.251404E+03	7.605000E-02	5.830922E-04
6.261342E+03	7.697433E-02	5.932473E-04
6.271281E+03	7.747549E-02	6.004508E-04
6.281220E+03	7.756375E-02	6.047238E-04
6.291158E+03	7.726666E-02	6.062165E-04
6.301097E+03	7.663196E-02	6.052366E-04
6.311036E+03	7.572469E-02	6.022330E-04
6.320974E+03	7.462034E-02	5.977479E-04
6.330913E+03	7.340783E-02	5.924464E-04
6.340852E+03	7.218258E-02	5.870661E-04
6.350790E+03	7.104400E-02	5.824010E-04
6.360729E+03	7.008820E-02	5.792451E-04
6.370667E+03	6.936520E-02	5.780363E-04
6.380606E+03	6.883752E-02	5.784939E-04
6.390545E+03	6.845217E-02	5.801980E-04
6.400483E+03	6.816590E-02	5.827987E-04
6.410422E+03	6.794587E-02	5.860244E-04
6.420361E+03	6.776766E-02	5.896677E-04
6.430299E+03	6.761283E-02	5.935671E-04
6.440238E+03	6.746898E-02	5.976093E-04
6.450177E+03	6.732390E-02	6.016790E-04
6.460115E+03	6.717228E-02	6.057199E-04
6.470054E+03	6.700865E-02	6.096724E-04
6.479993E+03	6.682746E-02	6.134748E-04
6.489931E+03	6.662588E-02	6.170890E-04
6.499870E+03	6.640037E-02	6.204695E-04
6.509808E+03	6.614750E-02	6.235712E-04
6.519747E+03	6.586393E-02	6.263487E-04
6.529686E+03	6.554762E-02	6.287684E-04
6.539624E+03	6.519502E-02	6.307817E-04
6.549563E+03	6.480460E-02	6.323587E-04
6.559502E+03	6.437683E-02	6.334894E-04
6.569440E+03	6.391236E-02	6.341658E-04
6.579379E+03	6.341212E-02	6.343836E-04
6.589318E+03	6.288023E-02	6.341711E-04
6.599256E+03	6.231930E-02	6.335433E-04
6.609195E+03	6.173562E-02	6.325538E-04
6.619133E+03	6.113149E-02	6.312178E-04
6.629072E+03	6.051132E-02	6.295736E-04
6.639011E+03	5.988048E-02	6.276711E-04
6.648949E+03	5.924322E-02	6.255506E-04
6.658888E+03	5.860279E-02	6.232432E-04
6.668827E+03	5.796364E-02	6.207944E-04
6.678765E+03	5.733126E-02	6.182625E-04
6.688704E+03	5.670915E-02	6.156858E-04
6.698643E+03	5.610281E-02	6.131260E-04
6.708581E+03	5.551449E-02	6.106106E-04
6.718520E+03	5.494998E-02	6.082069E-04
6.728458E+03	5.441046E-02	6.059328E-04
6.738397E+03	5.390023E-02	6.038414E-04
6.748336E+03	5.341875E-02	6.019320E-04
6.758274E+03	5.296737E-02	6.002256E-04
6.768213E+03	5.254547E-02	5.987210E-04
6.778152E+03	5.215068E-02	5.973962E-04
6.788090E+03	5.178185E-02	5.962431E-04
6.798029E+03	5.143539E-02	5.952247E-04
6.807968E+03	5.110937E-02	5.943225E-04
6.817906E+03	5.079901E-02	5.934841E-04
6.827845E+03	5.050342E-02	5.927016E-04
6.837784E+03	5.021909E-02	5.919361E-04
6.847722E+03	4.994392E-02	5.911648E-04
6.857661E+03	4.967524E-02	5.903572E-04
6.867599E+03	4.941349E-02	5.895201E-04
6.877538E+03	4.915477E-02	5.886078E-04
6.887477E+03	4.890109E-02	5.876454E-04
6.897415E+03	4.864994E-02	5.866036E-04
6.907354E+03	4.840098E-02	5.854790E-04
6.917293E+03	4.815496E-02	5.842817E-04
6.927231E+03	4.791102E-02	5.830023E-04
6.937170E+03	4.766955E-02	5.816461E-04
6.947109E+03	4.743111E-02	5.802212E-04
6.957047E+03	4.719643E-02	5.787375E-04
6.966986E+03	4.696637E-02	5.772069E-04
6.976924E+03	4.674089E-02	5.756301E-04
6.986863E+03	4.652253E-02	5.740396E-04
6.996802E+03	4.630906E-02	5.724093E-04
7.006740E+03	4.610341E-02	5.707769E-04
7.016679E+03	4.590258E-02	5.691065E-04
7.026618E+03	4.570766E-02	5.674130E-04
7.036556E+03	4.551654E-02	5.656713E-04
7.046495E+03	4.532752E-02	5.638617E-04
7.056434E+03	4.513942E-02	5.619706E-04
7.066372E+03	4.494803E-02	5.599468E-04
7.076311E+03	4.475170E-02	5.577707E-04
7.086249E+03	4.454697E-02	5.554005E-04
7.096188E+03	4.433223E-02	5.528176E-04
7.106127E+03	4.410521E-02	5.499949E-04
7.116065E+03	4.386304E-02	5.468982E-04
7.126004E+03	4.360503E-02	5.435211E-04
7.135943E+03	4.332831E-02	5.398297E-04
7.145881E+03	4.303412E-02	5.358420E-04
7.155820E+03	4.272159E-02	5.315494E-04
7.165759E+03	4.239034E-02	5.269506E-04
7.175697E+03	4.204229E-02	5.220723E-04
7.185636E+03	4.167884E-02	5.169352E-04
7.195575E+03	4.130077E-02	5.115527E-04
7.205513E+03	4.090994E-02	5.059510E-04
7.215452E+03	4.050821E-02	5.001571E-04
7.225390E+03	4.009738E-02	4.941970E-04
7.235329E+03	3.967912E-02	4.880949E-04
7.245268E+03	3.925327E-02	4.818525E-04
7.255206E+03	3.882284E-02	4.755108E-04
7.265145E+03	3.838823E-02	4.690782E-04
7.275084E+03	3.794978E-02	4.625629E-04
7.285022E+03	3.750937E-02	4.559914E-04
7.294961E+03	3.706658E-02	4.493622E-04
7.304900E+03	3.662256E-02	4.426929E-04
7.314838E+03	3.617844E-02	4.360010E-04
7.324777E+03	3.573465E-02	4.292950E-04
7.334715E+03	3.529316E-02	4.226020E-04
7.344654E+03	3.485299E-02	4.159137E-04
7.354593E+03	3.441710E-02	4.092685E-04
7.364531E+03	3.398569E-02	4.026718E-04
7.374470E+03	3.356158E-02	3.961600E-04
7.384409E+03	3.314680E-02	3.897592E-04
7.394347E+03	3.274460E-02	3.835098E-04
7.404286E+03	3.235949E-02	3.774659E-04
7.414225E+03	3.199516E-02	3.716714E-04
7.424163E+03	3.165832E-02	3.662043E-04
7.434102E+03	3.135225E-02	3.611014E-04
7.444040E+03	3.108282E-02	3.564287E-04
7.453979E+03	3.085332E-02	3.522213E-04
7.463918E+03	3.066885E-02	3.485342E-04
7.473856E+03	3.053072E-02	3.453783E-04
7.483795E+03	3.043963E-02	3.427573E-04
7.493734E+03	3.039556E-02	3.406668E-04
7.503672E+03	3.039635E-02	3.390785E-04
7.513611E+03	3.043977E-02	3.379640E-04
7.523550E+03	3.051962E-02	3.372513E-04
7.533488E+03	3.063049E-02	3.368791E-04
7.543427E+03	3.076589E-02	3.367751E-04
7.553366E+03	3.091686E-02	3.368422E-04
7.563304E+03	3.107492E-02	3.369903E-04
7.573243E+03	3.122926E-02	3.371061E-04
7.583181E+03	3.137027E-02	3.370919E-04
7.593120E+03	3.148477E-02	3.368134E-04
7.603059E+03	3.156177E-02	3.361627E-04
7.612997E+03	3.158711E-02	3.350001E-04
7.622936E+03	3.154948E-02	3.332181E-04
7.632875E+03	3.143505E-02	3.306846E-04
7.642813E+03	3.123360E-02	3.273070E-04
7.652752E+03	3.093412E-02	3.229849E-04
7.662691E+03	3.052807E-02	3.176444E-04
7.672629E+03	3.000928E-02	3.112356E-04
7.682568E+03	2.937456E-02	3.037385E-04
7.692506E+03	2.862419E-02	2.951674E-04
7.702445E+03	2.776206E-02	2.855710E-04
7.712384E+03	2.679868E-02	2.750631E-04
