#wls	flux	fluxerr
1.590182E+03	9.445575E-02	5.542670E-03
1.629937E+03	7.448772E-02	4.262543E-03
1.669691E+03	5.796018E-02	3.232185E-03
1.709446E+03	4.449252E-02	2.416155E-03
1.749200E+03	3.369437E-02	1.780565E-03
1.788955E+03	2.517817E-02	1.293850E-03
1.828710E+03	1.856471E-02	9.270687E-04
1.868464E+03	1.351520E-02	6.554321E-04
1.908219E+03	9.721290E-03	4.575575E-04
1.947973E+03	6.922781E-03	3.160654E-04
1.987728E+03	4.902927E-03	2.170272E-04
2.027482E+03	3.475623E-03	1.491007E-04
2.067237E+03	2.488362E-03	1.034239E-04
2.106991E+03	1.825239E-03	7.348805E-05
2.146746E+03	1.404763E-03	5.478805E-05
2.186501E+03	1.165315E-03	4.403391E-05
2.226255E+03	1.068274E-03	3.912500E-05
2.266010E+03	1.100494E-03	3.908913E-05
2.305764E+03	1.272693E-03	4.388043E-05
2.345519E+03	1.629986E-03	5.461136E-05
2.385273E+03	2.269240E-03	7.396441E-05
2.425028E+03	3.362422E-03	1.067406E-04
2.464782E+03	5.187156E-03	1.605531E-04
2.504537E+03	8.147833E-03	2.461361E-04
2.544292E+03	1.275658E-02	3.764314E-04
2.584046E+03	1.952299E-02	5.631540E-04
2.623801E+03	2.873869E-02	8.108172E-04
2.663555E+03	4.032891E-02	1.113341E-03
2.703310E+03	5.380149E-02	1.453723E-03
2.743064E+03	6.825575E-02	1.805372E-03
2.782819E+03	8.254243E-02	2.137289E-03
2.822573E+03	9.550374E-02	2.420745E-03
2.862328E+03	1.062487E-01	2.636076E-03
2.902083E+03	1.142928E-01	2.775335E-03
2.941837E+03	1.195992E-01	2.842206E-03
2.981592E+03	1.224981E-01	2.848963E-03
2.991530E+03	1.229165E-01	2.843348E-03
3.001469E+03	1.232306E-01	2.835341E-03
3.011408E+03	1.234520E-01	2.825249E-03
3.021346E+03	1.235979E-01	2.813504E-03
3.031285E+03	1.236776E-01	2.800352E-03
3.041223E+03	1.237033E-01	2.786102E-03
3.051162E+03	1.236903E-01	2.771122E-03
3.061101E+03	1.236484E-01	2.755649E-03
3.071039E+03	1.235901E-01	2.739983E-03
3.080978E+03	1.235332E-01	2.724529E-03
3.090917E+03	1.234851E-01	2.709457E-03
3.100855E+03	1.234614E-01	2.695099E-03
3.110794E+03	1.234725E-01	2.681668E-03
3.120733E+03	1.235387E-01	2.669584E-03
3.130671E+03	1.236657E-01	2.658944E-03
3.140610E+03	1.238691E-01	2.650058E-03
3.150549E+03	1.241648E-01	2.643231E-03
3.160487E+03	1.245663E-01	2.638718E-03
3.170426E+03	1.250831E-01	2.636682E-03
3.180364E+03	1.257368E-01	2.637536E-03
3.190303E+03	1.265382E-01	2.641459E-03
3.200242E+03	1.275055E-01	2.648784E-03
3.210180E+03	1.286535E-01	2.659767E-03
3.220119E+03	1.300028E-01	2.674773E-03
3.230058E+03	1.315724E-01	2.694136E-03
3.239996E+03	1.333828E-01	2.718208E-03
3.249935E+03	1.354535E-01	2.747317E-03
3.259874E+03	1.378096E-01	2.781901E-03
3.269812E+03	1.404758E-01	2.822373E-03
3.279751E+03	1.434749E-01	2.869110E-03
3.289689E+03	1.468355E-01	2.922596E-03
3.299628E+03	1.505822E-01	2.983221E-03
3.309567E+03	1.547443E-01	3.051469E-03
3.319505E+03	1.593463E-01	3.127717E-03
3.329444E+03	1.644146E-01	3.212376E-03
3.339383E+03	1.699742E-01	3.305822E-03
3.349321E+03	1.760475E-01	3.408372E-03
3.359260E+03	1.826525E-01	3.520258E-03
3.369199E+03	1.897967E-01	3.641510E-03
3.379137E+03	1.974824E-01	3.772053E-03
3.389076E+03	2.056868E-01	3.911348E-03
3.399014E+03	2.143804E-01	4.058733E-03
3.408953E+03	2.234996E-01	4.212924E-03
3.418892E+03	2.329621E-01	4.372307E-03
3.428830E+03	2.426572E-01	4.534772E-03
3.438769E+03	2.524403E-01	4.697616E-03
3.448708E+03	2.621416E-01	4.857717E-03
3.458646E+03	2.715293E-01	5.010864E-03
3.468585E+03	2.802484E-01	5.150654E-03
3.478524E+03	2.878884E-01	5.269770E-03
3.488462E+03	2.940317E-01	5.360881E-03
3.498401E+03	2.982990E-01	5.417457E-03
3.508340E+03	3.003623E-01	5.433943E-03
3.518278E+03	3.000051E-01	5.406845E-03
3.528217E+03	2.971253E-01	5.334770E-03
3.538155E+03	2.917631E-01	5.218884E-03
3.548094E+03	2.840902E-01	5.062682E-03
3.558033E+03	2.744112E-01	4.871966E-03
3.567971E+03	2.631427E-01	4.654447E-03
3.577910E+03	2.507584E-01	4.418735E-03
3.587849E+03	2.377748E-01	4.174078E-03
3.597787E+03	2.246956E-01	3.929371E-03
3.607726E+03	2.119785E-01	3.692590E-03
3.617665E+03	2.000129E-01	3.470402E-03
3.627603E+03	1.891077E-01	3.267990E-03
3.637542E+03	1.794826E-01	3.088912E-03
3.647480E+03	1.712836E-01	2.935408E-03
3.657419E+03	1.645831E-01	2.808405E-03
3.667358E+03	1.594131E-01	2.708123E-03
3.677296E+03	1.557779E-01	2.634287E-03
3.687235E+03	1.536701E-01	2.586412E-03
3.697174E+03	1.530767E-01	2.563908E-03
3.707112E+03	1.539922E-01	2.566292E-03
3.717051E+03	1.564151E-01	2.593132E-03
3.726990E+03	1.603514E-01	2.644095E-03
3.736928E+03	1.658084E-01	2.718843E-03
3.746867E+03	1.727918E-01	2.816989E-03
3.756805E+03	1.812974E-01	2.937948E-03
3.766744E+03	1.913064E-01	3.080876E-03
3.776683E+03	2.027829E-01	3.244631E-03
3.786621E+03	2.156497E-01	3.427402E-03
3.796560E+03	2.297973E-01	3.626863E-03
3.806499E+03	2.450689E-01	3.839975E-03
3.816437E+03	2.612493E-01	4.062830E-03
3.826376E+03	2.780776E-01	4.290890E-03
3.836315E+03	2.952512E-01	4.519094E-03
3.846253E+03	3.124304E-01	4.741951E-03
3.856192E+03	3.292538E-01	4.953815E-03
3.866131E+03	3.453548E-01	5.149161E-03
3.876069E+03	3.603917E-01	5.323042E-03
3.886008E+03	3.740635E-01	5.471319E-03
3.895946E+03	3.861352E-01	5.591017E-03
3.905885E+03	3.964540E-01	5.680508E-03
3.915824E+03	4.049577E-01	5.739588E-03
3.925762E+03	4.116823E-01	5.769512E-03
3.935701E+03	4.167489E-01	5.772735E-03
3.945640E+03	4.203503E-01	5.752658E-03
3.955578E+03	4.227505E-01	5.713557E-03
3.965517E+03	4.242387E-01	5.659897E-03
3.975456E+03	4.251211E-01	5.596193E-03
3.985394E+03	4.256816E-01	5.526476E-03
3.995333E+03	4.261494E-01	5.453883E-03
4.005271E+03	4.266762E-01	5.380416E-03
4.015210E+03	4.272882E-01	5.306410E-03
4.025149E+03	4.279066E-01	5.230900E-03
4.035087E+03	4.283474E-01	5.151725E-03
4.045026E+03	4.283425E-01	5.065887E-03
4.054965E+03	4.275772E-01	4.970070E-03
4.064903E+03	4.257428E-01	4.861305E-03
4.074842E+03	4.225668E-01	4.737304E-03
4.084781E+03	4.178522E-01	4.596860E-03
4.094719E+03	4.115024E-01	4.440038E-03
4.104658E+03	4.035090E-01	4.267942E-03
4.114596E+03	3.939661E-01	4.082761E-03
4.124535E+03	3.830350E-01	3.887299E-03
4.134474E+03	3.709295E-01	3.684746E-03
4.144412E+03	3.578984E-01	3.478449E-03
4.154351E+03	3.442122E-01	3.271740E-03
4.164290E+03	3.301506E-01	3.067791E-03
4.174228E+03	3.159936E-01	2.869522E-03
4.184167E+03	3.020144E-01	2.679541E-03
4.194106E+03	2.884737E-01	2.500098E-03
4.204044E+03	2.756103E-01	2.333033E-03
4.213983E+03	2.636420E-01	2.179809E-03
4.223922E+03	2.527609E-01	2.041511E-03
4.233860E+03	2.431213E-01	1.918788E-03
4.243799E+03	2.348302E-01	1.811838E-03
4.253737E+03	2.279561E-01	1.720529E-03
4.263676E+03	2.225208E-01	1.644391E-03
4.273615E+03	2.184994E-01	1.582658E-03
4.283553E+03	2.158214E-01	1.534328E-03
4.293492E+03	2.143735E-01	1.498227E-03
4.303431E+03	2.140106E-01	1.473113E-03
4.313369E+03	2.145439E-01	1.457597E-03
4.323308E+03	2.157624E-01	1.450293E-03
4.333247E+03	2.174310E-01	1.449775E-03
4.343185E+03	2.193424E-01	1.454885E-03
4.353124E+03	2.213857E-01	1.465145E-03
4.363062E+03	2.234996E-01	1.480373E-03
4.373001E+03	2.256538E-01	1.500383E-03
4.382940E+03	2.278557E-01	1.525099E-03
4.392878E+03	2.301371E-01	1.554573E-03
4.402817E+03	2.325516E-01	1.588985E-03
4.412756E+03	2.351719E-01	1.628642E-03
4.422694E+03	2.380725E-01	1.673886E-03
4.432633E+03	2.413294E-01	1.725107E-03
4.442572E+03	2.450174E-01	1.782731E-03
4.452510E+03	2.491594E-01	1.846854E-03
4.462449E+03	2.535570E-01	1.915932E-03
4.472387E+03	2.578848E-01	1.987341E-03
4.482326E+03	2.618152E-01	2.058242E-03
4.492265E+03	2.650496E-01	2.125824E-03
4.502203E+03	2.673381E-01	2.187475E-03
4.512142E+03	2.685016E-01	2.241009E-03
4.522081E+03	2.684472E-01	2.284858E-03
4.532019E+03	2.671615E-01	2.318094E-03
4.541958E+03	2.646982E-01	2.340388E-03
4.551897E+03	2.611701E-01	2.352007E-03
4.561835E+03	2.567156E-01	2.353553E-03
4.571774E+03	2.514961E-01	2.345967E-03
4.581713E+03	2.456864E-01	2.330451E-03
4.591651E+03	2.394594E-01	2.308334E-03
4.601590E+03	2.329776E-01	2.280974E-03
4.611528E+03	2.264080E-01	2.249903E-03
4.621467E+03	2.198877E-01	2.216464E-03
4.631406E+03	2.135466E-01	2.182022E-03
4.641344E+03	2.074836E-01	2.147706E-03
4.651283E+03	2.017709E-01	2.114418E-03
4.661222E+03	1.964519E-01	2.082793E-03
4.671160E+03	1.915410E-01	2.053177E-03
4.681099E+03	1.870331E-01	2.025702E-03
4.691038E+03	1.828995E-01	2.000235E-03
4.700976E+03	1.791004E-01	1.976501E-03
4.710915E+03	1.755890E-01	1.954120E-03
4.720853E+03	1.723080E-01	1.932576E-03
4.730792E+03	1.692068E-01	1.911397E-03
4.740731E+03	1.662260E-01	1.889995E-03
4.750669E+03	1.633204E-01	1.867924E-03
4.760608E+03	1.604501E-01	1.844783E-03
4.770547E+03	1.575839E-01	1.820266E-03
4.780485E+03	1.547096E-01	1.794280E-03
4.790424E+03	1.518315E-01	1.766927E-03
4.800363E+03	1.489672E-01	1.738464E-03
4.810301E+03	1.461578E-01	1.709427E-03
4.820240E+03	1.434601E-01	1.680542E-03
4.830178E+03	1.409402E-01	1.652643E-03
4.840117E+03	1.386673E-01	1.626601E-03
4.850056E+03	1.367074E-01	1.603239E-03
4.859994E+03	1.351140E-01	1.583226E-03
4.869933E+03	1.339293E-01	1.567079E-03
4.879872E+03	1.331742E-01	1.555049E-03
4.889810E+03	1.328565E-01	1.547214E-03
4.899749E+03	1.329656E-01	1.543423E-03
4.909688E+03	1.334740E-01	1.543311E-03
4.919626E+03	1.343491E-01	1.546446E-03
4.929565E+03	1.355577E-01	1.552378E-03
4.939504E+03	1.370786E-01	1.560791E-03
4.949442E+03	1.388975E-01	1.571444E-03
4.959381E+03	1.410101E-01	1.584195E-03
4.969319E+03	1.434158E-01	1.598940E-03
4.979258E+03	1.461201E-01	1.615631E-03
4.989197E+03	1.491183E-01	1.634100E-03
4.999135E+03	1.523992E-01	1.654100E-03
5.009074E+03	1.559399E-01	1.675256E-03
5.019013E+03	1.596959E-01	1.696965E-03
5.028951E+03	1.636022E-01	1.718433E-03
5.038890E+03	1.675726E-01	1.738669E-03
5.048829E+03	1.715020E-01	1.756539E-03
5.058767E+03	1.752688E-01	1.770804E-03
5.068706E+03	1.787465E-01	1.780253E-03
5.078644E+03	1.818135E-01	1.783814E-03
5.088583E+03	1.843563E-01	1.780576E-03
5.098522E+03	1.862869E-01	1.769967E-03
5.108460E+03	1.875299E-01	1.751608E-03
5.118399E+03	1.880433E-01	1.725497E-03
5.128338E+03	1.878024E-01	1.691840E-03
5.138276E+03	1.868048E-01	1.651073E-03
5.148215E+03	1.850671E-01	1.603822E-03
5.158154E+03	1.826252E-01	1.550878E-03
5.168092E+03	1.795404E-01	1.493231E-03
5.178031E+03	1.758975E-01	1.432026E-03
5.187969E+03	1.718122E-01	1.368600E-03
5.197908E+03	1.674159E-01	1.304331E-03
5.207847E+03	1.628669E-01	1.240706E-03
5.217785E+03	1.583310E-01	1.179155E-03
5.227724E+03	1.539704E-01	1.120963E-03
5.237663E+03	1.499308E-01	1.067190E-03
5.247601E+03	1.463400E-01	1.018678E-03
5.257540E+03	1.432906E-01	9.759550E-04
5.267479E+03	1.408404E-01	9.392833E-04
5.277417E+03	1.390109E-01	9.086752E-04
5.287356E+03	1.377918E-01	8.839606E-04
5.297295E+03	1.371352E-01	8.647733E-04
5.307233E+03	1.369661E-01	8.506395E-04
5.317172E+03	1.371817E-01	8.409807E-04
5.327110E+03	1.376592E-01	8.351591E-04
5.337049E+03	1.382535E-01	8.324524E-04
5.346988E+03	1.388181E-01	8.321565E-04
5.356926E+03	1.392050E-01	8.335401E-04
5.366865E+03	1.392760E-01	8.357696E-04
5.376804E+03	1.389089E-01	8.379688E-04
5.386742E+03	1.380213E-01	8.394151E-04
5.396681E+03	1.366686E-01	8.401411E-04
5.406620E+03	1.350204E-01	8.408494E-04
5.416558E+03	1.332869E-01	8.425239E-04
5.426497E+03	1.316636E-01	8.461280E-04
5.436435E+03	1.303151E-01	8.525204E-04
5.446374E+03	1.293699E-01	8.624242E-04
5.456313E+03	1.289042E-01	8.763033E-04
5.466251E+03	1.289465E-01	8.943645E-04
5.476190E+03	1.294680E-01	9.164561E-04
5.486129E+03	1.304018E-01	9.421584E-04
5.496067E+03	1.316511E-01	9.708100E-04
5.506006E+03	1.331136E-01	1.001664E-03
5.515945E+03	1.346855E-01	1.033908E-03
5.525883E+03	1.362774E-01	1.066785E-03
5.535822E+03	1.378125E-01	1.099591E-03
5.545760E+03	1.392348E-01	1.131748E-03
5.555699E+03	1.405033E-01	1.162775E-03
5.565638E+03	1.415939E-01	1.192316E-03
5.575576E+03	1.424899E-01	1.220071E-03
5.585515E+03	1.431868E-01	1.245844E-03
5.595454E+03	1.436870E-01	1.269509E-03
5.605392E+03	1.439956E-01	1.290972E-03
5.615331E+03	1.441210E-01	1.310182E-03
5.625270E+03	1.440678E-01	1.327067E-03
5.635208E+03	1.438423E-01	1.341582E-03
5.645147E+03	1.434489E-01	1.353677E-03
5.655086E+03	1.428883E-01	1.363278E-03
5.665024E+03	1.421619E-01	1.370327E-03
5.674963E+03	1.412743E-01	1.374806E-03
5.684901E+03	1.402390E-01	1.376797E-03
5.694840E+03	1.390725E-01	1.376426E-03
5.704779E+03	1.378096E-01	1.374012E-03
5.714717E+03	1.364951E-01	1.369993E-03
5.724656E+03	1.351838E-01	1.364927E-03
5.734595E+03	1.339411E-01	1.359492E-03
5.744533E+03	1.328348E-01	1.354407E-03
5.754472E+03	1.319230E-01	1.350303E-03
5.764411E+03	1.312466E-01	1.347636E-03
5.774349E+03	1.308242E-01	1.346630E-03
5.784288E+03	1.306445E-01	1.347197E-03
5.794226E+03	1.306819E-01	1.349090E-03
5.804165E+03	1.308953E-01	1.351892E-03
5.814104E+03	1.312346E-01	1.355089E-03
5.824042E+03	1.316492E-01	1.358155E-03
5.833981E+03	1.320857E-01	1.360538E-03
5.843920E+03	1.324988E-01	1.361772E-03
5.853858E+03	1.328395E-01	1.361359E-03
5.863797E+03	1.330602E-01	1.358826E-03
5.873736E+03	1.331129E-01	1.353710E-03
5.883674E+03	1.329507E-01	1.345575E-03
5.893613E+03	1.325297E-01	1.334035E-03
5.903551E+03	1.318052E-01	1.318716E-03
5.913490E+03	1.307407E-01	1.299350E-03
5.923429E+03	1.293086E-01	1.275778E-03
5.933367E+03	1.274881E-01	1.247933E-03
5.943306E+03	1.252653E-01	1.215836E-03
5.953245E+03	1.226425E-01	1.179675E-03
5.963183E+03	1.196240E-01	1.139676E-03
5.973122E+03	1.162308E-01	1.096227E-03
5.983061E+03	1.124835E-01	1.049716E-03
5.992999E+03	1.084179E-01	1.000667E-03
6.002938E+03	1.040854E-01	9.497364E-04
6.012877E+03	9.955156E-02	8.976874E-04
6.022815E+03	9.490060E-02	8.454204E-04
6.032754E+03	9.023218E-02	7.939295E-04
6.042692E+03	8.566501E-02	7.443243E-04
6.052631E+03	8.131775E-02	6.976538E-04
6.062570E+03	7.731170E-02	6.549298E-04
6.072508E+03	7.375680E-02	6.170098E-04
6.082447E+03	7.074757E-02	5.845750E-04
6.092386E+03	6.835992E-02	5.581175E-04
6.102324E+03	6.665074E-02	5.379547E-04
6.112263E+03	6.565785E-02	5.242468E-04
6.122202E+03	6.540322E-02	5.170398E-04
6.132140E+03	6.589419E-02	5.162918E-04
6.142079E+03	6.712036E-02	5.218630E-04
6.152017E+03	6.905825E-02	5.335654E-04
6.161956E+03	7.166471E-02	5.511215E-04
6.171895E+03	7.487462E-02	5.741531E-04
6.181833E+03	7.859819E-02	6.021618E-04
6.191772E+03	8.272301E-02	6.345381E-04
6.201711E+03	8.711611E-02	6.705614E-04
6.211649E+03	9.162777E-02	7.094059E-04
6.221588E+03	9.610480E-02	7.501795E-04
6.231527E+03	1.003941E-01	7.918710E-04
6.241465E+03	1.043508E-01	8.334365E-04
6.251404E+03	1.078426E-01	8.738243E-04
6.261342E+03	1.107580E-01	9.120275E-04
6.271281E+03	1.130138E-01	9.471504E-04
6.281220E+03	1.145595E-01	9.784556E-04
6.291158E+03	1.153775E-01	1.005395E-03
6.301097E+03	1.154932E-01	1.027731E-03
6.311036E+03	1.149719E-01	1.045554E-03
6.320974E+03	1.139133E-01	1.059292E-03
6.330913E+03	1.124575E-01	1.069810E-03
6.340852E+03	1.107733E-01	1.078355E-03
6.350790E+03	1.090543E-01	1.086575E-03
6.360729E+03	1.075138E-01	1.096495E-03
6.370667E+03	1.062790E-01	1.109461E-03
6.380606E+03	1.052642E-01	1.124682E-03
6.390545E+03	1.043733E-01	1.141183E-03
6.400483E+03	1.035369E-01	1.158208E-03
6.410422E+03	1.027107E-01	1.175221E-03
6.420361E+03	1.018702E-01	1.191882E-03
6.430299E+03	1.010040E-01	1.207986E-03
6.440238E+03	1.001128E-01	1.223471E-03
6.450177E+03	9.919819E-02	1.238291E-03
6.460115E+03	9.827147E-02	1.252527E-03
6.470054E+03	9.734145E-02	1.266248E-03
6.479993E+03	9.641438E-02	1.279499E-03
6.489931E+03	9.549738E-02	1.292349E-03
6.499870E+03	9.459357E-02	1.304820E-03
6.509808E+03	9.370364E-02	1.316909E-03
6.519747E+03	9.282637E-02	1.328587E-03
6.529686E+03	9.196017E-02	1.339820E-03
6.539624E+03	9.109996E-02	1.350526E-03
6.549563E+03	9.024192E-02	1.360635E-03
6.559502E+03	8.938390E-02	1.370104E-03
6.569440E+03	8.852344E-02	1.378883E-03
6.579379E+03	8.765770E-02	1.386915E-03
6.589318E+03	8.678807E-02	1.394210E-03
6.599256E+03	8.591369E-02	1.400746E-03
6.609195E+03	8.503891E-02	1.406584E-03
6.619133E+03	8.416231E-02	1.411697E-03
6.629072E+03	8.328527E-02	1.416105E-03
6.639011E+03	8.241032E-02	1.419847E-03
6.648949E+03	8.153813E-02	1.422938E-03
6.658888E+03	8.066820E-02	1.425370E-03
6.668827E+03	7.980185E-02	1.427168E-03
6.678765E+03	7.894244E-02	1.428398E-03
6.688704E+03	7.809157E-02	1.429095E-03
6.698643E+03	7.725476E-02	1.429370E-03
6.708581E+03	7.643412E-02	1.429275E-03
6.718520E+03	7.563771E-02	1.428974E-03
6.728458E+03	7.486782E-02	1.428530E-03
6.738397E+03	7.413174E-02	1.428103E-03
6.748336E+03	7.342988E-02	1.427724E-03
6.758274E+03	7.276523E-02	1.427473E-03
6.768213E+03	7.213770E-02	1.427373E-03
6.778152E+03	7.154399E-02	1.427381E-03
6.788090E+03	7.098210E-02	1.427477E-03
6.798029E+03	7.044632E-02	1.427566E-03
6.807968E+03	6.993359E-02	1.427598E-03
6.817906E+03	6.943724E-02	1.427453E-03
6.827845E+03	6.895692E-02	1.427134E-03
6.837784E+03	6.848986E-02	1.426592E-03
6.847722E+03	6.803626E-02	1.425842E-03
6.857661E+03	6.759646E-02	1.424900E-03
6.867599E+03	6.717569E-02	1.423884E-03
6.877538E+03	6.677321E-02	1.422791E-03
6.887477E+03	6.639587E-02	1.421776E-03
6.897415E+03	6.604334E-02	1.420844E-03
6.907354E+03	6.571654E-02	1.420025E-03
6.917293E+03	6.541637E-02	1.419349E-03
6.927231E+03	6.513998E-02	1.418763E-03
6.937170E+03	6.488472E-02	1.418218E-03
6.947109E+03	6.464724E-02	1.417648E-03
6.957047E+03	6.442394E-02	1.416978E-03
6.966986E+03	6.421128E-02	1.416135E-03
6.976924E+03	6.400471E-02	1.415023E-03
6.986863E+03	6.380391E-02	1.413637E-03
6.996802E+03	6.360279E-02	1.411845E-03
7.006740E+03	6.340321E-02	1.409689E-03
7.016679E+03	6.319971E-02	1.407050E-03
7.026618E+03	6.299320E-02	1.403951E-03
7.036556E+03	6.278081E-02	1.400328E-03
7.046495E+03	6.256090E-02	1.396149E-03
7.056434E+03	6.233307E-02	1.391406E-03
7.066372E+03	6.209326E-02	1.386012E-03
7.076311E+03	6.184140E-02	1.379969E-03
7.086249E+03	6.157536E-02	1.373232E-03
7.096188E+03	6.129581E-02	1.365821E-03
7.106127E+03	6.100249E-02	1.357737E-03
7.116065E+03	6.069413E-02	1.348955E-03
7.126004E+03	6.037205E-02	1.339513E-03
7.135943E+03	6.003389E-02	1.329364E-03
7.145881E+03	5.968219E-02	1.318573E-03
7.155820E+03	5.931575E-02	1.307121E-03
7.165759E+03	5.893344E-02	1.294993E-03
7.175697E+03	5.853666E-02	1.282230E-03
7.185636E+03	5.812583E-02	1.268851E-03
7.195575E+03	5.770053E-02	1.254857E-03
7.205513E+03	5.726198E-02	1.240287E-03
7.215452E+03	5.681177E-02	1.225186E-03
7.225390E+03	5.635170E-02	1.209606E-03
7.235329E+03	5.588362E-02	1.193598E-03
7.245268E+03	5.540690E-02	1.177160E-03
7.255206E+03	5.492513E-02	1.160380E-03
7.265145E+03	5.443776E-02	1.143259E-03
7.275084E+03	5.394372E-02	1.125786E-03
7.285022E+03	5.344366E-02	1.107987E-03
7.294961E+03	5.293441E-02	1.089810E-03
7.304900E+03	5.241487E-02	1.071247E-03
7.314838E+03	5.188389E-02	1.052289E-03
7.324777E+03	5.133938E-02	1.032912E-03
7.334715E+03	5.078169E-02	1.013140E-03
7.344654E+03	5.020718E-02	9.929203E-04
7.354593E+03	4.961806E-02	9.723166E-04
7.364531E+03	4.901304E-02	9.513244E-04
7.374470E+03	4.839515E-02	9.300242E-04
7.384409E+03	4.776687E-02	9.084835E-04
7.394347E+03	4.713342E-02	8.868205E-04
7.404286E+03	4.650299E-02	8.652043E-04
7.414225E+03	4.588368E-02	8.437958E-04
7.424163E+03	4.528902E-02	8.228475E-04
7.434102E+03	4.472840E-02	8.025247E-04
7.444040E+03	4.421534E-02	7.830570E-04
7.453979E+03	4.375973E-02	7.645965E-04
7.463918E+03	4.337359E-02	7.473206E-04
7.473856E+03	4.306254E-02	7.312855E-04
7.483795E+03	4.283009E-02	7.165037E-04
7.493734E+03	4.267693E-02	7.029359E-04
7.503672E+03	4.259874E-02	6.904595E-04
7.513611E+03	4.258977E-02	6.789312E-04
7.523550E+03	4.263823E-02	6.681184E-04
7.533488E+03	4.273374E-02	6.578221E-04
7.543427E+03	4.286553E-02	6.478483E-04
7.553366E+03	4.302157E-02	6.379964E-04
7.563304E+03	4.319317E-02	6.281287E-04
7.573243E+03	4.337129E-02	6.181135E-04
7.583181E+03	4.355145E-02	6.078945E-04
7.593120E+03	4.372683E-02	5.973903E-04
7.603059E+03	4.389600E-02	5.866017E-04
7.612997E+03	4.405469E-02	5.754965E-04
7.622936E+03	4.420366E-02	5.641143E-04
7.632875E+03	4.434036E-02	5.524553E-04
7.642813E+03	4.446663E-02	5.405794E-04
7.652752E+03	4.458110E-02	5.285098E-04
7.662691E+03	4.468241E-02	5.162752E-04
7.672629E+03	4.476697E-02	5.038856E-04
7.682568E+03	4.482818E-02	4.913263E-04
7.692506E+03	4.485640E-02	4.785633E-04
7.702445E+03	4.483816E-02	4.655392E-04
7.712384E+03	4.476085E-02	4.522252E-04
