#wls	flux	fluxerr
1.590182E+03	6.279422E-02	2.116569E-03
1.629937E+03	5.305937E-02	1.765898E-03
1.669691E+03	4.440341E-02	1.458798E-03
1.709446E+03	3.680631E-02	1.193335E-03
1.749200E+03	3.023031E-02	9.670104E-04
1.788955E+03	2.461948E-02	7.767916E-04
1.828710E+03	1.989379E-02	6.189729E-04
1.868464E+03	1.597350E-02	4.899782E-04
1.908219E+03	1.276675E-02	3.859910E-04
1.947973E+03	1.018133E-02	3.033358E-04
1.987728E+03	8.126735E-03	2.385417E-04
2.027482E+03	6.520070E-03	1.885133E-04
2.067237E+03	5.288403E-03	1.505828E-04
2.106991E+03	4.374673E-03	1.226546E-04
2.146746E+03	3.741708E-03	1.032834E-04
2.186501E+03	3.359127E-03	9.127543E-05
2.226255E+03	3.208699E-03	8.581781E-05
2.266010E+03	3.292659E-03	8.667254E-05
2.305764E+03	3.636970E-03	9.421772E-05
2.345519E+03	4.301673E-03	1.096617E-04
2.385273E+03	5.395104E-03	1.353327E-04
2.425028E+03	7.083507E-03	1.748193E-04
2.464782E+03	9.594259E-03	2.329362E-04
2.504537E+03	1.319553E-02	3.151200E-04
2.544292E+03	1.813971E-02	4.260252E-04
2.584046E+03	2.455276E-02	5.670049E-04
2.623801E+03	3.231303E-02	7.336095E-04
2.663555E+03	4.105845E-02	9.162298E-04
2.703310E+03	5.026575E-02	1.102293E-03
2.743064E+03	5.931145E-02	1.277883E-03
2.782819E+03	6.758170E-02	1.430244E-03
2.822573E+03	7.458520E-02	1.550103E-03
2.862328E+03	8.003807E-02	1.633161E-03
2.902083E+03	8.388673E-02	1.680149E-03
2.941837E+03	8.630352E-02	1.696307E-03
2.981592E+03	8.761814E-02	1.689637E-03
2.991530E+03	8.782678E-02	1.685553E-03
3.001469E+03	8.799974E-02	1.680766E-03
3.011408E+03	8.814448E-02	1.675428E-03
3.021346E+03	8.827247E-02	1.669763E-03
3.031285E+03	8.838925E-02	1.663883E-03
3.041223E+03	8.850246E-02	1.657932E-03
3.051162E+03	8.862160E-02	1.652088E-03
3.061101E+03	8.875243E-02	1.646454E-03
3.071039E+03	8.890259E-02	1.641169E-03
3.080978E+03	8.908349E-02	1.636435E-03
3.090917E+03	8.929904E-02	1.632314E-03
3.100855E+03	8.955861E-02	1.628967E-03
3.110794E+03	8.986810E-02	1.626488E-03
3.120733E+03	9.024060E-02	1.625099E-03
3.130671E+03	9.067824E-02	1.624819E-03
3.140610E+03	9.119075E-02	1.625803E-03
3.150549E+03	9.178741E-02	1.628197E-03
3.160487E+03	9.247612E-02	1.632114E-03
3.170426E+03	9.326120E-02	1.637607E-03
3.180364E+03	9.415580E-02	1.644879E-03
3.190303E+03	9.516429E-02	1.653975E-03
3.200242E+03	9.629627E-02	1.665029E-03
3.210180E+03	9.755796E-02	1.678116E-03
3.220119E+03	9.895871E-02	1.693360E-03
3.230058E+03	1.005061E-01	1.710854E-03
3.239996E+03	1.022074E-01	1.730677E-03
3.249935E+03	1.040675E-01	1.752872E-03
3.259874E+03	1.060943E-01	1.777530E-03
3.269812E+03	1.082930E-01	1.804692E-03
3.279751E+03	1.106660E-01	1.834348E-03
3.289689E+03	1.132177E-01	1.866526E-03
3.299628E+03	1.159471E-01	1.901160E-03
3.309567E+03	1.188547E-01	1.938212E-03
3.319505E+03	1.219346E-01	1.977536E-03
3.329444E+03	1.251795E-01	2.018969E-03
3.339383E+03	1.285784E-01	2.062289E-03
3.349321E+03	1.321162E-01	2.107214E-03
3.359260E+03	1.357728E-01	2.153387E-03
3.369199E+03	1.395209E-01	2.200345E-03
3.379137E+03	1.433315E-01	2.247609E-03
3.389076E+03	1.471633E-01	2.294519E-03
3.399014E+03	1.509771E-01	2.340460E-03
3.408953E+03	1.547189E-01	2.384604E-03
3.418892E+03	1.583324E-01	2.426108E-03
3.428830E+03	1.617545E-01	2.464045E-03
3.438769E+03	1.649120E-01	2.497360E-03
3.448708E+03	1.677256E-01	2.524927E-03
3.458646E+03	1.700965E-01	2.545365E-03
3.468585E+03	1.719109E-01	2.557098E-03
3.478524E+03	1.730508E-01	2.558532E-03
3.488462E+03	1.734055E-01	2.548222E-03
3.498401E+03	1.728933E-01	2.525188E-03
3.508340E+03	1.714616E-01	2.488896E-03
3.518278E+03	1.691102E-01	2.439589E-03
3.528217E+03	1.658815E-01	2.378120E-03
3.538155E+03	1.618650E-01	2.305996E-03
3.548094E+03	1.571852E-01	2.225192E-03
3.558033E+03	1.519994E-01	2.138099E-03
3.567971E+03	1.464886E-01	2.047382E-03
3.577910E+03	1.408354E-01	1.955662E-03
3.587849E+03	1.352267E-01	1.865559E-03
3.597787E+03	1.298354E-01	1.779430E-03
3.607726E+03	1.248148E-01	1.699305E-03
3.617665E+03	1.202983E-01	1.626889E-03
3.627603E+03	1.163975E-01	1.563541E-03
3.637542E+03	1.131990E-01	1.510251E-03
3.647480E+03	1.107732E-01	1.467763E-03
3.657419E+03	1.091698E-01	1.436517E-03
3.667358E+03	1.084304E-01	1.416831E-03
3.677296E+03	1.085899E-01	1.408921E-03
3.687235E+03	1.096809E-01	1.412957E-03
3.697174E+03	1.117337E-01	1.429068E-03
3.707112E+03	1.147816E-01	1.457406E-03
3.717051E+03	1.188562E-01	1.498093E-03
3.726990E+03	1.239890E-01	1.551233E-03
3.736928E+03	1.302061E-01	1.616850E-03
3.746867E+03	1.375261E-01	1.694865E-03
3.756805E+03	1.459528E-01	1.785009E-03
3.766744E+03	1.554707E-01	1.886779E-03
3.776683E+03	1.660432E-01	1.999418E-03
3.786621E+03	1.775943E-01	2.121714E-03
3.796560E+03	1.900173E-01	2.252118E-03
3.806499E+03	2.031663E-01	2.388662E-03
3.816437E+03	2.168498E-01	2.528897E-03
3.826376E+03	2.308426E-01	2.670064E-03
3.836315E+03	2.448939E-01	2.809189E-03
3.846253E+03	2.587334E-01	2.943179E-03
3.856192E+03	2.720888E-01	3.069022E-03
3.866131E+03	2.847004E-01	3.183950E-03
3.876069E+03	2.963433E-01	3.285685E-03
3.886008E+03	3.068323E-01	3.372476E-03
3.895946E+03	3.160359E-01	3.443224E-03
3.905885E+03	3.238809E-01	3.497518E-03
3.915824E+03	3.303553E-01	3.535628E-03
3.925762E+03	3.355091E-01	3.558493E-03
3.935701E+03	3.394431E-01	3.567560E-03
3.945640E+03	3.422983E-01	3.564664E-03
3.955578E+03	3.442566E-01	3.552004E-03
3.965517E+03	3.455062E-01	3.531777E-03
3.975456E+03	3.462383E-01	3.506135E-03
3.985394E+03	3.466194E-01	3.476912E-03
3.995333E+03	3.467730E-01	3.445453E-03
4.005271E+03	3.467748E-01	3.412580E-03
4.015210E+03	3.466219E-01	3.378328E-03
4.025149E+03	3.462514E-01	3.342150E-03
4.035087E+03	3.455399E-01	3.302946E-03
4.045026E+03	3.443212E-01	3.259256E-03
4.054965E+03	3.424091E-01	3.209496E-03
4.064903E+03	3.396294E-01	3.152257E-03
4.074842E+03	3.358335E-01	3.086429E-03
4.084781E+03	3.309232E-01	3.011412E-03
4.094719E+03	3.248628E-01	2.927195E-03
4.104658E+03	3.176647E-01	2.834206E-03
4.114596E+03	3.094052E-01	2.733424E-03
4.124535E+03	3.002032E-01	2.626168E-03
4.134474E+03	2.902136E-01	2.514016E-03
4.144412E+03	2.796168E-01	2.398707E-03
4.154351E+03	2.686097E-01	2.282050E-03
4.164290E+03	2.573978E-01	2.165855E-03
4.174228E+03	2.461894E-01	2.051883E-03
4.184167E+03	2.351906E-01	1.941807E-03
4.194106E+03	2.246023E-01	1.837188E-03
4.204044E+03	2.146117E-01	1.739416E-03
4.213983E+03	2.053932E-01	1.649726E-03
4.223922E+03	1.971030E-01	1.569159E-03
4.233860E+03	1.898690E-01	1.498496E-03
4.243799E+03	1.837821E-01	1.438206E-03
4.253737E+03	1.789022E-01	1.388500E-03
4.263676E+03	1.752508E-01	1.349296E-03
4.273615E+03	1.728114E-01	1.320229E-03
4.283553E+03	1.715283E-01	1.300656E-03
4.293492E+03	1.713057E-01	1.289664E-03
4.303431E+03	1.720146E-01	1.286126E-03
4.313369E+03	1.734827E-01	1.288638E-03
4.323308E+03	1.755186E-01	1.295701E-03
4.333247E+03	1.779250E-01	1.305818E-03
4.343185E+03	1.805305E-01	1.317725E-03
4.353124E+03	1.832057E-01	1.330492E-03
4.363062E+03	1.858715E-01	1.343576E-03
4.373001E+03	1.884932E-01	1.356756E-03
4.382940E+03	1.910762E-01	1.370081E-03
4.392878E+03	1.936499E-01	1.383760E-03
4.402817E+03	1.962603E-01	1.398121E-03
4.412756E+03	1.989652E-01	1.413565E-03
4.422694E+03	2.018140E-01	1.430429E-03
4.432633E+03	2.048419E-01	1.448947E-03
4.442572E+03	2.080516E-01	1.469121E-03
4.452510E+03	2.113744E-01	1.490451E-03
4.462449E+03	2.146555E-01	1.511830E-03
4.472387E+03	2.176665E-01	1.531640E-03
4.482326E+03	2.201594E-01	1.548125E-03
4.492265E+03	2.219151E-01	1.559731E-03
4.502203E+03	2.227680E-01	1.565277E-03
4.512142E+03	2.226226E-01	1.564070E-03
4.522081E+03	2.214608E-01	1.555953E-03
4.532019E+03	2.193299E-01	1.541222E-03
4.541958E+03	2.163253E-01	1.520511E-03
4.551897E+03	2.125795E-01	1.494709E-03
4.561835E+03	2.082317E-01	1.464758E-03
4.571774E+03	2.034263E-01	1.431636E-03
4.581713E+03	1.983071E-01	1.396322E-03
4.591651E+03	1.930082E-01	1.359729E-03
4.601590E+03	1.876496E-01	1.322679E-03
4.611528E+03	1.823534E-01	1.286012E-03
4.621467E+03	1.772170E-01	1.250397E-03
4.631406E+03	1.723328E-01	1.216476E-03
4.641344E+03	1.677697E-01	1.184723E-03
4.651283E+03	1.635737E-01	1.155460E-03
4.661222E+03	1.597655E-01	1.128824E-03
4.671160E+03	1.563390E-01	1.104771E-03
4.681099E+03	1.532692E-01	1.083117E-03
4.691038E+03	1.505098E-01	1.063531E-03
4.700976E+03	1.480041E-01	1.045611E-03
4.710915E+03	1.456902E-01	1.028913E-03
4.720853E+03	1.434984E-01	1.012942E-03
4.730792E+03	1.413679E-01	9.972673E-04
4.740731E+03	1.392352E-01	9.814390E-04
4.750669E+03	1.370561E-01	9.651468E-04
4.760608E+03	1.348000E-01	9.481776E-04
4.770547E+03	1.324528E-01	9.304372E-04
4.780485E+03	1.300262E-01	9.120140E-04
4.790424E+03	1.275535E-01	8.931492E-04
4.800363E+03	1.250832E-01	8.741897E-04
4.810301E+03	1.226822E-01	8.556084E-04
4.820240E+03	1.204252E-01	8.379297E-04
4.830178E+03	1.183861E-01	8.216675E-04
4.840117E+03	1.166315E-01	8.072774E-04
4.850056E+03	1.152137E-01	7.951116E-04
4.859994E+03	1.141662E-01	7.853850E-04
4.869933E+03	1.135077E-01	7.782054E-04
4.879872E+03	1.132368E-01	7.735402E-04
4.889810E+03	1.133425E-01	7.712856E-04
4.899749E+03	1.138023E-01	7.712616E-04
4.909688E+03	1.145868E-01	7.732388E-04
4.919626E+03	1.156666E-01	7.769900E-04
4.929565E+03	1.170126E-01	7.822925E-04
4.939504E+03	1.186045E-01	7.889817E-04
4.949442E+03	1.204260E-01	7.969231E-04
4.959381E+03	1.224682E-01	8.060297E-04
4.969319E+03	1.247250E-01	8.162358E-04
4.979258E+03	1.271953E-01	8.275063E-04
4.989197E+03	1.298696E-01	8.397523E-04
4.999135E+03	1.327331E-01	8.528509E-04
5.009074E+03	1.357607E-01	8.666170E-04
5.019013E+03	1.389086E-01	8.807514E-04
5.028951E+03	1.421169E-01	8.948602E-04
5.038890E+03	1.453091E-01	9.084591E-04
5.048829E+03	1.483971E-01	9.210059E-04
5.058767E+03	1.512853E-01	9.319306E-04
5.068706E+03	1.538806E-01	9.406990E-04
5.078644E+03	1.561008E-01	9.468637E-04
5.088583E+03	1.578745E-01	9.500600E-04
5.098522E+03	1.591548E-01	9.500867E-04
5.108460E+03	1.599042E-01	9.468086E-04
5.118399E+03	1.601088E-01	9.402400E-04
5.128338E+03	1.597610E-01	9.304360E-04
5.138276E+03	1.588614E-01	9.175002E-04
5.148215E+03	1.574150E-01	9.015635E-04
5.158154E+03	1.554333E-01	8.827903E-04
5.168092E+03	1.529438E-01	8.614325E-04
5.178031E+03	1.499934E-01	8.378434E-04
5.187969E+03	1.466589E-01	8.125302E-04
5.197908E+03	1.430384E-01	7.860984E-04
5.207847E+03	1.392615E-01	7.593066E-04
5.217785E+03	1.354704E-01	7.329541E-04
5.227724E+03	1.318067E-01	7.078117E-04
5.237663E+03	1.283978E-01	6.845491E-04
5.247601E+03	1.253538E-01	6.637252E-04
5.257540E+03	1.227541E-01	6.457238E-04
5.267479E+03	1.206476E-01	6.307607E-04
5.277417E+03	1.190497E-01	6.188760E-04
5.287356E+03	1.179454E-01	6.099583E-04
5.297295E+03	1.172851E-01	6.037251E-04
5.307233E+03	1.169964E-01	5.997892E-04
5.317172E+03	1.169881E-01	5.976789E-04
5.327110E+03	1.171606E-01	5.968933E-04
5.337049E+03	1.174081E-01	5.969070E-04
5.346988E+03	1.176368E-01	5.972611E-04
5.356926E+03	1.177656E-01	5.975523E-04
5.366865E+03	1.177354E-01	5.974667E-04
5.376804E+03	1.175120E-01	5.968126E-04
5.386742E+03	1.171001E-01	5.955892E-04
5.396681E+03	1.165455E-01	5.940007E-04
5.406620E+03	1.159212E-01	5.923897E-04
5.416558E+03	1.153180E-01	5.911903E-04
5.426497E+03	1.148182E-01	5.907993E-04
5.436435E+03	1.144875E-01	5.915371E-04
5.446374E+03	1.143714E-01	5.936245E-04
5.456313E+03	1.144830E-01	5.971221E-04
5.466251E+03	1.148129E-01	6.019766E-04
5.476190E+03	1.153243E-01	6.079915E-04
5.486129E+03	1.159665E-01	6.148939E-04
5.496067E+03	1.166746E-01	6.223316E-04
5.506006E+03	1.173889E-01	6.299718E-04
5.515945E+03	1.180550E-01	6.375037E-04
5.525883E+03	1.186365E-01	6.447062E-04
5.535822E+03	1.191094E-01	6.514217E-04
5.545760E+03	1.194669E-01	6.575839E-04
5.555699E+03	1.197092E-01	6.631651E-04
5.565638E+03	1.198427E-01	6.681716E-04
5.575576E+03	1.198700E-01	6.725910E-04
5.585515E+03	1.197944E-01	6.764154E-04
5.595454E+03	1.196157E-01	6.796188E-04
5.605392E+03	1.193292E-01	6.821508E-04
5.615331E+03	1.189291E-01	6.839536E-04
5.625270E+03	1.184053E-01	6.849461E-04
5.635208E+03	1.177507E-01	6.850662E-04
5.645147E+03	1.169616E-01	6.842687E-04
5.655086E+03	1.160382E-01	6.825356E-04
5.665024E+03	1.149885E-01	6.798958E-04
5.674963E+03	1.138301E-01	6.764361E-04
5.684901E+03	1.125926E-01	6.723219E-04
5.694840E+03	1.113101E-01	6.677474E-04
5.704779E+03	1.100282E-01	6.629828E-04
5.714717E+03	1.087939E-01	6.583132E-04
5.724656E+03	1.076532E-01	6.540209E-04
5.734595E+03	1.066496E-01	6.503793E-04
5.744533E+03	1.058186E-01	6.476157E-04
5.754472E+03	1.051816E-01	6.458739E-04
5.764411E+03	1.047475E-01	6.452219E-04
5.774349E+03	1.045121E-01	6.456453E-04
5.784288E+03	1.044520E-01	6.470111E-04
5.794226E+03	1.045347E-01	6.491258E-04
5.804165E+03	1.047157E-01	6.517195E-04
5.814104E+03	1.049436E-01	6.544762E-04
5.824042E+03	1.051655E-01	6.570677E-04
5.833981E+03	1.053258E-01	6.591469E-04
5.843920E+03	1.053770E-01	6.604167E-04
5.853858E+03	1.052733E-01	6.605896E-04
5.863797E+03	1.049770E-01	6.594295E-04
5.873736E+03	1.044577E-01	6.567458E-04
5.883674E+03	1.036924E-01	6.523972E-04
5.893613E+03	1.026671E-01	6.462994E-04
5.903551E+03	1.013718E-01	6.383958E-04
5.913490E+03	9.980696E-02	6.286969E-04
5.923429E+03	9.798195E-02	6.172712E-04
5.933367E+03	9.591180E-02	6.042242E-04
5.943306E+03	9.361578E-02	5.896892E-04
5.953245E+03	9.112250E-02	5.738591E-04
5.963183E+03	8.845893E-02	5.569167E-04
5.973122E+03	8.566086E-02	5.391003E-04
5.983061E+03	8.275975E-02	5.206203E-04
5.992999E+03	7.979227E-02	5.017193E-04
6.002938E+03	7.679901E-02	4.826633E-04
6.012877E+03	7.382256E-02	4.637295E-04
6.022815E+03	7.091174E-02	4.452328E-04
6.032754E+03	6.811967E-02	4.275133E-04
6.042692E+03	6.550853E-02	4.109667E-04
6.052631E+03	6.313903E-02	3.959779E-04
6.062570E+03	6.107517E-02	3.829516E-04
6.072508E+03	5.937541E-02	3.722577E-04
6.082447E+03	5.809263E-02	3.642314E-04
6.092386E+03	5.727243E-02	3.591639E-04
6.102324E+03	5.695214E-02	3.572972E-04
6.112263E+03	5.715841E-02	3.588098E-04
6.122202E+03	5.790789E-02	3.638219E-04
6.132140E+03	5.920601E-02	3.723889E-04
6.142079E+03	6.104177E-02	3.844686E-04
6.152017E+03	6.339118E-02	3.999435E-04
6.161956E+03	6.621246E-02	4.185897E-04
6.171895E+03	6.944446E-02	4.400664E-04
6.181833E+03	7.300515E-02	4.639035E-04
6.191772E+03	7.679528E-02	4.895226E-04
6.201711E+03	8.070107E-02	5.162503E-04
6.211649E+03	8.459582E-02	5.433240E-04
6.221588E+03	8.835134E-02	5.699607E-04
6.231527E+03	9.184133E-02	5.953751E-04
6.241465E+03	9.495095E-02	6.188341E-04
6.251404E+03	9.758169E-02	6.396756E-04
6.261342E+03	9.965741E-02	6.573571E-04
6.271281E+03	1.011295E-01	6.714951E-04
6.281220E+03	1.019778E-01	6.818767E-04
6.291158E+03	1.022096E-01	6.884579E-04
6.301097E+03	1.018663E-01	6.914181E-04
6.311036E+03	1.010206E-01	6.911502E-04
6.320974E+03	9.977199E-02	6.882400E-04
6.330913E+03	9.825186E-02	6.835116E-04
6.340852E+03	9.661056E-02	6.779500E-04
6.350790E+03	9.500524E-02	6.726234E-04
6.360729E+03	9.356959E-02	6.684726E-04
6.370667E+03	9.237292E-02	6.660104E-04
6.380606E+03	9.139688E-02	6.651329E-04
6.390545E+03	9.058409E-02	6.654476E-04
6.400483E+03	8.987499E-02	6.665317E-04
6.410422E+03	8.922580E-02	6.680659E-04
6.420361E+03	8.860970E-02	6.698473E-04
6.430299E+03	8.801060E-02	6.717483E-04
6.440238E+03	8.742171E-02	6.737086E-04
6.450177E+03	8.683691E-02	6.756720E-04
6.460115E+03	8.625795E-02	6.776425E-04
6.470054E+03	8.568463E-02	6.796101E-04
6.479993E+03	8.511580E-02	6.815574E-04
6.489931E+03	8.455236E-02	6.834837E-04
6.499870E+03	8.399329E-02	6.853735E-04
6.509808E+03	8.343638E-02	6.872017E-04
6.519747E+03	8.287875E-02	6.889373E-04
6.529686E+03	8.231761E-02	6.905496E-04
6.539624E+03	8.174704E-02	6.919813E-04
6.549563E+03	8.116223E-02	6.931827E-04
6.559502E+03	8.055995E-02	6.941172E-04
6.569440E+03	7.993646E-02	6.947430E-04
6.579379E+03	7.928826E-02	6.950195E-04
6.589318E+03	7.861595E-02	6.949422E-04
6.599256E+03	7.791882E-02	6.944954E-04
6.609195E+03	7.720125E-02	6.937091E-04
6.619133E+03	7.646317E-02	6.925752E-04
6.629072E+03	7.570714E-02	6.911098E-04
6.639011E+03	7.493722E-02	6.893440E-04
6.648949E+03	7.415589E-02	6.872956E-04
6.658888E+03	7.336489E-02	6.849770E-04
6.668827E+03	7.256764E-02	6.824169E-04
6.678765E+03	7.176969E-02	6.796656E-04
6.688704E+03	7.097512E-02	6.767611E-04
6.698643E+03	7.019174E-02	6.737784E-04
6.708581E+03	6.942436E-02	6.707661E-04
6.718520E+03	6.868295E-02	6.678240E-04
6.728458E+03	6.797214E-02	6.650022E-04
6.738397E+03	6.730046E-02	6.623904E-04
6.748336E+03	6.666984E-02	6.600150E-04
6.758274E+03	6.608379E-02	6.579181E-04
6.768213E+03	6.554259E-02	6.561103E-04
6.778152E+03	6.504355E-02	6.545722E-04
6.788090E+03	6.458487E-02	6.532924E-04
6.798029E+03	6.416125E-02	6.522236E-04
6.807968E+03	6.376918E-02	6.513352E-04
6.817906E+03	6.340131E-02	6.505567E-04
6.827845E+03	6.305530E-02	6.498673E-04
6.837784E+03	6.272591E-02	6.492162E-04
6.847722E+03	6.241008E-02	6.485736E-04
6.857661E+03	6.210448E-02	6.479069E-04
6.867599E+03	6.181016E-02	6.472285E-04
6.877538E+03	6.152289E-02	6.464956E-04
6.887477E+03	6.124578E-02	6.457421E-04
6.897415E+03	6.097604E-02	6.449398E-04
6.907354E+03	6.071296E-02	6.440824E-04
6.917293E+03	6.045665E-02	6.431723E-04
6.927231E+03	6.020461E-02	6.421839E-04
6.937170E+03	5.995533E-02	6.411018E-04
6.947109E+03	5.970727E-02	6.399105E-04
6.957047E+03	5.945917E-02	6.385971E-04
6.966986E+03	5.921012E-02	6.371526E-04
6.976924E+03	5.895850E-02	6.355605E-04
6.986863E+03	5.870668E-02	6.338468E-04
6.996802E+03	5.845155E-02	6.319791E-04
7.006740E+03	5.819719E-02	6.300023E-04
7.016679E+03	5.794070E-02	6.278863E-04
7.026618E+03	5.768474E-02	6.256610E-04
7.036556E+03	5.742815E-02	6.233151E-04
7.046495E+03	5.717047E-02	6.208447E-04
7.056434E+03	5.691178E-02	6.182523E-04
7.066372E+03	5.664831E-02	6.154981E-04
7.076311E+03	5.637930E-02	6.125758E-04
7.086249E+03	5.610146E-02	6.094507E-04
7.096188E+03	5.581360E-02	6.061122E-04
7.106127E+03	5.551345E-02	6.025372E-04
7.116065E+03	5.519776E-02	5.986929E-04
7.126004E+03	5.486586E-02	5.945743E-04
7.135943E+03	5.451413E-02	5.901452E-04
7.145881E+03	5.414407E-02	5.854246E-04
7.155820E+03	5.375441E-02	5.804024E-04
7.165759E+03	5.334473E-02	5.750775E-04
7.175697E+03	5.291755E-02	5.694810E-04
7.185636E+03	5.247492E-02	5.636391E-04
7.195575E+03	5.201828E-02	5.575711E-04
7.205513E+03	5.155035E-02	5.513106E-04
7.215452E+03	5.107389E-02	5.448911E-04
7.225390E+03	5.059137E-02	5.383431E-04
7.235329E+03	5.010483E-02	5.316924E-04
7.245268E+03	4.961373E-02	5.249372E-04
7.255206E+03	4.912115E-02	5.181141E-04
7.265145E+03	4.862647E-02	5.112206E-04
7.275084E+03	4.812870E-02	5.042501E-04
7.285022E+03	4.762852E-02	4.972141E-04
7.294961E+03	4.712342E-02	4.900906E-04
7.304900E+03	4.661283E-02	4.828782E-04
7.314838E+03	4.609622E-02	4.755760E-04
7.324777E+03	4.557217E-02	4.681744E-04
7.334715E+03	4.504138E-02	4.606857E-04
7.344654E+03	4.450093E-02	4.530850E-04
7.354593E+03	4.395293E-02	4.453995E-04
7.364531E+03	4.339629E-02	4.376234E-04
7.374470E+03	4.283359E-02	4.297884E-04
7.384409E+03	4.226673E-02	4.219185E-04
7.394347E+03	4.169990E-02	4.140605E-04
7.404286E+03	4.113969E-02	4.062838E-04
7.414225E+03	4.059240E-02	3.986535E-04
7.424163E+03	4.006908E-02	3.912798E-04
7.434102E+03	3.957714E-02	3.842348E-04
7.444040E+03	3.912773E-02	3.776250E-04
7.453979E+03	3.872898E-02	3.715252E-04
7.463918E+03	3.839105E-02	3.660274E-04
7.473856E+03	3.811866E-02	3.611696E-04
7.483795E+03	3.791491E-02	3.569730E-04
7.493734E+03	3.778067E-02	3.534376E-04
7.503672E+03	3.771286E-02	3.505261E-04
7.513611E+03	3.770734E-02	3.481921E-04
7.523550E+03	3.775458E-02	3.463412E-04
7.533488E+03	3.784607E-02	3.448906E-04
7.543427E+03	3.797244E-02	3.437520E-04
7.553366E+03	3.812244E-02	3.428229E-04
7.563304E+03	3.828676E-02	3.420211E-04
7.573243E+03	3.845482E-02	3.412558E-04
7.583181E+03	3.861935E-02	3.404680E-04
7.593120E+03	3.877039E-02	3.395773E-04
7.603059E+03	3.890242E-02	3.385444E-04
7.612997E+03	3.900741E-02	3.373100E-04
7.622936E+03	3.908183E-02	3.358551E-04
7.632875E+03	3.911939E-02	3.341379E-04
7.642813E+03	3.911763E-02	3.321507E-04
7.652752E+03	3.907120E-02	3.298615E-04
7.662691E+03	3.897498E-02	3.272408E-04
7.672629E+03	3.882250E-02	3.242486E-04
7.682568E+03	3.860575E-02	3.208324E-04
7.692506E+03	3.831564E-02	3.169313E-04
7.702445E+03	3.794210E-02	3.124764E-04
7.712384E+03	3.747859E-02	3.074277E-04
