#wls	flux	fluxerr
1.590182E+03	1.260916E-01	5.931069E-03
1.629937E+03	9.789867E-02	4.511921E-03
1.669691E+03	7.472820E-02	3.372732E-03
1.709446E+03	5.604735E-02	2.475946E-03
1.749200E+03	4.128672E-02	1.784285E-03
1.788955E+03	2.986520E-02	1.262031E-03
1.828710E+03	2.120693E-02	8.758374E-04
1.868464E+03	1.478857E-02	5.966382E-04
1.908219E+03	1.014022E-02	3.994677E-04
1.947973E+03	6.864860E-03	2.639608E-04
1.987728E+03	4.615895E-03	1.731729E-04
2.027482E+03	3.107539E-03	1.137158E-04
2.067237E+03	2.117497E-03	7.556107E-05
2.106991E+03	1.484736E-03	5.165560E-05
2.146746E+03	1.100227E-03	3.731653E-05
2.186501E+03	8.873939E-04	2.934178E-05
2.226255E+03	7.997696E-04	2.578301E-05
2.266010E+03	8.185797E-04	2.573531E-05
2.305764E+03	9.509638E-04	2.916702E-05
2.345519E+03	1.236947E-03	3.703005E-05
2.385273E+03	1.767291E-03	5.166806E-05
2.425028E+03	2.712677E-03	7.749404E-05
2.464782E+03	4.368858E-03	1.220245E-04
2.504537E+03	7.206807E-03	1.969160E-04
2.544292E+03	1.189490E-02	3.181166E-04
2.584046E+03	1.922114E-02	5.033796E-04
2.623801E+03	2.986501E-02	7.662086E-04
2.663555E+03	4.415575E-02	1.110170E-03
2.703310E+03	6.189852E-02	1.525540E-03
2.743064E+03	8.224747E-02	1.987494E-03
2.782819E+03	1.037807E-01	2.459330E-03
2.822573E+03	1.247965E-01	2.900543E-03
2.862328E+03	1.436905E-01	3.275882E-03
2.902083E+03	1.592609E-01	3.561823E-03
2.941837E+03	1.709301E-01	3.750444E-03
2.981592E+03	1.787384E-01	3.847936E-03
2.991530E+03	1.801499E-01	3.860014E-03
3.001469E+03	1.813644E-01	3.867725E-03
3.011408E+03	1.823955E-01	3.871422E-03
3.021346E+03	1.832661E-01	3.871649E-03
3.031285E+03	1.839876E-01	3.868696E-03
3.041223E+03	1.845759E-01	3.862946E-03
3.051162E+03	1.850515E-01	3.854868E-03
3.061101E+03	1.854271E-01	3.844761E-03
3.071039E+03	1.857194E-01	3.833005E-03
3.080978E+03	1.859531E-01	3.820134E-03
3.090917E+03	1.861372E-01	3.806344E-03
3.100855E+03	1.862921E-01	3.792061E-03
3.110794E+03	1.864304E-01	3.777537E-03
3.120733E+03	1.865792E-01	3.763320E-03
3.130671E+03	1.867427E-01	3.749484E-03
3.140610E+03	1.869397E-01	3.736393E-03
3.150549E+03	1.871881E-01	3.724389E-03
3.160487E+03	1.875015E-01	3.713723E-03
3.170426E+03	1.878859E-01	3.704491E-03
3.180364E+03	1.883645E-01	3.697119E-03
3.190303E+03	1.889417E-01	3.691669E-03
3.200242E+03	1.896318E-01	3.688387E-03
3.210180E+03	1.904414E-01	3.687363E-03
3.220119E+03	1.913829E-01	3.688803E-03
3.230058E+03	1.924640E-01	3.692818E-03
3.239996E+03	1.936915E-01	3.699496E-03
3.249935E+03	1.950676E-01	3.708838E-03
3.259874E+03	1.965993E-01	3.720937E-03
3.269812E+03	1.982893E-01	3.735797E-03
3.279751E+03	2.001346E-01	3.753322E-03
3.289689E+03	2.021369E-01	3.773503E-03
3.299628E+03	2.042893E-01	3.796165E-03
3.309567E+03	2.065887E-01	3.821215E-03
3.319505E+03	2.090228E-01	3.848385E-03
3.329444E+03	2.115793E-01	3.877418E-03
3.339383E+03	2.142429E-01	3.908000E-03
3.349321E+03	2.169945E-01	3.939756E-03
3.359260E+03	2.198112E-01	3.972252E-03
3.369199E+03	2.226628E-01	4.004928E-03
3.379137E+03	2.255216E-01	4.037278E-03
3.389076E+03	2.283456E-01	4.068554E-03
3.399014E+03	2.311016E-01	4.098177E-03
3.408953E+03	2.337394E-01	4.125278E-03
3.418892E+03	2.362111E-01	4.149048E-03
3.428830E+03	2.384657E-01	4.168639E-03
3.438769E+03	2.404463E-01	4.183116E-03
3.448708E+03	2.421018E-01	4.191667E-03
3.458646E+03	2.433763E-01	4.193408E-03
3.468585E+03	2.442175E-01	4.187541E-03
3.478524E+03	2.445821E-01	4.173424E-03
3.488462E+03	2.444304E-01	4.150478E-03
3.498401E+03	2.437373E-01	4.118390E-03
3.508340E+03	2.424760E-01	4.076822E-03
3.518278E+03	2.406440E-01	4.025856E-03
3.528217E+03	2.382459E-01	3.965695E-03
3.538155E+03	2.353030E-01	3.896817E-03
3.548094E+03	2.318444E-01	3.819823E-03
3.558033E+03	2.279141E-01	3.735557E-03
3.567971E+03	2.235727E-01	3.645114E-03
3.577910E+03	2.188790E-01	3.549546E-03
3.587849E+03	2.139216E-01	3.450370E-03
3.597787E+03	2.088207E-01	3.349580E-03
3.607726E+03	2.037026E-01	3.249229E-03
3.617665E+03	1.986983E-01	3.151397E-03
3.627603E+03	1.939538E-01	3.058360E-03
3.637542E+03	1.896058E-01	2.972191E-03
3.647480E+03	1.857834E-01	2.894796E-03
3.657419E+03	1.825985E-01	2.827762E-03
3.667358E+03	1.801587E-01	2.772564E-03
3.677296E+03	1.785574E-01	2.730413E-03
3.687235E+03	1.778724E-01	2.702244E-03
3.697174E+03	1.781732E-01	2.688824E-03
3.707112E+03	1.795259E-01	2.690835E-03
3.717051E+03	1.819744E-01	2.708594E-03
3.726990E+03	1.855609E-01	2.742363E-03
3.736928E+03	1.903248E-01	2.792334E-03
3.746867E+03	1.962928E-01	2.858483E-03
3.756805E+03	2.034838E-01	2.940657E-03
3.766744E+03	2.119118E-01	3.038601E-03
3.776683E+03	2.215815E-01	3.151917E-03
3.786621E+03	2.324725E-01	3.279833E-03
3.796560E+03	2.445544E-01	3.421434E-03
3.806499E+03	2.577708E-01	3.575443E-03
3.816437E+03	2.720280E-01	3.740089E-03
3.826376E+03	2.872047E-01	3.913255E-03
3.836315E+03	3.031466E-01	4.092430E-03
3.846253E+03	3.196591E-01	4.274634E-03
3.856192E+03	3.365144E-01	4.456538E-03
3.866131E+03	3.534613E-01	4.634623E-03
3.876069E+03	3.702330E-01	4.805298E-03
3.886008E+03	3.865537E-01	4.965001E-03
3.895946E+03	4.021802E-01	5.110745E-03
3.905885E+03	4.168904E-01	5.239944E-03
3.915824E+03	4.304922E-01	5.350525E-03
3.925762E+03	4.428633E-01	5.441397E-03
3.935701E+03	4.539255E-01	5.512086E-03
3.945640E+03	4.636386E-01	5.562642E-03
3.955578E+03	4.720330E-01	5.593988E-03
3.965517E+03	4.791663E-01	5.607370E-03
3.975456E+03	4.851285E-01	5.604387E-03
3.985394E+03	4.900196E-01	5.586719E-03
3.995333E+03	4.939452E-01	5.556060E-03
4.005271E+03	4.970047E-01	5.513984E-03
4.015210E+03	4.992161E-01	5.461127E-03
4.025149E+03	5.005775E-01	5.397908E-03
4.035087E+03	5.010520E-01	5.324392E-03
4.045026E+03	5.005335E-01	5.239947E-03
4.054965E+03	4.988916E-01	5.143771E-03
4.064903E+03	4.960069E-01	5.035265E-03
4.074842E+03	4.917651E-01	4.913962E-03
4.084781E+03	4.860773E-01	4.779731E-03
4.094719E+03	4.789064E-01	4.632995E-03
4.104658E+03	4.702725E-01	4.474753E-03
4.114596E+03	4.602543E-01	4.306534E-03
4.124535E+03	4.489635E-01	4.130118E-03
4.134474E+03	4.365588E-01	3.947630E-03
4.144412E+03	4.232256E-01	3.761323E-03
4.154351E+03	4.091693E-01	3.573494E-03
4.164290E+03	3.946213E-01	3.386523E-03
4.174228E+03	3.798163E-01	3.202659E-03
4.184167E+03	3.649910E-01	3.024013E-03
4.194106E+03	3.504008E-01	2.852693E-03
4.204044E+03	3.362817E-01	2.690492E-03
4.213983E+03	3.228530E-01	2.538930E-03
4.223922E+03	3.103369E-01	2.399431E-03
4.233860E+03	2.989248E-01	2.273068E-03
4.243799E+03	2.887603E-01	2.160473E-03
4.253737E+03	2.799509E-01	2.061963E-03
4.263676E+03	2.725728E-01	1.977610E-03
4.273615E+03	2.666582E-01	1.907172E-03
4.283553E+03	2.621558E-01	1.849848E-03
4.293492E+03	2.589875E-01	1.804713E-03
4.303431E+03	2.570603E-01	1.770828E-03
4.313369E+03	2.562058E-01	1.746821E-03
4.323308E+03	2.562480E-01	1.731369E-03
4.333247E+03	2.569992E-01	1.723161E-03
4.343185E+03	2.582439E-01	1.720773E-03
4.353124E+03	2.597916E-01	1.723006E-03
4.363062E+03	2.615185E-01	1.729142E-03
4.373001E+03	2.633953E-01	1.739053E-03
4.382940E+03	2.654357E-01	1.752782E-03
4.392878E+03	2.676712E-01	1.770459E-03
4.402817E+03	2.701818E-01	1.792530E-03
4.412756E+03	2.730701E-01	1.819598E-03
4.422694E+03	2.764289E-01	1.852215E-03
4.432633E+03	2.803373E-01	1.890863E-03
4.442572E+03	2.848473E-01	1.935865E-03
4.452510E+03	2.899181E-01	1.986929E-03
4.462449E+03	2.953543E-01	2.042697E-03
4.472387E+03	3.008351E-01	2.100890E-03
4.482326E+03	3.060028E-01	2.158878E-03
4.492265E+03	3.105562E-01	2.214319E-03
4.502203E+03	3.142162E-01	2.264926E-03
4.512142E+03	3.167508E-01	2.308656E-03
4.522081E+03	3.180610E-01	2.344354E-03
4.532019E+03	3.181155E-01	2.371334E-03
4.541958E+03	3.169203E-01	2.389175E-03
4.551897E+03	3.145340E-01	2.397865E-03
4.561835E+03	3.110361E-01	2.397579E-03
4.571774E+03	3.065298E-01	2.388722E-03
4.581713E+03	3.011340E-01	2.371868E-03
4.591651E+03	2.949760E-01	2.347720E-03
4.601590E+03	2.881881E-01	2.317083E-03
4.611528E+03	2.809340E-01	2.281078E-03
4.621467E+03	2.733596E-01	2.240753E-03
4.631406E+03	2.656225E-01	2.197316E-03
4.641344E+03	2.578666E-01	2.151923E-03
4.651283E+03	2.502235E-01	2.105680E-03
4.661222E+03	2.428001E-01	2.059531E-03
4.671160E+03	2.356642E-01	2.014120E-03
4.681099E+03	2.288678E-01	1.969976E-03
4.691038E+03	2.224409E-01	1.927456E-03
4.700976E+03	2.163955E-01	1.886760E-03
4.710915E+03	2.107353E-01	1.848019E-03
4.720853E+03	2.054484E-01	1.811224E-03
4.730792E+03	2.005171E-01	1.776309E-03
4.740731E+03	1.959058E-01	1.743041E-03
4.750669E+03	1.915867E-01	1.711247E-03
4.760608E+03	1.875210E-01	1.680647E-03
4.770547E+03	1.836662E-01	1.650920E-03
4.780485E+03	1.799901E-01	1.621830E-03
4.790424E+03	1.764691E-01	1.593214E-03
4.800363E+03	1.730794E-01	1.564901E-03
4.810301E+03	1.698188E-01	1.536915E-03
4.820240E+03	1.667186E-01	1.509580E-03
4.830178E+03	1.638201E-01	1.483311E-03
4.840117E+03	1.611677E-01	1.458544E-03
4.850056E+03	1.588125E-01	1.435772E-03
4.859994E+03	1.568019E-01	1.415444E-03
4.869933E+03	1.551767E-01	1.397944E-03
4.879872E+03	1.539516E-01	1.383402E-03
4.889810E+03	1.531378E-01	1.371912E-03
4.899749E+03	1.527398E-01	1.363493E-03
4.909688E+03	1.527457E-01	1.358009E-03
4.919626E+03	1.531426E-01	1.355307E-03
4.929565E+03	1.539167E-01	1.355218E-03
4.939504E+03	1.550648E-01	1.357659E-03
4.949442E+03	1.565829E-01	1.362533E-03
4.959381E+03	1.584702E-01	1.369762E-03
4.969319E+03	1.607273E-01	1.379275E-03
4.979258E+03	1.633609E-01	1.391041E-03
4.989197E+03	1.663652E-01	1.404919E-03
4.999135E+03	1.697246E-01	1.420678E-03
5.009074E+03	1.734168E-01	1.438030E-03
5.019013E+03	1.774042E-01	1.456565E-03
5.028951E+03	1.816248E-01	1.475682E-03
5.038890E+03	1.860004E-01	1.494672E-03
5.048829E+03	1.904382E-01	1.512735E-03
5.058767E+03	1.948183E-01	1.528897E-03
5.068706E+03	1.990083E-01	1.542137E-03
5.078644E+03	2.028741E-01	1.551486E-03
5.088583E+03	2.062813E-01	1.556031E-03
5.098522E+03	2.091093E-01	1.555035E-03
5.108460E+03	2.112432E-01	1.547868E-03
5.118399E+03	2.126125E-01	1.534284E-03
5.128338E+03	2.131656E-01	1.514219E-03
5.138276E+03	2.128769E-01	1.487826E-03
5.148215E+03	2.117493E-01	1.455481E-03
5.158154E+03	2.098082E-01	1.417718E-03
5.168092E+03	2.071077E-01	1.375259E-03
5.178031E+03	2.037315E-01	1.329001E-03
5.187969E+03	1.997886E-01	1.279961E-03
5.197908E+03	1.953952E-01	1.229154E-03
5.207847E+03	1.907017E-01	1.177747E-03
5.217785E+03	1.858612E-01	1.126850E-03
5.227724E+03	1.810271E-01	1.077503E-03
5.237663E+03	1.763625E-01	1.030726E-03
5.247601E+03	1.720267E-01	9.874477E-04
5.257540E+03	1.681456E-01	9.483412E-04
5.267479E+03	1.648047E-01	9.138096E-04
5.277417E+03	1.620643E-01	8.840977E-04
5.287356E+03	1.599608E-01	8.593136E-04
5.297295E+03	1.584741E-01	8.392732E-04
5.307233E+03	1.575669E-01	8.237315E-04
5.317172E+03	1.571762E-01	8.123428E-04
5.327110E+03	1.571827E-01	8.045119E-04
5.337049E+03	1.574375E-01	7.995349E-04
5.346988E+03	1.577679E-01	7.966210E-04
5.356926E+03	1.579194E-01	7.945855E-04
5.366865E+03	1.576213E-01	7.921394E-04
5.376804E+03	1.566477E-01	7.880911E-04
5.386742E+03	1.548954E-01	7.817868E-04
5.396681E+03	1.524357E-01	7.733911E-04
5.406620E+03	1.495046E-01	7.638670E-04
5.416558E+03	1.464587E-01	7.548037E-04
5.426497E+03	1.436773E-01	7.479650E-04
5.436435E+03	1.414819E-01	7.449041E-04
5.446374E+03	1.400580E-01	7.465532E-04
5.456313E+03	1.395331E-01	7.536135E-04
5.466251E+03	1.399861E-01	7.665903E-04
5.476190E+03	1.413451E-01	7.852047E-04
5.486129E+03	1.434887E-01	8.089005E-04
5.496067E+03	1.462745E-01	8.369785E-04
5.506006E+03	1.495331E-01	8.685432E-04
5.515945E+03	1.530684E-01	9.024884E-04
5.525883E+03	1.566952E-01	9.377047E-04
5.535822E+03	1.602768E-01	9.733130E-04
5.545760E+03	1.636985E-01	1.008518E-03
5.555699E+03	1.668530E-01	1.042534E-03
5.565638E+03	1.696705E-01	1.074771E-03
5.575576E+03	1.720934E-01	1.104703E-03
5.585515E+03	1.740822E-01	1.131901E-03
5.595454E+03	1.756232E-01	1.156104E-03
5.605392E+03	1.767177E-01	1.177153E-03
5.615331E+03	1.773783E-01	1.194975E-03
5.625270E+03	1.776232E-01	1.209549E-03
5.635208E+03	1.774813E-01	1.220944E-03
5.645147E+03	1.769870E-01	1.229287E-03
5.655086E+03	1.761754E-01	1.234729E-03
5.665024E+03	1.750844E-01	1.237459E-03
5.674963E+03	1.737546E-01	1.237705E-03
5.684901E+03	1.722347E-01	1.235773E-03
5.694840E+03	1.705671E-01	1.231939E-03
5.704779E+03	1.688068E-01	1.226586E-03
5.714717E+03	1.670228E-01	1.220216E-03
5.724656E+03	1.652848E-01	1.213349E-03
5.734595E+03	1.636606E-01	1.206503E-03
5.744533E+03	1.622135E-01	1.200174E-03
5.754472E+03	1.609968E-01	1.194785E-03
5.764411E+03	1.600519E-01	1.190673E-03
5.774349E+03	1.593994E-01	1.188020E-03
5.784288E+03	1.590406E-01	1.186858E-03
5.794226E+03	1.589720E-01	1.187177E-03
5.804165E+03	1.591708E-01	1.188819E-03
5.814104E+03	1.596045E-01	1.191548E-03
5.824042E+03	1.602358E-01	1.195087E-03
5.833981E+03	1.610119E-01	1.199045E-03
5.843920E+03	1.618809E-01	1.203035E-03
5.853858E+03	1.627784E-01	1.206585E-03
5.863797E+03	1.636337E-01	1.209177E-03
5.873736E+03	1.643704E-01	1.210267E-03
5.883674E+03	1.649076E-01	1.209287E-03
5.893613E+03	1.651592E-01	1.205650E-03
5.903551E+03	1.650328E-01	1.198742E-03
5.913490E+03	1.644421E-01	1.188018E-03
5.923429E+03	1.633060E-01	1.172990E-03
5.933367E+03	1.615517E-01	1.153259E-03
5.943306E+03	1.591188E-01	1.128533E-03
5.953245E+03	1.559759E-01	1.098748E-03
5.963183E+03	1.521059E-01	1.063954E-03
5.973122E+03	1.475293E-01	1.024471E-03
5.983061E+03	1.422874E-01	9.807596E-04
5.992999E+03	1.364525E-01	9.334851E-04
6.002938E+03	1.301271E-01	8.834986E-04
6.012877E+03	1.234491E-01	8.318613E-04
6.022815E+03	1.165682E-01	7.796764E-04
6.032754E+03	1.096403E-01	7.280439E-04
6.042692E+03	1.028486E-01	6.782043E-04
6.052631E+03	9.635316E-02	6.311990E-04
6.062570E+03	9.029764E-02	5.879272E-04
6.072508E+03	8.481731E-02	5.492049E-04
6.082447E+03	8.001959E-02	5.156491E-04
6.092386E+03	7.598310E-02	4.876845E-04
6.102324E+03	7.277137E-02	4.656439E-04
6.112263E+03	7.043538E-02	4.497945E-04
6.122202E+03	6.901333E-02	4.403464E-04
6.132140E+03	6.852217E-02	4.374077E-04
6.142079E+03	6.898246E-02	4.411508E-04
6.152017E+03	7.041275E-02	4.517839E-04
6.161956E+03	7.277468E-02	4.692037E-04
6.171895E+03	7.601081E-02	4.932354E-04
6.181833E+03	8.004810E-02	5.236410E-04
6.191772E+03	8.476813E-02	5.598814E-04
6.201711E+03	9.000636E-02	6.011058E-04
6.211649E+03	9.556346E-02	6.462033E-04
6.221588E+03	1.012424E-01	6.940225E-04
6.231527E+03	1.068237E-01	7.431791E-04
6.241465E+03	1.120728E-01	7.920784E-04
6.251404E+03	1.167780E-01	8.391615E-04
6.261342E+03	1.207457E-01	8.828673E-04
6.271281E+03	1.238190E-01	9.217718E-04
6.281220E+03	1.259208E-01	9.549310E-04
6.291158E+03	1.270299E-01	9.817515E-04
6.301097E+03	1.271865E-01	1.002074E-03
6.311036E+03	1.265094E-01	1.016365E-03
6.320974E+03	1.251558E-01	1.025455E-03
6.330913E+03	1.233155E-01	1.030537E-03
6.340852E+03	1.212110E-01	1.033192E-03
6.350790E+03	1.190555E-01	1.035072E-03
6.360729E+03	1.170246E-01	1.037644E-03
6.370667E+03	1.152379E-01	1.041996E-03
6.380606E+03	1.137063E-01	1.048303E-03
6.390545E+03	1.123843E-01	1.056230E-03
6.400483E+03	1.112265E-01	1.065412E-03
6.410422E+03	1.101874E-01	1.075457E-03
6.420361E+03	1.092248E-01	1.085979E-03
6.430299E+03	1.083120E-01	1.096718E-03
6.440238E+03	1.074287E-01	1.107465E-03
6.450177E+03	1.065520E-01	1.117971E-03
6.460115E+03	1.056732E-01	1.128122E-03
6.470054E+03	1.047832E-01	1.137801E-03
6.479993E+03	1.038729E-01	1.146879E-03
6.489931E+03	1.029388E-01	1.155291E-03
6.499870E+03	1.019777E-01	1.162969E-03
6.509808E+03	1.009869E-01	1.169856E-03
6.519747E+03	9.996514E-02	1.175909E-03
6.529686E+03	9.891350E-02	1.181112E-03
6.539624E+03	9.783075E-02	1.185426E-03
6.549563E+03	9.671849E-02	1.188845E-03
6.559502E+03	9.558067E-02	1.191398E-03
6.569440E+03	9.442010E-02	1.193101E-03
6.579379E+03	9.323918E-02	1.193970E-03
6.589318E+03	9.204388E-02	1.194067E-03
6.599256E+03	9.083717E-02	1.193424E-03
6.609195E+03	8.962657E-02	1.192134E-03
6.619133E+03	8.841370E-02	1.190216E-03
6.629072E+03	8.720298E-02	1.187731E-03
6.639011E+03	8.599976E-02	1.184754E-03
6.648949E+03	8.480775E-02	1.181344E-03
6.658888E+03	8.362906E-02	1.177537E-03
6.668827E+03	8.246691E-02	1.173389E-03
6.678765E+03	8.132580E-02	1.168975E-03
6.688704E+03	8.020725E-02	1.164331E-03
6.698643E+03	7.911563E-02	1.159535E-03
6.708581E+03	7.805104E-02	1.154604E-03
6.718520E+03	7.701905E-02	1.149638E-03
6.728458E+03	7.601936E-02	1.144651E-03
6.738397E+03	7.505695E-02	1.139734E-03
6.748336E+03	7.413102E-02	1.134897E-03
6.758274E+03	7.324425E-02	1.130198E-03
6.768213E+03	7.239753E-02	1.125672E-03
6.778152E+03	7.159014E-02	1.121325E-03
6.788090E+03	7.082347E-02	1.117199E-03
6.798029E+03	7.009587E-02	1.113285E-03
6.807968E+03	6.940811E-02	1.109613E-03
6.817906E+03	6.875658E-02	1.106142E-03
6.827845E+03	6.814265E-02	1.102909E-03
6.837784E+03	6.756384E-02	1.099889E-03
6.847722E+03	6.701874E-02	1.097073E-03
6.857661E+03	6.650471E-02	1.094430E-03
6.867599E+03	6.602300E-02	1.091991E-03
6.877538E+03	6.556863E-02	1.089687E-03
6.887477E+03	6.514426E-02	1.087570E-03
6.897415E+03	6.474621E-02	1.085589E-03
6.907354E+03	6.437293E-02	1.083727E-03
6.917293E+03	6.402401E-02	1.081983E-03
6.927231E+03	6.369650E-02	1.080315E-03
6.937170E+03	6.338838E-02	1.078695E-03
6.947109E+03	6.309754E-02	1.077092E-03
6.957047E+03	6.282189E-02	1.075476E-03
6.966986E+03	6.255912E-02	1.073810E-03
6.976924E+03	6.230568E-02	1.072038E-03
6.986863E+03	6.206179E-02	1.070166E-03
6.996802E+03	6.182158E-02	1.068096E-03
7.006740E+03	6.158663E-02	1.065857E-03
7.016679E+03	6.135128E-02	1.063354E-03
7.026618E+03	6.111618E-02	1.060600E-03
7.036556E+03	6.087843E-02	1.057547E-03
7.046495E+03	6.063644E-02	1.054169E-03
7.056434E+03	6.038998E-02	1.050464E-03
7.066372E+03	6.013530E-02	1.046369E-03
7.076311E+03	5.987226E-02	1.041884E-03
7.086249E+03	5.959821E-02	1.036966E-03
7.096188E+03	5.931287E-02	1.031613E-03
7.106127E+03	5.901481E-02	1.025804E-03
7.116065E+03	5.870121E-02	1.019493E-03
7.126004E+03	5.837169E-02	1.012679E-03
7.135943E+03	5.802243E-02	1.005299E-03
7.145881E+03	5.765441E-02	9.973772E-04
7.155820E+03	5.726520E-02	9.888765E-04
7.165759E+03	5.685254E-02	9.797653E-04
7.175697E+03	5.641667E-02	9.700553E-04
7.185636E+03	5.595681E-02	9.597412E-04
7.195575E+03	5.547123E-02	9.488029E-04
7.205513E+03	5.495959E-02	9.372441E-04
7.215452E+03	5.442177E-02	9.250738E-04
7.225390E+03	5.385800E-02	9.123071E-04
7.235329E+03	5.326901E-02	8.989684E-04
7.245268E+03	5.265366E-02	8.850510E-04
7.255206E+03	5.201565E-02	8.706304E-04
7.265145E+03	5.135598E-02	8.557368E-04
7.275084E+03	5.067611E-02	8.404079E-04
7.285022E+03	4.997994E-02	8.247217E-04
7.294961E+03	4.926881E-02	8.087138E-04
7.304900E+03	4.854647E-02	7.924589E-04
7.314838E+03	4.781681E-02	7.760329E-04
7.324777E+03	4.708298E-02	7.594982E-04
7.334715E+03	4.635017E-02	7.429494E-04
7.344654E+03	4.561968E-02	7.264168E-04
7.354593E+03	4.489776E-02	7.100083E-04
7.364531E+03	4.418672E-02	6.937672E-04
7.374470E+03	4.349176E-02	6.777806E-04
7.384409E+03	4.281621E-02	6.621039E-04
7.394347E+03	4.216427E-02	6.468042E-04
7.404286E+03	4.154098E-02	6.319583E-04
7.414225E+03	4.094979E-02	6.176166E-04
7.424163E+03	4.039754E-02	6.038769E-04
7.434102E+03	3.988635E-02	5.907635E-04
7.444040E+03	3.942154E-02	5.783456E-04
7.453979E+03	3.900551E-02	5.666460E-04
7.463918E+03	3.864337E-02	5.557244E-04
7.473856E+03	3.833565E-02	5.455715E-04
7.483795E+03	3.808313E-02	5.361806E-04
7.493734E+03	3.788675E-02	5.275456E-04
7.503672E+03	3.774521E-02	5.196285E-04
7.513611E+03	3.765827E-02	5.124061E-04
7.523550E+03	3.762209E-02	5.058060E-04
7.533488E+03	3.763482E-02	4.997848E-04
7.543427E+03	3.769438E-02	4.942970E-04
7.553366E+03	3.779704E-02	4.892766E-04
7.563304E+03	3.794085E-02	4.846835E-04
7.573243E+03	3.812223E-02	4.804583E-04
7.583181E+03	3.834006E-02	4.765748E-04
7.593120E+03	3.858971E-02	4.729655E-04
7.603059E+03	3.886989E-02	4.696069E-04
7.612997E+03	3.917572E-02	4.664346E-04
7.622936E+03	3.950575E-02	4.634289E-04
7.632875E+03	3.985478E-02	4.605292E-04
7.642813E+03	4.022110E-02	4.577194E-04
7.652752E+03	4.060034E-02	4.549563E-04
7.662691E+03	4.098880E-02	4.522093E-04
7.672629E+03	4.138239E-02	4.494477E-04
7.682568E+03	4.177651E-02	4.466401E-04
7.692506E+03	4.216604E-02	4.437552E-04
7.702445E+03	4.254394E-02	4.407473E-04
7.712384E+03	4.290435E-02	4.375893E-04
