#wls	flux	fluxerr
1.590182E+03	9.901856E-02	4.860170E-03
1.629937E+03	7.671293E-02	3.703668E-03
1.669691E+03	5.865526E-02	2.784581E-03
1.709446E+03	4.428019E-02	2.066415E-03
1.749200E+03	3.302933E-02	1.514727E-03
1.788955E+03	2.436583E-02	1.097793E-03
1.828710E+03	1.780129E-02	7.877402E-04
1.868464E+03	1.290308E-02	5.606787E-04
1.908219E+03	9.299967E-03	3.967350E-04
1.947973E+03	6.687101E-03	2.800133E-04
1.987728E+03	4.821640E-03	1.981509E-04
2.027482E+03	3.509431E-03	1.415325E-04
2.067237E+03	2.600429E-03	1.029106E-04
2.106991E+03	1.984921E-03	7.708231E-05
2.146746E+03	1.585557E-03	6.042487E-05
2.186501E+03	1.348743E-03	5.044740E-05
2.226255E+03	1.241039E-03	4.556739E-05
2.266010E+03	1.248181E-03	4.500019E-05
2.305764E+03	1.373688E-03	4.864150E-05
2.345519E+03	1.643188E-03	5.716136E-05
2.385273E+03	2.112045E-03	7.219857E-05
2.425028E+03	2.875642E-03	9.662256E-05
2.464782E+03	4.082298E-03	1.348531E-04
2.504537E+03	5.944206E-03	1.930824E-04
2.544292E+03	8.734212E-03	2.790164E-04
2.584046E+03	1.275601E-02	4.007999E-04
2.623801E+03	1.827954E-02	5.649631E-04
2.663555E+03	2.547510E-02	7.745226E-04
2.703310E+03	3.435746E-02	1.027571E-03
2.743064E+03	4.472302E-02	1.315808E-03
2.782819E+03	5.612851E-02	1.624445E-03
2.822573E+03	6.792077E-02	1.933603E-03
2.862328E+03	7.933741E-02	2.221599E-03
2.902083E+03	8.965285E-02	2.469183E-03
2.941837E+03	9.829650E-02	2.662626E-03
2.981592E+03	1.049150E-01	2.794990E-03
2.991530E+03	1.062335E-01	2.818357E-03
3.001469E+03	1.074212E-01	2.838024E-03
3.011408E+03	1.084735E-01	2.853920E-03
3.021346E+03	1.093942E-01	2.866189E-03
3.031285E+03	1.101901E-01	2.875052E-03
3.041223E+03	1.108588E-01	2.880498E-03
3.051162E+03	1.114085E-01	2.882776E-03
3.061101E+03	1.118430E-01	2.882027E-03
3.071039E+03	1.121666E-01	2.878398E-03
3.080978E+03	1.123839E-01	2.872049E-03
3.090917E+03	1.125047E-01	2.863263E-03
3.100855E+03	1.125321E-01	2.852148E-03
3.110794E+03	1.124740E-01	2.838932E-03
3.120733E+03	1.123363E-01	2.823785E-03
3.130671E+03	1.121249E-01	2.806881E-03
3.140610E+03	1.118482E-01	2.788444E-03
3.150549E+03	1.115143E-01	2.768696E-03
3.160487E+03	1.111252E-01	2.747702E-03
3.170426E+03	1.106933E-01	2.725779E-03
3.180364E+03	1.102223E-01	2.703031E-03
3.190303E+03	1.097204E-01	2.679665E-03
3.200242E+03	1.091933E-01	2.655828E-03
3.210180E+03	1.086448E-01	2.631615E-03
3.220119E+03	1.080862E-01	2.607305E-03
3.230058E+03	1.075172E-01	2.582894E-03
3.239996E+03	1.069487E-01	2.558639E-03
3.249935E+03	1.063855E-01	2.534655E-03
3.259874E+03	1.058292E-01	2.510976E-03
3.269812E+03	1.052897E-01	2.487830E-03
3.279751E+03	1.047679E-01	2.465238E-03
3.289689E+03	1.042702E-01	2.443335E-03
3.299628E+03	1.038004E-01	2.422208E-03
3.309567E+03	1.033642E-01	2.401978E-03
3.319505E+03	1.029640E-01	2.382687E-03
3.329444E+03	1.026031E-01	2.364405E-03
3.339383E+03	1.022853E-01	2.347202E-03
3.349321E+03	1.020150E-01	2.331167E-03
3.359260E+03	1.017939E-01	2.316326E-03
3.369199E+03	1.016248E-01	2.302725E-03
3.379137E+03	1.015103E-01	2.290410E-03
3.389076E+03	1.014514E-01	2.279387E-03
3.399014E+03	1.014502E-01	2.269687E-03
3.408953E+03	1.015087E-01	2.261336E-03
3.418892E+03	1.016269E-01	2.254321E-03
3.428830E+03	1.018060E-01	2.248647E-03
3.438769E+03	1.020449E-01	2.244276E-03
3.448708E+03	1.023414E-01	2.241141E-03
3.458646E+03	1.026913E-01	2.239139E-03
3.468585E+03	1.030875E-01	2.238098E-03
3.478524E+03	1.035236E-01	2.237864E-03
3.488462E+03	1.039899E-01	2.238219E-03
3.498401E+03	1.044762E-01	2.238926E-03
3.508340E+03	1.049715E-01	2.239742E-03
3.518278E+03	1.054696E-01	2.240527E-03
3.528217E+03	1.059628E-01	2.241114E-03
3.538155E+03	1.064433E-01	2.241331E-03
3.548094E+03	1.069086E-01	2.241130E-03
3.558033E+03	1.073582E-01	2.240494E-03
3.567971E+03	1.077929E-01	2.239446E-03
3.577910E+03	1.082156E-01	2.238038E-03
3.587849E+03	1.086358E-01	2.236469E-03
3.597787E+03	1.090639E-01	2.234946E-03
3.607726E+03	1.095123E-01	2.233717E-03
3.617665E+03	1.100010E-01	2.233176E-03
3.627603E+03	1.105485E-01	2.233680E-03
3.637542E+03	1.111757E-01	2.235629E-03
3.647480E+03	1.119057E-01	2.239457E-03
3.657419E+03	1.127621E-01	2.245601E-03
3.667358E+03	1.137679E-01	2.254472E-03
3.677296E+03	1.149489E-01	2.266533E-03
3.687235E+03	1.163268E-01	2.282150E-03
3.697174E+03	1.179252E-01	2.301721E-03
3.707112E+03	1.197681E-01	2.325638E-03
3.717051E+03	1.218726E-01	2.354154E-03
3.726990E+03	1.242619E-01	2.387625E-03
3.736928E+03	1.269493E-01	2.426213E-03
3.746867E+03	1.299524E-01	2.470153E-03
3.756805E+03	1.332826E-01	2.519552E-03
3.766744E+03	1.369482E-01	2.574456E-03
3.776683E+03	1.409545E-01	2.634847E-03
3.786621E+03	1.453018E-01	2.700611E-03
3.796560E+03	1.499864E-01	2.771561E-03
3.806499E+03	1.549997E-01	2.847418E-03
3.816437E+03	1.603261E-01	2.927776E-03
3.826376E+03	1.659455E-01	3.012159E-03
3.836315E+03	1.718321E-01	3.099988E-03
3.846253E+03	1.779529E-01	3.190573E-03
3.856192E+03	1.842710E-01	3.283162E-03
3.866131E+03	1.907447E-01	3.376940E-03
3.876069E+03	1.973273E-01	3.471017E-03
3.886008E+03	2.039705E-01	3.564503E-03
3.895946E+03	2.106233E-01	3.656479E-03
3.905885E+03	2.172375E-01	3.746101E-03
3.915824E+03	2.237632E-01	3.832520E-03
3.925762E+03	2.301545E-01	3.914978E-03
3.935701E+03	2.363657E-01	3.992745E-03
3.945640E+03	2.423625E-01	4.065309E-03
3.955578E+03	2.481087E-01	4.132136E-03
3.965517E+03	2.535769E-01	4.192867E-03
3.975456E+03	2.587430E-01	4.247208E-03
3.985394E+03	2.635917E-01	4.295023E-03
3.995333E+03	2.681063E-01	4.336164E-03
4.005271E+03	2.722798E-01	4.370648E-03
4.015210E+03	2.761017E-01	4.398446E-03
4.025149E+03	2.795705E-01	4.419673E-03
4.035087E+03	2.826795E-01	4.434370E-03
4.045026E+03	2.854275E-01	4.442670E-03
4.054965E+03	2.878139E-01	4.444713E-03
4.064903E+03	2.898388E-01	4.440653E-03
4.074842E+03	2.914981E-01	4.430587E-03
4.084781E+03	2.927928E-01	4.414688E-03
4.094719E+03	2.937227E-01	4.393110E-03
4.104658E+03	2.942906E-01	4.366057E-03
4.114596E+03	2.945012E-01	4.333757E-03
4.124535E+03	2.943569E-01	4.296403E-03
4.134474E+03	2.938687E-01	4.254314E-03
4.144412E+03	2.930445E-01	4.207753E-03
4.154351E+03	2.918990E-01	4.157081E-03
4.164290E+03	2.904505E-01	4.102699E-03
4.174228E+03	2.887162E-01	4.044985E-03
4.184167E+03	2.867208E-01	3.984408E-03
4.194106E+03	2.844900E-01	3.921440E-03
4.204044E+03	2.820563E-01	3.856632E-03
4.213983E+03	2.794455E-01	3.790429E-03
4.223922E+03	2.766939E-01	3.723400E-03
4.233860E+03	2.738317E-01	3.656019E-03
4.243799E+03	2.708958E-01	3.588829E-03
4.253737E+03	2.679135E-01	3.522235E-03
4.263676E+03	2.649173E-01	3.456691E-03
4.273615E+03	2.619368E-01	3.392604E-03
4.283553E+03	2.589932E-01	3.330258E-03
4.293492E+03	2.561122E-01	3.269983E-03
4.303431E+03	2.533065E-01	3.211941E-03
4.313369E+03	2.505960E-01	3.156371E-03
4.323308E+03	2.479883E-01	3.103352E-03
4.333247E+03	2.455024E-01	3.053091E-03
4.343185E+03	2.431658E-01	3.005900E-03
4.353124E+03	2.410042E-01	2.962055E-03
4.363062E+03	2.390464E-01	2.921872E-03
4.373001E+03	2.373181E-01	2.885618E-03
4.382940E+03	2.358369E-01	2.853463E-03
4.392878E+03	2.346228E-01	2.825603E-03
4.402817E+03	2.336821E-01	2.802072E-03
4.412756E+03	2.330185E-01	2.782873E-03
4.422694E+03	2.326265E-01	2.767888E-03
4.432633E+03	2.324949E-01	2.756898E-03
4.442572E+03	2.326001E-01	2.749547E-03
4.452510E+03	2.329141E-01	2.745432E-03
4.462449E+03	2.333931E-01	2.743972E-03
4.472387E+03	2.339858E-01	2.744505E-03
4.482326E+03	2.346392E-01	2.746357E-03
4.492265E+03	2.352896E-01	2.748733E-03
4.502203E+03	2.358791E-01	2.750913E-03
4.512142E+03	2.363521E-01	2.752205E-03
4.522081E+03	2.366530E-01	2.751924E-03
4.532019E+03	2.367358E-01	2.749492E-03
4.541958E+03	2.365572E-01	2.744367E-03
4.551897E+03	2.360858E-01	2.736146E-03
4.561835E+03	2.352966E-01	2.724499E-03
4.571774E+03	2.341736E-01	2.709202E-03
4.581713E+03	2.327080E-01	2.690115E-03
4.591651E+03	2.309058E-01	2.667268E-03
4.601590E+03	2.287732E-01	2.640696E-03
4.611528E+03	2.263299E-01	2.610592E-03
4.621467E+03	2.236005E-01	2.577208E-03
4.631406E+03	2.206129E-01	2.540834E-03
4.641344E+03	2.174050E-01	2.501881E-03
4.651283E+03	2.140101E-01	2.460707E-03
4.661222E+03	2.104690E-01	2.417760E-03
4.671160E+03	2.068246E-01	2.373515E-03
4.681099E+03	2.031139E-01	2.328380E-03
4.691038E+03	1.993759E-01	2.282791E-03
4.700976E+03	1.956477E-01	2.237158E-03
4.710915E+03	1.919613E-01	2.191840E-03
4.720853E+03	1.883462E-01	2.147164E-03
4.730792E+03	1.848311E-01	2.103450E-03
4.740731E+03	1.814352E-01	2.060908E-03
4.750669E+03	1.781804E-01	2.019780E-03
4.760608E+03	1.750822E-01	1.980233E-03
4.770547E+03	1.721512E-01	1.942381E-03
4.780485E+03	1.694004E-01	1.906358E-03
4.790424E+03	1.668350E-01	1.872213E-03
4.800363E+03	1.644601E-01	1.839992E-03
4.810301E+03	1.622786E-01	1.809714E-03
4.820240E+03	1.602921E-01	1.781384E-03
4.830178E+03	1.585037E-01	1.755018E-03
4.840117E+03	1.569084E-01	1.730544E-03
4.850056E+03	1.555078E-01	1.707961E-03
4.859994E+03	1.542984E-01	1.687210E-03
4.869933E+03	1.532796E-01	1.668263E-03
4.879872E+03	1.524479E-01	1.651057E-03
4.889810E+03	1.518011E-01	1.635545E-03
4.899749E+03	1.513388E-01	1.621694E-03
4.909688E+03	1.510564E-01	1.609428E-03
4.919626E+03	1.509541E-01	1.598721E-03
4.929565E+03	1.510306E-01	1.589525E-03
4.939504E+03	1.512850E-01	1.581800E-03
4.949442E+03	1.517145E-01	1.575484E-03
4.959381E+03	1.523176E-01	1.570525E-03
4.969319E+03	1.530936E-01	1.566880E-03
4.979258E+03	1.540362E-01	1.564449E-03
4.989197E+03	1.551434E-01	1.563175E-03
4.999135E+03	1.564058E-01	1.562928E-03
5.009074E+03	1.578146E-01	1.563584E-03
5.019013E+03	1.593598E-01	1.565014E-03
5.028951E+03	1.610255E-01	1.567033E-03
5.038890E+03	1.627949E-01	1.569453E-03
5.048829E+03	1.646460E-01	1.572046E-03
5.058767E+03	1.665573E-01	1.574596E-03
5.068706E+03	1.685033E-01	1.576861E-03
5.078644E+03	1.704526E-01	1.578557E-03
5.088583E+03	1.723776E-01	1.579448E-03
5.098522E+03	1.742477E-01	1.579288E-03
5.108460E+03	1.760326E-01	1.577848E-03
5.118399E+03	1.777013E-01	1.574909E-03
5.128338E+03	1.792263E-01	1.570298E-03
5.138276E+03	1.805814E-01	1.563871E-03
5.148215E+03	1.817495E-01	1.555576E-03
5.158154E+03	1.827111E-01	1.545352E-03
5.168092E+03	1.834559E-01	1.533223E-03
5.178031E+03	1.839789E-01	1.519269E-03
5.187969E+03	1.842830E-01	1.503637E-03
5.197908E+03	1.843716E-01	1.486476E-03
5.207847E+03	1.842568E-01	1.468009E-03
5.217785E+03	1.839592E-01	1.448520E-03
5.227724E+03	1.834944E-01	1.428245E-03
5.237663E+03	1.828899E-01	1.407508E-03
5.247601E+03	1.821696E-01	1.386593E-03
5.257540E+03	1.813600E-01	1.365798E-03
5.267479E+03	1.804895E-01	1.345419E-03
5.277417E+03	1.795797E-01	1.325697E-03
5.287356E+03	1.786558E-01	1.306888E-03
5.297295E+03	1.777387E-01	1.289211E-03
5.307233E+03	1.768464E-01	1.272853E-03
5.317172E+03	1.759955E-01	1.257989E-03
5.327110E+03	1.751942E-01	1.244727E-03
5.337049E+03	1.744528E-01	1.233186E-03
5.346988E+03	1.737766E-01	1.223446E-03
5.356926E+03	1.731663E-01	1.215554E-03
5.366865E+03	1.726248E-01	1.209559E-03
5.376804E+03	1.721467E-01	1.205395E-03
5.386742E+03	1.717232E-01	1.202939E-03
5.396681E+03	1.713460E-01	1.202064E-03
5.406620E+03	1.710093E-01	1.202656E-03
5.416558E+03	1.707042E-01	1.204579E-03
5.426497E+03	1.704298E-01	1.207748E-03
5.436435E+03	1.701851E-01	1.212079E-03
5.446374E+03	1.699664E-01	1.217470E-03
5.456313E+03	1.697734E-01	1.223842E-03
5.466251E+03	1.696069E-01	1.231126E-03
5.476190E+03	1.694631E-01	1.239221E-03
5.486129E+03	1.693366E-01	1.248018E-03
5.496067E+03	1.692207E-01	1.257396E-03
5.506006E+03	1.691118E-01	1.267262E-03
5.515945E+03	1.689969E-01	1.277450E-03
5.525883E+03	1.688679E-01	1.287835E-03
5.535822E+03	1.687129E-01	1.298261E-03
5.545760E+03	1.685211E-01	1.308581E-03
5.555699E+03	1.682819E-01	1.318649E-03
5.565638E+03	1.679832E-01	1.328308E-03
5.575576E+03	1.676179E-01	1.337441E-03
5.585515E+03	1.671769E-01	1.345916E-03
5.595454E+03	1.666531E-01	1.353616E-03
5.605392E+03	1.660468E-01	1.360491E-03
5.615331E+03	1.653558E-01	1.366468E-03
5.625270E+03	1.645804E-01	1.371502E-03
5.635208E+03	1.637269E-01	1.375601E-03
5.645147E+03	1.628038E-01	1.378797E-03
5.655086E+03	1.618165E-01	1.381102E-03
5.665024E+03	1.607774E-01	1.382591E-03
5.674963E+03	1.596997E-01	1.383356E-03
5.684901E+03	1.585941E-01	1.383469E-03
5.694840E+03	1.574747E-01	1.383042E-03
5.704779E+03	1.563520E-01	1.382158E-03
5.714717E+03	1.552386E-01	1.380924E-03
5.724656E+03	1.541443E-01	1.379429E-03
5.734595E+03	1.530788E-01	1.377761E-03
5.744533E+03	1.520446E-01	1.375952E-03
5.754472E+03	1.510502E-01	1.374084E-03
5.764411E+03	1.500934E-01	1.372150E-03
5.774349E+03	1.491742E-01	1.370160E-03
5.784288E+03	1.482887E-01	1.368092E-03
5.794226E+03	1.474302E-01	1.365895E-03
5.804165E+03	1.465916E-01	1.363517E-03
5.814104E+03	1.457616E-01	1.360868E-03
5.824042E+03	1.449276E-01	1.357842E-03
5.833981E+03	1.440735E-01	1.354302E-03
5.843920E+03	1.431873E-01	1.350146E-03
5.853858E+03	1.422509E-01	1.345221E-03
5.863797E+03	1.412498E-01	1.339401E-03
5.873736E+03	1.401661E-01	1.332530E-03
5.883674E+03	1.389862E-01	1.324494E-03
5.893613E+03	1.376959E-01	1.315173E-03
5.903551E+03	1.362834E-01	1.304469E-03
5.913490E+03	1.347390E-01	1.292307E-03
5.923429E+03	1.330560E-01	1.278638E-03
5.933367E+03	1.312326E-01	1.263464E-03
5.943306E+03	1.292664E-01	1.246780E-03
5.953245E+03	1.271648E-01	1.228677E-03
5.963183E+03	1.249352E-01	1.209243E-03
5.973122E+03	1.225905E-01	1.188625E-03
5.983061E+03	1.201489E-01	1.167015E-03
5.992999E+03	1.176278E-01	1.144604E-03
6.002938E+03	1.150537E-01	1.121666E-03
6.012877E+03	1.124497E-01	1.098445E-03
6.022815E+03	1.098448E-01	1.075242E-03
6.032754E+03	1.072675E-01	1.052353E-03
6.042692E+03	1.047449E-01	1.030060E-03
6.052631E+03	1.023047E-01	1.008656E-03
6.062570E+03	9.997340E-02	9.884199E-04
6.072508E+03	9.777496E-02	9.696072E-04
6.082447E+03	9.573099E-02	9.524544E-04
6.092386E+03	9.385985E-02	9.371678E-04
6.102324E+03	9.217657E-02	9.239237E-04
6.112263E+03	9.069272E-02	9.128676E-04
6.122202E+03	8.941752E-02	9.041251E-04
6.132140E+03	8.835622E-02	8.977861E-04
6.142079E+03	8.751098E-02	8.939130E-04
6.152017E+03	8.687914E-02	8.925232E-04
6.161956E+03	8.645480E-02	8.936043E-04
6.171895E+03	8.622784E-02	8.971026E-04
6.181833E+03	8.618633E-02	9.029372E-04
6.191772E+03	8.631558E-02	9.109805E-04
6.201711E+03	8.659720E-02	9.210633E-04
6.211649E+03	8.701304E-02	9.330168E-04
6.221588E+03	8.754447E-02	9.466628E-04
6.231527E+03	8.816792E-02	9.617655E-04
6.241465E+03	8.886172E-02	9.781021E-04
6.251404E+03	8.960526E-02	9.954541E-04
6.261342E+03	9.037475E-02	1.013560E-03
6.271281E+03	9.115288E-02	1.032220E-03
6.281220E+03	9.192160E-02	1.051219E-03
6.291158E+03	9.266298E-02	1.070336E-03
6.301097E+03	9.336708E-02	1.089431E-03
6.311036E+03	9.402492E-02	1.108372E-03
6.320974E+03	9.462948E-02	1.127044E-03
6.330913E+03	9.517883E-02	1.145390E-03
6.340852E+03	9.567652E-02	1.163416E-03
6.350790E+03	9.612259E-02	1.181089E-03
6.360729E+03	9.652030E-02	1.198413E-03
6.370667E+03	9.687318E-02	1.215397E-03
6.380606E+03	9.717539E-02	1.231935E-03
6.390545E+03	9.742086E-02	1.247912E-03
6.400483E+03	9.760444E-02	1.263223E-03
6.410422E+03	9.772153E-02	1.277768E-03
6.420361E+03	9.776692E-02	1.291437E-03
6.430299E+03	9.773966E-02	1.304172E-03
6.440238E+03	9.763817E-02	1.315909E-03
6.450177E+03	9.746363E-02	1.326619E-03
6.460115E+03	9.721642E-02	1.336266E-03
6.470054E+03	9.689935E-02	1.344845E-03
6.479993E+03	9.651561E-02	1.352361E-03
6.489931E+03	9.606749E-02	1.358808E-03
6.499870E+03	9.556050E-02	1.364228E-03
6.509808E+03	9.499892E-02	1.368650E-03
6.519747E+03	9.438564E-02	1.372084E-03
6.529686E+03	9.372648E-02	1.374588E-03
6.539624E+03	9.302434E-02	1.376178E-03
6.549563E+03	9.228356E-02	1.376895E-03
6.559502E+03	9.150988E-02	1.376806E-03
6.569440E+03	9.070425E-02	1.375907E-03
6.579379E+03	8.987505E-02	1.374308E-03
6.589318E+03	8.902158E-02	1.371987E-03
6.599256E+03	8.815039E-02	1.369033E-03
6.609195E+03	8.726327E-02	1.365466E-03
6.619133E+03	8.636340E-02	1.361326E-03
6.629072E+03	8.545527E-02	1.356680E-03
6.639011E+03	8.454015E-02	1.351545E-03
6.648949E+03	8.362063E-02	1.345959E-03
6.658888E+03	8.269916E-02	1.339960E-03
6.668827E+03	8.177929E-02	1.333607E-03
6.678765E+03	8.086031E-02	1.326888E-03
6.688704E+03	7.994680E-02	1.319882E-03
6.698643E+03	7.903903E-02	1.312596E-03
6.708581E+03	7.813850E-02	1.305060E-03
6.718520E+03	7.724652E-02	1.297298E-03
6.728458E+03	7.636423E-02	1.289336E-03
6.738397E+03	7.549397E-02	1.281220E-03
6.748336E+03	7.463398E-02	1.272924E-03
6.758274E+03	7.378630E-02	1.264491E-03
6.768213E+03	7.295146E-02	1.255935E-03
6.778152E+03	7.213012E-02	1.247276E-03
6.788090E+03	7.132258E-02	1.238525E-03
6.798029E+03	7.052916E-02	1.229694E-03
6.807968E+03	6.975024E-02	1.220799E-03
6.817906E+03	6.898462E-02	1.211824E-03
6.827845E+03	6.823392E-02	1.202805E-03
6.837784E+03	6.749817E-02	1.193750E-03
6.847722E+03	6.677629E-02	1.184647E-03
6.857661E+03	6.606962E-02	1.175527E-03
6.867599E+03	6.537825E-02	1.166397E-03
6.877538E+03	6.470104E-02	1.157245E-03
6.887477E+03	6.403805E-02	1.148077E-03
6.897415E+03	6.339055E-02	1.138924E-03
6.907354E+03	6.275735E-02	1.129771E-03
6.917293E+03	6.213845E-02	1.120623E-03
6.927231E+03	6.153499E-02	1.111507E-03
6.937170E+03	6.094569E-02	1.102405E-03
6.947109E+03	6.037040E-02	1.093322E-03
6.957047E+03	5.980774E-02	1.084237E-03
6.966986E+03	5.925976E-02	1.075193E-03
6.976924E+03	5.872493E-02	1.066166E-03
6.986863E+03	5.820279E-02	1.057155E-03
6.996802E+03	5.769163E-02	1.048132E-03
7.006740E+03	5.719197E-02	1.039112E-03
7.016679E+03	5.670190E-02	1.030063E-03
7.026618E+03	5.622282E-02	1.021017E-03
7.036556E+03	5.575040E-02	1.011898E-03
7.046495E+03	5.528582E-02	1.002732E-03
7.056434E+03	5.482680E-02	9.934820E-04
7.066372E+03	5.437319E-02	9.841492E-04
7.076311E+03	5.392148E-02	9.746742E-04
7.086249E+03	5.347247E-02	9.650758E-04
7.096188E+03	5.302255E-02	9.552933E-04
7.106127E+03	5.257136E-02	9.453248E-04
7.116065E+03	5.211745E-02	9.351489E-04
7.126004E+03	5.165936E-02	9.247450E-04
7.135943E+03	5.119463E-02	9.140742E-04
7.145881E+03	5.072193E-02	9.031189E-04
7.155820E+03	5.024110E-02	8.918826E-04
7.165759E+03	4.974995E-02	8.803332E-04
7.175697E+03	4.924858E-02	8.684795E-04
7.185636E+03	4.873407E-02	8.562779E-04
7.195575E+03	4.820790E-02	8.437627E-04
7.205513E+03	4.766862E-02	8.309170E-04
7.215452E+03	4.711604E-02	8.177464E-04
7.225390E+03	4.655020E-02	8.042613E-04
7.235329E+03	4.597137E-02	7.904760E-04
7.245268E+03	4.538011E-02	7.764100E-04
7.255206E+03	4.477815E-02	7.621032E-04
7.265145E+03	4.416453E-02	7.475490E-04
7.275084E+03	4.354340E-02	7.328282E-04
7.285022E+03	4.291520E-02	7.179576E-04
7.294961E+03	4.228057E-02	7.029576E-04
7.304900E+03	4.164413E-02	6.879143E-04
7.314838E+03	4.100588E-02	6.728356E-04
7.324777E+03	4.037056E-02	6.578076E-04
7.334715E+03	3.973927E-02	6.428544E-04
7.344654E+03	3.911497E-02	6.280302E-04
7.354593E+03	3.850060E-02	6.133870E-04
7.364531E+03	3.789816E-02	5.989600E-04
7.374470E+03	3.731132E-02	5.848101E-04
7.384409E+03	3.674276E-02	5.709801E-04
7.394347E+03	3.619330E-02	5.574824E-04
7.404286E+03	3.566452E-02	5.443404E-04
7.414225E+03	3.515785E-02	5.315741E-04
7.424163E+03	3.467374E-02	5.191875E-04
7.434102E+03	3.421248E-02	5.071817E-04
7.444040E+03	3.377423E-02	4.955552E-04
7.453979E+03	3.335978E-02	4.843153E-04
7.463918E+03	3.296892E-02	4.734542E-04
7.473856E+03	3.260128E-02	4.629613E-04
7.483795E+03	3.225785E-02	4.528459E-04
7.493734E+03	3.193710E-02	4.430804E-04
7.503672E+03	3.163888E-02	4.336578E-04
7.513611E+03	3.136289E-02	4.245681E-04
7.523550E+03	3.110864E-02	4.157997E-04
7.533488E+03	3.087550E-02	4.073389E-04
7.543427E+03	3.066193E-02	3.991608E-04
7.553366E+03	3.046706E-02	3.912499E-04
7.563304E+03	3.029066E-02	3.835996E-04
7.573243E+03	3.013089E-02	3.761839E-04
7.583181E+03	2.998735E-02	3.689954E-04
7.593120E+03	2.985730E-02	3.619994E-04
7.603059E+03	2.974098E-02	3.551989E-04
7.612997E+03	2.963632E-02	3.485700E-04
7.622936E+03	2.954199E-02	3.420992E-04
7.632875E+03	2.945661E-02	3.357743E-04
7.642813E+03	2.937957E-02	3.295931E-04
7.652752E+03	2.930871E-02	3.235374E-04
7.662691E+03	2.924266E-02	3.176000E-04
7.672629E+03	2.918081E-02	3.117835E-04
7.682568E+03	2.912178E-02	3.060837E-04
7.692506E+03	2.906345E-02	3.004909E-04
7.702445E+03	2.900528E-02	2.950134E-04
7.712384E+03	2.894598E-02	2.896536E-04
