#wls	flux	fluxerr
1.590182E+03	3.702152E-02	3.466985E-03
1.629937E+03	2.996427E-02	2.771674E-03
1.669691E+03	2.412027E-02	2.203319E-03
1.709446E+03	1.932577E-02	1.743048E-03
1.749200E+03	1.543269E-02	1.374096E-03
1.788955E+03	1.229424E-02	1.080467E-03
1.828710E+03	9.787544E-03	8.488981E-04
1.868464E+03	7.799807E-03	6.675492E-04
1.908219E+03	6.235887E-03	5.265857E-04
1.947973E+03	5.013814E-03	4.177088E-04
1.987728E+03	4.066877E-03	3.342523E-04
2.027482E+03	3.340673E-03	2.708569E-04
2.067237E+03	2.792170E-03	2.233249E-04
2.106991E+03	2.389300E-03	1.885234E-04
2.146746E+03	2.108722E-03	1.641486E-04
2.186501E+03	1.934024E-03	1.485395E-04
2.226255E+03	1.855935E-03	1.406562E-04
2.266010E+03	1.872577E-03	1.400599E-04
2.305764E+03	1.987637E-03	1.467403E-04
2.345519E+03	2.212608E-03	1.612544E-04
2.385273E+03	2.568321E-03	1.847975E-04
2.425028E+03	3.086291E-03	2.192578E-04
2.464782E+03	3.808159E-03	2.671291E-04
2.504537E+03	4.783424E-03	3.313101E-04
2.544292E+03	6.064876E-03	4.147565E-04
2.584046E+03	7.699825E-03	5.198731E-04
2.623801E+03	9.718305E-03	6.477470E-04
2.663555E+03	1.212799E-02	7.978816E-04
2.703310E+03	1.490346E-02	9.675900E-04
2.743064E+03	1.798273E-02	1.151906E-03
2.782819E+03	2.126489E-02	1.343594E-03
2.822573E+03	2.462132E-02	1.534016E-03
2.862328E+03	2.790564E-02	1.713866E-03
2.902083E+03	3.097629E-02	1.874638E-03
2.941837E+03	3.371473E-02	2.009701E-03
2.981592E+03	3.603557E-02	2.114813E-03
2.991530E+03	3.654413E-02	2.136156E-03
3.001469E+03	3.702271E-02	2.155485E-03
3.011408E+03	3.747182E-02	2.172848E-03
3.021346E+03	3.789106E-02	2.188241E-03
3.031285E+03	3.828123E-02	2.201729E-03
3.041223E+03	3.864217E-02	2.213322E-03
3.051162E+03	3.897390E-02	2.223041E-03
3.061101E+03	3.927756E-02	2.230971E-03
3.071039E+03	3.955341E-02	2.237143E-03
3.080978E+03	3.980383E-02	2.241712E-03
3.090917E+03	4.002721E-02	2.244604E-03
3.100855E+03	4.022713E-02	2.246038E-03
3.110794E+03	4.040220E-02	2.245951E-03
3.120733E+03	4.055611E-02	2.244564E-03
3.130671E+03	4.068765E-02	2.241823E-03
3.140610E+03	4.079959E-02	2.237896E-03
3.150549E+03	4.089374E-02	2.232893E-03
3.160487E+03	4.097006E-02	2.226825E-03
3.170426E+03	4.103135E-02	2.219854E-03
3.180364E+03	4.107767E-02	2.211993E-03
3.190303E+03	4.111094E-02	2.203355E-03
3.200242E+03	4.113305E-02	2.194050E-03
3.210180E+03	4.114503E-02	2.184139E-03
3.220119E+03	4.114878E-02	2.173729E-03
3.230058E+03	4.114533E-02	2.162880E-03
3.239996E+03	4.113574E-02	2.151651E-03
3.249935E+03	4.112190E-02	2.140144E-03
3.259874E+03	4.110486E-02	2.128416E-03
3.269812E+03	4.108571E-02	2.116524E-03
3.279751E+03	4.106628E-02	2.104564E-03
3.289689E+03	4.104766E-02	2.092590E-03
3.299628E+03	4.103164E-02	2.080691E-03
3.309567E+03	4.101787E-02	2.068847E-03
3.319505E+03	4.100889E-02	2.057182E-03
3.329444E+03	4.100445E-02	2.045678E-03
3.339383E+03	4.100774E-02	2.034491E-03
3.349321E+03	4.101788E-02	2.023569E-03
3.359260E+03	4.103612E-02	2.012966E-03
3.369199E+03	4.106497E-02	2.002798E-03
3.379137E+03	4.110378E-02	1.993024E-03
3.389076E+03	4.115391E-02	1.983698E-03
3.399014E+03	4.121674E-02	1.974877E-03
3.408953E+03	4.129311E-02	1.966590E-03
3.418892E+03	4.138394E-02	1.958865E-03
3.428830E+03	4.148967E-02	1.951712E-03
3.438769E+03	4.161201E-02	1.945194E-03
3.448708E+03	4.175108E-02	1.939303E-03
3.458646E+03	4.190936E-02	1.934135E-03
3.468585E+03	4.208615E-02	1.929642E-03
3.478524E+03	4.228423E-02	1.925930E-03
3.488462E+03	4.250377E-02	1.922988E-03
3.498401E+03	4.274622E-02	1.920859E-03
3.508340E+03	4.301264E-02	1.919566E-03
3.518278E+03	4.330523E-02	1.919183E-03
3.528217E+03	4.362431E-02	1.919696E-03
3.538155E+03	4.397188E-02	1.921165E-03
3.548094E+03	4.434952E-02	1.923629E-03
3.558033E+03	4.475946E-02	1.927151E-03
3.567971E+03	4.520305E-02	1.931755E-03
3.577910E+03	4.568271E-02	1.937508E-03
3.587849E+03	4.620052E-02	1.944458E-03
3.597787E+03	4.675911E-02	1.952674E-03
3.607726E+03	4.736119E-02	1.962224E-03
3.617665E+03	4.800905E-02	1.973155E-03
3.627603E+03	4.870554E-02	1.985531E-03
3.637542E+03	4.945400E-02	1.999434E-03
3.647480E+03	5.025730E-02	2.014923E-03
3.657419E+03	5.111978E-02	2.032106E-03
3.667358E+03	5.204325E-02	2.050991E-03
3.677296E+03	5.303240E-02	2.071689E-03
3.687235E+03	5.408980E-02	2.094227E-03
3.697174E+03	5.521935E-02	2.118675E-03
3.707112E+03	5.642420E-02	2.145070E-03
3.717051E+03	5.770665E-02	2.173411E-03
3.726990E+03	5.906965E-02	2.203716E-03
3.736928E+03	6.051515E-02	2.235964E-03
3.746867E+03	6.204506E-02	2.270126E-03
3.756805E+03	6.366009E-02	2.306125E-03
3.766744E+03	6.536069E-02	2.343877E-03
3.776683E+03	6.714601E-02	2.383245E-03
3.786621E+03	6.901518E-02	2.424096E-03
3.796560E+03	7.096529E-02	2.466224E-03
3.806499E+03	7.299296E-02	2.509411E-03
3.816437E+03	7.509341E-02	2.553395E-03
3.826376E+03	7.725952E-02	2.597843E-03
3.836315E+03	7.948628E-02	2.642503E-03
3.846253E+03	8.176350E-02	2.686959E-03
3.856192E+03	8.408186E-02	2.730837E-03
3.866131E+03	8.643241E-02	2.773792E-03
3.876069E+03	8.880202E-02	2.815359E-03
3.886008E+03	9.118040E-02	2.855183E-03
3.895946E+03	9.355381E-02	2.892819E-03
3.905885E+03	9.590996E-02	2.927888E-03
3.915824E+03	9.823719E-02	2.960050E-03
3.925762E+03	1.005220E-01	2.988933E-03
3.935701E+03	1.027530E-01	3.014242E-03
3.945640E+03	1.049195E-01	3.035733E-03
3.955578E+03	1.070105E-01	3.053160E-03
3.965517E+03	1.090192E-01	3.066424E-03
3.975456E+03	1.109363E-01	3.075364E-03
3.985394E+03	1.127572E-01	3.079967E-03
3.995333E+03	1.144773E-01	3.080225E-03
4.005271E+03	1.160931E-01	3.076178E-03
4.015210E+03	1.176040E-01	3.067940E-03
4.025149E+03	1.190086E-01	3.055613E-03
4.035087E+03	1.203088E-01	3.039382E-03
4.045026E+03	1.215064E-01	3.019433E-03
4.054965E+03	1.226053E-01	2.996001E-03
4.064903E+03	1.236082E-01	2.969285E-03
4.074842E+03	1.245201E-01	2.939539E-03
4.084781E+03	1.253454E-01	2.906993E-03
4.094719E+03	1.260885E-01	2.871879E-03
4.104658E+03	1.267539E-01	2.834418E-03
4.114596E+03	1.273460E-01	2.794824E-03
4.124535E+03	1.278687E-01	2.753302E-03
4.134474E+03	1.283266E-01	2.710059E-03
4.144412E+03	1.287220E-01	2.665251E-03
4.154351E+03	1.290586E-01	2.619065E-03
4.164290E+03	1.293378E-01	2.571630E-03
4.174228E+03	1.295634E-01	2.523132E-03
4.184167E+03	1.297350E-01	2.473663E-03
4.194106E+03	1.298569E-01	2.423415E-03
4.204044E+03	1.299283E-01	2.372473E-03
4.213983E+03	1.299513E-01	2.320982E-03
4.223922E+03	1.299289E-01	2.269105E-03
4.233860E+03	1.298614E-01	2.216953E-03
4.243799E+03	1.297512E-01	2.164675E-03
4.253737E+03	1.296025E-01	2.112450E-03
4.263676E+03	1.294186E-01	2.060436E-03
4.273615E+03	1.292036E-01	2.008806E-03
4.283553E+03	1.289633E-01	1.957755E-03
4.293492E+03	1.287052E-01	1.907497E-03
4.303431E+03	1.284360E-01	1.858230E-03
4.313369E+03	1.281673E-01	1.810213E-03
4.323308E+03	1.279079E-01	1.763658E-03
4.333247E+03	1.276721E-01	1.718845E-03
4.343185E+03	1.274661E-01	1.675935E-03
4.353124E+03	1.272996E-01	1.635130E-03
4.363062E+03	1.271833E-01	1.596643E-03
4.373001E+03	1.271260E-01	1.560656E-03
4.382940E+03	1.271416E-01	1.527410E-03
4.392878E+03	1.272378E-01	1.497065E-03
4.402817E+03	1.274254E-01	1.469821E-03
4.412756E+03	1.277122E-01	1.445842E-03
4.422694E+03	1.281054E-01	1.425284E-03
4.432633E+03	1.286083E-01	1.408267E-03
4.442572E+03	1.292224E-01	1.394892E-03
4.452510E+03	1.299466E-01	1.385239E-03
4.462449E+03	1.307732E-01	1.379320E-03
4.472387E+03	1.316916E-01	1.377119E-03
4.482326E+03	1.326878E-01	1.378537E-03
4.492265E+03	1.337470E-01	1.383355E-03
4.502203E+03	1.348486E-01	1.391269E-03
4.512142E+03	1.359725E-01	1.401969E-03
4.522081E+03	1.370965E-01	1.415104E-03
4.532019E+03	1.381982E-01	1.430309E-03
4.541958E+03	1.392539E-01	1.447188E-03
4.551897E+03	1.402414E-01	1.465340E-03
4.561835E+03	1.411382E-01	1.484350E-03
4.571774E+03	1.419245E-01	1.503812E-03
4.581713E+03	1.425816E-01	1.523324E-03
4.591651E+03	1.430960E-01	1.542523E-03
4.601590E+03	1.434528E-01	1.561030E-03
4.611528E+03	1.436468E-01	1.578563E-03
4.621467E+03	1.436719E-01	1.594836E-03
4.631406E+03	1.435297E-01	1.609649E-03
4.641344E+03	1.432221E-01	1.622816E-03
4.651283E+03	1.427596E-01	1.634258E-03
4.661222E+03	1.421497E-01	1.643878E-03
4.671160E+03	1.414065E-01	1.651670E-03
4.681099E+03	1.405438E-01	1.657645E-03
4.691038E+03	1.395779E-01	1.661862E-03
4.700976E+03	1.385265E-01	1.664413E-03
4.710915E+03	1.374059E-01	1.665399E-03
4.720853E+03	1.362338E-01	1.664949E-03
4.730792E+03	1.350280E-01	1.663216E-03
4.740731E+03	1.338028E-01	1.660324E-03
4.750669E+03	1.325735E-01	1.656421E-03
4.760608E+03	1.313512E-01	1.651617E-03
4.770547E+03	1.301463E-01	1.646024E-03
4.780485E+03	1.289674E-01	1.639738E-03
4.790424E+03	1.278213E-01	1.632837E-03
4.800363E+03	1.267136E-01	1.625393E-03
4.810301E+03	1.256465E-01	1.617435E-03
4.820240E+03	1.246218E-01	1.608989E-03
4.830178E+03	1.236397E-01	1.600067E-03
4.840117E+03	1.227009E-01	1.590683E-03
4.850056E+03	1.218026E-01	1.580812E-03
4.859994E+03	1.209445E-01	1.570456E-03
4.869933E+03	1.201233E-01	1.559585E-03
4.879872E+03	1.193371E-01	1.548184E-03
4.889810E+03	1.185855E-01	1.536260E-03
4.899749E+03	1.178676E-01	1.523810E-03
4.909688E+03	1.171831E-01	1.510844E-03
4.919626E+03	1.165329E-01	1.497386E-03
4.929565E+03	1.159190E-01	1.483472E-03
4.939504E+03	1.153433E-01	1.469137E-03
4.949442E+03	1.148123E-01	1.454475E-03
4.959381E+03	1.143312E-01	1.439560E-03
4.969319E+03	1.139046E-01	1.424456E-03
4.979258E+03	1.135408E-01	1.409271E-03
4.989197E+03	1.132491E-01	1.394119E-03
4.999135E+03	1.130381E-01	1.379103E-03
5.009074E+03	1.129145E-01	1.364296E-03
5.019013E+03	1.128896E-01	1.349817E-03
5.028951E+03	1.129710E-01	1.335737E-03
5.038890E+03	1.131678E-01	1.322139E-03
5.048829E+03	1.134865E-01	1.309063E-03
5.058767E+03	1.139333E-01	1.296542E-03
5.068706E+03	1.145139E-01	1.284599E-03
5.078644E+03	1.152293E-01	1.273195E-03
5.088583E+03	1.160829E-01	1.262317E-03
5.098522E+03	1.170724E-01	1.251887E-03
5.108460E+03	1.181941E-01	1.241816E-03
5.118399E+03	1.194419E-01	1.231990E-03
5.128338E+03	1.208057E-01	1.222264E-03
5.138276E+03	1.222757E-01	1.212506E-03
5.148215E+03	1.238349E-01	1.202530E-03
5.158154E+03	1.254669E-01	1.192174E-03
5.168092E+03	1.271503E-01	1.181256E-03
5.178031E+03	1.288630E-01	1.169611E-03
5.187969E+03	1.305821E-01	1.157105E-03
5.197908E+03	1.322813E-01	1.143608E-03
5.207847E+03	1.339352E-01	1.129038E-03
5.217785E+03	1.355190E-01	1.113357E-03
5.227724E+03	1.370094E-01	1.096583E-03
5.237663E+03	1.383837E-01	1.078782E-03
5.247601E+03	1.396255E-01	1.060104E-03
5.257540E+03	1.407196E-01	1.040747E-03
5.267479E+03	1.416563E-01	1.020978E-03
5.277417E+03	1.424325E-01	1.001139E-03
5.287356E+03	1.430456E-01	9.815882E-04
5.297295E+03	1.435017E-01	9.627560E-04
5.307233E+03	1.438082E-01	9.450789E-04
5.317172E+03	1.439787E-01	9.290223E-04
5.327110E+03	1.440270E-01	9.150312E-04
5.337049E+03	1.439650E-01	9.035063E-04
5.346988E+03	1.438084E-01	8.948273E-04
5.356926E+03	1.435695E-01	8.892995E-04
5.366865E+03	1.432564E-01	8.871005E-04
5.376804E+03	1.428741E-01	8.881205E-04
5.386742E+03	1.424294E-01	8.921398E-04
5.396681E+03	1.419204E-01	8.988382E-04
5.406620E+03	1.413494E-01	9.078893E-04
5.416558E+03	1.407140E-01	9.189165E-04
5.426497E+03	1.400128E-01	9.315442E-04
5.436435E+03	1.392432E-01	9.453906E-04
5.446374E+03	1.384009E-01	9.600743E-04
5.456313E+03	1.374814E-01	9.752260E-04
5.466251E+03	1.364814E-01	9.905027E-04
5.476190E+03	1.353956E-01	1.005570E-03
5.486129E+03	1.342222E-01	1.020135E-03
5.496067E+03	1.329598E-01	1.033938E-03
5.506006E+03	1.316136E-01	1.046790E-03
5.515945E+03	1.301877E-01	1.058518E-03
5.525883E+03	1.286888E-01	1.069000E-03
5.535822E+03	1.271274E-01	1.078168E-03
5.545760E+03	1.255174E-01	1.086011E-03
5.555699E+03	1.238724E-01	1.092539E-03
5.565638E+03	1.222080E-01	1.097810E-03
5.575576E+03	1.205410E-01	1.101913E-03
5.585515E+03	1.188885E-01	1.104963E-03
5.595454E+03	1.172674E-01	1.107094E-03
5.605392E+03	1.156940E-01	1.108452E-03
5.615331E+03	1.141836E-01	1.109189E-03
5.625270E+03	1.127488E-01	1.109445E-03
5.635208E+03	1.114032E-01	1.109376E-03
5.645147E+03	1.101561E-01	1.109106E-03
5.655086E+03	1.090171E-01	1.108765E-03
5.665024E+03	1.079926E-01	1.108453E-03
5.674963E+03	1.070855E-01	1.108235E-03
5.684901E+03	1.062988E-01	1.108173E-03
5.694840E+03	1.056319E-01	1.108295E-03
5.704779E+03	1.050811E-01	1.108585E-03
5.714717E+03	1.046426E-01	1.109024E-03
5.724656E+03	1.043089E-01	1.109550E-03
5.734595E+03	1.040697E-01	1.110064E-03
5.744533E+03	1.039147E-01	1.110462E-03
5.754472E+03	1.038316E-01	1.110619E-03
5.764411E+03	1.038032E-01	1.110346E-03
5.774349E+03	1.038139E-01	1.109476E-03
5.784288E+03	1.038471E-01	1.107830E-03
5.794226E+03	1.038828E-01	1.105192E-03
5.804165E+03	1.039016E-01	1.101357E-03
5.814104E+03	1.038850E-01	1.096137E-03
5.824042E+03	1.038140E-01	1.089343E-03
5.833981E+03	1.036699E-01	1.080799E-03
5.843920E+03	1.034354E-01	1.070356E-03
5.853858E+03	1.030949E-01	1.057895E-03
5.863797E+03	1.026361E-01	1.043341E-03
5.873736E+03	1.020480E-01	1.026647E-03
5.883674E+03	1.013212E-01	1.007799E-03
5.893613E+03	1.004530E-01	9.868606E-04
5.903551E+03	9.944032E-02	9.639001E-04
5.913490E+03	9.828687E-02	9.390674E-04
5.923429E+03	9.699457E-02	9.125006E-04
5.933367E+03	9.557336E-02	8.844213E-04
5.943306E+03	9.403322E-02	8.550539E-04
5.953245E+03	9.238661E-02	8.246470E-04
5.963183E+03	9.064908E-02	7.934751E-04
5.973122E+03	8.883652E-02	7.618119E-04
5.983061E+03	8.696696E-02	7.299434E-04
5.992999E+03	8.505796E-02	6.981440E-04
6.002938E+03	8.312717E-02	6.666802E-04
6.012877E+03	8.119418E-02	6.358243E-04
6.022815E+03	7.927565E-02	6.058156E-04
6.032754E+03	7.738752E-02	5.768787E-04
6.042692E+03	7.554543E-02	5.492283E-04
6.052631E+03	7.376375E-02	5.230622E-04
6.062570E+03	7.205508E-02	4.985608E-04
6.072508E+03	7.043063E-02	4.758908E-04
6.082447E+03	6.889890E-02	4.551992E-04
6.092386E+03	6.746861E-02	4.366340E-04
6.102324E+03	6.614678E-02	4.203318E-04
6.112263E+03	6.493707E-02	4.064076E-04
6.122202E+03	6.384430E-02	3.949820E-04
6.132140E+03	6.286928E-02	3.861461E-04
6.142079E+03	6.200989E-02	3.799656E-04
6.152017E+03	6.126297E-02	3.764877E-04
6.161956E+03	6.062679E-02	3.757478E-04
6.171895E+03	6.009539E-02	3.776651E-04
6.181833E+03	5.966526E-02	3.821046E-04
6.191772E+03	5.933052E-02	3.889079E-04
6.201711E+03	5.908474E-02	3.979109E-04
6.211649E+03	5.892262E-02	4.089598E-04
6.221588E+03	5.883612E-02	4.218875E-04
6.231527E+03	5.881947E-02	4.365504E-04
6.241465E+03	5.886526E-02	4.528017E-04
6.251404E+03	5.896788E-02	4.705164E-04
6.261342E+03	5.912029E-02	4.895666E-04
6.271281E+03	5.931578E-02	5.098328E-04
6.281220E+03	5.954879E-02	5.312104E-04
6.291158E+03	5.981507E-02	5.536109E-04
6.301097E+03	6.010809E-02	5.769287E-04
6.311036E+03	6.042324E-02	6.010770E-04
6.320974E+03	6.075514E-02	6.259622E-04
6.330913E+03	6.109836E-02	6.514889E-04
6.340852E+03	6.144820E-02	6.775677E-04
6.350790E+03	6.179714E-02	7.040747E-04
6.360729E+03	6.214125E-02	7.309213E-04
6.370667E+03	6.247495E-02	7.579965E-04
6.380606E+03	6.279655E-02	7.852330E-04
6.390545E+03	6.310070E-02	8.125161E-04
6.400483E+03	6.338557E-02	8.397724E-04
6.410422E+03	6.364418E-02	8.668577E-04
6.420361E+03	6.387385E-02	8.936796E-04
6.430299E+03	6.406579E-02	9.200558E-04
6.440238E+03	6.421682E-02	9.458756E-04
6.450177E+03	6.431893E-02	9.709525E-04
6.460115E+03	6.436736E-02	9.951401E-04
6.470054E+03	6.435582E-02	1.018263E-03
6.479993E+03	6.427976E-02	1.040167E-03
6.489931E+03	6.413547E-02	1.060706E-03
6.499870E+03	6.392026E-02	1.079751E-03
6.509808E+03	6.363251E-02	1.097186E-03
6.519747E+03	6.327075E-02	1.112902E-03
6.529686E+03	6.283568E-02	1.126825E-03
6.539624E+03	6.232910E-02	1.138907E-03
6.549563E+03	6.175291E-02	1.149107E-03
6.559502E+03	6.111295E-02	1.157464E-03
6.569440E+03	6.041101E-02	1.163946E-03
6.579379E+03	5.965451E-02	1.168640E-03
6.589318E+03	5.884855E-02	1.171597E-03
6.599256E+03	5.799965E-02	1.172904E-03
6.609195E+03	5.711370E-02	1.172648E-03
6.619133E+03	5.619952E-02	1.170984E-03
6.629072E+03	5.526223E-02	1.168001E-03
6.639011E+03	5.430871E-02	1.163835E-03
6.648949E+03	5.334649E-02	1.158644E-03
6.658888E+03	5.238186E-02	1.152569E-03
6.668827E+03	5.141982E-02	1.145729E-03
6.678765E+03	5.046667E-02	1.138280E-03
6.688704E+03	4.952649E-02	1.130333E-03
6.698643E+03	4.860365E-02	1.122012E-03
6.708581E+03	4.770283E-02	1.113451E-03
6.718520E+03	4.682647E-02	1.104735E-03
6.728458E+03	4.597734E-02	1.095962E-03
6.738397E+03	4.515843E-02	1.087235E-03
6.748336E+03	4.437144E-02	1.078628E-03
6.758274E+03	4.361614E-02	1.070169E-03
6.768213E+03	4.289488E-02	1.061949E-03
6.778152E+03	4.220810E-02	1.054012E-03
6.788090E+03	4.155520E-02	1.046375E-03
6.798029E+03	4.093670E-02	1.039082E-03
6.807968E+03	4.035143E-02	1.032134E-03
6.817906E+03	3.979943E-02	1.025560E-03
6.827845E+03	3.927913E-02	1.019347E-03
6.837784E+03	3.879021E-02	1.013511E-03
6.847722E+03	3.833152E-02	1.008048E-03
6.857661E+03	3.790113E-02	1.002928E-03
6.867599E+03	3.749842E-02	9.981557E-04
6.877538E+03	3.712203E-02	9.937140E-04
6.887477E+03	3.677059E-02	9.895835E-04
6.897415E+03	3.644202E-02	9.857246E-04
6.907354E+03	3.613629E-02	9.821510E-04
6.917293E+03	3.585071E-02	9.788027E-04
6.927231E+03	3.558524E-02	9.756910E-04
6.937170E+03	3.533728E-02	9.727550E-04
6.947109E+03	3.510686E-02	9.700057E-04
6.957047E+03	3.489210E-02	9.673997E-04
6.966986E+03	3.469116E-02	9.648937E-04
6.976924E+03	3.450420E-02	9.624989E-04
6.986863E+03	3.433012E-02	9.601909E-04
6.996802E+03	3.416653E-02	9.579082E-04
7.006740E+03	3.401370E-02	9.556630E-04
7.016679E+03	3.387062E-02	9.534314E-04
7.026618E+03	3.373564E-02	9.511704E-04
7.036556E+03	3.360780E-02	9.488562E-04
7.046495E+03	3.348747E-02	9.465019E-04
7.056434E+03	3.337240E-02	9.440463E-04
7.066372E+03	3.326166E-02	9.414658E-04
7.076311E+03	3.315567E-02	9.387737E-04
7.086249E+03	3.305287E-02	9.359280E-04
7.096188E+03	3.295172E-02	9.328866E-04
7.106127E+03	3.285267E-02	9.296639E-04
7.116065E+03	3.275419E-02	9.262185E-04
7.126004E+03	3.265614E-02	9.225475E-04
7.135943E+03	3.255700E-02	9.186104E-04
7.145881E+03	3.245599E-02	9.143867E-04
7.155820E+03	3.235301E-02	9.098760E-04
7.165759E+03	3.224733E-02	9.050599E-04
7.175697E+03	3.213824E-02	8.999214E-04
7.185636E+03	3.202511E-02	8.944451E-04
7.195575E+03	3.190665E-02	8.885990E-04
7.205513E+03	3.178366E-02	8.824086E-04
7.215452E+03	3.165499E-02	8.758463E-04
7.225390E+03	3.152090E-02	8.689234E-04
7.235329E+03	3.137970E-02	8.615984E-04
7.245268E+03	3.123247E-02	8.539064E-04
7.255206E+03	3.107907E-02	8.458487E-04
7.265145E+03	3.091807E-02	8.373928E-04
7.275084E+03	3.075084E-02	8.285822E-04
7.285022E+03	3.057683E-02	8.194092E-04
7.294961E+03	3.039562E-02	8.098690E-04
7.304900E+03	3.020819E-02	7.999961E-04
7.314838E+03	3.001433E-02	7.897919E-04
7.324777E+03	2.981389E-02	7.792610E-04
7.334715E+03	2.960752E-02	7.684285E-04
7.344654E+03	2.939527E-02	7.573040E-04
7.354593E+03	2.917792E-02	7.459167E-04
7.364531E+03	2.895503E-02	7.342633E-04
7.374470E+03	2.872685E-02	7.223596E-04
7.384409E+03	2.849498E-02	7.102550E-04
7.394347E+03	2.825977E-02	6.979659E-04
7.404286E+03	2.802283E-02	6.855408E-04
7.414225E+03	2.778707E-02	6.730572E-04
7.424163E+03	2.755276E-02	6.605271E-04
7.434102E+03	2.732143E-02	6.479923E-04
7.444040E+03	2.709517E-02	6.355057E-04
7.453979E+03	2.687475E-02	6.230875E-04
7.463918E+03	2.666019E-02	6.107399E-04
7.473856E+03	2.645401E-02	5.985213E-04
7.483795E+03	2.625546E-02	5.864138E-04
7.493734E+03	2.606558E-02	5.744402E-04
7.503672E+03	2.588473E-02	5.626066E-04
7.513611E+03	2.571316E-02	5.509164E-04
7.523550E+03	2.555104E-02	5.393705E-04
7.533488E+03	2.539906E-02	5.279807E-04
7.543427E+03	2.525601E-02	5.167184E-04
7.553366E+03	2.512305E-02	5.056045E-04
7.563304E+03	2.499881E-02	4.946080E-04
7.573243E+03	2.488435E-02	4.837472E-04
7.583181E+03	2.477816E-02	4.729898E-04
7.593120E+03	2.468057E-02	4.623402E-04
7.603059E+03	2.459123E-02	4.517902E-04
7.612997E+03	2.450913E-02	4.413201E-04
7.622936E+03	2.443447E-02	4.309337E-04
7.632875E+03	2.436679E-02	4.206236E-04
7.642813E+03	2.430559E-02	4.103828E-04
7.652752E+03	2.424971E-02	4.001951E-04
7.662691E+03	2.419857E-02	3.900563E-04
7.672629E+03	2.415219E-02	3.799737E-04
7.682568E+03	2.410993E-02	3.699450E-04
7.692506E+03	2.407106E-02	3.599702E-04
7.702445E+03	2.403484E-02	3.500509E-04
7.712384E+03	2.399982E-02	3.401824E-04
