#wls	flux	fluxerr
1.590182E+03	2.168906E-03	1.686287E-04
1.629937E+03	2.101804E-03	1.627612E-04
1.669691E+03	2.042995E-03	1.575585E-04
1.709446E+03	1.992657E-03	1.530274E-04
1.749200E+03	1.950600E-03	1.491459E-04
1.788955E+03	1.917036E-03	1.459228E-04
1.828710E+03	1.891491E-03	1.433138E-04
1.868464E+03	1.874263E-03	1.413334E-04
1.908219E+03	1.865689E-03	1.399981E-04
1.947973E+03	1.865798E-03	1.393003E-04
1.987728E+03	1.874670E-03	1.392359E-04
2.027482E+03	1.892773E-03	1.398285E-04
2.067237E+03	1.920248E-03	1.410769E-04
2.106991E+03	1.957964E-03	1.430318E-04
2.146746E+03	2.005359E-03	1.456383E-04
2.186501E+03	2.062928E-03	1.489180E-04
2.226255E+03	2.131172E-03	1.528913E-04
2.266010E+03	2.209818E-03	1.575220E-04
2.305764E+03	2.299328E-03	1.628258E-04
2.345519E+03	2.399327E-03	1.687577E-04
2.385273E+03	2.510183E-03	1.753249E-04
2.425028E+03	2.631345E-03	1.824691E-04
2.464782E+03	2.762555E-03	1.901528E-04
2.504537E+03	2.903436E-03	1.983298E-04
2.544292E+03	3.053484E-03	2.069456E-04
2.584046E+03	3.212079E-03	2.159384E-04
2.623801E+03	3.378502E-03	2.252402E-04
2.663555E+03	3.551983E-03	2.347807E-04
2.703310E+03	3.731152E-03	2.444517E-04
2.743064E+03	3.915681E-03	2.542151E-04
2.782819E+03	4.104680E-03	2.639971E-04
2.822573E+03	4.296626E-03	2.736853E-04
2.862328E+03	4.491141E-03	2.832432E-04
2.902083E+03	4.687263E-03	2.925984E-04
2.941837E+03	4.884668E-03	3.017203E-04
2.981592E+03	5.083745E-03	3.106226E-04
2.991530E+03	5.133902E-03	3.128204E-04
3.001469E+03	5.184390E-03	3.150172E-04
3.011408E+03	5.234535E-03	3.171721E-04
3.021346E+03	5.285649E-03	3.193642E-04
3.031285E+03	5.336398E-03	3.215128E-04
3.041223E+03	5.387431E-03	3.236568E-04
3.051162E+03	5.438743E-03	3.257956E-04
3.061101E+03	5.490319E-03	3.279281E-04
3.071039E+03	5.542147E-03	3.300533E-04
3.080978E+03	5.594905E-03	3.322112E-04
3.090917E+03	5.647222E-03	3.343200E-04
3.100855E+03	5.700440E-03	3.364592E-04
3.110794E+03	5.753882E-03	3.385881E-04
3.120733E+03	5.807526E-03	3.407054E-04
3.130671E+03	5.862057E-03	3.428508E-04
3.140610E+03	5.916775E-03	3.449829E-04
3.150549E+03	5.972359E-03	3.471409E-04
3.160487E+03	6.028800E-03	3.493238E-04
3.170426E+03	6.085396E-03	3.514904E-04
3.180364E+03	6.142834E-03	3.536800E-04
3.190303E+03	6.201796E-03	3.559312E-04
3.200242E+03	6.260883E-03	3.581630E-04
3.210180E+03	6.320777E-03	3.604141E-04
3.220119E+03	6.382161E-03	3.627227E-04
3.230058E+03	6.444338E-03	3.650484E-04
3.239996E+03	6.507278E-03	3.673889E-04
3.249935E+03	6.571681E-03	3.697830E-04
3.259874E+03	6.636827E-03	3.721894E-04
3.269812E+03	6.704094E-03	3.746845E-04
3.279751E+03	6.772079E-03	3.771889E-04
3.289689E+03	6.842156E-03	3.797783E-04
3.299628E+03	6.912911E-03	3.823730E-04
3.309567E+03	6.985724E-03	3.850487E-04
3.319505E+03	7.059870E-03	3.877641E-04
3.329444E+03	7.136024E-03	3.905554E-04
3.339383E+03	7.214171E-03	3.934203E-04
3.349321E+03	7.294275E-03	3.963555E-04
3.359260E+03	7.376318E-03	3.993589E-04
3.369199E+03	7.460260E-03	4.024268E-04
3.379137E+03	7.546072E-03	4.055566E-04
3.389076E+03	7.634420E-03	4.087825E-04
3.399014E+03	7.725268E-03	4.121010E-04
3.408953E+03	7.818575E-03	4.155082E-04
3.418892E+03	7.914294E-03	4.190000E-04
3.428830E+03	8.012379E-03	4.225723E-04
3.438769E+03	8.113487E-03	4.262580E-04
3.448708E+03	8.216857E-03	4.300154E-04
3.458646E+03	8.323138E-03	4.338766E-04
3.468585E+03	8.432263E-03	4.378361E-04
3.478524E+03	8.544169E-03	4.418890E-04
3.488462E+03	8.659464E-03	4.460644E-04
3.498401E+03	8.777398E-03	4.503217E-04
3.508340E+03	8.898562E-03	4.546893E-04
3.518278E+03	9.022873E-03	4.591607E-04
3.528217E+03	9.150235E-03	4.637288E-04
3.538155E+03	9.280547E-03	4.683865E-04
3.548094E+03	9.413691E-03	4.731258E-04
3.558033E+03	9.550238E-03	4.779733E-04
3.567971E+03	9.690052E-03	4.829198E-04
3.577910E+03	9.832988E-03	4.879559E-04
3.587849E+03	9.978902E-03	4.930722E-04
3.597787E+03	1.012763E-02	4.982587E-04
3.607726E+03	1.027901E-02	5.035051E-04
3.617665E+03	1.043351E-02	5.088331E-04
3.627603E+03	1.059028E-02	5.141982E-04
3.637542E+03	1.074976E-02	5.196208E-04
3.647480E+03	1.091108E-02	5.250566E-04
3.657419E+03	1.107530E-02	5.305554E-04
3.667358E+03	1.124152E-02	5.360719E-04
3.677296E+03	1.140946E-02	5.415913E-04
3.687235E+03	1.157885E-02	5.470998E-04
3.697174E+03	1.174937E-02	5.525814E-04
3.707112E+03	1.192137E-02	5.580510E-04
3.717051E+03	1.209388E-02	5.634623E-04
3.726990E+03	1.226718E-02	5.688285E-04
3.736928E+03	1.244029E-02	5.741032E-04
3.746867E+03	1.261347E-02	5.792988E-04
3.756805E+03	1.278573E-02	5.843691E-04
3.766744E+03	1.295731E-02	5.893257E-04
3.776683E+03	1.312780E-02	5.941510E-04
3.786621E+03	1.329619E-02	5.988002E-04
3.796560E+03	1.346272E-02	6.032844E-04
3.806499E+03	1.362696E-02	6.075868E-04
3.816437E+03	1.378853E-02	6.116911E-04
3.826376E+03	1.394643E-02	6.155559E-04
3.836315E+03	1.410031E-02	6.191673E-04
3.846253E+03	1.425095E-02	6.225631E-04
3.856192E+03	1.439628E-02	6.256549E-04
3.866131E+03	1.453712E-02	6.284818E-04
3.876069E+03	1.467315E-02	6.310338E-04
3.886008E+03	1.480353E-02	6.332778E-04
3.895946E+03	1.492803E-02	6.352077E-04
3.905885E+03	1.504643E-02	6.368190E-04
3.915824E+03	1.515855E-02	6.381080E-04
3.925762E+03	1.526425E-02	6.390739E-04
3.935701E+03	1.536345E-02	6.397169E-04
3.945640E+03	1.545556E-02	6.400182E-04
3.955578E+03	1.554060E-02	6.399830E-04
3.965517E+03	1.561910E-02	6.396385E-04
3.975456E+03	1.569064E-02	6.389724E-04
3.985394E+03	1.575536E-02	6.379951E-04
3.995333E+03	1.581342E-02	6.367185E-04
4.005271E+03	1.586459E-02	6.351374E-04
4.015210E+03	1.590912E-02	6.332679E-04
4.025149E+03	1.594779E-02	6.311448E-04
4.035087E+03	1.598003E-02	6.287504E-04
4.045026E+03	1.600668E-02	6.261224E-04
4.054965E+03	1.602771E-02	6.232636E-04
4.064903E+03	1.604399E-02	6.202122E-04
4.074842E+03	1.605514E-02	6.169572E-04
4.084781E+03	1.606209E-02	6.135376E-04
4.094719E+03	1.606532E-02	6.099754E-04
4.104658E+03	1.606458E-02	6.062636E-04
4.114596E+03	1.606118E-02	6.024550E-04
4.124535E+03	1.605451E-02	5.985289E-04
4.134474E+03	1.604591E-02	5.945372E-04
4.144412E+03	1.603553E-02	5.904878E-04
4.154351E+03	1.602357E-02	5.863894E-04
4.164290E+03	1.601096E-02	5.822767E-04
4.174228E+03	1.599786E-02	5.781572E-04
4.184167E+03	1.598447E-02	5.740387E-04
4.194106E+03	1.597167E-02	5.699530E-04
4.204044E+03	1.595931E-02	5.658949E-04
4.213983E+03	1.594824E-02	5.618943E-04
4.223922E+03	1.593895E-02	5.579683E-04
4.233860E+03	1.593128E-02	5.541102E-04
4.243799E+03	1.592603E-02	5.503476E-04
4.253737E+03	1.592336E-02	5.466842E-04
4.263676E+03	1.592372E-02	5.431344E-04
4.273615E+03	1.592726E-02	5.397018E-04
4.283553E+03	1.593471E-02	5.364092E-04
4.293492E+03	1.594590E-02	5.332489E-04
4.303431E+03	1.596155E-02	5.302432E-04
4.313369E+03	1.598149E-02	5.273837E-04
4.323308E+03	1.600670E-02	5.247003E-04
4.333247E+03	1.603701E-02	5.221847E-04
4.343185E+03	1.607280E-02	5.198466E-04
4.353124E+03	1.611418E-02	5.176867E-04
4.363062E+03	1.616209E-02	5.157315E-04
4.373001E+03	1.621609E-02	5.139637E-04
4.382940E+03	1.627704E-02	5.124078E-04
4.392878E+03	1.634505E-02	5.110627E-04
4.402817E+03	1.642016E-02	5.099263E-04
4.412756E+03	1.650320E-02	5.090206E-04
4.422694E+03	1.659395E-02	5.083348E-04
4.432633E+03	1.669295E-02	5.078808E-04
4.442572E+03	1.680043E-02	5.076623E-04
4.452510E+03	1.691609E-02	5.076652E-04
4.462449E+03	1.703969E-02	5.078788E-04
4.472387E+03	1.717107E-02	5.082944E-04
4.482326E+03	1.730925E-02	5.088796E-04
4.492265E+03	1.745398E-02	5.096244E-04
4.502203E+03	1.760447E-02	5.105032E-04
4.512142E+03	1.776017E-02	5.114978E-04
4.522081E+03	1.792021E-02	5.125814E-04
4.532019E+03	1.808423E-02	5.137418E-04
4.541958E+03	1.825132E-02	5.149513E-04
4.551897E+03	1.842085E-02	5.161901E-04
4.561835E+03	1.859239E-02	5.174455E-04
4.571774E+03	1.876480E-02	5.186846E-04
4.581713E+03	1.893742E-02	5.198889E-04
4.591651E+03	1.910988E-02	5.210482E-04
4.601590E+03	1.928155E-02	5.221458E-04
4.611528E+03	1.945134E-02	5.231528E-04
4.621467E+03	1.961894E-02	5.240618E-04
4.631406E+03	1.978408E-02	5.248668E-04
4.641344E+03	1.994549E-02	5.255359E-04
4.651283E+03	2.010351E-02	5.260797E-04
4.661222E+03	2.025697E-02	5.264695E-04
4.671160E+03	2.040575E-02	5.267048E-04
4.681099E+03	2.054957E-02	5.267805E-04
4.691038E+03	2.068815E-02	5.266922E-04
4.700976E+03	2.082104E-02	5.264310E-04
4.710915E+03	2.094833E-02	5.260020E-04
4.720853E+03	2.106967E-02	5.253991E-04
4.730792E+03	2.118498E-02	5.246234E-04
4.740731E+03	2.129401E-02	5.236713E-04
4.750669E+03	2.139729E-02	5.225591E-04
4.760608E+03	2.149490E-02	5.212914E-04
4.770547E+03	2.158646E-02	5.198614E-04
4.780485E+03	2.167262E-02	5.182881E-04
4.790424E+03	2.175360E-02	5.165787E-04
4.800363E+03	2.182963E-02	5.147410E-04
4.810301E+03	2.190098E-02	5.127840E-04
4.820240E+03	2.196821E-02	5.107227E-04
4.830178E+03	2.203168E-02	5.085671E-04
4.840117E+03	2.209201E-02	5.063334E-04
4.850056E+03	2.214962E-02	5.040322E-04
4.859994E+03	2.220494E-02	5.016749E-04
4.869933E+03	2.225871E-02	4.992790E-04
4.879872E+03	2.231144E-02	4.968565E-04
4.889810E+03	2.236343E-02	4.944143E-04
4.899749E+03	2.241600E-02	4.919823E-04
4.909688E+03	2.246925E-02	4.895623E-04
4.919626E+03	2.252408E-02	4.871733E-04
4.929565E+03	2.258140E-02	4.848345E-04
4.939504E+03	2.264191E-02	4.825599E-04
4.949442E+03	2.270634E-02	4.803633E-04
4.959381E+03	2.277543E-02	4.782591E-04
4.969319E+03	2.284994E-02	4.762612E-04
4.979258E+03	2.293093E-02	4.743896E-04
4.989197E+03	2.301945E-02	4.726632E-04
4.999135E+03	2.311583E-02	4.710856E-04
5.009074E+03	2.322139E-02	4.696809E-04
5.019013E+03	2.333698E-02	4.684627E-04
5.028951E+03	2.346320E-02	4.674389E-04
5.038890E+03	2.360114E-02	4.666274E-04
5.048829E+03	2.375190E-02	4.660452E-04
5.058767E+03	2.391579E-02	4.656939E-04
5.068706E+03	2.409413E-02	4.655947E-04
5.078644E+03	2.428748E-02	4.657527E-04
5.088583E+03	2.449685E-02	4.661823E-04
5.098522E+03	2.472299E-02	4.668924E-04
5.108460E+03	2.496634E-02	4.678856E-04
5.118399E+03	2.522783E-02	4.691735E-04
5.128338E+03	2.550834E-02	4.707670E-04
5.138276E+03	2.580789E-02	4.726605E-04
5.148215E+03	2.612725E-02	4.748628E-04
5.158154E+03	2.646685E-02	4.773757E-04
5.168092E+03	2.682704E-02	4.802004E-04
5.178031E+03	2.720836E-02	4.833411E-04
5.187969E+03	2.761043E-02	4.867859E-04
5.197908E+03	2.803387E-02	4.905413E-04
5.207847E+03	2.847834E-02	4.945971E-04
5.217785E+03	2.894368E-02	4.989462E-04
5.227724E+03	2.942988E-02	5.035854E-04
5.237663E+03	2.993586E-02	5.084933E-04
5.247601E+03	3.046164E-02	5.136682E-04
5.257540E+03	3.100612E-02	5.190902E-04
5.267479E+03	3.156868E-02	5.247479E-04
5.277417E+03	3.214750E-02	5.306116E-04
5.287356E+03	3.274190E-02	5.366711E-04
5.297295E+03	3.334999E-02	5.428978E-04
5.307233E+03	3.397001E-02	5.492658E-04
5.317172E+03	3.459996E-02	5.557472E-04
5.327110E+03	3.523763E-02	5.623119E-04
5.337049E+03	3.588058E-02	5.689273E-04
5.346988E+03	3.652652E-02	5.755648E-04
5.356926E+03	3.717183E-02	5.821760E-04
5.366865E+03	3.781418E-02	5.887343E-04
5.376804E+03	3.844951E-02	5.951874E-04
5.386742E+03	3.907518E-02	6.015065E-04
5.396681E+03	3.968775E-02	6.076513E-04
5.406620E+03	4.028413E-02	6.135881E-04
5.416558E+03	4.086244E-02	6.193022E-04
5.426497E+03	4.141953E-02	6.247601E-04
5.436435E+03	4.195228E-02	6.299290E-04
5.446374E+03	4.245896E-02	6.347918E-04
5.456313E+03	4.293670E-02	6.393112E-04
5.466251E+03	4.338274E-02	6.434515E-04
5.476190E+03	4.379532E-02	6.471912E-04
5.486129E+03	4.417291E-02	6.505116E-04
5.496067E+03	4.451330E-02	6.533838E-04
5.506006E+03	4.481543E-02	6.557946E-04
5.515945E+03	4.507713E-02	6.577148E-04
5.525883E+03	4.529833E-02	6.591443E-04
5.535822E+03	4.547788E-02	6.600676E-04
5.545760E+03	4.561539E-02	6.604789E-04
5.555699E+03	4.571119E-02	6.603826E-04
5.565638E+03	4.576503E-02	6.597742E-04
5.575576E+03	4.577783E-02	6.586652E-04
5.585515E+03	4.574986E-02	6.570576E-04
5.595454E+03	4.568208E-02	6.549627E-04
5.605392E+03	4.557615E-02	6.524014E-04
5.615331E+03	4.543299E-02	6.493841E-04
5.625270E+03	4.525416E-02	6.459295E-04
5.635208E+03	4.504136E-02	6.420584E-04
5.645147E+03	4.479638E-02	6.377926E-04
5.655086E+03	4.452155E-02	6.331619E-04
5.665024E+03	4.421794E-02	6.281774E-04
5.674963E+03	4.388838E-02	6.228758E-04
5.684901E+03	4.353400E-02	6.172696E-04
5.694840E+03	4.315719E-02	6.113891E-04
5.704779E+03	4.275989E-02	6.052583E-04
5.714717E+03	4.234359E-02	5.988954E-04
5.724656E+03	4.191055E-02	5.923290E-04
5.734595E+03	4.146216E-02	5.855761E-04
5.744533E+03	4.100054E-02	5.786642E-04
5.754472E+03	4.052658E-02	5.716033E-04
5.764411E+03	4.004265E-02	5.644248E-04
5.774349E+03	3.954990E-02	5.571432E-04
5.784288E+03	3.904944E-02	5.497721E-04
5.794226E+03	3.854308E-02	5.423359E-04
5.804165E+03	3.803220E-02	5.348528E-04
5.814104E+03	3.751775E-02	5.273352E-04
5.824042E+03	3.700107E-02	5.198010E-04
5.833981E+03	3.648342E-02	5.122677E-04
5.843920E+03	3.596571E-02	5.047474E-04
5.853858E+03	3.544985E-02	4.972670E-04
5.863797E+03	3.493638E-02	4.898338E-04
5.873736E+03	3.442648E-02	4.824646E-04
5.883674E+03	3.392133E-02	4.751763E-04
5.893613E+03	3.342211E-02	4.679857E-04
5.903551E+03	3.292993E-02	4.609091E-04
5.913490E+03	3.244562E-02	4.539585E-04
5.923429E+03	3.197028E-02	4.471501E-04
5.933367E+03	3.150527E-02	4.405040E-04
5.943306E+03	3.105105E-02	4.340273E-04
5.953245E+03	3.060894E-02	4.277393E-04
5.963183E+03	3.017987E-02	4.216544E-04
5.973122E+03	2.976421E-02	4.157788E-04
5.983061E+03	2.936343E-02	4.101341E-04
5.992999E+03	2.897806E-02	4.047293E-04
6.002938E+03	2.860888E-02	3.995765E-04
6.012877E+03	2.825663E-02	3.946873E-04
6.022815E+03	2.792167E-02	3.900687E-04
6.032754E+03	2.760516E-02	3.857384E-04
6.042692E+03	2.730736E-02	3.817018E-04
6.052631E+03	2.702852E-02	3.779641E-04
6.062570E+03	2.676954E-02	3.745403E-04
6.072508E+03	2.653080E-02	3.714376E-04
6.082447E+03	2.631233E-02	3.686588E-04
6.092386E+03	2.611487E-02	3.662170E-04
6.102324E+03	2.593859E-02	3.641171E-04
6.112263E+03	2.578335E-02	3.623602E-04
6.122202E+03	2.564972E-02	3.609573E-04
6.132140E+03	2.553744E-02	3.599084E-04
6.142079E+03	2.544619E-02	3.592125E-04
6.152017E+03	2.537564E-02	3.588687E-04
6.161956E+03	2.532610E-02	3.588856E-04
6.171895E+03	2.529682E-02	3.592571E-04
6.181833E+03	2.528802E-02	3.599908E-04
6.191772E+03	2.529905E-02	3.610826E-04
6.201711E+03	2.532949E-02	3.625316E-04
6.211649E+03	2.537830E-02	3.643284E-04
6.221588E+03	2.544538E-02	3.664771E-04
6.231527E+03	2.552952E-02	3.689664E-04
6.241465E+03	2.563020E-02	3.717941E-04
6.251404E+03	2.574648E-02	3.749495E-04
6.261342E+03	2.587712E-02	3.784145E-04
6.271281E+03	2.602095E-02	3.821724E-04
6.281220E+03	2.617722E-02	3.862124E-04
6.291158E+03	2.634429E-02	3.905103E-04
6.301097E+03	2.652065E-02	3.950433E-04
6.311036E+03	2.670493E-02	3.997905E-04
6.320974E+03	2.689536E-02	4.047248E-04
6.330913E+03	2.709008E-02	4.098164E-04
6.340852E+03	2.728737E-02	4.150378E-04
6.350790E+03	2.748485E-02	4.203504E-04
6.360729E+03	2.768090E-02	4.257262E-04
6.370667E+03	2.787326E-02	4.311271E-04
6.380606E+03	2.805941E-02	4.365098E-04
6.390545E+03	2.823733E-02	4.418378E-04
6.400483E+03	2.840504E-02	4.470743E-04
6.410422E+03	2.855993E-02	4.521719E-04
6.420361E+03	2.869974E-02	4.570875E-04
6.430299E+03	2.882226E-02	4.617781E-04
6.440238E+03	2.892568E-02	4.662058E-04
6.450177E+03	2.900773E-02	4.703248E-04
6.460115E+03	2.906656E-02	4.740953E-04
6.470054E+03	2.910114E-02	4.774898E-04
6.479993E+03	2.911006E-02	4.804745E-04
6.489931E+03	2.909212E-02	4.830186E-04
6.499870E+03	2.904701E-02	4.851055E-04
6.509808E+03	2.897408E-02	4.867130E-04
6.519747E+03	2.887295E-02	4.878234E-04
6.529686E+03	2.874353E-02	4.884239E-04
6.539624E+03	2.858636E-02	4.885125E-04
6.549563E+03	2.840223E-02	4.880921E-04
6.559502E+03	2.819159E-02	4.871602E-04
6.569440E+03	2.795548E-02	4.857250E-04
6.579379E+03	2.769576E-02	4.838096E-04
6.589318E+03	2.741361E-02	4.814263E-04
6.599256E+03	2.711100E-02	4.786021E-04
6.609195E+03	2.678975E-02	4.753621E-04
6.619133E+03	2.645151E-02	4.717298E-04
6.629072E+03	2.609893E-02	4.677470E-04
6.639011E+03	2.573381E-02	4.634416E-04
6.648949E+03	2.535859E-02	4.588543E-04
6.658888E+03	2.497541E-02	4.540210E-04
6.668827E+03	2.458639E-02	4.489783E-04
6.678765E+03	2.419359E-02	4.437632E-04
6.688704E+03	2.379902E-02	4.384118E-04
6.698643E+03	2.340460E-02	4.329598E-04
6.708581E+03	2.301239E-02	4.274463E-04
6.718520E+03	2.262408E-02	4.219040E-04
6.728458E+03	2.224125E-02	4.163641E-04
6.738397E+03	2.186504E-02	4.108509E-04
6.748336E+03	2.149729E-02	4.054008E-04
6.758274E+03	2.113865E-02	4.000297E-04
6.768213E+03	2.079063E-02	3.947690E-04
6.778152E+03	2.045368E-02	3.896305E-04
6.788090E+03	2.012902E-02	3.846412E-04
6.798029E+03	1.981732E-02	3.798174E-04
6.807968E+03	1.951867E-02	3.751641E-04
6.817906E+03	1.923397E-02	3.707025E-04
6.827845E+03	1.896335E-02	3.664384E-04
6.837784E+03	1.870729E-02	3.623846E-04
6.847722E+03	1.846576E-02	3.585440E-04
6.857661E+03	1.823889E-02	3.549221E-04
6.867599E+03	1.802695E-02	3.515273E-04
6.877538E+03	1.782974E-02	3.483586E-04
6.887477E+03	1.764744E-02	3.454223E-04
6.897415E+03	1.747974E-02	3.427150E-04
6.907354E+03	1.732656E-02	3.402374E-04
6.917293E+03	1.718796E-02	3.379929E-04
6.927231E+03	1.706358E-02	3.359763E-04
6.937170E+03	1.695325E-02	3.341860E-04
6.947109E+03	1.685677E-02	3.326200E-04
6.957047E+03	1.677396E-02	3.312757E-04
6.966986E+03	1.670459E-02	3.301501E-04
6.976924E+03	1.664846E-02	3.292400E-04
6.986863E+03	1.660535E-02	3.285420E-04
6.996802E+03	1.657503E-02	3.280522E-04
7.006740E+03	1.655708E-02	3.277627E-04
7.016679E+03	1.655148E-02	3.276731E-04
7.026618E+03	1.655778E-02	3.277751E-04
7.036556E+03	1.657576E-02	3.280640E-04
7.046495E+03	1.660539E-02	3.285388E-04
7.056434E+03	1.664601E-02	3.291864E-04
7.066372E+03	1.669758E-02	3.300055E-04
7.076311E+03	1.675986E-02	3.309907E-04
7.086249E+03	1.683239E-02	3.321319E-04
7.096188E+03	1.691491E-02	3.334233E-04
7.106127E+03	1.700715E-02	3.348585E-04
7.116065E+03	1.710882E-02	3.364310E-04
7.126004E+03	1.721945E-02	3.381299E-04
7.135943E+03	1.733893E-02	3.399523E-04
7.145881E+03	1.746654E-02	3.418826E-04
7.155820E+03	1.760240E-02	3.439218E-04
7.165759E+03	1.774553E-02	3.460497E-04
7.175697E+03	1.789602E-02	3.482664E-04
7.185636E+03	1.805332E-02	3.505598E-04
7.195575E+03	1.821708E-02	3.529219E-04
7.205513E+03	1.838668E-02	3.553395E-04
7.215452E+03	1.856156E-02	3.578003E-04
7.225390E+03	1.874177E-02	3.603043E-04
7.235329E+03	1.892647E-02	3.628341E-04
7.245268E+03	1.911504E-02	3.653768E-04
7.255206E+03	1.930755E-02	3.679331E-04
7.265145E+03	1.950288E-02	3.704807E-04
7.275084E+03	1.970112E-02	3.730207E-04
7.285022E+03	1.990139E-02	3.755361E-04
7.294961E+03	2.010354E-02	3.780236E-04
7.304900E+03	2.030691E-02	3.804712E-04
7.314838E+03	2.051088E-02	3.828670E-04
7.324777E+03	2.071555E-02	3.852134E-04
7.334715E+03	2.091979E-02	3.874901E-04
7.344654E+03	2.112373E-02	3.897002E-04
7.354593E+03	2.132648E-02	3.918285E-04
7.364531E+03	2.152821E-02	3.938794E-04
7.374470E+03	2.172830E-02	3.958431E-04
7.384409E+03	2.192640E-02	3.977153E-04
7.394347E+03	2.212217E-02	3.994917E-04
7.404286E+03	2.231524E-02	4.011684E-04
7.414225E+03	2.250555E-02	4.027469E-04
7.424163E+03	2.269219E-02	4.042140E-04
7.434102E+03	2.287537E-02	4.055766E-04
7.444040E+03	2.305412E-02	4.068215E-04
7.453979E+03	2.322864E-02	4.079560E-04
7.463918E+03	2.339793E-02	4.089671E-04
7.473856E+03	2.356215E-02	4.098619E-04
7.483795E+03	2.372052E-02	4.106323E-04
7.493734E+03	2.387286E-02	4.112804E-04
7.503672E+03	2.401835E-02	4.117976E-04
7.513611E+03	2.415704E-02	4.121909E-04
7.523550E+03	2.428769E-02	4.124457E-04
7.533488E+03	2.441029E-02	4.125684E-04
7.543427E+03	2.452416E-02	4.125547E-04
7.553366E+03	2.462827E-02	4.123945E-04
7.563304E+03	2.472217E-02	4.120881E-04
7.573243E+03	2.480538E-02	4.116357E-04
7.583181E+03	2.487676E-02	4.110264E-04
7.593120E+03	2.493545E-02	4.102546E-04
7.603059E+03	2.498057E-02	4.093147E-04
7.612997E+03	2.501188E-02	4.082117E-04
7.622936E+03	2.502786E-02	4.069294E-04
7.632875E+03	2.502794E-02	4.054681E-04
7.642813E+03	2.501128E-02	4.038228E-04
7.652752E+03	2.497736E-02	4.019940E-04
7.662691E+03	2.492476E-02	3.999676E-04
7.672629E+03	2.485339E-02	3.977506E-04
7.682568E+03	2.476229E-02	3.953355E-04
7.692506E+03	2.465089E-02	3.927206E-04
7.702445E+03	2.451904E-02	3.899104E-04
7.712384E+03	2.436606E-02	3.869003E-04
