#wls	flux	fluxerr
1.590182E+03	1.706338E-03	1.103180E-04
1.629937E+03	1.698787E-03	1.095289E-04
1.669691E+03	1.695472E-03	1.090070E-04
1.709446E+03	1.695794E-03	1.087116E-04
1.749200E+03	1.699822E-03	1.086450E-04
1.788955E+03	1.708303E-03	1.088522E-04
1.828710E+03	1.721333E-03	1.093366E-04
1.868464E+03	1.738685E-03	1.100806E-04
1.908219E+03	1.760475E-03	1.110884E-04
1.947973E+03	1.787515E-03	1.124079E-04
1.987728E+03	1.819617E-03	1.140230E-04
2.027482E+03	1.857292E-03	1.159619E-04
2.067237E+03	1.900361E-03	1.182086E-04
2.106991E+03	1.949739E-03	1.208152E-04
2.146746E+03	2.004889E-03	1.237430E-04
2.186501E+03	2.066766E-03	1.270453E-04
2.226255E+03	2.135605E-03	1.307301E-04
2.266010E+03	2.211638E-03	1.348048E-04
2.305764E+03	2.294672E-03	1.392504E-04
2.345519E+03	2.385325E-03	1.440967E-04
2.385273E+03	2.484245E-03	1.493746E-04
2.425028E+03	2.591656E-03	1.550883E-04
2.464782E+03	2.706809E-03	1.611835E-04
2.504537E+03	2.831249E-03	1.677425E-04
2.544292E+03	2.964647E-03	1.747346E-04
2.584046E+03	3.107608E-03	1.821840E-04
2.623801E+03	3.259672E-03	1.900516E-04
2.663555E+03	3.421915E-03	1.983876E-04
2.703310E+03	3.593761E-03	2.071450E-04
2.743064E+03	3.776251E-03	2.163698E-04
2.782819E+03	3.969257E-03	2.260392E-04
2.822573E+03	4.173161E-03	2.361596E-04
2.862328E+03	4.388292E-03	2.467326E-04
2.902083E+03	4.615558E-03	2.577916E-04
2.941837E+03	4.855154E-03	2.693283E-04
2.981592E+03	5.107830E-03	2.813641E-04
2.991530E+03	5.173656E-03	2.844823E-04
3.001469E+03	5.240246E-03	2.876270E-04
3.011408E+03	5.306876E-03	2.907581E-04
3.021346E+03	5.374940E-03	2.939518E-04
3.031285E+03	5.444430E-03	2.972071E-04
3.041223E+03	5.514619E-03	3.004839E-04
3.051162E+03	5.585485E-03	3.037807E-04
3.061101E+03	5.657736E-03	3.071355E-04
3.071039E+03	5.730627E-03	3.105075E-04
3.080978E+03	5.804862E-03	3.139345E-04
3.090917E+03	5.879692E-03	3.173755E-04
3.100855E+03	5.955828E-03	3.208685E-04
3.110794E+03	6.033251E-03	3.244118E-04
3.120733E+03	6.111194E-03	3.279640E-04
3.130671E+03	6.191111E-03	3.316025E-04
3.140610E+03	6.271492E-03	3.352460E-04
3.150549E+03	6.353051E-03	3.389321E-04
3.160487E+03	6.436517E-03	3.426993E-04
3.170426E+03	6.520340E-03	3.464644E-04
3.180364E+03	6.606005E-03	3.503060E-04
3.190303E+03	6.692717E-03	3.541812E-04
3.200242E+03	6.780435E-03	3.580874E-04
3.210180E+03	6.869884E-03	3.620624E-04
3.220119E+03	6.960251E-03	3.660626E-04
3.230058E+03	7.052270E-03	3.701263E-04
3.239996E+03	7.145108E-03	3.742090E-04
3.249935E+03	7.239494E-03	3.783484E-04
3.259874E+03	7.335371E-03	3.825410E-04
3.269812E+03	7.432687E-03	3.867834E-04
3.279751E+03	7.531381E-03	3.910717E-04
3.289689E+03	7.631389E-03	3.954020E-04
3.299628E+03	7.732643E-03	3.997703E-04
3.309567E+03	7.835852E-03	4.042125E-04
3.319505E+03	7.940166E-03	4.086840E-04
3.329444E+03	8.045494E-03	4.131797E-04
3.339383E+03	8.152540E-03	4.177351E-04
3.349321E+03	8.261226E-03	4.223455E-04
3.359260E+03	8.371444E-03	4.270046E-04
3.369199E+03	8.482321E-03	4.316673E-04
3.379137E+03	8.595330E-03	4.364079E-04
3.389076E+03	8.709562E-03	4.411796E-04
3.399014E+03	8.825696E-03	4.460160E-04
3.408953E+03	8.942042E-03	4.508311E-04
3.418892E+03	9.060830E-03	4.557368E-04
3.428830E+03	9.180357E-03	4.606466E-04
3.438769E+03	9.301263E-03	4.655921E-04
3.448708E+03	9.423408E-03	4.705656E-04
3.458646E+03	9.546640E-03	4.755589E-04
3.468585E+03	9.670794E-03	4.805633E-04
3.478524E+03	9.796486E-03	4.856088E-04
3.488462E+03	9.923541E-03	4.906859E-04
3.498401E+03	1.005099E-02	4.957464E-04
3.508340E+03	1.017943E-02	5.008191E-04
3.518278E+03	1.030867E-02	5.058937E-04
3.528217E+03	1.043848E-02	5.109594E-04
3.538155E+03	1.056943E-02	5.160427E-04
3.548094E+03	1.070052E-02	5.210951E-04
3.558033E+03	1.083153E-02	5.261054E-04
3.567971E+03	1.096374E-02	5.311349E-04
3.577910E+03	1.109538E-02	5.360983E-04
3.587849E+03	1.122771E-02	5.410555E-04
3.597787E+03	1.135969E-02	5.459571E-04
3.607726E+03	1.149108E-02	5.507905E-04
3.617665E+03	1.162233E-02	5.555779E-04
3.627603E+03	1.175313E-02	5.603044E-04
3.637542E+03	1.188320E-02	5.649566E-04
3.647480E+03	1.201224E-02	5.695201E-04
3.657419E+03	1.213993E-02	5.739807E-04
3.667358E+03	1.226667E-02	5.783568E-04
3.677296E+03	1.239212E-02	5.826332E-04
3.687235E+03	1.251527E-02	5.867628E-04
3.697174E+03	1.263715E-02	5.907946E-04
3.707112E+03	1.275606E-02	5.946496E-04
3.717051E+03	1.287303E-02	5.983762E-04
3.726990E+03	1.298768E-02	6.019586E-04
3.736928E+03	1.309901E-02	6.053503E-04
3.746867E+03	1.320732E-02	6.085671E-04
3.756805E+03	1.331227E-02	6.115939E-04
3.766744E+03	1.341412E-02	6.144444E-04
3.776683E+03	1.351126E-02	6.170463E-04
3.786621E+03	1.360462E-02	6.194432E-04
3.796560E+03	1.369383E-02	6.216200E-04
3.806499E+03	1.377855E-02	6.235633E-04
3.816437E+03	1.385786E-02	6.252329E-04
3.826376E+03	1.393262E-02	6.266700E-04
3.836315E+03	1.400195E-02	6.278366E-04
3.846253E+03	1.406555E-02	6.287222E-04
3.856192E+03	1.412318E-02	6.293177E-04
3.866131E+03	1.417514E-02	6.296397E-04
3.876069E+03	1.422123E-02	6.296809E-04
3.886008E+03	1.426072E-02	6.294122E-04
3.895946E+03	1.429452E-02	6.288765E-04
3.905885E+03	1.432150E-02	6.280262E-04
3.915824E+03	1.434213E-02	6.268847E-04
3.925762E+03	1.435640E-02	6.254551E-04
3.935701E+03	1.436486E-02	6.237630E-04
3.945640E+03	1.436663E-02	6.217741E-04
3.955578E+03	1.436240E-02	6.195198E-04
3.965517E+03	1.435283E-02	6.170320E-04
3.975456E+03	1.433730E-02	6.142865E-04
3.985394E+03	1.431705E-02	6.113387E-04
3.995333E+03	1.429204E-02	6.081890E-04
4.005271E+03	1.426230E-02	6.048410E-04
4.015210E+03	1.422875E-02	6.013359E-04
4.025149E+03	1.419194E-02	5.976980E-04
4.035087E+03	1.415242E-02	5.939527E-04
4.045026E+03	1.411041E-02	5.901102E-04
4.054965E+03	1.406654E-02	5.861982E-04
4.064903E+03	1.402148E-02	5.822449E-04
4.074842E+03	1.397553E-02	5.782638E-04
4.084781E+03	1.392970E-02	5.742969E-04
4.094719E+03	1.388465E-02	5.703718E-04
4.104658E+03	1.384005E-02	5.664742E-04
4.114596E+03	1.379754E-02	5.626713E-04
4.124535E+03	1.375681E-02	5.589494E-04
4.134474E+03	1.371882E-02	5.553466E-04
4.144412E+03	1.368386E-02	5.518745E-04
4.154351E+03	1.365228E-02	5.485443E-04
4.164290E+03	1.362465E-02	5.453788E-04
4.174228E+03	1.360127E-02	5.423878E-04
4.184167E+03	1.358272E-02	5.395921E-04
4.194106E+03	1.356923E-02	5.369997E-04
4.204044E+03	1.356109E-02	5.346190E-04
4.213983E+03	1.355880E-02	5.324674E-04
4.223922E+03	1.356233E-02	5.305416E-04
4.233860E+03	1.357191E-02	5.288479E-04
4.243799E+03	1.358828E-02	5.274118E-04
4.253737E+03	1.361112E-02	5.262187E-04
4.263676E+03	1.364088E-02	5.252828E-04
4.273615E+03	1.367774E-02	5.246076E-04
4.283553E+03	1.372163E-02	5.241878E-04
4.293492E+03	1.377319E-02	5.240443E-04
4.303431E+03	1.383208E-02	5.241609E-04
4.313369E+03	1.389843E-02	5.245390E-04
4.323308E+03	1.397280E-02	5.251966E-04
4.333247E+03	1.405457E-02	5.261073E-04
4.343185E+03	1.414427E-02	5.272867E-04
4.353124E+03	1.424189E-02	5.287313E-04
4.363062E+03	1.434719E-02	5.304287E-04
4.373001E+03	1.446031E-02	5.323807E-04
4.382940E+03	1.458091E-02	5.345711E-04
4.392878E+03	1.470879E-02	5.369897E-04
4.402817E+03	1.484371E-02	5.396239E-04
4.412756E+03	1.498531E-02	5.424582E-04
4.422694E+03	1.513338E-02	5.454821E-04
4.432633E+03	1.528741E-02	5.486740E-04
4.442572E+03	1.544677E-02	5.520089E-04
4.452510E+03	1.561115E-02	5.554740E-04
4.462449E+03	1.577972E-02	5.590372E-04
4.472387E+03	1.595196E-02	5.626787E-04
4.482326E+03	1.612660E-02	5.663522E-04
4.492265E+03	1.630312E-02	5.700393E-04
4.502203E+03	1.648006E-02	5.736876E-04
4.512142E+03	1.665652E-02	5.772667E-04
4.522081E+03	1.683131E-02	5.807354E-04
4.532019E+03	1.700322E-02	5.840530E-04
4.541958E+03	1.717122E-02	5.871861E-04
4.551897E+03	1.733408E-02	5.900942E-04
4.561835E+03	1.749080E-02	5.927462E-04
4.571774E+03	1.764000E-02	5.950981E-04
4.581713E+03	1.778103E-02	5.971320E-04
4.591651E+03	1.791290E-02	5.988187E-04
4.601590E+03	1.803498E-02	6.001412E-04
4.611528E+03	1.814653E-02	6.010799E-04
4.621467E+03	1.824742E-02	6.016355E-04
4.631406E+03	1.833701E-02	6.017915E-04
4.641344E+03	1.841572E-02	6.015673E-04
4.651283E+03	1.848344E-02	6.009646E-04
4.661222E+03	1.854048E-02	5.999982E-04
4.671160E+03	1.858726E-02	5.986868E-04
4.681099E+03	1.862435E-02	5.970534E-04
4.691038E+03	1.865241E-02	5.951235E-04
4.700976E+03	1.867221E-02	5.929260E-04
4.710915E+03	1.868480E-02	5.904979E-04
4.720853E+03	1.869106E-02	5.878701E-04
4.730792E+03	1.869188E-02	5.850738E-04
4.740731E+03	1.868817E-02	5.821395E-04
4.750669E+03	1.868080E-02	5.790968E-04
4.760608E+03	1.866996E-02	5.759532E-04
4.770547E+03	1.865669E-02	5.727422E-04
4.780485E+03	1.864107E-02	5.694677E-04
4.790424E+03	1.862359E-02	5.661459E-04
4.800363E+03	1.860490E-02	5.627969E-04
4.810301E+03	1.858489E-02	5.594188E-04
4.820240E+03	1.856431E-02	5.560342E-04
4.830178E+03	1.854273E-02	5.526313E-04
4.840117E+03	1.852100E-02	5.492356E-04
4.850056E+03	1.849883E-02	5.458389E-04
4.859994E+03	1.847656E-02	5.424515E-04
4.869933E+03	1.845409E-02	5.390708E-04
4.879872E+03	1.843172E-02	5.357060E-04
4.889810E+03	1.840938E-02	5.323550E-04
4.899749E+03	1.838763E-02	5.290342E-04
4.909688E+03	1.836625E-02	5.257369E-04
4.919626E+03	1.834567E-02	5.224763E-04
4.929565E+03	1.832601E-02	5.192552E-04
4.939504E+03	1.830807E-02	5.160956E-04
4.949442E+03	1.829209E-02	5.130045E-04
4.959381E+03	1.827841E-02	5.099906E-04
4.969319E+03	1.826808E-02	5.070822E-04
4.979258E+03	1.826159E-02	5.042916E-04
4.989197E+03	1.825992E-02	5.016449E-04
4.999135E+03	1.826353E-02	4.991523E-04
5.009074E+03	1.827372E-02	4.968477E-04
5.019013E+03	1.829125E-02	4.947491E-04
5.028951E+03	1.831729E-02	4.928856E-04
5.038890E+03	1.835268E-02	4.912761E-04
5.048829E+03	1.839864E-02	4.899496E-04
5.058767E+03	1.845619E-02	4.889296E-04
5.068706E+03	1.852613E-02	4.882328E-04
5.078644E+03	1.860946E-02	4.878808E-04
5.088583E+03	1.870732E-02	4.878985E-04
5.098522E+03	1.882062E-02	4.883042E-04
5.108460E+03	1.895020E-02	4.891143E-04
5.118399E+03	1.909665E-02	4.903376E-04
5.128338E+03	1.926087E-02	4.919915E-04
5.138276E+03	1.944349E-02	4.940861E-04
5.148215E+03	1.964485E-02	4.966233E-04
5.158154E+03	1.986579E-02	4.996183E-04
5.168092E+03	2.010624E-02	5.030628E-04
5.178031E+03	2.036643E-02	5.069558E-04
5.187969E+03	2.064689E-02	5.113046E-04
5.197908E+03	2.094717E-02	5.160919E-04
5.207847E+03	2.126735E-02	5.213133E-04
5.217785E+03	2.160691E-02	5.269510E-04
5.227724E+03	2.196566E-02	5.329944E-04
5.237663E+03	2.234303E-02	5.394247E-04
5.247601E+03	2.273829E-02	5.462199E-04
5.257540E+03	2.315032E-02	5.533486E-04
5.267479E+03	2.357808E-02	5.607824E-04
5.277417E+03	2.402056E-02	5.684946E-04
5.287356E+03	2.447615E-02	5.764446E-04
5.297295E+03	2.494353E-02	5.845991E-04
5.307233E+03	2.542070E-02	5.929109E-04
5.317172E+03	2.590573E-02	6.013345E-04
5.327110E+03	2.639678E-02	6.098278E-04
5.337049E+03	2.689103E-02	6.183272E-04
5.346988E+03	2.738656E-02	6.267909E-04
5.356926E+03	2.788046E-02	6.351557E-04
5.366865E+03	2.836965E-02	6.433557E-04
5.376804E+03	2.885179E-02	6.513427E-04
5.386742E+03	2.932323E-02	6.590406E-04
5.396681E+03	2.978112E-02	6.663925E-04
5.406620E+03	3.022226E-02	6.733344E-04
5.416558E+03	3.064344E-02	6.798038E-04
5.426497E+03	3.104117E-02	6.857323E-04
5.436435E+03	3.141301E-02	6.910752E-04
5.446374E+03	3.175540E-02	6.957632E-04
5.456313E+03	3.206595E-02	6.997528E-04
5.466251E+03	3.234192E-02	7.029938E-04
5.476190E+03	3.258152E-02	7.054571E-04
5.486129E+03	3.278273E-02	7.071088E-04
5.496067E+03	3.294465E-02	7.079392E-04
5.506006E+03	3.306620E-02	7.079348E-04
5.515945E+03	3.314749E-02	7.071075E-04
5.525883E+03	3.318922E-02	7.054809E-04
5.535822E+03	3.319161E-02	7.030681E-04
5.545760E+03	3.315644E-02	6.999147E-04
5.555699E+03	3.308565E-02	6.960688E-04
5.565638E+03	3.298196E-02	6.915942E-04
5.575576E+03	3.284755E-02	6.865418E-04
5.585515E+03	3.268619E-02	6.809951E-04
5.595454E+03	3.250061E-02	6.750151E-04
5.605392E+03	3.229498E-02	6.686911E-04
5.615331E+03	3.207226E-02	6.620865E-04
5.625270E+03	3.183663E-02	6.552891E-04
5.635208E+03	3.159122E-02	6.483639E-04
5.645147E+03	3.133894E-02	6.413706E-04
5.655086E+03	3.108307E-02	6.343757E-04
5.665024E+03	3.082652E-02	6.274376E-04
5.674963E+03	3.057093E-02	6.205880E-04
5.684901E+03	3.031839E-02	6.138676E-04
5.694840E+03	3.006995E-02	6.072959E-04
5.704779E+03	2.982709E-02	6.009006E-04
5.714717E+03	2.958965E-02	5.946763E-04
5.724656E+03	2.935761E-02	5.886209E-04
5.734595E+03	2.913086E-02	5.827298E-04
5.744533E+03	2.890859E-02	5.769852E-04
5.754472E+03	2.868914E-02	5.713524E-04
5.764411E+03	2.847172E-02	5.658142E-04
5.774349E+03	2.825451E-02	5.603334E-04
5.784288E+03	2.803588E-02	5.548763E-04
5.794226E+03	2.781413E-02	5.494093E-04
5.804165E+03	2.758736E-02	5.438940E-04
5.814104E+03	2.735433E-02	5.383056E-04
5.824042E+03	2.711343E-02	5.326124E-04
5.833981E+03	2.686384E-02	5.267982E-04
5.843920E+03	2.660446E-02	5.208415E-04
5.853858E+03	2.633457E-02	5.147283E-04
5.863797E+03	2.605426E-02	5.084606E-04
5.873736E+03	2.576376E-02	5.020424E-04
5.883674E+03	2.546334E-02	4.954795E-04
5.893613E+03	2.515390E-02	4.887889E-04
5.903551E+03	2.483685E-02	4.819978E-04
5.913490E+03	2.451292E-02	4.751198E-04
5.923429E+03	2.418445E-02	4.682000E-04
5.933367E+03	2.385259E-02	4.612596E-04
5.943306E+03	2.351970E-02	4.543439E-04
5.953245E+03	2.318734E-02	4.474815E-04
5.963183E+03	2.285774E-02	4.407148E-04
5.973122E+03	2.253266E-02	4.340762E-04
5.983061E+03	2.221400E-02	4.276014E-04
5.992999E+03	2.190356E-02	4.213238E-04
6.002938E+03	2.160280E-02	4.152699E-04
6.012877E+03	2.131344E-02	4.094717E-04
6.022815E+03	2.103661E-02	4.039499E-04
6.032754E+03	2.077330E-02	3.987219E-04
6.042692E+03	2.052471E-02	3.938100E-04
6.052631E+03	2.029167E-02	3.892291E-04
6.062570E+03	2.007464E-02	3.849870E-04
6.072508E+03	1.987414E-02	3.810932E-04
6.082447E+03	1.969056E-02	3.775543E-04
6.092386E+03	1.952416E-02	3.743749E-04
6.102324E+03	1.937508E-02	3.715575E-04
6.112263E+03	1.924321E-02	3.690996E-04
6.122202E+03	1.912873E-02	3.670046E-04
6.132140E+03	1.903138E-02	3.652681E-04
6.142079E+03	1.895088E-02	3.638845E-04
6.152017E+03	1.888709E-02	3.628520E-04
6.161956E+03	1.884007E-02	3.621721E-04
6.171895E+03	1.880964E-02	3.618421E-04
6.181833E+03	1.879585E-02	3.618640E-04
6.191772E+03	1.879855E-02	3.622359E-04
6.201711E+03	1.881759E-02	3.629565E-04
6.211649E+03	1.885303E-02	3.640279E-04
6.221588E+03	1.890474E-02	3.654495E-04
6.231527E+03	1.897236E-02	3.672157E-04
6.241465E+03	1.905630E-02	3.693347E-04
6.251404E+03	1.915576E-02	3.717915E-04
6.261342E+03	1.927100E-02	3.745923E-04
6.271281E+03	1.940144E-02	3.777262E-04
6.281220E+03	1.954677E-02	3.811880E-04
6.291158E+03	1.970613E-02	3.849619E-04
6.301097E+03	1.987927E-02	3.890440E-04
6.311036E+03	2.006473E-02	3.934067E-04
6.320974E+03	2.026164E-02	3.980334E-04
6.330913E+03	2.046844E-02	4.028948E-04
6.340852E+03	2.068329E-02	4.079551E-04
6.350790E+03	2.090451E-02	4.131814E-04
6.360729E+03	2.112946E-02	4.185219E-04
6.370667E+03	2.135585E-02	4.239311E-04
6.380606E+03	2.158092E-02	4.293535E-04
6.390545E+03	2.180141E-02	4.347235E-04
6.400483E+03	2.201387E-02	4.399708E-04
6.410422E+03	2.221533E-02	4.450341E-04
6.420361E+03	2.240179E-02	4.498309E-04
6.430299E+03	2.256994E-02	4.542916E-04
6.440238E+03	2.271577E-02	4.583316E-04
6.450177E+03	2.283611E-02	4.618829E-04
6.460115E+03	2.292729E-02	4.648661E-04
6.470054E+03	2.298640E-02	4.672168E-04
6.479993E+03	2.301020E-02	4.688631E-04
6.489931E+03	2.299691E-02	4.697621E-04
6.499870E+03	2.294452E-02	4.698662E-04
6.509808E+03	2.285167E-02	4.691401E-04
6.519747E+03	2.271763E-02	4.675615E-04
6.529686E+03	2.254283E-02	4.651319E-04
6.539624E+03	2.232788E-02	4.618564E-04
6.549563E+03	2.207432E-02	4.577596E-04
6.559502E+03	2.178401E-02	4.528735E-04
6.569440E+03	2.145967E-02	4.472479E-04
6.579379E+03	2.110446E-02	4.409427E-04
6.589318E+03	2.072195E-02	4.340273E-04
6.599256E+03	2.031598E-02	4.265774E-04
6.609195E+03	1.989064E-02	4.186747E-04
6.619133E+03	1.945006E-02	4.104029E-04
6.629072E+03	1.899841E-02	4.018474E-04
6.639011E+03	1.853953E-02	3.930879E-04
6.648949E+03	1.807756E-02	3.842106E-04
6.658888E+03	1.761636E-02	3.752975E-04
6.668827E+03	1.715911E-02	3.664164E-04
6.678765E+03	1.670872E-02	3.576301E-04
6.688704E+03	1.626829E-02	3.490063E-04
6.698643E+03	1.584018E-02	3.405974E-04
6.708581E+03	1.542623E-02	3.324449E-04
6.718520E+03	1.502812E-02	3.245871E-04
6.728458E+03	1.464732E-02	3.170590E-04
6.738397E+03	1.428470E-02	3.098815E-04
6.748336E+03	1.394131E-02	3.030806E-04
6.758274E+03	1.361727E-02	2.966618E-04
6.768213E+03	1.331299E-02	2.906369E-04
6.778152E+03	1.302863E-02	2.850127E-04
6.788090E+03	1.276373E-02	2.797818E-04
6.798029E+03	1.251817E-02	2.749445E-04
6.807968E+03	1.229165E-02	2.704970E-04
6.817906E+03	1.208353E-02	2.664280E-04
6.827845E+03	1.189322E-02	2.627269E-04
6.837784E+03	1.172007E-02	2.593820E-04
6.847722E+03	1.156355E-02	2.563835E-04
6.857661E+03	1.142281E-02	2.537151E-04
6.867599E+03	1.129715E-02	2.513633E-04
6.877538E+03	1.118601E-02	2.493174E-04
6.887477E+03	1.108856E-02	2.475607E-04
6.897415E+03	1.100428E-02	2.460831E-04
6.907354E+03	1.093240E-02	2.448693E-04
6.917293E+03	1.087232E-02	2.439072E-04
6.927231E+03	1.082362E-02	2.431884E-04
6.937170E+03	1.078579E-02	2.427029E-04
6.947109E+03	1.075808E-02	2.424351E-04
6.957047E+03	1.074045E-02	2.423852E-04
6.966986E+03	1.073214E-02	2.425365E-04
6.976924E+03	1.073303E-02	2.428878E-04
6.986863E+03	1.074280E-02	2.434328E-04
6.996802E+03	1.076092E-02	2.441597E-04
7.006740E+03	1.078735E-02	2.450688E-04
7.016679E+03	1.082173E-02	2.461523E-04
7.026618E+03	1.086393E-02	2.474082E-04
7.036556E+03	1.091357E-02	2.488284E-04
7.046495E+03	1.097042E-02	2.504082E-04
7.056434E+03	1.103422E-02	2.521422E-04
7.066372E+03	1.110469E-02	2.540244E-04
7.076311E+03	1.118154E-02	2.560488E-04
7.086249E+03	1.126459E-02	2.582114E-04
7.096188E+03	1.135320E-02	2.604985E-04
7.106127E+03	1.144728E-02	2.629078E-04
7.116065E+03	1.154613E-02	2.654239E-04
7.126004E+03	1.164943E-02	2.680397E-04
7.135943E+03	1.175685E-02	2.707479E-04
7.145881E+03	1.186760E-02	2.735304E-04
7.155820E+03	1.198128E-02	2.763782E-04
7.165759E+03	1.209732E-02	2.792788E-04
7.175697E+03	1.221516E-02	2.822189E-04
7.185636E+03	1.233407E-02	2.851820E-04
7.195575E+03	1.245375E-02	2.881614E-04
7.205513E+03	1.257331E-02	2.911367E-04
7.215452E+03	1.269233E-02	2.940982E-04
7.225390E+03	1.281010E-02	2.970295E-04
7.235329E+03	1.292640E-02	2.999257E-04
7.245268E+03	1.304039E-02	3.027677E-04
7.255206E+03	1.315176E-02	3.055481E-04
7.265145E+03	1.326007E-02	3.082569E-04
7.275084E+03	1.336474E-02	3.108811E-04
7.285022E+03	1.346577E-02	3.134203E-04
7.294961E+03	1.356232E-02	3.158558E-04
7.304900E+03	1.365465E-02	3.181932E-04
7.314838E+03	1.374236E-02	3.204239E-04
7.324777E+03	1.382512E-02	3.225402E-04
7.334715E+03	1.390297E-02	3.245434E-04
7.344654E+03	1.397566E-02	3.264282E-04
7.354593E+03	1.404338E-02	3.281988E-04
7.364531E+03	1.410615E-02	3.298564E-04
7.374470E+03	1.416371E-02	3.313950E-04
7.384409E+03	1.421656E-02	3.328269E-04
7.394347E+03	1.426453E-02	3.341485E-04
7.404286E+03	1.430806E-02	3.353707E-04
7.414225E+03	1.434748E-02	3.365011E-04
7.424163E+03	1.438331E-02	3.375528E-04
7.434102E+03	1.441578E-02	3.385319E-04
7.444040E+03	1.444535E-02	3.394490E-04
7.453979E+03	1.447266E-02	3.403206E-04
7.463918E+03	1.449804E-02	3.411545E-04
7.473856E+03	1.452200E-02	3.419634E-04
7.483795E+03	1.454522E-02	3.427640E-04
7.493734E+03	1.456802E-02	3.435645E-04
7.503672E+03	1.459102E-02	3.443804E-04
7.513611E+03	1.461425E-02	3.452132E-04
7.523550E+03	1.463843E-02	3.460807E-04
7.533488E+03	1.466361E-02	3.469848E-04
7.543427E+03	1.468997E-02	3.479307E-04
7.553366E+03	1.471752E-02	3.489198E-04
7.563304E+03	1.474620E-02	3.499511E-04
7.573243E+03	1.477581E-02	3.510210E-04
7.583181E+03	1.480577E-02	3.521169E-04
7.593120E+03	1.483600E-02	3.532376E-04
7.603059E+03	1.486567E-02	3.543644E-04
7.612997E+03	1.489382E-02	3.554747E-04
7.622936E+03	1.491973E-02	3.565529E-04
7.632875E+03	1.494241E-02	3.575753E-04
7.642813E+03	1.496073E-02	3.585161E-04
7.652752E+03	1.497352E-02	3.593471E-04
7.662691E+03	1.497934E-02	3.600341E-04
7.672629E+03	1.497711E-02	3.605514E-04
7.682568E+03	1.496558E-02	3.608685E-04
7.692506E+03	1.494350E-02	3.609553E-04
7.702445E+03	1.490971E-02	3.607826E-04
7.712384E+03	1.486292E-02	3.603186E-04
