#wls	flux	fluxerr
1.600000E+03	3.531932E-19	0.000000E+00
1.640000E+03	3.522361E-19	0.000000E+00
1.680000E+03	3.522409E-19	0.000000E+00
1.720000E+03	3.532255E-19	0.000000E+00
1.760000E+03	3.552465E-19	0.000000E+00
1.800000E+03	3.583966E-19	0.000000E+00
1.840000E+03	3.626561E-19	0.000000E+00
1.880000E+03	3.681669E-19	0.000000E+00
1.920000E+03	3.749939E-19	0.000000E+00
1.960000E+03	3.832188E-19	0.000000E+00
2.000000E+03	3.929162E-19	0.000000E+00
2.040000E+03	4.042110E-19	0.000000E+00
2.080000E+03	4.172006E-19	0.000000E+00
2.120000E+03	4.319611E-19	0.000000E+00
2.160000E+03	4.486824E-19	0.000000E+00
2.200000E+03	4.674876E-19	0.000000E+00
2.240000E+03	4.885687E-19	0.000000E+00
2.280000E+03	5.122176E-19	0.000000E+00
2.320000E+03	5.388341E-19	0.000000E+00
2.360000E+03	5.689667E-19	0.000000E+00
2.400000E+03	6.032791E-19	0.000000E+00
2.440000E+03	6.425476E-19	0.000000E+00
2.480000E+03	6.877754E-19	0.000000E+00
2.520000E+03	7.400644E-19	0.000000E+00
2.560000E+03	8.007998E-19	0.000000E+00
2.600000E+03	8.715589E-19	0.000000E+00
2.640000E+03	9.542962E-19	0.000000E+00
2.680000E+03	1.051331E-18	0.000000E+00
2.720000E+03	1.165511E-18	0.000000E+00
2.760000E+03	1.300343E-18	0.000000E+00
2.800000E+03	1.460122E-18	0.000000E+00
2.840000E+03	1.650161E-18	0.000000E+00
2.880000E+03	1.877159E-18	0.000000E+00
2.920000E+03	2.149347E-18	0.000000E+00
2.960000E+03	2.477283E-18	0.000000E+00
3.000000E+03	2.873988E-18	0.000000E+00
3.010000E+03	2.985836E-18	0.000000E+00
3.020000E+03	3.103246E-18	0.000000E+00
3.030000E+03	3.226518E-18	0.000000E+00
3.040000E+03	3.356120E-18	0.000000E+00
3.050000E+03	3.492322E-18	0.000000E+00
3.060000E+03	3.635488E-18	0.000000E+00
3.070000E+03	3.786082E-18	0.000000E+00
3.080000E+03	3.944430E-18	0.000000E+00
3.090000E+03	4.110960E-18	0.000000E+00
3.100000E+03	4.286301E-18	0.000000E+00
3.110000E+03	4.470764E-18	0.000000E+00
3.120000E+03	4.664946E-18	0.000000E+00
3.130000E+03	4.869293E-18	0.000000E+00
3.140000E+03	5.084668E-18	0.000000E+00
3.150000E+03	5.311385E-18	0.000000E+00
3.160000E+03	5.550173E-18	0.000000E+00
3.170000E+03	5.801824E-18	0.000000E+00
3.180000E+03	6.067054E-18	0.000000E+00
3.190000E+03	6.346388E-18	0.000000E+00
3.200000E+03	6.640979E-18	0.000000E+00
3.210000E+03	6.951425E-18	0.000000E+00
3.220000E+03	7.278745E-18	0.000000E+00
3.230000E+03	7.623748E-18	0.000000E+00
3.240000E+03	7.987545E-18	0.000000E+00
3.250000E+03	8.371189E-18	0.000000E+00
3.260000E+03	8.775774E-18	0.000000E+00
3.270000E+03	9.202311E-18	0.000000E+00
3.280000E+03	9.652158E-18	0.000000E+00
3.290000E+03	1.012660E-17	0.000000E+00
3.300000E+03	1.062681E-17	0.000000E+00
3.310000E+03	1.115436E-17	0.000000E+00
3.320000E+03	1.171054E-17	0.000000E+00
3.330000E+03	1.229708E-17	0.000000E+00
3.340000E+03	1.291540E-17	0.000000E+00
3.350000E+03	1.356717E-17	0.000000E+00
3.360000E+03	1.425413E-17	0.000000E+00
3.370000E+03	1.497809E-17	0.000000E+00
3.380000E+03	1.574094E-17	0.000000E+00
3.390000E+03	1.654437E-17	0.000000E+00
3.400000E+03	1.739061E-17	0.000000E+00
3.410000E+03	1.828120E-17	0.000000E+00
3.420000E+03	1.921871E-17	0.000000E+00
3.430000E+03	2.020473E-17	0.000000E+00
3.440000E+03	2.124131E-17	0.000000E+00
3.450000E+03	2.233054E-17	0.000000E+00
3.460000E+03	2.347415E-17	0.000000E+00
3.470000E+03	2.467440E-17	0.000000E+00
3.480000E+03	2.593286E-17	0.000000E+00
3.490000E+03	2.725092E-17	0.000000E+00
3.500000E+03	2.863014E-17	0.000000E+00
3.510000E+03	3.007152E-17	0.000000E+00
3.520000E+03	3.157662E-17	0.000000E+00
3.530000E+03	3.314516E-17	0.000000E+00
3.540000E+03	3.477815E-17	0.000000E+00
3.550000E+03	3.647554E-17	0.000000E+00
3.560000E+03	3.823738E-17	0.000000E+00
3.570000E+03	4.006247E-17	0.000000E+00
3.580000E+03	4.194971E-17	0.000000E+00
3.590000E+03	4.389860E-17	0.000000E+00
3.600000E+03	4.590632E-17	0.000000E+00
3.610000E+03	4.797171E-17	0.000000E+00
3.620000E+03	5.009225E-17	0.000000E+00
3.630000E+03	5.226447E-17	0.000000E+00
3.640000E+03	5.448500E-17	0.000000E+00
3.650000E+03	5.675085E-17	0.000000E+00
3.660000E+03	5.905737E-17	0.000000E+00
3.670000E+03	6.140164E-17	0.000000E+00
3.680000E+03	6.377773E-17	0.000000E+00
3.690000E+03	6.618147E-17	0.000000E+00
3.700000E+03	6.860777E-17	0.000000E+00
3.710000E+03	7.105203E-17	0.000000E+00
3.720000E+03	7.350809E-17	0.000000E+00
3.730000E+03	7.597100E-17	0.000000E+00
3.740000E+03	7.843509E-17	0.000000E+00
3.750000E+03	8.089522E-17	0.000000E+00
3.760000E+03	8.334562E-17	0.000000E+00
3.770000E+03	8.578108E-17	0.000000E+00
3.780000E+03	8.819579E-17	0.000000E+00
3.790000E+03	9.058383E-17	0.000000E+00
3.800000E+03	9.294200E-17	0.000000E+00
3.810000E+03	9.526273E-17	0.000000E+00
3.820000E+03	9.754227E-17	0.000000E+00
3.830000E+03	9.977697E-17	0.000000E+00
3.840000E+03	1.019605E-16	0.000000E+00
3.850000E+03	1.040886E-16	0.000000E+00
3.860000E+03	1.061583E-16	0.000000E+00
3.870000E+03	1.081656E-16	0.000000E+00
3.880000E+03	1.101071E-16	0.000000E+00
3.890000E+03	1.119783E-16	0.000000E+00
3.900000E+03	1.137772E-16	0.000000E+00
3.910000E+03	1.155009E-16	0.000000E+00
3.920000E+03	1.171468E-16	0.000000E+00
3.930000E+03	1.187127E-16	0.000000E+00
3.940000E+03	1.201965E-16	0.000000E+00
3.950000E+03	1.215976E-16	0.000000E+00
3.960000E+03	1.229146E-16	0.000000E+00
3.970000E+03	1.241453E-16	0.000000E+00
3.980000E+03	1.252910E-16	0.000000E+00
3.990000E+03	1.263501E-16	0.000000E+00
4.000000E+03	1.273236E-16	0.000000E+00
4.010000E+03	1.282114E-16	0.000000E+00
4.020000E+03	1.290129E-16	0.000000E+00
4.030000E+03	1.297309E-16	0.000000E+00
4.040000E+03	1.303652E-16	0.000000E+00
4.050000E+03	1.309181E-16	0.000000E+00
4.060000E+03	1.313911E-16	0.000000E+00
4.070000E+03	1.317857E-16	0.000000E+00
4.080000E+03	1.321039E-16	0.000000E+00
4.090000E+03	1.323488E-16	0.000000E+00
4.100000E+03	1.325217E-16	0.000000E+00
4.110000E+03	1.326247E-16	0.000000E+00
4.120000E+03	1.326629E-16	0.000000E+00
4.130000E+03	1.326364E-16	0.000000E+00
4.140000E+03	1.325493E-16	0.000000E+00
4.150000E+03	1.324043E-16	0.000000E+00
4.160000E+03	1.322042E-16	0.000000E+00
4.170000E+03	1.319519E-16	0.000000E+00
4.180000E+03	1.316502E-16	0.000000E+00
4.190000E+03	1.313021E-16	0.000000E+00
4.200000E+03	1.309103E-16	0.000000E+00
4.210000E+03	1.304775E-16	0.000000E+00
4.220000E+03	1.300065E-16	0.000000E+00
4.230000E+03	1.294985E-16	0.000000E+00
4.240000E+03	1.289561E-16	0.000000E+00
4.250000E+03	1.283828E-16	0.000000E+00
4.260000E+03	1.277806E-16	0.000000E+00
4.270000E+03	1.271495E-16	0.000000E+00
4.280000E+03	1.264924E-16	0.000000E+00
4.290000E+03	1.258110E-16	0.000000E+00
4.300000E+03	1.251069E-16	0.000000E+00
4.310000E+03	1.243813E-16	0.000000E+00
4.320000E+03	1.236346E-16	0.000000E+00
4.330000E+03	1.228698E-16	0.000000E+00
4.340000E+03	1.220856E-16	0.000000E+00
4.350000E+03	1.212849E-16	0.000000E+00
4.360000E+03	1.204682E-16	0.000000E+00
4.370000E+03	1.196368E-16	0.000000E+00
4.380000E+03	1.187911E-16	0.000000E+00
4.390000E+03	1.179320E-16	0.000000E+00
4.400000E+03	1.170596E-16	0.000000E+00
4.410000E+03	1.161758E-16	0.000000E+00
4.420000E+03	1.152803E-16	0.000000E+00
4.430000E+03	1.143726E-16	0.000000E+00
4.440000E+03	1.134544E-16	0.000000E+00
4.450000E+03	1.125253E-16	0.000000E+00
4.460000E+03	1.115856E-16	0.000000E+00
4.470000E+03	1.106370E-16	0.000000E+00
4.480000E+03	1.096777E-16	0.000000E+00
4.490000E+03	1.087093E-16	0.000000E+00
4.500000E+03	1.077323E-16	0.000000E+00
4.510000E+03	1.067461E-16	0.000000E+00
4.520000E+03	1.057514E-16	0.000000E+00
4.530000E+03	1.047487E-16	0.000000E+00
4.540000E+03	1.037387E-16	0.000000E+00
4.550000E+03	1.027222E-16	0.000000E+00
4.560000E+03	1.016990E-16	0.000000E+00
4.570000E+03	1.006693E-16	0.000000E+00
4.580000E+03	9.963588E-17	0.000000E+00
4.590000E+03	9.859798E-17	0.000000E+00
4.600000E+03	9.755597E-17	0.000000E+00
4.610000E+03	9.651211E-17	0.000000E+00
4.620000E+03	9.546778E-17	0.000000E+00
4.630000E+03	9.442175E-17	0.000000E+00
4.640000E+03	9.337835E-17	0.000000E+00
4.650000E+03	9.233562E-17	0.000000E+00
4.660000E+03	9.129706E-17	0.000000E+00
4.670000E+03	9.026359E-17	0.000000E+00
4.680000E+03	8.923615E-17	0.000000E+00
4.690000E+03	8.821572E-17	0.000000E+00
4.700000E+03	8.720326E-17	0.000000E+00
4.710000E+03	8.620152E-17	0.000000E+00
4.720000E+03	8.521069E-17	0.000000E+00
4.730000E+03	8.423181E-17	0.000000E+00
4.740000E+03	8.326668E-17	0.000000E+00
4.750000E+03	8.231462E-17	0.000000E+00
4.760000E+03	8.137905E-17	0.000000E+00
4.770000E+03	8.045841E-17	0.000000E+00
4.780000E+03	7.955522E-17	0.000000E+00
4.790000E+03	7.867016E-17	0.000000E+00
4.800000E+03	7.780245E-17	0.000000E+00
4.810000E+03	7.695349E-17	0.000000E+00
4.820000E+03	7.612466E-17	0.000000E+00
4.830000E+03	7.531483E-17	0.000000E+00
4.840000E+03	7.452529E-17	0.000000E+00
4.850000E+03	7.375624E-17	0.000000E+00
4.860000E+03	7.300717E-17	0.000000E+00
4.870000E+03	7.227834E-17	0.000000E+00
4.880000E+03	7.157041E-17	0.000000E+00
4.890000E+03	7.088273E-17	0.000000E+00
4.900000E+03	7.021579E-17	0.000000E+00
4.910000E+03	6.956801E-17	0.000000E+00
4.920000E+03	6.893979E-17	0.000000E+00
4.930000E+03	6.833084E-17	0.000000E+00
4.940000E+03	6.773996E-17	0.000000E+00
4.950000E+03	6.716735E-17	0.000000E+00
4.960000E+03	6.661185E-17	0.000000E+00
4.970000E+03	6.607339E-17	0.000000E+00
4.980000E+03	6.555068E-17	0.000000E+00
4.990000E+03	6.504306E-17	0.000000E+00
5.000000E+03	6.454899E-17	0.000000E+00
5.010000E+03	6.406908E-17	0.000000E+00
5.020000E+03	6.360116E-17	0.000000E+00
5.030000E+03	6.314436E-17	0.000000E+00
5.040000E+03	6.269859E-17	0.000000E+00
5.050000E+03	6.226224E-17	0.000000E+00
5.060000E+03	6.183454E-17	0.000000E+00
5.070000E+03	6.141456E-17	0.000000E+00
5.080000E+03	6.100149E-17	0.000000E+00
5.090000E+03	6.059392E-17	0.000000E+00
5.100000E+03	6.019114E-17	0.000000E+00
5.110000E+03	5.979295E-17	0.000000E+00
5.120000E+03	5.939748E-17	0.000000E+00
5.130000E+03	5.900531E-17	0.000000E+00
5.140000E+03	5.861412E-17	0.000000E+00
5.150000E+03	5.822452E-17	0.000000E+00
5.160000E+03	5.783560E-17	0.000000E+00
5.170000E+03	5.744693E-17	0.000000E+00
5.180000E+03	5.705831E-17	0.000000E+00
5.190000E+03	5.666892E-17	0.000000E+00
5.200000E+03	5.627871E-17	0.000000E+00
5.210000E+03	5.588715E-17	0.000000E+00
5.220000E+03	5.549545E-17	0.000000E+00
5.230000E+03	5.510209E-17	0.000000E+00
5.240000E+03	5.470797E-17	0.000000E+00
5.250000E+03	5.431343E-17	0.000000E+00
5.260000E+03	5.391899E-17	0.000000E+00
5.270000E+03	5.352404E-17	0.000000E+00
5.280000E+03	5.312976E-17	0.000000E+00
5.290000E+03	5.273640E-17	0.000000E+00
5.300000E+03	5.234465E-17	0.000000E+00
5.310000E+03	5.195484E-17	0.000000E+00
5.320000E+03	5.156834E-17	0.000000E+00
5.330000E+03	5.118508E-17	0.000000E+00
5.340000E+03	5.080593E-17	0.000000E+00
5.350000E+03	5.043134E-17	0.000000E+00
5.360000E+03	5.006276E-17	0.000000E+00
5.370000E+03	4.969958E-17	0.000000E+00
5.380000E+03	4.934317E-17	0.000000E+00
5.390000E+03	4.899386E-17	0.000000E+00
5.400000E+03	4.865188E-17	0.000000E+00
5.410000E+03	4.831644E-17	0.000000E+00
5.420000E+03	4.798764E-17	0.000000E+00
5.430000E+03	4.766549E-17	0.000000E+00
5.440000E+03	4.734800E-17	0.000000E+00
5.450000E+03	4.703505E-17	0.000000E+00
5.460000E+03	4.672502E-17	0.000000E+00
5.470000E+03	4.641721E-17	0.000000E+00
5.480000E+03	4.611317E-17	0.000000E+00
5.490000E+03	4.581253E-17	0.000000E+00
5.500000E+03	4.551672E-17	0.000000E+00
5.510000E+03	4.522616E-17	0.000000E+00
5.520000E+03	4.494264E-17	0.000000E+00
5.530000E+03	4.466559E-17	0.000000E+00
5.540000E+03	4.439581E-17	0.000000E+00
5.550000E+03	4.413313E-17	0.000000E+00
5.560000E+03	4.387873E-17	0.000000E+00
5.570000E+03	4.363196E-17	0.000000E+00
5.580000E+03	4.339305E-17	0.000000E+00
5.590000E+03	4.316177E-17	0.000000E+00
5.600000E+03	4.293873E-17	0.000000E+00
5.610000E+03	4.272321E-17	0.000000E+00
5.620000E+03	4.251533E-17	0.000000E+00
5.630000E+03	4.231520E-17	0.000000E+00
5.640000E+03	4.212245E-17	0.000000E+00
5.650000E+03	4.193715E-17	0.000000E+00
5.660000E+03	4.175842E-17	0.000000E+00
5.670000E+03	4.158625E-17	0.000000E+00
5.680000E+03	4.142063E-17	0.000000E+00
5.690000E+03	4.126105E-17	0.000000E+00
5.700000E+03	4.110699E-17	0.000000E+00
5.710000E+03	4.095791E-17	0.000000E+00
5.720000E+03	4.081410E-17	0.000000E+00
5.730000E+03	4.067414E-17	0.000000E+00
5.740000E+03	4.053828E-17	0.000000E+00
5.750000E+03	4.040593E-17	0.000000E+00
5.760000E+03	4.027604E-17	0.000000E+00
5.770000E+03	4.014843E-17	0.000000E+00
5.780000E+03	4.002293E-17	0.000000E+00
5.790000E+03	3.989849E-17	0.000000E+00
5.800000E+03	3.977454E-17	0.000000E+00
5.810000E+03	3.965135E-17	0.000000E+00
5.820000E+03	3.952751E-17	0.000000E+00
5.830000E+03	3.940294E-17	0.000000E+00
5.840000E+03	3.927713E-17	0.000000E+00
5.850000E+03	3.914963E-17	0.000000E+00
5.860000E+03	3.902045E-17	0.000000E+00
5.870000E+03	3.888836E-17	0.000000E+00
5.880000E+03	3.875389E-17	0.000000E+00
5.890000E+03	3.861633E-17	0.000000E+00
5.900000E+03	3.847545E-17	0.000000E+00
5.910000E+03	3.833108E-17	0.000000E+00
5.920000E+03	3.818311E-17	0.000000E+00
5.930000E+03	3.803189E-17	0.000000E+00
5.940000E+03	3.787657E-17	0.000000E+00
5.950000E+03	3.771717E-17	0.000000E+00
5.960000E+03	3.755424E-17	0.000000E+00
5.970000E+03	3.738791E-17	0.000000E+00
5.980000E+03	3.721755E-17	0.000000E+00
5.990000E+03	3.704423E-17	0.000000E+00
6.000000E+03	3.686696E-17	0.000000E+00
6.010000E+03	3.668737E-17	0.000000E+00
6.020000E+03	3.650452E-17	0.000000E+00
6.030000E+03	3.631883E-17	0.000000E+00
6.040000E+03	3.613114E-17	0.000000E+00
6.050000E+03	3.594149E-17	0.000000E+00
6.060000E+03	3.575034E-17	0.000000E+00
6.070000E+03	3.555734E-17	0.000000E+00
6.080000E+03	3.536383E-17	0.000000E+00
6.090000E+03	3.516906E-17	0.000000E+00
6.100000E+03	3.497439E-17	0.000000E+00
6.110000E+03	3.477989E-17	0.000000E+00
6.120000E+03	3.458565E-17	0.000000E+00
6.130000E+03	3.439214E-17	0.000000E+00
6.140000E+03	3.420025E-17	0.000000E+00
6.150000E+03	3.400996E-17	0.000000E+00
6.160000E+03	3.382166E-17	0.000000E+00
6.170000E+03	3.363652E-17	0.000000E+00
6.180000E+03	3.345395E-17	0.000000E+00
6.190000E+03	3.327457E-17	0.000000E+00
6.200000E+03	3.309891E-17	0.000000E+00
6.210000E+03	3.292743E-17	0.000000E+00
6.220000E+03	3.275965E-17	0.000000E+00
6.230000E+03	3.259547E-17	0.000000E+00
6.240000E+03	3.243510E-17	0.000000E+00
6.250000E+03	3.227789E-17	0.000000E+00
6.260000E+03	3.212396E-17	0.000000E+00
6.270000E+03	3.197297E-17	0.000000E+00
6.280000E+03	3.182499E-17	0.000000E+00
6.290000E+03	3.167965E-17	0.000000E+00
6.300000E+03	3.153654E-17	0.000000E+00
6.310000E+03	3.139571E-17	0.000000E+00
6.320000E+03	3.125717E-17	0.000000E+00
6.330000E+03	3.112009E-17	0.000000E+00
6.340000E+03	3.098450E-17	0.000000E+00
6.350000E+03	3.085043E-17	0.000000E+00
6.360000E+03	3.071706E-17	0.000000E+00
6.370000E+03	3.058488E-17	0.000000E+00
6.380000E+03	3.045349E-17	0.000000E+00
6.390000E+03	3.032255E-17	0.000000E+00
6.400000E+03	3.019169E-17	0.000000E+00
6.410000E+03	3.006144E-17	0.000000E+00
6.420000E+03	2.993100E-17	0.000000E+00
6.430000E+03	2.980096E-17	0.000000E+00
6.440000E+03	2.967099E-17	0.000000E+00
6.450000E+03	2.954079E-17	0.000000E+00
6.460000E+03	2.941051E-17	0.000000E+00
6.470000E+03	2.927989E-17	0.000000E+00
6.480000E+03	2.914910E-17	0.000000E+00
6.490000E+03	2.901702E-17	0.000000E+00
6.500000E+03	2.888432E-17	0.000000E+00
6.510000E+03	2.875076E-17	0.000000E+00
6.520000E+03	2.861572E-17	0.000000E+00
6.530000E+03	2.847946E-17	0.000000E+00
6.540000E+03	2.834181E-17	0.000000E+00
6.550000E+03	2.820264E-17	0.000000E+00
6.560000E+03	2.806183E-17	0.000000E+00
6.570000E+03	2.791971E-17	0.000000E+00
6.580000E+03	2.777574E-17	0.000000E+00
6.590000E+03	2.762987E-17	0.000000E+00
6.600000E+03	2.748250E-17	0.000000E+00
6.610000E+03	2.733360E-17	0.000000E+00
6.620000E+03	2.718272E-17	0.000000E+00
6.630000E+03	2.703031E-17	0.000000E+00
6.640000E+03	2.687595E-17	0.000000E+00
6.650000E+03	2.672060E-17	0.000000E+00
6.660000E+03	2.656342E-17	0.000000E+00
6.670000E+03	2.640448E-17	0.000000E+00
6.680000E+03	2.624434E-17	0.000000E+00
6.690000E+03	2.608309E-17	0.000000E+00
6.700000E+03	2.592041E-17	0.000000E+00
6.710000E+03	2.575644E-17	0.000000E+00
6.720000E+03	2.559176E-17	0.000000E+00
6.730000E+03	2.542607E-17	0.000000E+00
6.740000E+03	2.525998E-17	0.000000E+00
6.750000E+03	2.509273E-17	0.000000E+00
6.760000E+03	2.492541E-17	0.000000E+00
6.770000E+03	2.475726E-17	0.000000E+00
6.780000E+03	2.458935E-17	0.000000E+00
6.790000E+03	2.442094E-17	0.000000E+00
6.800000E+03	2.425264E-17	0.000000E+00
6.810000E+03	2.408460E-17	0.000000E+00
6.820000E+03	2.391651E-17	0.000000E+00
6.830000E+03	2.374896E-17	0.000000E+00
6.840000E+03	2.358165E-17	0.000000E+00
6.850000E+03	2.341511E-17	0.000000E+00
6.860000E+03	2.324859E-17	0.000000E+00
6.870000E+03	2.308308E-17	0.000000E+00
6.880000E+03	2.291820E-17	0.000000E+00
6.890000E+03	2.275406E-17	0.000000E+00
6.900000E+03	2.259027E-17	0.000000E+00
6.910000E+03	2.242776E-17	0.000000E+00
6.920000E+03	2.226528E-17	0.000000E+00
6.930000E+03	2.210414E-17	0.000000E+00
6.940000E+03	2.194353E-17	0.000000E+00
6.950000E+03	2.178343E-17	0.000000E+00
6.960000E+03	2.162430E-17	0.000000E+00
6.970000E+03	2.146568E-17	0.000000E+00
6.980000E+03	2.130758E-17	0.000000E+00
6.990000E+03	2.114996E-17	0.000000E+00
7.000000E+03	2.099281E-17	0.000000E+00
7.010000E+03	2.083609E-17	0.000000E+00
7.020000E+03	2.067935E-17	0.000000E+00
7.030000E+03	2.052337E-17	0.000000E+00
7.040000E+03	2.036689E-17	0.000000E+00
7.050000E+03	2.021108E-17	0.000000E+00
7.060000E+03	2.005469E-17	0.000000E+00
7.070000E+03	1.989849E-17	0.000000E+00
7.080000E+03	1.974204E-17	0.000000E+00
7.090000E+03	1.958531E-17	0.000000E+00
7.100000E+03	1.942867E-17	0.000000E+00
7.110000E+03	1.927130E-17	0.000000E+00
7.120000E+03	1.911360E-17	0.000000E+00
7.130000E+03	1.895517E-17	0.000000E+00
7.140000E+03	1.879641E-17	0.000000E+00
7.150000E+03	1.863733E-17	0.000000E+00
7.160000E+03	1.847758E-17	0.000000E+00
7.170000E+03	1.831757E-17	0.000000E+00
7.180000E+03	1.815661E-17	0.000000E+00
7.190000E+03	1.799552E-17	0.000000E+00
7.200000E+03	1.783400E-17	0.000000E+00
7.210000E+03	1.767178E-17	0.000000E+00
7.220000E+03	1.750933E-17	0.000000E+00
7.230000E+03	1.734678E-17	0.000000E+00
7.240000E+03	1.718389E-17	0.000000E+00
7.250000E+03	1.702083E-17	0.000000E+00
7.260000E+03	1.685774E-17	0.000000E+00
7.270000E+03	1.669481E-17	0.000000E+00
7.280000E+03	1.653222E-17	0.000000E+00
7.290000E+03	1.636948E-17	0.000000E+00
7.300000E+03	1.620747E-17	0.000000E+00
7.310000E+03	1.604607E-17	0.000000E+00
7.320000E+03	1.588517E-17	0.000000E+00
7.330000E+03	1.572532E-17	0.000000E+00
7.340000E+03	1.556609E-17	0.000000E+00
7.350000E+03	1.540774E-17	0.000000E+00
7.360000E+03	1.525049E-17	0.000000E+00
7.370000E+03	1.509428E-17	0.000000E+00
7.380000E+03	1.493967E-17	0.000000E+00
7.390000E+03	1.478594E-17	0.000000E+00
7.400000E+03	1.463398E-17	0.000000E+00
7.410000E+03	1.448339E-17	0.000000E+00
7.420000E+03	1.433473E-17	0.000000E+00
7.430000E+03	1.418790E-17	0.000000E+00
7.440000E+03	1.404314E-17	0.000000E+00
7.450000E+03	1.390094E-17	0.000000E+00
7.460000E+03	1.376123E-17	0.000000E+00
7.470000E+03	1.362507E-17	0.000000E+00
7.480000E+03	1.349206E-17	0.000000E+00
7.490000E+03	1.336295E-17	0.000000E+00
7.500000E+03	1.323762E-17	0.000000E+00
7.510000E+03	1.311709E-17	0.000000E+00
7.520000E+03	1.300123E-17	0.000000E+00
7.530000E+03	1.289021E-17	0.000000E+00
7.540000E+03	1.278447E-17	0.000000E+00
7.550000E+03	1.268419E-17	0.000000E+00
7.560000E+03	1.259012E-17	0.000000E+00
7.570000E+03	1.250191E-17	0.000000E+00
7.580000E+03	1.242006E-17	0.000000E+00
7.590000E+03	1.234515E-17	0.000000E+00
7.600000E+03	1.227718E-17	0.000000E+00
7.610000E+03	1.221681E-17	0.000000E+00
7.620000E+03	1.216417E-17	0.000000E+00
7.630000E+03	1.212030E-17	0.000000E+00
7.640000E+03	1.208510E-17	0.000000E+00
7.650000E+03	1.205912E-17	0.000000E+00
7.660000E+03	1.204113E-17	0.000000E+00
7.670000E+03	1.203091E-17	0.000000E+00
7.680000E+03	1.202719E-17	0.000000E+00
7.690000E+03	1.202989E-17	0.000000E+00
7.700000E+03	1.203815E-17	0.000000E+00
7.710000E+03	1.205145E-17	0.000000E+00
7.720000E+03	1.206933E-17	0.000000E+00
7.730000E+03	1.209136E-17	0.000000E+00
7.740000E+03	1.211716E-17	0.000000E+00
7.750000E+03	1.214606E-17	0.000000E+00
7.760000E+03	1.217833E-17	0.000000E+00
