#wls	flux	fluxerr
1.600000E+03	3.990129E-19	1.837807E-20
1.640000E+03	3.951110E-19	1.809602E-20
1.680000E+03	3.923403E-19	1.786542E-20
1.720000E+03	3.907026E-19	1.768549E-20
1.760000E+03	3.902437E-19	1.755737E-20
1.800000E+03	3.910479E-19	1.748388E-20
1.840000E+03	3.930772E-19	1.746224E-20
1.880000E+03	3.964701E-19	1.749748E-20
1.920000E+03	4.012812E-19	1.759074E-20
1.960000E+03	4.075848E-19	1.774393E-20
2.000000E+03	4.154484E-19	1.795851E-20
2.040000E+03	4.249958E-19	1.823824E-20
2.080000E+03	4.363238E-19	1.858553E-20
2.120000E+03	4.495116E-19	1.900186E-20
2.160000E+03	4.647615E-19	1.949374E-20
2.200000E+03	4.822130E-19	2.006474E-20
2.240000E+03	5.020851E-19	2.072145E-20
2.280000E+03	5.247085E-19	2.147472E-20
2.320000E+03	5.505387E-19	2.233991E-20
2.360000E+03	5.801964E-19	2.333833E-20
2.400000E+03	6.144449E-19	2.449605E-20
2.440000E+03	6.541905E-19	2.584358E-20
2.480000E+03	7.006154E-19	2.742082E-20
2.520000E+03	7.550617E-19	2.927204E-20
2.560000E+03	8.192472E-19	3.145384E-20
2.600000E+03	8.952045E-19	3.403206E-20
2.640000E+03	9.855175E-19	3.709012E-20
2.680000E+03	1.093379E-18	4.073004E-20
2.720000E+03	1.222849E-18	4.508083E-20
2.760000E+03	1.379134E-18	5.030691E-20
2.800000E+03	1.568907E-18	5.661755E-20
2.840000E+03	1.800840E-18	6.428291E-20
2.880000E+03	2.086393E-18	7.365831E-20
2.920000E+03	2.440568E-18	8.520508E-20
2.960000E+03	2.883646E-18	9.954397E-20
3.000000E+03	3.442597E-18	1.174935E-19
3.010000E+03	3.604573E-18	1.226703E-19
3.020000E+03	3.776655E-18	1.281588E-19
3.030000E+03	3.959568E-18	1.339807E-19
3.040000E+03	4.154280E-18	1.401658E-19
3.050000E+03	4.361561E-18	1.467365E-19
3.060000E+03	4.582339E-18	1.537205E-19
3.070000E+03	4.817718E-18	1.611509E-19
3.080000E+03	5.068686E-18	1.690567E-19
3.090000E+03	5.336413E-18	1.774724E-19
3.100000E+03	5.622404E-18	1.864434E-19
3.110000E+03	5.927817E-18	1.960029E-19
3.120000E+03	6.254264E-18	2.061987E-19
3.130000E+03	6.603240E-18	2.170742E-19
3.140000E+03	6.976904E-18	2.286942E-19
3.150000E+03	7.376770E-18	2.411014E-19
3.160000E+03	7.805033E-18	2.543604E-19
3.170000E+03	8.264101E-18	2.685417E-19
3.180000E+03	8.756409E-18	2.837162E-19
3.190000E+03	9.284274E-18	2.999498E-19
3.200000E+03	9.851062E-18	3.173416E-19
3.210000E+03	1.045954E-17	3.359703E-19
3.220000E+03	1.111322E-17	3.559380E-19
3.230000E+03	1.181557E-17	3.773430E-19
3.240000E+03	1.257072E-17	4.003045E-19
3.250000E+03	1.338291E-17	4.249443E-19
3.260000E+03	1.425678E-17	4.513941E-19
3.270000E+03	1.519703E-17	4.797872E-19
3.280000E+03	1.620926E-17	5.102833E-19
3.290000E+03	1.729927E-17	5.430465E-19
3.300000E+03	1.847298E-17	5.782431E-19
3.310000E+03	1.973736E-17	6.160702E-19
3.320000E+03	2.109926E-17	6.567194E-19
3.330000E+03	2.256669E-17	7.004155E-19
3.340000E+03	2.414752E-17	7.473773E-19
3.350000E+03	2.585048E-17	7.978478E-19
3.360000E+03	2.768488E-17	8.520849E-19
3.370000E+03	2.966058E-17	9.103610E-19
3.380000E+03	3.178802E-17	9.729640E-19
3.390000E+03	3.407772E-17	1.040180E-18
3.400000E+03	3.654168E-17	1.112340E-18
3.410000E+03	3.919080E-17	1.189735E-18
3.420000E+03	4.203857E-17	1.272734E-18
3.430000E+03	4.509653E-17	1.361643E-18
3.440000E+03	4.837742E-17	1.456802E-18
3.450000E+03	5.189387E-17	1.558544E-18
3.460000E+03	5.565733E-17	1.667164E-18
3.470000E+03	5.967956E-17	1.782965E-18
3.480000E+03	6.396916E-17	1.906152E-18
3.490000E+03	6.853217E-17	2.036853E-18
3.500000E+03	7.337234E-17	2.175130E-18
3.510000E+03	7.848902E-17	2.320914E-18
3.520000E+03	8.388018E-17	2.474095E-18
3.530000E+03	8.953604E-17	2.634342E-18
3.540000E+03	9.544780E-17	2.801354E-18
3.550000E+03	1.016014E-16	2.974680E-18
3.560000E+03	1.079812E-16	3.153832E-18
3.570000E+03	1.145665E-16	3.338179E-18
3.580000E+03	1.213356E-16	3.527067E-18
3.590000E+03	1.282680E-16	3.719885E-18
3.600000E+03	1.353359E-16	3.915820E-18
3.610000E+03	1.425168E-16	4.114216E-18
3.620000E+03	1.497843E-16	4.314320E-18
3.630000E+03	1.571107E-16	4.515338E-18
3.640000E+03	1.644696E-16	4.716533E-18
3.650000E+03	1.718375E-16	4.917252E-18
3.660000E+03	1.791885E-16	5.116779E-18
3.670000E+03	1.865038E-16	5.314609E-18
3.680000E+03	1.937588E-16	5.510079E-18
3.690000E+03	2.009371E-16	5.702751E-18
3.700000E+03	2.080228E-16	5.892212E-18
3.710000E+03	2.150053E-16	6.078195E-18
3.720000E+03	2.218723E-16	6.260391E-18
3.730000E+03	2.286190E-16	6.438697E-18
3.740000E+03	2.352408E-16	6.613022E-18
3.750000E+03	2.417379E-16	6.783407E-18
3.760000E+03	2.481101E-16	6.949878E-18
3.770000E+03	2.543610E-16	7.112566E-18
3.780000E+03	2.604924E-16	7.271557E-18
3.790000E+03	2.665066E-16	7.426938E-18
3.800000E+03	2.724131E-16	7.579008E-18
3.810000E+03	2.782079E-16	7.727676E-18
3.820000E+03	2.838961E-16	7.873107E-18
3.830000E+03	2.894811E-16	8.015422E-18
3.840000E+03	2.949562E-16	8.154455E-18
3.850000E+03	3.003177E-16	8.290126E-18
3.860000E+03	3.055624E-16	8.422368E-18
3.870000E+03	3.106817E-16	8.550962E-18
3.880000E+03	3.156646E-16	8.675629E-18
3.890000E+03	3.204946E-16	8.795937E-18
3.900000E+03	3.251592E-16	8.911564E-18
3.910000E+03	3.296412E-16	9.022058E-18
3.920000E+03	3.339220E-16	9.126938E-18
3.930000E+03	3.379822E-16	9.225695E-18
3.940000E+03	3.418021E-16	9.317819E-18
3.950000E+03	3.453654E-16	9.402895E-18
3.960000E+03	3.486540E-16	9.480450E-18
3.970000E+03	3.516476E-16	9.549965E-18
3.980000E+03	3.543377E-16	9.611237E-18
3.990000E+03	3.567087E-16	9.663868E-18
4.000000E+03	3.587541E-16	9.707717E-18
4.010000E+03	3.604677E-16	9.742636E-18
4.020000E+03	3.618433E-16	9.768488E-18
4.030000E+03	3.628877E-16	9.785487E-18
4.040000E+03	3.636021E-16	9.793686E-18
4.050000E+03	3.639973E-16	9.793403E-18
4.060000E+03	3.640843E-16	9.784957E-18
4.070000E+03	3.638775E-16	9.768750E-18
4.080000E+03	3.633940E-16	9.745266E-18
4.090000E+03	3.626567E-16	9.715133E-18
4.100000E+03	3.616844E-16	9.678870E-18
4.110000E+03	3.605006E-16	9.637117E-18
4.120000E+03	3.591366E-16	9.590724E-18
4.130000E+03	3.576118E-16	9.540212E-18
4.140000E+03	3.559555E-16	9.486370E-18
4.150000E+03	3.541938E-16	9.429897E-18
4.160000E+03	3.523526E-16	9.371483E-18
4.170000E+03	3.504572E-16	9.311802E-18
4.180000E+03	3.485323E-16	9.251505E-18
4.190000E+03	3.466017E-16	9.191221E-18
4.200000E+03	3.446884E-16	9.131555E-18
4.210000E+03	3.428145E-16	9.073082E-18
4.220000E+03	3.410012E-16	9.016357E-18
4.230000E+03	3.392659E-16	8.961826E-18
4.240000E+03	3.376282E-16	8.909996E-18
4.250000E+03	3.361095E-16	8.861424E-18
4.260000E+03	3.347278E-16	8.816567E-18
4.270000E+03	3.334943E-16	8.775701E-18
4.280000E+03	3.324279E-16	8.739315E-18
4.290000E+03	3.315437E-16	8.707785E-18
4.300000E+03	3.308558E-16	8.681464E-18
4.310000E+03	3.303770E-16	8.660669E-18
4.320000E+03	3.301157E-16	8.645600E-18
4.330000E+03	3.300873E-16	8.636644E-18
4.340000E+03	3.302939E-16	8.633830E-18
4.350000E+03	3.307469E-16	8.637439E-18
4.360000E+03	3.314495E-16	8.647534E-18
4.370000E+03	3.324053E-16	8.664184E-18
4.380000E+03	3.336118E-16	8.687303E-18
4.390000E+03	3.350662E-16	8.716799E-18
4.400000E+03	3.367595E-16	8.752412E-18
4.410000E+03	3.386849E-16	8.793949E-18
4.420000E+03	3.408258E-16	8.840960E-18
4.430000E+03	3.431617E-16	8.892889E-18
4.440000E+03	3.456743E-16	8.949250E-18
4.450000E+03	3.483354E-16	9.009295E-18
4.460000E+03	3.511160E-16	9.072262E-18
4.470000E+03	3.539869E-16	9.137386E-18
4.480000E+03	3.569060E-16	9.203572E-18
4.490000E+03	3.598386E-16	9.269916E-18
4.500000E+03	3.627443E-16	9.335379E-18
4.510000E+03	3.655778E-16	9.398796E-18
4.520000E+03	3.682966E-16	9.459079E-18
4.530000E+03	3.708586E-16	9.515150E-18
4.540000E+03	3.732221E-16	9.565956E-18
4.550000E+03	3.753476E-16	9.610498E-18
4.560000E+03	3.771950E-16	9.647765E-18
4.570000E+03	3.787271E-16	9.676833E-18
4.580000E+03	3.799224E-16	9.697171E-18
4.590000E+03	3.807497E-16	9.708015E-18
4.600000E+03	3.811868E-16	9.708827E-18
4.610000E+03	3.812251E-16	9.699417E-18
4.620000E+03	3.808583E-16	9.679661E-18
4.630000E+03	3.800754E-16	9.649312E-18
4.640000E+03	3.788938E-16	9.608844E-18
4.650000E+03	3.773112E-16	9.558237E-18
4.660000E+03	3.753532E-16	9.498168E-18
4.670000E+03	3.730395E-16	9.429173E-18
4.680000E+03	3.703949E-16	9.351907E-18
4.690000E+03	3.674486E-16	9.267134E-18
4.700000E+03	3.642332E-16	9.175707E-18
4.710000E+03	3.607918E-16	9.078736E-18
4.720000E+03	3.571591E-16	8.977111E-18
4.730000E+03	3.533750E-16	8.871853E-18
4.740000E+03	3.494838E-16	8.764093E-18
4.750000E+03	3.455199E-16	8.654700E-18
4.760000E+03	3.415342E-16	8.544960E-18
4.770000E+03	3.375561E-16	8.435607E-18
4.780000E+03	3.336301E-16	8.327762E-18
4.790000E+03	3.297916E-16	8.222299E-18
4.800000E+03	3.260667E-16	8.119867E-18
4.810000E+03	3.224884E-16	8.021279E-18
4.820000E+03	3.190863E-16	7.927258E-18
4.830000E+03	3.158770E-16	7.838207E-18
4.840000E+03	3.128833E-16	7.754673E-18
4.850000E+03	3.101220E-16	7.677055E-18
4.860000E+03	3.076032E-16	7.605590E-18
4.870000E+03	3.053381E-16	7.540528E-18
4.880000E+03	3.033377E-16	7.482126E-18
4.890000E+03	3.016046E-16	7.430419E-18
4.900000E+03	3.001448E-16	7.385539E-18
4.910000E+03	2.989532E-16	7.347333E-18
4.920000E+03	2.980315E-16	7.315824E-18
4.930000E+03	2.973772E-16	7.290928E-18
4.940000E+03	2.969836E-16	7.272456E-18
4.950000E+03	2.968492E-16	7.260356E-18
4.960000E+03	2.969662E-16	7.254408E-18
4.970000E+03	2.973326E-16	7.254552E-18
4.980000E+03	2.979406E-16	7.260574E-18
4.990000E+03	2.987856E-16	7.272342E-18
5.000000E+03	2.998594E-16	7.289640E-18
5.010000E+03	3.011637E-16	7.312490E-18
5.020000E+03	3.026867E-16	7.340593E-18
5.030000E+03	3.044224E-16	7.373784E-18
5.040000E+03	3.063670E-16	7.411954E-18
5.050000E+03	3.085086E-16	7.454803E-18
5.060000E+03	3.108368E-16	7.502070E-18
5.070000E+03	3.133395E-16	7.553446E-18
5.080000E+03	3.160018E-16	7.608563E-18
5.090000E+03	3.188034E-16	7.666925E-18
5.100000E+03	3.217250E-16	7.728060E-18
5.110000E+03	3.247479E-16	7.791513E-18
5.120000E+03	3.278409E-16	7.856538E-18
5.130000E+03	3.309846E-16	7.922666E-18
5.140000E+03	3.341405E-16	7.988979E-18
5.150000E+03	3.372857E-16	8.054934E-18
5.160000E+03	3.403856E-16	8.119717E-18
5.170000E+03	3.434090E-16	8.182592E-18
5.180000E+03	3.463243E-16	8.242818E-18
5.190000E+03	3.490967E-16	8.299587E-18
5.200000E+03	3.516960E-16	8.352199E-18
5.210000E+03	3.540900E-16	8.399911E-18
5.220000E+03	3.562595E-16	8.442289E-18
5.230000E+03	3.581699E-16	8.478541E-18
5.240000E+03	3.598044E-16	8.508295E-18
5.250000E+03	3.611464E-16	8.531184E-18
5.260000E+03	3.621830E-16	8.546938E-18
5.270000E+03	3.628986E-16	8.555212E-18
5.280000E+03	3.632924E-16	8.556017E-18
5.290000E+03	3.633609E-16	8.549303E-18
5.300000E+03	3.631082E-16	8.535186E-18
5.310000E+03	3.625386E-16	8.513789E-18
5.320000E+03	3.616671E-16	8.485482E-18
5.330000E+03	3.605008E-16	8.450445E-18
5.340000E+03	3.590566E-16	8.409087E-18
5.350000E+03	3.573494E-16	8.361774E-18
5.360000E+03	3.554031E-16	8.309072E-18
5.370000E+03	3.532281E-16	8.251233E-18
5.380000E+03	3.508492E-16	8.188850E-18
5.390000E+03	3.482843E-16	8.122341E-18
5.400000E+03	3.455499E-16	8.052100E-18
5.410000E+03	3.426544E-16	7.978325E-18
5.420000E+03	3.396110E-16	7.901328E-18
5.430000E+03	3.364309E-16	7.821370E-18
5.440000E+03	3.331101E-16	7.738361E-18
5.450000E+03	3.296575E-16	7.652510E-18
5.460000E+03	3.260718E-16	7.563789E-18
5.470000E+03	3.223591E-16	7.472343E-18
5.480000E+03	3.185429E-16	7.378712E-18
5.490000E+03	3.146339E-16	7.283148E-18
5.500000E+03	3.106572E-16	7.186232E-18
5.510000E+03	3.066324E-16	7.088412E-18
5.520000E+03	3.025897E-16	6.990385E-18
5.530000E+03	2.985447E-16	6.892509E-18
5.540000E+03	2.945240E-16	6.795391E-18
5.550000E+03	2.905490E-16	6.699519E-18
5.560000E+03	2.866507E-16	6.605603E-18
5.570000E+03	2.828492E-16	6.514099E-18
5.580000E+03	2.791707E-16	6.425602E-18
5.590000E+03	2.756389E-16	6.340647E-18
5.600000E+03	2.722820E-16	6.259874E-18
5.610000E+03	2.691191E-16	6.183715E-18
5.620000E+03	2.661734E-16	6.112689E-18
5.630000E+03	2.634660E-16	6.047272E-18
5.640000E+03	2.610126E-16	5.987813E-18
5.650000E+03	2.588293E-16	5.934667E-18
5.660000E+03	2.569229E-16	5.887982E-18
5.670000E+03	2.553026E-16	5.847958E-18
5.680000E+03	2.539737E-16	5.814703E-18
5.690000E+03	2.529352E-16	5.788185E-18
5.700000E+03	2.521820E-16	5.768277E-18
5.710000E+03	2.517053E-16	5.754771E-18
5.720000E+03	2.514980E-16	5.747492E-18
5.730000E+03	2.515382E-16	5.745937E-18
5.740000E+03	2.518117E-16	5.749771E-18
5.750000E+03	2.522956E-16	5.758466E-18
5.760000E+03	2.529610E-16	5.771360E-18
5.770000E+03	2.537821E-16	5.787861E-18
5.780000E+03	2.547311E-16	5.807331E-18
5.790000E+03	2.557729E-16	5.828968E-18
5.800000E+03	2.568739E-16	5.852010E-18
5.810000E+03	2.580059E-16	5.875811E-18
5.820000E+03	2.591292E-16	5.899472E-18
5.830000E+03	2.602136E-16	5.922307E-18
5.840000E+03	2.612274E-16	5.943596E-18
5.850000E+03	2.621405E-16	5.962661E-18
5.860000E+03	2.629284E-16	5.978950E-18
5.870000E+03	2.635607E-16	5.991774E-18
5.880000E+03	2.640216E-16	6.000782E-18
5.890000E+03	2.642905E-16	6.005507E-18
5.900000E+03	2.643525E-16	6.005619E-18
5.910000E+03	2.641971E-16	6.000883E-18
5.920000E+03	2.638168E-16	5.991135E-18
5.930000E+03	2.632108E-16	5.976360E-18
5.940000E+03	2.623729E-16	5.956421E-18
5.950000E+03	2.613054E-16	5.931377E-18
5.960000E+03	2.600173E-16	5.901432E-18
5.970000E+03	2.585171E-16	5.866782E-18
5.980000E+03	2.568097E-16	5.827540E-18
5.990000E+03	2.549143E-16	5.784147E-18
6.000000E+03	2.528377E-16	5.736754E-18
6.010000E+03	2.506059E-16	5.685952E-18
6.020000E+03	2.482293E-16	5.631977E-18
6.030000E+03	2.457280E-16	5.575285E-18
6.040000E+03	2.431262E-16	5.516424E-18
6.050000E+03	2.404429E-16	5.455825E-18
6.060000E+03	2.377004E-16	5.393987E-18
6.070000E+03	2.349147E-16	5.331279E-18
6.080000E+03	2.321130E-16	5.268311E-18
6.090000E+03	2.293072E-16	5.205353E-18
6.100000E+03	2.265217E-16	5.142955E-18
6.110000E+03	2.237710E-16	5.081447E-18
6.120000E+03	2.210673E-16	5.021104E-18
6.130000E+03	2.184235E-16	4.962216E-18
6.140000E+03	2.158529E-16	4.905079E-18
6.150000E+03	2.133607E-16	4.849804E-18
6.160000E+03	2.109526E-16	4.796514E-18
6.170000E+03	2.086378E-16	4.745411E-18
6.180000E+03	2.064128E-16	4.696411E-18
6.190000E+03	2.042810E-16	4.649585E-18
6.200000E+03	2.022451E-16	4.604990E-18
6.210000E+03	2.003073E-16	4.562672E-18
6.220000E+03	1.984645E-16	4.522559E-18
6.230000E+03	1.967163E-16	4.484638E-18
6.240000E+03	1.950642E-16	4.448936E-18
6.250000E+03	1.935036E-16	4.415350E-18
6.260000E+03	1.920346E-16	4.383880E-18
6.270000E+03	1.906538E-16	4.354441E-18
6.280000E+03	1.893593E-16	4.326993E-18
6.290000E+03	1.881461E-16	4.301419E-18
6.300000E+03	1.870088E-16	4.277593E-18
6.310000E+03	1.859442E-16	4.255440E-18
6.320000E+03	1.849487E-16	4.234875E-18
6.330000E+03	1.840139E-16	4.215707E-18
6.340000E+03	1.831364E-16	4.197853E-18
6.350000E+03	1.823132E-16	4.181246E-18
6.360000E+03	1.815363E-16	4.165700E-18
6.370000E+03	1.808060E-16	4.151221E-18
6.380000E+03	1.801180E-16	4.137705E-18
6.390000E+03	1.794683E-16	4.125064E-18
6.400000E+03	1.788537E-16	4.113217E-18
6.410000E+03	1.782760E-16	4.102209E-18
6.420000E+03	1.777302E-16	4.091921E-18
6.430000E+03	1.772188E-16	4.082409E-18
6.440000E+03	1.767395E-16	4.073619E-18
6.450000E+03	1.762897E-16	4.065490E-18
6.460000E+03	1.758692E-16	4.058016E-18
6.470000E+03	1.754747E-16	4.051117E-18
6.480000E+03	1.751051E-16	4.044771E-18
6.490000E+03	1.747507E-16	4.038749E-18
6.500000E+03	1.744119E-16	4.033059E-18
6.510000E+03	1.740831E-16	4.027573E-18
6.520000E+03	1.737560E-16	4.022092E-18
6.530000E+03	1.734269E-16	4.016531E-18
6.540000E+03	1.730893E-16	4.010740E-18
6.550000E+03	1.727369E-16	4.004567E-18
6.560000E+03	1.723633E-16	3.997864E-18
6.570000E+03	1.719654E-16	3.990555E-18
6.580000E+03	1.715346E-16	3.982438E-18
6.590000E+03	1.710660E-16	3.973396E-18
6.600000E+03	1.705575E-16	3.963381E-18
6.610000E+03	1.700054E-16	3.952303E-18
6.620000E+03	1.694037E-16	3.940018E-18
6.630000E+03	1.687528E-16	3.926534E-18
6.640000E+03	1.680482E-16	3.911745E-18
6.650000E+03	1.672947E-16	3.895761E-18
6.660000E+03	1.664864E-16	3.878441E-18
6.670000E+03	1.656241E-16	3.859803E-18
6.680000E+03	1.647120E-16	3.839940E-18
6.690000E+03	1.637522E-16	3.818903E-18
6.700000E+03	1.627450E-16	3.796697E-18
6.710000E+03	1.616938E-16	3.773402E-18
6.720000E+03	1.606061E-16	3.749187E-18
6.730000E+03	1.594839E-16	3.724104E-18
6.740000E+03	1.583355E-16	3.698345E-18
6.750000E+03	1.571617E-16	3.671926E-18
6.760000E+03	1.559745E-16	3.645128E-18
6.770000E+03	1.547749E-16	3.617979E-18
6.780000E+03	1.535756E-16	3.590773E-18
6.790000E+03	1.523777E-16	3.563540E-18
6.800000E+03	1.511911E-16	3.536506E-18
6.810000E+03	1.500216E-16	3.509815E-18
6.820000E+03	1.488728E-16	3.483548E-18
6.830000E+03	1.477525E-16	3.457889E-18
6.840000E+03	1.466625E-16	3.432886E-18
6.850000E+03	1.456096E-16	3.408695E-18
6.860000E+03	1.445913E-16	3.385261E-18
6.870000E+03	1.436153E-16	3.362765E-18
6.880000E+03	1.426805E-16	3.341185E-18
6.890000E+03	1.417878E-16	3.320539E-18
6.900000E+03	1.409348E-16	3.300777E-18
6.910000E+03	1.401267E-16	3.282021E-18
6.920000E+03	1.393550E-16	3.264070E-18
6.930000E+03	1.386265E-16	3.247090E-18
6.940000E+03	1.379350E-16	3.230933E-18
6.950000E+03	1.372792E-16	3.215571E-18
6.960000E+03	1.366605E-16	3.201038E-18
6.970000E+03	1.360749E-16	3.187241E-18
6.980000E+03	1.355209E-16	3.174148E-18
6.990000E+03	1.349971E-16	3.161728E-18
7.000000E+03	1.345022E-16	3.149950E-18
7.010000E+03	1.340345E-16	3.138775E-18
7.020000E+03	1.335897E-16	3.128103E-18
7.030000E+03	1.331711E-16	3.118016E-18
7.040000E+03	1.327688E-16	3.108277E-18
7.050000E+03	1.323881E-16	3.099019E-18
7.060000E+03	1.320187E-16	3.090000E-18
7.070000E+03	1.316633E-16	3.081281E-18
7.080000E+03	1.313162E-16	3.072733E-18
7.090000E+03	1.309745E-16	3.064289E-18
7.100000E+03	1.306378E-16	3.055941E-18
7.110000E+03	1.302977E-16	3.047496E-18
7.120000E+03	1.299538E-16	3.038944E-18
7.130000E+03	1.296002E-16	3.030148E-18
7.140000E+03	1.292361E-16	3.021095E-18
7.150000E+03	1.288583E-16	3.011709E-18
7.160000E+03	1.284608E-16	3.001851E-18
7.170000E+03	1.280423E-16	2.991494E-18
7.180000E+03	1.275939E-16	2.980435E-18
7.190000E+03	1.271172E-16	2.968711E-18
7.200000E+03	1.266058E-16	2.956173E-18
7.210000E+03	1.260534E-16	2.942679E-18
7.220000E+03	1.254592E-16	2.928211E-18
7.230000E+03	1.248200E-16	2.912700E-18
7.240000E+03	1.241309E-16	2.896032E-18
7.250000E+03	1.233902E-16	2.878170E-18
7.260000E+03	1.225973E-16	2.859104E-18
7.270000E+03	1.217525E-16	2.838841E-18
7.280000E+03	1.208577E-16	2.817431E-18
7.290000E+03	1.199108E-16	2.794825E-18
7.300000E+03	1.189211E-16	2.771244E-18
7.310000E+03	1.178916E-16	2.746759E-18
7.320000E+03	1.168262E-16	2.721466E-18
7.330000E+03	1.157348E-16	2.695595E-18
7.340000E+03	1.146204E-16	2.669215E-18
7.350000E+03	1.134909E-16	2.642518E-18
7.360000E+03	1.123549E-16	2.615702E-18
7.370000E+03	1.112180E-16	2.588899E-18
7.380000E+03	1.100907E-16	2.562356E-18
7.390000E+03	1.089735E-16	2.536085E-18
7.400000E+03	1.078784E-16	2.510367E-18
7.410000E+03	1.068076E-16	2.485252E-18
7.420000E+03	1.057694E-16	2.460937E-18
7.430000E+03	1.047672E-16	2.437502E-18
7.440000E+03	1.038060E-16	2.415062E-18
7.450000E+03	1.028923E-16	2.393769E-18
7.460000E+03	1.020272E-16	2.373654E-18
7.470000E+03	1.012202E-16	2.354933E-18
7.480000E+03	1.004685E-16	2.337547E-18
7.490000E+03	9.977765E-17	2.321623E-18
7.500000E+03	9.914541E-17	2.307112E-18
7.510000E+03	9.857743E-17	2.294146E-18
7.520000E+03	9.806977E-17	2.282636E-18
7.530000E+03	9.761981E-17	2.272523E-18
7.540000E+03	9.722615E-17	2.263775E-18
7.550000E+03	9.688451E-17	2.256295E-18
7.560000E+03	9.659416E-17	2.250068E-18
7.570000E+03	9.634521E-17	2.244864E-18
7.580000E+03	9.613365E-17	2.240587E-18
7.590000E+03	9.595514E-17	2.237136E-18
7.600000E+03	9.580083E-17	2.234303E-18
7.610000E+03	9.566613E-17	2.231980E-18
7.620000E+03	9.554237E-17	2.229965E-18
7.630000E+03	9.542778E-17	2.228213E-18
7.640000E+03	9.531277E-17	2.226501E-18
7.650000E+03	9.519735E-17	2.224827E-18
7.660000E+03	9.507399E-17	2.223014E-18
7.670000E+03	9.494477E-17	2.221107E-18
7.680000E+03	9.480392E-17	2.218972E-18
7.690000E+03	9.465494E-17	2.216687E-18
7.700000E+03	9.449527E-17	2.214192E-18
7.710000E+03	9.432485E-17	2.211482E-18
7.720000E+03	9.414387E-17	2.208561E-18
7.730000E+03	9.395270E-17	2.205436E-18
7.740000E+03	9.375180E-17	2.202115E-18
7.750000E+03	9.353959E-17	2.198559E-18
7.760000E+03	9.332098E-17	2.194883E-18
