#wls	flux	fluxerr
1.600000E+03	8.089359E-19	6.132861E-20
1.640000E+03	8.003990E-19	6.042965E-20
1.680000E+03	7.937269E-19	5.967031E-20
1.720000E+03	7.888082E-19	5.904052E-20
1.760000E+03	7.858213E-19	5.855182E-20
1.800000E+03	7.848574E-19	5.820898E-20
1.840000E+03	7.860184E-19	5.801734E-20
1.880000E+03	7.894209E-19	5.798306E-20
1.920000E+03	7.951187E-19	5.810744E-20
1.960000E+03	8.033505E-19	5.840505E-20
2.000000E+03	8.143750E-19	5.889137E-20
2.040000E+03	8.284010E-19	5.957776E-20
2.080000E+03	8.456755E-19	6.047784E-20
2.120000E+03	8.667157E-19	6.162385E-20
2.160000E+03	8.920877E-19	6.305042E-20
2.200000E+03	9.224224E-19	6.479554E-20
2.240000E+03	9.588077E-19	6.692770E-20
2.280000E+03	1.002296E-18	6.951074E-20
2.320000E+03	1.053939E-18	7.260598E-20
2.360000E+03	1.114817E-18	7.627444E-20
2.400000E+03	1.185924E-18	8.056860E-20
2.440000E+03	1.268973E-18	8.558684E-20
2.480000E+03	1.365608E-18	9.141902E-20
2.520000E+03	1.478261E-18	9.820291E-20
2.560000E+03	1.609614E-18	1.060869E-19
2.600000E+03	1.763297E-18	1.152747E-19
2.640000E+03	1.943460E-18	1.259943E-19
2.680000E+03	2.155293E-18	1.385299E-19
2.720000E+03	2.405094E-18	1.532227E-19
2.760000E+03	2.700761E-18	1.704982E-19
2.800000E+03	3.051637E-18	1.908508E-19
2.840000E+03	3.469970E-18	2.149297E-19
2.880000E+03	3.970814E-18	2.435217E-19
2.920000E+03	4.574225E-18	2.776752E-19
2.960000E+03	5.306211E-18	3.187395E-19
3.000000E+03	6.201139E-18	3.684859E-19
3.010000E+03	6.455389E-18	3.825383E-19
3.020000E+03	6.723184E-18	3.973030E-19
3.030000E+03	7.005493E-18	4.128300E-19
3.040000E+03	7.303356E-18	4.291724E-19
3.050000E+03	7.617682E-18	4.463753E-19
3.060000E+03	7.949444E-18	4.644864E-19
3.070000E+03	8.300096E-18	4.835811E-19
3.080000E+03	8.670556E-18	5.037023E-19
3.090000E+03	9.062012E-18	5.249081E-19
3.100000E+03	9.476193E-18	5.472867E-19
3.110000E+03	9.914490E-18	5.709058E-19
3.120000E+03	1.037863E-17	5.958511E-19
3.130000E+03	1.086970E-17	6.221709E-19
3.140000E+03	1.139042E-17	6.500048E-19
3.150000E+03	1.194212E-17	6.794117E-19
3.160000E+03	1.252701E-17	7.105006E-19
3.170000E+03	1.314749E-17	7.433883E-19
3.180000E+03	1.380584E-17	7.781823E-19
3.190000E+03	1.450478E-17	8.150149E-19
3.200000E+03	1.524696E-17	8.540112E-19
3.210000E+03	1.603550E-17	8.953206E-19
3.220000E+03	1.687346E-17	9.390869E-19
3.230000E+03	1.776443E-17	9.854815E-19
3.240000E+03	1.871196E-17	1.034669E-18
3.250000E+03	1.971981E-17	1.086825E-18
3.260000E+03	2.079241E-17	1.142158E-18
3.270000E+03	2.193418E-17	1.200871E-18
3.280000E+03	2.315023E-17	1.263203E-18
3.290000E+03	2.444565E-17	1.329389E-18
3.300000E+03	2.582594E-17	1.399678E-18
3.310000E+03	2.729699E-17	1.474339E-18
3.320000E+03	2.886561E-17	1.553686E-18
3.330000E+03	3.053866E-17	1.638028E-18
3.340000E+03	3.232352E-17	1.727697E-18
3.350000E+03	3.422812E-17	1.823049E-18
3.360000E+03	3.626041E-17	1.924434E-18
3.370000E+03	3.843007E-17	2.032288E-18
3.380000E+03	4.074629E-17	2.147011E-18
3.390000E+03	4.322012E-17	2.269096E-18
3.400000E+03	4.586214E-17	2.399000E-18
3.410000E+03	4.868283E-17	2.537167E-18
3.420000E+03	5.169611E-17	2.684211E-18
3.430000E+03	5.491306E-17	2.840587E-18
3.440000E+03	5.834748E-17	3.006880E-18
3.450000E+03	6.201298E-17	3.183655E-18
3.460000E+03	6.592360E-17	3.371489E-18
3.470000E+03	7.009290E-17	3.570918E-18
3.480000E+03	7.453537E-17	3.782517E-18
3.490000E+03	7.926368E-17	4.006757E-18
3.500000E+03	8.429314E-17	4.244228E-18
3.510000E+03	8.963581E-17	4.495346E-18
3.520000E+03	9.530291E-17	4.760473E-18
3.530000E+03	1.013060E-16	5.039978E-18
3.540000E+03	1.076519E-16	5.333986E-18
3.550000E+03	1.143480E-16	5.642640E-18
3.560000E+03	1.214002E-16	5.966005E-18
3.570000E+03	1.288112E-16	6.303986E-18
3.580000E+03	1.365814E-16	6.656367E-18
3.590000E+03	1.447069E-16	7.022726E-18
3.600000E+03	1.531874E-16	7.402813E-18
3.610000E+03	1.620137E-16	7.795955E-18
3.620000E+03	1.711786E-16	8.201573E-18
3.630000E+03	1.806718E-16	8.618951E-18
3.640000E+03	1.904805E-16	9.047257E-18
3.650000E+03	2.005887E-16	9.485530E-18
3.660000E+03	2.109797E-16	9.932767E-18
3.670000E+03	2.216359E-16	1.038796E-17
3.680000E+03	2.325350E-16	1.084987E-17
3.690000E+03	2.436504E-16	1.131711E-17
3.700000E+03	2.549609E-16	1.178852E-17
3.710000E+03	2.664348E-16	1.226253E-17
3.720000E+03	2.780444E-16	1.273772E-17
3.730000E+03	2.897582E-16	1.321257E-17
3.740000E+03	3.015450E-16	1.368557E-17
3.750000E+03	3.133669E-16	1.415495E-17
3.760000E+03	3.251898E-16	1.461913E-17
3.770000E+03	3.369813E-16	1.507665E-17
3.780000E+03	3.486993E-16	1.552564E-17
3.790000E+03	3.603068E-16	1.596449E-17
3.800000E+03	3.717663E-16	1.639162E-17
3.810000E+03	3.830403E-16	1.680544E-17
3.820000E+03	3.940877E-16	1.720429E-17
3.830000E+03	4.048711E-16	1.758666E-17
3.840000E+03	4.153571E-16	1.795128E-17
3.850000E+03	4.255027E-16	1.829649E-17
3.860000E+03	4.352767E-16	1.862117E-17
3.870000E+03	4.446455E-16	1.892412E-17
3.880000E+03	4.535738E-16	1.920411E-17
3.890000E+03	4.620316E-16	1.946016E-17
3.900000E+03	4.699912E-16	1.969142E-17
3.910000E+03	4.774236E-16	1.989700E-17
3.920000E+03	4.843101E-16	2.007649E-17
3.930000E+03	4.906234E-16	2.022912E-17
3.940000E+03	4.963509E-16	2.035475E-17
3.950000E+03	5.014797E-16	2.045325E-17
3.960000E+03	5.059922E-16	2.052430E-17
3.970000E+03	5.098825E-16	2.056810E-17
3.980000E+03	5.131487E-16	2.058498E-17
3.990000E+03	5.157924E-16	2.057543E-17
4.000000E+03	5.178113E-16	2.053979E-17
4.010000E+03	5.192146E-16	2.047884E-17
4.020000E+03	5.200163E-16	2.039356E-17
4.030000E+03	5.202297E-16	2.028488E-17
4.040000E+03	5.198736E-16	2.015394E-17
4.050000E+03	5.189749E-16	2.000216E-17
4.060000E+03	5.175591E-16	1.983090E-17
4.070000E+03	5.156515E-16	1.964149E-17
4.080000E+03	5.132915E-16	1.943576E-17
4.090000E+03	5.105089E-16	1.921514E-17
4.100000E+03	5.073429E-16	1.898141E-17
4.110000E+03	5.038301E-16	1.873619E-17
4.120000E+03	5.000044E-16	1.848100E-17
4.130000E+03	4.959124E-16	1.821774E-17
4.140000E+03	4.915891E-16	1.794791E-17
4.150000E+03	4.870736E-16	1.767308E-17
4.160000E+03	4.824085E-16	1.739494E-17
4.170000E+03	4.776321E-16	1.711497E-17
4.180000E+03	4.727825E-16	1.683460E-17
4.190000E+03	4.679012E-16	1.655537E-17
4.200000E+03	4.630215E-16	1.627849E-17
4.210000E+03	4.581865E-16	1.600545E-17
4.220000E+03	4.534268E-16	1.573732E-17
4.230000E+03	4.487822E-16	1.547541E-17
4.240000E+03	4.442795E-16	1.522058E-17
4.250000E+03	4.399574E-16	1.497406E-17
4.260000E+03	4.358414E-16	1.473660E-17
4.270000E+03	4.319587E-16	1.450898E-17
4.280000E+03	4.283343E-16	1.429189E-17
4.290000E+03	4.249977E-16	1.408615E-17
4.300000E+03	4.219732E-16	1.389237E-17
4.310000E+03	4.192796E-16	1.371097E-17
4.320000E+03	4.169403E-16	1.354251E-17
4.330000E+03	4.149740E-16	1.338735E-17
4.340000E+03	4.134012E-16	1.324593E-17
4.350000E+03	4.122402E-16	1.311859E-17
4.360000E+03	4.115018E-16	1.300540E-17
4.370000E+03	4.111912E-16	1.290626E-17
4.380000E+03	4.112987E-16	1.282062E-17
4.390000E+03	4.118261E-16	1.274828E-17
4.400000E+03	4.127600E-16	1.268856E-17
4.410000E+03	4.140980E-16	1.264115E-17
4.420000E+03	4.158256E-16	1.260539E-17
4.430000E+03	4.179320E-16	1.258071E-17
4.440000E+03	4.204039E-16	1.256650E-17
4.450000E+03	4.232247E-16	1.256208E-17
4.460000E+03	4.263740E-16	1.256664E-17
4.470000E+03	4.298318E-16	1.257943E-17
4.480000E+03	4.335775E-16	1.259969E-17
4.490000E+03	4.375714E-16	1.262614E-17
4.500000E+03	4.417874E-16	1.265791E-17
4.510000E+03	4.461876E-16	1.269383E-17
4.520000E+03	4.507223E-16	1.273243E-17
4.530000E+03	4.553447E-16	1.277235E-17
4.540000E+03	4.600003E-16	1.281207E-17
4.550000E+03	4.646348E-16	1.285012E-17
4.560000E+03	4.691832E-16	1.288478E-17
4.570000E+03	4.735910E-16	1.291465E-17
4.580000E+03	4.777904E-16	1.293804E-17
4.590000E+03	4.817258E-16	1.295362E-17
4.600000E+03	4.853268E-16	1.295971E-17
4.610000E+03	4.885456E-16	1.295527E-17
4.620000E+03	4.913171E-16	1.293887E-17
4.630000E+03	4.935929E-16	1.290951E-17
4.640000E+03	4.953289E-16	1.286638E-17
4.650000E+03	4.964827E-16	1.280870E-17
4.660000E+03	4.970147E-16	1.273582E-17
4.670000E+03	4.969054E-16	1.264758E-17
4.680000E+03	4.961262E-16	1.254364E-17
4.690000E+03	4.946785E-16	1.242440E-17
4.700000E+03	4.925476E-16	1.228984E-17
4.710000E+03	4.897493E-16	1.214070E-17
4.720000E+03	4.863029E-16	1.197779E-17
4.730000E+03	4.822461E-16	1.180236E-17
4.740000E+03	4.776268E-16	1.161584E-17
4.750000E+03	4.725022E-16	1.141987E-17
4.760000E+03	4.669297E-16	1.121605E-17
4.770000E+03	4.609692E-16	1.100597E-17
4.780000E+03	4.546855E-16	1.079133E-17
4.790000E+03	4.481409E-16	1.057370E-17
4.800000E+03	4.413969E-16	1.035460E-17
4.810000E+03	4.345137E-16	1.013546E-17
4.820000E+03	4.275498E-16	9.917673E-18
4.830000E+03	4.205658E-16	9.702609E-18
4.840000E+03	4.136120E-16	9.491381E-18
4.850000E+03	4.067441E-16	9.285159E-18
4.860000E+03	4.000083E-16	9.084863E-18
4.870000E+03	3.934563E-16	8.891512E-18
4.880000E+03	3.871330E-16	8.705957E-18
4.890000E+03	3.810759E-16	8.528873E-18
4.900000E+03	3.753257E-16	8.360988E-18
4.910000E+03	3.699099E-16	8.202735E-18
4.920000E+03	3.648610E-16	8.054648E-18
4.930000E+03	3.601917E-16	7.916824E-18
4.940000E+03	3.559166E-16	7.789401E-18
4.950000E+03	3.520414E-16	7.672326E-18
4.960000E+03	3.485684E-16	7.565479E-18
4.970000E+03	3.454962E-16	7.468665E-18
4.980000E+03	3.428181E-16	7.381578E-18
4.990000E+03	3.405339E-16	7.304063E-18
5.000000E+03	3.386263E-16	7.235609E-18
5.010000E+03	3.370861E-16	7.175879E-18
5.020000E+03	3.358998E-16	7.124461E-18
5.030000E+03	3.350531E-16	7.080932E-18
5.040000E+03	3.345318E-16	7.044878E-18
5.050000E+03	3.343193E-16	7.015840E-18
5.060000E+03	3.344070E-16	6.993540E-18
5.070000E+03	3.347845E-16	6.977666E-18
5.080000E+03	3.354403E-16	6.967884E-18
5.090000E+03	3.363740E-16	6.964101E-18
5.100000E+03	3.375809E-16	6.966133E-18
5.110000E+03	3.390624E-16	6.973923E-18
5.120000E+03	3.408130E-16	6.987280E-18
5.130000E+03	3.428327E-16	7.006124E-18
5.140000E+03	3.451113E-16	7.030165E-18
5.150000E+03	3.476505E-16	7.059365E-18
5.160000E+03	3.504382E-16	7.093398E-18
5.170000E+03	3.534736E-16	7.132180E-18
5.180000E+03	3.567412E-16	7.175320E-18
5.190000E+03	3.602334E-16	7.222600E-18
5.200000E+03	3.639346E-16	7.273637E-18
5.210000E+03	3.678340E-16	7.328147E-18
5.220000E+03	3.719158E-16	7.385755E-18
5.230000E+03	3.761554E-16	7.445912E-18
5.240000E+03	3.805408E-16	7.508321E-18
5.250000E+03	3.850479E-16	7.572451E-18
5.260000E+03	3.896514E-16	7.637757E-18
5.270000E+03	3.943330E-16	7.703829E-18
5.280000E+03	3.990702E-16	7.770187E-18
5.290000E+03	4.038400E-16	7.836343E-18
5.300000E+03	4.086111E-16	7.901656E-18
5.310000E+03	4.133675E-16	7.965785E-18
5.320000E+03	4.180808E-16	8.028157E-18
5.330000E+03	4.227239E-16	8.088234E-18
5.340000E+03	4.272649E-16	8.145390E-18
5.350000E+03	4.316792E-16	8.199150E-18
5.360000E+03	4.359322E-16	8.248857E-18
5.370000E+03	4.399965E-16	8.293999E-18
5.380000E+03	4.438319E-16	8.333835E-18
5.390000E+03	4.474122E-16	8.367894E-18
5.400000E+03	4.507050E-16	8.395606E-18
5.410000E+03	4.536725E-16	8.416305E-18
5.420000E+03	4.562814E-16	8.429428E-18
5.430000E+03	4.584998E-16	8.434452E-18
5.440000E+03	4.602747E-16	8.430473E-18
5.450000E+03	4.615722E-16	8.416965E-18
5.460000E+03	4.623498E-16	8.393258E-18
5.470000E+03	4.625680E-16	8.358752E-18
5.480000E+03	4.621993E-16	8.313084E-18
5.490000E+03	4.612309E-16	8.256168E-18
5.500000E+03	4.596377E-16	8.187713E-18
5.510000E+03	4.574157E-16	8.107807E-18
5.520000E+03	4.545724E-16	8.016759E-18
5.530000E+03	4.511093E-16	7.914768E-18
5.540000E+03	4.470505E-16	7.802441E-18
5.550000E+03	4.424236E-16	7.680431E-18
5.560000E+03	4.372634E-16	7.549525E-18
5.570000E+03	4.316126E-16	7.410624E-18
5.580000E+03	4.255250E-16	7.264817E-18
5.590000E+03	4.190627E-16	7.113313E-18
5.600000E+03	4.123041E-16	6.957578E-18
5.610000E+03	4.053207E-16	6.798931E-18
5.620000E+03	3.982088E-16	6.639080E-18
5.630000E+03	3.910635E-16	6.479675E-18
5.640000E+03	3.839922E-16	6.322533E-18
5.650000E+03	3.771078E-16	6.169512E-18
5.660000E+03	3.705067E-16	6.022157E-18
5.670000E+03	3.642924E-16	5.882085E-18
5.680000E+03	3.585529E-16	5.750617E-18
5.690000E+03	3.533727E-16	5.628977E-18
5.700000E+03	3.488319E-16	5.518284E-18
5.710000E+03	3.449915E-16	5.419316E-18
5.720000E+03	3.418859E-16	5.332405E-18
5.730000E+03	3.395406E-16	5.257730E-18
5.740000E+03	3.379801E-16	5.195440E-18
5.750000E+03	3.372163E-16	5.145477E-18
5.760000E+03	3.372653E-16	5.107845E-18
5.770000E+03	3.381358E-16	5.082422E-18
5.780000E+03	3.398271E-16	5.068944E-18
5.790000E+03	3.423420E-16	5.067204E-18
5.800000E+03	3.456745E-16	5.076861E-18
5.810000E+03	3.498095E-16	5.097448E-18
5.820000E+03	3.547251E-16	5.128412E-18
5.830000E+03	3.603889E-16	5.169060E-18
5.840000E+03	3.667478E-16	5.218429E-18
5.850000E+03	3.737394E-16	5.275452E-18
5.860000E+03	3.812813E-16	5.338822E-18
5.870000E+03	3.892845E-16	5.407179E-18
5.880000E+03	3.976427E-16	5.478977E-18
5.890000E+03	4.062391E-16	5.552585E-18
5.900000E+03	4.149515E-16	5.626357E-18
5.910000E+03	4.236338E-16	5.698385E-18
5.920000E+03	4.321560E-16	5.767053E-18
5.930000E+03	4.403644E-16	5.830491E-18
5.940000E+03	4.481014E-16	5.886845E-18
5.950000E+03	4.552354E-16	5.934672E-18
5.960000E+03	4.616286E-16	5.972500E-18
5.970000E+03	4.671710E-16	5.999269E-18
5.980000E+03	4.717641E-16	6.014101E-18
5.990000E+03	4.753211E-16	6.016296E-18
6.000000E+03	4.777705E-16	6.005364E-18
6.010000E+03	4.790619E-16	5.981091E-18
6.020000E+03	4.791917E-16	5.943836E-18
6.030000E+03	4.781615E-16	5.894010E-18
6.040000E+03	4.760081E-16	5.832421E-18
6.050000E+03	4.728023E-16	5.760256E-18
6.060000E+03	4.686268E-16	5.678799E-18
6.070000E+03	4.635786E-16	5.589455E-18
6.080000E+03	4.577617E-16	5.493660E-18
6.090000E+03	4.512706E-16	5.392682E-18
6.100000E+03	4.442235E-16	5.288029E-18
6.110000E+03	4.367152E-16	5.180878E-18
6.120000E+03	4.288598E-16	5.072598E-18
6.130000E+03	4.207511E-16	4.964279E-18
6.140000E+03	4.124865E-16	4.857023E-18
6.150000E+03	4.041577E-16	4.751840E-18
6.160000E+03	3.958636E-16	4.649761E-18
6.170000E+03	3.876826E-16	4.551500E-18
6.180000E+03	3.796920E-16	4.457750E-18
6.190000E+03	3.719423E-16	4.368898E-18
6.200000E+03	3.644876E-16	4.285385E-18
6.210000E+03	3.573666E-16	4.207484E-18
6.220000E+03	3.505988E-16	4.135258E-18
6.230000E+03	3.441875E-16	4.068594E-18
6.240000E+03	3.381462E-16	4.007517E-18
6.250000E+03	3.324641E-16	3.951774E-18
6.260000E+03	3.271358E-16	3.901194E-18
6.270000E+03	3.221583E-16	3.855645E-18
6.280000E+03	3.175118E-16	3.814805E-18
6.290000E+03	3.131935E-16	3.778567E-18
6.300000E+03	3.091812E-16	3.746596E-18
6.310000E+03	3.054645E-16	3.718712E-18
6.320000E+03	3.020247E-16	3.694634E-18
6.330000E+03	2.988462E-16	3.674131E-18
6.340000E+03	2.959133E-16	3.656971E-18
6.350000E+03	2.932109E-16	3.642930E-18
6.360000E+03	2.907234E-16	3.631788E-18
6.370000E+03	2.884317E-16	3.623276E-18
6.380000E+03	2.863214E-16	3.617189E-18
6.390000E+03	2.843747E-16	3.613276E-18
6.400000E+03	2.825830E-16	3.611409E-18
6.410000E+03	2.809354E-16	3.611425E-18
6.420000E+03	2.794219E-16	3.613178E-18
6.430000E+03	2.780307E-16	3.616497E-18
6.440000E+03	2.767612E-16	3.621358E-18
6.450000E+03	2.756151E-16	3.627770E-18
6.460000E+03	2.745861E-16	3.635640E-18
6.470000E+03	2.736920E-16	3.645193E-18
6.480000E+03	2.729421E-16	3.656553E-18
6.490000E+03	2.723462E-16	3.669852E-18
6.500000E+03	2.719215E-16	3.685328E-18
6.510000E+03	2.716811E-16	3.703172E-18
6.520000E+03	2.716289E-16	3.723452E-18
6.530000E+03	2.717790E-16	3.746380E-18
6.540000E+03	2.721399E-16	3.772095E-18
6.550000E+03	2.727197E-16	3.800736E-18
6.560000E+03	2.735160E-16	3.832290E-18
6.570000E+03	2.745419E-16	3.866973E-18
6.580000E+03	2.757898E-16	3.904704E-18
6.590000E+03	2.772584E-16	3.945491E-18
6.600000E+03	2.789338E-16	3.989160E-18
6.610000E+03	2.808033E-16	4.035553E-18
6.620000E+03	2.828552E-16	4.084518E-18
6.630000E+03	2.850658E-16	4.135729E-18
6.640000E+03	2.874073E-16	4.188791E-18
6.650000E+03	2.898604E-16	4.243428E-18
6.660000E+03	2.923833E-16	4.299022E-18
6.670000E+03	2.949403E-16	4.355039E-18
6.680000E+03	2.975019E-16	4.411020E-18
6.690000E+03	3.000169E-16	4.466177E-18
6.700000E+03	3.024491E-16	4.519929E-18
6.710000E+03	3.047530E-16	4.571560E-18
6.720000E+03	3.068954E-16	4.620517E-18
6.730000E+03	3.088339E-16	4.666113E-18
6.740000E+03	3.105402E-16	4.707861E-18
6.750000E+03	3.119781E-16	4.745156E-18
6.760000E+03	3.131260E-16	4.777612E-18
6.770000E+03	3.139567E-16	4.804751E-18
6.780000E+03	3.144580E-16	4.826330E-18
6.790000E+03	3.146191E-16	4.842129E-18
6.800000E+03	3.144319E-16	4.851971E-18
6.810000E+03	3.139058E-16	4.855952E-18
6.820000E+03	3.130464E-16	4.854119E-18
6.830000E+03	3.118801E-16	4.846845E-18
6.840000E+03	3.104340E-16	4.834523E-18
6.850000E+03	3.087345E-16	4.817542E-18
6.860000E+03	3.068242E-16	4.796555E-18
6.870000E+03	3.047434E-16	4.772182E-18
6.880000E+03	3.025349E-16	4.745092E-18
6.890000E+03	3.002375E-16	4.715901E-18
6.900000E+03	2.979077E-16	4.685503E-18
6.910000E+03	2.955790E-16	4.654441E-18
6.920000E+03	2.932996E-16	4.623490E-18
6.930000E+03	2.911100E-16	4.593308E-18
6.940000E+03	2.890427E-16	4.564428E-18
6.950000E+03	2.871146E-16	4.537139E-18
6.960000E+03	2.853349E-16	4.511608E-18
6.970000E+03	2.837091E-16	4.487939E-18
6.980000E+03	2.822426E-16	4.466242E-18
6.990000E+03	2.809219E-16	4.446315E-18
7.000000E+03	2.797525E-16	4.428266E-18
7.010000E+03	2.787219E-16	4.411912E-18
7.020000E+03	2.778208E-16	4.397118E-18
7.030000E+03	2.770387E-16	4.383736E-18
7.040000E+03	2.763683E-16	4.371660E-18
7.050000E+03	2.757903E-16	4.360600E-18
7.060000E+03	2.752956E-16	4.350423E-18
7.070000E+03	2.748629E-16	4.340806E-18
7.080000E+03	2.744811E-16	4.331589E-18
7.090000E+03	2.741287E-16	4.322448E-18
7.100000E+03	2.737952E-16	4.313230E-18
7.110000E+03	2.734654E-16	4.303712E-18
7.120000E+03	2.731255E-16	4.293697E-18
7.130000E+03	2.727648E-16	4.283034E-18
7.140000E+03	2.723686E-16	4.271514E-18
7.150000E+03	2.719399E-16	4.259204E-18
7.160000E+03	2.714661E-16	4.245932E-18
7.170000E+03	2.709415E-16	4.231631E-18
7.180000E+03	2.703611E-16	4.216251E-18
7.190000E+03	2.697275E-16	4.199857E-18
7.200000E+03	2.690387E-16	4.182445E-18
7.210000E+03	2.682878E-16	4.163940E-18
7.220000E+03	2.674806E-16	4.144458E-18
7.230000E+03	2.666118E-16	4.123948E-18
7.240000E+03	2.656943E-16	4.102639E-18
7.250000E+03	2.647185E-16	4.080416E-18
7.260000E+03	2.636981E-16	4.057516E-18
7.270000E+03	2.626239E-16	4.033833E-18
7.280000E+03	2.615080E-16	4.009582E-18
7.290000E+03	2.603454E-16	3.984717E-18
7.300000E+03	2.591366E-16	3.959278E-18
7.310000E+03	2.578823E-16	3.933307E-18
7.320000E+03	2.565831E-16	3.906841E-18
7.330000E+03	2.552403E-16	3.879933E-18
7.340000E+03	2.538499E-16	3.852552E-18
7.350000E+03	2.524146E-16	3.824769E-18
7.360000E+03	2.509376E-16	3.796663E-18
7.370000E+03	2.494237E-16	3.768332E-18
7.380000E+03	2.478615E-16	3.739634E-18
7.390000E+03	2.462694E-16	3.710872E-18
7.400000E+03	2.446398E-16	3.681959E-18
7.410000E+03	2.429835E-16	3.653080E-18
7.420000E+03	2.413055E-16	3.624335E-18
7.430000E+03	2.396172E-16	3.595914E-18
7.440000E+03	2.379237E-16	3.567916E-18
7.450000E+03	2.362568E-16	3.540835E-18
7.460000E+03	2.346185E-16	3.514720E-18
7.470000E+03	2.330202E-16	3.489755E-18
7.480000E+03	2.314758E-16	3.466167E-18
7.490000E+03	2.299829E-16	3.443931E-18
7.500000E+03	2.285420E-16	3.423070E-18
7.510000E+03	2.271456E-16	3.403487E-18
7.520000E+03	2.257840E-16	3.385045E-18
7.530000E+03	2.244565E-16	3.367724E-18
7.540000E+03	2.231384E-16	3.351118E-18
7.550000E+03	2.218239E-16	3.335104E-18
7.560000E+03	2.204891E-16	3.319289E-18
7.570000E+03	2.191094E-16	3.303262E-18
7.580000E+03	2.176750E-16	3.286836E-18
7.590000E+03	2.161602E-16	3.269586E-18
7.600000E+03	2.145458E-16	3.251173E-18
7.610000E+03	2.128095E-16	3.231216E-18
7.620000E+03	2.109481E-16	3.209620E-18
7.630000E+03	2.089413E-16	3.186027E-18
7.640000E+03	2.067854E-16	3.160326E-18
7.650000E+03	2.044879E-16	3.132585E-18
7.660000E+03	2.020578E-16	3.102892E-18
7.670000E+03	1.995036E-16	3.071325E-18
7.680000E+03	1.968480E-16	3.038190E-18
7.690000E+03	1.941051E-16	3.003660E-18
7.700000E+03	1.912950E-16	2.968004E-18
7.710000E+03	1.884422E-16	2.931569E-18
7.720000E+03	1.855610E-16	2.894544E-18
7.730000E+03	1.826739E-16	2.857252E-18
7.740000E+03	1.797924E-16	2.819846E-18
7.750000E+03	1.769361E-16	2.782615E-18
7.760000E+03	1.741180E-16	2.745745E-18
