#wls	flux	fluxerr
1.600000E+03	7.592597E-19	5.759585E-20
1.640000E+03	7.496178E-19	5.665613E-20
1.680000E+03	7.415901E-19	5.583839E-20
1.720000E+03	7.352526E-19	5.514703E-20
1.760000E+03	7.305983E-19	5.458007E-20
1.800000E+03	7.277185E-19	5.414281E-20
1.840000E+03	7.267115E-19	5.384086E-20
1.880000E+03	7.277663E-19	5.368636E-20
1.920000E+03	7.308419E-19	5.367418E-20
1.960000E+03	7.362362E-19	5.382396E-20
2.000000E+03	7.440277E-19	5.413886E-20
2.040000E+03	7.545507E-19	5.464036E-20
2.080000E+03	7.680887E-19	5.534566E-20
2.120000E+03	7.850345E-19	5.627925E-20
2.160000E+03	8.059709E-19	5.747845E-20
2.200000E+03	8.313886E-19	5.897295E-20
2.240000E+03	8.622186E-19	6.082254E-20
2.280000E+03	8.991934E-19	6.307134E-20
2.320000E+03	9.433899E-19	6.578601E-20
2.360000E+03	9.957471E-19	6.902150E-20
2.400000E+03	1.057161E-18	7.282783E-20
2.440000E+03	1.128898E-18	7.727826E-20
2.480000E+03	1.212487E-18	8.246122E-20
2.520000E+03	1.309865E-18	8.848926E-20
2.560000E+03	1.423288E-18	9.549215E-20
2.600000E+03	1.555503E-18	1.036271E-19
2.640000E+03	1.710132E-18	1.131031E-19
2.680000E+03	1.891209E-18	1.241478E-19
2.720000E+03	2.103988E-18	1.370590E-19
2.760000E+03	2.354826E-18	1.521930E-19
2.800000E+03	2.651235E-18	1.699654E-19
2.840000E+03	3.003347E-18	1.909397E-19
2.880000E+03	3.423398E-18	2.157872E-19
2.920000E+03	3.927500E-18	2.453909E-19
2.960000E+03	4.537002E-18	2.809175E-19
3.000000E+03	5.278681E-18	3.238123E-19
3.010000E+03	5.488782E-18	3.359047E-19
3.020000E+03	5.709796E-18	3.485986E-19
3.030000E+03	5.942695E-18	3.619482E-19
3.040000E+03	6.187970E-18	3.759775E-19
3.050000E+03	6.446516E-18	3.907349E-19
3.060000E+03	6.719093E-18	4.062599E-19
3.070000E+03	7.006713E-18	4.226069E-19
3.080000E+03	7.310460E-18	4.398336E-19
3.090000E+03	7.631076E-18	4.579769E-19
3.100000E+03	7.969772E-18	4.771010E-19
3.110000E+03	8.327851E-18	4.972748E-19
3.120000E+03	8.706479E-18	5.185583E-19
3.130000E+03	9.106901E-18	5.410153E-19
3.140000E+03	9.530934E-18	5.647427E-19
3.150000E+03	9.979780E-18	5.897998E-19
3.160000E+03	1.045497E-17	6.162645E-19
3.170000E+03	1.095895E-17	6.442674E-19
3.180000E+03	1.149298E-17	6.738681E-19
3.190000E+03	1.205953E-17	7.051957E-19
3.200000E+03	1.266039E-17	7.383384E-19
3.210000E+03	1.329835E-17	7.734409E-19
3.220000E+03	1.397581E-17	8.106240E-19
3.230000E+03	1.469537E-17	8.500168E-19
3.240000E+03	1.546009E-17	8.917759E-19
3.250000E+03	1.627332E-17	9.360694E-19
3.260000E+03	1.713793E-17	9.830380E-19
3.270000E+03	1.805772E-17	1.032872E-18
3.280000E+03	1.903641E-17	1.085755E-18
3.290000E+03	2.007836E-17	1.141905E-18
3.300000E+03	2.118789E-17	1.201532E-18
3.310000E+03	2.236961E-17	1.264864E-18
3.320000E+03	2.362891E-17	1.332165E-18
3.330000E+03	2.497023E-17	1.403645E-18
3.340000E+03	2.640063E-17	1.479655E-18
3.350000E+03	2.792529E-17	1.560438E-18
3.360000E+03	2.955073E-17	1.646308E-18
3.370000E+03	3.128440E-17	1.737623E-18
3.380000E+03	3.313322E-17	1.834710E-18
3.390000E+03	3.510449E-17	1.937908E-18
3.400000E+03	3.720650E-17	2.047610E-18
3.410000E+03	3.944742E-17	2.164192E-18
3.420000E+03	4.183711E-17	2.288117E-18
3.430000E+03	4.438331E-17	2.419728E-18
3.440000E+03	4.709602E-17	2.559482E-18
3.450000E+03	4.998494E-17	2.707812E-18
3.460000E+03	5.305930E-17	2.865121E-18
3.470000E+03	5.632922E-17	3.031851E-18
3.480000E+03	5.980497E-17	3.208444E-18
3.490000E+03	6.349606E-17	3.395295E-18
3.500000E+03	6.741093E-17	3.592733E-18
3.510000E+03	7.155950E-17	3.801159E-18
3.520000E+03	7.595047E-17	4.020904E-18
3.530000E+03	8.059102E-17	4.252207E-18
3.540000E+03	8.548859E-17	4.495320E-18
3.550000E+03	9.064982E-17	4.750444E-18
3.560000E+03	9.608040E-17	5.017726E-18
3.570000E+03	1.017839E-16	5.297192E-18
3.580000E+03	1.077634E-16	5.588854E-18
3.590000E+03	1.140196E-16	5.892579E-18
3.600000E+03	1.205553E-16	6.208359E-18
3.610000E+03	1.273681E-16	6.535897E-18
3.620000E+03	1.344550E-16	6.874880E-18
3.630000E+03	1.418093E-16	7.224810E-18
3.640000E+03	1.494238E-16	7.585156E-18
3.650000E+03	1.572893E-16	7.955298E-18
3.660000E+03	1.653942E-16	8.334498E-18
3.670000E+03	1.737263E-16	8.722001E-18
3.680000E+03	1.822696E-16	9.116867E-18
3.690000E+03	1.910094E-16	9.518234E-18
3.700000E+03	1.999255E-16	9.924971E-18
3.710000E+03	2.090010E-16	1.033614E-17
3.720000E+03	2.182136E-16	1.075052E-17
3.730000E+03	2.275389E-16	1.116684E-17
3.740000E+03	2.369549E-16	1.158395E-17
3.750000E+03	2.464362E-16	1.200054E-17
3.760000E+03	2.559557E-16	1.241524E-17
3.770000E+03	2.654852E-16	1.282667E-17
3.780000E+03	2.750002E-16	1.323362E-17
3.790000E+03	2.844682E-16	1.363454E-17
3.800000E+03	2.938607E-16	1.402807E-17
3.810000E+03	3.031516E-16	1.441303E-17
3.820000E+03	3.123036E-16	1.478767E-17
3.830000E+03	3.212933E-16	1.515098E-17
3.840000E+03	3.300891E-16	1.550155E-17
3.850000E+03	3.386593E-16	1.583801E-17
3.860000E+03	3.469794E-16	1.615934E-17
3.870000E+03	3.550194E-16	1.646429E-17
3.880000E+03	3.627535E-16	1.675182E-17
3.890000E+03	3.701539E-16	1.702083E-17
3.900000E+03	3.772012E-16	1.727063E-17
3.910000E+03	3.838675E-16	1.750015E-17
3.920000E+03	3.901371E-16	1.770889E-17
3.930000E+03	3.959897E-16	1.789618E-17
3.940000E+03	4.014105E-16	1.806159E-17
3.950000E+03	4.063876E-16	1.820484E-17
3.960000E+03	4.109045E-16	1.832547E-17
3.970000E+03	4.149545E-16	1.842344E-17
3.980000E+03	4.185371E-16	1.849903E-17
3.990000E+03	4.216410E-16	1.855201E-17
4.000000E+03	4.242752E-16	1.858307E-17
4.010000E+03	4.264343E-16	1.859226E-17
4.020000E+03	4.281301E-16	1.858038E-17
4.030000E+03	4.293705E-16	1.854805E-17
4.040000E+03	4.301667E-16	1.849603E-17
4.050000E+03	4.305327E-16	1.842520E-17
4.060000E+03	4.304888E-16	1.833669E-17
4.070000E+03	4.300509E-16	1.823142E-17
4.080000E+03	4.292475E-16	1.811084E-17
4.090000E+03	4.280984E-16	1.797601E-17
4.100000E+03	4.266284E-16	1.782819E-17
4.110000E+03	4.248640E-16	1.766868E-17
4.120000E+03	4.228362E-16	1.749894E-17
4.130000E+03	4.205733E-16	1.732031E-17
4.140000E+03	4.181007E-16	1.713398E-17
4.150000E+03	4.154516E-16	1.694143E-17
4.160000E+03	4.126554E-16	1.674399E-17
4.170000E+03	4.097387E-16	1.654280E-17
4.180000E+03	4.067379E-16	1.633944E-17
4.190000E+03	4.036761E-16	1.613485E-17
4.200000E+03	4.005856E-16	1.593040E-17
4.210000E+03	3.974983E-16	1.572734E-17
4.220000E+03	3.944384E-16	1.552666E-17
4.230000E+03	3.914324E-16	1.532936E-17
4.240000E+03	3.885086E-16	1.513654E-17
4.250000E+03	3.856873E-16	1.494893E-17
4.260000E+03	3.829968E-16	1.476758E-17
4.270000E+03	3.804575E-16	1.459318E-17
4.280000E+03	3.780845E-16	1.442624E-17
4.290000E+03	3.759044E-16	1.426767E-17
4.300000E+03	3.739288E-16	1.411780E-17
4.310000E+03	3.721746E-16	1.397715E-17
4.320000E+03	3.706597E-16	1.384626E-17
4.330000E+03	3.693973E-16	1.372548E-17
4.340000E+03	3.683991E-16	1.361512E-17
4.350000E+03	3.676783E-16	1.351549E-17
4.360000E+03	3.672370E-16	1.342653E-17
4.370000E+03	3.670822E-16	1.334833E-17
4.380000E+03	3.672130E-16	1.328071E-17
4.390000E+03	3.676297E-16	1.322350E-17
4.400000E+03	3.683217E-16	1.317618E-17
4.410000E+03	3.692891E-16	1.313859E-17
4.420000E+03	3.705234E-16	1.311030E-17
4.430000E+03	3.720177E-16	1.309090E-17
4.440000E+03	3.737591E-16	1.307983E-17
4.450000E+03	3.757364E-16	1.307655E-17
4.460000E+03	3.779351E-16	1.308044E-17
4.470000E+03	3.803417E-16	1.309094E-17
4.480000E+03	3.829335E-16	1.310716E-17
4.490000E+03	3.856914E-16	1.312836E-17
4.500000E+03	3.885928E-16	1.315370E-17
4.510000E+03	3.916055E-16	1.318205E-17
4.520000E+03	3.947037E-16	1.321249E-17
4.530000E+03	3.978487E-16	1.324371E-17
4.540000E+03	4.010090E-16	1.327468E-17
4.550000E+03	4.041410E-16	1.330395E-17
4.560000E+03	4.072098E-16	1.333045E-17
4.570000E+03	4.101723E-16	1.335281E-17
4.580000E+03	4.129849E-16	1.336972E-17
4.590000E+03	4.156116E-16	1.338011E-17
4.600000E+03	4.180094E-16	1.338275E-17
4.610000E+03	4.201406E-16	1.337658E-17
4.620000E+03	4.219693E-16	1.336063E-17
4.630000E+03	4.234545E-16	1.333378E-17
4.640000E+03	4.245728E-16	1.329551E-17
4.650000E+03	4.252936E-16	1.324508E-17
4.660000E+03	4.255935E-16	1.318199E-17
4.670000E+03	4.254507E-16	1.310579E-17
4.680000E+03	4.248484E-16	1.301623E-17
4.690000E+03	4.237759E-16	1.291320E-17
4.700000E+03	4.222330E-16	1.279697E-17
4.710000E+03	4.202196E-16	1.266775E-17
4.720000E+03	4.177513E-16	1.252626E-17
4.730000E+03	4.148411E-16	1.237311E-17
4.740000E+03	4.115163E-16	1.220932E-17
4.750000E+03	4.078108E-16	1.203608E-17
4.760000E+03	4.037592E-16	1.185459E-17
4.770000E+03	3.994030E-16	1.166620E-17
4.780000E+03	3.947827E-16	1.147224E-17
4.790000E+03	3.899443E-16	1.127412E-17
4.800000E+03	3.849309E-16	1.107317E-17
4.810000E+03	3.797930E-16	1.087091E-17
4.820000E+03	3.745706E-16	1.066851E-17
4.830000E+03	3.693166E-16	1.046747E-17
4.840000E+03	3.640723E-16	1.026897E-17
4.850000E+03	3.588810E-16	1.007417E-17
4.860000E+03	3.537831E-16	9.884139E-18
4.870000E+03	3.488145E-16	9.699778E-18
4.880000E+03	3.440072E-16	9.521870E-18
4.890000E+03	3.393893E-16	9.351086E-18
4.900000E+03	3.349897E-16	9.188098E-18
4.910000E+03	3.308276E-16	9.033304E-18
4.920000E+03	3.269245E-16	8.887161E-18
4.930000E+03	3.232926E-16	8.749865E-18
4.940000E+03	3.199488E-16	8.621739E-18
4.950000E+03	3.168979E-16	8.502770E-18
4.960000E+03	3.141413E-16	8.392868E-18
4.970000E+03	3.116896E-16	8.292180E-18
4.980000E+03	3.095331E-16	8.200317E-18
4.990000E+03	3.076773E-16	8.117296E-18
5.000000E+03	3.061108E-16	8.042697E-18
5.010000E+03	3.048290E-16	7.976280E-18
5.020000E+03	3.038202E-16	7.917628E-18
5.030000E+03	3.030805E-16	7.866529E-18
5.040000E+03	3.025940E-16	7.822471E-18
5.050000E+03	3.023565E-16	7.785245E-18
5.060000E+03	3.023528E-16	7.754371E-18
5.070000E+03	3.025804E-16	7.729695E-18
5.080000E+03	3.030293E-16	7.710877E-18
5.090000E+03	3.036912E-16	7.697627E-18
5.100000E+03	3.045674E-16	7.689897E-18
5.110000E+03	3.056513E-16	7.687447E-18
5.120000E+03	3.069393E-16	7.690111E-18
5.130000E+03	3.084251E-16	7.697662E-18
5.140000E+03	3.101108E-16	7.710078E-18
5.150000E+03	3.119863E-16	7.727045E-18
5.160000E+03	3.140499E-16	7.748452E-18
5.170000E+03	3.162963E-16	7.774102E-18
5.180000E+03	3.187163E-16	7.803708E-18
5.190000E+03	3.213057E-16	7.837111E-18
5.200000E+03	3.240538E-16	7.873986E-18
5.210000E+03	3.269514E-16	7.914058E-18
5.220000E+03	3.299885E-16	7.957032E-18
5.230000E+03	3.331577E-16	8.002679E-18
5.240000E+03	3.364407E-16	8.050515E-18
5.250000E+03	3.398283E-16	8.100277E-18
5.260000E+03	3.433041E-16	8.151537E-18
5.270000E+03	3.468578E-16	8.204013E-18
5.280000E+03	3.504756E-16	8.257346E-18
5.290000E+03	3.541360E-16	8.311004E-18
5.300000E+03	3.578309E-16	8.364772E-18
5.310000E+03	3.615377E-16	8.418105E-18
5.320000E+03	3.652433E-16	8.470685E-18
5.330000E+03	3.689270E-16	8.522018E-18
5.340000E+03	3.725699E-16	8.571668E-18
5.350000E+03	3.761563E-16	8.619273E-18
5.360000E+03	3.796581E-16	8.664199E-18
5.370000E+03	3.830578E-16	8.706057E-18
5.380000E+03	3.863296E-16	8.744287E-18
5.390000E+03	3.894512E-16	8.778406E-18
5.400000E+03	3.923996E-16	8.807933E-18
5.410000E+03	3.951471E-16	8.832285E-18
5.420000E+03	3.976654E-16	8.850880E-18
5.430000E+03	3.999197E-16	8.863001E-18
5.440000E+03	4.018683E-16	8.867796E-18
5.450000E+03	4.034736E-16	8.864521E-18
5.460000E+03	4.047003E-16	8.852491E-18
5.470000E+03	4.055116E-16	8.831012E-18
5.480000E+03	4.058795E-16	8.799591E-18
5.490000E+03	4.057847E-16	8.757941E-18
5.500000E+03	4.052067E-16	8.705749E-18
5.510000E+03	4.041310E-16	8.642852E-18
5.520000E+03	4.025587E-16	8.569420E-18
5.530000E+03	4.004941E-16	8.485694E-18
5.540000E+03	3.979449E-16	8.391983E-18
5.550000E+03	3.949341E-16	8.288926E-18
5.560000E+03	3.914843E-16	8.177137E-18
5.570000E+03	3.876300E-16	8.057473E-18
5.580000E+03	3.834172E-16	7.931020E-18
5.590000E+03	3.788919E-16	7.798841E-18
5.600000E+03	3.741074E-16	7.662133E-18
5.610000E+03	3.691360E-16	7.522466E-18
5.620000E+03	3.640454E-16	7.381277E-18
5.630000E+03	3.589089E-16	7.240096E-18
5.640000E+03	3.538149E-16	7.100727E-18
5.650000E+03	3.488383E-16	6.964663E-18
5.660000E+03	3.440642E-16	6.833573E-18
5.670000E+03	3.395712E-16	6.708962E-18
5.680000E+03	3.354332E-16	6.592206E-18
5.690000E+03	3.317142E-16	6.484459E-18
5.700000E+03	3.284805E-16	6.386896E-18
5.710000E+03	3.257751E-16	6.300207E-18
5.720000E+03	3.236414E-16	6.225078E-18
5.730000E+03	3.221073E-16	6.161878E-18
5.740000E+03	3.212040E-16	6.111028E-18
5.750000E+03	3.209470E-16	6.072640E-18
5.760000E+03	3.213471E-16	6.046731E-18
5.770000E+03	3.224216E-16	6.033438E-18
5.780000E+03	3.241727E-16	6.032616E-18
5.790000E+03	3.266018E-16	6.044097E-18
5.800000E+03	3.297043E-16	6.067614E-18
5.810000E+03	3.334726E-16	6.102847E-18
5.820000E+03	3.378840E-16	6.149207E-18
5.830000E+03	3.429131E-16	6.206071E-18
5.840000E+03	3.485199E-16	6.272572E-18
5.850000E+03	3.546528E-16	6.347648E-18
5.860000E+03	3.612443E-16	6.429987E-18
5.870000E+03	3.682274E-16	6.518318E-18
5.880000E+03	3.755162E-16	6.611067E-18
5.890000E+03	3.830100E-16	6.706438E-18
5.900000E+03	3.906070E-16	6.802664E-18
5.910000E+03	3.981932E-16	6.897807E-18
5.920000E+03	4.056527E-16	6.989943E-18
5.930000E+03	4.128563E-16	7.076967E-18
5.940000E+03	4.196832E-16	7.156964E-18
5.950000E+03	4.260166E-16	7.228130E-18
5.960000E+03	4.317359E-16	7.288639E-18
5.970000E+03	4.367403E-16	7.337033E-18
5.980000E+03	4.409408E-16	7.372077E-18
5.990000E+03	4.442515E-16	7.392614E-18
6.000000E+03	4.466188E-16	7.398040E-18
6.010000E+03	4.479982E-16	7.387901E-18
6.020000E+03	4.483657E-16	7.362088E-18
6.030000E+03	4.477254E-16	7.320935E-18
6.040000E+03	4.461030E-16	7.265116E-18
6.050000E+03	4.435332E-16	7.195428E-18
6.060000E+03	4.400896E-16	7.113265E-18
6.070000E+03	4.358365E-16	7.019842E-18
6.080000E+03	4.308578E-16	6.916652E-18
6.090000E+03	4.252487E-16	6.805336E-18
6.100000E+03	4.190855E-16	6.687198E-18
6.110000E+03	4.124733E-16	6.563966E-18
6.120000E+03	4.055002E-16	6.437074E-18
6.130000E+03	3.982585E-16	6.307989E-18
6.140000E+03	3.908333E-16	6.178044E-18
6.150000E+03	3.833119E-16	6.048584E-18
6.160000E+03	3.757740E-16	5.920809E-18
6.170000E+03	3.683002E-16	5.795875E-18
6.180000E+03	3.609562E-16	5.674681E-18
6.190000E+03	3.538012E-16	5.558028E-18
6.200000E+03	3.468997E-16	5.446800E-18
6.210000E+03	3.402757E-16	5.341255E-18
6.220000E+03	3.339586E-16	5.241737E-18
6.230000E+03	3.279493E-16	5.148156E-18
6.240000E+03	3.222573E-16	5.060564E-18
6.250000E+03	3.168793E-16	4.978819E-18
6.260000E+03	3.118129E-16	4.902805E-18
6.270000E+03	3.070450E-16	4.832242E-18
6.280000E+03	3.025776E-16	4.767096E-18
6.290000E+03	2.983944E-16	4.707051E-18
6.300000E+03	2.944859E-16	4.651906E-18
6.310000E+03	2.908382E-16	4.601392E-18
6.320000E+03	2.874409E-16	4.555302E-18
6.330000E+03	2.842830E-16	4.513426E-18
6.340000E+03	2.813457E-16	4.475430E-18
6.350000E+03	2.786219E-16	4.441172E-18
6.360000E+03	2.760893E-16	4.410268E-18
6.370000E+03	2.737415E-16	4.382591E-18
6.380000E+03	2.715648E-16	4.357897E-18
6.390000E+03	2.695423E-16	4.335895E-18
6.400000E+03	2.676695E-16	4.316493E-18
6.410000E+03	2.659312E-16	4.299427E-18
6.420000E+03	2.643370E-16	4.284837E-18
6.430000E+03	2.628746E-16	4.272507E-18
6.440000E+03	2.615534E-16	4.262578E-18
6.450000E+03	2.603651E-16	4.254907E-18
6.460000E+03	2.593202E-16	4.249656E-18
6.470000E+03	2.584241E-16	4.246907E-18
6.480000E+03	2.576836E-16	4.246770E-18
6.490000E+03	2.571074E-16	4.249388E-18
6.500000E+03	2.567039E-16	4.254901E-18
6.510000E+03	2.564775E-16	4.263389E-18
6.520000E+03	2.564436E-16	4.275111E-18
6.530000E+03	2.566005E-16	4.290050E-18
6.540000E+03	2.569574E-16	4.308372E-18
6.550000E+03	2.575142E-16	4.330084E-18
6.560000E+03	2.582729E-16	4.355234E-18
6.570000E+03	2.592377E-16	4.383907E-18
6.580000E+03	2.603979E-16	4.415936E-18
6.590000E+03	2.617484E-16	4.451246E-18
6.600000E+03	2.632846E-16	4.489773E-18
6.610000E+03	2.649953E-16	4.531338E-18
6.620000E+03	2.668585E-16	4.575570E-18
6.630000E+03	2.688654E-16	4.622331E-18
6.640000E+03	2.709877E-16	4.671135E-18
6.650000E+03	2.732111E-16	4.721741E-18
6.660000E+03	2.754966E-16	4.773471E-18
6.670000E+03	2.778291E-16	4.826059E-18
6.680000E+03	2.801688E-16	4.878803E-18
6.690000E+03	2.824882E-16	4.931208E-18
6.700000E+03	2.847452E-16	4.982515E-18
6.710000E+03	2.869210E-16	5.032366E-18
6.720000E+03	2.889695E-16	5.079922E-18
6.730000E+03	2.908692E-16	5.124773E-18
6.740000E+03	2.925910E-16	5.166371E-18
6.750000E+03	2.940986E-16	5.204033E-18
6.760000E+03	2.953777E-16	5.237470E-18
6.770000E+03	2.964031E-16	5.266196E-18
6.780000E+03	2.971636E-16	5.289966E-18
6.790000E+03	2.976378E-16	5.308364E-18
6.800000E+03	2.978296E-16	5.321421E-18
6.810000E+03	2.977389E-16	5.329100E-18
6.820000E+03	2.973666E-16	5.331379E-18
6.830000E+03	2.967240E-16	5.328437E-18
6.840000E+03	2.958288E-16	5.320559E-18
6.850000E+03	2.947127E-16	5.308299E-18
6.860000E+03	2.933869E-16	5.291836E-18
6.870000E+03	2.918915E-16	5.271882E-18
6.880000E+03	2.902599E-16	5.249031E-18
6.890000E+03	2.885233E-16	5.223842E-18
6.900000E+03	2.867242E-16	5.197082E-18
6.910000E+03	2.848994E-16	5.169422E-18
6.920000E+03	2.830784E-16	5.141402E-18
6.930000E+03	2.812972E-16	5.113683E-18
6.940000E+03	2.795813E-16	5.086740E-18
6.950000E+03	2.779453E-16	5.060847E-18
6.960000E+03	2.764128E-16	5.036447E-18
6.970000E+03	2.749826E-16	5.013526E-18
6.980000E+03	2.736691E-16	4.992364E-18
6.990000E+03	2.724637E-16	4.972812E-18
7.000000E+03	2.713754E-16	4.955046E-18
7.010000E+03	2.703908E-16	4.938832E-18
7.020000E+03	2.695149E-16	4.924275E-18
7.030000E+03	2.687360E-16	4.911167E-18
7.040000E+03	2.680464E-16	4.899378E-18
7.050000E+03	2.674418E-16	4.888840E-18
7.060000E+03	2.669069E-16	4.879282E-18
7.070000E+03	2.664306E-16	4.870513E-18
7.080000E+03	2.660066E-16	4.862423E-18
7.090000E+03	2.656230E-16	4.854808E-18
7.100000E+03	2.652632E-16	4.847371E-18
7.110000E+03	2.649210E-16	4.840012E-18
7.120000E+03	2.645860E-16	4.832550E-18
7.130000E+03	2.642489E-16	4.824828E-18
7.140000E+03	2.638962E-16	4.816609E-18
7.150000E+03	2.635310E-16	4.807965E-18
7.160000E+03	2.631417E-16	4.798695E-18
7.170000E+03	2.627227E-16	4.788712E-18
7.180000E+03	2.622747E-16	4.778044E-18
7.190000E+03	2.617885E-16	4.766539E-18
7.200000E+03	2.612617E-16	4.754166E-18
7.210000E+03	2.607024E-16	4.741092E-18
7.220000E+03	2.600935E-16	4.727021E-18
7.230000E+03	2.594504E-16	4.712251E-18
7.240000E+03	2.587673E-16	4.696692E-18
7.250000E+03	2.580388E-16	4.680267E-18
7.260000E+03	2.572704E-16	4.663094E-18
7.270000E+03	2.564678E-16	4.645292E-18
7.280000E+03	2.556251E-16	4.626775E-18
7.290000E+03	2.547367E-16	4.607461E-18
7.300000E+03	2.538127E-16	4.587550E-18
7.310000E+03	2.528475E-16	4.566958E-18
7.320000E+03	2.518404E-16	4.545696E-18
7.330000E+03	2.507969E-16	4.523881E-18
7.340000E+03	2.497013E-16	4.501245E-18
7.350000E+03	2.485711E-16	4.478126E-18
7.360000E+03	2.473972E-16	4.454378E-18
7.370000E+03	2.461824E-16	4.430069E-18
7.380000E+03	2.449308E-16	4.405290E-18
7.390000E+03	2.436417E-16	4.380049E-18
7.400000E+03	2.423214E-16	4.354472E-18
7.410000E+03	2.409766E-16	4.328698E-18
7.420000E+03	2.396092E-16	4.302775E-18
7.430000E+03	2.382266E-16	4.276851E-18
7.440000E+03	2.368301E-16	4.250966E-18
7.450000E+03	2.354420E-16	4.225532E-18
7.460000E+03	2.340560E-16	4.200450E-18
7.470000E+03	2.326857E-16	4.175974E-18
7.480000E+03	2.313313E-16	4.152122E-18
7.490000E+03	2.299960E-16	4.128962E-18
7.500000E+03	2.286702E-16	4.106334E-18
7.510000E+03	2.273525E-16	4.084220E-18
7.520000E+03	2.260398E-16	4.062578E-18
7.530000E+03	2.247113E-16	4.041024E-18
7.540000E+03	2.233713E-16	4.019614E-18
7.550000E+03	2.219958E-16	3.997893E-18
7.560000E+03	2.205709E-16	3.975581E-18
7.570000E+03	2.190925E-16	3.952580E-18
7.580000E+03	2.175353E-16	3.928404E-18
7.590000E+03	2.158850E-16	3.902768E-18
7.600000E+03	2.141391E-16	3.875595E-18
7.610000E+03	2.122754E-16	3.846454E-18
7.620000E+03	2.102849E-16	3.815150E-18
7.630000E+03	2.081663E-16	3.781625E-18
7.640000E+03	2.059168E-16	3.745800E-18
7.650000E+03	2.035348E-16	3.707609E-18
7.660000E+03	2.010352E-16	3.667291E-18
7.670000E+03	1.984315E-16	3.625064E-18
7.680000E+03	1.957291E-16	3.580998E-18
7.690000E+03	1.929596E-16	3.535640E-18
7.700000E+03	1.901251E-16	3.489007E-18
7.710000E+03	1.872573E-16	3.441657E-18
7.720000E+03	1.843581E-16	3.393607E-18
7.730000E+03	1.814578E-16	3.345391E-18
7.740000E+03	1.785614E-16	3.297093E-18
7.750000E+03	1.756827E-16	3.248951E-18
7.760000E+03	1.728429E-16	3.201349E-18
