#wls	flux	fluxerr
1.600000E+03	7.557274E-19	5.716532E-20
1.640000E+03	7.461365E-19	5.624470E-20
1.680000E+03	7.381483E-19	5.544485E-20
1.720000E+03	7.318385E-19	5.477021E-20
1.760000E+03	7.271994E-19	5.421885E-20
1.800000E+03	7.243216E-19	5.379612E-20
1.840000E+03	7.233026E-19	5.350766E-20
1.880000E+03	7.243299E-19	5.336558E-20
1.920000E+03	7.273618E-19	5.336486E-20
1.960000E+03	7.326938E-19	5.352509E-20
2.000000E+03	7.404028E-19	5.384946E-20
2.040000E+03	7.508203E-19	5.435944E-20
2.080000E+03	7.642264E-19	5.507217E-20
2.120000E+03	7.810099E-19	5.601214E-20
2.160000E+03	8.017477E-19	5.721652E-20
2.200000E+03	8.269248E-19	5.871499E-20
2.240000E+03	8.574624E-19	6.056710E-20
2.280000E+03	8.940841E-19	6.281692E-20
2.320000E+03	9.378534E-19	6.553088E-20
2.360000E+03	9.896941E-19	6.876370E-20
2.400000E+03	1.050488E-18	7.256535E-20
2.440000E+03	1.121477E-18	7.700860E-20
2.480000E+03	1.204167E-18	8.218171E-20
2.520000E+03	1.300458E-18	8.819645E-20
2.560000E+03	1.412564E-18	9.518191E-20
2.600000E+03	1.543178E-18	1.032944E-19
2.640000E+03	1.695850E-18	1.127414E-19
2.680000E+03	1.874528E-18	1.237491E-19
2.720000E+03	2.084353E-18	1.366130E-19
2.760000E+03	2.331535E-18	1.516867E-19
2.800000E+03	2.623402E-18	1.693820E-19
2.840000E+03	2.969842E-18	1.902576E-19
2.880000E+03	3.382776E-18	2.149785E-19
2.920000E+03	3.877896E-18	2.444196E-19
2.960000E+03	4.475992E-18	2.797365E-19
3.000000E+03	5.203111E-18	3.223609E-19
3.010000E+03	5.408969E-18	3.343741E-19
3.020000E+03	5.625468E-18	3.469837E-19
3.030000E+03	5.853555E-18	3.602433E-19
3.040000E+03	6.093703E-18	3.741768E-19
3.050000E+03	6.346784E-18	3.888318E-19
3.060000E+03	6.613536E-18	4.042479E-19
3.070000E+03	6.894942E-18	4.204786E-19
3.080000E+03	7.192058E-18	4.375815E-19
3.090000E+03	7.505599E-18	4.555928E-19
3.100000E+03	7.836743E-18	4.745762E-19
3.110000E+03	8.186753E-18	4.945999E-19
3.120000E+03	8.556764E-18	5.157235E-19
3.130000E+03	8.947982E-18	5.380103E-19
3.140000E+03	9.362171E-18	5.615561E-19
3.150000E+03	9.800491E-18	5.864195E-19
3.160000E+03	1.026444E-17	6.126787E-19
3.170000E+03	1.075637E-17	6.404615E-19
3.180000E+03	1.127753E-17	6.698288E-19
3.190000E+03	1.183030E-17	7.009079E-19
3.200000E+03	1.241640E-17	7.337851E-19
3.210000E+03	1.303856E-17	7.686054E-19
3.220000E+03	1.369910E-17	8.054882E-19
3.230000E+03	1.440052E-17	8.445614E-19
3.240000E+03	1.514581E-17	8.859800E-19
3.250000E+03	1.593820E-17	9.299116E-19
3.260000E+03	1.678045E-17	9.764937E-19
3.270000E+03	1.767626E-17	1.025916E-18
3.280000E+03	1.862921E-17	1.078361E-18
3.290000E+03	1.964353E-17	1.134043E-18
3.300000E+03	2.072337E-17	1.193172E-18
3.310000E+03	2.187320E-17	1.255972E-18
3.320000E+03	2.309821E-17	1.322704E-18
3.330000E+03	2.440266E-17	1.393576E-18
3.340000E+03	2.579335E-17	1.468935E-18
3.350000E+03	2.727528E-17	1.549021E-18
3.360000E+03	2.885467E-17	1.634140E-18
3.370000E+03	3.053871E-17	1.724650E-18
3.380000E+03	3.233400E-17	1.820869E-18
3.390000E+03	3.424752E-17	1.923132E-18
3.400000E+03	3.628721E-17	2.031825E-18
3.410000E+03	3.846085E-17	2.147315E-18
3.420000E+03	4.077784E-17	2.270059E-18
3.430000E+03	4.324555E-17	2.400391E-18
3.440000E+03	4.587347E-17	2.538758E-18
3.450000E+03	4.867083E-17	2.685587E-18
3.460000E+03	5.164637E-17	2.841271E-18
3.470000E+03	5.480968E-17	3.006241E-18
3.480000E+03	5.817053E-17	3.180934E-18
3.490000E+03	6.173790E-17	3.365735E-18
3.500000E+03	6.551978E-17	3.560970E-18
3.510000E+03	6.952558E-17	3.767034E-18
3.520000E+03	7.376355E-17	3.984254E-18
3.530000E+03	7.824050E-17	4.212872E-18
3.540000E+03	8.296350E-17	4.453139E-18
3.550000E+03	8.793888E-17	4.705262E-18
3.560000E+03	9.317212E-17	4.969395E-18
3.570000E+03	9.866651E-17	5.245574E-18
3.580000E+03	1.044252E-16	5.533820E-18
3.590000E+03	1.104488E-16	5.834026E-18
3.600000E+03	1.167403E-16	6.146199E-18
3.610000E+03	1.232974E-16	6.470066E-18
3.620000E+03	1.301171E-16	6.805331E-18
3.630000E+03	1.371935E-16	7.151534E-18
3.640000E+03	1.445198E-16	7.508176E-18
3.650000E+03	1.520872E-16	7.874657E-18
3.660000E+03	1.598848E-16	8.250286E-18
3.670000E+03	1.679013E-16	8.634339E-18
3.680000E+03	1.761217E-16	9.025920E-18
3.690000E+03	1.845319E-16	9.424201E-18
3.700000E+03	1.931129E-16	9.828085E-18
3.710000E+03	2.018488E-16	1.023667E-17
3.720000E+03	2.107184E-16	1.064880E-17
3.730000E+03	2.196986E-16	1.106321E-17
3.740000E+03	2.287685E-16	1.147880E-17
3.750000E+03	2.379040E-16	1.189428E-17
3.760000E+03	2.470792E-16	1.230834E-17
3.770000E+03	2.562674E-16	1.271960E-17
3.780000E+03	2.654453E-16	1.312689E-17
3.790000E+03	2.745817E-16	1.352869E-17
3.800000E+03	2.836493E-16	1.392365E-17
3.810000E+03	2.926235E-16	1.431060E-17
3.820000E+03	3.014683E-16	1.468783E-17
3.830000E+03	3.101615E-16	1.505433E-17
3.840000E+03	3.186725E-16	1.540868E-17
3.850000E+03	3.269712E-16	1.574954E-17
3.860000E+03	3.350338E-16	1.607587E-17
3.870000E+03	3.428316E-16	1.638641E-17
3.880000E+03	3.503396E-16	1.668014E-17
3.890000E+03	3.575314E-16	1.695594E-17
3.900000E+03	3.643879E-16	1.721308E-17
3.910000E+03	3.708824E-16	1.745050E-17
3.920000E+03	3.769996E-16	1.766768E-17
3.930000E+03	3.827196E-16	1.786389E-17
3.940000E+03	3.880285E-16	1.803871E-17
3.950000E+03	3.929142E-16	1.819182E-17
3.960000E+03	3.973609E-16	1.832272E-17
3.970000E+03	4.013619E-16	1.843135E-17
3.980000E+03	4.049165E-16	1.851794E-17
3.990000E+03	4.080135E-16	1.858222E-17
4.000000E+03	4.106613E-16	1.862485E-17
4.010000E+03	4.128546E-16	1.864583E-17
4.020000E+03	4.146044E-16	1.864594E-17
4.030000E+03	4.159180E-16	1.862574E-17
4.040000E+03	4.168056E-16	1.858596E-17
4.050000E+03	4.172801E-16	1.852741E-17
4.060000E+03	4.173608E-16	1.845118E-17
4.070000E+03	4.170620E-16	1.835814E-17
4.080000E+03	4.164111E-16	1.824970E-17
4.090000E+03	4.154261E-16	1.812688E-17
4.100000E+03	4.141308E-16	1.799089E-17
4.110000E+03	4.125501E-16	1.784300E-17
4.120000E+03	4.107135E-16	1.768465E-17
4.130000E+03	4.086478E-16	1.751714E-17
4.140000E+03	4.063771E-16	1.734165E-17
4.150000E+03	4.039330E-16	1.715963E-17
4.160000E+03	4.013437E-16	1.697239E-17
4.170000E+03	3.986345E-16	1.678107E-17
4.180000E+03	3.958404E-16	1.658724E-17
4.190000E+03	3.929829E-16	1.639183E-17
4.200000E+03	3.900932E-16	1.619619E-17
4.210000E+03	3.872017E-16	1.600160E-17
4.220000E+03	3.843314E-16	1.580901E-17
4.230000E+03	3.815074E-16	1.561945E-17
4.240000E+03	3.787570E-16	1.543400E-17
4.250000E+03	3.760996E-16	1.525341E-17
4.260000E+03	3.735622E-16	1.507874E-17
4.270000E+03	3.711645E-16	1.491070E-17
4.280000E+03	3.689211E-16	1.474981E-17
4.290000E+03	3.668572E-16	1.459699E-17
4.300000E+03	3.649845E-16	1.445260E-17
4.310000E+03	3.633189E-16	1.431717E-17
4.320000E+03	3.618779E-16	1.419127E-17
4.330000E+03	3.606739E-16	1.407526E-17
4.340000E+03	3.597183E-16	1.396947E-17
4.350000E+03	3.590236E-16	1.387422E-17
4.360000E+03	3.585919E-16	1.378947E-17
4.370000E+03	3.584297E-16	1.371533E-17
4.380000E+03	3.585359E-16	1.365160E-17
4.390000E+03	3.589107E-16	1.359815E-17
4.400000E+03	3.595437E-16	1.355445E-17
4.410000E+03	3.604348E-16	1.352035E-17
4.420000E+03	3.615758E-16	1.349542E-17
4.430000E+03	3.629596E-16	1.347925E-17
4.440000E+03	3.645741E-16	1.347129E-17
4.450000E+03	3.664081E-16	1.347100E-17
4.460000E+03	3.684478E-16	1.347776E-17
4.470000E+03	3.706802E-16	1.349101E-17
4.480000E+03	3.730837E-16	1.350987E-17
4.490000E+03	3.756397E-16	1.353359E-17
4.500000E+03	3.783272E-16	1.356134E-17
4.510000E+03	3.811157E-16	1.359199E-17
4.520000E+03	3.839813E-16	1.362465E-17
4.530000E+03	3.868877E-16	1.365802E-17
4.540000E+03	3.898062E-16	1.369108E-17
4.550000E+03	3.926959E-16	1.372242E-17
4.560000E+03	3.955248E-16	1.375096E-17
4.570000E+03	3.982529E-16	1.377536E-17
4.580000E+03	4.008399E-16	1.379432E-17
4.590000E+03	4.032522E-16	1.380677E-17
4.600000E+03	4.054501E-16	1.381149E-17
4.610000E+03	4.073986E-16	1.380741E-17
4.620000E+03	4.090644E-16	1.379356E-17
4.630000E+03	4.104089E-16	1.376881E-17
4.640000E+03	4.114110E-16	1.373264E-17
4.650000E+03	4.120418E-16	1.368428E-17
4.660000E+03	4.122802E-16	1.362323E-17
4.670000E+03	4.121056E-16	1.354904E-17
4.680000E+03	4.115026E-16	1.346141E-17
4.690000E+03	4.104616E-16	1.336026E-17
4.700000E+03	4.089827E-16	1.324581E-17
4.710000E+03	4.070661E-16	1.311830E-17
4.720000E+03	4.047261E-16	1.297840E-17
4.730000E+03	4.019737E-16	1.282667E-17
4.740000E+03	3.988338E-16	1.266409E-17
4.750000E+03	3.953368E-16	1.249181E-17
4.760000E+03	3.915142E-16	1.231098E-17
4.770000E+03	3.874042E-16	1.212295E-17
4.780000E+03	3.830448E-16	1.192901E-17
4.790000E+03	3.784784E-16	1.173059E-17
4.800000E+03	3.737457E-16	1.152903E-17
4.810000E+03	3.688943E-16	1.132585E-17
4.820000E+03	3.639619E-16	1.112224E-17
4.830000E+03	3.589987E-16	1.091975E-17
4.840000E+03	3.540437E-16	1.071956E-17
4.850000E+03	3.491377E-16	1.052287E-17
4.860000E+03	3.443190E-16	1.033076E-17
4.870000E+03	3.396212E-16	1.014416E-17
4.880000E+03	3.350741E-16	9.963869E-18
4.890000E+03	3.307043E-16	9.790579E-18
4.900000E+03	3.265387E-16	9.624977E-18
4.910000E+03	3.225948E-16	9.467463E-18
4.920000E+03	3.188931E-16	9.318516E-18
4.930000E+03	3.154448E-16	9.178340E-18
4.940000E+03	3.122663E-16	9.047289E-18
4.950000E+03	3.093624E-16	8.925367E-18
4.960000E+03	3.067348E-16	8.812503E-18
4.970000E+03	3.043941E-16	8.708873E-18
4.980000E+03	3.023311E-16	8.614091E-18
4.990000E+03	3.005516E-16	8.528201E-18
5.000000E+03	2.990452E-16	8.450790E-18
5.010000E+03	2.978083E-16	8.381642E-18
5.020000E+03	2.968302E-16	8.320349E-18
5.030000E+03	2.961079E-16	8.266719E-18
5.040000E+03	2.956268E-16	8.220250E-18
5.050000E+03	2.953833E-16	8.180745E-18
5.060000E+03	2.953634E-16	8.147726E-18
5.070000E+03	2.955649E-16	8.121043E-18
5.080000E+03	2.959782E-16	8.100353E-18
5.090000E+03	2.965949E-16	8.085343E-18
5.100000E+03	2.974158E-16	8.075961E-18
5.110000E+03	2.984340E-16	8.071945E-18
5.120000E+03	2.996456E-16	8.073118E-18
5.130000E+03	3.010442E-16	8.079235E-18
5.140000E+03	3.026314E-16	8.090273E-18
5.150000E+03	3.043974E-16	8.105902E-18
5.160000E+03	3.063404E-16	8.126012E-18
5.170000E+03	3.084554E-16	8.150403E-18
5.180000E+03	3.107332E-16	8.178779E-18
5.190000E+03	3.131704E-16	8.210987E-18
5.200000E+03	3.157565E-16	8.246698E-18
5.210000E+03	3.184831E-16	8.285642E-18
5.220000E+03	3.213412E-16	8.327533E-18
5.230000E+03	3.243241E-16	8.372151E-18
5.240000E+03	3.274146E-16	8.419010E-18
5.250000E+03	3.306048E-16	8.467867E-18
5.260000E+03	3.338794E-16	8.518292E-18
5.270000E+03	3.372293E-16	8.570023E-18
5.280000E+03	3.406416E-16	8.622706E-18
5.290000E+03	3.440966E-16	8.675812E-18
5.300000E+03	3.475870E-16	8.729143E-18
5.310000E+03	3.510916E-16	8.782150E-18
5.320000E+03	3.545990E-16	8.834533E-18
5.330000E+03	3.580895E-16	8.885802E-18
5.340000E+03	3.615467E-16	8.935544E-18
5.350000E+03	3.649563E-16	8.983415E-18
5.360000E+03	3.682931E-16	9.028798E-18
5.370000E+03	3.715415E-16	9.071337E-18
5.380000E+03	3.746786E-16	9.110486E-18
5.390000E+03	3.776840E-16	9.145785E-18
5.400000E+03	3.805369E-16	9.176765E-18
5.410000E+03	3.832113E-16	9.202836E-18
5.420000E+03	3.856807E-16	9.223416E-18
5.430000E+03	3.879114E-16	9.237755E-18
5.440000E+03	3.898629E-16	9.244962E-18
5.450000E+03	3.914990E-16	9.244261E-18
5.460000E+03	3.927850E-16	9.234925E-18
5.470000E+03	3.936849E-16	9.216216E-18
5.480000E+03	3.941707E-16	9.187597E-18
5.490000E+03	3.942234E-16	9.148748E-18
5.500000E+03	3.938218E-16	9.099311E-18
5.510000E+03	3.929511E-16	9.039087E-18
5.520000E+03	3.916113E-16	8.968218E-18
5.530000E+03	3.898055E-16	8.886918E-18
5.540000E+03	3.875402E-16	8.795485E-18
5.550000E+03	3.848369E-16	8.694547E-18
5.560000E+03	3.817169E-16	8.584724E-18
5.570000E+03	3.782130E-16	8.466880E-18
5.580000E+03	3.743690E-16	8.342121E-18
5.590000E+03	3.702288E-16	8.211529E-18
5.600000E+03	3.658432E-16	8.076325E-18
5.610000E+03	3.612811E-16	7.938107E-18
5.620000E+03	3.566060E-16	7.798328E-18
5.630000E+03	3.518867E-16	7.658527E-18
5.640000E+03	3.472059E-16	7.520519E-18
5.650000E+03	3.426332E-16	7.385802E-18
5.660000E+03	3.382483E-16	7.256057E-18
5.670000E+03	3.341246E-16	7.132806E-18
5.680000E+03	3.303314E-16	7.017446E-18
5.690000E+03	3.269283E-16	6.911147E-18
5.700000E+03	3.239785E-16	6.815122E-18
5.710000E+03	3.215231E-16	6.730104E-18
5.720000E+03	3.196052E-16	6.656846E-18
5.730000E+03	3.182533E-16	6.595785E-18
5.740000E+03	3.174994E-16	6.547415E-18
5.750000E+03	3.173600E-16	6.511905E-18
5.760000E+03	3.178465E-16	6.489312E-18
5.770000E+03	3.189764E-16	6.479814E-18
5.780000E+03	3.207523E-16	6.483283E-18
5.790000E+03	3.231751E-16	6.499562E-18
5.800000E+03	3.262401E-16	6.528382E-18
5.810000E+03	3.299396E-16	6.569418E-18
5.820000E+03	3.342510E-16	6.622056E-18
5.830000E+03	3.391494E-16	6.685658E-18
5.840000E+03	3.445966E-16	6.759329E-18
5.850000E+03	3.505435E-16	6.841985E-18
5.860000E+03	3.569256E-16	6.932271E-18
5.870000E+03	3.636796E-16	7.028878E-18
5.880000E+03	3.707238E-16	7.130174E-18
5.890000E+03	3.779619E-16	7.234289E-18
5.900000E+03	3.852973E-16	7.339379E-18
5.910000E+03	3.926209E-16	7.443407E-18
5.920000E+03	3.998227E-16	7.544360E-18
5.930000E+03	4.067795E-16	7.640019E-18
5.940000E+03	4.133764E-16	7.728368E-18
5.950000E+03	4.195019E-16	7.807486E-18
5.960000E+03	4.250399E-16	7.875411E-18
5.970000E+03	4.298932E-16	7.930557E-18
5.980000E+03	4.339751E-16	7.971567E-18
5.990000E+03	4.372029E-16	7.997171E-18
6.000000E+03	4.395248E-16	8.006683E-18
6.010000E+03	4.408970E-16	7.999568E-18
6.020000E+03	4.412956E-16	7.975647E-18
6.030000E+03	4.407225E-16	7.935209E-18
6.040000E+03	4.392001E-16	7.878888E-18
6.050000E+03	4.367583E-16	7.807438E-18
6.060000E+03	4.334652E-16	7.722269E-18
6.070000E+03	4.293794E-16	7.624590E-18
6.080000E+03	4.245803E-16	7.515949E-18
6.090000E+03	4.191586E-16	7.398068E-18
6.100000E+03	4.131878E-16	7.272322E-18
6.110000E+03	4.067699E-16	7.140572E-18
6.120000E+03	3.999912E-16	7.004364E-18
6.130000E+03	3.929426E-16	6.865302E-18
6.140000E+03	3.857075E-16	6.724838E-18
6.150000E+03	3.783724E-16	6.584455E-18
6.160000E+03	3.710153E-16	6.445467E-18
6.170000E+03	3.637147E-16	6.309146E-18
6.180000E+03	3.565342E-16	6.176483E-18
6.190000E+03	3.495309E-16	6.048352E-18
6.200000E+03	3.427668E-16	5.925715E-18
6.210000E+03	3.362658E-16	5.808878E-18
6.220000E+03	3.300573E-16	5.698248E-18
6.230000E+03	3.241441E-16	5.593773E-18
6.240000E+03	3.185365E-16	5.495545E-18
6.250000E+03	3.132319E-16	5.403435E-18
6.260000E+03	3.082292E-16	5.317349E-18
6.270000E+03	3.035158E-16	5.237001E-18
6.280000E+03	2.990946E-16	5.162381E-18
6.290000E+03	2.949501E-16	5.093160E-18
6.300000E+03	2.910738E-16	5.029142E-18
6.310000E+03	2.874523E-16	4.970050E-18
6.320000E+03	2.840759E-16	4.915676E-18
6.330000E+03	2.809347E-16	4.865806E-18
6.340000E+03	2.780103E-16	4.820091E-18
6.350000E+03	2.752965E-16	4.778394E-18
6.360000E+03	2.727717E-16	4.740308E-18
6.370000E+03	2.704304E-16	4.705713E-18
6.380000E+03	2.682594E-16	4.674357E-18
6.390000E+03	2.662426E-16	4.645937E-18
6.400000E+03	2.643762E-16	4.620368E-18
6.410000E+03	2.626460E-16	4.597383E-18
6.420000E+03	2.610621E-16	4.577142E-18
6.430000E+03	2.596129E-16	4.559427E-18
6.440000E+03	2.583079E-16	4.544391E-18
6.450000E+03	2.571394E-16	4.531890E-18
6.460000E+03	2.561176E-16	4.522092E-18
6.470000E+03	2.552467E-16	4.515066E-18
6.480000E+03	2.545329E-16	4.510917E-18
6.490000E+03	2.539832E-16	4.509764E-18
6.500000E+03	2.536052E-16	4.511742E-18
6.510000E+03	2.534022E-16	4.516910E-18
6.520000E+03	2.533888E-16	4.525530E-18
6.530000E+03	2.535626E-16	4.537566E-18
6.540000E+03	2.539322E-16	4.553175E-18
6.550000E+03	2.544970E-16	4.572354E-18
6.560000E+03	2.552583E-16	4.595136E-18
6.570000E+03	2.562199E-16	4.621592E-18
6.580000E+03	2.573709E-16	4.651540E-18
6.590000E+03	2.587060E-16	4.684889E-18
6.600000E+03	2.602211E-16	4.721574E-18
6.610000E+03	2.619056E-16	4.761409E-18
6.620000E+03	2.637375E-16	4.804003E-18
6.630000E+03	2.657092E-16	4.849218E-18
6.640000E+03	2.677929E-16	4.896550E-18
6.650000E+03	2.699754E-16	4.945760E-18
6.660000E+03	2.722190E-16	4.996159E-18
6.670000E+03	2.745100E-16	5.047484E-18
6.680000E+03	2.768103E-16	5.099035E-18
6.690000E+03	2.790945E-16	5.150323E-18
6.700000E+03	2.813218E-16	5.200581E-18
6.710000E+03	2.834751E-16	5.249468E-18
6.720000E+03	2.855096E-16	5.296129E-18
6.730000E+03	2.874050E-16	5.340162E-18
6.740000E+03	2.891333E-16	5.381017E-18
6.750000E+03	2.906589E-16	5.418002E-18
6.760000E+03	2.919682E-16	5.450830E-18
6.770000E+03	2.930367E-16	5.479013E-18
6.780000E+03	2.938534E-16	5.502310E-18
6.790000E+03	2.943969E-16	5.520290E-18
6.800000E+03	2.946709E-16	5.532991E-18
6.810000E+03	2.946743E-16	5.540363E-18
6.820000E+03	2.944068E-16	5.542373E-18
6.830000E+03	2.938784E-16	5.539185E-18
6.840000E+03	2.931041E-16	5.531058E-18
6.850000E+03	2.921142E-16	5.518543E-18
6.860000E+03	2.909172E-16	5.501790E-18
6.870000E+03	2.895509E-16	5.481499E-18
6.880000E+03	2.880463E-16	5.458248E-18
6.890000E+03	2.864329E-16	5.432589E-18
6.900000E+03	2.847505E-16	5.405277E-18
6.910000E+03	2.830338E-16	5.376968E-18
6.920000E+03	2.813102E-16	5.348189E-18
6.930000E+03	2.796141E-16	5.319593E-18
6.940000E+03	2.779699E-16	5.291657E-18
6.950000E+03	2.763923E-16	5.264663E-18
6.960000E+03	2.749057E-16	5.239087E-18
6.970000E+03	2.735101E-16	5.214935E-18
6.980000E+03	2.722213E-16	5.192519E-18
6.990000E+03	2.710320E-16	5.171708E-18
7.000000E+03	2.699524E-16	5.152703E-18
7.010000E+03	2.689703E-16	5.135283E-18
7.020000E+03	2.680918E-16	5.119571E-18
7.030000E+03	2.673062E-16	5.105369E-18
7.040000E+03	2.666066E-16	5.092553E-18
7.050000E+03	2.659896E-16	5.081069E-18
7.060000E+03	2.654411E-16	5.070653E-18
7.070000E+03	2.649511E-16	5.061121E-18
7.080000E+03	2.645138E-16	5.052373E-18
7.090000E+03	2.641187E-16	5.044212E-18
7.100000E+03	2.637497E-16	5.036342E-18
7.110000E+03	2.634018E-16	5.028674E-18
7.120000E+03	2.630649E-16	5.021025E-18
7.130000E+03	2.627301E-16	5.013237E-18
7.140000E+03	2.623841E-16	5.005063E-18
7.150000E+03	2.620301E-16	4.996577E-18
7.160000E+03	2.616565E-16	4.987566E-18
7.170000E+03	2.612577E-16	4.977938E-18
7.180000E+03	2.608343E-16	4.967716E-18
7.190000E+03	2.603770E-16	4.956736E-18
7.200000E+03	2.598830E-16	4.944955E-18
7.210000E+03	2.593602E-16	4.932541E-18
7.220000E+03	2.587912E-16	4.919176E-18
7.230000E+03	2.581907E-16	4.905156E-18
7.240000E+03	2.575527E-16	4.890378E-18
7.250000E+03	2.568714E-16	4.874749E-18
7.260000E+03	2.561518E-16	4.858381E-18
7.270000E+03	2.553990E-16	4.841384E-18
7.280000E+03	2.546071E-16	4.823665E-18
7.290000E+03	2.537702E-16	4.805126E-18
7.300000E+03	2.528985E-16	4.785978E-18
7.310000E+03	2.519860E-16	4.766123E-18
7.320000E+03	2.510324E-16	4.745571E-18
7.330000E+03	2.500430E-16	4.724440E-18
7.340000E+03	2.490019E-16	4.702447E-18
7.350000E+03	2.479267E-16	4.679937E-18
7.360000E+03	2.468082E-16	4.656755E-18
7.370000E+03	2.456489E-16	4.632963E-18
7.380000E+03	2.444524E-16	4.608646E-18
7.390000E+03	2.432181E-16	4.583806E-18
7.400000E+03	2.419511E-16	4.558552E-18
7.410000E+03	2.406575E-16	4.533017E-18
7.420000E+03	2.393385E-16	4.507234E-18
7.430000E+03	2.380001E-16	4.481332E-18
7.440000E+03	2.366430E-16	4.455335E-18
7.450000E+03	2.352886E-16	4.429656E-18
7.460000E+03	2.339294E-16	4.404170E-18
7.470000E+03	2.325786E-16	4.379132E-18
7.480000E+03	2.312359E-16	4.354549E-18
7.490000E+03	2.299046E-16	4.330494E-18
7.500000E+03	2.285750E-16	4.306791E-18
7.510000E+03	2.272461E-16	4.283432E-18
7.520000E+03	2.259154E-16	4.260378E-18
7.530000E+03	2.245620E-16	4.237231E-18
7.540000E+03	2.231914E-16	4.214069E-18
7.550000E+03	2.217802E-16	4.190428E-18
7.560000E+03	2.203153E-16	4.166038E-18
7.570000E+03	2.187939E-16	4.140821E-18
7.580000E+03	2.171916E-16	4.114290E-18
7.590000E+03	2.154953E-16	4.086170E-18
7.600000E+03	2.137035E-16	4.056409E-18
7.610000E+03	2.117955E-16	4.024581E-18
7.620000E+03	2.097628E-16	3.990498E-18
7.630000E+03	2.076050E-16	3.954125E-18
7.640000E+03	2.053202E-16	3.915393E-18
7.650000E+03	2.029066E-16	3.874238E-18
7.660000E+03	2.003793E-16	3.830924E-18
7.670000E+03	1.977516E-16	3.785672E-18
7.680000E+03	1.950282E-16	3.738548E-18
7.690000E+03	1.922403E-16	3.690129E-18
7.700000E+03	1.893898E-16	3.640423E-18
7.710000E+03	1.865075E-16	3.590009E-18
7.720000E+03	1.835955E-16	3.538902E-18
7.730000E+03	1.806831E-16	3.487656E-18
7.740000E+03	1.777753E-16	3.436354E-18
7.750000E+03	1.748855E-16	3.385241E-18
7.760000E+03	1.720347E-16	3.334715E-18
