#wls	flux	fluxerr
1.600000E+03	6.661609E-19	6.597989E-20
1.640000E+03	6.509871E-19	6.436362E-20
1.680000E+03	6.370370E-19	6.287022E-20
1.720000E+03	6.244978E-19	6.151760E-20
1.760000E+03	6.132460E-19	6.029297E-20
1.800000E+03	6.032697E-19	5.919454E-20
1.840000E+03	5.948473E-19	5.824889E-20
1.880000E+03	5.878708E-19	5.744462E-20
1.920000E+03	5.823400E-19	5.678086E-20
1.960000E+03	5.786232E-19	5.629253E-20
2.000000E+03	5.765489E-19	5.596180E-20
2.040000E+03	5.764067E-19	5.581556E-20
2.080000E+03	5.784034E-19	5.587241E-20
2.120000E+03	5.825901E-19	5.613561E-20
2.160000E+03	5.892114E-19	5.662694E-20
2.200000E+03	5.985368E-19	5.737019E-20
2.240000E+03	6.106986E-19	5.837568E-20
2.280000E+03	6.259529E-19	5.966523E-20
2.320000E+03	6.444312E-19	6.124844E-20
2.360000E+03	6.664862E-19	6.315558E-20
2.400000E+03	6.924455E-19	6.541399E-20
2.440000E+03	7.226179E-19	6.804865E-20
2.480000E+03	7.575653E-19	7.110774E-20
2.520000E+03	7.977666E-19	7.463079E-20
2.560000E+03	8.438967E-19	7.867469E-20
2.600000E+03	8.968561E-19	8.331616E-20
2.640000E+03	9.576130E-19	8.863665E-20
2.680000E+03	1.027221E-18	9.472377E-20
2.720000E+03	1.107373E-18	1.017219E-19
2.760000E+03	1.199641E-18	1.097615E-19
2.800000E+03	1.306386E-18	1.190420E-19
2.840000E+03	1.429839E-18	1.297465E-19
2.880000E+03	1.573086E-18	1.421312E-19
2.920000E+03	1.739302E-18	1.564548E-19
2.960000E+03	1.932773E-18	1.730683E-19
3.000000E+03	2.158701E-18	1.923967E-19
3.010000E+03	2.221149E-18	1.977271E-19
3.020000E+03	2.285956E-18	2.032526E-19
3.030000E+03	2.353571E-18	2.090123E-19
3.040000E+03	2.423951E-18	2.150013E-19
3.050000E+03	2.497227E-18	2.212301E-19
3.060000E+03	2.573716E-18	2.277258E-19
3.070000E+03	2.653386E-18	2.344844E-19
3.080000E+03	2.736578E-18	2.415347E-19
3.090000E+03	2.823269E-18	2.488734E-19
3.100000E+03	2.913822E-18	2.565311E-19
3.110000E+03	3.008427E-18	2.645231E-19
3.120000E+03	3.107284E-18	2.728653E-19
3.130000E+03	3.210599E-18	2.815743E-19
3.140000E+03	3.318374E-18	2.906485E-19
3.150000E+03	3.431272E-18	3.001441E-19
3.160000E+03	3.549321E-18	3.100617E-19
3.170000E+03	3.672777E-18	3.204216E-19
3.180000E+03	3.802151E-18	3.312660E-19
3.190000E+03	3.937493E-18	3.425973E-19
3.200000E+03	4.079356E-18	3.544609E-19
3.210000E+03	4.228070E-18	3.668829E-19
3.220000E+03	4.383983E-18	3.798908E-19
3.230000E+03	4.547188E-18	3.934899E-19
3.240000E+03	4.718610E-18	4.077570E-19
3.250000E+03	4.898674E-18	4.227256E-19
3.260000E+03	5.087530E-18	4.384051E-19
3.270000E+03	5.285929E-18	4.548565E-19
3.280000E+03	5.494045E-18	4.720911E-19
3.290000E+03	5.713017E-18	4.902023E-19
3.300000E+03	5.943075E-18	5.092056E-19
3.310000E+03	6.185130E-18	5.291743E-19
3.320000E+03	6.439445E-18	5.501260E-19
3.330000E+03	6.707368E-18	5.721705E-19
3.340000E+03	6.989234E-18	5.953306E-19
3.350000E+03	7.285748E-18	6.196606E-19
3.360000E+03	7.598445E-18	6.452845E-19
3.370000E+03	7.927756E-18	6.722321E-19
3.380000E+03	8.274520E-18	7.005674E-19
3.390000E+03	8.640482E-18	7.304306E-19
3.400000E+03	9.026181E-18	7.618587E-19
3.410000E+03	9.432600E-18	7.949262E-19
3.420000E+03	9.862198E-18	8.298311E-19
3.430000E+03	1.031518E-17	8.665805E-19
3.440000E+03	1.079370E-17	9.053456E-19
3.450000E+03	1.129853E-17	9.461782E-19
3.460000E+03	1.183255E-17	9.893089E-19
3.470000E+03	1.239667E-17	1.034801E-18
3.480000E+03	1.299351E-17	1.082859E-18
3.490000E+03	1.362407E-17	1.133552E-18
3.500000E+03	1.429181E-17	1.187151E-18
3.510000E+03	1.499792E-17	1.243740E-18
3.520000E+03	1.574549E-17	1.303557E-18
3.530000E+03	1.653650E-17	1.366746E-18
3.540000E+03	1.737366E-17	1.433512E-18
3.550000E+03	1.825836E-17	1.503947E-18
3.560000E+03	1.919341E-17	1.578263E-18
3.570000E+03	2.018020E-17	1.656548E-18
3.580000E+03	2.122004E-17	1.738887E-18
3.590000E+03	2.231579E-17	1.825489E-18
3.600000E+03	2.346783E-17	1.916360E-18
3.610000E+03	2.467808E-17	2.011628E-18
3.620000E+03	2.594751E-17	2.111346E-18
3.630000E+03	2.727787E-17	2.215626E-18
3.640000E+03	2.866987E-17	2.324498E-18
3.650000E+03	3.012499E-17	2.438051E-18
3.660000E+03	3.164258E-17	2.556203E-18
3.670000E+03	3.322584E-17	2.679180E-18
3.680000E+03	3.487267E-17	2.806781E-18
3.690000E+03	3.658487E-17	2.939121E-18
3.700000E+03	3.836079E-17	3.076032E-18
3.710000E+03	4.020184E-17	3.217596E-18
3.720000E+03	4.210697E-17	3.363696E-18
3.730000E+03	4.407348E-17	3.514084E-18
3.740000E+03	4.610334E-17	3.668885E-18
3.750000E+03	4.819457E-17	3.827909E-18
3.760000E+03	5.034345E-17	3.990828E-18
3.770000E+03	5.254848E-17	4.157493E-18
3.780000E+03	5.480933E-17	4.327847E-18
3.790000E+03	5.712113E-17	4.501477E-18
3.800000E+03	5.948292E-17	4.678278E-18
3.810000E+03	6.188904E-17	4.857780E-18
3.820000E+03	6.433793E-17	5.039832E-18
3.830000E+03	6.682466E-17	5.224026E-18
3.840000E+03	6.934396E-17	5.409927E-18
3.850000E+03	7.189175E-17	5.597199E-18
3.860000E+03	7.446373E-17	5.785487E-18
3.870000E+03	7.705533E-17	5.974421E-18
3.880000E+03	7.965827E-17	6.163348E-18
3.890000E+03	8.226919E-17	6.351995E-18
3.900000E+03	8.488098E-17	6.539808E-18
3.910000E+03	8.748818E-17	6.726361E-18
3.920000E+03	9.008517E-17	6.911221E-18
3.930000E+03	9.266247E-17	7.093662E-18
3.940000E+03	9.521611E-17	7.273386E-18
3.950000E+03	9.773833E-17	7.449810E-18
3.960000E+03	1.002213E-16	7.622351E-18
3.970000E+03	1.026633E-16	7.790884E-18
3.980000E+03	1.050526E-16	7.954555E-18
3.990000E+03	1.073840E-16	8.112972E-18
4.000000E+03	1.096541E-16	8.265929E-18
4.010000E+03	1.118563E-16	8.412932E-18
4.020000E+03	1.139819E-16	8.553377E-18
4.030000E+03	1.160312E-16	8.687317E-18
4.040000E+03	1.179990E-16	8.814392E-18
4.050000E+03	1.198781E-16	8.934117E-18
4.060000E+03	1.216707E-16	9.046691E-18
4.070000E+03	1.233713E-16	9.151746E-18
4.080000E+03	1.249791E-16	9.249276E-18
4.090000E+03	1.264922E-16	9.339178E-18
4.100000E+03	1.279132E-16	9.421701E-18
4.110000E+03	1.292416E-16	9.496846E-18
4.120000E+03	1.304774E-16	9.564664E-18
4.130000E+03	1.316255E-16	9.625562E-18
4.140000E+03	1.326849E-16	9.679514E-18
4.150000E+03	1.336640E-16	9.727167E-18
4.160000E+03	1.345608E-16	9.768430E-18
4.170000E+03	1.353846E-16	9.804014E-18
4.180000E+03	1.361366E-16	9.834042E-18
4.190000E+03	1.368266E-16	9.859261E-18
4.200000E+03	1.374544E-16	9.879694E-18
4.210000E+03	1.380305E-16	9.896123E-18
4.220000E+03	1.385612E-16	9.909030E-18
4.230000E+03	1.390512E-16	9.918766E-18
4.240000E+03	1.395069E-16	9.925817E-18
4.250000E+03	1.399351E-16	9.930679E-18
4.260000E+03	1.403462E-16	9.934110E-18
4.270000E+03	1.407427E-16	9.936294E-18
4.280000E+03	1.411328E-16	9.937818E-18
4.290000E+03	1.415247E-16	9.939258E-18
4.300000E+03	1.419265E-16	9.941179E-18
4.310000E+03	1.423415E-16	9.943814E-18
4.320000E+03	1.427793E-16	9.947821E-18
4.330000E+03	1.432470E-16	9.953676E-18
4.340000E+03	1.437511E-16	9.961821E-18
4.350000E+03	1.442962E-16	9.972552E-18
4.360000E+03	1.448919E-16	9.986513E-18
4.370000E+03	1.455441E-16	1.000407E-17
4.380000E+03	1.462578E-16	1.002554E-17
4.390000E+03	1.470398E-16	1.005136E-17
4.400000E+03	1.478943E-16	1.008176E-17
4.410000E+03	1.488270E-16	1.011711E-17
4.420000E+03	1.498416E-16	1.015760E-17
4.430000E+03	1.509408E-16	1.020337E-17
4.440000E+03	1.521232E-16	1.025429E-17
4.450000E+03	1.533926E-16	1.031054E-17
4.460000E+03	1.547424E-16	1.037166E-17
4.470000E+03	1.561754E-16	1.043777E-17
4.480000E+03	1.576835E-16	1.050829E-17
4.490000E+03	1.592620E-16	1.058286E-17
4.500000E+03	1.609095E-16	1.066136E-17
4.510000E+03	1.626154E-16	1.074303E-17
4.520000E+03	1.643744E-16	1.082750E-17
4.530000E+03	1.661783E-16	1.091421E-17
4.540000E+03	1.680154E-16	1.100235E-17
4.550000E+03	1.698775E-16	1.109138E-17
4.560000E+03	1.717510E-16	1.118039E-17
4.570000E+03	1.736255E-16	1.126870E-17
4.580000E+03	1.754853E-16	1.135530E-17
4.590000E+03	1.773178E-16	1.143940E-17
4.600000E+03	1.791078E-16	1.152002E-17
4.610000E+03	1.808393E-16	1.159616E-17
4.620000E+03	1.824975E-16	1.166692E-17
4.630000E+03	1.840634E-16	1.173112E-17
4.640000E+03	1.855221E-16	1.178789E-17
4.650000E+03	1.868565E-16	1.183619E-17
4.660000E+03	1.880522E-16	1.187520E-17
4.670000E+03	1.890955E-16	1.190414E-17
4.680000E+03	1.899717E-16	1.192217E-17
4.690000E+03	1.906715E-16	1.192882E-17
4.700000E+03	1.911858E-16	1.192362E-17
4.710000E+03	1.915066E-16	1.190619E-17
4.720000E+03	1.916309E-16	1.187646E-17
4.730000E+03	1.915559E-16	1.183437E-17
4.740000E+03	1.912880E-16	1.178044E-17
4.750000E+03	1.908298E-16	1.171494E-17
4.760000E+03	1.901933E-16	1.163872E-17
4.770000E+03	1.893871E-16	1.155241E-17
4.780000E+03	1.884285E-16	1.145718E-17
4.790000E+03	1.873317E-16	1.135396E-17
4.800000E+03	1.861087E-16	1.124357E-17
4.810000E+03	1.847782E-16	1.112721E-17
4.820000E+03	1.833625E-16	1.100629E-17
4.830000E+03	1.818815E-16	1.088204E-17
4.840000E+03	1.803537E-16	1.075561E-17
4.850000E+03	1.788043E-16	1.062853E-17
4.860000E+03	1.772542E-16	1.050206E-17
4.870000E+03	1.757256E-16	1.037750E-17
4.880000E+03	1.742415E-16	1.025619E-17
4.890000E+03	1.728175E-16	1.013904E-17
4.900000E+03	1.714738E-16	1.002718E-17
4.910000E+03	1.702248E-16	9.921412E-18
4.920000E+03	1.690884E-16	9.822727E-18
4.930000E+03	1.680730E-16	9.731535E-18
4.940000E+03	1.671886E-16	9.648343E-18
4.950000E+03	1.664462E-16	9.573706E-18
4.960000E+03	1.658493E-16	9.507748E-18
4.970000E+03	1.654008E-16	9.450544E-18
4.980000E+03	1.651015E-16	9.402049E-18
4.990000E+03	1.649516E-16	9.362198E-18
5.000000E+03	1.649456E-16	9.330585E-18
5.010000E+03	1.650780E-16	9.306820E-18
5.020000E+03	1.653430E-16	9.290500E-18
5.030000E+03	1.657329E-16	9.281117E-18
5.040000E+03	1.662338E-16	9.277819E-18
5.050000E+03	1.668354E-16	9.279975E-18
5.060000E+03	1.675253E-16	9.286840E-18
5.070000E+03	1.682904E-16	9.297635E-18
5.080000E+03	1.691195E-16	9.311704E-18
5.090000E+03	1.700003E-16	9.328334E-18
5.100000E+03	1.709194E-16	9.346764E-18
5.110000E+03	1.718666E-16	9.366419E-18
5.120000E+03	1.728351E-16	9.386914E-18
5.130000E+03	1.738183E-16	9.407875E-18
5.140000E+03	1.748115E-16	9.429042E-18
5.150000E+03	1.758102E-16	9.450166E-18
5.160000E+03	1.768170E-16	9.471391E-18
5.170000E+03	1.778293E-16	9.492560E-18
5.180000E+03	1.788510E-16	9.513894E-18
5.190000E+03	1.798854E-16	9.535551E-18
5.200000E+03	1.809384E-16	9.557839E-18
5.210000E+03	1.820106E-16	9.580780E-18
5.220000E+03	1.831085E-16	9.604707E-18
5.230000E+03	1.842364E-16	9.629828E-18
5.240000E+03	1.854001E-16	9.656431E-18
5.250000E+03	1.865993E-16	9.684484E-18
5.260000E+03	1.878388E-16	9.714205E-18
5.270000E+03	1.891203E-16	9.745673E-18
5.280000E+03	1.904448E-16	9.778912E-18
5.290000E+03	1.918101E-16	9.813788E-18
5.300000E+03	1.932189E-16	9.850417E-18
5.310000E+03	1.946647E-16	9.888441E-18
5.320000E+03	1.961435E-16	9.927648E-18
5.330000E+03	1.976518E-16	9.967841E-18
5.340000E+03	1.991825E-16	1.000865E-17
5.350000E+03	2.007254E-16	1.004955E-17
5.360000E+03	2.022701E-16	1.009002E-17
5.370000E+03	2.038048E-16	1.012947E-17
5.380000E+03	2.053182E-16	1.016736E-17
5.390000E+03	2.067913E-16	1.020277E-17
5.400000E+03	2.082105E-16	1.023503E-17
5.410000E+03	2.095589E-16	1.026336E-17
5.420000E+03	2.108205E-16	1.028703E-17
5.430000E+03	2.119786E-16	1.030526E-17
5.440000E+03	2.130211E-16	1.031754E-17
5.450000E+03	2.139325E-16	1.032318E-17
5.460000E+03	2.146995E-16	1.032161E-17
5.470000E+03	2.153096E-16	1.031232E-17
5.480000E+03	2.157530E-16	1.029492E-17
5.490000E+03	2.160175E-16	1.026893E-17
5.500000E+03	2.160938E-16	1.023401E-17
5.510000E+03	2.159773E-16	1.019003E-17
5.520000E+03	2.156583E-16	1.013665E-17
5.530000E+03	2.151383E-16	1.007404E-17
5.540000E+03	2.144168E-16	1.000229E-17
5.550000E+03	2.134938E-16	9.921510E-18
5.560000E+03	2.123744E-16	9.832038E-18
5.570000E+03	2.110706E-16	9.734529E-18
5.580000E+03	2.095888E-16	9.629379E-18
5.590000E+03	2.079466E-16	9.517488E-18
5.600000E+03	2.061583E-16	9.399594E-18
5.610000E+03	2.042432E-16	9.276647E-18
5.620000E+03	2.022252E-16	9.149792E-18
5.630000E+03	2.001286E-16	9.020183E-18
5.640000E+03	1.979799E-16	8.889047E-18
5.650000E+03	1.958078E-16	8.757695E-18
5.660000E+03	1.936425E-16	8.627486E-18
5.670000E+03	1.915156E-16	8.499819E-18
5.680000E+03	1.894597E-16	8.376116E-18
5.690000E+03	1.875097E-16	8.257871E-18
5.700000E+03	1.856987E-16	8.146490E-18
5.710000E+03	1.840578E-16	8.043257E-18
5.720000E+03	1.826210E-16	7.949571E-18
5.730000E+03	1.814197E-16	7.866684E-18
5.740000E+03	1.804836E-16	7.795766E-18
5.750000E+03	1.798410E-16	7.737900E-18
5.760000E+03	1.795164E-16	7.693996E-18
5.770000E+03	1.795376E-16	7.665082E-18
5.780000E+03	1.799245E-16	7.651836E-18
5.790000E+03	1.806963E-16	7.654894E-18
5.800000E+03	1.818688E-16	7.674743E-18
5.810000E+03	1.834570E-16	7.711822E-18
5.820000E+03	1.854659E-16	7.766144E-18
5.830000E+03	1.879043E-16	7.837885E-18
5.840000E+03	1.907687E-16	7.926697E-18
5.850000E+03	1.940577E-16	8.032331E-18
5.860000E+03	1.977583E-16	8.154066E-18
5.870000E+03	2.018505E-16	8.290899E-18
5.880000E+03	2.063132E-16	8.441796E-18
5.890000E+03	2.111083E-16	8.605053E-18
5.900000E+03	2.161951E-16	8.778880E-18
5.910000E+03	2.215209E-16	8.961038E-18
5.920000E+03	2.270209E-16	9.148824E-18
5.930000E+03	2.326246E-16	9.339361E-18
5.940000E+03	2.382476E-16	9.529250E-18
5.950000E+03	2.437968E-16	9.714803E-18
5.960000E+03	2.491805E-16	9.892438E-18
5.970000E+03	2.542950E-16	1.005816E-17
5.980000E+03	2.590332E-16	1.020791E-17
5.990000E+03	2.633039E-16	1.033828E-17
6.000000E+03	2.670063E-16	1.044556E-17
6.010000E+03	2.700631E-16	1.052702E-17
6.020000E+03	2.724004E-16	1.058008E-17
6.030000E+03	2.739693E-16	1.060317E-17
6.040000E+03	2.747347E-16	1.059528E-17
6.050000E+03	2.746877E-16	1.055641E-17
6.060000E+03	2.738351E-16	1.048715E-17
6.070000E+03	2.722095E-16	1.038909E-17
6.080000E+03	2.698537E-16	1.026416E-17
6.090000E+03	2.668415E-16	1.011545E-17
6.100000E+03	2.632458E-16	9.945949E-18
6.110000E+03	2.591555E-16	9.759220E-18
6.120000E+03	2.546744E-16	9.559336E-18
6.130000E+03	2.498953E-16	9.349897E-18
6.140000E+03	2.449226E-16	9.134884E-18
6.150000E+03	2.398517E-16	8.917898E-18
6.160000E+03	2.347753E-16	8.702385E-18
6.170000E+03	2.297785E-16	8.491468E-18
6.180000E+03	2.249365E-16	8.287874E-18
6.190000E+03	2.203091E-16	8.093717E-18
6.200000E+03	2.159504E-16	7.910872E-18
6.210000E+03	2.118881E-16	7.740232E-18
6.220000E+03	2.081344E-16	7.582108E-18
6.230000E+03	2.046948E-16	7.436586E-18
6.240000E+03	2.015633E-16	7.303320E-18
6.250000E+03	1.987279E-16	7.181763E-18
6.260000E+03	1.961730E-16	7.071244E-18
6.270000E+03	1.938863E-16	6.971219E-18
6.280000E+03	1.918428E-16	6.880701E-18
6.290000E+03	1.900266E-16	6.799034E-18
6.300000E+03	1.884148E-16	6.725328E-18
6.310000E+03	1.869860E-16	6.658754E-18
6.320000E+03	1.857195E-16	6.598510E-18
6.330000E+03	1.845923E-16	6.543732E-18
6.340000E+03	1.835866E-16	6.493748E-18
6.350000E+03	1.826810E-16	6.447761E-18
6.360000E+03	1.818596E-16	6.405175E-18
6.370000E+03	1.811011E-16	6.365214E-18
6.380000E+03	1.803922E-16	6.327388E-18
6.390000E+03	1.797145E-16	6.291035E-18
6.400000E+03	1.790579E-16	6.255786E-18
6.410000E+03	1.784098E-16	6.221189E-18
6.420000E+03	1.777600E-16	6.186875E-18
6.430000E+03	1.771004E-16	6.152561E-18
6.440000E+03	1.764252E-16	6.118040E-18
6.450000E+03	1.757316E-16	6.083206E-18
6.460000E+03	1.750206E-16	6.048096E-18
6.470000E+03	1.742920E-16	6.012691E-18
6.480000E+03	1.735599E-16	5.977476E-18
6.490000E+03	1.728322E-16	5.942719E-18
6.500000E+03	1.721208E-16	5.908817E-18
6.510000E+03	1.714453E-16	5.876437E-18
6.520000E+03	1.708143E-16	5.845859E-18
6.530000E+03	1.702475E-16	5.817744E-18
6.540000E+03	1.697616E-16	5.792645E-18
6.550000E+03	1.693710E-16	5.771040E-18
6.560000E+03	1.690907E-16	5.753415E-18
6.570000E+03	1.689368E-16	5.740306E-18
6.580000E+03	1.689253E-16	5.732227E-18
6.590000E+03	1.690663E-16	5.729503E-18
6.600000E+03	1.693746E-16	5.732616E-18
6.610000E+03	1.698570E-16	5.741768E-18
6.620000E+03	1.705200E-16	5.757154E-18
6.630000E+03	1.713712E-16	5.779016E-18
6.640000E+03	1.724069E-16	5.807204E-18
6.650000E+03	1.736289E-16	5.841757E-18
6.660000E+03	1.750283E-16	5.882364E-18
6.670000E+03	1.765977E-16	5.928752E-18
6.680000E+03	1.783234E-16	5.980452E-18
6.690000E+03	1.801855E-16	6.036784E-18
6.700000E+03	1.821677E-16	6.097196E-18
6.710000E+03	1.842405E-16	6.160695E-18
6.720000E+03	1.863813E-16	6.226520E-18
6.730000E+03	1.885568E-16	6.293560E-18
6.740000E+03	1.907370E-16	6.360801E-18
6.750000E+03	1.928821E-16	6.426924E-18
6.760000E+03	1.949642E-16	6.490993E-18
6.770000E+03	1.969423E-16	6.551651E-18
6.780000E+03	1.987811E-16	6.607730E-18
6.790000E+03	2.004522E-16	6.658294E-18
6.800000E+03	2.019167E-16	6.702060E-18
6.810000E+03	2.031549E-16	6.738386E-18
6.820000E+03	2.041382E-16	6.766337E-18
6.830000E+03	2.048541E-16	6.785510E-18
6.840000E+03	2.052817E-16	6.795226E-18
6.850000E+03	2.054232E-16	6.795574E-18
6.860000E+03	2.052763E-16	6.786488E-18
6.870000E+03	2.048453E-16	6.768121E-18
6.880000E+03	2.041481E-16	6.741078E-18
6.890000E+03	2.032076E-16	6.706123E-18
6.900000E+03	2.020489E-16	6.664095E-18
6.910000E+03	2.007100E-16	6.616250E-18
6.920000E+03	1.992200E-16	6.563550E-18
6.930000E+03	1.976182E-16	6.507296E-18
6.940000E+03	1.959385E-16	6.448605E-18
6.950000E+03	1.942206E-16	6.388776E-18
6.960000E+03	1.924990E-16	6.328949E-18
6.970000E+03	1.908068E-16	6.270200E-18
6.980000E+03	1.891708E-16	6.213411E-18
6.990000E+03	1.876177E-16	6.159447E-18
7.000000E+03	1.861727E-16	6.109133E-18
7.010000E+03	1.848546E-16	6.063076E-18
7.020000E+03	1.836749E-16	6.021649E-18
7.030000E+03	1.826442E-16	5.985184E-18
7.040000E+03	1.817712E-16	5.953966E-18
7.050000E+03	1.810556E-16	5.927972E-18
7.060000E+03	1.804957E-16	5.907143E-18
7.070000E+03	1.800869E-16	5.891319E-18
7.080000E+03	1.798209E-16	5.880229E-18
7.090000E+03	1.796897E-16	5.873601E-18
7.100000E+03	1.796748E-16	5.870829E-18
7.110000E+03	1.797637E-16	5.871500E-18
7.120000E+03	1.799399E-16	5.875074E-18
7.130000E+03	1.801860E-16	5.880983E-18
7.140000E+03	1.804841E-16	5.888644E-18
7.150000E+03	1.808134E-16	5.897379E-18
7.160000E+03	1.811596E-16	5.906725E-18
7.170000E+03	1.815037E-16	5.916062E-18
7.180000E+03	1.818336E-16	5.925005E-18
7.190000E+03	1.821336E-16	5.933043E-18
7.200000E+03	1.823927E-16	5.939827E-18
7.210000E+03	1.826021E-16	5.945072E-18
7.220000E+03	1.827583E-16	5.948671E-18
7.230000E+03	1.828510E-16	5.950299E-18
7.240000E+03	1.828837E-16	5.950073E-18
7.250000E+03	1.828500E-16	5.947791E-18
7.260000E+03	1.827537E-16	5.943583E-18
7.270000E+03	1.825936E-16	5.937418E-18
7.280000E+03	1.823754E-16	5.929489E-18
7.290000E+03	1.821022E-16	5.919903E-18
7.300000E+03	1.817716E-16	5.908586E-18
7.310000E+03	1.813927E-16	5.895842E-18
7.320000E+03	1.809687E-16	5.881777E-18
7.330000E+03	1.804964E-16	5.866299E-18
7.340000E+03	1.799808E-16	5.849573E-18
7.350000E+03	1.794237E-16	5.831661E-18
7.360000E+03	1.788258E-16	5.812596E-18
7.370000E+03	1.781845E-16	5.792295E-18
7.380000E+03	1.775023E-16	5.770847E-18
7.390000E+03	1.767784E-16	5.748226E-18
7.400000E+03	1.760079E-16	5.724283E-18
7.410000E+03	1.751890E-16	5.698961E-18
7.420000E+03	1.743193E-16	5.672185E-18
7.430000E+03	1.733932E-16	5.643774E-18
7.440000E+03	1.724106E-16	5.613732E-18
7.450000E+03	1.713659E-16	5.581875E-18
7.460000E+03	1.702616E-16	5.548283E-18
7.470000E+03	1.690892E-16	5.512687E-18
7.480000E+03	1.678517E-16	5.475174E-18
7.490000E+03	1.665410E-16	5.435487E-18
7.500000E+03	1.651604E-16	5.393729E-18
7.510000E+03	1.637083E-16	5.349840E-18
7.520000E+03	1.621805E-16	5.303680E-18
7.530000E+03	1.605764E-16	5.255210E-18
7.540000E+03	1.588982E-16	5.204474E-18
7.550000E+03	1.571436E-16	5.151381E-18
7.560000E+03	1.553160E-16	5.096018E-18
7.570000E+03	1.534143E-16	5.038319E-18
7.580000E+03	1.514431E-16	4.978416E-18
7.590000E+03	1.494025E-16	4.916291E-18
7.600000E+03	1.473008E-16	4.852192E-18
7.610000E+03	1.451370E-16	4.786064E-18
7.620000E+03	1.429182E-16	4.718117E-18
7.630000E+03	1.406480E-16	4.648452E-18
7.640000E+03	1.383378E-16	4.577421E-18
7.650000E+03	1.359921E-16	4.505160E-18
7.660000E+03	1.336271E-16	4.432184E-18
7.670000E+03	1.312504E-16	4.358734E-18
7.680000E+03	1.288766E-16	4.285276E-18
7.690000E+03	1.265174E-16	4.212189E-18
7.700000E+03	1.241860E-16	4.139906E-18
7.710000E+03	1.218883E-16	4.068616E-18
7.720000E+03	1.196355E-16	3.998685E-18
7.730000E+03	1.174357E-16	3.930386E-18
7.740000E+03	1.152960E-16	3.863948E-18
7.750000E+03	1.132242E-16	3.799638E-18
7.760000E+03	1.112211E-16	3.737484E-18
