#wls	flux	fluxerr
1.600000E+03	5.989257E-19	1.110988E-19
1.640000E+03	5.863562E-19	1.086430E-19
1.680000E+03	5.749498E-19	1.064038E-19
1.720000E+03	5.644701E-19	1.043370E-19
1.760000E+03	5.550200E-19	1.024608E-19
1.800000E+03	5.465931E-19	1.007738E-19
1.840000E+03	5.392909E-19	9.929365E-20
1.880000E+03	5.331118E-19	9.801952E-20
1.920000E+03	5.280599E-19	9.695127E-20
1.960000E+03	5.242455E-19	9.610825E-20
2.000000E+03	5.216829E-19	9.549205E-20
2.040000E+03	5.203951E-19	9.510580E-20
2.080000E+03	5.205120E-19	9.497199E-20
2.120000E+03	5.220749E-19	9.509676E-20
2.160000E+03	5.252343E-19	9.550602E-20
2.200000E+03	5.299598E-19	9.619253E-20
2.240000E+03	5.364323E-19	9.718725E-20
2.280000E+03	5.447527E-19	9.850638E-20
2.320000E+03	5.550432E-19	1.001697E-19
2.360000E+03	5.674491E-19	1.022007E-19
2.400000E+03	5.820407E-19	1.046094E-19
2.440000E+03	5.991188E-19	1.074464E-19
2.480000E+03	6.190251E-19	1.107695E-19
2.520000E+03	6.418281E-19	1.145865E-19
2.560000E+03	6.678443E-19	1.189494E-19
2.600000E+03	6.976671E-19	1.239584E-19
2.640000E+03	7.315122E-19	1.296457E-19
2.680000E+03	7.700001E-19	1.361139E-19
2.720000E+03	8.137252E-19	1.434601E-19
2.760000E+03	8.633806E-19	1.517966E-19
2.800000E+03	9.197736E-19	1.612543E-19
2.840000E+03	9.838443E-19	1.719851E-19
2.880000E+03	1.056837E-18	1.841911E-19
2.920000E+03	1.140050E-18	1.980807E-19
2.960000E+03	1.235497E-18	2.139822E-19
3.000000E+03	1.345029E-18	2.321907E-19
3.010000E+03	1.374982E-18	2.371636E-19
3.020000E+03	1.405874E-18	2.422885E-19
3.030000E+03	1.438112E-18	2.476348E-19
3.040000E+03	1.471368E-18	2.531456E-19
3.050000E+03	1.505872E-18	2.588596E-19
3.060000E+03	1.541867E-18	2.648181E-19
3.070000E+03	1.579010E-18	2.709614E-19
3.080000E+03	1.617748E-18	2.773656E-19
3.090000E+03	1.657732E-18	2.839700E-19
3.100000E+03	1.699425E-18	2.908532E-19
3.110000E+03	1.742898E-18	2.980263E-19
3.120000E+03	1.787779E-18	3.054250E-19
3.130000E+03	1.834566E-18	3.131334E-19
3.140000E+03	1.883334E-18	3.211632E-19
3.150000E+03	1.933929E-18	3.294873E-19
3.160000E+03	1.986418E-18	3.381159E-19
3.170000E+03	2.041358E-18	3.471426E-19
3.180000E+03	2.098352E-18	3.564989E-19
3.190000E+03	2.157731E-18	3.662396E-19
3.200000E+03	2.219332E-18	3.763357E-19
3.210000E+03	2.283759E-18	3.868882E-19
3.220000E+03	2.350858E-18	3.978698E-19
3.230000E+03	2.420737E-18	4.092969E-19
3.240000E+03	2.493781E-18	4.212330E-19
3.250000E+03	2.569832E-18	4.336497E-19
3.260000E+03	2.649005E-18	4.465647E-19
3.270000E+03	2.731718E-18	4.600463E-19
3.280000E+03	2.817806E-18	4.740650E-19
3.290000E+03	2.908017E-18	4.887444E-19
3.300000E+03	3.001889E-18	5.040044E-19
3.310000E+03	3.099876E-18	5.199192E-19
3.320000E+03	3.202474E-18	5.365692E-19
3.330000E+03	3.309189E-18	5.538692E-19
3.340000E+03	3.421208E-18	5.720149E-19
3.350000E+03	3.537688E-18	5.908627E-19
3.360000E+03	3.659871E-18	6.106167E-19
3.370000E+03	3.787250E-18	6.311891E-19
3.380000E+03	3.920390E-18	6.526708E-19
3.390000E+03	4.059512E-18	6.750949E-19
3.400000E+03	4.205235E-18	6.985605E-19
3.410000E+03	4.357408E-18	7.230387E-19
3.420000E+03	4.516269E-18	7.485644E-19
3.430000E+03	4.682476E-18	7.752429E-19
3.440000E+03	4.856305E-18	8.031149E-19
3.450000E+03	5.038031E-18	8.322208E-19
3.460000E+03	5.227937E-18	8.626025E-19
3.470000E+03	5.426773E-18	8.943783E-19
3.480000E+03	5.634385E-18	9.275169E-19
3.490000E+03	5.851553E-18	9.621411E-19
3.500000E+03	6.078107E-18	9.982166E-19
3.510000E+03	6.315365E-18	1.035953E-18
3.520000E+03	6.562651E-18	1.075234E-18
3.530000E+03	6.821333E-18	1.116274E-18
3.540000E+03	7.091779E-18	1.159128E-18
3.550000E+03	7.373805E-18	1.203758E-18
3.560000E+03	7.668311E-18	1.250301E-18
3.570000E+03	7.975082E-18	1.298715E-18
3.580000E+03	8.295636E-18	1.349238E-18
3.590000E+03	8.630372E-18	1.401926E-18
3.600000E+03	8.978431E-18	1.456628E-18
3.610000E+03	9.342031E-18	1.513696E-18
3.620000E+03	9.720282E-18	1.572974E-18
3.630000E+03	1.011417E-17	1.634612E-18
3.640000E+03	1.052405E-17	1.698655E-18
3.650000E+03	1.095025E-17	1.765145E-18
3.660000E+03	1.139379E-17	1.834235E-18
3.670000E+03	1.185431E-17	1.905853E-18
3.680000E+03	1.233279E-17	1.980146E-18
3.690000E+03	1.282953E-17	2.057146E-18
3.700000E+03	1.334404E-17	2.136764E-18
3.710000E+03	1.387806E-17	2.219265E-18
3.720000E+03	1.443024E-17	2.304416E-18
3.730000E+03	1.500235E-17	2.392488E-18
3.740000E+03	1.559371E-17	2.483355E-18
3.750000E+03	1.620441E-17	2.577020E-18
3.760000E+03	1.683534E-17	2.673608E-18
3.770000E+03	1.748657E-17	2.773112E-18
3.780000E+03	1.815717E-17	2.875371E-18
3.790000E+03	1.884796E-17	2.980499E-18
3.800000E+03	1.955880E-17	3.088458E-18
3.810000E+03	2.028953E-17	3.199206E-18
3.820000E+03	2.103992E-17	3.312691E-18
3.830000E+03	2.180966E-17	3.428847E-18
3.840000E+03	2.259741E-17	3.547449E-18
3.850000E+03	2.340472E-17	3.668724E-18
3.860000E+03	2.423012E-17	3.792425E-18
3.870000E+03	2.507307E-17	3.918453E-18
3.880000E+03	2.593296E-17	4.046695E-18
3.890000E+03	2.680911E-17	4.177032E-18
3.900000E+03	2.770078E-17	4.309335E-18
3.910000E+03	2.860719E-17	4.443467E-18
3.920000E+03	2.952749E-17	4.579282E-18
3.930000E+03	3.046189E-17	4.716799E-18
3.940000E+03	3.140721E-17	4.855515E-18
3.950000E+03	3.236248E-17	4.995267E-18
3.960000E+03	3.332888E-17	5.136226E-18
3.970000E+03	3.430312E-17	5.277877E-18
3.980000E+03	3.528527E-17	5.420217E-18
3.990000E+03	3.627305E-17	5.562890E-18
4.000000E+03	3.726657E-17	5.705904E-18
4.010000E+03	3.826356E-17	5.848906E-18
4.020000E+03	3.926296E-17	5.991725E-18
4.030000E+03	4.026253E-17	6.134018E-18
4.040000E+03	4.126367E-17	6.275990E-18
4.050000E+03	4.226185E-17	6.416953E-18
4.060000E+03	4.325981E-17	6.557318E-18
4.070000E+03	4.425314E-17	6.696414E-18
4.080000E+03	4.524233E-17	6.834317E-18
4.090000E+03	4.622676E-17	6.970934E-18
4.100000E+03	4.720597E-17	7.106194E-18
4.110000E+03	4.817710E-17	7.239669E-18
4.120000E+03	4.914113E-17	7.371509E-18
4.130000E+03	5.009795E-17	7.501698E-18
4.140000E+03	5.104754E-17	7.630239E-18
4.150000E+03	5.198759E-17	7.756787E-18
4.160000E+03	5.291965E-17	7.881579E-18
4.170000E+03	5.384290E-17	8.004495E-18
4.180000E+03	5.475791E-17	8.125625E-18
4.190000E+03	5.566418E-17	8.244898E-18
4.200000E+03	5.656378E-17	8.362625E-18
4.210000E+03	5.745647E-17	8.478771E-18
4.220000E+03	5.834212E-17	8.593323E-18
4.230000E+03	5.922198E-17	8.706463E-18
4.240000E+03	6.009736E-17	8.818390E-18
4.250000E+03	6.096848E-17	8.929134E-18
4.260000E+03	6.183565E-17	9.038743E-18
4.270000E+03	6.270173E-17	9.147632E-18
4.280000E+03	6.356591E-17	9.255685E-18
4.290000E+03	6.443117E-17	9.363332E-18
4.300000E+03	6.529685E-17	9.470473E-18
4.310000E+03	6.616595E-17	9.577542E-18
4.320000E+03	6.703790E-17	9.684447E-18
4.330000E+03	6.791569E-17	9.791617E-18
4.340000E+03	6.879873E-17	9.898959E-18
4.350000E+03	6.968999E-17	1.000689E-17
4.360000E+03	7.058875E-17	1.011530E-17
4.370000E+03	7.149792E-17	1.022460E-17
4.380000E+03	7.241783E-17	1.033481E-17
4.390000E+03	7.334876E-17	1.044598E-17
4.400000E+03	7.429206E-17	1.055827E-17
4.410000E+03	7.524895E-17	1.067184E-17
4.420000E+03	7.621930E-17	1.078667E-17
4.430000E+03	7.720277E-17	1.090270E-17
4.440000E+03	7.820127E-17	1.102016E-17
4.450000E+03	7.921409E-17	1.113896E-17
4.460000E+03	8.024026E-17	1.125894E-17
4.470000E+03	8.127978E-17	1.138007E-17
4.480000E+03	8.233362E-17	1.150249E-17
4.490000E+03	8.339877E-17	1.162576E-17
4.500000E+03	8.447561E-17	1.174992E-17
4.510000E+03	8.556295E-17	1.187479E-17
4.520000E+03	8.665806E-17	1.199997E-17
4.530000E+03	8.776034E-17	1.212538E-17
4.540000E+03	8.886509E-17	1.225036E-17
4.550000E+03	8.997224E-17	1.237490E-17
4.560000E+03	9.107764E-17	1.249842E-17
4.570000E+03	9.217677E-17	1.262029E-17
4.580000E+03	9.326859E-17	1.274039E-17
4.590000E+03	9.434668E-17	1.285785E-17
4.600000E+03	9.540813E-17	1.297227E-17
4.610000E+03	9.644858E-17	1.308307E-17
4.620000E+03	9.746219E-17	1.318950E-17
4.630000E+03	9.844426E-17	1.329093E-17
4.640000E+03	9.939265E-17	1.338711E-17
4.650000E+03	1.002988E-16	1.347692E-17
4.660000E+03	1.011594E-16	1.355995E-17
4.670000E+03	1.019714E-16	1.363584E-17
4.680000E+03	1.027281E-16	1.370374E-17
4.690000E+03	1.034271E-16	1.376339E-17
4.700000E+03	1.040640E-16	1.381425E-17
4.710000E+03	1.046361E-16	1.385604E-17
4.720000E+03	1.051417E-16	1.388857E-17
4.730000E+03	1.055781E-16	1.391159E-17
4.740000E+03	1.059465E-16	1.392528E-17
4.750000E+03	1.062434E-16	1.392928E-17
4.760000E+03	1.064728E-16	1.392418E-17
4.770000E+03	1.066359E-16	1.391019E-17
4.780000E+03	1.067345E-16	1.388763E-17
4.790000E+03	1.067739E-16	1.385726E-17
4.800000E+03	1.067591E-16	1.381975E-17
4.810000E+03	1.066968E-16	1.377606E-17
4.820000E+03	1.065944E-16	1.372717E-17
4.830000E+03	1.064585E-16	1.367397E-17
4.840000E+03	1.062960E-16	1.361739E-17
4.850000E+03	1.061166E-16	1.355869E-17
4.860000E+03	1.059286E-16	1.349895E-17
4.870000E+03	1.057378E-16	1.343893E-17
4.880000E+03	1.055525E-16	1.337967E-17
4.890000E+03	1.053805E-16	1.332214E-17
4.900000E+03	1.052292E-16	1.326729E-17
4.910000E+03	1.051044E-16	1.321582E-17
4.920000E+03	1.050114E-16	1.316838E-17
4.930000E+03	1.049552E-16	1.312553E-17
4.940000E+03	1.049421E-16	1.308806E-17
4.950000E+03	1.049759E-16	1.305637E-17
4.960000E+03	1.050581E-16	1.303062E-17
4.970000E+03	1.051923E-16	1.301120E-17
4.980000E+03	1.053800E-16	1.299824E-17
4.990000E+03	1.056233E-16	1.299195E-17
5.000000E+03	1.059224E-16	1.299229E-17
5.010000E+03	1.062770E-16	1.299917E-17
5.020000E+03	1.066863E-16	1.301242E-17
5.030000E+03	1.071488E-16	1.303182E-17
5.040000E+03	1.076637E-16	1.305720E-17
5.050000E+03	1.082289E-16	1.308825E-17
5.060000E+03	1.088418E-16	1.312462E-17
5.070000E+03	1.094984E-16	1.316577E-17
5.080000E+03	1.101980E-16	1.321158E-17
5.090000E+03	1.109368E-16	1.326151E-17
5.100000E+03	1.117113E-16	1.331515E-17
5.110000E+03	1.125204E-16	1.337230E-17
5.120000E+03	1.133584E-16	1.343225E-17
5.130000E+03	1.142267E-16	1.349515E-17
5.140000E+03	1.151204E-16	1.356038E-17
5.150000E+03	1.160388E-16	1.362783E-17
5.160000E+03	1.169788E-16	1.369710E-17
5.170000E+03	1.179401E-16	1.376814E-17
5.180000E+03	1.189200E-16	1.384062E-17
5.190000E+03	1.199200E-16	1.391468E-17
5.200000E+03	1.209364E-16	1.398988E-17
5.210000E+03	1.219698E-16	1.406626E-17
5.220000E+03	1.230175E-16	1.414350E-17
5.230000E+03	1.240814E-16	1.422179E-17
5.240000E+03	1.251576E-16	1.430067E-17
5.250000E+03	1.262461E-16	1.438014E-17
5.260000E+03	1.273439E-16	1.445982E-17
5.270000E+03	1.284517E-16	1.453979E-17
5.280000E+03	1.295647E-16	1.461951E-17
5.290000E+03	1.306799E-16	1.469862E-17
5.300000E+03	1.317957E-16	1.477696E-17
5.310000E+03	1.329085E-16	1.485409E-17
5.320000E+03	1.340129E-16	1.492943E-17
5.330000E+03	1.351055E-16	1.500262E-17
5.340000E+03	1.361800E-16	1.507296E-17
5.350000E+03	1.372324E-16	1.514004E-17
5.360000E+03	1.382552E-16	1.520306E-17
5.370000E+03	1.392422E-16	1.526136E-17
5.380000E+03	1.401870E-16	1.531428E-17
5.390000E+03	1.410840E-16	1.536127E-17
5.400000E+03	1.419249E-16	1.540148E-17
5.410000E+03	1.427013E-16	1.543405E-17
5.420000E+03	1.434093E-16	1.545864E-17
5.430000E+03	1.440410E-16	1.547448E-17
5.440000E+03	1.445887E-16	1.548082E-17
5.450000E+03	1.450493E-16	1.547744E-17
5.460000E+03	1.454150E-16	1.546358E-17
5.470000E+03	1.456824E-16	1.543902E-17
5.480000E+03	1.458465E-16	1.540330E-17
5.490000E+03	1.459071E-16	1.535655E-17
5.500000E+03	1.458593E-16	1.529836E-17
5.510000E+03	1.457050E-16	1.522904E-17
5.520000E+03	1.454444E-16	1.514875E-17
5.530000E+03	1.450786E-16	1.505771E-17
5.540000E+03	1.446089E-16	1.495617E-17
5.550000E+03	1.440416E-16	1.484490E-17
5.560000E+03	1.433787E-16	1.472422E-17
5.570000E+03	1.426265E-16	1.459488E-17
5.580000E+03	1.417923E-16	1.445772E-17
5.590000E+03	1.408857E-16	1.431381E-17
5.600000E+03	1.399151E-16	1.416408E-17
5.610000E+03	1.388910E-16	1.400967E-17
5.620000E+03	1.378249E-16	1.385180E-17
5.630000E+03	1.367289E-16	1.369173E-17
5.640000E+03	1.356163E-16	1.353081E-17
5.650000E+03	1.345003E-16	1.337039E-17
5.660000E+03	1.333951E-16	1.321187E-17
5.670000E+03	1.323133E-16	1.305649E-17
5.680000E+03	1.312720E-16	1.290591E-17
5.690000E+03	1.302825E-16	1.276120E-17
5.700000E+03	1.293603E-16	1.262382E-17
5.710000E+03	1.285187E-16	1.249498E-17
5.720000E+03	1.277696E-16	1.237576E-17
5.730000E+03	1.271251E-16	1.226723E-17
5.740000E+03	1.265979E-16	1.217050E-17
5.750000E+03	1.261973E-16	1.208633E-17
5.760000E+03	1.259326E-16	1.201548E-17
5.770000E+03	1.258133E-16	1.195870E-17
5.780000E+03	1.258433E-16	1.191623E-17
5.790000E+03	1.260282E-16	1.188843E-17
5.800000E+03	1.263741E-16	1.187570E-17
5.810000E+03	1.268793E-16	1.187773E-17
5.820000E+03	1.275475E-16	1.189470E-17
5.830000E+03	1.283731E-16	1.192591E-17
5.840000E+03	1.293534E-16	1.197096E-17
5.850000E+03	1.304821E-16	1.202910E-17
5.860000E+03	1.317492E-16	1.209929E-17
5.870000E+03	1.331450E-16	1.218048E-17
5.880000E+03	1.346556E-16	1.227128E-17
5.890000E+03	1.362622E-16	1.236989E-17
5.900000E+03	1.379472E-16	1.247462E-17
5.910000E+03	1.396894E-16	1.258348E-17
5.920000E+03	1.414649E-16	1.269430E-17
5.930000E+03	1.432454E-16	1.280452E-17
5.940000E+03	1.450066E-16	1.291199E-17
5.950000E+03	1.467184E-16	1.301407E-17
5.960000E+03	1.483506E-16	1.310816E-17
5.970000E+03	1.498756E-16	1.319193E-17
5.980000E+03	1.512653E-16	1.326305E-17
5.990000E+03	1.524920E-16	1.331924E-17
6.000000E+03	1.535302E-16	1.335847E-17
6.010000E+03	1.543619E-16	1.337938E-17
6.020000E+03	1.549691E-16	1.338064E-17
6.030000E+03	1.553391E-16	1.336140E-17
6.040000E+03	1.554631E-16	1.332114E-17
6.050000E+03	1.553418E-16	1.326018E-17
6.060000E+03	1.549750E-16	1.317877E-17
6.070000E+03	1.543725E-16	1.307795E-17
6.080000E+03	1.535489E-16	1.295920E-17
6.090000E+03	1.525184E-16	1.282395E-17
6.100000E+03	1.513048E-16	1.267438E-17
6.110000E+03	1.499324E-16	1.251269E-17
6.120000E+03	1.484274E-16	1.234120E-17
6.130000E+03	1.468185E-16	1.216243E-17
6.140000E+03	1.451338E-16	1.197878E-17
6.150000E+03	1.434012E-16	1.179261E-17
6.160000E+03	1.416513E-16	1.160648E-17
6.170000E+03	1.399076E-16	1.142230E-17
6.180000E+03	1.381955E-16	1.124214E-17
6.190000E+03	1.365337E-16	1.106747E-17
6.200000E+03	1.349390E-16	1.089960E-17
6.210000E+03	1.334239E-16	1.073947E-17
6.220000E+03	1.319949E-16	1.058750E-17
6.230000E+03	1.306621E-16	1.044442E-17
6.240000E+03	1.294277E-16	1.031032E-17
6.250000E+03	1.282938E-16	1.018526E-17
6.260000E+03	1.272592E-16	1.006907E-17
6.270000E+03	1.263235E-16	9.961622E-18
6.280000E+03	1.254830E-16	9.862537E-18
6.290000E+03	1.247320E-16	9.771286E-18
6.300000E+03	1.240645E-16	9.687321E-18
6.310000E+03	1.234751E-16	9.610167E-18
6.320000E+03	1.229556E-16	9.539103E-18
6.330000E+03	1.224993E-16	9.473573E-18
6.340000E+03	1.220987E-16	9.412939E-18
6.350000E+03	1.217449E-16	9.356476E-18
6.360000E+03	1.214327E-16	9.303741E-18
6.370000E+03	1.211524E-16	9.253979E-18
6.380000E+03	1.208996E-16	9.206819E-18
6.390000E+03	1.206671E-16	9.161689E-18
6.400000E+03	1.204491E-16	9.118150E-18
6.410000E+03	1.202410E-16	9.075838E-18
6.420000E+03	1.200399E-16	9.034527E-18
6.430000E+03	1.198431E-16	8.994003E-18
6.440000E+03	1.196482E-16	8.954095E-18
6.450000E+03	1.194543E-16	8.914730E-18
6.460000E+03	1.192622E-16	8.875968E-18
6.470000E+03	1.190742E-16	8.837973E-18
6.480000E+03	1.188918E-16	8.800856E-18
6.490000E+03	1.187198E-16	8.764981E-18
6.500000E+03	1.185604E-16	8.730488E-18
6.510000E+03	1.184185E-16	8.697738E-18
6.520000E+03	1.182962E-16	8.666869E-18
6.530000E+03	1.181991E-16	8.638295E-18
6.540000E+03	1.181311E-16	8.612278E-18
6.550000E+03	1.180985E-16	8.589260E-18
6.560000E+03	1.181075E-16	8.569690E-18
6.570000E+03	1.181618E-16	8.553805E-18
6.580000E+03	1.182681E-16	8.542073E-18
6.590000E+03	1.184305E-16	8.534763E-18
6.600000E+03	1.186522E-16	8.532098E-18
6.610000E+03	1.189370E-16	8.534319E-18
6.620000E+03	1.192877E-16	8.541599E-18
6.630000E+03	1.197049E-16	8.553971E-18
6.640000E+03	1.201881E-16	8.571369E-18
6.650000E+03	1.207354E-16	8.593649E-18
6.660000E+03	1.213465E-16	8.620763E-18
6.670000E+03	1.220144E-16	8.652211E-18
6.680000E+03	1.227363E-16	8.687769E-18
6.690000E+03	1.235038E-16	8.726846E-18
6.700000E+03	1.243099E-16	8.768948E-18
6.710000E+03	1.251453E-16	8.813418E-18
6.720000E+03	1.259998E-16	8.859535E-18
6.730000E+03	1.268630E-16	8.906583E-18
6.740000E+03	1.277203E-16	8.953520E-18
6.750000E+03	1.285619E-16	8.999668E-18
6.760000E+03	1.293732E-16	9.044011E-18
6.770000E+03	1.301425E-16	9.085738E-18
6.780000E+03	1.308555E-16	9.123864E-18
6.790000E+03	1.315010E-16	9.157620E-18
6.800000E+03	1.320672E-16	9.186198E-18
6.810000E+03	1.325418E-16	9.208764E-18
6.820000E+03	1.329168E-16	9.224774E-18
6.830000E+03	1.331859E-16	9.233806E-18
6.840000E+03	1.333383E-16	9.235136E-18
6.850000E+03	1.333751E-16	9.228847E-18
6.860000E+03	1.332929E-16	9.214729E-18
6.870000E+03	1.330919E-16	9.192798E-18
6.880000E+03	1.327797E-16	9.163588E-18
6.890000E+03	1.323610E-16	9.127447E-18
6.900000E+03	1.318480E-16	9.085203E-18
6.910000E+03	1.312525E-16	9.037688E-18
6.920000E+03	1.305882E-16	8.985831E-18
6.930000E+03	1.298691E-16	8.930592E-18
6.940000E+03	1.291079E-16	8.872851E-18
6.950000E+03	1.283207E-16	8.813692E-18
6.960000E+03	1.275214E-16	8.754068E-18
6.970000E+03	1.267215E-16	8.694756E-18
6.980000E+03	1.259351E-16	8.636708E-18
6.990000E+03	1.251731E-16	8.580664E-18
7.000000E+03	1.244424E-16	8.527086E-18
7.010000E+03	1.237561E-16	8.476849E-18
7.020000E+03	1.231170E-16	8.430131E-18
7.030000E+03	1.225331E-16	8.387483E-18
7.040000E+03	1.220060E-16	8.348988E-18
7.050000E+03	1.215412E-16	8.315016E-18
7.060000E+03	1.211369E-16	8.285433E-18
7.070000E+03	1.207945E-16	8.260328E-18
7.080000E+03	1.205129E-16	8.239615E-18
7.090000E+03	1.202881E-16	8.223021E-18
7.100000E+03	1.201168E-16	8.210304E-18
7.110000E+03	1.199964E-16	8.201281E-18
7.120000E+03	1.199190E-16	8.195418E-18
7.130000E+03	1.198820E-16	8.192527E-18
7.140000E+03	1.198755E-16	8.191931E-18
7.150000E+03	1.198974E-16	8.193490E-18
7.160000E+03	1.199375E-16	8.196494E-18
7.170000E+03	1.199924E-16	8.200711E-18
7.180000E+03	1.200530E-16	8.205527E-18
7.190000E+03	1.201150E-16	8.210646E-18
7.200000E+03	1.201715E-16	8.215593E-18
7.210000E+03	1.202186E-16	8.220097E-18
7.220000E+03	1.202487E-16	8.223648E-18
7.230000E+03	1.202605E-16	8.226145E-18
7.240000E+03	1.202455E-16	8.227019E-18
7.250000E+03	1.202049E-16	8.226339E-18
7.260000E+03	1.201310E-16	8.223590E-18
7.270000E+03	1.200230E-16	8.218704E-18
7.280000E+03	1.198769E-16	8.211411E-18
7.290000E+03	1.196939E-16	8.201790E-18
7.300000E+03	1.194678E-16	8.189410E-18
7.310000E+03	1.191985E-16	8.174272E-18
7.320000E+03	1.188849E-16	8.156291E-18
7.330000E+03	1.185259E-16	8.135389E-18
7.340000E+03	1.181204E-16	8.111488E-18
7.350000E+03	1.176662E-16	8.084426E-18
7.360000E+03	1.171627E-16	8.054160E-18
7.370000E+03	1.166091E-16	8.020635E-18
7.380000E+03	1.160050E-16	7.983808E-18
7.390000E+03	1.153500E-16	7.943652E-18
7.400000E+03	1.146452E-16	7.900237E-18
7.410000E+03	1.138877E-16	7.853349E-18
7.420000E+03	1.130791E-16	7.803088E-18
7.430000E+03	1.122194E-16	7.749453E-18
7.440000E+03	1.113077E-16	7.692368E-18
7.450000E+03	1.103474E-16	7.632064E-18
7.460000E+03	1.093368E-16	7.568399E-18
7.470000E+03	1.082782E-16	7.501535E-18
7.480000E+03	1.071717E-16	7.431459E-18
7.490000E+03	1.060216E-16	7.358462E-18
7.500000E+03	1.048259E-16	7.282383E-18
7.510000E+03	1.035906E-16	7.203636E-18
7.520000E+03	1.023155E-16	7.122187E-18
7.530000E+03	1.010045E-16	7.038280E-18
7.540000E+03	9.966031E-17	6.952084E-18
7.550000E+03	9.828476E-17	6.863694E-18
7.560000E+03	9.688231E-17	6.773403E-18
7.570000E+03	9.545754E-17	6.681507E-18
7.580000E+03	9.401160E-17	6.588065E-18
7.590000E+03	9.254939E-17	6.493398E-18
7.600000E+03	9.107476E-17	6.397760E-18
7.610000E+03	8.959279E-17	6.301489E-18
7.620000E+03	8.810632E-17	6.204768E-18
7.630000E+03	8.661947E-17	6.107873E-18
7.640000E+03	8.513746E-17	6.011161E-18
7.650000E+03	8.366338E-17	5.914837E-18
7.660000E+03	8.220247E-17	5.819264E-18
7.670000E+03	8.075882E-17	5.724723E-18
7.680000E+03	7.933637E-17	5.631488E-18
7.690000E+03	7.793777E-17	5.539746E-18
7.700000E+03	7.656858E-17	5.449886E-18
7.710000E+03	7.523087E-17	5.362058E-18
7.720000E+03	7.392752E-17	5.276468E-18
7.730000E+03	7.266100E-17	5.193295E-18
7.740000E+03	7.143346E-17	5.112698E-18
7.750000E+03	7.024670E-17	5.034809E-18
7.760000E+03	6.910306E-17	4.959802E-18
