#wls	flux	fluxerr
1.600000E+03	7.146233E-19	8.056173E-20
1.640000E+03	7.049617E-19	7.941536E-20
1.680000E+03	6.963722E-19	7.838945E-20
1.720000E+03	6.888575E-19	7.748409E-20
1.760000E+03	6.822915E-19	7.668482E-20
1.800000E+03	6.768206E-19	7.600785E-20
1.840000E+03	6.725913E-19	7.546930E-20
1.880000E+03	6.696213E-19	7.507080E-20
1.920000E+03	6.678055E-19	7.480019E-20
1.960000E+03	6.673062E-19	7.467524E-20
2.000000E+03	6.681620E-19	7.469983E-20
2.040000E+03	6.705494E-19	7.489317E-20
2.080000E+03	6.745255E-19	7.526107E-20
2.120000E+03	6.801596E-19	7.581059E-20
2.160000E+03	6.874031E-19	7.653567E-20
2.200000E+03	6.966120E-19	7.747516E-20
2.240000E+03	7.079010E-19	7.864095E-20
2.280000E+03	7.212710E-19	8.003216E-20
2.320000E+03	7.371434E-19	8.169448E-20
2.360000E+03	7.554295E-19	8.361682E-20
2.400000E+03	7.766092E-19	8.585099E-20
2.440000E+03	8.007865E-19	8.840691E-20
2.480000E+03	8.283807E-19	9.132913E-20
2.520000E+03	8.597155E-19	9.465135E-20
2.560000E+03	8.951627E-19	9.841225E-20
2.600000E+03	9.353043E-19	1.026732E-19
2.640000E+03	9.806409E-19	1.074863E-19
2.680000E+03	1.031913E-18	1.129291E-19
2.720000E+03	1.089619E-18	1.190524E-19
2.760000E+03	1.155051E-18	1.259926E-19
2.800000E+03	1.228937E-18	1.338240E-19
2.840000E+03	1.312700E-18	1.426953E-19
2.880000E+03	1.407766E-18	1.527544E-19
2.920000E+03	1.515558E-18	1.641470E-19
2.960000E+03	1.638604E-18	1.771371E-19
3.000000E+03	1.779120E-18	1.919523E-19
3.010000E+03	1.817323E-18	1.959769E-19
3.020000E+03	1.856785E-18	2.001323E-19
3.030000E+03	1.897795E-18	2.044498E-19
3.040000E+03	1.939893E-18	2.088793E-19
3.050000E+03	1.983889E-18	2.135078E-19
3.060000E+03	2.029057E-18	2.182569E-19
3.070000E+03	2.075965E-18	2.231873E-19
3.080000E+03	2.124396E-18	2.282755E-19
3.090000E+03	2.174675E-18	2.335559E-19
3.100000E+03	2.226859E-18	2.390345E-19
3.110000E+03	2.280729E-18	2.446872E-19
3.120000E+03	2.336623E-18	2.505500E-19
3.130000E+03	2.394606E-18	2.566295E-19
3.140000E+03	2.454745E-18	2.629324E-19
3.150000E+03	2.516808E-18	2.694334E-19
3.160000E+03	2.581465E-18	2.762037E-19
3.170000E+03	2.648178E-18	2.831855E-19
3.180000E+03	2.717643E-18	2.904526E-19
3.190000E+03	2.789628E-18	2.979796E-19
3.200000E+03	2.864212E-18	3.057745E-19
3.210000E+03	2.941475E-18	3.138452E-19
3.220000E+03	3.021498E-18	3.221997E-19
3.230000E+03	3.104711E-18	3.308834E-19
3.240000E+03	3.191216E-18	3.399064E-19
3.250000E+03	3.280761E-18	3.492413E-19
3.260000E+03	3.373799E-18	3.589354E-19
3.270000E+03	3.470438E-18	3.689996E-19
3.280000E+03	3.570416E-18	3.794051E-19
3.290000E+03	3.674591E-18	3.902425E-19
3.300000E+03	3.782319E-18	4.014424E-19
3.310000E+03	3.894491E-18	4.130986E-19
3.320000E+03	4.010843E-18	4.251819E-19
3.330000E+03	4.131495E-18	4.377043E-19
3.340000E+03	4.256988E-18	4.507220E-19
3.350000E+03	4.387042E-18	4.642044E-19
3.360000E+03	4.522216E-18	4.782095E-19
3.370000E+03	4.662659E-18	4.927517E-19
3.380000E+03	4.808072E-18	5.077985E-19
3.390000E+03	4.959496E-18	5.234584E-19
3.400000E+03	5.116179E-18	5.396508E-19
3.410000E+03	5.279194E-18	5.564876E-19
3.420000E+03	5.448239E-18	5.739353E-19
3.430000E+03	5.623956E-18	5.920603E-19
3.440000E+03	5.806026E-18	6.108272E-19
3.450000E+03	5.995109E-18	6.303042E-19
3.460000E+03	6.191383E-18	6.505079E-19
3.470000E+03	6.395023E-18	6.714553E-19
3.480000E+03	6.606207E-18	6.931631E-19
3.490000E+03	6.825650E-18	7.157045E-19
3.500000E+03	7.052446E-18	7.389824E-19
3.510000E+03	7.288420E-18	7.631862E-19
3.520000E+03	7.532650E-18	7.882173E-19
3.530000E+03	7.785878E-18	8.141508E-19
3.540000E+03	8.047694E-18	8.409419E-19
3.550000E+03	8.319450E-18	8.687296E-19
3.560000E+03	8.601349E-18	8.975323E-19
3.570000E+03	8.892964E-18	9.273032E-19
3.580000E+03	9.194450E-18	9.580559E-19
3.590000E+03	9.507243E-18	9.899370E-19
3.600000E+03	9.830235E-18	1.022829E-18
3.610000E+03	1.016422E-17	1.056811E-18
3.620000E+03	1.051001E-17	1.091965E-18
3.630000E+03	1.086711E-17	1.128235E-18
3.640000E+03	1.123631E-17	1.165702E-18
3.650000E+03	1.161776E-17	1.204378E-18
3.660000E+03	1.201159E-17	1.244273E-18
3.670000E+03	1.241790E-17	1.285393E-18
3.680000E+03	1.283678E-17	1.327744E-18
3.690000E+03	1.326905E-17	1.371408E-18
3.700000E+03	1.371404E-17	1.416312E-18
3.710000E+03	1.417253E-17	1.462534E-18
3.720000E+03	1.464459E-17	1.510074E-18
3.730000E+03	1.513100E-17	1.559012E-18
3.740000E+03	1.563100E-17	1.609264E-18
3.750000E+03	1.614456E-17	1.660823E-18
3.760000E+03	1.667244E-17	1.713765E-18
3.770000E+03	1.721458E-17	1.768077E-18
3.780000E+03	1.777092E-17	1.823750E-18
3.790000E+03	1.834219E-17	1.880855E-18
3.800000E+03	1.892656E-17	1.939200E-18
3.810000E+03	1.952647E-17	1.999030E-18
3.820000E+03	2.014001E-17	2.060144E-18
3.830000E+03	2.076696E-17	2.122518E-18
3.840000E+03	2.140886E-17	2.186304E-18
3.850000E+03	2.206462E-17	2.251385E-18
3.860000E+03	2.273392E-17	2.317725E-18
3.870000E+03	2.341740E-17	2.385385E-18
3.880000E+03	2.411383E-17	2.454234E-18
3.890000E+03	2.482379E-17	2.524329E-18
3.900000E+03	2.554597E-17	2.595531E-18
3.910000E+03	2.628190E-17	2.667991E-18
3.920000E+03	2.702927E-17	2.741471E-18
3.930000E+03	2.778862E-17	2.816022E-18
3.940000E+03	2.856050E-17	2.891693E-18
3.950000E+03	2.934251E-17	2.968240E-18
3.960000E+03	3.013615E-17	3.045810E-18
3.970000E+03	3.094001E-17	3.124256E-18
3.980000E+03	3.175462E-17	3.203627E-18
3.990000E+03	3.257749E-17	3.283669E-18
4.000000E+03	3.341019E-17	3.364537E-18
4.010000E+03	3.425123E-17	3.446078E-18
4.020000E+03	3.510020E-17	3.528246E-18
4.030000E+03	3.595767E-17	3.611095E-18
4.040000E+03	3.682117E-17	3.694375E-18
4.050000E+03	3.769135E-17	3.778147E-18
4.060000E+03	3.856884E-17	3.862472E-18
4.070000E+03	3.945021E-17	3.947003E-18
4.080000E+03	4.033720E-17	4.031913E-18
4.090000E+03	4.122955E-17	4.117172E-18
4.100000E+03	4.212492E-17	4.202544E-18
4.110000E+03	4.302414E-17	4.288112E-18
4.120000E+03	4.392602E-17	4.373752E-18
4.130000E+03	4.483044E-17	4.459452E-18
4.140000E+03	4.573733E-17	4.545203E-18
4.150000E+03	4.664563E-17	4.630899E-18
4.160000E+03	4.755539E-17	4.716541E-18
4.170000E+03	4.846564E-17	4.802033E-18
4.180000E+03	4.937655E-17	4.887391E-18
4.190000E+03	5.028620E-17	4.972423E-18
4.200000E+03	5.119595E-17	5.057262E-18
4.210000E+03	5.210505E-17	5.141835E-18
4.220000E+03	5.301284E-17	5.226074E-18
4.230000E+03	5.391873E-17	5.309921E-18
4.240000E+03	5.482217E-17	5.393322E-18
4.250000E+03	5.572268E-17	5.476229E-18
4.260000E+03	5.662088E-17	5.558703E-18
4.270000E+03	5.751640E-17	5.640706E-18
4.280000E+03	5.840788E-17	5.722107E-18
4.290000E+03	5.929504E-17	5.802877E-18
4.300000E+03	6.017765E-17	5.882995E-18
4.310000E+03	6.105554E-17	5.962444E-18
4.320000E+03	6.192959E-17	6.041310E-18
4.330000E+03	6.279654E-17	6.119278E-18
4.340000E+03	6.365942E-17	6.196642E-18
4.350000E+03	6.451502E-17	6.273090E-18
4.360000E+03	6.536530E-17	6.348815E-18
4.370000E+03	6.620917E-17	6.423712E-18
4.380000E+03	6.704650E-17	6.497769E-18
4.390000E+03	6.787717E-17	6.570976E-18
4.400000E+03	6.870101E-17	6.643318E-18
4.410000E+03	6.951885E-17	6.714876E-18
4.420000E+03	7.033045E-17	6.785629E-18
4.430000E+03	7.113547E-17	6.855544E-18
4.440000E+03	7.193559E-17	6.924785E-18
4.450000E+03	7.272927E-17	6.993206E-18
4.460000E+03	7.351594E-17	7.060751E-18
4.470000E+03	7.429594E-17	7.127456E-18
4.480000E+03	7.506951E-17	7.193346E-18
4.490000E+03	7.583360E-17	7.258129E-18
4.500000E+03	7.659029E-17	7.322007E-18
4.510000E+03	7.733730E-17	7.384765E-18
4.520000E+03	7.807433E-17	7.446376E-18
4.530000E+03	7.880089E-17	7.506796E-18
4.540000E+03	7.951635E-17	7.565968E-18
4.550000E+03	8.022098E-17	7.623922E-18
4.560000E+03	8.091279E-17	7.680471E-18
4.570000E+03	8.159175E-17	7.735617E-18
4.580000E+03	8.225767E-17	7.789346E-18
4.590000E+03	8.290921E-17	7.841534E-18
4.600000E+03	8.354590E-17	7.892143E-18
4.610000E+03	8.416615E-17	7.941026E-18
4.620000E+03	8.477040E-17	7.988231E-18
4.630000E+03	8.535690E-17	8.033597E-18
4.640000E+03	8.592490E-17	8.077062E-18
4.650000E+03	8.647369E-17	8.118563E-18
4.660000E+03	8.700253E-17	8.158039E-18
4.670000E+03	8.751080E-17	8.195436E-18
4.680000E+03	8.799789E-17	8.230708E-18
4.690000E+03	8.846443E-17	8.263918E-18
4.700000E+03	8.890904E-17	8.294945E-18
4.710000E+03	8.933155E-17	8.323783E-18
4.720000E+03	8.973419E-17	8.350645E-18
4.730000E+03	9.011611E-17	8.375459E-18
4.740000E+03	9.047779E-17	8.398279E-18
4.750000E+03	9.082214E-17	8.419380E-18
4.760000E+03	9.114900E-17	8.438755E-18
4.770000E+03	9.146067E-17	8.456623E-18
4.780000E+03	9.175752E-17	8.473022E-18
4.790000E+03	9.204012E-17	8.488011E-18
4.800000E+03	9.230821E-17	8.501573E-18
4.810000E+03	9.256287E-17	8.513811E-18
4.820000E+03	9.280428E-17	8.524747E-18
4.830000E+03	9.303502E-17	8.534623E-18
4.840000E+03	9.325457E-17	8.543395E-18
4.850000E+03	9.346699E-17	8.551440E-18
4.860000E+03	9.367097E-17	8.558640E-18
4.870000E+03	9.387189E-17	8.565489E-18
4.880000E+03	9.406974E-17	8.571990E-18
4.890000E+03	9.426681E-17	8.578351E-18
4.900000E+03	9.446648E-17	8.584879E-18
4.910000E+03	9.466891E-17	8.591590E-18
4.920000E+03	9.487858E-17	8.598888E-18
4.930000E+03	9.509778E-17	8.606977E-18
4.940000E+03	9.532655E-17	8.615861E-18
4.950000E+03	9.556920E-17	8.625923E-18
4.960000E+03	9.582667E-17	8.637243E-18
4.970000E+03	9.610085E-17	8.649986E-18
4.980000E+03	9.639456E-17	8.664401E-18
4.990000E+03	9.670828E-17	8.680521E-18
5.000000E+03	9.704339E-17	8.698464E-18
5.010000E+03	9.740107E-17	8.718327E-18
5.020000E+03	9.778339E-17	8.740286E-18
5.030000E+03	9.819004E-17	8.764303E-18
5.040000E+03	9.862157E-17	8.790419E-18
5.050000E+03	9.907943E-17	8.818752E-18
5.060000E+03	9.956271E-17	8.849211E-18
5.070000E+03	1.000714E-16	8.881785E-18
5.080000E+03	1.006064E-16	8.916543E-18
5.090000E+03	1.011662E-16	8.953350E-18
5.100000E+03	1.017516E-16	8.992253E-18
5.110000E+03	1.023619E-16	9.033192E-18
5.120000E+03	1.029943E-16	9.075904E-18
5.130000E+03	1.036514E-16	9.120608E-18
5.140000E+03	1.043302E-16	9.167027E-18
5.150000E+03	1.050296E-16	9.215073E-18
5.160000E+03	1.057499E-16	9.264747E-18
5.170000E+03	1.064901E-16	9.315957E-18
5.180000E+03	1.072478E-16	9.368494E-18
5.190000E+03	1.080229E-16	9.422330E-18
5.200000E+03	1.088129E-16	9.477248E-18
5.210000E+03	1.096173E-16	9.533196E-18
5.220000E+03	1.104332E-16	9.589921E-18
5.230000E+03	1.112601E-16	9.647364E-18
5.240000E+03	1.120958E-16	9.705339E-18
5.250000E+03	1.129367E-16	9.763533E-18
5.260000E+03	1.137805E-16	9.821736E-18
5.270000E+03	1.146257E-16	9.879822E-18
5.280000E+03	1.154692E-16	9.937528E-18
5.290000E+03	1.163070E-16	9.994503E-18
5.300000E+03	1.171355E-16	1.005045E-17
5.310000E+03	1.179525E-16	1.010517E-17
5.320000E+03	1.187533E-16	1.015828E-17
5.330000E+03	1.195340E-16	1.020945E-17
5.340000E+03	1.202921E-16	1.025846E-17
5.350000E+03	1.210212E-16	1.030479E-17
5.360000E+03	1.217195E-16	1.034829E-17
5.370000E+03	1.223808E-16	1.038846E-17
5.380000E+03	1.230023E-16	1.042505E-17
5.390000E+03	1.235813E-16	1.045789E-17
5.400000E+03	1.241118E-16	1.048644E-17
5.410000E+03	1.245900E-16	1.051043E-17
5.420000E+03	1.250139E-16	1.052971E-17
5.430000E+03	1.253806E-16	1.054406E-17
5.440000E+03	1.256862E-16	1.055315E-17
5.450000E+03	1.259296E-16	1.055695E-17
5.460000E+03	1.261080E-16	1.055523E-17
5.470000E+03	1.262214E-16	1.054801E-17
5.480000E+03	1.262677E-16	1.053516E-17
5.490000E+03	1.262481E-16	1.051679E-17
5.500000E+03	1.261618E-16	1.049287E-17
5.510000E+03	1.260124E-16	1.046372E-17
5.520000E+03	1.258014E-16	1.042950E-17
5.530000E+03	1.255299E-16	1.039032E-17
5.540000E+03	1.252005E-16	1.034642E-17
5.550000E+03	1.248177E-16	1.029819E-17
5.560000E+03	1.243840E-16	1.024587E-17
5.570000E+03	1.239034E-16	1.018980E-17
5.580000E+03	1.233794E-16	1.013029E-17
5.590000E+03	1.228191E-16	1.006795E-17
5.600000E+03	1.222268E-16	1.000312E-17
5.610000E+03	1.216076E-16	9.936256E-18
5.620000E+03	1.209662E-16	9.867746E-18
5.630000E+03	1.203095E-16	9.798167E-18
5.640000E+03	1.196450E-16	9.728120E-18
5.650000E+03	1.189763E-16	9.657912E-18
5.660000E+03	1.183108E-16	9.588147E-18
5.670000E+03	1.176546E-16	9.519321E-18
5.680000E+03	1.170140E-16	9.451928E-18
5.690000E+03	1.163949E-16	9.386448E-18
5.700000E+03	1.158033E-16	9.323351E-18
5.710000E+03	1.152449E-16	9.263088E-18
5.720000E+03	1.147238E-16	9.205970E-18
5.730000E+03	1.142472E-16	9.152567E-18
5.740000E+03	1.138173E-16	9.103045E-18
5.750000E+03	1.134395E-16	9.057800E-18
5.760000E+03	1.131169E-16	9.017069E-18
5.770000E+03	1.128514E-16	8.980988E-18
5.780000E+03	1.126462E-16	8.949774E-18
5.790000E+03	1.125015E-16	8.923435E-18
5.800000E+03	1.124180E-16	8.901999E-18
5.810000E+03	1.123968E-16	8.885524E-18
5.820000E+03	1.124355E-16	8.873804E-18
5.830000E+03	1.125327E-16	8.866703E-18
5.840000E+03	1.126855E-16	8.863977E-18
5.850000E+03	1.128898E-16	8.865270E-18
5.860000E+03	1.131420E-16	8.870302E-18
5.870000E+03	1.134377E-16	8.878690E-18
5.880000E+03	1.137687E-16	8.889792E-18
5.890000E+03	1.141312E-16	8.903289E-18
5.900000E+03	1.145171E-16	8.918553E-18
5.910000E+03	1.149180E-16	8.934915E-18
5.920000E+03	1.153273E-16	8.951854E-18
5.930000E+03	1.157369E-16	8.968750E-18
5.940000E+03	1.161363E-16	8.984790E-18
5.950000E+03	1.165186E-16	8.999445E-18
5.960000E+03	1.168753E-16	9.012072E-18
5.970000E+03	1.171965E-16	9.021916E-18
5.980000E+03	1.174769E-16	9.028585E-18
5.990000E+03	1.177084E-16	9.031482E-18
6.000000E+03	1.178839E-16	9.030070E-18
6.010000E+03	1.179978E-16	9.023960E-18
6.020000E+03	1.180459E-16	9.012851E-18
6.030000E+03	1.180251E-16	8.996531E-18
6.040000E+03	1.179322E-16	8.974782E-18
6.050000E+03	1.177653E-16	8.947491E-18
6.060000E+03	1.175274E-16	8.914915E-18
6.070000E+03	1.172181E-16	8.877050E-18
6.080000E+03	1.168404E-16	8.834152E-18
6.090000E+03	1.163986E-16	8.786575E-18
6.100000E+03	1.158983E-16	8.734759E-18
6.110000E+03	1.153458E-16	8.679203E-18
6.120000E+03	1.147480E-16	8.620451E-18
6.130000E+03	1.141119E-16	8.559034E-18
6.140000E+03	1.134467E-16	8.495659E-18
6.150000E+03	1.127597E-16	8.430889E-18
6.160000E+03	1.120592E-16	8.365354E-18
6.170000E+03	1.113539E-16	8.299694E-18
6.180000E+03	1.106516E-16	8.234499E-18
6.190000E+03	1.099586E-16	8.170236E-18
6.200000E+03	1.092839E-16	8.107563E-18
6.210000E+03	1.086321E-16	8.046811E-18
6.220000E+03	1.080078E-16	7.988316E-18
6.230000E+03	1.074167E-16	7.932490E-18
6.240000E+03	1.068604E-16	7.879434E-18
6.250000E+03	1.063406E-16	7.829259E-18
6.260000E+03	1.058589E-16	7.782071E-18
6.270000E+03	1.054152E-16	7.737851E-18
6.280000E+03	1.050085E-16	7.696501E-18
6.290000E+03	1.046368E-16	7.657876E-18
6.300000E+03	1.042985E-16	7.621840E-18
6.310000E+03	1.039904E-16	7.588149E-18
6.320000E+03	1.037097E-16	7.556588E-18
6.330000E+03	1.034522E-16	7.526836E-18
6.340000E+03	1.032131E-16	7.498548E-18
6.350000E+03	1.029887E-16	7.471440E-18
6.360000E+03	1.027750E-16	7.445221E-18
6.370000E+03	1.025670E-16	7.419526E-18
6.380000E+03	1.023599E-16	7.394000E-18
6.390000E+03	1.021511E-16	7.368460E-18
6.400000E+03	1.019362E-16	7.342596E-18
6.410000E+03	1.017126E-16	7.316207E-18
6.420000E+03	1.014769E-16	7.289057E-18
6.430000E+03	1.012283E-16	7.261104E-18
6.440000E+03	1.009650E-16	7.232203E-18
6.450000E+03	1.006865E-16	7.202335E-18
6.460000E+03	1.003932E-16	7.171527E-18
6.470000E+03	1.000841E-16	7.139710E-18
6.480000E+03	9.976283E-17	7.107157E-18
6.490000E+03	9.942865E-17	7.073810E-18
6.500000E+03	9.908328E-17	7.039795E-18
6.510000E+03	9.872999E-17	7.005349E-18
6.520000E+03	9.837239E-17	6.970727E-18
6.530000E+03	9.801124E-17	6.935987E-18
6.540000E+03	9.765061E-17	6.901414E-18
6.550000E+03	9.729258E-17	6.867156E-18
6.560000E+03	9.694031E-17	6.833434E-18
6.570000E+03	9.659582E-17	6.800389E-18
6.580000E+03	9.626310E-17	6.768299E-18
6.590000E+03	9.594283E-17	6.737208E-18
6.600000E+03	9.563857E-17	6.707362E-18
6.610000E+03	9.535255E-17	6.678913E-18
6.620000E+03	9.508461E-17	6.651844E-18
6.630000E+03	9.483836E-17	6.626404E-18
6.640000E+03	9.461292E-17	6.602525E-18
6.650000E+03	9.441009E-17	6.580327E-18
6.660000E+03	9.423025E-17	6.559831E-18
6.670000E+03	9.407335E-17	6.541029E-18
6.680000E+03	9.393896E-17	6.523884E-18
6.690000E+03	9.382515E-17	6.508258E-18
6.700000E+03	9.373278E-17	6.494206E-18
6.710000E+03	9.365918E-17	6.481537E-18
6.720000E+03	9.360137E-17	6.470043E-18
6.730000E+03	9.355920E-17	6.459707E-18
6.740000E+03	9.352917E-17	6.450283E-18
6.750000E+03	9.350962E-17	6.441656E-18
6.760000E+03	9.349564E-17	6.433482E-18
6.770000E+03	9.348753E-17	6.425781E-18
6.780000E+03	9.348027E-17	6.418207E-18
6.790000E+03	9.347102E-17	6.410563E-18
6.800000E+03	9.345813E-17	6.402736E-18
6.810000E+03	9.343907E-17	6.394554E-18
6.820000E+03	9.341155E-17	6.385861E-18
6.830000E+03	9.337358E-17	6.376522E-18
6.840000E+03	9.332351E-17	6.366427E-18
6.850000E+03	9.325905E-17	6.355422E-18
6.860000E+03	9.318158E-17	6.343602E-18
6.870000E+03	9.308988E-17	6.330889E-18
6.880000E+03	9.298478E-17	6.317339E-18
6.890000E+03	9.286817E-17	6.303085E-18
6.900000E+03	9.274359E-17	6.288367E-18
6.910000E+03	9.261167E-17	6.273230E-18
6.920000E+03	9.247762E-17	6.258027E-18
6.930000E+03	9.234347E-17	6.242896E-18
6.940000E+03	9.221239E-17	6.228050E-18
6.950000E+03	9.208858E-17	6.213772E-18
6.960000E+03	9.197393E-17	6.200187E-18
6.970000E+03	9.187123E-17	6.187483E-18
6.980000E+03	9.178305E-17	6.175827E-18
6.990000E+03	9.171275E-17	6.165446E-18
7.000000E+03	9.166116E-17	6.156390E-18
7.010000E+03	9.162987E-17	6.148762E-18
7.020000E+03	9.162118E-17	6.142714E-18
7.030000E+03	9.163477E-17	6.138220E-18
7.040000E+03	9.167101E-17	6.135301E-18
7.050000E+03	9.172983E-17	6.133949E-18
7.060000E+03	9.181079E-17	6.134132E-18
7.070000E+03	9.191411E-17	6.135859E-18
7.080000E+03	9.203739E-17	6.138969E-18
7.090000E+03	9.217899E-17	6.143349E-18
7.100000E+03	9.233689E-17	6.148863E-18
7.110000E+03	9.250881E-17	6.155356E-18
7.120000E+03	9.269214E-17	6.162655E-18
7.130000E+03	9.288409E-17	6.170572E-18
7.140000E+03	9.308284E-17	6.178987E-18
7.150000E+03	9.328294E-17	6.187539E-18
7.160000E+03	9.348359E-17	6.196173E-18
7.170000E+03	9.367926E-17	6.204527E-18
7.180000E+03	9.386916E-17	6.212549E-18
7.190000E+03	9.404788E-17	6.219884E-18
7.200000E+03	9.421490E-17	6.226499E-18
7.210000E+03	9.436508E-17	6.232060E-18
7.220000E+03	9.449827E-17	6.236558E-18
7.230000E+03	9.460973E-17	6.239686E-18
7.240000E+03	9.469971E-17	6.241463E-18
7.250000E+03	9.476391E-17	6.241610E-18
7.260000E+03	9.480298E-17	6.240175E-18
7.270000E+03	9.481295E-17	6.236901E-18
7.280000E+03	9.479481E-17	6.231858E-18
7.290000E+03	9.474489E-17	6.224809E-18
7.300000E+03	9.466440E-17	6.215838E-18
7.310000E+03	9.454984E-17	6.204720E-18
7.320000E+03	9.440261E-17	6.191552E-18
7.330000E+03	9.421931E-17	6.176115E-18
7.340000E+03	9.400145E-17	6.158512E-18
7.350000E+03	9.374696E-17	6.138614E-18
7.360000E+03	9.345385E-17	6.116293E-18
7.370000E+03	9.312382E-17	6.091665E-18
7.380000E+03	9.275503E-17	6.064615E-18
7.390000E+03	9.234580E-17	6.035035E-18
7.400000E+03	9.189698E-17	6.002986E-18
7.410000E+03	9.140834E-17	5.968456E-18
7.420000E+03	9.087873E-17	5.931372E-18
7.430000E+03	9.030949E-17	5.891827E-18
7.440000E+03	8.969988E-17	5.849774E-18
7.450000E+03	8.905174E-17	5.805336E-18
7.460000E+03	8.836592E-17	5.758570E-18
7.470000E+03	8.764124E-17	5.709401E-18
7.480000E+03	8.688252E-17	5.658145E-18
7.490000E+03	8.608904E-17	5.604756E-18
7.500000E+03	8.526257E-17	5.549349E-18
7.510000E+03	8.440735E-17	5.492202E-18
7.520000E+03	8.352213E-17	5.433232E-18
7.530000E+03	8.261255E-17	5.372807E-18
7.540000E+03	8.167877E-17	5.310935E-18
7.550000E+03	8.072438E-17	5.247846E-18
7.560000E+03	7.975088E-17	5.183632E-18
7.570000E+03	7.876192E-17	5.118529E-18
7.580000E+03	7.775913E-17	5.052636E-18
7.590000E+03	7.674518E-17	4.986122E-18
7.600000E+03	7.572376E-17	4.919222E-18
7.610000E+03	7.469652E-17	4.852040E-18
7.620000E+03	7.366607E-17	4.784739E-18
7.630000E+03	7.263599E-17	4.717547E-18
7.640000E+03	7.160684E-17	4.650497E-18
7.650000E+03	7.058311E-17	4.583875E-18
7.660000E+03	6.956636E-17	4.517777E-18
7.670000E+03	6.855901E-17	4.452359E-18
7.680000E+03	6.756340E-17	4.387765E-18
7.690000E+03	6.658168E-17	4.324133E-18
7.700000E+03	6.561676E-17	4.261648E-18
7.710000E+03	6.466872E-17	4.200310E-18
7.720000E+03	6.374011E-17	4.140283E-18
7.730000E+03	6.283329E-17	4.081717E-18
7.740000E+03	6.194791E-17	4.024584E-18
7.750000E+03	6.108677E-17	3.969066E-18
7.760000E+03	6.024921E-17	3.915116E-18
