#wls	flux	fluxerr
1.600000E+03	1.409518E-18	5.718413E-20
1.640000E+03	1.417447E-18	5.742172E-20
1.680000E+03	1.426972E-18	5.772075E-20
1.720000E+03	1.438435E-18	5.809462E-20
1.760000E+03	1.452189E-18	5.855712E-20
1.800000E+03	1.467794E-18	5.908993E-20
1.840000E+03	1.486163E-18	5.972932E-20
1.880000E+03	1.506603E-18	6.044672E-20
1.920000E+03	1.530064E-18	6.127964E-20
1.960000E+03	1.556424E-18	6.222235E-20
2.000000E+03	1.586131E-18	6.329191E-20
2.040000E+03	1.618800E-18	6.447199E-20
2.080000E+03	1.655497E-18	6.580409E-20
2.120000E+03	1.696171E-18	6.728498E-20
2.160000E+03	1.741077E-18	6.892345E-20
2.200000E+03	1.791115E-18	7.075374E-20
2.240000E+03	1.846001E-18	7.276292E-20
2.280000E+03	1.906395E-18	7.497537E-20
2.320000E+03	1.973351E-18	7.743046E-20
2.360000E+03	2.047006E-18	8.013135E-20
2.400000E+03	2.128204E-18	8.310857E-20
2.440000E+03	2.217512E-18	8.638143E-20
2.480000E+03	2.315914E-18	8.998515E-20
2.520000E+03	2.424491E-18	9.395816E-20
2.560000E+03	2.544040E-18	9.832734E-20
2.600000E+03	2.675822E-18	1.031370E-19
2.640000E+03	2.821634E-18	1.084512E-19
2.680000E+03	2.982173E-18	1.142910E-19
2.720000E+03	3.159484E-18	1.207283E-19
2.760000E+03	3.355814E-18	1.278417E-19
2.800000E+03	3.572675E-18	1.356803E-19
2.840000E+03	3.812650E-18	1.443329E-19
2.880000E+03	4.078546E-18	1.538951E-19
2.920000E+03	4.372868E-18	1.644492E-19
2.960000E+03	4.698818E-18	1.761021E-19
3.000000E+03	5.060392E-18	1.889881E-19
3.010000E+03	5.157282E-18	1.924350E-19
3.020000E+03	5.255682E-18	1.959309E-19
3.030000E+03	5.357394E-18	1.995426E-19
3.040000E+03	5.461877E-18	2.032496E-19
3.050000E+03	5.568570E-18	2.070309E-19
3.060000E+03	5.678117E-18	2.109099E-19
3.070000E+03	5.790561E-18	2.148880E-19
3.080000E+03	5.905949E-18	2.189665E-19
3.090000E+03	6.024958E-18	2.231701E-19
3.100000E+03	6.146373E-18	2.274535E-19
3.110000E+03	6.270867E-18	2.318412E-19
3.120000E+03	6.399131E-18	2.363583E-19
3.130000E+03	6.530573E-18	2.409825E-19
3.140000E+03	6.665232E-18	2.457149E-19
3.150000E+03	6.803822E-18	2.505814E-19
3.160000E+03	6.945724E-18	2.555586E-19
3.170000E+03	7.090978E-18	2.606476E-19
3.180000E+03	7.240312E-18	2.658747E-19
3.190000E+03	7.393783E-18	2.712415E-19
3.200000E+03	7.550743E-18	2.767237E-19
3.210000E+03	7.711934E-18	2.823479E-19
3.220000E+03	7.877410E-18	2.881157E-19
3.230000E+03	8.046498E-18	2.940018E-19
3.240000E+03	8.220689E-18	3.000602E-19
3.250000E+03	8.398571E-18	3.062388E-19
3.260000E+03	8.581663E-18	3.125923E-19
3.270000E+03	8.769274E-18	3.190949E-19
3.280000E+03	8.961442E-18	3.257475E-19
3.290000E+03	9.158207E-18	3.325507E-19
3.300000E+03	9.360378E-18	3.395334E-19
3.310000E+03	9.567223E-18	3.466683E-19
3.320000E+03	9.779562E-18	3.539844E-19
3.330000E+03	9.996642E-18	3.614538E-19
3.340000E+03	1.021929E-17	3.691056E-19
3.350000E+03	1.044755E-17	3.769406E-19
3.360000E+03	1.068062E-17	3.849295E-19
3.370000E+03	1.092019E-17	3.931315E-19
3.380000E+03	1.116544E-17	4.015175E-19
3.390000E+03	1.141642E-17	4.100875E-19
3.400000E+03	1.167314E-17	4.188411E-19
3.410000E+03	1.193645E-17	4.278086E-19
3.420000E+03	1.220553E-17	4.369593E-19
3.430000E+03	1.248125E-17	4.463234E-19
3.440000E+03	1.276275E-17	4.558691E-19
3.450000E+03	1.305090E-17	4.656270E-19
3.460000E+03	1.334569E-17	4.755955E-19
3.470000E+03	1.364714E-17	4.857745E-19
3.480000E+03	1.395613E-17	4.961942E-19
3.490000E+03	1.427084E-17	5.067887E-19
3.500000E+03	1.459305E-17	5.176208E-19
3.510000E+03	1.492186E-17	5.286570E-19
3.520000E+03	1.525813E-17	5.399265E-19
3.530000E+03	1.560184E-17	5.514282E-19
3.540000E+03	1.595202E-17	5.631261E-19
3.550000E+03	1.631050E-17	5.750841E-19
3.560000E+03	1.667532E-17	5.872320E-19
3.570000E+03	1.704834E-17	5.996339E-19
3.580000E+03	1.742854E-17	6.122527E-19
3.590000E+03	1.781682E-17	6.251190E-19
3.600000E+03	1.821210E-17	6.381938E-19
3.610000E+03	1.861529E-17	6.515079E-19
3.620000E+03	1.902629E-17	6.650563E-19
3.630000E+03	1.944503E-17	6.788349E-19
3.640000E+03	1.987135E-17	6.928380E-19
3.650000E+03	2.030517E-17	7.070608E-19
3.660000E+03	2.074735E-17	7.215323E-19
3.670000E+03	2.119677E-17	7.362119E-19
3.680000E+03	2.165429E-17	7.511287E-19
3.690000E+03	2.211977E-17	7.662762E-19
3.700000E+03	2.259305E-17	7.816475E-19
3.710000E+03	2.307399E-17	7.972368E-19
3.720000E+03	2.356240E-17	8.130361E-19
3.730000E+03	2.405914E-17	8.290739E-19
3.740000E+03	2.456299E-17	8.453065E-19
3.750000E+03	2.507483E-17	8.617629E-19
3.760000E+03	2.559336E-17	8.783979E-19
3.770000E+03	2.612053E-17	8.952763E-19
3.780000E+03	2.665399E-17	9.123167E-19
3.790000E+03	2.719566E-17	9.295832E-19
3.800000E+03	2.774425E-17	9.470307E-19
3.810000E+03	2.829953E-17	9.646499E-19
3.820000E+03	2.886234E-17	9.824684E-19
3.830000E+03	2.943138E-17	1.000441E-18
3.840000E+03	3.000854E-17	1.018630E-18
3.850000E+03	3.059145E-17	1.036954E-18
3.860000E+03	3.117986E-17	1.055403E-18
3.870000E+03	3.177566E-17	1.074041E-18
3.880000E+03	3.237755E-17	1.092821E-18
3.890000E+03	3.298529E-17	1.111736E-18
3.900000E+03	3.359968E-17	1.130810E-18
3.910000E+03	3.421835E-17	1.149963E-18
3.920000E+03	3.484320E-17	1.169258E-18
3.930000E+03	3.547292E-17	1.188649E-18
3.940000E+03	3.610834E-17	1.208163E-18
3.950000E+03	3.674818E-17	1.227758E-18
3.960000E+03	3.739219E-17	1.247422E-18
3.970000E+03	3.804125E-17	1.267185E-18
3.980000E+03	3.869405E-17	1.287003E-18
3.990000E+03	3.935150E-17	1.306904E-18
4.000000E+03	4.001231E-17	1.326844E-18
4.010000E+03	4.067633E-17	1.346819E-18
4.020000E+03	4.134337E-17	1.366822E-18
4.030000E+03	4.201329E-17	1.386846E-18
4.040000E+03	4.268702E-17	1.406922E-18
4.050000E+03	4.336229E-17	1.426974E-18
4.060000E+03	4.404009E-17	1.447035E-18
4.070000E+03	4.471925E-17	1.467065E-18
4.080000E+03	4.540078E-17	1.487097E-18
4.090000E+03	4.608355E-17	1.507094E-18
4.100000E+03	4.676755E-17	1.527055E-18
4.110000E+03	4.745277E-17	1.546979E-18
4.120000E+03	4.813921E-17	1.566865E-18
4.130000E+03	4.882483E-17	1.586648E-18
4.140000E+03	4.951179E-17	1.606397E-18
4.150000E+03	5.019808E-17	1.626046E-18
4.160000E+03	5.088383E-17	1.645601E-18
4.170000E+03	5.156918E-17	1.665064E-18
4.180000E+03	5.225428E-17	1.684442E-18
4.190000E+03	5.293833E-17	1.703708E-18
4.200000E+03	5.362151E-17	1.722868E-18
4.210000E+03	5.430307E-17	1.741897E-18
4.220000E+03	5.498329E-17	1.760806E-18
4.230000E+03	5.566145E-17	1.779571E-18
4.240000E+03	5.633688E-17	1.798171E-18
4.250000E+03	5.701096E-17	1.816650E-18
4.260000E+03	5.768204E-17	1.834956E-18
4.270000E+03	5.835056E-17	1.853103E-18
4.280000E+03	5.901694E-17	1.871105E-18
4.290000E+03	5.967966E-17	1.888915E-18
4.300000E+03	6.033921E-17	1.906547E-18
4.310000E+03	6.099509E-17	1.923987E-18
4.320000E+03	6.164686E-17	1.941222E-18
4.330000E+03	6.229506E-17	1.958269E-18
4.340000E+03	6.293829E-17	1.975085E-18
4.350000E+03	6.357712E-17	1.991689E-18
4.360000E+03	6.421117E-17	2.008069E-18
4.370000E+03	6.484005E-17	2.024213E-18
4.380000E+03	6.546338E-17	2.040112E-18
4.390000E+03	6.608081E-17	2.055755E-18
4.400000E+03	6.669291E-17	2.071160E-18
4.410000E+03	6.729738E-17	2.086258E-18
4.420000E+03	6.789576E-17	2.101098E-18
4.430000E+03	6.848765E-17	2.115668E-18
4.440000E+03	6.907263E-17	2.129955E-18
4.450000E+03	6.965024E-17	2.143949E-18
4.460000E+03	7.022097E-17	2.157664E-18
4.470000E+03	7.078526E-17	2.171116E-18
4.480000E+03	7.134257E-17	2.184289E-18
4.490000E+03	7.189230E-17	2.197167E-18
4.500000E+03	7.243479E-17	2.209760E-18
4.510000E+03	7.297124E-17	2.222107E-18
4.520000E+03	7.350092E-17	2.234188E-18
4.530000E+03	7.402398E-17	2.246007E-18
4.540000E+03	7.453961E-17	2.257542E-18
4.550000E+03	7.504973E-17	2.268852E-18
4.560000E+03	7.555243E-17	2.279881E-18
4.570000E+03	7.604860E-17	2.290656E-18
4.580000E+03	7.653810E-17	2.301176E-18
4.590000E+03	7.702075E-17	2.311435E-18
4.600000E+03	7.749537E-17	2.321401E-18
4.610000E+03	7.796259E-17	2.331093E-18
4.620000E+03	7.842208E-17	2.340504E-18
4.630000E+03	7.887247E-17	2.349593E-18
4.640000E+03	7.931428E-17	2.358379E-18
4.650000E+03	7.974794E-17	2.366876E-18
4.660000E+03	8.017105E-17	2.375014E-18
4.670000E+03	8.058491E-17	2.382834E-18
4.680000E+03	8.098801E-17	2.390293E-18
4.690000E+03	8.138159E-17	2.397431E-18
4.700000E+03	8.176597E-17	2.404258E-18
4.710000E+03	8.213955E-17	2.410729E-18
4.720000E+03	8.250449E-17	2.416910E-18
4.730000E+03	8.286110E-17	2.422811E-18
4.740000E+03	8.321151E-17	2.428497E-18
4.750000E+03	8.355607E-17	2.433980E-18
4.760000E+03	8.389978E-17	2.439405E-18
4.770000E+03	8.424298E-17	2.444784E-18
4.780000E+03	8.458981E-17	2.450237E-18
4.790000E+03	8.493694E-17	2.455667E-18
4.800000E+03	8.528196E-17	2.461006E-18
4.810000E+03	8.562156E-17	2.466159E-18
4.820000E+03	8.595050E-17	2.470976E-18
4.830000E+03	8.626909E-17	2.475470E-18
4.840000E+03	8.657273E-17	2.479509E-18
4.850000E+03	8.685932E-17	2.483038E-18
4.860000E+03	8.712777E-17	2.486028E-18
4.870000E+03	8.737856E-17	2.488496E-18
4.880000E+03	8.761151E-17	2.490442E-18
4.890000E+03	8.783004E-17	2.491964E-18
4.900000E+03	8.803352E-17	2.493048E-18
4.910000E+03	8.822395E-17	2.493755E-18
4.920000E+03	8.840230E-17	2.494112E-18
4.930000E+03	8.857040E-17	2.494175E-18
4.940000E+03	8.872821E-17	2.493945E-18
4.950000E+03	8.887845E-17	2.493498E-18
4.960000E+03	8.902103E-17	2.492833E-18
4.970000E+03	8.915860E-17	2.492026E-18
4.980000E+03	8.929008E-17	2.491047E-18
4.990000E+03	8.941896E-17	2.489994E-18
5.000000E+03	8.954405E-17	2.488834E-18
5.010000E+03	8.966781E-17	2.487635E-18
5.020000E+03	8.979079E-17	2.486414E-18
5.030000E+03	8.991343E-17	2.485181E-18
5.040000E+03	9.003707E-17	2.483974E-18
5.050000E+03	9.016108E-17	2.482775E-18
5.060000E+03	9.028758E-17	2.481642E-18
5.070000E+03	9.041578E-17	2.480553E-18
5.080000E+03	9.054577E-17	2.479511E-18
5.090000E+03	9.067942E-17	2.478564E-18
5.100000E+03	9.081479E-17	2.477661E-18
5.110000E+03	9.095361E-17	2.476847E-18
5.120000E+03	9.109563E-17	2.476116E-18
5.130000E+03	9.123965E-17	2.475433E-18
5.140000E+03	9.138621E-17	2.474814E-18
5.150000E+03	9.153489E-17	2.474246E-18
5.160000E+03	9.168519E-17	2.473715E-18
5.170000E+03	9.183652E-17	2.473205E-18
5.180000E+03	9.198919E-17	2.472725E-18
5.190000E+03	9.214156E-17	2.472229E-18
5.200000E+03	9.229288E-17	2.471698E-18
5.210000E+03	9.244326E-17	2.471135E-18
5.220000E+03	9.259183E-17	2.470516E-18
5.230000E+03	9.273675E-17	2.469793E-18
5.240000E+03	9.287797E-17	2.468964E-18
5.250000E+03	9.301352E-17	2.467979E-18
5.260000E+03	9.314333E-17	2.466836E-18
5.270000E+03	9.326628E-17	2.465505E-18
5.280000E+03	9.338127E-17	2.463960E-18
5.290000E+03	9.348714E-17	2.462171E-18
5.300000E+03	9.358184E-17	2.460084E-18
5.310000E+03	9.366606E-17	2.457720E-18
5.320000E+03	9.373679E-17	2.455002E-18
5.330000E+03	9.379473E-17	2.451949E-18
5.340000E+03	9.383784E-17	2.448511E-18
5.350000E+03	9.386502E-17	2.444660E-18
5.360000E+03	9.387615E-17	2.440396E-18
5.370000E+03	9.387022E-17	2.435696E-18
5.380000E+03	9.384626E-17	2.430536E-18
5.390000E+03	9.380341E-17	2.424896E-18
5.400000E+03	9.374177E-17	2.418783E-18
5.410000E+03	9.366157E-17	2.412205E-18
5.420000E+03	9.356124E-17	2.405124E-18
5.430000E+03	9.344209E-17	2.397577E-18
5.440000E+03	9.330370E-17	2.389555E-18
5.450000E+03	9.314667E-17	2.381077E-18
5.460000E+03	9.296985E-17	2.372117E-18
5.470000E+03	9.277597E-17	2.362746E-18
5.480000E+03	9.256321E-17	2.352922E-18
5.490000E+03	9.233361E-17	2.342697E-18
5.500000E+03	9.208747E-17	2.332083E-18
5.510000E+03	9.182341E-17	2.321047E-18
5.520000E+03	9.154385E-17	2.309653E-18
5.530000E+03	9.124859E-17	2.297898E-18
5.540000E+03	9.093848E-17	2.285806E-18
5.550000E+03	9.061361E-17	2.273381E-18
5.560000E+03	9.027416E-17	2.260629E-18
5.570000E+03	8.992227E-17	2.247607E-18
5.580000E+03	8.955746E-17	2.234305E-18
5.590000E+03	8.918206E-17	2.220781E-18
5.600000E+03	8.879669E-17	2.207054E-18
5.610000E+03	8.840207E-17	2.193143E-18
5.620000E+03	8.800072E-17	2.179111E-18
5.630000E+03	8.759347E-17	2.164980E-18
5.640000E+03	8.718204E-17	2.150794E-18
5.650000E+03	8.676736E-17	2.136575E-18
5.660000E+03	8.635203E-17	2.122390E-18
5.670000E+03	8.593697E-17	2.108259E-18
5.680000E+03	8.552473E-17	2.094246E-18
5.690000E+03	8.511618E-17	2.080373E-18
5.700000E+03	8.471296E-17	2.066678E-18
5.710000E+03	8.431664E-17	2.053199E-18
5.720000E+03	8.392955E-17	2.039993E-18
5.730000E+03	8.355227E-17	2.027071E-18
5.740000E+03	8.318608E-17	2.014465E-18
5.750000E+03	8.283221E-17	2.002202E-18
5.760000E+03	8.249169E-17	1.990307E-18
5.770000E+03	8.216550E-17	1.978800E-18
5.780000E+03	8.185443E-17	1.967699E-18
5.790000E+03	8.155916E-17	1.957020E-18
5.800000E+03	8.128103E-17	1.946791E-18
5.810000E+03	8.101880E-17	1.936982E-18
5.820000E+03	8.077354E-17	1.927616E-18
5.830000E+03	8.054615E-17	1.918713E-18
5.840000E+03	8.033503E-17	1.910233E-18
5.850000E+03	8.014158E-17	1.902207E-18
5.860000E+03	7.996397E-17	1.894590E-18
5.870000E+03	7.980260E-17	1.887389E-18
5.880000E+03	7.965697E-17	1.880592E-18
5.890000E+03	7.952652E-17	1.874183E-18
5.900000E+03	7.941058E-17	1.868145E-18
5.910000E+03	7.930845E-17	1.862461E-18
5.920000E+03	7.921857E-17	1.857092E-18
5.930000E+03	7.914095E-17	1.852037E-18
5.940000E+03	7.907397E-17	1.847259E-18
5.950000E+03	7.901763E-17	1.842755E-18
5.960000E+03	7.897033E-17	1.838489E-18
5.970000E+03	7.893211E-17	1.834459E-18
5.980000E+03	7.890148E-17	1.830632E-18
5.990000E+03	7.887779E-17	1.826992E-18
6.000000E+03	7.886048E-17	1.823525E-18
6.010000E+03	7.884906E-17	1.820220E-18
6.020000E+03	7.884315E-17	1.817068E-18
6.030000E+03	7.884169E-17	1.814045E-18
6.040000E+03	7.884530E-17	1.811165E-18
6.050000E+03	7.885317E-17	1.808409E-18
6.060000E+03	7.886612E-17	1.805797E-18
6.070000E+03	7.888281E-17	1.803297E-18
6.080000E+03	7.890350E-17	1.800917E-18
6.090000E+03	7.892940E-17	1.798683E-18
6.100000E+03	7.896024E-17	1.796590E-18
6.110000E+03	7.899657E-17	1.794651E-18
6.120000E+03	7.903908E-17	1.792880E-18
6.130000E+03	7.908769E-17	1.791277E-18
6.140000E+03	7.914395E-17	1.789876E-18
6.150000E+03	7.920866E-17	1.788696E-18
6.160000E+03	7.928180E-17	1.787736E-18
6.170000E+03	7.936413E-17	1.787012E-18
6.180000E+03	7.945477E-17	1.786505E-18
6.190000E+03	7.955509E-17	1.786245E-18
6.200000E+03	7.966622E-17	1.786255E-18
6.210000E+03	7.978869E-17	1.786545E-18
6.220000E+03	7.992059E-17	1.787071E-18
6.230000E+03	8.006123E-17	1.787816E-18
6.240000E+03	8.020888E-17	1.788741E-18
6.250000E+03	8.036246E-17	1.789820E-18
6.260000E+03	8.051838E-17	1.790971E-18
6.270000E+03	8.067528E-17	1.792164E-18
6.280000E+03	8.083177E-17	1.793368E-18
6.290000E+03	8.098468E-17	1.794511E-18
6.300000E+03	8.113325E-17	1.795577E-18
6.310000E+03	8.127340E-17	1.796474E-18
6.320000E+03	8.140342E-17	1.797166E-18
6.330000E+03	8.152081E-17	1.797597E-18
6.340000E+03	8.162306E-17	1.797713E-18
6.350000E+03	8.170770E-17	1.797459E-18
6.360000E+03	8.177318E-17	1.796802E-18
6.370000E+03	8.181552E-17	1.795656E-18
6.380000E+03	8.183420E-17	1.794010E-18
6.390000E+03	8.182638E-17	1.791803E-18
6.400000E+03	8.179106E-17	1.789015E-18
6.410000E+03	8.172493E-17	1.785575E-18
6.420000E+03	8.162744E-17	1.781472E-18
6.430000E+03	8.149829E-17	1.776701E-18
6.440000E+03	8.133408E-17	1.771190E-18
6.450000E+03	8.113676E-17	1.764982E-18
6.460000E+03	8.090433E-17	1.758036E-18
6.470000E+03	8.063679E-17	1.750354E-18
6.480000E+03	8.033442E-17	1.741943E-18
6.490000E+03	7.999779E-17	1.732817E-18
6.500000E+03	7.962773E-17	1.722997E-18
6.510000E+03	7.922535E-17	1.712506E-18
6.520000E+03	7.879113E-17	1.701358E-18
6.530000E+03	7.832829E-17	1.689624E-18
6.540000E+03	7.783856E-17	1.677340E-18
6.550000E+03	7.732300E-17	1.664532E-18
6.560000E+03	7.678611E-17	1.651298E-18
6.570000E+03	7.622836E-17	1.637647E-18
6.580000E+03	7.565358E-17	1.623664E-18
6.590000E+03	7.506399E-17	1.609395E-18
6.600000E+03	7.446185E-17	1.594891E-18
6.610000E+03	7.385020E-17	1.580215E-18
6.620000E+03	7.323046E-17	1.565399E-18
6.630000E+03	7.260718E-17	1.550540E-18
6.640000E+03	7.198005E-17	1.535630E-18
6.650000E+03	7.135348E-17	1.520764E-18
6.660000E+03	7.072856E-17	1.505964E-18
6.670000E+03	7.010789E-17	1.491285E-18
6.680000E+03	6.949236E-17	1.476746E-18
6.690000E+03	6.888511E-17	1.462412E-18
6.700000E+03	6.828602E-17	1.448279E-18
6.710000E+03	6.769872E-17	1.434425E-18
6.720000E+03	6.712212E-17	1.420824E-18
6.730000E+03	6.655956E-17	1.407547E-18
6.740000E+03	6.601125E-17	1.394597E-18
6.750000E+03	6.547726E-17	1.381973E-18
6.760000E+03	6.496061E-17	1.369740E-18
6.770000E+03	6.445966E-17	1.357860E-18
6.780000E+03	6.397720E-17	1.346392E-18
6.790000E+03	6.351217E-17	1.335311E-18
6.800000E+03	6.306572E-17	1.324641E-18
6.810000E+03	6.263812E-17	1.314387E-18
6.820000E+03	6.223034E-17	1.304567E-18
6.830000E+03	6.184110E-17	1.295153E-18
6.840000E+03	6.147199E-17	1.286177E-18
6.850000E+03	6.112309E-17	1.277640E-18
6.860000E+03	6.079376E-17	1.269527E-18
6.870000E+03	6.048403E-17	1.261837E-18
6.880000E+03	6.019547E-17	1.254603E-18
6.890000E+03	5.992681E-17	1.247795E-18
6.900000E+03	5.967823E-17	1.241418E-18
6.910000E+03	5.945131E-17	1.235501E-18
6.920000E+03	5.924540E-17	1.230032E-18
6.930000E+03	5.905987E-17	1.224994E-18
6.940000E+03	5.889608E-17	1.220417E-18
6.950000E+03	5.875253E-17	1.216266E-18
6.960000E+03	5.862977E-17	1.212553E-18
6.970000E+03	5.852826E-17	1.209286E-18
6.980000E+03	5.844622E-17	1.206427E-18
6.990000E+03	5.838468E-17	1.203996E-18
7.000000E+03	5.834169E-17	1.201952E-18
7.010000E+03	5.831735E-17	1.200296E-18
7.020000E+03	5.831168E-17	1.199027E-18
7.030000E+03	5.832243E-17	1.198099E-18
7.040000E+03	5.834945E-17	1.197508E-18
7.050000E+03	5.839173E-17	1.197232E-18
7.060000E+03	5.844749E-17	1.197235E-18
7.070000E+03	5.851627E-17	1.197505E-18
7.080000E+03	5.859682E-17	1.198018E-18
7.090000E+03	5.868780E-17	1.198745E-18
7.100000E+03	5.878708E-17	1.199643E-18
7.110000E+03	5.889392E-17	1.200697E-18
7.120000E+03	5.900529E-17	1.201844E-18
7.130000E+03	5.912182E-17	1.203098E-18
7.140000E+03	5.923965E-17	1.204381E-18
7.150000E+03	5.935786E-17	1.205674E-18
7.160000E+03	5.947551E-17	1.206958E-18
7.170000E+03	5.958938E-17	1.208168E-18
7.180000E+03	5.969852E-17	1.209287E-18
7.190000E+03	5.980123E-17	1.210281E-18
7.200000E+03	5.989508E-17	1.211100E-18
7.210000E+03	5.997843E-17	1.211713E-18
7.220000E+03	6.005043E-17	1.212104E-18
7.230000E+03	6.010880E-17	1.212229E-18
7.240000E+03	6.015203E-17	1.212057E-18
7.250000E+03	6.017874E-17	1.211563E-18
7.260000E+03	6.018760E-17	1.210721E-18
7.270000E+03	6.017742E-17	1.209508E-18
7.280000E+03	6.014630E-17	1.207889E-18
7.290000E+03	6.009401E-17	1.205859E-18
7.300000E+03	6.001967E-17	1.203404E-18
7.310000E+03	5.992100E-17	1.200478E-18
7.320000E+03	5.979967E-17	1.197118E-18
7.330000E+03	5.965290E-17	1.193268E-18
7.340000E+03	5.948266E-17	1.188971E-18
7.350000E+03	5.928719E-17	1.184192E-18
7.360000E+03	5.906645E-17	1.178932E-18
7.370000E+03	5.882207E-17	1.173225E-18
7.380000E+03	5.855274E-17	1.167047E-18
7.390000E+03	5.825962E-17	1.160421E-18
7.400000E+03	5.794474E-17	1.153391E-18
7.410000E+03	5.760649E-17	1.145925E-18
7.420000E+03	5.724791E-17	1.138084E-18
7.430000E+03	5.686916E-17	1.129873E-18
7.440000E+03	5.647055E-17	1.121299E-18
7.450000E+03	5.605396E-17	1.112400E-18
7.460000E+03	5.561920E-17	1.103173E-18
7.470000E+03	5.516766E-17	1.093647E-18
7.480000E+03	5.470080E-17	1.083851E-18
7.490000E+03	5.421946E-17	1.073801E-18
7.500000E+03	5.372527E-17	1.063532E-18
7.510000E+03	5.321994E-17	1.053076E-18
7.520000E+03	5.270521E-17	1.042469E-18
7.530000E+03	5.218214E-17	1.031731E-18
7.540000E+03	5.165324E-17	1.020913E-18
7.550000E+03	5.112031E-17	1.010049E-18
7.560000E+03	5.058448E-17	9.991623E-19
7.570000E+03	5.004821E-17	9.883009E-19
7.580000E+03	4.951261E-17	9.774858E-19
7.590000E+03	4.898008E-17	9.667631E-19
7.600000E+03	4.845228E-17	9.561643E-19
7.610000E+03	4.793089E-17	9.457205E-19
7.620000E+03	4.741684E-17	9.354493E-19
7.630000E+03	4.691292E-17	9.254042E-19
7.640000E+03	4.641925E-17	9.155862E-19
7.650000E+03	4.593802E-17	9.060372E-19
7.660000E+03	4.546904E-17	8.967526E-19
7.670000E+03	4.501259E-17	8.877364E-19
7.680000E+03	4.456948E-17	8.790036E-19
7.690000E+03	4.413928E-17	8.705446E-19
7.700000E+03	4.372273E-17	8.623730E-19
7.710000E+03	4.331937E-17	8.544791E-19
7.720000E+03	4.292988E-17	8.468751E-19
7.730000E+03	4.255431E-17	8.395614E-19
7.740000E+03	4.219215E-17	8.325270E-19
7.750000E+03	4.184397E-17	8.257828E-19
7.760000E+03	4.150978E-17	8.193277E-19
