#wls	flux	fluxerr
1.600000E+03	2.306553E-18	1.129848E-19
1.640000E+03	2.350568E-18	1.150778E-19
1.680000E+03	2.398330E-18	1.173501E-19
1.720000E+03	2.450055E-18	1.198116E-19
1.760000E+03	2.506409E-18	1.224946E-19
1.800000E+03	2.567218E-18	1.253898E-19
1.840000E+03	2.632743E-18	1.285095E-19
1.880000E+03	2.703740E-18	1.318898E-19
1.920000E+03	2.781019E-18	1.355696E-19
1.960000E+03	2.863995E-18	1.395195E-19
2.000000E+03	2.954020E-18	1.438044E-19
2.040000E+03	3.051028E-18	1.484201E-19
2.080000E+03	3.156512E-18	1.534381E-19
2.120000E+03	3.269941E-18	1.588315E-19
2.160000E+03	3.392925E-18	1.646770E-19
2.200000E+03	3.526087E-18	1.710034E-19
2.240000E+03	3.670086E-18	1.778410E-19
2.280000E+03	3.825619E-18	1.852217E-19
2.320000E+03	3.994043E-18	1.932092E-19
2.360000E+03	4.176830E-18	2.018724E-19
2.400000E+03	4.374240E-18	2.112214E-19
2.440000E+03	4.588546E-18	2.213632E-19
2.480000E+03	4.820104E-18	2.323119E-19
2.520000E+03	5.071406E-18	2.441841E-19
2.560000E+03	5.342886E-18	2.569971E-19
2.600000E+03	5.638029E-18	2.709143E-19
2.640000E+03	5.957400E-18	2.859581E-19
2.680000E+03	6.303121E-18	3.022254E-19
2.720000E+03	6.678278E-18	3.198584E-19
2.760000E+03	7.083435E-18	3.388780E-19
2.800000E+03	7.522692E-18	3.594736E-19
2.840000E+03	7.997517E-18	3.817075E-19
2.880000E+03	8.511226E-18	4.057300E-19
2.920000E+03	9.065129E-18	4.315944E-19
2.960000E+03	9.663489E-18	4.594939E-19
3.000000E+03	1.030845E-17	4.895194E-19
3.010000E+03	1.047675E-17	4.973462E-19
3.020000E+03	1.064879E-17	5.053443E-19
3.030000E+03	1.082458E-17	5.135141E-19
3.040000E+03	1.100188E-17	5.217484E-19
3.050000E+03	1.118409E-17	5.302090E-19
3.060000E+03	1.136893E-17	5.387877E-19
3.070000E+03	1.155640E-17	5.474839E-19
3.080000E+03	1.174885E-17	5.564085E-19
3.090000E+03	1.194393E-17	5.654504E-19
3.100000E+03	1.214160E-17	5.746075E-19
3.110000E+03	1.234307E-17	5.839371E-19
3.120000E+03	1.254956E-17	5.934957E-19
3.130000E+03	1.275740E-17	6.031102E-19
3.140000E+03	1.297025E-17	6.129532E-19
3.150000E+03	1.318687E-17	6.229664E-19
3.160000E+03	1.340601E-17	6.330896E-19
3.170000E+03	1.363014E-17	6.434398E-19
3.180000E+03	1.385673E-17	6.538974E-19
3.190000E+03	1.408829E-17	6.645803E-19
3.200000E+03	1.432226E-17	6.753670E-19
3.210000E+03	1.456115E-17	6.863768E-19
3.220000E+03	1.480366E-17	6.975471E-19
3.230000E+03	1.504975E-17	7.088761E-19
3.240000E+03	1.529937E-17	7.203614E-19
3.250000E+03	1.555382E-17	7.320634E-19
3.260000E+03	1.581037E-17	7.438540E-19
3.270000E+03	1.607301E-17	7.559201E-19
3.280000E+03	1.633763E-17	7.680686E-19
3.290000E+03	1.660826E-17	7.804880E-19
3.300000E+03	1.688075E-17	7.929837E-19
3.310000E+03	1.715913E-17	8.057443E-19
3.320000E+03	1.744061E-17	8.186382E-19
3.330000E+03	1.772510E-17	8.316615E-19
3.340000E+03	1.801389E-17	8.448743E-19
3.350000E+03	1.830834E-17	8.583399E-19
3.360000E+03	1.860413E-17	8.718558E-19
3.370000E+03	1.890542E-17	8.856159E-19
3.380000E+03	1.921069E-17	8.995494E-19
3.390000E+03	1.951984E-17	9.136513E-19
3.400000E+03	1.983279E-17	9.279170E-19
3.410000E+03	2.014943E-17	9.423413E-19
3.420000E+03	2.046964E-17	9.569179E-19
3.430000E+03	2.079328E-17	9.716410E-19
3.440000E+03	2.112171E-17	9.865732E-19
3.450000E+03	2.145336E-17	1.001640E-18
3.460000E+03	2.178955E-17	1.016904E-18
3.470000E+03	2.212867E-17	1.032290E-18
3.480000E+03	2.247058E-17	1.047790E-18
3.490000E+03	2.281662E-17	1.063467E-18
3.500000E+03	2.316664E-17	1.079313E-18
3.510000E+03	2.352050E-17	1.095321E-18
3.520000E+03	2.387653E-17	1.111413E-18
3.530000E+03	2.423756E-17	1.127722E-18
3.540000E+03	2.460045E-17	1.144100E-18
3.550000E+03	2.496649E-17	1.160607E-18
3.560000E+03	2.533705E-17	1.177307E-18
3.570000E+03	2.570892E-17	1.194049E-18
3.580000E+03	2.608491E-17	1.210965E-18
3.590000E+03	2.646335E-17	1.227977E-18
3.600000E+03	2.684556E-17	1.245144E-18
3.610000E+03	2.722980E-17	1.262388E-18
3.620000E+03	2.761743E-17	1.279769E-18
3.630000E+03	2.800670E-17	1.297207E-18
3.640000E+03	2.839742E-17	1.314693E-18
3.650000E+03	2.879240E-17	1.332356E-18
3.660000E+03	2.918841E-17	1.350047E-18
3.670000E+03	2.958825E-17	1.367895E-18
3.680000E+03	2.998870E-17	1.385752E-18
3.690000E+03	3.039103E-17	1.403674E-18
3.700000E+03	3.079656E-17	1.421724E-18
3.710000E+03	3.120202E-17	1.439750E-18
3.720000E+03	3.161023E-17	1.457881E-18
3.730000E+03	3.201945E-17	1.476038E-18
3.740000E+03	3.243097E-17	1.494279E-18
3.750000E+03	3.284305E-17	1.512525E-18
3.760000E+03	3.325548E-17	1.530765E-18
3.770000E+03	3.366954E-17	1.549058E-18
3.780000E+03	3.408502E-17	1.567395E-18
3.790000E+03	3.450019E-17	1.585695E-18
3.800000E+03	3.491781E-17	1.604085E-18
3.810000E+03	3.533471E-17	1.622420E-18
3.820000E+03	3.575216E-17	1.640757E-18
3.830000E+03	3.616995E-17	1.659087E-18
3.840000E+03	3.658786E-17	1.677400E-18
3.850000E+03	3.700572E-17	1.695688E-18
3.860000E+03	3.742332E-17	1.713940E-18
3.870000E+03	3.784047E-17	1.732149E-18
3.880000E+03	3.825701E-17	1.750307E-18
3.890000E+03	3.867418E-17	1.768470E-18
3.900000E+03	3.908894E-17	1.786499E-18
3.910000E+03	3.950402E-17	1.804520E-18
3.920000E+03	3.991923E-17	1.822523E-18
3.930000E+03	4.033157E-17	1.840371E-18
3.940000E+03	4.074378E-17	1.858189E-18
3.950000E+03	4.115428E-17	1.875907E-18
3.960000E+03	4.156438E-17	1.893581E-18
3.970000E+03	4.197115E-17	1.911081E-18
3.980000E+03	4.237867E-17	1.928591E-18
3.990000E+03	4.278270E-17	1.945918E-18
4.000000E+03	4.318455E-17	1.963122E-18
4.010000E+03	4.358553E-17	1.980263E-18
4.020000E+03	4.398421E-17	1.997276E-18
4.030000E+03	4.438054E-17	2.014158E-18
4.040000E+03	4.477450E-17	2.030909E-18
4.050000E+03	4.516609E-17	2.047528E-18
4.060000E+03	4.555396E-17	2.063956E-18
4.070000E+03	4.594081E-17	2.080313E-18
4.080000E+03	4.632399E-17	2.096481E-18
4.090000E+03	4.670488E-17	2.112521E-18
4.100000E+03	4.708223E-17	2.128378E-18
4.110000E+03	4.745613E-17	2.144056E-18
4.120000E+03	4.782794E-17	2.159616E-18
4.130000E+03	4.819522E-17	2.174948E-18
4.140000E+03	4.855938E-17	2.190117E-18
4.150000E+03	4.892053E-17	2.205127E-18
4.160000E+03	4.927885E-17	2.219986E-18
4.170000E+03	4.963199E-17	2.234590E-18
4.180000E+03	4.998264E-17	2.249059E-18
4.190000E+03	5.032852E-17	2.263291E-18
4.200000E+03	5.067110E-17	2.277352E-18
4.210000E+03	5.100936E-17	2.291197E-18
4.220000E+03	5.134359E-17	2.304838E-18
4.230000E+03	5.167400E-17	2.318287E-18
4.240000E+03	5.200087E-17	2.331555E-18
4.250000E+03	5.232213E-17	2.344550E-18
4.260000E+03	5.263924E-17	2.357338E-18
4.270000E+03	5.295249E-17	2.369933E-18
4.280000E+03	5.326102E-17	2.382295E-18
4.290000E+03	5.356401E-17	2.394389E-18
4.300000E+03	5.386405E-17	2.406330E-18
4.310000E+03	5.415804E-17	2.417982E-18
4.320000E+03	5.444746E-17	2.429409E-18
4.330000E+03	5.473150E-17	2.440576E-18
4.340000E+03	5.501160E-17	2.451549E-18
4.350000E+03	5.528585E-17	2.462242E-18
4.360000E+03	5.555569E-17	2.472719E-18
4.370000E+03	5.581925E-17	2.482898E-18
4.380000E+03	5.607794E-17	2.492843E-18
4.390000E+03	5.633099E-17	2.502519E-18
4.400000E+03	5.657977E-17	2.511987E-18
4.410000E+03	5.682139E-17	2.521120E-18
4.420000E+03	5.705827E-17	2.530026E-18
4.430000E+03	5.728965E-17	2.538671E-18
4.440000E+03	5.751478E-17	2.547022E-18
4.450000E+03	5.773495E-17	2.555139E-18
4.460000E+03	5.794842E-17	2.562942E-18
4.470000E+03	5.815644E-17	2.570490E-18
4.480000E+03	5.835831E-17	2.577750E-18
4.490000E+03	5.855528E-17	2.584779E-18
4.500000E+03	5.874559E-17	2.591500E-18
4.510000E+03	5.893051E-17	2.597969E-18
4.520000E+03	5.910928E-17	2.604154E-18
4.530000E+03	5.928218E-17	2.610067E-18
4.540000E+03	5.944946E-17	2.615719E-18
4.550000E+03	5.961134E-17	2.621121E-18
4.560000E+03	5.976710E-17	2.626243E-18
4.570000E+03	5.991796E-17	2.631137E-18
4.580000E+03	6.006317E-17	2.635772E-18
4.590000E+03	6.020300E-17	2.640159E-18
4.600000E+03	6.033768E-17	2.644310E-18
4.610000E+03	6.046744E-17	2.648235E-18
4.620000E+03	6.059251E-17	2.651945E-18
4.630000E+03	6.071222E-17	2.655410E-18
4.640000E+03	6.082864E-17	2.658723E-18
4.650000E+03	6.094017E-17	2.661812E-18
4.660000E+03	6.104705E-17	2.664690E-18
4.670000E+03	6.115136E-17	2.667447E-18
4.680000E+03	6.125148E-17	2.670013E-18
4.690000E+03	6.134764E-17	2.672399E-18
4.700000E+03	6.144098E-17	2.674655E-18
4.710000E+03	6.153170E-17	2.676789E-18
4.720000E+03	6.161908E-17	2.678771E-18
4.730000E+03	6.170511E-17	2.680688E-18
4.740000E+03	6.178812E-17	2.682466E-18
4.750000E+03	6.186914E-17	2.684152E-18
4.760000E+03	6.194823E-17	2.685748E-18
4.770000E+03	6.202544E-17	2.687256E-18
4.780000E+03	6.210166E-17	2.688716E-18
4.790000E+03	6.217505E-17	2.690048E-18
4.800000E+03	6.224819E-17	2.691363E-18
4.810000E+03	6.231915E-17	2.692579E-18
4.820000E+03	6.238776E-17	2.693689E-18
4.830000E+03	6.245561E-17	2.694761E-18
4.840000E+03	6.252165E-17	2.695750E-18
4.850000E+03	6.258581E-17	2.696654E-18
4.860000E+03	6.264815E-17	2.697475E-18
4.870000E+03	6.271066E-17	2.698299E-18
4.880000E+03	6.277210E-17	2.699073E-18
4.890000E+03	6.283392E-17	2.699861E-18
4.900000E+03	6.289676E-17	2.700688E-18
4.910000E+03	6.296213E-17	2.701619E-18
4.920000E+03	6.303064E-17	2.702682E-18
4.930000E+03	6.310199E-17	2.703863E-18
4.940000E+03	6.317836E-17	2.705254E-18
4.950000E+03	6.325846E-17	2.706800E-18
4.960000E+03	6.334432E-17	2.708589E-18
4.970000E+03	6.343619E-17	2.710628E-18
4.980000E+03	6.353424E-17	2.712927E-18
4.990000E+03	6.363772E-17	2.715452E-18
5.000000E+03	6.374836E-17	2.718275E-18
5.010000E+03	6.386526E-17	2.721359E-18
5.020000E+03	6.398917E-17	2.724736E-18
5.030000E+03	6.411910E-17	2.728361E-18
5.040000E+03	6.425569E-17	2.732261E-18
5.050000E+03	6.439869E-17	2.736426E-18
5.060000E+03	6.454781E-17	2.740843E-18
5.070000E+03	6.470272E-17	2.745497E-18
5.080000E+03	6.486305E-17	2.750373E-18
5.090000E+03	6.502929E-17	2.755489E-18
5.100000E+03	6.520103E-17	2.760829E-18
5.110000E+03	6.537698E-17	2.766337E-18
5.120000E+03	6.555673E-17	2.771996E-18
5.130000E+03	6.574068E-17	2.777823E-18
5.140000E+03	6.592835E-17	2.783796E-18
5.150000E+03	6.611928E-17	2.789896E-18
5.160000E+03	6.631298E-17	2.796102E-18
5.170000E+03	6.650810E-17	2.802358E-18
5.180000E+03	6.670498E-17	2.808677E-18
5.190000E+03	6.690309E-17	2.815036E-18
5.200000E+03	6.710100E-17	2.821377E-18
5.210000E+03	6.729985E-17	2.827746E-18
5.220000E+03	6.749730E-17	2.834046E-18
5.230000E+03	6.769272E-17	2.840249E-18
5.240000E+03	6.788627E-17	2.846364E-18
5.250000E+03	6.807722E-17	2.852360E-18
5.260000E+03	6.826397E-17	2.858170E-18
5.270000E+03	6.844570E-17	2.863761E-18
5.280000E+03	6.862158E-17	2.869097E-18
5.290000E+03	6.879164E-17	2.874181E-18
5.300000E+03	6.895324E-17	2.878904E-18
5.310000E+03	6.910633E-17	2.883264E-18
5.320000E+03	6.924999E-17	2.887223E-18
5.330000E+03	6.938332E-17	2.890745E-18
5.340000E+03	6.950449E-17	2.893755E-18
5.350000E+03	6.961260E-17	2.896216E-18
5.360000E+03	6.970763E-17	2.898130E-18
5.370000E+03	6.978695E-17	2.899387E-18
5.380000E+03	6.985149E-17	2.900028E-18
5.390000E+03	6.989955E-17	2.899984E-18
5.400000E+03	6.992951E-17	2.899190E-18
5.410000E+03	6.994153E-17	2.897652E-18
5.420000E+03	6.993406E-17	2.895310E-18
5.430000E+03	6.990739E-17	2.892177E-18
5.440000E+03	6.986007E-17	2.888194E-18
5.450000E+03	6.979251E-17	2.883381E-18
5.460000E+03	6.970341E-17	2.877685E-18
5.470000E+03	6.959331E-17	2.871131E-18
5.480000E+03	6.946025E-17	2.863640E-18
5.490000E+03	6.930579E-17	2.855278E-18
5.500000E+03	6.912987E-17	2.846045E-18
5.510000E+03	6.893169E-17	2.835910E-18
5.520000E+03	6.871142E-17	2.824880E-18
5.530000E+03	6.847103E-17	2.813040E-18
5.540000E+03	6.820837E-17	2.800302E-18
5.550000E+03	6.792653E-17	2.786795E-18
5.560000E+03	6.762531E-17	2.772514E-18
5.570000E+03	6.730468E-17	2.757457E-18
5.580000E+03	6.696724E-17	2.741733E-18
5.590000E+03	6.661407E-17	2.725389E-18
5.600000E+03	6.624557E-17	2.708440E-18
5.610000E+03	6.586307E-17	2.690945E-18
5.620000E+03	6.546974E-17	2.673031E-18
5.630000E+03	6.506555E-17	2.654700E-18
5.640000E+03	6.465386E-17	2.636090E-18
5.650000E+03	6.423654E-17	2.617276E-18
5.660000E+03	6.381474E-17	2.598307E-18
5.670000E+03	6.339126E-17	2.579296E-18
5.680000E+03	6.296822E-17	2.560331E-18
5.690000E+03	6.254777E-17	2.541498E-18
5.700000E+03	6.213285E-17	2.522916E-18
5.710000E+03	6.172482E-17	2.504641E-18
5.720000E+03	6.132661E-17	2.486789E-18
5.730000E+03	6.094030E-17	2.469446E-18
5.740000E+03	6.056715E-17	2.452661E-18
5.750000E+03	6.021059E-17	2.436571E-18
5.760000E+03	5.987167E-17	2.421218E-18
5.770000E+03	5.955205E-17	2.406667E-18
5.780000E+03	5.925399E-17	2.393009E-18
5.790000E+03	5.897810E-17	2.380265E-18
5.800000E+03	5.872551E-17	2.368480E-18
5.810000E+03	5.849798E-17	2.357723E-18
5.820000E+03	5.829629E-17	2.348024E-18
5.830000E+03	5.812103E-17	2.339402E-18
5.840000E+03	5.797186E-17	2.331845E-18
5.850000E+03	5.785049E-17	2.325417E-18
5.860000E+03	5.775549E-17	2.320059E-18
5.870000E+03	5.768674E-17	2.315765E-18
5.880000E+03	5.764548E-17	2.312582E-18
5.890000E+03	5.762982E-17	2.310432E-18
5.900000E+03	5.764001E-17	2.309323E-18
5.910000E+03	5.767544E-17	2.309229E-18
5.920000E+03	5.773474E-17	2.310094E-18
5.930000E+03	5.781868E-17	2.311946E-18
5.940000E+03	5.792432E-17	2.314666E-18
5.950000E+03	5.805247E-17	2.318285E-18
5.960000E+03	5.820243E-17	2.322773E-18
5.970000E+03	5.837291E-17	2.328078E-18
5.980000E+03	5.856338E-17	2.334176E-18
5.990000E+03	5.877421E-17	2.341081E-18
6.000000E+03	5.900363E-17	2.348722E-18
6.010000E+03	5.925305E-17	2.357153E-18
6.020000E+03	5.952178E-17	2.366345E-18
6.030000E+03	5.980926E-17	2.376276E-18
6.040000E+03	6.011668E-17	2.386990E-18
6.050000E+03	6.044461E-17	2.398510E-18
6.060000E+03	6.079380E-17	2.410863E-18
6.070000E+03	6.116435E-17	2.424054E-18
6.080000E+03	6.155726E-17	2.438119E-18
6.090000E+03	6.197449E-17	2.453135E-18
6.100000E+03	6.241642E-17	2.469115E-18
6.110000E+03	6.288434E-17	2.486110E-18
6.120000E+03	6.337948E-17	2.504166E-18
6.130000E+03	6.390311E-17	2.523332E-18
6.140000E+03	6.445640E-17	2.543651E-18
6.150000E+03	6.504038E-17	2.565165E-18
6.160000E+03	6.565599E-17	2.587906E-18
6.170000E+03	6.630298E-17	2.611865E-18
6.180000E+03	6.698261E-17	2.637088E-18
6.190000E+03	6.769489E-17	2.663574E-18
6.200000E+03	6.843847E-17	2.691269E-18
6.210000E+03	6.921320E-17	2.720164E-18
6.220000E+03	7.001632E-17	2.750151E-18
6.230000E+03	7.084628E-17	2.781166E-18
6.240000E+03	7.169903E-17	2.813048E-18
6.250000E+03	7.257177E-17	2.845687E-18
6.260000E+03	7.345915E-17	2.878872E-18
6.270000E+03	7.435712E-17	2.912443E-18
6.280000E+03	7.525902E-17	2.946140E-18
6.290000E+03	7.615961E-17	2.979758E-18
6.300000E+03	7.705102E-17	3.012987E-18
6.310000E+03	7.792691E-17	3.045583E-18
6.320000E+03	7.877842E-17	3.077200E-18
6.330000E+03	7.959841E-17	3.107561E-18
6.340000E+03	8.037738E-17	3.136296E-18
6.350000E+03	8.110780E-17	3.163117E-18
6.360000E+03	8.178113E-17	3.187692E-18
6.370000E+03	8.238897E-17	3.209698E-18
6.380000E+03	8.292214E-17	3.228781E-18
6.390000E+03	8.337418E-17	3.244696E-18
6.400000E+03	8.373936E-17	3.257224E-18
6.410000E+03	8.400933E-17	3.266045E-18
6.420000E+03	8.418014E-17	3.271012E-18
6.430000E+03	8.424896E-17	3.272020E-18
6.440000E+03	8.421187E-17	3.268924E-18
6.450000E+03	8.406730E-17	3.261668E-18
6.460000E+03	8.381617E-17	3.250295E-18
6.470000E+03	8.345836E-17	3.234806E-18
6.480000E+03	8.299730E-17	3.215340E-18
6.490000E+03	8.243643E-17	3.192035E-18
6.500000E+03	8.177910E-17	3.165026E-18
6.510000E+03	8.103306E-17	3.134619E-18
6.520000E+03	8.020336E-17	3.101014E-18
6.530000E+03	7.929691E-17	3.064482E-18
6.540000E+03	7.832109E-17	3.025312E-18
6.550000E+03	7.728468E-17	2.983846E-18
6.560000E+03	7.619447E-17	2.940350E-18
6.570000E+03	7.506055E-17	2.895215E-18
6.580000E+03	7.388857E-17	2.848662E-18
6.590000E+03	7.268727E-17	2.801028E-18
6.600000E+03	7.146401E-17	2.752599E-18
6.610000E+03	7.022683E-17	2.703684E-18
6.620000E+03	6.898131E-17	2.654499E-18
6.630000E+03	6.773459E-17	2.605318E-18
6.640000E+03	6.649234E-17	2.556360E-18
6.650000E+03	6.525876E-17	2.507785E-18
6.660000E+03	6.403954E-17	2.459810E-18
6.670000E+03	6.283979E-17	2.412631E-18
6.680000E+03	6.166229E-17	2.366353E-18
6.690000E+03	6.051037E-17	2.321103E-18
6.700000E+03	5.938776E-17	2.277021E-18
6.710000E+03	5.829689E-17	2.234200E-18
6.720000E+03	5.723899E-17	2.192683E-18
6.730000E+03	5.621749E-17	2.152602E-18
6.740000E+03	5.523217E-17	2.113944E-18
6.750000E+03	5.428581E-17	2.076815E-18
6.760000E+03	5.337850E-17	2.041215E-18
6.770000E+03	5.251092E-17	2.007169E-18
6.780000E+03	5.168437E-17	1.974724E-18
6.790000E+03	5.089835E-17	1.943858E-18
6.800000E+03	5.015383E-17	1.914606E-18
6.810000E+03	4.945084E-17	1.886968E-18
6.820000E+03	4.878932E-17	1.860939E-18
6.830000E+03	4.816840E-17	1.836482E-18
6.840000E+03	4.758862E-17	1.813618E-18
6.850000E+03	4.705044E-17	1.792362E-18
6.860000E+03	4.655213E-17	1.772645E-18
6.870000E+03	4.609481E-17	1.754507E-18
6.880000E+03	4.567747E-17	1.737909E-18
6.890000E+03	4.529983E-17	1.722838E-18
6.900000E+03	4.496162E-17	1.709283E-18
6.910000E+03	4.466257E-17	1.697229E-18
6.920000E+03	4.440307E-17	1.686691E-18
6.930000E+03	4.418210E-17	1.677629E-18
6.940000E+03	4.399934E-17	1.670027E-18
6.950000E+03	4.385513E-17	1.663898E-18
6.960000E+03	4.374837E-17	1.659197E-18
6.970000E+03	4.367869E-17	1.655910E-18
6.980000E+03	4.364561E-17	1.654016E-18
6.990000E+03	4.364935E-17	1.653522E-18
7.000000E+03	4.368802E-17	1.654355E-18
7.010000E+03	4.376238E-17	1.656543E-18
7.020000E+03	4.387113E-17	1.660035E-18
7.030000E+03	4.401357E-17	1.664802E-18
7.040000E+03	4.418892E-17	1.670814E-18
7.050000E+03	4.439632E-17	1.678038E-18
7.060000E+03	4.463485E-17	1.686436E-18
7.070000E+03	4.490344E-17	1.695969E-18
7.080000E+03	4.520026E-17	1.706565E-18
7.090000E+03	4.552476E-17	1.718204E-18
7.100000E+03	4.587482E-17	1.730803E-18
7.110000E+03	4.624965E-17	1.744333E-18
7.120000E+03	4.664689E-17	1.758703E-18
7.130000E+03	4.706545E-17	1.773872E-18
7.140000E+03	4.750190E-17	1.789711E-18
7.150000E+03	4.795564E-17	1.806195E-18
7.160000E+03	4.842287E-17	1.823183E-18
7.170000E+03	4.890271E-17	1.840640E-18
7.180000E+03	4.939027E-17	1.858382E-18
7.190000E+03	4.988432E-17	1.876363E-18
7.200000E+03	5.038200E-17	1.894475E-18
7.210000E+03	5.087949E-17	1.912576E-18
7.220000E+03	5.137360E-17	1.930545E-18
7.230000E+03	5.186022E-17	1.948230E-18
7.240000E+03	5.233758E-17	1.965563E-18
7.250000E+03	5.280054E-17	1.982353E-18
7.260000E+03	5.324640E-17	1.998498E-18
7.270000E+03	5.367067E-17	2.013833E-18
7.280000E+03	5.406976E-17	2.028222E-18
7.290000E+03	5.444003E-17	2.041532E-18
7.300000E+03	5.477793E-17	2.053629E-18
7.310000E+03	5.507998E-17	2.064385E-18
7.320000E+03	5.534195E-17	2.073643E-18
7.330000E+03	5.556155E-17	2.081318E-18
7.340000E+03	5.573493E-17	2.087268E-18
7.350000E+03	5.586028E-17	2.091427E-18
7.360000E+03	5.593342E-17	2.093640E-18
7.370000E+03	5.595413E-17	2.093901E-18
7.380000E+03	5.591900E-17	2.092083E-18
7.390000E+03	5.582866E-17	2.088212E-18
7.400000E+03	5.568065E-17	2.082197E-18
7.410000E+03	5.547572E-17	2.074068E-18
7.420000E+03	5.521337E-17	2.063809E-18
7.430000E+03	5.489548E-17	2.051489E-18
7.440000E+03	5.452354E-17	2.037168E-18
7.450000E+03	5.409880E-17	2.020892E-18
7.460000E+03	5.362388E-17	2.002760E-18
7.470000E+03	5.310280E-17	1.982924E-18
7.480000E+03	5.253919E-17	1.961520E-18
7.490000E+03	5.193537E-17	1.938635E-18
7.500000E+03	5.129826E-17	1.914528E-18
7.510000E+03	5.063004E-17	1.889281E-18
7.520000E+03	4.993727E-17	1.863139E-18
7.530000E+03	4.922495E-17	1.836288E-18
7.540000E+03	4.849741E-17	1.808890E-18
7.550000E+03	4.775973E-17	1.781134E-18
7.560000E+03	4.701773E-17	1.753237E-18
7.570000E+03	4.627627E-17	1.725380E-18
7.580000E+03	4.554003E-17	1.697737E-18
7.590000E+03	4.481273E-17	1.670446E-18
7.600000E+03	4.409848E-17	1.643659E-18
7.610000E+03	4.340255E-17	1.617572E-18
7.620000E+03	4.272687E-17	1.592255E-18
7.630000E+03	4.207578E-17	1.567871E-18
7.640000E+03	4.145027E-17	1.544454E-18
7.650000E+03	4.085260E-17	1.522088E-18
7.660000E+03	4.028352E-17	1.500801E-18
7.670000E+03	3.974329E-17	1.480600E-18
7.680000E+03	3.923181E-17	1.461483E-18
7.690000E+03	3.874876E-17	1.443436E-18
7.700000E+03	3.829366E-17	1.426440E-18
7.710000E+03	3.786588E-17	1.410473E-18
7.720000E+03	3.746472E-17	1.395506E-18
7.730000E+03	3.708937E-17	1.381511E-18
7.740000E+03	3.673901E-17	1.368454E-18
7.750000E+03	3.641334E-17	1.356327E-18
7.760000E+03	3.611025E-17	1.345048E-18
