#wls	flux	fluxerr
1.600000E+03	1.930335E-18	1.092489E-19
1.640000E+03	1.961680E-18	1.109874E-19
1.680000E+03	1.995624E-18	1.128708E-19
1.720000E+03	2.033040E-18	1.149481E-19
1.760000E+03	2.073747E-18	1.172090E-19
1.800000E+03	2.117937E-18	1.196638E-19
1.840000E+03	2.166189E-18	1.223451E-19
1.880000E+03	2.218745E-18	1.252661E-19
1.920000E+03	2.275859E-18	1.284408E-19
1.960000E+03	2.337813E-18	1.318846E-19
2.000000E+03	2.404904E-18	1.356138E-19
2.040000E+03	2.477873E-18	1.396697E-19
2.080000E+03	2.557528E-18	1.440972E-19
2.120000E+03	2.643416E-18	1.488701E-19
2.160000E+03	2.736842E-18	1.540613E-19
2.200000E+03	2.838303E-18	1.596977E-19
2.240000E+03	2.948325E-18	1.658083E-19
2.280000E+03	3.067475E-18	1.724237E-19
2.320000E+03	3.197360E-18	1.796334E-19
2.360000E+03	3.338184E-18	1.874474E-19
2.400000E+03	3.491202E-18	1.959349E-19
2.440000E+03	3.657770E-18	2.051704E-19
2.480000E+03	3.838216E-18	2.151707E-19
2.520000E+03	4.035187E-18	2.260822E-19
2.560000E+03	4.248554E-18	2.378956E-19
2.600000E+03	4.481208E-18	2.507704E-19
2.640000E+03	4.733709E-18	2.647353E-19
2.680000E+03	5.009249E-18	2.799660E-19
2.720000E+03	5.308510E-18	2.964972E-19
2.760000E+03	5.634245E-18	3.144792E-19
2.800000E+03	5.988628E-18	3.340292E-19
2.840000E+03	6.373892E-18	3.552673E-19
2.880000E+03	6.792295E-18	3.783146E-19
2.920000E+03	7.247756E-18	4.033838E-19
2.960000E+03	7.741795E-18	4.305533E-19
3.000000E+03	8.278390E-18	4.600380E-19
3.010000E+03	8.419263E-18	4.677743E-19
3.020000E+03	8.563406E-18	4.756885E-19
3.030000E+03	8.709930E-18	4.837313E-19
3.040000E+03	8.859763E-18	4.919540E-19
3.050000E+03	9.012933E-18	5.003580E-19
3.060000E+03	9.168522E-18	5.088923E-19
3.070000E+03	9.327477E-18	5.176093E-19
3.080000E+03	9.489818E-18	5.265099E-19
3.090000E+03	9.655564E-18	5.355951E-19
3.100000E+03	9.823755E-18	5.448114E-19
3.110000E+03	9.995379E-18	5.542136E-19
3.120000E+03	1.017141E-17	5.638553E-19
3.130000E+03	1.034990E-17	5.736288E-19
3.140000E+03	1.053185E-17	5.835889E-19
3.150000E+03	1.071724E-17	5.937348E-19
3.160000E+03	1.090711E-17	6.041235E-19
3.170000E+03	1.109942E-17	6.146423E-19
3.180000E+03	1.129622E-17	6.254040E-19
3.190000E+03	1.149647E-17	6.363515E-19
3.200000E+03	1.170018E-17	6.474845E-19
3.210000E+03	1.190731E-17	6.588013E-19
3.220000E+03	1.211893E-17	6.703603E-19
3.230000E+03	1.233503E-17	6.821613E-19
3.240000E+03	1.255347E-17	6.940854E-19
3.250000E+03	1.277743E-17	7.063085E-19
3.260000E+03	1.300367E-17	7.186506E-19
3.270000E+03	1.323542E-17	7.312908E-19
3.280000E+03	1.347047E-17	7.441065E-19
3.290000E+03	1.370989E-17	7.571570E-19
3.300000E+03	1.395367E-17	7.704406E-19
3.310000E+03	1.420064E-17	7.838931E-19
3.320000E+03	1.445300E-17	7.976362E-19
3.330000E+03	1.470848E-17	8.115435E-19
3.340000E+03	1.496928E-17	8.257365E-19
3.350000E+03	1.523308E-17	8.400874E-19
3.360000E+03	1.550213E-17	8.547193E-19
3.370000E+03	1.577521E-17	8.695654E-19
3.380000E+03	1.605344E-17	8.846866E-19
3.390000E+03	1.633440E-17	8.999497E-19
3.400000E+03	1.662156E-17	9.155458E-19
3.410000E+03	1.691130E-17	9.312747E-19
3.420000E+03	1.720711E-17	9.473286E-19
3.430000E+03	1.750532E-17	9.635057E-19
3.440000E+03	1.780944E-17	9.799980E-19
3.450000E+03	1.811819E-17	9.967357E-19
3.460000E+03	1.843027E-17	1.013646E-18
3.470000E+03	1.874677E-17	1.030790E-18
3.480000E+03	1.906882E-17	1.048229E-18
3.490000E+03	1.939387E-17	1.065822E-18
3.500000E+03	1.972427E-17	1.083698E-18
3.510000E+03	2.005864E-17	1.101782E-18
3.520000E+03	2.039688E-17	1.120067E-18
3.530000E+03	2.074009E-17	1.138613E-18
3.540000E+03	2.108691E-17	1.157346E-18
3.550000E+03	2.143843E-17	1.176326E-18
3.560000E+03	2.179453E-17	1.195544E-18
3.570000E+03	2.215378E-17	1.214924E-18
3.580000E+03	2.251857E-17	1.234595E-18
3.590000E+03	2.288621E-17	1.254409E-18
3.600000E+03	2.325908E-17	1.274498E-18
3.610000E+03	2.363446E-17	1.294711E-18
3.620000E+03	2.401472E-17	1.315178E-18
3.630000E+03	2.439843E-17	1.335821E-18
3.640000E+03	2.478668E-17	1.356699E-18
3.650000E+03	2.517801E-17	1.377732E-18
3.660000E+03	2.557350E-17	1.398978E-18
3.670000E+03	2.597170E-17	1.420358E-18
3.680000E+03	2.637496E-17	1.442001E-18
3.690000E+03	2.678053E-17	1.463756E-18
3.700000E+03	2.718948E-17	1.485680E-18
3.710000E+03	2.760292E-17	1.507835E-18
3.720000E+03	2.801804E-17	1.530067E-18
3.730000E+03	2.843722E-17	1.552504E-18
3.740000E+03	2.886025E-17	1.575136E-18
3.750000E+03	2.928434E-17	1.597811E-18
3.760000E+03	2.971313E-17	1.620726E-18
3.770000E+03	3.014385E-17	1.643730E-18
3.780000E+03	3.057757E-17	1.666881E-18
3.790000E+03	3.101277E-17	1.690096E-18
3.800000E+03	3.145181E-17	1.713504E-18
3.810000E+03	3.189193E-17	1.736954E-18
3.820000E+03	3.233545E-17	1.760572E-18
3.830000E+03	3.278089E-17	1.784278E-18
3.840000E+03	3.322804E-17	1.808059E-18
3.850000E+03	3.367796E-17	1.831973E-18
3.860000E+03	3.412917E-17	1.855940E-18
3.870000E+03	3.458148E-17	1.879948E-18
3.880000E+03	3.503596E-17	1.904056E-18
3.890000E+03	3.549238E-17	1.928252E-18
3.900000E+03	3.594933E-17	1.952458E-18
3.910000E+03	3.640787E-17	1.976732E-18
3.920000E+03	3.686780E-17	2.001063E-18
3.930000E+03	3.732773E-17	2.025375E-18
3.940000E+03	3.778996E-17	2.049792E-18
3.950000E+03	3.825185E-17	2.074173E-18
3.960000E+03	3.871451E-17	2.098576E-18
3.970000E+03	3.917778E-17	2.122992E-18
3.980000E+03	3.964152E-17	2.147415E-18
3.990000E+03	4.010563E-17	2.171838E-18
4.000000E+03	4.056996E-17	2.196253E-18
4.010000E+03	4.103324E-17	2.220592E-18
4.020000E+03	4.149776E-17	2.244978E-18
4.030000E+03	4.196104E-17	2.269277E-18
4.040000E+03	4.242423E-17	2.293551E-18
4.050000E+03	4.288724E-17	2.317795E-18
4.060000E+03	4.334888E-17	2.341945E-18
4.070000E+03	4.381028E-17	2.366062E-18
4.080000E+03	4.427141E-17	2.390144E-18
4.090000E+03	4.472997E-17	2.414067E-18
4.100000E+03	4.518829E-17	2.437956E-18
4.110000E+03	4.564409E-17	2.461688E-18
4.120000E+03	4.609970E-17	2.485390E-18
4.130000E+03	4.655291E-17	2.508942E-18
4.140000E+03	4.700491E-17	2.532409E-18
4.150000E+03	4.745468E-17	2.555734E-18
4.160000E+03	4.790123E-17	2.578865E-18
4.170000E+03	4.834687E-17	2.601928E-18
4.180000E+03	4.878955E-17	2.624809E-18
4.190000E+03	4.922942E-17	2.647519E-18
4.200000E+03	4.966664E-17	2.670066E-18
4.210000E+03	5.010033E-17	2.692402E-18
4.220000E+03	5.053173E-17	2.714596E-18
4.230000E+03	5.095894E-17	2.736543E-18
4.240000E+03	5.138323E-17	2.758313E-18
4.250000E+03	5.180272E-17	2.779805E-18
4.260000E+03	5.221977E-17	2.801146E-18
4.270000E+03	5.263148E-17	2.822180E-18
4.280000E+03	5.303917E-17	2.842978E-18
4.290000E+03	5.344209E-17	2.863501E-18
4.300000E+03	5.383948E-17	2.883708E-18
4.310000E+03	5.423267E-17	2.903669E-18
4.320000E+03	5.461991E-17	2.923293E-18
4.330000E+03	5.500150E-17	2.942595E-18
4.340000E+03	5.537775E-17	2.961592E-18
4.350000E+03	5.574797E-17	2.980247E-18
4.360000E+03	5.611146E-17	2.998524E-18
4.370000E+03	5.646856E-17	3.016440E-18
4.380000E+03	5.681954E-17	3.034011E-18
4.390000E+03	5.716276E-17	3.051149E-18
4.400000E+03	5.749950E-17	3.067924E-18
4.410000E+03	5.782908E-17	3.084298E-18
4.420000E+03	5.815083E-17	3.100238E-18
4.430000E+03	5.846505E-17	3.115759E-18
4.440000E+03	5.877107E-17	3.130825E-18
4.450000E+03	5.906914E-17	3.145452E-18
4.460000E+03	5.935955E-17	3.159654E-18
4.470000E+03	5.964161E-17	3.173397E-18
4.480000E+03	5.991558E-17	3.186692E-18
4.490000E+03	6.018169E-17	3.199555E-18
4.500000E+03	6.043834E-17	3.211899E-18
4.510000E+03	6.068759E-17	3.223835E-18
4.520000E+03	6.092874E-17	3.235327E-18
4.530000E+03	6.116021E-17	3.246291E-18
4.540000E+03	6.138490E-17	3.256880E-18
4.550000E+03	6.160032E-17	3.266966E-18
4.560000E+03	6.180759E-17	3.276605E-18
4.570000E+03	6.200689E-17	3.285809E-18
4.580000E+03	6.219755E-17	3.294544E-18
4.590000E+03	6.238153E-17	3.302912E-18
4.600000E+03	6.255641E-17	3.310787E-18
4.610000E+03	6.272414E-17	3.318273E-18
4.620000E+03	6.288496E-17	3.325382E-18
4.630000E+03	6.303734E-17	3.332034E-18
4.640000E+03	6.318327E-17	3.338335E-18
4.650000E+03	6.332301E-17	3.344299E-18
4.660000E+03	6.345508E-17	3.349848E-18
4.670000E+03	6.358150E-17	3.355090E-18
4.680000E+03	6.370172E-17	3.359995E-18
4.690000E+03	6.381691E-17	3.364627E-18
4.700000E+03	6.392571E-17	3.368913E-18
4.710000E+03	6.403102E-17	3.373007E-18
4.720000E+03	6.413068E-17	3.376795E-18
4.730000E+03	6.422760E-17	3.380431E-18
4.740000E+03	6.432052E-17	3.383849E-18
4.750000E+03	6.441068E-17	3.387115E-18
4.760000E+03	6.449854E-17	3.390252E-18
4.770000E+03	6.458450E-17	3.393283E-18
4.780000E+03	6.466901E-17	3.396230E-18
4.790000E+03	6.475333E-17	3.399160E-18
4.800000E+03	6.483790E-17	3.402096E-18
4.810000E+03	6.492230E-17	3.405017E-18
4.820000E+03	6.500856E-17	3.408029E-18
4.830000E+03	6.509628E-17	3.411110E-18
4.840000E+03	6.518660E-17	3.414320E-18
4.850000E+03	6.527986E-17	3.417677E-18
4.860000E+03	6.537632E-17	3.421195E-18
4.870000E+03	6.547697E-17	3.424924E-18
4.880000E+03	6.558112E-17	3.428829E-18
4.890000E+03	6.569043E-17	3.432997E-18
4.900000E+03	6.580410E-17	3.437385E-18
4.910000E+03	6.592293E-17	3.442034E-18
4.920000E+03	6.604767E-17	3.446983E-18
4.930000E+03	6.617661E-17	3.452143E-18
4.940000E+03	6.631204E-17	3.457633E-18
4.950000E+03	6.645222E-17	3.463362E-18
4.960000E+03	6.659856E-17	3.469403E-18
4.970000E+03	6.675008E-17	3.475703E-18
4.980000E+03	6.690816E-17	3.482336E-18
4.990000E+03	6.707094E-17	3.489203E-18
5.000000E+03	6.724060E-17	3.496418E-18
5.010000E+03	6.741444E-17	3.503840E-18
5.020000E+03	6.759459E-17	3.511578E-18
5.030000E+03	6.777993E-17	3.519575E-18
5.040000E+03	6.797015E-17	3.527814E-18
5.050000E+03	6.816573E-17	3.536320E-18
5.060000E+03	6.836553E-17	3.545033E-18
5.070000E+03	6.857080E-17	3.554017E-18
5.080000E+03	6.877957E-17	3.563170E-18
5.090000E+03	6.899306E-17	3.572555E-18
5.100000E+03	6.921008E-17	3.582110E-18
5.110000E+03	6.943023E-17	3.591814E-18
5.120000E+03	6.965389E-17	3.601687E-18
5.130000E+03	6.988063E-17	3.611706E-18
5.140000E+03	7.010918E-17	3.621804E-18
5.150000E+03	7.033987E-17	3.632001E-18
5.160000E+03	7.057224E-17	3.642270E-18
5.170000E+03	7.080495E-17	3.652543E-18
5.180000E+03	7.103828E-17	3.662835E-18
5.190000E+03	7.127170E-17	3.673118E-18
5.200000E+03	7.150461E-17	3.683361E-18
5.210000E+03	7.173560E-17	3.693492E-18
5.220000E+03	7.196487E-17	3.703520E-18
5.230000E+03	7.219095E-17	3.713372E-18
5.240000E+03	7.241399E-17	3.723053E-18
5.250000E+03	7.263247E-17	3.732488E-18
5.260000E+03	7.284568E-17	3.741639E-18
5.270000E+03	7.305288E-17	3.750469E-18
5.280000E+03	7.325333E-17	3.758941E-18
5.290000E+03	7.344541E-17	3.766971E-18
5.300000E+03	7.362836E-17	3.774523E-18
5.310000E+03	7.380223E-17	3.781598E-18
5.320000E+03	7.396542E-17	3.788116E-18
5.330000E+03	7.411629E-17	3.793994E-18
5.340000E+03	7.425410E-17	3.799195E-18
5.350000E+03	7.437893E-17	3.803723E-18
5.360000E+03	7.448922E-17	3.807500E-18
5.370000E+03	7.458343E-17	3.810449E-18
5.380000E+03	7.466089E-17	3.812536E-18
5.390000E+03	7.472097E-17	3.813732E-18
5.400000E+03	7.476395E-17	3.814051E-18
5.410000E+03	7.478675E-17	3.813338E-18
5.420000E+03	7.479057E-17	3.811655E-18
5.430000E+03	7.477410E-17	3.808937E-18
5.440000E+03	7.473696E-17	3.805167E-18
5.450000E+03	7.467881E-17	3.800329E-18
5.460000E+03	7.459856E-17	3.794369E-18
5.470000E+03	7.449689E-17	3.787323E-18
5.480000E+03	7.437292E-17	3.779148E-18
5.490000E+03	7.422749E-17	3.769889E-18
5.500000E+03	7.405990E-17	3.759513E-18
5.510000E+03	7.387207E-17	3.748117E-18
5.520000E+03	7.366268E-17	3.735636E-18
5.530000E+03	7.343300E-17	3.722138E-18
5.540000E+03	7.318360E-17	3.707651E-18
5.550000E+03	7.291517E-17	3.692214E-18
5.560000E+03	7.263011E-17	3.675947E-18
5.570000E+03	7.232768E-17	3.658817E-18
5.580000E+03	7.201050E-17	3.640956E-18
5.590000E+03	7.167885E-17	3.622379E-18
5.600000E+03	7.133472E-17	3.603189E-18
5.610000E+03	7.097938E-17	3.583451E-18
5.620000E+03	7.061578E-17	3.563313E-18
5.630000E+03	7.024374E-17	3.542769E-18
5.640000E+03	6.986552E-17	3.521932E-18
5.650000E+03	6.948348E-17	3.500922E-18
5.660000E+03	6.909995E-17	3.479857E-18
5.670000E+03	6.871496E-17	3.458738E-18
5.680000E+03	6.833169E-17	3.437725E-18
5.690000E+03	6.795177E-17	3.416901E-18
5.700000E+03	6.757679E-17	3.396345E-18
5.710000E+03	6.720835E-17	3.376138E-18
5.720000E+03	6.684876E-17	3.356393E-18
5.730000E+03	6.649952E-17	3.337188E-18
5.740000E+03	6.616132E-17	3.318554E-18
5.750000E+03	6.583704E-17	3.300637E-18
5.760000E+03	6.552723E-17	3.283462E-18
5.770000E+03	6.523307E-17	3.267088E-18
5.780000E+03	6.495645E-17	3.251607E-18
5.790000E+03	6.469761E-17	3.237032E-18
5.800000E+03	6.445819E-17	3.223442E-18
5.810000E+03	6.423901E-17	3.210877E-18
5.820000E+03	6.404000E-17	3.199333E-18
5.830000E+03	6.386247E-17	3.188873E-18
5.840000E+03	6.370691E-17	3.179519E-18
5.850000E+03	6.357368E-17	3.171290E-18
5.860000E+03	6.346232E-17	3.164159E-18
5.870000E+03	6.337375E-17	3.158172E-18
5.880000E+03	6.330808E-17	3.153333E-18
5.890000E+03	6.326463E-17	3.149604E-18
5.900000E+03	6.324409E-17	3.147021E-18
5.910000E+03	6.324567E-17	3.145541E-18
5.920000E+03	6.327001E-17	3.145195E-18
5.930000E+03	6.331624E-17	3.145938E-18
5.940000E+03	6.338350E-17	3.147726E-18
5.950000E+03	6.347313E-17	3.150625E-18
5.960000E+03	6.358429E-17	3.154589E-18
5.970000E+03	6.371614E-17	3.159578E-18
5.980000E+03	6.386939E-17	3.165624E-18
5.990000E+03	6.404328E-17	3.172689E-18
6.000000E+03	6.423789E-17	3.180775E-18
6.010000E+03	6.445333E-17	3.189886E-18
6.020000E+03	6.468977E-17	3.200029E-18
6.030000E+03	6.494670E-17	3.211178E-18
6.040000E+03	6.522520E-17	3.223385E-18
6.050000E+03	6.552488E-17	3.236628E-18
6.060000E+03	6.584692E-17	3.250966E-18
6.070000E+03	6.619027E-17	3.266345E-18
6.080000E+03	6.655619E-17	3.282825E-18
6.090000E+03	6.694441E-17	3.300392E-18
6.100000E+03	6.735621E-17	3.319108E-18
6.110000E+03	6.779128E-17	3.338956E-18
6.120000E+03	6.825006E-17	3.359956E-18
6.130000E+03	6.873369E-17	3.382163E-18
6.140000E+03	6.924078E-17	3.405507E-18
6.150000E+03	6.977141E-17	3.429991E-18
6.160000E+03	7.032713E-17	3.455690E-18
6.170000E+03	7.090515E-17	3.482464E-18
6.180000E+03	7.150737E-17	3.510406E-18
6.190000E+03	7.213041E-17	3.539350E-18
6.200000E+03	7.277470E-17	3.569315E-18
6.210000E+03	7.343779E-17	3.600179E-18
6.220000E+03	7.411759E-17	3.631839E-18
6.230000E+03	7.481249E-17	3.664216E-18
6.240000E+03	7.551867E-17	3.697122E-18
6.250000E+03	7.623282E-17	3.730393E-18
6.260000E+03	7.695119E-17	3.763847E-18
6.270000E+03	7.766966E-17	3.797280E-18
6.280000E+03	7.838373E-17	3.830476E-18
6.290000E+03	7.908956E-17	3.863244E-18
6.300000E+03	7.978113E-17	3.895294E-18
6.310000E+03	8.045309E-17	3.926363E-18
6.320000E+03	8.110093E-17	3.956235E-18
6.330000E+03	8.171803E-17	3.984587E-18
6.340000E+03	8.229871E-17	4.011145E-18
6.350000E+03	8.283831E-17	4.035684E-18
6.360000E+03	8.333128E-17	4.057938E-18
6.370000E+03	8.377127E-17	4.077599E-18
6.380000E+03	8.415419E-17	4.094473E-18
6.390000E+03	8.447532E-17	4.108333E-18
6.400000E+03	8.472933E-17	4.118924E-18
6.410000E+03	8.491451E-17	4.126168E-18
6.420000E+03	8.502661E-17	4.129862E-18
6.430000E+03	8.506307E-17	4.129886E-18
6.440000E+03	8.502198E-17	4.126153E-18
6.450000E+03	8.490218E-17	4.118610E-18
6.460000E+03	8.470427E-17	4.107293E-18
6.470000E+03	8.442853E-17	4.092218E-18
6.480000E+03	8.407492E-17	4.073389E-18
6.490000E+03	8.364620E-17	4.050944E-18
6.500000E+03	8.314471E-17	4.025001E-18
6.510000E+03	8.257448E-17	3.995758E-18
6.520000E+03	8.193693E-17	3.963288E-18
6.530000E+03	8.123811E-17	3.927889E-18
6.540000E+03	8.048243E-17	3.889776E-18
6.550000E+03	7.967459E-17	3.849180E-18
6.560000E+03	7.881957E-17	3.806343E-18
6.570000E+03	7.792249E-17	3.761517E-18
6.580000E+03	7.698863E-17	3.714956E-18
6.590000E+03	7.602423E-17	3.666965E-18
6.600000E+03	7.503454E-17	3.617799E-18
6.610000E+03	7.402468E-17	3.567704E-18
6.620000E+03	7.299967E-17	3.516925E-18
6.630000E+03	7.196529E-17	3.465739E-18
6.640000E+03	7.092612E-17	3.414368E-18
6.650000E+03	6.988558E-17	3.362976E-18
6.660000E+03	6.884961E-17	3.311849E-18
6.670000E+03	6.782109E-17	3.261125E-18
6.680000E+03	6.680444E-17	3.211015E-18
6.690000E+03	6.580198E-17	3.161630E-18
6.700000E+03	6.481841E-17	3.113195E-18
6.710000E+03	6.385460E-17	3.065751E-18
6.720000E+03	6.291467E-17	3.019493E-18
6.730000E+03	6.199983E-17	2.974479E-18
6.740000E+03	6.111280E-17	2.930837E-18
6.750000E+03	6.025514E-17	2.888640E-18
6.760000E+03	5.942825E-17	2.847954E-18
6.770000E+03	5.863328E-17	2.808832E-18
6.780000E+03	5.787202E-17	2.771357E-18
6.790000E+03	5.714448E-17	2.735529E-18
6.800000E+03	5.645133E-17	2.701377E-18
6.810000E+03	5.579386E-17	2.668960E-18
6.820000E+03	5.517242E-17	2.638295E-18
6.830000E+03	5.458654E-17	2.609357E-18
6.840000E+03	5.403792E-17	2.582223E-18
6.850000E+03	5.352510E-17	2.556825E-18
6.860000E+03	5.304963E-17	2.533231E-18
6.870000E+03	5.261071E-17	2.511404E-18
6.880000E+03	5.220826E-17	2.491337E-18
6.890000E+03	5.184291E-17	2.473058E-18
6.900000E+03	5.151376E-17	2.456523E-18
6.910000E+03	5.122065E-17	2.441722E-18
6.920000E+03	5.096405E-17	2.428675E-18
6.930000E+03	5.074297E-17	2.417334E-18
6.940000E+03	5.055708E-17	2.407682E-18
6.950000E+03	5.040673E-17	2.399733E-18
6.960000E+03	5.029148E-17	2.393464E-18
6.970000E+03	5.020944E-17	2.388785E-18
6.980000E+03	5.016221E-17	2.385769E-18
6.990000E+03	5.014707E-17	2.384287E-18
7.000000E+03	5.016479E-17	2.384372E-18
7.010000E+03	5.021465E-17	2.385990E-18
7.020000E+03	5.029445E-17	2.389035E-18
7.030000E+03	5.040475E-17	2.393531E-18
7.040000E+03	5.054388E-17	2.399399E-18
7.050000E+03	5.071083E-17	2.406589E-18
7.060000E+03	5.090447E-17	2.415047E-18
7.070000E+03	5.112359E-17	2.424714E-18
7.080000E+03	5.136687E-17	2.435527E-18
7.090000E+03	5.163288E-17	2.447417E-18
7.100000E+03	5.191935E-17	2.460276E-18
7.110000E+03	5.222463E-17	2.474025E-18
7.120000E+03	5.254768E-17	2.488614E-18
7.130000E+03	5.288589E-17	2.503919E-18
7.140000E+03	5.323722E-17	2.519844E-18
7.150000E+03	5.359954E-17	2.536287E-18
7.160000E+03	5.397062E-17	2.553141E-18
7.170000E+03	5.434730E-17	2.570259E-18
7.180000E+03	5.472790E-17	2.587561E-18
7.190000E+03	5.510903E-17	2.604886E-18
7.200000E+03	5.548803E-17	2.622108E-18
7.210000E+03	5.586133E-17	2.639061E-18
7.220000E+03	5.622691E-17	2.655648E-18
7.230000E+03	5.658188E-17	2.671734E-18
7.240000E+03	5.692252E-17	2.687144E-18
7.250000E+03	5.724506E-17	2.701701E-18
7.260000E+03	5.754824E-17	2.715346E-18
7.270000E+03	5.782665E-17	2.727826E-18
7.280000E+03	5.807916E-17	2.739087E-18
7.290000E+03	5.830216E-17	2.748962E-18
7.300000E+03	5.849305E-17	2.757327E-18
7.310000E+03	5.864851E-17	2.764029E-18
7.320000E+03	5.876708E-17	2.769000E-18
7.330000E+03	5.884500E-17	2.772064E-18
7.340000E+03	5.888215E-17	2.773217E-18
7.350000E+03	5.887526E-17	2.772306E-18
7.360000E+03	5.882395E-17	2.769315E-18
7.370000E+03	5.872645E-17	2.764163E-18
7.380000E+03	5.858220E-17	2.756823E-18
7.390000E+03	5.839102E-17	2.747290E-18
7.400000E+03	5.815309E-17	2.735573E-18
7.410000E+03	5.786902E-17	2.721701E-18
7.420000E+03	5.753895E-17	2.705683E-18
7.430000E+03	5.716509E-17	2.687624E-18
7.440000E+03	5.674921E-17	2.667607E-18
7.450000E+03	5.629260E-17	2.645696E-18
7.460000E+03	5.579854E-17	2.622044E-18
7.470000E+03	5.526901E-17	2.596745E-18
7.480000E+03	5.470787E-17	2.569981E-18
7.490000E+03	5.411842E-17	2.541908E-18
7.500000E+03	5.350416E-17	2.512690E-18
7.510000E+03	5.286793E-17	2.482462E-18
7.520000E+03	5.221430E-17	2.451437E-18
7.530000E+03	5.154709E-17	2.419795E-18
7.540000E+03	5.087012E-17	2.387716E-18
7.550000E+03	5.018794E-17	2.355413E-18
7.560000E+03	4.950352E-17	2.323024E-18
7.570000E+03	4.882048E-17	2.290719E-18
7.580000E+03	4.814295E-17	2.258693E-18
7.590000E+03	4.747418E-17	2.227096E-18
7.600000E+03	4.681714E-17	2.196067E-18
7.610000E+03	4.617456E-17	2.165734E-18
7.620000E+03	4.554818E-17	2.136176E-18
7.630000E+03	4.494146E-17	2.107556E-18
7.640000E+03	4.435612E-17	2.079954E-18
7.650000E+03	4.379278E-17	2.053399E-18
7.660000E+03	4.325240E-17	2.027933E-18
7.670000E+03	4.273620E-17	2.003614E-18
7.680000E+03	4.224387E-17	1.980426E-18
7.690000E+03	4.177673E-17	1.958432E-18
7.700000E+03	4.133343E-17	1.937566E-18
7.710000E+03	4.091436E-17	1.917847E-18
7.720000E+03	4.051851E-17	1.899227E-18
7.730000E+03	4.014663E-17	1.881740E-18
7.740000E+03	3.979695E-17	1.865304E-18
7.750000E+03	3.946947E-17	1.849917E-18
7.760000E+03	3.916351E-17	1.835548E-18
