#wls	flux	fluxerr
1.600000E+03	1.847820E-18	1.080884E-19
1.640000E+03	1.876823E-18	1.097490E-19
1.680000E+03	1.908630E-18	1.115713E-19
1.720000E+03	1.943391E-18	1.135639E-19
1.760000E+03	1.981272E-18	1.157363E-19
1.800000E+03	2.022807E-18	1.181192E-19
1.840000E+03	2.067840E-18	1.207034E-19
1.880000E+03	2.117321E-18	1.235438E-19
1.920000E+03	2.170756E-18	1.266113E-19
1.960000E+03	2.228772E-18	1.299419E-19
2.000000E+03	2.292046E-18	1.335747E-19
2.040000E+03	2.360907E-18	1.375284E-19
2.080000E+03	2.435299E-18	1.417989E-19
2.120000E+03	2.516417E-18	1.464554E-19
2.160000E+03	2.604702E-18	1.515225E-19
2.200000E+03	2.700180E-18	1.570012E-19
2.240000E+03	2.804231E-18	1.629708E-19
2.280000E+03	2.916964E-18	1.694364E-19
2.320000E+03	3.039430E-18	1.764581E-19
2.360000E+03	3.172776E-18	1.841013E-19
2.400000E+03	3.317220E-18	1.923771E-19
2.440000E+03	3.475068E-18	2.014179E-19
2.480000E+03	3.646142E-18	2.112114E-19
2.520000E+03	3.832412E-18	2.218700E-19
2.560000E+03	4.035450E-18	2.334825E-19
2.600000E+03	4.255736E-18	2.460743E-19
2.640000E+03	4.496185E-18	2.598113E-19
2.680000E+03	4.758057E-18	2.747633E-19
2.720000E+03	5.042627E-18	2.910007E-19
2.760000E+03	5.353235E-18	3.087124E-19
2.800000E+03	5.690631E-18	3.279378E-19
2.840000E+03	6.058390E-18	3.488783E-19
2.880000E+03	6.458791E-18	3.716600E-19
2.920000E+03	6.894117E-18	3.964087E-19
2.960000E+03	7.368269E-18	4.233426E-19
3.000000E+03	7.882729E-18	4.525399E-19
3.010000E+03	8.018276E-18	4.602284E-19
3.020000E+03	8.156122E-18	4.680451E-19
3.030000E+03	8.297144E-18	4.760404E-19
3.040000E+03	8.441373E-18	4.842157E-19
3.050000E+03	8.587944E-18	4.925213E-19
3.060000E+03	8.738653E-18	5.010601E-19
3.070000E+03	8.890831E-18	5.096790E-19
3.080000E+03	9.047192E-18	5.185332E-19
3.090000E+03	9.206856E-18	5.275724E-19
3.100000E+03	9.368915E-18	5.367442E-19
3.110000E+03	9.535229E-18	5.461552E-19
3.120000E+03	9.703951E-18	5.556993E-19
3.130000E+03	9.876019E-18	5.654301E-19
3.140000E+03	1.005239E-17	5.754023E-19
3.150000E+03	1.023118E-17	5.855077E-19
3.160000E+03	1.041430E-17	5.958559E-19
3.170000E+03	1.060080E-17	6.063917E-19
3.180000E+03	1.079068E-17	6.171157E-19
3.190000E+03	1.098393E-17	6.280264E-19
3.200000E+03	1.118156E-17	6.391814E-19
3.210000E+03	1.138253E-17	6.505222E-19
3.220000E+03	1.158688E-17	6.620495E-19
3.230000E+03	1.179558E-17	6.738192E-19
3.240000E+03	1.200864E-17	6.858318E-19
3.250000E+03	1.222502E-17	6.980274E-19
3.260000E+03	1.244574E-17	7.104639E-19
3.270000E+03	1.266973E-17	7.230805E-19
3.280000E+03	1.289803E-17	7.359359E-19
3.290000E+03	1.313060E-17	7.490278E-19
3.300000E+03	1.336743E-17	7.623555E-19
3.310000E+03	1.360850E-17	7.759170E-19
3.320000E+03	1.385376E-17	7.897102E-19
3.330000E+03	1.410318E-17	8.037325E-19
3.340000E+03	1.435672E-17	8.179817E-19
3.350000E+03	1.461544E-17	8.325180E-19
3.360000E+03	1.487709E-17	8.472123E-19
3.370000E+03	1.514382E-17	8.621879E-19
3.380000E+03	1.541560E-17	8.774418E-19
3.390000E+03	1.569124E-17	8.929065E-19
3.400000E+03	1.597068E-17	9.085786E-19
3.410000E+03	1.625498E-17	9.245176E-19
3.420000E+03	1.654408E-17	9.407202E-19
3.430000E+03	1.683676E-17	9.571161E-19
3.440000E+03	1.713522E-17	9.738316E-19
3.450000E+03	1.743710E-17	9.907303E-19
3.460000E+03	1.774343E-17	1.007872E-18
3.470000E+03	1.805532E-17	1.025320E-18
3.480000E+03	1.837150E-17	1.042999E-18
3.490000E+03	1.869185E-17	1.060905E-18
3.500000E+03	1.901628E-17	1.079031E-18
3.510000E+03	1.934584E-17	1.097437E-18
3.520000E+03	1.967925E-17	1.116049E-18
3.530000E+03	2.001756E-17	1.134928E-18
3.540000E+03	2.036065E-17	1.154066E-18
3.550000E+03	2.070720E-17	1.173387E-18
3.560000E+03	2.105826E-17	1.192952E-18
3.570000E+03	2.141491E-17	1.212820E-18
3.580000E+03	2.177457E-17	1.232846E-18
3.590000E+03	2.213953E-17	1.253159E-18
3.600000E+03	2.250840E-17	1.273680E-18
3.610000E+03	2.288104E-17	1.294401E-18
3.620000E+03	2.325850E-17	1.315381E-18
3.630000E+03	2.363937E-17	1.336539E-18
3.640000E+03	2.402473E-17	1.357937E-18
3.650000E+03	2.441438E-17	1.379563E-18
3.660000E+03	2.480815E-17	1.401407E-18
3.670000E+03	2.520585E-17	1.423458E-18
3.680000E+03	2.560730E-17	1.445706E-18
3.690000E+03	2.601228E-17	1.468137E-18
3.700000E+03	2.642062E-17	1.490743E-18
3.710000E+03	2.683335E-17	1.513580E-18
3.720000E+03	2.724902E-17	1.536567E-18
3.730000E+03	2.766867E-17	1.559763E-18
3.740000E+03	2.809084E-17	1.583084E-18
3.750000E+03	2.851658E-17	1.606589E-18
3.760000E+03	2.894691E-17	1.630336E-18
3.770000E+03	2.937913E-17	1.654173E-18
3.780000E+03	2.981428E-17	1.678156E-18
3.790000E+03	3.025336E-17	1.702344E-18
3.800000E+03	3.069493E-17	1.726654E-18
3.810000E+03	3.113878E-17	1.751074E-18
3.820000E+03	3.158592E-17	1.775661E-18
3.830000E+03	3.203491E-17	1.800334E-18
3.840000E+03	3.248677E-17	1.825149E-18
3.850000E+03	3.294127E-17	1.850094E-18
3.860000E+03	3.339822E-17	1.875157E-18
3.870000E+03	3.385619E-17	1.900258E-18
3.880000E+03	3.431740E-17	1.925522E-18
3.890000E+03	3.477923E-17	1.950802E-18
3.900000E+03	3.524393E-17	1.976222E-18
3.910000E+03	3.571007E-17	2.001703E-18
3.920000E+03	3.617747E-17	2.027236E-18
3.930000E+03	3.664597E-17	2.052809E-18
3.940000E+03	3.711659E-17	2.078480E-18
3.950000E+03	3.758796E-17	2.104173E-18
3.960000E+03	3.806112E-17	2.129946E-18
3.970000E+03	3.853473E-17	2.155722E-18
3.980000E+03	3.900865E-17	2.181496E-18
3.990000E+03	3.948393E-17	2.207324E-18
4.000000E+03	3.996043E-17	2.233199E-18
4.010000E+03	4.043689E-17	2.259050E-18
4.020000E+03	4.091321E-17	2.284872E-18
4.030000E+03	4.138929E-17	2.310659E-18
4.040000E+03	4.186623E-17	2.336471E-18
4.050000E+03	4.234278E-17	2.362241E-18
4.060000E+03	4.282005E-17	2.388029E-18
4.070000E+03	4.329573E-17	2.413705E-18
4.080000E+03	4.377205E-17	2.439395E-18
4.090000E+03	4.424674E-17	2.464972E-18
4.100000E+03	4.472096E-17	2.490500E-18
4.110000E+03	4.519469E-17	2.515979E-18
4.120000E+03	4.566687E-17	2.541349E-18
4.130000E+03	4.613756E-17	2.566613E-18
4.140000E+03	4.660791E-17	2.591836E-18
4.150000E+03	4.707581E-17	2.616899E-18
4.160000E+03	4.754138E-17	2.641811E-18
4.170000E+03	4.800581E-17	2.666637E-18
4.180000E+03	4.846816E-17	2.691324E-18
4.190000E+03	4.892854E-17	2.715879E-18
4.200000E+03	4.938608E-17	2.740253E-18
4.210000E+03	4.983989E-17	2.764398E-18
4.220000E+03	5.029227E-17	2.788441E-18
4.230000E+03	5.074029E-17	2.812220E-18
4.240000E+03	5.118623E-17	2.835860E-18
4.250000E+03	5.162724E-17	2.859204E-18
4.260000E+03	5.206560E-17	2.882380E-18
4.270000E+03	5.249853E-17	2.905232E-18
4.280000E+03	5.292830E-17	2.927887E-18
4.290000E+03	5.335218E-17	2.950194E-18
4.300000E+03	5.377245E-17	2.972279E-18
4.310000E+03	5.418642E-17	2.993994E-18
4.320000E+03	5.459537E-17	3.015409E-18
4.330000E+03	5.499862E-17	3.036488E-18
4.340000E+03	5.539550E-17	3.057194E-18
4.350000E+03	5.578633E-17	3.077545E-18
4.360000E+03	5.617044E-17	3.097504E-18
4.370000E+03	5.654720E-17	3.117036E-18
4.380000E+03	5.691691E-17	3.136160E-18
4.390000E+03	5.727989E-17	3.154891E-18
4.400000E+03	5.763454E-17	3.173145E-18
4.410000E+03	5.798118E-17	3.190937E-18
4.420000E+03	5.832011E-17	3.208286E-18
4.430000E+03	5.865068E-17	3.225155E-18
4.440000E+03	5.897226E-17	3.241511E-18
4.450000E+03	5.928604E-17	3.257420E-18
4.460000E+03	5.959046E-17	3.272797E-18
4.470000E+03	5.988579E-17	3.287656E-18
4.480000E+03	6.017228E-17	3.302013E-18
4.490000E+03	6.045017E-17	3.315881E-18
4.500000E+03	6.071881E-17	3.329224E-18
4.510000E+03	6.097752E-17	3.342008E-18
4.520000E+03	6.122832E-17	3.354341E-18
4.530000E+03	6.146962E-17	3.366138E-18
4.540000E+03	6.170164E-17	3.377412E-18
4.550000E+03	6.192459E-17	3.388175E-18
4.560000E+03	6.213953E-17	3.398486E-18
4.570000E+03	6.234492E-17	3.408260E-18
4.580000E+03	6.254181E-17	3.417556E-18
4.590000E+03	6.273041E-17	3.426385E-18
4.600000E+03	6.291090E-17	3.434759E-18
4.610000E+03	6.308262E-17	3.442642E-18
4.620000E+03	6.324582E-17	3.450048E-18
4.630000E+03	6.340239E-17	3.457081E-18
4.640000E+03	6.355089E-17	3.463662E-18
4.650000E+03	6.369156E-17	3.469806E-18
4.660000E+03	6.382549E-17	3.475573E-18
4.670000E+03	6.395300E-17	3.480979E-18
4.680000E+03	6.407354E-17	3.485997E-18
4.690000E+03	6.418829E-17	3.490689E-18
4.700000E+03	6.429757E-17	3.495075E-18
4.710000E+03	6.440097E-17	3.499133E-18
4.720000E+03	6.450051E-17	3.502972E-18
4.730000E+03	6.459499E-17	3.506528E-18
4.740000E+03	6.468568E-17	3.509870E-18
4.750000E+03	6.477305E-17	3.513025E-18
4.760000E+03	6.485839E-17	3.516061E-18
4.770000E+03	6.494140E-17	3.518963E-18
4.780000E+03	6.502339E-17	3.521803E-18
4.790000E+03	6.510487E-17	3.524607E-18
4.800000E+03	6.518556E-17	3.527361E-18
4.810000E+03	6.526833E-17	3.530221E-18
4.820000E+03	6.535131E-17	3.533084E-18
4.830000E+03	6.543730E-17	3.536102E-18
4.840000E+03	6.552594E-17	3.539257E-18
4.850000E+03	6.561838E-17	3.542609E-18
4.860000E+03	6.571412E-17	3.546131E-18
4.870000E+03	6.581492E-17	3.549918E-18
4.880000E+03	6.592005E-17	3.553931E-18
4.890000E+03	6.603030E-17	3.558211E-18
4.900000E+03	6.614561E-17	3.562756E-18
4.910000E+03	6.626666E-17	3.567601E-18
4.920000E+03	6.639408E-17	3.572780E-18
4.930000E+03	6.652614E-17	3.578199E-18
4.940000E+03	6.666417E-17	3.583929E-18
4.950000E+03	6.680875E-17	3.590002E-18
4.960000E+03	6.695803E-17	3.596317E-18
4.970000E+03	6.711410E-17	3.602986E-18
4.980000E+03	6.727512E-17	3.609910E-18
4.990000E+03	6.744234E-17	3.617155E-18
5.000000E+03	6.761547E-17	3.624706E-18
5.010000E+03	6.779341E-17	3.632503E-18
5.020000E+03	6.797661E-17	3.640570E-18
5.030000E+03	6.816555E-17	3.648932E-18
5.040000E+03	6.835990E-17	3.657571E-18
5.050000E+03	6.855851E-17	3.666424E-18
5.060000E+03	6.876183E-17	3.675517E-18
5.070000E+03	6.896949E-17	3.684828E-18
5.080000E+03	6.918194E-17	3.694382E-18
5.090000E+03	6.939800E-17	3.704114E-18
5.100000E+03	6.961808E-17	3.714047E-18
5.110000E+03	6.984177E-17	3.724158E-18
5.120000E+03	7.006867E-17	3.734427E-18
5.130000E+03	7.029754E-17	3.744785E-18
5.140000E+03	7.052954E-17	3.755296E-18
5.150000E+03	7.076262E-17	3.765849E-18
5.160000E+03	7.099788E-17	3.776503E-18
5.170000E+03	7.123403E-17	3.787190E-18
5.180000E+03	7.146974E-17	3.797838E-18
5.190000E+03	7.170607E-17	3.808505E-18
5.200000E+03	7.194246E-17	3.819159E-18
5.210000E+03	7.217670E-17	3.829685E-18
5.220000E+03	7.240899E-17	3.840092E-18
5.230000E+03	7.263787E-17	3.850304E-18
5.240000E+03	7.286431E-17	3.860372E-18
5.250000E+03	7.308599E-17	3.870174E-18
5.260000E+03	7.330304E-17	3.879717E-18
5.270000E+03	7.351391E-17	3.888918E-18
5.280000E+03	7.371786E-17	3.897741E-18
5.290000E+03	7.391413E-17	3.906145E-18
5.300000E+03	7.410117E-17	3.914048E-18
5.310000E+03	7.427901E-17	3.921453E-18
5.320000E+03	7.444607E-17	3.928279E-18
5.330000E+03	7.460161E-17	3.934485E-18
5.340000E+03	7.474486E-17	3.940034E-18
5.350000E+03	7.487346E-17	3.944801E-18
5.360000E+03	7.498834E-17	3.948837E-18
5.370000E+03	7.508718E-17	3.952021E-18
5.380000E+03	7.516934E-17	3.954320E-18
5.390000E+03	7.523419E-17	3.955703E-18
5.400000E+03	7.528035E-17	3.956099E-18
5.410000E+03	7.530816E-17	3.955527E-18
5.420000E+03	7.531545E-17	3.953875E-18
5.430000E+03	7.530264E-17	3.951166E-18
5.440000E+03	7.526852E-17	3.947339E-18
5.450000E+03	7.521277E-17	3.942379E-18
5.460000E+03	7.513518E-17	3.936277E-18
5.470000E+03	7.503561E-17	3.929026E-18
5.480000E+03	7.491401E-17	3.920628E-18
5.490000E+03	7.476961E-17	3.911042E-18
5.500000E+03	7.460422E-17	3.900366E-18
5.510000E+03	7.441645E-17	3.888528E-18
5.520000E+03	7.420749E-17	3.875594E-18
5.530000E+03	7.397860E-17	3.861629E-18
5.540000E+03	7.372958E-17	3.846627E-18
5.550000E+03	7.346191E-17	3.830664E-18
5.560000E+03	7.317639E-17	3.813785E-18
5.570000E+03	7.287470E-17	3.796080E-18
5.580000E+03	7.255784E-17	3.777600E-18
5.590000E+03	7.222769E-17	3.758446E-18
5.600000E+03	7.188462E-17	3.738637E-18
5.610000E+03	7.153146E-17	3.718323E-18
5.620000E+03	7.116876E-17	3.697532E-18
5.630000E+03	7.079869E-17	3.676378E-18
5.640000E+03	7.042425E-17	3.655017E-18
5.650000E+03	7.004536E-17	3.633446E-18
5.660000E+03	6.966434E-17	3.611785E-18
5.670000E+03	6.928350E-17	3.590155E-18
5.680000E+03	6.890439E-17	3.568636E-18
5.690000E+03	6.852857E-17	3.547308E-18
5.700000E+03	6.815835E-17	3.526291E-18
5.710000E+03	6.779451E-17	3.505624E-18
5.720000E+03	6.744002E-17	3.485461E-18
5.730000E+03	6.709483E-17	3.465799E-18
5.740000E+03	6.676183E-17	3.446785E-18
5.750000E+03	6.644231E-17	3.428486E-18
5.760000E+03	6.613680E-17	3.410928E-18
5.770000E+03	6.584790E-17	3.394244E-18
5.780000E+03	6.557521E-17	3.378412E-18
5.790000E+03	6.532046E-17	3.363520E-18
5.800000E+03	6.508452E-17	3.349611E-18
5.810000E+03	6.486887E-17	3.336760E-18
5.820000E+03	6.467274E-17	3.324926E-18
5.830000E+03	6.449816E-17	3.314211E-18
5.840000E+03	6.434487E-17	3.304601E-18
5.850000E+03	6.421326E-17	3.296114E-18
5.860000E+03	6.410362E-17	3.288763E-18
5.870000E+03	6.401616E-17	3.282558E-18
5.880000E+03	6.395103E-17	3.277504E-18
5.890000E+03	6.390830E-17	3.273603E-18
5.900000E+03	6.388726E-17	3.270818E-18
5.910000E+03	6.388934E-17	3.269219E-18
5.920000E+03	6.391304E-17	3.268728E-18
5.930000E+03	6.395829E-17	3.269341E-18
5.940000E+03	6.402500E-17	3.271050E-18
5.950000E+03	6.411381E-17	3.273887E-18
5.960000E+03	6.422321E-17	3.277774E-18
5.970000E+03	6.435460E-17	3.282780E-18
5.980000E+03	6.450580E-17	3.288792E-18
5.990000E+03	6.467901E-17	3.295921E-18
6.000000E+03	6.487214E-17	3.304060E-18
6.010000E+03	6.508604E-17	3.313250E-18
6.020000E+03	6.532090E-17	3.323499E-18
6.030000E+03	6.557624E-17	3.334781E-18
6.040000E+03	6.585307E-17	3.347147E-18
6.050000E+03	6.615105E-17	3.360577E-18
6.060000E+03	6.646978E-17	3.375050E-18
6.070000E+03	6.681122E-17	3.390664E-18
6.080000E+03	6.717355E-17	3.407325E-18
6.090000E+03	6.755874E-17	3.425131E-18
6.100000E+03	6.796647E-17	3.444065E-18
6.110000E+03	6.839717E-17	3.464147E-18
6.120000E+03	6.885039E-17	3.485354E-18
6.130000E+03	6.932720E-17	3.507736E-18
6.140000E+03	6.982696E-17	3.531261E-18
6.150000E+03	7.034965E-17	3.555927E-18
6.160000E+03	7.089595E-17	3.581765E-18
6.170000E+03	7.146384E-17	3.608673E-18
6.180000E+03	7.205346E-17	3.636657E-18
6.190000E+03	7.266391E-17	3.665670E-18
6.200000E+03	7.329393E-17	3.695647E-18
6.210000E+03	7.394187E-17	3.726503E-18
6.220000E+03	7.460480E-17	3.758091E-18
6.230000E+03	7.528108E-17	3.790326E-18
6.240000E+03	7.596784E-17	3.823064E-18
6.250000E+03	7.666093E-17	3.856095E-18
6.260000E+03	7.735759E-17	3.889279E-18
6.270000E+03	7.805292E-17	3.922372E-18
6.280000E+03	7.874439E-17	3.955245E-18
6.290000E+03	7.942556E-17	3.987576E-18
6.300000E+03	8.009246E-17	4.019166E-18
6.310000E+03	8.073999E-17	4.049762E-18
6.320000E+03	8.136192E-17	4.079051E-18
6.330000E+03	8.195480E-17	4.106864E-18
6.340000E+03	8.251228E-17	4.132884E-18
6.350000E+03	8.302900E-17	4.156845E-18
6.360000E+03	8.350069E-17	4.178537E-18
6.370000E+03	8.392028E-17	4.197609E-18
6.380000E+03	8.428498E-17	4.213926E-18
6.390000E+03	8.459030E-17	4.227266E-18
6.400000E+03	8.483019E-17	4.237333E-18
6.410000E+03	8.500410E-17	4.244103E-18
6.420000E+03	8.510698E-17	4.247327E-18
6.430000E+03	8.513741E-17	4.246941E-18
6.440000E+03	8.509359E-17	4.242860E-18
6.450000E+03	8.497441E-17	4.235032E-18
6.460000E+03	8.477939E-17	4.223439E-18
6.470000E+03	8.450876E-17	4.208099E-18
6.480000E+03	8.416448E-17	4.189111E-18
6.490000E+03	8.374708E-17	4.166509E-18
6.500000E+03	8.325872E-17	4.140404E-18
6.510000E+03	8.270422E-17	4.111040E-18
6.520000E+03	8.208480E-17	4.078482E-18
6.530000E+03	8.140620E-17	4.043020E-18
6.540000E+03	8.067054E-17	4.004760E-18
6.550000E+03	7.988525E-17	3.964078E-18
6.560000E+03	7.905303E-17	3.921108E-18
6.570000E+03	7.817970E-17	3.876142E-18
6.580000E+03	7.727123E-17	3.829479E-18
6.590000E+03	7.633164E-17	3.781320E-18
6.600000E+03	7.536593E-17	3.731913E-18
6.610000E+03	7.438092E-17	3.681599E-18
6.620000E+03	7.338047E-17	3.630568E-18
6.630000E+03	7.236920E-17	3.579050E-18
6.640000E+03	7.135249E-17	3.527312E-18
6.650000E+03	7.033456E-17	3.475562E-18
6.660000E+03	6.931936E-17	3.423995E-18
6.670000E+03	6.831150E-17	3.372837E-18
6.680000E+03	6.731354E-17	3.322216E-18
6.690000E+03	6.632950E-17	3.272328E-18
6.700000E+03	6.536228E-17	3.223315E-18
6.710000E+03	6.441450E-17	3.175305E-18
6.720000E+03	6.348936E-17	3.128454E-18
6.730000E+03	6.258890E-17	3.082863E-18
6.740000E+03	6.171501E-17	3.038620E-18
6.750000E+03	6.086849E-17	2.995765E-18
6.760000E+03	6.005233E-17	2.954442E-18
6.770000E+03	5.926697E-17	2.914672E-18
6.780000E+03	5.851417E-17	2.876538E-18
6.790000E+03	5.779479E-17	2.840082E-18
6.800000E+03	5.710874E-17	2.805296E-18
6.810000E+03	5.645809E-17	2.772279E-18
6.820000E+03	5.584174E-17	2.740977E-18
6.830000E+03	5.526151E-17	2.711475E-18
6.840000E+03	5.471684E-17	2.683745E-18
6.850000E+03	5.420786E-17	2.657791E-18
6.860000E+03	5.373537E-17	2.633650E-18
6.870000E+03	5.329859E-17	2.611281E-18
6.880000E+03	5.289821E-17	2.590716E-18
6.890000E+03	5.253411E-17	2.571949E-18
6.900000E+03	5.220547E-17	2.554935E-18
6.910000E+03	5.191279E-17	2.539698E-18
6.920000E+03	5.165586E-17	2.526225E-18
6.930000E+03	5.143438E-17	2.514500E-18
6.940000E+03	5.124734E-17	2.504472E-18
6.950000E+03	5.109506E-17	2.496155E-18
6.960000E+03	5.097780E-17	2.489559E-18
6.970000E+03	5.089300E-17	2.484558E-18
6.980000E+03	5.084220E-17	2.481226E-18
6.990000E+03	5.082413E-17	2.479497E-18
7.000000E+03	5.083741E-17	2.479305E-18
7.010000E+03	5.088202E-17	2.480646E-18
7.020000E+03	5.095716E-17	2.483480E-18
7.030000E+03	5.106126E-17	2.487729E-18
7.040000E+03	5.119407E-17	2.493380E-18
7.050000E+03	5.135383E-17	2.500345E-18
7.060000E+03	5.153942E-17	2.508569E-18
7.070000E+03	5.175033E-17	2.518027E-18
7.080000E+03	5.198452E-17	2.528617E-18
7.090000E+03	5.224128E-17	2.540305E-18
7.100000E+03	5.251764E-17	2.552944E-18
7.110000E+03	5.281264E-17	2.566489E-18
7.120000E+03	5.312380E-17	2.580818E-18
7.130000E+03	5.345074E-17	2.595911E-18
7.140000E+03	5.378920E-17	2.611562E-18
7.150000E+03	5.413857E-17	2.627741E-18
7.160000E+03	5.449589E-17	2.644304E-18
7.170000E+03	5.485881E-17	2.661136E-18
7.180000E+03	5.522490E-17	2.678121E-18
7.190000E+03	5.559085E-17	2.695097E-18
7.200000E+03	5.595403E-17	2.711938E-18
7.210000E+03	5.631174E-17	2.728514E-18
7.220000E+03	5.666204E-17	2.744729E-18
7.230000E+03	5.699969E-17	2.760333E-18
7.240000E+03	5.732348E-17	2.775266E-18
7.250000E+03	5.763058E-17	2.789392E-18
7.260000E+03	5.791654E-17	2.802499E-18
7.270000E+03	5.817857E-17	2.814450E-18
7.280000E+03	5.841475E-17	2.825156E-18
7.290000E+03	5.862167E-17	2.834451E-18
7.300000E+03	5.879598E-17	2.842176E-18
7.310000E+03	5.893616E-17	2.848258E-18
7.320000E+03	5.903923E-17	2.852556E-18
7.330000E+03	5.910324E-17	2.854975E-18
7.340000E+03	5.912648E-17	2.855436E-18
7.350000E+03	5.910753E-17	2.853871E-18
7.360000E+03	5.904359E-17	2.850147E-18
7.370000E+03	5.893469E-17	2.844266E-18
7.380000E+03	5.878121E-17	2.836249E-18
7.390000E+03	5.858055E-17	2.825971E-18
7.400000E+03	5.833545E-17	2.813567E-18
7.410000E+03	5.804409E-17	2.798950E-18
7.420000E+03	5.770917E-17	2.782250E-18
7.430000E+03	5.733204E-17	2.763535E-18
7.440000E+03	5.691285E-17	2.742813E-18
7.450000E+03	5.645453E-17	2.720227E-18
7.460000E+03	5.596031E-17	2.695931E-18
7.470000E+03	5.543129E-17	2.669982E-18
7.480000E+03	5.487207E-17	2.642600E-18
7.490000E+03	5.428584E-17	2.613939E-18
7.500000E+03	5.367520E-17	2.584126E-18
7.510000E+03	5.304368E-17	2.553330E-18
7.520000E+03	5.239569E-17	2.521765E-18
7.530000E+03	5.173489E-17	2.489605E-18
7.540000E+03	5.106496E-17	2.457028E-18
7.550000E+03	5.038957E-17	2.424211E-18
7.560000E+03	4.971226E-17	2.391323E-18
7.570000E+03	4.903721E-17	2.358566E-18
7.580000E+03	4.836768E-17	2.326095E-18
7.590000E+03	4.770607E-17	2.294025E-18
7.600000E+03	4.705595E-17	2.262527E-18
7.610000E+03	4.642058E-17	2.231757E-18
7.620000E+03	4.580159E-17	2.201793E-18
7.630000E+03	4.520166E-17	2.172763E-18
7.640000E+03	4.462179E-17	2.144713E-18
7.650000E+03	4.406329E-17	2.117706E-18
7.660000E+03	4.352831E-17	2.091844E-18
7.670000E+03	4.301681E-17	2.067125E-18
7.680000E+03	4.252849E-17	2.043534E-18
7.690000E+03	4.206471E-17	2.021136E-18
7.700000E+03	4.162478E-17	1.999895E-18
7.710000E+03	4.120851E-17	1.979804E-18
7.720000E+03	4.081553E-17	1.960843E-18
7.730000E+03	4.044541E-17	1.942991E-18
7.740000E+03	4.009824E-17	1.926252E-18
7.750000E+03	3.977283E-17	1.910569E-18
7.760000E+03	3.946855E-17	1.895910E-18
