#wls	flux	fluxerr
1.600000E+03	2.725760E-18	1.435225E-19
1.640000E+03	2.788941E-18	1.467961E-19
1.680000E+03	2.857013E-18	1.503230E-19
1.720000E+03	2.929758E-18	1.540914E-19
1.760000E+03	3.008502E-18	1.581707E-19
1.800000E+03	3.093081E-18	1.625515E-19
1.840000E+03	3.184402E-18	1.672811E-19
1.880000E+03	3.282889E-18	1.723810E-19
1.920000E+03	3.388418E-18	1.778439E-19
1.960000E+03	3.502018E-18	1.837233E-19
2.000000E+03	3.624811E-18	1.900770E-19
2.040000E+03	3.756765E-18	1.969025E-19
2.080000E+03	3.899106E-18	2.042629E-19
2.120000E+03	4.052501E-18	2.121922E-19
2.160000E+03	4.217660E-18	2.207261E-19
2.200000E+03	4.396031E-18	2.299390E-19
2.240000E+03	4.588466E-18	2.398740E-19
2.280000E+03	4.795852E-18	2.505757E-19
2.320000E+03	5.019119E-18	2.620909E-19
2.360000E+03	5.260833E-18	2.745514E-19
2.400000E+03	5.521318E-18	2.879719E-19
2.440000E+03	5.801677E-18	3.024074E-19
2.480000E+03	6.104808E-18	3.180061E-19
2.520000E+03	6.432022E-18	3.348334E-19
2.560000E+03	6.784641E-18	3.529544E-19
2.600000E+03	7.165945E-18	3.725363E-19
2.640000E+03	7.576388E-18	3.935985E-19
2.680000E+03	8.018350E-18	4.162601E-19
2.720000E+03	8.495376E-18	4.407003E-19
2.760000E+03	9.007770E-18	4.669295E-19
2.800000E+03	9.560259E-18	4.951869E-19
2.840000E+03	1.015294E-17	5.254710E-19
2.880000E+03	1.078929E-17	5.579552E-19
2.920000E+03	1.147148E-17	5.927436E-19
2.960000E+03	1.220282E-17	6.299999E-19
3.000000E+03	1.298365E-17	6.697331E-19
3.010000E+03	1.318791E-17	6.801198E-19
3.020000E+03	1.339365E-17	6.905782E-19
3.030000E+03	1.360372E-17	7.012537E-19
3.040000E+03	1.381811E-17	7.121466E-19
3.050000E+03	1.403392E-17	7.231066E-19
3.060000E+03	1.425404E-17	7.342830E-19
3.070000E+03	1.447847E-17	7.456750E-19
3.080000E+03	1.470421E-17	7.571285E-19
3.090000E+03	1.493572E-17	7.688731E-19
3.100000E+03	1.516847E-17	7.806750E-19
3.110000E+03	1.540699E-17	7.927669E-19
3.120000E+03	1.564666E-17	8.049118E-19
3.130000E+03	1.589206E-17	8.173444E-19
3.140000E+03	1.614008E-17	8.299044E-19
3.150000E+03	1.639065E-17	8.425889E-19
3.160000E+03	1.664529E-17	8.554757E-19
3.170000E+03	1.690398E-17	8.685628E-19
3.180000E+03	1.716668E-17	8.818488E-19
3.190000E+03	1.743173E-17	8.952474E-19
3.200000E+03	1.770068E-17	9.088390E-19
3.210000E+03	1.797347E-17	9.226194E-19
3.220000E+03	1.825004E-17	9.365862E-19
3.230000E+03	1.853034E-17	9.507359E-19
3.240000E+03	1.881263E-17	9.649797E-19
3.250000E+03	1.910016E-17	9.794834E-19
3.260000E+03	1.938952E-17	9.940726E-19
3.270000E+03	1.968398E-17	1.008914E-18
3.280000E+03	1.998007E-17	1.023831E-18
3.290000E+03	2.028110E-17	1.038991E-18
3.300000E+03	2.058356E-17	1.054216E-18
3.310000E+03	2.089077E-17	1.069674E-18
3.320000E+03	2.120092E-17	1.085274E-18
3.330000E+03	2.151563E-17	1.101096E-18
3.340000E+03	2.183131E-17	1.116959E-18
3.350000E+03	2.215132E-17	1.133034E-18
3.360000E+03	2.247379E-17	1.149224E-18
3.370000E+03	2.280036E-17	1.165614E-18
3.380000E+03	2.312913E-17	1.182106E-18
3.390000E+03	2.346174E-17	1.198783E-18
3.400000E+03	2.379627E-17	1.215548E-18
3.410000E+03	2.413435E-17	1.232483E-18
3.420000E+03	2.447405E-17	1.249490E-18
3.430000E+03	2.481700E-17	1.266652E-18
3.440000E+03	2.516306E-17	1.283961E-18
3.450000E+03	2.551023E-17	1.301316E-18
3.460000E+03	2.586017E-17	1.318800E-18
3.470000E+03	2.621271E-17	1.336405E-18
3.480000E+03	2.656767E-17	1.354121E-18
3.490000E+03	2.692487E-17	1.371941E-18
3.500000E+03	2.728412E-17	1.389852E-18
3.510000E+03	2.764342E-17	1.407754E-18
3.520000E+03	2.800622E-17	1.425821E-18
3.530000E+03	2.837049E-17	1.443951E-18
3.540000E+03	2.873605E-17	1.462134E-18
3.550000E+03	2.910454E-17	1.480453E-18
3.560000E+03	2.947205E-17	1.498710E-18
3.570000E+03	2.984206E-17	1.517081E-18
3.580000E+03	3.021253E-17	1.535462E-18
3.590000E+03	3.058508E-17	1.553936E-18
3.600000E+03	3.095766E-17	1.572398E-18
3.610000E+03	3.133188E-17	1.590930E-18
3.620000E+03	3.170571E-17	1.609429E-18
3.630000E+03	3.208073E-17	1.627975E-18
3.640000E+03	3.245491E-17	1.646464E-18
3.650000E+03	3.282986E-17	1.664979E-18
3.660000E+03	3.320536E-17	1.683508E-18
3.670000E+03	3.357934E-17	1.701946E-18
3.680000E+03	3.395525E-17	1.720469E-18
3.690000E+03	3.432922E-17	1.738879E-18
3.700000E+03	3.470285E-17	1.757257E-18
3.710000E+03	3.507591E-17	1.775593E-18
3.720000E+03	3.544821E-17	1.793876E-18
3.730000E+03	3.581951E-17	1.812094E-18
3.740000E+03	3.618961E-17	1.830238E-18
3.750000E+03	3.655830E-17	1.848296E-18
3.760000E+03	3.692717E-17	1.866349E-18
3.770000E+03	3.729242E-17	1.884205E-18
3.780000E+03	3.765745E-17	1.902035E-18
3.790000E+03	3.802028E-17	1.919740E-18
3.800000E+03	3.838071E-17	1.937310E-18
3.810000E+03	3.874034E-17	1.954824E-18
3.820000E+03	3.909544E-17	1.972097E-18
3.830000E+03	3.945117E-17	1.989386E-18
3.840000E+03	3.980205E-17	2.006417E-18
3.850000E+03	4.015145E-17	2.023358E-18
3.860000E+03	4.049920E-17	2.040203E-18
3.870000E+03	4.084169E-17	2.056768E-18
3.880000E+03	4.118399E-17	2.073310E-18
3.890000E+03	4.152080E-17	2.089561E-18
3.900000E+03	4.185545E-17	2.105690E-18
3.910000E+03	4.218780E-17	2.121689E-18
3.920000E+03	4.251608E-17	2.137469E-18
3.930000E+03	4.284021E-17	2.153027E-18
3.940000E+03	4.316178E-17	2.168442E-18
3.950000E+03	4.347905E-17	2.183628E-18
3.960000E+03	4.379365E-17	2.198666E-18
3.970000E+03	4.410223E-17	2.213388E-18
3.980000E+03	4.440969E-17	2.228040E-18
3.990000E+03	4.471110E-17	2.242376E-18
4.000000E+03	4.500972E-17	2.256559E-18
4.010000E+03	4.530393E-17	2.270507E-18
4.020000E+03	4.559375E-17	2.284222E-18
4.030000E+03	4.587924E-17	2.297708E-18
4.040000E+03	4.616042E-17	2.310965E-18
4.050000E+03	4.643891E-17	2.324074E-18
4.060000E+03	4.671169E-17	2.336885E-18
4.070000E+03	4.698038E-17	2.349479E-18
4.080000E+03	4.724358E-17	2.361786E-18
4.090000E+03	4.750292E-17	2.373888E-18
4.100000E+03	4.775852E-17	2.385791E-18
4.110000E+03	4.800901E-17	2.397427E-18
4.120000E+03	4.825606E-17	2.408880E-18
4.130000E+03	4.849835E-17	2.420083E-18
4.140000E+03	4.873607E-17	2.431047E-18
4.150000E+03	4.896801E-17	2.441711E-18
4.160000E+03	4.919726E-17	2.452229E-18
4.170000E+03	4.942120E-17	2.462472E-18
4.180000E+03	4.964151E-17	2.472524E-18
4.190000E+03	4.985706E-17	2.482327E-18
4.200000E+03	5.006813E-17	2.491897E-18
4.210000E+03	5.027642E-17	2.501318E-18
4.220000E+03	5.047948E-17	2.510468E-18
4.230000E+03	5.067902E-17	2.519433E-18
4.240000E+03	5.087403E-17	2.528164E-18
4.250000E+03	5.106620E-17	2.536743E-18
4.260000E+03	5.125455E-17	2.545122E-18
4.270000E+03	5.143812E-17	2.553255E-18
4.280000E+03	5.161990E-17	2.561289E-18
4.290000E+03	5.179762E-17	2.569113E-18
4.300000E+03	5.197168E-17	2.576746E-18
4.310000E+03	5.214241E-17	2.584205E-18
4.320000E+03	5.231017E-17	2.591508E-18
4.330000E+03	5.247532E-17	2.598672E-18
4.340000E+03	5.263691E-17	2.605652E-18
4.350000E+03	5.279653E-17	2.612526E-18
4.360000E+03	5.295204E-17	2.619188E-18
4.370000E+03	5.310499E-17	2.625714E-18
4.380000E+03	5.325567E-17	2.632121E-18
4.390000E+03	5.340315E-17	2.638362E-18
4.400000E+03	5.354773E-17	2.644451E-18
4.410000E+03	5.368965E-17	2.650401E-18
4.420000E+03	5.382916E-17	2.656225E-18
4.430000E+03	5.396530E-17	2.661875E-18
4.440000E+03	5.409948E-17	2.667421E-18
4.450000E+03	5.423074E-17	2.672815E-18
4.460000E+03	5.435814E-17	2.678012E-18
4.470000E+03	5.448416E-17	2.683135E-18
4.480000E+03	5.460563E-17	2.688026E-18
4.490000E+03	5.472500E-17	2.692808E-18
4.500000E+03	5.484250E-17	2.697491E-18
4.510000E+03	5.495609E-17	2.701975E-18
4.520000E+03	5.506712E-17	2.706327E-18
4.530000E+03	5.517579E-17	2.710557E-18
4.540000E+03	5.528121E-17	2.714622E-18
4.550000E+03	5.538467E-17	2.718585E-18
4.560000E+03	5.548526E-17	2.722401E-18
4.570000E+03	5.558421E-17	2.726131E-18
4.580000E+03	5.567954E-17	2.729678E-18
4.590000E+03	5.577247E-17	2.733103E-18
4.600000E+03	5.586308E-17	2.736409E-18
4.610000E+03	5.595152E-17	2.739603E-18
4.620000E+03	5.603785E-17	2.742690E-18
4.630000E+03	5.612112E-17	2.745622E-18
4.640000E+03	5.620142E-17	2.748405E-18
4.650000E+03	5.628090E-17	2.751142E-18
4.660000E+03	5.635654E-17	2.753689E-18
4.670000E+03	5.643048E-17	2.756148E-18
4.680000E+03	5.650280E-17	2.758524E-18
4.690000E+03	5.657157E-17	2.760724E-18
4.700000E+03	5.663891E-17	2.762849E-18
4.710000E+03	5.670488E-17	2.764905E-18
4.720000E+03	5.676754E-17	2.766797E-18
4.730000E+03	5.682994E-17	2.768672E-18
4.740000E+03	5.688912E-17	2.770387E-18
4.750000E+03	5.694704E-17	2.772038E-18
4.760000E+03	5.700269E-17	2.773576E-18
4.770000E+03	5.705696E-17	2.775045E-18
4.780000E+03	5.710876E-17	2.776391E-18
4.790000E+03	5.715894E-17	2.777656E-18
4.800000E+03	5.720634E-17	2.778783E-18
4.810000E+03	5.725172E-17	2.779811E-18
4.820000E+03	5.729488E-17	2.780729E-18
4.830000E+03	5.733564E-17	2.781530E-18
4.840000E+03	5.737286E-17	2.782157E-18
4.850000E+03	5.740845E-17	2.782703E-18
4.860000E+03	5.744059E-17	2.783082E-18
4.870000E+03	5.747157E-17	2.783403E-18
4.880000E+03	5.750108E-17	2.783653E-18
4.890000E+03	5.752985E-17	2.783866E-18
4.900000E+03	5.755875E-17	2.784085E-18
4.910000E+03	5.759048E-17	2.784441E-18
4.920000E+03	5.762308E-17	2.784837E-18
4.930000E+03	5.766015E-17	2.785449E-18
4.940000E+03	5.770054E-17	2.786221E-18
4.950000E+03	5.774587E-17	2.787229E-18
4.960000E+03	5.779668E-17	2.788501E-18
4.970000E+03	5.785346E-17	2.790060E-18
4.980000E+03	5.791659E-17	2.791923E-18
4.990000E+03	5.798727E-17	2.794148E-18
5.000000E+03	5.806475E-17	2.796697E-18
5.010000E+03	5.814909E-17	2.799576E-18
5.020000E+03	5.824117E-17	2.802823E-18
5.030000E+03	5.833994E-17	2.806390E-18
5.040000E+03	5.844608E-17	2.810308E-18
5.050000E+03	5.855932E-17	2.814563E-18
5.060000E+03	5.867925E-17	2.819136E-18
5.070000E+03	5.880456E-17	2.823963E-18
5.080000E+03	5.893661E-17	2.829109E-18
5.090000E+03	5.907307E-17	2.834463E-18
5.100000E+03	5.921527E-17	2.840087E-18
5.110000E+03	5.936089E-17	2.845870E-18
5.120000E+03	5.951127E-17	2.851877E-18
5.130000E+03	5.966508E-17	2.858042E-18
5.140000E+03	5.982191E-17	2.864347E-18
5.150000E+03	5.998233E-17	2.870818E-18
5.160000E+03	6.014515E-17	2.877398E-18
5.170000E+03	6.031010E-17	2.884075E-18
5.180000E+03	6.047700E-17	2.890840E-18
5.190000E+03	6.064565E-17	2.897682E-18
5.200000E+03	6.081674E-17	2.904635E-18
5.210000E+03	6.098914E-17	2.911645E-18
5.220000E+03	6.116347E-17	2.918741E-18
5.230000E+03	6.133749E-17	2.925817E-18
5.240000E+03	6.151259E-17	2.932939E-18
5.250000E+03	6.168727E-17	2.940035E-18
5.260000E+03	6.186173E-17	2.947115E-18
5.270000E+03	6.203330E-17	2.954051E-18
5.280000E+03	6.220286E-17	2.960887E-18
5.290000E+03	6.236841E-17	2.967526E-18
5.300000E+03	6.252877E-17	2.973914E-18
5.310000E+03	6.268264E-17	2.979988E-18
5.320000E+03	6.282967E-17	2.985733E-18
5.330000E+03	6.296661E-17	2.990994E-18
5.340000E+03	6.309309E-17	2.995755E-18
5.350000E+03	6.320782E-17	2.999956E-18
5.360000E+03	6.330962E-17	3.003540E-18
5.370000E+03	6.339738E-17	3.006456E-18
5.380000E+03	6.347010E-17	3.008657E-18
5.390000E+03	6.352689E-17	3.010104E-18
5.400000E+03	6.356598E-17	3.010712E-18
5.410000E+03	6.358758E-17	3.010492E-18
5.420000E+03	6.359100E-17	3.009414E-18
5.430000E+03	6.357560E-17	3.007447E-18
5.440000E+03	6.354075E-17	3.004564E-18
5.450000E+03	6.348492E-17	3.000693E-18
5.460000E+03	6.340943E-17	2.995897E-18
5.470000E+03	6.331184E-17	2.990064E-18
5.480000E+03	6.319257E-17	2.983213E-18
5.490000E+03	6.305024E-17	2.975282E-18
5.500000E+03	6.288632E-17	2.966341E-18
5.510000E+03	6.269861E-17	2.956287E-18
5.520000E+03	6.248874E-17	2.945198E-18
5.530000E+03	6.225472E-17	2.932984E-18
5.540000E+03	6.199839E-17	2.919730E-18
5.550000E+03	6.171800E-17	2.905356E-18
5.560000E+03	6.141562E-17	2.889962E-18
5.570000E+03	6.109069E-17	2.873522E-18
5.580000E+03	6.074375E-17	2.856062E-18
5.590000E+03	6.037551E-17	2.837618E-18
5.600000E+03	5.998773E-17	2.818273E-18
5.610000E+03	5.958151E-17	2.798080E-18
5.620000E+03	5.915641E-17	2.777019E-18
5.630000E+03	5.871664E-17	2.755289E-18
5.640000E+03	5.826227E-17	2.732895E-18
5.650000E+03	5.779715E-17	2.710017E-18
5.660000E+03	5.732194E-17	2.686687E-18
5.670000E+03	5.684020E-17	2.663072E-18
5.680000E+03	5.635484E-17	2.639310E-18
5.690000E+03	5.586901E-17	2.615547E-18
5.700000E+03	5.538687E-17	2.591978E-18
5.710000E+03	5.491019E-17	2.568687E-18
5.720000E+03	5.444496E-17	2.545951E-18
5.730000E+03	5.399221E-17	2.523821E-18
5.740000E+03	5.355700E-17	2.502530E-18
5.750000E+03	5.314259E-17	2.482231E-18
5.760000E+03	5.275207E-17	2.463066E-18
5.770000E+03	5.238752E-17	2.445131E-18
5.780000E+03	5.205227E-17	2.428581E-18
5.790000E+03	5.174856E-17	2.413519E-18
5.800000E+03	5.147826E-17	2.400028E-18
5.810000E+03	5.124284E-17	2.388179E-18
5.820000E+03	5.104263E-17	2.377982E-18
5.830000E+03	5.087981E-17	2.369538E-18
5.840000E+03	5.075388E-17	2.362822E-18
5.850000E+03	5.066470E-17	2.357826E-18
5.860000E+03	5.061179E-17	2.354526E-18
5.870000E+03	5.059434E-17	2.352882E-18
5.880000E+03	5.061200E-17	2.352877E-18
5.890000E+03	5.066265E-17	2.354409E-18
5.900000E+03	5.074389E-17	2.357367E-18
5.910000E+03	5.085545E-17	2.361737E-18
5.920000E+03	5.099534E-17	2.367424E-18
5.930000E+03	5.115988E-17	2.374257E-18
5.940000E+03	5.134837E-17	2.382202E-18
5.950000E+03	5.155778E-17	2.391118E-18
5.960000E+03	5.178583E-17	2.400898E-18
5.970000E+03	5.203038E-17	2.411443E-18
5.980000E+03	5.228948E-17	2.422662E-18
5.990000E+03	5.256139E-17	2.434473E-18
6.000000E+03	5.284560E-17	2.446854E-18
6.010000E+03	5.314036E-17	2.459721E-18
6.020000E+03	5.344434E-17	2.473014E-18
6.030000E+03	5.375920E-17	2.486810E-18
6.040000E+03	5.408465E-17	2.501095E-18
6.050000E+03	5.442090E-17	2.515878E-18
6.060000E+03	5.477114E-17	2.531306E-18
6.070000E+03	5.513652E-17	2.547433E-18
6.080000E+03	5.551858E-17	2.564329E-18
6.090000E+03	5.592084E-17	2.582157E-18
6.100000E+03	5.634717E-17	2.601095E-18
6.110000E+03	5.679896E-17	2.621206E-18
6.120000E+03	5.727944E-17	2.642638E-18
6.130000E+03	5.779366E-17	2.665624E-18
6.140000E+03	5.834306E-17	2.690230E-18
6.150000E+03	5.893166E-17	2.716640E-18
6.160000E+03	5.956242E-17	2.744989E-18
6.170000E+03	6.023706E-17	2.775356E-18
6.180000E+03	6.095885E-17	2.807890E-18
6.190000E+03	6.172967E-17	2.842677E-18
6.200000E+03	6.254993E-17	2.879734E-18
6.210000E+03	6.342121E-17	2.919134E-18
6.220000E+03	6.434344E-17	2.960871E-18
6.230000E+03	6.531459E-17	3.004852E-18
6.240000E+03	6.633379E-17	3.051035E-18
6.250000E+03	6.739710E-17	3.099238E-18
6.260000E+03	6.850269E-17	3.149377E-18
6.270000E+03	6.964220E-17	3.201065E-18
6.280000E+03	7.081255E-17	3.254162E-18
6.290000E+03	7.200387E-17	3.308213E-18
6.300000E+03	7.320709E-17	3.362801E-18
6.310000E+03	7.441419E-17	3.417560E-18
6.320000E+03	7.561111E-17	3.471842E-18
6.330000E+03	7.678489E-17	3.525055E-18
6.340000E+03	7.792389E-17	3.576666E-18
6.350000E+03	7.901068E-17	3.625876E-18
6.360000E+03	8.003217E-17	3.672085E-18
6.370000E+03	8.096984E-17	3.714447E-18
6.380000E+03	8.180910E-17	3.752295E-18
6.390000E+03	8.253328E-17	3.784868E-18
6.400000E+03	8.313073E-17	3.811633E-18
6.410000E+03	8.358735E-17	3.831949E-18
6.420000E+03	8.389245E-17	3.845327E-18
6.430000E+03	8.403779E-17	3.851394E-18
6.440000E+03	8.401934E-17	3.849969E-18
6.450000E+03	8.383205E-17	3.840823E-18
6.460000E+03	8.347953E-17	3.824125E-18
6.470000E+03	8.296429E-17	3.799994E-18
6.480000E+03	8.229447E-17	3.768804E-18
6.490000E+03	8.147793E-17	3.730918E-18
6.500000E+03	8.052728E-17	3.686915E-18
6.510000E+03	7.945396E-17	3.637322E-18
6.520000E+03	7.827309E-17	3.582831E-18
6.530000E+03	7.699901E-17	3.524100E-18
6.540000E+03	7.564616E-17	3.461791E-18
6.550000E+03	7.422877E-17	3.396556E-18
6.560000E+03	7.275931E-17	3.328964E-18
6.570000E+03	7.125321E-17	3.259722E-18
6.580000E+03	6.972126E-17	3.189324E-18
6.590000E+03	6.817452E-17	3.118274E-18
6.600000E+03	6.662407E-17	3.047079E-18
6.610000E+03	6.507766E-17	2.976092E-18
6.620000E+03	6.354310E-17	2.905671E-18
6.630000E+03	6.202830E-17	2.836175E-18
6.640000E+03	6.053909E-17	2.767869E-18
6.650000E+03	5.907941E-17	2.700935E-18
6.660000E+03	5.765452E-17	2.635609E-18
6.670000E+03	5.626792E-17	2.572053E-18
6.680000E+03	5.492247E-17	2.510394E-18
6.690000E+03	5.361957E-17	2.450697E-18
6.700000E+03	5.236291E-17	2.393128E-18
6.710000E+03	5.115288E-17	2.337706E-18
6.720000E+03	4.999133E-17	2.284512E-18
6.730000E+03	4.887711E-17	2.233495E-18
6.740000E+03	4.781222E-17	2.184744E-18
6.750000E+03	4.679666E-17	2.138258E-18
6.760000E+03	4.582861E-17	2.093955E-18
6.770000E+03	4.491012E-17	2.051926E-18
6.780000E+03	4.403910E-17	2.012076E-18
6.790000E+03	4.321498E-17	1.974377E-18
6.800000E+03	4.243789E-17	1.938835E-18
6.810000E+03	4.170709E-17	1.905417E-18
6.820000E+03	4.102189E-17	1.874090E-18
6.830000E+03	4.038083E-17	1.844787E-18
6.840000E+03	3.978393E-17	1.817507E-18
6.850000E+03	3.923117E-17	1.792252E-18
6.860000E+03	3.872049E-17	1.768925E-18
6.870000E+03	3.825197E-17	1.747530E-18
6.880000E+03	3.782438E-17	1.728011E-18
6.890000E+03	3.743862E-17	1.710409E-18
6.900000E+03	3.709361E-17	1.694674E-18
6.910000E+03	3.678897E-17	1.680789E-18
6.920000E+03	3.652437E-17	1.668740E-18
6.930000E+03	3.629885E-17	1.658481E-18
6.940000E+03	3.611344E-17	1.650059E-18
6.950000E+03	3.596721E-17	1.643434E-18
6.960000E+03	3.585987E-17	1.638592E-18
6.970000E+03	3.579054E-17	1.635492E-18
6.980000E+03	3.576021E-17	1.634180E-18
6.990000E+03	3.576729E-17	1.634584E-18
7.000000E+03	3.581273E-17	1.636747E-18
7.010000E+03	3.589489E-17	1.640594E-18
7.020000E+03	3.601397E-17	1.646136E-18
7.030000E+03	3.616957E-17	1.653354E-18
7.040000E+03	3.636115E-17	1.662224E-18
7.050000E+03	3.658749E-17	1.672691E-18
7.060000E+03	3.684928E-17	1.684786E-18
7.070000E+03	3.714378E-17	1.698385E-18
7.080000E+03	3.747220E-17	1.713545E-18
7.090000E+03	3.783228E-17	1.730161E-18
7.100000E+03	3.822295E-17	1.748187E-18
7.110000E+03	3.864373E-17	1.767599E-18
7.120000E+03	3.909257E-17	1.788307E-18
7.130000E+03	3.956795E-17	1.810239E-18
7.140000E+03	4.006888E-17	1.833353E-18
7.150000E+03	4.059275E-17	1.857529E-18
7.160000E+03	4.113744E-17	1.882670E-18
7.170000E+03	4.170060E-17	1.908670E-18
7.180000E+03	4.227893E-17	1.935380E-18
7.190000E+03	4.287128E-17	1.962745E-18
7.200000E+03	4.347399E-17	1.990600E-18
7.210000E+03	4.408320E-17	2.018769E-18
7.220000E+03	4.469650E-17	2.047142E-18
7.230000E+03	4.530970E-17	2.075526E-18
7.240000E+03	4.592012E-17	2.103801E-18
7.250000E+03	4.652328E-17	2.131760E-18
7.260000E+03	4.711535E-17	2.159229E-18
7.270000E+03	4.769324E-17	2.186067E-18
7.280000E+03	4.825199E-17	2.212045E-18
7.290000E+03	4.878737E-17	2.236971E-18
7.300000E+03	4.929502E-17	2.260643E-18
7.310000E+03	4.976960E-17	2.282817E-18
7.320000E+03	5.020844E-17	2.303370E-18
7.330000E+03	5.060517E-17	2.322009E-18
7.340000E+03	5.095717E-17	2.338614E-18
7.350000E+03	5.125722E-17	2.352850E-18
7.360000E+03	5.150389E-17	2.364653E-18
7.370000E+03	5.169026E-17	2.373703E-18
7.380000E+03	5.181553E-17	2.379962E-18
7.390000E+03	5.187345E-17	2.383140E-18
7.400000E+03	5.186310E-17	2.383195E-18
7.410000E+03	5.178128E-17	2.379976E-18
7.420000E+03	5.162743E-17	2.373456E-18
7.430000E+03	5.139888E-17	2.363509E-18
7.440000E+03	5.109777E-17	2.350233E-18
7.450000E+03	5.072433E-17	2.333634E-18
7.460000E+03	5.028084E-17	2.313814E-18
7.470000E+03	4.977066E-17	2.290927E-18
7.480000E+03	4.919821E-17	2.265173E-18
7.490000E+03	4.856888E-17	2.236798E-18
7.500000E+03	4.788887E-17	2.206083E-18
7.510000E+03	4.716497E-17	2.173342E-18
7.520000E+03	4.640443E-17	2.138904E-18
7.530000E+03	4.561467E-17	2.103111E-18
7.540000E+03	4.480231E-17	2.066266E-18
7.550000E+03	4.397634E-17	2.028782E-18
7.560000E+03	4.314217E-17	1.990909E-18
7.570000E+03	4.230809E-17	1.953027E-18
7.580000E+03	4.147873E-17	1.915349E-18
7.590000E+03	4.066062E-17	1.878178E-18
7.600000E+03	3.985897E-17	1.841753E-18
7.610000E+03	3.907840E-17	1.806288E-18
7.620000E+03	3.832221E-17	1.771935E-18
7.630000E+03	3.759530E-17	1.738923E-18
7.640000E+03	3.689891E-17	1.707308E-18
7.650000E+03	3.623551E-17	1.677206E-18
7.660000E+03	3.560574E-17	1.648649E-18
7.670000E+03	3.500974E-17	1.621642E-18
7.680000E+03	3.444656E-17	1.596144E-18
7.690000E+03	3.391702E-17	1.572193E-18
7.700000E+03	3.341909E-17	1.549697E-18
7.710000E+03	3.295257E-17	1.528648E-18
7.720000E+03	3.251647E-17	1.509001E-18
7.730000E+03	3.210913E-17	1.490680E-18
7.740000E+03	3.173064E-17	1.473691E-18
7.750000E+03	3.137860E-17	1.457923E-18
7.760000E+03	3.105242E-17	1.443350E-18
