#wls	flux	fluxerr
1.600000E+03	5.263174E-18	2.913783E-19
1.640000E+03	5.471261E-18	3.027358E-19
1.680000E+03	5.694449E-18	3.149117E-19
1.720000E+03	5.932826E-18	3.279088E-19
1.760000E+03	6.187456E-18	3.417838E-19
1.800000E+03	6.461668E-18	3.567183E-19
1.840000E+03	6.754655E-18	3.726650E-19
1.880000E+03	7.067721E-18	3.896930E-19
1.920000E+03	7.404718E-18	4.080116E-19
1.960000E+03	7.766132E-18	4.276441E-19
2.000000E+03	8.153691E-18	4.486816E-19
2.040000E+03	8.569220E-18	4.712205E-19
2.080000E+03	9.016110E-18	4.954426E-19
2.120000E+03	9.495050E-18	5.213807E-19
2.160000E+03	1.000816E-17	5.491458E-19
2.200000E+03	1.056102E-17	5.790376E-19
2.240000E+03	1.115285E-17	6.110072E-19
2.280000E+03	1.178973E-17	6.453798E-19
2.320000E+03	1.247074E-17	6.820970E-19
2.360000E+03	1.320237E-17	7.215056E-19
2.400000E+03	1.398768E-17	7.637630E-19
2.440000E+03	1.482748E-17	8.089031E-19
2.480000E+03	1.572684E-17	8.571908E-19
2.520000E+03	1.668868E-17	9.087738E-19
2.560000E+03	1.771835E-17	9.639302E-19
2.600000E+03	1.881345E-17	1.022514E-18
2.640000E+03	1.998435E-17	1.085076E-18
2.680000E+03	2.123082E-17	1.151585E-18
2.720000E+03	2.255466E-17	1.222123E-18
2.760000E+03	2.395715E-17	1.296740E-18
2.800000E+03	2.544217E-17	1.375627E-18
2.840000E+03	2.700622E-17	1.458575E-18
2.880000E+03	2.865534E-17	1.545890E-18
2.920000E+03	3.038391E-17	1.637246E-18
2.960000E+03	3.219240E-17	1.732647E-18
3.000000E+03	3.407618E-17	1.831822E-18
3.010000E+03	3.455778E-17	1.857143E-18
3.020000E+03	3.504598E-17	1.882800E-18
3.030000E+03	3.553640E-17	1.908558E-18
3.040000E+03	3.603321E-17	1.934639E-18
3.050000E+03	3.653194E-17	1.960803E-18
3.060000E+03	3.703238E-17	1.987040E-18
3.070000E+03	3.753881E-17	2.013579E-18
3.080000E+03	3.804661E-17	2.040170E-18
3.090000E+03	3.856011E-17	2.067047E-18
3.100000E+03	3.907919E-17	2.094202E-18
3.110000E+03	3.959909E-17	2.121380E-18
3.120000E+03	4.011956E-17	2.148567E-18
3.130000E+03	4.064506E-17	2.176002E-18
3.140000E+03	4.117068E-17	2.203422E-18
3.150000E+03	4.170092E-17	2.231067E-18
3.160000E+03	4.223562E-17	2.258929E-18
3.170000E+03	4.276973E-17	2.286737E-18
3.180000E+03	4.330297E-17	2.314476E-18
3.190000E+03	4.383994E-17	2.342391E-18
3.200000E+03	4.438042E-17	2.370471E-18
3.210000E+03	4.491922E-17	2.398439E-18
3.220000E+03	4.545598E-17	2.426274E-18
3.230000E+03	4.600050E-17	2.454500E-18
3.240000E+03	4.653735E-17	2.482293E-18
3.250000E+03	4.708142E-17	2.510448E-18
3.260000E+03	4.761711E-17	2.538133E-18
3.270000E+03	4.815950E-17	2.566150E-18
3.280000E+03	4.869796E-17	2.593934E-18
3.290000E+03	4.923212E-17	2.621465E-18
3.300000E+03	4.977210E-17	2.649281E-18
3.310000E+03	5.030181E-17	2.676527E-18
3.320000E+03	5.083672E-17	2.704025E-18
3.330000E+03	5.136055E-17	2.730909E-18
3.340000E+03	5.188893E-17	2.758011E-18
3.350000E+03	5.241078E-17	2.784742E-18
3.360000E+03	5.293112E-17	2.811368E-18
3.370000E+03	5.344414E-17	2.837581E-18
3.380000E+03	5.395490E-17	2.863650E-18
3.390000E+03	5.445753E-17	2.889263E-18
3.400000E+03	5.495711E-17	2.914690E-18
3.410000E+03	5.545326E-17	2.939911E-18
3.420000E+03	5.594008E-17	2.964614E-18
3.430000E+03	5.642269E-17	2.989069E-18
3.440000E+03	5.690067E-17	3.013256E-18
3.450000E+03	5.736811E-17	3.036861E-18
3.460000E+03	5.783014E-17	3.060156E-18
3.470000E+03	5.828080E-17	3.082826E-18
3.480000E+03	5.872525E-17	3.105145E-18
3.490000E+03	5.916311E-17	3.127093E-18
3.500000E+03	5.958839E-17	3.148354E-18
3.510000E+03	6.000631E-17	3.169204E-18
3.520000E+03	6.041087E-17	3.189326E-18
3.530000E+03	6.081292E-17	3.209295E-18
3.540000E+03	6.119523E-17	3.228200E-18
3.550000E+03	6.157432E-17	3.246915E-18
3.560000E+03	6.193856E-17	3.264827E-18
3.570000E+03	6.229324E-17	3.282214E-18
3.580000E+03	6.263241E-17	3.298765E-18
3.590000E+03	6.296135E-17	3.314758E-18
3.600000E+03	6.327413E-17	3.329882E-18
3.610000E+03	6.358168E-17	3.344711E-18
3.620000E+03	6.387247E-17	3.358642E-18
3.630000E+03	6.414628E-17	3.371663E-18
3.640000E+03	6.440841E-17	3.384053E-18
3.650000E+03	6.465861E-17	3.395800E-18
3.660000E+03	6.489111E-17	3.406603E-18
3.670000E+03	6.511124E-17	3.416740E-18
3.680000E+03	6.531879E-17	3.426204E-18
3.690000E+03	6.550809E-17	3.434697E-18
3.700000E+03	6.568450E-17	3.442500E-18
3.710000E+03	6.584784E-17	3.449606E-18
3.720000E+03	6.599258E-17	3.455726E-18
3.730000E+03	6.611866E-17	3.460858E-18
3.740000E+03	6.623678E-17	3.465563E-18
3.750000E+03	6.633081E-17	3.468998E-18
3.760000E+03	6.641676E-17	3.472001E-18
3.770000E+03	6.648397E-17	3.474016E-18
3.780000E+03	6.653776E-17	3.475322E-18
3.790000E+03	6.657292E-17	3.475648E-18
3.800000E+03	6.659479E-17	3.475274E-18
3.810000E+03	6.659826E-17	3.473935E-18
3.820000E+03	6.658863E-17	3.471907E-18
3.830000E+03	6.656602E-17	3.469199E-18
3.840000E+03	6.652549E-17	3.465554E-18
3.850000E+03	6.646731E-17	3.460987E-18
3.860000E+03	6.639674E-17	3.455773E-18
3.870000E+03	6.631398E-17	3.449923E-18
3.880000E+03	6.621435E-17	3.443195E-18
3.890000E+03	6.610305E-17	3.435861E-18
3.900000E+03	6.597554E-17	3.427685E-18
3.910000E+03	6.583221E-17	3.418690E-18
3.920000E+03	6.567823E-17	3.409144E-18
3.930000E+03	6.551391E-17	3.399064E-18
3.940000E+03	6.533495E-17	3.388229E-18
3.950000E+03	6.514644E-17	3.376902E-18
3.960000E+03	6.493963E-17	3.364633E-18
3.970000E+03	6.472871E-17	3.352156E-18
3.980000E+03	6.450056E-17	3.338793E-18
3.990000E+03	6.426913E-17	3.325268E-18
4.000000E+03	6.402160E-17	3.310917E-18
4.010000E+03	6.376734E-17	3.296226E-18
4.020000E+03	6.350254E-17	3.280999E-18
4.030000E+03	6.323204E-17	3.265487E-18
4.040000E+03	6.295214E-17	3.249499E-18
4.050000E+03	6.266348E-17	3.233069E-18
4.060000E+03	6.236669E-17	3.216230E-18
4.070000E+03	6.206649E-17	3.199226E-18
4.080000E+03	6.175938E-17	3.181878E-18
4.090000E+03	6.145002E-17	3.164425E-18
4.100000E+03	6.113105E-17	3.146489E-18
4.110000E+03	6.081107E-17	3.128514E-18
4.120000E+03	6.048676E-17	3.110329E-18
4.130000E+03	6.015880E-17	3.091969E-18
4.140000E+03	5.983159E-17	3.073661E-18
4.150000E+03	5.949825E-17	3.055052E-18
4.160000E+03	5.916693E-17	3.036559E-18
4.170000E+03	5.883450E-17	3.018024E-18
4.180000E+03	5.850163E-17	2.999480E-18
4.190000E+03	5.816897E-17	2.980960E-18
4.200000E+03	5.783714E-17	2.962497E-18
4.210000E+03	5.750680E-17	2.944125E-18
4.220000E+03	5.717856E-17	2.925874E-18
4.230000E+03	5.685643E-17	2.907950E-18
4.240000E+03	5.653421E-17	2.890035E-18
4.250000E+03	5.621592E-17	2.872335E-18
4.260000E+03	5.590214E-17	2.854879E-18
4.270000E+03	5.559342E-17	2.837695E-18
4.280000E+03	5.529032E-17	2.820812E-18
4.290000E+03	5.499337E-17	2.804255E-18
4.300000E+03	5.470307E-17	2.788051E-18
4.310000E+03	5.441990E-17	2.772223E-18
4.320000E+03	5.414127E-17	2.756638E-18
4.330000E+03	5.387376E-17	2.741633E-18
4.340000E+03	5.361170E-17	2.726917E-18
4.350000E+03	5.335852E-17	2.712663E-18
4.360000E+03	5.311163E-17	2.698741E-18
4.370000E+03	5.287727E-17	2.685467E-18
4.380000E+03	5.264989E-17	2.672557E-18
4.390000E+03	5.243268E-17	2.660174E-18
4.400000E+03	5.222589E-17	2.648329E-18
4.410000E+03	5.202693E-17	2.636891E-18
4.420000E+03	5.183882E-17	2.626012E-18
4.430000E+03	5.165897E-17	2.615558E-18
4.440000E+03	5.149303E-17	2.605819E-18
4.450000E+03	5.133290E-17	2.596380E-18
4.460000E+03	5.118686E-17	2.587661E-18
4.470000E+03	5.104953E-17	2.579389E-18
4.480000E+03	5.092101E-17	2.571568E-18
4.490000E+03	5.080396E-17	2.564333E-18
4.500000E+03	5.069837E-17	2.557681E-18
4.510000E+03	5.060156E-17	2.551477E-18
4.520000E+03	5.051612E-17	2.545850E-18
4.530000E+03	5.043934E-17	2.540664E-18
4.540000E+03	5.037116E-17	2.535915E-18
4.550000E+03	5.031402E-17	2.531725E-18
4.560000E+03	5.026521E-17	2.527956E-18
4.570000E+03	5.022708E-17	2.524727E-18
4.580000E+03	5.019693E-17	2.521901E-18
4.590000E+03	5.017703E-17	2.519591E-18
4.600000E+03	5.016462E-17	2.517659E-18
4.610000E+03	5.015944E-17	2.516090E-18
4.620000E+03	5.016365E-17	2.514993E-18
4.630000E+03	5.017201E-17	2.514104E-18
4.640000E+03	5.019149E-17	2.513772E-18
4.650000E+03	5.021439E-17	2.513611E-18
4.660000E+03	5.024514E-17	2.513842E-18
4.670000E+03	5.028087E-17	2.514321E-18
4.680000E+03	5.032111E-17	2.515025E-18
4.690000E+03	5.036777E-17	2.516049E-18
4.700000E+03	5.041792E-17	2.517246E-18
4.710000E+03	5.047103E-17	2.518588E-18
4.720000E+03	5.052649E-17	2.520047E-18
4.730000E+03	5.058613E-17	2.521713E-18
4.740000E+03	5.064694E-17	2.523435E-18
4.750000E+03	5.070591E-17	2.525064E-18
4.760000E+03	5.076952E-17	2.526923E-18
4.770000E+03	5.082996E-17	2.528623E-18
4.780000E+03	5.088897E-17	2.530250E-18
4.790000E+03	5.094817E-17	2.531886E-18
4.800000E+03	5.100454E-17	2.533380E-18
4.810000E+03	5.105740E-17	2.534700E-18
4.820000E+03	5.110611E-17	2.535813E-18
4.830000E+03	5.115005E-17	2.536690E-18
4.840000E+03	5.119107E-17	2.537421E-18
4.850000E+03	5.122413E-17	2.537760E-18
4.860000E+03	5.125376E-17	2.537929E-18
4.870000E+03	5.127794E-17	2.537830E-18
4.880000E+03	5.129736E-17	2.537498E-18
4.890000E+03	5.131292E-17	2.536975E-18
4.900000E+03	5.132558E-17	2.536312E-18
4.910000E+03	5.133868E-17	2.535672E-18
4.920000E+03	5.134867E-17	2.534881E-18
4.930000E+03	5.136114E-17	2.534213E-18
4.940000E+03	5.137476E-17	2.533605E-18
4.950000E+03	5.138817E-17	2.532988E-18
4.960000E+03	5.140673E-17	2.532626E-18
4.970000E+03	5.142892E-17	2.532445E-18
4.980000E+03	5.145539E-17	2.532475E-18
4.990000E+03	5.148896E-17	2.532856E-18
5.000000E+03	5.152561E-17	2.533389E-18
5.010000E+03	5.157020E-17	2.534312E-18
5.020000E+03	5.161855E-17	2.535420E-18
5.030000E+03	5.167532E-17	2.536942E-18
5.040000E+03	5.173840E-17	2.538773E-18
5.050000E+03	5.180784E-17	2.540914E-18
5.060000E+03	5.188357E-17	2.543363E-18
5.070000E+03	5.196551E-17	2.546115E-18
5.080000E+03	5.205347E-17	2.549160E-18
5.090000E+03	5.214946E-17	2.552595E-18
5.100000E+03	5.224875E-17	2.556190E-18
5.110000E+03	5.235548E-17	2.560145E-18
5.120000E+03	5.246707E-17	2.564336E-18
5.130000E+03	5.258317E-17	2.568743E-18
5.140000E+03	5.270336E-17	2.573346E-18
5.150000E+03	5.282725E-17	2.578127E-18
5.160000E+03	5.295441E-17	2.583063E-18
5.170000E+03	5.308658E-17	2.588239E-18
5.180000E+03	5.322105E-17	2.593523E-18
5.190000E+03	5.335505E-17	2.598781E-18
5.200000E+03	5.349245E-17	2.604199E-18
5.210000E+03	5.363039E-17	2.609640E-18
5.220000E+03	5.377039E-17	2.615176E-18
5.230000E+03	5.390721E-17	2.620553E-18
5.240000E+03	5.404452E-17	2.625950E-18
5.250000E+03	5.417919E-17	2.631213E-18
5.260000E+03	5.431028E-17	2.636300E-18
5.270000E+03	5.443683E-17	2.641162E-18
5.280000E+03	5.455784E-17	2.645752E-18
5.290000E+03	5.467458E-17	2.650131E-18
5.300000E+03	5.478147E-17	2.654030E-18
5.310000E+03	5.488203E-17	2.657620E-18
5.320000E+03	5.497523E-17	2.660851E-18
5.330000E+03	5.505553E-17	2.663457E-18
5.340000E+03	5.512645E-17	2.665607E-18
5.350000E+03	5.518474E-17	2.667147E-18
5.360000E+03	5.522942E-17	2.668028E-18
5.370000E+03	5.525953E-17	2.668207E-18
5.380000E+03	5.527417E-17	2.667640E-18
5.390000E+03	5.527471E-17	2.666395E-18
5.400000E+03	5.525805E-17	2.664323E-18
5.410000E+03	5.522564E-17	2.661496E-18
5.420000E+03	5.517228E-17	2.657663E-18
5.430000E+03	5.510178E-17	2.653011E-18
5.440000E+03	5.501131E-17	2.647404E-18
5.450000E+03	5.490262E-17	2.640927E-18
5.460000E+03	5.477301E-17	2.633453E-18
5.470000E+03	5.462214E-17	2.624965E-18
5.480000E+03	5.444974E-17	2.615453E-18
5.490000E+03	5.425783E-17	2.605016E-18
5.500000E+03	5.404409E-17	2.593542E-18
5.510000E+03	5.380848E-17	2.581032E-18
5.520000E+03	5.355321E-17	2.567593E-18
5.530000E+03	5.327622E-17	2.553128E-18
5.540000E+03	5.297769E-17	2.537647E-18
5.550000E+03	5.266005E-17	2.521267E-18
5.560000E+03	5.232148E-17	2.503903E-18
5.570000E+03	5.196243E-17	2.485578E-18
5.580000E+03	5.158555E-17	2.466420E-18
5.590000E+03	5.118939E-17	2.446360E-18
5.600000E+03	5.077470E-17	2.425436E-18
5.610000E+03	5.034445E-17	2.403791E-18
5.620000E+03	4.989966E-17	2.381474E-18
5.630000E+03	4.943747E-17	2.358350E-18
5.640000E+03	4.896529E-17	2.334773E-18
5.650000E+03	4.847868E-17	2.310533E-18
5.660000E+03	4.798332E-17	2.285900E-18
5.670000E+03	4.748109E-17	2.260966E-18
5.680000E+03	4.697206E-17	2.235733E-18
5.690000E+03	4.645843E-17	2.210306E-18
5.700000E+03	4.594438E-17	2.184885E-18
5.710000E+03	4.543035E-17	2.159491E-18
5.720000E+03	4.492055E-17	2.134323E-18
5.730000E+03	4.441550E-17	2.109406E-18
5.740000E+03	4.391932E-17	2.084936E-18
5.750000E+03	4.343246E-17	2.060932E-18
5.760000E+03	4.295882E-17	2.037580E-18
5.770000E+03	4.249867E-17	2.014890E-18
5.780000E+03	4.205562E-17	1.993035E-18
5.790000E+03	4.162968E-17	1.972012E-18
5.800000E+03	4.122412E-17	1.951975E-18
5.810000E+03	4.083868E-17	1.932912E-18
5.820000E+03	4.047629E-17	1.914959E-18
5.830000E+03	4.013644E-17	1.898090E-18
5.840000E+03	3.982172E-17	1.882428E-18
5.850000E+03	3.953298E-17	1.868011E-18
5.860000E+03	3.926936E-17	1.854796E-18
5.870000E+03	3.903308E-17	1.842887E-18
5.880000E+03	3.882310E-17	1.832232E-18
5.890000E+03	3.864147E-17	1.822929E-18
5.900000E+03	3.848860E-17	1.814994E-18
5.910000E+03	3.836324E-17	1.808367E-18
5.920000E+03	3.826729E-17	1.803135E-18
5.930000E+03	3.819944E-17	1.799235E-18
5.940000E+03	3.816151E-17	1.796752E-18
5.950000E+03	3.815372E-17	1.795695E-18
5.960000E+03	3.817476E-17	1.796000E-18
5.970000E+03	3.822641E-17	1.797750E-18
5.980000E+03	3.830739E-17	1.800883E-18
5.990000E+03	3.842111E-17	1.805558E-18
6.000000E+03	3.856478E-17	1.811641E-18
6.010000E+03	3.873873E-17	1.819148E-18
6.020000E+03	3.894657E-17	1.828247E-18
6.030000E+03	3.918560E-17	1.838809E-18
6.040000E+03	3.945635E-17	1.850857E-18
6.050000E+03	3.976265E-17	1.864571E-18
6.060000E+03	4.010194E-17	1.879828E-18
6.070000E+03	4.047490E-17	1.896659E-18
6.080000E+03	4.088564E-17	1.915256E-18
6.090000E+03	4.133160E-17	1.935497E-18
6.100000E+03	4.181532E-17	1.957499E-18
6.110000E+03	4.233761E-17	1.981301E-18
6.120000E+03	4.289754E-17	2.006855E-18
6.130000E+03	4.349937E-17	2.034361E-18
6.140000E+03	4.414024E-17	2.063683E-18
6.150000E+03	4.482064E-17	2.094843E-18
6.160000E+03	4.554464E-17	2.128031E-18
6.170000E+03	4.630872E-17	2.163080E-18
6.180000E+03	4.711465E-17	2.200073E-18
6.190000E+03	4.796200E-17	2.238987E-18
6.200000E+03	4.884985E-17	2.279780E-18
6.210000E+03	4.977462E-17	2.322283E-18
6.220000E+03	5.073604E-17	2.366483E-18
6.230000E+03	5.173114E-17	2.412241E-18
6.240000E+03	5.275624E-17	2.459385E-18
6.250000E+03	5.380703E-17	2.507712E-18
6.260000E+03	5.487848E-17	2.556989E-18
6.270000E+03	5.596250E-17	2.606839E-18
6.280000E+03	5.705492E-17	2.657068E-18
6.290000E+03	5.814862E-17	2.707344E-18
6.300000E+03	5.923578E-17	2.757304E-18
6.310000E+03	6.030798E-17	2.806558E-18
6.320000E+03	6.135362E-17	2.854565E-18
6.330000E+03	6.236828E-17	2.901124E-18
6.340000E+03	6.333685E-17	2.945531E-18
6.350000E+03	6.425174E-17	2.987437E-18
6.360000E+03	6.510545E-17	3.026495E-18
6.370000E+03	6.588239E-17	3.061982E-18
6.380000E+03	6.657263E-17	3.093440E-18
6.390000E+03	6.717249E-17	3.120701E-18
6.400000E+03	6.767075E-17	3.143245E-18
6.410000E+03	6.805998E-17	3.160732E-18
6.420000E+03	6.833110E-17	3.172742E-18
6.430000E+03	6.848516E-17	3.179327E-18
6.440000E+03	6.851317E-17	3.180074E-18
6.450000E+03	6.841655E-17	3.175050E-18
6.460000E+03	6.819836E-17	3.164401E-18
6.470000E+03	6.785465E-17	3.147946E-18
6.480000E+03	6.739176E-17	3.125982E-18
6.490000E+03	6.681458E-17	3.098738E-18
6.500000E+03	6.612931E-17	3.066503E-18
6.510000E+03	6.534321E-17	3.029615E-18
6.520000E+03	6.446446E-17	2.988456E-18
6.530000E+03	6.350187E-17	2.943435E-18
6.540000E+03	6.246473E-17	2.894983E-18
6.550000E+03	6.136256E-17	2.843542E-18
6.560000E+03	6.020492E-17	2.789556E-18
6.570000E+03	5.899877E-17	2.733348E-18
6.580000E+03	5.775842E-17	2.675580E-18
6.590000E+03	5.649018E-17	2.616544E-18
6.600000E+03	5.520243E-17	2.556629E-18
6.610000E+03	5.390307E-17	2.496198E-18
6.620000E+03	5.259943E-17	2.435593E-18
6.630000E+03	5.129822E-17	2.375121E-18
6.640000E+03	5.000338E-17	2.314966E-18
6.650000E+03	4.872478E-17	2.255582E-18
6.660000E+03	4.746507E-17	2.197092E-18
6.670000E+03	4.622855E-17	2.139693E-18
6.680000E+03	4.501892E-17	2.083557E-18
6.690000E+03	4.383935E-17	2.028828E-18
6.700000E+03	4.269249E-17	1.975628E-18
6.710000E+03	4.158055E-17	1.924060E-18
6.720000E+03	4.050529E-17	1.874202E-18
6.730000E+03	3.946808E-17	1.826117E-18
6.740000E+03	3.847161E-17	1.779930E-18
6.750000E+03	3.751321E-17	1.735516E-18
6.760000E+03	3.659503E-17	1.692974E-18
6.770000E+03	3.571726E-17	1.652311E-18
6.780000E+03	3.488142E-17	1.613597E-18
6.790000E+03	3.408422E-17	1.576679E-18
6.800000E+03	3.332836E-17	1.541682E-18
6.810000E+03	3.261040E-17	1.508446E-18
6.820000E+03	3.193266E-17	1.477078E-18
6.830000E+03	3.129169E-17	1.447418E-18
6.840000E+03	3.068952E-17	1.419559E-18
6.850000E+03	3.012401E-17	1.393401E-18
6.860000E+03	2.959308E-17	1.368849E-18
6.870000E+03	2.909854E-17	1.345986E-18
6.880000E+03	2.863829E-17	1.324715E-18
6.890000E+03	2.821156E-17	1.304999E-18
6.900000E+03	2.781757E-17	1.286803E-18
6.910000E+03	2.745556E-17	1.270090E-18
6.920000E+03	2.712480E-17	1.254828E-18
6.930000E+03	2.682455E-17	1.240982E-18
6.940000E+03	2.655528E-17	1.228573E-18
6.950000E+03	2.631391E-17	1.217460E-18
6.960000E+03	2.610094E-17	1.207666E-18
6.970000E+03	2.591574E-17	1.199160E-18
6.980000E+03	2.575877E-17	1.191966E-18
6.990000E+03	2.562711E-17	1.185947E-18
7.000000E+03	2.552129E-17	1.181129E-18
7.010000E+03	2.544183E-17	1.177536E-18
7.020000E+03	2.538585E-17	1.175035E-18
7.030000E+03	2.535503E-17	1.173703E-18
7.040000E+03	2.534650E-17	1.173409E-18
7.050000E+03	2.536192E-17	1.174229E-18
7.060000E+03	2.539955E-17	1.176083E-18
7.070000E+03	2.545760E-17	1.178888E-18
7.080000E+03	2.553769E-17	1.182721E-18
7.090000E+03	2.563683E-17	1.187443E-18
7.100000E+03	2.575658E-17	1.193126E-18
7.110000E+03	2.589499E-17	1.199681E-18
7.120000E+03	2.605002E-17	1.207014E-18
7.130000E+03	2.622309E-17	1.215190E-18
7.140000E+03	2.641084E-17	1.224055E-18
7.150000E+03	2.661453E-17	1.233668E-18
7.160000E+03	2.683062E-17	1.243865E-18
7.170000E+03	2.706025E-17	1.254699E-18
7.180000E+03	2.729961E-17	1.265994E-18
7.190000E+03	2.754973E-17	1.277798E-18
7.200000E+03	2.780655E-17	1.289924E-18
7.210000E+03	2.806968E-17	1.302354E-18
7.220000E+03	2.833865E-17	1.315066E-18
7.230000E+03	2.860905E-17	1.327856E-18
7.240000E+03	2.888022E-17	1.340694E-18
7.250000E+03	2.915013E-17	1.353486E-18
7.260000E+03	2.941667E-17	1.366133E-18
7.270000E+03	2.967762E-17	1.378534E-18
7.280000E+03	2.993076E-17	1.390585E-18
7.290000E+03	3.017236E-17	1.402113E-18
7.300000E+03	3.040281E-17	1.413136E-18
7.310000E+03	3.061836E-17	1.423480E-18
7.320000E+03	3.081520E-17	1.432966E-18
7.330000E+03	3.099238E-17	1.441551E-18
7.340000E+03	3.114758E-17	1.449126E-18
7.350000E+03	3.127999E-17	1.455654E-18
7.360000E+03	3.138319E-17	1.460833E-18
7.370000E+03	3.145952E-17	1.464774E-18
7.380000E+03	3.150577E-17	1.467325E-18
7.390000E+03	3.151891E-17	1.468343E-18
7.400000E+03	3.150057E-17	1.467905E-18
7.410000E+03	3.144683E-17	1.465826E-18
7.420000E+03	3.135851E-17	1.462142E-18
7.430000E+03	3.123386E-17	1.456772E-18
7.440000E+03	3.107589E-17	1.449852E-18
7.450000E+03	3.088216E-17	1.441270E-18
7.460000E+03	3.065646E-17	1.431199E-18
7.470000E+03	3.039719E-17	1.419563E-18
7.480000E+03	3.010744E-17	1.406505E-18
7.490000E+03	2.978781E-17	1.392051E-18
7.500000E+03	2.944343E-17	1.376440E-18
7.510000E+03	2.907414E-17	1.359663E-18
7.520000E+03	2.868416E-17	1.341914E-18
7.530000E+03	2.827518E-17	1.323273E-18
7.540000E+03	2.785301E-17	1.304010E-18
7.550000E+03	2.741824E-17	1.284151E-18
7.560000E+03	2.697542E-17	1.263909E-18
7.570000E+03	2.652774E-17	1.243432E-18
7.580000E+03	2.607708E-17	1.222807E-18
7.590000E+03	2.562891E-17	1.202290E-18
7.600000E+03	2.518358E-17	1.181897E-18
7.610000E+03	2.474371E-17	1.161751E-18
7.620000E+03	2.431399E-17	1.142073E-18
7.630000E+03	2.389410E-17	1.122845E-18
7.640000E+03	2.348682E-17	1.104201E-18
7.650000E+03	2.309222E-17	1.086143E-18
7.660000E+03	2.271321E-17	1.068808E-18
7.670000E+03	2.234798E-17	1.052113E-18
7.680000E+03	2.199671E-17	1.036065E-18
7.690000E+03	2.166151E-17	1.020765E-18
7.700000E+03	2.134010E-17	1.006106E-18
7.710000E+03	2.103333E-17	9.921285E-19
7.720000E+03	2.073989E-17	9.787718E-19
7.730000E+03	2.046048E-17	9.660694E-19
7.740000E+03	2.019471E-17	9.540031E-19
7.750000E+03	1.994220E-17	9.425560E-19
7.760000E+03	1.970156E-17	9.316629E-19
