#wls	flux	fluxerr
1.600000E+03	7.164840E-18	2.546755E-19
1.640000E+03	7.506320E-18	2.667560E-19
1.680000E+03	7.872417E-18	2.797043E-19
1.720000E+03	8.265025E-18	2.935868E-19
1.760000E+03	8.686181E-18	3.084750E-19
1.800000E+03	9.136517E-18	3.243902E-19
1.840000E+03	9.621432E-18	3.415230E-19
1.880000E+03	1.014196E-17	3.599087E-19
1.920000E+03	1.070079E-17	3.796416E-19
1.960000E+03	1.130271E-17	4.008899E-19
2.000000E+03	1.194707E-17	4.236288E-19
2.040000E+03	1.264107E-17	4.481116E-19
2.080000E+03	1.338627E-17	4.743920E-19
2.120000E+03	1.418867E-17	5.026801E-19
2.160000E+03	1.505006E-17	5.330366E-19
2.200000E+03	1.597712E-17	5.656956E-19
2.240000E+03	1.697175E-17	6.007216E-19
2.280000E+03	1.803837E-17	6.382674E-19
2.320000E+03	1.918771E-17	6.787094E-19
2.360000E+03	2.041893E-17	7.220139E-19
2.400000E+03	2.174025E-17	7.684672E-19
2.440000E+03	2.315700E-17	8.182532E-19
2.480000E+03	2.467456E-17	8.715567E-19
2.520000E+03	2.629411E-17	9.284143E-19
2.560000E+03	2.802871E-17	9.892811E-19
2.600000E+03	2.987931E-17	1.054184E-18
2.640000E+03	3.185032E-17	1.123272E-18
2.680000E+03	3.395068E-17	1.196854E-18
2.720000E+03	3.617356E-17	1.274681E-18
2.760000E+03	3.853163E-17	1.357191E-18
2.800000E+03	4.102074E-17	1.444230E-18
2.840000E+03	4.364682E-17	1.535997E-18
2.880000E+03	4.640869E-17	1.632442E-18
2.920000E+03	4.929628E-17	1.733202E-18
2.960000E+03	5.230317E-17	1.838041E-18
3.000000E+03	5.542805E-17	1.946905E-18
3.010000E+03	5.623260E-17	1.974920E-18
3.020000E+03	5.703443E-17	2.002832E-18
3.030000E+03	5.784897E-17	2.031181E-18
3.040000E+03	5.866004E-17	2.059401E-18
3.050000E+03	5.948344E-17	2.088045E-18
3.060000E+03	6.031088E-17	2.116822E-18
3.070000E+03	6.114203E-17	2.145720E-18
3.080000E+03	6.198500E-17	2.175025E-18
3.090000E+03	6.282265E-17	2.204133E-18
3.100000E+03	6.367159E-17	2.233629E-18
3.110000E+03	6.452299E-17	2.263203E-18
3.120000E+03	6.537646E-17	2.292839E-18
3.130000E+03	6.624051E-17	2.322837E-18
3.140000E+03	6.709698E-17	2.352560E-18
3.150000E+03	6.796334E-17	2.382620E-18
3.160000E+03	6.882103E-17	2.412368E-18
3.170000E+03	6.968787E-17	2.442425E-18
3.180000E+03	7.056362E-17	2.472786E-18
3.190000E+03	7.142916E-17	2.502779E-18
3.200000E+03	7.229324E-17	2.532711E-18
3.210000E+03	7.316493E-17	2.562900E-18
3.220000E+03	7.403426E-17	2.592995E-18
3.230000E+03	7.490064E-17	2.622978E-18
3.240000E+03	7.576348E-17	2.652827E-18
3.250000E+03	7.663214E-17	2.682869E-18
3.260000E+03	7.748621E-17	2.712391E-18
3.270000E+03	7.834502E-17	2.742068E-18
3.280000E+03	7.919797E-17	2.771530E-18
3.290000E+03	8.004442E-17	2.800755E-18
3.300000E+03	8.088369E-17	2.829718E-18
3.310000E+03	8.172550E-17	2.858759E-18
3.320000E+03	8.254840E-17	2.887130E-18
3.330000E+03	8.337258E-17	2.915534E-18
3.340000E+03	8.418692E-17	2.943585E-18
3.350000E+03	8.499065E-17	2.971254E-18
3.360000E+03	8.579381E-17	2.998893E-18
3.370000E+03	8.657417E-17	3.025726E-18
3.380000E+03	8.735255E-17	3.052479E-18
3.390000E+03	8.811741E-17	3.078750E-18
3.400000E+03	8.886798E-17	3.104512E-18
3.410000E+03	8.960345E-17	3.129736E-18
3.420000E+03	9.032303E-17	3.154396E-18
3.430000E+03	9.103708E-17	3.178854E-18
3.440000E+03	9.172254E-17	3.202303E-18
3.450000E+03	9.240094E-17	3.225497E-18
3.460000E+03	9.306033E-17	3.248018E-18
3.470000E+03	9.369989E-17	3.269838E-18
3.480000E+03	9.433020E-17	3.291326E-18
3.490000E+03	9.492771E-17	3.311662E-18
3.500000E+03	9.551444E-17	3.331612E-18
3.510000E+03	9.607819E-17	3.350753E-18
3.520000E+03	9.661816E-17	3.369056E-18
3.530000E+03	9.713358E-17	3.386496E-18
3.540000E+03	9.762370E-17	3.403045E-18
3.550000E+03	9.809927E-17	3.419081E-18
3.560000E+03	9.853648E-17	3.433771E-18
3.570000E+03	9.895773E-17	3.447899E-18
3.580000E+03	9.935073E-17	3.461036E-18
3.590000E+03	9.971479E-17	3.473158E-18
3.600000E+03	1.000492E-16	3.484243E-18
3.610000E+03	1.003650E-16	3.494672E-18
3.620000E+03	1.006383E-16	3.503617E-18
3.630000E+03	1.008917E-16	3.511863E-18
3.640000E+03	1.011131E-16	3.518989E-18
3.650000E+03	1.013018E-16	3.524975E-18
3.660000E+03	1.014575E-16	3.529806E-18
3.670000E+03	1.015795E-16	3.533464E-18
3.680000E+03	1.016790E-16	3.536336E-18
3.690000E+03	1.017327E-16	3.537608E-18
3.700000E+03	1.017630E-16	3.538067E-18
3.710000E+03	1.017469E-16	3.536908E-18
3.720000E+03	1.017067E-16	3.534915E-18
3.730000E+03	1.016311E-16	3.531683E-18
3.740000E+03	1.015309E-16	3.527599E-18
3.750000E+03	1.013835E-16	3.521877E-18
3.760000E+03	1.012004E-16	3.514909E-18
3.770000E+03	1.009923E-16	3.507078E-18
3.780000E+03	1.007373E-16	3.497618E-18
3.790000E+03	1.004576E-16	3.487298E-18
3.800000E+03	1.001422E-16	3.475743E-18
3.810000E+03	9.979133E-17	3.462960E-18
3.820000E+03	9.940538E-17	3.448961E-18
3.830000E+03	9.898468E-17	3.433759E-18
3.840000E+03	9.852965E-17	3.417370E-18
3.850000E+03	9.804081E-17	3.399812E-18
3.860000E+03	9.752904E-17	3.381464E-18
3.870000E+03	9.697422E-17	3.361627E-18
3.880000E+03	9.639761E-17	3.341041E-18
3.890000E+03	9.577959E-17	3.319024E-18
3.900000E+03	9.514117E-17	3.296307E-18
3.910000E+03	9.447309E-17	3.272569E-18
3.920000E+03	9.377630E-17	3.247843E-18
3.930000E+03	9.305179E-17	3.222164E-18
3.940000E+03	9.230065E-17	3.195571E-18
3.950000E+03	9.152401E-17	3.168102E-18
3.960000E+03	9.072304E-17	3.139800E-18
3.970000E+03	8.989898E-17	3.110708E-18
3.980000E+03	8.905309E-17	3.080869E-18
3.990000E+03	8.819566E-17	3.050641E-18
4.000000E+03	8.731004E-17	3.019447E-18
4.010000E+03	8.640670E-17	2.987650E-18
4.020000E+03	8.549565E-17	2.955597E-18
4.030000E+03	8.456108E-17	2.922741E-18
4.040000E+03	8.361316E-17	2.889435E-18
4.050000E+03	8.266161E-17	2.856014E-18
4.060000E+03	8.169141E-17	2.821960E-18
4.070000E+03	8.072034E-17	2.787888E-18
4.080000E+03	7.973391E-17	2.753296E-18
4.090000E+03	7.874942E-17	2.718784E-18
4.100000E+03	7.775281E-17	2.683864E-18
4.110000E+03	7.676089E-17	2.649119E-18
4.120000E+03	7.576006E-17	2.614078E-18
4.130000E+03	7.476660E-17	2.579303E-18
4.140000E+03	7.376733E-17	2.544340E-18
4.150000E+03	7.277798E-17	2.509731E-18
4.160000E+03	7.178578E-17	2.475037E-18
4.170000E+03	7.080591E-17	2.440779E-18
4.180000E+03	6.982599E-17	2.406532E-18
4.190000E+03	6.885409E-17	2.372574E-18
4.200000E+03	6.789779E-17	2.339165E-18
4.210000E+03	6.694524E-17	2.305897E-18
4.220000E+03	6.600402E-17	2.273032E-18
4.230000E+03	6.507512E-17	2.240602E-18
4.240000E+03	6.416546E-17	2.208847E-18
4.250000E+03	6.326383E-17	2.177380E-18
4.260000E+03	6.237713E-17	2.146438E-18
4.270000E+03	6.150611E-17	2.116047E-18
4.280000E+03	6.065148E-17	2.086230E-18
4.290000E+03	5.980836E-17	2.056821E-18
4.300000E+03	5.898844E-17	2.028220E-18
4.310000E+03	5.818664E-17	2.000253E-18
4.320000E+03	5.739818E-17	1.972754E-18
4.330000E+03	5.663404E-17	1.946102E-18
4.340000E+03	5.588417E-17	1.919950E-18
4.350000E+03	5.515412E-17	1.894488E-18
4.360000E+03	5.444905E-17	1.869894E-18
4.370000E+03	5.375926E-17	1.845834E-18
4.380000E+03	5.308990E-17	1.822484E-18
4.390000E+03	5.243639E-17	1.799687E-18
4.400000E+03	5.180827E-17	1.777770E-18
4.410000E+03	5.120078E-17	1.756569E-18
4.420000E+03	5.060946E-17	1.735931E-18
4.430000E+03	5.003886E-17	1.716011E-18
4.440000E+03	4.949328E-17	1.696957E-18
4.450000E+03	4.896383E-17	1.678463E-18
4.460000E+03	4.845477E-17	1.660675E-18
4.470000E+03	4.796177E-17	1.643444E-18
4.480000E+03	4.749305E-17	1.627051E-18
4.490000E+03	4.704006E-17	1.611204E-18
4.500000E+03	4.661080E-17	1.596175E-18
4.510000E+03	4.619686E-17	1.581677E-18
4.520000E+03	4.580203E-17	1.567838E-18
4.530000E+03	4.542602E-17	1.554649E-18
4.540000E+03	4.506462E-17	1.541965E-18
4.550000E+03	4.472527E-17	1.530041E-18
4.560000E+03	4.439988E-17	1.518598E-18
4.570000E+03	4.409196E-17	1.507758E-18
4.580000E+03	4.380110E-17	1.497505E-18
4.590000E+03	4.352687E-17	1.487824E-18
4.600000E+03	4.326519E-17	1.478576E-18
4.610000E+03	4.302295E-17	1.469996E-18
4.620000E+03	4.279239E-17	1.461818E-18
4.630000E+03	4.257669E-17	1.454151E-18
4.640000E+03	4.237534E-17	1.446978E-18
4.650000E+03	4.218431E-17	1.440159E-18
4.660000E+03	4.201013E-17	1.433919E-18
4.670000E+03	4.184523E-17	1.427997E-18
4.680000E+03	4.169257E-17	1.422496E-18
4.690000E+03	4.154812E-17	1.417277E-18
4.700000E+03	4.141819E-17	1.412556E-18
4.710000E+03	4.129531E-17	1.408076E-18
4.720000E+03	4.118229E-17	1.403935E-18
4.730000E+03	4.107848E-17	1.400110E-18
4.740000E+03	4.098325E-17	1.396578E-18
4.750000E+03	4.089256E-17	1.393203E-18
4.760000E+03	4.080913E-17	1.390077E-18
4.770000E+03	4.073226E-17	1.387176E-18
4.780000E+03	4.066128E-17	1.384476E-18
4.790000E+03	4.059218E-17	1.381842E-18
4.800000E+03	4.052763E-17	1.379364E-18
4.810000E+03	4.046694E-17	1.377019E-18
4.820000E+03	4.040948E-17	1.374784E-18
4.830000E+03	4.035142E-17	1.372530E-18
4.840000E+03	4.029872E-17	1.370460E-18
4.850000E+03	4.024124E-17	1.368228E-18
4.860000E+03	4.018834E-17	1.366153E-18
4.870000E+03	4.013668E-17	1.364121E-18
4.880000E+03	4.008308E-17	1.362024E-18
4.890000E+03	4.003090E-17	1.359976E-18
4.900000E+03	3.998033E-17	1.357985E-18
4.910000E+03	3.992846E-17	1.355950E-18
4.920000E+03	3.987876E-17	1.353989E-18
4.930000E+03	3.983152E-17	1.352113E-18
4.940000E+03	3.978702E-17	1.350331E-18
4.950000E+03	3.974240E-17	1.348546E-18
4.960000E+03	3.970106E-17	1.346873E-18
4.970000E+03	3.966323E-17	1.345319E-18
4.980000E+03	3.962912E-17	1.343893E-18
4.990000E+03	3.959579E-17	1.342494E-18
5.000000E+03	3.956958E-17	1.341337E-18
5.010000E+03	3.954133E-17	1.340112E-18
5.020000E+03	3.952039E-17	1.339134E-18
5.030000E+03	3.950061E-17	1.338197E-18
5.040000E+03	3.948509E-17	1.337405E-18
5.050000E+03	3.947381E-17	1.336757E-18
5.060000E+03	3.946669E-17	1.336250E-18
5.070000E+03	3.946060E-17	1.335778E-18
5.080000E+03	3.945845E-17	1.335440E-18
5.090000E+03	3.946012E-17	1.335231E-18
5.100000E+03	3.946236E-17	1.335043E-18
5.110000E+03	3.947106E-17	1.335073E-18
5.120000E+03	3.947991E-17	1.335107E-18
5.130000E+03	3.948865E-17	1.335139E-18
5.140000E+03	3.950308E-17	1.335363E-18
5.150000E+03	3.951682E-17	1.335564E-18
5.160000E+03	3.953257E-17	1.335834E-18
5.170000E+03	3.955002E-17	1.336160E-18
5.180000E+03	3.956576E-17	1.336429E-18
5.190000E+03	3.958243E-17	1.336730E-18
5.200000E+03	3.959965E-17	1.337049E-18
5.210000E+03	3.961698E-17	1.337372E-18
5.220000E+03	3.963101E-17	1.337584E-18
5.230000E+03	3.964429E-17	1.337771E-18
5.240000E+03	3.965638E-17	1.337918E-18
5.250000E+03	3.966683E-17	1.338010E-18
5.260000E+03	3.967213E-17	1.337928E-18
5.270000E+03	3.967486E-17	1.337760E-18
5.280000E+03	3.967451E-17	1.337489E-18
5.290000E+03	3.967062E-17	1.337099E-18
5.300000E+03	3.965972E-17	1.336472E-18
5.310000E+03	3.964433E-17	1.335696E-18
5.320000E+03	3.962400E-17	1.334754E-18
5.330000E+03	3.959827E-17	1.333630E-18
5.340000E+03	3.956372E-17	1.332210E-18
5.350000E+03	3.952292E-17	1.330581E-18
5.360000E+03	3.947548E-17	1.328730E-18
5.370000E+03	3.942099E-17	1.326642E-18
5.380000E+03	3.935613E-17	1.324207E-18
5.390000E+03	3.928357E-17	1.321514E-18
5.400000E+03	3.920297E-17	1.318552E-18
5.410000E+03	3.911407E-17	1.315312E-18
5.420000E+03	3.901371E-17	1.311689E-18
5.430000E+03	3.890460E-17	1.307774E-18
5.440000E+03	3.878659E-17	1.303561E-18
5.450000E+03	3.865955E-17	1.299048E-18
5.460000E+03	3.852339E-17	1.294230E-18
5.470000E+03	3.837520E-17	1.289010E-18
5.480000E+03	3.821784E-17	1.283485E-18
5.490000E+03	3.805138E-17	1.277657E-18
5.500000E+03	3.787305E-17	1.271433E-18
5.510000E+03	3.768867E-17	1.265010E-18
5.520000E+03	3.749277E-17	1.258202E-18
5.530000E+03	3.728840E-17	1.251114E-18
5.540000E+03	3.707585E-17	1.243754E-18
5.550000E+03	3.685268E-17	1.236042E-18
5.560000E+03	3.662478E-17	1.228174E-18
5.570000E+03	3.638712E-17	1.219983E-18
5.580000E+03	3.614291E-17	1.211576E-18
5.590000E+03	3.589002E-17	1.202882E-18
5.600000E+03	3.563438E-17	1.194099E-18
5.610000E+03	3.537131E-17	1.185071E-18
5.620000E+03	3.510415E-17	1.175911E-18
5.630000E+03	3.483363E-17	1.166642E-18
5.640000E+03	3.456053E-17	1.157290E-18
5.650000E+03	3.428311E-17	1.147798E-18
5.660000E+03	3.400480E-17	1.138281E-18
5.670000E+03	3.372649E-17	1.128768E-18
5.680000E+03	3.344909E-17	1.119289E-18
5.690000E+03	3.317353E-17	1.109876E-18
5.700000E+03	3.290076E-17	1.100560E-18
5.710000E+03	3.262932E-17	1.091293E-18
5.720000E+03	3.236266E-17	1.082190E-18
5.730000E+03	3.210170E-17	1.073282E-18
5.740000E+03	3.184745E-17	1.064601E-18
5.750000E+03	3.159848E-17	1.056102E-18
5.760000E+03	3.136043E-17	1.047971E-18
5.770000E+03	3.112955E-17	1.040083E-18
5.780000E+03	3.090907E-17	1.032546E-18
5.790000E+03	3.069983E-17	1.025388E-18
5.800000E+03	3.050266E-17	1.018636E-18
5.810000E+03	3.031834E-17	1.012317E-18
5.820000E+03	3.014541E-17	1.006381E-18
5.830000E+03	2.998685E-17	1.000928E-18
5.840000E+03	2.984335E-17	9.959803E-19
5.850000E+03	2.971554E-17	9.915588E-19
5.860000E+03	2.960406E-17	9.876847E-19
5.870000E+03	2.950951E-17	9.843774E-19
5.880000E+03	2.943028E-17	9.815833E-19
5.890000E+03	2.937125E-17	9.794651E-19
5.900000E+03	2.932859E-17	9.778946E-19
5.910000E+03	2.930497E-17	9.769606E-19
5.920000E+03	2.930088E-17	9.766789E-19
5.930000E+03	2.931678E-17	9.770648E-19
5.940000E+03	2.935092E-17	9.780600E-19
5.950000E+03	2.940811E-17	9.798239E-19
5.960000E+03	2.948440E-17	9.822251E-19
5.970000E+03	2.958241E-17	9.853503E-19
5.980000E+03	2.970252E-17	9.892126E-19
5.990000E+03	2.984518E-17	9.938255E-19
6.000000E+03	3.001077E-17	9.992024E-19
6.010000E+03	3.019969E-17	1.005356E-18
6.020000E+03	3.041235E-17	1.012300E-18
6.030000E+03	3.064688E-17	1.019971E-18
6.040000E+03	3.090588E-17	1.028457E-18
6.050000E+03	3.119203E-17	1.037845E-18
6.060000E+03	3.150108E-17	1.047994E-18
6.070000E+03	3.183569E-17	1.058993E-18
6.080000E+03	3.219372E-17	1.070770E-18
6.090000E+03	3.258023E-17	1.083493E-18
6.100000E+03	3.299307E-17	1.097091E-18
6.110000E+03	3.342995E-17	1.111486E-18
6.120000E+03	3.389589E-17	1.126846E-18
6.130000E+03	3.438592E-17	1.143006E-18
6.140000E+03	3.490245E-17	1.160045E-18
6.150000E+03	3.544792E-17	1.178044E-18
6.160000E+03	3.601679E-17	1.196819E-18
6.170000E+03	3.661114E-17	1.216439E-18
6.180000E+03	3.722749E-17	1.236788E-18
6.190000E+03	3.787039E-17	1.258018E-18
6.200000E+03	3.853586E-17	1.279996E-18
6.210000E+03	3.921940E-17	1.302572E-18
6.220000E+03	3.992482E-17	1.325873E-18
6.230000E+03	4.064385E-17	1.349625E-18
6.240000E+03	4.137979E-17	1.373937E-18
6.250000E+03	4.212342E-17	1.398503E-18
6.260000E+03	4.287435E-17	1.423310E-18
6.270000E+03	4.362883E-17	1.448234E-18
6.280000E+03	4.438276E-17	1.473139E-18
6.290000E+03	4.513181E-17	1.497881E-18
6.300000E+03	4.587140E-17	1.522308E-18
6.310000E+03	4.659321E-17	1.546145E-18
6.320000E+03	4.729916E-17	1.569456E-18
6.330000E+03	4.798073E-17	1.591958E-18
6.340000E+03	4.862912E-17	1.613359E-18
6.350000E+03	4.924636E-17	1.633728E-18
6.360000E+03	4.982005E-17	1.652653E-18
6.370000E+03	5.034888E-17	1.670092E-18
6.380000E+03	5.083192E-17	1.686013E-18
6.390000E+03	5.125717E-17	1.700020E-18
6.400000E+03	5.162434E-17	1.712102E-18
6.410000E+03	5.192980E-17	1.722140E-18
6.420000E+03	5.217043E-17	1.730032E-18
6.430000E+03	5.234368E-17	1.735692E-18
6.440000E+03	5.244762E-17	1.739057E-18
6.450000E+03	5.248091E-17	1.740083E-18
6.460000E+03	5.243898E-17	1.738619E-18
6.470000E+03	5.232974E-17	1.734928E-18
6.480000E+03	5.214994E-17	1.728901E-18
6.490000E+03	5.189699E-17	1.720454E-18
6.500000E+03	5.158070E-17	1.709912E-18
6.510000E+03	5.119964E-17	1.697226E-18
6.520000E+03	5.075302E-17	1.682373E-18
6.530000E+03	5.024824E-17	1.665596E-18
6.540000E+03	4.969292E-17	1.647148E-18
6.550000E+03	4.908375E-17	1.626920E-18
6.560000E+03	4.842897E-17	1.605185E-18
6.570000E+03	4.773684E-17	1.582216E-18
6.580000E+03	4.700482E-17	1.557929E-18
6.590000E+03	4.624138E-17	1.532605E-18
6.600000E+03	4.545127E-17	1.506402E-18
6.610000E+03	4.463920E-17	1.479474E-18
6.620000E+03	4.380974E-17	1.451974E-18
6.630000E+03	4.296730E-17	1.424048E-18
6.640000E+03	4.211610E-17	1.395834E-18
6.650000E+03	4.126012E-17	1.367465E-18
6.660000E+03	4.040308E-17	1.339064E-18
6.670000E+03	3.954846E-17	1.310746E-18
6.680000E+03	3.869944E-17	1.282616E-18
6.690000E+03	3.785605E-17	1.254676E-18
6.700000E+03	3.702675E-17	1.227204E-18
6.710000E+03	3.621094E-17	1.200182E-18
6.720000E+03	3.541073E-17	1.173678E-18
6.730000E+03	3.462527E-17	1.147665E-18
6.740000E+03	3.386149E-17	1.122373E-18
6.750000E+03	3.311552E-17	1.097671E-18
6.760000E+03	3.239357E-17	1.073768E-18
6.770000E+03	3.169158E-17	1.050527E-18
6.780000E+03	3.101517E-17	1.028134E-18
6.790000E+03	3.036010E-17	1.006450E-18
6.800000E+03	2.973151E-17	9.856448E-19
6.810000E+03	2.912503E-17	9.655732E-19
6.820000E+03	2.854314E-17	9.463172E-19
6.830000E+03	2.798804E-17	9.279500E-19
6.840000E+03	2.745532E-17	9.103249E-19
6.850000E+03	2.694703E-17	8.935102E-19
6.860000E+03	2.646294E-17	8.774988E-19
6.870000E+03	2.600282E-17	8.622819E-19
6.880000E+03	2.556829E-17	8.479145E-19
6.890000E+03	2.515510E-17	8.342547E-19
6.900000E+03	2.476490E-17	8.213575E-19
6.910000E+03	2.439729E-17	8.092097E-19
6.920000E+03	2.405188E-17	7.977987E-19
6.930000E+03	2.372821E-17	7.871093E-19
6.940000E+03	2.342585E-17	7.771267E-19
6.950000E+03	2.314433E-17	7.678358E-19
6.960000E+03	2.288139E-17	7.591617E-19
6.970000E+03	2.264010E-17	7.512064E-19
6.980000E+03	2.241817E-17	7.438936E-19
6.990000E+03	2.221509E-17	7.372066E-19
7.000000E+03	2.203034E-17	7.311286E-19
7.010000E+03	2.186171E-17	7.255861E-19
7.020000E+03	2.171208E-17	7.206745E-19
7.030000E+03	2.157751E-17	7.162638E-19
7.040000E+03	2.146083E-17	7.124474E-19
7.050000E+03	2.135982E-17	7.091519E-19
7.060000E+03	2.127225E-17	7.063033E-19
7.070000E+03	2.120086E-17	7.039932E-19
7.080000E+03	2.114179E-17	7.020927E-19
7.090000E+03	2.109607E-17	7.006366E-19
7.100000E+03	2.106474E-17	6.996597E-19
7.110000E+03	2.104389E-17	6.990317E-19
7.120000E+03	2.103450E-17	6.987856E-19
7.130000E+03	2.103591E-17	6.988997E-19
7.140000E+03	2.104907E-17	6.994055E-19
7.150000E+03	2.106998E-17	7.001700E-19
7.160000E+03	2.109955E-17	7.012237E-19
7.170000E+03	2.113698E-17	7.025404E-19
7.180000E+03	2.118151E-17	7.040943E-19
7.190000E+03	2.123230E-17	7.058582E-19
7.200000E+03	2.128683E-17	7.077480E-19
7.210000E+03	2.134757E-17	7.098457E-19
7.220000E+03	2.141194E-17	7.120659E-19
7.230000E+03	2.147902E-17	7.143782E-19
7.240000E+03	2.154615E-17	7.166938E-19
7.250000E+03	2.161577E-17	7.190942E-19
7.260000E+03	2.168347E-17	7.214326E-19
7.270000E+03	2.175169E-17	7.237901E-19
7.280000E+03	2.181599E-17	7.260188E-19
7.290000E+03	2.187881E-17	7.282002E-19
7.300000E+03	2.193569E-17	7.301857E-19
7.310000E+03	2.198738E-17	7.320001E-19
7.320000E+03	2.203465E-17	7.336692E-19
7.330000E+03	2.207309E-17	7.350460E-19
7.340000E+03	2.210353E-17	7.361583E-19
7.350000E+03	2.212513E-17	7.369774E-19
7.360000E+03	2.213710E-17	7.374772E-19
7.370000E+03	2.213694E-17	7.375743E-19
7.380000E+03	2.212752E-17	7.373643E-19
7.390000E+03	2.210651E-17	7.367693E-19
7.400000E+03	2.207345E-17	7.357738E-19
7.410000E+03	2.202618E-17	7.343054E-19
7.420000E+03	2.196796E-17	7.324731E-19
7.430000E+03	2.189512E-17	7.301538E-19
7.440000E+03	2.180935E-17	7.274040E-19
7.450000E+03	2.171249E-17	7.242844E-19
7.460000E+03	2.160120E-17	7.206842E-19
7.470000E+03	2.147755E-17	7.166713E-19
7.480000E+03	2.134193E-17	7.122593E-19
7.490000E+03	2.119484E-17	7.074643E-19
7.500000E+03	2.103690E-17	7.023064E-19
7.510000E+03	2.086878E-17	6.968088E-19
7.520000E+03	2.068961E-17	6.909411E-19
7.530000E+03	2.050354E-17	6.848425E-19
7.540000E+03	2.030979E-17	6.784867E-19
7.550000E+03	2.010768E-17	6.718504E-19
7.560000E+03	1.989981E-17	6.650205E-19
7.570000E+03	1.968876E-17	6.580832E-19
7.580000E+03	1.947230E-17	6.509640E-19
7.590000E+03	1.925302E-17	6.437488E-19
7.600000E+03	1.903186E-17	6.364695E-19
7.610000E+03	1.880973E-17	6.291558E-19
7.620000E+03	1.858750E-17	6.218373E-19
7.630000E+03	1.836597E-17	6.145406E-19
7.640000E+03	1.814439E-17	6.072404E-19
7.650000E+03	1.792643E-17	6.000592E-19
7.660000E+03	1.770970E-17	5.929178E-19
7.670000E+03	1.749621E-17	5.858831E-19
7.680000E+03	1.728781E-17	5.790168E-19
7.690000E+03	1.708203E-17	5.722363E-19
7.700000E+03	1.688064E-17	5.656011E-19
7.710000E+03	1.668388E-17	5.591194E-19
7.720000E+03	1.649200E-17	5.527993E-19
7.730000E+03	1.630383E-17	5.466015E-19
7.740000E+03	1.612219E-17	5.406214E-19
7.750000E+03	1.594585E-17	5.348168E-19
7.760000E+03	1.577355E-17	5.291461E-19
