#wls	flux	fluxerr
1.600000E+03	1.241440E-17	9.559219E-19
1.640000E+03	1.307829E-17	1.005980E-18
1.680000E+03	1.379174E-17	1.059709E-18
1.720000E+03	1.455873E-17	1.117398E-18
1.760000E+03	1.538089E-17	1.179150E-18
1.800000E+03	1.626237E-17	1.245265E-18
1.840000E+03	1.721064E-17	1.316289E-18
1.880000E+03	1.823099E-17	1.392603E-18
1.920000E+03	1.932574E-17	1.474353E-18
1.960000E+03	2.050041E-17	1.561929E-18
2.000000E+03	2.176456E-17	1.656027E-18
2.040000E+03	2.312504E-17	1.757128E-18
2.080000E+03	2.458492E-17	1.865424E-18
2.120000E+03	2.615561E-17	1.981735E-18
2.160000E+03	2.784524E-17	2.106625E-18
2.200000E+03	2.965729E-17	2.240302E-18
2.240000E+03	3.160511E-17	2.383714E-18
2.280000E+03	3.369225E-17	2.537064E-18
2.320000E+03	3.593329E-17	2.701377E-18
2.360000E+03	3.833802E-17	2.877309E-18
2.400000E+03	4.091642E-17	3.065523E-18
2.440000E+03	4.367129E-17	3.266137E-18
2.480000E+03	4.661905E-17	3.480279E-18
2.520000E+03	4.976950E-17	3.708569E-18
2.560000E+03	5.313209E-17	3.951596E-18
2.600000E+03	5.670641E-17	4.209205E-18
2.640000E+03	6.050866E-17	4.482465E-18
2.680000E+03	6.454570E-17	4.771743E-18
2.720000E+03	6.881180E-17	5.076466E-18
2.760000E+03	7.333217E-17	5.398338E-18
2.800000E+03	7.808512E-17	5.735595E-18
2.840000E+03	8.308033E-17	6.088782E-18
2.880000E+03	8.831309E-17	6.457379E-18
2.920000E+03	9.377494E-17	6.840590E-18
2.960000E+03	9.943737E-17	7.236161E-18
3.000000E+03	1.052966E-16	7.643644E-18
3.010000E+03	1.068036E-16	7.748188E-18
3.020000E+03	1.083034E-16	7.852051E-18
3.030000E+03	1.098121E-16	7.956389E-18
3.040000E+03	1.113291E-16	8.061167E-18
3.050000E+03	1.128714E-16	8.167616E-18
3.060000E+03	1.144036E-16	8.273155E-18
3.070000E+03	1.159604E-16	8.380312E-18
3.080000E+03	1.175054E-16	8.486438E-18
3.090000E+03	1.190742E-16	8.594111E-18
3.100000E+03	1.206294E-16	8.700626E-18
3.110000E+03	1.222075E-16	8.808612E-18
3.120000E+03	1.237892E-16	8.916684E-18
3.130000E+03	1.253739E-16	9.024785E-18
3.140000E+03	1.269410E-16	9.131441E-18
3.150000E+03	1.285289E-16	9.239409E-18
3.160000E+03	1.301170E-16	9.347213E-18
3.170000E+03	1.317048E-16	9.454798E-18
3.180000E+03	1.332912E-16	9.562100E-18
3.190000E+03	1.348752E-16	9.669049E-18
3.200000E+03	1.364560E-16	9.775572E-18
3.210000E+03	1.380326E-16	9.881600E-18
3.220000E+03	1.396037E-16	9.987054E-18
3.230000E+03	1.411899E-16	1.009339E-17
3.240000E+03	1.427474E-16	1.019748E-17
3.250000E+03	1.442962E-16	1.030076E-17
3.260000E+03	1.458574E-16	1.040473E-17
3.270000E+03	1.473857E-16	1.050616E-17
3.280000E+03	1.489018E-16	1.060653E-17
3.290000E+03	1.504271E-16	1.070736E-17
3.300000E+03	1.519154E-16	1.080536E-17
3.310000E+03	1.534105E-16	1.090366E-17
3.320000E+03	1.548889E-16	1.100058E-17
3.330000E+03	1.563254E-16	1.109433E-17
3.340000E+03	1.577655E-16	1.118815E-17
3.350000E+03	1.591845E-16	1.128027E-17
3.360000E+03	1.605572E-16	1.136893E-17
3.370000E+03	1.619295E-16	1.145738E-17
3.380000E+03	1.632764E-16	1.154384E-17
3.390000E+03	1.645963E-16	1.162822E-17
3.400000E+03	1.658879E-16	1.171041E-17
3.410000E+03	1.671495E-16	1.179030E-17
3.420000E+03	1.683795E-16	1.186779E-17
3.430000E+03	1.695766E-16	1.194278E-17
3.440000E+03	1.707390E-16	1.201516E-17
3.450000E+03	1.718652E-16	1.208483E-17
3.460000E+03	1.729536E-16	1.215167E-17
3.470000E+03	1.740028E-16	1.221560E-17
3.480000E+03	1.750367E-16	1.227829E-17
3.490000E+03	1.760025E-16	1.233605E-17
3.500000E+03	1.769243E-16	1.239058E-17
3.510000E+03	1.778263E-16	1.244357E-17
3.520000E+03	1.786553E-16	1.249132E-17
3.530000E+03	1.794355E-16	1.253552E-17
3.540000E+03	1.801916E-16	1.257790E-17
3.550000E+03	1.808697E-16	1.261471E-17
3.560000E+03	1.815208E-16	1.264953E-17
3.570000E+03	1.820908E-16	1.267857E-17
3.580000E+03	1.826310E-16	1.270543E-17
3.590000E+03	1.830872E-16	1.272634E-17
3.600000E+03	1.835107E-16	1.274489E-17
3.610000E+03	1.838473E-16	1.275731E-17
3.620000E+03	1.841487E-16	1.276721E-17
3.630000E+03	1.843870E-16	1.277267E-17
3.640000E+03	1.845347E-16	1.277177E-17
3.650000E+03	1.846434E-16	1.276812E-17
3.660000E+03	1.846854E-16	1.275981E-17
3.670000E+03	1.846337E-16	1.274498E-17
3.680000E+03	1.845395E-16	1.272718E-17
3.690000E+03	1.843757E-16	1.270456E-17
3.700000E+03	1.841415E-16	1.267706E-17
3.710000E+03	1.838359E-16	1.264465E-17
3.720000E+03	1.834324E-16	1.260550E-17
3.730000E+03	1.829822E-16	1.256315E-17
3.740000E+03	1.824588E-16	1.251580E-17
3.750000E+03	1.818616E-16	1.246341E-17
3.760000E+03	1.811903E-16	1.240598E-17
3.770000E+03	1.804445E-16	1.234350E-17
3.780000E+03	1.796242E-16	1.227598E-17
3.790000E+03	1.787291E-16	1.220342E-17
3.800000E+03	1.777591E-16	1.212583E-17
3.810000E+03	1.767146E-16	1.204324E-17
3.820000E+03	1.755955E-16	1.195567E-17
3.830000E+03	1.744023E-16	1.186317E-17
3.840000E+03	1.731354E-16	1.176576E-17
3.850000E+03	1.717954E-16	1.166353E-17
3.860000E+03	1.703827E-16	1.155650E-17
3.870000E+03	1.688982E-16	1.144476E-17
3.880000E+03	1.673430E-16	1.132838E-17
3.890000E+03	1.657178E-16	1.120745E-17
3.900000E+03	1.640239E-16	1.108204E-17
3.910000E+03	1.622625E-16	1.095228E-17
3.920000E+03	1.604348E-16	1.081824E-17
3.930000E+03	1.585426E-16	1.068007E-17
3.940000E+03	1.565875E-16	1.053788E-17
3.950000E+03	1.545711E-16	1.039180E-17
3.960000E+03	1.524954E-16	1.024198E-17
3.970000E+03	1.503625E-16	1.008857E-17
3.980000E+03	1.481746E-16	9.931739E-18
3.990000E+03	1.459343E-16	9.771661E-18
4.000000E+03	1.436443E-16	9.608532E-18
4.010000E+03	1.413077E-16	9.442576E-18
4.020000E+03	1.389279E-16	9.274026E-18
4.030000E+03	1.365087E-16	9.103151E-18
4.040000E+03	1.340544E-16	8.930243E-18
4.050000E+03	1.315698E-16	8.755630E-18
4.060000E+03	1.290598E-16	8.579650E-18
4.070000E+03	1.265298E-16	8.402666E-18
4.080000E+03	1.239852E-16	8.225045E-18
4.090000E+03	1.214317E-16	8.047162E-18
4.100000E+03	1.188748E-16	7.869388E-18
4.110000E+03	1.163197E-16	7.692078E-18
4.120000E+03	1.137718E-16	7.515573E-18
4.130000E+03	1.112360E-16	7.340211E-18
4.140000E+03	1.087170E-16	7.166292E-18
4.150000E+03	1.062190E-16	6.994101E-18
4.160000E+03	1.037325E-16	6.822994E-18
4.170000E+03	1.012887E-16	6.655036E-18
4.180000E+03	9.887700E-17	6.489515E-18
4.190000E+03	9.650039E-17	6.326623E-18
4.200000E+03	9.414911E-17	6.165715E-18
4.210000E+03	9.185059E-17	6.008581E-18
4.220000E+03	8.959418E-17	5.854515E-18
4.230000E+03	8.737016E-17	5.702876E-18
4.240000E+03	8.520321E-17	5.555266E-18
4.250000E+03	8.308279E-17	5.410987E-18
4.260000E+03	8.099934E-17	5.269410E-18
4.270000E+03	7.897500E-17	5.131965E-18
4.280000E+03	7.698950E-17	4.997325E-18
4.290000E+03	7.506351E-17	4.866823E-18
4.300000E+03	7.317751E-17	4.739182E-18
4.310000E+03	7.135079E-17	4.615643E-18
4.320000E+03	6.956461E-17	4.494982E-18
4.330000E+03	6.782825E-17	4.377791E-18
4.340000E+03	6.614997E-17	4.264591E-18
4.350000E+03	6.451214E-17	4.154236E-18
4.360000E+03	6.292308E-17	4.047253E-18
4.370000E+03	6.138224E-17	3.943595E-18
4.380000E+03	5.988907E-17	3.843219E-18
4.390000E+03	5.844292E-17	3.746071E-18
4.400000E+03	5.704308E-17	3.652097E-18
4.410000E+03	5.569595E-17	3.561697E-18
4.420000E+03	5.437938E-17	3.473444E-18
4.430000E+03	5.311392E-17	3.388643E-18
4.440000E+03	5.189158E-17	3.306775E-18
4.450000E+03	5.071149E-17	3.227774E-18
4.460000E+03	4.957273E-17	3.151572E-18
4.470000E+03	4.847438E-17	3.078104E-18
4.480000E+03	4.740948E-17	3.006919E-18
4.490000E+03	4.638920E-17	2.938717E-18
4.500000E+03	4.540639E-17	2.873036E-18
4.510000E+03	4.445449E-17	2.809454E-18
4.520000E+03	4.354383E-17	2.748615E-18
4.530000E+03	4.266232E-17	2.689748E-18
4.540000E+03	4.181986E-17	2.633472E-18
4.550000E+03	4.100484E-17	2.579047E-18
4.560000E+03	4.022172E-17	2.526747E-18
4.570000E+03	3.946957E-17	2.476507E-18
4.580000E+03	3.875237E-17	2.428569E-18
4.590000E+03	3.805946E-17	2.382260E-18
4.600000E+03	3.739497E-17	2.337830E-18
4.610000E+03	3.675807E-17	2.295223E-18
4.620000E+03	3.614797E-17	2.254383E-18
4.630000E+03	3.556389E-17	2.215256E-18
4.640000E+03	3.500071E-17	2.177517E-18
4.650000E+03	3.446645E-17	2.141660E-18
4.660000E+03	3.395596E-17	2.107359E-18
4.670000E+03	3.346853E-17	2.074563E-18
4.680000E+03	3.299937E-17	2.042972E-18
4.690000E+03	3.255608E-17	2.013050E-18
4.700000E+03	3.212987E-17	1.984250E-18
4.710000E+03	3.172815E-17	1.957024E-18
4.720000E+03	3.134243E-17	1.930844E-18
4.730000E+03	3.097609E-17	1.905914E-18
4.740000E+03	3.063233E-17	1.882427E-18
4.750000E+03	3.030302E-17	1.859877E-18
4.760000E+03	2.999140E-17	1.838460E-18
4.770000E+03	2.969691E-17	1.818138E-18
4.780000E+03	2.941897E-17	1.798872E-18
4.790000E+03	2.915703E-17	1.780624E-18
4.800000E+03	2.890697E-17	1.763139E-18
4.810000E+03	2.867530E-17	1.746811E-18
4.820000E+03	2.845785E-17	1.731383E-18
4.830000E+03	2.825403E-17	1.716815E-18
4.840000E+03	2.805977E-17	1.702856E-18
4.850000E+03	2.788132E-17	1.689884E-18
4.860000E+03	2.771121E-17	1.677442E-18
4.870000E+03	2.755223E-17	1.665698E-18
4.880000E+03	2.740709E-17	1.654812E-18
4.890000E+03	2.726855E-17	1.644345E-18
4.900000E+03	2.713937E-17	1.634461E-18
4.910000E+03	2.701904E-17	1.625128E-18
4.920000E+03	2.690705E-17	1.616313E-18
4.930000E+03	2.680291E-17	1.607985E-18
4.940000E+03	2.670617E-17	1.600114E-18
4.950000E+03	2.661640E-17	1.592673E-18
4.960000E+03	2.653000E-17	1.585446E-18
4.970000E+03	2.645298E-17	1.578791E-18
4.980000E+03	2.638174E-17	1.572490E-18
4.990000E+03	2.631275E-17	1.566333E-18
5.000000E+03	2.625201E-17	1.560676E-18
5.010000E+03	2.619287E-17	1.555121E-18
5.020000E+03	2.613815E-17	1.549835E-18
5.030000E+03	2.608752E-17	1.544799E-18
5.040000E+03	2.604380E-17	1.540178E-18
5.050000E+03	2.600040E-17	1.535581E-18
5.060000E+03	2.596018E-17	1.531177E-18
5.070000E+03	2.592283E-17	1.526946E-18
5.080000E+03	2.588497E-17	1.522690E-18
5.090000E+03	2.585253E-17	1.518757E-18
5.100000E+03	2.582216E-17	1.514949E-18
5.110000E+03	2.579052E-17	1.511070E-18
5.120000E+03	2.576359E-17	1.507470E-18
5.130000E+03	2.573498E-17	1.503775E-18
5.140000E+03	2.571064E-17	1.500332E-18
5.150000E+03	2.568428E-17	1.496775E-18
5.160000E+03	2.565880E-17	1.493271E-18
5.170000E+03	2.563706E-17	1.489988E-18
5.180000E+03	2.561283E-17	1.486563E-18
5.190000E+03	2.558901E-17	1.483164E-18
5.200000E+03	2.556542E-17	1.479783E-18
5.210000E+03	2.554194E-17	1.476409E-18
5.220000E+03	2.551839E-17	1.473035E-18
5.230000E+03	2.549158E-17	1.469477E-18
5.240000E+03	2.546739E-17	1.466072E-18
5.250000E+03	2.544261E-17	1.462638E-18
5.260000E+03	2.541403E-17	1.458988E-18
5.270000E+03	2.538747E-17	1.455459E-18
5.280000E+03	2.535671E-17	1.451693E-18
5.290000E+03	2.532454E-17	1.447852E-18
5.300000E+03	2.529375E-17	1.444094E-18
5.310000E+03	2.525819E-17	1.440069E-18
5.320000E+03	2.522066E-17	1.435939E-18
5.330000E+03	2.518103E-17	1.431695E-18
5.340000E+03	2.513917E-17	1.427331E-18
5.350000E+03	2.509497E-17	1.422842E-18
5.360000E+03	2.504835E-17	1.418223E-18
5.370000E+03	2.499634E-17	1.413308E-18
5.380000E+03	2.494478E-17	1.408428E-18
5.390000E+03	2.489072E-17	1.403416E-18
5.400000E+03	2.483129E-17	1.398111E-18
5.410000E+03	2.477237E-17	1.392846E-18
5.420000E+03	2.470824E-17	1.387299E-18
5.430000E+03	2.464192E-17	1.381642E-18
5.440000E+03	2.457641E-17	1.376042E-18
5.450000E+03	2.450610E-17	1.370186E-18
5.460000E+03	2.443403E-17	1.364244E-18
5.470000E+03	2.436037E-17	1.358228E-18
5.480000E+03	2.428527E-17	1.352146E-18
5.490000E+03	2.420893E-17	1.346009E-18
5.500000E+03	2.413151E-17	1.339827E-18
5.510000E+03	2.405320E-17	1.333611E-18
5.520000E+03	2.397137E-17	1.327216E-18
5.530000E+03	2.389181E-17	1.320962E-18
5.540000E+03	2.381190E-17	1.314705E-18
5.550000E+03	2.372904E-17	1.308301E-18
5.560000E+03	2.364892E-17	1.302065E-18
5.570000E+03	2.356618E-17	1.295701E-18
5.580000E+03	2.348373E-17	1.289371E-18
5.590000E+03	2.340443E-17	1.283230E-18
5.600000E+03	2.332295E-17	1.276987E-18
5.610000E+03	2.324216E-17	1.270799E-18
5.620000E+03	2.316220E-17	1.264674E-18
5.630000E+03	2.308326E-17	1.258622E-18
5.640000E+03	2.300550E-17	1.252653E-18
5.650000E+03	2.292916E-17	1.246778E-18
5.660000E+03	2.285449E-17	1.241011E-18
5.670000E+03	2.278178E-17	1.235368E-18
5.680000E+03	2.270874E-17	1.229724E-18
5.690000E+03	2.264101E-17	1.224385E-18
5.700000E+03	2.257633E-17	1.219228E-18
5.710000E+03	2.251249E-17	1.214134E-18
5.720000E+03	2.245517E-17	1.209407E-18
5.730000E+03	2.239956E-17	1.204789E-18
5.740000E+03	2.235130E-17	1.200582E-18
5.750000E+03	2.230563E-17	1.196529E-18
5.760000E+03	2.226558E-17	1.192791E-18
5.770000E+03	2.223157E-17	1.189392E-18
5.780000E+03	2.220659E-17	1.186490E-18
5.790000E+03	2.218590E-17	1.183829E-18
5.800000E+03	2.217246E-17	1.181568E-18
5.810000E+03	2.216667E-17	1.179725E-18
5.820000E+03	2.216892E-17	1.178321E-18
5.830000E+03	2.217702E-17	1.177239E-18
5.840000E+03	2.219647E-17	1.176768E-18
5.850000E+03	2.222509E-17	1.176790E-18
5.860000E+03	2.226322E-17	1.177325E-18
5.870000E+03	2.230865E-17	1.178252E-18
5.880000E+03	2.236693E-17	1.179863E-18
5.890000E+03	2.243583E-17	1.182039E-18
5.900000E+03	2.251312E-17	1.184660E-18
5.910000E+03	2.260438E-17	1.188020E-18
5.920000E+03	2.270476E-17	1.191861E-18
5.930000E+03	2.281726E-17	1.196340E-18
5.940000E+03	2.294492E-17	1.201613E-18
5.950000E+03	2.308283E-17	1.207423E-18
5.960000E+03	2.323405E-17	1.213927E-18
5.970000E+03	2.339897E-17	1.221144E-18
5.980000E+03	2.358073E-17	1.229236E-18
5.990000E+03	2.377430E-17	1.237940E-18
6.000000E+03	2.398282E-17	1.247418E-18
6.010000E+03	2.420670E-17	1.257687E-18
6.020000E+03	2.444636E-17	1.268771E-18
6.030000E+03	2.470224E-17	1.280688E-18
6.040000E+03	2.497186E-17	1.293310E-18
6.050000E+03	2.526140E-17	1.306955E-18
6.060000E+03	2.556844E-17	1.321495E-18
6.070000E+03	2.589338E-17	1.336951E-18
6.080000E+03	2.623356E-17	1.353183E-18
6.090000E+03	2.659541E-17	1.370522E-18
6.100000E+03	2.697623E-17	1.388828E-18
6.110000E+03	2.737317E-17	1.407951E-18
6.120000E+03	2.779272E-17	1.428227E-18
6.130000E+03	2.822866E-17	1.449333E-18
6.140000E+03	2.868754E-17	1.471605E-18
6.150000E+03	2.916271E-17	1.494703E-18
6.160000E+03	2.965729E-17	1.518784E-18
6.170000E+03	3.017446E-17	1.544012E-18
6.180000E+03	3.070683E-17	1.570008E-18
6.190000E+03	3.125723E-17	1.596918E-18
6.200000E+03	3.182856E-17	1.624889E-18
6.210000E+03	3.241248E-17	1.653498E-18
6.220000E+03	3.301146E-17	1.682870E-18
6.230000E+03	3.362409E-17	1.712936E-18
6.240000E+03	3.424872E-17	1.743613E-18
6.250000E+03	3.488351E-17	1.774810E-18
6.260000E+03	3.552631E-17	1.806418E-18
6.270000E+03	3.617474E-17	1.838320E-18
6.280000E+03	3.682607E-17	1.870379E-18
6.290000E+03	3.747729E-17	1.902444E-18
6.300000E+03	3.812496E-17	1.934344E-18
6.310000E+03	3.876075E-17	1.965659E-18
6.320000E+03	3.938936E-17	1.996630E-18
6.330000E+03	4.000168E-17	2.026800E-18
6.340000E+03	4.059270E-17	2.055917E-18
6.350000E+03	4.115227E-17	2.083473E-18
6.360000E+03	4.168438E-17	2.109673E-18
6.370000E+03	4.217866E-17	2.133995E-18
6.380000E+03	4.262454E-17	2.155909E-18
6.390000E+03	4.302643E-17	2.175643E-18
6.400000E+03	4.336932E-17	2.192441E-18
6.410000E+03	4.365867E-17	2.206583E-18
6.420000E+03	4.388046E-17	2.217363E-18
6.430000E+03	4.404178E-17	2.225142E-18
6.440000E+03	4.413018E-17	2.229294E-18
6.450000E+03	4.414953E-17	2.230016E-18
6.460000E+03	4.410466E-17	2.227555E-18
6.470000E+03	4.398596E-17	2.221424E-18
6.480000E+03	4.380013E-17	2.211963E-18
6.490000E+03	4.355464E-17	2.199549E-18
6.500000E+03	4.324244E-17	2.183825E-18
6.510000E+03	4.287239E-17	2.165237E-18
6.520000E+03	4.244876E-17	2.143999E-18
6.530000E+03	4.197614E-17	2.120340E-18
6.540000E+03	4.146418E-17	2.094746E-18
6.550000E+03	4.090806E-17	2.066971E-18
6.560000E+03	4.031764E-17	2.037509E-18
6.570000E+03	3.969779E-17	2.006603E-18
6.580000E+03	3.905326E-17	1.974490E-18
6.590000E+03	3.838860E-17	1.941397E-18
6.600000E+03	3.770817E-17	1.907541E-18
6.610000E+03	3.701601E-17	1.873122E-18
6.620000E+03	3.631587E-17	1.838329E-18
6.630000E+03	3.560708E-17	1.803122E-18
6.640000E+03	3.490122E-17	1.768086E-18
6.650000E+03	3.419693E-17	1.733148E-18
6.660000E+03	3.349681E-17	1.698439E-18
6.670000E+03	3.280321E-17	1.664074E-18
6.680000E+03	3.211444E-17	1.629966E-18
6.690000E+03	3.143994E-17	1.596591E-18
6.700000E+03	3.077749E-17	1.563835E-18
6.710000E+03	3.012846E-17	1.531765E-18
6.720000E+03	2.949058E-17	1.500264E-18
6.730000E+03	2.887181E-17	1.469735E-18
6.740000E+03	2.826615E-17	1.439870E-18
6.750000E+03	2.768094E-17	1.411044E-18
6.760000E+03	2.711336E-17	1.383110E-18
6.770000E+03	2.656070E-17	1.355930E-18
6.780000E+03	2.602958E-17	1.329842E-18
6.790000E+03	2.551406E-17	1.304542E-18
6.800000E+03	2.502036E-17	1.280346E-18
6.810000E+03	2.454264E-17	1.256958E-18
6.820000E+03	2.408676E-17	1.234677E-18
6.830000E+03	2.364699E-17	1.213210E-18
6.840000E+03	2.322613E-17	1.192701E-18
6.850000E+03	2.282675E-17	1.173282E-18
6.860000E+03	2.244324E-17	1.154667E-18
6.870000E+03	2.207806E-17	1.136984E-18
6.880000E+03	2.173348E-17	1.120349E-18
6.890000E+03	2.140396E-17	1.104479E-18
6.900000E+03	2.109166E-17	1.089486E-18
6.910000E+03	2.079614E-17	1.075350E-18
6.920000E+03	2.051695E-17	1.062047E-18
6.930000E+03	2.025598E-17	1.049678E-18
6.940000E+03	2.000798E-17	1.037973E-18
6.950000E+03	1.977489E-17	1.027032E-18
6.960000E+03	1.955629E-17	1.016837E-18
6.970000E+03	1.935173E-17	1.007364E-18
6.980000E+03	1.916079E-17	9.985942E-19
6.990000E+03	1.898307E-17	9.905079E-19
7.000000E+03	1.881814E-17	9.830852E-19
7.010000E+03	1.866565E-17	9.763077E-19
7.020000E+03	1.852517E-17	9.701566E-19
7.030000E+03	1.839636E-17	9.646139E-19
7.040000E+03	1.827881E-17	9.596609E-19
7.050000E+03	1.817216E-17	9.552798E-19
7.060000E+03	1.807602E-17	9.514527E-19
7.070000E+03	1.798789E-17	9.480478E-19
7.080000E+03	1.791165E-17	9.452726E-19
7.090000E+03	1.784478E-17	9.429949E-19
7.100000E+03	1.778686E-17	9.411949E-19
7.110000E+03	1.773749E-17	9.398527E-19
7.120000E+03	1.769417E-17	9.388365E-19
7.130000E+03	1.766068E-17	9.383488E-19
7.140000E+03	1.763449E-17	9.382569E-19
7.150000E+03	1.761309E-17	9.384276E-19
7.160000E+03	1.760022E-17	9.390618E-19
7.170000E+03	1.759124E-17	9.399134E-19
7.180000E+03	1.758988E-17	9.411823E-19
7.190000E+03	1.759358E-17	9.427327E-19
7.200000E+03	1.759974E-17	9.444269E-19
7.210000E+03	1.761208E-17	9.464642E-19
7.220000E+03	1.762587E-17	9.485919E-19
7.230000E+03	1.764273E-17	9.508966E-19
7.240000E+03	1.766422E-17	9.534642E-19
7.250000E+03	1.768561E-17	9.560392E-19
7.260000E+03	1.771059E-17	9.588220E-19
7.270000E+03	1.773442E-17	9.615549E-19
7.280000E+03	1.775866E-17	9.643236E-19
7.290000E+03	1.778490E-17	9.672140E-19
7.300000E+03	1.780837E-17	9.699661E-19
7.310000E+03	1.783064E-17	9.726654E-19
7.320000E+03	1.785117E-17	9.752815E-19
7.330000E+03	1.786942E-17	9.777848E-19
7.340000E+03	1.788699E-17	9.802619E-19
7.350000E+03	1.789904E-17	9.824469E-19
7.360000E+03	1.790717E-17	9.844256E-19
7.370000E+03	1.791083E-17	9.861679E-19
7.380000E+03	1.790949E-17	9.876420E-19
7.390000E+03	1.790264E-17	9.888188E-19
7.400000E+03	1.788978E-17	9.896689E-19
7.410000E+03	1.787045E-17	9.901656E-19
7.420000E+03	1.784427E-17	9.902848E-19
7.430000E+03	1.781090E-17	9.900069E-19
7.440000E+03	1.777008E-17	9.893146E-19
7.450000E+03	1.771949E-17	9.880767E-19
7.460000E+03	1.766335E-17	9.865254E-19
7.470000E+03	1.759952E-17	9.845405E-19
7.480000E+03	1.752814E-17	9.821263E-19
7.490000E+03	1.744732E-17	9.791756E-19
7.500000E+03	1.736161E-17	9.759410E-19
7.510000E+03	1.726932E-17	9.723251E-19
7.520000E+03	1.716882E-17	9.682351E-19
7.530000E+03	1.706480E-17	9.639331E-19
7.540000E+03	1.695573E-17	9.593310E-19
7.550000E+03	1.684012E-17	9.543433E-19
7.560000E+03	1.672268E-17	9.492346E-19
7.570000E+03	1.659990E-17	9.438053E-19
7.580000E+03	1.647640E-17	9.383169E-19
7.590000E+03	1.634876E-17	9.325734E-19
7.600000E+03	1.621955E-17	9.267200E-19
7.610000E+03	1.609127E-17	9.208995E-19
7.620000E+03	1.596052E-17	9.149168E-19
7.630000E+03	1.582977E-17	9.089129E-19
7.640000E+03	1.570141E-17	9.030252E-19
7.650000E+03	1.557208E-17	8.970597E-19
7.660000E+03	1.544410E-17	8.911506E-19
7.670000E+03	1.531789E-17	8.853220E-19
7.680000E+03	1.519379E-17	8.795942E-19
7.690000E+03	1.507214E-17	8.739869E-19
7.700000E+03	1.495504E-17	8.686227E-19
7.710000E+03	1.483906E-17	8.633035E-19
7.720000E+03	1.472622E-17	8.581467E-19
7.730000E+03	1.461668E-17	8.531621E-19
7.740000E+03	1.450871E-17	8.482499E-19
7.750000E+03	1.440593E-17	8.436224E-19
7.760000E+03	1.430654E-17	8.391746E-19
