#wls	flux	fluxerr
1.600000E+03	2.570686E-17	1.926253E-17
1.640000E+03	2.660529E-17	1.968308E-17
1.680000E+03	2.757610E-17	2.013256E-17
1.720000E+03	2.862338E-17	2.061098E-17
1.760000E+03	2.975401E-17	2.112005E-17
1.800000E+03	3.097250E-17	2.165945E-17
1.840000E+03	3.228889E-17	2.223229E-17
1.880000E+03	3.371091E-17	2.283960E-17
1.920000E+03	3.524401E-17	2.348036E-17
1.960000E+03	3.689402E-17	2.415337E-17
2.000000E+03	3.866715E-17	2.485728E-17
2.040000E+03	4.057278E-17	2.559226E-17
2.080000E+03	4.260729E-17	2.634979E-17
2.120000E+03	4.477559E-17	2.712656E-17
2.160000E+03	4.707770E-17	2.791593E-17
2.200000E+03	4.950300E-17	2.870498E-17
2.240000E+03	5.205520E-17	2.948929E-17
2.280000E+03	5.473307E-17	3.026146E-17
2.320000E+03	5.755029E-17	3.102211E-17
2.360000E+03	6.052756E-17	3.177472E-17
2.400000E+03	6.369304E-17	3.252540E-17
2.440000E+03	6.708590E-17	3.328403E-17
2.480000E+03	7.073636E-17	3.405392E-17
2.520000E+03	7.468654E-17	3.484214E-17
2.560000E+03	7.897932E-17	3.565364E-17
2.600000E+03	8.365266E-17	3.648872E-17
2.640000E+03	8.875213E-17	3.734880E-17
2.680000E+03	9.432234E-17	3.823245E-17
2.720000E+03	1.004169E-16	3.913950E-17
2.760000E+03	1.070899E-16	4.006732E-17
2.800000E+03	1.144025E-16	4.101356E-17
2.840000E+03	1.224206E-16	4.197507E-17
2.880000E+03	1.312322E-16	4.295386E-17
2.920000E+03	1.409319E-16	4.395096E-17
2.960000E+03	1.516232E-16	4.496778E-17
3.000000E+03	1.634366E-16	4.601133E-17
3.010000E+03	1.665821E-16	4.627744E-17
3.020000E+03	1.698069E-16	4.654533E-17
3.030000E+03	1.731128E-16	4.681496E-17
3.040000E+03	1.765051E-16	4.708734E-17
3.050000E+03	1.799855E-16	4.736241E-17
3.060000E+03	1.835556E-16	4.764011E-17
3.070000E+03	1.872168E-16	4.792038E-17
3.080000E+03	1.909707E-16	4.820317E-17
3.090000E+03	1.948185E-16	4.848843E-17
3.100000E+03	1.987656E-16	4.877708E-17
3.110000E+03	2.028132E-16	4.906905E-17
3.120000E+03	2.069582E-16	4.936326E-17
3.130000E+03	2.112096E-16	4.966160E-17
3.140000E+03	2.155599E-16	4.996200E-17
3.150000E+03	2.200136E-16	5.026533E-17
3.160000E+03	2.245751E-16	5.057245E-17
3.170000E+03	2.292401E-16	5.088225E-17
3.180000E+03	2.340124E-16	5.119552E-17
3.190000E+03	2.388869E-16	5.151114E-17
3.200000E+03	2.438666E-16	5.182987E-17
3.210000E+03	2.489500E-16	5.215147E-17
3.220000E+03	2.541303E-16	5.247479E-17
3.230000E+03	2.594091E-16	5.280046E-17
3.240000E+03	2.647832E-16	5.312819E-17
3.250000E+03	2.702484E-16	5.345760E-17
3.260000E+03	2.758000E-16	5.378832E-17
3.270000E+03	2.814324E-16	5.411990E-17
3.280000E+03	2.871393E-16	5.445186E-17
3.290000E+03	2.929087E-16	5.478276E-17
3.300000E+03	2.987418E-16	5.511378E-17
3.310000E+03	3.046201E-16	5.544249E-17
3.320000E+03	3.105381E-16	5.576903E-17
3.330000E+03	3.164800E-16	5.609174E-17
3.340000E+03	3.224383E-16	5.641061E-17
3.350000E+03	3.284000E-16	5.672468E-17
3.360000E+03	3.343409E-16	5.703122E-17
3.370000E+03	3.402557E-16	5.733083E-17
3.380000E+03	3.461184E-16	5.762065E-17
3.390000E+03	3.519168E-16	5.790027E-17
3.400000E+03	3.576330E-16	5.816836E-17
3.410000E+03	3.632386E-16	5.842192E-17
3.420000E+03	3.687244E-16	5.866114E-17
3.430000E+03	3.740609E-16	5.888294E-17
3.440000E+03	3.792282E-16	5.908583E-17
3.450000E+03	3.842066E-16	5.926832E-17
3.460000E+03	3.889713E-16	5.942812E-17
3.470000E+03	3.935082E-16	5.956454E-17
3.480000E+03	3.977886E-16	5.967462E-17
3.490000E+03	4.017946E-16	5.975701E-17
3.500000E+03	4.055048E-16	5.980974E-17
3.510000E+03	4.089090E-16	5.983243E-17
3.520000E+03	4.119837E-16	5.982261E-17
3.530000E+03	4.147123E-16	5.977878E-17
3.540000E+03	4.170904E-16	5.970107E-17
3.550000E+03	4.190960E-16	5.958698E-17
3.560000E+03	4.207248E-16	5.943639E-17
3.570000E+03	4.219749E-16	5.924945E-17
3.580000E+03	4.228375E-16	5.902519E-17
3.590000E+03	4.233164E-16	5.876432E-17
3.600000E+03	4.234088E-16	5.846648E-17
3.610000E+03	4.231196E-16	5.813232E-17
3.620000E+03	4.224612E-16	5.776336E-17
3.630000E+03	4.214347E-16	5.735957E-17
3.640000E+03	4.200625E-16	5.692363E-17
3.650000E+03	4.183552E-16	5.645665E-17
3.660000E+03	4.163305E-16	5.596053E-17
3.670000E+03	4.140034E-16	5.543683E-17
3.680000E+03	4.113993E-16	5.488843E-17
3.690000E+03	4.085405E-16	5.431771E-17
3.700000E+03	4.054458E-16	5.372664E-17
3.710000E+03	4.021434E-16	5.311832E-17
3.720000E+03	3.986572E-16	5.249533E-17
3.730000E+03	3.950071E-16	5.185971E-17
3.740000E+03	3.912284E-16	5.121549E-17
3.750000E+03	3.873361E-16	5.056405E-17
3.760000E+03	3.833557E-16	4.990818E-17
3.770000E+03	3.793152E-16	4.925098E-17
3.780000E+03	3.752262E-16	4.859344E-17
3.790000E+03	3.711170E-16	4.793874E-17
3.800000E+03	3.669995E-16	4.728797E-17
3.810000E+03	3.628943E-16	4.664336E-17
3.820000E+03	3.588164E-16	4.600644E-17
3.830000E+03	3.547753E-16	4.537806E-17
3.840000E+03	3.507819E-16	4.475928E-17
3.850000E+03	3.468483E-16	4.415133E-17
3.860000E+03	3.429779E-16	4.355438E-17
3.870000E+03	3.391787E-16	4.296918E-17
3.880000E+03	3.354505E-16	4.239551E-17
3.890000E+03	3.317978E-16	4.183371E-17
3.900000E+03	3.282200E-16	4.128356E-17
3.910000E+03	3.247157E-16	4.074470E-17
3.920000E+03	3.212847E-16	4.021698E-17
3.930000E+03	3.179201E-16	3.969946E-17
3.940000E+03	3.146201E-16	3.919177E-17
3.950000E+03	3.113818E-16	3.869349E-17
3.960000E+03	3.081937E-16	3.820313E-17
3.970000E+03	3.050577E-16	3.772088E-17
3.980000E+03	3.019647E-16	3.724554E-17
3.990000E+03	2.989081E-16	3.677630E-17
4.000000E+03	2.958843E-16	3.631270E-17
4.010000E+03	2.928849E-16	3.585367E-17
4.020000E+03	2.899094E-16	3.539916E-17
4.030000E+03	2.869527E-16	3.494854E-17
4.040000E+03	2.840104E-16	3.450127E-17
4.050000E+03	2.810763E-16	3.405662E-17
4.060000E+03	2.781521E-16	3.361479E-17
4.070000E+03	2.752354E-16	3.317550E-17
4.080000E+03	2.723244E-16	3.273856E-17
4.090000E+03	2.694182E-16	3.230384E-17
4.100000E+03	2.665162E-16	3.187130E-17
4.110000E+03	2.636210E-16	3.144125E-17
4.120000E+03	2.607311E-16	3.101349E-17
4.130000E+03	2.578498E-16	3.058845E-17
4.140000E+03	2.549789E-16	3.016630E-17
4.150000E+03	2.521202E-16	2.974727E-17
4.160000E+03	2.492760E-16	2.933160E-17
4.170000E+03	2.464487E-16	2.891957E-17
4.180000E+03	2.436431E-16	2.851169E-17
4.190000E+03	2.408576E-16	2.810778E-17
4.200000E+03	2.380973E-16	2.770836E-17
4.210000E+03	2.353669E-16	2.731397E-17
4.220000E+03	2.326651E-16	2.692440E-17
4.230000E+03	2.299968E-16	2.654016E-17
4.240000E+03	2.273626E-16	2.616129E-17
4.250000E+03	2.247673E-16	2.578826E-17
4.260000E+03	2.222114E-16	2.542108E-17
4.270000E+03	2.196956E-16	2.505975E-17
4.280000E+03	2.172259E-16	2.470491E-17
4.290000E+03	2.147992E-16	2.435611E-17
4.300000E+03	2.124213E-16	2.401395E-17
4.310000E+03	2.100925E-16	2.367836E-17
4.320000E+03	2.078146E-16	2.334949E-17
4.330000E+03	2.055876E-16	2.302725E-17
4.340000E+03	2.034148E-16	2.271193E-17
4.350000E+03	2.012976E-16	2.240359E-17
4.360000E+03	1.992354E-16	2.210208E-17
4.370000E+03	1.972339E-16	2.180797E-17
4.380000E+03	1.952920E-16	2.152102E-17
4.390000E+03	1.934129E-16	2.124152E-17
4.400000E+03	1.915963E-16	2.096934E-17
4.410000E+03	1.898445E-16	2.070466E-17
4.420000E+03	1.881546E-16	2.044707E-17
4.430000E+03	1.865295E-16	2.019683E-17
4.440000E+03	1.849668E-16	1.995359E-17
4.450000E+03	1.834634E-16	1.971697E-17
4.460000E+03	1.820205E-16	1.948704E-17
4.470000E+03	1.806340E-16	1.926331E-17
4.480000E+03	1.793008E-16	1.904542E-17
4.490000E+03	1.780171E-16	1.883295E-17
4.500000E+03	1.767788E-16	1.862545E-17
4.510000E+03	1.755798E-16	1.842229E-17
4.520000E+03	1.744167E-16	1.822313E-17
4.530000E+03	1.732842E-16	1.802746E-17
4.540000E+03	1.721752E-16	1.783462E-17
4.550000E+03	1.710827E-16	1.764393E-17
4.560000E+03	1.700026E-16	1.745509E-17
4.570000E+03	1.689295E-16	1.726766E-17
4.580000E+03	1.678551E-16	1.708092E-17
4.590000E+03	1.667775E-16	1.689484E-17
4.600000E+03	1.656879E-16	1.670866E-17
4.610000E+03	1.645839E-16	1.652235E-17
4.620000E+03	1.634623E-16	1.633577E-17
4.630000E+03	1.623194E-16	1.614873E-17
4.640000E+03	1.611537E-16	1.596127E-17
4.650000E+03	1.599615E-16	1.577323E-17
4.660000E+03	1.587463E-16	1.558511E-17
4.670000E+03	1.575049E-16	1.539678E-17
4.680000E+03	1.562414E-16	1.520876E-17
4.690000E+03	1.549575E-16	1.502135E-17
4.700000E+03	1.536576E-16	1.483506E-17
4.710000E+03	1.523438E-16	1.465017E-17
4.720000E+03	1.510223E-16	1.446728E-17
4.730000E+03	1.496969E-16	1.428673E-17
4.740000E+03	1.483763E-16	1.410932E-17
4.750000E+03	1.470643E-16	1.393530E-17
4.760000E+03	1.457691E-16	1.376532E-17
4.770000E+03	1.444980E-16	1.359988E-17
4.780000E+03	1.432570E-16	1.343936E-17
4.790000E+03	1.420551E-16	1.328435E-17
4.800000E+03	1.408985E-16	1.313516E-17
4.810000E+03	1.397946E-16	1.299217E-17
4.820000E+03	1.387507E-16	1.285575E-17
4.830000E+03	1.377738E-16	1.272620E-17
4.840000E+03	1.368692E-16	1.260367E-17
4.850000E+03	1.360459E-16	1.248861E-17
4.860000E+03	1.353056E-16	1.238080E-17
4.870000E+03	1.346566E-16	1.228060E-17
4.880000E+03	1.341022E-16	1.218794E-17
4.890000E+03	1.336482E-16	1.210293E-17
4.900000E+03	1.332957E-16	1.202529E-17
4.910000E+03	1.330495E-16	1.195501E-17
4.920000E+03	1.329123E-16	1.189195E-17
4.930000E+03	1.328850E-16	1.183576E-17
4.940000E+03	1.329709E-16	1.178631E-17
4.950000E+03	1.331700E-16	1.174315E-17
4.960000E+03	1.334844E-16	1.170604E-17
4.970000E+03	1.339121E-16	1.167433E-17
4.980000E+03	1.344557E-16	1.164780E-17
4.990000E+03	1.351122E-16	1.162571E-17
5.000000E+03	1.358824E-16	1.160763E-17
5.010000E+03	1.367639E-16	1.159287E-17
5.020000E+03	1.377567E-16	1.158090E-17
5.030000E+03	1.388593E-16	1.157106E-17
5.040000E+03	1.400669E-16	1.156244E-17
5.050000E+03	1.413786E-16	1.155442E-17
5.060000E+03	1.427920E-16	1.154624E-17
5.070000E+03	1.443042E-16	1.153713E-17
5.080000E+03	1.459091E-16	1.152606E-17
5.090000E+03	1.476064E-16	1.151245E-17
5.100000E+03	1.493921E-16	1.149549E-17
5.110000E+03	1.512577E-16	1.147400E-17
5.120000E+03	1.532033E-16	1.144753E-17
5.130000E+03	1.552209E-16	1.141506E-17
5.140000E+03	1.573053E-16	1.137583E-17
5.150000E+03	1.594509E-16	1.132913E-17
5.160000E+03	1.616498E-16	1.127420E-17
5.170000E+03	1.638972E-16	1.121061E-17
5.180000E+03	1.661845E-16	1.113778E-17
5.190000E+03	1.685044E-16	1.105542E-17
5.200000E+03	1.708489E-16	1.096337E-17
5.210000E+03	1.732064E-16	1.086148E-17
5.220000E+03	1.755717E-16	1.075028E-17
5.230000E+03	1.779342E-16	1.063024E-17
5.240000E+03	1.802827E-16	1.050219E-17
5.250000E+03	1.826076E-16	1.036742E-17
5.260000E+03	1.848991E-16	1.022766E-17
5.270000E+03	1.871456E-16	1.008499E-17
5.280000E+03	1.893389E-16	9.942207E-18
5.290000E+03	1.914654E-16	9.802313E-18
5.300000E+03	1.935173E-16	9.669124E-18
5.310000E+03	1.954813E-16	9.546628E-18
5.320000E+03	1.973503E-16	9.439481E-18
5.330000E+03	1.991140E-16	9.352373E-18
5.340000E+03	2.007646E-16	9.290102E-18
5.350000E+03	2.022953E-16	9.257189E-18
5.360000E+03	2.036962E-16	9.257347E-18
5.370000E+03	2.049651E-16	9.293542E-18
5.380000E+03	2.060967E-16	9.367139E-18
5.390000E+03	2.070896E-16	9.477974E-18
5.400000E+03	2.079396E-16	9.624187E-18
5.410000E+03	2.086523E-16	9.803110E-18
5.420000E+03	2.092241E-16	1.001076E-17
5.430000E+03	2.096585E-16	1.024293E-17
5.440000E+03	2.099603E-16	1.049521E-17
5.450000E+03	2.101242E-16	1.076265E-17
5.460000E+03	2.101458E-16	1.104045E-17
5.470000E+03	2.100212E-16	1.132404E-17
5.480000E+03	2.097660E-16	1.161021E-17
5.490000E+03	2.093939E-16	1.189610E-17
5.500000E+03	2.089146E-16	1.217906E-17
5.510000E+03	2.083383E-16	1.245685E-17
5.520000E+03	2.076749E-16	1.272768E-17
5.530000E+03	2.069304E-16	1.298982E-17
5.540000E+03	2.061189E-16	1.324244E-17
5.550000E+03	2.052464E-16	1.348446E-17
5.560000E+03	2.043205E-16	1.371523E-17
5.570000E+03	2.033531E-16	1.393459E-17
5.580000E+03	2.023495E-16	1.414218E-17
5.590000E+03	2.013191E-16	1.433811E-17
5.600000E+03	2.002710E-16	1.452264E-17
5.610000E+03	1.992120E-16	1.469601E-17
5.620000E+03	1.981507E-16	1.485873E-17
5.630000E+03	1.970934E-16	1.501124E-17
5.640000E+03	1.960463E-16	1.515406E-17
5.650000E+03	1.950169E-16	1.528792E-17
5.660000E+03	1.940088E-16	1.541324E-17
5.670000E+03	1.930329E-16	1.553116E-17
5.680000E+03	1.920899E-16	1.564199E-17
5.690000E+03	1.911882E-16	1.574669E-17
5.700000E+03	1.903313E-16	1.584591E-17
5.710000E+03	1.895207E-16	1.594007E-17
5.720000E+03	1.887630E-16	1.603010E-17
5.730000E+03	1.880585E-16	1.611634E-17
5.740000E+03	1.874108E-16	1.619945E-17
5.750000E+03	1.868208E-16	1.627985E-17
5.760000E+03	1.862908E-16	1.635808E-17
5.770000E+03	1.858184E-16	1.643425E-17
5.780000E+03	1.854067E-16	1.650892E-17
5.790000E+03	1.850497E-16	1.658187E-17
5.800000E+03	1.847472E-16	1.665336E-17
5.810000E+03	1.844979E-16	1.672352E-17
5.820000E+03	1.842980E-16	1.679228E-17
5.830000E+03	1.841411E-16	1.685929E-17
5.840000E+03	1.840243E-16	1.692448E-17
5.850000E+03	1.839441E-16	1.698775E-17
5.860000E+03	1.838906E-16	1.704837E-17
5.870000E+03	1.838594E-16	1.710612E-17
5.880000E+03	1.838462E-16	1.716078E-17
5.890000E+03	1.838401E-16	1.721148E-17
5.900000E+03	1.838385E-16	1.725815E-17
5.910000E+03	1.838348E-16	1.730031E-17
5.920000E+03	1.838183E-16	1.733712E-17
5.930000E+03	1.837848E-16	1.736833E-17
5.940000E+03	1.837305E-16	1.739373E-17
5.950000E+03	1.836458E-16	1.741258E-17
5.960000E+03	1.835279E-16	1.742476E-17
5.970000E+03	1.833725E-16	1.743005E-17
5.980000E+03	1.831738E-16	1.742806E-17
5.990000E+03	1.829288E-16	1.741871E-17
6.000000E+03	1.826352E-16	1.740196E-17
6.010000E+03	1.822893E-16	1.737768E-17
6.020000E+03	1.818924E-16	1.734621E-17
6.030000E+03	1.814422E-16	1.730755E-17
6.040000E+03	1.809390E-16	1.726199E-17
6.050000E+03	1.803796E-16	1.720948E-17
6.060000E+03	1.797698E-16	1.715084E-17
6.070000E+03	1.791052E-16	1.708592E-17
6.080000E+03	1.783927E-16	1.701565E-17
6.090000E+03	1.776285E-16	1.693999E-17
6.100000E+03	1.768202E-16	1.685992E-17
6.110000E+03	1.759647E-16	1.677547E-17
6.120000E+03	1.750677E-16	1.668746E-17
6.130000E+03	1.741329E-16	1.659653E-17
6.140000E+03	1.731620E-16	1.650312E-17
6.150000E+03	1.721568E-16	1.640767E-17
6.160000E+03	1.711233E-16	1.631099E-17
6.170000E+03	1.700654E-16	1.621368E-17
6.180000E+03	1.689868E-16	1.611630E-17
6.190000E+03	1.678913E-16	1.601938E-17
6.200000E+03	1.667867E-16	1.592381E-17
6.210000E+03	1.656787E-16	1.583022E-17
6.220000E+03	1.645661E-16	1.573861E-17
6.230000E+03	1.634564E-16	1.564971E-17
6.240000E+03	1.623502E-16	1.556359E-17
6.250000E+03	1.612500E-16	1.548046E-17
6.260000E+03	1.601624E-16	1.540089E-17
6.270000E+03	1.590892E-16	1.532496E-17
6.280000E+03	1.580341E-16	1.525290E-17
6.290000E+03	1.569981E-16	1.518469E-17
6.300000E+03	1.559822E-16	1.512024E-17
6.310000E+03	1.549930E-16	1.506002E-17
6.320000E+03	1.540262E-16	1.500343E-17
6.330000E+03	1.530856E-16	1.495065E-17
6.340000E+03	1.521683E-16	1.490119E-17
6.350000E+03	1.512774E-16	1.485515E-17
6.360000E+03	1.504091E-16	1.481198E-17
6.370000E+03	1.495639E-16	1.477151E-17
6.380000E+03	1.487418E-16	1.473358E-17
6.390000E+03	1.479364E-16	1.469737E-17
6.400000E+03	1.471494E-16	1.466290E-17
6.410000E+03	1.463784E-16	1.462975E-17
6.420000E+03	1.456209E-16	1.459755E-17
6.430000E+03	1.448765E-16	1.456612E-17
6.440000E+03	1.441451E-16	1.453533E-17
6.450000E+03	1.434263E-16	1.450504E-17
6.460000E+03	1.427183E-16	1.447497E-17
6.470000E+03	1.420191E-16	1.444484E-17
6.480000E+03	1.413292E-16	1.441462E-17
6.490000E+03	1.406430E-16	1.438368E-17
6.500000E+03	1.399636E-16	1.435228E-17
6.510000E+03	1.392900E-16	1.432028E-17
6.520000E+03	1.386218E-16	1.428757E-17
6.530000E+03	1.379583E-16	1.425409E-17
6.540000E+03	1.372995E-16	1.421977E-17
6.550000E+03	1.366474E-16	1.418482E-17
6.560000E+03	1.359999E-16	1.414901E-17
6.570000E+03	1.353595E-16	1.411256E-17
6.580000E+03	1.347263E-16	1.407551E-17
6.590000E+03	1.340985E-16	1.403765E-17
6.600000E+03	1.334786E-16	1.399925E-17
6.610000E+03	1.328668E-16	1.396034E-17
6.620000E+03	1.322635E-16	1.392095E-17
6.630000E+03	1.316687E-16	1.388112E-17
6.640000E+03	1.310826E-16	1.384087E-17
6.650000E+03	1.305052E-16	1.380022E-17
6.660000E+03	1.299344E-16	1.375895E-17
6.670000E+03	1.293720E-16	1.371730E-17
6.680000E+03	1.288159E-16	1.367505E-17
6.690000E+03	1.282678E-16	1.363243E-17
6.700000E+03	1.277277E-16	1.358942E-17
6.710000E+03	1.271931E-16	1.354582E-17
6.720000E+03	1.266636E-16	1.350160E-17
6.730000E+03	1.261414E-16	1.345702E-17
6.740000E+03	1.256218E-16	1.341161E-17
6.750000E+03	1.251093E-16	1.336587E-17
6.760000E+03	1.246016E-16	1.331961E-17
6.770000E+03	1.240967E-16	1.327262E-17
6.780000E+03	1.235971E-16	1.322521E-17
6.790000E+03	1.231034E-16	1.317745E-17
6.800000E+03	1.226137E-16	1.312919E-17
6.810000E+03	1.221311E-16	1.308078E-17
6.820000E+03	1.216541E-16	1.303208E-17
6.830000E+03	1.211860E-16	1.298348E-17
6.840000E+03	1.207235E-16	1.293464E-17
6.850000E+03	1.202721E-16	1.288618E-17
6.860000E+03	1.198286E-16	1.283778E-17
6.870000E+03	1.193987E-16	1.279008E-17
6.880000E+03	1.189794E-16	1.274277E-17
6.890000E+03	1.185741E-16	1.269624E-17
6.900000E+03	1.181819E-16	1.265040E-17
6.910000E+03	1.178062E-16	1.260566E-17
6.920000E+03	1.174459E-16	1.256189E-17
6.930000E+03	1.171042E-16	1.251945E-17
6.940000E+03	1.167774E-16	1.247799E-17
6.950000E+03	1.164707E-16	1.243804E-17
6.960000E+03	1.161823E-16	1.239944E-17
6.970000E+03	1.159103E-16	1.236200E-17
6.980000E+03	1.156593E-16	1.232619E-17
6.990000E+03	1.154246E-16	1.229154E-17
7.000000E+03	1.152082E-16	1.225824E-17
7.010000E+03	1.150071E-16	1.222601E-17
7.020000E+03	1.148230E-16	1.219500E-17
7.030000E+03	1.146526E-16	1.216487E-17
7.040000E+03	1.144971E-16	1.213573E-17
7.050000E+03	1.143505E-16	1.210696E-17
7.060000E+03	1.142162E-16	1.207889E-17
7.070000E+03	1.140879E-16	1.205086E-17
7.080000E+03	1.139688E-16	1.202320E-17
7.090000E+03	1.138525E-16	1.199523E-17
7.100000E+03	1.137399E-16	1.196701E-17
7.110000E+03	1.136270E-16	1.193814E-17
7.120000E+03	1.135146E-16	1.190868E-17
7.130000E+03	1.134013E-16	1.187848E-17
7.140000E+03	1.132812E-16	1.184690E-17
7.150000E+03	1.131576E-16	1.181432E-17
7.160000E+03	1.130298E-16	1.178061E-17
7.170000E+03	1.128923E-16	1.174523E-17
7.180000E+03	1.127468E-16	1.170834E-17
7.190000E+03	1.125931E-16	1.166994E-17
7.200000E+03	1.124287E-16	1.162978E-17
7.210000E+03	1.122584E-16	1.158836E-17
7.220000E+03	1.120781E-16	1.154528E-17
7.230000E+03	1.118884E-16	1.150062E-17
7.240000E+03	1.116925E-16	1.145475E-17
7.250000E+03	1.114869E-16	1.140735E-17
7.260000E+03	1.112778E-16	1.135909E-17
7.270000E+03	1.110644E-16	1.130994E-17
7.280000E+03	1.108486E-16	1.126016E-17
7.290000E+03	1.106300E-16	1.120979E-17
7.300000E+03	1.104111E-16	1.115914E-17
7.310000E+03	1.101964E-16	1.110877E-17
7.320000E+03	1.099863E-16	1.105883E-17
7.330000E+03	1.097813E-16	1.100945E-17
7.340000E+03	1.095842E-16	1.096107E-17
7.350000E+03	1.093982E-16	1.091411E-17
7.360000E+03	1.092263E-16	1.086905E-17
7.370000E+03	1.090694E-16	1.082611E-17
7.380000E+03	1.089287E-16	1.078558E-17
7.390000E+03	1.088073E-16	1.074796E-17
7.400000E+03	1.087042E-16	1.071332E-17
7.410000E+03	1.086272E-16	1.068266E-17
7.420000E+03	1.085729E-16	1.065581E-17
7.430000E+03	1.085445E-16	1.063332E-17
7.440000E+03	1.085475E-16	1.061595E-17
7.450000E+03	1.085875E-16	1.060445E-17
7.460000E+03	1.086650E-16	1.059909E-17
7.470000E+03	1.087877E-16	1.060082E-17
7.480000E+03	1.089582E-16	1.061011E-17
7.490000E+03	1.091838E-16	1.062784E-17
7.500000E+03	1.094644E-16	1.065420E-17
7.510000E+03	1.098067E-16	1.068999E-17
7.520000E+03	1.102125E-16	1.073555E-17
7.530000E+03	1.106834E-16	1.079115E-17
7.540000E+03	1.112228E-16	1.085723E-17
7.550000E+03	1.118293E-16	1.093373E-17
7.560000E+03	1.125082E-16	1.102123E-17
7.570000E+03	1.132573E-16	1.111955E-17
7.580000E+03	1.140765E-16	1.122869E-17
7.590000E+03	1.149680E-16	1.134886E-17
7.600000E+03	1.159310E-16	1.147997E-17
7.610000E+03	1.169647E-16	1.162189E-17
7.620000E+03	1.180652E-16	1.177419E-17
7.630000E+03	1.192364E-16	1.193718E-17
7.640000E+03	1.204713E-16	1.211010E-17
7.650000E+03	1.217735E-16	1.229323E-17
7.660000E+03	1.231354E-16	1.248572E-17
7.670000E+03	1.245603E-16	1.268781E-17
7.680000E+03	1.260402E-16	1.289859E-17
7.690000E+03	1.275781E-16	1.311829E-17
7.700000E+03	1.291684E-16	1.334623E-17
7.710000E+03	1.308082E-16	1.358203E-17
7.720000E+03	1.324911E-16	1.382491E-17
7.730000E+03	1.342199E-16	1.407510E-17
7.740000E+03	1.359880E-16	1.433181E-17
7.750000E+03	1.377917E-16	1.459455E-17
7.760000E+03	1.396236E-16	1.486247E-17
