#wls	flux	fluxerr
1.600000E+03	3.374543E-17	2.524436E-17
1.640000E+03	3.489621E-17	2.577200E-17
1.680000E+03	3.613064E-17	2.632954E-17
1.720000E+03	3.746759E-17	2.692704E-17
1.760000E+03	3.890899E-17	2.756166E-17
1.800000E+03	4.046391E-17	2.823528E-17
1.840000E+03	4.214528E-17	2.895189E-17
1.880000E+03	4.395943E-17	2.971026E-17
1.920000E+03	4.591657E-17	3.051126E-17
1.960000E+03	4.802741E-17	3.135541E-17
2.000000E+03	5.029608E-17	3.223830E-17
2.040000E+03	5.273795E-17	3.316215E-17
2.080000E+03	5.535116E-17	3.411760E-17
2.120000E+03	5.813438E-17	3.509545E-17
2.160000E+03	6.109048E-17	3.608884E-17
2.200000E+03	6.421207E-17	3.708468E-17
2.240000E+03	6.748127E-17	3.806413E-17
2.280000E+03	7.091023E-17	3.902575E-17
2.320000E+03	7.450481E-17	3.996398E-17
2.360000E+03	7.830224E-17	4.088922E-17
2.400000E+03	8.234595E-17	4.181285E-17
2.440000E+03	8.668231E-17	4.274515E-17
2.480000E+03	9.136506E-17	4.369713E-17
2.520000E+03	9.643649E-17	4.467130E-17
2.560000E+03	1.019591E-16	4.567664E-17
2.600000E+03	1.079810E-16	4.671229E-17
2.640000E+03	1.145604E-16	4.777877E-17
2.680000E+03	1.217541E-16	4.887285E-17
2.720000E+03	1.296309E-16	4.999294E-17
2.760000E+03	1.382600E-16	5.113428E-17
2.800000E+03	1.477165E-16	5.229097E-17
2.840000E+03	1.580948E-16	5.346082E-17
2.880000E+03	1.694976E-16	5.464070E-17
2.920000E+03	1.820544E-16	5.583254E-17
2.960000E+03	1.959187E-16	5.704151E-17
3.000000E+03	2.112683E-16	5.827567E-17
3.010000E+03	2.153594E-16	5.858894E-17
3.020000E+03	2.195590E-16	5.890465E-17
3.030000E+03	2.238697E-16	5.922273E-17
3.040000E+03	2.282989E-16	5.954442E-17
3.050000E+03	2.328439E-16	5.986835E-17
3.060000E+03	2.375072E-16	6.019448E-17
3.070000E+03	2.423013E-16	6.052529E-17
3.080000E+03	2.472184E-16	6.085817E-17
3.090000E+03	2.522708E-16	6.119558E-17
3.100000E+03	2.574558E-16	6.153618E-17
3.110000E+03	2.627753E-16	6.187992E-17
3.120000E+03	2.682416E-16	6.222916E-17
3.130000E+03	2.738462E-16	6.258137E-17
3.140000E+03	2.795956E-16	6.293766E-17
3.150000E+03	2.854913E-16	6.329795E-17
3.160000E+03	2.915395E-16	6.366331E-17
3.170000E+03	2.977355E-16	6.403242E-17
3.180000E+03	3.040849E-16	6.440631E-17
3.190000E+03	3.105876E-16	6.478482E-17
3.200000E+03	3.172372E-16	6.516660E-17
3.210000E+03	3.240380E-16	6.555261E-17
3.220000E+03	3.309935E-16	6.594376E-17
3.230000E+03	3.380897E-16	6.633747E-17
3.240000E+03	3.453346E-16	6.673574E-17
3.250000E+03	3.527119E-16	6.713594E-17
3.260000E+03	3.602340E-16	6.754105E-17
3.270000E+03	3.678766E-16	6.794726E-17
3.280000E+03	3.756380E-16	6.835518E-17
3.290000E+03	3.835153E-16	6.876533E-17
3.300000E+03	3.914923E-16	6.917596E-17
3.310000E+03	3.995637E-16	6.958740E-17
3.320000E+03	4.077042E-16	6.999670E-17
3.330000E+03	4.159054E-16	7.040401E-17
3.340000E+03	4.241512E-16	7.080832E-17
3.350000E+03	4.324241E-16	7.120850E-17
3.360000E+03	4.407048E-16	7.160332E-17
3.370000E+03	4.489665E-16	7.199039E-17
3.380000E+03	4.571866E-16	7.236828E-17
3.390000E+03	4.653415E-16	7.273542E-17
3.400000E+03	4.734062E-16	7.309012E-17
3.410000E+03	4.813478E-16	7.342961E-17
3.420000E+03	4.891391E-16	7.375203E-17
3.430000E+03	4.967518E-16	7.405543E-17
3.440000E+03	5.041507E-16	7.433681E-17
3.450000E+03	5.113067E-16	7.459414E-17
3.460000E+03	5.181906E-16	7.482532E-17
3.470000E+03	5.247606E-16	7.502641E-17
3.480000E+03	5.309951E-16	7.519632E-17
3.490000E+03	5.368608E-16	7.533217E-17
3.500000E+03	5.423254E-16	7.543119E-17
3.510000E+03	5.473656E-16	7.549170E-17
3.520000E+03	5.519468E-16	7.551038E-17
3.530000E+03	5.560507E-16	7.548599E-17
3.540000E+03	5.596553E-16	7.541662E-17
3.550000E+03	5.627421E-16	7.530070E-17
3.560000E+03	5.652966E-16	7.513700E-17
3.570000E+03	5.673079E-16	7.492466E-17
3.580000E+03	5.687636E-16	7.466240E-17
3.590000E+03	5.696679E-16	7.435101E-17
3.600000E+03	5.700172E-16	7.399005E-17
3.610000E+03	5.698245E-16	7.358112E-17
3.620000E+03	5.690889E-16	7.312389E-17
3.630000E+03	5.678381E-16	7.262153E-17
3.640000E+03	5.660738E-16	7.207380E-17
3.650000E+03	5.638252E-16	7.148386E-17
3.660000E+03	5.611132E-16	7.085372E-17
3.670000E+03	5.579733E-16	7.018712E-17
3.680000E+03	5.544261E-16	6.948590E-17
3.690000E+03	5.505115E-16	6.875423E-17
3.700000E+03	5.462595E-16	6.799504E-17
3.710000E+03	5.417118E-16	6.721265E-17
3.720000E+03	5.369002E-16	6.641013E-17
3.730000E+03	5.318714E-16	6.559242E-17
3.740000E+03	5.266511E-16	6.476185E-17
3.750000E+03	5.212841E-16	6.392310E-17
3.760000E+03	5.158036E-16	6.307944E-17
3.770000E+03	5.102452E-16	6.223449E-17
3.780000E+03	5.046379E-16	6.139105E-17
3.790000E+03	4.990168E-16	6.055273E-17
3.800000E+03	4.934006E-16	5.972116E-17
3.810000E+03	4.878186E-16	5.889930E-17
3.820000E+03	4.822922E-16	5.808919E-17
3.830000E+03	4.768394E-16	5.729251E-17
3.840000E+03	4.714751E-16	5.651059E-17
3.850000E+03	4.662067E-16	5.574393E-17
3.860000E+03	4.610511E-16	5.499417E-17
3.870000E+03	4.560135E-16	5.426161E-17
3.880000E+03	4.510925E-16	5.354579E-17
3.890000E+03	4.462921E-16	5.284694E-17
3.900000E+03	4.416099E-16	5.216455E-17
3.910000E+03	4.370450E-16	5.149835E-17
3.920000E+03	4.325872E-16	5.084696E-17
3.930000E+03	4.282361E-16	5.021020E-17
3.940000E+03	4.239785E-16	4.958643E-17
3.950000E+03	4.198114E-16	4.897520E-17
3.960000E+03	4.157204E-16	4.837476E-17
3.970000E+03	4.116940E-16	4.778375E-17
3.980000E+03	4.077278E-16	4.720161E-17
3.990000E+03	4.038072E-16	4.662663E-17
4.000000E+03	3.999247E-16	4.605795E-17
4.010000E+03	3.960701E-16	4.549440E-17
4.020000E+03	3.922373E-16	4.493529E-17
4.030000E+03	3.884178E-16	4.437968E-17
4.040000E+03	3.846044E-16	4.382675E-17
4.050000E+03	3.807939E-16	4.327618E-17
4.060000E+03	3.769845E-16	4.272781E-17
4.070000E+03	3.731662E-16	4.218051E-17
4.080000E+03	3.693457E-16	4.163509E-17
4.090000E+03	3.655154E-16	4.109072E-17
4.100000E+03	3.616811E-16	4.054806E-17
4.110000E+03	3.578404E-16	4.000689E-17
4.120000E+03	3.539977E-16	3.946771E-17
4.130000E+03	3.501554E-16	3.893079E-17
4.140000E+03	3.463165E-16	3.839647E-17
4.150000E+03	3.424844E-16	3.786513E-17
4.160000E+03	3.386631E-16	3.733719E-17
4.170000E+03	3.348595E-16	3.681341E-17
4.180000E+03	3.310780E-16	3.629423E-17
4.190000E+03	3.273203E-16	3.577981E-17
4.200000E+03	3.235911E-16	3.527062E-17
4.210000E+03	3.198950E-16	3.476710E-17
4.220000E+03	3.162390E-16	3.426998E-17
4.230000E+03	3.126250E-16	3.377936E-17
4.240000E+03	3.090572E-16	3.329565E-17
4.250000E+03	3.055372E-16	3.281895E-17
4.260000E+03	3.020717E-16	3.234987E-17
4.270000E+03	2.986621E-16	3.188848E-17
4.280000E+03	2.953123E-16	3.143508E-17
4.290000E+03	2.920258E-16	3.098997E-17
4.300000E+03	2.888014E-16	3.055290E-17
4.310000E+03	2.856474E-16	3.012464E-17
4.320000E+03	2.825623E-16	2.970491E-17
4.330000E+03	2.795493E-16	2.929392E-17
4.340000E+03	2.766088E-16	2.889161E-17
4.350000E+03	2.737482E-16	2.849862E-17
4.360000E+03	2.709629E-16	2.811434E-17
4.370000E+03	2.682593E-16	2.773932E-17
4.380000E+03	2.656387E-16	2.737357E-17
4.390000E+03	2.631044E-16	2.701729E-17
4.400000E+03	2.606608E-16	2.667083E-17
4.410000E+03	2.583096E-16	2.633421E-17
4.420000E+03	2.560558E-16	2.600785E-17
4.430000E+03	2.538952E-16	2.569117E-17
4.440000E+03	2.518309E-16	2.538438E-17
4.450000E+03	2.498588E-16	2.508698E-17
4.460000E+03	2.479761E-16	2.479858E-17
4.470000E+03	2.461830E-16	2.451912E-17
4.480000E+03	2.444682E-16	2.424742E-17
4.490000E+03	2.428324E-16	2.398348E-17
4.500000E+03	2.412624E-16	2.372600E-17
4.510000E+03	2.397549E-16	2.347465E-17
4.520000E+03	2.382996E-16	2.322844E-17
4.530000E+03	2.368878E-16	2.298657E-17
4.540000E+03	2.355100E-16	2.274823E-17
4.550000E+03	2.341527E-16	2.251221E-17
4.560000E+03	2.328103E-16	2.227814E-17
4.570000E+03	2.314692E-16	2.204489E-17
4.580000E+03	2.301202E-16	2.181180E-17
4.590000E+03	2.287546E-16	2.157830E-17
4.600000E+03	2.273644E-16	2.134390E-17
4.610000E+03	2.259405E-16	2.110805E-17
4.620000E+03	2.244748E-16	2.087033E-17
4.630000E+03	2.229627E-16	2.063061E-17
4.640000E+03	2.214009E-16	2.038896E-17
4.650000E+03	2.197879E-16	2.014553E-17
4.660000E+03	2.181193E-16	1.990028E-17
4.670000E+03	2.163989E-16	1.965384E-17
4.680000E+03	2.146279E-16	1.940659E-17
4.690000E+03	2.128093E-16	1.915903E-17
4.700000E+03	2.109495E-16	1.891195E-17
4.710000E+03	2.090547E-16	1.866601E-17
4.720000E+03	2.071323E-16	1.842197E-17
4.730000E+03	2.051910E-16	1.818059E-17
4.740000E+03	2.032405E-16	1.794270E-17
4.750000E+03	2.012916E-16	1.770911E-17
4.760000E+03	1.993556E-16	1.748064E-17
4.770000E+03	1.974444E-16	1.725808E-17
4.780000E+03	1.955683E-16	1.704200E-17
4.790000E+03	1.937415E-16	1.683330E-17
4.800000E+03	1.919725E-16	1.663230E-17
4.810000E+03	1.902772E-16	1.643992E-17
4.820000E+03	1.886635E-16	1.625636E-17
4.830000E+03	1.871445E-16	1.608224E-17
4.840000E+03	1.857308E-16	1.591794E-17
4.850000E+03	1.844285E-16	1.576345E-17
4.860000E+03	1.832505E-16	1.561931E-17
4.870000E+03	1.822032E-16	1.548552E-17
4.880000E+03	1.812959E-16	1.536230E-17
4.890000E+03	1.805298E-16	1.524920E-17
4.900000E+03	1.799159E-16	1.514658E-17
4.910000E+03	1.794556E-16	1.505398E-17
4.920000E+03	1.791544E-16	1.497132E-17
4.930000E+03	1.790138E-16	1.489815E-17
4.940000E+03	1.790381E-16	1.483423E-17
4.950000E+03	1.792251E-16	1.477882E-17
4.960000E+03	1.795778E-16	1.473154E-17
4.970000E+03	1.800980E-16	1.469196E-17
4.980000E+03	1.807820E-16	1.465913E-17
4.990000E+03	1.816289E-16	1.463234E-17
5.000000E+03	1.826390E-16	1.461096E-17
5.010000E+03	1.838105E-16	1.459416E-17
5.020000E+03	1.851375E-16	1.458078E-17
5.030000E+03	1.866190E-16	1.457001E-17
5.040000E+03	1.882519E-16	1.456089E-17
5.050000E+03	1.900327E-16	1.455238E-17
5.060000E+03	1.919556E-16	1.454328E-17
5.070000E+03	1.940164E-16	1.453250E-17
5.080000E+03	1.962122E-16	1.451904E-17
5.090000E+03	1.985343E-16	1.450148E-17
5.100000E+03	2.009789E-16	1.447877E-17
5.110000E+03	2.035381E-16	1.444961E-17
5.120000E+03	2.062054E-16	1.441281E-17
5.130000E+03	2.089740E-16	1.436723E-17
5.140000E+03	2.118362E-16	1.431174E-17
5.150000E+03	2.147818E-16	1.424512E-17
5.160000E+03	2.178042E-16	1.416651E-17
5.170000E+03	2.208899E-16	1.407472E-17
5.180000E+03	2.240309E-16	1.396915E-17
5.190000E+03	2.272144E-16	1.384904E-17
5.200000E+03	2.304291E-16	1.371404E-17
5.210000E+03	2.336631E-16	1.356402E-17
5.220000E+03	2.369039E-16	1.339921E-17
5.230000E+03	2.401338E-16	1.321994E-17
5.240000E+03	2.433440E-16	1.302755E-17
5.250000E+03	2.465133E-16	1.282327E-17
5.260000E+03	2.496323E-16	1.260960E-17
5.270000E+03	2.526817E-16	1.238922E-17
5.280000E+03	2.556493E-16	1.216601E-17
5.290000E+03	2.585182E-16	1.194441E-17
5.300000E+03	2.612715E-16	1.172976E-17
5.310000E+03	2.638979E-16	1.152848E-17
5.320000E+03	2.663789E-16	1.134742E-17
5.330000E+03	2.687047E-16	1.119428E-17
5.340000E+03	2.708610E-16	1.107680E-17
5.350000E+03	2.728350E-16	1.100244E-17
5.360000E+03	2.746183E-16	1.097793E-17
5.370000E+03	2.762042E-16	1.100847E-17
5.380000E+03	2.775884E-16	1.109669E-17
5.390000E+03	2.787640E-16	1.124158E-17
5.400000E+03	2.797347E-16	1.143973E-17
5.410000E+03	2.805008E-16	1.168568E-17
5.420000E+03	2.810699E-16	1.197307E-17
5.430000E+03	2.814429E-16	1.229459E-17
5.440000E+03	2.816356E-16	1.264341E-17
5.450000E+03	2.816597E-16	1.301277E-17
5.460000E+03	2.815415E-16	1.339709E-17
5.470000E+03	2.812856E-16	1.379041E-17
5.480000E+03	2.808826E-16	1.418677E-17
5.490000E+03	2.803295E-16	1.458107E-17
5.500000E+03	2.796319E-16	1.496930E-17
5.510000E+03	2.788068E-16	1.534867E-17
5.520000E+03	2.778570E-16	1.571621E-17
5.530000E+03	2.768026E-16	1.607044E-17
5.540000E+03	2.756490E-16	1.640953E-17
5.550000E+03	2.744105E-16	1.673258E-17
5.560000E+03	2.731007E-16	1.703904E-17
5.570000E+03	2.717331E-16	1.732871E-17
5.580000E+03	2.703157E-16	1.760131E-17
5.590000E+03	2.688613E-16	1.785712E-17
5.600000E+03	2.673828E-16	1.809665E-17
5.610000E+03	2.658898E-16	1.832040E-17
5.620000E+03	2.643919E-16	1.852898E-17
5.630000E+03	2.629035E-16	1.872352E-17
5.640000E+03	2.614307E-16	1.890464E-17
5.650000E+03	2.599845E-16	1.907344E-17
5.660000E+03	2.585728E-16	1.923084E-17
5.670000E+03	2.572059E-16	1.937802E-17
5.680000E+03	2.558908E-16	1.951594E-17
5.690000E+03	2.546338E-16	1.964557E-17
5.700000E+03	2.534434E-16	1.976805E-17
5.710000E+03	2.523275E-16	1.988451E-17
5.720000E+03	2.512876E-16	1.999558E-17
5.730000E+03	2.503301E-16	2.010226E-17
5.740000E+03	2.494575E-16	2.020527E-17
5.750000E+03	2.486717E-16	2.030524E-17
5.760000E+03	2.479785E-16	2.040311E-17
5.770000E+03	2.473724E-16	2.049889E-17
5.780000E+03	2.468573E-16	2.059331E-17
5.790000E+03	2.464279E-16	2.068636E-17
5.800000E+03	2.460832E-16	2.077832E-17
5.810000E+03	2.458186E-16	2.086915E-17
5.820000E+03	2.456282E-16	2.095870E-17
5.830000E+03	2.455078E-16	2.104691E-17
5.840000E+03	2.454471E-16	2.113318E-17
5.850000E+03	2.454400E-16	2.121725E-17
5.860000E+03	2.454772E-16	2.129857E-17
5.870000E+03	2.455462E-16	2.137627E-17
5.880000E+03	2.456418E-16	2.145013E-17
5.890000E+03	2.457482E-16	2.151895E-17
5.900000E+03	2.458600E-16	2.158246E-17
5.910000E+03	2.459637E-16	2.163967E-17
5.920000E+03	2.460492E-16	2.168985E-17
5.930000E+03	2.461091E-16	2.173256E-17
5.940000E+03	2.461286E-16	2.176668E-17
5.950000E+03	2.461019E-16	2.179187E-17
5.960000E+03	2.460242E-16	2.180793E-17
5.970000E+03	2.458833E-16	2.181396E-17
5.980000E+03	2.456762E-16	2.180996E-17
5.990000E+03	2.453986E-16	2.179576E-17
6.000000E+03	2.450445E-16	2.177109E-17
6.010000E+03	2.446115E-16	2.173602E-17
6.020000E+03	2.440988E-16	2.169077E-17
6.030000E+03	2.435035E-16	2.163540E-17
6.040000E+03	2.428269E-16	2.157035E-17
6.050000E+03	2.420736E-16	2.149639E-17
6.060000E+03	2.412380E-16	2.141339E-17
6.070000E+03	2.403293E-16	2.132257E-17
6.080000E+03	2.393433E-16	2.122394E-17
6.090000E+03	2.382902E-16	2.111884E-17
6.100000E+03	2.371666E-16	2.100739E-17
6.110000E+03	2.359809E-16	2.089076E-17
6.120000E+03	2.347330E-16	2.076938E-17
6.130000E+03	2.334316E-16	2.064445E-17
6.140000E+03	2.320771E-16	2.051641E-17
6.150000E+03	2.306725E-16	2.038595E-17
6.160000E+03	2.292268E-16	2.025423E-17
6.170000E+03	2.277402E-16	2.012162E-17
6.180000E+03	2.262215E-16	1.998919E-17
6.190000E+03	2.246763E-16	1.985772E-17
6.200000E+03	2.231103E-16	1.972792E-17
6.210000E+03	2.215288E-16	1.960042E-17
6.220000E+03	2.199424E-16	1.947627E-17
6.230000E+03	2.183559E-16	1.935595E-17
6.240000E+03	2.167765E-16	1.924009E-17
6.250000E+03	2.152109E-16	1.912923E-17
6.260000E+03	2.136710E-16	1.902431E-17
6.270000E+03	2.121569E-16	1.892518E-17
6.280000E+03	2.106738E-16	1.883211E-17
6.290000E+03	2.092292E-16	1.874553E-17
6.300000E+03	2.078270E-16	1.866552E-17
6.310000E+03	2.064677E-16	1.859187E-17
6.320000E+03	2.051513E-16	1.852425E-17
6.330000E+03	2.038826E-16	1.846280E-17
6.340000E+03	2.026573E-16	1.840683E-17
6.350000E+03	2.014764E-16	1.835611E-17
6.360000E+03	2.003373E-16	1.831011E-17
6.370000E+03	1.992370E-16	1.826827E-17
6.380000E+03	1.981720E-16	1.823001E-17
6.390000E+03	1.971387E-16	1.819472E-17
6.400000E+03	1.961330E-16	1.816180E-17
6.410000E+03	1.951480E-16	1.813038E-17
6.420000E+03	1.941825E-16	1.810014E-17
6.430000E+03	1.932322E-16	1.807050E-17
6.440000E+03	1.922960E-16	1.804121E-17
6.450000E+03	1.913732E-16	1.801202E-17
6.460000E+03	1.904574E-16	1.798223E-17
6.470000E+03	1.895514E-16	1.795198E-17
6.480000E+03	1.886527E-16	1.792094E-17
6.490000E+03	1.877618E-16	1.788908E-17
6.500000E+03	1.868745E-16	1.785591E-17
6.510000E+03	1.859950E-16	1.782180E-17
6.520000E+03	1.851198E-16	1.778635E-17
6.530000E+03	1.842515E-16	1.774977E-17
6.540000E+03	1.833869E-16	1.771174E-17
6.550000E+03	1.825293E-16	1.767254E-17
6.560000E+03	1.816819E-16	1.763247E-17
6.570000E+03	1.808397E-16	1.759102E-17
6.580000E+03	1.800062E-16	1.754854E-17
6.590000E+03	1.791849E-16	1.750538E-17
6.600000E+03	1.783709E-16	1.746106E-17
6.610000E+03	1.775706E-16	1.741620E-17
6.620000E+03	1.767786E-16	1.737031E-17
6.630000E+03	1.760011E-16	1.732401E-17
6.640000E+03	1.752325E-16	1.727677E-17
6.650000E+03	1.744758E-16	1.722890E-17
6.660000E+03	1.737308E-16	1.718043E-17
6.670000E+03	1.729944E-16	1.713106E-17
6.680000E+03	1.722689E-16	1.708107E-17
6.690000E+03	1.715510E-16	1.703016E-17
6.700000E+03	1.708401E-16	1.697831E-17
6.710000E+03	1.701385E-16	1.692578E-17
6.720000E+03	1.694426E-16	1.687226E-17
6.730000E+03	1.687490E-16	1.681745E-17
6.740000E+03	1.680630E-16	1.676193E-17
6.750000E+03	1.673786E-16	1.670512E-17
6.760000E+03	1.666986E-16	1.664735E-17
6.770000E+03	1.660230E-16	1.658866E-17
6.780000E+03	1.653492E-16	1.652885E-17
6.790000E+03	1.646778E-16	1.646799E-17
6.800000E+03	1.640095E-16	1.640621E-17
6.810000E+03	1.633485E-16	1.634395E-17
6.820000E+03	1.626930E-16	1.628109E-17
6.830000E+03	1.620416E-16	1.621751E-17
6.840000E+03	1.613991E-16	1.615373E-17
6.850000E+03	1.607673E-16	1.608997E-17
6.860000E+03	1.601483E-16	1.602645E-17
6.870000E+03	1.595412E-16	1.596315E-17
6.880000E+03	1.589482E-16	1.590029E-17
6.890000E+03	1.583745E-16	1.583842E-17
6.900000E+03	1.578191E-16	1.577749E-17
6.910000E+03	1.572842E-16	1.571772E-17
6.920000E+03	1.567715E-16	1.565933E-17
6.930000E+03	1.562828E-16	1.560249E-17
6.940000E+03	1.558195E-16	1.554738E-17
6.950000E+03	1.553827E-16	1.549413E-17
6.960000E+03	1.549702E-16	1.544254E-17
6.970000E+03	1.545828E-16	1.539267E-17
6.980000E+03	1.542234E-16	1.534485E-17
6.990000E+03	1.538919E-16	1.529907E-17
7.000000E+03	1.535818E-16	1.525468E-17
7.010000E+03	1.532982E-16	1.521219E-17
7.020000E+03	1.530369E-16	1.517118E-17
7.030000E+03	1.527961E-16	1.513149E-17
7.040000E+03	1.525712E-16	1.509262E-17
7.050000E+03	1.523630E-16	1.505467E-17
7.060000E+03	1.521691E-16	1.501738E-17
7.070000E+03	1.519870E-16	1.498050E-17
7.080000E+03	1.518112E-16	1.494345E-17
7.090000E+03	1.516388E-16	1.490596E-17
7.100000E+03	1.514703E-16	1.486803E-17
7.110000E+03	1.512999E-16	1.482910E-17
7.120000E+03	1.511221E-16	1.478860E-17
7.130000E+03	1.509404E-16	1.474688E-17
7.140000E+03	1.507498E-16	1.470340E-17
7.150000E+03	1.505482E-16	1.465797E-17
7.160000E+03	1.503309E-16	1.461010E-17
7.170000E+03	1.500996E-16	1.455997E-17
7.180000E+03	1.498533E-16	1.450746E-17
7.190000E+03	1.495883E-16	1.445223E-17
7.200000E+03	1.493044E-16	1.439425E-17
7.210000E+03	1.490046E-16	1.433383E-17
7.220000E+03	1.486865E-16	1.427076E-17
7.230000E+03	1.483509E-16	1.420513E-17
7.240000E+03	1.479990E-16	1.413711E-17
7.250000E+03	1.476326E-16	1.406689E-17
7.260000E+03	1.472504E-16	1.399443E-17
7.270000E+03	1.468608E-16	1.392058E-17
7.280000E+03	1.464636E-16	1.384538E-17
7.290000E+03	1.460552E-16	1.376861E-17
7.300000E+03	1.456483E-16	1.369154E-17
7.310000E+03	1.452369E-16	1.361375E-17
7.320000E+03	1.448309E-16	1.353629E-17
7.330000E+03	1.444311E-16	1.345937E-17
7.340000E+03	1.440416E-16	1.338356E-17
7.350000E+03	1.436636E-16	1.330913E-17
7.360000E+03	1.433015E-16	1.323670E-17
7.370000E+03	1.429599E-16	1.316690E-17
7.380000E+03	1.426435E-16	1.310040E-17
7.390000E+03	1.423508E-16	1.303732E-17
7.400000E+03	1.420898E-16	1.297864E-17
7.410000E+03	1.418592E-16	1.292452E-17
7.420000E+03	1.416606E-16	1.287542E-17
7.430000E+03	1.414957E-16	1.283178E-17
7.440000E+03	1.413722E-16	1.279462E-17
7.450000E+03	1.412945E-16	1.276466E-17
7.460000E+03	1.412732E-16	1.274315E-17
7.470000E+03	1.413186E-16	1.273133E-17
7.480000E+03	1.414315E-16	1.272958E-17
7.490000E+03	1.416186E-16	1.273876E-17
7.500000E+03	1.418894E-16	1.276002E-17
7.510000E+03	1.422407E-16	1.279327E-17
7.520000E+03	1.426811E-16	1.283953E-17
7.530000E+03	1.432128E-16	1.289915E-17
7.540000E+03	1.438373E-16	1.297242E-17
7.550000E+03	1.445557E-16	1.305954E-17
7.560000E+03	1.453686E-16	1.316061E-17
7.570000E+03	1.462793E-16	1.327598E-17
7.580000E+03	1.472840E-16	1.340529E-17
7.590000E+03	1.483854E-16	1.354873E-17
7.600000E+03	1.495788E-16	1.370581E-17
7.610000E+03	1.508660E-16	1.387661E-17
7.620000E+03	1.522451E-16	1.406084E-17
7.630000E+03	1.537102E-16	1.425784E-17
7.640000E+03	1.552624E-16	1.446756E-17
7.650000E+03	1.568989E-16	1.468961E-17
7.660000E+03	1.586131E-16	1.492319E-17
7.670000E+03	1.604052E-16	1.516821E-17
7.680000E+03	1.622680E-16	1.542381E-17
7.690000E+03	1.642055E-16	1.569023E-17
7.700000E+03	1.662060E-16	1.596621E-17
7.710000E+03	1.682693E-16	1.625158E-17
7.720000E+03	1.703870E-16	1.654538E-17
7.730000E+03	1.725585E-16	1.684743E-17
7.740000E+03	1.747791E-16	1.715714E-17
7.750000E+03	1.770436E-16	1.747387E-17
7.760000E+03	1.793426E-16	1.779656E-17
