#wls	flux	fluxerr
1.600000E+03	8.454061E-17	6.249991E-17
1.640000E+03	8.652972E-17	6.311152E-17
1.680000E+03	8.866647E-17	6.376612E-17
1.720000E+03	9.095053E-17	6.445692E-17
1.760000E+03	9.340086E-17	6.519034E-17
1.800000E+03	9.601719E-17	6.595854E-17
1.840000E+03	9.882817E-17	6.677290E-17
1.880000E+03	1.018240E-16	6.761772E-17
1.920000E+03	1.050431E-16	6.850882E-17
1.960000E+03	1.084855E-16	6.943533E-17
2.000000E+03	1.121610E-16	7.039215E-17
2.040000E+03	1.160894E-16	7.137938E-17
2.080000E+03	1.202904E-16	7.239586E-17
2.120000E+03	1.247747E-16	7.343360E-17
2.160000E+03	1.295441E-16	7.447840E-17
2.200000E+03	1.346484E-16	7.554271E-17
2.240000E+03	1.401191E-16	7.662568E-17
2.280000E+03	1.460838E-16	7.777545E-17
2.320000E+03	1.525568E-16	7.897353E-17
2.360000E+03	1.595538E-16	8.020075E-17
2.400000E+03	1.671210E-16	8.145132E-17
2.440000E+03	1.752974E-16	8.271266E-17
2.480000E+03	1.841722E-16	8.399240E-17
2.520000E+03	1.938006E-16	8.527692E-17
2.560000E+03	2.042706E-16	8.656282E-17
2.600000E+03	2.156476E-16	8.783144E-17
2.640000E+03	2.280234E-16	8.907008E-17
2.680000E+03	2.414797E-16	9.025637E-17
2.720000E+03	2.561197E-16	9.137040E-17
2.760000E+03	2.720413E-16	9.238454E-17
2.800000E+03	2.893313E-16	9.326221E-17
2.840000E+03	3.081180E-16	9.397559E-17
2.880000E+03	3.285076E-16	9.448484E-17
2.920000E+03	3.507086E-16	9.477466E-17
2.960000E+03	3.751432E-16	9.487522E-17
3.000000E+03	4.023049E-16	9.481246E-17
3.010000E+03	4.095936E-16	9.477540E-17
3.020000E+03	4.170988E-16	9.472986E-17
3.030000E+03	4.248271E-16	9.467531E-17
3.040000E+03	4.328062E-16	9.461576E-17
3.050000E+03	4.410334E-16	9.454834E-17
3.060000E+03	4.495271E-16	9.447470E-17
3.070000E+03	4.582956E-16	9.439428E-17
3.080000E+03	4.673583E-16	9.430867E-17
3.090000E+03	4.767248E-16	9.421730E-17
3.100000E+03	4.864156E-16	9.412171E-17
3.110000E+03	4.964411E-16	9.402133E-17
3.120000E+03	5.068125E-16	9.391568E-17
3.130000E+03	5.175520E-16	9.380630E-17
3.140000E+03	5.286717E-16	9.369273E-17
3.150000E+03	5.402060E-16	9.357838E-17
3.160000E+03	5.521465E-16	9.345908E-17
3.170000E+03	5.645286E-16	9.333829E-17
3.180000E+03	5.773666E-16	9.321574E-17
3.190000E+03	5.906862E-16	9.309301E-17
3.200000E+03	6.044912E-16	9.296823E-17
3.210000E+03	6.188192E-16	9.284487E-17
3.220000E+03	6.336857E-16	9.272295E-17
3.230000E+03	6.490944E-16	9.260100E-17
3.240000E+03	6.650836E-16	9.248265E-17
3.250000E+03	6.816796E-16	9.236986E-17
3.260000E+03	6.988733E-16	9.226001E-17
3.270000E+03	7.167013E-16	9.215696E-17
3.280000E+03	7.351756E-16	9.206154E-17
3.290000E+03	7.543063E-16	9.197478E-17
3.300000E+03	7.741012E-16	9.189788E-17
3.310000E+03	7.945777E-16	9.183363E-17
3.320000E+03	8.157377E-16	9.178351E-17
3.330000E+03	8.375788E-16	9.174914E-17
3.340000E+03	8.600939E-16	9.173227E-17
3.350000E+03	8.832702E-16	9.173471E-17
3.360000E+03	9.071009E-16	9.175965E-17
3.370000E+03	9.315464E-16	9.180756E-17
3.380000E+03	9.565713E-16	9.188018E-17
3.390000E+03	9.821306E-16	9.197905E-17
3.400000E+03	1.008169E-15	9.210545E-17
3.410000E+03	1.034621E-15	9.226022E-17
3.420000E+03	1.061395E-15	9.244258E-17
3.430000E+03	1.088388E-15	9.265116E-17
3.440000E+03	1.115509E-15	9.288628E-17
3.450000E+03	1.142632E-15	9.314512E-17
3.460000E+03	1.169604E-15	9.342297E-17
3.470000E+03	1.196286E-15	9.371653E-17
3.480000E+03	1.222520E-15	9.402054E-17
3.490000E+03	1.248124E-15	9.432784E-17
3.500000E+03	1.272913E-15	9.463061E-17
3.510000E+03	1.296727E-15	9.492253E-17
3.520000E+03	1.319336E-15	9.519162E-17
3.530000E+03	1.340571E-15	9.542988E-17
3.540000E+03	1.360200E-15	9.562419E-17
3.550000E+03	1.378020E-15	9.576286E-17
3.560000E+03	1.393842E-15	9.583476E-17
3.570000E+03	1.407483E-15	9.582865E-17
3.580000E+03	1.418800E-15	9.573533E-17
3.590000E+03	1.427649E-15	9.554500E-17
3.600000E+03	1.433917E-15	9.524943E-17
3.610000E+03	1.437563E-15	9.484478E-17
3.620000E+03	1.438596E-15	9.432969E-17
3.630000E+03	1.437066E-15	9.370527E-17
3.640000E+03	1.433069E-15	9.297501E-17
3.650000E+03	1.426755E-15	9.214547E-17
3.660000E+03	1.418274E-15	9.122279E-17
3.670000E+03	1.407822E-15	9.021592E-17
3.680000E+03	1.395603E-15	8.913394E-17
3.690000E+03	1.381847E-15	8.798753E-17
3.700000E+03	1.366784E-15	8.678720E-17
3.710000E+03	1.350663E-15	8.554462E-17
3.720000E+03	1.333733E-15	8.427169E-17
3.730000E+03	1.316236E-15	8.297961E-17
3.740000E+03	1.298415E-15	8.168019E-17
3.750000E+03	1.280510E-15	8.038489E-17
3.760000E+03	1.262724E-15	7.910341E-17
3.770000E+03	1.245292E-15	7.784747E-17
3.780000E+03	1.228379E-15	7.662486E-17
3.790000E+03	1.212192E-15	7.544628E-17
3.800000E+03	1.196859E-15	7.431776E-17
3.810000E+03	1.182524E-15	7.324676E-17
3.820000E+03	1.169291E-15	7.223840E-17
3.830000E+03	1.157248E-15	7.129722E-17
3.840000E+03	1.146462E-15	7.042653E-17
3.850000E+03	1.136971E-15	6.962831E-17
3.860000E+03	1.128782E-15	6.890272E-17
3.870000E+03	1.121887E-15	6.824914E-17
3.880000E+03	1.116254E-15	6.766565E-17
3.890000E+03	1.111825E-15	6.714902E-17
3.900000E+03	1.108506E-15	6.669377E-17
3.910000E+03	1.106214E-15	6.629534E-17
3.920000E+03	1.104814E-15	6.594604E-17
3.930000E+03	1.104171E-15	6.563831E-17
3.940000E+03	1.104144E-15	6.536433E-17
3.950000E+03	1.104548E-15	6.511373E-17
3.960000E+03	1.105233E-15	6.487829E-17
3.970000E+03	1.106020E-15	6.464817E-17
3.980000E+03	1.106725E-15	6.441324E-17
3.990000E+03	1.107204E-15	6.416572E-17
4.000000E+03	1.107287E-15	6.389653E-17
4.010000E+03	1.106831E-15	6.359799E-17
4.020000E+03	1.105725E-15	6.326448E-17
4.030000E+03	1.103867E-15	6.289068E-17
4.040000E+03	1.101167E-15	6.247218E-17
4.050000E+03	1.097596E-15	6.200792E-17
4.060000E+03	1.093107E-15	6.149589E-17
4.070000E+03	1.087713E-15	6.093736E-17
4.080000E+03	1.081426E-15	6.033351E-17
4.090000E+03	1.074302E-15	5.968798E-17
4.100000E+03	1.066390E-15	5.900399E-17
4.110000E+03	1.057777E-15	5.828681E-17
4.120000E+03	1.048531E-15	5.754044E-17
4.130000E+03	1.038753E-15	5.677088E-17
4.140000E+03	1.028534E-15	5.598331E-17
4.150000E+03	1.017969E-15	5.518316E-17
4.160000E+03	1.007135E-15	5.437472E-17
4.170000E+03	9.961224E-16	5.356307E-17
4.180000E+03	9.849989E-16	5.275188E-17
4.190000E+03	9.738215E-16	5.194425E-17
4.200000E+03	9.626364E-16	5.114263E-17
4.210000E+03	9.514936E-16	5.034964E-17
4.220000E+03	9.404180E-16	4.956652E-17
4.230000E+03	9.294327E-16	4.879436E-17
4.240000E+03	9.185456E-16	4.803344E-17
4.250000E+03	9.077659E-16	4.728407E-17
4.260000E+03	8.970987E-16	4.654632E-17
4.270000E+03	8.865402E-16	4.581976E-17
4.280000E+03	8.761008E-16	4.510465E-17
4.290000E+03	8.657791E-16	4.440064E-17
4.300000E+03	8.555919E-16	4.370824E-17
4.310000E+03	8.455415E-16	4.302720E-17
4.320000E+03	8.356644E-16	4.235894E-17
4.330000E+03	8.259854E-16	4.170425E-17
4.340000E+03	8.165513E-16	4.106497E-17
4.350000E+03	8.074177E-16	4.044332E-17
4.360000E+03	7.986425E-16	3.984155E-17
4.370000E+03	7.902911E-16	3.926224E-17
4.380000E+03	7.824169E-16	3.870730E-17
4.390000E+03	7.750969E-16	3.817974E-17
4.400000E+03	7.683861E-16	3.768142E-17
4.410000E+03	7.623708E-16	3.721569E-17
4.420000E+03	7.571103E-16	3.678448E-17
4.430000E+03	7.526710E-16	3.639002E-17
4.440000E+03	7.491055E-16	3.603376E-17
4.450000E+03	7.464680E-16	3.571718E-17
4.460000E+03	7.447936E-16	3.544076E-17
4.470000E+03	7.440899E-16	3.520360E-17
4.480000E+03	7.443594E-16	3.500452E-17
4.490000E+03	7.455976E-16	3.484195E-17
4.500000E+03	7.477551E-16	3.471223E-17
4.510000E+03	7.507731E-16	3.461127E-17
4.520000E+03	7.545768E-16	3.453431E-17
4.530000E+03	7.590571E-16	3.447511E-17
4.540000E+03	7.640956E-16	3.442718E-17
4.550000E+03	7.695477E-16	3.438308E-17
4.560000E+03	7.752375E-16	3.433425E-17
4.570000E+03	7.810056E-16	3.427328E-17
4.580000E+03	7.866420E-16	3.419097E-17
4.590000E+03	7.919685E-16	3.408009E-17
4.600000E+03	7.967647E-16	3.393226E-17
4.610000E+03	8.008468E-16	3.374140E-17
4.620000E+03	8.040199E-16	3.350181E-17
4.630000E+03	8.061112E-16	3.320964E-17
4.640000E+03	8.069686E-16	3.286284E-17
4.650000E+03	8.064600E-16	3.246110E-17
4.660000E+03	8.044907E-16	3.200659E-17
4.670000E+03	8.010008E-16	3.150362E-17
4.680000E+03	7.959737E-16	3.095879E-17
4.690000E+03	7.894166E-16	3.037994E-17
4.700000E+03	7.813867E-16	2.977677E-17
4.710000E+03	7.719686E-16	2.915951E-17
4.720000E+03	7.612841E-16	2.853876E-17
4.730000E+03	7.494735E-16	2.792430E-17
4.740000E+03	7.367104E-16	2.732520E-17
4.750000E+03	7.231632E-16	2.674810E-17
4.760000E+03	7.090343E-16	2.619862E-17
4.770000E+03	6.945041E-16	2.567948E-17
4.780000E+03	6.797709E-16	2.519234E-17
4.790000E+03	6.650101E-16	2.473688E-17
4.800000E+03	6.504077E-16	2.431265E-17
4.810000E+03	6.361216E-16	2.391818E-17
4.820000E+03	6.223089E-16	2.355248E-17
4.830000E+03	6.091071E-16	2.321464E-17
4.840000E+03	5.966431E-16	2.290436E-17
4.850000E+03	5.850167E-16	2.262135E-17
4.860000E+03	5.743158E-16	2.236589E-17
4.870000E+03	5.646165E-16	2.213868E-17
4.880000E+03	5.559672E-16	2.194014E-17
4.890000E+03	5.484100E-16	2.177105E-17
4.900000E+03	5.419616E-16	2.163164E-17
4.910000E+03	5.366338E-16	2.152227E-17
4.920000E+03	5.324157E-16	2.144257E-17
4.930000E+03	5.292889E-16	2.139198E-17
4.940000E+03	5.272298E-16	2.136971E-17
4.950000E+03	5.261960E-16	2.137414E-17
4.960000E+03	5.261428E-16	2.140346E-17
4.970000E+03	5.270197E-16	2.145547E-17
4.980000E+03	5.287677E-16	2.152742E-17
4.990000E+03	5.313403E-16	2.161693E-17
5.000000E+03	5.346664E-16	2.172041E-17
5.010000E+03	5.387056E-16	2.183537E-17
5.020000E+03	5.433908E-16	2.195809E-17
5.030000E+03	5.486842E-16	2.208589E-17
5.040000E+03	5.545330E-16	2.221541E-17
5.050000E+03	5.609108E-16	2.234426E-17
5.060000E+03	5.677766E-16	2.246945E-17
5.070000E+03	5.751113E-16	2.258883E-17
5.080000E+03	5.828904E-16	2.270003E-17
5.090000E+03	5.910992E-16	2.280110E-17
5.100000E+03	5.997322E-16	2.289047E-17
5.110000E+03	6.087687E-16	2.296600E-17
5.120000E+03	6.182055E-16	2.302626E-17
5.130000E+03	6.280325E-16	2.306958E-17
5.140000E+03	6.382309E-16	2.309400E-17
5.150000E+03	6.487901E-16	2.309787E-17
5.160000E+03	6.596760E-16	2.307874E-17
5.170000E+03	6.708733E-16	2.303492E-17
5.180000E+03	6.823416E-16	2.296392E-17
5.190000E+03	6.940332E-16	2.286319E-17
5.200000E+03	7.059065E-16	2.273064E-17
5.210000E+03	7.178998E-16	2.256388E-17
5.220000E+03	7.299584E-16	2.236127E-17
5.230000E+03	7.420003E-16	2.212099E-17
5.240000E+03	7.539663E-16	2.184285E-17
5.250000E+03	7.657709E-16	2.152698E-17
5.260000E+03	7.773323E-16	2.117512E-17
5.270000E+03	7.885578E-16	2.079046E-17
5.280000E+03	7.993688E-16	2.037871E-17
5.290000E+03	8.096793E-16	1.994784E-17
5.300000E+03	8.193973E-16	1.950844E-17
5.310000E+03	8.284419E-16	1.907430E-17
5.320000E+03	8.367462E-16	1.866238E-17
5.330000E+03	8.442343E-16	1.829186E-17
5.340000E+03	8.508559E-16	1.798383E-17
5.350000E+03	8.565467E-16	1.775879E-17
5.360000E+03	8.612886E-16	1.763551E-17
5.370000E+03	8.650439E-16	1.762697E-17
5.380000E+03	8.678160E-16	1.773927E-17
5.390000E+03	8.696155E-16	1.796991E-17
5.400000E+03	8.704678E-16	1.830864E-17
5.410000E+03	8.703941E-16	1.873916E-17
5.420000E+03	8.694602E-16	1.924275E-17
5.430000E+03	8.677145E-16	1.979931E-17
5.440000E+03	8.652024E-16	2.038946E-17
5.450000E+03	8.620073E-16	2.099660E-17
5.460000E+03	8.581794E-16	2.160583E-17
5.470000E+03	8.537856E-16	2.220528E-17
5.480000E+03	8.488902E-16	2.278558E-17
5.490000E+03	8.435535E-16	2.333961E-17
5.500000E+03	8.378310E-16	2.386213E-17
5.510000E+03	8.317552E-16	2.434900E-17
5.520000E+03	8.253868E-16	2.479831E-17
5.530000E+03	8.187549E-16	2.520842E-17
5.540000E+03	8.118837E-16	2.557847E-17
5.550000E+03	8.048093E-16	2.590871E-17
5.560000E+03	7.975395E-16	2.619912E-17
5.570000E+03	7.901047E-16	2.645083E-17
5.580000E+03	7.825257E-16	2.666504E-17
5.590000E+03	7.748075E-16	2.684271E-17
5.600000E+03	7.669891E-16	2.698617E-17
5.610000E+03	7.590799E-16	2.709689E-17
5.620000E+03	7.511169E-16	2.717745E-17
5.630000E+03	7.431338E-16	2.723040E-17
5.640000E+03	7.351615E-16	2.725826E-17
5.650000E+03	7.272523E-16	2.726437E-17
5.660000E+03	7.194410E-16	2.725144E-17
5.670000E+03	7.117983E-16	2.722354E-17
5.680000E+03	7.043776E-16	2.718406E-17
5.690000E+03	6.972512E-16	2.713711E-17
5.700000E+03	6.904728E-16	2.708605E-17
5.710000E+03	6.841277E-16	2.703541E-17
5.720000E+03	6.782793E-16	2.698882E-17
5.730000E+03	6.729972E-16	2.695012E-17
5.740000E+03	6.683549E-16	2.692322E-17
5.750000E+03	6.644129E-16	2.691145E-17
5.760000E+03	6.612104E-16	2.691719E-17
5.770000E+03	6.588120E-16	2.694379E-17
5.780000E+03	6.572351E-16	2.699256E-17
5.790000E+03	6.565043E-16	2.706504E-17
5.800000E+03	6.566287E-16	2.716200E-17
5.810000E+03	6.575787E-16	2.728255E-17
5.820000E+03	6.593350E-16	2.742610E-17
5.830000E+03	6.618375E-16	2.759030E-17
5.840000E+03	6.650215E-16	2.777253E-17
5.850000E+03	6.687888E-16	2.796872E-17
5.860000E+03	6.730459E-16	2.817493E-17
5.870000E+03	6.776538E-16	2.838532E-17
5.880000E+03	6.824910E-16	2.859479E-17
5.890000E+03	6.874038E-16	2.879689E-17
5.900000E+03	6.922491E-16	2.898568E-17
5.910000E+03	6.968678E-16	2.915458E-17
5.920000E+03	7.011213E-16	2.929795E-17
5.930000E+03	7.048733E-16	2.941028E-17
5.940000E+03	7.080101E-16	2.948710E-17
5.950000E+03	7.104122E-16	2.952371E-17
5.960000E+03	7.120234E-16	2.951812E-17
5.970000E+03	7.127703E-16	2.946764E-17
5.980000E+03	7.126298E-16	2.937166E-17
5.990000E+03	7.115950E-16	2.923027E-17
6.000000E+03	7.096823E-16	2.904451E-17
6.010000E+03	7.069375E-16	2.881661E-17
6.020000E+03	7.034150E-16	2.854914E-17
6.030000E+03	6.991827E-16	2.824524E-17
6.040000E+03	6.943176E-16	2.790840E-17
6.050000E+03	6.889101E-16	2.754271E-17
6.060000E+03	6.830348E-16	2.715166E-17
6.070000E+03	6.767810E-16	2.673940E-17
6.080000E+03	6.702238E-16	2.630965E-17
6.090000E+03	6.634395E-16	2.586635E-17
6.100000E+03	6.564784E-16	2.541260E-17
6.110000E+03	6.494063E-16	2.495241E-17
6.120000E+03	6.422459E-16	2.448842E-17
6.130000E+03	6.350436E-16	2.402456E-17
6.140000E+03	6.278135E-16	2.356396E-17
6.150000E+03	6.205795E-16	2.311051E-17
6.160000E+03	6.133448E-16	2.266777E-17
6.170000E+03	6.061349E-16	2.224044E-17
6.180000E+03	5.989588E-16	2.183287E-17
6.190000E+03	5.918279E-16	2.144949E-17
6.200000E+03	5.847579E-16	2.109471E-17
6.210000E+03	5.777778E-16	2.077291E-17
6.220000E+03	5.709157E-16	2.048763E-17
6.230000E+03	5.641990E-16	2.024129E-17
6.240000E+03	5.576775E-16	2.003586E-17
6.250000E+03	5.513914E-16	1.987162E-17
6.260000E+03	5.453995E-16	1.974833E-17
6.270000E+03	5.397546E-16	1.966453E-17
6.280000E+03	5.345074E-16	1.961802E-17
6.290000E+03	5.296968E-16	1.960588E-17
6.300000E+03	5.253840E-16	1.962604E-17
6.310000E+03	5.215903E-16	1.967523E-17
6.320000E+03	5.183406E-16	1.975074E-17
6.330000E+03	5.156466E-16	1.984995E-17
6.340000E+03	5.135063E-16	1.997026E-17
6.350000E+03	5.118969E-16	2.010884E-17
6.360000E+03	5.107974E-16	2.026344E-17
6.370000E+03	5.101677E-16	2.043147E-17
6.380000E+03	5.099576E-16	2.061035E-17
6.390000E+03	5.101009E-16	2.079715E-17
6.400000E+03	5.105336E-16	2.098921E-17
6.410000E+03	5.111654E-16	2.118302E-17
6.420000E+03	5.119362E-16	2.137636E-17
6.430000E+03	5.127500E-16	2.156561E-17
6.440000E+03	5.135387E-16	2.174832E-17
6.450000E+03	5.142264E-16	2.192168E-17
6.460000E+03	5.147548E-16	2.208356E-17
6.470000E+03	5.150771E-16	2.223226E-17
6.480000E+03	5.151672E-16	2.236691E-17
6.490000E+03	5.149966E-16	2.248641E-17
6.500000E+03	5.145657E-16	2.259088E-17
6.510000E+03	5.138795E-16	2.268054E-17
6.520000E+03	5.129621E-16	2.275639E-17
6.530000E+03	5.118387E-16	2.281942E-17
6.540000E+03	5.105579E-16	2.287166E-17
6.550000E+03	5.091484E-16	2.291417E-17
6.560000E+03	5.076736E-16	2.294960E-17
6.570000E+03	5.061637E-16	2.297908E-17
6.580000E+03	5.046627E-16	2.300436E-17
6.590000E+03	5.032182E-16	2.302737E-17
6.600000E+03	5.018551E-16	2.304900E-17
6.610000E+03	5.006071E-16	2.307059E-17
6.620000E+03	4.994834E-16	2.309237E-17
6.630000E+03	4.985010E-16	2.311496E-17
6.640000E+03	4.976517E-16	2.313789E-17
6.650000E+03	4.969274E-16	2.316074E-17
6.660000E+03	4.963209E-16	2.318320E-17
6.670000E+03	4.958099E-16	2.320437E-17
6.680000E+03	4.953587E-16	2.322275E-17
6.690000E+03	4.949354E-16	2.323716E-17
6.700000E+03	4.945140E-16	2.324671E-17
6.710000E+03	4.940504E-16	2.324974E-17
6.720000E+03	4.935173E-16	2.324538E-17
6.730000E+03	4.928805E-16	2.323248E-17
6.740000E+03	4.921001E-16	2.320956E-17
6.750000E+03	4.911570E-16	2.317610E-17
6.760000E+03	4.900284E-16	2.313134E-17
6.770000E+03	4.886885E-16	2.307429E-17
6.780000E+03	4.871262E-16	2.300461E-17
6.790000E+03	4.853540E-16	2.292296E-17
6.800000E+03	4.833567E-16	2.282868E-17
6.810000E+03	4.811514E-16	2.272255E-17
6.820000E+03	4.787527E-16	2.260520E-17
6.830000E+03	4.761723E-16	2.247714E-17
6.840000E+03	4.734442E-16	2.233992E-17
6.850000E+03	4.705897E-16	2.219450E-17
6.860000E+03	4.676591E-16	2.204324E-17
6.870000E+03	4.646710E-16	2.188706E-17
6.880000E+03	4.616630E-16	2.172778E-17
6.890000E+03	4.586902E-16	2.156810E-17
6.900000E+03	4.557736E-16	2.140914E-17
6.910000E+03	4.529587E-16	2.125319E-17
6.920000E+03	4.502719E-16	2.110167E-17
6.930000E+03	4.477542E-16	2.095668E-17
6.940000E+03	4.454343E-16	2.081974E-17
6.950000E+03	4.433289E-16	2.069180E-17
6.960000E+03	4.414666E-16	2.057435E-17
6.970000E+03	4.398543E-16	2.046785E-17
6.980000E+03	4.385100E-16	2.037324E-17
6.990000E+03	4.374374E-16	2.029079E-17
7.000000E+03	4.366260E-16	2.022006E-17
7.010000E+03	4.360757E-16	2.016107E-17
7.020000E+03	4.357635E-16	2.011277E-17
7.030000E+03	4.356687E-16	2.007420E-17
7.040000E+03	4.357739E-16	2.004453E-17
7.050000E+03	4.360478E-16	2.002227E-17
7.060000E+03	4.364381E-16	2.000495E-17
7.070000E+03	4.369229E-16	1.999153E-17
7.080000E+03	4.374615E-16	1.998004E-17
7.090000E+03	4.380028E-16	1.996809E-17
7.100000E+03	4.385049E-16	1.995366E-17
7.110000E+03	4.389270E-16	1.993480E-17
7.120000E+03	4.392402E-16	1.991008E-17
7.130000E+03	4.393924E-16	1.987701E-17
7.140000E+03	4.393722E-16	1.983494E-17
7.150000E+03	4.391556E-16	1.978264E-17
7.160000E+03	4.387066E-16	1.971831E-17
7.170000E+03	4.380221E-16	1.964165E-17
7.180000E+03	4.370962E-16	1.955219E-17
7.190000E+03	4.359373E-16	1.945013E-17
7.200000E+03	4.345317E-16	1.933465E-17
7.210000E+03	4.329059E-16	1.920673E-17
7.220000E+03	4.310532E-16	1.906586E-17
7.230000E+03	4.290061E-16	1.891328E-17
7.240000E+03	4.267613E-16	1.874865E-17
7.250000E+03	4.243439E-16	1.857288E-17
7.260000E+03	4.217789E-16	1.838691E-17
7.270000E+03	4.190634E-16	1.819045E-17
7.280000E+03	4.162208E-16	1.798439E-17
7.290000E+03	4.132649E-16	1.776924E-17
7.300000E+03	4.102082E-16	1.754547E-17
7.310000E+03	4.070627E-16	1.731358E-17
7.320000E+03	4.038489E-16	1.707450E-17
7.330000E+03	4.005601E-16	1.682803E-17
7.340000E+03	3.972260E-16	1.657559E-17
7.350000E+03	3.938500E-16	1.631758E-17
7.360000E+03	3.904540E-16	1.605524E-17
7.370000E+03	3.870438E-16	1.578924E-17
7.380000E+03	3.836527E-16	1.552150E-17
7.390000E+03	3.802981E-16	1.525337E-17
7.400000E+03	3.769986E-16	1.498644E-17
7.410000E+03	3.737833E-16	1.472285E-17
7.420000E+03	3.706737E-16	1.446462E-17
7.430000E+03	3.677097E-16	1.421471E-17
7.440000E+03	3.648978E-16	1.397499E-17
7.450000E+03	3.622794E-16	1.374895E-17
7.460000E+03	3.598705E-16	1.353932E-17
7.470000E+03	3.576868E-16	1.334908E-17
7.480000E+03	3.557608E-16	1.318198E-17
7.490000E+03	3.540890E-16	1.304054E-17
7.500000E+03	3.527089E-16	1.292874E-17
7.510000E+03	3.516291E-16	1.284927E-17
7.520000E+03	3.508541E-16	1.280428E-17
7.530000E+03	3.504005E-16	1.279578E-17
7.540000E+03	3.502622E-16	1.282419E-17
7.550000E+03	3.504268E-16	1.288887E-17
7.560000E+03	3.509023E-16	1.298916E-17
7.570000E+03	3.516660E-16	1.312258E-17
7.580000E+03	3.526913E-16	1.328603E-17
7.590000E+03	3.539671E-16	1.347664E-17
7.600000E+03	3.554635E-16	1.369074E-17
7.610000E+03	3.571591E-16	1.392498E-17
7.620000E+03	3.590426E-16	1.417658E-17
7.630000E+03	3.610950E-16	1.444267E-17
7.640000E+03	3.632804E-16	1.471996E-17
7.650000E+03	3.656021E-16	1.500702E-17
7.660000E+03	3.680377E-16	1.530164E-17
7.670000E+03	3.705762E-16	1.560236E-17
7.680000E+03	3.732186E-16	1.590844E-17
7.690000E+03	3.759484E-16	1.621859E-17
7.700000E+03	3.787601E-16	1.653219E-17
7.710000E+03	3.816599E-16	1.684920E-17
7.720000E+03	3.846345E-16	1.716890E-17
7.730000E+03	3.876912E-16	1.749150E-17
7.740000E+03	3.908167E-16	1.781638E-17
7.750000E+03	3.940179E-16	1.814385E-17
7.760000E+03	3.972794E-16	1.847322E-17
