#wls	flux	fluxerr
1.600000E+03	6.534601E-17	4.760032E-17
1.640000E+03	6.533409E-17	4.691463E-17
1.680000E+03	6.532873E-17	4.621527E-17
1.720000E+03	6.534861E-17	4.551476E-17
1.760000E+03	6.537233E-17	4.479734E-17
1.800000E+03	6.542793E-17	4.408150E-17
1.840000E+03	6.550368E-17	4.335811E-17
1.880000E+03	6.561690E-17	4.263742E-17
1.920000E+03	6.577462E-17	4.192228E-17
1.960000E+03	6.598344E-17	4.121483E-17
2.000000E+03	6.624945E-17	4.051652E-17
2.040000E+03	6.658748E-17	3.983363E-17
2.080000E+03	6.701141E-17	3.917099E-17
2.120000E+03	6.752513E-17	3.852689E-17
2.160000E+03	6.814087E-17	3.790387E-17
2.200000E+03	6.886980E-17	3.730310E-17
2.240000E+03	6.971332E-17	3.671978E-17
2.280000E+03	7.067219E-17	3.614858E-17
2.320000E+03	7.174652E-17	3.558362E-17
2.360000E+03	7.293570E-17	3.501858E-17
2.400000E+03	7.423848E-17	3.444677E-17
2.440000E+03	7.565289E-17	3.386119E-17
2.480000E+03	7.716040E-17	3.324778E-17
2.520000E+03	7.875846E-17	3.260032E-17
2.560000E+03	8.044384E-17	3.191255E-17
2.600000E+03	8.221268E-17	3.117829E-17
2.640000E+03	8.404560E-17	3.038615E-17
2.680000E+03	8.594554E-17	2.953401E-17
2.720000E+03	8.789998E-17	2.861472E-17
2.760000E+03	8.991038E-17	2.762673E-17
2.800000E+03	9.195645E-17	2.656245E-17
2.840000E+03	9.403870E-17	2.542192E-17
2.880000E+03	9.613024E-17	2.419882E-17
2.920000E+03	9.821842E-17	2.289280E-17
2.960000E+03	1.003162E-16	2.151075E-17
3.000000E+03	1.024164E-16	2.005550E-17
3.010000E+03	1.029491E-16	1.968229E-17
3.020000E+03	1.034801E-16	1.930453E-17
3.030000E+03	1.040153E-16	1.892344E-17
3.040000E+03	1.045544E-16	1.853901E-17
3.050000E+03	1.050972E-16	1.815127E-17
3.060000E+03	1.056375E-16	1.775925E-17
3.070000E+03	1.061869E-16	1.736502E-17
3.080000E+03	1.067452E-16	1.696853E-17
3.090000E+03	1.073003E-16	1.656797E-17
3.100000E+03	1.078638E-16	1.616524E-17
3.110000E+03	1.084354E-16	1.576034E-17
3.120000E+03	1.090149E-16	1.535330E-17
3.130000E+03	1.096020E-16	1.494414E-17
3.140000E+03	1.101965E-16	1.453291E-17
3.150000E+03	1.107984E-16	1.411968E-17
3.160000E+03	1.114130E-16	1.370523E-17
3.170000E+03	1.120401E-16	1.328957E-17
3.180000E+03	1.126742E-16	1.287211E-17
3.190000E+03	1.133262E-16	1.245420E-17
3.200000E+03	1.139906E-16	1.203525E-17
3.210000E+03	1.146674E-16	1.161539E-17
3.220000E+03	1.153622E-16	1.119525E-17
3.230000E+03	1.160805E-16	1.077542E-17
3.240000E+03	1.168117E-16	1.035498E-17
3.250000E+03	1.175671E-16	9.935031E-18
3.260000E+03	1.183418E-16	9.515258E-18
3.270000E+03	1.191470E-16	9.096657E-18
3.280000E+03	1.199782E-16	8.678956E-18
3.290000E+03	1.208367E-16	8.262372E-18
3.300000E+03	1.217287E-16	7.847502E-18
3.310000E+03	1.226561E-16	7.434603E-18
3.320000E+03	1.236257E-16	7.024287E-18
3.330000E+03	1.246351E-16	6.616632E-18
3.340000E+03	1.256971E-16	6.212639E-18
3.350000E+03	1.268103E-16	5.812600E-18
3.360000E+03	1.279838E-16	5.417470E-18
3.370000E+03	1.292179E-16	5.027979E-18
3.380000E+03	1.305334E-16	4.645934E-18
3.390000E+03	1.319280E-16	4.272598E-18
3.400000E+03	1.334153E-16	3.910428E-18
3.410000E+03	1.350107E-16	3.562736E-18
3.420000E+03	1.367270E-16	3.234003E-18
3.430000E+03	1.385791E-16	2.930605E-18
3.440000E+03	1.405892E-16	2.661571E-18
3.450000E+03	1.427778E-16	2.438861E-18
3.460000E+03	1.451717E-16	2.277155E-18
3.470000E+03	1.477844E-16	2.191049E-18
3.480000E+03	1.506474E-16	2.190344E-18
3.490000E+03	1.537566E-16	2.273531E-18
3.500000E+03	1.570939E-16	2.428349E-18
3.510000E+03	1.606379E-16	2.637867E-18
3.520000E+03	1.643545E-16	2.885540E-18
3.530000E+03	1.682190E-16	3.157879E-18
3.540000E+03	1.721970E-16	3.444425E-18
3.550000E+03	1.762604E-16	3.737476E-18
3.560000E+03	1.803729E-16	4.031140E-18
3.570000E+03	1.845152E-16	4.321336E-18
3.580000E+03	1.886607E-16	4.604889E-18
3.590000E+03	1.927809E-16	4.879349E-18
3.600000E+03	1.968607E-16	5.143204E-18
3.610000E+03	2.008838E-16	5.395399E-18
3.620000E+03	2.048433E-16	5.635509E-18
3.630000E+03	2.087266E-16	5.863263E-18
3.640000E+03	2.125363E-16	6.079042E-18
3.650000E+03	2.162749E-16	6.283404E-18
3.660000E+03	2.199550E-16	6.477329E-18
3.670000E+03	2.235846E-16	6.661715E-18
3.680000E+03	2.271975E-16	6.838242E-18
3.690000E+03	2.308073E-16	7.007963E-18
3.700000E+03	2.344483E-16	7.172476E-18
3.710000E+03	2.381649E-16	7.333596E-18
3.720000E+03	2.419916E-16	7.492700E-18
3.730000E+03	2.459780E-16	7.651484E-18
3.740000E+03	2.501832E-16	7.811794E-18
3.750000E+03	2.546560E-16	7.974980E-18
3.760000E+03	2.594593E-16	8.142680E-18
3.770000E+03	2.646602E-16	8.316505E-18
3.780000E+03	2.703297E-16	8.498026E-18
3.790000E+03	2.765367E-16	8.688611E-18
3.800000E+03	2.833585E-16	8.889738E-18
3.810000E+03	2.908692E-16	9.102650E-18
3.820000E+03	2.991557E-16	9.328836E-18
3.830000E+03	3.082947E-16	9.569329E-18
3.840000E+03	3.183686E-16	9.825170E-18
3.850000E+03	3.294466E-16	1.009684E-17
3.860000E+03	3.416172E-16	1.038526E-17
3.870000E+03	3.549470E-16	1.069047E-17
3.880000E+03	3.695002E-16	1.101231E-17
3.890000E+03	3.853178E-16	1.134974E-17
3.900000E+03	4.024512E-16	1.170191E-17
3.910000E+03	4.209088E-16	1.206661E-17
3.920000E+03	4.406960E-16	1.244150E-17
3.930000E+03	4.617787E-16	1.282312E-17
3.940000E+03	4.840914E-16	1.320733E-17
3.950000E+03	5.075571E-16	1.358990E-17
3.960000E+03	5.320232E-16	1.396499E-17
3.970000E+03	5.573366E-16	1.432741E-17
3.980000E+03	5.832803E-16	1.467109E-17
3.990000E+03	6.095976E-16	1.499004E-17
4.000000E+03	6.360139E-16	1.527903E-17
4.010000E+03	6.621985E-16	1.553280E-17
4.020000E+03	6.878398E-16	1.574788E-17
4.030000E+03	7.125835E-16	1.592092E-17
4.040000E+03	7.361039E-16	1.605018E-17
4.050000E+03	7.581096E-16	1.613548E-17
4.060000E+03	7.783128E-16	1.617734E-17
4.070000E+03	7.965031E-16	1.617843E-17
4.080000E+03	8.125027E-16	1.614232E-17
4.090000E+03	8.262057E-16	1.607399E-17
4.100000E+03	8.375722E-16	1.597910E-17
4.110000E+03	8.466321E-16	1.586351E-17
4.120000E+03	8.534627E-16	1.573211E-17
4.130000E+03	8.582526E-16	1.558964E-17
4.140000E+03	8.611998E-16	1.543869E-17
4.150000E+03	8.625739E-16	1.528125E-17
4.160000E+03	8.626317E-16	1.511763E-17
4.170000E+03	8.616674E-16	1.494795E-17
4.180000E+03	8.599530E-16	1.477164E-17
4.190000E+03	8.577265E-16	1.458772E-17
4.200000E+03	8.551960E-16	1.439523E-17
4.210000E+03	8.525665E-16	1.419390E-17
4.220000E+03	8.499522E-16	1.398271E-17
4.230000E+03	8.474815E-16	1.376166E-17
4.240000E+03	8.452023E-16	1.353005E-17
4.250000E+03	8.431554E-16	1.328739E-17
4.260000E+03	8.413232E-16	1.303231E-17
4.270000E+03	8.396717E-16	1.276287E-17
4.280000E+03	8.381110E-16	1.247570E-17
4.290000E+03	8.365191E-16	1.216646E-17
4.300000E+03	8.347845E-16	1.183071E-17
4.310000E+03	8.327123E-16	1.146302E-17
4.320000E+03	8.301394E-16	1.105939E-17
4.330000E+03	8.268726E-16	1.061727E-17
4.340000E+03	8.227240E-16	1.013680E-17
4.350000E+03	8.175067E-16	9.621272E-18
4.360000E+03	8.110208E-16	9.077459E-18
4.370000E+03	8.031193E-16	8.517184E-18
4.380000E+03	7.936573E-16	7.957849E-18
4.390000E+03	7.825597E-16	7.423978E-18
4.400000E+03	7.698148E-16	6.946335E-18
4.410000E+03	7.555211E-16	6.558290E-18
4.420000E+03	7.399172E-16	6.286227E-18
4.430000E+03	7.235579E-16	6.134714E-18
4.440000E+03	7.072741E-16	6.082722E-18
4.450000E+03	6.920144E-16	6.101371E-18
4.460000E+03	6.786490E-16	6.166791E-18
4.470000E+03	6.679458E-16	6.264058E-18
4.480000E+03	6.605124E-16	6.385253E-18
4.490000E+03	6.568070E-16	6.526584E-18
4.500000E+03	6.571349E-16	6.686184E-18
4.510000E+03	6.617336E-16	6.863686E-18
4.520000E+03	6.707470E-16	7.059115E-18
4.530000E+03	6.842619E-16	7.272650E-18
4.540000E+03	7.023234E-16	7.504303E-18
4.550000E+03	7.248955E-16	7.753008E-18
4.560000E+03	7.518545E-16	8.016149E-18
4.570000E+03	7.829769E-16	8.289057E-18
4.580000E+03	8.178575E-16	8.564004E-18
4.590000E+03	8.559557E-16	8.831178E-18
4.600000E+03	8.964886E-16	9.078504E-18
4.610000E+03	9.384875E-16	9.293458E-18
4.620000E+03	9.807674E-16	9.464145E-18
4.630000E+03	1.021975E-15	9.580952E-18
4.640000E+03	1.060604E-15	9.637252E-18
4.650000E+03	1.095151E-15	9.630358E-18
4.660000E+03	1.124207E-15	9.560335E-18
4.670000E+03	1.146595E-15	9.428664E-18
4.680000E+03	1.161545E-15	9.237566E-18
4.690000E+03	1.168802E-15	8.989533E-18
4.700000E+03	1.168680E-15	8.688522E-18
4.710000E+03	1.162027E-15	8.343722E-18
4.720000E+03	1.150101E-15	7.973616E-18
4.730000E+03	1.134437E-15	7.607499E-18
4.740000E+03	1.116647E-15	7.282397E-18
4.750000E+03	1.098184E-15	7.032523E-18
4.760000E+03	1.079781E-15	6.866447E-18
4.770000E+03	1.061153E-15	6.754697E-18
4.780000E+03	1.041623E-15	6.652536E-18
4.790000E+03	1.020593E-15	6.521413E-18
4.800000E+03	9.977515E-16	6.338325E-18
4.810000E+03	9.730805E-16	6.098868E-18
4.820000E+03	9.468768E-16	5.818839E-18
4.830000E+03	9.196300E-16	5.535206E-18
4.840000E+03	8.919112E-16	5.304242E-18
4.850000E+03	8.643109E-16	5.189907E-18
4.860000E+03	8.374375E-16	5.233277E-18
4.870000E+03	8.120455E-16	5.417428E-18
4.880000E+03	7.889047E-16	5.685088E-18
4.890000E+03	7.686574E-16	5.981221E-18
4.900000E+03	7.517397E-16	6.268327E-18
4.910000E+03	7.384396E-16	6.525680E-18
4.920000E+03	7.289290E-16	6.744319E-18
4.930000E+03	7.232586E-16	6.922224E-18
4.940000E+03	7.214351E-16	7.061839E-18
4.950000E+03	7.233515E-16	7.167761E-18
4.960000E+03	7.288758E-16	7.246857E-18
4.970000E+03	7.377473E-16	7.306701E-18
4.980000E+03	7.496240E-16	7.355179E-18
4.990000E+03	7.639850E-16	7.398325E-18
5.000000E+03	7.801071E-16	7.439307E-18
5.010000E+03	7.970909E-16	7.478944E-18
5.020000E+03	8.139019E-16	7.516742E-18
5.030000E+03	8.294531E-16	7.551961E-18
5.040000E+03	8.426778E-16	7.583982E-18
5.050000E+03	8.526720E-16	7.612277E-18
5.060000E+03	8.588036E-16	7.635366E-18
5.070000E+03	8.607613E-16	7.649434E-18
5.080000E+03	8.586160E-16	7.647711E-18
5.090000E+03	8.527951E-16	7.621083E-18
5.100000E+03	8.439977E-16	7.561041E-18
5.110000E+03	8.330751E-16	7.463176E-18
5.120000E+03	8.209326E-16	7.329312E-18
5.130000E+03	8.084168E-16	7.167477E-18
5.140000E+03	7.963103E-16	6.991034E-18
5.150000E+03	7.852690E-16	6.815980E-18
5.160000E+03	7.757782E-16	6.657459E-18
5.170000E+03	7.681881E-16	6.526672E-18
5.180000E+03	7.626846E-16	6.428780E-18
5.190000E+03	7.593619E-16	6.364415E-18
5.200000E+03	7.582539E-16	6.332015E-18
5.210000E+03	7.593757E-16	6.329725E-18
5.220000E+03	7.627695E-16	6.356421E-18
5.230000E+03	7.684829E-16	6.411124E-18
5.240000E+03	7.765963E-16	6.492378E-18
5.250000E+03	7.871693E-16	6.597289E-18
5.260000E+03	8.002628E-16	6.721268E-18
5.270000E+03	8.158938E-16	6.857511E-18
5.280000E+03	8.339943E-16	6.997507E-18
5.290000E+03	8.544469E-16	7.132590E-18
5.300000E+03	8.770332E-16	7.254593E-18
5.310000E+03	9.014567E-16	7.357136E-18
5.320000E+03	9.273478E-16	7.436606E-18
5.330000E+03	9.542471E-16	7.492875E-18
5.340000E+03	9.816528E-16	7.530651E-18
5.350000E+03	1.009032E-15	7.560026E-18
5.360000E+03	1.035883E-15	7.596509E-18
5.370000E+03	1.061721E-15	7.658871E-18
5.380000E+03	1.086146E-15	7.762865E-18
5.390000E+03	1.108810E-15	7.913376E-18
5.400000E+03	1.129474E-15	8.106701E-18
5.410000E+03	1.147927E-15	8.332813E-18
5.420000E+03	1.163986E-15	8.576967E-18
5.430000E+03	1.177521E-15	8.824322E-18
5.440000E+03	1.188504E-15	9.063120E-18
5.450000E+03	1.197023E-15	9.285514E-18
5.460000E+03	1.203220E-15	9.487481E-18
5.470000E+03	1.207347E-15	9.668848E-18
5.480000E+03	1.209686E-15	9.831673E-18
5.490000E+03	1.210516E-15	9.978983E-18
5.500000E+03	1.210102E-15	1.011335E-17
5.510000E+03	1.208653E-15	1.023528E-17
5.520000E+03	1.206274E-15	1.034229E-17
5.530000E+03	1.203003E-15	1.042917E-17
5.540000E+03	1.198727E-15	1.048754E-17
5.550000E+03	1.193277E-15	1.050812E-17
5.560000E+03	1.186404E-15	1.048234E-17
5.570000E+03	1.177810E-15	1.040415E-17
5.580000E+03	1.167181E-15	1.027156E-17
5.590000E+03	1.154230E-15	1.008765E-17
5.600000E+03	1.138686E-15	9.859871E-18
5.610000E+03	1.120361E-15	9.599048E-18
5.620000E+03	1.099180E-15	9.317039E-18
5.630000E+03	1.075132E-15	9.024001E-18
5.640000E+03	1.048361E-15	8.728249E-18
5.650000E+03	1.019086E-15	8.435129E-18
5.660000E+03	9.876773E-16	8.147810E-18
5.670000E+03	9.545869E-16	7.867739E-18
5.680000E+03	9.203492E-16	7.595700E-18
5.690000E+03	8.855932E-16	7.332658E-18
5.700000E+03	8.509805E-16	7.080157E-18
5.710000E+03	8.172238E-16	6.840961E-18
5.720000E+03	7.849992E-16	6.618260E-18
5.730000E+03	7.549859E-16	6.415863E-18
5.740000E+03	7.277908E-16	6.237091E-18
5.750000E+03	7.039350E-16	6.084108E-18
5.760000E+03	6.838857E-16	5.958064E-18
5.770000E+03	6.680040E-16	5.858608E-18
5.780000E+03	6.565666E-16	5.784310E-18
5.790000E+03	6.497834E-16	5.733782E-18
5.800000E+03	6.478073E-16	5.706804E-18
5.810000E+03	6.507695E-16	5.704991E-18
5.820000E+03	6.587279E-16	5.730991E-18
5.830000E+03	6.717036E-16	5.787929E-18
5.840000E+03	6.896084E-16	5.878060E-18
5.850000E+03	7.122593E-16	6.002794E-18
5.860000E+03	7.393283E-16	6.162205E-18
5.870000E+03	7.703480E-16	6.354659E-18
5.880000E+03	8.046640E-16	6.575725E-18
5.890000E+03	8.414615E-16	6.817260E-18
5.900000E+03	8.797467E-16	7.066645E-18
5.910000E+03	9.183661E-16	7.308242E-18
5.920000E+03	9.560781E-16	7.526484E-18
5.930000E+03	9.915989E-16	7.708447E-18
5.940000E+03	1.023648E-15	7.845339E-18
5.950000E+03	1.051100E-15	7.933115E-18
5.960000E+03	1.073043E-15	7.971184E-18
5.970000E+03	1.088805E-15	7.960792E-18
5.980000E+03	1.098071E-15	7.904008E-18
5.990000E+03	1.100802E-15	7.802517E-18
6.000000E+03	1.097297E-15	7.660205E-18
6.010000E+03	1.088055E-15	7.484685E-18
6.020000E+03	1.073753E-15	7.287408E-18
6.030000E+03	1.055212E-15	7.080954E-18
6.040000E+03	1.033320E-15	6.874101E-18
6.050000E+03	1.008947E-15	6.668467E-18
6.060000E+03	9.830009E-16	6.460412E-18
6.070000E+03	9.563042E-16	6.243471E-18
6.080000E+03	9.296154E-16	6.011555E-18
6.090000E+03	9.035891E-16	5.761653E-18
6.100000E+03	8.787966E-16	5.495525E-18
6.110000E+03	8.556721E-16	5.218819E-18
6.120000E+03	8.345626E-16	4.939298E-18
6.130000E+03	8.157193E-16	4.663700E-18
6.140000E+03	7.992591E-16	4.395341E-18
6.150000E+03	7.852699E-16	4.134713E-18
6.160000E+03	7.737237E-16	3.880132E-18
6.170000E+03	7.645513E-16	3.631274E-18
6.180000E+03	7.576486E-16	3.395610E-18
6.190000E+03	7.528346E-16	3.194114E-18
6.200000E+03	7.498030E-16	3.057147E-18
6.210000E+03	7.479225E-16	2.999356E-18
6.220000E+03	7.461799E-16	3.014111E-18
6.230000E+03	7.434390E-16	3.108274E-18
6.240000E+03	7.387202E-16	3.301729E-18
6.250000E+03	7.316096E-16	3.583594E-18
6.260000E+03	7.222032E-16	3.905945E-18
6.270000E+03	7.109088E-16	4.221862E-18
6.280000E+03	6.982121E-16	4.501442E-18
6.290000E+03	6.846337E-16	4.730875E-18
6.300000E+03	6.707126E-16	4.907691E-18
6.310000E+03	6.569429E-16	5.035624E-18
6.320000E+03	6.437898E-16	5.121177E-18
6.330000E+03	6.316164E-16	5.171124E-18
6.340000E+03	6.207257E-16	5.191822E-18
6.350000E+03	6.113248E-16	5.188560E-18
6.360000E+03	6.035373E-16	5.166052E-18
6.370000E+03	5.974041E-16	5.129040E-18
6.380000E+03	5.929055E-16	5.082778E-18
6.390000E+03	5.899617E-16	5.032979E-18
6.400000E+03	5.884320E-16	4.985328E-18
6.410000E+03	5.881432E-16	4.945126E-18
6.420000E+03	5.888574E-16	4.916523E-18
6.430000E+03	5.903493E-16	4.902543E-18
6.440000E+03	5.923448E-16	4.904014E-18
6.450000E+03	5.945978E-16	4.920194E-18
6.460000E+03	5.968502E-16	4.948563E-18
6.470000E+03	5.988864E-16	4.985521E-18
6.480000E+03	6.005080E-16	5.026883E-18
6.490000E+03	6.015674E-16	5.068876E-18
6.500000E+03	6.019715E-16	5.108696E-18
6.510000E+03	6.016963E-16	5.145332E-18
6.520000E+03	6.007708E-16	5.179897E-18
6.530000E+03	5.993232E-16	5.216098E-18
6.540000E+03	5.975072E-16	5.259457E-18
6.550000E+03	5.955605E-16	5.317241E-18
6.560000E+03	5.937457E-16	5.397010E-18
6.570000E+03	5.923463E-16	5.505633E-18
6.580000E+03	5.916524E-16	5.648116E-18
6.590000E+03	5.919238E-16	5.826427E-18
6.600000E+03	5.933757E-16	6.039248E-18
6.610000E+03	5.961655E-16	6.282061E-18
6.620000E+03	6.003649E-16	6.547254E-18
6.630000E+03	6.059703E-16	6.825079E-18
6.640000E+03	6.129213E-16	7.104867E-18
6.650000E+03	6.210866E-16	7.375684E-18
6.660000E+03	6.303055E-16	7.627572E-18
6.670000E+03	6.403721E-16	7.852100E-18
6.680000E+03	6.510580E-16	8.043229E-18
6.690000E+03	6.620822E-16	8.197348E-18
6.700000E+03	6.731778E-16	8.314281E-18
6.710000E+03	6.840448E-16	8.396596E-18
6.720000E+03	6.943651E-16	8.449305E-18
6.730000E+03	7.038407E-16	8.479347E-18
6.740000E+03	7.121756E-16	8.494109E-18
6.750000E+03	7.190961E-16	8.500388E-18
6.760000E+03	7.243511E-16	8.503094E-18
6.770000E+03	7.277647E-16	8.504904E-18
6.780000E+03	7.291732E-16	8.505428E-18
6.790000E+03	7.285159E-16	8.502693E-18
6.800000E+03	7.257572E-16	8.492839E-18
6.810000E+03	7.209715E-16	8.471845E-18
6.820000E+03	7.142670E-16	8.435251E-18
6.830000E+03	7.058231E-16	8.378972E-18
6.840000E+03	6.958694E-16	8.299416E-18
6.850000E+03	6.846849E-16	8.193735E-18
6.860000E+03	6.725444E-16	8.059595E-18
6.870000E+03	6.597754E-16	7.896638E-18
6.880000E+03	6.466746E-16	7.706269E-18
6.890000E+03	6.335378E-16	7.492378E-18
6.900000E+03	6.206411E-16	7.261055E-18
6.910000E+03	6.082447E-16	7.020143E-18
6.920000E+03	5.965526E-16	6.777982E-18
6.930000E+03	5.857762E-16	6.543132E-18
6.940000E+03	5.760696E-16	6.322548E-18
6.950000E+03	5.675591E-16	6.121258E-18
6.960000E+03	5.603710E-16	5.942691E-18
6.970000E+03	5.545802E-16	5.788457E-18
6.980000E+03	5.502459E-16	5.659121E-18
6.990000E+03	5.474021E-16	5.554561E-18
7.000000E+03	5.460461E-16	5.474173E-18
7.010000E+03	5.461693E-16	5.417410E-18
7.020000E+03	5.477031E-16	5.383549E-18
7.030000E+03	5.505409E-16	5.372078E-18
7.040000E+03	5.545519E-16	5.382785E-18
7.050000E+03	5.595543E-16	5.415351E-18
7.060000E+03	5.653252E-16	5.469089E-18
7.070000E+03	5.715937E-16	5.542536E-18
7.080000E+03	5.780771E-16	5.633834E-18
7.090000E+03	5.844665E-16	5.740654E-18
7.100000E+03	5.904506E-16	5.860292E-18
7.110000E+03	5.957239E-16	5.989539E-18
7.120000E+03	6.000339E-16	6.124764E-18
7.130000E+03	6.031593E-16	6.261178E-18
7.140000E+03	6.049599E-16	6.393070E-18
7.150000E+03	6.053537E-16	6.513478E-18
7.160000E+03	6.043276E-16	6.614573E-18
7.170000E+03	6.019240E-16	6.688422E-18
7.180000E+03	5.982520E-16	6.728265E-18
7.190000E+03	5.934880E-16	6.729478E-18
7.200000E+03	5.878039E-16	6.689517E-18
7.210000E+03	5.814160E-16	6.608903E-18
7.220000E+03	5.745739E-16	6.491161E-18
7.230000E+03	5.674908E-16	6.341808E-18
7.240000E+03	5.604140E-16	6.168676E-18
7.250000E+03	5.535373E-16	5.980342E-18
7.260000E+03	5.470606E-16	5.786150E-18
7.270000E+03	5.411424E-16	5.595017E-18
7.280000E+03	5.359124E-16	5.415103E-18
7.290000E+03	5.314405E-16	5.253369E-18
7.300000E+03	5.277635E-16	5.115711E-18
7.310000E+03	5.248767E-16	5.006482E-18
7.320000E+03	5.227472E-16	4.928018E-18
7.330000E+03	5.213032E-16	4.879719E-18
7.340000E+03	5.204413E-16	4.857759E-18
7.350000E+03	5.200668E-16	4.856124E-18
7.360000E+03	5.200791E-16	4.867559E-18
7.370000E+03	5.203908E-16	4.884659E-18
7.380000E+03	5.209334E-16	4.900670E-18
7.390000E+03	5.216683E-16	4.910040E-18
7.400000E+03	5.225580E-16	4.908336E-18
7.410000E+03	5.235892E-16	4.892628E-18
7.420000E+03	5.247757E-16	4.861488E-18
7.430000E+03	5.260908E-16	4.813943E-18
7.440000E+03	5.275304E-16	4.749293E-18
7.450000E+03	5.290311E-16	4.665453E-18
7.460000E+03	5.304858E-16	4.558917E-18
7.470000E+03	5.317471E-16	4.425946E-18
7.480000E+03	5.326258E-16	4.264634E-18
7.490000E+03	5.328543E-16	4.077146E-18
7.500000E+03	5.321491E-16	3.873033E-18
7.510000E+03	5.302198E-16	3.671354E-18
7.520000E+03	5.267546E-16	3.499771E-18
7.530000E+03	5.215254E-16	3.387881E-18
7.540000E+03	5.143804E-16	3.348494E-18
7.550000E+03	5.053893E-16	3.360111E-18
7.560000E+03	4.947970E-16	3.380719E-18
7.570000E+03	4.828665E-16	3.371985E-18
7.580000E+03	4.699241E-16	3.310448E-18
7.590000E+03	4.563000E-16	3.189049E-18
7.600000E+03	4.422884E-16	3.016097E-18
7.610000E+03	4.282000E-16	2.814988E-18
7.620000E+03	4.142866E-16	2.623336E-18
7.630000E+03	4.007866E-16	2.489951E-18
7.640000E+03	3.879130E-16	2.459763E-18
7.650000E+03	3.757861E-16	2.543859E-18
7.660000E+03	3.644739E-16	2.713783E-18
7.670000E+03	3.540038E-16	2.930638E-18
7.680000E+03	3.443599E-16	3.163657E-18
7.690000E+03	3.355242E-16	3.393335E-18
7.700000E+03	3.274580E-16	3.608719E-18
7.710000E+03	3.201271E-16	3.804666E-18
7.720000E+03	3.135040E-16	3.979692E-18
7.730000E+03	3.075501E-16	4.134315E-18
7.740000E+03	3.022403E-16	4.270461E-18
7.750000E+03	2.975324E-16	4.390465E-18
7.760000E+03	2.934083E-16	4.497266E-18
