#wls	flux	fluxerr
1.600000E+03	7.427160E-17	5.415053E-17
1.640000E+03	7.445284E-17	5.351290E-17
1.680000E+03	7.465036E-17	5.286190E-17
1.720000E+03	7.487342E-17	5.220297E-17
1.760000E+03	7.512010E-17	5.153348E-17
1.800000E+03	7.539912E-17	5.085802E-17
1.840000E+03	7.570819E-17	5.017345E-17
1.880000E+03	7.607647E-17	4.949715E-17
1.920000E+03	7.649028E-17	4.881770E-17
1.960000E+03	7.696714E-17	4.814379E-17
2.000000E+03	7.752368E-17	4.748262E-17
2.040000E+03	7.817563E-17	4.683983E-17
2.080000E+03	7.891765E-17	4.620783E-17
2.120000E+03	7.978389E-17	4.560168E-17
2.160000E+03	8.078696E-17	4.502241E-17
2.200000E+03	8.192865E-17	4.446429E-17
2.240000E+03	8.321965E-17	4.392593E-17
2.280000E+03	8.467886E-17	4.340937E-17
2.320000E+03	8.630486E-17	4.290518E-17
2.360000E+03	8.809544E-17	4.240343E-17
2.400000E+03	9.006574E-17	4.190225E-17
2.440000E+03	9.219333E-17	4.138178E-17
2.480000E+03	9.449125E-17	4.083885E-17
2.520000E+03	9.692730E-17	4.025056E-17
2.560000E+03	9.952137E-17	3.961696E-17
2.600000E+03	1.022405E-16	3.891667E-17
2.640000E+03	1.050940E-16	3.814610E-17
2.680000E+03	1.080648E-16	3.729213E-17
2.720000E+03	1.111440E-16	3.634578E-17
2.760000E+03	1.143375E-16	3.530375E-17
2.800000E+03	1.176108E-16	3.415113E-17
2.840000E+03	1.209688E-16	3.288676E-17
2.880000E+03	1.243849E-16	3.150204E-17
2.920000E+03	1.278555E-16	2.999659E-17
2.960000E+03	1.313907E-16	2.837437E-17
3.000000E+03	1.350204E-16	2.664377E-17
3.010000E+03	1.359522E-16	2.619625E-17
3.020000E+03	1.368860E-16	2.574134E-17
3.030000E+03	1.378286E-16	2.528037E-17
3.040000E+03	1.387863E-16	2.481452E-17
3.050000E+03	1.397588E-16	2.434367E-17
3.060000E+03	1.407390E-16	2.386657E-17
3.070000E+03	1.417332E-16	2.338436E-17
3.080000E+03	1.427411E-16	2.289696E-17
3.090000E+03	1.437624E-16	2.240435E-17
3.100000E+03	1.448034E-16	2.190749E-17
3.110000E+03	1.458572E-16	2.140533E-17
3.120000E+03	1.469366E-16	2.089975E-17
3.130000E+03	1.480283E-16	2.038881E-17
3.140000E+03	1.491515E-16	1.987517E-17
3.150000E+03	1.502866E-16	1.935616E-17
3.160000E+03	1.514528E-16	1.883430E-17
3.170000E+03	1.526436E-16	1.830871E-17
3.180000E+03	1.538652E-16	1.778011E-17
3.190000E+03	1.551115E-16	1.724778E-17
3.200000E+03	1.563888E-16	1.671245E-17
3.210000E+03	1.577036E-16	1.617480E-17
3.220000E+03	1.590502E-16	1.563421E-17
3.230000E+03	1.604352E-16	1.509138E-17
3.240000E+03	1.618656E-16	1.454694E-17
3.250000E+03	1.633421E-16	1.400096E-17
3.260000E+03	1.648600E-16	1.345306E-17
3.270000E+03	1.664329E-16	1.290443E-17
3.280000E+03	1.680624E-16	1.235527E-17
3.290000E+03	1.697450E-16	1.180541E-17
3.300000E+03	1.714952E-16	1.125608E-17
3.310000E+03	1.733163E-16	1.070764E-17
3.320000E+03	1.752180E-16	1.016096E-17
3.330000E+03	1.771991E-16	9.616297E-18
3.340000E+03	1.792652E-16	9.074505E-18
3.350000E+03	1.814402E-16	8.537448E-18
3.360000E+03	1.837204E-16	8.005775E-18
3.370000E+03	1.861206E-16	7.481359E-18
3.380000E+03	1.886516E-16	6.966268E-18
3.390000E+03	1.913320E-16	6.463420E-18
3.400000E+03	1.941823E-16	5.976562E-18
3.410000E+03	1.972086E-16	5.510138E-18
3.420000E+03	2.004427E-16	5.070976E-18
3.430000E+03	2.039079E-16	4.667745E-18
3.440000E+03	2.076255E-16	4.311747E-18
3.450000E+03	2.116254E-16	4.017366E-18
3.460000E+03	2.159511E-16	3.801331E-18
3.470000E+03	2.206180E-16	3.679499E-18
3.480000E+03	2.256579E-16	3.663252E-18
3.490000E+03	2.310689E-16	3.753082E-18
3.500000E+03	2.368067E-16	3.937825E-18
3.510000E+03	2.428269E-16	4.200090E-18
3.520000E+03	2.490677E-16	4.520626E-18
3.530000E+03	2.554757E-16	4.881847E-18
3.540000E+03	2.619908E-16	5.268820E-18
3.550000E+03	2.685477E-16	5.669368E-18
3.560000E+03	2.750884E-16	6.073945E-18
3.570000E+03	2.815644E-16	6.475216E-18
3.580000E+03	2.879192E-16	6.867261E-18
3.590000E+03	2.941074E-16	7.245663E-18
3.600000E+03	3.000835E-16	7.607003E-18
3.610000E+03	3.058090E-16	7.948832E-18
3.620000E+03	3.112651E-16	8.269878E-18
3.630000E+03	3.164291E-16	8.569300E-18
3.640000E+03	3.212995E-16	8.847246E-18
3.650000E+03	3.258835E-16	9.104430E-18
3.660000E+03	3.301980E-16	9.342045E-18
3.670000E+03	3.342685E-16	9.561667E-18
3.680000E+03	3.381300E-16	9.765163E-18
3.690000E+03	3.418260E-16	9.954612E-18
3.700000E+03	3.454085E-16	1.013223E-17
3.710000E+03	3.489315E-16	1.030014E-17
3.720000E+03	3.524750E-16	1.046103E-17
3.730000E+03	3.561016E-16	1.061685E-17
3.740000E+03	3.598929E-16	1.076990E-17
3.750000E+03	3.639365E-16	1.092245E-17
3.760000E+03	3.683313E-16	1.107688E-17
3.770000E+03	3.731633E-16	1.123503E-17
3.780000E+03	3.785409E-16	1.139921E-17
3.790000E+03	3.845700E-16	1.157154E-17
3.800000E+03	3.913532E-16	1.175391E-17
3.810000E+03	3.990014E-16	1.194834E-17
3.820000E+03	4.076265E-16	1.215676E-17
3.830000E+03	4.173400E-16	1.238100E-17
3.840000E+03	4.282455E-16	1.262252E-17
3.850000E+03	4.404553E-16	1.288292E-17
3.860000E+03	4.540628E-16	1.316311E-17
3.870000E+03	4.691582E-16	1.346375E-17
3.880000E+03	4.858260E-16	1.378519E-17
3.890000E+03	5.041127E-16	1.412657E-17
3.900000E+03	5.240563E-16	1.448668E-17
3.910000E+03	5.456749E-16	1.486369E-17
3.920000E+03	5.689468E-16	1.525466E-17
3.930000E+03	5.938047E-16	1.565551E-17
3.940000E+03	6.201449E-16	1.606142E-17
3.950000E+03	6.478166E-16	1.646666E-17
3.960000E+03	6.766185E-16	1.686476E-17
3.970000E+03	7.062981E-16	1.724870E-17
3.980000E+03	7.365527E-16	1.761117E-17
3.990000E+03	7.670240E-16	1.794469E-17
4.000000E+03	7.973330E-16	1.824270E-17
4.010000E+03	8.270622E-16	1.849927E-17
4.020000E+03	8.557657E-16	1.870951E-17
4.030000E+03	8.830137E-16	1.887021E-17
4.040000E+03	9.084235E-16	1.897937E-17
4.050000E+03	9.316652E-16	1.903702E-17
4.060000E+03	9.524295E-16	1.904440E-17
4.070000E+03	9.705383E-16	1.900492E-17
4.080000E+03	9.858436E-16	1.892278E-17
4.090000E+03	9.983120E-16	1.880413E-17
4.100000E+03	1.007986E-15	1.865440E-17
4.110000E+03	1.015011E-15	1.847966E-17
4.120000E+03	1.019575E-15	1.828531E-17
4.130000E+03	1.021944E-15	1.807533E-17
4.140000E+03	1.022422E-15	1.785279E-17
4.150000E+03	1.021329E-15	1.761977E-17
4.160000E+03	1.019010E-15	1.737760E-17
4.170000E+03	1.015779E-15	1.712683E-17
4.180000E+03	1.011939E-15	1.686823E-17
4.190000E+03	1.007748E-15	1.660235E-17
4.200000E+03	1.003435E-15	1.633042E-17
4.210000E+03	9.991846E-16	1.605405E-17
4.220000E+03	9.951096E-16	1.577394E-17
4.230000E+03	9.912883E-16	1.549157E-17
4.240000E+03	9.877316E-16	1.520822E-17
4.250000E+03	9.844314E-16	1.492370E-17
4.260000E+03	9.812881E-16	1.463725E-17
4.270000E+03	9.781998E-16	1.434829E-17
4.280000E+03	9.750163E-16	1.405214E-17
4.290000E+03	9.715536E-16	1.374402E-17
4.300000E+03	9.676129E-16	1.341974E-17
4.310000E+03	9.629836E-16	1.307309E-17
4.320000E+03	9.574356E-16	1.269912E-17
4.330000E+03	9.507814E-16	1.229606E-17
4.340000E+03	9.428093E-16	1.186356E-17
4.350000E+03	9.333996E-16	1.140572E-17
4.360000E+03	9.224098E-16	1.092972E-17
4.370000E+03	9.098172E-16	1.044605E-17
4.380000E+03	8.956326E-16	9.968711E-18
4.390000E+03	8.799761E-16	9.514932E-18
4.400000E+03	8.630784E-16	9.101343E-18
4.410000E+03	8.453155E-16	8.743366E-18
4.420000E+03	8.271654E-16	8.451429E-18
4.430000E+03	8.092433E-16	8.227381E-18
4.440000E+03	7.922557E-16	8.066787E-18
4.450000E+03	7.769434E-16	7.961490E-18
4.460000E+03	7.640171E-16	7.901017E-18
4.470000E+03	7.541151E-16	7.876944E-18
4.480000E+03	7.478090E-16	7.884412E-18
4.490000E+03	7.455546E-16	7.920386E-18
4.500000E+03	7.477422E-16	7.984773E-18
4.510000E+03	7.546551E-16	8.078625E-18
4.520000E+03	7.664846E-16	8.200945E-18
4.530000E+03	7.833146E-16	8.351050E-18
4.540000E+03	8.051906E-16	8.529794E-18
4.550000E+03	8.320696E-16	8.737398E-18
4.560000E+03	8.638057E-16	8.975157E-18
4.570000E+03	9.001052E-16	9.243568E-18
4.580000E+03	9.404463E-16	9.535280E-18
4.590000E+03	9.840928E-16	9.840212E-18
4.600000E+03	1.030097E-15	1.014688E-17
4.610000E+03	1.077277E-15	1.043921E-17
4.620000E+03	1.124264E-15	1.070064E-17
4.630000E+03	1.169531E-15	1.091562E-17
4.640000E+03	1.211468E-15	1.106749E-17
4.650000E+03	1.248495E-15	1.114375E-17
4.660000E+03	1.279182E-15	1.113591E-17
4.670000E+03	1.302421E-15	1.103275E-17
4.680000E+03	1.317478E-15	1.082908E-17
4.690000E+03	1.324120E-15	1.052902E-17
4.700000E+03	1.322629E-15	1.014063E-17
4.710000E+03	1.313821E-15	9.684127E-18
4.720000E+03	1.298868E-15	9.192289E-18
4.730000E+03	1.279278E-15	8.705236E-18
4.740000E+03	1.256622E-15	8.270687E-18
4.750000E+03	1.232265E-15	7.931089E-18
4.760000E+03	1.207011E-15	7.695826E-18
4.770000E+03	1.180640E-15	7.542521E-18
4.780000E+03	1.152518E-15	7.434403E-18
4.790000E+03	1.122424E-15	7.327294E-18
4.800000E+03	1.090328E-15	7.196705E-18
4.810000E+03	1.056362E-15	7.039670E-18
4.820000E+03	1.021211E-15	6.859983E-18
4.830000E+03	9.856578E-16	6.679058E-18
4.840000E+03	9.505133E-16	6.531960E-18
4.850000E+03	9.165515E-16	6.448279E-18
4.860000E+03	8.845490E-16	6.447778E-18
4.870000E+03	8.552860E-16	6.529023E-18
4.880000E+03	8.292499E-16	6.663734E-18
4.890000E+03	8.068229E-16	6.821418E-18
4.900000E+03	7.883053E-16	6.980119E-18
4.910000E+03	7.738578E-16	7.125425E-18
4.920000E+03	7.635598E-16	7.250757E-18
4.930000E+03	7.574257E-16	7.354852E-18
4.940000E+03	7.553413E-16	7.436993E-18
4.950000E+03	7.571605E-16	7.499342E-18
4.960000E+03	7.626656E-16	7.546640E-18
4.970000E+03	7.715439E-16	7.584874E-18
4.980000E+03	7.834092E-16	7.622198E-18
4.990000E+03	7.977400E-16	7.665866E-18
5.000000E+03	8.137490E-16	7.714226E-18
5.010000E+03	8.304858E-16	7.764064E-18
5.020000E+03	8.469424E-16	7.812807E-18
5.030000E+03	8.621112E-16	7.854464E-18
5.040000E+03	8.750384E-16	7.885340E-18
5.050000E+03	8.848893E-16	7.905218E-18
5.060000E+03	8.911623E-16	7.914547E-18
5.070000E+03	8.935944E-16	7.917085E-18
5.080000E+03	8.922244E-16	7.915744E-18
5.090000E+03	8.875901E-16	7.900826E-18
5.100000E+03	8.804532E-16	7.862531E-18
5.110000E+03	8.716242E-16	7.795984E-18
5.120000E+03	8.619509E-16	7.700072E-18
5.130000E+03	8.522047E-16	7.579690E-18
5.140000E+03	8.430944E-16	7.445546E-18
5.150000E+03	8.351685E-16	7.309429E-18
5.160000E+03	8.288833E-16	7.187117E-18
5.170000E+03	8.245872E-16	7.093494E-18
5.180000E+03	8.224254E-16	7.029796E-18
5.190000E+03	8.224274E-16	6.995688E-18
5.200000E+03	8.246543E-16	6.992944E-18
5.210000E+03	8.291429E-16	7.018934E-18
5.220000E+03	8.359562E-16	7.073728E-18
5.230000E+03	8.451467E-16	7.158845E-18
5.240000E+03	8.567946E-16	7.268616E-18
5.250000E+03	8.710102E-16	7.398728E-18
5.260000E+03	8.878466E-16	7.545878E-18
5.270000E+03	9.072625E-16	7.698976E-18
5.280000E+03	9.291501E-16	7.847927E-18
5.290000E+03	9.533451E-16	7.986051E-18
5.300000E+03	9.795597E-16	8.105233E-18
5.310000E+03	1.007391E-15	8.200900E-18
5.320000E+03	1.036403E-15	8.273321E-18
5.330000E+03	1.066028E-15	8.322573E-18
5.340000E+03	1.095657E-15	8.355883E-18
5.350000E+03	1.124677E-15	8.388334E-18
5.360000E+03	1.152513E-15	8.434409E-18
5.370000E+03	1.178619E-15	8.512297E-18
5.380000E+03	1.202525E-15	8.635721E-18
5.390000E+03	1.223827E-15	8.797969E-18
5.400000E+03	1.242241E-15	8.983855E-18
5.410000E+03	1.257564E-15	9.178550E-18
5.420000E+03	1.269733E-15	9.366462E-18
5.430000E+03	1.278814E-15	9.540522E-18
5.440000E+03	1.284929E-15	9.700259E-18
5.450000E+03	1.288372E-15	9.839983E-18
5.460000E+03	1.289481E-15	9.960258E-18
5.470000E+03	1.288654E-15	1.006791E-17
5.480000E+03	1.286308E-15	1.016307E-17
5.490000E+03	1.282796E-15	1.025034E-17
5.500000E+03	1.278494E-15	1.033852E-17
5.510000E+03	1.273588E-15	1.042504E-17
5.520000E+03	1.268238E-15	1.050988E-17
5.530000E+03	1.262504E-15	1.059347E-17
5.540000E+03	1.256252E-15	1.066069E-17
5.550000E+03	1.249276E-15	1.069712E-17
5.560000E+03	1.241330E-15	1.069262E-17
5.570000E+03	1.232079E-15	1.063335E-17
5.580000E+03	1.221196E-15	1.051219E-17
5.590000E+03	1.208350E-15	1.033061E-17
5.600000E+03	1.193249E-15	1.009352E-17
5.610000E+03	1.175660E-15	9.814737E-18
5.620000E+03	1.155390E-15	9.511697E-18
5.630000E+03	1.132423E-15	9.191506E-18
5.640000E+03	1.106816E-15	8.864087E-18
5.650000E+03	1.078704E-15	8.541014E-18
5.660000E+03	1.048372E-15	8.221146E-18
5.670000E+03	1.016179E-15	7.906054E-18
5.680000E+03	9.825664E-16	7.601761E-18
5.690000E+03	9.480942E-16	7.309076E-18
5.700000E+03	9.133651E-16	7.032637E-18
5.710000E+03	8.790304E-16	6.779283E-18
5.720000E+03	8.458284E-16	6.548017E-18
5.730000E+03	8.144823E-16	6.341012E-18
5.740000E+03	7.856475E-16	6.163114E-18
5.750000E+03	7.599878E-16	6.012855E-18
5.760000E+03	7.380752E-16	5.891955E-18
5.770000E+03	7.203930E-16	5.803869E-18
5.780000E+03	7.072888E-16	5.742638E-18
5.790000E+03	6.990507E-16	5.704333E-18
5.800000E+03	6.959157E-16	5.689541E-18
5.810000E+03	6.980242E-16	5.698986E-18
5.820000E+03	7.054788E-16	5.737244E-18
5.830000E+03	7.183470E-16	5.810728E-18
5.840000E+03	7.364738E-16	5.917931E-18
5.850000E+03	7.596313E-16	6.058924E-18
5.860000E+03	7.874884E-16	6.236026E-18
5.870000E+03	8.194778E-16	6.444798E-18
5.880000E+03	8.548719E-16	6.682324E-18
5.890000E+03	8.927652E-16	6.945279E-18
5.900000E+03	9.320574E-16	7.215457E-18
5.910000E+03	9.715183E-16	7.472646E-18
5.920000E+03	1.009772E-15	7.700062E-18
5.930000E+03	1.045481E-15	7.882509E-18
5.940000E+03	1.077319E-15	8.012684E-18
5.950000E+03	1.104080E-15	8.090579E-18
5.960000E+03	1.124894E-15	8.113109E-18
5.970000E+03	1.139159E-15	8.084412E-18
5.980000E+03	1.146578E-15	8.013321E-18
5.990000E+03	1.147270E-15	7.895905E-18
6.000000E+03	1.141625E-15	7.733538E-18
6.010000E+03	1.130269E-15	7.536722E-18
6.020000E+03	1.114009E-15	7.312890E-18
6.030000E+03	1.093752E-15	7.077946E-18
6.040000E+03	1.070453E-15	6.849079E-18
6.050000E+03	1.045045E-15	6.620425E-18
6.060000E+03	1.018460E-15	6.387451E-18
6.070000E+03	9.915085E-16	6.149956E-18
6.080000E+03	9.649321E-16	5.898954E-18
6.090000E+03	9.393597E-16	5.631834E-18
6.100000E+03	9.152926E-16	5.354416E-18
6.110000E+03	8.931422E-16	5.072599E-18
6.120000E+03	8.731976E-16	4.800280E-18
6.130000E+03	8.556708E-16	4.554111E-18
6.140000E+03	8.405902E-16	4.335263E-18
6.150000E+03	8.279360E-16	4.151072E-18
6.160000E+03	8.176167E-16	4.009706E-18
6.170000E+03	8.093621E-16	3.889655E-18
6.180000E+03	8.028683E-16	3.776335E-18
6.190000E+03	7.977543E-16	3.671636E-18
6.200000E+03	7.934811E-16	3.577771E-18
6.210000E+03	7.893390E-16	3.501961E-18
6.220000E+03	7.844435E-16	3.459739E-18
6.230000E+03	7.778921E-16	3.476993E-18
6.240000E+03	7.689891E-16	3.581966E-18
6.250000E+03	7.575342E-16	3.771063E-18
6.260000E+03	7.438026E-16	4.001214E-18
6.270000E+03	7.283561E-16	4.229729E-18
6.280000E+03	7.118358E-16	4.431320E-18
6.290000E+03	6.949218E-16	4.591904E-18
6.300000E+03	6.782616E-16	4.711532E-18
6.310000E+03	6.624380E-16	4.797641E-18
6.320000E+03	6.479163E-16	4.850896E-18
6.330000E+03	6.350896E-16	4.874672E-18
6.340000E+03	6.242339E-16	4.875344E-18
6.350000E+03	6.154873E-16	4.855917E-18
6.360000E+03	6.089168E-16	4.821511E-18
6.370000E+03	6.045070E-16	4.779696E-18
6.380000E+03	6.021549E-16	4.736835E-18
6.390000E+03	6.016933E-16	4.701704E-18
6.400000E+03	6.029326E-16	4.684041E-18
6.410000E+03	6.055654E-16	4.686476E-18
6.420000E+03	6.092677E-16	4.712155E-18
6.430000E+03	6.137004E-16	4.763334E-18
6.440000E+03	6.185038E-16	4.831159E-18
6.450000E+03	6.233240E-16	4.906629E-18
6.460000E+03	6.278331E-16	4.983516E-18
6.470000E+03	6.317496E-16	5.053024E-18
6.480000E+03	6.348655E-16	5.110773E-18
6.490000E+03	6.369836E-16	5.156778E-18
6.500000E+03	6.380256E-16	5.190358E-18
6.510000E+03	6.379653E-16	5.215227E-18
6.520000E+03	6.368696E-16	5.239220E-18
6.530000E+03	6.348919E-16	5.267393E-18
6.540000E+03	6.322561E-16	5.307620E-18
6.550000E+03	6.292347E-16	5.369701E-18
6.560000E+03	6.261616E-16	5.458511E-18
6.570000E+03	6.233965E-16	5.579434E-18
6.580000E+03	6.212697E-16	5.737298E-18
6.590000E+03	6.200937E-16	5.929844E-18
6.600000E+03	6.201400E-16	6.153854E-18
6.610000E+03	6.216164E-16	6.405853E-18
6.620000E+03	6.245854E-16	6.676978E-18
6.630000E+03	6.290530E-16	6.957811E-18
6.640000E+03	6.349611E-16	7.239150E-18
6.650000E+03	6.421851E-16	7.510167E-18
6.660000E+03	6.505615E-16	7.760627E-18
6.670000E+03	6.598697E-16	7.981758E-18
6.680000E+03	6.698745E-16	8.167065E-18
6.690000E+03	6.802929E-16	8.312536E-18
6.700000E+03	6.908477E-16	8.417592E-18
6.710000E+03	7.012173E-16	8.484353E-18
6.720000E+03	7.110798E-16	8.518329E-18
6.730000E+03	7.201145E-16	8.527285E-18
6.740000E+03	7.280299E-16	8.518723E-18
6.750000E+03	7.345351E-16	8.500406E-18
6.760000E+03	7.393925E-16	8.479268E-18
6.770000E+03	7.423912E-16	8.456734E-18
6.780000E+03	7.434050E-16	8.432342E-18
6.790000E+03	7.423247E-16	8.403939E-18
6.800000E+03	7.391492E-16	8.367746E-18
6.810000E+03	7.339316E-16	8.320006E-18
6.820000E+03	7.267775E-16	8.257565E-18
6.830000E+03	7.178978E-16	8.177242E-18
6.840000E+03	7.075166E-16	8.077082E-18
6.850000E+03	6.959056E-16	7.956225E-18
6.860000E+03	6.833821E-16	7.811587E-18
6.870000E+03	6.702741E-16	7.641828E-18
6.880000E+03	6.569007E-16	7.448595E-18
6.890000E+03	6.435628E-16	7.235511E-18
6.900000E+03	6.305370E-16	7.008747E-18
6.910000E+03	6.180698E-16	6.776440E-18
6.920000E+03	6.063714E-16	6.547230E-18
6.930000E+03	5.956297E-16	6.330640E-18
6.940000E+03	5.859749E-16	6.134343E-18
6.950000E+03	5.775471E-16	5.959732E-18
6.960000E+03	5.704318E-16	5.806830E-18
6.970000E+03	5.647018E-16	5.676039E-18
6.980000E+03	5.604068E-16	5.565609E-18
6.990000E+03	5.576002E-16	5.475061E-18
7.000000E+03	5.562799E-16	5.404582E-18
7.010000E+03	5.564220E-16	5.352316E-18
7.020000E+03	5.579699E-16	5.317578E-18
7.030000E+03	5.608291E-16	5.301151E-18
7.040000E+03	5.648571E-16	5.302655E-18
7.050000E+03	5.698706E-16	5.323362E-18
7.060000E+03	5.756350E-16	5.365078E-18
7.070000E+03	5.818913E-16	5.425064E-18
7.080000E+03	5.883187E-16	5.500779E-18
7.090000E+03	5.945894E-16	5.591154E-18
7.100000E+03	6.003661E-16	5.692863E-18
7.110000E+03	6.053548E-16	5.803507E-18
7.120000E+03	6.092565E-16	5.920664E-18
7.130000E+03	6.118891E-16	6.039512E-18
7.140000E+03	6.130986E-16	6.154929E-18
7.150000E+03	6.127994E-16	6.261694E-18
7.160000E+03	6.110439E-16	6.351572E-18
7.170000E+03	6.079152E-16	6.417218E-18
7.180000E+03	6.035552E-16	6.453599E-18
7.190000E+03	5.981623E-16	6.455356E-18
7.200000E+03	5.919747E-16	6.420250E-18
7.210000E+03	5.852227E-16	6.349444E-18
7.220000E+03	5.781624E-16	6.246288E-18
7.230000E+03	5.710242E-16	6.116813E-18
7.240000E+03	5.640447E-16	5.969286E-18
7.250000E+03	5.574236E-16	5.811249E-18
7.260000E+03	5.513436E-16	5.651300E-18
7.270000E+03	5.459218E-16	5.497508E-18
7.280000E+03	5.412625E-16	5.354270E-18
7.290000E+03	5.374108E-16	5.225329E-18
7.300000E+03	5.343744E-16	5.114535E-18
7.310000E+03	5.321075E-16	5.023452E-18
7.320000E+03	5.305716E-16	4.954269E-18
7.330000E+03	5.296575E-16	4.907751E-18
7.340000E+03	5.292679E-16	4.878891E-18
7.350000E+03	5.293165E-16	4.862584E-18
7.360000E+03	5.296870E-16	4.854465E-18
7.370000E+03	5.303064E-16	4.848413E-18
7.380000E+03	5.310926E-16	4.839678E-18
7.390000E+03	5.319864E-16	4.825467E-18
7.400000E+03	5.329638E-16	4.802239E-18
7.410000E+03	5.340037E-16	4.768113E-18
7.420000E+03	5.350819E-16	4.723104E-18
7.430000E+03	5.361890E-16	4.667208E-18
7.440000E+03	5.373118E-16	4.602105E-18
7.450000E+03	5.384179E-16	4.529008E-18
7.460000E+03	5.394392E-16	4.442219E-18
7.470000E+03	5.402474E-16	4.336772E-18
7.480000E+03	5.407077E-16	4.211532E-18
7.490000E+03	5.405903E-16	4.065885E-18
7.500000E+03	5.396371E-16	3.906879E-18
7.510000E+03	5.375662E-16	3.751859E-18
7.520000E+03	5.341392E-16	3.626034E-18
7.530000E+03	5.291236E-16	3.555762E-18
7.540000E+03	5.224262E-16	3.553121E-18
7.550000E+03	5.140866E-16	3.600767E-18
7.560000E+03	5.042840E-16	3.663620E-18
7.570000E+03	4.932672E-16	3.708691E-18
7.580000E+03	4.813082E-16	3.714671E-18
7.590000E+03	4.687099E-16	3.674396E-18
7.600000E+03	4.557424E-16	3.593420E-18
7.610000E+03	4.426993E-16	3.488435E-18
7.620000E+03	4.298158E-16	3.383947E-18
7.630000E+03	4.173274E-16	3.308223E-18
7.640000E+03	4.054219E-16	3.284997E-18
7.650000E+03	3.942321E-16	3.323909E-18
7.660000E+03	3.838482E-16	3.418313E-18
7.670000E+03	3.742588E-16	3.551821E-18
7.680000E+03	3.654665E-16	3.707732E-18
7.690000E+03	3.574193E-16	3.872120E-18
7.700000E+03	3.500967E-16	4.035081E-18
7.710000E+03	3.434483E-16	4.190051E-18
7.720000E+03	3.374568E-16	4.333727E-18
7.730000E+03	3.320854E-16	4.464414E-18
7.740000E+03	3.273074E-16	4.581988E-18
7.750000E+03	3.231053E-16	4.687472E-18
7.760000E+03	3.194402E-16	4.782114E-18
