#wls	flux	fluxerr
1.600000E+03	3.196975E-17	2.323583E-17
1.640000E+03	3.168436E-17	2.269903E-17
1.680000E+03	3.140103E-17	2.216071E-17
1.720000E+03	3.111387E-17	2.161683E-17
1.760000E+03	3.083377E-17	2.107510E-17
1.800000E+03	3.056025E-17	2.053508E-17
1.840000E+03	3.028744E-17	1.999283E-17
1.880000E+03	3.003101E-17	1.945862E-17
1.920000E+03	2.978483E-17	1.892811E-17
1.960000E+03	2.955343E-17	1.840390E-17
2.000000E+03	2.934103E-17	1.788816E-17
2.040000E+03	2.914656E-17	1.737967E-17
2.080000E+03	2.897886E-17	1.688300E-17
2.120000E+03	2.884131E-17	1.639916E-17
2.160000E+03	2.873218E-17	1.592603E-17
2.200000E+03	2.865448E-17	1.546417E-17
2.240000E+03	2.860624E-17	1.501131E-17
2.280000E+03	2.858555E-17	1.456527E-17
2.320000E+03	2.859049E-17	1.412400E-17
2.360000E+03	2.861923E-17	1.368554E-17
2.400000E+03	2.866563E-17	1.324611E-17
2.440000E+03	2.872397E-17	1.280247E-17
2.480000E+03	2.879737E-17	1.235559E-17
2.520000E+03	2.888054E-17	1.190279E-17
2.560000E+03	2.896868E-17	1.144197E-17
2.600000E+03	2.906944E-17	1.097613E-17
2.640000E+03	2.917448E-17	1.050202E-17
2.680000E+03	2.928788E-17	1.002129E-17
2.720000E+03	2.940996E-17	9.534186E-18
2.760000E+03	2.954514E-17	9.042246E-18
2.800000E+03	2.969081E-17	8.544776E-18
2.840000E+03	2.984523E-17	8.041612E-18
2.880000E+03	3.001102E-17	7.533947E-18
2.920000E+03	3.018819E-17	7.022317E-18
2.960000E+03	3.037785E-17	6.507667E-18
3.000000E+03	3.058886E-17	5.992567E-18
3.010000E+03	3.064751E-17	5.864273E-18
3.020000E+03	3.071001E-17	5.736443E-18
3.030000E+03	3.077003E-17	5.607901E-18
3.040000E+03	3.083734E-17	5.480450E-18
3.050000E+03	3.090563E-17	5.352932E-18
3.060000E+03	3.097507E-17	5.225393E-18
3.070000E+03	3.104894E-17	5.098397E-18
3.080000E+03	3.112739E-17	4.971939E-18
3.090000E+03	3.121052E-17	4.846016E-18
3.100000E+03	3.129847E-17	4.720626E-18
3.110000E+03	3.138828E-17	4.595311E-18
3.120000E+03	3.148630E-17	4.470994E-18
3.130000E+03	3.158648E-17	4.346779E-18
3.140000E+03	3.169515E-17	4.223530E-18
3.150000E+03	3.180631E-17	4.100411E-18
3.160000E+03	3.192624E-17	3.978227E-18
3.170000E+03	3.205203E-17	3.856569E-18
3.180000E+03	3.218687E-17	3.735793E-18
3.190000E+03	3.232785E-17	3.615522E-18
3.200000E+03	3.247514E-17	3.495761E-18
3.210000E+03	3.263489E-17	3.377141E-18
3.220000E+03	3.280118E-17	3.258995E-18
3.230000E+03	3.297713E-17	3.141625E-18
3.240000E+03	3.316281E-17	3.025009E-18
3.250000E+03	3.335830E-17	2.909135E-18
3.260000E+03	3.356658E-17	2.794243E-18
3.270000E+03	3.378467E-17	2.680068E-18
3.280000E+03	3.401253E-17	2.566623E-18
3.290000E+03	3.425597E-17	2.454367E-18
3.300000E+03	3.451184E-17	2.343079E-18
3.310000E+03	3.477692E-17	2.232612E-18
3.320000E+03	3.505680E-17	2.123427E-18
3.330000E+03	3.535101E-17	2.015603E-18
3.340000E+03	3.565602E-17	1.909112E-18
3.350000E+03	3.597700E-17	1.804471E-18
3.360000E+03	3.631013E-17	1.701782E-18
3.370000E+03	3.665434E-17	1.601415E-18
3.380000E+03	3.701134E-17	1.503982E-18
3.390000E+03	3.738258E-17	1.410213E-18
3.400000E+03	3.776054E-17	1.320684E-18
3.410000E+03	3.815213E-17	1.236729E-18
3.420000E+03	3.854939E-17	1.159398E-18
3.430000E+03	3.895594E-17	1.090366E-18
3.440000E+03	3.936940E-17	1.031306E-18
3.450000E+03	3.978448E-17	9.838993E-19
3.460000E+03	4.020762E-17	9.499645E-19
3.470000E+03	4.062819E-17	9.304366E-19
3.480000E+03	4.105361E-17	9.258912E-19
3.490000E+03	4.148389E-17	9.357158E-19
3.500000E+03	4.191749E-17	9.583378E-19
3.510000E+03	4.236234E-17	9.918143E-19
3.520000E+03	4.281835E-17	1.033817E-18
3.530000E+03	4.329147E-17	1.082253E-18
3.540000E+03	4.378512E-17	1.135242E-18
3.550000E+03	4.430290E-17	1.191250E-18
3.560000E+03	4.485135E-17	1.249167E-18
3.570000E+03	4.543157E-17	1.308049E-18
3.580000E+03	4.605310E-17	1.367459E-18
3.590000E+03	4.671456E-17	1.426862E-18
3.600000E+03	4.742031E-17	1.486061E-18
3.610000E+03	4.818029E-17	1.545176E-18
3.620000E+03	4.899652E-17	1.604189E-18
3.630000E+03	4.987131E-17	1.663162E-18
3.640000E+03	5.081273E-17	1.722405E-18
3.650000E+03	5.182653E-17	1.782188E-18
3.660000E+03	5.291891E-17	1.842823E-18
3.670000E+03	5.409389E-17	1.904554E-18
3.680000E+03	5.536147E-17	1.967835E-18
3.690000E+03	5.672963E-17	2.033043E-18
3.700000E+03	5.820435E-17	2.100464E-18
3.710000E+03	5.979510E-17	2.170487E-18
3.720000E+03	6.151224E-17	2.243501E-18
3.730000E+03	6.336706E-17	2.319895E-18
3.740000E+03	6.537474E-17	2.400155E-18
3.750000E+03	6.754301E-17	2.484449E-18
3.760000E+03	6.988631E-17	2.573138E-18
3.770000E+03	7.242321E-17	2.666684E-18
3.780000E+03	7.516759E-17	2.765323E-18
3.790000E+03	7.813740E-17	2.869386E-18
3.800000E+03	8.135170E-17	2.979188E-18
3.810000E+03	8.482741E-17	3.094914E-18
3.820000E+03	8.858534E-17	3.216838E-18
3.830000E+03	9.265038E-17	3.345334E-18
3.840000E+03	9.704142E-17	3.480509E-18
3.850000E+03	1.017737E-16	3.622304E-18
3.860000E+03	1.068796E-16	3.771246E-18
3.870000E+03	1.123698E-16	3.927063E-18
3.880000E+03	1.182679E-16	4.089937E-18
3.890000E+03	1.245881E-16	4.259733E-18
3.900000E+03	1.313499E-16	4.436518E-18
3.910000E+03	1.385570E-16	4.619873E-18
3.920000E+03	1.462210E-16	4.809712E-18
3.930000E+03	1.543393E-16	5.005574E-18
3.940000E+03	1.629073E-16	5.207045E-18
3.950000E+03	1.719082E-16	5.413453E-18
3.960000E+03	1.813265E-16	5.624329E-18
3.970000E+03	1.911226E-16	5.838628E-18
3.980000E+03	2.012626E-16	6.055675E-18
3.990000E+03	2.116926E-16	6.274379E-18
4.000000E+03	2.223484E-16	6.493551E-18
4.010000E+03	2.331684E-16	6.712268E-18
4.020000E+03	2.440779E-16	6.929375E-18
4.030000E+03	2.549765E-16	7.143129E-18
4.040000E+03	2.657966E-16	7.352806E-18
4.050000E+03	2.764303E-16	7.556582E-18
4.060000E+03	2.867962E-16	7.753334E-18
4.070000E+03	2.968096E-16	7.941757E-18
4.080000E+03	3.063785E-16	8.120178E-18
4.090000E+03	3.154480E-16	8.287698E-18
4.100000E+03	3.239399E-16	8.442504E-18
4.110000E+03	3.318256E-16	8.583777E-18
4.120000E+03	3.390706E-16	8.710186E-18
4.130000E+03	3.456560E-16	8.820466E-18
4.140000E+03	3.515939E-16	8.913819E-18
4.150000E+03	3.568964E-16	8.989152E-18
4.160000E+03	3.615964E-16	9.045669E-18
4.170000E+03	3.657382E-16	9.082671E-18
4.180000E+03	3.693675E-16	9.099378E-18
4.190000E+03	3.725516E-16	9.095469E-18
4.200000E+03	3.753467E-16	9.070326E-18
4.210000E+03	3.778178E-16	9.023561E-18
4.220000E+03	3.800365E-16	8.954968E-18
4.230000E+03	3.820497E-16	8.863788E-18
4.240000E+03	3.839282E-16	8.749880E-18
4.250000E+03	3.857144E-16	8.612472E-18
4.260000E+03	3.874567E-16	8.450970E-18
4.270000E+03	3.891790E-16	8.264281E-18
4.280000E+03	3.909009E-16	8.051296E-18
4.290000E+03	3.926365E-16	7.810902E-18
4.300000E+03	3.943785E-16	7.541762E-18
4.310000E+03	3.960984E-16	7.242502E-18
4.320000E+03	3.977735E-16	6.912465E-18
4.330000E+03	3.993453E-16	6.551308E-18
4.340000E+03	4.007555E-16	6.160161E-18
4.350000E+03	4.019193E-16	5.741930E-18
4.360000E+03	4.027562E-16	5.302803E-18
4.370000E+03	4.031793E-16	4.853509E-18
4.380000E+03	4.030809E-16	4.411111E-18
4.390000E+03	4.023865E-16	4.001864E-18
4.400000E+03	4.010168E-16	3.661903E-18
4.410000E+03	3.989335E-16	3.433996E-18
4.420000E+03	3.961320E-16	3.353109E-18
4.430000E+03	3.926837E-16	3.423281E-18
4.440000E+03	3.887623E-16	3.611630E-18
4.450000E+03	3.845757E-16	3.871265E-18
4.460000E+03	3.803350E-16	4.161527E-18
4.470000E+03	3.762599E-16	4.454692E-18
4.480000E+03	3.725649E-16	4.734729E-18
4.490000E+03	3.694185E-16	4.993582E-18
4.500000E+03	3.669726E-16	5.228571E-18
4.510000E+03	3.653539E-16	5.440132E-18
4.520000E+03	3.646531E-16	5.630162E-18
4.530000E+03	3.649204E-16	5.800924E-18
4.540000E+03	3.661928E-16	5.954814E-18
4.550000E+03	3.684689E-16	6.093567E-18
4.560000E+03	3.717309E-16	6.218364E-18
4.570000E+03	3.759198E-16	6.329291E-18
4.580000E+03	3.809673E-16	6.425834E-18
4.590000E+03	3.867767E-16	6.506584E-18
4.600000E+03	3.932245E-16	6.569343E-18
4.610000E+03	4.001681E-16	6.611383E-18
4.620000E+03	4.074603E-16	6.629837E-18
4.630000E+03	4.149334E-16	6.621618E-18
4.640000E+03	4.224207E-16	6.583981E-18
4.650000E+03	4.297535E-16	6.514686E-18
4.660000E+03	4.367912E-16	6.412697E-18
4.670000E+03	4.433847E-16	6.277882E-18
4.680000E+03	4.494401E-16	6.112222E-18
4.690000E+03	4.548794E-16	5.919508E-18
4.700000E+03	4.596662E-16	5.705950E-18
4.710000E+03	4.638001E-16	5.480223E-18
4.720000E+03	4.673069E-16	5.253204E-18
4.730000E+03	4.702478E-16	5.037376E-18
4.740000E+03	4.726776E-16	4.844712E-18
4.750000E+03	4.746604E-16	4.683727E-18
4.760000E+03	4.762188E-16	4.553625E-18
4.770000E+03	4.773094E-16	4.441072E-18
4.780000E+03	4.778703E-16	4.326832E-18
4.790000E+03	4.778367E-16	4.192868E-18
4.800000E+03	4.771533E-16	4.027243E-18
4.810000E+03	4.758036E-16	3.827910E-18
4.820000E+03	4.737988E-16	3.605777E-18
4.830000E+03	4.711908E-16	3.387905E-18
4.840000E+03	4.680539E-16	3.218635E-18
4.850000E+03	4.645100E-16	3.153068E-18
4.860000E+03	4.606941E-16	3.233430E-18
4.870000E+03	4.568157E-16	3.458881E-18
4.880000E+03	4.530870E-16	3.791507E-18
4.890000E+03	4.497369E-16	4.186968E-18
4.900000E+03	4.469574E-16	4.610259E-18
4.910000E+03	4.449164E-16	5.038391E-18
4.920000E+03	4.437537E-16	5.457917E-18
4.930000E+03	4.435647E-16	5.861721E-18
4.940000E+03	4.444206E-16	6.246898E-18
4.950000E+03	4.463532E-16	6.612956E-18
4.960000E+03	4.493608E-16	6.960797E-18
4.970000E+03	4.534079E-16	7.291992E-18
4.980000E+03	4.584258E-16	7.608292E-18
4.990000E+03	4.643123E-16	7.911287E-18
5.000000E+03	4.709388E-16	8.202246E-18
5.010000E+03	4.781377E-16	8.481670E-18
5.020000E+03	4.857279E-16	8.749530E-18
5.030000E+03	4.935015E-16	9.004839E-18
5.040000E+03	5.012542E-16	9.246048E-18
5.050000E+03	5.087810E-16	9.470859E-18
5.060000E+03	5.158930E-16	9.676509E-18
5.070000E+03	5.224279E-16	9.860029E-18
5.080000E+03	5.282596E-16	1.001854E-17
5.090000E+03	5.333034E-16	1.014958E-17
5.100000E+03	5.375256E-16	1.025144E-17
5.110000E+03	5.409309E-16	1.032316E-17
5.120000E+03	5.435592E-16	1.036461E-17
5.130000E+03	5.454970E-16	1.037680E-17
5.140000E+03	5.468530E-16	1.036150E-17
5.150000E+03	5.477560E-16	1.032116E-17
5.160000E+03	5.483409E-16	1.025865E-17
5.170000E+03	5.487657E-16	1.017747E-17
5.180000E+03	5.491703E-16	1.008088E-17
5.190000E+03	5.496964E-16	9.972108E-18
5.200000E+03	5.504841E-16	9.854166E-18
5.210000E+03	5.516532E-16	9.729321E-18
5.220000E+03	5.533205E-16	9.599277E-18
5.230000E+03	5.555990E-16	9.465057E-18
5.240000E+03	5.585812E-16	9.326633E-18
5.250000E+03	5.623615E-16	9.183315E-18
5.260000E+03	5.670123E-16	9.033402E-18
5.270000E+03	5.726067E-16	8.874681E-18
5.280000E+03	5.791991E-16	8.704343E-18
5.290000E+03	5.868294E-16	8.519388E-18
5.300000E+03	5.955155E-16	8.317005E-18
5.310000E+03	6.052698E-16	8.095501E-18
5.320000E+03	6.160740E-16	7.854914E-18
5.330000E+03	6.279029E-16	7.598679E-18
5.340000E+03	6.407055E-16	7.335110E-18
5.350000E+03	6.544105E-16	7.079506E-18
5.360000E+03	6.689171E-16	6.855853E-18
5.370000E+03	6.841103E-16	6.697141E-18
5.380000E+03	6.998259E-16	6.640705E-18
5.390000E+03	7.158395E-16	6.719236E-18
5.400000E+03	7.318788E-16	6.952961E-18
5.410000E+03	7.476781E-16	7.340327E-18
5.420000E+03	7.629709E-16	7.855535E-18
5.430000E+03	7.775124E-16	8.461079E-18
5.440000E+03	7.910563E-16	9.118593E-18
5.450000E+03	8.033686E-16	9.794542E-18
5.460000E+03	8.142273E-16	1.046192E-17
5.470000E+03	8.234619E-16	1.110052E-17
5.480000E+03	8.309000E-16	1.169521E-17
5.490000E+03	8.364350E-16	1.223572E-17
5.500000E+03	8.399664E-16	1.271477E-17
5.510000E+03	8.414382E-16	1.312786E-17
5.520000E+03	8.408096E-16	1.347232E-17
5.530000E+03	8.380591E-16	1.374699E-17
5.540000E+03	8.331818E-16	1.395205E-17
5.550000E+03	8.261964E-16	1.408895E-17
5.560000E+03	8.171212E-16	1.415986E-17
5.570000E+03	8.060024E-16	1.416798E-17
5.580000E+03	7.929018E-16	1.411709E-17
5.590000E+03	7.779338E-16	1.401201E-17
5.600000E+03	7.612218E-16	1.385761E-17
5.610000E+03	7.429255E-16	1.365917E-17
5.620000E+03	7.232643E-16	1.342273E-17
5.630000E+03	7.024696E-16	1.315418E-17
5.640000E+03	6.808112E-16	1.285975E-17
5.650000E+03	6.585891E-16	1.254594E-17
5.660000E+03	6.360988E-16	1.221891E-17
5.670000E+03	6.136673E-16	1.188525E-17
5.680000E+03	5.916044E-16	1.155109E-17
5.690000E+03	5.702012E-16	1.122215E-17
5.700000E+03	5.497343E-16	1.090387E-17
5.710000E+03	5.304589E-16	1.060125E-17
5.720000E+03	5.125884E-16	1.031858E-17
5.730000E+03	4.963142E-16	1.005974E-17
5.740000E+03	4.817841E-16	9.827854E-18
5.750000E+03	4.691240E-16	9.625683E-18
5.760000E+03	4.584251E-16	9.455377E-18
5.770000E+03	4.497474E-16	9.318517E-18
5.780000E+03	4.431358E-16	9.216426E-18
5.790000E+03	4.386054E-16	9.149811E-18
5.800000E+03	4.361601E-16	9.119122E-18
5.810000E+03	4.357813E-16	9.124242E-18
5.820000E+03	4.374270E-16	9.164434E-18
5.830000E+03	4.410400E-16	9.238446E-18
5.840000E+03	4.465451E-16	9.344431E-18
5.850000E+03	4.538379E-16	9.479689E-18
5.860000E+03	4.627814E-16	9.640601E-18
5.870000E+03	4.732114E-16	9.822778E-18
5.880000E+03	4.849294E-16	1.002098E-17
5.890000E+03	4.977061E-16	1.022926E-17
5.900000E+03	5.112622E-16	1.044070E-17
5.910000E+03	5.253044E-16	1.064822E-17
5.920000E+03	5.394919E-16	1.084405E-17
5.930000E+03	5.534787E-16	1.102060E-17
5.940000E+03	5.669052E-16	1.117039E-17
5.950000E+03	5.794103E-16	1.128629E-17
5.960000E+03	5.906631E-16	1.136208E-17
5.970000E+03	6.003500E-16	1.139220E-17
5.980000E+03	6.082231E-16	1.137254E-17
5.990000E+03	6.140899E-16	1.130016E-17
6.000000E+03	6.178277E-16	1.117349E-17
6.010000E+03	6.193767E-16	1.099208E-17
6.020000E+03	6.187774E-16	1.075723E-17
6.030000E+03	6.161126E-16	1.047089E-17
6.040000E+03	6.115610E-16	1.013655E-17
6.050000E+03	6.053390E-16	9.758188E-18
6.060000E+03	5.977016E-16	9.340262E-18
6.070000E+03	5.889530E-16	8.887825E-18
6.080000E+03	5.794044E-16	8.405790E-18
6.090000E+03	5.693744E-16	7.898894E-18
6.100000E+03	5.591786E-16	7.371523E-18
6.110000E+03	5.491263E-16	6.827692E-18
6.120000E+03	5.395026E-16	6.270968E-18
6.130000E+03	5.305638E-16	5.704796E-18
6.140000E+03	5.225542E-16	5.133387E-18
6.150000E+03	5.156671E-16	4.562509E-18
6.160000E+03	5.100828E-16	4.001998E-18
6.170000E+03	5.059335E-16	3.468971E-18
6.180000E+03	5.033063E-16	2.993405E-18
6.190000E+03	5.022415E-16	2.623739E-18
6.200000E+03	5.026941E-16	2.420570E-18
6.210000E+03	5.044963E-16	2.417258E-18
6.220000E+03	5.073429E-16	2.591111E-18
6.230000E+03	5.108581E-16	2.899444E-18
6.240000E+03	5.146518E-16	3.309337E-18
6.250000E+03	5.184190E-16	3.793264E-18
6.260000E+03	5.219443E-16	4.322928E-18
6.270000E+03	5.250767E-16	4.873841E-18
6.280000E+03	5.277038E-16	5.426685E-18
6.290000E+03	5.297443E-16	5.966747E-18
6.300000E+03	5.311392E-16	6.483037E-18
6.310000E+03	5.318600E-16	6.967704E-18
6.320000E+03	5.319014E-16	7.415456E-18
6.330000E+03	5.312730E-16	7.823046E-18
6.340000E+03	5.300134E-16	8.189141E-18
6.350000E+03	5.281536E-16	8.513511E-18
6.360000E+03	5.257633E-16	8.797482E-18
6.370000E+03	5.229038E-16	9.043002E-18
6.380000E+03	5.196358E-16	9.252552E-18
6.390000E+03	5.160387E-16	9.429334E-18
6.400000E+03	5.121809E-16	9.576629E-18
6.410000E+03	5.081354E-16	9.697954E-18
6.420000E+03	5.039616E-16	9.796646E-18
6.430000E+03	4.997273E-16	9.876197E-18
6.440000E+03	4.954973E-16	9.939995E-18
6.450000E+03	4.913234E-16	9.991079E-18
6.460000E+03	4.872604E-16	1.003244E-17
6.470000E+03	4.833567E-16	1.006680E-17
6.480000E+03	4.796698E-16	1.009695E-17
6.490000E+03	4.762517E-16	1.012544E-17
6.500000E+03	4.731489E-16	1.015454E-17
6.510000E+03	4.704340E-16	1.018699E-17
6.520000E+03	4.681479E-16	1.022468E-17
6.530000E+03	4.663517E-16	1.026981E-17
6.540000E+03	4.650900E-16	1.032409E-17
6.550000E+03	4.644203E-16	1.038934E-17
6.560000E+03	4.643863E-16	1.046696E-17
6.570000E+03	4.650162E-16	1.055783E-17
6.580000E+03	4.663525E-16	1.066301E-17
6.590000E+03	4.684188E-16	1.078299E-17
6.600000E+03	4.712235E-16	1.091776E-17
6.610000E+03	4.747738E-16	1.106716E-17
6.620000E+03	4.790529E-16	1.123037E-17
6.630000E+03	4.840406E-16	1.140640E-17
6.640000E+03	4.896957E-16	1.159372E-17
6.650000E+03	4.959555E-16	1.179028E-17
6.660000E+03	5.027578E-16	1.199408E-17
6.670000E+03	5.100077E-16	1.220243E-17
6.680000E+03	5.176004E-16	1.241252E-17
6.690000E+03	5.254239E-16	1.262153E-17
6.700000E+03	5.333420E-16	1.282624E-17
6.710000E+03	5.412218E-16	1.302373E-17
6.720000E+03	5.489188E-16	1.321093E-17
6.730000E+03	5.562801E-16	1.338474E-17
6.740000E+03	5.631748E-16	1.354271E-17
6.750000E+03	5.694598E-16	1.368215E-17
6.760000E+03	5.750174E-16	1.380101E-17
6.770000E+03	5.797324E-16	1.389726E-17
6.780000E+03	5.835240E-16	1.396963E-17
6.790000E+03	5.863214E-16	1.401700E-17
6.800000E+03	5.881016E-16	1.403926E-17
6.810000E+03	5.888408E-16	1.403618E-17
6.820000E+03	5.885726E-16	1.400876E-17
6.830000E+03	5.873363E-16	1.395806E-17
6.840000E+03	5.852045E-16	1.388584E-17
6.850000E+03	5.822727E-16	1.379436E-17
6.860000E+03	5.786630E-16	1.368645E-17
6.870000E+03	5.744989E-16	1.356499E-17
6.880000E+03	5.699291E-16	1.343342E-17
6.890000E+03	5.651017E-16	1.329519E-17
6.900000E+03	5.601601E-16	1.315363E-17
6.910000E+03	5.552602E-16	1.301239E-17
6.920000E+03	5.505379E-16	1.287461E-17
6.930000E+03	5.461415E-16	1.274374E-17
6.940000E+03	5.421800E-16	1.262228E-17
6.950000E+03	5.387626E-16	1.251270E-17
6.960000E+03	5.359965E-16	1.241740E-17
6.970000E+03	5.339447E-16	1.233774E-17
6.980000E+03	5.326725E-16	1.227508E-17
6.990000E+03	5.322197E-16	1.223018E-17
7.000000E+03	5.325999E-16	1.220317E-17
7.010000E+03	5.338274E-16	1.219420E-17
7.020000E+03	5.358628E-16	1.220220E-17
7.030000E+03	5.386881E-16	1.222658E-17
7.040000E+03	5.422249E-16	1.226542E-17
7.050000E+03	5.464182E-16	1.231734E-17
7.060000E+03	5.511545E-16	1.237965E-17
7.070000E+03	5.563401E-16	1.245012E-17
7.080000E+03	5.618476E-16	1.252579E-17
7.090000E+03	5.675470E-16	1.260363E-17
7.100000E+03	5.733024E-16	1.268047E-17
7.110000E+03	5.789753E-16	1.275307E-17
7.120000E+03	5.844295E-16	1.281822E-17
7.130000E+03	5.895274E-16	1.287269E-17
7.140000E+03	5.941490E-16	1.291364E-17
7.150000E+03	5.981969E-16	1.293877E-17
7.160000E+03	6.015671E-16	1.294569E-17
7.170000E+03	6.042072E-16	1.293318E-17
7.180000E+03	6.060465E-16	1.289975E-17
7.190000E+03	6.070836E-16	1.284547E-17
7.200000E+03	6.072910E-16	1.276995E-17
7.210000E+03	6.066932E-16	1.267393E-17
7.220000E+03	6.053167E-16	1.255826E-17
7.230000E+03	6.032190E-16	1.242438E-17
7.240000E+03	6.004535E-16	1.227365E-17
7.250000E+03	5.970743E-16	1.210736E-17
7.260000E+03	5.931718E-16	1.192743E-17
7.270000E+03	5.888145E-16	1.173527E-17
7.280000E+03	5.840696E-16	1.153211E-17
7.290000E+03	5.790007E-16	1.131902E-17
7.300000E+03	5.736817E-16	1.109711E-17
7.310000E+03	5.681644E-16	1.086692E-17
7.320000E+03	5.624933E-16	1.062872E-17
7.330000E+03	5.567057E-16	1.038247E-17
7.340000E+03	5.508461E-16	1.012810E-17
7.350000E+03	5.449293E-16	9.864810E-18
7.360000E+03	5.389709E-16	9.591665E-18
7.370000E+03	5.329938E-16	9.307696E-18
7.380000E+03	5.270001E-16	9.011418E-18
7.390000E+03	5.209787E-16	8.701033E-18
7.400000E+03	5.149332E-16	8.374977E-18
7.410000E+03	5.088397E-16	8.031333E-18
7.420000E+03	5.026882E-16	7.668701E-18
7.430000E+03	4.964342E-16	7.285689E-18
7.440000E+03	4.900659E-16	6.882266E-18
7.450000E+03	4.835306E-16	6.459049E-18
7.460000E+03	4.767822E-16	6.018492E-18
7.470000E+03	4.697877E-16	5.565473E-18
7.480000E+03	4.624788E-16	5.107314E-18
7.490000E+03	4.548179E-16	4.655249E-18
7.500000E+03	4.467394E-16	4.224238E-18
7.510000E+03	4.382155E-16	3.833433E-18
7.520000E+03	4.292057E-16	3.503545E-18
7.530000E+03	4.197050E-16	3.251502E-18
7.540000E+03	4.097161E-16	3.079333E-18
7.550000E+03	3.992871E-16	2.964855E-18
7.560000E+03	3.884971E-16	2.872250E-18
7.570000E+03	3.774158E-16	2.768601E-18
7.580000E+03	3.661397E-16	2.632186E-18
7.590000E+03	3.547595E-16	2.454266E-18
7.600000E+03	3.433478E-16	2.239095E-18
7.610000E+03	3.319959E-16	2.005071E-18
7.620000E+03	3.207641E-16	1.787028E-18
7.630000E+03	3.097243E-16	1.637229E-18
7.640000E+03	2.989355E-16	1.609359E-18
7.650000E+03	2.884572E-16	1.716913E-18
7.660000E+03	2.783633E-16	1.922062E-18
7.670000E+03	2.687163E-16	2.176279E-18
7.680000E+03	2.595663E-16	2.444952E-18
7.690000E+03	2.509537E-16	2.708331E-18
7.700000E+03	2.428995E-16	2.956351E-18
7.710000E+03	2.354170E-16	3.184653E-18
7.720000E+03	2.285136E-16	3.392119E-18
7.730000E+03	2.221819E-16	3.579311E-18
7.740000E+03	2.164110E-16	3.747774E-18
7.750000E+03	2.111881E-16	3.899564E-18
7.760000E+03	2.064927E-16	4.036844E-18
