#wls	flux	fluxerr
1.600000E+03	1.482971E-17	1.100806E-17
1.640000E+03	1.473885E-17	1.079834E-17
1.680000E+03	1.465220E-17	1.058974E-17
1.720000E+03	1.456703E-17	1.038023E-17
1.760000E+03	1.448899E-17	1.017376E-17
1.800000E+03	1.441536E-17	9.968249E-18
1.840000E+03	1.434623E-17	9.763651E-18
1.880000E+03	1.428172E-17	9.559928E-18
1.920000E+03	1.422735E-17	9.360583E-18
1.960000E+03	1.417782E-17	9.161880E-18
2.000000E+03	1.413861E-17	8.967156E-18
2.040000E+03	1.410458E-17	8.772865E-18
2.080000E+03	1.408379E-17	8.583769E-18
2.120000E+03	1.407117E-17	8.396378E-18
2.160000E+03	1.407214E-17	8.213566E-18
2.200000E+03	1.408435E-17	8.033488E-18
2.240000E+03	1.410808E-17	7.855899E-18
2.280000E+03	1.414875E-17	7.683287E-18
2.320000E+03	1.420416E-17	7.513831E-18
2.360000E+03	1.427477E-17	7.347166E-18
2.400000E+03	1.436601E-17	7.185405E-18
2.440000E+03	1.447840E-17	7.027935E-18
2.480000E+03	1.461010E-17	6.872997E-18
2.520000E+03	1.476673E-17	6.722332E-18
2.560000E+03	1.495149E-17	6.576276E-18
2.600000E+03	1.516286E-17	6.432959E-18
2.640000E+03	1.540670E-17	6.293626E-18
2.680000E+03	1.568415E-17	6.157316E-18
2.720000E+03	1.600133E-17	6.024881E-18
2.760000E+03	1.635969E-17	5.895138E-18
2.800000E+03	1.676570E-17	5.768570E-18
2.840000E+03	1.722362E-17	5.644599E-18
2.880000E+03	1.774038E-17	5.523288E-18
2.920000E+03	1.832323E-17	5.404478E-18
2.960000E+03	1.897737E-17	5.287160E-18
3.000000E+03	1.971087E-17	5.170997E-18
3.010000E+03	1.990845E-17	5.142301E-18
3.020000E+03	2.011037E-17	5.113312E-18
3.030000E+03	2.031914E-17	5.084634E-18
3.040000E+03	2.053484E-17	5.056233E-18
3.050000E+03	2.075754E-17	5.028077E-18
3.060000E+03	2.098488E-17	4.999547E-18
3.070000E+03	2.121939E-17	4.971222E-18
3.080000E+03	2.146115E-17	4.943074E-18
3.090000E+03	2.171027E-17	4.915082E-18
3.100000E+03	2.196683E-17	4.887225E-18
3.110000E+03	2.223095E-17	4.859489E-18
3.120000E+03	2.250274E-17	4.831859E-18
3.130000E+03	2.278230E-17	4.804327E-18
3.140000E+03	2.307225E-17	4.777406E-18
3.150000E+03	2.337023E-17	4.750560E-18
3.160000E+03	2.367638E-17	4.723794E-18
3.170000E+03	2.399082E-17	4.697117E-18
3.180000E+03	2.431623E-17	4.671029E-18
3.190000E+03	2.465026E-17	4.645048E-18
3.200000E+03	2.499560E-17	4.619670E-18
3.210000E+03	2.534989E-17	4.594442E-18
3.220000E+03	2.571843E-17	4.570313E-18
3.230000E+03	2.609632E-17	4.546389E-18
3.240000E+03	2.648633E-17	4.523163E-18
3.250000E+03	2.688613E-17	4.500244E-18
3.260000E+03	2.730110E-17	4.478550E-18
3.270000E+03	2.772894E-17	4.457698E-18
3.280000E+03	2.816993E-17	4.437754E-18
3.290000E+03	2.862695E-17	4.419197E-18
3.300000E+03	2.909510E-17	4.401294E-18
3.310000E+03	2.957993E-17	4.384939E-18
3.320000E+03	3.008180E-17	4.370215E-18
3.330000E+03	3.059844E-17	4.356834E-18
3.340000E+03	3.113287E-17	4.345287E-18
3.350000E+03	3.168552E-17	4.335681E-18
3.360000E+03	3.225681E-17	4.328132E-18
3.370000E+03	3.284719E-17	4.322762E-18
3.380000E+03	3.345440E-17	4.319346E-18
3.390000E+03	3.408436E-17	4.318723E-18
3.400000E+03	3.473760E-17	4.321010E-18
3.410000E+03	3.541191E-17	4.325989E-18
3.420000E+03	3.610784E-17	4.333793E-18
3.430000E+03	3.682870E-17	4.344876E-18
3.440000E+03	3.757511E-17	4.359350E-18
3.450000E+03	3.834486E-17	4.376993E-18
3.460000E+03	3.914420E-17	4.398543E-18
3.470000E+03	3.996812E-17	4.423438E-18
3.480000E+03	4.082296E-17	4.452375E-18
3.490000E+03	4.170942E-17	4.485390E-18
3.500000E+03	4.262532E-17	4.522194E-18
3.510000E+03	4.357132E-17	4.562789E-18
3.520000E+03	4.455398E-17	4.607763E-18
3.530000E+03	4.556815E-17	4.656455E-18
3.540000E+03	4.661748E-17	4.709095E-18
3.550000E+03	4.770268E-17	4.765578E-18
3.560000E+03	4.882748E-17	4.826075E-18
3.570000E+03	4.998958E-17	4.890124E-18
3.580000E+03	5.119273E-17	4.957839E-18
3.590000E+03	5.243765E-17	5.029003E-18
3.600000E+03	5.372192E-17	5.103078E-18
3.610000E+03	5.505239E-17	5.180387E-18
3.620000E+03	5.642344E-17	5.260044E-18
3.630000E+03	5.784195E-17	5.342317E-18
3.640000E+03	5.930850E-17	5.426859E-18
3.650000E+03	6.082041E-17	5.513007E-18
3.660000E+03	6.238133E-17	5.600659E-18
3.670000E+03	6.399166E-17	5.689399E-18
3.680000E+03	6.565171E-17	5.778789E-18
3.690000E+03	6.736168E-17	5.868372E-18
3.700000E+03	6.912505E-17	5.957960E-18
3.710000E+03	7.093849E-17	6.046769E-18
3.720000E+03	7.280527E-17	6.134575E-18
3.730000E+03	7.472174E-17	6.220567E-18
3.740000E+03	7.669439E-17	6.304778E-18
3.750000E+03	7.871577E-17	6.386091E-18
3.760000E+03	8.079212E-17	6.464518E-18
3.770000E+03	8.292261E-17	6.539499E-18
3.780000E+03	8.510262E-17	6.610191E-18
3.790000E+03	8.733080E-17	6.676046E-18
3.800000E+03	8.960920E-17	6.736796E-18
3.810000E+03	9.193607E-17	6.791911E-18
3.820000E+03	9.431308E-17	6.841150E-18
3.830000E+03	9.673063E-17	6.883501E-18
3.840000E+03	9.918984E-17	6.918793E-18
3.850000E+03	1.016916E-16	6.946893E-18
3.860000E+03	1.042292E-16	6.967205E-18
3.870000E+03	1.067992E-16	6.979463E-18
3.880000E+03	1.094018E-16	6.983727E-18
3.890000E+03	1.120331E-16	6.979892E-18
3.900000E+03	1.146851E-16	6.967721E-18
3.910000E+03	1.173535E-16	6.947345E-18
3.920000E+03	1.200412E-16	6.919468E-18
3.930000E+03	1.227357E-16	6.884019E-18
3.940000E+03	1.254318E-16	6.841537E-18
3.950000E+03	1.281280E-16	6.792909E-18
3.960000E+03	1.308186E-16	6.738916E-18
3.970000E+03	1.334934E-16	6.680233E-18
3.980000E+03	1.361495E-16	6.617984E-18
3.990000E+03	1.387756E-16	6.552917E-18
4.000000E+03	1.413636E-16	6.485958E-18
4.010000E+03	1.439089E-16	6.418139E-18
4.020000E+03	1.463949E-16	6.349885E-18
4.030000E+03	1.488162E-16	6.282060E-18
4.040000E+03	1.511597E-16	6.215081E-18
4.050000E+03	1.534200E-16	6.149602E-18
4.060000E+03	1.555843E-16	6.085873E-18
4.070000E+03	1.576400E-16	6.024088E-18
4.080000E+03	1.595828E-16	5.964674E-18
4.090000E+03	1.614052E-16	5.907834E-18
4.100000E+03	1.630932E-16	5.853416E-18
4.110000E+03	1.646416E-16	5.801469E-18
4.120000E+03	1.660467E-16	5.751921E-18
4.130000E+03	1.673068E-16	5.704559E-18
4.140000E+03	1.684184E-16	5.658908E-18
4.150000E+03	1.693839E-16	5.614485E-18
4.160000E+03	1.702042E-16	5.570561E-18
4.170000E+03	1.708824E-16	5.526316E-18
4.180000E+03	1.714270E-16	5.480983E-18
4.190000E+03	1.718445E-16	5.433643E-18
4.200000E+03	1.721463E-16	5.383492E-18
4.210000E+03	1.723413E-16	5.329660E-18
4.220000E+03	1.724391E-16	5.271350E-18
4.230000E+03	1.724532E-16	5.207978E-18
4.240000E+03	1.723941E-16	5.139000E-18
4.250000E+03	1.722726E-16	5.064041E-18
4.260000E+03	1.720995E-16	4.982923E-18
4.270000E+03	1.718889E-16	4.895771E-18
4.280000E+03	1.716515E-16	4.802844E-18
4.290000E+03	1.713982E-16	4.704635E-18
4.300000E+03	1.711421E-16	4.601949E-18
4.310000E+03	1.708902E-16	4.495664E-18
4.320000E+03	1.706576E-16	4.387137E-18
4.330000E+03	1.704471E-16	4.277686E-18
4.340000E+03	1.702747E-16	4.169275E-18
4.350000E+03	1.701471E-16	4.063961E-18
4.360000E+03	1.700700E-16	3.964153E-18
4.370000E+03	1.700513E-16	3.872650E-18
4.380000E+03	1.700980E-16	3.792524E-18
4.390000E+03	1.702193E-16	3.727026E-18
4.400000E+03	1.704238E-16	3.679277E-18
4.410000E+03	1.707149E-16	3.651796E-18
4.420000E+03	1.711086E-16	3.646411E-18
4.430000E+03	1.716105E-16	3.663108E-18
4.440000E+03	1.722332E-16	3.700086E-18
4.450000E+03	1.729818E-16	3.754195E-18
4.460000E+03	1.738610E-16	3.821661E-18
4.470000E+03	1.748678E-16	3.898378E-18
4.480000E+03	1.760056E-16	3.980524E-18
4.490000E+03	1.772672E-16	4.064361E-18
4.500000E+03	1.786517E-16	4.146707E-18
4.510000E+03	1.801546E-16	4.224741E-18
4.520000E+03	1.817725E-16	4.296109E-18
4.530000E+03	1.835007E-16	4.358847E-18
4.540000E+03	1.853352E-16	4.411395E-18
4.550000E+03	1.872633E-16	4.452341E-18
4.560000E+03	1.892822E-16	4.480854E-18
4.570000E+03	1.913772E-16	4.496143E-18
4.580000E+03	1.935383E-16	4.497842E-18
4.590000E+03	1.957483E-16	4.485712E-18
4.600000E+03	1.979869E-16	4.459739E-18
4.610000E+03	2.002415E-16	4.420333E-18
4.620000E+03	2.024824E-16	4.367759E-18
4.630000E+03	2.046882E-16	4.302665E-18
4.640000E+03	2.068397E-16	4.225890E-18
4.650000E+03	2.089055E-16	4.138159E-18
4.660000E+03	2.108710E-16	4.040671E-18
4.670000E+03	2.127145E-16	3.934603E-18
4.680000E+03	2.144199E-16	3.821422E-18
4.690000E+03	2.159795E-16	3.702979E-18
4.700000E+03	2.173789E-16	3.581286E-18
4.710000E+03	2.186168E-16	3.458905E-18
4.720000E+03	2.196892E-16	3.338653E-18
4.730000E+03	2.205944E-16	3.223537E-18
4.740000E+03	2.213377E-16	3.116494E-18
4.750000E+03	2.219185E-16	3.019702E-18
4.760000E+03	2.223417E-16	2.933711E-18
4.770000E+03	2.226070E-16	2.856171E-18
4.780000E+03	2.227217E-16	2.784026E-18
4.790000E+03	2.226898E-16	2.714801E-18
4.800000E+03	2.225260E-16	2.647832E-18
4.810000E+03	2.222480E-16	2.584950E-18
4.820000E+03	2.218768E-16	2.530887E-18
4.830000E+03	2.214458E-16	2.493267E-18
4.840000E+03	2.209842E-16	2.481467E-18
4.850000E+03	2.205258E-16	2.504698E-18
4.860000E+03	2.201062E-16	2.569135E-18
4.870000E+03	2.197502E-16	2.674566E-18
4.880000E+03	2.194848E-16	2.815186E-18
4.890000E+03	2.193252E-16	2.982401E-18
4.900000E+03	2.192945E-16	3.167222E-18
4.910000E+03	2.194090E-16	3.361394E-18
4.920000E+03	2.196829E-16	3.557985E-18
4.930000E+03	2.201307E-16	3.751513E-18
4.940000E+03	2.207568E-16	3.937642E-18
4.950000E+03	2.215749E-16	4.113322E-18
4.960000E+03	2.225866E-16	4.276236E-18
4.970000E+03	2.237926E-16	4.424846E-18
4.980000E+03	2.251929E-16	4.558282E-18
4.990000E+03	2.267791E-16	4.676096E-18
5.000000E+03	2.285429E-16	4.778377E-18
5.010000E+03	2.304709E-16	4.865593E-18
5.020000E+03	2.325365E-16	4.938359E-18
5.030000E+03	2.347165E-16	4.997734E-18
5.040000E+03	2.369738E-16	5.044788E-18
5.050000E+03	2.392704E-16	5.080796E-18
5.060000E+03	2.415614E-16	5.107028E-18
5.070000E+03	2.437995E-16	5.124857E-18
5.080000E+03	2.459352E-16	5.135757E-18
5.090000E+03	2.479314E-16	5.141530E-18
5.100000E+03	2.497512E-16	5.143912E-18
5.110000E+03	2.513724E-16	5.144644E-18
5.120000E+03	2.527885E-16	5.145249E-18
5.130000E+03	2.540112E-16	5.146953E-18
5.140000E+03	2.550615E-16	5.150408E-18
5.150000E+03	2.559777E-16	5.155859E-18
5.160000E+03	2.568007E-16	5.163002E-18
5.170000E+03	2.575820E-16	5.171376E-18
5.180000E+03	2.583583E-16	5.180035E-18
5.190000E+03	2.591776E-16	5.188232E-18
5.200000E+03	2.600711E-16	5.194943E-18
5.210000E+03	2.610625E-16	5.199113E-18
5.220000E+03	2.621767E-16	5.199890E-18
5.230000E+03	2.634248E-16	5.196368E-18
5.240000E+03	2.648154E-16	5.187829E-18
5.250000E+03	2.663534E-16	5.173709E-18
5.260000E+03	2.680429E-16	5.153642E-18
5.270000E+03	2.698799E-16	5.127307E-18
5.280000E+03	2.718603E-16	5.094661E-18
5.290000E+03	2.739798E-16	5.056041E-18
5.300000E+03	2.762287E-16	5.012148E-18
5.310000E+03	2.785909E-16	4.964175E-18
5.320000E+03	2.810529E-16	4.914043E-18
5.330000E+03	2.835949E-16	4.864288E-18
5.340000E+03	2.861935E-16	4.818081E-18
5.350000E+03	2.888223E-16	4.779078E-18
5.360000E+03	2.914495E-16	4.751043E-18
5.370000E+03	2.940508E-16	4.737576E-18
5.380000E+03	2.965915E-16	4.741015E-18
5.390000E+03	2.990541E-16	4.761812E-18
5.400000E+03	3.014152E-16	4.798791E-18
5.410000E+03	3.036565E-16	4.849765E-18
5.420000E+03	3.057619E-16	4.911811E-18
5.430000E+03	3.077194E-16	4.981912E-18
5.440000E+03	3.095089E-16	5.057090E-18
5.450000E+03	3.111232E-16	5.134928E-18
5.460000E+03	3.125435E-16	5.213246E-18
5.470000E+03	3.137641E-16	5.290476E-18
5.480000E+03	3.147706E-16	5.365191E-18
5.490000E+03	3.155495E-16	5.436169E-18
5.500000E+03	3.160979E-16	5.502421E-18
5.510000E+03	3.163977E-16	5.562614E-18
5.520000E+03	3.164460E-16	5.615558E-18
5.530000E+03	3.162323E-16	5.659769E-18
5.540000E+03	3.157426E-16	5.693593E-18
5.550000E+03	3.149565E-16	5.715346E-18
5.560000E+03	3.138556E-16	5.723731E-18
5.570000E+03	3.124149E-16	5.717888E-18
5.580000E+03	3.106070E-16	5.697647E-18
5.590000E+03	3.084042E-16	5.663663E-18
5.600000E+03	3.057812E-16	5.617399E-18
5.610000E+03	3.027175E-16	5.560977E-18
5.620000E+03	2.991987E-16	5.496834E-18
5.630000E+03	2.952288E-16	5.427586E-18
5.640000E+03	2.908213E-16	5.355563E-18
5.650000E+03	2.860168E-16	5.282871E-18
5.660000E+03	2.808611E-16	5.210833E-18
5.670000E+03	2.754301E-16	5.140557E-18
5.680000E+03	2.698034E-16	5.072620E-18
5.690000E+03	2.640702E-16	5.007387E-18
5.700000E+03	2.583230E-16	4.945120E-18
5.710000E+03	2.526536E-16	4.886100E-18
5.720000E+03	2.471476E-16	4.830649E-18
5.730000E+03	2.418934E-16	4.779360E-18
5.740000E+03	2.369611E-16	4.732706E-18
5.750000E+03	2.324262E-16	4.691419E-18
5.760000E+03	2.283525E-16	4.656032E-18
5.770000E+03	2.247916E-16	4.626726E-18
5.780000E+03	2.217940E-16	4.603461E-18
5.790000E+03	2.194003E-16	4.585865E-18
5.800000E+03	2.176433E-16	4.573386E-18
5.810000E+03	2.165457E-16	4.565332E-18
5.820000E+03	2.161254E-16	4.561038E-18
5.830000E+03	2.163956E-16	4.559898E-18
5.840000E+03	2.173573E-16	4.561215E-18
5.850000E+03	2.190019E-16	4.564215E-18
5.860000E+03	2.213136E-16	4.568089E-18
5.870000E+03	2.242525E-16	4.571648E-18
5.880000E+03	2.277695E-16	4.573776E-18
5.890000E+03	2.317977E-16	4.573433E-18
5.900000E+03	2.362594E-16	4.569980E-18
5.910000E+03	2.410666E-16	4.563316E-18
5.920000E+03	2.461137E-16	4.553770E-18
5.930000E+03	2.512820E-16	4.542100E-18
5.940000E+03	2.564490E-16	4.529389E-18
5.950000E+03	2.614748E-16	4.516320E-18
5.960000E+03	2.662272E-16	4.503151E-18
5.970000E+03	2.705672E-16	4.489203E-18
5.980000E+03	2.743750E-16	4.473155E-18
5.990000E+03	2.775461E-16	4.452937E-18
6.000000E+03	2.799951E-16	4.426003E-18
6.010000E+03	2.816665E-16	4.389786E-18
6.020000E+03	2.825305E-16	4.341905E-18
6.030000E+03	2.825747E-16	4.280300E-18
6.040000E+03	2.818201E-16	4.203643E-18
6.050000E+03	2.803113E-16	4.111243E-18
6.060000E+03	2.781086E-16	4.002941E-18
6.070000E+03	2.752971E-16	3.879156E-18
6.080000E+03	2.719747E-16	3.740629E-18
6.090000E+03	2.682507E-16	3.588420E-18
6.100000E+03	2.642441E-16	3.423913E-18
6.110000E+03	2.600713E-16	3.248720E-18
6.120000E+03	2.558533E-16	3.064941E-18
6.130000E+03	2.517013E-16	2.875190E-18
6.140000E+03	2.477226E-16	2.682819E-18
6.150000E+03	2.440179E-16	2.492066E-18
6.160000E+03	2.406693E-16	2.308132E-18
6.170000E+03	2.377466E-16	2.137570E-18
6.180000E+03	2.353135E-16	1.988706E-18
6.190000E+03	2.334058E-16	1.871285E-18
6.200000E+03	2.320483E-16	1.795206E-18
6.210000E+03	2.312239E-16	1.766265E-18
6.220000E+03	2.308754E-16	1.783361E-18
6.230000E+03	2.309313E-16	1.842017E-18
6.240000E+03	2.313132E-16	1.936050E-18
6.250000E+03	2.319510E-16	2.056626E-18
6.260000E+03	2.327928E-16	2.193187E-18
6.270000E+03	2.337963E-16	2.336652E-18
6.280000E+03	2.349197E-16	2.480085E-18
6.290000E+03	2.361256E-16	2.618758E-18
6.300000E+03	2.373751E-16	2.749819E-18
6.310000E+03	2.386310E-16	2.871951E-18
6.320000E+03	2.398574E-16	2.984934E-18
6.330000E+03	2.410132E-16	3.089151E-18
6.340000E+03	2.420626E-16	3.185277E-18
6.350000E+03	2.429648E-16	3.273790E-18
6.360000E+03	2.436927E-16	3.355101E-18
6.370000E+03	2.442177E-16	3.429320E-18
6.380000E+03	2.445232E-16	3.496483E-18
6.390000E+03	2.445950E-16	3.556606E-18
6.400000E+03	2.444309E-16	3.610020E-18
6.410000E+03	2.440326E-16	3.657349E-18
6.420000E+03	2.434079E-16	3.699534E-18
6.430000E+03	2.425729E-16	3.737739E-18
6.440000E+03	2.415461E-16	3.773116E-18
6.450000E+03	2.403523E-16	3.806797E-18
6.460000E+03	2.390163E-16	3.839723E-18
6.470000E+03	2.375686E-16	3.872718E-18
6.480000E+03	2.360351E-16	3.906403E-18
6.490000E+03	2.344432E-16	3.941392E-18
6.500000E+03	2.328215E-16	3.978285E-18
6.510000E+03	2.311868E-16	4.017389E-18
6.520000E+03	2.295589E-16	4.058827E-18
6.530000E+03	2.279529E-16	4.102332E-18
6.540000E+03	2.263874E-16	4.147447E-18
6.550000E+03	2.248700E-16	4.193407E-18
6.560000E+03	2.234201E-16	4.239630E-18
6.570000E+03	2.220467E-16	4.285412E-18
6.580000E+03	2.207662E-16	4.330267E-18
6.590000E+03	2.195888E-16	4.373648E-18
6.600000E+03	2.185279E-16	4.415029E-18
6.610000E+03	2.175913E-16	4.453607E-18
6.620000E+03	2.167792E-16	4.488217E-18
6.630000E+03	2.160919E-16	4.517552E-18
6.640000E+03	2.155186E-16	4.540135E-18
6.650000E+03	2.150476E-16	4.554665E-18
6.660000E+03	2.146624E-16	4.560084E-18
6.670000E+03	2.143350E-16	4.555578E-18
6.680000E+03	2.140443E-16	4.541026E-18
6.690000E+03	2.137591E-16	4.516689E-18
6.700000E+03	2.134489E-16	4.483388E-18
6.710000E+03	2.130837E-16	4.442436E-18
6.720000E+03	2.126301E-16	4.395402E-18
6.730000E+03	2.120527E-16	4.343918E-18
6.740000E+03	2.113240E-16	4.289685E-18
6.750000E+03	2.104126E-16	4.234033E-18
6.760000E+03	2.092911E-16	4.177944E-18
6.770000E+03	2.079457E-16	4.122111E-18
6.780000E+03	2.063643E-16	4.066724E-18
6.790000E+03	2.045398E-16	4.011602E-18
6.800000E+03	2.024773E-16	3.956410E-18
6.810000E+03	2.001844E-16	3.900602E-18
6.820000E+03	1.976799E-16	3.843722E-18
6.830000E+03	1.949863E-16	3.785355E-18
6.840000E+03	1.921313E-16	3.725278E-18
6.850000E+03	1.891463E-16	3.663525E-18
6.860000E+03	1.860655E-16	3.600402E-18
6.870000E+03	1.829272E-16	3.536497E-18
6.880000E+03	1.797645E-16	3.472450E-18
6.890000E+03	1.766193E-16	3.409154E-18
6.900000E+03	1.735290E-16	3.347436E-18
6.910000E+03	1.705259E-16	3.287993E-18
6.920000E+03	1.676492E-16	3.231570E-18
6.930000E+03	1.649324E-16	3.178721E-18
6.940000E+03	1.624074E-16	3.129895E-18
6.950000E+03	1.601027E-16	3.085406E-18
6.960000E+03	1.580468E-16	3.045536E-18
6.970000E+03	1.562705E-16	3.010582E-18
6.980000E+03	1.547948E-16	2.980646E-18
6.990000E+03	1.536440E-16	2.955909E-18
7.000000E+03	1.528373E-16	2.936493E-18
7.010000E+03	1.523880E-16	2.922453E-18
7.020000E+03	1.523100E-16	2.913937E-18
7.030000E+03	1.526057E-16	2.910975E-18
7.040000E+03	1.532702E-16	2.913567E-18
7.050000E+03	1.542962E-16	2.921788E-18
7.060000E+03	1.556619E-16	2.935547E-18
7.070000E+03	1.573378E-16	2.954699E-18
7.080000E+03	1.592860E-16	2.979023E-18
7.090000E+03	1.614611E-16	3.008224E-18
7.100000E+03	1.638122E-16	3.041916E-18
7.110000E+03	1.662874E-16	3.079657E-18
7.120000E+03	1.688303E-16	3.120818E-18
7.130000E+03	1.713895E-16	3.164672E-18
7.140000E+03	1.739204E-16	3.210408E-18
7.150000E+03	1.763810E-16	3.257026E-18
7.160000E+03	1.787419E-16	3.303519E-18
7.170000E+03	1.809781E-16	3.348745E-18
7.180000E+03	1.830784E-16	3.391642E-18
7.190000E+03	1.850357E-16	3.431102E-18
7.200000E+03	1.868556E-16	3.466234E-18
7.210000E+03	1.885476E-16	3.496314E-18
7.220000E+03	1.901266E-16	3.520875E-18
7.230000E+03	1.916115E-16	3.539711E-18
7.240000E+03	1.930236E-16	3.552847E-18
7.250000E+03	1.943860E-16	3.560478E-18
7.260000E+03	1.957220E-16	3.562959E-18
7.270000E+03	1.970532E-16	3.560766E-18
7.280000E+03	1.984011E-16	3.554466E-18
7.290000E+03	1.997745E-16	3.544429E-18
7.300000E+03	2.011860E-16	3.531013E-18
7.310000E+03	2.026359E-16	3.514215E-18
7.320000E+03	2.041142E-16	3.493812E-18
7.330000E+03	2.056077E-16	3.469604E-18
7.340000E+03	2.070977E-16	3.441451E-18
7.350000E+03	2.085634E-16	3.409295E-18
7.360000E+03	2.099730E-16	3.372914E-18
7.370000E+03	2.112928E-16	3.331950E-18
7.380000E+03	2.124845E-16	3.285878E-18
7.390000E+03	2.135091E-16	3.234091E-18
7.400000E+03	2.143176E-16	3.175796E-18
7.410000E+03	2.148688E-16	3.110409E-18
7.420000E+03	2.151210E-16	3.037506E-18
7.430000E+03	2.150365E-16	2.956948E-18
7.440000E+03	2.145807E-16	2.868915E-18
7.450000E+03	2.137291E-16	2.774001E-18
7.460000E+03	2.124717E-16	2.673237E-18
7.470000E+03	2.107923E-16	2.567875E-18
7.480000E+03	2.087002E-16	2.459796E-18
7.490000E+03	2.061976E-16	2.351077E-18
7.500000E+03	2.032993E-16	2.244188E-18
7.510000E+03	2.000292E-16	2.141762E-18
7.520000E+03	1.964125E-16	2.046118E-18
7.530000E+03	1.924879E-16	1.958873E-18
7.540000E+03	1.882990E-16	1.879994E-18
7.550000E+03	1.839054E-16	1.805942E-18
7.560000E+03	1.793760E-16	1.731799E-18
7.570000E+03	1.747823E-16	1.653709E-18
7.580000E+03	1.701954E-16	1.569896E-18
7.590000E+03	1.656832E-16	1.481229E-18
7.600000E+03	1.613083E-16	1.391442E-18
7.610000E+03	1.571254E-16	1.307095E-18
7.620000E+03	1.531863E-16	1.237190E-18
7.630000E+03	1.495307E-16	1.191707E-18
7.640000E+03	1.461907E-16	1.178909E-18
7.650000E+03	1.431822E-16	1.200871E-18
7.660000E+03	1.404967E-16	1.252151E-18
7.670000E+03	1.381209E-16	1.324616E-18
7.680000E+03	1.360411E-16	1.410427E-18
7.690000E+03	1.342381E-16	1.503353E-18
7.700000E+03	1.327015E-16	1.599112E-18
7.710000E+03	1.314150E-16	1.694913E-18
7.720000E+03	1.303711E-16	1.789208E-18
7.730000E+03	1.295575E-16	1.881155E-18
7.740000E+03	1.289643E-16	1.970406E-18
7.750000E+03	1.285812E-16	2.056856E-18
7.760000E+03	1.283973E-16	2.140479E-18
