#wls	flux	fluxerr
1.600000E+03	1.430604E-17	1.052077E-17
1.640000E+03	1.417060E-17	1.028001E-17
1.680000E+03	1.403856E-17	1.004070E-17
1.720000E+03	1.390993E-17	9.802789E-18
1.760000E+03	1.378202E-17	9.564369E-18
1.800000E+03	1.366024E-17	9.329181E-18
1.840000E+03	1.354191E-17	9.095289E-18
1.880000E+03	1.342970E-17	8.864397E-18
1.920000E+03	1.332100E-17	8.634680E-18
1.960000E+03	1.321846E-17	8.407762E-18
2.000000E+03	1.312462E-17	8.185083E-18
2.040000E+03	1.303695E-17	7.964843E-18
2.080000E+03	1.295553E-17	7.746925E-18
2.120000E+03	1.288291E-17	7.532653E-18
2.160000E+03	1.282156E-17	7.323165E-18
2.200000E+03	1.276673E-17	7.115419E-18
2.240000E+03	1.272573E-17	6.913197E-18
2.280000E+03	1.269158E-17	6.712291E-18
2.320000E+03	1.267155E-17	6.516220E-18
2.360000E+03	1.266350E-17	6.323372E-18
2.400000E+03	1.266775E-17	6.133436E-18
2.440000E+03	1.268691E-17	5.947161E-18
2.480000E+03	1.272140E-17	5.764118E-18
2.520000E+03	1.277171E-17	5.583889E-18
2.560000E+03	1.284063E-17	5.406981E-18
2.600000E+03	1.292882E-17	5.232854E-18
2.640000E+03	1.303921E-17	5.061807E-18
2.680000E+03	1.317058E-17	4.892385E-18
2.720000E+03	1.333031E-17	4.726292E-18
2.760000E+03	1.351741E-17	4.561896E-18
2.800000E+03	1.373736E-17	4.399723E-18
2.840000E+03	1.399156E-17	4.238708E-18
2.880000E+03	1.428781E-17	4.079547E-18
2.920000E+03	1.462779E-17	3.920804E-18
2.960000E+03	1.501750E-17	3.762081E-18
3.000000E+03	1.546515E-17	3.603185E-18
3.010000E+03	1.558642E-17	3.563223E-18
3.020000E+03	1.571111E-17	3.523014E-18
3.030000E+03	1.584130E-17	3.482990E-18
3.040000E+03	1.597498E-17	3.442656E-18
3.050000E+03	1.611217E-17	3.401988E-18
3.060000E+03	1.625499E-17	3.361396E-18
3.070000E+03	1.640348E-17	3.320832E-18
3.080000E+03	1.655561E-17	3.279840E-18
3.090000E+03	1.671350E-17	3.238805E-18
3.100000E+03	1.687512E-17	3.197291E-18
3.110000E+03	1.704469E-17	3.156054E-18
3.120000E+03	1.721807E-17	3.114277E-18
3.130000E+03	1.739742E-17	3.072317E-18
3.140000E+03	1.758279E-17	3.030142E-18
3.150000E+03	1.777214E-17	2.987369E-18
3.160000E+03	1.796972E-17	2.944686E-18
3.170000E+03	1.817352E-17	2.901707E-18
3.180000E+03	1.838360E-17	2.858415E-18
3.190000E+03	1.860214E-17	2.815117E-18
3.200000E+03	1.882713E-17	2.771469E-18
3.210000E+03	1.905865E-17	2.727470E-18
3.220000E+03	1.929680E-17	2.683126E-18
3.230000E+03	1.954380E-17	2.638740E-18
3.240000E+03	1.979979E-17	2.594310E-18
3.250000E+03	2.006276E-17	2.549577E-18
3.260000E+03	2.033498E-17	2.504849E-18
3.270000E+03	2.061662E-17	2.460165E-18
3.280000E+03	2.090786E-17	2.415575E-18
3.290000E+03	2.120888E-17	2.371148E-18
3.300000E+03	2.151991E-17	2.326973E-18
3.310000E+03	2.184116E-17	2.283160E-18
3.320000E+03	2.217291E-17	2.239840E-18
3.330000E+03	2.251761E-17	2.197388E-18
3.340000E+03	2.287339E-17	2.155765E-18
3.350000E+03	2.324280E-17	2.115391E-18
3.360000E+03	2.362622E-17	2.076500E-18
3.370000E+03	2.402407E-17	2.039362E-18
3.380000E+03	2.443461E-17	2.004105E-18
3.390000E+03	2.486053E-17	1.971266E-18
3.400000E+03	2.530461E-17	1.941398E-18
3.410000E+03	2.576520E-17	1.914734E-18
3.420000E+03	2.624293E-17	1.891714E-18
3.430000E+03	2.674073E-17	1.872955E-18
3.440000E+03	2.725704E-17	1.858751E-18
3.450000E+03	2.779489E-17	1.849706E-18
3.460000E+03	2.835507E-17	1.846236E-18
3.470000E+03	2.893841E-17	1.848706E-18
3.480000E+03	2.954578E-17	1.857421E-18
3.490000E+03	3.018038E-17	1.872747E-18
3.500000E+03	3.084082E-17	1.894669E-18
3.510000E+03	3.152801E-17	1.923227E-18
3.520000E+03	3.224531E-17	1.958507E-18
3.530000E+03	3.299615E-17	2.000519E-18
3.540000E+03	3.377680E-17	2.048758E-18
3.550000E+03	3.459077E-17	2.103099E-18
3.560000E+03	3.544165E-17	2.163376E-18
3.570000E+03	3.632824E-17	2.229092E-18
3.580000E+03	3.725426E-17	2.300033E-18
3.590000E+03	3.821855E-17	2.375666E-18
3.600000E+03	3.922755E-17	2.455925E-18
3.610000E+03	4.027763E-17	2.540115E-18
3.620000E+03	4.137542E-17	2.628186E-18
3.630000E+03	4.252254E-17	2.719778E-18
3.640000E+03	4.371800E-17	2.814371E-18
3.650000E+03	4.496612E-17	2.911784E-18
3.660000E+03	4.626861E-17	3.011676E-18
3.670000E+03	4.762725E-17	3.113713E-18
3.680000E+03	4.904380E-17	3.217559E-18
3.690000E+03	5.052281E-17	3.323063E-18
3.700000E+03	5.206615E-17	3.429897E-18
3.710000E+03	5.367278E-17	3.537539E-18
3.720000E+03	5.535017E-17	3.646025E-18
3.730000E+03	5.709430E-17	3.754631E-18
3.740000E+03	5.891261E-17	3.863386E-18
3.750000E+03	6.080673E-17	3.971934E-18
3.760000E+03	6.277516E-17	4.079714E-18
3.770000E+03	6.482218E-17	4.186544E-18
3.780000E+03	6.695203E-17	4.292244E-18
3.790000E+03	6.915947E-17	4.396032E-18
3.800000E+03	7.145139E-17	4.497915E-18
3.810000E+03	7.382824E-17	4.597506E-18
3.820000E+03	7.628687E-17	4.694221E-18
3.830000E+03	7.883015E-17	4.787884E-18
3.840000E+03	8.145736E-17	4.878132E-18
3.850000E+03	8.417065E-17	4.964822E-18
3.860000E+03	8.696493E-17	5.047437E-18
3.870000E+03	8.983783E-17	5.125693E-18
3.880000E+03	9.278984E-17	5.199545E-18
3.890000E+03	9.581381E-17	5.268601E-18
3.900000E+03	9.890887E-17	5.332915E-18
3.910000E+03	1.020735E-16	5.392598E-18
3.920000E+03	1.052946E-16	5.447245E-18
3.930000E+03	1.085726E-16	5.497293E-18
3.940000E+03	1.118924E-16	5.542484E-18
3.950000E+03	1.152529E-16	5.583381E-18
3.960000E+03	1.186448E-16	5.620232E-18
3.970000E+03	1.220501E-16	5.652981E-18
3.980000E+03	1.254654E-16	5.682343E-18
3.990000E+03	1.288790E-16	5.708701E-18
4.000000E+03	1.322743E-16	5.732280E-18
4.010000E+03	1.356386E-16	5.753487E-18
4.020000E+03	1.389624E-16	5.772874E-18
4.030000E+03	1.422282E-16	5.790623E-18
4.040000E+03	1.454266E-16	5.807190E-18
4.050000E+03	1.485365E-16	5.822480E-18
4.060000E+03	1.515531E-16	5.836952E-18
4.070000E+03	1.544566E-16	5.850341E-18
4.080000E+03	1.572402E-16	5.862748E-18
4.090000E+03	1.598944E-16	5.874007E-18
4.100000E+03	1.624072E-16	5.883705E-18
4.110000E+03	1.647723E-16	5.891474E-18
4.120000E+03	1.669854E-16	5.896848E-18
4.130000E+03	1.690404E-16	5.899142E-18
4.140000E+03	1.709372E-16	5.897742E-18
4.150000E+03	1.726778E-16	5.891976E-18
4.160000E+03	1.742626E-16	5.881008E-18
4.170000E+03	1.756978E-16	5.864116E-18
4.180000E+03	1.769880E-16	5.840456E-18
4.190000E+03	1.781392E-16	5.809211E-18
4.200000E+03	1.791667E-16	5.769845E-18
4.210000E+03	1.800759E-16	5.721521E-18
4.220000E+03	1.808770E-16	5.663603E-18
4.230000E+03	1.815844E-16	5.595662E-18
4.240000E+03	1.822099E-16	5.517262E-18
4.250000E+03	1.827650E-16	5.428095E-18
4.260000E+03	1.832585E-16	5.327909E-18
4.270000E+03	1.837085E-16	5.216914E-18
4.280000E+03	1.841198E-16	5.095135E-18
4.290000E+03	1.845062E-16	4.963121E-18
4.300000E+03	1.848747E-16	4.821523E-18
4.310000E+03	1.852342E-16	4.671430E-18
4.320000E+03	1.855930E-16	4.514346E-18
4.330000E+03	1.859519E-16	4.352140E-18
4.340000E+03	1.863231E-16	4.187581E-18
4.350000E+03	1.867054E-16	4.023874E-18
4.360000E+03	1.871028E-16	3.865179E-18
4.370000E+03	1.875152E-16	3.716453E-18
4.380000E+03	1.879449E-16	3.583519E-18
4.390000E+03	1.883933E-16	3.472754E-18
4.400000E+03	1.888619E-16	3.390572E-18
4.410000E+03	1.893521E-16	3.342616E-18
4.420000E+03	1.898695E-16	3.332739E-18
4.430000E+03	1.904169E-16	3.361504E-18
4.440000E+03	1.910125E-16	3.425891E-18
4.450000E+03	1.916650E-16	3.520308E-18
4.460000E+03	1.923889E-16	3.638118E-18
4.470000E+03	1.931929E-16	3.772388E-18
4.480000E+03	1.940874E-16	3.916683E-18
4.490000E+03	1.950783E-16	4.065280E-18
4.500000E+03	1.961805E-16	4.213547E-18
4.510000E+03	1.973929E-16	4.357411E-18
4.520000E+03	1.987228E-16	4.493750E-18
4.530000E+03	2.001747E-16	4.620058E-18
4.540000E+03	2.017447E-16	4.734194E-18
4.550000E+03	2.034314E-16	4.834519E-18
4.560000E+03	2.052302E-16	4.919691E-18
4.570000E+03	2.071336E-16	4.988597E-18
4.580000E+03	2.091311E-16	5.040309E-18
4.590000E+03	2.112066E-16	5.073985E-18
4.600000E+03	2.133440E-16	5.088991E-18
4.610000E+03	2.155301E-16	5.084963E-18
4.620000E+03	2.177390E-16	5.061442E-18
4.630000E+03	2.199509E-16	5.018348E-18
4.640000E+03	2.221424E-16	4.955768E-18
4.650000E+03	2.242918E-16	4.874127E-18
4.660000E+03	2.263720E-16	4.774058E-18
4.670000E+03	2.283588E-16	4.656653E-18
4.680000E+03	2.302347E-16	4.523563E-18
4.690000E+03	2.319726E-16	4.376706E-18
4.700000E+03	2.335583E-16	4.218732E-18
4.710000E+03	2.349722E-16	4.052626E-18
4.720000E+03	2.361998E-16	3.881825E-18
4.730000E+03	2.372328E-16	3.710012E-18
4.740000E+03	2.380606E-16	3.540605E-18
4.750000E+03	2.386782E-16	3.376301E-18
4.760000E+03	2.390822E-16	3.217630E-18
4.770000E+03	2.392655E-16	3.061474E-18
4.780000E+03	2.392234E-16	2.903637E-18
4.790000E+03	2.389609E-16	2.740865E-18
4.800000E+03	2.384817E-16	2.572213E-18
4.810000E+03	2.377915E-16	2.400564E-18
4.820000E+03	2.369065E-16	2.234231E-18
4.830000E+03	2.358419E-16	2.088220E-18
4.840000E+03	2.346266E-16	1.984504E-18
4.850000E+03	2.332835E-16	1.948232E-18
4.860000E+03	2.318473E-16	1.997847E-18
4.870000E+03	2.303612E-16	2.130849E-18
4.880000E+03	2.288580E-16	2.327603E-18
4.890000E+03	2.273857E-16	2.565581E-18
4.900000E+03	2.259838E-16	2.825919E-18
4.910000E+03	2.246915E-16	3.095008E-18
4.920000E+03	2.235415E-16	3.363671E-18
4.930000E+03	2.225666E-16	3.626073E-18
4.940000E+03	2.217890E-16	3.878564E-18
4.950000E+03	2.212299E-16	4.119097E-18
4.960000E+03	2.208974E-16	4.346510E-18
4.970000E+03	2.208033E-16	4.560491E-18
4.980000E+03	2.209440E-16	4.760961E-18
4.990000E+03	2.213177E-16	4.948253E-18
5.000000E+03	2.219154E-16	5.122800E-18
5.010000E+03	2.227233E-16	5.285106E-18
5.020000E+03	2.237188E-16	5.435576E-18
5.030000E+03	2.248885E-16	5.574904E-18
5.040000E+03	2.262015E-16	5.703399E-18
5.050000E+03	2.276381E-16	5.821642E-18
5.060000E+03	2.291731E-16	5.930065E-18
5.070000E+03	2.307765E-16	6.028942E-18
5.080000E+03	2.324305E-16	6.118786E-18
5.090000E+03	2.341119E-16	6.199896E-18
5.100000E+03	2.358065E-16	6.272692E-18
5.110000E+03	2.374966E-16	6.337375E-18
5.120000E+03	2.391794E-16	6.394399E-18
5.130000E+03	2.408496E-16	6.443987E-18
5.140000E+03	2.425119E-16	6.486469E-18
5.150000E+03	2.441681E-16	6.521919E-18
5.160000E+03	2.458343E-16	6.550642E-18
5.170000E+03	2.475224E-16	6.572668E-18
5.180000E+03	2.492495E-16	6.588036E-18
5.190000E+03	2.510367E-16	6.596779E-18
5.200000E+03	2.529008E-16	6.598724E-18
5.210000E+03	2.548609E-16	6.593702E-18
5.220000E+03	2.569379E-16	6.581562E-18
5.230000E+03	2.591452E-16	6.561978E-18
5.240000E+03	2.614969E-16	6.534687E-18
5.250000E+03	2.640037E-16	6.499462E-18
5.260000E+03	2.666757E-16	6.456229E-18
5.270000E+03	2.695137E-16	6.404935E-18
5.280000E+03	2.725195E-16	6.345901E-18
5.290000E+03	2.756848E-16	6.279666E-18
5.300000E+03	2.789992E-16	6.207301E-18
5.310000E+03	2.824476E-16	6.130477E-18
5.320000E+03	2.860095E-16	6.051597E-18
5.330000E+03	2.896629E-16	5.973969E-18
5.340000E+03	2.933748E-16	5.901682E-18
5.350000E+03	2.971113E-16	5.839761E-18
5.360000E+03	3.008316E-16	5.793871E-18
5.370000E+03	3.045018E-16	5.770167E-18
5.380000E+03	3.080773E-16	5.774294E-18
5.390000E+03	3.115174E-16	5.810743E-18
5.400000E+03	3.147832E-16	5.882170E-18
5.410000E+03	3.178376E-16	5.988242E-18
5.420000E+03	3.206579E-16	6.125236E-18
5.430000E+03	3.232221E-16	6.287398E-18
5.440000E+03	3.255074E-16	6.467993E-18
5.450000E+03	3.274992E-16	6.660231E-18
5.460000E+03	3.291806E-16	6.857584E-18
5.470000E+03	3.305321E-16	7.054079E-18
5.480000E+03	3.315379E-16	7.244577E-18
5.490000E+03	3.321827E-16	7.424746E-18
5.500000E+03	3.324547E-16	7.591106E-18
5.510000E+03	3.323361E-16	7.740742E-18
5.520000E+03	3.318131E-16	7.871458E-18
5.530000E+03	3.308766E-16	7.981715E-18
5.540000E+03	3.295155E-16	8.070414E-18
5.550000E+03	3.277182E-16	8.136844E-18
5.560000E+03	3.254862E-16	8.180970E-18
5.570000E+03	3.228151E-16	8.202923E-18
5.580000E+03	3.197092E-16	8.203291E-18
5.590000E+03	3.161791E-16	8.183022E-18
5.600000E+03	3.122454E-16	8.143473E-18
5.610000E+03	3.079273E-16	8.086058E-18
5.620000E+03	3.032647E-16	8.012769E-18
5.630000E+03	2.982965E-16	7.925572E-18
5.640000E+03	2.930726E-16	7.826681E-18
5.650000E+03	2.876508E-16	7.718422E-18
5.660000E+03	2.820946E-16	7.603185E-18
5.670000E+03	2.764757E-16	7.483447E-18
5.680000E+03	2.708634E-16	7.361502E-18
5.690000E+03	2.653315E-16	7.239648E-18
5.700000E+03	2.599538E-16	7.120073E-18
5.710000E+03	2.548025E-16	7.004825E-18
5.720000E+03	2.499490E-16	6.895857E-18
5.730000E+03	2.454555E-16	6.794802E-18
5.740000E+03	2.413793E-16	6.703098E-18
5.750000E+03	2.377787E-16	6.622176E-18
5.760000E+03	2.346965E-16	6.552988E-18
5.770000E+03	2.321780E-16	6.496530E-18
5.780000E+03	2.302528E-16	6.453326E-18
5.790000E+03	2.289503E-16	6.423869E-18
5.800000E+03	2.282909E-16	6.408374E-18
5.810000E+03	2.282858E-16	6.406773E-18
5.820000E+03	2.289430E-16	6.418896E-18
5.830000E+03	2.302608E-16	6.444285E-18
5.840000E+03	2.322243E-16	6.482116E-18
5.850000E+03	2.348188E-16	6.531566E-18
5.860000E+03	2.380124E-16	6.591363E-18
5.870000E+03	2.417628E-16	6.659963E-18
5.880000E+03	2.460226E-16	6.735735E-18
5.890000E+03	2.507230E-16	6.816504E-18
5.900000E+03	2.557874E-16	6.899940E-18
5.910000E+03	2.611293E-16	6.983505E-18
5.920000E+03	2.666433E-16	7.064198E-18
5.930000E+03	2.722241E-16	7.139062E-18
5.940000E+03	2.777487E-16	7.204680E-18
5.950000E+03	2.830944E-16	7.257645E-18
5.960000E+03	2.881411E-16	7.294576E-18
5.970000E+03	2.927638E-16	7.311932E-18
5.980000E+03	2.968546E-16	7.306545E-18
5.990000E+03	3.003131E-16	7.275390E-18
6.000000E+03	3.030591E-16	7.215925E-18
6.010000E+03	3.050312E-16	7.126064E-18
6.020000E+03	3.061979E-16	7.004480E-18
6.030000E+03	3.065478E-16	6.850407E-18
6.040000E+03	3.060955E-16	6.663810E-18
6.050000E+03	3.048841E-16	6.445446E-18
6.060000E+03	3.029769E-16	6.196699E-18
6.070000E+03	3.004632E-16	5.919688E-18
6.080000E+03	2.974403E-16	5.616877E-18
6.090000E+03	2.940258E-16	5.291323E-18
6.100000E+03	2.903369E-16	4.946255E-18
6.110000E+03	2.865024E-16	4.585332E-18
6.120000E+03	2.826452E-16	4.212395E-18
6.130000E+03	2.788866E-16	3.831721E-18
6.140000E+03	2.753405E-16	3.448265E-18
6.150000E+03	2.721112E-16	3.068227E-18
6.160000E+03	2.692926E-16	2.700133E-18
6.170000E+03	2.669640E-16	2.356574E-18
6.180000E+03	2.651863E-16	2.056811E-18
6.190000E+03	2.639980E-16	1.829011E-18
6.200000E+03	2.634047E-16	1.706763E-18
6.210000E+03	2.633423E-16	1.709593E-18
6.220000E+03	2.636650E-16	1.825981E-18
6.230000E+03	2.642035E-16	2.028354E-18
6.240000E+03	2.647879E-16	2.289488E-18
6.250000E+03	2.652986E-16	2.586525E-18
6.260000E+03	2.656843E-16	2.900839E-18
6.270000E+03	2.659162E-16	3.219015E-18
6.280000E+03	2.659719E-16	3.531600E-18
6.290000E+03	2.658432E-16	3.832104E-18
6.300000E+03	2.655205E-16	4.116011E-18
6.310000E+03	2.649971E-16	4.380280E-18
6.320000E+03	2.642705E-16	4.623009E-18
6.330000E+03	2.633376E-16	4.843096E-18
6.340000E+03	2.622020E-16	5.040190E-18
6.350000E+03	2.608617E-16	5.214308E-18
6.360000E+03	2.593194E-16	5.365917E-18
6.370000E+03	2.575881E-16	5.495978E-18
6.380000E+03	2.556703E-16	5.605441E-18
6.390000E+03	2.535793E-16	5.695629E-18
6.400000E+03	2.513308E-16	5.768025E-18
6.410000E+03	2.489408E-16	5.824180E-18
6.420000E+03	2.464300E-16	5.865786E-18
6.430000E+03	2.438190E-16	5.894528E-18
6.440000E+03	2.411325E-16	5.912165E-18
6.450000E+03	2.383940E-16	5.920383E-18
6.460000E+03	2.356330E-16	5.920950E-18
6.470000E+03	2.328693E-16	5.915319E-18
6.480000E+03	2.301351E-16	5.905165E-18
6.490000E+03	2.274548E-16	5.891870E-18
6.500000E+03	2.248542E-16	5.876756E-18
6.510000E+03	2.223532E-16	5.860889E-18
6.520000E+03	2.199703E-16	5.845194E-18
6.530000E+03	2.177244E-16	5.830514E-18
6.540000E+03	2.156348E-16	5.817601E-18
6.550000E+03	2.137092E-16	5.806815E-18
6.560000E+03	2.119643E-16	5.798675E-18
6.570000E+03	2.104092E-16	5.793430E-18
6.580000E+03	2.090457E-16	5.791064E-18
6.590000E+03	2.078812E-16	5.791670E-18
6.600000E+03	2.069110E-16	5.794964E-18
6.610000E+03	2.061331E-16	5.800724E-18
6.620000E+03	2.055423E-16	5.808622E-18
6.630000E+03	2.051224E-16	5.818042E-18
6.640000E+03	2.048605E-16	5.828484E-18
6.650000E+03	2.047375E-16	5.839324E-18
6.660000E+03	2.047333E-16	5.849967E-18
6.670000E+03	2.048175E-16	5.859611E-18
6.680000E+03	2.049660E-16	5.867717E-18
6.690000E+03	2.051456E-16	5.873572E-18
6.700000E+03	2.053258E-16	5.876633E-18
6.710000E+03	2.054685E-16	5.876205E-18
6.720000E+03	2.055443E-16	5.871908E-18
6.730000E+03	2.055203E-16	5.863289E-18
6.740000E+03	2.053628E-16	5.849889E-18
6.750000E+03	2.050457E-16	5.831440E-18
6.760000E+03	2.045419E-16	5.807606E-18
6.770000E+03	2.038357E-16	5.778319E-18
6.780000E+03	2.029053E-16	5.743258E-18
6.790000E+03	2.017487E-16	5.702581E-18
6.800000E+03	2.003608E-16	5.656283E-18
6.810000E+03	1.987431E-16	5.604470E-18
6.820000E+03	1.969081E-16	5.547492E-18
6.830000E+03	1.948721E-16	5.485762E-18
6.840000E+03	1.926568E-16	5.419816E-18
6.850000E+03	1.902913E-16	5.350368E-18
6.860000E+03	1.878019E-16	5.278054E-18
6.870000E+03	1.852249E-16	5.203788E-18
6.880000E+03	1.825965E-16	5.128485E-18
6.890000E+03	1.799543E-16	5.053105E-18
6.900000E+03	1.773362E-16	4.978623E-18
6.910000E+03	1.747817E-16	4.906064E-18
6.920000E+03	1.723228E-16	4.836246E-18
6.930000E+03	1.699979E-16	4.770167E-18
6.940000E+03	1.678367E-16	4.708581E-18
6.950000E+03	1.658663E-16	4.652167E-18
6.960000E+03	1.641163E-16	4.601680E-18
6.970000E+03	1.626070E-16	4.557609E-18
6.980000E+03	1.613568E-16	4.520404E-18
6.990000E+03	1.603822E-16	4.490467E-18
7.000000E+03	1.596901E-16	4.467934E-18
7.010000E+03	1.592909E-16	4.453059E-18
7.020000E+03	1.591833E-16	4.445781E-18
7.030000E+03	1.593696E-16	4.446154E-18
7.040000E+03	1.598422E-16	4.453975E-18
7.050000E+03	1.605916E-16	4.468996E-18
7.060000E+03	1.616043E-16	4.490881E-18
7.070000E+03	1.628637E-16	4.519201E-18
7.080000E+03	1.643496E-16	4.553446E-18
7.090000E+03	1.660395E-16	4.593028E-18
7.100000E+03	1.679108E-16	4.637351E-18
7.110000E+03	1.699333E-16	4.685588E-18
7.120000E+03	1.720847E-16	4.737103E-18
7.130000E+03	1.743367E-16	4.791060E-18
7.140000E+03	1.766643E-16	4.846669E-18
7.150000E+03	1.790422E-16	4.903088E-18
7.160000E+03	1.814569E-16	4.959747E-18
7.170000E+03	1.838846E-16	5.015752E-18
7.180000E+03	1.863146E-16	5.070512E-18
7.190000E+03	1.887376E-16	5.123444E-18
7.200000E+03	1.911511E-16	5.174108E-18
7.210000E+03	1.935516E-16	5.222010E-18
7.220000E+03	1.959416E-16	5.266795E-18
7.230000E+03	1.983267E-16	5.308169E-18
7.240000E+03	2.007146E-16	5.345881E-18
7.250000E+03	2.031177E-16	5.379775E-18
7.260000E+03	2.055435E-16	5.409549E-18
7.270000E+03	2.080023E-16	5.434939E-18
7.280000E+03	2.105030E-16	5.455616E-18
7.290000E+03	2.130557E-16	5.471229E-18
7.300000E+03	2.156620E-16	5.481167E-18
7.310000E+03	2.183258E-16	5.484818E-18
7.320000E+03	2.210409E-16	5.481269E-18
7.330000E+03	2.237995E-16	5.469512E-18
7.340000E+03	2.265912E-16	5.448441E-18
7.350000E+03	2.293943E-16	5.416654E-18
7.360000E+03	2.321871E-16	5.372756E-18
7.370000E+03	2.349358E-16	5.315116E-18
7.380000E+03	2.376070E-16	5.242206E-18
7.390000E+03	2.401552E-16	5.152394E-18
7.400000E+03	2.425356E-16	5.044315E-18
7.410000E+03	2.446959E-16	4.916784E-18
7.420000E+03	2.465761E-16	4.768940E-18
7.430000E+03	2.481200E-16	4.600597E-18
7.440000E+03	2.492630E-16	4.412170E-18
7.450000E+03	2.499473E-16	4.205103E-18
7.460000E+03	2.501104E-16	3.981821E-18
7.470000E+03	2.496973E-16	3.746058E-18
7.480000E+03	2.486634E-16	3.502946E-18
7.490000E+03	2.469705E-16	3.258872E-18
7.500000E+03	2.445872E-16	3.021199E-18
7.510000E+03	2.415122E-16	2.797886E-18
7.520000E+03	2.377545E-16	2.596061E-18
7.530000E+03	2.333502E-16	2.420535E-18
7.540000E+03	2.283593E-16	2.271558E-18
7.550000E+03	2.228794E-16	2.142502E-18
7.560000E+03	2.170202E-16	2.022923E-18
7.570000E+03	2.109028E-16	1.903105E-18
7.580000E+03	2.046566E-16	1.776664E-18
7.590000E+03	1.984043E-16	1.641851E-18
7.600000E+03	1.922566E-16	1.502314E-18
7.610000E+03	1.863175E-16	1.367799E-18
7.620000E+03	1.806734E-16	1.254523E-18
7.630000E+03	1.753930E-16	1.183823E-18
7.640000E+03	1.705302E-16	1.175476E-18
7.650000E+03	1.661145E-16	1.233800E-18
7.660000E+03	1.621408E-16	1.344138E-18
7.670000E+03	1.585987E-16	1.487266E-18
7.680000E+03	1.554683E-16	1.647497E-18
7.690000E+03	1.527316E-16	1.814345E-18
7.700000E+03	1.503630E-16	1.981346E-18
7.710000E+03	1.483452E-16	2.144858E-18
7.720000E+03	1.466568E-16	2.302895E-18
7.730000E+03	1.452751E-16	2.454470E-18
7.740000E+03	1.441799E-16	2.599249E-18
7.750000E+03	1.433538E-16	2.737296E-18
7.760000E+03	1.427756E-16	2.868807E-18
