#wls	flux	fluxerr
1.600000E+03	1.561172E-17	1.166786E-17
1.640000E+03	1.555225E-17	1.147667E-17
1.680000E+03	1.549491E-17	1.128440E-17
1.720000E+03	1.544568E-17	1.109530E-17
1.760000E+03	1.539881E-17	1.090506E-17
1.800000E+03	1.536026E-17	1.071776E-17
1.840000E+03	1.532725E-17	1.053126E-17
1.880000E+03	1.530283E-17	1.034741E-17
1.920000E+03	1.528713E-17	1.016606E-17
1.960000E+03	1.527753E-17	9.985170E-18
2.000000E+03	1.527988E-17	9.808318E-18
2.040000E+03	1.529439E-17	9.635210E-18
2.080000E+03	1.531852E-17	9.463844E-18
2.120000E+03	1.535536E-17	9.295739E-18
2.160000E+03	1.540523E-17	9.130615E-18
2.200000E+03	1.547125E-17	8.969787E-18
2.240000E+03	1.555381E-17	8.812853E-18
2.280000E+03	1.565336E-17	8.659416E-18
2.320000E+03	1.577315E-17	8.510542E-18
2.360000E+03	1.591374E-17	8.365713E-18
2.400000E+03	1.607849E-17	8.225786E-18
2.440000E+03	1.626542E-17	8.088787E-18
2.480000E+03	1.648074E-17	7.956788E-18
2.520000E+03	1.672538E-17	7.829026E-18
2.560000E+03	1.700572E-17	7.707166E-18
2.600000E+03	1.731759E-17	7.587867E-18
2.640000E+03	1.767300E-17	7.474900E-18
2.680000E+03	1.806808E-17	7.364861E-18
2.720000E+03	1.851255E-17	7.259936E-18
2.760000E+03	1.901097E-17	7.159837E-18
2.800000E+03	1.956549E-17	7.063187E-18
2.840000E+03	2.018663E-17	6.971470E-18
2.880000E+03	2.087989E-17	6.884000E-18
2.920000E+03	2.165116E-17	6.800060E-18
2.960000E+03	2.251232E-17	6.720598E-18
3.000000E+03	2.347314E-17	6.645564E-18
3.010000E+03	2.373227E-17	6.628089E-18
3.020000E+03	2.399664E-17	6.610371E-18
3.030000E+03	2.426631E-17	6.592404E-18
3.040000E+03	2.454699E-17	6.575689E-18
3.050000E+03	2.483316E-17	6.558686E-18
3.060000E+03	2.512774E-17	6.542129E-18
3.070000E+03	2.543083E-17	6.525995E-18
3.080000E+03	2.574255E-17	6.510264E-18
3.090000E+03	2.606301E-17	6.494916E-18
3.100000E+03	2.639519E-17	6.480636E-18
3.110000E+03	2.673351E-17	6.466004E-18
3.120000E+03	2.708095E-17	6.451718E-18
3.130000E+03	2.744053E-17	6.438445E-18
3.140000E+03	2.780952E-17	6.425492E-18
3.150000E+03	2.818806E-17	6.412858E-18
3.160000E+03	2.857922E-17	6.401198E-18
3.170000E+03	2.898026E-17	6.389854E-18
3.180000E+03	2.939135E-17	6.378836E-18
3.190000E+03	2.981558E-17	6.368785E-18
3.200000E+03	3.025315E-17	6.359699E-18
3.210000E+03	3.070429E-17	6.351576E-18
3.220000E+03	3.116624E-17	6.343821E-18
3.230000E+03	3.164218E-17	6.337060E-18
3.240000E+03	3.213531E-17	6.331894E-18
3.250000E+03	3.263992E-17	6.327161E-18
3.260000E+03	3.315925E-17	6.323479E-18
3.270000E+03	3.369353E-17	6.320875E-18
3.280000E+03	3.424607E-17	6.319940E-18
3.290000E+03	3.481414E-17	6.320139E-18
3.300000E+03	3.539801E-17	6.321511E-18
3.310000E+03	3.600104E-17	6.324638E-18
3.320000E+03	3.662356E-17	6.329549E-18
3.330000E+03	3.726283E-17	6.335748E-18
3.340000E+03	3.791917E-17	6.343289E-18
3.350000E+03	3.859911E-17	6.353251E-18
3.360000E+03	3.929993E-17	6.365146E-18
3.370000E+03	4.001887E-17	6.378512E-18
3.380000E+03	4.076258E-17	6.394393E-18
3.390000E+03	4.152830E-17	6.412320E-18
3.400000E+03	4.231643E-17	6.432328E-18
3.410000E+03	4.313056E-17	6.454928E-18
3.420000E+03	4.397113E-17	6.480132E-18
3.430000E+03	4.483533E-17	6.507479E-18
3.440000E+03	4.572357E-17	6.536985E-18
3.450000E+03	4.664276E-17	6.569579E-18
3.460000E+03	4.759011E-17	6.604777E-18
3.470000E+03	4.856273E-17	6.642102E-18
3.480000E+03	4.956763E-17	6.682430E-18
3.490000E+03	5.060528E-17	6.725700E-18
3.500000E+03	5.167277E-17	6.771400E-18
3.510000E+03	5.277047E-17	6.819455E-18
3.520000E+03	5.390214E-17	6.870207E-18
3.530000E+03	5.506817E-17	6.923539E-18
3.540000E+03	5.626893E-17	6.979315E-18
3.550000E+03	5.750476E-17	7.037383E-18
3.560000E+03	5.877943E-17	7.097992E-18
3.570000E+03	6.008628E-17	7.160110E-18
3.580000E+03	6.143604E-17	7.224776E-18
3.590000E+03	6.282190E-17	7.290923E-18
3.600000E+03	6.424401E-17	7.358303E-18
3.610000E+03	6.570959E-17	7.427459E-18
3.620000E+03	6.721516E-17	7.497683E-18
3.630000E+03	6.876071E-17	7.568664E-18
3.640000E+03	7.034615E-17	7.640069E-18
3.650000E+03	7.197500E-17	7.711944E-18
3.660000E+03	7.364335E-17	7.783526E-18
3.670000E+03	7.535458E-17	7.854824E-18
3.680000E+03	7.710827E-17	7.925438E-18
3.690000E+03	7.890766E-17	7.995339E-18
3.700000E+03	8.074465E-17	8.063342E-18
3.710000E+03	8.262599E-17	8.129778E-18
3.720000E+03	8.454702E-17	8.193836E-18
3.730000E+03	8.650671E-17	8.255087E-18
3.740000E+03	8.851155E-17	8.313825E-18
3.750000E+03	9.055256E-17	8.368889E-18
3.760000E+03	9.263209E-17	8.420221E-18
3.770000E+03	9.475240E-17	8.467758E-18
3.780000E+03	9.690385E-17	8.510406E-18
3.790000E+03	9.909224E-17	8.548490E-18
3.800000E+03	1.013114E-16	8.581319E-18
3.810000E+03	1.035630E-16	8.608918E-18
3.820000E+03	1.058442E-16	8.631002E-18
3.830000E+03	1.081484E-16	8.647013E-18
3.840000E+03	1.104765E-16	8.657092E-18
3.850000E+03	1.128251E-16	8.661106E-18
3.860000E+03	1.151909E-16	8.658978E-18
3.870000E+03	1.175700E-16	8.650701E-18
3.880000E+03	1.199586E-16	8.636330E-18
3.890000E+03	1.223524E-16	8.615994E-18
3.900000E+03	1.247470E-16	8.589894E-18
3.910000E+03	1.271378E-16	8.558299E-18
3.920000E+03	1.295241E-16	8.521816E-18
3.930000E+03	1.318965E-16	8.480572E-18
3.940000E+03	1.342458E-16	8.434773E-18
3.950000E+03	1.365745E-16	8.385446E-18
3.960000E+03	1.388728E-16	8.332882E-18
3.970000E+03	1.411349E-16	8.277655E-18
3.980000E+03	1.433546E-16	8.220355E-18
3.990000E+03	1.455218E-16	8.161339E-18
4.000000E+03	1.476342E-16	8.101410E-18
4.010000E+03	1.496857E-16	8.041100E-18
4.020000E+03	1.516621E-16	7.980476E-18
4.030000E+03	1.535653E-16	7.920399E-18
4.040000E+03	1.553856E-16	7.861024E-18
4.050000E+03	1.571175E-16	7.802638E-18
4.060000E+03	1.587523E-16	7.745258E-18
4.070000E+03	1.602854E-16	7.689010E-18
4.080000E+03	1.617170E-16	7.634116E-18
4.090000E+03	1.630327E-16	7.579988E-18
4.100000E+03	1.642380E-16	7.526866E-18
4.110000E+03	1.653282E-16	7.474377E-18
4.120000E+03	1.662993E-16	7.422099E-18
4.130000E+03	1.671563E-16	7.369890E-18
4.140000E+03	1.678941E-16	7.317081E-18
4.150000E+03	1.685161E-16	7.263307E-18
4.160000E+03	1.690269E-16	7.208192E-18
4.170000E+03	1.694287E-16	7.151212E-18
4.180000E+03	1.697282E-16	7.092017E-18
4.190000E+03	1.699298E-16	7.030151E-18
4.200000E+03	1.700387E-16	6.965217E-18
4.210000E+03	1.700678E-16	6.897155E-18
4.220000E+03	1.700236E-16	6.825709E-18
4.230000E+03	1.699135E-16	6.750717E-18
4.240000E+03	1.697453E-16	6.672126E-18
4.250000E+03	1.695305E-16	6.590114E-18
4.260000E+03	1.692805E-16	6.504965E-18
4.270000E+03	1.690036E-16	6.416965E-18
4.280000E+03	1.687084E-16	6.326527E-18
4.290000E+03	1.684092E-16	6.234408E-18
4.300000E+03	1.681112E-16	6.141160E-18
4.310000E+03	1.678254E-16	6.047682E-18
4.320000E+03	1.675649E-16	5.955081E-18
4.330000E+03	1.673370E-16	5.864377E-18
4.340000E+03	1.671485E-16	5.776697E-18
4.350000E+03	1.670087E-16	5.693353E-18
4.360000E+03	1.669260E-16	5.615711E-18
4.370000E+03	1.669114E-16	5.545249E-18
4.380000E+03	1.669671E-16	5.483160E-18
4.390000E+03	1.671027E-16	5.430817E-18
4.400000E+03	1.673248E-16	5.389342E-18
4.410000E+03	1.676368E-16	5.359529E-18
4.420000E+03	1.680460E-16	5.341951E-18
4.430000E+03	1.685566E-16	5.336481E-18
4.440000E+03	1.691688E-16	5.342144E-18
4.450000E+03	1.698866E-16	5.357648E-18
4.460000E+03	1.707109E-16	5.381318E-18
4.470000E+03	1.716370E-16	5.411144E-18
4.480000E+03	1.726666E-16	5.445238E-18
4.490000E+03	1.737959E-16	5.481541E-18
4.500000E+03	1.750202E-16	5.518018E-18
4.510000E+03	1.763410E-16	5.552930E-18
4.520000E+03	1.777468E-16	5.584266E-18
4.530000E+03	1.792326E-16	5.610363E-18
4.540000E+03	1.807944E-16	5.629761E-18
4.550000E+03	1.824202E-16	5.640935E-18
4.560000E+03	1.841016E-16	5.642657E-18
4.570000E+03	1.858316E-16	5.633940E-18
4.580000E+03	1.875953E-16	5.613755E-18
4.590000E+03	1.893814E-16	5.581404E-18
4.600000E+03	1.911781E-16	5.536391E-18
4.610000E+03	1.929731E-16	5.478439E-18
4.620000E+03	1.947538E-16	5.407509E-18
4.630000E+03	1.965075E-16	5.323827E-18
4.640000E+03	1.982195E-16	5.227846E-18
4.650000E+03	1.998780E-16	5.120401E-18
4.660000E+03	2.014768E-16	5.002796E-18
4.670000E+03	2.029990E-16	4.876397E-18
4.680000E+03	2.044411E-16	4.743260E-18
4.690000E+03	2.057941E-16	4.605649E-18
4.700000E+03	2.070507E-16	4.466206E-18
4.710000E+03	2.082081E-16	4.327948E-18
4.720000E+03	2.092655E-16	4.194107E-18
4.730000E+03	2.102194E-16	4.067891E-18
4.740000E+03	2.110704E-16	3.952410E-18
4.750000E+03	2.118208E-16	3.850346E-18
4.760000E+03	2.124716E-16	3.763480E-18
4.770000E+03	2.130217E-16	3.692349E-18
4.780000E+03	2.134760E-16	3.636975E-18
4.790000E+03	2.138386E-16	3.597296E-18
4.800000E+03	2.141270E-16	3.573830E-18
4.810000E+03	2.143536E-16	3.567655E-18
4.820000E+03	2.145418E-16	3.580792E-18
4.830000E+03	2.147115E-16	3.615861E-18
4.840000E+03	2.148788E-16	3.675713E-18
4.850000E+03	2.150699E-16	3.763056E-18
4.860000E+03	2.153007E-16	3.879259E-18
4.870000E+03	2.155843E-16	4.022899E-18
4.880000E+03	2.159382E-16	4.190364E-18
4.890000E+03	2.163693E-16	4.377030E-18
4.900000E+03	2.168903E-16	4.578253E-18
4.910000E+03	2.175082E-16	4.789556E-18
4.920000E+03	2.182289E-16	5.006922E-18
4.930000E+03	2.190591E-16	5.226925E-18
4.940000E+03	2.200020E-16	5.446632E-18
4.950000E+03	2.210588E-16	5.663612E-18
4.960000E+03	2.222315E-16	5.875939E-18
4.970000E+03	2.235179E-16	6.082018E-18
4.980000E+03	2.249114E-16	6.280509E-18
4.990000E+03	2.264106E-16	6.470535E-18
5.000000E+03	2.280049E-16	6.651247E-18
5.010000E+03	2.296868E-16	6.822107E-18
5.020000E+03	2.314422E-16	6.982583E-18
5.030000E+03	2.332627E-16	7.132471E-18
5.040000E+03	2.351295E-16	7.271371E-18
5.050000E+03	2.370276E-16	7.399099E-18
5.060000E+03	2.389495E-16	7.515764E-18
5.070000E+03	2.408734E-16	7.621067E-18
5.080000E+03	2.427884E-16	7.715056E-18
5.090000E+03	2.446853E-16	7.797820E-18
5.100000E+03	2.465546E-16	7.869396E-18
5.110000E+03	2.483867E-16	7.929760E-18
5.120000E+03	2.501802E-16	7.979062E-18
5.130000E+03	2.519312E-16	8.017297E-18
5.140000E+03	2.536442E-16	8.044616E-18
5.150000E+03	2.553234E-16	8.061078E-18
5.160000E+03	2.569756E-16	8.066727E-18
5.170000E+03	2.586118E-16	8.061666E-18
5.180000E+03	2.602361E-16	8.045733E-18
5.190000E+03	2.618614E-16	8.019001E-18
5.200000E+03	2.635003E-16	7.981538E-18
5.210000E+03	2.651598E-16	7.933262E-18
5.220000E+03	2.668509E-16	7.874296E-18
5.230000E+03	2.685779E-16	7.804673E-18
5.240000E+03	2.703487E-16	7.724700E-18
5.250000E+03	2.721638E-16	7.634690E-18
5.260000E+03	2.740295E-16	7.535416E-18
5.270000E+03	2.759391E-16	7.427637E-18
5.280000E+03	2.778945E-16	7.312791E-18
5.290000E+03	2.798839E-16	7.192474E-18
5.300000E+03	2.819047E-16	7.069120E-18
5.310000E+03	2.839463E-16	6.945631E-18
5.320000E+03	2.859935E-16	6.825507E-18
5.330000E+03	2.880345E-16	6.713063E-18
5.340000E+03	2.900508E-16	6.613083E-18
5.350000E+03	2.920311E-16	6.530994E-18
5.360000E+03	2.939580E-16	6.472221E-18
5.370000E+03	2.958080E-16	6.441738E-18
5.380000E+03	2.975736E-16	6.443852E-18
5.390000E+03	2.992344E-16	6.480752E-18
5.400000E+03	3.007808E-16	6.552934E-18
5.410000E+03	3.021998E-16	6.658560E-18
5.420000E+03	3.034816E-16	6.793462E-18
5.430000E+03	3.046099E-16	6.952112E-18
5.440000E+03	3.055751E-16	7.128640E-18
5.450000E+03	3.063619E-16	7.317056E-18
5.460000E+03	3.069615E-16	7.511860E-18
5.470000E+03	3.073653E-16	7.708090E-18
5.480000E+03	3.075561E-16	7.901174E-18
5.490000E+03	3.075264E-16	8.087397E-18
5.500000E+03	3.072658E-16	8.263581E-18
5.510000E+03	3.067617E-16	8.427027E-18
5.520000E+03	3.060112E-16	8.575804E-18
5.530000E+03	3.050001E-16	8.708110E-18
5.540000E+03	3.037275E-16	8.822912E-18
5.550000E+03	3.021820E-16	8.919215E-18
5.560000E+03	3.003597E-16	8.996555E-18
5.570000E+03	2.982625E-16	9.054896E-18
5.580000E+03	2.958918E-16	9.094422E-18
5.590000E+03	2.932466E-16	9.115430E-18
5.600000E+03	2.903417E-16	9.118842E-18
5.610000E+03	2.871844E-16	9.105464E-18
5.620000E+03	2.837955E-16	9.076586E-18
5.630000E+03	2.801949E-16	9.033502E-18
5.640000E+03	2.764102E-16	8.977746E-18
5.650000E+03	2.724764E-16	8.911055E-18
5.660000E+03	2.684244E-16	8.834980E-18
5.670000E+03	2.642970E-16	8.751386E-18
5.680000E+03	2.601342E-16	8.661975E-18
5.690000E+03	2.559808E-16	8.568519E-18
5.700000E+03	2.518846E-16	8.472827E-18
5.710000E+03	2.478858E-16	8.376381E-18
5.720000E+03	2.440313E-16	8.280816E-18
5.730000E+03	2.403608E-16	8.187481E-18
5.740000E+03	2.369161E-16	8.097748E-18
5.750000E+03	2.337310E-16	8.012667E-18
5.760000E+03	2.308354E-16	7.933123E-18
5.770000E+03	2.282616E-16	7.860050E-18
5.780000E+03	2.260283E-16	7.793883E-18
5.790000E+03	2.241557E-16	7.735090E-18
5.800000E+03	2.226548E-16	7.683791E-18
5.810000E+03	2.215329E-16	7.639983E-18
5.820000E+03	2.207924E-16	7.603462E-18
5.830000E+03	2.204295E-16	7.573828E-18
5.840000E+03	2.204349E-16	7.550483E-18
5.850000E+03	2.207911E-16	7.532565E-18
5.860000E+03	2.214788E-16	7.519174E-18
5.870000E+03	2.224685E-16	7.509080E-18
5.880000E+03	2.237289E-16	7.501032E-18
5.890000E+03	2.252167E-16	7.493397E-18
5.900000E+03	2.268916E-16	7.484697E-18
5.910000E+03	2.287001E-16	7.473031E-18
5.920000E+03	2.305910E-16	7.456616E-18
5.930000E+03	2.325083E-16	7.433520E-18
5.940000E+03	2.343916E-16	7.401695E-18
5.950000E+03	2.361852E-16	7.359232E-18
5.960000E+03	2.378303E-16	7.304116E-18
5.970000E+03	2.392733E-16	7.234496E-18
5.980000E+03	2.404680E-16	7.148732E-18
5.990000E+03	2.413679E-16	7.045174E-18
6.000000E+03	2.419464E-16	6.922778E-18
6.010000E+03	2.421719E-16	6.780386E-18
6.020000E+03	2.420351E-16	6.617530E-18
6.030000E+03	2.415303E-16	6.433913E-18
6.040000E+03	2.406651E-16	6.229699E-18
6.050000E+03	2.394599E-16	6.005499E-18
6.060000E+03	2.379426E-16	5.762239E-18
6.070000E+03	2.361477E-16	5.501147E-18
6.080000E+03	2.341240E-16	5.223955E-18
6.090000E+03	2.319220E-16	4.932589E-18
6.100000E+03	2.295963E-16	4.629290E-18
6.110000E+03	2.272045E-16	4.316647E-18
6.120000E+03	2.248079E-16	3.997721E-18
6.130000E+03	2.224697E-16	3.676194E-18
6.140000E+03	2.202473E-16	3.356562E-18
6.150000E+03	2.181976E-16	3.044735E-18
6.160000E+03	2.163760E-16	2.748765E-18
6.170000E+03	2.148378E-16	2.479827E-18
6.180000E+03	2.136231E-16	2.252940E-18
6.190000E+03	2.127606E-16	2.086744E-18
6.200000E+03	2.122658E-16	1.999909E-18
6.210000E+03	2.121407E-16	2.001994E-18
6.220000E+03	2.123549E-16	2.086884E-18
6.230000E+03	2.128730E-16	2.239382E-18
6.240000E+03	2.136510E-16	2.442162E-18
6.250000E+03	2.146505E-16	2.679715E-18
6.260000E+03	2.158342E-16	2.939532E-18
6.270000E+03	2.171688E-16	3.212367E-18
6.280000E+03	2.186221E-16	3.491536E-18
6.290000E+03	2.201608E-16	3.772155E-18
6.300000E+03	2.217548E-16	4.050640E-18
6.310000E+03	2.233772E-16	4.324334E-18
6.320000E+03	2.249955E-16	4.591067E-18
6.330000E+03	2.265852E-16	4.849245E-18
6.340000E+03	2.281236E-16	5.097616E-18
6.350000E+03	2.295848E-16	5.335092E-18
6.360000E+03	2.309476E-16	5.560842E-18
6.370000E+03	2.321929E-16	5.774227E-18
6.380000E+03	2.333094E-16	5.974897E-18
6.390000E+03	2.342786E-16	6.162426E-18
6.400000E+03	2.350952E-16	6.336789E-18
6.410000E+03	2.357517E-16	6.497987E-18
6.420000E+03	2.362440E-16	6.646161E-18
6.430000E+03	2.365733E-16	6.781656E-18
6.440000E+03	2.367386E-16	6.904789E-18
6.450000E+03	2.367491E-16	7.016198E-18
6.460000E+03	2.366136E-16	7.116532E-18
6.470000E+03	2.363354E-16	7.206279E-18
6.480000E+03	2.359318E-16	7.286340E-18
6.490000E+03	2.354112E-16	7.357333E-18
6.500000E+03	2.347881E-16	7.420024E-18
6.510000E+03	2.340770E-16	7.475160E-18
6.520000E+03	2.332853E-16	7.523212E-18
6.530000E+03	2.324277E-16	7.564832E-18
6.540000E+03	2.315133E-16	7.600450E-18
6.550000E+03	2.305555E-16	7.630586E-18
6.560000E+03	2.295619E-16	7.655518E-18
6.570000E+03	2.285387E-16	7.675445E-18
6.580000E+03	2.274984E-16	7.690734E-18
6.590000E+03	2.264419E-16	7.701344E-18
6.600000E+03	2.253733E-16	7.707325E-18
6.610000E+03	2.242974E-16	7.708751E-18
6.620000E+03	2.232145E-16	7.705556E-18
6.630000E+03	2.221182E-16	7.697466E-18
6.640000E+03	2.210123E-16	7.684605E-18
6.650000E+03	2.198842E-16	7.666582E-18
6.660000E+03	2.187318E-16	7.643439E-18
6.670000E+03	2.175469E-16	7.615073E-18
6.680000E+03	2.163198E-16	7.581417E-18
6.690000E+03	2.150380E-16	7.542366E-18
6.700000E+03	2.136934E-16	7.498033E-18
6.710000E+03	2.122777E-16	7.448584E-18
6.720000E+03	2.107788E-16	7.394063E-18
6.730000E+03	2.091876E-16	7.334644E-18
6.740000E+03	2.074990E-16	7.270621E-18
6.750000E+03	2.057073E-16	7.202234E-18
6.760000E+03	2.038066E-16	7.129675E-18
6.770000E+03	2.018006E-16	7.053400E-18
6.780000E+03	1.996888E-16	6.973651E-18
6.790000E+03	1.974758E-16	6.890780E-18
6.800000E+03	1.951712E-16	6.805249E-18
6.810000E+03	1.927853E-16	6.717479E-18
6.820000E+03	1.903286E-16	6.627855E-18
6.830000E+03	1.878207E-16	6.537039E-18
6.840000E+03	1.852768E-16	6.445506E-18
6.850000E+03	1.827157E-16	6.353851E-18
6.860000E+03	1.801577E-16	6.262707E-18
6.870000E+03	1.776261E-16	6.172809E-18
6.880000E+03	1.751406E-16	6.084763E-18
6.890000E+03	1.727249E-16	5.999329E-18
6.900000E+03	1.704005E-16	5.917186E-18
6.910000E+03	1.681886E-16	5.838998E-18
6.920000E+03	1.661091E-16	5.765398E-18
6.930000E+03	1.641792E-16	5.696913E-18
6.940000E+03	1.624203E-16	5.634226E-18
6.950000E+03	1.608466E-16	5.577762E-18
6.960000E+03	1.594724E-16	5.527950E-18
6.970000E+03	1.583102E-16	5.485158E-18
6.980000E+03	1.573722E-16	5.449748E-18
6.990000E+03	1.566647E-16	5.421876E-18
7.000000E+03	1.561933E-16	5.401689E-18
7.010000E+03	1.559613E-16	5.389254E-18
7.020000E+03	1.559714E-16	5.384623E-18
7.030000E+03	1.562195E-16	5.387628E-18
7.040000E+03	1.567028E-16	5.398146E-18
7.050000E+03	1.574118E-16	5.415833E-18
7.060000E+03	1.583361E-16	5.440320E-18
7.070000E+03	1.594649E-16	5.471216E-18
7.080000E+03	1.607810E-16	5.507907E-18
7.090000E+03	1.622669E-16	5.549764E-18
7.100000E+03	1.639057E-16	5.596153E-18
7.110000E+03	1.656771E-16	5.646303E-18
7.120000E+03	1.675559E-16	5.699246E-18
7.130000E+03	1.695249E-16	5.754253E-18
7.140000E+03	1.715611E-16	5.810354E-18
7.150000E+03	1.736463E-16	5.866710E-18
7.160000E+03	1.757594E-16	5.922337E-18
7.170000E+03	1.778831E-16	5.976339E-18
7.180000E+03	1.800043E-16	6.027929E-18
7.190000E+03	1.821049E-16	6.076129E-18
7.200000E+03	1.841808E-16	6.120398E-18
7.210000E+03	1.862155E-16	6.159782E-18
7.220000E+03	1.882063E-16	6.193772E-18
7.230000E+03	1.901448E-16	6.221674E-18
7.240000E+03	1.920287E-16	6.243000E-18
7.250000E+03	1.938511E-16	6.257137E-18
7.260000E+03	1.956080E-16	6.263574E-18
7.270000E+03	1.973000E-16	6.261977E-18
7.280000E+03	1.989141E-16	6.251604E-18
7.290000E+03	2.004515E-16	6.232194E-18
7.300000E+03	2.018989E-16	6.203060E-18
7.310000E+03	2.032514E-16	6.163826E-18
7.320000E+03	2.044913E-16	6.113778E-18
7.330000E+03	2.056096E-16	6.052518E-18
7.340000E+03	2.065867E-16	5.979421E-18
7.350000E+03	2.074069E-16	5.894051E-18
7.360000E+03	2.080495E-16	5.795953E-18
7.370000E+03	2.084899E-16	5.684689E-18
7.380000E+03	2.087084E-16	5.560102E-18
7.390000E+03	2.086819E-16	5.422127E-18
7.400000E+03	2.083881E-16	5.270906E-18
7.410000E+03	2.078086E-16	5.106897E-18
7.420000E+03	2.069159E-16	4.930570E-18
7.430000E+03	2.057022E-16	4.743110E-18
7.440000E+03	2.041492E-16	4.545697E-18
7.450000E+03	2.022489E-16	4.339973E-18
7.460000E+03	1.999982E-16	4.127884E-18
7.470000E+03	1.974023E-16	3.911690E-18
7.480000E+03	1.944675E-16	3.693725E-18
7.490000E+03	1.912064E-16	3.476411E-18
7.500000E+03	1.876413E-16	3.262152E-18
7.510000E+03	1.838012E-16	3.053111E-18
7.520000E+03	1.797243E-16	2.851045E-18
7.530000E+03	1.754458E-16	2.656916E-18
7.540000E+03	1.710217E-16	2.471067E-18
7.550000E+03	1.665009E-16	2.292539E-18
7.560000E+03	1.619477E-16	2.120100E-18
7.570000E+03	1.574184E-16	1.952809E-18
7.580000E+03	1.529741E-16	1.790906E-18
7.590000E+03	1.486709E-16	1.636326E-18
7.600000E+03	1.445580E-16	1.493308E-18
7.610000E+03	1.406832E-16	1.368974E-18
7.620000E+03	1.370839E-16	1.273263E-18
7.630000E+03	1.337935E-16	1.217609E-18
7.640000E+03	1.308310E-16	1.211060E-18
7.650000E+03	1.282077E-16	1.254206E-18
7.660000E+03	1.259153E-16	1.337921E-18
7.670000E+03	1.239357E-16	1.450280E-18
7.680000E+03	1.222548E-16	1.580826E-18
7.690000E+03	1.208523E-16	1.721766E-18
7.700000E+03	1.197098E-16	1.867833E-18
7.710000E+03	1.188088E-16	2.015624E-18
7.720000E+03	1.181334E-16	2.163027E-18
7.730000E+03	1.176648E-16	2.308695E-18
7.740000E+03	1.173868E-16	2.451829E-18
7.750000E+03	1.172847E-16	2.591986E-18
7.760000E+03	1.173431E-16	2.728886E-18
