#wls	flux	fluxerr
1.600000E+03	1.609287E-17	1.234251E-17
1.640000E+03	1.616462E-17	1.225770E-17
1.680000E+03	1.624183E-17	1.217226E-17
1.720000E+03	1.633061E-17	1.209050E-17
1.760000E+03	1.642836E-17	1.201011E-17
1.800000E+03	1.653544E-17	1.193103E-17
1.840000E+03	1.665516E-17	1.185525E-17
1.880000E+03	1.678795E-17	1.178262E-17
1.920000E+03	1.693427E-17	1.171297E-17
1.960000E+03	1.709462E-17	1.164615E-17
2.000000E+03	1.726956E-17	1.158197E-17
2.040000E+03	1.746265E-17	1.152223E-17
2.080000E+03	1.767754E-17	1.146862E-17
2.120000E+03	1.790901E-17	1.141696E-17
2.160000E+03	1.816385E-17	1.137084E-17
2.200000E+03	1.844293E-17	1.132990E-17
2.240000E+03	1.874725E-17	1.129377E-17
2.280000E+03	1.907786E-17	1.126207E-17
2.320000E+03	1.944203E-17	1.123795E-17
2.360000E+03	1.983803E-17	1.121910E-17
2.400000E+03	2.027036E-17	1.120672E-17
2.440000E+03	2.074372E-17	1.120190E-17
2.480000E+03	2.125672E-17	1.120227E-17
2.520000E+03	2.182074E-17	1.121207E-17
2.560000E+03	2.243155E-17	1.122717E-17
2.600000E+03	2.310107E-17	1.125152E-17
2.640000E+03	2.382865E-17	1.128249E-17
2.680000E+03	2.462694E-17	1.132364E-17
2.720000E+03	2.549578E-17	1.137217E-17
2.760000E+03	2.644526E-17	1.142974E-17
2.800000E+03	2.748254E-17	1.149632E-17
2.840000E+03	2.861515E-17	1.157172E-17
2.880000E+03	2.985103E-17	1.165559E-17
2.920000E+03	3.120566E-17	1.175010E-17
2.960000E+03	3.268437E-17	1.185304E-17
3.000000E+03	3.430376E-17	1.196599E-17
3.010000E+03	3.473095E-17	1.199536E-17
3.020000E+03	3.516950E-17	1.202587E-17
3.030000E+03	3.561579E-17	1.205619E-17
3.040000E+03	3.607364E-17	1.208755E-17
3.050000E+03	3.654319E-17	1.211989E-17
3.060000E+03	3.702075E-17	1.215191E-17
3.070000E+03	3.751021E-17	1.218481E-17
3.080000E+03	3.801169E-17	1.221853E-17
3.090000E+03	3.852530E-17	1.225301E-17
3.100000E+03	3.904730E-17	1.228698E-17
3.110000E+03	3.958163E-17	1.232160E-17
3.120000E+03	4.013230E-17	1.235800E-17
3.130000E+03	4.069165E-17	1.239372E-17
3.140000E+03	4.126367E-17	1.242990E-17
3.150000E+03	4.184845E-17	1.246647E-17
3.160000E+03	4.245007E-17	1.250453E-17
3.170000E+03	4.306072E-17	1.254167E-17
3.180000E+03	4.368843E-17	1.258013E-17
3.190000E+03	4.432934E-17	1.261869E-17
3.200000E+03	4.498353E-17	1.265727E-17
3.210000E+03	4.565109E-17	1.269578E-17
3.220000E+03	4.633617E-17	1.273527E-17
3.230000E+03	4.703887E-17	1.277563E-17
3.240000E+03	4.775113E-17	1.281456E-17
3.250000E+03	4.848531E-17	1.285525E-17
3.260000E+03	4.922914E-17	1.289434E-17
3.270000E+03	4.999508E-17	1.293497E-17
3.280000E+03	5.077494E-17	1.297487E-17
3.290000E+03	5.157291E-17	1.301499E-17
3.300000E+03	5.238907E-17	1.305521E-17
3.310000E+03	5.321924E-17	1.309437E-17
3.320000E+03	5.407191E-17	1.313441E-17
3.330000E+03	5.493862E-17	1.317312E-17
3.340000E+03	5.582791E-17	1.321242E-17
3.350000E+03	5.673123E-17	1.325013E-17
3.360000E+03	5.765714E-17	1.328811E-17
3.370000E+03	5.860132E-17	1.332519E-17
3.380000E+03	5.956809E-17	1.336220E-17
3.390000E+03	6.054866E-17	1.339700E-17
3.400000E+03	6.155607E-17	1.343232E-17
3.410000E+03	6.257708E-17	1.346510E-17
3.420000E+03	6.362478E-17	1.349799E-17
3.430000E+03	6.468576E-17	1.352797E-17
3.440000E+03	6.577318E-17	1.355764E-17
3.450000E+03	6.688244E-17	1.358582E-17
3.460000E+03	6.800883E-17	1.361140E-17
3.470000E+03	6.915660E-17	1.363505E-17
3.480000E+03	7.033000E-17	1.365743E-17
3.490000E+03	7.151970E-17	1.367650E-17
3.500000E+03	7.273443E-17	1.369377E-17
3.510000E+03	7.396928E-17	1.370811E-17
3.520000E+03	7.522386E-17	1.371925E-17
3.530000E+03	7.650230E-17	1.372776E-17
3.540000E+03	7.779953E-17	1.373252E-17
3.550000E+03	7.911964E-17	1.373407E-17
3.560000E+03	8.046210E-17	1.373211E-17
3.570000E+03	8.182163E-17	1.372553E-17
3.580000E+03	8.320692E-17	1.371561E-17
3.590000E+03	8.460791E-17	1.370048E-17
3.600000E+03	8.603322E-17	1.368137E-17
3.610000E+03	8.747266E-17	1.365644E-17
3.620000E+03	8.893478E-17	1.362688E-17
3.630000E+03	9.041396E-17	1.359163E-17
3.640000E+03	9.191398E-17	1.355110E-17
3.650000E+03	9.342906E-17	1.350426E-17
3.660000E+03	9.496289E-17	1.345151E-17
3.670000E+03	9.650956E-17	1.339185E-17
3.680000E+03	9.807744E-17	1.332633E-17
3.690000E+03	9.965571E-17	1.325334E-17
3.700000E+03	1.012478E-16	1.317326E-17
3.710000E+03	1.028573E-16	1.308645E-17
3.720000E+03	1.044730E-16	1.299141E-17
3.730000E+03	1.061031E-16	1.288915E-17
3.740000E+03	1.077460E-16	1.277942E-17
3.750000E+03	1.093907E-16	1.266089E-17
3.760000E+03	1.110497E-16	1.253511E-17
3.770000E+03	1.127120E-16	1.240081E-17
3.780000E+03	1.143804E-16	1.225845E-17
3.790000E+03	1.160484E-16	1.210745E-17
3.800000E+03	1.177239E-16	1.194880E-17
3.810000E+03	1.193953E-16	1.178154E-17
3.820000E+03	1.210704E-16	1.160669E-17
3.830000E+03	1.227424E-16	1.142391E-17
3.840000E+03	1.244095E-16	1.123338E-17
3.850000E+03	1.260744E-16	1.103578E-17
3.860000E+03	1.277304E-16	1.083101E-17
3.870000E+03	1.293757E-16	1.061946E-17
3.880000E+03	1.310129E-16	1.040202E-17
3.890000E+03	1.326402E-16	1.017922E-17
3.900000E+03	1.342509E-16	9.951363E-18
3.910000E+03	1.358478E-16	9.719562E-18
3.920000E+03	1.374290E-16	9.484664E-18
3.930000E+03	1.389880E-16	9.247321E-18
3.940000E+03	1.405322E-16	9.009219E-18
3.950000E+03	1.420504E-16	8.770915E-18
3.960000E+03	1.435450E-16	8.533942E-18
3.970000E+03	1.450134E-16	8.299545E-18
3.980000E+03	1.464522E-16	8.068948E-18
3.990000E+03	1.478578E-16	7.843335E-18
4.000000E+03	1.492256E-16	7.623829E-18
4.010000E+03	1.505465E-16	7.411251E-18
4.020000E+03	1.518242E-16	7.206996E-18
4.030000E+03	1.530447E-16	7.011516E-18
4.040000E+03	1.542071E-16	6.825814E-18
4.050000E+03	1.553065E-16	6.650574E-18
4.060000E+03	1.563337E-16	6.486175E-18
4.070000E+03	1.572888E-16	6.333192E-18
4.080000E+03	1.581677E-16	6.191843E-18
4.090000E+03	1.589588E-16	6.061860E-18
4.100000E+03	1.596681E-16	5.943430E-18
4.110000E+03	1.602857E-16	5.835948E-18
4.120000E+03	1.608190E-16	5.739254E-18
4.130000E+03	1.612605E-16	5.652451E-18
4.140000E+03	1.616157E-16	5.574956E-18
4.150000E+03	1.618834E-16	5.505815E-18
4.160000E+03	1.620640E-16	5.444008E-18
4.170000E+03	1.621698E-16	5.388863E-18
4.180000E+03	1.621993E-16	5.339217E-18
4.190000E+03	1.621589E-16	5.294194E-18
4.200000E+03	1.620556E-16	5.252991E-18
4.210000E+03	1.618933E-16	5.214789E-18
4.220000E+03	1.616833E-16	5.179092E-18
4.230000E+03	1.614265E-16	5.145185E-18
4.240000E+03	1.611348E-16	5.112803E-18
4.250000E+03	1.608099E-16	5.081457E-18
4.260000E+03	1.604674E-16	5.051176E-18
4.270000E+03	1.601066E-16	5.021561E-18
4.280000E+03	1.597403E-16	4.992678E-18
4.290000E+03	1.593752E-16	4.964444E-18
4.300000E+03	1.590180E-16	4.936822E-18
4.310000E+03	1.586815E-16	4.909969E-18
4.320000E+03	1.583693E-16	4.883770E-18
4.330000E+03	1.580905E-16	4.858300E-18
4.340000E+03	1.578537E-16	4.833608E-18
4.350000E+03	1.576644E-16	4.809643E-18
4.360000E+03	1.575273E-16	4.786353E-18
4.370000E+03	1.574498E-16	4.763754E-18
4.380000E+03	1.574387E-16	4.741853E-18
4.390000E+03	1.574950E-16	4.720493E-18
4.400000E+03	1.576277E-16	4.699739E-18
4.410000E+03	1.578403E-16	4.679480E-18
4.420000E+03	1.581359E-16	4.659580E-18
4.430000E+03	1.585203E-16	4.639929E-18
4.440000E+03	1.589959E-16	4.620297E-18
4.450000E+03	1.595678E-16	4.600498E-18
4.460000E+03	1.602399E-16	4.580311E-18
4.470000E+03	1.610132E-16	4.559445E-18
4.480000E+03	1.618904E-16	4.537719E-18
4.490000E+03	1.628735E-16	4.514992E-18
4.500000E+03	1.639587E-16	4.491034E-18
4.510000E+03	1.651511E-16	4.465927E-18
4.520000E+03	1.664475E-16	4.439548E-18
4.530000E+03	1.678408E-16	4.411685E-18
4.540000E+03	1.693350E-16	4.382370E-18
4.550000E+03	1.709174E-16	4.351104E-18
4.560000E+03	1.725836E-16	4.317521E-18
4.570000E+03	1.743245E-16	4.281090E-18
4.580000E+03	1.761262E-16	4.241128E-18
4.590000E+03	1.779801E-16	4.197090E-18
4.600000E+03	1.798630E-16	4.148120E-18
4.610000E+03	1.817621E-16	4.093680E-18
4.620000E+03	1.836578E-16	4.033212E-18
4.630000E+03	1.855245E-16	3.966215E-18
4.640000E+03	1.873464E-16	3.892639E-18
4.650000E+03	1.891025E-16	3.812649E-18
4.660000E+03	1.907682E-16	3.726733E-18
4.670000E+03	1.923307E-16	3.636077E-18
4.680000E+03	1.937722E-16	3.542308E-18
4.690000E+03	1.950828E-16	3.447809E-18
4.700000E+03	1.962480E-16	3.355483E-18
4.710000E+03	1.972692E-16	3.269119E-18
4.720000E+03	1.981347E-16	3.192763E-18
4.730000E+03	1.988500E-16	3.130916E-18
4.740000E+03	1.994090E-16	3.087567E-18
4.750000E+03	1.998140E-16	3.065843E-18
4.760000E+03	2.000646E-16	3.066916E-18
4.770000E+03	2.001603E-16	3.089458E-18
4.780000E+03	2.001015E-16	3.130372E-18
4.790000E+03	1.998933E-16	3.185672E-18
4.800000E+03	1.995406E-16	3.251137E-18
4.810000E+03	1.990490E-16	3.322849E-18
4.820000E+03	1.984347E-16	3.397655E-18
4.830000E+03	1.977096E-16	3.473067E-18
4.840000E+03	1.968936E-16	3.547460E-18
4.850000E+03	1.960071E-16	3.619830E-18
4.860000E+03	1.950729E-16	3.689712E-18
4.870000E+03	1.941187E-16	3.757055E-18
4.880000E+03	1.931691E-16	3.821942E-18
4.890000E+03	1.922575E-16	3.884780E-18
4.900000E+03	1.914105E-16	3.945947E-18
4.910000E+03	1.906596E-16	4.005937E-18
4.920000E+03	1.900353E-16	4.065228E-18
4.930000E+03	1.895589E-16	4.124044E-18
4.940000E+03	1.892600E-16	4.182654E-18
4.950000E+03	1.891523E-16	4.240893E-18
4.960000E+03	1.892535E-16	4.298595E-18
4.970000E+03	1.895680E-16	4.355216E-18
4.980000E+03	1.901012E-16	4.410241E-18
4.990000E+03	1.908448E-16	4.462924E-18
5.000000E+03	1.917973E-16	4.512806E-18
5.010000E+03	1.929392E-16	4.559186E-18
5.020000E+03	1.942613E-16	4.601765E-18
5.030000E+03	1.957407E-16	4.640084E-18
5.040000E+03	1.973537E-16	4.673806E-18
5.050000E+03	1.990765E-16	4.702700E-18
5.060000E+03	2.008786E-16	4.726448E-18
5.070000E+03	2.027359E-16	4.744983E-18
5.080000E+03	2.046158E-16	4.758165E-18
5.090000E+03	2.064975E-16	4.766246E-18
5.100000E+03	2.083563E-16	4.769508E-18
5.110000E+03	2.101748E-16	4.768462E-18
5.120000E+03	2.119447E-16	4.763794E-18
5.130000E+03	2.136613E-16	4.756199E-18
5.140000E+03	2.153244E-16	4.746287E-18
5.150000E+03	2.169451E-16	4.734651E-18
5.160000E+03	2.185370E-16	4.721711E-18
5.170000E+03	2.201125E-16	4.707710E-18
5.180000E+03	2.216889E-16	4.692862E-18
5.190000E+03	2.232792E-16	4.677227E-18
5.200000E+03	2.248932E-16	4.660770E-18
5.210000E+03	2.265337E-16	4.643274E-18
5.220000E+03	2.282055E-16	4.624588E-18
5.230000E+03	2.299050E-16	4.604472E-18
5.240000E+03	2.316322E-16	4.582816E-18
5.250000E+03	2.333803E-16	4.559516E-18
5.260000E+03	2.351450E-16	4.534672E-18
5.270000E+03	2.369225E-16	4.508528E-18
5.280000E+03	2.387090E-16	4.481517E-18
5.290000E+03	2.404984E-16	4.454198E-18
5.300000E+03	2.422868E-16	4.427311E-18
5.310000E+03	2.440724E-16	4.401847E-18
5.320000E+03	2.458469E-16	4.378908E-18
5.330000E+03	2.476001E-16	4.359752E-18
5.340000E+03	2.493229E-16	4.345841E-18
5.350000E+03	2.510079E-16	4.338758E-18
5.360000E+03	2.526407E-16	4.339834E-18
5.370000E+03	2.542061E-16	4.350041E-18
5.380000E+03	2.556929E-16	4.369699E-18
5.390000E+03	2.570913E-16	4.398078E-18
5.400000E+03	2.583963E-16	4.433768E-18
5.410000E+03	2.595921E-16	4.474782E-18
5.420000E+03	2.606785E-16	4.519236E-18
5.430000E+03	2.616473E-16	4.565203E-18
5.440000E+03	2.624944E-16	4.611040E-18
5.450000E+03	2.632163E-16	4.655350E-18
5.460000E+03	2.638068E-16	4.696969E-18
5.470000E+03	2.642660E-16	4.735067E-18
5.480000E+03	2.645872E-16	4.768844E-18
5.490000E+03	2.647697E-16	4.797777E-18
5.500000E+03	2.648056E-16	4.821409E-18
5.510000E+03	2.646952E-16	4.839553E-18
5.520000E+03	2.644254E-16	4.851937E-18
5.530000E+03	2.639900E-16	4.858513E-18
5.540000E+03	2.633775E-16	4.859153E-18
5.550000E+03	2.625737E-16	4.853802E-18
5.560000E+03	2.615679E-16	4.842673E-18
5.570000E+03	2.603353E-16	4.825906E-18
5.580000E+03	2.588613E-16	4.804077E-18
5.590000E+03	2.571226E-16	4.777792E-18
5.600000E+03	2.551026E-16	4.747872E-18
5.610000E+03	2.527854E-16	4.715193E-18
5.620000E+03	2.501674E-16	4.680770E-18
5.630000E+03	2.472425E-16	4.645290E-18
5.640000E+03	2.440237E-16	4.609512E-18
5.650000E+03	2.405358E-16	4.574074E-18
5.660000E+03	2.368163E-16	4.539433E-18
5.670000E+03	2.329052E-16	4.505787E-18
5.680000E+03	2.288605E-16	4.473493E-18
5.690000E+03	2.247402E-16	4.442769E-18
5.700000E+03	2.206043E-16	4.413876E-18
5.710000E+03	2.165121E-16	4.387135E-18
5.720000E+03	2.125229E-16	4.362951E-18
5.730000E+03	2.086897E-16	4.341746E-18
5.740000E+03	2.050587E-16	4.323936E-18
5.750000E+03	2.016780E-16	4.310031E-18
5.760000E+03	1.985840E-16	4.300312E-18
5.770000E+03	1.958101E-16	4.294932E-18
5.780000E+03	1.933868E-16	4.293810E-18
5.790000E+03	1.913342E-16	4.296508E-18
5.800000E+03	1.896700E-16	4.302401E-18
5.810000E+03	1.884013E-16	4.310474E-18
5.820000E+03	1.875260E-16	4.319452E-18
5.830000E+03	1.870398E-16	4.328053E-18
5.840000E+03	1.869293E-16	4.334868E-18
5.850000E+03	1.871758E-16	4.338522E-18
5.860000E+03	1.877546E-16	4.337730E-18
5.870000E+03	1.886417E-16	4.331495E-18
5.880000E+03	1.898079E-16	4.319033E-18
5.890000E+03	1.912194E-16	4.299825E-18
5.900000E+03	1.928432E-16	4.273800E-18
5.910000E+03	1.946393E-16	4.241179E-18
5.920000E+03	1.965687E-16	4.202672E-18
5.930000E+03	1.985844E-16	4.159228E-18
5.940000E+03	2.006364E-16	4.112049E-18
5.950000E+03	2.026789E-16	4.062546E-18
5.960000E+03	2.046570E-16	4.011877E-18
5.970000E+03	2.065157E-16	3.961059E-18
5.980000E+03	2.082064E-16	3.911008E-18
5.990000E+03	2.096808E-16	3.862265E-18
6.000000E+03	2.108985E-16	3.815168E-18
6.010000E+03	2.118278E-16	3.769780E-18
6.020000E+03	2.124473E-16	3.725807E-18
6.030000E+03	2.127440E-16	3.682608E-18
6.040000E+03	2.127216E-16	3.639359E-18
6.050000E+03	2.123907E-16	3.594895E-18
6.060000E+03	2.117772E-16	3.548077E-18
6.070000E+03	2.109079E-16	3.497755E-18
6.080000E+03	2.098239E-16	3.443097E-18
6.090000E+03	2.085662E-16	3.383526E-18
6.100000E+03	2.071835E-16	3.318915E-18
6.110000E+03	2.057209E-16	3.249342E-18
6.120000E+03	2.042267E-16	3.175193E-18
6.130000E+03	2.027504E-16	3.097071E-18
6.140000E+03	2.013328E-16	3.015545E-18
6.150000E+03	2.000166E-16	2.931397E-18
6.160000E+03	1.988450E-16	2.845655E-18
6.170000E+03	1.978444E-16	2.759424E-18
6.180000E+03	1.970506E-16	2.674496E-18
6.190000E+03	1.964807E-16	2.593171E-18
6.200000E+03	1.961589E-16	2.518671E-18
6.210000E+03	1.960978E-16	2.454792E-18
6.220000E+03	1.963072E-16	2.405726E-18
6.230000E+03	1.967946E-16	2.375574E-18
6.240000E+03	1.975585E-16	2.367451E-18
6.250000E+03	1.985949E-16	2.382260E-18
6.260000E+03	1.998945E-16	2.418398E-18
6.270000E+03	2.014421E-16	2.472839E-18
6.280000E+03	2.032155E-16	2.541877E-18
6.290000E+03	2.051874E-16	2.621639E-18
6.300000E+03	2.073180E-16	2.708412E-18
6.310000E+03	2.095623E-16	2.798921E-18
6.320000E+03	2.118711E-16	2.890321E-18
6.330000E+03	2.141850E-16	2.980131E-18
6.340000E+03	2.164443E-16	3.066308E-18
6.350000E+03	2.185920E-16	3.147169E-18
6.360000E+03	2.205706E-16	3.221382E-18
6.370000E+03	2.223244E-16	3.287985E-18
6.380000E+03	2.238103E-16	3.346474E-18
6.390000E+03	2.249909E-16	3.396720E-18
6.400000E+03	2.258363E-16	3.438916E-18
6.410000E+03	2.263362E-16	3.473634E-18
6.420000E+03	2.264832E-16	3.501556E-18
6.430000E+03	2.262830E-16	3.523557E-18
6.440000E+03	2.257515E-16	3.540539E-18
6.450000E+03	2.249122E-16	3.553432E-18
6.460000E+03	2.237973E-16	3.563196E-18
6.470000E+03	2.224397E-16	3.570640E-18
6.480000E+03	2.208707E-16	3.576472E-18
6.490000E+03	2.191266E-16	3.581413E-18
6.500000E+03	2.172374E-16	3.585998E-18
6.510000E+03	2.152324E-16	3.590736E-18
6.520000E+03	2.131274E-16	3.595932E-18
6.530000E+03	2.109437E-16	3.601930E-18
6.540000E+03	2.086921E-16	3.608892E-18
6.550000E+03	2.063798E-16	3.616875E-18
6.560000E+03	2.040105E-16	3.625744E-18
6.570000E+03	2.015865E-16	3.635209E-18
6.580000E+03	1.991099E-16	3.644819E-18
6.590000E+03	1.965865E-16	3.653945E-18
6.600000E+03	1.940206E-16	3.661733E-18
6.610000E+03	1.914176E-16	3.667141E-18
6.620000E+03	1.887837E-16	3.668925E-18
6.630000E+03	1.861277E-16	3.665812E-18
6.640000E+03	1.834549E-16	3.656535E-18
6.650000E+03	1.807670E-16	3.639899E-18
6.660000E+03	1.780713E-16	3.615128E-18
6.670000E+03	1.753669E-16	3.581714E-18
6.680000E+03	1.726567E-16	3.539722E-18
6.690000E+03	1.699382E-16	3.489601E-18
6.700000E+03	1.672152E-16	3.432378E-18
6.710000E+03	1.644821E-16	3.369239E-18
6.720000E+03	1.617416E-16	3.301765E-18
6.730000E+03	1.589899E-16	3.231419E-18
6.740000E+03	1.562274E-16	3.159616E-18
6.750000E+03	1.534529E-16	3.087550E-18
6.760000E+03	1.506664E-16	3.016199E-18
6.770000E+03	1.478695E-16	2.946282E-18
6.780000E+03	1.450676E-16	2.878341E-18
6.790000E+03	1.422640E-16	2.812655E-18
6.800000E+03	1.394660E-16	2.749363E-18
6.810000E+03	1.366850E-16	2.688547E-18
6.820000E+03	1.339317E-16	2.630214E-18
6.830000E+03	1.312167E-16	2.574316E-18
6.840000E+03	1.285571E-16	2.520941E-18
6.850000E+03	1.259638E-16	2.470080E-18
6.860000E+03	1.234554E-16	2.421886E-18
6.870000E+03	1.210457E-16	2.376449E-18
6.880000E+03	1.187499E-16	2.333918E-18
6.890000E+03	1.165848E-16	2.294467E-18
6.900000E+03	1.145632E-16	2.258215E-18
6.910000E+03	1.126985E-16	2.225321E-18
6.920000E+03	1.110049E-16	2.195954E-18
6.930000E+03	1.094920E-16	2.170224E-18
6.940000E+03	1.081701E-16	2.148270E-18
6.950000E+03	1.070500E-16	2.130229E-18
6.960000E+03	1.061398E-16	2.116191E-18
6.970000E+03	1.054438E-16	2.106164E-18
6.980000E+03	1.049726E-16	2.100249E-18
6.990000E+03	1.047269E-16	2.098340E-18
7.000000E+03	1.047140E-16	2.100449E-18
7.010000E+03	1.049366E-16	2.106492E-18
7.020000E+03	1.053932E-16	2.116300E-18
7.030000E+03	1.060864E-16	2.129809E-18
7.040000E+03	1.070115E-16	2.146824E-18
7.050000E+03	1.081626E-16	2.167166E-18
7.060000E+03	1.095308E-16	2.190634E-18
7.070000E+03	1.111034E-16	2.216973E-18
7.080000E+03	1.128641E-16	2.245908E-18
7.090000E+03	1.147942E-16	2.277141E-18
7.100000E+03	1.168705E-16	2.310299E-18
7.110000E+03	1.190698E-16	2.345015E-18
7.120000E+03	1.213701E-16	2.380930E-18
7.130000E+03	1.237465E-16	2.417576E-18
7.140000E+03	1.261770E-16	2.454505E-18
7.150000E+03	1.286413E-16	2.491282E-18
7.160000E+03	1.311219E-16	2.527481E-18
7.170000E+03	1.336019E-16	2.562685E-18
7.180000E+03	1.360710E-16	2.596608E-18
7.190000E+03	1.385179E-16	2.628929E-18
7.200000E+03	1.409363E-16	2.659439E-18
7.210000E+03	1.433202E-16	2.687958E-18
7.220000E+03	1.456699E-16	2.714425E-18
7.230000E+03	1.479862E-16	2.738807E-18
7.240000E+03	1.502686E-16	2.761097E-18
7.250000E+03	1.525174E-16	2.781305E-18
7.260000E+03	1.547399E-16	2.799591E-18
7.270000E+03	1.569314E-16	2.815909E-18
7.280000E+03	1.590967E-16	2.830360E-18
7.290000E+03	1.612321E-16	2.842893E-18
7.300000E+03	1.633331E-16	2.853477E-18
7.310000E+03	1.653899E-16	2.861995E-18
7.320000E+03	1.673935E-16	2.868373E-18
7.330000E+03	1.693241E-16	2.872344E-18
7.340000E+03	1.711673E-16	2.873670E-18
7.350000E+03	1.728953E-16	2.871854E-18
7.360000E+03	1.744848E-16	2.866438E-18
7.370000E+03	1.759049E-16	2.856779E-18
7.380000E+03	1.771254E-16	2.842231E-18
7.390000E+03	1.781159E-16	2.822129E-18
7.400000E+03	1.788460E-16	2.795798E-18
7.410000E+03	1.792875E-16	2.762666E-18
7.420000E+03	1.794132E-16	2.722315E-18
7.430000E+03	1.792067E-16	2.674657E-18
7.440000E+03	1.786558E-16	2.619926E-18
7.450000E+03	1.777539E-16	2.558770E-18
7.460000E+03	1.765089E-16	2.492386E-18
7.470000E+03	1.749327E-16	2.422443E-18
7.480000E+03	1.730513E-16	2.351220E-18
7.490000E+03	1.708967E-16	2.281406E-18
7.500000E+03	1.685074E-16	2.215992E-18
7.510000E+03	1.659243E-16	2.157967E-18
7.520000E+03	1.631961E-16	2.110029E-18
7.530000E+03	1.603686E-16	2.074086E-18
7.540000E+03	1.574841E-16	2.050827E-18
7.550000E+03	1.545798E-16	2.039330E-18
7.560000E+03	1.516820E-16	2.037465E-18
7.570000E+03	1.488160E-16	2.042731E-18
7.580000E+03	1.460066E-16	2.052737E-18
7.590000E+03	1.432748E-16	2.065496E-18
7.600000E+03	1.406401E-16	2.079627E-18
7.610000E+03	1.381204E-16	2.094349E-18
7.620000E+03	1.357303E-16	2.109391E-18
7.630000E+03	1.334886E-16	2.124994E-18
7.640000E+03	1.314076E-16	2.141567E-18
7.650000E+03	1.294946E-16	2.159501E-18
7.660000E+03	1.277548E-16	2.179092E-18
7.670000E+03	1.261937E-16	2.200561E-18
7.680000E+03	1.248112E-16	2.224001E-18
7.690000E+03	1.236116E-16	2.249549E-18
7.700000E+03	1.225905E-16	2.277132E-18
7.710000E+03	1.217480E-16	2.306724E-18
7.720000E+03	1.210792E-16	2.338198E-18
7.730000E+03	1.205834E-16	2.371484E-18
7.740000E+03	1.202512E-16	2.406356E-18
7.750000E+03	1.200773E-16	2.442690E-18
7.760000E+03	1.200525E-16	2.480312E-18
