#wls	flux	fluxerr
1.600000E+03	1.657998E-17	1.412589E-17
1.640000E+03	1.695856E-17	1.434790E-17
1.680000E+03	1.735380E-17	1.457666E-17
1.720000E+03	1.776960E-17	1.481491E-17
1.760000E+03	1.820386E-17	1.506025E-17
1.800000E+03	1.866070E-17	1.531546E-17
1.840000E+03	1.914130E-17	1.558076E-17
1.880000E+03	1.964007E-17	1.585087E-17
1.920000E+03	2.016823E-17	1.613406E-17
1.960000E+03	2.072022E-17	1.642498E-17
2.000000E+03	2.130081E-17	1.672650E-17
2.040000E+03	2.190770E-17	1.703581E-17
2.080000E+03	2.254593E-17	1.735581E-17
2.120000E+03	2.321309E-17	1.768352E-17
2.160000E+03	2.391453E-17	1.802183E-17
2.200000E+03	2.465189E-17	1.837068E-17
2.240000E+03	2.542688E-17	1.872993E-17
2.280000E+03	2.623682E-17	1.909617E-17
2.320000E+03	2.708769E-17	1.947224E-17
2.360000E+03	2.798128E-17	1.985777E-17
2.400000E+03	2.891464E-17	2.024892E-17
2.440000E+03	2.989415E-17	2.064840E-17
2.480000E+03	3.092168E-17	2.105552E-17
2.520000E+03	3.199908E-17	2.146946E-17
2.560000E+03	3.312818E-17	2.188929E-17
2.600000E+03	3.430517E-17	2.231023E-17
2.640000E+03	3.553703E-17	2.273458E-17
2.680000E+03	3.682540E-17	2.316089E-17
2.720000E+03	3.817177E-17	2.358753E-17
2.760000E+03	3.957752E-17	2.401270E-17
2.800000E+03	4.103728E-17	2.443049E-17
2.840000E+03	4.256492E-17	2.484642E-17
2.880000E+03	4.414781E-17	2.525024E-17
2.920000E+03	4.579288E-17	2.564323E-17
2.960000E+03	4.750017E-17	2.602255E-17
3.000000E+03	4.926927E-17	2.638520E-17
3.010000E+03	4.971604E-17	2.647018E-17
3.020000E+03	5.017384E-17	2.655773E-17
3.030000E+03	5.063495E-17	2.664369E-17
3.040000E+03	5.109143E-17	2.672385E-17
3.050000E+03	5.155901E-17	2.680644E-17
3.060000E+03	5.202981E-17	2.688726E-17
3.070000E+03	5.250377E-17	2.696627E-17
3.080000E+03	5.298086E-17	2.704341E-17
3.090000E+03	5.346103E-17	2.711862E-17
3.100000E+03	5.394423E-17	2.719185E-17
3.110000E+03	5.443041E-17	2.726303E-17
3.120000E+03	5.491952E-17	2.733212E-17
3.130000E+03	5.541997E-17	2.740325E-17
3.140000E+03	5.591483E-17	2.746798E-17
3.150000E+03	5.641243E-17	2.753045E-17
3.160000E+03	5.691271E-17	2.759059E-17
3.170000E+03	5.742435E-17	2.765256E-17
3.180000E+03	5.792987E-17	2.770789E-17
3.190000E+03	5.844672E-17	2.776494E-17
3.200000E+03	5.895716E-17	2.781523E-17
3.210000E+03	5.947891E-17	2.786714E-17
3.220000E+03	6.000303E-17	2.791639E-17
3.230000E+03	6.052029E-17	2.795871E-17
3.240000E+03	6.104881E-17	2.800248E-17
3.250000E+03	6.157941E-17	2.804344E-17
3.260000E+03	6.211202E-17	2.808152E-17
3.270000E+03	6.264653E-17	2.811667E-17
3.280000E+03	6.318283E-17	2.814884E-17
3.290000E+03	6.372082E-17	2.817799E-17
3.300000E+03	6.426039E-17	2.820406E-17
3.310000E+03	6.480144E-17	2.822700E-17
3.320000E+03	6.534383E-17	2.824676E-17
3.330000E+03	6.588746E-17	2.826330E-17
3.340000E+03	6.643220E-17	2.827658E-17
3.350000E+03	6.697792E-17	2.828654E-17
3.360000E+03	6.753449E-17	2.829734E-17
3.370000E+03	6.808186E-17	2.830055E-17
3.380000E+03	6.862982E-17	2.830032E-17
3.390000E+03	6.918840E-17	2.830079E-17
3.400000E+03	6.973718E-17	2.829358E-17
3.410000E+03	7.029642E-17	2.828699E-17
3.420000E+03	7.084543E-17	2.827266E-17
3.430000E+03	7.140473E-17	2.825886E-17
3.440000E+03	7.196388E-17	2.824142E-17
3.450000E+03	7.251211E-17	2.821619E-17
3.460000E+03	7.307037E-17	2.819138E-17
3.470000E+03	7.362797E-17	2.816286E-17
3.480000E+03	7.417399E-17	2.812651E-17
3.490000E+03	7.472972E-17	2.809050E-17
3.500000E+03	7.528428E-17	2.805072E-17
3.510000E+03	7.583751E-17	2.800716E-17
3.520000E+03	7.638922E-17	2.795980E-17
3.530000E+03	7.693923E-17	2.790865E-17
3.540000E+03	7.748736E-17	2.785370E-17
3.550000E+03	7.803344E-17	2.779494E-17
3.560000E+03	7.857726E-17	2.773238E-17
3.570000E+03	7.911865E-17	2.766603E-17
3.580000E+03	7.965741E-17	2.759588E-17
3.590000E+03	8.019336E-17	2.752196E-17
3.600000E+03	8.072630E-17	2.744427E-17
3.610000E+03	8.126761E-17	2.736673E-17
3.620000E+03	8.179402E-17	2.728154E-17
3.630000E+03	8.231685E-17	2.719264E-17
3.640000E+03	8.283590E-17	2.710006E-17
3.650000E+03	8.336277E-17	2.700764E-17
3.660000E+03	8.387374E-17	2.690776E-17
3.670000E+03	8.438036E-17	2.680428E-17
3.680000E+03	8.489437E-17	2.670100E-17
3.690000E+03	8.539176E-17	2.659042E-17
3.700000E+03	8.589626E-17	2.648007E-17
3.710000E+03	8.638366E-17	2.636255E-17
3.720000E+03	8.687789E-17	2.624531E-17
3.730000E+03	8.735455E-17	2.612103E-17
3.740000E+03	8.783778E-17	2.599707E-17
3.750000E+03	8.830297E-17	2.586623E-17
3.760000E+03	8.877448E-17	2.573577E-17
3.770000E+03	8.922751E-17	2.559857E-17
3.780000E+03	8.968660E-17	2.546182E-17
3.790000E+03	9.012680E-17	2.531850E-17
3.800000E+03	9.057282E-17	2.517569E-17
3.810000E+03	9.101208E-17	2.502993E-17
3.820000E+03	9.143187E-17	2.487785E-17
3.830000E+03	9.185715E-17	2.472639E-17
3.840000E+03	9.227524E-17	2.457216E-17
3.850000E+03	9.267333E-17	2.441189E-17
3.860000E+03	9.307661E-17	2.425234E-17
3.870000E+03	9.347234E-17	2.409021E-17
3.880000E+03	9.384760E-17	2.392230E-17
3.890000E+03	9.422783E-17	2.375523E-17
3.900000E+03	9.460018E-17	2.358576E-17
3.910000E+03	9.495170E-17	2.341079E-17
3.920000E+03	9.530801E-17	2.323674E-17
3.930000E+03	9.565620E-17	2.306049E-17
3.940000E+03	9.598326E-17	2.287900E-17
3.950000E+03	9.631502E-17	2.269852E-17
3.960000E+03	9.663850E-17	2.251601E-17
3.970000E+03	9.695367E-17	2.233150E-17
3.980000E+03	9.724746E-17	2.214209E-17
3.990000E+03	9.754593E-17	2.195380E-17
4.000000E+03	9.783605E-17	2.176366E-17
4.010000E+03	9.810474E-17	2.156885E-17
4.020000E+03	9.837818E-17	2.137519E-17
4.030000E+03	9.864332E-17	2.117983E-17
4.040000E+03	9.888707E-17	2.098000E-17
4.050000E+03	9.913574E-17	2.078135E-17
4.060000E+03	9.937626E-17	2.058108E-17
4.070000E+03	9.959554E-17	2.037654E-17
4.080000E+03	9.981998E-17	2.017318E-17
4.090000E+03	1.000233E-16	1.996564E-17
4.100000E+03	1.002321E-16	1.975926E-17
4.110000E+03	1.004331E-16	1.955137E-17
4.120000E+03	1.006134E-16	1.933947E-17
4.130000E+03	1.007995E-16	1.912866E-17
4.140000E+03	1.009650E-16	1.891390E-17
4.150000E+03	1.011366E-16	1.870018E-17
4.160000E+03	1.012881E-16	1.848259E-17
4.170000E+03	1.014459E-16	1.826598E-17
4.180000E+03	1.015840E-16	1.804554E-17
4.190000E+03	1.017155E-16	1.782369E-17
4.200000E+03	1.018541E-16	1.760269E-17
4.210000E+03	1.019734E-16	1.737793E-17
4.220000E+03	1.020869E-16	1.715172E-17
4.230000E+03	1.022079E-16	1.692621E-17
4.240000E+03	1.023104E-16	1.669698E-17
4.250000E+03	1.024078E-16	1.646623E-17
4.260000E+03	1.025134E-16	1.623603E-17
4.270000E+03	1.026012E-16	1.600213E-17
4.280000E+03	1.026846E-16	1.576663E-17
4.290000E+03	1.027638E-16	1.552950E-17
4.300000E+03	1.028391E-16	1.529072E-17
4.310000E+03	1.029108E-16	1.505024E-17
4.320000E+03	1.029792E-16	1.480805E-17
4.330000E+03	1.030445E-16	1.456412E-17
4.340000E+03	1.031069E-16	1.431841E-17
4.350000E+03	1.031669E-16	1.407090E-17
4.360000E+03	1.032246E-16	1.382157E-17
4.370000E+03	1.032804E-16	1.357039E-17
4.380000E+03	1.033214E-16	1.331567E-17
4.390000E+03	1.033742E-16	1.306079E-17
4.400000E+03	1.034260E-16	1.280403E-17
4.410000E+03	1.034640E-16	1.254380E-17
4.420000E+03	1.035146E-16	1.228332E-17
4.430000E+03	1.035521E-16	1.201946E-17
4.440000E+03	1.036029E-16	1.175530E-17
4.450000E+03	1.036412E-16	1.148792E-17
4.460000E+03	1.036934E-16	1.122026E-17
4.470000E+03	1.037338E-16	1.094955E-17
4.480000E+03	1.037758E-16	1.067733E-17
4.490000E+03	1.038327E-16	1.040500E-17
4.500000E+03	1.038788E-16	1.013006E-17
4.510000E+03	1.039276E-16	9.854022E-18
4.520000E+03	1.039793E-16	9.577074E-18
4.530000E+03	1.040343E-16	9.299460E-18
4.540000E+03	1.040931E-16	9.021464E-18
4.550000E+03	1.041559E-16	8.743427E-18
4.560000E+03	1.042231E-16	8.465748E-18
4.570000E+03	1.042952E-16	8.188903E-18
4.580000E+03	1.043597E-16	7.912472E-18
4.590000E+03	1.044426E-16	7.639097E-18
4.600000E+03	1.045315E-16	7.368533E-18
4.610000E+03	1.046141E-16	7.100808E-18
4.620000E+03	1.047163E-16	6.838744E-18
4.630000E+03	1.048129E-16	6.581844E-18
4.640000E+03	1.049301E-16	6.333157E-18
4.650000E+03	1.050425E-16	6.092710E-18
4.660000E+03	1.051636E-16	5.863139E-18
4.670000E+03	1.052936E-16	5.646494E-18
4.680000E+03	1.054460E-16	5.445702E-18
4.690000E+03	1.055956E-16	5.261855E-18
4.700000E+03	1.057555E-16	5.098190E-18
4.710000E+03	1.059263E-16	4.957261E-18
4.720000E+03	1.060955E-16	4.840888E-18
4.730000E+03	1.062894E-16	4.752339E-18
4.740000E+03	1.064954E-16	4.692575E-18
4.750000E+03	1.067139E-16	4.662460E-18
4.760000E+03	1.069324E-16	4.661457E-18
4.770000E+03	1.071768E-16	4.689814E-18
4.780000E+03	1.074215E-16	4.744719E-18
4.790000E+03	1.076924E-16	4.824990E-18
4.800000E+03	1.079637E-16	4.926699E-18
4.810000E+03	1.082484E-16	5.047397E-18
4.820000E+03	1.085464E-16	5.183993E-18
4.830000E+03	1.088578E-16	5.333467E-18
4.840000E+03	1.091824E-16	5.492970E-18
4.850000E+03	1.095202E-16	5.659875E-18
4.860000E+03	1.098709E-16	5.831805E-18
4.870000E+03	1.102346E-16	6.006632E-18
4.880000E+03	1.106108E-16	6.182469E-18
4.890000E+03	1.109862E-16	6.356889E-18
4.900000E+03	1.113869E-16	6.529915E-18
4.910000E+03	1.117860E-16	6.698714E-18
4.920000E+03	1.122097E-16	6.863708E-18
4.930000E+03	1.126309E-16	7.022264E-18
4.940000E+03	1.130623E-16	7.174268E-18
4.950000E+03	1.135168E-16	7.319771E-18
4.960000E+03	1.139670E-16	7.456315E-18
4.970000E+03	1.144254E-16	7.584082E-18
4.980000E+03	1.148913E-16	7.702461E-18
4.990000E+03	1.153639E-16	7.810893E-18
5.000000E+03	1.158285E-16	7.907927E-18
5.010000E+03	1.163115E-16	7.994945E-18
5.020000E+03	1.167981E-16	8.070584E-18
5.030000E+03	1.172735E-16	8.133476E-18
5.040000E+03	1.177639E-16	8.185158E-18
5.050000E+03	1.182404E-16	8.223364E-18
5.060000E+03	1.187295E-16	8.249713E-18
5.070000E+03	1.192018E-16	8.261990E-18
5.080000E+03	1.196699E-16	8.260918E-18
5.090000E+03	1.201320E-16	8.246292E-18
5.100000E+03	1.205868E-16	8.217945E-18
5.110000E+03	1.210324E-16	8.175756E-18
5.120000E+03	1.214673E-16	8.119653E-18
5.130000E+03	1.218896E-16	8.049618E-18
5.140000E+03	1.222832E-16	7.964767E-18
5.150000E+03	1.226750E-16	7.867089E-18
5.160000E+03	1.230487E-16	7.755839E-18
5.170000E+03	1.233880E-16	7.630412E-18
5.180000E+03	1.237200E-16	7.492995E-18
5.190000E+03	1.240137E-16	7.342335E-18
5.200000E+03	1.242817E-16	7.179966E-18
5.210000E+03	1.245221E-16	7.006690E-18
5.220000E+03	1.247330E-16	6.823484E-18
5.230000E+03	1.249125E-16	6.631527E-18
5.240000E+03	1.250588E-16	6.432235E-18
5.250000E+03	1.251701E-16	6.227291E-18
5.260000E+03	1.252447E-16	6.018684E-18
5.270000E+03	1.252808E-16	5.808748E-18
5.280000E+03	1.252625E-16	5.599552E-18
5.290000E+03	1.252172E-16	5.395551E-18
5.300000E+03	1.251145E-16	5.199027E-18
5.310000E+03	1.249822E-16	5.015169E-18
5.320000E+03	1.247903E-16	4.847093E-18
5.330000E+03	1.245523E-16	4.699881E-18
5.340000E+03	1.242675E-16	4.577970E-18
5.350000E+03	1.239499E-16	4.485937E-18
5.360000E+03	1.235704E-16	4.426039E-18
5.370000E+03	1.231436E-16	4.400964E-18
5.380000E+03	1.226558E-16	4.410942E-18
5.390000E+03	1.221360E-16	4.456195E-18
5.400000E+03	1.215711E-16	4.534011E-18
5.410000E+03	1.209624E-16	4.641055E-18
5.420000E+03	1.202975E-16	4.772705E-18
5.430000E+03	1.196061E-16	4.925622E-18
5.440000E+03	1.188624E-16	5.094248E-18
5.450000E+03	1.180823E-16	5.274912E-18
5.460000E+03	1.172817E-16	5.464392E-18
5.470000E+03	1.164356E-16	5.658036E-18
5.480000E+03	1.155600E-16	5.853491E-18
5.490000E+03	1.146574E-16	6.048230E-18
5.500000E+03	1.137302E-16	6.240129E-18
5.510000E+03	1.127808E-16	6.427420E-18
5.520000E+03	1.118117E-16	6.608654E-18
5.530000E+03	1.108255E-16	6.782655E-18
5.540000E+03	1.098245E-16	6.948483E-18
5.550000E+03	1.087988E-16	7.104588E-18
5.560000E+03	1.077759E-16	7.252024E-18
5.570000E+03	1.067332E-16	7.388737E-18
5.580000E+03	1.056979E-16	7.516123E-18
5.590000E+03	1.046478E-16	7.632308E-18
5.600000E+03	1.035974E-16	7.738063E-18
5.610000E+03	1.025606E-16	7.834291E-18
5.620000E+03	1.015160E-16	7.919283E-18
5.630000E+03	1.004776E-16	7.994056E-18
5.640000E+03	9.944721E-17	8.058790E-18
5.650000E+03	9.842688E-17	8.113703E-18
5.660000E+03	9.741841E-17	8.159046E-18
5.670000E+03	9.642357E-17	8.195097E-18
5.680000E+03	9.544405E-17	8.222151E-18
5.690000E+03	9.447063E-17	8.239579E-18
5.700000E+03	9.352655E-17	8.249583E-18
5.710000E+03	9.260231E-17	8.251550E-18
5.720000E+03	9.168881E-17	8.244869E-18
5.730000E+03	9.080834E-17	8.231752E-18
5.740000E+03	8.994123E-17	8.210641E-18
5.750000E+03	8.909905E-17	8.182798E-18
5.760000E+03	8.829286E-17	8.149461E-18
5.770000E+03	8.750336E-17	8.109065E-18
5.780000E+03	8.674154E-17	8.062828E-18
5.790000E+03	8.600817E-17	8.011022E-18
5.800000E+03	8.530394E-17	7.953900E-18
5.810000E+03	8.462944E-17	7.891700E-18
5.820000E+03	8.398521E-17	7.824644E-18
5.830000E+03	8.337172E-17	7.752933E-18
5.840000E+03	8.278934E-17	7.676749E-18
5.850000E+03	8.223840E-17	7.596258E-18
5.860000E+03	8.171915E-17	7.511605E-18
5.870000E+03	8.122251E-17	7.422069E-18
5.880000E+03	8.076717E-17	7.329461E-18
5.890000E+03	8.033471E-17	7.232189E-18
5.900000E+03	7.994348E-17	7.131986E-18
5.910000E+03	7.957513E-17	7.027270E-18
5.920000E+03	7.924769E-17	6.919694E-18
5.930000E+03	7.894287E-17	6.807694E-18
5.940000E+03	7.866946E-17	6.692084E-18
5.950000E+03	7.843607E-17	6.573615E-18
5.960000E+03	7.822440E-17	6.450767E-18
5.970000E+03	7.804295E-17	6.324290E-18
5.980000E+03	7.789121E-17	6.194165E-18
5.990000E+03	7.776860E-17	6.060376E-18
6.000000E+03	7.767445E-17	5.922907E-18
6.010000E+03	7.760807E-17	5.781754E-18
6.020000E+03	7.756866E-17	5.636925E-18
6.030000E+03	7.755539E-17	5.488451E-18
6.040000E+03	7.756735E-17	5.336389E-18
6.050000E+03	7.760355E-17	5.180836E-18
6.060000E+03	7.765409E-17	5.021368E-18
6.070000E+03	7.773555E-17	4.859356E-18
6.080000E+03	7.783792E-17	4.694501E-18
6.090000E+03	7.795105E-17	4.526681E-18
6.100000E+03	7.809138E-17	4.357463E-18
6.110000E+03	7.823976E-17	4.186509E-18
6.120000E+03	7.841258E-17	4.015661E-18
6.130000E+03	7.859047E-17	3.845087E-18
6.140000E+03	7.878081E-17	3.676654E-18
6.150000E+03	7.899102E-17	3.512493E-18
6.160000E+03	7.920144E-17	3.353916E-18
6.170000E+03	7.941938E-17	3.203923E-18
6.180000E+03	7.965217E-17	3.065921E-18
6.190000E+03	7.987987E-17	2.942705E-18
6.200000E+03	8.010968E-17	2.838500E-18
6.210000E+03	8.033967E-17	2.757294E-18
6.220000E+03	8.056780E-17	2.702847E-18
6.230000E+03	8.079193E-17	2.678245E-18
6.240000E+03	8.100982E-17	2.685439E-18
6.250000E+03	8.121914E-17	2.724899E-18
6.260000E+03	8.141758E-17	2.795542E-18
6.270000E+03	8.160271E-17	2.894983E-18
6.280000E+03	8.176271E-17	3.019585E-18
6.290000E+03	8.191375E-17	3.166265E-18
6.300000E+03	8.204404E-17	3.330845E-18
6.310000E+03	8.215116E-17	3.509649E-18
6.320000E+03	8.222338E-17	3.698897E-18
6.330000E+03	8.227729E-17	3.896428E-18
6.340000E+03	8.230142E-17	4.099236E-18
6.350000E+03	8.228446E-17	4.304574E-18
6.360000E+03	8.224348E-17	4.511456E-18
6.370000E+03	8.215814E-17	4.717195E-18
6.380000E+03	8.204589E-17	4.921399E-18
6.390000E+03	8.188683E-17	5.121713E-18
6.400000E+03	8.169880E-17	5.318199E-18
6.410000E+03	8.146240E-17	5.508723E-18
6.420000E+03	8.118656E-17	5.693060E-18
6.430000E+03	8.088031E-17	5.871182E-18
6.440000E+03	8.052513E-17	6.041167E-18
6.450000E+03	8.013056E-17	6.203162E-18
6.460000E+03	7.969708E-17	6.356748E-18
6.470000E+03	7.923445E-17	6.502328E-18
6.480000E+03	7.872541E-17	6.638163E-18
6.490000E+03	7.818019E-17	6.764785E-18
6.500000E+03	7.760012E-17	6.882063E-18
6.510000E+03	7.698669E-17	6.989930E-18
6.520000E+03	7.634157E-17	7.088375E-18
6.530000E+03	7.566660E-17	7.177446E-18
6.540000E+03	7.496372E-17	7.257239E-18
6.550000E+03	7.423502E-17	7.327899E-18
6.560000E+03	7.348268E-17	7.389617E-18
6.570000E+03	7.270897E-17	7.442622E-18
6.580000E+03	7.191622E-17	7.487182E-18
6.590000E+03	7.110682E-17	7.523596E-18
6.600000E+03	7.028318E-17	7.552194E-18
6.610000E+03	6.943975E-17	7.572458E-18
6.620000E+03	6.859502E-17	7.586502E-18
6.630000E+03	6.774332E-17	7.593853E-18
6.640000E+03	6.688703E-17	7.594915E-18
6.650000E+03	6.602089E-17	7.589233E-18
6.660000E+03	6.516248E-17	7.578979E-18
6.670000E+03	6.430630E-17	7.563705E-18
6.680000E+03	6.344719E-17	7.542972E-18
6.690000E+03	6.260191E-17	7.518946E-18
6.700000E+03	6.175789E-17	7.490315E-18
6.710000E+03	6.093131E-17	7.459223E-18
6.720000E+03	6.010981E-17	7.424355E-18
6.730000E+03	5.930896E-17	7.387821E-18
6.740000E+03	5.851656E-17	7.348298E-18
6.750000E+03	5.774762E-17	7.307855E-18
6.760000E+03	5.699005E-17	7.265156E-18
6.770000E+03	5.625830E-17	7.222222E-18
6.780000E+03	5.554041E-17	7.177703E-18
6.790000E+03	5.484396E-17	7.132745E-18
6.800000E+03	5.417610E-17	7.088455E-18
6.810000E+03	5.352503E-17	7.043461E-18
6.820000E+03	5.289779E-17	6.998841E-18
6.830000E+03	5.230104E-17	6.955636E-18
6.840000E+03	5.172313E-17	6.912451E-18
6.850000E+03	5.117061E-17	6.870297E-18
6.860000E+03	5.064385E-17	6.829361E-18
6.870000E+03	5.014311E-17	6.789811E-18
6.880000E+03	4.966862E-17	6.751801E-18
6.890000E+03	4.922050E-17	6.715468E-18
6.900000E+03	4.880449E-17	6.681711E-18
6.910000E+03	4.840925E-17	6.649087E-18
6.920000E+03	4.804045E-17	6.618469E-18
6.930000E+03	4.769800E-17	6.589941E-18
6.940000E+03	4.738174E-17	6.563572E-18
6.950000E+03	4.709149E-17	6.539420E-18
6.960000E+03	4.682158E-17	6.516775E-18
6.970000E+03	4.658264E-17	6.497189E-18
6.980000E+03	4.636887E-17	6.479927E-18
6.990000E+03	4.617991E-17	6.465003E-18
7.000000E+03	4.601538E-17	6.452424E-18
7.010000E+03	4.587484E-17	6.442184E-18
7.020000E+03	4.575783E-17	6.434270E-18
7.030000E+03	4.565851E-17	6.427912E-18
7.040000E+03	4.558699E-17	6.424575E-18
7.050000E+03	4.553738E-17	6.423474E-18
7.060000E+03	4.550376E-17	6.423812E-18
7.070000E+03	4.549609E-17	6.427031E-18
7.080000E+03	4.550840E-17	6.432323E-18
7.090000E+03	4.553465E-17	6.438866E-18
7.100000E+03	4.558472E-17	6.448087E-18
7.110000E+03	4.565251E-17	6.459152E-18
7.120000E+03	4.573186E-17	6.471215E-18
7.130000E+03	4.583260E-17	6.485692E-18
7.140000E+03	4.594312E-17	6.500967E-18
7.150000E+03	4.607323E-17	6.518449E-18
7.160000E+03	4.621120E-17	6.536503E-18
7.170000E+03	4.636141E-17	6.555770E-18
7.180000E+03	4.652826E-17	6.576897E-18
7.190000E+03	4.669982E-17	6.598218E-18
7.200000E+03	4.688043E-17	6.620367E-18
7.210000E+03	4.707446E-17	6.643989E-18
7.220000E+03	4.726976E-17	6.667389E-18
7.230000E+03	4.747065E-17	6.691202E-18
7.240000E+03	4.767592E-17	6.715283E-18
7.250000E+03	4.788999E-17	6.740280E-18
7.260000E+03	4.810039E-17	6.764466E-18
7.270000E+03	4.831150E-17	6.788484E-18
7.280000E+03	4.852205E-17	6.812188E-18
7.290000E+03	4.873081E-17	6.835433E-18
7.300000E+03	4.893652E-17	6.858077E-18
7.310000E+03	4.913794E-17	6.879981E-18
7.320000E+03	4.933387E-17	6.901008E-18
7.330000E+03	4.952308E-17	6.921027E-18
7.340000E+03	4.970441E-17	6.939911E-18
7.350000E+03	4.987671E-17	6.957537E-18
7.360000E+03	5.003887E-17	6.973792E-18
7.370000E+03	5.018983E-17	6.988567E-18
7.380000E+03	5.032857E-17	7.001762E-18
7.390000E+03	5.044815E-17	7.012455E-18
7.400000E+03	5.055961E-17	7.022219E-18
7.410000E+03	5.065613E-17	7.030151E-18
7.420000E+03	5.073696E-17	7.036187E-18
7.430000E+03	5.079536E-17	7.039434E-18
7.440000E+03	5.084275E-17	7.041515E-18
7.450000E+03	5.087257E-17	7.041560E-18
7.460000E+03	5.087830E-17	7.038704E-18
7.470000E+03	5.087164E-17	7.034603E-18
7.480000E+03	5.084020E-17	7.027576E-18
7.490000E+03	5.079584E-17	7.019295E-18
7.500000E+03	5.072634E-17	7.008100E-18
7.510000E+03	5.064372E-17	6.995678E-18
7.520000E+03	5.053592E-17	6.980388E-18
7.530000E+03	5.040908E-17	6.963097E-18
7.540000E+03	5.026937E-17	6.944673E-18
7.550000E+03	5.010501E-17	6.923504E-18
7.560000E+03	4.992232E-17	6.900471E-18
7.570000E+03	4.972761E-17	6.876451E-18
7.580000E+03	4.950938E-17	6.849860E-18
7.590000E+03	4.927407E-17	6.821585E-18
7.600000E+03	4.902220E-17	6.791692E-18
7.610000E+03	4.875433E-17	6.760248E-18
7.620000E+03	4.847105E-17	6.727325E-18
7.630000E+03	4.817298E-17	6.692992E-18
7.640000E+03	4.786079E-17	6.657319E-18
7.650000E+03	4.753514E-17	6.620378E-18
7.660000E+03	4.719671E-17	6.582239E-18
7.670000E+03	4.684620E-17	6.542970E-18
7.680000E+03	4.648433E-17	6.502640E-18
7.690000E+03	4.611180E-17	6.461313E-18
7.700000E+03	4.572931E-17	6.419054E-18
7.710000E+03	4.533757E-17	6.375924E-18
7.720000E+03	4.493186E-17	6.331221E-18
7.730000E+03	4.452374E-17	6.286533E-18
7.740000E+03	4.410843E-17	6.241147E-18
7.750000E+03	4.368131E-17	6.194368E-18
7.760000E+03	4.325362E-17	6.147746E-18
