#wls	flux	fluxerr
1.600000E+03	1.528470E-15	1.381954E-16
1.640000E+03	1.386015E-15	1.246366E-16
1.680000E+03	1.250536E-15	1.118284E-16
1.720000E+03	1.122770E-15	9.982983E-17
1.760000E+03	1.003481E-15	8.870061E-17
1.800000E+03	8.933891E-16	7.849431E-17
1.840000E+03	7.927919E-16	6.922577E-17
1.880000E+03	7.022635E-16	6.093252E-17
1.920000E+03	6.220521E-16	5.362211E-17
1.960000E+03	5.523460E-16	4.729580E-17
2.000000E+03	4.932651E-16	4.194792E-17
2.040000E+03	4.449830E-16	3.757639E-17
2.080000E+03	4.076361E-16	3.417487E-17
2.120000E+03	3.810413E-16	3.170944E-17
2.160000E+03	3.645687E-16	3.010897E-17
2.200000E+03	3.576860E-16	2.931128E-17
2.240000E+03	3.604118E-16	2.929966E-17
2.280000E+03	3.732481E-16	3.009573E-17
2.320000E+03	3.970851E-16	3.175017E-17
2.360000E+03	4.331373E-16	3.433624E-17
2.400000E+03	4.827962E-16	3.793710E-17
2.440000E+03	5.474417E-16	4.263025E-17
2.480000E+03	6.283042E-16	4.847692E-17
2.520000E+03	7.261664E-16	5.549966E-17
2.560000E+03	8.415633E-16	6.369901E-17
2.600000E+03	9.751033E-16	7.307854E-17
2.640000E+03	1.127416E-15	8.364060E-17
2.680000E+03	1.295677E-15	9.513122E-17
2.720000E+03	1.472861E-15	1.069991E-16
2.760000E+03	1.650808E-15	1.186331E-16
2.800000E+03	1.821975E-15	1.294912E-16
2.840000E+03	1.980485E-15	1.391732E-16
2.880000E+03	2.122813E-15	1.474620E-16
2.920000E+03	2.247711E-15	1.543091E-16
2.960000E+03	2.356381E-15	1.598376E-16
3.000000E+03	2.451574E-15	1.642711E-16
3.010000E+03	2.473792E-15	1.652474E-16
3.020000E+03	2.495455E-15	1.661768E-16
3.030000E+03	2.516631E-15	1.670642E-16
3.040000E+03	2.537501E-15	1.679219E-16
3.050000E+03	2.558081E-15	1.687511E-16
3.060000E+03	2.578441E-15	1.695566E-16
3.070000E+03	2.598708E-15	1.703470E-16
3.080000E+03	2.618899E-15	1.711233E-16
3.090000E+03	2.639082E-15	1.718901E-16
3.100000E+03	2.659439E-15	1.726593E-16
3.110000E+03	2.679929E-15	1.734280E-16
3.120000E+03	2.700672E-15	1.742041E-16
3.130000E+03	2.721679E-15	1.749881E-16
3.140000E+03	2.743178E-15	1.757943E-16
3.150000E+03	2.765064E-15	1.766160E-16
3.160000E+03	2.787451E-15	1.774600E-16
3.170000E+03	2.810447E-15	1.783330E-16
3.180000E+03	2.834104E-15	1.792379E-16
3.190000E+03	2.858361E-15	1.801705E-16
3.200000E+03	2.883423E-15	1.811433E-16
3.210000E+03	2.909224E-15	1.821518E-16
3.220000E+03	2.935851E-15	1.832009E-16
3.230000E+03	2.963283E-15	1.842889E-16
3.240000E+03	2.991597E-15	1.854201E-16
3.250000E+03	3.020814E-15	1.865953E-16
3.260000E+03	3.050950E-15	1.878148E-16
3.270000E+03	3.081960E-15	1.890756E-16
3.280000E+03	3.113900E-15	1.903805E-16
3.290000E+03	3.146769E-15	1.917289E-16
3.300000E+03	3.180508E-15	1.931168E-16
3.310000E+03	3.215156E-15	1.945459E-16
3.320000E+03	3.250642E-15	1.960116E-16
3.330000E+03	3.286997E-15	1.975152E-16
3.340000E+03	3.324143E-15	1.990518E-16
3.350000E+03	3.362053E-15	2.006191E-16
3.360000E+03	3.400699E-15	2.022151E-16
3.370000E+03	3.440051E-15	2.038378E-16
3.380000E+03	3.480085E-15	2.054854E-16
3.390000E+03	3.520732E-15	2.071535E-16
3.400000E+03	3.562033E-15	2.088442E-16
3.410000E+03	3.603889E-15	2.105515E-16
3.420000E+03	3.646422E-15	2.122823E-16
3.430000E+03	3.689572E-15	2.140327E-16
3.440000E+03	3.733404E-15	2.158063E-16
3.450000E+03	3.778011E-15	2.176083E-16
3.460000E+03	3.823462E-15	2.194421E-16
3.470000E+03	3.869924E-15	2.213170E-16
3.480000E+03	3.917385E-15	2.232319E-16
3.490000E+03	3.965662E-15	2.251759E-16
3.500000E+03	4.014519E-15	2.271354E-16
3.510000E+03	4.063660E-15	2.290935E-16
3.520000E+03	4.112912E-15	2.310405E-16
3.530000E+03	4.161937E-15	2.329576E-16
3.540000E+03	4.210644E-15	2.348401E-16
3.550000E+03	4.258891E-15	2.366804E-16
3.560000E+03	4.306634E-15	2.384765E-16
3.570000E+03	4.353786E-15	2.402239E-16
3.580000E+03	4.400362E-15	2.419242E-16
3.590000E+03	4.446540E-15	2.435873E-16
3.600000E+03	4.492341E-15	2.452149E-16
3.610000E+03	4.538050E-15	2.468227E-16
3.620000E+03	4.583892E-15	2.484233E-16
3.630000E+03	4.630089E-15	2.500287E-16
3.640000E+03	4.676953E-15	2.516555E-16
3.650000E+03	4.724882E-15	2.533248E-16
3.660000E+03	4.774196E-15	2.550534E-16
3.670000E+03	4.825392E-15	2.568670E-16
3.680000E+03	4.878768E-15	2.587805E-16
3.690000E+03	4.934783E-15	2.608172E-16
3.700000E+03	4.993834E-15	2.629966E-16
3.710000E+03	5.056359E-15	2.653402E-16
3.720000E+03	5.122663E-15	2.678622E-16
3.730000E+03	5.193121E-15	2.705802E-16
3.740000E+03	5.268014E-15	2.735068E-16
3.750000E+03	5.347621E-15	2.766541E-16
3.760000E+03	5.432105E-15	2.800284E-16
3.770000E+03	5.521616E-15	2.836349E-16
3.780000E+03	5.616169E-15	2.874719E-16
3.790000E+03	5.715691E-15	2.915333E-16
3.800000E+03	5.820190E-15	2.958172E-16
3.810000E+03	5.929293E-15	3.003024E-16
3.820000E+03	6.042756E-15	3.049746E-16
3.830000E+03	6.160239E-15	3.098147E-16
3.840000E+03	6.281122E-15	3.147900E-16
3.850000E+03	6.404806E-15	3.198693E-16
3.860000E+03	6.530674E-15	3.250208E-16
3.870000E+03	6.657950E-15	3.302056E-16
3.880000E+03	6.785800E-15	3.353822E-16
3.890000E+03	6.913257E-15	3.405032E-16
3.900000E+03	7.039441E-15	3.455262E-16
3.910000E+03	7.163379E-15	3.504048E-16
3.920000E+03	7.284094E-15	3.550931E-16
3.930000E+03	7.400597E-15	3.595453E-16
3.940000E+03	7.511944E-15	3.637184E-16
3.950000E+03	7.617285E-15	3.675744E-16
3.960000E+03	7.715761E-15	3.710756E-16
3.970000E+03	7.806508E-15	3.741844E-16
3.980000E+03	7.888967E-15	3.768784E-16
3.990000E+03	7.962437E-15	3.791288E-16
4.000000E+03	8.026471E-15	3.809190E-16
4.010000E+03	8.080650E-15	3.822343E-16
4.020000E+03	8.124590E-15	3.830614E-16
4.030000E+03	8.158227E-15	3.834027E-16
4.040000E+03	8.181393E-15	3.832552E-16
4.050000E+03	8.194170E-15	3.826279E-16
4.060000E+03	8.196677E-15	3.815313E-16
4.070000E+03	8.189135E-15	3.799805E-16
4.080000E+03	8.171852E-15	3.779943E-16
4.090000E+03	8.145327E-15	3.756002E-16
4.100000E+03	8.109971E-15	3.728211E-16
4.110000E+03	8.066375E-15	3.696880E-16
4.120000E+03	8.015324E-15	3.662402E-16
4.130000E+03	7.957400E-15	3.625074E-16
4.140000E+03	7.893439E-15	3.585303E-16
4.150000E+03	7.824257E-15	3.543482E-16
4.160000E+03	7.750689E-15	3.500007E-16
4.170000E+03	7.673598E-15	3.455284E-16
4.180000E+03	7.593852E-15	3.409714E-16
4.190000E+03	7.512308E-15	3.363689E-16
4.200000E+03	7.429815E-15	3.317592E-16
4.210000E+03	7.347182E-15	3.271786E-16
4.220000E+03	7.265184E-15	3.226612E-16
4.230000E+03	7.184491E-15	3.182362E-16
4.240000E+03	7.105776E-15	3.139327E-16
4.250000E+03	7.029723E-15	3.097799E-16
4.260000E+03	6.956887E-15	3.058011E-16
4.270000E+03	6.887642E-15	3.020114E-16
4.280000E+03	6.822510E-15	2.984322E-16
4.290000E+03	6.761881E-15	2.950790E-16
4.300000E+03	6.706115E-15	2.919660E-16
4.310000E+03	6.655551E-15	2.891063E-16
4.320000E+03	6.610449E-15	2.865095E-16
4.330000E+03	6.571246E-15	2.841927E-16
4.340000E+03	6.538148E-15	2.821633E-16
4.350000E+03	6.511590E-15	2.804380E-16
4.360000E+03	6.491799E-15	2.790244E-16
4.370000E+03	6.478752E-15	2.779193E-16
4.380000E+03	6.471905E-15	2.770977E-16
4.390000E+03	6.470529E-15	2.765263E-16
4.400000E+03	6.473793E-15	2.761683E-16
4.410000E+03	6.481007E-15	2.759931E-16
4.420000E+03	6.491401E-15	2.759669E-16
4.430000E+03	6.504254E-15	2.760583E-16
4.440000E+03	6.518988E-15	2.762420E-16
4.450000E+03	6.534942E-15	2.764898E-16
4.460000E+03	6.551537E-15	2.767768E-16
4.470000E+03	6.568275E-15	2.770817E-16
4.480000E+03	6.584498E-15	2.773767E-16
4.490000E+03	6.599753E-15	2.776428E-16
4.500000E+03	6.613553E-15	2.778595E-16
4.510000E+03	6.625382E-15	2.780055E-16
4.520000E+03	6.634823E-15	2.780634E-16
4.530000E+03	6.641504E-15	2.780178E-16
4.540000E+03	6.645105E-15	2.778556E-16
4.550000E+03	6.645360E-15	2.775661E-16
4.560000E+03	6.642002E-15	2.771383E-16
4.570000E+03	6.634828E-15	2.765642E-16
4.580000E+03	6.623888E-15	2.758460E-16
4.590000E+03	6.609047E-15	2.749783E-16
4.600000E+03	6.590295E-15	2.739611E-16
4.610000E+03	6.567812E-15	2.728019E-16
4.620000E+03	6.541768E-15	2.715079E-16
4.630000E+03	6.512199E-15	2.700806E-16
4.640000E+03	6.479561E-15	2.685391E-16
4.650000E+03	6.443909E-15	2.668856E-16
4.660000E+03	6.405708E-15	2.651393E-16
4.670000E+03	6.365256E-15	2.633124E-16
4.680000E+03	6.322870E-15	2.614179E-16
4.690000E+03	6.278880E-15	2.594692E-16
4.700000E+03	6.233618E-15	2.574800E-16
4.710000E+03	6.187543E-15	2.554688E-16
4.720000E+03	6.140921E-15	2.534464E-16
4.730000E+03	6.094074E-15	2.514259E-16
4.740000E+03	6.047372E-15	2.494222E-16
4.750000E+03	6.000987E-15	2.474422E-16
4.760000E+03	5.955377E-15	2.455044E-16
4.770000E+03	5.910621E-15	2.436118E-16
4.780000E+03	5.867074E-15	2.417789E-16
4.790000E+03	5.824948E-15	2.400141E-16
4.800000E+03	5.784317E-15	2.383201E-16
4.810000E+03	5.745402E-15	2.367060E-16
4.820000E+03	5.708397E-15	2.351794E-16
4.830000E+03	5.673293E-15	2.337399E-16
4.840000E+03	5.640225E-15	2.323928E-16
4.850000E+03	5.609239E-15	2.311400E-16
4.860000E+03	5.580293E-15	2.299795E-16
4.870000E+03	5.553367E-15	2.289106E-16
4.880000E+03	5.528467E-15	2.279333E-16
4.890000E+03	5.505453E-15	2.270419E-16
4.900000E+03	5.484265E-15	2.262339E-16
4.910000E+03	5.464642E-15	2.254986E-16
4.920000E+03	5.446462E-15	2.248309E-16
4.930000E+03	5.429519E-15	2.242223E-16
4.940000E+03	5.413523E-15	2.236610E-16
4.950000E+03	5.398274E-15	2.231386E-16
4.960000E+03	5.383437E-15	2.226414E-16
4.970000E+03	5.368772E-15	2.221595E-16
4.980000E+03	5.353915E-15	2.216778E-16
4.990000E+03	5.338548E-15	2.211832E-16
5.000000E+03	5.322294E-15	2.206599E-16
5.010000E+03	5.304940E-15	2.200992E-16
5.020000E+03	5.286062E-15	2.194832E-16
5.030000E+03	5.265358E-15	2.187994E-16
5.040000E+03	5.242596E-15	2.180379E-16
5.050000E+03	5.217464E-15	2.171854E-16
5.060000E+03	5.189731E-15	2.162321E-16
5.070000E+03	5.159204E-15	2.151695E-16
5.080000E+03	5.125732E-15	2.139911E-16
5.090000E+03	5.089158E-15	2.126898E-16
5.100000E+03	5.049428E-15	2.112628E-16
5.110000E+03	5.006593E-15	2.097119E-16
5.120000E+03	4.960606E-15	2.080343E-16
5.130000E+03	4.911678E-15	2.062384E-16
5.140000E+03	4.859822E-15	2.043241E-16
5.150000E+03	4.805357E-15	2.023043E-16
5.160000E+03	4.748496E-15	2.001871E-16
5.170000E+03	4.689548E-15	1.979852E-16
5.180000E+03	4.628858E-15	1.957123E-16
5.190000E+03	4.566751E-15	1.933818E-16
5.200000E+03	4.503626E-15	1.910100E-16
5.210000E+03	4.439848E-15	1.886120E-16
5.220000E+03	4.375925E-15	1.862089E-16
5.230000E+03	4.312140E-15	1.838125E-16
5.240000E+03	4.248947E-15	1.814419E-16
5.250000E+03	4.186742E-15	1.791139E-16
5.260000E+03	4.125901E-15	1.768445E-16
5.270000E+03	4.066697E-15	1.746455E-16
5.280000E+03	4.009504E-15	1.725331E-16
5.290000E+03	3.954591E-15	1.705191E-16
5.300000E+03	3.902244E-15	1.686162E-16
5.310000E+03	3.852685E-15	1.668346E-16
5.320000E+03	3.806201E-15	1.651870E-16
5.330000E+03	3.762944E-15	1.636809E-16
5.340000E+03	3.723135E-15	1.623265E-16
5.350000E+03	3.686949E-15	1.611325E-16
5.360000E+03	3.654642E-15	1.601109E-16
5.370000E+03	3.626322E-15	1.592676E-16
5.380000E+03	3.602257E-15	1.586157E-16
5.390000E+03	3.582660E-15	1.581659E-16
5.400000E+03	3.567761E-15	1.579298E-16
5.410000E+03	3.557737E-15	1.579170E-16
5.420000E+03	3.552843E-15	1.581406E-16
5.430000E+03	3.553297E-15	1.586124E-16
5.440000E+03	3.559010E-15	1.593303E-16
5.450000E+03	3.569765E-15	1.602867E-16
5.460000E+03	3.585063E-15	1.614608E-16
5.470000E+03	3.604426E-15	1.628330E-16
5.480000E+03	3.627549E-15	1.643910E-16
5.490000E+03	3.653985E-15	1.661162E-16
5.500000E+03	3.683441E-15	1.679967E-16
5.510000E+03	3.715556E-15	1.700172E-16
5.520000E+03	3.750088E-15	1.721681E-16
5.530000E+03	3.786611E-15	1.744307E-16
5.540000E+03	3.824816E-15	1.767918E-16
5.550000E+03	3.864318E-15	1.792345E-16
5.560000E+03	3.904865E-15	1.817476E-16
5.570000E+03	3.946052E-15	1.843130E-16
5.580000E+03	3.987569E-15	1.869164E-16
5.590000E+03	4.029087E-15	1.895426E-16
5.600000E+03	4.070378E-15	1.921810E-16
5.610000E+03	4.111120E-15	1.948161E-16
5.620000E+03	4.151102E-15	1.974377E-16
5.630000E+03	4.190144E-15	2.000369E-16
5.640000E+03	4.228056E-15	2.026041E-16
5.650000E+03	4.264728E-15	2.051334E-16
5.660000E+03	4.299991E-15	2.076159E-16
5.670000E+03	4.333791E-15	2.100483E-16
5.680000E+03	4.366109E-15	2.124288E-16
5.690000E+03	4.396900E-15	2.147542E-16
5.700000E+03	4.426138E-15	2.170225E-16
5.710000E+03	4.453812E-15	2.192322E-16
5.720000E+03	4.480013E-15	2.213867E-16
5.730000E+03	4.504649E-15	2.234805E-16
5.740000E+03	4.527816E-15	2.255175E-16
5.750000E+03	4.549508E-15	2.274963E-16
5.760000E+03	4.569659E-15	2.294127E-16
5.770000E+03	4.588288E-15	2.312666E-16
5.780000E+03	4.605396E-15	2.330569E-16
5.790000E+03	4.620866E-15	2.347768E-16
5.800000E+03	4.634613E-15	2.364207E-16
5.810000E+03	4.646633E-15	2.379872E-16
5.820000E+03	4.656702E-15	2.394635E-16
5.830000E+03	4.664733E-15	2.408440E-16
5.840000E+03	4.670582E-15	2.421195E-16
5.850000E+03	4.674096E-15	2.432807E-16
5.860000E+03	4.675176E-15	2.443207E-16
5.870000E+03	4.673576E-15	2.452249E-16
5.880000E+03	4.669275E-15	2.459904E-16
5.890000E+03	4.662116E-15	2.466068E-16
5.900000E+03	4.652027E-15	2.470684E-16
5.910000E+03	4.638973E-15	2.473713E-16
5.920000E+03	4.622967E-15	2.475139E-16
5.930000E+03	4.604123E-15	2.475005E-16
5.940000E+03	4.582456E-15	2.473296E-16
5.950000E+03	4.558144E-15	2.470090E-16
5.960000E+03	4.531477E-15	2.465525E-16
5.970000E+03	4.502757E-15	2.459747E-16
5.980000E+03	4.472234E-15	2.452880E-16
5.990000E+03	4.440422E-15	2.445193E-16
6.000000E+03	4.407624E-15	2.436842E-16
6.010000E+03	4.374488E-15	2.428179E-16
6.020000E+03	4.341383E-15	2.419406E-16
6.030000E+03	4.308851E-15	2.410825E-16
6.040000E+03	4.277486E-15	2.402770E-16
6.050000E+03	4.247778E-15	2.395525E-16
6.060000E+03	4.220241E-15	2.389391E-16
6.070000E+03	4.195264E-15	2.384601E-16
6.080000E+03	4.173387E-15	2.381480E-16
6.090000E+03	4.154846E-15	2.380183E-16
6.100000E+03	4.140064E-15	2.380973E-16
6.110000E+03	4.129240E-15	2.383989E-16
6.120000E+03	4.122492E-15	2.389327E-16
6.130000E+03	4.119903E-15	2.397059E-16
6.140000E+03	4.121516E-15	2.407240E-16
6.150000E+03	4.127185E-15	2.419808E-16
6.160000E+03	4.136719E-15	2.434681E-16
6.170000E+03	4.149947E-15	2.451780E-16
6.180000E+03	4.166402E-15	2.470854E-16
6.190000E+03	4.185697E-15	2.491692E-16
6.200000E+03	4.207379E-15	2.514043E-16
6.210000E+03	4.230936E-15	2.537614E-16
6.220000E+03	4.255706E-15	2.562018E-16
6.230000E+03	4.281048E-15	2.586877E-16
6.240000E+03	4.306366E-15	2.611830E-16
6.250000E+03	4.330956E-15	2.636449E-16
6.260000E+03	4.354246E-15	2.660378E-16
6.270000E+03	4.375651E-15	2.683249E-16
6.280000E+03	4.394696E-15	2.704756E-16
6.290000E+03	4.410925E-15	2.724600E-16
6.300000E+03	4.423959E-15	2.742528E-16
6.310000E+03	4.433576E-15	2.758379E-16
6.320000E+03	4.439653E-15	2.772051E-16
6.330000E+03	4.442045E-15	2.783431E-16
6.340000E+03	4.440833E-15	2.792544E-16
6.350000E+03	4.436192E-15	2.799475E-16
6.360000E+03	4.428263E-15	2.804290E-16
6.370000E+03	4.417453E-15	2.807226E-16
6.380000E+03	4.404108E-15	2.808483E-16
6.390000E+03	4.388627E-15	2.808300E-16
6.400000E+03	4.371441E-15	2.806939E-16
6.410000E+03	4.353127E-15	2.804759E-16
6.420000E+03	4.334071E-15	2.802003E-16
6.430000E+03	4.314828E-15	2.799026E-16
6.440000E+03	4.295797E-15	2.796085E-16
6.450000E+03	4.277323E-15	2.793407E-16
6.460000E+03	4.259759E-15	2.791227E-16
6.470000E+03	4.243325E-15	2.789695E-16
6.480000E+03	4.228239E-15	2.788962E-16
6.490000E+03	4.214459E-15	2.789008E-16
6.500000E+03	4.202142E-15	2.789947E-16
6.510000E+03	4.191265E-15	2.791773E-16
6.520000E+03	4.181701E-15	2.794408E-16
6.530000E+03	4.173419E-15	2.797842E-16
6.540000E+03	4.166307E-15	2.802005E-16
6.550000E+03	4.160235E-15	2.806820E-16
6.560000E+03	4.155072E-15	2.812201E-16
6.570000E+03	4.150749E-15	2.818109E-16
6.580000E+03	4.147071E-15	2.824416E-16
6.590000E+03	4.143917E-15	2.831043E-16
6.600000E+03	4.141241E-15	2.837962E-16
6.610000E+03	4.138945E-15	2.845107E-16
6.620000E+03	4.136873E-15	2.852373E-16
6.630000E+03	4.135018E-15	2.859758E-16
6.640000E+03	4.133249E-15	2.867170E-16
6.650000E+03	4.131656E-15	2.874673E-16
6.660000E+03	4.130063E-15	2.882145E-16
6.670000E+03	4.128442E-15	2.889566E-16
6.680000E+03	4.126846E-15	2.896973E-16
6.690000E+03	4.125265E-15	2.904359E-16
6.700000E+03	4.123628E-15	2.911674E-16
6.710000E+03	4.121936E-15	2.918917E-16
6.720000E+03	4.120270E-15	2.926145E-16
6.730000E+03	4.118567E-15	2.933315E-16
6.740000E+03	4.116914E-15	2.940487E-16
6.750000E+03	4.115175E-15	2.947564E-16
6.760000E+03	4.113511E-15	2.954661E-16
6.770000E+03	4.111784E-15	2.961680E-16
6.780000E+03	4.110152E-15	2.968732E-16
6.790000E+03	4.108472E-15	2.975717E-16
6.800000E+03	4.106822E-15	2.982690E-16
6.810000E+03	4.105203E-15	2.989650E-16
6.820000E+03	4.103538E-15	2.996543E-16
6.830000E+03	4.101894E-15	3.003417E-16
6.840000E+03	4.100188E-15	3.010211E-16
6.850000E+03	4.098482E-15	3.016971E-16
6.860000E+03	4.096610E-15	3.023573E-16
6.870000E+03	4.094707E-15	3.030117E-16
6.880000E+03	4.092677E-15	3.036530E-16
6.890000E+03	4.090499E-15	3.042797E-16
6.900000E+03	4.088073E-15	3.048842E-16
6.910000E+03	4.085530E-15	3.054761E-16
6.920000E+03	4.082612E-15	3.060360E-16
6.930000E+03	4.079527E-15	3.065795E-16
6.940000E+03	4.076095E-15	3.070927E-16
6.950000E+03	4.072291E-15	3.075735E-16
6.960000E+03	4.068166E-15	3.080258E-16
6.970000E+03	4.063620E-15	3.084416E-16
6.980000E+03	4.058628E-15	3.088189E-16
6.990000E+03	4.053169E-15	3.091557E-16
7.000000E+03	4.047220E-15	3.094502E-16
7.010000E+03	4.040761E-15	3.097004E-16
7.020000E+03	4.033696E-15	3.098988E-16
7.030000E+03	4.026167E-15	3.100558E-16
7.040000E+03	4.017922E-15	3.101520E-16
7.050000E+03	4.009187E-15	3.102043E-16
7.060000E+03	3.999716E-15	3.101934E-16
7.070000E+03	3.989662E-15	3.101308E-16
7.080000E+03	3.978942E-15	3.100099E-16
7.090000E+03	3.967557E-15	3.098302E-16
7.100000E+03	3.955591E-15	3.095981E-16
7.110000E+03	3.942894E-15	3.093015E-16
7.120000E+03	3.929557E-15	3.089472E-16
7.130000E+03	3.915518E-15	3.085300E-16
7.140000E+03	3.900877E-15	3.080574E-16
7.150000E+03	3.885660E-15	3.075313E-16
7.160000E+03	3.869817E-15	3.069473E-16
7.170000E+03	3.853461E-15	3.063142E-16
7.180000E+03	3.836473E-15	3.056224E-16
7.190000E+03	3.819053E-15	3.048873E-16
7.200000E+03	3.801167E-15	3.041062E-16
7.210000E+03	3.782789E-15	3.032768E-16
7.220000E+03	3.764048E-15	3.024092E-16
7.230000E+03	3.745001E-15	3.015078E-16
7.240000E+03	3.725627E-15	3.005709E-16
7.250000E+03	3.705988E-15	2.996033E-16
7.260000E+03	3.686144E-15	2.986100E-16
7.270000E+03	3.666160E-15	2.975959E-16
7.280000E+03	3.646098E-15	2.965662E-16
7.290000E+03	3.625870E-15	2.955136E-16
7.300000E+03	3.605690E-15	2.944558E-16
7.310000E+03	3.585545E-15	2.933916E-16
7.320000E+03	3.565420E-15	2.923198E-16
7.330000E+03	3.545448E-15	2.912515E-16
7.340000E+03	3.525536E-15	2.901791E-16
7.350000E+03	3.505736E-15	2.891071E-16
7.360000E+03	3.486098E-15	2.880395E-16
7.370000E+03	3.466591E-15	2.869740E-16
7.380000E+03	3.447327E-15	2.859201E-16
7.390000E+03	3.428123E-15	2.848625E-16
7.400000E+03	3.409149E-15	2.838156E-16
7.410000E+03	3.390282E-15	2.827693E-16
7.420000E+03	3.371606E-15	2.817306E-16
7.430000E+03	3.353056E-15	2.806942E-16
7.440000E+03	3.334627E-15	2.796599E-16
7.450000E+03	3.316379E-15	2.786328E-16
7.460000E+03	3.298222E-15	2.776054E-16
7.470000E+03	3.280339E-15	2.765932E-16
7.480000E+03	3.262551E-15	2.755813E-16
7.490000E+03	3.244956E-15	2.745781E-16
7.500000E+03	3.227430E-15	2.735732E-16
7.510000E+03	3.210125E-15	2.725795E-16
7.520000E+03	3.192908E-15	2.715860E-16
7.530000E+03	3.175710E-15	2.705866E-16
7.540000E+03	3.158528E-15	2.695814E-16
7.550000E+03	3.141288E-15	2.685641E-16
7.560000E+03	3.124052E-15	2.675398E-16
7.570000E+03	3.106608E-15	2.664905E-16
7.580000E+03	3.088948E-15	2.654155E-16
7.590000E+03	3.071070E-15	2.643145E-16
7.600000E+03	3.052836E-15	2.631757E-16
7.610000E+03	3.034250E-15	2.619991E-16
7.620000E+03	3.015185E-15	2.607738E-16
7.630000E+03	2.995722E-15	2.595065E-16
7.640000E+03	2.975678E-15	2.581814E-16
7.650000E+03	2.955146E-15	2.568063E-16
7.660000E+03	2.933958E-15	2.553664E-16
7.670000E+03	2.912222E-15	2.538708E-16
7.680000E+03	2.889783E-15	2.523060E-16
7.690000E+03	2.866761E-15	2.506822E-16
7.700000E+03	2.843084E-15	2.489928E-16
7.710000E+03	2.818754E-15	2.472378E-16
7.720000E+03	2.793777E-15	2.454177E-16
7.730000E+03	2.768170E-15	2.435336E-16
7.740000E+03	2.741952E-15	2.415870E-16
7.750000E+03	2.715089E-15	2.395748E-16
7.760000E+03	2.687741E-15	2.375109E-16
