#wls	flux	fluxerr
1.600000E+03	5.969404E-15	1.524861E-16
1.640000E+03	5.692691E-15	1.431473E-16
1.680000E+03	5.398110E-15	1.335762E-16
1.720000E+03	5.088702E-15	1.238723E-16
1.760000E+03	4.765180E-15	1.140742E-16
1.800000E+03	4.429784E-15	1.042550E-16
1.840000E+03	4.085590E-15	9.450318E-17
1.880000E+03	3.735444E-15	8.489627E-17
1.920000E+03	3.383137E-15	7.552775E-17
1.960000E+03	3.032894E-15	6.649366E-17
2.000000E+03	2.688781E-15	5.787903E-17
2.040000E+03	2.355471E-15	4.977450E-17
2.080000E+03	2.036700E-15	4.224305E-17
2.120000E+03	1.744969E-15	3.551963E-17
2.160000E+03	1.509980E-15	3.016324E-17
2.200000E+03	1.350082E-15	2.646602E-17
2.240000E+03	1.272316E-15	2.447744E-17
2.280000E+03	1.282421E-15	2.421544E-17
2.320000E+03	1.387513E-15	2.571981E-17
2.360000E+03	1.602158E-15	2.916184E-17
2.400000E+03	1.953403E-15	3.492391E-17
2.440000E+03	2.481645E-15	4.359606E-17
2.480000E+03	3.238044E-15	5.591309E-17
2.520000E+03	4.275600E-15	7.259153E-17
2.560000E+03	5.634866E-15	9.409205E-17
2.600000E+03	7.321150E-15	1.202647E-16
2.640000E+03	9.278028E-15	1.499681E-16
2.680000E+03	1.140218E-14	1.813830E-16
2.720000E+03	1.356205E-14	2.123574E-16
2.760000E+03	1.561008E-14	2.406221E-16
2.800000E+03	1.741816E-14	2.643407E-16
2.840000E+03	1.890048E-14	2.824219E-16
2.880000E+03	2.002016E-14	2.945645E-16
2.920000E+03	2.078885E-14	3.011946E-16
2.960000E+03	2.125649E-14	3.032657E-16
3.000000E+03	2.149828E-14	3.020360E-16
3.010000E+03	2.153358E-14	3.013723E-16
3.020000E+03	2.156178E-14	3.006105E-16
3.030000E+03	2.158429E-14	2.997714E-16
3.040000E+03	2.160295E-14	2.988815E-16
3.050000E+03	2.161869E-14	2.979539E-16
3.060000E+03	2.163289E-14	2.970079E-16
3.070000E+03	2.164785E-14	2.960749E-16
3.080000E+03	2.166405E-14	2.951609E-16
3.090000E+03	2.168373E-14	2.942959E-16
3.100000E+03	2.170782E-14	2.934915E-16
3.110000E+03	2.173766E-14	2.927648E-16
3.120000E+03	2.177549E-14	2.921446E-16
3.130000E+03	2.182175E-14	2.916355E-16
3.140000E+03	2.187827E-14	2.912600E-16
3.150000E+03	2.194639E-14	2.910341E-16
3.160000E+03	2.202790E-14	2.909794E-16
3.170000E+03	2.212376E-14	2.911063E-16
3.180000E+03	2.223583E-14	2.914365E-16
3.190000E+03	2.236553E-14	2.919860E-16
3.200000E+03	2.251395E-14	2.927659E-16
3.210000E+03	2.268304E-14	2.937985E-16
3.220000E+03	2.287478E-14	2.951058E-16
3.230000E+03	2.309003E-14	2.966951E-16
3.240000E+03	2.333134E-14	2.985952E-16
3.250000E+03	2.359970E-14	3.008147E-16
3.260000E+03	2.389823E-14	3.033886E-16
3.270000E+03	2.422776E-14	3.063225E-16
3.280000E+03	2.459080E-14	3.096431E-16
3.290000E+03	2.499001E-14	3.133783E-16
3.300000E+03	2.542739E-14	3.175472E-16
3.310000E+03	2.590587E-14	3.221802E-16
3.320000E+03	2.642732E-14	3.272938E-16
3.330000E+03	2.699498E-14	3.329208E-16
3.340000E+03	2.761183E-14	3.390907E-16
3.350000E+03	2.828096E-14	3.458332E-16
3.360000E+03	2.900563E-14	3.531794E-16
3.370000E+03	2.978868E-14	3.611549E-16
3.380000E+03	3.063337E-14	3.697896E-16
3.390000E+03	3.154283E-14	3.791111E-16
3.400000E+03	3.251988E-14	3.891427E-16
3.410000E+03	3.356637E-14	3.998953E-16
3.420000E+03	3.468361E-14	4.113734E-16
3.430000E+03	3.587148E-14	4.235639E-16
3.440000E+03	3.712725E-14	4.364232E-16
3.450000E+03	3.844569E-14	4.498790E-16
3.460000E+03	3.981806E-14	4.638193E-16
3.470000E+03	4.123117E-14	4.780822E-16
3.480000E+03	4.267208E-14	4.925115E-16
3.490000E+03	4.412794E-14	5.069550E-16
3.500000E+03	4.558544E-14	5.212580E-16
3.510000E+03	4.702848E-14	5.352367E-16
3.520000E+03	4.843517E-14	5.486456E-16
3.530000E+03	4.977985E-14	5.612009E-16
3.540000E+03	5.103174E-14	5.725669E-16
3.550000E+03	5.215668E-14	5.823760E-16
3.560000E+03	5.311864E-14	5.902473E-16
3.570000E+03	5.388184E-14	5.958105E-16
3.580000E+03	5.441251E-14	5.987253E-16
3.590000E+03	5.468293E-14	5.987254E-16
3.600000E+03	5.467138E-14	5.956155E-16
3.610000E+03	5.436611E-14	5.893141E-16
3.620000E+03	5.376394E-14	5.798345E-16
3.630000E+03	5.287507E-14	5.673349E-16
3.640000E+03	5.171822E-14	5.520627E-16
3.650000E+03	5.032535E-14	5.344019E-16
3.660000E+03	4.873712E-14	5.148216E-16
3.670000E+03	4.700329E-14	4.938781E-16
3.680000E+03	4.517790E-14	4.721617E-16
3.690000E+03	4.331945E-14	4.502966E-16
3.700000E+03	4.148574E-14	4.288871E-16
3.710000E+03	3.973314E-14	4.085098E-16
3.720000E+03	3.811282E-14	3.896753E-16
3.730000E+03	3.667142E-14	3.728360E-16
3.740000E+03	3.544800E-14	3.583572E-16
3.750000E+03	3.447729E-14	3.465512E-16
3.760000E+03	3.378840E-14	3.376660E-16
3.770000E+03	3.340722E-14	3.319101E-16
3.780000E+03	3.335691E-14	3.294591E-16
3.790000E+03	3.365992E-14	3.304753E-16
3.800000E+03	3.433674E-14	3.350968E-16
3.810000E+03	3.540730E-14	3.434504E-16
3.820000E+03	3.688812E-14	3.556252E-16
3.830000E+03	3.878973E-14	3.716488E-16
3.840000E+03	4.111279E-14	3.914515E-16
3.850000E+03	4.384267E-14	4.148189E-16
3.860000E+03	4.694571E-14	4.413608E-16
3.870000E+03	5.036307E-14	4.704596E-16
3.880000E+03	5.400854E-14	5.012583E-16
3.890000E+03	5.777102E-14	5.326910E-16
3.900000E+03	6.151870E-14	5.635293E-16
3.910000E+03	6.511011E-14	5.924892E-16
3.920000E+03	6.840616E-14	6.183429E-16
3.930000E+03	7.128806E-14	6.400788E-16
3.940000E+03	7.366766E-14	6.569882E-16
3.950000E+03	7.550080E-14	6.687734E-16
3.960000E+03	7.678734E-14	6.755348E-16
3.970000E+03	7.757075E-14	6.777543E-16
3.980000E+03	7.793060E-14	6.762160E-16
3.990000E+03	7.796716E-14	6.718636E-16
4.000000E+03	7.779149E-14	6.657082E-16
4.010000E+03	7.751080E-14	6.587023E-16
4.020000E+03	7.721949E-14	6.516640E-16
4.030000E+03	7.699058E-14	6.452104E-16
4.040000E+03	7.687238E-14	6.397359E-16
4.050000E+03	7.688852E-14	6.354199E-16
4.060000E+03	7.703895E-14	6.322425E-16
4.070000E+03	7.730142E-14	6.300036E-16
4.080000E+03	7.764102E-14	6.284063E-16
4.090000E+03	7.800916E-14	6.270517E-16
4.100000E+03	7.835454E-14	6.255311E-16
4.110000E+03	7.862407E-14	6.234326E-16
4.120000E+03	7.877048E-14	6.204018E-16
4.130000E+03	7.875396E-14	6.161522E-16
4.140000E+03	7.854485E-14	6.104840E-16
4.150000E+03	7.812436E-14	6.032862E-16
4.160000E+03	7.748443E-14	5.945332E-16
4.170000E+03	7.662755E-14	5.842792E-16
4.180000E+03	7.556436E-14	5.726388E-16
4.190000E+03	7.431276E-14	5.597770E-16
4.200000E+03	7.289812E-14	5.459098E-16
4.210000E+03	7.135170E-14	5.312910E-16
4.220000E+03	6.971017E-14	5.162075E-16
4.230000E+03	6.801245E-14	5.009548E-16
4.240000E+03	6.629981E-14	4.858392E-16
4.250000E+03	6.461300E-14	4.711552E-16
4.260000E+03	6.299192E-14	4.571858E-16
4.270000E+03	6.147159E-14	4.441726E-16
4.280000E+03	6.008196E-14	4.323172E-16
4.290000E+03	5.884568E-14	4.217659E-16
4.300000E+03	5.777575E-14	4.125951E-16
4.310000E+03	5.687755E-14	4.048271E-16
4.320000E+03	5.614466E-14	3.984017E-16
4.330000E+03	5.556192E-14	3.931981E-16
4.340000E+03	5.510476E-14	3.890315E-16
4.350000E+03	5.474341E-14	3.856836E-16
4.360000E+03	5.444395E-14	3.829099E-16
4.370000E+03	5.418311E-14	3.805403E-16
4.380000E+03	5.395193E-14	3.785046E-16
4.390000E+03	5.374786E-14	3.767780E-16
4.400000E+03	5.356709E-14	3.753275E-16
4.410000E+03	5.340588E-14	3.741207E-16
4.420000E+03	5.327673E-14	3.732392E-16
4.430000E+03	5.322083E-14	3.729661E-16
4.440000E+03	5.329506E-14	3.736955E-16
4.450000E+03	5.354707E-14	3.757585E-16
4.460000E+03	5.400797E-14	3.793728E-16
4.470000E+03	5.469049E-14	3.846291E-16
4.480000E+03	5.558552E-14	3.914666E-16
4.490000E+03	5.666783E-14	3.997118E-16
4.500000E+03	5.789200E-14	4.090485E-16
4.510000E+03	5.920043E-14	4.190728E-16
4.520000E+03	6.052291E-14	4.292886E-16
4.530000E+03	6.178392E-14	4.391580E-16
4.540000E+03	6.290832E-14	4.481406E-16
4.550000E+03	6.382618E-14	4.557278E-16
4.560000E+03	6.448134E-14	4.615040E-16
4.570000E+03	6.483045E-14	4.651405E-16
4.580000E+03	6.484822E-14	4.664347E-16
4.590000E+03	6.452662E-14	4.653058E-16
4.600000E+03	6.387383E-14	4.617892E-16
4.610000E+03	6.291135E-14	4.560170E-16
4.620000E+03	6.167238E-14	4.482081E-16
4.630000E+03	6.019948E-14	4.386521E-16
4.640000E+03	5.854084E-14	4.276835E-16
4.650000E+03	5.674725E-14	4.156602E-16
4.660000E+03	5.486814E-14	4.029346E-16
4.670000E+03	5.295152E-14	3.898526E-16
4.680000E+03	5.103928E-14	3.767196E-16
4.690000E+03	4.916682E-14	3.637964E-16
4.700000E+03	4.736247E-14	3.512946E-16
4.710000E+03	4.564668E-14	3.393695E-16
4.720000E+03	4.403279E-14	3.281250E-16
4.730000E+03	4.252775E-14	3.176186E-16
4.740000E+03	4.113327E-14	3.078690E-16
4.750000E+03	3.984698E-14	2.988643E-16
4.760000E+03	3.866351E-14	2.905699E-16
4.770000E+03	3.757581E-14	2.829383E-16
4.780000E+03	3.657593E-14	2.759145E-16
4.790000E+03	3.565693E-14	2.694506E-16
4.800000E+03	3.481206E-14	2.634995E-16
4.810000E+03	3.403784E-14	2.580389E-16
4.820000E+03	3.333162E-14	2.530517E-16
4.830000E+03	3.269384E-14	2.485447E-16
4.840000E+03	3.212635E-14	2.445348E-16
4.850000E+03	3.163131E-14	2.410416E-16
4.860000E+03	3.121200E-14	2.380925E-16
4.870000E+03	3.086918E-14	2.356959E-16
4.880000E+03	3.060166E-14	2.338448E-16
4.890000E+03	3.040417E-14	2.325010E-16
4.900000E+03	3.027035E-14	2.316172E-16
4.910000E+03	3.018983E-14	2.311151E-16
4.920000E+03	3.015176E-14	2.309126E-16
4.930000E+03	3.014492E-14	2.309241E-16
4.940000E+03	3.016031E-14	2.310810E-16
4.950000E+03	3.019094E-14	2.313301E-16
4.960000E+03	3.023472E-14	2.316554E-16
4.970000E+03	3.029424E-14	2.320770E-16
4.980000E+03	3.037552E-14	2.326413E-16
4.990000E+03	3.048881E-14	2.334265E-16
5.000000E+03	3.064717E-14	2.345329E-16
5.010000E+03	3.086458E-14	2.360671E-16
5.020000E+03	3.115388E-14	2.381264E-16
5.030000E+03	3.152682E-14	2.407996E-16
5.040000E+03	3.199193E-14	2.441504E-16
5.050000E+03	3.255375E-14	2.482116E-16
5.060000E+03	3.321150E-14	2.529750E-16
5.070000E+03	3.395961E-14	2.583958E-16
5.080000E+03	3.478760E-14	2.643919E-16
5.090000E+03	3.567838E-14	2.708312E-16
5.100000E+03	3.661043E-14	2.775487E-16
5.110000E+03	3.755634E-14	2.843357E-16
5.120000E+03	3.848423E-14	2.909509E-16
5.130000E+03	3.935865E-14	2.971277E-16
5.140000E+03	4.014236E-14	3.025878E-16
5.150000E+03	4.079778E-14	3.070524E-16
5.160000E+03	4.129030E-14	3.102676E-16
5.170000E+03	4.158845E-14	3.120044E-16
5.180000E+03	4.166828E-14	3.120924E-16
5.190000E+03	4.151321E-14	3.104179E-16
5.200000E+03	4.111667E-14	3.069427E-16
5.210000E+03	4.048282E-14	3.017091E-16
5.220000E+03	3.962746E-14	2.948456E-16
5.230000E+03	3.857772E-14	2.865640E-16
5.240000E+03	3.737356E-14	2.771697E-16
5.250000E+03	3.606227E-14	2.670199E-16
5.260000E+03	3.469983E-14	2.565332E-16
5.270000E+03	3.334406E-14	2.461394E-16
5.280000E+03	3.205245E-14	2.362624E-16
5.290000E+03	3.087631E-14	2.272782E-16
5.300000E+03	2.985886E-14	2.195012E-16
5.310000E+03	2.903350E-14	2.131723E-16
5.320000E+03	2.842053E-14	2.084356E-16
5.330000E+03	2.802811E-14	2.053460E-16
5.340000E+03	2.785094E-14	2.038609E-16
5.350000E+03	2.786983E-14	2.038369E-16
5.360000E+03	2.805074E-14	2.050239E-16
5.370000E+03	2.834625E-14	2.070754E-16
5.380000E+03	2.869797E-14	2.095667E-16
5.390000E+03	2.903878E-14	2.120103E-16
5.400000E+03	2.929910E-14	2.139014E-16
5.410000E+03	2.941252E-14	2.147580E-16
5.420000E+03	2.932457E-14	2.141838E-16
5.430000E+03	2.899989E-14	2.119179E-16
5.440000E+03	2.843726E-14	2.079461E-16
5.450000E+03	2.768190E-14	2.025926E-16
5.460000E+03	2.682967E-14	1.965521E-16
5.470000E+03	2.599580E-14	1.906633E-16
5.480000E+03	2.528246E-14	1.856729E-16
5.490000E+03	2.476777E-14	1.821554E-16
5.500000E+03	2.450281E-14	1.804905E-16
5.510000E+03	2.451331E-14	1.808749E-16
5.520000E+03	2.480254E-14	1.833418E-16
5.530000E+03	2.535737E-14	1.878048E-16
5.540000E+03	2.614591E-14	1.940388E-16
5.550000E+03	2.712157E-14	2.017084E-16
5.560000E+03	2.822589E-14	2.103876E-16
5.570000E+03	2.939212E-14	2.195850E-16
5.580000E+03	3.054950E-14	2.287749E-16
5.590000E+03	3.163251E-14	2.374658E-16
5.600000E+03	3.258832E-14	2.452562E-16
5.610000E+03	3.337934E-14	2.518557E-16
5.620000E+03	3.398358E-14	2.570878E-16
5.630000E+03	3.439444E-14	2.608912E-16
5.640000E+03	3.461637E-14	2.632870E-16
5.650000E+03	3.466285E-14	2.643653E-16
5.660000E+03	3.455205E-14	2.642532E-16
5.670000E+03	3.430497E-14	2.631002E-16
5.680000E+03	3.394252E-14	2.610574E-16
5.690000E+03	3.348477E-14	2.582706E-16
5.700000E+03	3.295133E-14	2.548841E-16
5.710000E+03	3.236160E-14	2.510425E-16
5.720000E+03	3.173460E-14	2.468887E-16
5.730000E+03	3.109030E-14	2.425752E-16
5.740000E+03	3.044862E-14	2.382559E-16
5.750000E+03	2.982938E-14	2.340858E-16
5.760000E+03	2.925209E-14	2.302194E-16
5.770000E+03	2.873304E-14	2.267875E-16
5.780000E+03	2.828711E-14	2.239116E-16
5.790000E+03	2.792485E-14	2.216800E-16
5.800000E+03	2.765316E-14	2.201532E-16
5.810000E+03	2.747404E-14	2.193530E-16
5.820000E+03	2.738523E-14	2.192676E-16
5.830000E+03	2.738093E-14	2.198566E-16
5.840000E+03	2.745141E-14	2.210473E-16
5.850000E+03	2.758526E-14	2.227526E-16
5.860000E+03	2.776981E-14	2.248744E-16
5.870000E+03	2.799226E-14	2.273123E-16
5.880000E+03	2.824135E-14	2.299774E-16
5.890000E+03	2.850584E-14	2.327798E-16
5.900000E+03	2.877705E-14	2.356500E-16
5.910000E+03	2.904604E-14	2.385152E-16
5.920000E+03	2.930360E-14	2.412999E-16
5.930000E+03	2.953921E-14	2.439169E-16
5.940000E+03	2.973864E-14	2.462474E-16
5.950000E+03	2.988476E-14	2.481472E-16
5.960000E+03	2.995592E-14	2.494331E-16
5.970000E+03	2.992506E-14	2.498745E-16
5.980000E+03	2.976251E-14	2.492163E-16
5.990000E+03	2.943632E-14	2.471818E-16
6.000000E+03	2.891602E-14	2.435033E-16
6.010000E+03	2.817791E-14	2.379671E-16
6.020000E+03	2.720969E-14	2.304536E-16
6.030000E+03	2.601527E-14	2.209791E-16
6.040000E+03	2.461944E-14	2.097379E-16
6.050000E+03	2.306734E-14	1.970998E-16
6.060000E+03	2.141708E-14	1.835501E-16
6.070000E+03	1.973409E-14	1.696424E-16
6.080000E+03	1.808125E-14	1.559150E-16
6.090000E+03	1.651494E-14	1.428561E-16
6.100000E+03	1.507893E-14	1.308509E-16
6.110000E+03	1.380533E-14	1.201880E-16
6.120000E+03	1.271395E-14	1.110526E-16
6.130000E+03	1.181576E-14	1.035548E-16
6.140000E+03	1.111486E-14	9.774671E-17
6.150000E+03	1.061178E-14	9.364964E-17
6.160000E+03	1.030579E-14	9.127476E-17
6.170000E+03	1.019604E-14	9.063283E-17
6.180000E+03	1.028324E-14	9.174964E-17
6.190000E+03	1.056849E-14	9.465504E-17
6.200000E+03	1.105175E-14	9.937029E-17
6.210000E+03	1.173095E-14	1.058991E-16
6.220000E+03	1.260076E-14	1.142171E-16
6.230000E+03	1.364942E-14	1.242413E-16
6.240000E+03	1.485649E-14	1.358090E-16
6.250000E+03	1.619102E-14	1.486592E-16
6.260000E+03	1.761157E-14	1.624303E-16
6.270000E+03	1.906647E-14	1.766593E-16
6.280000E+03	2.049902E-14	1.908273E-16
6.290000E+03	2.185326E-14	2.044118E-16
6.300000E+03	2.307848E-14	2.169290E-16
6.310000E+03	2.413308E-14	2.279710E-16
6.320000E+03	2.498768E-14	2.372370E-16
6.330000E+03	2.562663E-14	2.445504E-16
6.340000E+03	2.604501E-14	2.498330E-16
6.350000E+03	2.624828E-14	2.531045E-16
6.360000E+03	2.624931E-14	2.544565E-16
6.370000E+03	2.606662E-14	2.540374E-16
6.380000E+03	2.572273E-14	2.520376E-16
6.390000E+03	2.524364E-14	2.486860E-16
6.400000E+03	2.465891E-14	2.442518E-16
6.410000E+03	2.400122E-14	2.390415E-16
6.420000E+03	2.330686E-14	2.334042E-16
6.430000E+03	2.261445E-14	2.277210E-16
6.440000E+03	2.196479E-14	2.224032E-16
6.450000E+03	2.139723E-14	2.178571E-16
6.460000E+03	2.094230E-14	2.144073E-16
6.470000E+03	2.060740E-14	2.121480E-16
6.480000E+03	2.037208E-14	2.108867E-16
6.490000E+03	2.020814E-14	2.103458E-16
6.500000E+03	2.008918E-14	2.102605E-16
6.510000E+03	1.999414E-14	2.104162E-16
6.520000E+03	1.990542E-14	2.106297E-16
6.530000E+03	1.981040E-14	2.107673E-16
6.540000E+03	1.969963E-14	2.107259E-16
6.550000E+03	1.956743E-14	2.104412E-16
6.560000E+03	1.941089E-14	2.098771E-16
6.570000E+03	1.922839E-14	2.090114E-16
6.580000E+03	1.902097E-14	2.078503E-16
6.590000E+03	1.879094E-14	2.064143E-16
6.600000E+03	1.854064E-14	2.047248E-16
6.610000E+03	1.827407E-14	2.028225E-16
6.620000E+03	1.799426E-14	2.007379E-16
6.630000E+03	1.770539E-14	1.985154E-16
6.640000E+03	1.741025E-14	1.961845E-16
6.650000E+03	1.711217E-14	1.937817E-16
6.660000E+03	1.681375E-14	1.913361E-16
6.670000E+03	1.651694E-14	1.888695E-16
6.680000E+03	1.622376E-14	1.864055E-16
6.690000E+03	1.593532E-14	1.839575E-16
6.700000E+03	1.565269E-14	1.815385E-16
6.710000E+03	1.537695E-14	1.791623E-16
6.720000E+03	1.510847E-14	1.768342E-16
6.730000E+03	1.484756E-14	1.745592E-16
6.740000E+03	1.459529E-14	1.723510E-16
6.750000E+03	1.435170E-14	1.702118E-16
6.760000E+03	1.411767E-14	1.681534E-16
6.770000E+03	1.389382E-14	1.661850E-16
6.780000E+03	1.368055E-14	1.643128E-16
6.790000E+03	1.347836E-14	1.625448E-16
6.800000E+03	1.328764E-14	1.608874E-16
6.810000E+03	1.310880E-14	1.593474E-16
6.820000E+03	1.294156E-14	1.579232E-16
6.830000E+03	1.278535E-14	1.566099E-16
6.840000E+03	1.263991E-14	1.554057E-16
6.850000E+03	1.250456E-14	1.543037E-16
6.860000E+03	1.237845E-14	1.532953E-16
6.870000E+03	1.226049E-14	1.523679E-16
6.880000E+03	1.214982E-14	1.515123E-16
6.890000E+03	1.204588E-14	1.507222E-16
6.900000E+03	1.194771E-14	1.499869E-16
6.910000E+03	1.185469E-14	1.492991E-16
6.920000E+03	1.176625E-14	1.486525E-16
6.930000E+03	1.168190E-14	1.480416E-16
6.940000E+03	1.160121E-14	1.474614E-16
6.950000E+03	1.152378E-14	1.469074E-16
6.960000E+03	1.144902E-14	1.463724E-16
6.970000E+03	1.137657E-14	1.458524E-16
6.980000E+03	1.130634E-14	1.453465E-16
6.990000E+03	1.123807E-14	1.448517E-16
7.000000E+03	1.117108E-14	1.443596E-16
7.010000E+03	1.110568E-14	1.438744E-16
7.020000E+03	1.104155E-14	1.433925E-16
7.030000E+03	1.097871E-14	1.429139E-16
7.040000E+03	1.091697E-14	1.424368E-16
7.050000E+03	1.085664E-14	1.419655E-16
7.060000E+03	1.079786E-14	1.415017E-16
7.070000E+03	1.074073E-14	1.410474E-16
7.080000E+03	1.068517E-14	1.406018E-16
7.090000E+03	1.063123E-14	1.401657E-16
7.100000E+03	1.057912E-14	1.397421E-16
7.110000E+03	1.052851E-14	1.393272E-16
7.120000E+03	1.047899E-14	1.389156E-16
7.130000E+03	1.043069E-14	1.385093E-16
7.140000E+03	1.038301E-14	1.381005E-16
7.150000E+03	1.033545E-14	1.376830E-16
7.160000E+03	1.028727E-14	1.372468E-16
7.170000E+03	1.023805E-14	1.367868E-16
7.180000E+03	1.018715E-14	1.362942E-16
7.190000E+03	1.013367E-14	1.357571E-16
7.200000E+03	1.007691E-14	1.351664E-16
7.210000E+03	1.001635E-14	1.345150E-16
7.220000E+03	9.951043E-15	1.337903E-16
7.230000E+03	9.880245E-15	1.329822E-16
7.240000E+03	9.803215E-15	1.320808E-16
7.250000E+03	9.719219E-15	1.310762E-16
7.260000E+03	9.627356E-15	1.299563E-16
7.270000E+03	9.527395E-15	1.287181E-16
7.280000E+03	9.418583E-15	1.273512E-16
7.290000E+03	9.300097E-15	1.258448E-16
7.300000E+03	9.172270E-15	1.242033E-16
7.310000E+03	9.034451E-15	1.224180E-16
7.320000E+03	8.887183E-15	1.204965E-16
7.330000E+03	8.730672E-15	1.184418E-16
7.340000E+03	8.565565E-15	1.162628E-16
7.350000E+03	8.392579E-15	1.139696E-16
7.360000E+03	8.212851E-15	1.115778E-16
7.370000E+03	8.027737E-15	1.091063E-16
7.380000E+03	7.838766E-15	1.065762E-16
7.390000E+03	7.647284E-15	1.040062E-16
7.400000E+03	7.455253E-15	1.014235E-16
7.410000E+03	7.264226E-15	9.884950E-17
7.420000E+03	7.076000E-15	9.630921E-17
7.430000E+03	6.892411E-15	9.382806E-17
7.440000E+03	6.715603E-15	9.143563E-17
7.450000E+03	6.547534E-15	8.915901E-17
7.460000E+03	6.390377E-15	8.702818E-17
7.470000E+03	6.246162E-15	8.507119E-17
7.480000E+03	6.116319E-15	8.330784E-17
7.490000E+03	6.002329E-15	8.175862E-17
7.500000E+03	5.905529E-15	8.044203E-17
7.510000E+03	5.826376E-15	7.936455E-17
7.520000E+03	5.765473E-15	7.853462E-17
7.530000E+03	5.722788E-15	7.795203E-17
7.540000E+03	5.697928E-15	7.761158E-17
7.550000E+03	5.690133E-15	7.750312E-17
7.560000E+03	5.698338E-15	7.761231E-17
7.570000E+03	5.721373E-15	7.792338E-17
7.580000E+03	5.757607E-15	7.841430E-17
7.590000E+03	5.805526E-15	7.906461E-17
7.600000E+03	5.863283E-15	7.984941E-17
7.610000E+03	5.929270E-15	8.074700E-17
7.620000E+03	6.001765E-15	8.173417E-17
7.630000E+03	6.078964E-15	8.278663E-17
7.640000E+03	6.159437E-15	8.388520E-17
7.650000E+03	6.241756E-15	8.501073E-17
7.660000E+03	6.324524E-15	8.614452E-17
7.670000E+03	6.406856E-15	8.727487E-17
7.680000E+03	6.487821E-15	8.838945E-17
7.690000E+03	6.567224E-15	8.948597E-17
7.700000E+03	6.644549E-15	9.055777E-17
7.710000E+03	6.720016E-15	9.160824E-17
7.720000E+03	6.793757E-15	9.263960E-17
7.730000E+03	6.866409E-15	9.366094E-17
7.740000E+03	6.938553E-15	9.468063E-17
7.750000E+03	7.010765E-15	9.570697E-17
7.760000E+03	7.083346E-15	9.674458E-17
