#wls	flux	fluxerr
1.600000E+03	3.375447E-15	1.588081E-16
1.640000E+03	3.264567E-15	1.508140E-16
1.680000E+03	3.145998E-15	1.426237E-16
1.720000E+03	3.019431E-15	1.342486E-16
1.760000E+03	2.884906E-15	1.257174E-16
1.800000E+03	2.742694E-15	1.170684E-16
1.840000E+03	2.592151E-15	1.083014E-16
1.880000E+03	2.433834E-15	9.946776E-17
1.920000E+03	2.267694E-15	9.059264E-17
1.960000E+03	2.094019E-15	8.171464E-17
2.000000E+03	1.913752E-15	7.289610E-17
2.040000E+03	1.729657E-15	6.426318E-17
2.080000E+03	1.547266E-15	5.603151E-17
2.120000E+03	1.378361E-15	4.861557E-17
2.160000E+03	1.242584E-15	4.265435E-17
2.200000E+03	1.157071E-15	3.862826E-17
2.240000E+03	1.136085E-15	3.685964E-17
2.280000E+03	1.195750E-15	3.767660E-17
2.320000E+03	1.354251E-15	4.141223E-17
2.360000E+03	1.638638E-15	4.859981E-17
2.400000E+03	2.094281E-15	6.020780E-17
2.440000E+03	2.788855E-15	7.767478E-17
2.480000E+03	3.811640E-15	1.027999E-16
2.520000E+03	5.259586E-15	1.372990E-16
2.560000E+03	7.200674E-15	1.818666E-16
2.600000E+03	9.602618E-15	2.345739E-16
2.640000E+03	1.227171E-14	2.898399E-16
2.680000E+03	1.496547E-14	3.416403E-16
2.720000E+03	1.751010E-14	3.862537E-16
2.760000E+03	1.977752E-14	4.214679E-16
2.800000E+03	2.168498E-14	4.463729E-16
2.840000E+03	2.319780E-14	4.612272E-16
2.880000E+03	2.432654E-14	4.672197E-16
2.920000E+03	2.511637E-14	4.661111E-16
2.960000E+03	2.564205E-14	4.600336E-16
3.000000E+03	2.599360E-14	4.511610E-16
3.010000E+03	2.606655E-14	4.487675E-16
3.020000E+03	2.613604E-14	4.463553E-16
3.030000E+03	2.620366E-14	4.439543E-16
3.040000E+03	2.627214E-14	4.416112E-16
3.050000E+03	2.634254E-14	4.393420E-16
3.060000E+03	2.641643E-14	4.371711E-16
3.070000E+03	2.649601E-14	4.351322E-16
3.080000E+03	2.658230E-14	4.332388E-16
3.090000E+03	2.667694E-14	4.315140E-16
3.100000E+03	2.678265E-14	4.299974E-16
3.110000E+03	2.689996E-14	4.286930E-16
3.120000E+03	2.703106E-14	4.276305E-16
3.130000E+03	2.717709E-14	4.268225E-16
3.140000E+03	2.734137E-14	4.263149E-16
3.150000E+03	2.752402E-14	4.261032E-16
3.160000E+03	2.772732E-14	4.262160E-16
3.170000E+03	2.795364E-14	4.266827E-16
3.180000E+03	2.820483E-14	4.275241E-16
3.190000E+03	2.848179E-14	4.287456E-16
3.200000E+03	2.878808E-14	4.303930E-16
3.210000E+03	2.912475E-14	4.324734E-16
3.220000E+03	2.949449E-14	4.350178E-16
3.230000E+03	2.989904E-14	4.380427E-16
3.240000E+03	3.034132E-14	4.415814E-16
3.250000E+03	3.082382E-14	4.456602E-16
3.260000E+03	3.134916E-14	4.503069E-16
3.270000E+03	3.191955E-14	4.555427E-16
3.280000E+03	3.253845E-14	4.614059E-16
3.290000E+03	3.320887E-14	4.679281E-16
3.300000E+03	3.393345E-14	4.751351E-16
3.310000E+03	3.471612E-14	4.830699E-16
3.320000E+03	3.555978E-14	4.917607E-16
3.330000E+03	3.646866E-14	5.012534E-16
3.340000E+03	3.744597E-14	5.115796E-16
3.350000E+03	3.849565E-14	5.227800E-16
3.360000E+03	3.962175E-14	5.348963E-16
3.370000E+03	4.082843E-14	5.479714E-16
3.380000E+03	4.211990E-14	5.620484E-16
3.390000E+03	4.349959E-14	5.771591E-16
3.400000E+03	4.497179E-14	5.933473E-16
3.410000E+03	4.653812E-14	6.106210E-16
3.420000E+03	4.820159E-14	6.290072E-16
3.430000E+03	4.996081E-14	6.484761E-16
3.440000E+03	5.181323E-14	6.689844E-16
3.450000E+03	5.375302E-14	6.904483E-16
3.460000E+03	5.576950E-14	7.127250E-16
3.470000E+03	5.784878E-14	7.356346E-16
3.478000E+03	4.999981E-14	6.333513E-16
3.479470E+03	5.032143E-14	6.369743E-16
3.480940E+03	5.064291E-14	6.405916E-16
3.482410E+03	5.095713E-14	6.441133E-16
3.483880E+03	5.129251E-14	6.478985E-16
3.485350E+03	5.165258E-14	6.519914E-16
3.486820E+03	5.201959E-14	6.561676E-16
3.488290E+03	5.239354E-14	6.604267E-16
3.489760E+03	5.278864E-14	6.649478E-16
3.491230E+03	5.321907E-14	6.699087E-16
3.492700E+03	5.368840E-14	6.753536E-16
3.494170E+03	5.413269E-14	6.804775E-16
3.495640E+03	5.458034E-14	6.856382E-16
3.497110E+03	5.502424E-14	6.907464E-16
3.498580E+03	5.548215E-14	6.960249E-16
3.500050E+03	5.595051E-14	7.014288E-16
3.501520E+03	5.641867E-14	7.068245E-16
3.502990E+03	5.688661E-14	7.122118E-16
3.504460E+03	5.738631E-14	7.179908E-16
3.505930E+03	5.787867E-14	7.236721E-16
3.507400E+03	5.836725E-14	7.293002E-16
3.508870E+03	5.884139E-14	7.347424E-16
3.510340E+03	5.931884E-14	7.402204E-16
3.511810E+03	5.982444E-14	7.460440E-16
3.513280E+03	6.032270E-14	7.517704E-16
3.514750E+03	6.083846E-14	7.577090E-16
3.516220E+03	6.134686E-14	7.635500E-16
3.517690E+03	6.186208E-14	7.694702E-16
3.519160E+03	6.242320E-14	7.759550E-16
3.520630E+03	6.299822E-14	7.826061E-16
3.522100E+03	6.353035E-14	7.887179E-16
3.523570E+03	6.404090E-14	7.945558E-16
3.525040E+03	6.455826E-14	8.004726E-16
3.526510E+03	6.510726E-14	8.067757E-16
3.527980E+03	6.564178E-14	8.128932E-16
3.529450E+03	6.618661E-14	8.191324E-16
3.530920E+03	6.672050E-14	8.252301E-16
3.532390E+03	6.726115E-14	8.314055E-16
3.533860E+03	6.781923E-14	8.377902E-16
3.535330E+03	6.836633E-14	8.440330E-16
3.536800E+03	6.889535E-14	8.500468E-16
3.538270E+03	6.942759E-14	8.560945E-16
3.539740E+03	6.995594E-14	8.620885E-16
3.541210E+03	7.043075E-14	8.674172E-16
3.542680E+03	7.090523E-14	8.727370E-16
3.544150E+03	7.139354E-14	8.782220E-16
3.545620E+03	7.185670E-14	8.833926E-16
3.547090E+03	7.228051E-14	8.880751E-16
3.548560E+03	7.269689E-14	8.926622E-16
3.550030E+03	7.312711E-14	8.974150E-16
3.551500E+03	7.352155E-14	9.017247E-16
3.552970E+03	7.385187E-14	9.052448E-16
3.554440E+03	7.412873E-14	9.081071E-16
3.555910E+03	7.439466E-14	9.108334E-16
3.557380E+03	7.460714E-14	9.129039E-16
3.558850E+03	7.481225E-14	9.148828E-16
3.560320E+03	7.502058E-14	9.169002E-16
3.561790E+03	7.515784E-14	9.180481E-16
3.563260E+03	7.525587E-14	9.187169E-16
3.564730E+03	7.533948E-14	9.192102E-16
3.566200E+03	7.539098E-14	9.193123E-16
3.567670E+03	7.543162E-14	9.192830E-16
3.569140E+03	7.544017E-14	9.188638E-16
3.570610E+03	7.543434E-14	9.182710E-16
3.572080E+03	7.540000E-14	9.173329E-16
3.573550E+03	7.534068E-14	9.160930E-16
3.575020E+03	7.525641E-14	9.145520E-16
3.576490E+03	7.513307E-14	9.125392E-16
3.577960E+03	7.502367E-14	9.106986E-16
3.579430E+03	7.492115E-14	9.089442E-16
3.580900E+03	7.479725E-14	9.069332E-16
3.582370E+03	7.463786E-14	9.044951E-16
3.583840E+03	7.445007E-14	9.017163E-16
3.585310E+03	7.424094E-14	8.986829E-16
3.586780E+03	7.406343E-14	8.960359E-16
3.588250E+03	7.392105E-14	8.938173E-16
3.589720E+03	7.373972E-14	8.911307E-16
3.591190E+03	7.352296E-14	8.880198E-16
3.592660E+03	7.331667E-14	8.850391E-16
3.594130E+03	7.309262E-14	8.818478E-16
3.595600E+03	7.286845E-14	8.786588E-16
3.597070E+03	7.260892E-14	8.750476E-16
3.598540E+03	7.238102E-14	8.718215E-16
3.600010E+03	7.218116E-14	8.689369E-16
3.601480E+03	7.199881E-14	8.662662E-16
3.602950E+03	7.179520E-14	8.633431E-16
3.604420E+03	7.157036E-14	8.601681E-16
3.605890E+03	7.137006E-14	8.572915E-16
3.607360E+03	7.120835E-14	8.548813E-16
3.608830E+03	7.106408E-14	8.526831E-16
3.610300E+03	7.086695E-14	8.498534E-16
3.611770E+03	7.064511E-14	8.467306E-16
3.613240E+03	7.046887E-14	8.441575E-16
3.614710E+03	7.031360E-14	8.418380E-16
3.616180E+03	7.018279E-14	8.398138E-16
3.617650E+03	7.004482E-14	8.377059E-16
3.619120E+03	6.989269E-14	8.354310E-16
3.620590E+03	6.974396E-14	8.331988E-16
3.622060E+03	6.965126E-14	8.316379E-16
3.623530E+03	6.954437E-14	8.299090E-16
3.625000E+03	6.940229E-14	8.277620E-16
3.626470E+03	6.931619E-14	8.262843E-16
3.627940E+03	6.922293E-14	8.247227E-16
3.629410E+03	6.911902E-14	8.230354E-16
3.630880E+03	6.902900E-14	8.215149E-16
3.632350E+03	6.890382E-14	8.195773E-16
3.633820E+03	6.876102E-14	8.174320E-16
3.635290E+03	6.860412E-14	8.151209E-16
3.636760E+03	6.848211E-14	8.132262E-16
3.638230E+03	6.833552E-14	8.110412E-16
3.639700E+03	6.821330E-14	8.091471E-16
3.641170E+03	6.809796E-14	8.073359E-16
3.642640E+03	6.793709E-14	8.049867E-16
3.644110E+03	6.777614E-14	8.026383E-16
3.645580E+03	6.763605E-14	8.005387E-16
3.647050E+03	6.747494E-14	7.981920E-16
3.648520E+03	6.727187E-14	7.953510E-16
3.649990E+03	6.707573E-14	7.925943E-16
3.651460E+03	6.687955E-14	7.898393E-16
3.652930E+03	6.665193E-14	7.867154E-16
3.654400E+03	6.643127E-14	7.836761E-16
3.655870E+03	6.618271E-14	7.803104E-16
3.657340E+03	6.593065E-14	7.769063E-16
3.658810E+03	6.569950E-14	7.737512E-16
3.660280E+03	6.546136E-14	7.705163E-16
3.661750E+03	6.520583E-14	7.670796E-16
3.663220E+03	6.493639E-14	7.634820E-16
3.664690E+03	6.464263E-14	7.596016E-16
3.666160E+03	6.432111E-14	7.553986E-16
3.667630E+03	6.397532E-14	7.509143E-16
3.669100E+03	6.358448E-14	7.459054E-16
3.670570E+03	6.318680E-14	7.408209E-16
3.672040E+03	6.276843E-14	7.354984E-16
3.673510E+03	6.231552E-14	7.297764E-16
3.674980E+03	6.185930E-14	7.240209E-16
3.676450E+03	6.139634E-14	7.181919E-16
3.677920E+03	6.090236E-14	7.120057E-16
3.679390E+03	6.038782E-14	7.055851E-16
3.680860E+03	5.986312E-14	6.990520E-16
3.682330E+03	5.932482E-14	6.923664E-16
3.683800E+03	5.877294E-14	6.855289E-16
3.685270E+03	5.819366E-14	6.783785E-16
3.686740E+03	5.762161E-14	6.713193E-16
3.688210E+03	5.704639E-14	6.642301E-16
3.689680E+03	5.642656E-14	6.566288E-16
3.691150E+03	5.578636E-14	6.487981E-16
3.692620E+03	5.511891E-14	6.406584E-16
3.694090E+03	5.438972E-14	6.318099E-16
3.695560E+03	5.368859E-14	6.232962E-16
3.697030E+03	5.299133E-14	6.148360E-16
3.698500E+03	5.228416E-14	6.062697E-16
3.699970E+03	5.155676E-14	5.974778E-16
3.701440E+03	5.081605E-14	5.885409E-16
3.702910E+03	5.005861E-14	5.794197E-16
3.704380E+03	4.930168E-14	5.703139E-16
3.705850E+03	4.850053E-14	5.607066E-16
3.707320E+03	4.771368E-14	5.512748E-16
3.708790E+03	4.694113E-14	5.420182E-16
3.710260E+03	4.616911E-14	5.327777E-16
3.711730E+03	4.541137E-14	5.237118E-16
3.713200E+03	4.466789E-14	5.148201E-16
3.714670E+03	4.394554E-14	5.061812E-16
3.716140E+03	4.320996E-14	4.973996E-16
3.717610E+03	4.250922E-14	4.890283E-16
3.719080E+03	4.183639E-14	4.809870E-16
3.720550E+03	4.113664E-14	4.726451E-16
3.722020E+03	4.041345E-14	4.640433E-16
3.723490E+03	3.974555E-14	4.560855E-16
3.724960E+03	3.913289E-14	4.487698E-16
3.726430E+03	3.853435E-14	4.416240E-16
3.727900E+03	3.792600E-14	4.343737E-16
3.729370E+03	3.736253E-14	4.276452E-16
3.730840E+03	3.684045E-14	4.213974E-16
3.732310E+03	3.637679E-14	4.158242E-16
3.733780E+03	3.593394E-14	4.104947E-16
3.735250E+03	3.549823E-14	4.052523E-16
3.736720E+03	3.508670E-14	4.002914E-16
3.738190E+03	3.472999E-14	3.959607E-16
3.739660E+03	3.438035E-14	3.917151E-16
3.741130E+03	3.399758E-14	3.870966E-16
3.742600E+03	3.367873E-14	3.832102E-16
3.744070E+03	3.339547E-14	3.797325E-16
3.745540E+03	3.310832E-14	3.762139E-16
3.747010E+03	3.284516E-14	3.729713E-16
3.748480E+03	3.264704E-14	3.704698E-16
3.749950E+03	3.244735E-14	3.679527E-16
3.751420E+03	3.221046E-14	3.650161E-16
3.752890E+03	3.197202E-14	3.620647E-16
3.754360E+03	3.179138E-14	3.597701E-16
3.755830E+03	3.165353E-14	3.579615E-16
3.757300E+03	3.151135E-14	3.561050E-16
3.758770E+03	3.141663E-14	3.547858E-16
3.760240E+03	3.127898E-14	3.529827E-16
3.761710E+03	3.110892E-14	3.508154E-16
3.763180E+03	3.101604E-14	3.495195E-16
3.764650E+03	3.095157E-14	3.485440E-16
3.766120E+03	3.090195E-14	3.477357E-16
3.767590E+03	3.087696E-14	3.472042E-16
3.769060E+03	3.085565E-14	3.467134E-16
3.770530E+03	3.086194E-14	3.465320E-16
3.772000E+03	3.085400E-14	3.461897E-16
3.773470E+03	3.085782E-14	3.459784E-16
3.774940E+03	3.088008E-14	3.459726E-16
3.776410E+03	3.089890E-14	3.459269E-16
3.777880E+03	3.095867E-14	3.463380E-16
3.779350E+03	3.102874E-14	3.468621E-16
3.780820E+03	3.107551E-14	3.471238E-16
3.782290E+03	3.110738E-14	3.472173E-16
3.783760E+03	3.114823E-14	3.474094E-16
3.785230E+03	3.119468E-14	3.476621E-16
3.786700E+03	3.126483E-14	3.481769E-16
3.788170E+03	3.131609E-14	3.484791E-16
3.789640E+03	3.135485E-14	3.486404E-16
3.791110E+03	3.141661E-14	3.490553E-16
3.792580E+03	3.150167E-14	3.497269E-16
3.794050E+03	3.156551E-14	3.501604E-16
3.795520E+03	3.164393E-14	3.507532E-16
3.796990E+03	3.172422E-14	3.513643E-16
3.798460E+03	3.181106E-14	3.520453E-16
3.799930E+03	3.191575E-14	3.529210E-16
3.801400E+03	3.203396E-14	3.539430E-16
3.802870E+03	3.212199E-14	3.546285E-16
3.804340E+03	3.223286E-14	3.555632E-16
3.805810E+03	3.240216E-14	3.571387E-16
3.807280E+03	3.262515E-14	3.593013E-16
3.808750E+03	3.285283E-14	3.615101E-16
3.810220E+03	3.304663E-14	3.633411E-16
3.811690E+03	3.326709E-14	3.654602E-16
3.813160E+03	3.356130E-14	3.683835E-16
3.814630E+03	3.388170E-14	3.715872E-16
3.816100E+03	3.420171E-14	3.747795E-16
3.817570E+03	3.453788E-14	3.781414E-16
3.819040E+03	3.489020E-14	3.816724E-16
3.820510E+03	3.527187E-14	3.855163E-16
3.821980E+03	3.567625E-14	3.895995E-16
3.823450E+03	3.609668E-14	3.938489E-16
3.824920E+03	3.654303E-14	3.983713E-16
3.826390E+03	3.703179E-14	4.033459E-16
3.827860E+03	3.756621E-14	4.088064E-16
3.829330E+03	3.808015E-14	4.140325E-16
3.830800E+03	3.860336E-14	4.193480E-16
3.832270E+03	3.917539E-14	4.251816E-16
3.833740E+03	3.979288E-14	4.314953E-16
3.835210E+03	4.043264E-14	4.380368E-16
3.836680E+03	4.110785E-14	4.449477E-16
3.838150E+03	4.183817E-14	4.524397E-16
3.839620E+03	4.259392E-14	4.601902E-16
3.841090E+03	4.336845E-14	4.681268E-16
3.842560E+03	4.418474E-14	4.764965E-16
3.844030E+03	4.502959E-14	4.851558E-16
3.845500E+03	4.589965E-14	4.940676E-16
3.846970E+03	4.677522E-14	5.030192E-16
3.848440E+03	4.766938E-14	5.121508E-16
3.849910E+03	4.862468E-14	5.219186E-16
3.851380E+03	4.954608E-14	5.313013E-16
3.852850E+03	5.042381E-14	5.401952E-16
3.854320E+03	5.132008E-14	5.492675E-16
3.855790E+03	5.223813E-14	5.585519E-16
3.857260E+03	5.318441E-14	5.681167E-16
3.858730E+03	5.414912E-14	5.778562E-16
3.860200E+03	5.511589E-14	5.875953E-16
3.861670E+03	5.606517E-14	5.971254E-16
3.863140E+03	5.704910E-14	6.070019E-16
3.864610E+03	5.802855E-14	6.168075E-16
3.866080E+03	5.896446E-14	6.261276E-16
3.867550E+03	5.988294E-14	6.352403E-16
3.869020E+03	6.082301E-14	6.445596E-16
3.870490E+03	6.172941E-14	6.534997E-16
3.871960E+03	6.264765E-14	6.625428E-16
3.873430E+03	6.359392E-14	6.718597E-16
3.874900E+03	6.453251E-14	6.810721E-16
3.876370E+03	6.546667E-14	6.902146E-16
3.877840E+03	6.638343E-14	6.991507E-16
3.879310E+03	6.727313E-14	7.077791E-16
3.880780E+03	6.819080E-14	7.166789E-16
3.882250E+03	6.908788E-14	7.253394E-16
3.883720E+03	6.999028E-14	7.340328E-16
3.885190E+03	7.090120E-14	7.427922E-16
3.886660E+03	7.180125E-14	7.514147E-16
3.888130E+03	7.266144E-14	7.595970E-16
3.889600E+03	7.352372E-14	7.677787E-16
3.891070E+03	7.442999E-14	7.763967E-16
3.892540E+03	7.534150E-14	7.850455E-16
3.894010E+03	7.622932E-14	7.934236E-16
3.895480E+03	7.715134E-14	8.021339E-16
3.896950E+03	7.805930E-14	8.106736E-16
3.898420E+03	7.892111E-14	8.187104E-16
3.899890E+03	7.978498E-14	8.267452E-16
3.901360E+03	8.064772E-14	8.347449E-16
3.902830E+03	8.149007E-14	8.425103E-16
3.904300E+03	8.232170E-14	8.501418E-16
3.905770E+03	8.314261E-14	8.576398E-16
3.907240E+03	8.396244E-14	8.651037E-16
3.908710E+03	8.476837E-14	8.724017E-16
3.910180E+03	8.554445E-14	8.793703E-16
3.911650E+03	8.632909E-14	8.864046E-16
3.913120E+03	8.709350E-14	8.932091E-16
3.914590E+03	8.780265E-14	8.994256E-16
3.916060E+03	8.848851E-14	9.053831E-16
3.917530E+03	8.916388E-14	9.112131E-16
3.919000E+03	8.978418E-14	9.164610E-16
3.920470E+03	9.034632E-14	9.210972E-16
3.921940E+03	9.090451E-14	9.256757E-16
3.923410E+03	9.143330E-14	9.299379E-16
3.924880E+03	9.192323E-14	9.337884E-16
3.926350E+03	9.238388E-14	9.373262E-16
3.927820E+03	9.281531E-14	9.405528E-16
3.929290E+03	9.322075E-14	9.435018E-16
3.930760E+03	9.359708E-14	9.461427E-16
3.932230E+03	9.393801E-14	9.484129E-16
3.933700E+03	9.423094E-14	9.501870E-16
3.935170E+03	9.449181E-14	9.516270E-16
3.936640E+03	9.470167E-14	9.525436E-16
3.938110E+03	9.487012E-14	9.530351E-16
3.939580E+03	9.499091E-14	9.530405E-16
3.941050E+03	9.506413E-14	9.525624E-16
3.942520E+03	9.513718E-14	9.520770E-16
3.943990E+03	9.518800E-14	9.513638E-16
3.945460E+03	9.518198E-14	9.500782E-16
3.946930E+03	9.512552E-14	9.482863E-16
3.948400E+03	9.502817E-14	9.460852E-16
3.949870E+03	9.486799E-14	9.432582E-16
3.951340E+03	9.466081E-14	9.399650E-16
3.952810E+03	9.443810E-14	9.365197E-16
3.954280E+03	9.419365E-14	9.328613E-16
3.955750E+03	9.388044E-14	9.285257E-16
3.957220E+03	9.352683E-14	9.237957E-16
3.958690E+03	9.314852E-14	9.188281E-16
3.960160E+03	9.272055E-14	9.133777E-16
3.961630E+03	9.231180E-14	9.081244E-16
3.963100E+03	9.190038E-14	9.028524E-16
3.964570E+03	9.143944E-14	8.971022E-16
3.966040E+03	9.095715E-14	8.911518E-16
3.967510E+03	9.046293E-14	8.850943E-16
3.968980E+03	8.993809E-14	8.787478E-16
3.970450E+03	8.937646E-14	8.720533E-16
3.971920E+03	8.879369E-14	8.651647E-16
3.973390E+03	8.818980E-14	8.580834E-16
3.974860E+03	8.756797E-14	8.508412E-16
3.976330E+03	8.695308E-14	8.436802E-16
3.977800E+03	8.634511E-14	8.366001E-16
3.979270E+03	8.568821E-14	8.290603E-16
3.980740E+03	8.499796E-14	8.212135E-16
3.982210E+03	8.432093E-14	8.135103E-16
3.983680E+03	8.365711E-14	8.059502E-16
3.985150E+03	8.299097E-14	7.983835E-16
3.986620E+03	8.231327E-14	7.907214E-16
3.988090E+03	8.161782E-14	7.829054E-16
3.989560E+03	8.092629E-14	7.751436E-16
3.991030E+03	8.026031E-14	7.676429E-16
3.992500E+03	7.961365E-14	7.603428E-16
3.993970E+03	7.897085E-14	7.530952E-16
3.995440E+03	7.831650E-14	7.457532E-16
3.996910E+03	7.766294E-14	7.384349E-16
3.998380E+03	7.702248E-14	7.312569E-16
3.999850E+03	7.640127E-14	7.242773E-16
4.001320E+03	7.580232E-14	7.175238E-16
4.002790E+03	7.520411E-14	7.107921E-16
4.004260E+03	7.465267E-14	7.045166E-16
4.005730E+03	7.414793E-14	6.986948E-16
4.007200E+03	7.365608E-14	6.930066E-16
4.008670E+03	7.316788E-14	6.873647E-16
4.010140E+03	7.268334E-14	6.817691E-16
4.011610E+03	7.227590E-14	6.769077E-16
4.013080E+03	7.192402E-14	6.725756E-16
4.014550E+03	7.156032E-14	6.681414E-16
4.016020E+03	7.121540E-14	6.638909E-16
4.017490E+03	7.091669E-14	6.600788E-16
4.018960E+03	7.063359E-14	6.564185E-16
4.020430E+03	7.038436E-14	6.530790E-16
4.021900E+03	7.018114E-14	6.501714E-16
4.023370E+03	7.003296E-14	6.477771E-16
4.024840E+03	6.991235E-14	6.456401E-16
4.026310E+03	6.982533E-14	6.438147E-16
4.027780E+03	6.978399E-14	6.424109E-16
4.029250E+03	6.976395E-14	6.412025E-16
4.030720E+03	6.980158E-14	6.405224E-16
4.032190E+03	6.991804E-14	6.405619E-16
4.033660E+03	7.007980E-14	6.410109E-16
4.035130E+03	7.027771E-14	6.417838E-16
4.036600E+03	7.051168E-14	6.428783E-16
4.038070E+03	7.077259E-14	6.442097E-16
4.039540E+03	7.105430E-14	6.457211E-16
4.041010E+03	7.135983E-14	6.474390E-16
4.042480E+03	7.169215E-14	6.493892E-16
4.043950E+03	7.205120E-14	6.515700E-16
4.045420E+03	7.245503E-14	6.541432E-16
4.046890E+03	7.286738E-14	6.567800E-16
4.048360E+03	7.330330E-14	6.596155E-16
4.049830E+03	7.374771E-14	6.625132E-16
4.051300E+03	7.416446E-14	6.651483E-16
4.052770E+03	7.461977E-14	6.681153E-16
4.054240E+03	7.512859E-14	6.715459E-16
4.055710E+03	7.564877E-14	6.750617E-16
4.057180E+03	7.618931E-14	6.787424E-16
4.058650E+03	7.671117E-14	6.822397E-16
4.060120E+03	7.719939E-14	6.854220E-16
4.061590E+03	7.770797E-14	6.887691E-16
4.063060E+03	7.821891E-14	6.921211E-16
4.064530E+03	7.869629E-14	6.951605E-16
4.066000E+03	7.916410E-14	6.981005E-16
4.067470E+03	7.964329E-14	7.011259E-16
4.068940E+03	8.011590E-14	7.040785E-16
4.070410E+03	8.054616E-14	7.066446E-16
4.071880E+03	8.098482E-14	7.092709E-16
4.073350E+03	8.140208E-14	7.116964E-16
4.074820E+03	8.176818E-14	7.136624E-16
4.076290E+03	8.211300E-14	7.154316E-16
4.077760E+03	8.244550E-14	7.170829E-16
4.079230E+03	8.275084E-14	7.184881E-16
4.080700E+03	8.305879E-14	7.199065E-16
4.082170E+03	8.334558E-14	7.211324E-16
4.083640E+03	8.362608E-14	7.222952E-16
4.085110E+03	8.388847E-14	7.232934E-16
4.086580E+03	8.411201E-14	7.239494E-16
4.088050E+03	8.433233E-14	7.245711E-16
4.089520E+03	8.455832E-14	7.252348E-16
4.090990E+03	8.476335E-14	7.257125E-16
4.092460E+03	8.494744E-14	7.260054E-16
4.093930E+03	8.511951E-14	7.261906E-16
4.095400E+03	8.527073E-14	7.261934E-16
4.096870E+03	8.535685E-14	7.256388E-16
4.098340E+03	8.540161E-14	7.247311E-16
4.099810E+03	8.546107E-14	7.239472E-16
4.101280E+03	8.550577E-14	7.230374E-16
4.102750E+03	8.552395E-14	7.219032E-16
4.104220E+03	8.552153E-14	7.205958E-16
4.105690E+03	8.551328E-14	7.192403E-16
4.107160E+03	8.549331E-14	7.177875E-16
