#wls	flux	fluxerr
1.600000E+03	2.782590E-15	8.270313E-17
1.640000E+03	2.511872E-15	7.387490E-17
1.680000E+03	2.250208E-15	6.547195E-17
1.720000E+03	2.000561E-15	5.757379E-17
1.760000E+03	1.765360E-15	5.024053E-17
1.800000E+03	1.546917E-15	4.352553E-17
1.840000E+03	1.347026E-15	3.746438E-17
1.880000E+03	1.167027E-15	3.207744E-17
1.920000E+03	1.007213E-15	2.735451E-17
1.960000E+03	8.677349E-16	2.328081E-17
2.000000E+03	7.477000E-16	1.981339E-17
2.040000E+03	6.458188E-16	1.689984E-17
2.080000E+03	5.601901E-16	1.447342E-17
2.120000E+03	4.899807E-16	1.249700E-17
2.160000E+03	4.370660E-16	1.100263E-17
2.200000E+03	4.026087E-16	1.000211E-17
2.240000E+03	3.873002E-16	9.494176E-18
2.280000E+03	3.920926E-16	9.483024E-18
2.320000E+03	4.182036E-16	9.978121E-18
2.360000E+03	4.676121E-16	1.100542E-17
2.400000E+03	5.440654E-16	1.262943E-17
2.440000E+03	6.531501E-16	1.495211E-17
2.480000E+03	8.016890E-16	1.809631E-17
2.520000E+03	9.966210E-16	2.217889E-17
2.560000E+03	1.242714E-15	2.726027E-17
2.600000E+03	1.539143E-15	3.327391E-17
2.640000E+03	1.877083E-15	3.998378E-17
2.680000E+03	2.244012E-15	4.708733E-17
2.720000E+03	2.627743E-15	5.430456E-17
2.760000E+03	3.013786E-15	6.132400E-17
2.800000E+03	3.385825E-15	6.781589E-17
2.840000E+03	3.729219E-15	7.350427E-17
2.880000E+03	4.031768E-15	7.817933E-17
2.920000E+03	4.286610E-15	8.174891E-17
2.960000E+03	4.493151E-15	8.424751E-17
3.000000E+03	4.655476E-15	8.579698E-17
3.010000E+03	4.690205E-15	8.606048E-17
3.020000E+03	4.722764E-15	8.627867E-17
3.030000E+03	4.753577E-15	8.645985E-17
3.040000E+03	4.782645E-15	8.660443E-17
3.050000E+03	4.810266E-15	8.671822E-17
3.060000E+03	4.836599E-15	8.680446E-17
3.070000E+03	4.861954E-15	8.686899E-17
3.080000E+03	4.886643E-15	8.691761E-17
3.090000E+03	4.910703E-15	8.695118E-17
3.100000E+03	4.934455E-15	8.697552E-17
3.110000E+03	4.958221E-15	8.699637E-17
3.120000E+03	4.982187E-15	8.701699E-17
3.130000E+03	5.006547E-15	8.704072E-17
3.140000E+03	5.031753E-15	8.707528E-17
3.150000E+03	5.057870E-15	8.712158E-17
3.160000E+03	5.085100E-15	8.718281E-17
3.170000E+03	5.114021E-15	8.726856E-17
3.180000E+03	5.144582E-15	8.737756E-17
3.190000E+03	5.177236E-15	8.751704E-17
3.200000E+03	5.212070E-15	8.768794E-17
3.210000E+03	5.249534E-15	8.789727E-17
3.220000E+03	5.289843E-15	8.814796E-17
3.230000E+03	5.333214E-15	8.844289E-17
3.240000E+03	5.379986E-15	8.878691E-17
3.250000E+03	5.430500E-15	8.918481E-17
3.260000E+03	5.484869E-15	8.963750E-17
3.270000E+03	5.543444E-15	9.014975E-17
3.280000E+03	5.606464E-15	9.072441E-17
3.290000E+03	5.674280E-15	9.136603E-17
3.300000E+03	5.747132E-15	9.207733E-17
3.310000E+03	5.825258E-15	9.286083E-17
3.320000E+03	5.908997E-15	9.372065E-17
3.330000E+03	5.998341E-15	9.465530E-17
3.340000E+03	6.093808E-15	9.567155E-17
3.350000E+03	6.195324E-15	9.676674E-17
3.360000E+03	6.302975E-15	9.794077E-17
3.370000E+03	6.416876E-15	9.919390E-17
3.380000E+03	6.536803E-15	1.005212E-16
3.390000E+03	6.662390E-15	1.019156E-16
3.400000E+03	6.793188E-15	1.033689E-16
3.410000E+03	6.928409E-15	1.048679E-16
3.420000E+03	7.067223E-15	1.063990E-16
3.430000E+03	7.208071E-15	1.079381E-16
3.440000E+03	7.349437E-15	1.094621E-16
3.450000E+03	7.489441E-15	1.109430E-16
3.460000E+03	7.625974E-15	1.123500E-16
3.470000E+03	7.757196E-15	1.136572E-16
3.480000E+03	7.881937E-15	1.148487E-16
3.490000E+03	7.999917E-15	1.159221E-16
3.500000E+03	8.111617E-15	1.168859E-16
3.510000E+03	8.218170E-15	1.177581E-16
3.520000E+03	8.320726E-15	1.185562E-16
3.530000E+03	8.420288E-15	1.192955E-16
3.540000E+03	8.517848E-15	1.199907E-16
3.550000E+03	8.614234E-15	1.206539E-16
3.560000E+03	8.710089E-15	1.212944E-16
3.570000E+03	8.805763E-15	1.219171E-16
3.580000E+03	8.901527E-15	1.225257E-16
3.590000E+03	8.997407E-15	1.231203E-16
3.600000E+03	9.093593E-15	1.237037E-16
3.610000E+03	9.189931E-15	1.242734E-16
3.620000E+03	9.286302E-15	1.248279E-16
3.630000E+03	9.382540E-15	1.253647E-16
3.640000E+03	9.478688E-15	1.258845E-16
3.650000E+03	9.574943E-15	1.263899E-16
3.660000E+03	9.671742E-15	1.268864E-16
3.670000E+03	9.769916E-15	1.273847E-16
3.680000E+03	9.870558E-15	1.278986E-16
3.690000E+03	9.975307E-15	1.284486E-16
3.700000E+03	1.008604E-14	1.290575E-16
3.710000E+03	1.020529E-14	1.297562E-16
3.720000E+03	1.033577E-14	1.305767E-16
3.730000E+03	1.048048E-14	1.315541E-16
3.740000E+03	1.064285E-14	1.327275E-16
3.750000E+03	1.082634E-14	1.341356E-16
3.760000E+03	1.103442E-14	1.358156E-16
3.770000E+03	1.127035E-14	1.378017E-16
3.780000E+03	1.153732E-14	1.401255E-16
3.790000E+03	1.183760E-14	1.428071E-16
3.800000E+03	1.217302E-14	1.458600E-16
3.810000E+03	1.254450E-14	1.492867E-16
3.820000E+03	1.295138E-14	1.530705E-16
3.830000E+03	1.339221E-14	1.571857E-16
3.840000E+03	1.386369E-14	1.615857E-16
3.850000E+03	1.436094E-14	1.662063E-16
3.860000E+03	1.487774E-14	1.709700E-16
3.870000E+03	1.540620E-14	1.757820E-16
3.880000E+03	1.593732E-14	1.805376E-16
3.890000E+03	1.646115E-14	1.851245E-16
3.900000E+03	1.696766E-14	1.894326E-16
3.910000E+03	1.744658E-14	1.933527E-16
3.920000E+03	1.788889E-14	1.967927E-16
3.930000E+03	1.828663E-14	1.996748E-16
3.940000E+03	1.863388E-14	2.019462E-16
3.950000E+03	1.892694E-14	2.035800E-16
3.960000E+03	1.916426E-14	2.045732E-16
3.970000E+03	1.934709E-14	2.049531E-16
3.980000E+03	1.947916E-14	2.047726E-16
3.990000E+03	1.956555E-14	2.040976E-16
4.000000E+03	1.961381E-14	2.030179E-16
4.010000E+03	1.963173E-14	2.016230E-16
4.020000E+03	1.962839E-14	2.000134E-16
4.030000E+03	1.961266E-14	1.982845E-16
4.040000E+03	1.959310E-14	1.965254E-16
4.050000E+03	1.957761E-14	1.948165E-16
4.060000E+03	1.957330E-14	1.932273E-16
4.070000E+03	1.958582E-14	1.918112E-16
4.080000E+03	1.962001E-14	1.906118E-16
4.090000E+03	1.967883E-14	1.896535E-16
4.100000E+03	1.976400E-14	1.889477E-16
4.110000E+03	1.987586E-14	1.884922E-16
4.120000E+03	2.001350E-14	1.882733E-16
4.130000E+03	2.017457E-14	1.882643E-16
4.140000E+03	2.035537E-14	1.884268E-16
4.150000E+03	2.055148E-14	1.887168E-16
4.160000E+03	2.075744E-14	1.890827E-16
4.170000E+03	2.096698E-14	1.894668E-16
4.180000E+03	2.117396E-14	1.898150E-16
4.190000E+03	2.137140E-14	1.900671E-16
4.200000E+03	2.155299E-14	1.901712E-16
4.210000E+03	2.171289E-14	1.900809E-16
4.220000E+03	2.184553E-14	1.897542E-16
4.230000E+03	2.194649E-14	1.891599E-16
4.240000E+03	2.201265E-14	1.882792E-16
4.250000E+03	2.204179E-14	1.871016E-16
4.260000E+03	2.203361E-14	1.856331E-16
4.270000E+03	2.198890E-14	1.838886E-16
4.280000E+03	2.190964E-14	1.818924E-16
4.290000E+03	2.179980E-14	1.796846E-16
4.300000E+03	2.166369E-14	1.773066E-16
4.310000E+03	2.150669E-14	1.748073E-16
4.320000E+03	2.133475E-14	1.722389E-16
4.330000E+03	2.115370E-14	1.696511E-16
4.340000E+03	2.096922E-14	1.670907E-16
4.350000E+03	2.078716E-14	1.646050E-16
4.360000E+03	2.061379E-14	1.622432E-16
4.370000E+03	2.045707E-14	1.600665E-16
4.380000E+03	2.032494E-14	1.581346E-16
4.390000E+03	2.022669E-14	1.565165E-16
4.400000E+03	2.017183E-14	1.552811E-16
4.410000E+03	2.017170E-14	1.545103E-16
4.420000E+03	2.023788E-14	1.542863E-16
4.430000E+03	2.037762E-14	1.546577E-16
4.440000E+03	2.059759E-14	1.556683E-16
4.450000E+03	2.090525E-14	1.573682E-16
4.460000E+03	2.130669E-14	1.597958E-16
4.470000E+03	2.180534E-14	1.629699E-16
4.480000E+03	2.240056E-14	1.668792E-16
4.490000E+03	2.308757E-14	1.714828E-16
4.500000E+03	2.385664E-14	1.767042E-16
4.510000E+03	2.469239E-14	1.824269E-16
4.520000E+03	2.557479E-14	1.885013E-16
4.530000E+03	2.647835E-14	1.947394E-16
4.540000E+03	2.737417E-14	2.009299E-16
4.550000E+03	2.823001E-14	2.068382E-16
4.560000E+03	2.901344E-14	2.122296E-16
4.570000E+03	2.969278E-14	2.168758E-16
4.580000E+03	3.023981E-14	2.205742E-16
4.590000E+03	3.063236E-14	2.231664E-16
4.600000E+03	3.085499E-14	2.245429E-16
4.610000E+03	3.090074E-14	2.246551E-16
4.620000E+03	3.077112E-14	2.235158E-16
4.630000E+03	3.047511E-14	2.211907E-16
4.640000E+03	3.002955E-14	2.178021E-16
4.650000E+03	2.945561E-14	2.135027E-16
4.660000E+03	2.877803E-14	2.084706E-16
4.670000E+03	2.802276E-14	2.028923E-16
4.680000E+03	2.721558E-14	1.969524E-16
4.690000E+03	2.638073E-14	1.908245E-16
4.700000E+03	2.554026E-14	1.846658E-16
4.710000E+03	2.471264E-14	1.786082E-16
4.720000E+03	2.391349E-14	1.727626E-16
4.730000E+03	2.315441E-14	1.672110E-16
4.740000E+03	2.244429E-14	1.620162E-16
4.750000E+03	2.178913E-14	1.572199E-16
4.760000E+03	2.119223E-14	1.528446E-16
4.770000E+03	2.065500E-14	1.488991E-16
4.780000E+03	2.017687E-14	1.453782E-16
4.790000E+03	1.975612E-14	1.422685E-16
4.800000E+03	1.938978E-14	1.395474E-16
4.810000E+03	1.907434E-14	1.371886E-16
4.820000E+03	1.880520E-14	1.351581E-16
4.830000E+03	1.857794E-14	1.334231E-16
4.840000E+03	1.838729E-14	1.319449E-16
4.850000E+03	1.822797E-14	1.306847E-16
4.860000E+03	1.809462E-14	1.296034E-16
4.870000E+03	1.798192E-14	1.286622E-16
4.880000E+03	1.788481E-14	1.278241E-16
4.890000E+03	1.779858E-14	1.270552E-16
4.900000E+03	1.771930E-14	1.263270E-16
4.910000E+03	1.764340E-14	1.256137E-16
4.920000E+03	1.756860E-14	1.248991E-16
4.930000E+03	1.749323E-14	1.241714E-16
4.940000E+03	1.741722E-14	1.234299E-16
4.950000E+03	1.734107E-14	1.226784E-16
4.960000E+03	1.726630E-14	1.219278E-16
4.970000E+03	1.719600E-14	1.211999E-16
4.980000E+03	1.713308E-14	1.205154E-16
4.990000E+03	1.708206E-14	1.199057E-16
5.000000E+03	1.704709E-14	1.193998E-16
5.010000E+03	1.703308E-14	1.190315E-16
5.020000E+03	1.704474E-14	1.188328E-16
5.030000E+03	1.708720E-14	1.188384E-16
5.040000E+03	1.716480E-14	1.190772E-16
5.050000E+03	1.728224E-14	1.195801E-16
5.060000E+03	1.744318E-14	1.203703E-16
5.070000E+03	1.765145E-14	1.214722E-16
5.080000E+03	1.790981E-14	1.229020E-16
5.090000E+03	1.822026E-14	1.246708E-16
5.100000E+03	1.858439E-14	1.267867E-16
5.110000E+03	1.900222E-14	1.292468E-16
5.120000E+03	1.947262E-14	1.320404E-16
5.130000E+03	1.999275E-14	1.351454E-16
5.140000E+03	2.055859E-14	1.385322E-16
5.150000E+03	2.116343E-14	1.421533E-16
5.160000E+03	2.179919E-14	1.459528E-16
5.170000E+03	2.245558E-14	1.498610E-16
5.180000E+03	2.312031E-14	1.537959E-16
5.190000E+03	2.378004E-14	1.576697E-16
5.200000E+03	2.442008E-14	1.613873E-16
5.210000E+03	2.502564E-14	1.648540E-16
5.220000E+03	2.558246E-14	1.679804E-16
5.230000E+03	2.607776E-14	1.706878E-16
5.240000E+03	2.650007E-14	1.729076E-16
5.250000E+03	2.684125E-14	1.745933E-16
5.260000E+03	2.709555E-14	1.757151E-16
5.270000E+03	2.726079E-14	1.762660E-16
5.280000E+03	2.733730E-14	1.762558E-16
5.290000E+03	2.732723E-14	1.757052E-16
5.300000E+03	2.723558E-14	1.746529E-16
5.310000E+03	2.706735E-14	1.731368E-16
5.320000E+03	2.682884E-14	1.712026E-16
5.330000E+03	2.652583E-14	1.688915E-16
5.340000E+03	2.616406E-14	1.662439E-16
5.350000E+03	2.574919E-14	1.632989E-16
5.360000E+03	2.528597E-14	1.600889E-16
5.370000E+03	2.478008E-14	1.566515E-16
5.380000E+03	2.423722E-14	1.530238E-16
5.390000E+03	2.366443E-14	1.492505E-16
5.400000E+03	2.306995E-14	1.453834E-16
5.410000E+03	2.246339E-14	1.414821E-16
5.420000E+03	2.185636E-14	1.376174E-16
5.430000E+03	2.126308E-14	1.338749E-16
5.440000E+03	2.070174E-14	1.303652E-16
5.450000E+03	2.019271E-14	1.272128E-16
5.460000E+03	1.974355E-14	1.244624E-16
5.470000E+03	1.935044E-14	1.220874E-16
5.480000E+03	1.900833E-14	1.200542E-16
5.490000E+03	1.871171E-14	1.183262E-16
5.500000E+03	1.845414E-14	1.168616E-16
5.510000E+03	1.822899E-14	1.156172E-16
5.520000E+03	1.803001E-14	1.145523E-16
5.530000E+03	1.785103E-14	1.136269E-16
5.540000E+03	1.768611E-14	1.128019E-16
5.550000E+03	1.753018E-14	1.120442E-16
5.560000E+03	1.737856E-14	1.113226E-16
5.570000E+03	1.722754E-14	1.106120E-16
5.580000E+03	1.707456E-14	1.098947E-16
5.590000E+03	1.691769E-14	1.091569E-16
5.600000E+03	1.675614E-14	1.083920E-16
5.610000E+03	1.659064E-14	1.076034E-16
5.620000E+03	1.642235E-14	1.067974E-16
5.630000E+03	1.625331E-14	1.059861E-16
5.640000E+03	1.608677E-14	1.051897E-16
5.650000E+03	1.592578E-14	1.044276E-16
5.660000E+03	1.577420E-14	1.037246E-16
5.670000E+03	1.563591E-14	1.031060E-16
5.680000E+03	1.551474E-14	1.025972E-16
5.690000E+03	1.541421E-14	1.022220E-16
5.700000E+03	1.533802E-14	1.020055E-16
5.710000E+03	1.528888E-14	1.019667E-16
5.720000E+03	1.526944E-14	1.021245E-16
5.730000E+03	1.528149E-14	1.024920E-16
5.740000E+03	1.532666E-14	1.030817E-16
5.750000E+03	1.540529E-14	1.038973E-16
5.760000E+03	1.551696E-14	1.049376E-16
5.770000E+03	1.566079E-14	1.061982E-16
5.780000E+03	1.583447E-14	1.076648E-16
5.790000E+03	1.603480E-14	1.093169E-16
5.800000E+03	1.625753E-14	1.111269E-16
5.810000E+03	1.649759E-14	1.130608E-16
5.820000E+03	1.674857E-14	1.150754E-16
5.830000E+03	1.700359E-14	1.171238E-16
5.840000E+03	1.725494E-14	1.191528E-16
5.850000E+03	1.749448E-14	1.211057E-16
5.860000E+03	1.771372E-14	1.229232E-16
5.870000E+03	1.790492E-14	1.245503E-16
5.880000E+03	1.806042E-14	1.259323E-16
5.890000E+03	1.817312E-14	1.270181E-16
5.900000E+03	1.823733E-14	1.277659E-16
5.910000E+03	1.824840E-14	1.281410E-16
5.920000E+03	1.820325E-14	1.281194E-16
5.930000E+03	1.809984E-14	1.276844E-16
5.940000E+03	1.793800E-14	1.268325E-16
5.950000E+03	1.771900E-14	1.255704E-16
5.960000E+03	1.744499E-14	1.239111E-16
5.970000E+03	1.711982E-14	1.218797E-16
5.980000E+03	1.674842E-14	1.195095E-16
5.990000E+03	1.633627E-14	1.168380E-16
6.000000E+03	1.589032E-14	1.139132E-16
6.010000E+03	1.541778E-14	1.107859E-16
6.020000E+03	1.492648E-14	1.075111E-16
6.030000E+03	1.442483E-14	1.041490E-16
6.040000E+03	1.392145E-14	1.007617E-16
6.050000E+03	1.342469E-14	9.740974E-17
6.060000E+03	1.294348E-14	9.415838E-17
6.070000E+03	1.248572E-14	9.106619E-17
6.080000E+03	1.205916E-14	8.819107E-17
6.090000E+03	1.167104E-14	8.558798E-17
6.100000E+03	1.132728E-14	8.330252E-17
6.110000E+03	1.103365E-14	8.138008E-17
6.120000E+03	1.079462E-14	7.985691E-17
6.130000E+03	1.061388E-14	7.876401E-17
6.140000E+03	1.049404E-14	7.812496E-17
6.150000E+03	1.043686E-14	7.795770E-17
6.160000E+03	1.044293E-14	7.827158E-17
6.170000E+03	1.051182E-14	7.906886E-17
6.180000E+03	1.064154E-14	8.034036E-17
6.190000E+03	1.082857E-14	8.206551E-17
6.200000E+03	1.106821E-14	8.421471E-17
6.210000E+03	1.135313E-14	8.673824E-17
6.220000E+03	1.167491E-14	8.957725E-17
6.230000E+03	1.202258E-14	9.265285E-17
6.240000E+03	1.238407E-14	9.587613E-17
6.250000E+03	1.274574E-14	9.914463E-17
6.260000E+03	1.309355E-14	1.023501E-16
6.270000E+03	1.341317E-14	1.053795E-16
6.280000E+03	1.369197E-14	1.081301E-16
6.290000E+03	1.391830E-14	1.105046E-16
6.300000E+03	1.408318E-14	1.124251E-16
6.310000E+03	1.418029E-14	1.138325E-16
6.320000E+03	1.420657E-14	1.146924E-16
6.330000E+03	1.416201E-14	1.149944E-16
6.340000E+03	1.404910E-14	1.147480E-16
6.350000E+03	1.387351E-14	1.139887E-16
6.360000E+03	1.364223E-14	1.127640E-16
6.370000E+03	1.336475E-14	1.111430E-16
6.380000E+03	1.305133E-14	1.092033E-16
6.390000E+03	1.271278E-14	1.070287E-16
6.400000E+03	1.236082E-14	1.047135E-16
6.410000E+03	1.200651E-14	1.023482E-16
6.420000E+03	1.166164E-14	1.000325E-16
6.430000E+03	1.133626E-14	9.785342E-17
6.440000E+03	1.104051E-14	9.590119E-17
6.450000E+03	1.078290E-14	9.425400E-17
6.460000E+03	1.057127E-14	9.298625E-17
6.470000E+03	1.040643E-14	9.211191E-17
6.480000E+03	1.028096E-14	9.157215E-17
6.490000E+03	1.018651E-14	9.129805E-17
6.500000E+03	1.011540E-14	9.122495E-17
6.510000E+03	1.006047E-14	9.129125E-17
6.520000E+03	1.001574E-14	9.144458E-17
6.530000E+03	9.975335E-15	9.163233E-17
6.540000E+03	9.934685E-15	9.181245E-17
6.550000E+03	9.889728E-15	9.194672E-17
6.560000E+03	9.837361E-15	9.200501E-17
6.570000E+03	9.775470E-15	9.196580E-17
6.580000E+03	9.702241E-15	9.181000E-17
6.590000E+03	9.616841E-15	9.152750E-17
6.600000E+03	9.519231E-15	9.111561E-17
6.610000E+03	9.409726E-15	9.057514E-17
6.620000E+03	9.288791E-15	8.990843E-17
6.630000E+03	9.157820E-15	8.912703E-17
6.640000E+03	9.017865E-15	8.823951E-17
6.650000E+03	8.870723E-15	8.726202E-17
6.660000E+03	8.717557E-15	8.620489E-17
6.670000E+03	8.560404E-15	8.508739E-17
6.680000E+03	8.400558E-15	8.392188E-17
6.690000E+03	8.239657E-15	8.272442E-17
6.700000E+03	8.078819E-15	8.150622E-17
6.710000E+03	7.919695E-15	8.028412E-17
6.720000E+03	7.762997E-15	7.906573E-17
6.730000E+03	7.609933E-15	7.786392E-17
6.740000E+03	7.461293E-15	7.668745E-17
6.750000E+03	7.317467E-15	7.554115E-17
6.760000E+03	7.179199E-15	7.443353E-17
6.770000E+03	7.046727E-15	7.336802E-17
6.780000E+03	6.920409E-15	7.234928E-17
6.790000E+03	6.800141E-15	7.137721E-17
6.800000E+03	6.686191E-15	7.045558E-17
6.810000E+03	6.578514E-15	6.958485E-17
6.820000E+03	6.476887E-15	6.876361E-17
6.830000E+03	6.381149E-15	6.799101E-17
6.840000E+03	6.291100E-15	6.726576E-17
6.850000E+03	6.206730E-15	6.658855E-17
6.860000E+03	6.127465E-15	6.595397E-17
6.870000E+03	6.053267E-15	6.536229E-17
6.880000E+03	5.983874E-15	6.481134E-17
6.890000E+03	5.918924E-15	6.429782E-17
6.900000E+03	5.858276E-15	6.382071E-17
6.910000E+03	5.801691E-15	6.337794E-17
6.920000E+03	5.748840E-15	6.296639E-17
6.930000E+03	5.699611E-15	6.258527E-17
6.940000E+03	5.653807E-15	6.223279E-17
6.950000E+03	5.611140E-15	6.190616E-17
6.960000E+03	5.571638E-15	6.160601E-17
6.970000E+03	5.534933E-15	6.132861E-17
6.980000E+03	5.501075E-15	6.107475E-17
6.990000E+03	5.469714E-15	6.084082E-17
7.000000E+03	5.440911E-15	6.062773E-17
7.010000E+03	5.414327E-15	6.043190E-17
7.020000E+03	5.390025E-15	6.025423E-17
7.030000E+03	5.367767E-15	6.009224E-17
7.040000E+03	5.347413E-15	5.994450E-17
7.050000E+03	5.328917E-15	5.981064E-17
7.060000E+03	5.312028E-15	5.968797E-17
7.070000E+03	5.296583E-15	5.957474E-17
7.080000E+03	5.282515E-15	5.947032E-17
7.090000E+03	5.269646E-15	5.937276E-17
7.100000E+03	5.257682E-15	5.927883E-17
7.110000E+03	5.246524E-15	5.918750E-17
7.120000E+03	5.235960E-15	5.909639E-17
7.130000E+03	5.225767E-15	5.900307E-17
7.140000E+03	5.215605E-15	5.890374E-17
7.150000E+03	5.205439E-15	5.879804E-17
7.160000E+03	5.194912E-15	5.868201E-17
7.170000E+03	5.183767E-15	5.855280E-17
7.180000E+03	5.171845E-15	5.840866E-17
7.190000E+03	5.158779E-15	5.824553E-17
7.200000E+03	5.144310E-15	5.806056E-17
7.210000E+03	5.128393E-15	5.785338E-17
7.220000E+03	5.110476E-15	5.761784E-17
7.230000E+03	5.090652E-15	5.735514E-17
7.240000E+03	5.068618E-15	5.706204E-17
7.250000E+03	5.044103E-15	5.673566E-17
7.260000E+03	5.017078E-15	5.637589E-17
7.270000E+03	4.987562E-15	5.598316E-17
7.280000E+03	4.955404E-15	5.555604E-17
7.290000E+03	4.920505E-15	5.509368E-17
7.300000E+03	4.883134E-15	5.459941E-17
7.310000E+03	4.843301E-15	5.407361E-17
7.320000E+03	4.801173E-15	5.351850E-17
7.330000E+03	4.757073E-15	5.293800E-17
7.340000E+03	4.710963E-15	5.233198E-17
7.350000E+03	4.663468E-15	5.170775E-17
7.360000E+03	4.614737E-15	5.106727E-17
7.370000E+03	4.565163E-15	5.041519E-17
7.380000E+03	4.515160E-15	4.975635E-17
7.390000E+03	4.465061E-15	4.909471E-17
7.400000E+03	4.415308E-15	4.843533E-17
7.410000E+03	4.366342E-15	4.778330E-17
7.420000E+03	4.318498E-15	4.714241E-17
7.430000E+03	4.272191E-15	4.651733E-17
7.440000E+03	4.227711E-15	4.591133E-17
7.450000E+03	4.185703E-15	4.533144E-17
7.460000E+03	4.146292E-15	4.477903E-17
7.470000E+03	4.109939E-15	4.425905E-17
7.480000E+03	4.076872E-15	4.377385E-17
7.490000E+03	4.047365E-15	4.332628E-17
7.500000E+03	4.021455E-15	4.291658E-17
7.510000E+03	3.999324E-15	4.254654E-17
7.520000E+03	3.981113E-15	4.221744E-17
7.530000E+03	3.966635E-15	4.192711E-17
7.540000E+03	3.956142E-15	4.167802E-17
7.550000E+03	3.949382E-15	4.146725E-17
7.560000E+03	3.946259E-15	4.129363E-17
7.570000E+03	3.946848E-15	4.115772E-17
7.580000E+03	3.950824E-15	4.105594E-17
7.590000E+03	3.958033E-15	4.098651E-17
7.600000E+03	3.968508E-15	4.094964E-17
7.610000E+03	3.981882E-15	4.094140E-17
7.620000E+03	3.997980E-15	4.095989E-17
7.630000E+03	4.016720E-15	4.100421E-17
7.640000E+03	4.037922E-15	4.107249E-17
7.650000E+03	4.061304E-15	4.116184E-17
7.660000E+03	4.086787E-15	4.127150E-17
7.670000E+03	4.114185E-15	4.139966E-17
7.680000E+03	4.143103E-15	4.154243E-17
7.690000E+03	4.173657E-15	4.170117E-17
7.700000E+03	4.205329E-15	4.187087E-17
7.710000E+03	4.238224E-15	4.205280E-17
7.720000E+03	4.271787E-15	4.224173E-17
7.730000E+03	4.306098E-15	4.243880E-17
7.740000E+03	4.340673E-15	4.263957E-17
7.750000E+03	4.375218E-15	4.284160E-17
7.760000E+03	4.409653E-15	4.304456E-17
