#wls	flux	fluxerr
1.600000E+03	3.428349E-15	1.232596E-16
1.640000E+03	3.147027E-15	1.118225E-16
1.680000E+03	2.865060E-15	1.005896E-16
1.720000E+03	2.586152E-15	8.969368E-17
1.760000E+03	2.313448E-15	7.924176E-17
1.800000E+03	2.050470E-15	6.934792E-17
1.840000E+03	1.800821E-15	6.012247E-17
1.880000E+03	1.567454E-15	5.164746E-17
1.920000E+03	1.353348E-15	4.400033E-17
1.960000E+03	1.160691E-15	3.722730E-17
2.000000E+03	9.914226E-16	3.136259E-17
2.040000E+03	8.464457E-16	2.640422E-17
2.080000E+03	7.263092E-16	2.233747E-17
2.120000E+03	6.312948E-16	1.913835E-17
2.160000E+03	5.613660E-16	1.677279E-17
2.200000E+03	5.164039E-16	1.520438E-17
2.240000E+03	4.970044E-16	1.441779E-17
2.280000E+03	5.046260E-16	1.442164E-17
2.320000E+03	5.413069E-16	1.523876E-17
2.360000E+03	6.105078E-16	1.692863E-17
2.400000E+03	7.183788E-16	1.961892E-17
2.440000E+03	8.738215E-16	2.350153E-17
2.480000E+03	1.087866E-15	2.881075E-17
2.520000E+03	1.372301E-15	3.578342E-17
2.560000E+03	1.737108E-15	4.459155E-17
2.600000E+03	2.187330E-15	5.526708E-17
2.640000E+03	2.722795E-15	6.770481E-17
2.680000E+03	3.330992E-15	8.149852E-17
2.720000E+03	3.987364E-15	9.597237E-17
2.760000E+03	4.661036E-15	1.103400E-16
2.800000E+03	5.317353E-15	1.237762E-16
2.840000E+03	5.922895E-15	1.355381E-16
2.880000E+03	6.449855E-15	1.450620E-16
2.920000E+03	6.881873E-15	1.520804E-16
2.960000E+03	7.215538E-15	1.566323E-16
3.000000E+03	7.459702E-15	1.590235E-16
3.010000E+03	7.508506E-15	1.593333E-16
3.020000E+03	7.553050E-15	1.595442E-16
3.030000E+03	7.593793E-15	1.596671E-16
3.040000E+03	7.631032E-15	1.597095E-16
3.050000E+03	7.665062E-15	1.596784E-16
3.060000E+03	7.696570E-15	1.595892E-16
3.070000E+03	7.725507E-15	1.594415E-16
3.080000E+03	7.752569E-15	1.592505E-16
3.090000E+03	7.778092E-15	1.590236E-16
3.100000E+03	7.802590E-15	1.587717E-16
3.110000E+03	7.826399E-15	1.585021E-16
3.120000E+03	7.850034E-15	1.582253E-16
3.130000E+03	7.873825E-15	1.579480E-16
3.140000E+03	7.898107E-15	1.576769E-16
3.150000E+03	7.923384E-15	1.574219E-16
3.160000E+03	7.950151E-15	1.571924E-16
3.170000E+03	7.978733E-15	1.569944E-16
3.180000E+03	8.009448E-15	1.568334E-16
3.190000E+03	8.042782E-15	1.567184E-16
3.200000E+03	8.079210E-15	1.566578E-16
3.210000E+03	8.119043E-15	1.566566E-16
3.220000E+03	8.162590E-15	1.567199E-16
3.230000E+03	8.210164E-15	1.568524E-16
3.240000E+03	8.262383E-15	1.570648E-16
3.250000E+03	8.319552E-15	1.573615E-16
3.260000E+03	8.381977E-15	1.577468E-16
3.270000E+03	8.449970E-15	1.582250E-16
3.280000E+03	8.523990E-15	1.588032E-16
3.290000E+03	8.604209E-15	1.594827E-16
3.300000E+03	8.691386E-15	1.602759E-16
3.310000E+03	8.785558E-15	1.611813E-16
3.320000E+03	8.887065E-15	1.622033E-16
3.330000E+03	8.996551E-15	1.633514E-16
3.340000E+03	9.114233E-15	1.646273E-16
3.350000E+03	9.240521E-15	1.660360E-16
3.360000E+03	9.375838E-15	1.675828E-16
3.370000E+03	9.520684E-15	1.692738E-16
3.380000E+03	9.675581E-15	1.711158E-16
3.381496E+03	4.337263E-15	7.664478E-17
3.384512E+03	4.482732E-15	7.908802E-17
3.387528E+03	4.623907E-15	8.144736E-17
3.390543E+03	4.762499E-15	8.375332E-17
3.393559E+03	4.903562E-15	8.609477E-17
3.396575E+03	5.048159E-15	8.849019E-17
3.399590E+03	5.176119E-15	9.058630E-17
3.402606E+03	5.307042E-15	9.272689E-17
3.405622E+03	5.434595E-15	9.480128E-17
3.408637E+03	5.561755E-15	9.686167E-17
3.411653E+03	5.658428E-15	9.838474E-17
3.414669E+03	5.759367E-15	9.997638E-17
3.417684E+03	5.847883E-15	1.013471E-16
3.420700E+03	5.910544E-15	1.022654E-16
3.423716E+03	5.966284E-15	1.030606E-16
3.426732E+03	6.027398E-15	1.039454E-16
3.429747E+03	6.070260E-15	1.045126E-16
3.432763E+03	6.117390E-15	1.051506E-16
3.435779E+03	6.160531E-15	1.057176E-16
3.438794E+03	6.205967E-15	1.063215E-16
3.441810E+03	6.258957E-15	1.070521E-16
3.444826E+03	6.315741E-15	1.078444E-16
3.447841E+03	6.350938E-15	1.082657E-16
3.450857E+03	6.396600E-15	1.088630E-16
3.453873E+03	6.448597E-15	1.095654E-16
3.456888E+03	6.503312E-15	1.103111E-16
3.459904E+03	6.565339E-15	1.111774E-16
3.462920E+03	6.651399E-15	1.124466E-16
3.465936E+03	6.741617E-15	1.137811E-16
3.468951E+03	6.837486E-15	1.152059E-16
3.471967E+03	6.968362E-15	1.172141E-16
3.474983E+03	7.114314E-15	1.194680E-16
3.477998E+03	7.250062E-15	1.215428E-16
3.481014E+03	7.433053E-15	1.244005E-16
3.484030E+03	7.649815E-15	1.278122E-16
3.487045E+03	7.811326E-15	1.302902E-16
3.490061E+03	7.978283E-15	1.328498E-16
3.493077E+03	8.147721E-15	1.354412E-16
3.496092E+03	8.325642E-15	1.381640E-16
3.499108E+03	8.507220E-15	1.409373E-16
3.502124E+03	8.707518E-15	1.440100E-16
3.505140E+03	8.909114E-15	1.470929E-16
3.508155E+03	9.112953E-15	1.502016E-16
3.511171E+03	9.310346E-15	1.531927E-16
3.514186E+03	9.517740E-15	1.563371E-16
3.517202E+03	9.724937E-15	1.594666E-16
3.520218E+03	9.920124E-15	1.623879E-16
3.523234E+03	1.010819E-14	1.651820E-16
3.526249E+03	1.030648E-14	1.681323E-16
3.529265E+03	1.050565E-14	1.710859E-16
3.532281E+03	1.070477E-14	1.740275E-16
3.535296E+03	1.088074E-14	1.765825E-16
3.538312E+03	1.105310E-14	1.790690E-16
3.541328E+03	1.120848E-14	1.812714E-16
3.544343E+03	1.134911E-14	1.832271E-16
3.547359E+03	1.146134E-14	1.847173E-16
3.550375E+03	1.152133E-14	1.853607E-16
3.553390E+03	1.159858E-14	1.862783E-16
3.556406E+03	1.165734E-14	1.868950E-16
3.559422E+03	1.168912E-14	1.870769E-16
3.562438E+03	1.171839E-14	1.872169E-16
3.565453E+03	1.171183E-14	1.867841E-16
3.568469E+03	1.169222E-14	1.861439E-16
3.571485E+03	1.168976E-14	1.857774E-16
3.574500E+03	1.164898E-14	1.848033E-16
3.577516E+03	1.159632E-14	1.836434E-16
3.580532E+03	1.154181E-14	1.824572E-16
3.583547E+03	1.149018E-14	1.813198E-16
3.586563E+03	1.141067E-14	1.797461E-16
3.589579E+03	1.134532E-14	1.783996E-16
3.592594E+03	1.132669E-14	1.777901E-16
3.595610E+03	1.133708E-14	1.776365E-16
3.598626E+03	1.140606E-14	1.783987E-16
3.601642E+03	1.152336E-14	1.799115E-16
3.604657E+03	1.169003E-14	1.821874E-16
3.607673E+03	1.191600E-14	1.853765E-16
3.610689E+03	1.219962E-14	1.894482E-16
3.613704E+03	1.255834E-14	1.946684E-16
3.616720E+03	1.297439E-14	2.007557E-16
3.619736E+03	1.345274E-14	2.077820E-16
3.622751E+03	1.398234E-14	2.155721E-16
3.625767E+03	1.454804E-14	2.238881E-16
3.628783E+03	1.514921E-14	2.327173E-16
3.631798E+03	1.579296E-14	2.421662E-16
3.634814E+03	1.643328E-14	2.515268E-16
3.637830E+03	1.710911E-14	2.613941E-16
3.640845E+03	1.780953E-14	2.715989E-16
3.643861E+03	1.847890E-14	2.812921E-16
3.646877E+03	1.912942E-14	2.906616E-16
3.649892E+03	1.978658E-14	3.000957E-16
3.652908E+03	2.040469E-14	3.089018E-16
3.655924E+03	2.100652E-14	3.174277E-16
3.658940E+03	2.159135E-14	3.256636E-16
3.661955E+03	2.214493E-14	3.333967E-16
3.664971E+03	2.265459E-14	3.404388E-16
3.667987E+03	2.312007E-14	3.467898E-16
3.671002E+03	2.354947E-14	3.525751E-16
3.674018E+03	2.387973E-14	3.568547E-16
3.677034E+03	2.411870E-14	3.597544E-16
3.680049E+03	2.432475E-14	3.621507E-16
3.683065E+03	2.445135E-14	3.633549E-16
3.686081E+03	2.448751E-14	3.632106E-16
3.689097E+03	2.445387E-14	3.620307E-16
3.692112E+03	2.435429E-14	3.598787E-16
3.695128E+03	2.418628E-14	3.567228E-16
3.698144E+03	2.396011E-14	3.527200E-16
3.701159E+03	2.369251E-14	3.481214E-16
3.704175E+03	2.334270E-14	3.423317E-16
3.707191E+03	2.294232E-14	3.358213E-16
3.710206E+03	2.249750E-14	3.286842E-16
3.713222E+03	2.201234E-14	3.209834E-16
3.716238E+03	2.149003E-14	3.127689E-16
3.719253E+03	2.094505E-14	3.042543E-16
3.722269E+03	2.037618E-14	2.954236E-16
3.725285E+03	1.979889E-14	2.865027E-16
3.728300E+03	1.921638E-14	2.775387E-16
3.731316E+03	1.863209E-14	2.685813E-16
3.734332E+03	1.805583E-14	2.597718E-16
3.737347E+03	1.751287E-14	2.514729E-16
3.740363E+03	1.698597E-14	2.434342E-16
3.743379E+03	1.649707E-14	2.359683E-16
3.746394E+03	1.603106E-14	2.288565E-16
3.749410E+03	1.560999E-14	2.224109E-16
3.752426E+03	1.525344E-14	2.169061E-16
3.755442E+03	1.491137E-14	2.116268E-16
3.758457E+03	1.460172E-14	2.068258E-16
3.761473E+03	1.436065E-14	2.030115E-16
3.764489E+03	1.413745E-14	1.994626E-16
3.767504E+03	1.395390E-14	1.964847E-16
3.770520E+03	1.378516E-14	1.937250E-16
3.773536E+03	1.362130E-14	1.910430E-16
3.776551E+03	1.348083E-14	1.886978E-16
3.779567E+03	1.337191E-14	1.868010E-16
3.782583E+03	1.326654E-14	1.849598E-16
3.785599E+03	1.319116E-14	1.835417E-16
3.788614E+03	1.315826E-14	1.827178E-16
3.791630E+03	1.315527E-14	1.823101E-16
3.794646E+03	1.318097E-14	1.822995E-16
3.797661E+03	1.324613E-14	1.828321E-16
3.800677E+03	1.335092E-14	1.839069E-16
3.803693E+03	1.352880E-14	1.859807E-16
3.806708E+03	1.375342E-14	1.886860E-16
3.809724E+03	1.405881E-14	1.924846E-16
3.812740E+03	1.442833E-14	1.971424E-16
3.815755E+03	1.490329E-14	2.032175E-16
3.818771E+03	1.543198E-14	2.099974E-16
3.821787E+03	1.599203E-14	2.171737E-16
3.824802E+03	1.661564E-14	2.251803E-16
3.827818E+03	1.729303E-14	2.338795E-16
3.830834E+03	1.796864E-14	2.425172E-16
3.833849E+03	1.871375E-14	2.520536E-16
3.836865E+03	1.953377E-14	2.625552E-16
3.839881E+03	2.037251E-14	2.732626E-16
3.842897E+03	2.122658E-14	2.841284E-16
3.845912E+03	2.210761E-14	2.953073E-16
3.848928E+03	2.299738E-14	3.065537E-16
3.851944E+03	2.387596E-14	3.176018E-16
3.854959E+03	2.476396E-14	3.287265E-16
3.857975E+03	2.565700E-14	3.398686E-16
3.860991E+03	2.654340E-14	3.508735E-16
3.864006E+03	2.745115E-14	3.621111E-16
3.867022E+03	2.834759E-14	3.731493E-16
3.870038E+03	2.926778E-14	3.844501E-16
3.873053E+03	3.020477E-14	3.959205E-16
3.876069E+03	3.113277E-14	4.072212E-16
3.879085E+03	3.208469E-14	4.187829E-16
3.882101E+03	3.304172E-14	4.303587E-16
3.885116E+03	3.398970E-14	4.417643E-16
3.888132E+03	3.493330E-14	4.530606E-16
3.891148E+03	3.589855E-14	4.645853E-16
3.894163E+03	3.682853E-14	4.756016E-16
3.897179E+03	3.773733E-14	4.862935E-16
3.900195E+03	3.861293E-14	4.965086E-16
3.903210E+03	3.944795E-14	5.061555E-16
3.906226E+03	4.025896E-14	5.154488E-16
3.909242E+03	4.101948E-14	5.240527E-16
3.912257E+03	4.172446E-14	5.319074E-16
3.915273E+03	4.237124E-14	5.389831E-16
3.918289E+03	4.294030E-14	5.450370E-16
3.921305E+03	4.343849E-14	5.501626E-16
3.924320E+03	4.386307E-14	5.543315E-16
3.927336E+03	4.420162E-14	5.573923E-16
3.930352E+03	4.444890E-14	5.592867E-16
3.933367E+03	4.463115E-14	5.603522E-16
3.936383E+03	4.469955E-14	5.599817E-16
3.939399E+03	4.466575E-14	5.583307E-16
3.942414E+03	4.454876E-14	5.556451E-16
3.945430E+03	4.432141E-14	5.515927E-16
3.948446E+03	4.400762E-14	5.464803E-16
3.951461E+03	4.359480E-14	5.401593E-16
3.954477E+03	4.308988E-14	5.327228E-16
3.957493E+03	4.250963E-14	5.243854E-16
3.960508E+03	4.188072E-14	5.154823E-16
3.963524E+03	4.118823E-14	5.058332E-16
3.966540E+03	4.045158E-14	4.956817E-16
3.969555E+03	3.968540E-14	4.852106E-16
3.972571E+03	3.892166E-14	4.748118E-16
3.975587E+03	3.814558E-14	4.643051E-16
3.978603E+03	3.737443E-14	4.539017E-16
3.981618E+03	3.660330E-14	4.435416E-16
3.984634E+03	3.582228E-14	4.331046E-16
3.987650E+03	3.503136E-14	4.225916E-16
3.990665E+03	3.425042E-14	4.122428E-16
3.993681E+03	3.348949E-14	4.021772E-16
3.996697E+03	3.274867E-14	3.923948E-16
3.999712E+03	3.206554E-14	3.833435E-16
4.002728E+03	3.140283E-14	3.745732E-16
4.005744E+03	3.079321E-14	3.664715E-16
4.008760E+03	3.025947E-14	3.593047E-16
4.011775E+03	2.978687E-14	3.528922E-16
4.014791E+03	2.941842E-14	3.477369E-16
4.017807E+03	2.907897E-14	3.429445E-16
4.020822E+03	2.880145E-14	3.389003E-16
4.023838E+03	2.858608E-14	3.356014E-16
4.026854E+03	2.844577E-14	3.331943E-16
4.029869E+03	2.838082E-14	3.316766E-16
4.032885E+03	2.840416E-14	3.311928E-16
4.035901E+03	2.847809E-14	3.312974E-16
4.038916E+03	2.858245E-14	3.317527E-16
4.041932E+03	2.871482E-14	3.325277E-16
4.044948E+03	2.884725E-14	3.332978E-16
4.047963E+03	2.895426E-14	3.337693E-16
4.050979E+03	2.903064E-14	3.338839E-16
4.053995E+03	2.908393E-14	3.337308E-16
4.057010E+03	2.912943E-14	3.334873E-16
4.060026E+03	2.913631E-14	3.328016E-16
4.063042E+03	2.915323E-14	3.322313E-16
4.066057E+03	2.914681E-14	3.313964E-16
4.069073E+03	2.915041E-14	3.306768E-16
4.072089E+03	2.912028E-14	3.295767E-16
4.075105E+03	2.902794E-14	3.277772E-16
4.078120E+03	2.895061E-14	3.261536E-16
4.081136E+03	2.886510E-14	3.244433E-16
4.084152E+03	2.878948E-14	3.228500E-16
4.087167E+03	2.872638E-14	3.214025E-16
4.090183E+03	2.868882E-14	3.202449E-16
4.093199E+03	2.860679E-14	3.185956E-16
4.096214E+03	2.855290E-14	3.172652E-16
4.099230E+03	2.852986E-14	3.162811E-16
4.102246E+03	2.852214E-14	3.154694E-16
4.105261E+03	2.855849E-14	3.151465E-16
4.108277E+03	2.863380E-14	3.152524E-16
4.111293E+03	2.876391E-14	3.159582E-16
4.114309E+03	2.893066E-14	3.170611E-16
4.117324E+03	2.915511E-14	3.187888E-16
4.120340E+03	2.942698E-14	3.210242E-16
4.123356E+03	2.972275E-14	3.235084E-16
4.126371E+03	3.003202E-14	3.261267E-16
4.129387E+03	3.036006E-14	3.289351E-16
4.132403E+03	3.072009E-14	3.320753E-16
4.135418E+03	3.109637E-14	3.353756E-16
4.138434E+03	3.147841E-14	3.387216E-16
4.141450E+03	3.187413E-14	3.421981E-16
4.144465E+03	3.227298E-14	3.456917E-16
4.147481E+03	3.267498E-14	3.492018E-16
4.150497E+03	3.307216E-14	3.526437E-16
4.153512E+03	3.344066E-14	3.557644E-16
4.156528E+03	3.381221E-14	3.589023E-16
4.159544E+03	3.418414E-14	3.620294E-16
4.162560E+03	3.455116E-14	3.650897E-16
4.165575E+03	3.489992E-14	3.679435E-16
4.168591E+03	3.523036E-14	3.705909E-16
4.171607E+03	3.555576E-14	3.731731E-16
4.174622E+03	3.585206E-14	3.754388E-16
4.177638E+03	3.611119E-14	3.773055E-16
4.180654E+03	3.633036E-14	3.787469E-16
4.183669E+03	3.650677E-14	3.797373E-16
4.186685E+03	3.667245E-14	3.806116E-16
4.189701E+03	3.676572E-14	3.807321E-16
4.192717E+03	3.680247E-14	3.802683E-16
4.195732E+03	3.680676E-14	3.794721E-16
4.198748E+03	3.679188E-14	3.784823E-16
4.201764E+03	3.673901E-14	3.771072E-16
4.204779E+03	3.664802E-14	3.753484E-16
4.207795E+03	3.652422E-14	3.732623E-16
4.210811E+03	3.639180E-14	3.710979E-16
4.213826E+03	3.626961E-14	3.690479E-16
4.216842E+03	3.610640E-14	3.665909E-16
4.219858E+03	3.595880E-14	3.643034E-16
4.222873E+03	3.584849E-14	3.624040E-16
4.225889E+03	3.576200E-14	3.607539E-16
4.228905E+03	3.566965E-14	3.590527E-16
4.231920E+03	3.559850E-14	3.575733E-16
4.234936E+03	3.557572E-14	3.565859E-16
4.237952E+03	3.556612E-14	3.557360E-16
4.240967E+03	3.557519E-14	3.550777E-16
4.243983E+03	3.558665E-14	3.544472E-16
4.246999E+03	3.558418E-14	3.536825E-16
4.250015E+03	3.560043E-14	3.531084E-16
4.253030E+03	3.561362E-14	3.525085E-16
4.256046E+03	3.563194E-14	3.519633E-16
4.259062E+03	3.565813E-14	3.515000E-16
4.262077E+03	3.568673E-14	3.510646E-16
4.265093E+03	3.568226E-14	3.503083E-16
4.268109E+03	3.568017E-14	3.495807E-16
4.271124E+03	3.563945E-14	3.484809E-16
4.274140E+03	3.558194E-14	3.472238E-16
4.277156E+03	3.553495E-14	3.460769E-16
4.280171E+03	3.544100E-14	3.444809E-16
4.283187E+03	3.532467E-14	3.426766E-16
4.286203E+03	3.517771E-14	3.405855E-16
4.289218E+03	3.497809E-14	3.379971E-16
4.292234E+03	3.472028E-14	3.348601E-16
4.295250E+03	3.444810E-14	3.315999E-16
4.298266E+03	3.414231E-14	3.280323E-16
4.301281E+03	3.378363E-14	3.239744E-16
4.304297E+03	3.341599E-14	3.198491E-16
4.307313E+03	3.301735E-14	3.154465E-16
4.310328E+03	3.258496E-14	3.107417E-16
4.313344E+03	3.211874E-14	3.057355E-16
4.316360E+03	3.160215E-14	3.002723E-16
4.319375E+03	3.103787E-14	2.943802E-16
4.322391E+03	3.042034E-14	2.880085E-16
4.325407E+03	2.976608E-14	2.813158E-16
4.328422E+03	2.909160E-14	2.744596E-16
4.331438E+03	2.840242E-14	2.674922E-16
4.334454E+03	2.771238E-14	2.605444E-16
4.337470E+03	2.701042E-14	2.535121E-16
4.340485E+03	2.632089E-14	2.466237E-16
4.343501E+03	2.563195E-14	2.397673E-16
4.346517E+03	2.495216E-14	2.330226E-16
4.349532E+03	2.428270E-14	2.264000E-16
4.352548E+03	2.362441E-14	2.199061E-16
4.355564E+03	2.301666E-14	2.139063E-16
4.358579E+03	2.243403E-14	2.081622E-16
4.361595E+03	2.189487E-14	2.028419E-16
4.364611E+03	2.136926E-14	1.976669E-16
4.367626E+03	2.088054E-14	1.928518E-16
4.370642E+03	2.044514E-14	1.885461E-16
4.373658E+03	2.003756E-14	1.845128E-16
4.376673E+03	1.966757E-14	1.808402E-16
4.379689E+03	1.934353E-14	1.776032E-16
4.382705E+03	1.906159E-14	1.747647E-16
4.385721E+03	1.882820E-14	1.723818E-16
4.388736E+03	1.860670E-14	1.701175E-16
4.391752E+03	1.844907E-14	1.684456E-16
4.394768E+03	1.834315E-14	1.672528E-16
4.397783E+03	1.828199E-14	1.664741E-16
4.400799E+03	1.823393E-14	1.658195E-16
4.403815E+03	1.823038E-14	1.655741E-16
4.406830E+03	1.828864E-14	1.658932E-16
4.409846E+03	1.837394E-14	1.664596E-16
4.412862E+03	1.849684E-14	1.673681E-16
4.415877E+03	1.863205E-14	1.683889E-16
4.418893E+03	1.881685E-14	1.698582E-16
4.421909E+03	1.904568E-14	1.717243E-16
4.424925E+03	1.928431E-14	1.736777E-16
4.427940E+03	1.955361E-14	1.759059E-16
4.430956E+03	1.984660E-14	1.783453E-16
4.433972E+03	2.016220E-14	1.809856E-16
4.436987E+03	2.051288E-14	1.839384E-16
4.440003E+03	2.089337E-14	1.871552E-16
4.443019E+03	2.127414E-14	1.903713E-16
4.446034E+03	2.166574E-14	1.936812E-16
4.449050E+03	2.207959E-14	1.971866E-16
4.452066E+03	2.251483E-14	2.008795E-16
4.455081E+03	2.297811E-14	2.048190E-16
4.458097E+03	2.346080E-14	2.089273E-16
4.461113E+03	2.397067E-14	2.132735E-16
4.464128E+03	2.452215E-14	2.179855E-16
4.467144E+03	2.511744E-14	2.230818E-16
4.470160E+03	2.572062E-14	2.282429E-16
4.473176E+03	2.634669E-14	2.336020E-16
4.476191E+03	2.701035E-14	2.392890E-16
4.479207E+03	2.767152E-14	2.449484E-16
4.482223E+03	2.838134E-14	2.510330E-16
4.485238E+03	2.914310E-14	2.575710E-16
4.488254E+03	2.992088E-14	2.642443E-16
4.491270E+03	3.075355E-14	2.713960E-16
4.494285E+03	3.164384E-14	2.790493E-16
4.497301E+03	3.256111E-14	2.869334E-16
4.500317E+03	3.349977E-14	2.949989E-16
4.503332E+03	3.446255E-14	3.032696E-16
4.506348E+03	3.545494E-14	3.117937E-16
4.509364E+03	3.648522E-14	3.206437E-16
4.512380E+03	3.752280E-14	3.295508E-16
4.515395E+03	3.856211E-14	3.384661E-16
4.518411E+03	3.961421E-14	3.474867E-16
4.521426E+03	4.068180E-14	3.566368E-16
4.524442E+03	4.177039E-14	3.659642E-16
4.527458E+03	4.287162E-14	3.753959E-16
4.530474E+03	4.398543E-14	3.849315E-16
4.533489E+03	4.510903E-14	3.945465E-16
4.536505E+03	4.624511E-14	4.042647E-16
4.539521E+03	4.737705E-14	4.139407E-16
4.542536E+03	4.849654E-14	4.235025E-16
4.545552E+03	4.962011E-14	4.330946E-16
4.548568E+03	5.070909E-14	4.423798E-16
4.551583E+03	5.175520E-14	4.512866E-16
4.554599E+03	5.279433E-14	4.601284E-16
4.557615E+03	5.376579E-14	4.683769E-16
4.560631E+03	5.467793E-14	4.761056E-16
4.563646E+03	5.551977E-14	4.832199E-16
4.566662E+03	5.629140E-14	4.897212E-16
4.569677E+03	5.699015E-14	4.955875E-16
4.572693E+03	5.759409E-14	5.006287E-16
4.575709E+03	5.811435E-14	5.049427E-16
4.578725E+03	5.854830E-14	5.085076E-16
4.581740E+03	5.888509E-14	5.112299E-16
4.584756E+03	5.912211E-14	5.130880E-16
4.587772E+03	5.926500E-14	5.141317E-16
4.590787E+03	5.930298E-14	5.142683E-16
4.593803E+03	5.921974E-14	5.133575E-16
4.596819E+03	5.902101E-14	5.114496E-16
4.599834E+03	5.869877E-14	5.084765E-16
4.602850E+03	5.828334E-14	5.047013E-16
4.605866E+03	5.774209E-14	4.998425E-16
4.608882E+03	5.708347E-14	4.939739E-16
4.611897E+03	5.633232E-14	4.873114E-16
4.614913E+03	5.547516E-14	4.797388E-16
4.617929E+03	5.456131E-14	4.716833E-16
4.620944E+03	5.358275E-14	4.630758E-16
4.623960E+03	5.253416E-14	4.538706E-16
4.626976E+03	5.144839E-14	4.443517E-16
4.629991E+03	5.032282E-14	4.344969E-16
4.633007E+03	4.920378E-14	4.247057E-16
4.636023E+03	4.808856E-14	4.149548E-16
4.639038E+03	4.695819E-14	4.050803E-16
4.642054E+03	4.580732E-14	3.950358E-16
4.645070E+03	4.465768E-14	3.850089E-16
4.648085E+03	4.352016E-14	3.750932E-16
4.651101E+03	4.240558E-14	3.653815E-16
4.654117E+03	4.131391E-14	3.558733E-16
4.657132E+03	4.024515E-14	3.465686E-16
4.660148E+03	3.920737E-14	3.375361E-16
4.663164E+03	3.819241E-14	3.287056E-16
4.666180E+03	3.720298E-14	3.201000E-16
4.669195E+03	3.623902E-14	3.117185E-16
4.672211E+03	3.531127E-14	3.036532E-16
4.675227E+03	3.441161E-14	2.958339E-16
4.678242E+03	3.353461E-14	2.882139E-16
4.681258E+03	3.271783E-14	2.811154E-16
4.684274E+03	3.193432E-14	2.743065E-16
4.687289E+03	3.118134E-14	2.677635E-16
4.690305E+03	3.047221E-14	2.616004E-16
4.693321E+03	2.978009E-14	2.555864E-16
4.696337E+03	2.910763E-14	2.497442E-16
4.699352E+03	2.845479E-14	2.440734E-16
