#wls	flux	fluxerr
1.600000E+03	1.771485E-15	9.609806E-17
1.640000E+03	1.580263E-15	8.466289E-17
1.680000E+03	1.400905E-15	7.410587E-17
1.720000E+03	1.234616E-15	6.446903E-17
1.760000E+03	1.082571E-15	5.578905E-17
1.800000E+03	9.451841E-16	4.805982E-17
1.840000E+03	8.226456E-16	4.126250E-17
1.880000E+03	7.146802E-16	3.535406E-17
1.920000E+03	6.209814E-16	3.029030E-17
1.960000E+03	5.406252E-16	2.599781E-17
2.000000E+03	4.729244E-16	2.241676E-17
2.040000E+03	4.169157E-16	1.947610E-17
2.080000E+03	3.718167E-16	1.711576E-17
2.120000E+03	3.370767E-16	1.528832E-17
2.160000E+03	3.124549E-16	1.396185E-17
2.200000E+03	2.980741E-16	1.312131E-17
2.240000E+03	2.942515E-16	1.276011E-17
2.280000E+03	3.016479E-16	1.288602E-17
2.320000E+03	3.213537E-16	1.352380E-17
2.360000E+03	3.546481E-16	1.470379E-17
2.400000E+03	4.035678E-16	1.648467E-17
2.440000E+03	4.705185E-16	1.893583E-17
2.480000E+03	5.580763E-16	2.212853E-17
2.520000E+03	6.683468E-16	2.611053E-17
2.560000E+03	8.018600E-16	3.086510E-17
2.600000E+03	9.568895E-16	3.628972E-17
2.640000E+03	1.129077E-15	4.218845E-17
2.680000E+03	1.312223E-15	4.830814E-17
2.720000E+03	1.499975E-15	5.440441E-17
2.760000E+03	1.685708E-15	6.023732E-17
2.800000E+03	1.863613E-15	6.561013E-17
2.840000E+03	2.028336E-15	7.035422E-17
2.880000E+03	2.175737E-15	7.435347E-17
2.920000E+03	2.303538E-15	7.756264E-17
2.960000E+03	2.411679E-15	8.001413E-17
3.000000E+03	2.502492E-15	8.181821E-17
3.010000E+03	2.523011E-15	8.218865E-17
3.020000E+03	2.542703E-15	8.252916E-17
3.030000E+03	2.561736E-15	8.284556E-17
3.040000E+03	2.580175E-15	8.314021E-17
3.050000E+03	2.598193E-15	8.341901E-17
3.060000E+03	2.615860E-15	8.368439E-17
3.070000E+03	2.633142E-15	8.393546E-17
3.080000E+03	2.650326E-15	8.418161E-17
3.090000E+03	2.667386E-15	8.442206E-17
3.100000E+03	2.684504E-15	8.466274E-17
3.110000E+03	2.701762E-15	8.490629E-17
3.120000E+03	2.719346E-15	8.515854E-17
3.130000E+03	2.737234E-15	8.541879E-17
3.140000E+03	2.755715E-15	8.569594E-17
3.150000E+03	2.774670E-15	8.598612E-17
3.160000E+03	2.794484E-15	8.630109E-17
3.170000E+03	2.815141E-15	8.664006E-17
3.180000E+03	2.836724E-15	8.700532E-17
3.190000E+03	2.859413E-15	8.740216E-17
3.200000E+03	2.883386E-15	8.783561E-17
3.210000E+03	2.908626E-15	8.830476E-17
3.220000E+03	2.935304E-15	8.881451E-17
3.230000E+03	2.963495E-15	8.936662E-17
3.240000E+03	2.993456E-15	8.996843E-17
3.250000E+03	3.025158E-15	9.061855E-17
3.260000E+03	3.058660E-15	9.131825E-17
3.270000E+03	3.094198E-15	9.207411E-17
3.280000E+03	3.131722E-15	9.288404E-17
3.290000E+03	3.171358E-15	9.375125E-17
3.300000E+03	3.213127E-15	9.467581E-17
3.310000E+03	3.257127E-15	9.566001E-17
3.320000E+03	3.303350E-15	9.670310E-17
3.330000E+03	3.351862E-15	9.780637E-17
3.340000E+03	3.402528E-15	9.896536E-17
3.350000E+03	3.455464E-15	1.001829E-16
3.360000E+03	3.510495E-15	1.014534E-16
3.370000E+03	3.567603E-15	1.027758E-16
3.380000E+03	3.626658E-15	1.041459E-16
3.390000E+03	3.687424E-15	1.055566E-16
3.400000E+03	3.749912E-15	1.070078E-16
3.410000E+03	3.813766E-15	1.084889E-16
3.420000E+03	3.878981E-15	1.099997E-16
3.430000E+03	3.945197E-15	1.115296E-16
3.440000E+03	4.012330E-15	1.130762E-16
3.450000E+03	4.080054E-15	1.146302E-16
3.460000E+03	4.148340E-15	1.161908E-16
3.470000E+03	4.217013E-15	1.177530E-16
3.480000E+03	4.285826E-15	1.193100E-16
3.490000E+03	4.354687E-15	1.208593E-16
3.500000E+03	4.423335E-15	1.223939E-16
3.510000E+03	4.491558E-15	1.239082E-16
3.520000E+03	4.559367E-15	1.254025E-16
3.530000E+03	4.626562E-15	1.268718E-16
3.540000E+03	4.693252E-15	1.283192E-16
3.550000E+03	4.759246E-15	1.297399E-16
3.560000E+03	4.824822E-15	1.311417E-16
3.570000E+03	4.889861E-15	1.325212E-16
3.580000E+03	4.954531E-15	1.338833E-16
3.590000E+03	5.018942E-15	1.352308E-16
3.600000E+03	5.083143E-15	1.365650E-16
3.610000E+03	5.147209E-15	1.378880E-16
3.620000E+03	5.211491E-15	1.392090E-16
3.630000E+03	5.276280E-15	1.405357E-16
3.640000E+03	5.341976E-15	1.418785E-16
3.650000E+03	5.409004E-15	1.432483E-16
3.660000E+03	5.477817E-15	1.446567E-16
3.670000E+03	5.548894E-15	1.461157E-16
3.680000E+03	5.622743E-15	1.476382E-16
3.690000E+03	5.699974E-15	1.492392E-16
3.700000E+03	5.781138E-15	1.509325E-16
3.710000E+03	5.866715E-15	1.527294E-16
3.720000E+03	5.957354E-15	1.546457E-16
3.730000E+03	6.053624E-15	1.566949E-16
3.740000E+03	6.155984E-15	1.588874E-16
3.750000E+03	6.265119E-15	1.612395E-16
3.760000E+03	6.381326E-15	1.637570E-16
3.770000E+03	6.505091E-15	1.664508E-16
3.780000E+03	6.636729E-15	1.693270E-16
3.790000E+03	6.776366E-15	1.723870E-16
3.800000E+03	6.924265E-15	1.756356E-16
3.810000E+03	7.080196E-15	1.790648E-16
3.820000E+03	7.244130E-15	1.826722E-16
3.830000E+03	7.415504E-15	1.864415E-16
3.840000E+03	7.593852E-15	1.903592E-16
3.850000E+03	7.778438E-15	1.944054E-16
3.860000E+03	7.968445E-15	1.985579E-16
3.870000E+03	8.162601E-15	2.027839E-16
3.880000E+03	8.359881E-15	2.070569E-16
3.890000E+03	8.558745E-15	2.113380E-16
3.900000E+03	8.757977E-15	2.155966E-16
3.910000E+03	8.956121E-15	2.197969E-16
3.920000E+03	9.151519E-15	2.238985E-16
3.930000E+03	9.343101E-15	2.278755E-16
3.940000E+03	9.529373E-15	2.316925E-16
3.950000E+03	9.709212E-15	2.353234E-16
3.960000E+03	9.881917E-15	2.387526E-16
3.970000E+03	1.004657E-14	2.419596E-16
3.980000E+03	1.020287E-14	2.449386E-16
3.990000E+03	1.035074E-14	2.476902E-16
4.000000E+03	1.049007E-14	2.502134E-16
4.010000E+03	1.062146E-14	2.525243E-16
4.020000E+03	1.074550E-14	2.546389E-16
4.030000E+03	1.086274E-14	2.565718E-16
4.040000E+03	1.097450E-14	2.583560E-16
4.050000E+03	1.108161E-14	2.600120E-16
4.060000E+03	1.118519E-14	2.615675E-16
4.070000E+03	1.128664E-14	2.630559E-16
4.080000E+03	1.138685E-14	2.644983E-16
4.090000E+03	1.148697E-14	2.659220E-16
4.100000E+03	1.158792E-14	2.673487E-16
4.110000E+03	1.169051E-14	2.687962E-16
4.120000E+03	1.179529E-14	2.702778E-16
4.130000E+03	1.190269E-14	2.718024E-16
4.140000E+03	1.201275E-14	2.733710E-16
4.150000E+03	1.212553E-14	2.749845E-16
4.160000E+03	1.224062E-14	2.766333E-16
4.170000E+03	1.235762E-14	2.783079E-16
4.180000E+03	1.247555E-14	2.799864E-16
4.190000E+03	1.259356E-14	2.816503E-16
4.200000E+03	1.271053E-14	2.832744E-16
4.210000E+03	1.282492E-14	2.848258E-16
4.220000E+03	1.293533E-14	2.862741E-16
4.230000E+03	1.304028E-14	2.875884E-16
4.240000E+03	1.313802E-14	2.887317E-16
4.250000E+03	1.322710E-14	2.896749E-16
4.260000E+03	1.330603E-14	2.903875E-16
4.270000E+03	1.337353E-14	2.908448E-16
4.280000E+03	1.342840E-14	2.910241E-16
4.290000E+03	1.346994E-14	2.909136E-16
4.300000E+03	1.349774E-14	2.905079E-16
4.310000E+03	1.351214E-14	2.898180E-16
4.320000E+03	1.351357E-14	2.888566E-16
4.330000E+03	1.350360E-14	2.876606E-16
4.340000E+03	1.348416E-14	2.862740E-16
4.350000E+03	1.345813E-14	2.847604E-16
4.360000E+03	1.342921E-14	2.831994E-16
4.370000E+03	1.340139E-14	2.816760E-16
4.380000E+03	1.337936E-14	2.802888E-16
4.390000E+03	1.336809E-14	2.791410E-16
4.400000E+03	1.337252E-14	2.783335E-16
4.410000E+03	1.339712E-14	2.779565E-16
4.420000E+03	1.344526E-14	2.780760E-16
4.430000E+03	1.351953E-14	2.787398E-16
4.440000E+03	1.362150E-14	2.799751E-16
4.450000E+03	1.375145E-14	2.817816E-16
4.460000E+03	1.390891E-14	2.841439E-16
4.470000E+03	1.409265E-14	2.870318E-16
4.480000E+03	1.430095E-14	2.904048E-16
4.490000E+03	1.453101E-14	2.942016E-16
4.500000E+03	1.477962E-14	2.983529E-16
4.510000E+03	1.504327E-14	3.027839E-16
4.520000E+03	1.531750E-14	3.074023E-16
4.530000E+03	1.559740E-14	3.121074E-16
4.540000E+03	1.587797E-14	3.167974E-16
4.550000E+03	1.615344E-14	3.213572E-16
4.560000E+03	1.641844E-14	3.256803E-16
4.570000E+03	1.666731E-14	3.296556E-16
4.580000E+03	1.689447E-14	3.331753E-16
4.590000E+03	1.709494E-14	3.361441E-16
4.600000E+03	1.726470E-14	3.384871E-16
4.610000E+03	1.739989E-14	3.401334E-16
4.620000E+03	1.749794E-14	3.410378E-16
4.630000E+03	1.755732E-14	3.411761E-16
4.640000E+03	1.757761E-14	3.405462E-16
4.650000E+03	1.755930E-14	3.391637E-16
4.660000E+03	1.750393E-14	3.370641E-16
4.670000E+03	1.741412E-14	3.343037E-16
4.680000E+03	1.729309E-14	3.309497E-16
4.690000E+03	1.714433E-14	3.270737E-16
4.700000E+03	1.697242E-14	3.227675E-16
4.710000E+03	1.678147E-14	3.181129E-16
4.720000E+03	1.657602E-14	3.131989E-16
4.730000E+03	1.636062E-14	3.081135E-16
4.740000E+03	1.613952E-14	3.029387E-16
4.750000E+03	1.591667E-14	2.977492E-16
4.760000E+03	1.569536E-14	2.926069E-16
4.770000E+03	1.547889E-14	2.875726E-16
4.780000E+03	1.526967E-14	2.826905E-16
4.790000E+03	1.506964E-14	2.779952E-16
4.800000E+03	1.488050E-14	2.735160E-16
4.810000E+03	1.470303E-14	2.692655E-16
4.820000E+03	1.453787E-14	2.652534E-16
4.830000E+03	1.438542E-14	2.614846E-16
4.840000E+03	1.424534E-14	2.579506E-16
4.850000E+03	1.411728E-14	2.546432E-16
4.860000E+03	1.400057E-14	2.515477E-16
4.870000E+03	1.389451E-14	2.486498E-16
4.880000E+03	1.379834E-14	2.459340E-16
4.890000E+03	1.371111E-14	2.433817E-16
4.900000E+03	1.363178E-14	2.409730E-16
4.910000E+03	1.355978E-14	2.386965E-16
4.920000E+03	1.349438E-14	2.365385E-16
4.930000E+03	1.343492E-14	2.344861E-16
4.940000E+03	1.338127E-14	2.325364E-16
4.950000E+03	1.333303E-14	2.306818E-16
4.960000E+03	1.329050E-14	2.289267E-16
4.970000E+03	1.325396E-14	2.272753E-16
4.980000E+03	1.322366E-14	2.257311E-16
4.990000E+03	1.320066E-14	2.243114E-16
5.000000E+03	1.318557E-14	2.230256E-16
5.010000E+03	1.317954E-14	2.218917E-16
5.020000E+03	1.318368E-14	2.209274E-16
5.030000E+03	1.319904E-14	2.201486E-16
5.040000E+03	1.322700E-14	2.195762E-16
5.050000E+03	1.326873E-14	2.192279E-16
5.060000E+03	1.332524E-14	2.191180E-16
5.070000E+03	1.339772E-14	2.192638E-16
5.080000E+03	1.348693E-14	2.196750E-16
5.090000E+03	1.359374E-14	2.203633E-16
5.100000E+03	1.371863E-14	2.213337E-16
5.110000E+03	1.386159E-14	2.225835E-16
5.120000E+03	1.402299E-14	2.241165E-16
5.130000E+03	1.420209E-14	2.259184E-16
5.140000E+03	1.439832E-14	2.279784E-16
5.150000E+03	1.461063E-14	2.302787E-16
5.160000E+03	1.483779E-14	2.327989E-16
5.170000E+03	1.507773E-14	2.355062E-16
5.180000E+03	1.532832E-14	2.383679E-16
5.190000E+03	1.558741E-14	2.413518E-16
5.200000E+03	1.585179E-14	2.444102E-16
5.210000E+03	1.611873E-14	2.475041E-16
5.220000E+03	1.638488E-14	2.505855E-16
5.230000E+03	1.664693E-14	2.536085E-16
5.240000E+03	1.690149E-14	2.565268E-16
5.250000E+03	1.714505E-14	2.592932E-16
5.260000E+03	1.737459E-14	2.618688E-16
5.270000E+03	1.758697E-14	2.642133E-16
5.280000E+03	1.777965E-14	2.662960E-16
5.290000E+03	1.794995E-14	2.680845E-16
5.300000E+03	1.809614E-14	2.695606E-16
5.310000E+03	1.821672E-14	2.707096E-16
5.320000E+03	1.831046E-14	2.715204E-16
5.330000E+03	1.837680E-14	2.719915E-16
5.340000E+03	1.841569E-14	2.721287E-16
5.350000E+03	1.842698E-14	2.719353E-16
5.360000E+03	1.841117E-14	2.714235E-16
5.370000E+03	1.836920E-14	2.706113E-16
5.380000E+03	1.830205E-14	2.695165E-16
5.390000E+03	1.821051E-14	2.681531E-16
5.400000E+03	1.809606E-14	2.665445E-16
5.410000E+03	1.795999E-14	2.647105E-16
5.420000E+03	1.780424E-14	2.626793E-16
5.430000E+03	1.763080E-14	2.604796E-16
5.440000E+03	1.744425E-14	2.581754E-16
5.450000E+03	1.725170E-14	2.558668E-16
5.460000E+03	1.705992E-14	2.536485E-16
5.470000E+03	1.687358E-14	2.515852E-16
5.480000E+03	1.669532E-14	2.497119E-16
5.490000E+03	1.652633E-14	2.480429E-16
5.500000E+03	1.636693E-14	2.465792E-16
5.510000E+03	1.621640E-14	2.453075E-16
5.520000E+03	1.607355E-14	2.442067E-16
5.530000E+03	1.593708E-14	2.432541E-16
5.540000E+03	1.580514E-14	2.424186E-16
5.550000E+03	1.567661E-14	2.416799E-16
5.560000E+03	1.555025E-14	2.410159E-16
5.570000E+03	1.542495E-14	2.404059E-16
5.580000E+03	1.530028E-14	2.398395E-16
5.590000E+03	1.517584E-14	2.393072E-16
5.600000E+03	1.505193E-14	2.388104E-16
5.610000E+03	1.492910E-14	2.383543E-16
5.620000E+03	1.480821E-14	2.379499E-16
5.630000E+03	1.469039E-14	2.376130E-16
5.640000E+03	1.457687E-14	2.373614E-16
5.650000E+03	1.446949E-14	2.372239E-16
5.660000E+03	1.436973E-14	2.372239E-16
5.670000E+03	1.427920E-14	2.373887E-16
5.680000E+03	1.419963E-14	2.377477E-16
5.690000E+03	1.413235E-14	2.383250E-16
5.700000E+03	1.407864E-14	2.391446E-16
5.710000E+03	1.403984E-14	2.402326E-16
5.720000E+03	1.401642E-14	2.416009E-16
5.730000E+03	1.400883E-14	2.432616E-16
5.740000E+03	1.401748E-14	2.452261E-16
5.750000E+03	1.404193E-14	2.474919E-16
5.760000E+03	1.408153E-14	2.500521E-16
5.770000E+03	1.413533E-14	2.528949E-16
5.780000E+03	1.420155E-14	2.559928E-16
5.790000E+03	1.427876E-14	2.593236E-16
5.800000E+03	1.436438E-14	2.628440E-16
5.810000E+03	1.445580E-14	2.665082E-16
5.820000E+03	1.455040E-14	2.702693E-16
5.830000E+03	1.464484E-14	2.740652E-16
5.840000E+03	1.473577E-14	2.778319E-16
5.850000E+03	1.481973E-14	2.815014E-16
5.860000E+03	1.489343E-14	2.850074E-16
5.870000E+03	1.495352E-14	2.882799E-16
5.880000E+03	1.499670E-14	2.912483E-16
5.890000E+03	1.502030E-14	2.938526E-16
5.900000E+03	1.502207E-14	2.960393E-16
5.910000E+03	1.499995E-14	2.977575E-16
5.920000E+03	1.495257E-14	2.989690E-16
5.930000E+03	1.487940E-14	2.996513E-16
5.940000E+03	1.478018E-14	2.997876E-16
5.950000E+03	1.465583E-14	2.993846E-16
5.960000E+03	1.450733E-14	2.984514E-16
5.970000E+03	1.433647E-14	2.970137E-16
5.980000E+03	1.414549E-14	2.951085E-16
5.990000E+03	1.393722E-14	2.927857E-16
6.000000E+03	1.371469E-14	2.901015E-16
6.010000E+03	1.348093E-14	2.871144E-16
6.020000E+03	1.323963E-14	2.838977E-16
6.030000E+03	1.299384E-14	2.805145E-16
6.040000E+03	1.274722E-14	2.770416E-16
6.050000E+03	1.250265E-14	2.735417E-16
6.060000E+03	1.226342E-14	2.700879E-16
6.070000E+03	1.203211E-14	2.667400E-16
6.080000E+03	1.181119E-14	2.635562E-16
6.090000E+03	1.160289E-14	2.605913E-16
6.100000E+03	1.140888E-14	2.578881E-16
6.110000E+03	1.123067E-14	2.554878E-16
6.120000E+03	1.106948E-14	2.534248E-16
6.130000E+03	1.092574E-14	2.517164E-16
6.140000E+03	1.080019E-14	2.503876E-16
6.150000E+03	1.069285E-14	2.494466E-16
6.160000E+03	1.060353E-14	2.488971E-16
6.170000E+03	1.053160E-14	2.487322E-16
6.180000E+03	1.047603E-14	2.489347E-16
6.190000E+03	1.043576E-14	2.494868E-16
6.200000E+03	1.040912E-14	2.503547E-16
6.210000E+03	1.039446E-14	2.515049E-16
6.220000E+03	1.038973E-14	2.528924E-16
6.230000E+03	1.039324E-14	2.544805E-16
6.240000E+03	1.040284E-14	2.562197E-16
6.250000E+03	1.041647E-14	2.580619E-16
6.260000E+03	1.043211E-14	2.599587E-16
6.270000E+03	1.044782E-14	2.618624E-16
6.280000E+03	1.046196E-14	2.637317E-16
6.290000E+03	1.047270E-14	2.655191E-16
6.300000E+03	1.047912E-14	2.671995E-16
6.310000E+03	1.047996E-14	2.687382E-16
6.320000E+03	1.047468E-14	2.701181E-16
6.330000E+03	1.046293E-14	2.713278E-16
6.340000E+03	1.044471E-14	2.723639E-16
6.350000E+03	1.042033E-14	2.732312E-16
6.360000E+03	1.039050E-14	2.739454E-16
6.370000E+03	1.035585E-14	2.745207E-16
6.380000E+03	1.031756E-14	2.749864E-16
6.390000E+03	1.027634E-14	2.753592E-16
6.400000E+03	1.023325E-14	2.756663E-16
6.410000E+03	1.018913E-14	2.759293E-16
6.420000E+03	1.014462E-14	2.761651E-16
6.430000E+03	1.010028E-14	2.763887E-16
6.440000E+03	1.005587E-14	2.765932E-16
6.450000E+03	1.001176E-14	2.767887E-16
6.460000E+03	9.967385E-15	2.769590E-16
6.470000E+03	9.922728E-15	2.771038E-16
6.480000E+03	9.878013E-15	2.772289E-16
6.490000E+03	9.833401E-15	2.773387E-16
6.500000E+03	9.788703E-15	2.774277E-16
6.510000E+03	9.743462E-15	2.774828E-16
6.520000E+03	9.697112E-15	2.774873E-16
6.530000E+03	9.649006E-15	2.774220E-16
6.540000E+03	9.597942E-15	2.772515E-16
6.550000E+03	9.543171E-15	2.769527E-16
6.560000E+03	9.483258E-15	2.764822E-16
6.570000E+03	9.417502E-15	2.758173E-16
6.580000E+03	9.345044E-15	2.749304E-16
6.590000E+03	9.265055E-15	2.737944E-16
6.600000E+03	9.177044E-15	2.723917E-16
6.610000E+03	9.080876E-15	2.707154E-16
6.620000E+03	8.976381E-15	2.687570E-16
6.630000E+03	8.863885E-15	2.665235E-16
6.640000E+03	8.743666E-15	2.640202E-16
6.650000E+03	8.616583E-15	2.612705E-16
6.660000E+03	8.483142E-15	2.582874E-16
6.670000E+03	8.344367E-15	2.551000E-16
6.680000E+03	8.201242E-15	2.517369E-16
6.690000E+03	8.054814E-15	2.482290E-16
6.700000E+03	7.906268E-15	2.446121E-16
6.710000E+03	7.756424E-15	2.409112E-16
6.720000E+03	7.606544E-15	2.371656E-16
6.730000E+03	7.457589E-15	2.334057E-16
6.740000E+03	7.310335E-15	2.296566E-16
6.750000E+03	7.165698E-15	2.259481E-16
6.760000E+03	7.024271E-15	2.223003E-16
6.770000E+03	6.886770E-15	2.187375E-16
6.780000E+03	6.753699E-15	2.152775E-16
6.790000E+03	6.625464E-15	2.119350E-16
6.800000E+03	6.502375E-15	2.087221E-16
6.810000E+03	6.384561E-15	2.056450E-16
6.820000E+03	6.272369E-15	2.027169E-16
6.830000E+03	6.165773E-15	1.999393E-16
6.840000E+03	6.064789E-15	1.973147E-16
6.850000E+03	5.969282E-15	1.948410E-16
6.860000E+03	5.879456E-15	1.925267E-16
6.870000E+03	5.794907E-15	1.903607E-16
6.880000E+03	5.715674E-15	1.883461E-16
6.890000E+03	5.641399E-15	1.864732E-16
6.900000E+03	5.572085E-15	1.847436E-16
6.910000E+03	5.507533E-15	1.831525E-16
6.920000E+03	5.447358E-15	1.816887E-16
6.930000E+03	5.391543E-15	1.803532E-16
6.940000E+03	5.339882E-15	1.791404E-16
6.950000E+03	5.292002E-15	1.780392E-16
6.960000E+03	5.247893E-15	1.770506E-16
6.970000E+03	5.207372E-15	1.761695E-16
6.980000E+03	5.170180E-15	1.753884E-16
6.990000E+03	5.136154E-15	1.747027E-16
7.000000E+03	5.105142E-15	1.741083E-16
7.010000E+03	5.077085E-15	1.736040E-16
7.020000E+03	5.051760E-15	1.731833E-16
7.030000E+03	5.029125E-15	1.728454E-16
7.040000E+03	5.008969E-15	1.725839E-16
7.050000E+03	4.991259E-15	1.723983E-16
7.060000E+03	4.975788E-15	1.722823E-16
7.070000E+03	4.962440E-15	1.722325E-16
7.080000E+03	4.951184E-15	1.722484E-16
7.090000E+03	4.941808E-15	1.723232E-16
7.100000E+03	4.934278E-15	1.724563E-16
7.110000E+03	4.928371E-15	1.726404E-16
7.120000E+03	4.924039E-15	1.728742E-16
7.130000E+03	4.921138E-15	1.731531E-16
7.140000E+03	4.919424E-15	1.734689E-16
7.150000E+03	4.918736E-15	1.738164E-16
7.160000E+03	4.919087E-15	1.741961E-16
7.170000E+03	4.920029E-15	1.745927E-16
7.180000E+03	4.921658E-15	1.750095E-16
7.190000E+03	4.923696E-15	1.754371E-16
7.200000E+03	4.925865E-15	1.758655E-16
7.210000E+03	4.928164E-15	1.762949E-16
7.220000E+03	4.930220E-15	1.767121E-16
7.230000E+03	4.932042E-15	1.771173E-16
7.240000E+03	4.933364E-15	1.775011E-16
7.250000E+03	4.934118E-15	1.778609E-16
7.260000E+03	4.934057E-15	1.781878E-16
7.270000E+03	4.933143E-15	1.784804E-16
7.280000E+03	4.931260E-15	1.787344E-16
7.290000E+03	4.928406E-15	1.789497E-16
7.300000E+03	4.924412E-15	1.791200E-16
7.310000E+03	4.919319E-15	1.792467E-16
7.320000E+03	4.913103E-15	1.793289E-16
7.330000E+03	4.905762E-15	1.793663E-16
7.340000E+03	4.897417E-15	1.793633E-16
7.350000E+03	4.888219E-15	1.793255E-16
7.360000E+03	4.878145E-15	1.792519E-16
7.370000E+03	4.867394E-15	1.791498E-16
7.380000E+03	4.856091E-15	1.790239E-16
7.390000E+03	4.844480E-15	1.788833E-16
7.400000E+03	4.832726E-15	1.787340E-16
7.410000E+03	4.821013E-15	1.785830E-16
7.420000E+03	4.809437E-15	1.784341E-16
7.430000E+03	4.798407E-15	1.783027E-16
7.440000E+03	4.787943E-15	1.781895E-16
7.450000E+03	4.778265E-15	1.781033E-16
7.460000E+03	4.769701E-15	1.780564E-16
7.470000E+03	4.762374E-15	1.780537E-16
7.480000E+03	4.756403E-15	1.781003E-16
7.490000E+03	4.752000E-15	1.782042E-16
7.500000E+03	4.749265E-15	1.783697E-16
7.510000E+03	4.748485E-15	1.786081E-16
7.520000E+03	4.749628E-15	1.789186E-16
7.530000E+03	4.752942E-15	1.793110E-16
7.540000E+03	4.758560E-15	1.797909E-16
7.550000E+03	4.766375E-15	1.803548E-16
7.560000E+03	4.776465E-15	1.810062E-16
7.570000E+03	4.788984E-15	1.817515E-16
7.580000E+03	4.803954E-15	1.825920E-16
7.590000E+03	4.821158E-15	1.835201E-16
7.600000E+03	4.840664E-15	1.845390E-16
7.610000E+03	4.862405E-15	1.856467E-16
7.620000E+03	4.886289E-15	1.868403E-16
7.630000E+03	4.912195E-15	1.881156E-16
7.640000E+03	4.939864E-15	1.894633E-16
7.650000E+03	4.969228E-15	1.908813E-16
7.660000E+03	4.999981E-15	1.923584E-16
7.670000E+03	5.031896E-15	1.938862E-16
7.680000E+03	5.064845E-15	1.954603E-16
7.690000E+03	5.098565E-15	1.970710E-16
7.700000E+03	5.132663E-15	1.987034E-16
7.710000E+03	5.166840E-15	2.003462E-16
7.720000E+03	5.200904E-15	2.019924E-16
7.730000E+03	5.234531E-15	2.036294E-16
7.740000E+03	5.267269E-15	2.052400E-16
7.750000E+03	5.298770E-15	2.068106E-16
7.760000E+03	5.328802E-15	2.083321E-16
