#wls	flux	fluxerr
1.600000E+03	9.244790E-16	6.490584E-17
1.640000E+03	8.357067E-16	5.823493E-17
1.680000E+03	7.547820E-16	5.219452E-17
1.720000E+03	6.814081E-16	4.675357E-17
1.760000E+03	6.157251E-16	4.191104E-17
1.800000E+03	5.574031E-16	3.763353E-17
1.840000E+03	5.063564E-16	3.390437E-17
1.880000E+03	4.622246E-16	3.068852E-17
1.920000E+03	4.246999E-16	2.795495E-17
1.960000E+03	3.933697E-16	2.566619E-17
2.000000E+03	3.678740E-16	2.378889E-17
2.040000E+03	3.477495E-16	2.228371E-17
2.080000E+03	3.326568E-16	2.112007E-17
2.120000E+03	3.221493E-16	2.026129E-17
2.160000E+03	3.162522E-16	1.970101E-17
2.200000E+03	3.148593E-16	1.942459E-17
2.240000E+03	3.179009E-16	1.941971E-17
2.280000E+03	3.252967E-16	1.967341E-17
2.320000E+03	3.369468E-16	2.017166E-17
2.360000E+03	3.529513E-16	2.091240E-17
2.400000E+03	3.733835E-16	2.189168E-17
2.440000E+03	3.982419E-16	2.310092E-17
2.480000E+03	4.273480E-16	2.452129E-17
2.520000E+03	4.603599E-16	2.612506E-17
2.560000E+03	4.968806E-16	2.788219E-17
2.600000E+03	5.362158E-16	2.974709E-17
2.640000E+03	5.777019E-16	3.167760E-17
2.680000E+03	6.204729E-16	3.362227E-17
2.720000E+03	6.635404E-16	3.552537E-17
2.760000E+03	7.062439E-16	3.735112E-17
2.800000E+03	7.478156E-16	3.905996E-17
2.840000E+03	7.878377E-16	4.063244E-17
2.880000E+03	8.258465E-16	4.204804E-17
2.920000E+03	8.616039E-16	4.329890E-17
2.960000E+03	8.953823E-16	4.440323E-17
3.000000E+03	9.274928E-16	4.538055E-17
3.010000E+03	9.353550E-16	4.561009E-17
3.020000E+03	9.432189E-16	4.583707E-17
3.030000E+03	9.510018E-16	4.605749E-17
3.040000E+03	9.587155E-16	4.627196E-17
3.050000E+03	9.665634E-16	4.649028E-17
3.060000E+03	9.742738E-16	4.669937E-17
3.070000E+03	9.821448E-16	4.691353E-17
3.080000E+03	9.900020E-16	4.712438E-17
3.090000E+03	9.979538E-16	4.733707E-17
3.100000E+03	1.006016E-15	4.755231E-17
3.110000E+03	1.014111E-15	4.776634E-17
3.120000E+03	1.022443E-15	4.798876E-17
3.130000E+03	1.030839E-15	4.821138E-17
3.140000E+03	1.039506E-15	4.844380E-17
3.150000E+03	1.048272E-15	4.867786E-17
3.160000E+03	1.057345E-15	4.892318E-17
3.170000E+03	1.066648E-15	4.917604E-17
3.180000E+03	1.076295E-15	4.944158E-17
3.190000E+03	1.086210E-15	4.971609E-17
3.200000E+03	1.096506E-15	5.000468E-17
3.210000E+03	1.107107E-15	5.030363E-17
3.220000E+03	1.118129E-15	5.061812E-17
3.230000E+03	1.129593E-15	5.094878E-17
3.240000E+03	1.141517E-15	5.129630E-17
3.250000E+03	1.154017E-15	5.166561E-17
3.260000E+03	1.166919E-15	5.204863E-17
3.270000E+03	1.180435E-15	5.245463E-17
3.280000E+03	1.194583E-15	5.288408E-17
3.290000E+03	1.209378E-15	5.333738E-17
3.300000E+03	1.224736E-15	5.381045E-17
3.310000E+03	1.240866E-15	5.431219E-17
3.320000E+03	1.257677E-15	5.483825E-17
3.330000E+03	1.275274E-15	5.539288E-17
3.340000E+03	1.293656E-15	5.597565E-17
3.350000E+03	1.312819E-15	5.658594E-17
3.360000E+03	1.332748E-15	5.722282E-17
3.370000E+03	1.353526E-15	5.788942E-17
3.380000E+03	1.375126E-15	5.858414E-17
3.390000E+03	1.397507E-15	5.930494E-17
3.400000E+03	1.420725E-15	6.005375E-17
3.410000E+03	1.444722E-15	6.082771E-17
3.420000E+03	1.469425E-15	6.162343E-17
3.430000E+03	1.494858E-15	6.244155E-17
3.440000E+03	1.520932E-15	6.327801E-17
3.450000E+03	1.547545E-15	6.412836E-17
3.460000E+03	1.574709E-15	6.499279E-17
3.470000E+03	1.602439E-15	6.587168E-17
3.480000E+03	1.630559E-15	6.675757E-17
3.490000E+03	1.659271E-15	6.765854E-17
3.500000E+03	1.688483E-15	6.857060E-17
3.510000E+03	1.718445E-15	6.950363E-17
3.520000E+03	1.749084E-15	7.045436E-17
3.530000E+03	1.780421E-15	7.142336E-17
3.540000E+03	1.812688E-15	7.241957E-17
3.550000E+03	1.845773E-15	7.343813E-17
3.560000E+03	1.879767E-15	7.448225E-17
3.570000E+03	1.914519E-15	7.554564E-17
3.580000E+03	1.950088E-15	7.663021E-17
3.590000E+03	1.986412E-15	7.773312E-17
3.600000E+03	2.023303E-15	7.884675E-17
3.610000E+03	2.060780E-15	7.997159E-17
3.620000E+03	2.098740E-15	8.110333E-17
3.630000E+03	2.136844E-15	8.222876E-17
3.640000E+03	2.175186E-15	8.335140E-17
3.650000E+03	2.213624E-15	8.446577E-17
3.660000E+03	2.251804E-15	8.555842E-17
3.670000E+03	2.289831E-15	8.663337E-17
3.680000E+03	2.327413E-15	8.767982E-17
3.690000E+03	2.364639E-15	8.870132E-17
3.700000E+03	2.401477E-15	8.969687E-17
3.710000E+03	2.438257E-15	9.067896E-17
3.720000E+03	2.475223E-15	9.165668E-17
3.730000E+03	2.512867E-15	9.264811E-17
3.740000E+03	2.551889E-15	9.367867E-17
3.750000E+03	2.593126E-15	9.477834E-17
3.760000E+03	2.637423E-15	9.597678E-17
3.770000E+03	2.685848E-15	9.731136E-17
3.780000E+03	2.739532E-15	9.882090E-17
3.790000E+03	2.799493E-15	1.005395E-16
3.800000E+03	2.866908E-15	1.025064E-16
3.810000E+03	2.942664E-15	1.047496E-16
3.820000E+03	3.027583E-15	1.072945E-16
3.830000E+03	3.122208E-15	1.101559E-16
3.840000E+03	3.226596E-15	1.133314E-16
3.850000E+03	3.340886E-15	1.168213E-16
3.860000E+03	3.464282E-15	1.205934E-16
3.870000E+03	3.595851E-15	1.246113E-16
3.880000E+03	3.733847E-15	1.288111E-16
3.890000E+03	3.876438E-15	1.331271E-16
3.900000E+03	4.020714E-15	1.374578E-16
3.910000E+03	4.163965E-15	1.417104E-16
3.920000E+03	4.302698E-15	1.457674E-16
3.930000E+03	4.433479E-15	1.495152E-16
3.940000E+03	4.552878E-15	1.528427E-16
3.950000E+03	4.657711E-15	1.556488E-16
3.960000E+03	4.745039E-15	1.578428E-16
3.970000E+03	4.812647E-15	1.593596E-16
3.980000E+03	4.859033E-15	1.601588E-16
3.990000E+03	4.883670E-15	1.602330E-16
4.000000E+03	4.886931E-15	1.596044E-16
4.010000E+03	4.870069E-15	1.583234E-16
4.020000E+03	4.835229E-15	1.564687E-16
4.030000E+03	4.785009E-15	1.541320E-16
4.040000E+03	4.722700E-15	1.514257E-16
4.050000E+03	4.651469E-15	1.484562E-16
4.060000E+03	4.574810E-15	1.453386E-16
4.070000E+03	4.495856E-15	1.421741E-16
4.080000E+03	4.417605E-15	1.390582E-16
4.090000E+03	4.342624E-15	1.360709E-16
4.100000E+03	4.273184E-15	1.332816E-16
4.110000E+03	4.211181E-15	1.307467E-16
4.120000E+03	4.158058E-15	1.285077E-16
4.130000E+03	4.115059E-15	1.265989E-16
4.140000E+03	4.082928E-15	1.250389E-16
4.150000E+03	4.062097E-15	1.238363E-16
4.160000E+03	4.052883E-15	1.229962E-16
4.170000E+03	4.054913E-15	1.225026E-16
4.180000E+03	4.067959E-15	1.223442E-16
4.190000E+03	4.091161E-15	1.224908E-16
4.200000E+03	4.123719E-15	1.229149E-16
4.210000E+03	4.164361E-15	1.235751E-16
4.220000E+03	4.211538E-15	1.244228E-16
4.230000E+03	4.263695E-15	1.254100E-16
4.240000E+03	4.318743E-15	1.264740E-16
4.250000E+03	4.374684E-15	1.275558E-16
4.260000E+03	4.429021E-15	1.285829E-16
4.270000E+03	4.479418E-15	1.294889E-16
4.280000E+03	4.523265E-15	1.302005E-16
4.290000E+03	4.557859E-15	1.306430E-16
4.300000E+03	4.580775E-15	1.307510E-16
4.310000E+03	4.589760E-15	1.304648E-16
4.320000E+03	4.583039E-15	1.297393E-16
4.330000E+03	4.559363E-15	1.285452E-16
4.340000E+03	4.518324E-15	1.268767E-16
4.350000E+03	4.460433E-15	1.247540E-16
4.360000E+03	4.387437E-15	1.222314E-16
4.370000E+03	4.302512E-15	1.194017E-16
4.380000E+03	4.211036E-15	1.164171E-16
4.390000E+03	4.118883E-15	1.134412E-16
4.400000E+03	4.032009E-15	1.106373E-16
4.410000E+03	3.955831E-15	1.081510E-16
4.420000E+03	3.895044E-15	1.061065E-16
4.430000E+03	3.853644E-15	1.046072E-16
4.440000E+03	3.834925E-15	1.037360E-16
4.450000E+03	3.841755E-15	1.035636E-16
4.460000E+03	3.876132E-15	1.041363E-16
4.470000E+03	3.939893E-15	1.054958E-16
4.480000E+03	4.034419E-15	1.076709E-16
4.490000E+03	4.160380E-15	1.106717E-16
4.500000E+03	4.318104E-15	1.144989E-16
4.510000E+03	4.507131E-15	1.191325E-16
4.520000E+03	4.725997E-15	1.245268E-16
4.530000E+03	4.971801E-15	1.305985E-16
4.540000E+03	5.240363E-15	1.372324E-16
4.550000E+03	5.525460E-15	1.442610E-16
4.560000E+03	5.819034E-15	1.514713E-16
4.570000E+03	6.111252E-15	1.586067E-16
4.580000E+03	6.390881E-15	1.653775E-16
4.590000E+03	6.646013E-15	1.714796E-16
4.600000E+03	6.864722E-15	1.766122E-16
4.610000E+03	7.036583E-15	1.805161E-16
4.620000E+03	7.153190E-15	1.829866E-16
4.630000E+03	7.209276E-15	1.839015E-16
4.640000E+03	7.203604E-15	1.832420E-16
4.650000E+03	7.138622E-15	1.810832E-16
4.660000E+03	7.020031E-15	1.775815E-16
4.670000E+03	6.856841E-15	1.729749E-16
4.680000E+03	6.659644E-15	1.675389E-16
4.690000E+03	6.439768E-15	1.615639E-16
4.700000E+03	6.208528E-15	1.553374E-16
4.710000E+03	5.976342E-15	1.491211E-16
4.720000E+03	5.752030E-15	1.431342E-16
4.730000E+03	5.542813E-15	1.375540E-16
4.740000E+03	5.354112E-15	1.325111E-16
4.750000E+03	5.189773E-15	1.280960E-16
4.760000E+03	5.051947E-15	1.243566E-16
4.770000E+03	4.941747E-15	1.213147E-16
4.780000E+03	4.859452E-15	1.189713E-16
4.790000E+03	4.804425E-15	1.173052E-16
4.800000E+03	4.775656E-15	1.162862E-16
4.810000E+03	4.771841E-15	1.158775E-16
4.820000E+03	4.791250E-15	1.160319E-16
4.830000E+03	4.831729E-15	1.166929E-16
4.840000E+03	4.890976E-15	1.178008E-16
4.850000E+03	4.966308E-15	1.192873E-16
4.860000E+03	5.054742E-15	1.210778E-16
4.870000E+03	5.152855E-15	1.230878E-16
4.880000E+03	5.256606E-15	1.252192E-16
4.890000E+03	5.361538E-15	1.273651E-16
4.900000E+03	5.462772E-15	1.294094E-16
4.910000E+03	5.554827E-15	1.312237E-16
4.920000E+03	5.632206E-15	1.326801E-16
4.930000E+03	5.689713E-15	1.336596E-16
4.940000E+03	5.723042E-15	1.340654E-16
4.950000E+03	5.728742E-15	1.338215E-16
4.960000E+03	5.704989E-15	1.328913E-16
4.970000E+03	5.651747E-15	1.312795E-16
4.980000E+03	5.570621E-15	1.290295E-16
4.990000E+03	5.464545E-15	1.262146E-16
5.000000E+03	5.337948E-15	1.229416E-16
5.010000E+03	5.196127E-15	1.193365E-16
5.020000E+03	5.044603E-15	1.155288E-16
5.030000E+03	4.889142E-15	1.116520E-16
5.040000E+03	4.735145E-15	1.078299E-16
5.050000E+03	4.587369E-15	1.041705E-16
5.060000E+03	4.449758E-15	1.007618E-16
5.070000E+03	4.325679E-15	9.767791E-17
5.080000E+03	4.217618E-15	9.497236E-17
5.090000E+03	4.127611E-15	9.268790E-17
5.100000E+03	4.057115E-15	9.085386E-17
5.110000E+03	4.007142E-15	8.948930E-17
5.120000E+03	3.978606E-15	8.861096E-17
5.130000E+03	3.971957E-15	8.822512E-17
5.140000E+03	3.987713E-15	8.833958E-17
5.150000E+03	4.025957E-15	8.895251E-17
5.160000E+03	4.086768E-15	9.006211E-17
5.170000E+03	4.169825E-15	9.165793E-17
5.180000E+03	4.274544E-15	9.372396E-17
5.190000E+03	4.399984E-15	9.623674E-17
5.200000E+03	4.544671E-15	9.916156E-17
5.210000E+03	4.706522E-15	1.024509E-16
5.220000E+03	4.882852E-15	1.060450E-16
5.230000E+03	5.070415E-15	1.098724E-16
5.240000E+03	5.265406E-15	1.138505E-16
5.250000E+03	5.463509E-15	1.178867E-16
5.260000E+03	5.660132E-15	1.218832E-16
5.270000E+03	5.850777E-15	1.257450E-16
5.280000E+03	6.031301E-15	1.293858E-16
5.290000E+03	6.198115E-15	1.327316E-16
5.300000E+03	6.348866E-15	1.357352E-16
5.310000E+03	6.482392E-15	1.383753E-16
5.320000E+03	6.598993E-15	1.406616E-16
5.330000E+03	6.701009E-15	1.426470E-16
5.340000E+03	6.792237E-15	1.444148E-16
5.350000E+03	6.878034E-15	1.460813E-16
5.360000E+03	6.965098E-15	1.477903E-16
5.370000E+03	7.061217E-15	1.497085E-16
5.380000E+03	7.174498E-15	1.520086E-16
5.390000E+03	7.313406E-15	1.548710E-16
5.400000E+03	7.486257E-15	1.584732E-16
5.410000E+03	7.700916E-15	1.629831E-16
5.420000E+03	7.963687E-15	1.685368E-16
5.430000E+03	8.279596E-15	1.752441E-16
5.440000E+03	8.651313E-15	1.831662E-16
5.450000E+03	9.077703E-15	1.922851E-16
5.460000E+03	9.553430E-15	2.024952E-16
5.470000E+03	1.006872E-14	2.135978E-16
5.480000E+03	1.060979E-14	2.253095E-16
5.490000E+03	1.115909E-14	2.372662E-16
5.500000E+03	1.169622E-14	2.490419E-16
5.510000E+03	1.219992E-14	2.601874E-16
5.520000E+03	1.264854E-14	2.702425E-16
5.530000E+03	1.302199E-14	2.787746E-16
5.540000E+03	1.330354E-14	2.854186E-16
5.550000E+03	1.348086E-14	2.898984E-16
5.560000E+03	1.354678E-14	2.920450E-16
5.570000E+03	1.350013E-14	2.918141E-16
5.580000E+03	1.334506E-14	2.892747E-16
5.590000E+03	1.309102E-14	2.846093E-16
5.600000E+03	1.275172E-14	2.780945E-16
5.610000E+03	1.234356E-14	2.700668E-16
5.620000E+03	1.188504E-14	2.609126E-16
5.630000E+03	1.139527E-14	2.510369E-16
5.640000E+03	1.089262E-14	2.408326E-16
5.650000E+03	1.039401E-14	2.306670E-16
5.660000E+03	9.914104E-15	2.208624E-16
5.670000E+03	9.464991E-15	2.116894E-16
5.680000E+03	9.055839E-15	2.033574E-16
5.690000E+03	8.693219E-15	1.960216E-16
5.700000E+03	8.381218E-15	1.897841E-16
5.710000E+03	8.122043E-15	1.847066E-16
5.720000E+03	7.915930E-15	1.808074E-16
5.730000E+03	7.761938E-15	1.780788E-16
5.740000E+03	7.658085E-15	1.764895E-16
5.750000E+03	7.601093E-15	1.759777E-16
5.760000E+03	7.586799E-15	1.764606E-16
5.770000E+03	7.610463E-15	1.778403E-16
5.780000E+03	7.666241E-15	1.799917E-16
5.790000E+03	7.747688E-15	1.827730E-16
5.800000E+03	7.847582E-15	1.860214E-16
5.810000E+03	7.958204E-15	1.895592E-16
5.820000E+03	8.071334E-15	1.931933E-16
5.830000E+03	8.178625E-15	1.967235E-16
5.840000E+03	8.272184E-15	1.999569E-16
5.850000E+03	8.344817E-15	2.027136E-16
5.860000E+03	8.390205E-15	2.048316E-16
5.870000E+03	8.403780E-15	2.061884E-16
5.880000E+03	8.382334E-15	2.066929E-16
5.890000E+03	8.324712E-15	2.063029E-16
5.900000E+03	8.231400E-15	2.050167E-16
5.910000E+03	8.104485E-15	2.028723E-16
5.920000E+03	7.947589E-15	1.999475E-16
5.930000E+03	7.765029E-15	1.963395E-16
5.940000E+03	7.562240E-15	1.921758E-16
5.950000E+03	7.344490E-15	1.875826E-16
5.960000E+03	7.117447E-15	1.826989E-16
5.970000E+03	6.886257E-15	1.776533E-16
5.980000E+03	6.655532E-15	1.725631E-16
5.990000E+03	6.429355E-15	1.675343E-16
6.000000E+03	6.210931E-15	1.626522E-16
6.010000E+03	6.002725E-15	1.579841E-16
6.020000E+03	5.806344E-15	1.535763E-16
6.030000E+03	5.622835E-15	1.494608E-16
6.040000E+03	5.452476E-15	1.456498E-16
6.050000E+03	5.295169E-15	1.421455E-16
6.060000E+03	5.150356E-15	1.389380E-16
6.070000E+03	5.017288E-15	1.360116E-16
6.080000E+03	4.895157E-15	1.333487E-16
6.090000E+03	4.783158E-15	1.309315E-16
6.100000E+03	4.680521E-15	1.287428E-16
6.110000E+03	4.586794E-15	1.267736E-16
6.120000E+03	4.501727E-15	1.250205E-16
6.130000E+03	4.425221E-15	1.234841E-16
6.140000E+03	4.357617E-15	1.221772E-16
6.150000E+03	4.299356E-15	1.211158E-16
6.160000E+03	4.251010E-15	1.203198E-16
6.170000E+03	4.213364E-15	1.198153E-16
6.180000E+03	4.187276E-15	1.196312E-16
6.190000E+03	4.173478E-15	1.197930E-16
6.200000E+03	4.172525E-15	1.203217E-16
6.210000E+03	4.184928E-15	1.212371E-16
6.220000E+03	4.210914E-15	1.225513E-16
6.230000E+03	4.250511E-15	1.242704E-16
6.240000E+03	4.303523E-15	1.263941E-16
6.250000E+03	4.369700E-15	1.289204E-16
6.260000E+03	4.448641E-15	1.318428E-16
6.270000E+03	4.539887E-15	1.351527E-16
6.280000E+03	4.643058E-15	1.388437E-16
6.290000E+03	4.757672E-15	1.429060E-16
6.300000E+03	4.883389E-15	1.473341E-16
6.310000E+03	5.019754E-15	1.521187E-16
6.320000E+03	5.166273E-15	1.572490E-16
6.330000E+03	5.322530E-15	1.627165E-16
6.340000E+03	5.487880E-15	1.685053E-16
6.350000E+03	5.661614E-15	1.745973E-16
6.360000E+03	5.843140E-15	1.809776E-16
6.370000E+03	6.031892E-15	1.876318E-16
6.380000E+03	6.227215E-15	1.945424E-16
6.390000E+03	6.428978E-15	2.017078E-16
6.400000E+03	6.637418E-15	2.091379E-16
6.410000E+03	6.853185E-15	2.168557E-16
6.420000E+03	7.077416E-15	2.249001E-16
6.430000E+03	7.311684E-15	2.333245E-16
6.440000E+03	7.557841E-15	2.421918E-16
6.450000E+03	7.817322E-15	2.515528E-16
6.460000E+03	8.090528E-15	2.614255E-16
6.470000E+03	8.375539E-15	2.717527E-16
6.480000E+03	8.667274E-15	2.823731E-16
6.490000E+03	8.958674E-15	2.930581E-16
6.500000E+03	9.241043E-15	3.035215E-16
6.510000E+03	9.504887E-15	3.134462E-16
6.520000E+03	9.740414E-15	3.225000E-16
6.530000E+03	9.938711E-15	3.303750E-16
6.540000E+03	1.009157E-14	3.367823E-16
6.550000E+03	1.019289E-14	3.414988E-16
6.560000E+03	1.023846E-14	3.443624E-16
6.570000E+03	1.022621E-14	3.452811E-16
6.580000E+03	1.015669E-14	3.442507E-16
6.590000E+03	1.003234E-14	3.413319E-16
6.600000E+03	9.857624E-15	3.366560E-16
6.610000E+03	9.638539E-15	3.304091E-16
6.620000E+03	9.382275E-15	3.228215E-16
6.630000E+03	9.096759E-15	3.141532E-16
6.640000E+03	8.790014E-15	3.046715E-16
6.650000E+03	8.469855E-15	2.946404E-16
6.660000E+03	8.143778E-15	2.843171E-16
6.670000E+03	7.818390E-15	2.739312E-16
6.680000E+03	7.499439E-15	2.636858E-16
6.690000E+03	7.191740E-15	2.537535E-16
6.700000E+03	6.898884E-15	2.442662E-16
6.710000E+03	6.623677E-15	2.353296E-16
6.720000E+03	6.367860E-15	2.270126E-16
6.730000E+03	6.132591E-15	2.193642E-16
6.740000E+03	5.918045E-15	2.123985E-16
6.750000E+03	5.724136E-15	2.061203E-16
6.760000E+03	5.550119E-15	2.005104E-16
6.770000E+03	5.394985E-15	1.955397E-16
6.780000E+03	5.257546E-15	1.911719E-16
6.790000E+03	5.136400E-15	1.873623E-16
6.800000E+03	5.029999E-15	1.840602E-16
6.810000E+03	4.936944E-15	1.812195E-16
6.820000E+03	4.855593E-15	1.787846E-16
6.830000E+03	4.784554E-15	1.767081E-16
6.840000E+03	4.722484E-15	1.749441E-16
6.850000E+03	4.667995E-15	1.734439E-16
6.860000E+03	4.619884E-15	1.721655E-16
6.870000E+03	4.577032E-15	1.710693E-16
6.880000E+03	4.538476E-15	1.701208E-16
6.890000E+03	4.503269E-15	1.692861E-16
6.900000E+03	4.470675E-15	1.685386E-16
6.910000E+03	4.439942E-15	1.678506E-16
6.920000E+03	4.410559E-15	1.672036E-16
6.930000E+03	4.382000E-15	1.665780E-16
6.940000E+03	4.353942E-15	1.659618E-16
6.950000E+03	4.326127E-15	1.653454E-16
6.960000E+03	4.298336E-15	1.647205E-16
6.970000E+03	4.270495E-15	1.640844E-16
6.980000E+03	4.242755E-15	1.634431E-16
6.990000E+03	4.215075E-15	1.627948E-16
7.000000E+03	4.187825E-15	1.621543E-16
7.010000E+03	4.161143E-15	1.615269E-16
7.020000E+03	4.135502E-15	1.609313E-16
7.030000E+03	4.111305E-15	1.603837E-16
7.040000E+03	4.088963E-15	1.599006E-16
7.050000E+03	4.068952E-15	1.595013E-16
7.060000E+03	4.051735E-15	1.592047E-16
7.070000E+03	4.037773E-15	1.590298E-16
7.080000E+03	4.027538E-15	1.589963E-16
7.090000E+03	4.021282E-15	1.591150E-16
7.100000E+03	4.019355E-15	1.594012E-16
7.110000E+03	4.021976E-15	1.598647E-16
7.120000E+03	4.029222E-15	1.605098E-16
7.130000E+03	4.041188E-15	1.613416E-16
7.140000E+03	4.057775E-15	1.623573E-16
7.150000E+03	4.078843E-15	1.635526E-16
7.160000E+03	4.104176E-15	1.649199E-16
7.170000E+03	4.133428E-15	1.664463E-16
7.180000E+03	4.166351E-15	1.681230E-16
7.190000E+03	4.202377E-15	1.699278E-16
7.200000E+03	4.241117E-15	1.718457E-16
7.210000E+03	4.282160E-15	1.738607E-16
7.220000E+03	4.324867E-15	1.759473E-16
7.230000E+03	4.368879E-15	1.780913E-16
7.240000E+03	4.413678E-15	1.802718E-16
7.250000E+03	4.458773E-15	1.824690E-16
7.260000E+03	4.503815E-15	1.846685E-16
7.270000E+03	4.548287E-15	1.868491E-16
7.280000E+03	4.591831E-15	1.889960E-16
7.290000E+03	4.634162E-15	1.910971E-16
7.300000E+03	4.674815E-15	1.931331E-16
7.310000E+03	4.713462E-15	1.950899E-16
7.320000E+03	4.749712E-15	1.969510E-16
7.330000E+03	4.783291E-15	1.987045E-16
7.340000E+03	4.813739E-15	2.003305E-16
7.350000E+03	4.840659E-15	2.018121E-16
7.360000E+03	4.863800E-15	2.031379E-16
7.370000E+03	4.882817E-15	2.042927E-16
7.380000E+03	4.897418E-15	2.052636E-16
7.390000E+03	4.907451E-15	2.060431E-16
7.400000E+03	4.912743E-15	2.066232E-16
7.410000E+03	4.913447E-15	2.070094E-16
7.420000E+03	4.909787E-15	2.072102E-16
7.430000E+03	4.901966E-15	2.072334E-16
7.440000E+03	4.890674E-15	2.071075E-16
7.450000E+03	4.876595E-15	2.068608E-16
7.460000E+03	4.860524E-15	2.065267E-16
7.470000E+03	4.843350E-15	2.061427E-16
7.480000E+03	4.826089E-15	2.057520E-16
7.490000E+03	4.809732E-15	2.053970E-16
7.500000E+03	4.795336E-15	2.051234E-16
7.510000E+03	4.783930E-15	2.049757E-16
7.520000E+03	4.776475E-15	2.049959E-16
7.530000E+03	4.773635E-15	2.052136E-16
7.540000E+03	4.776350E-15	2.056704E-16
7.550000E+03	4.784938E-15	2.063814E-16
7.560000E+03	4.799944E-15	2.073714E-16
7.570000E+03	4.821525E-15	2.086487E-16
7.580000E+03	4.849562E-15	2.102099E-16
7.590000E+03	4.883931E-15	2.120510E-16
7.600000E+03	4.924085E-15	2.141499E-16
7.610000E+03	4.969472E-15	2.164839E-16
7.620000E+03	5.019122E-15	2.190120E-16
7.630000E+03	5.071940E-15	2.216875E-16
7.640000E+03	5.126724E-15	2.244586E-16
7.650000E+03	5.182051E-15	2.272637E-16
7.660000E+03	5.236386E-15	2.300357E-16
7.670000E+03	5.288117E-15	2.327037E-16
7.680000E+03	5.335607E-15	2.351951E-16
7.690000E+03	5.377331E-15	2.374419E-16
7.700000E+03	5.411767E-15	2.393757E-16
7.710000E+03	5.437467E-15	2.409310E-16
7.720000E+03	5.453251E-15	2.420536E-16
7.730000E+03	5.458277E-15	2.427040E-16
7.740000E+03	5.451833E-15	2.428480E-16
7.750000E+03	5.433685E-15	2.424728E-16
7.760000E+03	5.403777E-15	2.415732E-16
