#wls	flux	fluxerr
1.600000E+03	9.420687E-16	1.014236E-16
1.640000E+03	8.428526E-16	8.972009E-17
1.680000E+03	7.518418E-16	7.911095E-17
1.720000E+03	6.692585E-16	6.959318E-17
1.760000E+03	5.950337E-16	6.113194E-17
1.800000E+03	5.290687E-16	5.368887E-17
1.840000E+03	4.710552E-16	4.720439E-17
1.880000E+03	4.206245E-16	4.161386E-17
1.920000E+03	3.775575E-16	3.686851E-17
1.960000E+03	3.413947E-16	3.289705E-17
2.000000E+03	3.117202E-16	2.963429E-17
2.040000E+03	2.882738E-16	2.703143E-17
2.080000E+03	2.708094E-16	2.504212E-17
2.120000E+03	2.591679E-16	2.362902E-17
2.160000E+03	2.528764E-16	2.272736E-17
2.200000E+03	2.517716E-16	2.230225E-17
2.240000E+03	2.556901E-16	2.231973E-17
2.280000E+03	2.646796E-16	2.276497E-17
2.320000E+03	2.790016E-16	2.364101E-17
2.360000E+03	2.989305E-16	2.495058E-17
2.400000E+03	3.248842E-16	2.670694E-17
2.440000E+03	3.571995E-16	2.891487E-17
2.480000E+03	3.960439E-16	3.156419E-17
2.520000E+03	4.414329E-16	3.463211E-17
2.560000E+03	4.931600E-16	3.807886E-17
2.600000E+03	5.508976E-16	4.185668E-17
2.640000E+03	6.139858E-16	4.589483E-17
2.680000E+03	6.812989E-16	5.009185E-17
2.720000E+03	7.509413E-16	5.429638E-17
2.760000E+03	8.210238E-16	5.836711E-17
2.800000E+03	8.899033E-16	6.218937E-17
2.840000E+03	9.560805E-16	6.566663E-17
2.880000E+03	1.018365E-15	6.873069E-17
2.920000E+03	1.075738E-15	7.133068E-17
2.960000E+03	1.128198E-15	7.348694E-17
3.000000E+03	1.175826E-15	7.522539E-17
3.010000E+03	1.186972E-15	7.559675E-17
3.020000E+03	1.197982E-15	7.595412E-17
3.030000E+03	1.208775E-15	7.629258E-17
3.040000E+03	1.219367E-15	7.661333E-17
3.050000E+03	1.229774E-15	7.691770E-17
3.060000E+03	1.240014E-15	7.720700E-17
3.070000E+03	1.250104E-15	7.748250E-17
3.080000E+03	1.260065E-15	7.774561E-17
3.090000E+03	1.270008E-15	7.800340E-17
3.100000E+03	1.279860E-15	7.825137E-17
3.110000E+03	1.289640E-15	7.849083E-17
3.120000E+03	1.299464E-15	7.872874E-17
3.130000E+03	1.309258E-15	7.896072E-17
3.140000E+03	1.319137E-15	7.919368E-17
3.150000E+03	1.329122E-15	7.942880E-17
3.160000E+03	1.339141E-15	7.966174E-17
3.170000E+03	1.349310E-15	7.989930E-17
3.180000E+03	1.359744E-15	8.014813E-17
3.190000E+03	1.370277E-15	8.039841E-17
3.200000E+03	1.381119E-15	8.066219E-17
3.210000E+03	1.392107E-15	8.092981E-17
3.220000E+03	1.403541E-15	8.121857E-17
3.230000E+03	1.415260E-15	8.151879E-17
3.240000E+03	1.427287E-15	8.183164E-17
3.250000E+03	1.439834E-15	8.216887E-17
3.260000E+03	1.452740E-15	8.252106E-17
3.270000E+03	1.466216E-15	8.289985E-17
3.280000E+03	1.480200E-15	8.330126E-17
3.290000E+03	1.494812E-15	8.373175E-17
3.300000E+03	1.509993E-15	8.418745E-17
3.310000E+03	1.525869E-15	8.467495E-17
3.320000E+03	1.542570E-15	8.520101E-17
3.330000E+03	1.560044E-15	8.576208E-17
3.340000E+03	1.578420E-15	8.636466E-17
3.350000E+03	1.597715E-15	8.700910E-17
3.360000E+03	1.617944E-15	8.769545E-17
3.370000E+03	1.639211E-15	8.842867E-17
3.380000E+03	1.661511E-15	8.920785E-17
3.390000E+03	1.684841E-15	9.003198E-17
3.400000E+03	1.709289E-15	9.090508E-17
3.410000E+03	1.734843E-15	9.182566E-17
3.420000E+03	1.761681E-15	9.280241E-17
3.430000E+03	1.789608E-15	9.382420E-17
3.440000E+03	1.818795E-15	9.489924E-17
3.450000E+03	1.849331E-15	9.603123E-17
3.460000E+03	1.881207E-15	9.721882E-17
3.470000E+03	1.914473E-15	9.846370E-17
3.480000E+03	1.949202E-15	9.976868E-17
3.490000E+03	1.985327E-15	1.011293E-16
3.500000E+03	2.023260E-15	1.025658E-16
3.510000E+03	2.062859E-15	1.040694E-16
3.520000E+03	2.104375E-15	1.056520E-16
3.530000E+03	2.147830E-15	1.073133E-16
3.540000E+03	2.193435E-15	1.090626E-16
3.550000E+03	2.241100E-15	1.108940E-16
3.560000E+03	2.290775E-15	1.128037E-16
3.570000E+03	2.342292E-15	1.147822E-16
3.580000E+03	2.395664E-15	1.168288E-16
3.590000E+03	2.450563E-15	1.189264E-16
3.600000E+03	2.506942E-15	1.210714E-16
3.610000E+03	2.564520E-15	1.232495E-16
3.620000E+03	2.623052E-15	1.254480E-16
3.630000E+03	2.682055E-15	1.276433E-16
3.640000E+03	2.741399E-15	1.298289E-16
3.650000E+03	2.800336E-15	1.319693E-16
3.660000E+03	2.858475E-15	1.340463E-16
3.670000E+03	2.915206E-15	1.360320E-16
3.680000E+03	2.970020E-15	1.379038E-16
3.690000E+03	3.022229E-15	1.396311E-16
3.700000E+03	3.071697E-15	1.412094E-16
3.710000E+03	3.118228E-15	1.426316E-16
3.720000E+03	3.162043E-15	1.439096E-16
3.730000E+03	3.203541E-15	1.450634E-16
3.740000E+03	3.243758E-15	1.461412E-16
3.750000E+03	3.283940E-15	1.471995E-16
3.760000E+03	3.325757E-15	1.483129E-16
3.770000E+03	3.370945E-15	1.495571E-16
3.780000E+03	3.421652E-15	1.510246E-16
3.790000E+03	3.480042E-15	1.528065E-16
3.800000E+03	3.548100E-15	1.549842E-16
3.810000E+03	3.627602E-15	1.576284E-16
3.820000E+03	3.720553E-15	1.608175E-16
3.830000E+03	3.827786E-15	1.645783E-16
3.840000E+03	3.950252E-15	1.689417E-16
3.850000E+03	4.088356E-15	1.739142E-16
3.860000E+03	4.241597E-15	1.794641E-16
3.870000E+03	4.408879E-15	1.855348E-16
3.880000E+03	4.588465E-15	1.920439E-16
3.890000E+03	4.777665E-15	1.988711E-16
3.900000E+03	4.973278E-15	2.058773E-16
3.910000E+03	5.171344E-15	2.128950E-16
3.920000E+03	5.367433E-15	2.197414E-16
3.930000E+03	5.556823E-15	2.262255E-16
3.940000E+03	5.734630E-15	2.321544E-16
3.950000E+03	5.896140E-15	2.373464E-16
3.960000E+03	6.036911E-15	2.416349E-16
3.970000E+03	6.153394E-15	2.448932E-16
3.980000E+03	6.243162E-15	2.470421E-16
3.990000E+03	6.304976E-15	2.480512E-16
4.000000E+03	6.338582E-15	2.479300E-16
4.010000E+03	6.345330E-15	2.467506E-16
4.020000E+03	6.327747E-15	2.446293E-16
4.030000E+03	6.289210E-15	2.417126E-16
4.040000E+03	6.233439E-15	2.381572E-16
4.050000E+03	6.164637E-15	2.341348E-16
4.060000E+03	6.087411E-15	2.298282E-16
4.070000E+03	6.005726E-15	2.253923E-16
4.080000E+03	5.923483E-15	2.209758E-16
4.090000E+03	5.844444E-15	2.167189E-16
4.100000E+03	5.771552E-15	2.127281E-16
4.110000E+03	5.707489E-15	2.090977E-16
4.120000E+03	5.654555E-15	2.059060E-16
4.130000E+03	5.614226E-15	2.031992E-16
4.140000E+03	5.587958E-15	2.010217E-16
4.150000E+03	5.576744E-15	1.994001E-16
4.160000E+03	5.580707E-15	1.983295E-16
4.170000E+03	5.599650E-15	1.977934E-16
4.180000E+03	5.633367E-15	1.977756E-16
4.190000E+03	5.680665E-15	1.982256E-16
4.200000E+03	5.740323E-15	1.990931E-16
4.210000E+03	5.810709E-15	2.003150E-16
4.220000E+03	5.889932E-15	2.018206E-16
4.230000E+03	5.975571E-15	2.035231E-16
4.240000E+03	6.065449E-15	2.053459E-16
4.250000E+03	6.156582E-15	2.071874E-16
4.260000E+03	6.246076E-15	2.089512E-16
4.270000E+03	6.330644E-15	2.105303E-16
4.280000E+03	6.407009E-15	2.118208E-16
4.290000E+03	6.471366E-15	2.127037E-16
4.300000E+03	6.520408E-15	2.130792E-16
4.310000E+03	6.550764E-15	2.128477E-16
4.320000E+03	6.559754E-15	2.119342E-16
4.330000E+03	6.545188E-15	2.102811E-16
4.340000E+03	6.506657E-15	2.078887E-16
4.350000E+03	6.444678E-15	2.047867E-16
4.360000E+03	6.361246E-15	2.010507E-16
4.370000E+03	6.260486E-15	1.968211E-16
4.380000E+03	6.148278E-15	1.922903E-16
4.390000E+03	6.031302E-15	1.876712E-16
4.400000E+03	5.916457E-15	1.831792E-16
4.410000E+03	5.810383E-15	1.790171E-16
4.420000E+03	5.719775E-15	1.753851E-16
4.430000E+03	5.651356E-15	1.724804E-16
4.440000E+03	5.611602E-15	1.704890E-16
4.450000E+03	5.606357E-15	1.695748E-16
4.460000E+03	5.639212E-15	1.698318E-16
4.470000E+03	5.713217E-15	1.713366E-16
4.480000E+03	5.831170E-15	1.741575E-16
4.490000E+03	5.994488E-15	1.783214E-16
4.500000E+03	6.204141E-15	1.838417E-16
4.510000E+03	6.460508E-15	1.907147E-16
4.520000E+03	6.761941E-15	1.988771E-16
4.530000E+03	7.105149E-15	2.082192E-16
4.540000E+03	7.485109E-15	2.185825E-16
4.550000E+03	7.893852E-15	2.297250E-16
4.560000E+03	8.320369E-15	2.413200E-16
4.570000E+03	8.751341E-15	2.529784E-16
4.580000E+03	9.171250E-15	2.642523E-16
4.590000E+03	9.562677E-15	2.746450E-16
4.600000E+03	9.908212E-15	2.836658E-16
4.610000E+03	1.019222E-14	2.908801E-16
4.620000E+03	1.040203E-14	2.959431E-16
4.630000E+03	1.052798E-14	2.985989E-16
4.640000E+03	1.056682E-14	2.987760E-16
4.650000E+03	1.052033E-14	2.965453E-16
4.660000E+03	1.039440E-14	2.920928E-16
4.670000E+03	1.020041E-14	2.857553E-16
4.680000E+03	9.952356E-15	2.779402E-16
4.690000E+03	9.665413E-15	2.690820E-16
4.700000E+03	9.355723E-15	2.596378E-16
4.710000E+03	9.038644E-15	2.500372E-16
4.720000E+03	8.727455E-15	2.406475E-16
4.730000E+03	8.432738E-15	2.317575E-16
4.740000E+03	8.163229E-15	2.236016E-16
4.750000E+03	7.925114E-15	2.163415E-16
4.760000E+03	7.721890E-15	2.100634E-16
4.770000E+03	7.555483E-15	2.048094E-16
4.780000E+03	7.426760E-15	2.005922E-16
4.790000E+03	7.335153E-15	1.973850E-16
4.800000E+03	7.279240E-15	1.951384E-16
4.810000E+03	7.257192E-15	1.937921E-16
4.820000E+03	7.266653E-15	1.932721E-16
4.830000E+03	7.304967E-15	1.934972E-16
4.840000E+03	7.369152E-15	1.943785E-16
4.850000E+03	7.456039E-15	1.958228E-16
4.860000E+03	7.562146E-15	1.977302E-16
4.870000E+03	7.683414E-15	1.999868E-16
4.880000E+03	7.815006E-15	2.024605E-16
4.890000E+03	7.951408E-15	2.050036E-16
4.900000E+03	8.086247E-15	2.074492E-16
4.910000E+03	8.211664E-15	2.095959E-16
4.920000E+03	8.319411E-15	2.112365E-16
4.930000E+03	8.401262E-15	2.121690E-16
4.940000E+03	8.450835E-15	2.122427E-16
4.950000E+03	8.462654E-15	2.113340E-16
4.960000E+03	8.433354E-15	2.093750E-16
4.970000E+03	8.362151E-15	2.063648E-16
4.980000E+03	8.250401E-15	2.023558E-16
4.990000E+03	8.101412E-15	1.974484E-16
5.000000E+03	7.920703E-15	1.917950E-16
5.010000E+03	7.714994E-15	1.855742E-16
5.020000E+03	7.491653E-15	1.789761E-16
5.030000E+03	7.259149E-15	1.722126E-16
5.040000E+03	7.025478E-15	1.654791E-16
5.050000E+03	6.798064E-15	1.589523E-16
5.060000E+03	6.582993E-15	1.527725E-16
5.070000E+03	6.385321E-15	1.470520E-16
5.080000E+03	6.209282E-15	1.418804E-16
5.090000E+03	6.057924E-15	1.373172E-16
5.100000E+03	5.933677E-15	1.334053E-16
5.110000E+03	5.838484E-15	1.301746E-16
5.120000E+03	5.773565E-15	1.276371E-16
5.130000E+03	5.740182E-15	1.258049E-16
5.140000E+03	5.739090E-15	1.246772E-16
5.150000E+03	5.770791E-15	1.242475E-16
5.160000E+03	5.835541E-15	1.245030E-16
5.170000E+03	5.933577E-15	1.254303E-16
5.180000E+03	6.064249E-15	1.269974E-16
5.190000E+03	6.226706E-15	1.291684E-16
5.200000E+03	6.419528E-15	1.318966E-16
5.210000E+03	6.640215E-15	1.351146E-16
5.220000E+03	6.885362E-15	1.387391E-16
5.230000E+03	7.150728E-15	1.426733E-16
5.240000E+03	7.431178E-15	1.468064E-16
5.250000E+03	7.720569E-15	1.510125E-16
5.260000E+03	8.012030E-15	1.551572E-16
5.270000E+03	8.298676E-15	1.591116E-16
5.280000E+03	8.573315E-15	1.627467E-16
5.290000E+03	8.829135E-15	1.659469E-16
5.300000E+03	9.060897E-15	1.686309E-16
5.310000E+03	9.264682E-15	1.707460E-16
5.320000E+03	9.438595E-15	1.722791E-16
5.330000E+03	9.584364E-15	1.732840E-16
5.340000E+03	9.706296E-15	1.738589E-16
5.350000E+03	9.810842E-15	1.741370E-16
5.360000E+03	9.908458E-15	1.743173E-16
5.370000E+03	1.001128E-14	1.746215E-16
5.380000E+03	1.013218E-14	1.752775E-16
5.390000E+03	1.028517E-14	1.765257E-16
5.400000E+03	1.048414E-14	1.785984E-16
5.410000E+03	1.074179E-14	1.817036E-16
5.420000E+03	1.106794E-14	1.859974E-16
5.430000E+03	1.146946E-14	1.915864E-16
5.440000E+03	1.195024E-14	1.985302E-16
5.450000E+03	1.250770E-14	2.067847E-16
5.460000E+03	1.312985E-14	2.161579E-16
5.470000E+03	1.379610E-14	2.263252E-16
5.480000E+03	1.448293E-14	2.369223E-16
5.490000E+03	1.516146E-14	2.475017E-16
5.500000E+03	1.580031E-14	2.575709E-16
5.510000E+03	1.637361E-14	2.667256E-16
5.520000E+03	1.685782E-14	2.745950E-16
5.530000E+03	1.723202E-14	2.808448E-16
5.540000E+03	1.748428E-14	2.852786E-16
5.550000E+03	1.760783E-14	2.877764E-16
5.560000E+03	1.760052E-14	2.882852E-16
5.570000E+03	1.746602E-14	2.868410E-16
5.580000E+03	1.721158E-14	2.835333E-16
5.590000E+03	1.684874E-14	2.785192E-16
5.600000E+03	1.639085E-14	2.719849E-16
5.610000E+03	1.585381E-14	2.641599E-16
5.620000E+03	1.525523E-14	2.553053E-16
5.630000E+03	1.461480E-14	2.457219E-16
5.640000E+03	1.395214E-14	2.357155E-16
5.650000E+03	1.328603E-14	2.255854E-16
5.660000E+03	1.263500E-14	2.156339E-16
5.670000E+03	1.201508E-14	2.061290E-16
5.680000E+03	1.143964E-14	1.973001E-16
5.690000E+03	1.091863E-14	1.893240E-16
5.700000E+03	1.046015E-14	1.823506E-16
5.710000E+03	1.006929E-14	1.764813E-16
5.720000E+03	9.748201E-15	1.717687E-16
5.730000E+03	9.498053E-15	1.682497E-16
5.740000E+03	9.318360E-15	1.659326E-16
5.750000E+03	9.206476E-15	1.647871E-16
5.760000E+03	9.158898E-15	1.647665E-16
5.770000E+03	9.171856E-15	1.658177E-16
5.780000E+03	9.239769E-15	1.678531E-16
5.790000E+03	9.356411E-15	1.707710E-16
5.800000E+03	9.515023E-15	1.744570E-16
5.810000E+03	9.706852E-15	1.787574E-16
5.820000E+03	9.922059E-15	1.834953E-16
5.830000E+03	1.015005E-14	1.884759E-16
5.840000E+03	1.037950E-14	1.934878E-16
5.850000E+03	1.059849E-14	1.983048E-16
5.860000E+03	1.079516E-14	2.026992E-16
5.870000E+03	1.095910E-14	2.064672E-16
5.880000E+03	1.108085E-14	2.094219E-16
5.890000E+03	1.115251E-14	2.114039E-16
5.900000E+03	1.116949E-14	2.123166E-16
5.910000E+03	1.112938E-14	2.121048E-16
5.920000E+03	1.103187E-14	2.107545E-16
5.930000E+03	1.088045E-14	2.083257E-16
5.940000E+03	1.068021E-14	2.049115E-16
5.950000E+03	1.043785E-14	2.006367E-16
5.960000E+03	1.016230E-14	1.956723E-16
5.970000E+03	9.862820E-15	1.901968E-16
5.980000E+03	9.548556E-15	1.843886E-16
5.990000E+03	9.227931E-15	1.784134E-16
6.000000E+03	8.908753E-15	1.724256E-16
6.010000E+03	8.597256E-15	1.665502E-16
6.020000E+03	8.297748E-15	1.608750E-16
6.030000E+03	8.013113E-15	1.554602E-16
6.040000E+03	7.745370E-15	1.503490E-16
6.050000E+03	7.494572E-15	1.455463E-16
6.060000E+03	7.260346E-15	1.410485E-16
6.070000E+03	7.041621E-15	1.368380E-16
6.080000E+03	6.837130E-15	1.328932E-16
6.090000E+03	6.645222E-15	1.291847E-16
6.100000E+03	6.464769E-15	1.256932E-16
6.110000E+03	6.295254E-15	1.224111E-16
6.120000E+03	6.136432E-15	1.193357E-16
6.130000E+03	5.988495E-15	1.164730E-16
6.140000E+03	5.852462E-15	1.138448E-16
6.150000E+03	5.729753E-15	1.114806E-16
6.160000E+03	5.622009E-15	1.094144E-16
6.170000E+03	5.531307E-15	1.076885E-16
6.180000E+03	5.459796E-15	1.063469E-16
6.190000E+03	5.409374E-15	1.054289E-16
6.200000E+03	5.381004E-15	1.049561E-16
6.210000E+03	5.375507E-15	1.049474E-16
6.220000E+03	5.393210E-15	1.054130E-16
6.230000E+03	5.433574E-15	1.063465E-16
6.240000E+03	5.495671E-15	1.077346E-16
6.250000E+03	5.578565E-15	1.095644E-16
6.260000E+03	5.680993E-15	1.118175E-16
6.270000E+03	5.801703E-15	1.144759E-16
6.280000E+03	5.939426E-15	1.175224E-16
6.290000E+03	6.093214E-15	1.209466E-16
6.300000E+03	6.262355E-15	1.247434E-16
6.310000E+03	6.446017E-15	1.289062E-16
6.320000E+03	6.643607E-15	1.334338E-16
6.330000E+03	6.854334E-15	1.383220E-16
6.340000E+03	7.077172E-15	1.435622E-16
6.350000E+03	7.310973E-15	1.491440E-16
6.360000E+03	7.553912E-15	1.550431E-16
6.370000E+03	7.804069E-15	1.612304E-16
6.380000E+03	8.059504E-15	1.676738E-16
6.390000E+03	8.318041E-15	1.743350E-16
6.400000E+03	8.577874E-15	1.811821E-16
6.410000E+03	8.838917E-15	1.882181E-16
6.420000E+03	9.101738E-15	1.954597E-16
6.430000E+03	9.367909E-15	2.029456E-16
6.440000E+03	9.642285E-15	2.107869E-16
6.450000E+03	9.929983E-15	2.191043E-16
6.460000E+03	1.023502E-14	2.279983E-16
6.470000E+03	1.055878E-14	2.375138E-16
6.480000E+03	1.089480E-14	2.475188E-16
6.490000E+03	1.123201E-14	2.577702E-16
6.500000E+03	1.156014E-14	2.680326E-16
6.510000E+03	1.186806E-14	2.780406E-16
6.520000E+03	1.214416E-14	2.875052E-16
6.530000E+03	1.237875E-14	2.961714E-16
6.540000E+03	1.256363E-14	3.038084E-16
6.550000E+03	1.269152E-14	3.101984E-16
6.560000E+03	1.275794E-14	3.151843E-16
6.570000E+03	1.276040E-14	3.186519E-16
6.580000E+03	1.269854E-14	3.205372E-16
6.590000E+03	1.257410E-14	3.208284E-16
6.600000E+03	1.239138E-14	3.195801E-16
6.610000E+03	1.215550E-14	3.168734E-16
6.620000E+03	1.187346E-14	3.128437E-16
6.630000E+03	1.155310E-14	3.076563E-16
6.640000E+03	1.120277E-14	3.014991E-16
6.650000E+03	1.083123E-14	2.945805E-16
6.660000E+03	1.044666E-14	2.871036E-16
6.670000E+03	1.005677E-14	2.792681E-16
6.680000E+03	9.668774E-15	2.712687E-16
6.690000E+03	9.288497E-15	2.632693E-16
6.700000E+03	8.921066E-15	2.554212E-16
6.710000E+03	8.570352E-15	2.478457E-16
6.720000E+03	8.238986E-15	2.406324E-16
6.730000E+03	7.929248E-15	2.338640E-16
6.740000E+03	7.641804E-15	2.275781E-16
6.750000E+03	7.376943E-15	2.218018E-16
6.760000E+03	7.134697E-15	2.165547E-16
6.770000E+03	6.914107E-15	2.118265E-16
6.780000E+03	6.714264E-15	2.076073E-16
6.790000E+03	6.534035E-15	2.038790E-16
6.800000E+03	6.372038E-15	2.006146E-16
6.810000E+03	6.226861E-15	1.977846E-16
6.820000E+03	6.097198E-15	1.953611E-16
6.830000E+03	5.981412E-15	1.933040E-16
6.840000E+03	5.878247E-15	1.915840E-16
6.850000E+03	5.786282E-15	1.901647E-16
6.860000E+03	5.704183E-15	1.890110E-16
6.870000E+03	5.630695E-15	1.880890E-16
6.880000E+03	5.564666E-15	1.873668E-16
6.890000E+03	5.505080E-15	1.868160E-16
6.900000E+03	5.450864E-15	1.864048E-16
6.910000E+03	5.401119E-15	1.861065E-16
6.920000E+03	5.355100E-15	1.858988E-16
6.930000E+03	5.311934E-15	1.857539E-16
6.940000E+03	5.271145E-15	1.856574E-16
6.950000E+03	5.232142E-15	1.855901E-16
6.960000E+03	5.194503E-15	1.855382E-16
6.970000E+03	5.157921E-15	1.854918E-16
6.980000E+03	5.122224E-15	1.854455E-16
6.990000E+03	5.087421E-15	1.854004E-16
7.000000E+03	5.053409E-15	1.853535E-16
7.010000E+03	5.020447E-15	1.853148E-16
7.020000E+03	4.988883E-15	1.852984E-16
7.030000E+03	4.958926E-15	1.853130E-16
7.040000E+03	4.930998E-15	1.853758E-16
7.050000E+03	4.905715E-15	1.855116E-16
7.060000E+03	4.883426E-15	1.857355E-16
7.070000E+03	4.864658E-15	1.860698E-16
7.080000E+03	4.849872E-15	1.865347E-16
7.090000E+03	4.839428E-15	1.871465E-16
7.100000E+03	4.833660E-15	1.879212E-16
7.110000E+03	4.832936E-15	1.888761E-16
7.120000E+03	4.837430E-15	1.900211E-16
7.130000E+03	4.847244E-15	1.913632E-16
7.140000E+03	4.862423E-15	1.929075E-16
7.150000E+03	4.883016E-15	1.946587E-16
7.160000E+03	4.908684E-15	1.966065E-16
7.170000E+03	4.939230E-15	1.987455E-16
7.180000E+03	4.974255E-15	2.010621E-16
7.190000E+03	5.013437E-15	2.035455E-16
7.200000E+03	5.056022E-15	2.061669E-16
7.210000E+03	5.101612E-15	2.089117E-16
7.220000E+03	5.149551E-15	2.117540E-16
7.230000E+03	5.199330E-15	2.146740E-16
7.240000E+03	5.250236E-15	2.176426E-16
7.250000E+03	5.301845E-15	2.206426E-16
7.260000E+03	5.353625E-15	2.236518E-16
7.270000E+03	5.405238E-15	2.266560E-16
7.280000E+03	5.456235E-15	2.296359E-16
7.290000E+03	5.506371E-15	2.325809E-16
7.300000E+03	5.555171E-15	2.354702E-16
7.310000E+03	5.602374E-15	2.382921E-16
7.320000E+03	5.647652E-15	2.410317E-16
7.330000E+03	5.690576E-15	2.436700E-16
7.340000E+03	5.730744E-15	2.461886E-16
7.350000E+03	5.767829E-15	2.485724E-16
7.360000E+03	5.801253E-15	2.507952E-16
7.370000E+03	5.830671E-15	2.528408E-16
7.380000E+03	5.855578E-15	2.546859E-16
7.390000E+03	5.875712E-15	2.563175E-16
7.400000E+03	5.890621E-15	2.577143E-16
7.410000E+03	5.900199E-15	2.588700E-16
7.420000E+03	5.904275E-15	2.597756E-16
7.430000E+03	5.902982E-15	2.604353E-16
7.440000E+03	5.896561E-15	2.608583E-16
7.450000E+03	5.885482E-15	2.610644E-16
7.460000E+03	5.870216E-15	2.610732E-16
7.470000E+03	5.851800E-15	2.609302E-16
7.480000E+03	5.830895E-15	2.606645E-16
7.490000E+03	5.808658E-15	2.603277E-16
7.500000E+03	5.786209E-15	2.599703E-16
7.510000E+03	5.764745E-15	2.596470E-16
7.520000E+03	5.745300E-15	2.594053E-16
7.530000E+03	5.729064E-15	2.593004E-16
7.540000E+03	5.717010E-15	2.593783E-16
7.550000E+03	5.709898E-15	2.596756E-16
7.560000E+03	5.708362E-15	2.602234E-16
7.570000E+03	5.712861E-15	2.610451E-16
7.580000E+03	5.723562E-15	2.621511E-16
7.590000E+03	5.740272E-15	2.635353E-16
7.600000E+03	5.762818E-15	2.651923E-16
7.610000E+03	5.790507E-15	2.670928E-16
7.620000E+03	5.822662E-15	2.692081E-16
7.630000E+03	5.858408E-15	2.714997E-16
7.640000E+03	5.896677E-15	2.739200E-16
7.650000E+03	5.936295E-15	2.764163E-16
7.660000E+03	5.976052E-15	2.789332E-16
7.670000E+03	6.014734E-15	2.814151E-16
7.680000E+03	6.051117E-15	2.838052E-16
7.690000E+03	6.084118E-15	2.860527E-16
7.700000E+03	6.112485E-15	2.880985E-16
7.710000E+03	6.135448E-15	2.899057E-16
7.720000E+03	6.152041E-15	2.914275E-16
7.730000E+03	6.161613E-15	2.926318E-16
7.740000E+03	6.163653E-15	2.934927E-16
7.750000E+03	6.157791E-15	2.939906E-16
7.760000E+03	6.143903E-15	2.941175E-16
