#wls	flux	fluxerr
1.600000E+03	6.039780E-16	3.479381E-17
1.640000E+03	5.578840E-16	3.201069E-17
1.680000E+03	5.158298E-16	2.947733E-17
1.720000E+03	4.774916E-16	2.717300E-17
1.760000E+03	4.430916E-16	2.510815E-17
1.800000E+03	4.125109E-16	2.327364E-17
1.840000E+03	3.855388E-16	2.165520E-17
1.880000E+03	3.621050E-16	2.024655E-17
1.920000E+03	3.421148E-16	1.904001E-17
1.960000E+03	3.254021E-16	1.802395E-17
2.000000E+03	3.118764E-16	1.719102E-17
2.040000E+03	3.014153E-16	1.653211E-17
2.080000E+03	2.939418E-16	1.604065E-17
2.120000E+03	2.894868E-16	1.571593E-17
2.160000E+03	2.878392E-16	1.554406E-17
2.200000E+03	2.889099E-16	1.551787E-17
2.240000E+03	2.925599E-16	1.562753E-17
2.280000E+03	2.988500E-16	1.587392E-17
2.320000E+03	3.076637E-16	1.624840E-17
2.360000E+03	3.190523E-16	1.675121E-17
2.400000E+03	3.330019E-16	1.737904E-17
2.440000E+03	3.493964E-16	1.812323E-17
2.480000E+03	3.681520E-16	1.897687E-17
2.520000E+03	3.889499E-16	1.992102E-17
2.560000E+03	4.113703E-16	2.093196E-17
2.600000E+03	4.348289E-16	2.197817E-17
2.640000E+03	4.586950E-16	2.302657E-17
2.680000E+03	4.825971E-16	2.405780E-17
2.720000E+03	5.064653E-16	2.506799E-17
2.760000E+03	5.303395E-16	2.605873E-17
2.800000E+03	5.542117E-16	2.702925E-17
2.840000E+03	5.782483E-16	2.798723E-17
2.880000E+03	6.024146E-16	2.893041E-17
2.920000E+03	6.270400E-16	2.987398E-17
2.960000E+03	6.524351E-16	3.083171E-17
3.000000E+03	6.789676E-16	3.181953E-17
3.010000E+03	6.857736E-16	3.207076E-17
3.020000E+03	6.928054E-16	3.233094E-17
3.030000E+03	6.998976E-16	3.259231E-17
3.040000E+03	7.071419E-16	3.285910E-17
3.050000E+03	7.145448E-16	3.313156E-17
3.060000E+03	7.220250E-16	3.340586E-17
3.070000E+03	7.297636E-16	3.369036E-17
3.080000E+03	7.375914E-16	3.397714E-17
3.090000E+03	7.456909E-16	3.427458E-17
3.100000E+03	7.539803E-16	3.457883E-17
3.110000E+03	7.623759E-16	3.488599E-17
3.120000E+03	7.710623E-16	3.520445E-17
3.130000E+03	7.799556E-16	3.553028E-17
3.140000E+03	7.891521E-16	3.586780E-17
3.150000E+03	7.985663E-16	3.621302E-17
3.160000E+03	8.082025E-16	3.656606E-17
3.170000E+03	8.181568E-16	3.693118E-17
3.180000E+03	8.283405E-16	3.730427E-17
3.190000E+03	8.389428E-16	3.769375E-17
3.200000E+03	8.497806E-16	3.809126E-17
3.210000E+03	8.609475E-16	3.850093E-17
3.220000E+03	8.724458E-16	3.892271E-17
3.230000E+03	8.842750E-16	3.935649E-17
3.240000E+03	8.964321E-16	3.980201E-17
3.250000E+03	9.089159E-16	4.025908E-17
3.260000E+03	9.218162E-16	4.073159E-17
3.270000E+03	9.351297E-16	4.121921E-17
3.280000E+03	9.487508E-16	4.171717E-17
3.290000E+03	9.627673E-16	4.222921E-17
3.300000E+03	9.771677E-16	4.275467E-17
3.310000E+03	9.919389E-16	4.329285E-17
3.320000E+03	1.007064E-15	4.384289E-17
3.330000E+03	1.022625E-15	4.440818E-17
3.340000E+03	1.038501E-15	4.498335E-17
3.350000E+03	1.054768E-15	4.557160E-17
3.360000E+03	1.071402E-15	4.617169E-17
3.370000E+03	1.088272E-15	4.677785E-17
3.380000E+03	1.105551E-15	4.739747E-17
3.390000E+03	1.123103E-15	4.802453E-17
3.400000E+03	1.140998E-15	4.866195E-17
3.410000E+03	1.159200E-15	4.930799E-17
3.420000E+03	1.177567E-15	4.995656E-17
3.430000E+03	1.196269E-15	5.061480E-17
3.440000E+03	1.215061E-15	5.127222E-17
3.450000E+03	1.234115E-15	5.193600E-17
3.460000E+03	1.253400E-15	5.260471E-17
3.470000E+03	1.272882E-15	5.327689E-17
3.480000E+03	1.292529E-15	5.395106E-17
3.490000E+03	1.312308E-15	5.462585E-17
3.500000E+03	1.332292E-15	5.530417E-17
3.510000E+03	1.352344E-15	5.598025E-17
3.520000E+03	1.372545E-15	5.665744E-17
3.530000E+03	1.392872E-15	5.733471E-17
3.540000E+03	1.413310E-15	5.801135E-17
3.550000E+03	1.433846E-15	5.868683E-17
3.560000E+03	1.454578E-15	5.936511E-17
3.570000E+03	1.475507E-15	6.004608E-17
3.580000E+03	1.496635E-15	6.072975E-17
3.590000E+03	1.517870E-15	6.141230E-17
3.600000E+03	1.539438E-15	6.210288E-17
3.610000E+03	1.561266E-15	6.279829E-17
3.620000E+03	1.583493E-15	6.350407E-17
3.630000E+03	1.606065E-15	6.421793E-17
3.640000E+03	1.629147E-15	6.494624E-17
3.650000E+03	1.652816E-15	6.569187E-17
3.660000E+03	1.677062E-15	6.645419E-17
3.670000E+03	1.702198E-15	6.724538E-17
3.680000E+03	1.728252E-15	6.806618E-17
3.690000E+03	1.755373E-15	6.892208E-17
3.700000E+03	1.783736E-15	6.981955E-17
3.710000E+03	1.813637E-15	7.076963E-17
3.720000E+03	1.845198E-15	7.177647E-17
3.730000E+03	1.878659E-15	7.284884E-17
3.740000E+03	1.914484E-15	7.400385E-17
3.750000E+03	1.952651E-15	7.523981E-17
3.760000E+03	1.993741E-15	7.657815E-17
3.770000E+03	2.037736E-15	7.801706E-17
3.780000E+03	2.085193E-15	7.957672E-17
3.790000E+03	2.136137E-15	8.125676E-17
3.800000E+03	2.190741E-15	8.306237E-17
3.810000E+03	2.249297E-15	8.500324E-17
3.820000E+03	2.311504E-15	8.706651E-17
3.830000E+03	2.377551E-15	8.925786E-17
3.840000E+03	2.446886E-15	9.155516E-17
3.850000E+03	2.519419E-15	9.395378E-17
3.860000E+03	2.594291E-15	9.642055E-17
3.870000E+03	2.670994E-15	9.893578E-17
3.880000E+03	2.748558E-15	1.014629E-16
3.890000E+03	2.825971E-15	1.039642E-16
3.900000E+03	2.901995E-15	1.063944E-16
3.910000E+03	2.975628E-15	1.087175E-16
3.920000E+03	3.045508E-15	1.108846E-16
3.930000E+03	3.110277E-15	1.128479E-16
3.940000E+03	3.168763E-15	1.145670E-16
3.950000E+03	3.220028E-15	1.160104E-16
3.960000E+03	3.263108E-15	1.171462E-16
3.970000E+03	3.297389E-15	1.179557E-16
3.980000E+03	3.322428E-15	1.184264E-16
3.990000E+03	3.338405E-15	1.185682E-16
4.000000E+03	3.345275E-15	1.183831E-16
4.010000E+03	3.343811E-15	1.179018E-16
4.020000E+03	3.334734E-15	1.171529E-16
4.030000E+03	3.318980E-15	1.161722E-16
4.040000E+03	3.297838E-15	1.150071E-16
4.050000E+03	3.272505E-15	1.137014E-16
4.060000E+03	3.244398E-15	1.123057E-16
4.070000E+03	3.214654E-15	1.108605E-16
4.080000E+03	3.184537E-15	1.094098E-16
4.090000E+03	3.155303E-15	1.079967E-16
4.100000E+03	3.127913E-15	1.066538E-16
4.110000E+03	3.103285E-15	1.054115E-16
4.120000E+03	3.082106E-15	1.042920E-16
4.130000E+03	3.065071E-15	1.033175E-16
4.140000E+03	3.052493E-15	1.024968E-16
4.150000E+03	3.044761E-15	1.018413E-16
4.160000E+03	3.041971E-15	1.013523E-16
4.170000E+03	3.044219E-15	1.010311E-16
4.180000E+03	3.051262E-15	1.008677E-16
4.190000E+03	3.062940E-15	1.008550E-16
4.200000E+03	3.078840E-15	1.009777E-16
4.210000E+03	3.098514E-15	1.012195E-16
4.220000E+03	3.121419E-15	1.015613E-16
4.230000E+03	3.146868E-15	1.019796E-16
4.240000E+03	3.174174E-15	1.024513E-16
4.250000E+03	3.202597E-15	1.029519E-16
4.260000E+03	3.231375E-15	1.034565E-16
4.270000E+03	3.259670E-15	1.039385E-16
4.280000E+03	3.286676E-15	1.043724E-16
4.290000E+03	3.311825E-15	1.047408E-16
4.300000E+03	3.334391E-15	1.050215E-16
4.310000E+03	3.353830E-15	1.051987E-16
4.320000E+03	3.369949E-15	1.052674E-16
4.330000E+03	3.382490E-15	1.052211E-16
4.340000E+03	3.391599E-15	1.050656E-16
4.350000E+03	3.397472E-15	1.048085E-16
4.360000E+03	3.400723E-15	1.044698E-16
4.370000E+03	3.402156E-15	1.040752E-16
4.380000E+03	3.402751E-15	1.036553E-16
4.390000E+03	3.403667E-15	1.032457E-16
4.400000E+03	3.406087E-15	1.028819E-16
4.410000E+03	3.411179E-15	1.025987E-16
4.420000E+03	3.420443E-15	1.024397E-16
4.430000E+03	3.435723E-15	1.024586E-16
4.440000E+03	3.458955E-15	1.027105E-16
4.450000E+03	3.491938E-15	1.032456E-16
4.460000E+03	3.536165E-15	1.041040E-16
4.470000E+03	3.592544E-15	1.053083E-16
4.480000E+03	3.661640E-15	1.068703E-16
4.490000E+03	3.743588E-15	1.087890E-16
4.500000E+03	3.837893E-15	1.110455E-16
4.510000E+03	3.943506E-15	1.136048E-16
4.520000E+03	4.058843E-15	1.164172E-16
4.530000E+03	4.181713E-15	1.194166E-16
4.540000E+03	4.309324E-15	1.225208E-16
4.550000E+03	4.438261E-15	1.256313E-16
4.560000E+03	4.564776E-15	1.286422E-16
4.570000E+03	4.684680E-15	1.314368E-16
4.580000E+03	4.793676E-15	1.338976E-16
4.590000E+03	4.887748E-15	1.359170E-16
4.600000E+03	4.963238E-15	1.373995E-16
4.610000E+03	5.017120E-15	1.382684E-16
4.620000E+03	5.047364E-15	1.384763E-16
4.630000E+03	5.052980E-15	1.380047E-16
4.640000E+03	5.034287E-15	1.368717E-16
4.650000E+03	4.992688E-15	1.351240E-16
4.660000E+03	4.930547E-15	1.328338E-16
4.670000E+03	4.851112E-15	1.300959E-16
4.680000E+03	4.758198E-15	1.270184E-16
4.690000E+03	4.655901E-15	1.237151E-16
4.700000E+03	4.548343E-15	1.202984E-16
4.710000E+03	4.439386E-15	1.168719E-16
4.720000E+03	4.332632E-15	1.135304E-16
4.730000E+03	4.231086E-15	1.103515E-16
4.740000E+03	4.137305E-15	1.073996E-16
4.750000E+03	4.053181E-15	1.047207E-16
4.760000E+03	3.980115E-15	1.023472E-16
4.770000E+03	3.919007E-15	1.002982E-16
4.780000E+03	3.870264E-15	9.857951E-17
4.790000E+03	3.833997E-15	9.718954E-17
4.800000E+03	3.809974E-15	9.611788E-17
4.810000E+03	3.797581E-15	9.534460E-17
4.820000E+03	3.796075E-15	9.484695E-17
4.830000E+03	3.804296E-15	9.459215E-17
4.840000E+03	3.821040E-15	9.454690E-17
4.850000E+03	3.844794E-15	9.467090E-17
4.860000E+03	3.873798E-15	9.491852E-17
4.870000E+03	3.906188E-15	9.524247E-17
4.880000E+03	3.939896E-15	9.559142E-17
4.890000E+03	3.972743E-15	9.591230E-17
4.900000E+03	4.002511E-15	9.615226E-17
4.910000E+03	4.027086E-15	9.626187E-17
4.920000E+03	4.044473E-15	9.619566E-17
4.930000E+03	4.052966E-15	9.591585E-17
4.940000E+03	4.051264E-15	9.539503E-17
4.950000E+03	4.038607E-15	9.461911E-17
4.960000E+03	4.014756E-15	9.358644E-17
4.970000E+03	3.980057E-15	9.230902E-17
4.980000E+03	3.935459E-15	9.081264E-17
4.990000E+03	3.882319E-15	8.913195E-17
5.000000E+03	3.822477E-15	8.731199E-17
5.010000E+03	3.758038E-15	8.540295E-17
5.020000E+03	3.691128E-15	8.345452E-17
5.030000E+03	3.624101E-15	8.152043E-17
5.040000E+03	3.559023E-15	7.964704E-17
5.050000E+03	3.497930E-15	7.787891E-17
5.060000E+03	3.442640E-15	7.625498E-17
5.070000E+03	3.394670E-15	7.480667E-17
5.080000E+03	3.355331E-15	7.356027E-17
5.090000E+03	3.325749E-15	7.253736E-17
5.100000E+03	3.306794E-15	7.175363E-17
5.110000E+03	3.299144E-15	7.122015E-17
5.120000E+03	3.303291E-15	7.094381E-17
5.130000E+03	3.319592E-15	7.092841E-17
5.140000E+03	3.348115E-15	7.117152E-17
5.150000E+03	3.388929E-15	7.167074E-17
5.160000E+03	3.441688E-15	7.241496E-17
5.170000E+03	3.506007E-15	7.339250E-17
5.180000E+03	3.581195E-15	7.458549E-17
5.190000E+03	3.666303E-15	7.597114E-17
5.200000E+03	3.760075E-15	7.752073E-17
5.210000E+03	3.861066E-15	7.920229E-17
5.220000E+03	3.967538E-15	8.097850E-17
5.230000E+03	4.077499E-15	8.280769E-17
5.240000E+03	4.188936E-15	8.464859E-17
5.250000E+03	4.299648E-15	8.645697E-17
5.260000E+03	4.407479E-15	8.819046E-17
5.270000E+03	4.510598E-15	8.981398E-17
5.280000E+03	4.607305E-15	9.129577E-17
5.290000E+03	4.696500E-15	9.261649E-17
5.300000E+03	4.777651E-15	9.376840E-17
5.310000E+03	4.850738E-15	9.475387E-17
5.320000E+03	4.916583E-15	9.559160E-17
5.330000E+03	4.976656E-15	9.631252E-17
5.340000E+03	5.033134E-15	9.696057E-17
5.350000E+03	5.088605E-15	9.758683E-17
5.360000E+03	5.146286E-15	9.825347E-17
5.370000E+03	5.209709E-15	9.902750E-17
5.380000E+03	5.282672E-15	9.997993E-17
5.390000E+03	5.369160E-15	1.011841E-16
5.400000E+03	5.473298E-15	1.027148E-16
5.410000E+03	5.599253E-15	1.046465E-16
5.420000E+03	5.751445E-15	1.070575E-16
5.430000E+03	5.934023E-15	1.100197E-16
5.440000E+03	6.150891E-15	1.135998E-16
5.450000E+03	6.403842E-15	1.178250E-16
5.460000E+03	6.690892E-15	1.226531E-16
5.470000E+03	7.005424E-15	1.279584E-16
5.480000E+03	7.338029E-15	1.335663E-16
5.490000E+03	7.677271E-15	1.392684E-16
5.500000E+03	8.010489E-15	1.448368E-16
5.510000E+03	8.324159E-15	1.500307E-16
5.520000E+03	8.605185E-15	1.546199E-16
5.530000E+03	8.841578E-15	1.583964E-16
5.540000E+03	9.023088E-15	1.611852E-16
5.550000E+03	9.142513E-15	1.628672E-16
5.560000E+03	9.195981E-15	1.633832E-16
5.570000E+03	9.183103E-15	1.627355E-16
5.580000E+03	9.106780E-15	1.609840E-16
5.590000E+03	8.973340E-15	1.582479E-16
5.600000E+03	8.791351E-15	1.546841E-16
5.610000E+03	8.570922E-15	1.504746E-16
5.620000E+03	8.323060E-15	1.458152E-16
5.630000E+03	8.058891E-15	1.409020E-16
5.640000E+03	7.788775E-15	1.359158E-16
5.650000E+03	7.522088E-15	1.310190E-16
5.660000E+03	7.266906E-15	1.263502E-16
5.670000E+03	7.029655E-15	1.220184E-16
5.680000E+03	6.815318E-15	1.181072E-16
5.690000E+03	6.627511E-15	1.146759E-16
5.700000E+03	6.468404E-15	1.117590E-16
5.710000E+03	6.339018E-15	1.093709E-16
5.720000E+03	6.239547E-15	1.075123E-16
5.730000E+03	6.169103E-15	1.061651E-16
5.740000E+03	6.126079E-15	1.052993E-16
5.750000E+03	6.108158E-15	1.048732E-16
5.760000E+03	6.112322E-15	1.048333E-16
5.770000E+03	6.135146E-15	1.051194E-16
5.780000E+03	6.172397E-15	1.056580E-16
5.790000E+03	6.219777E-15	1.063748E-16
5.800000E+03	6.272327E-15	1.071846E-16
5.810000E+03	6.325244E-15	1.080052E-16
5.820000E+03	6.373589E-15	1.087521E-16
5.830000E+03	6.412748E-15	1.093469E-16
5.840000E+03	6.438585E-15	1.097192E-16
5.850000E+03	6.447649E-15	1.098108E-16
5.860000E+03	6.437290E-15	1.095768E-16
5.870000E+03	6.405953E-15	1.089911E-16
5.880000E+03	6.352982E-15	1.080430E-16
5.890000E+03	6.278783E-15	1.067394E-16
5.900000E+03	6.184727E-15	1.051039E-16
5.910000E+03	6.072771E-15	1.031697E-16
5.920000E+03	5.945578E-15	1.009821E-16
5.930000E+03	5.806244E-15	9.859339E-17
5.940000E+03	5.657996E-15	9.605823E-17
5.950000E+03	5.503948E-15	9.342917E-17
5.960000E+03	5.347233E-15	9.075908E-17
5.970000E+03	5.190648E-15	8.809510E-17
5.980000E+03	5.036589E-15	8.547753E-17
5.990000E+03	4.887097E-15	8.294070E-17
6.000000E+03	4.743789E-15	8.051175E-17
6.010000E+03	4.607872E-15	7.821088E-17
6.020000E+03	4.480123E-15	7.605105E-17
6.030000E+03	4.361069E-15	7.404102E-17
6.040000E+03	4.250869E-15	7.218336E-17
6.050000E+03	4.149462E-15	7.047686E-17
6.060000E+03	4.056701E-15	6.891899E-17
6.070000E+03	3.972293E-15	6.750471E-17
6.080000E+03	3.895850E-15	6.622741E-17
6.090000E+03	3.826978E-15	6.508040E-17
6.100000E+03	3.765421E-15	6.405937E-17
6.110000E+03	3.710861E-15	6.315897E-17
6.120000E+03	3.663044E-15	6.237494E-17
6.130000E+03	3.621858E-15	6.170552E-17
6.140000E+03	3.587249E-15	6.114987E-17
6.150000E+03	3.559138E-15	6.070683E-17
6.160000E+03	3.537541E-15	6.037687E-17
6.170000E+03	3.522547E-15	6.016170E-17
6.180000E+03	3.514121E-15	6.006098E-17
6.190000E+03	3.512265E-15	6.007501E-17
6.200000E+03	3.516762E-15	6.020039E-17
6.210000E+03	3.527414E-15	6.043407E-17
6.220000E+03	3.543908E-15	6.077104E-17
6.230000E+03	3.565995E-15	6.120737E-17
6.240000E+03	3.593402E-15	6.173877E-17
6.250000E+03	3.625844E-15	6.236075E-17
6.260000E+03	3.663041E-15	6.306890E-17
6.270000E+03	3.704683E-15	6.385831E-17
6.280000E+03	3.750538E-15	6.472545E-17
6.290000E+03	3.800385E-15	6.566692E-17
6.300000E+03	3.853959E-15	6.667863E-17
6.310000E+03	3.910978E-15	6.775616E-17
6.320000E+03	3.971134E-15	6.889465E-17
6.330000E+03	4.034125E-15	7.008936E-17
6.340000E+03	4.099641E-15	7.133536E-17
6.350000E+03	4.167288E-15	7.262628E-17
6.360000E+03	4.236844E-15	7.395852E-17
6.370000E+03	4.308067E-15	7.532800E-17
6.380000E+03	4.381015E-15	7.673587E-17
6.390000E+03	4.455913E-15	7.818620E-17
6.400000E+03	4.533277E-15	7.968817E-17
6.410000E+03	4.614160E-15	8.126054E-17
6.420000E+03	4.699997E-15	8.292887E-17
6.430000E+03	4.792755E-15	8.472840E-17
6.440000E+03	4.894701E-15	8.669989E-17
6.450000E+03	5.008507E-15	8.889164E-17
6.460000E+03	5.136137E-15	9.133975E-17
6.470000E+03	5.277028E-15	9.403560E-17
6.480000E+03	5.427747E-15	9.691923E-17
6.490000E+03	5.582827E-15	9.989378E-17
6.500000E+03	5.736250E-15	1.028517E-16
6.510000E+03	5.881887E-15	1.056826E-16
6.520000E+03	6.013667E-15	1.082760E-16
6.530000E+03	6.126140E-15	1.105318E-16
6.540000E+03	6.214493E-15	1.123607E-16
6.550000E+03	6.275055E-15	1.136930E-16
6.560000E+03	6.305070E-15	1.144754E-16
6.570000E+03	6.303328E-15	1.146821E-16
6.580000E+03	6.269714E-15	1.143070E-16
6.590000E+03	6.205541E-15	1.133704E-16
6.600000E+03	6.112929E-15	1.119073E-16
6.610000E+03	5.995150E-15	1.099743E-16
6.620000E+03	5.855924E-15	1.076370E-16
6.630000E+03	5.699496E-15	1.049709E-16
6.640000E+03	5.530147E-15	1.020530E-16
6.650000E+03	5.352221E-15	9.896236E-17
6.660000E+03	5.169817E-15	9.577382E-17
6.670000E+03	4.986537E-15	9.255388E-17
6.680000E+03	4.805576E-15	8.936191E-17
6.690000E+03	4.629659E-15	8.624900E-17
6.700000E+03	4.460917E-15	8.325557E-17
6.710000E+03	4.300960E-15	8.041258E-17
6.720000E+03	4.150918E-15	7.774221E-17
6.730000E+03	4.011492E-15	7.525872E-17
6.740000E+03	3.883059E-15	7.297037E-17
6.750000E+03	3.765598E-15	7.087791E-17
6.760000E+03	3.658933E-15	6.897921E-17
6.770000E+03	3.562654E-15	6.726759E-17
6.780000E+03	3.476213E-15	6.573375E-17
6.790000E+03	3.398930E-15	6.436574E-17
6.800000E+03	3.330185E-15	6.315268E-17
6.810000E+03	3.269208E-15	6.208070E-17
6.820000E+03	3.215265E-15	6.113654E-17
6.830000E+03	3.167669E-15	6.030773E-17
6.840000E+03	3.125684E-15	5.958075E-17
6.850000E+03	3.088647E-15	5.894337E-17
6.860000E+03	3.055972E-15	5.838482E-17
6.870000E+03	3.027044E-15	5.789363E-17
6.880000E+03	3.001375E-15	5.746069E-17
6.890000E+03	2.978447E-15	5.707635E-17
6.900000E+03	2.957874E-15	5.673334E-17
6.910000E+03	2.939280E-15	5.642458E-17
6.920000E+03	2.922307E-15	5.614335E-17
6.930000E+03	2.906724E-15	5.588525E-17
6.940000E+03	2.892279E-15	5.564555E-17
6.950000E+03	2.878845E-15	5.542183E-17
6.960000E+03	2.866312E-15	5.521204E-17
6.970000E+03	2.854586E-15	5.501442E-17
6.980000E+03	2.843658E-15	5.482885E-17
6.990000E+03	2.833604E-15	5.465680E-17
7.000000E+03	2.824467E-15	5.449915E-17
7.010000E+03	2.816399E-15	5.435889E-17
7.020000E+03	2.809510E-15	5.423815E-17
7.030000E+03	2.803935E-15	5.413959E-17
7.040000E+03	2.799920E-15	5.406796E-17
7.050000E+03	2.797613E-15	5.402616E-17
7.060000E+03	2.797157E-15	5.401693E-17
7.070000E+03	2.798780E-15	5.404473E-17
7.080000E+03	2.802519E-15	5.411025E-17
7.090000E+03	2.808550E-15	5.421683E-17
7.100000E+03	2.816946E-15	5.436588E-17
7.110000E+03	2.827667E-15	5.455658E-17
7.120000E+03	2.840738E-15	5.478935E-17
7.130000E+03	2.856104E-15	5.506304E-17
7.140000E+03	2.873669E-15	5.537575E-17
7.150000E+03	2.893267E-15	5.572417E-17
7.160000E+03	2.914692E-15	5.610423E-17
7.170000E+03	2.937823E-15	5.651352E-17
7.180000E+03	2.962376E-15	5.694648E-17
7.190000E+03	2.988161E-15	5.739936E-17
7.200000E+03	3.014875E-15	5.786627E-17
7.210000E+03	3.042330E-15	5.834351E-17
7.220000E+03	3.070308E-15	5.882683E-17
7.230000E+03	3.098527E-15	5.931081E-17
7.240000E+03	3.126880E-15	5.979334E-17
7.250000E+03	3.155119E-15	6.026965E-17
7.260000E+03	3.183093E-15	6.073687E-17
7.270000E+03	3.210626E-15	6.119167E-17
7.280000E+03	3.237638E-15	6.163252E-17
7.290000E+03	3.263970E-15	6.205650E-17
7.300000E+03	3.289516E-15	6.246162E-17
7.310000E+03	3.314084E-15	6.284433E-17
7.320000E+03	3.337638E-15	6.320409E-17
7.330000E+03	3.359980E-15	6.353726E-17
7.340000E+03	3.380942E-15	6.384081E-17
7.350000E+03	3.400480E-15	6.411413E-17
7.360000E+03	3.418386E-15	6.435349E-17
7.370000E+03	3.434503E-15	6.455616E-17
7.380000E+03	3.448783E-15	6.472148E-17
7.390000E+03	3.461118E-15	6.484774E-17
7.400000E+03	3.471535E-15	6.493572E-17
7.410000E+03	3.479987E-15	6.498483E-17
7.420000E+03	3.486620E-15	6.499817E-17
7.430000E+03	3.491616E-15	6.497938E-17
7.440000E+03	3.495231E-15	6.493360E-17
7.450000E+03	3.497760E-15	6.486654E-17
7.460000E+03	3.499704E-15	6.478778E-17
7.470000E+03	3.501451E-15	6.470474E-17
7.480000E+03	3.503577E-15	6.462820E-17
7.490000E+03	3.506644E-15	6.456871E-17
7.500000E+03	3.511275E-15	6.453778E-17
7.510000E+03	3.517992E-15	6.454507E-17
7.520000E+03	3.527371E-15	6.460113E-17
7.530000E+03	3.539849E-15	6.471386E-17
7.540000E+03	3.555910E-15	6.489207E-17
7.550000E+03	3.575854E-15	6.514110E-17
7.560000E+03	3.599818E-15	6.546331E-17
7.570000E+03	3.627899E-15	6.586035E-17
7.580000E+03	3.660054E-15	6.633135E-17
7.590000E+03	3.695995E-15	6.687106E-17
7.600000E+03	3.735428E-15	6.747412E-17
7.610000E+03	3.777712E-15	6.812904E-17
7.620000E+03	3.822201E-15	6.882430E-17
7.630000E+03	3.868114E-15	6.954611E-17
7.640000E+03	3.914498E-15	7.027764E-17
7.650000E+03	3.960240E-15	7.099938E-17
7.660000E+03	4.004308E-15	7.169335E-17
7.670000E+03	4.045411E-15	7.233708E-17
7.680000E+03	4.082463E-15	7.291185E-17
7.690000E+03	4.114243E-15	7.339666E-17
7.700000E+03	4.139653E-15	7.377273E-17
7.710000E+03	4.157766E-15	7.402439E-17
7.720000E+03	4.167690E-15	7.413661E-17
7.730000E+03	4.168834E-15	7.409968E-17
7.740000E+03	4.160710E-15	7.390566E-17
7.750000E+03	4.143176E-15	7.355271E-17
7.760000E+03	4.116226E-15	7.304129E-17
