#wls	flux	fluxerr
1.600000E+03	5.078093E-16	3.095770E-17
1.640000E+03	4.802267E-16	2.918237E-17
1.680000E+03	4.548825E-16	2.755152E-17
1.720000E+03	4.316720E-16	2.605780E-17
1.760000E+03	4.106531E-16	2.470367E-17
1.800000E+03	3.917791E-16	2.348519E-17
1.840000E+03	3.750667E-16	2.240223E-17
1.880000E+03	3.603743E-16	2.144517E-17
1.920000E+03	3.477025E-16	2.061286E-17
1.960000E+03	3.369722E-16	1.989946E-17
2.000000E+03	3.281644E-16	1.930261E-17
2.040000E+03	3.211839E-16	1.881552E-17
2.080000E+03	3.158677E-16	1.842745E-17
2.120000E+03	3.122483E-16	1.813913E-17
2.160000E+03	3.102208E-16	1.794330E-17
2.200000E+03	3.098089E-16	1.784013E-17
2.240000E+03	3.109070E-16	1.782232E-17
2.280000E+03	3.135747E-16	1.789206E-17
2.320000E+03	3.176319E-16	1.803782E-17
2.360000E+03	3.231246E-16	1.826102E-17
2.400000E+03	3.299163E-16	1.855268E-17
2.440000E+03	3.379194E-16	1.890674E-17
2.480000E+03	3.470987E-16	1.932005E-17
2.520000E+03	3.573575E-16	1.978612E-17
2.560000E+03	3.686042E-16	2.029880E-17
2.600000E+03	3.807604E-16	2.085272E-17
2.640000E+03	3.937539E-16	2.144297E-17
2.680000E+03	4.075905E-16	2.206890E-17
2.720000E+03	4.222274E-16	2.272720E-17
2.760000E+03	4.376471E-16	2.341598E-17
2.800000E+03	4.540102E-16	2.414281E-17
2.840000E+03	4.713817E-16	2.490997E-17
2.880000E+03	4.898558E-16	2.572119E-17
2.920000E+03	5.097685E-16	2.659264E-17
2.960000E+03	5.313346E-16	2.753372E-17
3.000000E+03	5.548541E-16	2.855785E-17
3.010000E+03	5.610880E-16	2.882909E-17
3.020000E+03	5.674608E-16	2.910618E-17
3.030000E+03	5.739748E-16	2.938920E-17
3.040000E+03	5.806319E-16	2.967822E-17
3.050000E+03	5.874341E-16	2.997327E-17
3.060000E+03	5.944613E-16	3.027840E-17
3.070000E+03	6.016380E-16	3.058968E-17
3.080000E+03	6.089655E-16	3.090715E-17
3.090000E+03	6.165244E-16	3.123483E-17
3.100000E+03	6.242373E-16	3.156875E-17
3.110000E+03	6.321851E-16	3.191294E-17
3.120000E+03	6.402891E-16	3.226336E-17
3.130000E+03	6.486301E-16	3.262403E-17
3.140000E+03	6.572094E-16	3.299493E-17
3.150000E+03	6.659463E-16	3.337195E-17
3.160000E+03	6.750034E-16	3.376319E-17
3.170000E+03	6.842177E-16	3.416039E-17
3.180000E+03	6.936701E-16	3.456754E-17
3.190000E+03	7.033595E-16	3.498451E-17
3.200000E+03	7.132845E-16	3.541115E-17
3.210000E+03	7.235268E-16	3.585145E-17
3.220000E+03	7.340010E-16	3.630107E-17
3.230000E+03	7.447036E-16	3.675977E-17
3.240000E+03	7.556310E-16	3.722731E-17
3.250000E+03	7.668639E-16	3.770757E-17
3.260000E+03	7.783983E-16	3.820026E-17
3.270000E+03	7.901433E-16	3.870085E-17
3.280000E+03	8.021789E-16	3.921315E-17
3.290000E+03	8.144986E-16	3.973677E-17
3.300000E+03	8.270952E-16	4.027127E-17
3.310000E+03	8.399612E-16	4.081618E-17
3.320000E+03	8.530877E-16	4.137100E-17
3.330000E+03	8.665536E-16	4.193945E-17
3.340000E+03	8.801723E-16	4.251241E-17
3.350000E+03	8.941991E-16	4.310213E-17
3.360000E+03	9.084454E-16	4.369941E-17
3.370000E+03	9.228990E-16	4.430359E-17
3.380000E+03	9.377272E-16	4.492261E-17
3.390000E+03	9.527366E-16	4.554711E-17
3.400000E+03	9.680952E-16	4.618504E-17
3.410000E+03	9.836096E-16	4.682707E-17
3.420000E+03	9.994461E-16	4.748105E-17
3.430000E+03	1.015592E-15	4.814625E-17
3.440000E+03	1.031941E-15	4.881761E-17
3.450000E+03	1.048574E-15	4.949877E-17
3.460000E+03	1.065476E-15	5.018901E-17
3.470000E+03	1.082544E-15	5.088335E-17
3.480000E+03	1.099948E-15	5.158977E-17
3.490000E+03	1.117679E-15	5.230763E-17
3.500000E+03	1.135543E-15	5.302787E-17
3.510000E+03	1.153808E-15	5.376284E-17
3.520000E+03	1.172282E-15	5.450355E-17
3.530000E+03	1.191052E-15	5.525390E-17
3.540000E+03	1.210113E-15	5.601362E-17
3.550000E+03	1.229461E-15	5.678241E-17
3.560000E+03	1.249096E-15	5.756014E-17
3.570000E+03	1.269110E-15	5.835094E-17
3.580000E+03	1.289503E-15	5.915469E-17
3.590000E+03	1.310279E-15	5.997147E-17
3.600000E+03	1.331442E-15	6.080131E-17
3.610000E+03	1.352997E-15	6.164433E-17
3.620000E+03	1.374953E-15	6.250074E-17
3.630000E+03	1.397408E-15	6.337495E-17
3.640000E+03	1.420282E-15	6.426305E-17
3.650000E+03	1.443676E-15	6.516954E-17
3.660000E+03	1.467691E-15	6.609878E-17
3.670000E+03	1.492156E-15	6.704286E-17
3.680000E+03	1.517263E-15	6.801027E-17
3.690000E+03	1.542932E-15	6.899717E-17
3.700000E+03	1.569262E-15	7.000777E-17
3.710000E+03	1.596259E-15	7.104221E-17
3.720000E+03	1.623926E-15	7.210029E-17
3.730000E+03	1.652264E-15	7.318189E-17
3.740000E+03	1.681267E-15	7.428652E-17
3.750000E+03	1.711015E-15	7.541747E-17
3.760000E+03	1.741399E-15	7.656968E-17
3.770000E+03	1.772570E-15	7.774956E-17
3.780000E+03	1.804313E-15	7.894750E-17
3.790000E+03	1.836671E-15	8.016506E-17
3.800000E+03	1.869579E-15	8.139935E-17
3.810000E+03	1.903051E-15	8.265068E-17
3.820000E+03	1.936996E-15	8.391492E-17
3.830000E+03	1.971130E-15	8.517973E-17
3.840000E+03	2.005597E-15	8.645113E-17
3.850000E+03	2.040167E-15	8.771917E-17
3.860000E+03	2.074599E-15	8.897352E-17
3.870000E+03	2.108901E-15	9.021447E-17
3.880000E+03	2.142720E-15	9.142710E-17
3.890000E+03	2.176041E-15	9.261082E-17
3.900000E+03	2.208670E-15	9.375764E-17
3.910000E+03	2.240243E-15	9.485232E-17
3.920000E+03	2.270741E-15	9.589444E-17
3.930000E+03	2.299980E-15	9.687660E-17
3.940000E+03	2.327714E-15	9.778884E-17
3.950000E+03	2.353875E-15	9.862892E-17
3.960000E+03	2.378342E-15	9.939221E-17
3.970000E+03	2.400943E-15	1.000721E-16
3.980000E+03	2.421620E-15	1.006669E-16
3.990000E+03	2.440509E-15	1.011828E-16
4.000000E+03	2.457391E-15	1.016115E-16
4.010000E+03	2.472476E-15	1.019621E-16
4.020000E+03	2.485855E-15	1.022391E-16
4.030000E+03	2.497582E-15	1.024454E-16
4.040000E+03	2.507817E-15	1.025878E-16
4.050000E+03	2.516753E-15	1.026750E-16
4.060000E+03	2.524599E-15	1.027158E-16
4.070000E+03	2.531590E-15	1.027202E-16
4.080000E+03	2.537899E-15	1.026954E-16
4.090000E+03	2.543843E-15	1.026545E-16
4.100000E+03	2.549609E-15	1.026051E-16
4.110000E+03	2.555377E-15	1.025546E-16
4.120000E+03	2.561453E-15	1.025152E-16
4.130000E+03	2.567997E-15	1.024933E-16
4.140000E+03	2.575221E-15	1.024970E-16
4.150000E+03	2.583311E-15	1.025338E-16
4.160000E+03	2.592319E-15	1.026052E-16
4.170000E+03	2.602452E-15	1.027193E-16
4.180000E+03	2.613777E-15	1.028783E-16
4.190000E+03	2.626395E-15	1.030857E-16
4.200000E+03	2.640330E-15	1.033422E-16
4.210000E+03	2.655586E-15	1.036476E-16
4.220000E+03	2.672207E-15	1.040030E-16
4.230000E+03	2.690217E-15	1.044091E-16
4.240000E+03	2.709522E-15	1.048617E-16
4.250000E+03	2.730125E-15	1.053607E-16
4.260000E+03	2.751969E-15	1.059033E-16
4.270000E+03	2.775046E-15	1.064890E-16
4.280000E+03	2.799245E-15	1.071132E-16
4.290000E+03	2.824618E-15	1.077775E-16
4.300000E+03	2.851013E-15	1.084757E-16
4.310000E+03	2.878448E-15	1.092084E-16
4.320000E+03	2.906951E-15	1.099763E-16
4.330000E+03	2.936462E-15	1.107767E-16
4.340000E+03	2.967035E-15	1.116116E-16
4.350000E+03	2.998636E-15	1.124793E-16
4.360000E+03	3.031284E-15	1.133803E-16
4.370000E+03	3.065055E-15	1.143171E-16
4.380000E+03	3.099979E-15	1.152907E-16
4.390000E+03	3.135989E-15	1.162981E-16
4.400000E+03	3.173205E-15	1.173436E-16
4.410000E+03	3.211597E-15	1.184258E-16
4.420000E+03	3.251169E-15	1.195445E-16
4.430000E+03	3.291918E-15	1.206993E-16
4.440000E+03	3.333815E-15	1.218888E-16
4.450000E+03	3.376751E-15	1.231088E-16
4.460000E+03	3.420727E-15	1.243589E-16
4.470000E+03	3.465591E-15	1.256335E-16
4.480000E+03	3.511235E-15	1.269284E-16
4.490000E+03	3.557438E-15	1.282354E-16
4.500000E+03	3.603809E-15	1.295404E-16
4.510000E+03	3.650144E-15	1.308360E-16
4.520000E+03	3.695919E-15	1.321036E-16
4.530000E+03	3.740748E-15	1.333297E-16
4.540000E+03	3.783996E-15	1.344921E-16
4.550000E+03	3.825136E-15	1.355725E-16
4.560000E+03	3.863619E-15	1.365522E-16
4.570000E+03	3.898839E-15	1.374108E-16
4.580000E+03	3.930207E-15	1.381286E-16
4.590000E+03	3.957172E-15	1.386874E-16
4.600000E+03	3.979291E-15	1.390732E-16
4.610000E+03	3.996157E-15	1.392731E-16
4.620000E+03	4.007460E-15	1.392779E-16
4.630000E+03	4.013055E-15	1.390844E-16
4.640000E+03	4.012874E-15	1.386918E-16
4.650000E+03	4.007024E-15	1.381055E-16
4.660000E+03	3.995741E-15	1.373352E-16
4.670000E+03	3.979276E-15	1.363911E-16
4.680000E+03	3.958088E-15	1.352904E-16
4.690000E+03	3.932723E-15	1.340530E-16
4.700000E+03	3.903788E-15	1.327008E-16
4.710000E+03	3.871841E-15	1.312536E-16
4.720000E+03	3.837603E-15	1.297366E-16
4.730000E+03	3.801653E-15	1.281700E-16
4.740000E+03	3.764684E-15	1.265775E-16
4.750000E+03	3.727212E-15	1.249767E-16
4.760000E+03	3.689791E-15	1.233862E-16
4.770000E+03	3.652861E-15	1.218207E-16
4.780000E+03	3.616791E-15	1.202923E-16
4.790000E+03	3.581960E-15	1.188132E-16
4.800000E+03	3.548491E-15	1.173873E-16
4.810000E+03	3.516604E-15	1.160213E-16
4.820000E+03	3.486358E-15	1.147169E-16
4.830000E+03	3.457745E-15	1.134733E-16
4.840000E+03	3.430691E-15	1.122876E-16
4.850000E+03	3.405076E-15	1.111555E-16
4.860000E+03	3.380769E-15	1.100724E-16
4.870000E+03	3.357567E-15	1.090313E-16
4.880000E+03	3.335244E-15	1.080247E-16
4.890000E+03	3.313599E-15	1.070457E-16
4.900000E+03	3.292313E-15	1.060841E-16
4.910000E+03	3.271234E-15	1.051348E-16
4.920000E+03	3.250152E-15	1.041910E-16
4.930000E+03	3.228885E-15	1.032470E-16
4.940000E+03	3.207333E-15	1.022995E-16
4.950000E+03	3.185328E-15	1.013434E-16
4.960000E+03	3.162906E-15	1.003798E-16
4.970000E+03	3.140081E-15	9.940937E-17
4.980000E+03	3.116893E-15	9.843341E-17
4.990000E+03	3.093540E-15	9.745825E-17
5.000000E+03	3.070132E-15	9.648740E-17
5.010000E+03	3.046963E-15	9.553008E-17
5.020000E+03	3.024262E-15	9.459339E-17
5.030000E+03	3.002321E-15	9.368641E-17
5.040000E+03	2.981486E-15	9.281965E-17
5.050000E+03	2.962047E-15	9.200192E-17
5.060000E+03	2.944360E-15	9.124397E-17
5.070000E+03	2.928740E-15	9.055517E-17
5.080000E+03	2.915456E-15	8.994344E-17
5.090000E+03	2.904823E-15	8.941795E-17
5.100000E+03	2.897091E-15	8.898595E-17
5.110000E+03	2.892485E-15	8.865372E-17
5.120000E+03	2.891191E-15	8.842646E-17
5.130000E+03	2.893362E-15	8.830820E-17
5.140000E+03	2.899111E-15	8.830181E-17
5.150000E+03	2.908514E-15	8.840903E-17
5.160000E+03	2.921609E-15	8.863044E-17
5.170000E+03	2.938396E-15	8.896546E-17
5.180000E+03	2.958838E-15	8.941248E-17
5.190000E+03	2.982864E-15	8.996888E-17
5.200000E+03	3.010375E-15	9.063120E-17
5.210000E+03	3.041242E-15	9.139519E-17
5.220000E+03	3.075315E-15	9.225598E-17
5.230000E+03	3.112428E-15	9.320832E-17
5.240000E+03	3.152435E-15	9.424763E-17
5.250000E+03	3.195093E-15	9.536641E-17
5.260000E+03	3.240260E-15	9.656037E-17
5.270000E+03	3.287777E-15	9.782462E-17
5.280000E+03	3.337506E-15	9.915512E-17
5.290000E+03	3.389305E-15	1.005476E-16
5.300000E+03	3.443178E-15	1.020023E-16
5.310000E+03	3.499029E-15	1.035165E-16
5.320000E+03	3.556919E-15	1.050920E-16
5.330000E+03	3.616885E-15	1.067301E-16
5.340000E+03	3.679091E-15	1.084358E-16
5.350000E+03	3.743708E-15	1.102142E-16
5.360000E+03	3.810908E-15	1.120708E-16
5.370000E+03	3.880971E-15	1.140138E-16
5.380000E+03	3.954112E-15	1.160498E-16
5.390000E+03	4.030581E-15	1.181863E-16
5.400000E+03	4.110647E-15	1.204315E-16
5.410000E+03	4.194444E-15	1.227897E-16
5.420000E+03	4.282013E-15	1.252622E-16
5.430000E+03	4.373393E-15	1.278507E-16
5.440000E+03	4.468312E-15	1.305476E-16
5.450000E+03	4.566296E-15	1.333395E-16
5.460000E+03	4.666723E-15	1.362088E-16
5.470000E+03	4.768478E-15	1.391237E-16
5.480000E+03	4.870259E-15	1.420467E-16
5.490000E+03	4.970596E-15	1.449357E-16
5.500000E+03	5.067827E-15	1.477428E-16
5.510000E+03	5.160174E-15	1.504165E-16
5.520000E+03	5.245926E-15	1.529075E-16
5.530000E+03	5.323515E-15	1.551703E-16
5.540000E+03	5.391385E-15	1.571600E-16
5.550000E+03	5.448484E-15	1.588460E-16
5.560000E+03	5.493783E-15	1.601983E-16
5.570000E+03	5.526749E-15	1.612013E-16
5.580000E+03	5.547100E-15	1.618465E-16
5.590000E+03	5.555077E-15	1.621404E-16
5.600000E+03	5.551052E-15	1.620934E-16
5.610000E+03	5.535875E-15	1.617296E-16
5.620000E+03	5.510665E-15	1.610812E-16
5.630000E+03	5.476591E-15	1.601814E-16
5.640000E+03	5.435181E-15	1.590742E-16
5.650000E+03	5.387834E-15	1.577998E-16
5.660000E+03	5.336178E-15	1.564052E-16
5.670000E+03	5.281590E-15	1.549300E-16
5.680000E+03	5.225563E-15	1.534176E-16
5.690000E+03	5.169249E-15	1.519011E-16
5.700000E+03	5.113791E-15	1.504140E-16
5.710000E+03	5.060091E-15	1.489823E-16
5.720000E+03	5.008851E-15	1.476266E-16
5.730000E+03	4.960516E-15	1.463598E-16
5.740000E+03	4.915428E-15	1.451921E-16
5.750000E+03	4.873635E-15	1.441248E-16
5.760000E+03	4.835097E-15	1.431568E-16
5.770000E+03	4.799467E-15	1.422780E-16
5.780000E+03	4.766442E-15	1.414793E-16
5.790000E+03	4.735462E-15	1.407441E-16
5.800000E+03	4.705913E-15	1.400543E-16
5.810000E+03	4.677121E-15	1.393896E-16
5.820000E+03	4.648327E-15	1.387272E-16
5.830000E+03	4.618859E-15	1.380470E-16
5.840000E+03	4.587976E-15	1.373264E-16
5.850000E+03	4.555034E-15	1.365456E-16
5.860000E+03	4.519504E-15	1.356885E-16
5.870000E+03	4.480827E-15	1.347374E-16
5.880000E+03	4.438686E-15	1.336823E-16
5.890000E+03	4.392846E-15	1.325154E-16
5.900000E+03	4.343160E-15	1.312314E-16
5.910000E+03	4.289654E-15	1.298304E-16
5.920000E+03	4.232522E-15	1.283173E-16
5.930000E+03	4.171948E-15	1.266971E-16
5.940000E+03	4.108379E-15	1.249825E-16
5.950000E+03	4.042148E-15	1.231830E-16
5.960000E+03	3.973883E-15	1.213172E-16
5.970000E+03	3.904027E-15	1.193980E-16
5.980000E+03	3.833234E-15	1.174449E-16
5.990000E+03	3.762052E-15	1.154745E-16
6.000000E+03	3.691051E-15	1.135039E-16
6.010000E+03	3.620743E-15	1.115488E-16
6.020000E+03	3.551671E-15	1.096259E-16
6.030000E+03	3.484297E-15	1.077495E-16
6.040000E+03	3.418999E-15	1.059314E-16
6.050000E+03	3.356104E-15	1.041820E-16
6.060000E+03	3.295980E-15	1.025129E-16
6.070000E+03	3.238815E-15	1.009305E-16
6.080000E+03	3.184841E-15	9.944237E-17
6.090000E+03	3.134183E-15	9.805285E-17
6.100000E+03	3.086959E-15	9.676612E-17
6.110000E+03	3.043246E-15	9.558516E-17
6.120000E+03	3.003068E-15	9.451124E-17
6.130000E+03	2.966447E-15	9.354572E-17
6.140000E+03	2.933389E-15	9.268929E-17
6.150000E+03	2.903883E-15	9.194220E-17
6.160000E+03	2.877874E-15	9.130339E-17
6.170000E+03	2.855386E-15	9.077418E-17
6.180000E+03	2.836376E-15	9.035386E-17
6.190000E+03	2.820798E-15	9.004157E-17
6.200000E+03	2.808549E-15	8.983460E-17
6.210000E+03	2.799631E-15	8.973369E-17
6.220000E+03	2.793967E-15	8.973695E-17
6.230000E+03	2.791500E-15	8.984319E-17
6.240000E+03	2.792206E-15	9.005224E-17
6.250000E+03	2.796002E-15	9.036201E-17
6.260000E+03	2.802886E-15	9.077302E-17
6.270000E+03	2.812772E-15	9.128314E-17
6.280000E+03	2.825623E-15	9.189175E-17
6.290000E+03	2.841401E-15	9.259814E-17
6.300000E+03	2.860029E-15	9.340046E-17
6.310000E+03	2.881417E-15	9.429634E-17
6.320000E+03	2.905465E-15	9.528301E-17
6.330000E+03	2.932108E-15	9.635891E-17
6.340000E+03	2.961146E-15	9.751794E-17
6.350000E+03	2.992467E-15	9.875687E-17
6.360000E+03	3.025869E-15	1.000695E-16
6.370000E+03	3.061083E-15	1.014472E-16
6.380000E+03	3.097924E-15	1.028843E-16
6.390000E+03	3.136008E-15	1.043682E-16
6.400000E+03	3.174994E-15	1.058879E-16
6.410000E+03	3.214496E-15	1.074306E-16
6.420000E+03	3.254042E-15	1.089805E-16
6.430000E+03	3.293110E-15	1.105200E-16
6.440000E+03	3.331156E-15	1.120309E-16
6.450000E+03	3.367598E-15	1.134931E-16
6.460000E+03	3.401813E-15	1.148852E-16
6.470000E+03	3.433139E-15	1.161844E-16
6.480000E+03	3.460975E-15	1.173696E-16
6.490000E+03	3.484761E-15	1.184210E-16
6.500000E+03	3.503847E-15	1.193155E-16
6.510000E+03	3.517732E-15	1.200350E-16
6.520000E+03	3.525786E-15	1.205569E-16
6.530000E+03	3.527566E-15	1.208647E-16
6.540000E+03	3.522764E-15	1.209465E-16
6.550000E+03	3.511030E-15	1.207887E-16
6.560000E+03	3.492322E-15	1.203886E-16
6.570000E+03	3.466615E-15	1.197436E-16
6.580000E+03	3.434016E-15	1.188561E-16
6.590000E+03	3.394867E-15	1.177365E-16
6.600000E+03	3.349515E-15	1.163954E-16
6.610000E+03	3.298455E-15	1.148487E-16
6.620000E+03	3.242267E-15	1.131155E-16
6.630000E+03	3.181604E-15	1.112176E-16
6.640000E+03	3.117203E-15	1.091799E-16
6.650000E+03	3.049763E-15	1.070262E-16
6.660000E+03	2.980027E-15	1.047819E-16
6.670000E+03	2.908763E-15	1.024737E-16
6.680000E+03	2.836680E-15	1.001263E-16
6.690000E+03	2.764417E-15	9.776220E-17
6.700000E+03	2.692659E-15	9.540561E-17
6.710000E+03	2.621904E-15	9.307439E-17
6.720000E+03	2.552685E-15	9.078768E-17
6.730000E+03	2.485432E-15	8.856122E-17
6.740000E+03	2.420511E-15	8.640845E-17
6.750000E+03	2.358225E-15	8.434071E-17
6.760000E+03	2.298838E-15	8.236803E-17
6.770000E+03	2.242504E-15	8.049652E-17
6.780000E+03	2.189377E-15	7.873239E-17
6.790000E+03	2.139511E-15	7.707825E-17
6.800000E+03	2.092947E-15	7.553621E-17
6.810000E+03	2.049737E-15	7.410886E-17
6.820000E+03	2.009806E-15	7.279415E-17
6.830000E+03	1.973103E-15	7.159088E-17
6.840000E+03	1.939604E-15	7.049883E-17
6.850000E+03	1.909175E-15	6.951375E-17
6.860000E+03	1.881740E-15	6.863345E-17
6.870000E+03	1.857190E-15	6.785460E-17
6.880000E+03	1.835413E-15	6.717360E-17
6.890000E+03	1.816291E-15	6.658673E-17
6.900000E+03	1.799706E-15	6.609011E-17
6.910000E+03	1.785520E-15	6.567914E-17
6.920000E+03	1.773660E-15	6.535160E-17
6.930000E+03	1.763968E-15	6.510215E-17
6.940000E+03	1.756378E-15	6.492868E-17
6.950000E+03	1.750745E-15	6.482622E-17
6.960000E+03	1.747006E-15	6.479286E-17
6.970000E+03	1.745026E-15	6.482387E-17
6.980000E+03	1.744735E-15	6.491698E-17
6.990000E+03	1.746047E-15	6.506929E-17
7.000000E+03	1.748879E-15	6.527802E-17
7.010000E+03	1.753137E-15	6.553986E-17
7.020000E+03	1.758789E-15	6.585392E-17
7.030000E+03	1.765724E-15	6.621626E-17
7.040000E+03	1.773878E-15	6.662468E-17
7.050000E+03	1.783231E-15	6.707870E-17
7.060000E+03	1.793660E-15	6.757381E-17
7.070000E+03	1.805172E-15	6.811051E-17
7.080000E+03	1.817645E-15	6.868437E-17
7.090000E+03	1.831067E-15	6.929510E-17
7.100000E+03	1.845386E-15	6.994083E-17
7.110000E+03	1.860500E-15	7.061790E-17
7.120000E+03	1.876398E-15	7.132602E-17
7.130000E+03	1.893004E-15	7.206237E-17
7.140000E+03	1.910258E-15	7.282483E-17
7.150000E+03	1.928079E-15	7.361041E-17
7.160000E+03	1.946454E-15	7.441872E-17
7.170000E+03	1.965278E-15	7.524575E-17
7.180000E+03	1.984536E-15	7.609107E-17
7.190000E+03	2.004095E-15	7.694962E-17
7.200000E+03	2.023968E-15	7.782195E-17
7.210000E+03	2.044043E-15	7.870383E-17
7.220000E+03	2.064261E-15	7.959297E-17
7.230000E+03	2.084589E-15	8.048814E-17
7.240000E+03	2.104947E-15	8.138626E-17
7.250000E+03	2.125280E-15	8.228525E-17
7.260000E+03	2.145567E-15	8.318425E-17
7.270000E+03	2.165707E-15	8.407938E-17
7.280000E+03	2.185715E-15	8.497115E-17
7.290000E+03	2.205527E-15	8.585711E-17
7.300000E+03	2.225086E-15	8.673503E-17
7.310000E+03	2.244423E-15	8.760600E-17
7.320000E+03	2.263464E-15	8.846722E-17
7.330000E+03	2.282226E-15	8.931923E-17
7.340000E+03	2.300702E-15	9.016181E-17
7.350000E+03	2.318894E-15	9.099494E-17
7.360000E+03	2.336810E-15	9.181892E-17
7.370000E+03	2.354431E-15	9.263302E-17
7.380000E+03	2.371807E-15	9.343915E-17
7.390000E+03	2.388960E-15	9.423814E-17
7.400000E+03	2.405917E-15	9.503112E-17
7.410000E+03	2.422711E-15	9.581929E-17
7.420000E+03	2.439342E-15	9.660273E-17
7.430000E+03	2.455909E-15	9.738532E-17
7.440000E+03	2.472449E-15	9.816859E-17
7.450000E+03	2.488966E-15	9.895265E-17
7.460000E+03	2.505525E-15	9.974017E-17
7.470000E+03	2.522095E-15	1.005299E-16
7.480000E+03	2.538734E-15	1.013243E-16
7.490000E+03	2.555461E-15	1.021240E-16
7.500000E+03	2.572261E-15	1.029286E-16
7.510000E+03	2.589171E-15	1.037396E-16
7.520000E+03	2.606157E-15	1.045556E-16
7.530000E+03	2.623239E-15	1.053775E-16
7.540000E+03	2.640359E-15	1.062031E-16
7.550000E+03	2.657481E-15	1.070309E-16
7.560000E+03	2.674559E-15	1.078591E-16
7.570000E+03	2.691533E-15	1.086853E-16
7.580000E+03	2.708363E-15	1.095079E-16
7.590000E+03	2.724893E-15	1.103207E-16
7.600000E+03	2.741097E-15	1.111226E-16
7.610000E+03	2.756830E-15	1.119077E-16
7.620000E+03	2.771971E-15	1.126710E-16
7.630000E+03	2.786392E-15	1.134073E-16
7.640000E+03	2.799992E-15	1.141124E-16
7.650000E+03	2.812555E-15	1.147774E-16
7.660000E+03	2.823970E-15	1.153976E-16
7.670000E+03	2.834125E-15	1.159684E-16
7.680000E+03	2.842835E-15	1.164819E-16
7.690000E+03	2.849915E-15	1.169305E-16
7.700000E+03	2.855301E-15	1.173112E-16
7.710000E+03	2.858858E-15	1.176182E-16
7.720000E+03	2.860384E-15	1.178431E-16
7.730000E+03	2.859844E-15	1.179839E-16
7.740000E+03	2.857061E-15	1.180331E-16
7.750000E+03	2.852023E-15	1.179899E-16
7.760000E+03	2.844657E-15	1.178508E-16
