#wls	flux	fluxerr
1.600000E+03	3.879000E-16	3.090758E-17
1.640000E+03	3.718296E-16	2.949718E-17
1.680000E+03	3.568551E-16	2.818222E-17
1.720000E+03	3.431817E-16	2.697793E-17
1.760000E+03	3.306532E-16	2.587094E-17
1.800000E+03	3.193740E-16	2.486836E-17
1.840000E+03	3.091837E-16	2.395656E-17
1.880000E+03	3.002221E-16	2.314527E-17
1.920000E+03	2.923179E-16	2.242010E-17
1.960000E+03	2.854720E-16	2.178003E-17
2.000000E+03	2.796194E-16	2.121896E-17
2.040000E+03	2.746892E-16	2.073046E-17
2.080000E+03	2.706593E-16	2.031182E-17
2.120000E+03	2.674690E-16	1.995745E-17
2.160000E+03	2.651003E-16	1.966500E-17
2.200000E+03	2.635481E-16	1.943308E-17
2.240000E+03	2.628518E-16	1.926350E-17
2.280000E+03	2.629465E-16	1.915037E-17
2.320000E+03	2.638607E-16	1.909464E-17
2.360000E+03	2.656201E-16	1.909696E-17
2.400000E+03	2.681551E-16	1.915111E-17
2.440000E+03	2.714481E-16	1.925466E-17
2.480000E+03	2.755846E-16	1.941243E-17
2.520000E+03	2.805173E-16	1.961977E-17
2.560000E+03	2.863082E-16	1.987967E-17
2.600000E+03	2.930362E-16	2.019612E-17
2.640000E+03	3.006903E-16	2.056677E-17
2.680000E+03	3.093716E-16	2.099687E-17
2.720000E+03	3.190575E-16	2.148306E-17
2.760000E+03	3.297842E-16	2.202595E-17
2.800000E+03	3.416053E-16	2.262718E-17
2.840000E+03	3.545948E-16	2.328954E-17
2.880000E+03	3.689000E-16	2.402043E-17
2.920000E+03	3.845839E-16	2.482141E-17
2.960000E+03	4.019456E-16	2.570895E-17
3.000000E+03	4.211437E-16	2.668985E-17
3.010000E+03	4.262176E-16	2.694845E-17
3.020000E+03	4.314613E-16	2.721606E-17
3.030000E+03	4.368774E-16	2.749279E-17
3.040000E+03	4.424118E-16	2.777513E-17
3.050000E+03	4.480665E-16	2.806317E-17
3.060000E+03	4.539010E-16	2.836056E-17
3.070000E+03	4.598604E-16	2.866378E-17
3.080000E+03	4.660048E-16	2.897651E-17
3.090000E+03	4.723375E-16	2.929886E-17
3.100000E+03	4.788611E-16	2.963091E-17
3.110000E+03	4.855203E-16	2.996913E-17
3.120000E+03	4.923763E-16	3.031724E-17
3.130000E+03	4.994324E-16	3.067533E-17
3.140000E+03	5.066919E-16	3.104350E-17
3.150000E+03	5.141580E-16	3.142186E-17
3.160000E+03	5.218341E-16	3.181049E-17
3.170000E+03	5.297843E-16	3.221320E-17
3.180000E+03	5.378911E-16	3.262271E-17
3.190000E+03	5.462794E-16	3.304651E-17
3.200000E+03	5.548922E-16	3.348101E-17
3.210000E+03	5.637329E-16	3.392631E-17
3.220000E+03	5.728673E-16	3.438623E-17
3.230000E+03	5.822999E-16	3.486088E-17
3.240000E+03	5.919722E-16	3.534665E-17
3.250000E+03	6.019508E-16	3.584735E-17
3.260000E+03	6.122401E-16	3.636310E-17
3.270000E+03	6.227802E-16	3.689019E-17
3.280000E+03	6.337028E-16	3.743627E-17
3.290000E+03	6.448835E-16	3.799381E-17
3.300000E+03	6.564547E-16	3.857047E-17
3.310000E+03	6.683554E-16	3.916246E-17
3.320000E+03	6.805882E-16	3.976976E-17
3.330000E+03	6.932214E-16	4.039619E-17
3.340000E+03	7.061913E-16	4.103783E-17
3.350000E+03	7.195653E-16	4.169842E-17
3.360000E+03	7.332769E-16	4.237390E-17
3.370000E+03	7.474605E-16	4.307184E-17
3.380000E+03	7.619790E-16	4.378412E-17
3.390000E+03	7.769656E-16	4.451818E-17
3.400000E+03	7.922785E-16	4.526570E-17
3.410000E+03	8.080490E-16	4.603397E-17
3.420000E+03	8.241995E-16	4.681834E-17
3.430000E+03	8.407896E-16	4.762199E-17
3.440000E+03	8.578073E-16	4.844401E-17
3.450000E+03	8.751675E-16	4.927938E-17
3.460000E+03	8.929246E-16	5.013097E-17
3.470000E+03	9.110625E-16	5.099767E-17
3.480000E+03	9.296376E-16	5.188243E-17
3.490000E+03	9.484930E-16	5.277627E-17
3.500000E+03	9.677623E-16	5.368646E-17
3.510000E+03	9.874361E-16	5.461226E-17
3.520000E+03	1.007501E-15	5.555273E-17
3.530000E+03	1.027873E-15	5.650296E-17
3.540000E+03	1.048606E-15	5.746587E-17
3.550000E+03	1.069758E-15	5.844431E-17
3.560000E+03	1.091233E-15	5.943290E-17
3.570000E+03	1.113006E-15	6.043010E-17
3.580000E+03	1.135126E-15	6.143839E-17
3.590000E+03	1.157565E-15	6.245605E-17
3.600000E+03	1.180294E-15	6.348132E-17
3.610000E+03	1.203280E-15	6.451234E-17
3.620000E+03	1.226494E-15	6.554735E-17
3.630000E+03	1.249982E-15	6.658869E-17
3.640000E+03	1.273639E-15	6.763063E-17
3.650000E+03	1.297517E-15	6.867581E-17
3.660000E+03	1.321595E-15	6.972297E-17
3.670000E+03	1.345858E-15	7.077122E-17
3.680000E+03	1.370371E-15	7.182391E-17
3.690000E+03	1.395056E-15	7.287675E-17
3.700000E+03	1.419992E-15	7.393380E-17
3.710000E+03	1.445116E-15	7.499160E-17
3.720000E+03	1.470596E-15	7.605879E-17
3.730000E+03	1.496381E-15	7.713245E-17
3.740000E+03	1.522497E-15	7.821386E-17
3.750000E+03	1.549049E-15	7.930811E-17
3.760000E+03	1.575991E-15	8.041266E-17
3.770000E+03	1.603498E-15	8.153622E-17
3.780000E+03	1.631438E-15	8.267174E-17
3.790000E+03	1.659969E-15	8.382700E-17
3.800000E+03	1.689009E-15	8.499756E-17
3.810000E+03	1.718537E-15	8.618203E-17
3.820000E+03	1.748580E-15	8.738158E-17
3.830000E+03	1.779071E-15	8.859256E-17
3.840000E+03	1.809991E-15	8.981378E-17
3.850000E+03	1.841076E-15	9.103193E-17
3.860000E+03	1.872251E-15	9.224331E-17
3.870000E+03	1.903423E-15	9.344323E-17
3.880000E+03	1.934397E-15	9.462216E-17
3.890000E+03	1.964892E-15	9.576652E-17
3.900000E+03	1.994754E-15	9.686913E-17
3.910000E+03	2.023824E-15	9.792261E-17
3.920000E+03	2.051727E-15	9.890925E-17
3.930000E+03	2.078309E-15	9.982239E-17
3.940000E+03	2.103362E-15	1.006527E-16
3.950000E+03	2.126771E-15	1.013956E-16
3.960000E+03	2.148239E-15	1.020378E-16
3.970000E+03	2.167858E-15	1.025848E-16
3.980000E+03	2.185346E-15	1.030242E-16
3.990000E+03	2.200808E-15	1.033621E-16
4.000000E+03	2.214263E-15	1.036006E-16
4.010000E+03	2.225709E-15	1.037406E-16
4.020000E+03	2.235261E-15	1.037886E-16
4.030000E+03	2.243073E-15	1.037527E-16
4.040000E+03	2.249401E-15	1.036457E-16
4.050000E+03	2.254404E-15	1.034757E-16
4.060000E+03	2.258332E-15	1.032548E-16
4.070000E+03	2.261392E-15	1.029932E-16
4.080000E+03	2.263975E-15	1.027089E-16
4.090000E+03	2.266245E-15	1.024099E-16
4.100000E+03	2.268480E-15	1.021086E-16
4.110000E+03	2.270999E-15	1.018196E-16
4.120000E+03	2.273945E-15	1.015490E-16
4.130000E+03	2.277607E-15	1.013095E-16
4.140000E+03	2.282142E-15	1.011078E-16
4.150000E+03	2.287690E-15	1.009496E-16
4.160000E+03	2.294513E-15	1.008459E-16
4.170000E+03	2.302598E-15	1.007955E-16
4.180000E+03	2.312058E-15	1.008027E-16
4.190000E+03	2.323025E-15	1.008726E-16
4.200000E+03	2.335419E-15	1.010010E-16
4.210000E+03	2.349374E-15	1.011929E-16
4.220000E+03	2.364770E-15	1.014424E-16
4.230000E+03	2.381652E-15	1.017508E-16
4.240000E+03	2.399916E-15	1.021130E-16
4.250000E+03	2.419537E-15	1.025270E-16
4.260000E+03	2.440390E-15	1.029872E-16
4.270000E+03	2.462433E-15	1.034912E-16
4.280000E+03	2.485580E-15	1.040347E-16
4.290000E+03	2.509698E-15	1.046118E-16
4.300000E+03	2.534702E-15	1.052185E-16
4.310000E+03	2.560517E-15	1.058514E-16
4.320000E+03	2.587069E-15	1.065070E-16
4.330000E+03	2.614213E-15	1.071793E-16
4.340000E+03	2.641987E-15	1.078694E-16
4.350000E+03	2.670233E-15	1.085708E-16
4.360000E+03	2.699025E-15	1.092863E-16
4.370000E+03	2.728219E-15	1.100101E-16
4.380000E+03	2.757976E-15	1.107483E-16
4.390000E+03	2.788355E-15	1.115033E-16
4.400000E+03	2.819429E-15	1.122777E-16
4.410000E+03	2.851273E-15	1.130744E-16
4.420000E+03	2.883997E-15	1.138973E-16
4.430000E+03	2.917699E-15	1.147499E-16
4.440000E+03	2.952447E-15	1.156345E-16
4.450000E+03	2.988272E-15	1.165517E-16
4.460000E+03	3.025097E-15	1.174982E-16
4.470000E+03	3.062908E-15	1.184730E-16
4.480000E+03	3.101485E-15	1.194670E-16
4.490000E+03	3.140604E-15	1.204715E-16
4.500000E+03	3.179995E-15	1.214758E-16
4.510000E+03	3.219212E-15	1.224629E-16
4.520000E+03	3.257855E-15	1.234178E-16
4.530000E+03	3.295362E-15	1.243195E-16
4.540000E+03	3.331110E-15	1.251451E-16
4.550000E+03	3.364474E-15	1.258722E-16
4.560000E+03	3.394858E-15	1.264797E-16
4.570000E+03	3.421582E-15	1.269437E-16
4.580000E+03	3.444089E-15	1.272455E-16
4.590000E+03	3.461797E-15	1.273654E-16
4.600000E+03	3.474253E-15	1.272891E-16
4.610000E+03	3.481207E-15	1.270100E-16
4.620000E+03	3.482360E-15	1.265196E-16
4.630000E+03	3.477690E-15	1.258198E-16
4.640000E+03	3.467318E-15	1.249176E-16
4.650000E+03	3.451429E-15	1.238222E-16
4.660000E+03	3.430380E-15	1.225487E-16
4.670000E+03	3.404736E-15	1.211197E-16
4.680000E+03	3.374990E-15	1.195545E-16
4.690000E+03	3.341834E-15	1.178794E-16
4.700000E+03	3.305964E-15	1.161203E-16
4.710000E+03	3.268099E-15	1.143035E-16
4.720000E+03	3.228912E-15	1.124534E-16
4.730000E+03	3.189166E-15	1.105967E-16
4.740000E+03	3.149422E-15	1.087532E-16
4.750000E+03	3.110217E-15	1.069414E-16
4.760000E+03	3.072094E-15	1.051793E-16
4.770000E+03	3.035399E-15	1.034784E-16
4.780000E+03	3.000471E-15	1.018495E-16
4.790000E+03	2.967559E-15	1.003003E-16
4.800000E+03	2.936796E-15	9.883412E-17
4.810000E+03	2.908231E-15	9.745188E-17
4.820000E+03	2.881910E-15	9.615402E-17
4.830000E+03	2.857675E-15	9.493437E-17
4.840000E+03	2.835444E-15	9.378925E-17
4.850000E+03	2.814984E-15	9.271018E-17
4.860000E+03	2.796059E-15	9.168867E-17
4.870000E+03	2.778440E-15	9.071655E-17
4.880000E+03	2.761780E-15	8.978198E-17
4.890000E+03	2.745829E-15	8.887657E-17
4.900000E+03	2.730316E-15	8.799119E-17
4.910000E+03	2.714922E-15	8.711555E-17
4.920000E+03	2.699494E-15	8.624464E-17
4.930000E+03	2.683822E-15	8.537189E-17
4.940000E+03	2.667782E-15	8.449349E-17
4.950000E+03	2.651279E-15	8.360659E-17
4.960000E+03	2.634306E-15	8.271123E-17
4.970000E+03	2.616952E-15	8.181040E-17
4.980000E+03	2.599279E-15	8.090621E-17
4.990000E+03	2.581518E-15	8.000603E-17
5.000000E+03	2.563842E-15	7.911521E-17
5.010000E+03	2.546518E-15	7.824197E-17
5.020000E+03	2.529878E-15	7.739637E-17
5.030000E+03	2.514217E-15	7.658718E-17
5.040000E+03	2.499897E-15	7.582504E-17
5.050000E+03	2.487230E-15	7.511889E-17
5.060000E+03	2.476546E-15	7.447806E-17
5.070000E+03	2.468159E-15	7.391126E-17
5.080000E+03	2.462362E-15	7.342645E-17
5.090000E+03	2.459446E-15	7.303132E-17
5.100000E+03	2.459588E-15	7.273017E-17
5.110000E+03	2.463034E-15	7.252919E-17
5.120000E+03	2.469886E-15	7.243027E-17
5.130000E+03	2.480310E-15	7.243716E-17
5.140000E+03	2.494345E-15	7.254990E-17
5.150000E+03	2.512019E-15	7.276813E-17
5.160000E+03	2.533306E-15	7.309007E-17
5.170000E+03	2.558141E-15	7.351280E-17
5.180000E+03	2.586439E-15	7.403290E-17
5.190000E+03	2.617988E-15	7.464347E-17
5.200000E+03	2.652647E-15	7.533965E-17
5.210000E+03	2.690152E-15	7.611332E-17
5.220000E+03	2.730235E-15	7.695634E-17
5.230000E+03	2.772627E-15	7.786071E-17
5.240000E+03	2.816955E-15	7.881566E-17
5.250000E+03	2.862948E-15	7.981350E-17
5.260000E+03	2.910250E-15	8.084423E-17
5.270000E+03	2.958573E-15	8.190005E-17
5.280000E+03	3.007561E-15	8.297125E-17
5.290000E+03	3.057009E-15	8.405258E-17
5.300000E+03	3.106668E-15	8.513761E-17
5.310000E+03	3.156401E-15	8.622310E-17
5.320000E+03	3.206032E-15	8.730475E-17
5.330000E+03	3.255577E-15	8.838367E-17
5.340000E+03	3.305013E-15	8.945983E-17
5.350000E+03	3.354407E-15	9.053566E-17
5.360000E+03	3.403909E-15	9.161583E-17
5.370000E+03	3.453593E-15	9.270297E-17
5.380000E+03	3.503693E-15	9.380394E-17
5.390000E+03	3.554291E-15	9.492149E-17
5.400000E+03	3.605580E-15	9.606139E-17
5.410000E+03	3.657586E-15	9.722489E-17
5.420000E+03	3.710239E-15	9.841070E-17
5.430000E+03	3.763458E-15	9.961733E-17
5.440000E+03	3.816869E-15	1.008356E-16
5.450000E+03	3.870083E-15	1.020559E-16
5.460000E+03	3.922609E-15	1.032662E-16
5.470000E+03	3.973838E-15	1.044513E-16
5.480000E+03	4.023137E-15	1.055955E-16
5.490000E+03	4.069718E-15	1.066788E-16
5.500000E+03	4.112792E-15	1.076810E-16
5.510000E+03	4.151528E-15	1.085810E-16
5.520000E+03	4.185191E-15	1.093600E-16
5.530000E+03	4.213188E-15	1.100029E-16
5.540000E+03	4.235026E-15	1.104973E-16
5.550000E+03	4.250433E-15	1.108362E-16
5.560000E+03	4.259258E-15	1.110160E-16
5.570000E+03	4.261692E-15	1.110415E-16
5.580000E+03	4.257976E-15	1.109190E-16
5.590000E+03	4.248727E-15	1.106643E-16
5.600000E+03	4.234656E-15	1.102957E-16
5.610000E+03	4.216539E-15	1.098329E-16
5.620000E+03	4.195436E-15	1.093030E-16
5.630000E+03	4.172381E-15	1.087326E-16
5.640000E+03	4.148399E-15	1.081478E-16
5.650000E+03	4.124531E-15	1.075754E-16
5.660000E+03	4.101800E-15	1.070416E-16
5.670000E+03	4.081057E-15	1.065681E-16
5.680000E+03	4.063108E-15	1.061758E-16
5.690000E+03	4.048492E-15	1.058786E-16
5.700000E+03	4.037741E-15	1.056901E-16
5.710000E+03	4.031130E-15	1.056176E-16
5.720000E+03	4.028704E-15	1.056622E-16
5.730000E+03	4.030362E-15	1.058214E-16
5.740000E+03	4.035806E-15	1.060874E-16
5.750000E+03	4.044561E-15	1.064479E-16
5.760000E+03	4.055976E-15	1.068858E-16
5.770000E+03	4.069288E-15	1.073811E-16
5.780000E+03	4.083477E-15	1.079069E-16
5.790000E+03	4.097548E-15	1.084367E-16
5.800000E+03	4.110392E-15	1.089411E-16
5.810000E+03	4.120876E-15	1.093895E-16
5.820000E+03	4.127844E-15	1.097510E-16
5.830000E+03	4.130285E-15	1.099978E-16
5.840000E+03	4.127258E-15	1.101041E-16
5.850000E+03	4.117892E-15	1.100456E-16
5.860000E+03	4.101667E-15	1.098074E-16
5.870000E+03	4.078158E-15	1.093768E-16
5.880000E+03	4.047212E-15	1.087484E-16
5.890000E+03	4.008916E-15	1.079232E-16
5.900000E+03	3.963584E-15	1.069082E-16
5.910000E+03	3.911703E-15	1.057153E-16
5.920000E+03	3.853981E-15	1.043623E-16
5.930000E+03	3.791308E-15	1.028720E-16
5.940000E+03	3.724604E-15	1.012685E-16
5.950000E+03	3.654852E-15	9.957755E-17
5.960000E+03	3.583128E-15	9.782774E-17
5.970000E+03	3.510422E-15	9.604553E-17
5.980000E+03	3.437707E-15	9.425719E-17
5.990000E+03	3.365882E-15	9.248718E-17
6.000000E+03	3.295747E-15	9.075747E-17
6.010000E+03	3.227968E-15	8.908649E-17
6.020000E+03	3.163094E-15	8.748969E-17
6.030000E+03	3.101620E-15	8.598115E-17
6.040000E+03	3.043900E-15	8.457114E-17
6.050000E+03	2.990118E-15	8.326535E-17
6.060000E+03	2.940456E-15	8.206946E-17
6.070000E+03	2.894917E-15	8.098421E-17
6.080000E+03	2.853517E-15	8.001075E-17
6.090000E+03	2.816150E-15	7.914680E-17
6.100000E+03	2.782686E-15	7.838936E-17
6.110000E+03	2.752926E-15	7.773357E-17
6.120000E+03	2.726639E-15	7.717354E-17
6.130000E+03	2.703601E-15	7.670354E-17
6.140000E+03	2.683576E-15	7.631747E-17
6.150000E+03	2.666319E-15	7.600895E-17
6.160000E+03	2.651567E-15	7.577094E-17
6.170000E+03	2.639118E-15	7.559821E-17
6.180000E+03	2.628758E-15	7.548503E-17
6.190000E+03	2.620321E-15	7.542708E-17
6.200000E+03	2.613643E-15	7.541997E-17
6.210000E+03	2.608559E-15	7.545937E-17
6.220000E+03	2.605013E-15	7.554393E-17
6.230000E+03	2.602901E-15	7.567100E-17
6.240000E+03	2.602177E-15	7.583957E-17
6.250000E+03	2.602895E-15	7.605151E-17
6.260000E+03	2.605009E-15	7.630581E-17
6.270000E+03	2.608567E-15	7.660422E-17
6.280000E+03	2.613629E-15	7.694884E-17
6.290000E+03	2.620291E-15	7.734287E-17
6.300000E+03	2.628542E-15	7.778643E-17
6.310000E+03	2.638445E-15	7.828162E-17
6.320000E+03	2.650073E-15	7.883097E-17
6.330000E+03	2.663398E-15	7.943389E-17
6.340000E+03	2.678446E-15	8.009142E-17
6.350000E+03	2.695092E-15	8.080019E-17
6.360000E+03	2.713281E-15	8.155875E-17
6.370000E+03	2.732852E-15	8.236251E-17
6.380000E+03	2.753611E-15	8.320588E-17
6.390000E+03	2.775250E-15	8.407963E-17
6.400000E+03	2.797442E-15	8.497398E-17
6.410000E+03	2.819782E-15	8.587660E-17
6.420000E+03	2.841728E-15	8.677089E-17
6.430000E+03	2.862679E-15	8.763819E-17
6.440000E+03	2.882008E-15	8.845897E-17
6.450000E+03	2.898931E-15	8.920854E-17
6.460000E+03	2.912677E-15	8.986245E-17
6.470000E+03	2.922521E-15	9.039742E-17
6.480000E+03	2.927876E-15	9.079418E-17
6.490000E+03	2.928230E-15	9.103566E-17
6.500000E+03	2.923013E-15	9.110280E-17
6.510000E+03	2.911870E-15	9.098312E-17
6.520000E+03	2.894375E-15	9.066176E-17
6.530000E+03	2.870303E-15	9.013016E-17
6.540000E+03	2.839538E-15	8.938300E-17
6.550000E+03	2.802079E-15	8.841871E-17
6.560000E+03	2.758150E-15	8.724276E-17
6.570000E+03	2.708072E-15	8.586386E-17
6.580000E+03	2.652372E-15	8.429734E-17
6.590000E+03	2.591681E-15	8.256204E-17
6.600000E+03	2.526733E-15	8.068033E-17
6.610000E+03	2.458315E-15	7.867649E-17
6.620000E+03	2.387341E-15	7.657912E-17
6.630000E+03	2.314660E-15	7.441504E-17
6.640000E+03	2.241134E-15	7.221175E-17
6.650000E+03	2.167589E-15	6.999585E-17
6.660000E+03	2.094813E-15	6.779289E-17
6.670000E+03	2.023474E-15	6.562487E-17
6.680000E+03	1.954198E-15	6.351252E-17
6.690000E+03	1.887500E-15	6.147317E-17
6.700000E+03	1.823780E-15	5.952049E-17
6.710000E+03	1.763390E-15	5.766676E-17
6.720000E+03	1.706579E-15	5.592088E-17
6.730000E+03	1.653495E-15	5.428854E-17
6.740000E+03	1.604279E-15	5.277522E-17
6.750000E+03	1.558932E-15	5.138180E-17
6.760000E+03	1.517465E-15	5.010947E-17
6.770000E+03	1.479842E-15	4.895783E-17
6.780000E+03	1.445942E-15	4.792367E-17
6.790000E+03	1.415670E-15	4.700462E-17
6.800000E+03	1.388890E-15	4.619687E-17
6.810000E+03	1.365457E-15	4.549622E-17
6.820000E+03	1.345210E-15	4.489795E-17
6.830000E+03	1.327985E-15	4.439717E-17
6.840000E+03	1.313612E-15	4.398875E-17
6.850000E+03	1.301940E-15	4.366809E-17
6.860000E+03	1.292765E-15	4.342886E-17
6.870000E+03	1.285943E-15	4.326657E-17
6.880000E+03	1.281323E-15	4.317657E-17
6.890000E+03	1.278721E-15	4.315295E-17
6.900000E+03	1.278018E-15	4.319205E-17
6.910000E+03	1.279041E-15	4.328826E-17
6.920000E+03	1.281687E-15	4.343835E-17
6.930000E+03	1.285815E-15	4.363774E-17
6.940000E+03	1.291310E-15	4.388275E-17
6.950000E+03	1.298048E-15	4.416934E-17
6.960000E+03	1.305966E-15	4.449547E-17
6.970000E+03	1.314974E-15	4.485827E-17
6.980000E+03	1.324966E-15	4.525419E-17
6.990000E+03	1.335890E-15	4.568154E-17
7.000000E+03	1.347684E-15	4.613835E-17
7.010000E+03	1.360314E-15	4.662350E-17
7.020000E+03	1.373699E-15	4.713433E-17
7.030000E+03	1.387834E-15	4.767067E-17
7.040000E+03	1.402662E-15	4.823066E-17
7.050000E+03	1.418130E-15	4.881253E-17
7.060000E+03	1.434241E-15	4.941640E-17
7.070000E+03	1.450937E-15	5.004037E-17
7.080000E+03	1.468182E-15	5.068319E-17
7.090000E+03	1.485935E-15	5.134349E-17
7.100000E+03	1.504149E-15	5.201966E-17
7.110000E+03	1.522775E-15	5.271005E-17
7.120000E+03	1.541774E-15	5.341336E-17
7.130000E+03	1.561050E-15	5.412623E-17
7.140000E+03	1.580555E-15	5.484701E-17
7.150000E+03	1.600239E-15	5.557403E-17
7.160000E+03	1.620011E-15	5.630406E-17
7.170000E+03	1.639794E-15	5.703450E-17
7.180000E+03	1.659512E-15	5.776268E-17
7.190000E+03	1.679088E-15	5.848588E-17
7.200000E+03	1.698471E-15	5.920237E-17
7.210000E+03	1.717545E-15	5.990807E-17
7.220000E+03	1.736287E-15	6.060222E-17
7.230000E+03	1.754617E-15	6.128195E-17
7.240000E+03	1.772502E-15	6.194617E-17
7.250000E+03	1.789874E-15	6.259248E-17
7.260000E+03	1.806699E-15	6.321965E-17
7.270000E+03	1.822969E-15	6.382749E-17
7.280000E+03	1.838645E-15	6.441455E-17
7.290000E+03	1.853715E-15	6.498048E-17
7.300000E+03	1.868201E-15	6.552603E-17
7.310000E+03	1.882110E-15	6.605151E-17
7.320000E+03	1.895428E-15	6.655642E-17
7.330000E+03	1.908198E-15	6.704229E-17
7.340000E+03	1.920415E-15	6.750901E-17
7.350000E+03	1.932129E-15	6.795836E-17
7.360000E+03	1.943365E-15	6.839127E-17
7.370000E+03	1.954124E-15	6.880786E-17
7.380000E+03	1.964463E-15	6.921011E-17
7.390000E+03	1.974407E-15	6.959908E-17
7.400000E+03	1.983963E-15	6.997496E-17
7.410000E+03	1.993183E-15	7.033973E-17
7.420000E+03	2.002125E-15	7.069552E-17
7.430000E+03	2.010795E-15	7.104259E-17
7.440000E+03	2.019225E-15	7.138218E-17
7.450000E+03	2.027478E-15	7.171662E-17
7.460000E+03	2.035565E-15	7.204636E-17
7.470000E+03	2.043496E-15	7.237185E-17
7.480000E+03	2.051368E-15	7.269666E-17
7.490000E+03	2.059136E-15	7.301934E-17
7.500000E+03	2.066901E-15	7.334352E-17
7.510000E+03	2.074671E-15	7.366967E-17
7.520000E+03	2.082513E-15	7.400026E-17
7.530000E+03	2.090402E-15	7.433453E-17
7.540000E+03	2.098420E-15	7.467554E-17
7.550000E+03	2.106555E-15	7.502307E-17
7.560000E+03	2.114785E-15	7.537640E-17
7.570000E+03	2.123160E-15	7.573752E-17
7.580000E+03	2.131602E-15	7.610377E-17
7.590000E+03	2.140103E-15	7.647505E-17
7.600000E+03	2.148609E-15	7.684959E-17
7.610000E+03	2.157048E-15	7.722496E-17
7.620000E+03	2.165303E-15	7.759712E-17
7.630000E+03	2.173269E-15	7.796241E-17
7.640000E+03	2.180879E-15	7.831862E-17
7.650000E+03	2.187910E-15	7.865784E-17
7.660000E+03	2.194274E-15	7.897695E-17
7.670000E+03	2.199811E-15	7.927033E-17
7.680000E+03	2.204333E-15	7.953121E-17
7.690000E+03	2.207677E-15	7.975372E-17
7.700000E+03	2.209712E-15	7.993316E-17
7.710000E+03	2.210258E-15	8.006295E-17
7.720000E+03	2.209177E-15	8.013797E-17
7.730000E+03	2.206379E-15	8.015484E-17
7.740000E+03	2.201729E-15	8.010852E-17
7.750000E+03	2.195179E-15	7.999701E-17
7.760000E+03	2.186646E-15	7.981709E-17
