#wls	flux	fluxerr
1.600000E+03	3.130334E-16	2.895384E-17
1.640000E+03	3.041118E-16	2.805046E-17
1.680000E+03	2.957338E-16	2.719989E-17
1.720000E+03	2.878385E-16	2.639626E-17
1.760000E+03	2.805266E-16	2.564846E-17
1.800000E+03	2.736775E-16	2.494515E-17
1.840000E+03	2.673808E-16	2.429418E-17
1.880000E+03	2.616153E-16	2.369323E-17
1.920000E+03	2.563596E-16	2.313999E-17
1.960000E+03	2.515455E-16	2.262795E-17
2.000000E+03	2.472473E-16	2.216342E-17
2.040000E+03	2.433994E-16	2.174012E-17
2.080000E+03	2.400298E-16	2.136017E-17
2.120000E+03	2.371231E-16	2.102176E-17
2.160000E+03	2.346660E-16	2.072329E-17
2.200000E+03	2.326900E-16	2.046710E-17
2.240000E+03	2.311872E-16	2.025202E-17
2.280000E+03	2.301144E-16	2.007377E-17
2.320000E+03	2.295929E-16	1.994241E-17
2.360000E+03	2.295467E-16	1.985075E-17
2.400000E+03	2.300622E-16	1.980565E-17
2.440000E+03	2.311500E-16	1.980733E-17
2.480000E+03	2.328239E-16	1.985623E-17
2.520000E+03	2.351388E-16	1.995625E-17
2.560000E+03	2.381497E-16	2.011114E-17
2.600000E+03	2.418725E-16	2.032126E-17
2.640000E+03	2.463975E-16	2.059312E-17
2.680000E+03	2.517471E-16	2.092741E-17
2.720000E+03	2.579875E-16	2.132830E-17
2.760000E+03	2.652238E-16	2.180305E-17
2.800000E+03	2.734895E-16	2.235279E-17
2.840000E+03	2.829017E-16	2.298533E-17
2.880000E+03	2.935899E-16	2.370921E-17
2.920000E+03	3.056615E-16	2.453085E-17
2.960000E+03	3.192825E-16	2.546108E-17
3.000000E+03	3.347246E-16	2.651865E-17
3.010000E+03	3.388796E-16	2.680336E-17
3.020000E+03	3.431775E-16	2.709805E-17
3.030000E+03	3.475806E-16	2.739971E-17
3.040000E+03	3.521323E-16	2.771169E-17
3.050000E+03	3.568356E-16	2.803417E-17
3.060000E+03	3.616939E-16	2.836734E-17
3.070000E+03	3.667109E-16	2.871142E-17
3.080000E+03	3.718487E-16	2.906338E-17
3.090000E+03	3.771940E-16	2.942993E-17
3.100000E+03	3.827096E-16	2.980806E-17
3.110000E+03	3.883999E-16	3.019806E-17
3.120000E+03	3.942694E-16	3.060017E-17
3.130000E+03	4.003229E-16	3.101470E-17
3.140000E+03	4.065656E-16	3.144195E-17
3.150000E+03	4.130455E-16	3.188554E-17
3.160000E+03	4.197259E-16	3.234254E-17
3.170000E+03	4.266561E-16	3.281663E-17
3.180000E+03	4.337994E-16	3.330489E-17
3.190000E+03	4.412063E-16	3.381108E-17
3.200000E+03	4.488404E-16	3.433230E-17
3.210000E+03	4.567535E-16	3.487239E-17
3.220000E+03	4.649541E-16	3.543186E-17
3.230000E+03	4.734514E-16	3.601127E-17
3.240000E+03	4.822096E-16	3.660777E-17
3.250000E+03	4.913288E-16	3.722881E-17
3.260000E+03	5.007292E-16	3.786819E-17
3.270000E+03	5.105131E-16	3.853348E-17
3.280000E+03	5.206469E-16	3.922197E-17
3.290000E+03	5.311429E-16	3.993443E-17
3.300000E+03	5.420615E-16	4.067518E-17
3.310000E+03	5.533697E-16	4.144157E-17
3.320000E+03	5.651298E-16	4.223807E-17
3.330000E+03	5.773097E-16	4.306203E-17
3.340000E+03	5.900224E-16	4.392169E-17
3.350000E+03	6.031880E-16	4.481083E-17
3.360000E+03	6.168230E-16	4.573045E-17
3.370000E+03	6.310447E-16	4.668900E-17
3.380000E+03	6.458725E-16	4.768762E-17
3.390000E+03	6.612245E-16	4.871997E-17
3.400000E+03	6.772207E-16	4.979461E-17
3.410000E+03	6.938286E-16	5.090883E-17
3.420000E+03	7.110652E-16	5.206358E-17
3.430000E+03	7.290537E-16	5.326752E-17
3.440000E+03	7.477046E-16	5.451376E-17
3.450000E+03	7.670857E-16	5.580688E-17
3.460000E+03	7.872096E-16	5.714744E-17
3.470000E+03	8.080864E-16	5.853578E-17
3.480000E+03	8.297231E-16	5.997202E-17
3.490000E+03	8.521810E-16	6.146018E-17
3.500000E+03	8.754077E-16	6.299607E-17
3.510000E+03	8.994605E-16	6.458340E-17
3.520000E+03	9.243335E-16	6.622131E-17
3.530000E+03	9.499523E-16	6.790407E-17
3.540000E+03	9.764110E-16	6.963796E-17
3.550000E+03	1.003552E-15	7.141136E-17
3.560000E+03	1.031446E-15	7.322885E-17
3.570000E+03	1.060028E-15	7.508549E-17
3.580000E+03	1.089156E-15	7.697080E-17
3.590000E+03	1.118734E-15	7.887784E-17
3.600000E+03	1.148718E-15	8.080306E-17
3.610000E+03	1.179049E-15	8.274215E-17
3.620000E+03	1.209455E-15	8.467588E-17
3.630000E+03	1.239911E-15	8.660244E-17
3.640000E+03	1.270176E-15	8.850496E-17
3.650000E+03	1.300057E-15	9.037001E-17
3.660000E+03	1.329479E-15	9.219257E-17
3.670000E+03	1.358079E-15	9.394777E-17
3.680000E+03	1.385680E-15	9.562368E-17
3.690000E+03	1.412036E-15	9.720396E-17
3.700000E+03	1.436926E-15	9.867394E-17
3.710000E+03	1.460243E-15	1.000269E-16
3.720000E+03	1.481809E-15	1.012518E-16
3.730000E+03	1.501712E-15	1.023551E-16
3.740000E+03	1.520177E-15	1.033532E-16
3.750000E+03	1.537511E-15	1.042675E-16
3.760000E+03	1.554347E-15	1.051414E-16
3.770000E+03	1.571255E-15	1.060137E-16
3.780000E+03	1.588958E-15	1.069329E-16
3.790000E+03	1.608214E-15	1.079495E-16
3.800000E+03	1.629850E-15	1.091180E-16
3.810000E+03	1.654555E-15	1.104832E-16
3.820000E+03	1.683147E-15	1.120978E-16
3.830000E+03	1.716079E-15	1.139900E-16
3.840000E+03	1.753833E-15	1.161893E-16
3.850000E+03	1.796890E-15	1.187250E-16
3.860000E+03	1.845350E-15	1.216007E-16
3.870000E+03	1.899189E-15	1.248121E-16
3.880000E+03	1.958155E-15	1.283396E-16
3.890000E+03	2.021649E-15	1.321413E-16
3.900000E+03	2.088771E-15	1.361560E-16
3.910000E+03	2.158362E-15	1.403065E-16
3.920000E+03	2.228744E-15	1.444824E-16
3.930000E+03	2.297989E-15	1.485589E-16
3.940000E+03	2.363963E-15	1.523986E-16
3.950000E+03	2.424419E-15	1.558591E-16
3.960000E+03	2.477102E-15	1.587985E-16
3.970000E+03	2.519936E-15	1.610884E-16
3.980000E+03	2.551248E-15	1.626274E-16
3.990000E+03	2.569814E-15	1.633440E-16
4.000000E+03	2.574929E-15	1.632006E-16
4.010000E+03	2.566790E-15	1.622167E-16
4.020000E+03	2.546083E-15	1.604430E-16
4.030000E+03	2.514180E-15	1.579727E-16
4.040000E+03	2.472801E-15	1.549196E-16
4.050000E+03	2.424163E-15	1.514274E-16
4.060000E+03	2.370447E-15	1.476362E-16
4.070000E+03	2.313882E-15	1.436873E-16
4.080000E+03	2.256555E-15	1.397113E-16
4.090000E+03	2.200252E-15	1.358191E-16
4.100000E+03	2.146550E-15	1.321072E-16
4.110000E+03	2.096585E-15	1.286440E-16
4.120000E+03	2.051316E-15	1.254861E-16
4.130000E+03	2.011440E-15	1.226734E-16
4.140000E+03	1.977245E-15	1.202206E-16
4.150000E+03	1.949055E-15	1.181440E-16
4.160000E+03	1.926768E-15	1.164342E-16
4.170000E+03	1.910347E-15	1.150858E-16
4.180000E+03	1.899461E-15	1.140756E-16
4.190000E+03	1.893701E-15	1.133761E-16
4.200000E+03	1.892509E-15	1.129510E-16
4.210000E+03	1.895271E-15	1.127614E-16
4.220000E+03	1.901234E-15	1.127603E-16
4.230000E+03	1.909566E-15	1.128968E-16
4.240000E+03	1.919449E-15	1.131214E-16
4.250000E+03	1.929914E-15	1.133763E-16
4.260000E+03	1.939999E-15	1.136049E-16
4.270000E+03	1.948851E-15	1.137575E-16
4.280000E+03	1.955478E-15	1.137773E-16
4.290000E+03	1.959059E-15	1.136178E-16
4.300000E+03	1.958902E-15	1.132408E-16
4.310000E+03	1.954407E-15	1.126139E-16
4.320000E+03	1.945152E-15	1.117152E-16
4.330000E+03	1.931028E-15	1.105413E-16
4.340000E+03	1.912175E-15	1.091030E-16
4.350000E+03	1.889047E-15	1.074286E-16
4.360000E+03	1.862380E-15	1.055624E-16
4.370000E+03	1.833251E-15	1.035672E-16
4.380000E+03	1.802979E-15	1.015188E-16
4.390000E+03	1.772960E-15	9.949608E-17
4.400000E+03	1.744740E-15	9.758538E-17
4.410000E+03	1.719930E-15	9.587555E-17
4.420000E+03	1.700083E-15	9.445094E-17
4.430000E+03	1.686793E-15	9.339702E-17
4.440000E+03	1.681541E-15	9.279194E-17
4.450000E+03	1.685776E-15	9.271080E-17
4.460000E+03	1.700623E-15	9.321000E-17
4.470000E+03	1.727176E-15	9.434337E-17
4.480000E+03	1.766342E-15	9.615372E-17
4.490000E+03	1.818933E-15	9.867812E-17
4.500000E+03	1.885612E-15	1.019449E-16
4.510000E+03	1.966812E-15	1.059695E-16
4.520000E+03	2.062670E-15	1.107513E-16
4.530000E+03	2.172915E-15	1.162677E-16
4.540000E+03	2.296779E-15	1.224697E-16
4.550000E+03	2.432719E-15	1.292679E-16
4.560000E+03	2.578289E-15	1.365261E-16
4.570000E+03	2.730189E-15	1.440648E-16
4.580000E+03	2.884097E-15	1.516533E-16
4.590000E+03	3.034770E-15	1.590160E-16
4.600000E+03	3.176216E-15	1.658418E-16
4.610000E+03	3.302256E-15	1.718144E-16
4.620000E+03	3.406760E-15	1.766245E-16
4.630000E+03	3.484228E-15	1.800000E-16
4.640000E+03	3.530568E-15	1.817452E-16
4.650000E+03	3.543200E-15	1.817449E-16
4.660000E+03	3.521725E-15	1.799974E-16
4.670000E+03	3.467909E-15	1.766113E-16
4.680000E+03	3.385515E-15	1.717954E-16
4.690000E+03	3.279600E-15	1.658210E-16
4.700000E+03	3.156459E-15	1.590181E-16
4.710000E+03	3.022503E-15	1.517179E-16
4.720000E+03	2.883982E-15	1.442389E-16
4.730000E+03	2.746422E-15	1.368588E-16
4.740000E+03	2.614487E-15	1.298087E-16
4.750000E+03	2.491763E-15	1.232628E-16
4.760000E+03	2.380742E-15	1.173388E-16
4.770000E+03	2.282993E-15	1.121074E-16
4.780000E+03	2.199407E-15	1.076048E-16
4.790000E+03	2.130113E-15	1.038297E-16
4.800000E+03	2.074947E-15	1.007662E-16
4.810000E+03	2.033400E-15	9.838213E-17
4.820000E+03	2.004758E-15	9.663567E-17
4.830000E+03	1.988121E-15	9.547660E-17
4.840000E+03	1.982627E-15	9.485730E-17
4.850000E+03	1.987239E-15	9.472224E-17
4.860000E+03	2.000971E-15	9.501930E-17
4.870000E+03	2.022671E-15	9.568906E-17
4.880000E+03	2.051152E-15	9.667146E-17
4.890000E+03	2.085084E-15	9.790040E-17
4.900000E+03	2.122924E-15	9.930091E-17
4.910000E+03	2.162890E-15	1.007880E-16
4.920000E+03	2.202991E-15	1.022681E-16
4.930000E+03	2.241060E-15	1.036411E-16
4.940000E+03	2.274702E-15	1.047977E-16
4.950000E+03	2.301651E-15	1.056365E-16
4.960000E+03	2.319808E-15	1.060650E-16
4.970000E+03	2.327709E-15	1.060212E-16
4.980000E+03	2.324426E-15	1.054685E-16
4.990000E+03	2.309744E-15	1.044029E-16
5.000000E+03	2.284438E-15	1.028654E-16
5.010000E+03	2.249855E-15	1.009217E-16
5.020000E+03	2.207884E-15	9.866117E-17
5.030000E+03	2.160697E-15	9.618424E-17
5.040000E+03	2.110675E-15	9.359906E-17
5.050000E+03	2.060053E-15	9.100575E-17
5.060000E+03	2.010841E-15	8.849310E-17
5.070000E+03	1.964839E-15	8.613918E-17
5.080000E+03	1.923501E-15	8.400591E-17
5.090000E+03	1.887897E-15	8.213737E-17
5.100000E+03	1.858865E-15	8.056704E-17
5.110000E+03	1.837038E-15	7.931894E-17
5.120000E+03	1.822795E-15	7.840582E-17
5.130000E+03	1.816447E-15	7.783736E-17
5.140000E+03	1.818221E-15	7.761941E-17
5.150000E+03	1.828303E-15	7.775594E-17
5.160000E+03	1.846804E-15	7.824782E-17
5.170000E+03	1.873803E-15	7.909444E-17
5.180000E+03	1.909319E-15	8.029269E-17
5.190000E+03	1.953257E-15	8.183475E-17
5.200000E+03	2.005451E-15	8.370996E-17
5.210000E+03	2.065508E-15	8.589836E-17
5.220000E+03	2.132929E-15	8.837596E-17
5.230000E+03	2.206934E-15	9.110749E-17
5.240000E+03	2.286539E-15	9.404983E-17
5.250000E+03	2.370579E-15	9.715310E-17
5.260000E+03	2.457623E-15	1.003573E-16
5.270000E+03	2.546070E-15	1.035965E-16
5.280000E+03	2.634221E-15	1.068016E-16
5.290000E+03	2.720294E-15	1.099012E-16
5.300000E+03	2.802599E-15	1.128287E-16
5.310000E+03	2.879639E-15	1.155261E-16
5.320000E+03	2.950183E-15	1.179470E-16
5.330000E+03	3.013445E-15	1.200630E-16
5.340000E+03	3.069096E-15	1.218648E-16
5.350000E+03	3.117322E-15	1.233631E-16
5.360000E+03	3.158886E-15	1.245912E-16
5.370000E+03	3.195054E-15	1.256022E-16
5.380000E+03	3.227406E-15	1.264601E-16
5.390000E+03	3.257908E-15	1.272438E-16
5.400000E+03	3.288670E-15	1.280363E-16
5.410000E+03	3.321820E-15	1.289204E-16
5.420000E+03	3.359394E-15	1.299743E-16
5.430000E+03	3.403182E-15	1.312660E-16
5.440000E+03	3.454498E-15	1.328442E-16
5.450000E+03	3.513843E-15	1.347258E-16
5.460000E+03	3.580612E-15	1.368856E-16
5.470000E+03	3.652969E-15	1.392518E-16
5.480000E+03	3.728220E-15	1.417206E-16
5.490000E+03	3.802897E-15	1.441601E-16
5.500000E+03	3.873001E-15	1.464197E-16
5.510000E+03	3.934100E-15	1.483341E-16
5.520000E+03	3.981507E-15	1.497300E-16
5.530000E+03	4.010728E-15	1.504431E-16
5.540000E+03	4.017737E-15	1.503280E-16
5.550000E+03	3.999374E-15	1.492731E-16
5.560000E+03	3.953609E-15	1.472095E-16
5.570000E+03	3.880151E-15	1.441334E-16
5.580000E+03	3.780134E-15	1.400936E-16
5.590000E+03	3.656249E-15	1.351957E-16
5.600000E+03	3.512768E-15	1.296026E-16
5.610000E+03	3.354854E-15	1.235081E-16
5.620000E+03	3.188170E-15	1.171228E-16
5.630000E+03	3.018696E-15	1.106669E-16
5.640000E+03	2.852068E-15	1.043462E-16
5.650000E+03	2.693217E-15	9.833921E-17
5.660000E+03	2.546303E-15	9.279479E-17
5.670000E+03	2.414569E-15	8.782762E-17
5.680000E+03	2.300382E-15	8.351966E-17
5.690000E+03	2.205351E-15	7.992509E-17
5.700000E+03	2.130480E-15	7.707587E-17
5.710000E+03	2.076458E-15	7.499265E-17
5.720000E+03	2.043596E-15	7.368243E-17
5.730000E+03	2.032152E-15	7.315049E-17
5.740000E+03	2.042335E-15	7.340041E-17
5.750000E+03	2.074116E-15	7.442746E-17
5.760000E+03	2.127397E-15	7.622468E-17
5.770000E+03	2.201954E-15	7.878076E-17
5.780000E+03	2.297063E-15	8.206685E-17
5.790000E+03	2.411492E-15	8.603617E-17
5.800000E+03	2.543261E-15	9.061588E-17
5.810000E+03	2.689438E-15	9.569971E-17
5.820000E+03	2.845885E-15	1.011392E-16
5.830000E+03	3.007497E-15	1.067524E-16
5.840000E+03	3.168199E-15	1.123240E-16
5.850000E+03	3.321155E-15	1.176126E-16
5.860000E+03	3.459338E-15	1.223713E-16
5.870000E+03	3.576074E-15	1.263665E-16
5.880000E+03	3.665534E-15	1.293952E-16
5.890000E+03	3.723375E-15	1.313078E-16
5.900000E+03	3.747029E-15	1.320170E-16
5.910000E+03	3.735982E-15	1.315085E-16
5.920000E+03	3.691686E-15	1.298365E-16
5.930000E+03	3.617382E-15	1.271176E-16
5.940000E+03	3.517611E-15	1.235138E-16
5.950000E+03	3.397771E-15	1.192161E-16
5.960000E+03	3.263818E-15	1.144344E-16
5.970000E+03	3.121536E-15	1.093718E-16
5.980000E+03	2.976308E-15	1.042169E-16
5.990000E+03	2.832877E-15	9.913527E-17
6.000000E+03	2.695149E-15	9.426280E-17
6.010000E+03	2.566228E-15	8.970706E-17
6.020000E+03	2.448269E-15	8.554239E-17
6.030000E+03	2.342765E-15	8.181990E-17
6.040000E+03	2.250532E-15	7.856705E-17
6.050000E+03	2.171824E-15	7.579179E-17
6.060000E+03	2.106457E-15	7.348689E-17
6.070000E+03	2.053971E-15	7.163554E-17
6.080000E+03	2.013634E-15	7.021167E-17
6.090000E+03	1.984552E-15	6.918367E-17
6.100000E+03	1.965687E-15	6.851498E-17
6.110000E+03	1.955929E-15	6.816670E-17
6.120000E+03	1.954076E-15	6.809678E-17
6.130000E+03	1.958843E-15	6.826042E-17
6.140000E+03	1.969008E-15	6.861505E-17
6.150000E+03	1.983237E-15	6.911427E-17
6.160000E+03	2.000253E-15	6.971367E-17
6.170000E+03	2.018789E-15	7.036920E-17
6.180000E+03	2.037566E-15	7.103643E-17
6.190000E+03	2.055348E-15	7.167238E-17
6.200000E+03	2.070900E-15	7.223405E-17
6.210000E+03	2.083178E-15	7.268503E-17
6.220000E+03	2.091204E-15	7.299121E-17
6.230000E+03	2.094307E-15	7.312911E-17
6.240000E+03	2.091973E-15	7.308052E-17
6.250000E+03	2.084039E-15	7.283961E-17
6.260000E+03	2.070774E-15	7.241541E-17
6.270000E+03	2.052728E-15	7.182687E-17
6.280000E+03	2.030762E-15	7.110377E-17
6.290000E+03	2.006155E-15	7.029061E-17
6.300000E+03	1.980371E-15	6.943842E-17
6.310000E+03	1.954971E-15	6.860178E-17
6.320000E+03	1.931560E-15	6.783700E-17
6.330000E+03	1.911749E-15	6.720056E-17
6.340000E+03	1.896993E-15	6.674387E-17
6.350000E+03	1.888550E-15	6.651152E-17
6.360000E+03	1.887578E-15	6.654482E-17
6.370000E+03	1.894967E-15	6.687591E-17
6.380000E+03	1.911436E-15	6.753107E-17
6.390000E+03	1.937497E-15	6.852940E-17
6.400000E+03	1.973531E-15	6.988552E-17
6.410000E+03	2.019648E-15	7.160467E-17
6.420000E+03	2.075836E-15	7.368773E-17
6.430000E+03	2.141839E-15	7.612701E-17
6.440000E+03	2.217206E-15	7.890795E-17
6.450000E+03	2.301104E-15	8.200222E-17
6.460000E+03	2.392237E-15	8.536498E-17
6.470000E+03	2.488548E-15	8.892391E-17
6.480000E+03	2.587097E-15	9.257472E-17
6.490000E+03	2.684207E-15	9.618609E-17
6.500000E+03	2.775678E-15	9.960723E-17
6.510000E+03	2.857081E-15	1.026782E-16
6.520000E+03	2.923953E-15	1.052368E-16
6.530000E+03	2.972177E-15	1.071323E-16
6.540000E+03	2.998322E-15	1.082379E-16
6.550000E+03	2.999814E-15	1.084567E-16
6.560000E+03	2.975306E-15	1.077359E-16
6.570000E+03	2.924786E-15	1.060704E-16
6.580000E+03	2.849453E-15	1.034994E-16
6.590000E+03	2.751756E-15	1.001073E-16
6.600000E+03	2.635128E-15	9.601542E-17
6.610000E+03	2.503586E-15	9.136671E-17
6.620000E+03	2.361478E-15	8.631733E-17
6.630000E+03	2.213172E-15	8.102522E-17
6.640000E+03	2.062792E-15	7.564023E-17
6.650000E+03	1.914094E-15	7.029984E-17
6.660000E+03	1.770168E-15	6.511782E-17
6.670000E+03	1.633505E-15	6.018673E-17
6.680000E+03	1.505907E-15	5.557421E-17
6.690000E+03	1.388528E-15	5.132447E-17
6.700000E+03	1.282001E-15	4.746266E-17
6.710000E+03	1.186492E-15	4.399682E-17
6.720000E+03	1.101827E-15	4.092246E-17
6.730000E+03	1.027577E-15	3.822546E-17
6.740000E+03	9.631940E-16	3.588725E-17
6.750000E+03	9.079783E-16	3.388347E-17
6.760000E+03	8.612625E-16	3.219078E-17
6.770000E+03	8.223586E-16	3.078492E-17
6.780000E+03	7.906276E-16	2.964332E-17
6.790000E+03	7.654540E-16	2.874411E-17
6.800000E+03	7.462929E-16	2.806795E-17
6.810000E+03	7.326564E-16	2.759750E-17
6.820000E+03	7.240920E-16	2.731665E-17
6.830000E+03	7.202047E-16	2.721136E-17
6.840000E+03	7.205929E-16	2.726721E-17
6.850000E+03	7.249330E-16	2.747267E-17
6.860000E+03	7.328778E-16	2.781522E-17
6.870000E+03	7.441027E-16	2.828313E-17
6.880000E+03	7.582584E-16	2.886363E-17
6.890000E+03	7.750241E-16	2.954497E-17
6.900000E+03	7.940393E-16	3.031378E-17
6.910000E+03	8.149461E-16	3.115675E-17
6.920000E+03	8.373641E-16	3.205958E-17
6.930000E+03	8.608888E-16	3.300700E-17
6.940000E+03	8.851404E-16	3.398456E-17
6.950000E+03	9.097069E-16	3.497653E-17
6.960000E+03	9.342242E-16	3.596890E-17
6.970000E+03	9.583516E-16	3.694850E-17
6.980000E+03	9.817972E-16	3.790397E-17
6.990000E+03	1.004369E-15	3.882778E-17
7.000000E+03	1.025935E-15	3.971459E-17
7.010000E+03	1.046443E-15	4.056228E-17
7.020000E+03	1.065975E-15	4.137385E-17
7.030000E+03	1.084694E-15	4.215539E-17
7.040000E+03	1.102808E-15	4.291494E-17
7.050000E+03	1.120637E-15	4.366482E-17
7.060000E+03	1.138500E-15	4.441742E-17
7.070000E+03	1.156687E-15	4.518408E-17
7.080000E+03	1.175536E-15	4.597808E-17
7.090000E+03	1.195307E-15	4.680968E-17
7.100000E+03	1.216212E-15	4.768729E-17
7.110000E+03	1.238420E-15	4.861777E-17
7.120000E+03	1.262015E-15	4.960457E-17
7.130000E+03	1.287035E-15	5.064938E-17
7.140000E+03	1.313406E-15	5.174950E-17
7.150000E+03	1.341074E-15	5.290299E-17
7.160000E+03	1.369822E-15	5.410148E-17
7.170000E+03	1.399454E-15	5.533737E-17
7.180000E+03	1.429693E-15	5.659981E-17
7.190000E+03	1.460190E-15	5.787511E-17
7.200000E+03	1.490592E-15	5.914928E-17
7.210000E+03	1.520489E-15	6.040606E-17
7.220000E+03	1.549497E-15	6.163013E-17
7.230000E+03	1.577216E-15	6.280545E-17
7.240000E+03	1.603242E-15	6.391580E-17
7.250000E+03	1.627275E-15	6.494901E-17
7.260000E+03	1.648974E-15	6.589118E-17
7.270000E+03	1.668131E-15	6.673374E-17
7.280000E+03	1.684542E-15	6.746820E-17
7.290000E+03	1.698087E-15	6.808942E-17
7.300000E+03	1.708726E-15	6.859550E-17
7.310000E+03	1.716449E-15	6.898563E-17
7.320000E+03	1.721347E-15	6.926314E-17
7.330000E+03	1.723545E-15	6.943277E-17
7.340000E+03	1.723210E-15	6.950084E-17
7.350000E+03	1.720611E-15	6.947800E-17
7.360000E+03	1.715959E-15	6.937246E-17
7.370000E+03	1.709530E-15	6.919517E-17
7.380000E+03	1.701653E-15	6.895923E-17
7.390000E+03	1.692526E-15	6.867256E-17
7.400000E+03	1.682415E-15	6.834584E-17
7.410000E+03	1.671539E-15	6.798782E-17
7.420000E+03	1.660056E-15	6.760493E-17
7.430000E+03	1.648098E-15	6.720249E-17
7.440000E+03	1.635813E-15	6.678645E-17
7.450000E+03	1.623289E-15	6.636048E-17
7.460000E+03	1.610671E-15	6.593051E-17
7.470000E+03	1.598039E-15	6.549978E-17
7.480000E+03	1.585507E-15	6.507311E-17
7.490000E+03	1.573174E-15	6.465451E-17
7.500000E+03	1.561093E-15	6.424635E-17
7.510000E+03	1.549424E-15	6.385521E-17
7.520000E+03	1.538218E-15	6.348331E-17
7.530000E+03	1.527559E-15	6.313429E-17
7.540000E+03	1.517526E-15	6.281152E-17
7.550000E+03	1.508186E-15	6.251795E-17
7.560000E+03	1.499591E-15	6.225591E-17
7.570000E+03	1.491756E-15	6.202616E-17
7.580000E+03	1.484717E-15	6.183042E-17
7.590000E+03	1.478450E-15	6.166787E-17
7.600000E+03	1.472925E-15	6.153750E-17
7.610000E+03	1.468091E-15	6.143735E-17
7.620000E+03	1.463890E-15	6.136517E-17
7.630000E+03	1.460181E-15	6.131523E-17
7.640000E+03	1.456857E-15	6.128325E-17
7.650000E+03	1.453752E-15	6.126227E-17
7.660000E+03	1.450719E-15	6.124627E-17
7.670000E+03	1.447578E-15	6.122769E-17
7.680000E+03	1.444121E-15	6.119774E-17
7.690000E+03	1.440178E-15	6.114920E-17
7.700000E+03	1.435542E-15	6.107315E-17
7.710000E+03	1.430061E-15	6.096301E-17
7.720000E+03	1.423578E-15	6.081192E-17
7.730000E+03	1.415947E-15	6.061333E-17
7.740000E+03	1.407067E-15	6.036269E-17
7.750000E+03	1.396891E-15	6.005762E-17
7.760000E+03	1.385391E-15	5.969656E-17
