#wls	flux	fluxerr
1.600000E+03	3.115573E-16	2.832556E-17
1.640000E+03	3.025302E-16	2.746204E-17
1.680000E+03	2.939757E-16	2.664289E-17
1.720000E+03	2.859986E-16	2.587748E-17
1.760000E+03	2.784788E-16	2.515474E-17
1.800000E+03	2.715090E-16	2.448291E-17
1.840000E+03	2.650203E-16	2.385558E-17
1.880000E+03	2.590446E-16	2.327544E-17
1.920000E+03	2.535609E-16	2.274040E-17
1.960000E+03	2.485033E-16	2.224438E-17
2.000000E+03	2.439453E-16	2.179375E-17
2.040000E+03	2.398667E-16	2.138651E-17
2.080000E+03	2.362067E-16	2.101702E-17
2.120000E+03	2.329948E-16	2.068769E-17
2.160000E+03	2.302182E-16	2.039717E-17
2.200000E+03	2.279077E-16	2.014795E-17
2.240000E+03	2.260550E-16	1.993905E-17
2.280000E+03	2.246562E-16	1.976985E-17
2.320000E+03	2.237500E-16	1.964348E-17
2.360000E+03	2.233388E-16	1.955985E-17
2.400000E+03	2.234663E-16	1.952246E-17
2.440000E+03	2.241046E-16	1.952849E-17
2.480000E+03	2.253393E-16	1.958505E-17
2.520000E+03	2.271830E-16	1.969278E-17
2.560000E+03	2.297190E-16	1.985843E-17
2.600000E+03	2.328816E-16	2.007580E-17
2.640000E+03	2.368191E-16	2.035713E-17
2.680000E+03	2.414810E-16	2.069746E-17
2.720000E+03	2.470104E-16	2.110839E-17
2.760000E+03	2.534778E-16	2.159519E-17
2.800000E+03	2.609191E-16	2.216007E-17
2.840000E+03	2.694840E-16	2.281480E-17
2.880000E+03	2.792616E-16	2.356589E-17
2.920000E+03	2.903566E-16	2.442098E-17
2.960000E+03	3.029662E-16	2.539532E-17
3.000000E+03	3.172775E-16	2.650307E-17
3.010000E+03	3.211749E-16	2.680513E-17
3.020000E+03	3.251712E-16	2.711478E-17
3.030000E+03	3.292689E-16	2.743217E-17
3.040000E+03	3.335468E-16	2.776386E-17
3.050000E+03	3.379320E-16	2.810373E-17
3.060000E+03	3.424658E-16	2.845519E-17
3.070000E+03	3.471517E-16	2.881850E-17
3.080000E+03	3.519936E-16	2.919392E-17
3.090000E+03	3.569951E-16	2.958174E-17
3.100000E+03	3.621997E-16	2.998549E-17
3.110000E+03	3.675336E-16	3.039904E-17
3.120000E+03	3.730402E-16	3.082592E-17
3.130000E+03	3.787640E-16	3.126979E-17
3.140000E+03	3.846710E-16	3.172775E-17
3.150000E+03	3.907664E-16	3.220021E-17
3.160000E+03	3.970961E-16	3.269089E-17
3.170000E+03	4.036263E-16	3.319694E-17
3.180000E+03	4.103631E-16	3.371883E-17
3.190000E+03	4.173542E-16	3.426041E-17
3.200000E+03	4.246073E-16	3.482224E-17
3.210000E+03	4.321304E-16	3.540491E-17
3.220000E+03	4.398904E-16	3.600564E-17
3.230000E+03	4.479374E-16	3.662846E-17
3.240000E+03	4.563229E-16	3.727751E-17
3.250000E+03	4.649727E-16	3.794665E-17
3.260000E+03	4.739392E-16	3.864005E-17
3.270000E+03	4.832331E-16	3.935853E-17
3.280000E+03	4.929094E-16	4.010647E-17
3.290000E+03	5.029371E-16	4.088122E-17
3.300000E+03	5.133286E-16	4.168373E-17
3.310000E+03	5.241414E-16	4.251855E-17
3.320000E+03	5.353899E-16	4.338673E-17
3.330000E+03	5.470439E-16	4.428572E-17
3.340000E+03	5.591174E-16	4.521652E-17
3.350000E+03	5.717175E-16	4.618768E-17
3.360000E+03	5.848147E-16	4.719667E-17
3.370000E+03	5.983784E-16	4.824090E-17
3.380000E+03	6.125180E-16	4.932904E-17
3.390000E+03	6.272034E-16	5.045851E-17
3.400000E+03	6.424501E-16	5.163042E-17
3.410000E+03	6.583224E-16	5.284975E-17
3.420000E+03	6.748359E-16	5.411759E-17
3.430000E+03	6.919553E-16	5.543094E-17
3.440000E+03	7.096924E-16	5.679057E-17
3.450000E+03	7.281591E-16	5.820524E-17
3.460000E+03	7.473145E-16	5.967149E-17
3.470000E+03	7.671134E-16	6.118552E-17
3.480000E+03	7.876641E-16	6.275578E-17
3.490000E+03	8.089713E-16	6.438241E-17
3.500000E+03	8.309832E-16	6.606109E-17
3.510000E+03	8.536971E-16	6.779141E-17
3.520000E+03	8.771601E-16	6.957688E-17
3.530000E+03	9.013581E-16	7.141619E-17
3.540000E+03	9.262687E-16	7.330734E-17
3.550000E+03	9.518588E-16	7.524750E-17
3.560000E+03	9.781416E-16	7.723752E-17
3.570000E+03	1.004946E-15	7.926369E-17
3.580000E+03	1.032380E-15	8.133439E-17
3.590000E+03	1.060252E-15	8.343430E-17
3.600000E+03	1.088472E-15	8.555623E-17
3.610000E+03	1.117064E-15	8.770196E-17
3.620000E+03	1.145858E-15	8.985803E-17
3.630000E+03	1.174732E-15	9.201474E-17
3.640000E+03	1.203543E-15	9.416097E-17
3.650000E+03	1.232192E-15	9.628897E-17
3.660000E+03	1.260427E-15	9.837904E-17
3.670000E+03	1.288096E-15	1.004195E-16
3.680000E+03	1.314952E-15	1.023911E-16
3.690000E+03	1.340794E-15	1.042786E-16
3.700000E+03	1.365233E-15	1.060520E-16
3.710000E+03	1.388165E-15	1.077034E-16
3.720000E+03	1.409363E-15	1.092160E-16
3.730000E+03	1.428799E-15	1.105878E-16
3.740000E+03	1.446741E-15	1.118401E-16
3.750000E+03	1.463376E-15	1.129878E-16
3.760000E+03	1.479230E-15	1.140718E-16
3.770000E+03	1.494964E-15	1.151432E-16
3.780000E+03	1.511146E-15	1.162457E-16
3.790000E+03	1.528648E-15	1.174462E-16
3.800000E+03	1.548172E-15	1.187981E-16
3.810000E+03	1.570530E-15	1.203633E-16
3.820000E+03	1.596421E-15	1.221942E-16
3.830000E+03	1.626404E-15	1.243326E-16
3.840000E+03	1.661063E-15	1.268219E-16
3.850000E+03	1.700798E-15	1.296912E-16
3.860000E+03	1.745855E-15	1.329578E-16
3.870000E+03	1.796299E-15	1.366250E-16
3.880000E+03	1.851956E-15	1.406781E-16
3.890000E+03	1.912359E-15	1.450800E-16
3.900000E+03	1.976710E-15	1.497689E-16
3.910000E+03	2.043867E-15	1.546572E-16
3.920000E+03	2.112382E-15	1.596345E-16
3.930000E+03	2.180334E-15	1.645556E-16
3.940000E+03	2.245541E-15	1.692561E-16
3.950000E+03	2.305855E-15	1.735749E-16
3.960000E+03	2.358893E-15	1.773346E-16
3.970000E+03	2.402483E-15	1.803740E-16
3.980000E+03	2.434785E-15	1.825580E-16
3.990000E+03	2.454373E-15	1.837832E-16
4.000000E+03	2.460588E-15	1.840042E-16
4.010000E+03	2.453427E-15	1.832246E-16
4.020000E+03	2.433463E-15	1.814913E-16
4.030000E+03	2.402162E-15	1.789172E-16
4.040000E+03	2.361308E-15	1.756385E-16
4.050000E+03	2.313082E-15	1.718200E-16
4.060000E+03	2.259733E-15	1.676309E-16
4.070000E+03	2.203535E-15	1.632411E-16
4.080000E+03	2.146646E-15	1.588113E-16
4.090000E+03	2.090756E-15	1.544664E-16
4.100000E+03	2.037492E-15	1.503263E-16
4.110000E+03	1.988013E-15	1.464757E-16
4.120000E+03	1.943181E-15	1.429768E-16
4.130000E+03	1.903670E-15	1.398776E-16
4.140000E+03	1.869788E-15	1.371994E-16
4.150000E+03	1.841738E-15	1.349552E-16
4.160000E+03	1.819547E-15	1.331453E-16
4.170000E+03	1.803059E-15	1.317565E-16
4.180000E+03	1.792016E-15	1.307683E-16
4.190000E+03	1.785994E-15	1.301482E-16
4.200000E+03	1.784448E-15	1.298548E-16
4.210000E+03	1.786797E-15	1.298449E-16
4.220000E+03	1.792298E-15	1.300630E-16
4.230000E+03	1.800123E-15	1.304485E-16
4.240000E+03	1.809387E-15	1.309365E-16
4.250000E+03	1.819198E-15	1.314621E-16
4.260000E+03	1.828634E-15	1.319587E-16
4.270000E+03	1.836745E-15	1.323579E-16
4.280000E+03	1.842603E-15	1.325933E-16
4.290000E+03	1.845400E-15	1.326077E-16
4.300000E+03	1.844325E-15	1.323437E-16
4.310000E+03	1.838766E-15	1.317587E-16
4.320000E+03	1.828326E-15	1.308256E-16
4.330000E+03	1.812799E-15	1.295313E-16
4.340000E+03	1.792279E-15	1.278840E-16
4.350000E+03	1.767207E-15	1.259165E-16
4.360000E+03	1.738346E-15	1.236847E-16
4.370000E+03	1.706811E-15	1.212689E-16
4.380000E+03	1.673900E-15	1.187619E-16
4.390000E+03	1.641168E-15	1.162744E-16
4.400000E+03	1.610246E-15	1.139218E-16
4.410000E+03	1.582762E-15	1.118184E-16
4.420000E+03	1.560339E-15	1.100777E-16
4.430000E+03	1.544484E-15	1.088046E-16
4.440000E+03	1.536576E-15	1.080937E-16
4.450000E+03	1.537891E-15	1.080325E-16
4.460000E+03	1.549540E-15	1.086962E-16
4.470000E+03	1.572481E-15	1.101488E-16
4.480000E+03	1.607653E-15	1.124526E-16
4.490000E+03	1.655862E-15	1.156602E-16
4.500000E+03	1.717809E-15	1.198167E-16
4.510000E+03	1.794107E-15	1.249608E-16
4.520000E+03	1.884998E-15	1.311050E-16
4.530000E+03	1.990441E-15	1.382422E-16
4.540000E+03	2.109938E-15	1.463337E-16
4.550000E+03	2.242256E-15	1.552899E-16
4.560000E+03	2.385399E-15	1.649692E-16
4.570000E+03	2.536461E-15	1.751676E-16
4.580000E+03	2.691402E-15	1.856045E-16
4.590000E+03	2.845217E-15	1.959340E-16
4.600000E+03	2.992056E-15	2.057543E-16
4.610000E+03	3.125535E-15	2.146292E-16
4.620000E+03	3.239165E-15	2.221177E-16
4.630000E+03	3.326917E-15	2.278129E-16
4.640000E+03	3.383817E-15	2.313821E-16
4.650000E+03	3.406566E-15	2.326093E-16
4.660000E+03	3.394062E-15	2.314290E-16
4.670000E+03	3.347357E-15	2.279232E-16
4.680000E+03	3.269904E-15	2.223364E-16
4.690000E+03	3.166847E-15	2.150267E-16
4.700000E+03	3.044585E-15	2.064353E-16
4.710000E+03	2.910068E-15	1.970382E-16
4.720000E+03	2.770059E-15	1.872960E-16
4.730000E+03	2.630560E-15	1.776156E-16
4.740000E+03	2.496584E-15	1.683345E-16
4.750000E+03	2.371939E-15	1.597076E-16
4.760000E+03	2.259216E-15	1.519064E-16
4.770000E+03	2.159968E-15	1.450318E-16
4.780000E+03	2.074951E-15	1.391305E-16
4.790000E+03	2.004235E-15	1.342033E-16
4.800000E+03	1.947551E-15	1.302280E-16
4.810000E+03	1.904264E-15	1.271584E-16
4.820000E+03	1.873638E-15	1.249419E-16
4.830000E+03	1.854797E-15	1.235163E-16
4.840000E+03	1.846791E-15	1.228154E-16
4.850000E+03	1.848737E-15	1.227776E-16
4.860000E+03	1.859666E-15	1.233358E-16
4.870000E+03	1.878586E-15	1.244221E-16
4.880000E+03	1.904515E-15	1.259694E-16
4.890000E+03	1.936284E-15	1.278987E-16
4.900000E+03	1.972610E-15	1.301237E-16
4.910000E+03	2.011926E-15	1.325402E-16
4.920000E+03	2.052389E-15	1.350261E-16
4.930000E+03	2.091897E-15	1.374431E-16
4.940000E+03	2.128086E-15	1.396366E-16
4.950000E+03	2.158518E-15	1.414475E-16
4.960000E+03	2.180957E-15	1.427311E-16
4.970000E+03	2.193582E-15	1.433706E-16
4.980000E+03	2.195185E-15	1.432897E-16
4.990000E+03	2.185430E-15	1.424692E-16
5.000000E+03	2.164797E-15	1.409433E-16
5.010000E+03	2.134574E-15	1.387985E-16
5.020000E+03	2.096560E-15	1.361539E-16
5.030000E+03	2.052982E-15	1.331559E-16
5.040000E+03	2.006113E-15	1.299530E-16
5.050000E+03	1.958197E-15	1.266912E-16
5.060000E+03	1.911330E-15	1.235061E-16
5.070000E+03	1.867205E-15	1.205067E-16
5.080000E+03	1.827257E-15	1.177846E-16
5.090000E+03	1.792576E-15	1.154092E-16
5.100000E+03	1.763949E-15	1.134297E-16
5.110000E+03	1.741914E-15	1.118791E-16
5.120000E+03	1.726870E-15	1.107817E-16
5.130000E+03	1.719066E-15	1.101517E-16
5.140000E+03	1.718717E-15	1.100013E-16
5.150000E+03	1.725985E-15	1.103391E-16
5.160000E+03	1.741008E-15	1.111724E-16
5.170000E+03	1.763912E-15	1.125076E-16
5.180000E+03	1.794724E-15	1.143447E-16
5.190000E+03	1.833459E-15	1.166832E-16
5.200000E+03	1.880040E-15	1.195165E-16
5.210000E+03	1.934210E-15	1.228268E-16
5.220000E+03	1.995591E-15	1.265888E-16
5.230000E+03	2.063572E-15	1.307625E-16
5.240000E+03	2.137362E-15	1.352967E-16
5.250000E+03	2.215909E-15	1.401239E-16
5.260000E+03	2.298012E-15	1.451676E-16
5.270000E+03	2.382202E-15	1.503347E-16
5.280000E+03	2.466964E-15	1.555296E-16
5.290000E+03	2.550623E-15	1.606469E-16
5.300000E+03	2.631635E-15	1.655899E-16
5.310000E+03	2.708526E-15	1.702668E-16
5.320000E+03	2.780030E-15	1.745991E-16
5.330000E+03	2.845288E-15	1.785341E-16
5.340000E+03	2.903796E-15	1.820416E-16
5.350000E+03	2.955610E-15	1.851264E-16
5.360000E+03	3.001220E-15	1.878205E-16
5.370000E+03	3.041505E-15	1.901802E-16
5.380000E+03	3.077863E-15	1.922937E-16
5.390000E+03	3.111818E-15	1.942570E-16
5.400000E+03	3.145149E-15	1.961817E-16
5.410000E+03	3.179628E-15	1.981784E-16
5.420000E+03	3.216951E-15	2.003528E-16
5.430000E+03	3.258500E-15	2.027907E-16
5.440000E+03	3.305284E-15	2.055544E-16
5.450000E+03	3.357582E-15	2.086608E-16
5.460000E+03	3.414988E-15	2.120844E-16
5.470000E+03	3.476348E-15	2.157529E-16
5.480000E+03	3.539703E-15	2.195447E-16
5.490000E+03	3.602546E-15	2.233044E-16
5.500000E+03	3.661741E-15	2.268380E-16
5.510000E+03	3.713607E-15	2.299181E-16
5.520000E+03	3.754251E-15	2.323048E-16
5.530000E+03	3.779569E-15	2.337455E-16
5.540000E+03	3.785836E-15	2.340117E-16
5.550000E+03	3.769778E-15	2.329027E-16
5.560000E+03	3.729187E-15	2.302843E-16
5.570000E+03	3.663199E-15	2.261052E-16
5.580000E+03	3.572373E-15	2.204016E-16
5.590000E+03	3.458689E-15	2.132974E-16
5.600000E+03	3.325668E-15	2.050110E-16
5.610000E+03	3.177778E-15	1.958186E-16
5.620000E+03	3.020312E-15	1.860468E-16
5.630000E+03	2.858828E-15	1.760380E-16
5.640000E+03	2.698770E-15	1.661270E-16
5.650000E+03	2.545072E-15	1.566166E-16
5.660000E+03	2.401850E-15	1.477593E-16
5.670000E+03	2.272429E-15	1.397584E-16
5.680000E+03	2.159210E-15	1.327605E-16
5.690000E+03	2.063859E-15	1.268667E-16
5.700000E+03	1.987478E-15	1.221438E-16
5.710000E+03	1.930716E-15	1.186304E-16
5.720000E+03	1.894031E-15	1.163538E-16
5.730000E+03	1.877726E-15	1.153317E-16
5.740000E+03	1.882057E-15	1.155791E-16
5.750000E+03	1.907166E-15	1.171041E-16
5.760000E+03	1.953117E-15	1.199102E-16
5.770000E+03	2.019883E-15	1.239953E-16
5.780000E+03	2.107056E-15	1.293341E-16
5.790000E+03	2.213819E-15	1.358763E-16
5.800000E+03	2.338638E-15	1.435279E-16
5.810000E+03	2.479068E-15	1.521389E-16
5.820000E+03	2.631573E-15	1.614924E-16
5.830000E+03	2.791489E-15	1.713026E-16
5.840000E+03	2.953090E-15	1.812186E-16
5.850000E+03	3.109773E-15	1.908356E-16
5.860000E+03	3.254560E-15	1.997256E-16
5.870000E+03	3.380547E-15	2.074654E-16
5.880000E+03	3.481589E-15	2.136780E-16
5.890000E+03	3.552698E-15	2.180572E-16
5.900000E+03	3.590766E-15	2.204120E-16
5.910000E+03	3.594510E-15	2.206632E-16
5.920000E+03	3.564731E-15	2.188594E-16
5.930000E+03	3.504023E-15	2.151591E-16
5.940000E+03	3.416419E-15	2.098090E-16
5.950000E+03	3.307054E-15	2.031237E-16
5.960000E+03	3.181576E-15	1.954491E-16
5.970000E+03	3.045774E-15	1.871402E-16
5.980000E+03	2.905192E-15	1.785369E-16
5.990000E+03	2.764723E-15	1.699395E-16
6.000000E+03	2.628652E-15	1.616111E-16
6.010000E+03	2.500251E-15	1.537527E-16
6.020000E+03	2.382075E-15	1.465215E-16
6.030000E+03	2.275820E-15	1.400219E-16
6.040000E+03	2.182504E-15	1.343170E-16
6.050000E+03	2.102573E-15	1.294346E-16
6.060000E+03	2.035989E-15	1.253729E-16
6.070000E+03	1.982338E-15	1.221069E-16
6.080000E+03	1.940981E-15	1.195980E-16
6.090000E+03	1.911044E-15	1.177927E-16
6.100000E+03	1.891508E-15	1.166290E-16
6.110000E+03	1.881237E-15	1.160374E-16
6.120000E+03	1.879038E-15	1.159448E-16
6.130000E+03	1.883686E-15	1.162762E-16
6.140000E+03	1.893893E-15	1.169526E-16
6.150000E+03	1.908372E-15	1.178948E-16
6.160000E+03	1.925864E-15	1.190254E-16
6.170000E+03	1.945173E-15	1.202707E-16
6.180000E+03	1.965054E-15	1.215539E-16
6.190000E+03	1.984254E-15	1.227975E-16
6.200000E+03	2.001547E-15	1.239256E-16
6.210000E+03	2.015837E-15	1.248703E-16
6.220000E+03	2.026078E-15	1.255663E-16
6.230000E+03	2.031434E-15	1.259617E-16
6.240000E+03	2.031256E-15	1.260155E-16
6.250000E+03	2.025227E-15	1.257076E-16
6.260000E+03	2.013380E-15	1.250395E-16
6.270000E+03	1.996161E-15	1.240384E-16
6.280000E+03	1.974426E-15	1.227567E-16
6.290000E+03	1.949401E-15	1.212703E-16
6.300000E+03	1.922627E-15	1.196746E-16
6.310000E+03	1.895835E-15	1.180773E-16
6.320000E+03	1.870775E-15	1.165873E-16
6.330000E+03	1.849222E-15	1.153155E-16
6.340000E+03	1.832819E-15	1.143646E-16
6.350000E+03	1.822986E-15	1.138240E-16
6.360000E+03	1.820960E-15	1.137716E-16
6.370000E+03	1.827748E-15	1.142713E-16
6.380000E+03	1.844159E-15	1.153747E-16
6.390000E+03	1.870708E-15	1.171155E-16
6.400000E+03	1.907776E-15	1.195187E-16
6.410000E+03	1.955472E-15	1.225925E-16
6.420000E+03	2.013659E-15	1.263299E-16
6.430000E+03	2.081950E-15	1.307080E-16
6.440000E+03	2.159584E-15	1.356805E-16
6.450000E+03	2.245455E-15	1.411791E-16
6.460000E+03	2.337948E-15	1.471037E-16
6.470000E+03	2.434784E-15	1.533116E-16
6.480000E+03	2.533143E-15	1.596259E-16
6.490000E+03	2.629526E-15	1.658263E-16
6.500000E+03	2.720024E-15	1.716659E-16
6.510000E+03	2.800468E-15	1.768806E-16
6.520000E+03	2.866575E-15	1.811983E-16
6.530000E+03	2.914444E-15	1.843702E-16
6.540000E+03	2.940702E-15	1.861798E-16
6.550000E+03	2.942916E-15	1.864700E-16
6.560000E+03	2.919710E-15	1.851496E-16
6.570000E+03	2.870953E-15	1.822063E-16
6.580000E+03	2.797864E-15	1.777136E-16
6.590000E+03	2.702707E-15	1.718114E-16
6.600000E+03	2.588737E-15	1.647032E-16
6.610000E+03	2.459871E-15	1.566353E-16
6.620000E+03	2.320325E-15	1.478739E-16
6.630000E+03	2.174315E-15	1.386859E-16
6.640000E+03	2.025977E-15	1.293343E-16
6.650000E+03	1.878925E-15	1.200493E-16
6.660000E+03	1.736337E-15	1.110343E-16
6.670000E+03	1.600706E-15	1.024493E-16
6.680000E+03	1.473872E-15	9.441334E-17
6.690000E+03	1.357039E-15	8.700486E-17
6.700000E+03	1.250885E-15	8.026892E-17
6.710000E+03	1.155626E-15	7.422122E-17
6.720000E+03	1.071099E-15	6.885285E-17
6.730000E+03	9.968984E-16	6.413963E-17
6.740000E+03	9.324637E-16	6.004707E-17
6.750000E+03	8.771346E-16	5.653426E-17
6.760000E+03	8.302113E-16	5.355756E-17
6.770000E+03	7.910334E-16	5.107574E-17
6.780000E+03	7.589488E-16	4.904798E-17
6.790000E+03	7.333665E-16	4.743724E-17
6.800000E+03	7.137570E-16	4.621036E-17
6.810000E+03	6.996374E-16	4.533707E-17
6.820000E+03	6.905657E-16	4.478967E-17
6.830000E+03	6.861633E-16	4.454443E-17
6.840000E+03	6.860598E-16	4.457812E-17
6.850000E+03	6.899182E-16	4.486958E-17
6.860000E+03	6.974159E-16	4.539850E-17
6.870000E+03	7.082455E-16	4.614550E-17
6.880000E+03	7.220831E-16	4.709005E-17
6.890000E+03	7.386142E-16	4.821217E-17
6.900000E+03	7.575014E-16	4.949029E-17
6.910000E+03	7.783884E-16	5.090154E-17
6.920000E+03	8.008975E-16	5.242157E-17
6.930000E+03	8.246210E-16	5.402397E-17
6.940000E+03	8.491664E-16	5.568320E-17
6.950000E+03	8.741089E-16	5.737156E-17
6.960000E+03	8.990438E-16	5.906254E-17
6.970000E+03	9.235965E-16	6.073149E-17
6.980000E+03	9.474564E-16	6.235792E-17
6.990000E+03	9.703615E-16	6.392445E-17
7.000000E+03	9.921511E-16	6.542031E-17
7.010000E+03	1.012772E-15	6.684177E-17
7.020000E+03	1.032294E-15	6.819328E-17
7.030000E+03	1.050862E-15	6.948417E-17
7.040000E+03	1.068743E-15	7.073197E-17
7.050000E+03	1.086242E-15	7.195679E-17
7.060000E+03	1.103716E-15	7.318212E-17
7.070000E+03	1.121535E-15	7.443262E-17
7.080000E+03	1.140027E-15	7.573013E-17
7.090000E+03	1.159490E-15	7.709462E-17
7.100000E+03	1.180181E-15	7.854328E-17
7.110000E+03	1.202276E-15	8.008815E-17
7.120000E+03	1.225856E-15	8.173486E-17
7.130000E+03	1.250991E-15	8.348835E-17
7.140000E+03	1.277635E-15	8.534588E-17
7.150000E+03	1.305709E-15	8.730247E-17
7.160000E+03	1.335033E-15	8.934630E-17
7.170000E+03	1.365380E-15	9.146243E-17
7.180000E+03	1.396480E-15	9.363297E-17
7.190000E+03	1.427955E-15	9.583265E-17
7.200000E+03	1.459471E-15	9.803916E-17
7.210000E+03	1.490561E-15	1.002212E-16
7.220000E+03	1.520837E-15	1.023523E-16
7.230000E+03	1.549854E-15	1.044027E-16
7.240000E+03	1.577227E-15	1.063460E-16
7.250000E+03	1.602559E-15	1.081552E-16
7.260000E+03	1.625510E-15	1.098068E-16
7.270000E+03	1.645833E-15	1.112839E-16
7.280000E+03	1.663234E-15	1.125660E-16
7.290000E+03	1.677610E-15	1.136455E-16
7.300000E+03	1.688817E-15	1.145121E-16
7.310000E+03	1.696873E-15	1.151665E-16
7.320000E+03	1.701780E-15	1.156082E-16
7.330000E+03	1.703701E-15	1.158477E-16
7.340000E+03	1.702802E-15	1.158958E-16
7.350000E+03	1.699356E-15	1.157704E-16
7.360000E+03	1.693659E-15	1.154913E-16
7.370000E+03	1.686018E-15	1.150790E-16
7.380000E+03	1.676797E-15	1.145580E-16
7.390000E+03	1.666328E-15	1.139507E-16
7.400000E+03	1.654922E-15	1.132782E-16
7.410000E+03	1.642867E-15	1.125599E-16
7.420000E+03	1.630320E-15	1.118066E-16
7.430000E+03	1.617522E-15	1.110347E-16
7.440000E+03	1.604562E-15	1.102503E-16
7.450000E+03	1.591551E-15	1.094609E-16
7.460000E+03	1.578583E-15	1.086731E-16
7.470000E+03	1.565765E-15	1.078942E-16
7.480000E+03	1.553155E-15	1.071282E-16
7.490000E+03	1.540808E-15	1.063790E-16
7.500000E+03	1.528793E-15	1.056514E-16
7.510000E+03	1.517175E-15	1.049500E-16
7.520000E+03	1.506035E-15	1.042805E-16
7.530000E+03	1.495365E-15	1.036423E-16
7.540000E+03	1.485268E-15	1.030428E-16
7.550000E+03	1.475717E-15	1.024802E-16
7.560000E+03	1.466775E-15	1.019590E-16
7.570000E+03	1.458412E-15	1.014772E-16
7.580000E+03	1.450642E-15	1.010359E-16
7.590000E+03	1.443446E-15	1.006340E-16
7.600000E+03	1.436768E-15	1.002676E-16
7.610000E+03	1.430576E-15	9.993462E-17
7.620000E+03	1.424786E-15	9.962921E-17
7.630000E+03	1.419331E-15	9.934693E-17
7.640000E+03	1.414077E-15	9.907836E-17
7.650000E+03	1.408956E-15	9.881884E-17
7.660000E+03	1.403848E-15	9.855989E-17
7.670000E+03	1.398592E-15	9.829027E-17
7.680000E+03	1.393095E-15	9.800343E-17
7.690000E+03	1.387214E-15	9.768919E-17
7.700000E+03	1.380823E-15	9.733865E-17
7.710000E+03	1.373811E-15	9.694381E-17
7.720000E+03	1.366091E-15	9.649846E-17
7.730000E+03	1.357561E-15	9.599512E-17
7.740000E+03	1.348151E-15	9.542879E-17
7.750000E+03	1.337832E-15	9.479719E-17
7.760000E+03	1.326577E-15	9.409816E-17
