#wls	flux	fluxerr
1.600000E+03	1.387874E-16	1.523404E-17
1.640000E+03	1.361698E-16	1.493265E-17
1.680000E+03	1.336643E-16	1.464378E-17
1.720000E+03	1.312497E-16	1.436509E-17
1.760000E+03	1.289509E-16	1.409928E-17
1.800000E+03	1.267694E-16	1.384650E-17
1.840000E+03	1.247066E-16	1.360686E-17
1.880000E+03	1.227644E-16	1.338054E-17
1.920000E+03	1.209646E-16	1.316990E-17
1.960000E+03	1.192883E-16	1.297282E-17
2.000000E+03	1.177572E-16	1.279163E-17
2.040000E+03	1.163727E-16	1.262644E-17
2.080000E+03	1.151368E-16	1.247741E-17
2.120000E+03	1.140517E-16	1.234474E-17
2.160000E+03	1.131203E-16	1.222867E-17
2.200000E+03	1.123638E-16	1.213146E-17
2.240000E+03	1.117682E-16	1.205151E-17
2.280000E+03	1.113726E-16	1.199297E-17
2.320000E+03	1.111646E-16	1.195442E-17
2.360000E+03	1.111502E-16	1.193643E-17
2.400000E+03	1.113533E-16	1.194148E-17
2.440000E+03	1.117823E-16	1.197036E-17
2.480000E+03	1.124467E-16	1.202398E-17
2.520000E+03	1.133744E-16	1.210520E-17
2.560000E+03	1.145788E-16	1.221532E-17
2.600000E+03	1.160752E-16	1.235584E-17
2.640000E+03	1.178822E-16	1.252855E-17
2.680000E+03	1.200533E-16	1.273898E-17
2.720000E+03	1.225969E-16	1.298783E-17
2.760000E+03	1.255748E-16	1.328140E-17
2.800000E+03	1.289869E-16	1.361946E-17
2.840000E+03	1.329048E-16	1.400928E-17
2.880000E+03	1.373890E-16	1.445695E-17
2.920000E+03	1.424738E-16	1.496571E-17
2.960000E+03	1.482515E-16	1.554490E-17
3.000000E+03	1.547892E-16	1.620110E-17
3.010000E+03	1.565473E-16	1.637764E-17
3.020000E+03	1.583644E-16	1.656017E-17
3.030000E+03	1.602420E-16	1.674882E-17
3.040000E+03	1.621634E-16	1.694185E-17
3.050000E+03	1.641665E-16	1.714319E-17
3.060000E+03	1.662162E-16	1.734918E-17
3.070000E+03	1.683136E-16	1.755994E-17
3.080000E+03	1.704978E-16	1.777951E-17
3.090000E+03	1.727329E-16	1.800415E-17
3.100000E+03	1.750584E-16	1.823797E-17
3.110000E+03	1.774380E-16	1.847717E-17
3.120000E+03	1.798735E-16	1.872193E-17
3.130000E+03	1.824050E-16	1.897642E-17
3.140000E+03	1.850155E-16	1.923883E-17
3.150000E+03	1.876871E-16	1.950732E-17
3.160000E+03	1.904415E-16	1.978413E-17
3.170000E+03	1.933008E-16	2.007152E-17
3.180000E+03	1.962273E-16	2.036559E-17
3.190000E+03	1.992432E-16	2.066860E-17
3.200000E+03	2.023508E-16	2.098080E-17
3.210000E+03	2.055525E-16	2.130241E-17
3.220000E+03	2.088297E-16	2.163151E-17
3.230000E+03	2.122269E-16	2.197265E-17
3.240000E+03	2.157257E-16	2.232396E-17
3.250000E+03	2.193290E-16	2.268568E-17
3.260000E+03	2.230177E-16	2.305583E-17
3.270000E+03	2.268377E-16	2.343917E-17
3.280000E+03	2.307708E-16	2.383376E-17
3.290000E+03	2.347972E-16	2.423755E-17
3.300000E+03	2.389647E-16	2.465547E-17
3.310000E+03	2.432543E-16	2.508552E-17
3.320000E+03	2.476693E-16	2.552802E-17
3.330000E+03	2.522130E-16	2.598331E-17
3.340000E+03	2.568888E-16	2.645170E-17
3.350000E+03	2.617005E-16	2.693357E-17
3.360000E+03	2.666516E-16	2.742925E-17
3.370000E+03	2.717462E-16	2.793915E-17
3.380000E+03	2.770131E-16	2.846618E-17
3.390000E+03	2.824071E-16	2.900570E-17
3.400000E+03	2.879827E-16	2.956328E-17
3.410000E+03	2.937198E-16	3.013681E-17
3.420000E+03	2.996233E-16	3.072679E-17
3.430000E+03	3.056986E-16	3.133372E-17
3.440000E+03	3.119778E-16	3.196088E-17
3.450000E+03	3.184140E-16	3.260342E-17
3.460000E+03	3.250670E-16	3.326745E-17
3.470000E+03	3.319168E-16	3.395089E-17
3.480000E+03	3.389706E-16	3.465442E-17
3.490000E+03	3.462640E-16	3.538167E-17
3.500000E+03	3.537772E-16	3.613056E-17
3.510000E+03	3.615185E-16	3.690192E-17
3.520000E+03	3.694961E-16	3.769654E-17
3.530000E+03	3.777187E-16	3.851527E-17
3.540000E+03	3.862258E-16	3.936209E-17
3.550000E+03	3.949965E-16	4.023483E-17
3.560000E+03	4.040713E-16	4.113758E-17
3.570000E+03	4.133971E-16	4.206488E-17
3.580000E+03	4.230458E-16	4.302399E-17
3.590000E+03	4.330278E-16	4.401593E-17
3.600000E+03	4.432864E-16	4.503488E-17
3.610000E+03	4.538961E-16	4.608836E-17
3.620000E+03	4.648661E-16	4.717726E-17
3.630000E+03	4.761363E-16	4.829541E-17
3.640000E+03	4.877829E-16	4.945049E-17
3.650000E+03	4.998146E-16	5.064333E-17
3.660000E+03	5.122034E-16	5.187101E-17
3.670000E+03	5.249562E-16	5.313420E-17
3.680000E+03	5.380800E-16	5.443353E-17
3.690000E+03	5.516208E-16	5.577360E-17
3.700000E+03	5.655496E-16	5.715142E-17
3.710000E+03	5.799160E-16	5.857191E-17
3.720000E+03	5.946925E-16	6.003226E-17
3.730000E+03	6.098916E-16	6.153365E-17
3.740000E+03	6.255693E-16	6.308166E-17
3.750000E+03	6.417015E-16	6.467378E-17
3.760000E+03	6.583050E-16	6.631165E-17
3.770000E+03	6.754408E-16	6.800132E-17
3.780000E+03	6.930835E-16	6.974016E-17
3.790000E+03	7.112926E-16	7.153407E-17
3.800000E+03	7.299884E-16	7.337495E-17
3.810000E+03	7.493128E-16	7.527698E-17
3.820000E+03	7.691224E-16	7.722568E-17
3.830000E+03	7.894948E-16	7.922875E-17
3.840000E+03	8.103512E-16	8.127819E-17
3.850000E+03	8.316924E-16	8.337403E-17
3.860000E+03	8.533997E-16	8.550429E-17
3.870000E+03	8.753803E-16	8.765963E-17
3.880000E+03	8.975162E-16	8.982820E-17
3.890000E+03	9.197176E-16	9.200100E-17
3.900000E+03	9.417631E-16	9.415590E-17
3.910000E+03	9.634599E-16	9.627365E-17
3.920000E+03	9.845942E-16	9.833297E-17
3.930000E+03	1.004993E-15	1.003167E-16
3.940000E+03	1.024363E-15	1.021956E-16
3.950000E+03	1.042464E-15	1.039462E-16
3.960000E+03	1.059068E-15	1.055456E-16
3.970000E+03	1.073963E-15	1.069732E-16
3.980000E+03	1.087029E-15	1.082172E-16
3.990000E+03	1.098006E-15	1.092521E-16
4.000000E+03	1.106919E-15	1.100807E-16
4.010000E+03	1.113670E-15	1.106936E-16
4.020000E+03	1.118219E-15	1.110871E-16
4.030000E+03	1.120756E-15	1.112805E-16
4.040000E+03	1.121354E-15	1.112814E-16
4.050000E+03	1.120134E-15	1.111020E-16
4.060000E+03	1.117426E-15	1.107754E-16
4.070000E+03	1.113368E-15	1.103154E-16
4.080000E+03	1.108285E-15	1.097545E-16
4.090000E+03	1.102453E-15	1.091202E-16
4.100000E+03	1.096147E-15	1.084398E-16
4.110000E+03	1.089579E-15	1.077343E-16
4.120000E+03	1.083096E-15	1.070380E-16
4.130000E+03	1.076810E-15	1.063621E-16
4.140000E+03	1.070907E-15	1.057247E-16
4.150000E+03	1.065585E-15	1.051455E-16
4.160000E+03	1.060954E-15	1.046352E-16
4.170000E+03	1.057037E-15	1.041959E-16
4.180000E+03	1.053917E-15	1.038358E-16
4.190000E+03	1.051543E-15	1.035496E-16
4.200000E+03	1.049879E-15	1.033338E-16
4.210000E+03	1.048907E-15	1.031864E-16
4.220000E+03	1.048486E-15	1.030935E-16
4.230000E+03	1.048548E-15	1.030485E-16
4.240000E+03	1.048874E-15	1.030295E-16
4.250000E+03	1.049416E-15	1.030320E-16
4.260000E+03	1.049993E-15	1.030381E-16
4.270000E+03	1.050469E-15	1.030345E-16
4.280000E+03	1.050726E-15	1.030098E-16
4.290000E+03	1.050665E-15	1.029541E-16
4.300000E+03	1.050217E-15	1.028608E-16
4.310000E+03	1.049348E-15	1.027265E-16
4.320000E+03	1.048062E-15	1.025519E-16
4.330000E+03	1.046366E-15	1.023376E-16
4.340000E+03	1.044401E-15	1.020974E-16
4.350000E+03	1.042308E-15	1.018453E-16
4.360000E+03	1.040277E-15	1.015998E-16
4.370000E+03	1.038501E-15	1.013796E-16
4.380000E+03	1.037258E-15	1.012120E-16
4.390000E+03	1.036940E-15	1.011351E-16
4.400000E+03	1.037764E-15	1.011697E-16
4.410000E+03	1.040165E-15	1.013584E-16
4.420000E+03	1.044511E-15	1.017368E-16
4.430000E+03	1.051096E-15	1.023331E-16
4.440000E+03	1.060370E-15	1.031909E-16
4.450000E+03	1.072698E-15	1.043454E-16
4.460000E+03	1.088347E-15	1.058221E-16
4.470000E+03	1.107683E-15	1.076562E-16
4.480000E+03	1.131042E-15	1.098801E-16
4.490000E+03	1.158636E-15	1.125137E-16
4.500000E+03	1.190622E-15	1.155717E-16
4.510000E+03	1.227210E-15	1.190743E-16
4.520000E+03	1.268351E-15	1.230160E-16
4.530000E+03	1.314062E-15	1.273979E-16
4.540000E+03	1.364040E-15	1.321904E-16
4.550000E+03	1.417959E-15	1.373613E-16
4.560000E+03	1.475267E-15	1.428568E-16
4.570000E+03	1.535157E-15	1.485985E-16
4.580000E+03	1.596771E-15	1.545031E-16
4.590000E+03	1.658833E-15	1.604472E-16
4.600000E+03	1.719987E-15	1.662996E-16
4.610000E+03	1.778792E-15	1.719212E-16
4.620000E+03	1.833670E-15	1.771599E-16
4.630000E+03	1.882972E-15	1.818570E-16
4.640000E+03	1.925256E-15	1.858739E-16
4.650000E+03	1.959131E-15	1.890771E-16
4.660000E+03	1.983602E-15	1.913716E-16
4.670000E+03	1.997881E-15	1.926824E-16
4.680000E+03	2.001704E-15	1.929850E-16
4.690000E+03	1.995078E-15	1.922811E-16
4.700000E+03	1.978537E-15	1.906234E-16
4.710000E+03	1.952771E-15	1.880790E-16
4.720000E+03	1.919012E-15	1.847676E-16
4.730000E+03	1.878563E-15	1.808152E-16
4.740000E+03	1.832784E-15	1.763533E-16
4.750000E+03	1.783136E-15	1.715228E-16
4.760000E+03	1.731038E-15	1.664605E-16
4.770000E+03	1.677871E-15	1.612993E-16
4.780000E+03	1.624766E-15	1.561479E-16
4.790000E+03	1.572750E-15	1.511050E-16
4.800000E+03	1.522676E-15	1.462522E-16
4.810000E+03	1.475272E-15	1.416592E-16
4.820000E+03	1.431004E-15	1.373705E-16
4.830000E+03	1.390235E-15	1.334208E-16
4.840000E+03	1.353199E-15	1.298319E-16
4.850000E+03	1.320049E-15	1.266185E-16
4.860000E+03	1.290758E-15	1.237773E-16
4.870000E+03	1.265256E-15	1.213015E-16
4.880000E+03	1.243402E-15	1.191772E-16
4.890000E+03	1.225033E-15	1.173886E-16
4.900000E+03	1.209825E-15	1.159042E-16
4.910000E+03	1.197558E-15	1.147030E-16
4.920000E+03	1.187875E-15	1.137502E-16
4.930000E+03	1.180461E-15	1.130159E-16
4.940000E+03	1.174881E-15	1.124580E-16
4.950000E+03	1.170836E-15	1.120480E-16
4.960000E+03	1.167931E-15	1.117477E-16
4.970000E+03	1.165853E-15	1.115275E-16
4.980000E+03	1.164223E-15	1.113508E-16
4.990000E+03	1.162838E-15	1.111984E-16
5.000000E+03	1.161450E-15	1.110463E-16
5.010000E+03	1.159937E-15	1.108831E-16
5.020000E+03	1.158146E-15	1.106940E-16
5.030000E+03	1.156123E-15	1.104835E-16
5.040000E+03	1.153910E-15	1.102556E-16
5.050000E+03	1.151536E-15	1.100132E-16
5.060000E+03	1.149215E-15	1.097766E-16
5.070000E+03	1.147091E-15	1.095598E-16
5.080000E+03	1.145399E-15	1.093848E-16
5.090000E+03	1.144316E-15	1.092688E-16
5.100000E+03	1.144052E-15	1.092319E-16
5.110000E+03	1.144840E-15	1.092961E-16
5.120000E+03	1.146792E-15	1.094722E-16
5.130000E+03	1.150164E-15	1.097846E-16
5.140000E+03	1.154985E-15	1.102360E-16
5.150000E+03	1.161447E-15	1.108449E-16
5.160000E+03	1.169518E-15	1.116079E-16
5.170000E+03	1.179289E-15	1.125339E-16
5.180000E+03	1.190723E-15	1.136194E-16
5.190000E+03	1.203815E-15	1.148638E-16
5.200000E+03	1.218455E-15	1.162567E-16
5.210000E+03	1.234570E-15	1.177912E-16
5.220000E+03	1.251981E-15	1.194502E-16
5.230000E+03	1.270511E-15	1.212168E-16
5.240000E+03	1.289981E-15	1.230742E-16
5.250000E+03	1.310148E-15	1.249989E-16
5.260000E+03	1.330700E-15	1.269615E-16
5.270000E+03	1.351369E-15	1.289364E-16
5.280000E+03	1.371792E-15	1.308889E-16
5.290000E+03	1.391627E-15	1.327866E-16
5.300000E+03	1.410562E-15	1.345997E-16
5.310000E+03	1.428248E-15	1.362949E-16
5.320000E+03	1.444307E-15	1.378363E-16
5.330000E+03	1.458464E-15	1.391976E-16
5.340000E+03	1.470397E-15	1.403480E-16
5.350000E+03	1.479900E-15	1.412679E-16
5.360000E+03	1.486785E-15	1.419393E-16
5.370000E+03	1.490871E-15	1.423449E-16
5.380000E+03	1.492076E-15	1.424768E-16
5.390000E+03	1.490458E-15	1.423404E-16
5.400000E+03	1.485965E-15	1.419307E-16
5.410000E+03	1.478673E-15	1.412547E-16
5.420000E+03	1.468779E-15	1.403313E-16
5.430000E+03	1.456346E-15	1.391664E-16
5.440000E+03	1.441535E-15	1.377749E-16
5.450000E+03	1.424577E-15	1.361790E-16
5.460000E+03	1.405541E-15	1.343849E-16
5.470000E+03	1.384568E-15	1.324061E-16
5.480000E+03	1.361861E-15	1.302619E-16
5.490000E+03	1.337457E-15	1.279553E-16
5.500000E+03	1.311489E-15	1.254992E-16
5.510000E+03	1.284042E-15	1.229015E-16
5.520000E+03	1.255197E-15	1.201696E-16
5.530000E+03	1.225006E-15	1.173084E-16
5.540000E+03	1.193600E-15	1.143304E-16
5.550000E+03	1.161106E-15	1.112474E-16
5.560000E+03	1.127680E-15	1.080743E-16
5.570000E+03	1.093523E-15	1.048302E-16
5.580000E+03	1.058854E-15	1.015359E-16
5.590000E+03	1.024020E-15	9.822458E-17
5.600000E+03	9.892971E-16	9.492266E-17
5.610000E+03	9.550785E-16	9.166776E-17
5.620000E+03	9.217482E-16	8.849676E-17
5.630000E+03	8.897219E-16	8.544956E-17
5.640000E+03	8.593359E-16	8.255852E-17
5.650000E+03	8.309824E-16	7.986142E-17
5.660000E+03	8.050009E-16	7.739104E-17
5.670000E+03	7.816957E-16	7.517683E-17
5.680000E+03	7.613333E-16	7.324463E-17
5.690000E+03	7.441409E-16	7.161656E-17
5.700000E+03	7.303080E-16	7.031117E-17
5.710000E+03	7.199894E-16	6.934370E-17
5.720000E+03	7.133275E-16	6.872821E-17
5.730000E+03	7.103768E-16	6.847035E-17
5.740000E+03	7.112415E-16	6.858056E-17
5.750000E+03	7.159183E-16	6.905894E-17
5.760000E+03	7.244482E-16	6.990991E-17
5.770000E+03	7.367732E-16	7.112831E-17
5.780000E+03	7.528043E-16	7.270601E-17
5.790000E+03	7.723891E-16	7.462875E-17
5.800000E+03	7.953200E-16	7.687690E-17
5.810000E+03	8.212557E-16	7.941792E-17
5.820000E+03	8.497704E-16	8.221099E-17
5.830000E+03	8.803237E-16	8.520420E-17
5.840000E+03	9.122577E-16	8.833411E-17
5.850000E+03	9.448279E-16	9.152882E-17
5.860000E+03	9.771427E-16	9.470205E-17
5.870000E+03	1.008265E-15	9.776296E-17
5.880000E+03	1.037257E-15	1.006203E-16
5.890000E+03	1.063142E-15	1.031793E-16
5.900000E+03	1.085041E-15	1.053540E-16
5.910000E+03	1.102237E-15	1.070742E-16
5.920000E+03	1.114129E-15	1.082810E-16
5.930000E+03	1.120364E-15	1.089393E-16
5.940000E+03	1.120867E-15	1.090409E-16
5.950000E+03	1.115746E-15	1.085957E-16
5.960000E+03	1.105408E-15	1.076424E-16
5.970000E+03	1.090405E-15	1.062339E-16
5.980000E+03	1.071474E-15	1.044415E-16
5.990000E+03	1.049487E-15	1.023497E-16
6.000000E+03	1.025310E-15	1.000423E-16
6.010000E+03	9.998591E-16	9.760845E-17
6.020000E+03	9.739437E-16	9.512706E-17
6.030000E+03	9.483477E-16	9.267460E-17
6.040000E+03	9.236902E-16	9.031161E-17
6.050000E+03	9.005219E-16	8.809207E-17
6.060000E+03	8.792161E-16	8.605274E-17
6.070000E+03	8.600742E-16	8.422337E-17
6.080000E+03	8.432346E-16	8.261783E-17
6.090000E+03	8.287817E-16	8.124474E-17
6.100000E+03	8.166636E-16	8.009937E-17
6.110000E+03	8.068000E-16	7.917417E-17
6.120000E+03	7.990249E-16	7.845320E-17
6.130000E+03	7.931006E-16	7.791343E-17
6.140000E+03	7.887744E-16	7.753028E-17
6.150000E+03	7.858104E-16	7.728082E-17
6.160000E+03	7.838453E-16	7.712950E-17
6.170000E+03	7.826410E-16	7.705304E-17
6.180000E+03	7.818520E-16	7.701752E-17
6.190000E+03	7.812103E-16	7.699658E-17
6.200000E+03	7.804247E-16	7.696154E-17
6.210000E+03	7.792780E-16	7.689092E-17
6.220000E+03	7.775687E-16	7.676477E-17
6.230000E+03	7.751187E-16	7.656541E-17
6.240000E+03	7.718458E-16	7.628457E-17
6.250000E+03	7.677021E-16	7.591738E-17
6.260000E+03	7.626765E-16	7.546259E-17
6.270000E+03	7.568600E-16	7.492906E-17
6.280000E+03	7.503768E-16	7.432895E-17
6.290000E+03	7.434002E-16	7.367932E-17
6.300000E+03	7.361230E-16	7.299920E-17
6.310000E+03	7.288097E-16	7.231477E-17
6.320000E+03	7.217206E-16	7.165187E-17
6.330000E+03	7.151002E-16	7.103480E-17
6.340000E+03	7.092461E-16	7.049323E-17
6.350000E+03	7.043541E-16	7.004676E-17
6.360000E+03	7.006512E-16	6.971812E-17
6.370000E+03	6.983045E-16	6.952415E-17
6.380000E+03	6.974348E-16	6.947712E-17
6.390000E+03	6.980901E-16	6.958205E-17
6.400000E+03	7.003010E-16	6.984225E-17
6.410000E+03	7.040366E-16	7.025489E-17
6.420000E+03	7.091402E-16	7.080459E-17
6.430000E+03	7.154483E-16	7.147526E-17
6.440000E+03	7.227095E-16	7.224196E-17
6.450000E+03	7.306052E-16	7.307297E-17
6.460000E+03	7.387325E-16	7.392812E-17
6.470000E+03	7.466978E-16	7.476800E-17
6.480000E+03	7.539997E-16	7.554235E-17
6.490000E+03	7.601095E-16	7.619807E-17
6.500000E+03	7.645590E-16	7.668797E-17
6.510000E+03	7.668324E-16	7.696000E-17
6.520000E+03	7.664594E-16	7.696657E-17
6.530000E+03	7.631101E-16	7.667406E-17
6.540000E+03	7.564845E-16	7.605179E-17
6.550000E+03	7.464006E-16	7.508090E-17
6.560000E+03	7.328732E-16	7.376228E-17
6.570000E+03	7.159850E-16	7.210364E-17
6.580000E+03	6.959695E-16	7.012795E-17
6.590000E+03	6.731753E-16	6.786979E-17
6.600000E+03	6.480435E-16	6.537321E-17
6.610000E+03	6.210997E-16	6.269084E-17
6.620000E+03	5.928497E-16	5.987343E-17
6.630000E+03	5.638633E-16	5.697837E-17
6.640000E+03	5.346880E-16	5.406086E-17
6.650000E+03	5.057961E-16	5.116866E-17
6.660000E+03	4.776205E-16	4.834565E-17
6.670000E+03	4.505267E-16	4.562894E-17
6.680000E+03	4.248206E-16	4.304975E-17
6.690000E+03	4.006979E-16	4.062815E-17
6.700000E+03	3.783387E-16	3.838267E-17
6.710000E+03	3.578255E-16	3.632201E-17
6.720000E+03	3.392137E-16	3.445211E-17
6.730000E+03	3.224858E-16	3.277151E-17
6.740000E+03	3.076336E-16	3.127970E-17
6.750000E+03	2.945958E-16	2.997077E-17
6.760000E+03	2.833056E-16	2.883824E-17
6.770000E+03	2.736954E-16	2.787551E-17
6.780000E+03	2.656762E-16	2.707381E-17
6.790000E+03	2.591674E-16	2.642518E-17
6.800000E+03	2.540907E-16	2.592190E-17
6.810000E+03	2.503790E-16	2.555735E-17
6.820000E+03	2.479545E-16	2.532383E-17
6.830000E+03	2.467593E-16	2.521563E-17
6.840000E+03	2.467172E-16	2.522518E-17
6.850000E+03	2.477857E-16	2.534831E-17
6.860000E+03	2.499019E-16	2.557878E-17
6.870000E+03	2.530194E-16	2.591200E-17
6.880000E+03	2.570765E-16	2.634182E-17
6.890000E+03	2.620172E-16	2.686266E-17
6.900000E+03	2.677834E-16	2.746871E-17
6.910000E+03	2.743221E-16	2.815464E-17
6.920000E+03	2.815597E-16	2.891304E-17
6.930000E+03	2.894363E-16	2.973786E-17
6.940000E+03	2.978619E-16	3.061996E-17
6.950000E+03	3.067805E-16	3.155365E-17
6.960000E+03	3.161177E-16	3.253137E-17
6.970000E+03	3.257810E-16	3.354365E-17
6.980000E+03	3.357207E-16	3.458543E-17
6.990000E+03	3.458638E-16	3.564921E-17
7.000000E+03	3.561670E-16	3.673057E-17
7.010000E+03	3.665646E-16	3.782275E-17
7.020000E+03	3.770474E-16	3.892480E-17
7.030000E+03	3.875853E-16	4.003362E-17
7.040000E+03	3.981835E-16	4.114977E-17
7.050000E+03	4.088341E-16	4.227242E-17
7.060000E+03	4.195359E-16	4.340145E-17
7.070000E+03	4.303457E-16	4.454276E-17
7.080000E+03	4.412431E-16	4.569424E-17
7.090000E+03	4.522585E-16	4.685903E-17
7.100000E+03	4.634178E-16	4.803985E-17
7.110000E+03	4.747093E-16	4.923550E-17
7.120000E+03	4.861231E-16	5.044498E-17
7.130000E+03	4.976357E-16	5.166583E-17
7.140000E+03	5.092241E-16	5.289570E-17
7.150000E+03	5.208019E-16	5.412561E-17
7.160000E+03	5.323324E-16	5.535173E-17
7.170000E+03	5.436991E-16	5.656194E-17
7.180000E+03	5.548417E-16	5.774991E-17
7.190000E+03	5.656397E-16	5.890309E-17
7.200000E+03	5.759840E-16	6.001000E-17
7.210000E+03	5.857625E-16	6.105892E-17
7.220000E+03	5.948640E-16	6.203816E-17
7.230000E+03	6.031816E-16	6.293643E-17
7.240000E+03	6.106157E-16	6.374324E-17
7.250000E+03	6.170775E-16	6.444914E-17
7.260000E+03	6.224915E-16	6.504612E-17
7.270000E+03	6.267985E-16	6.552782E-17
7.280000E+03	6.299375E-16	6.588768E-17
7.290000E+03	6.319278E-16	6.612755E-17
7.300000E+03	6.327503E-16	6.624525E-17
7.310000E+03	6.324075E-16	6.624088E-17
7.320000E+03	6.309850E-16	6.612321E-17
7.330000E+03	6.285082E-16	6.589477E-17
7.340000E+03	6.250823E-16	6.556642E-17
7.350000E+03	6.208086E-16	6.514865E-17
7.360000E+03	6.158002E-16	6.465323E-17
7.370000E+03	6.101774E-16	6.409268E-17
7.380000E+03	6.040434E-16	6.347775E-17
7.390000E+03	5.975369E-16	6.282296E-17
7.400000E+03	5.907678E-16	6.213982E-17
7.410000E+03	5.838329E-16	6.143847E-17
7.420000E+03	5.767923E-16	6.072523E-17
7.430000E+03	5.697245E-16	6.000835E-17
7.440000E+03	5.626678E-16	5.929187E-17
7.450000E+03	5.556220E-16	5.857575E-17
7.460000E+03	5.486231E-16	5.786383E-17
7.470000E+03	5.416017E-16	5.714878E-17
7.480000E+03	5.345851E-16	5.643348E-17
7.490000E+03	5.275061E-16	5.571083E-17
7.500000E+03	5.203498E-16	5.497926E-17
7.510000E+03	5.130716E-16	5.423405E-17
7.520000E+03	5.056704E-16	5.347506E-17
7.530000E+03	4.981244E-16	5.270000E-17
7.540000E+03	4.904607E-16	5.191168E-17
7.550000E+03	4.827060E-16	5.111293E-17
7.560000E+03	4.748870E-16	5.030659E-17
7.570000E+03	4.670766E-16	4.950036E-17
7.580000E+03	4.593266E-16	4.869974E-17
7.590000E+03	4.517265E-16	4.791425E-17
7.600000E+03	4.443373E-16	4.715037E-17
7.610000E+03	4.372324E-16	4.641593E-17
7.620000E+03	4.305063E-16	4.572100E-17
7.630000E+03	4.241698E-16	4.506679E-17
7.640000E+03	4.182903E-16	4.446053E-17
7.650000E+03	4.128889E-16	4.390451E-17
7.660000E+03	4.079533E-16	4.339749E-17
7.670000E+03	4.034795E-16	4.293912E-17
7.680000E+03	3.994025E-16	4.252253E-17
7.690000E+03	3.957063E-16	4.214607E-17
7.700000E+03	3.922906E-16	4.179911E-17
7.710000E+03	3.890681E-16	4.147238E-17
7.720000E+03	3.859409E-16	4.115546E-17
7.730000E+03	3.828171E-16	4.083857E-17
7.740000E+03	3.795761E-16	4.050884E-17
7.750000E+03	3.761255E-16	4.015639E-17
7.760000E+03	3.723537E-16	3.976928E-17
