#wls	flux	fluxerr
1.600000E+03	1.038961E-16	2.727906E-17
1.640000E+03	1.022971E-16	2.685908E-17
1.680000E+03	1.007450E-16	2.645144E-17
1.720000E+03	9.925946E-17	2.606127E-17
1.760000E+03	9.784208E-17	2.568900E-17
1.800000E+03	9.649442E-17	2.533504E-17
1.840000E+03	9.520187E-17	2.499554E-17
1.880000E+03	9.399899E-17	2.467959E-17
1.920000E+03	9.287107E-17	2.438332E-17
1.960000E+03	9.180452E-17	2.410316E-17
2.000000E+03	9.083272E-17	2.384788E-17
2.040000E+03	8.994217E-17	2.361392E-17
2.080000E+03	8.913528E-17	2.340194E-17
2.120000E+03	8.841471E-17	2.321261E-17
2.160000E+03	8.778334E-17	2.304671E-17
2.200000E+03	8.724435E-17	2.290505E-17
2.240000E+03	8.681547E-17	2.279230E-17
2.280000E+03	8.648606E-17	2.270567E-17
2.320000E+03	8.627447E-17	2.264996E-17
2.360000E+03	8.617125E-17	2.262270E-17
2.400000E+03	8.619564E-17	2.262895E-17
2.440000E+03	8.633970E-17	2.266660E-17
2.480000E+03	8.661016E-17	2.273743E-17
2.520000E+03	8.702830E-17	2.284703E-17
2.560000E+03	8.760262E-17	2.299763E-17
2.600000E+03	8.834273E-17	2.319174E-17
2.640000E+03	8.924582E-17	2.342863E-17
2.680000E+03	9.033803E-17	2.371517E-17
2.720000E+03	9.163350E-17	2.405505E-17
2.760000E+03	9.314833E-17	2.445251E-17
2.800000E+03	9.488667E-17	2.490863E-17
2.840000E+03	9.689776E-17	2.543634E-17
2.880000E+03	9.917684E-17	2.603438E-17
2.920000E+03	1.017803E-16	2.671757E-17
2.960000E+03	1.047101E-16	2.748638E-17
3.000000E+03	1.080320E-16	2.835815E-17
3.010000E+03	1.089253E-16	2.859255E-17
3.020000E+03	1.098434E-16	2.883348E-17
3.030000E+03	1.107870E-16	2.908111E-17
3.040000E+03	1.117570E-16	2.933566E-17
3.050000E+03	1.127699E-16	2.960147E-17
3.060000E+03	1.138109E-16	2.987466E-17
3.070000E+03	1.148645E-16	3.015116E-17
3.080000E+03	1.159638E-16	3.043964E-17
3.090000E+03	1.170936E-16	3.073612E-17
3.100000E+03	1.182548E-16	3.104086E-17
3.110000E+03	1.194483E-16	3.135408E-17
3.120000E+03	1.206919E-16	3.168044E-17
3.130000E+03	1.219531E-16	3.201142E-17
3.140000E+03	1.232668E-16	3.235616E-17
3.150000E+03	1.246169E-16	3.271048E-17
3.160000E+03	1.260050E-16	3.307475E-17
3.170000E+03	1.274319E-16	3.344920E-17
3.180000E+03	1.288988E-16	3.383417E-17
3.190000E+03	1.304071E-16	3.422999E-17
3.200000E+03	1.319761E-16	3.464176E-17
3.210000E+03	1.335711E-16	3.506033E-17
3.220000E+03	1.352299E-16	3.549565E-17
3.230000E+03	1.369358E-16	3.594334E-17
3.240000E+03	1.386716E-16	3.639887E-17
3.250000E+03	1.404950E-16	3.687740E-17
3.260000E+03	1.423515E-16	3.736459E-17
3.270000E+03	1.442613E-16	3.786579E-17
3.280000E+03	1.462460E-16	3.838664E-17
3.290000E+03	1.482683E-16	3.891736E-17
3.300000E+03	1.503695E-16	3.946877E-17
3.310000E+03	1.525318E-16	4.003623E-17
3.320000E+03	1.547573E-16	4.062029E-17
3.330000E+03	1.570483E-16	4.122150E-17
3.340000E+03	1.594067E-16	4.184044E-17
3.350000E+03	1.618349E-16	4.247766E-17
3.360000E+03	1.643566E-16	4.313945E-17
3.370000E+03	1.669315E-16	4.381518E-17
3.380000E+03	1.696055E-16	4.451693E-17
3.390000E+03	1.723597E-16	4.523972E-17
3.400000E+03	1.751968E-16	4.598427E-17
3.410000E+03	1.781195E-16	4.675127E-17
3.420000E+03	1.811307E-16	4.754150E-17
3.430000E+03	1.842335E-16	4.835578E-17
3.440000E+03	1.874548E-16	4.920115E-17
3.450000E+03	1.907504E-16	5.006600E-17
3.460000E+03	1.941718E-16	5.096389E-17
3.470000E+03	1.976985E-16	5.188940E-17
3.480000E+03	2.013339E-16	5.284345E-17
3.490000E+03	2.050818E-16	5.382701E-17
3.500000E+03	2.089458E-16	5.484104E-17
3.510000E+03	2.129299E-16	5.588658E-17
3.520000E+03	2.170651E-16	5.697178E-17
3.530000E+03	2.213015E-16	5.808354E-17
3.540000E+03	2.256982E-16	5.923737E-17
3.550000E+03	2.302036E-16	6.041970E-17
3.560000E+03	2.348786E-16	6.164656E-17
3.570000E+03	2.396997E-16	6.291174E-17
3.580000E+03	2.446712E-16	6.421640E-17
3.590000E+03	2.497975E-16	6.556167E-17
3.600000E+03	2.550830E-16	6.694875E-17
3.610000E+03	2.605643E-16	6.838718E-17
3.620000E+03	2.661825E-16	6.986155E-17
3.630000E+03	2.719732E-16	7.138117E-17
3.640000E+03	2.779745E-16	7.295608E-17
3.650000E+03	2.841581E-16	7.457880E-17
3.660000E+03	2.905277E-16	7.625033E-17
3.670000E+03	2.970514E-16	7.796232E-17
3.680000E+03	3.038034E-16	7.973420E-17
3.690000E+03	3.107516E-16	8.155757E-17
3.700000E+03	3.179363E-16	8.344300E-17
3.710000E+03	3.252846E-16	8.537135E-17
3.720000E+03	3.328348E-16	8.735268E-17
3.730000E+03	3.406277E-16	8.939772E-17
3.740000E+03	3.485834E-16	9.148545E-17
3.750000E+03	3.567818E-16	9.363687E-17
3.760000E+03	3.651376E-16	9.582959E-17
3.770000E+03	3.737318E-16	9.808488E-17
3.780000E+03	3.825175E-16	1.003904E-16
3.790000E+03	3.914427E-16	1.027325E-16
3.800000E+03	4.005894E-16	1.051328E-16
3.810000E+03	4.099030E-16	1.075768E-16
3.820000E+03	4.193720E-16	1.100616E-16
3.830000E+03	4.289826E-16	1.125836E-16
3.840000E+03	4.387700E-16	1.151519E-16
3.850000E+03	4.486168E-16	1.177359E-16
3.860000E+03	4.585532E-16	1.203433E-16
3.870000E+03	4.685579E-16	1.229686E-16
3.880000E+03	4.786625E-16	1.256202E-16
3.890000E+03	4.887351E-16	1.282633E-16
3.900000E+03	4.988596E-16	1.309201E-16
3.910000E+03	5.088983E-16	1.335543E-16
3.920000E+03	5.189376E-16	1.361886E-16
3.930000E+03	5.288352E-16	1.387858E-16
3.940000E+03	5.386816E-16	1.413695E-16
3.950000E+03	5.483318E-16	1.439017E-16
3.960000E+03	5.578824E-16	1.464078E-16
3.970000E+03	5.672506E-16	1.488659E-16
3.980000E+03	5.764160E-16	1.512709E-16
3.990000E+03	5.852970E-16	1.536012E-16
4.000000E+03	5.940065E-16	1.558865E-16
4.010000E+03	6.024700E-16	1.581072E-16
4.020000E+03	6.106802E-16	1.602614E-16
4.030000E+03	6.185658E-16	1.623305E-16
4.040000E+03	6.262605E-16	1.643494E-16
4.050000E+03	6.337010E-16	1.663016E-16
4.060000E+03	6.408940E-16	1.681889E-16
4.070000E+03	6.478488E-16	1.700136E-16
4.080000E+03	6.545775E-16	1.717790E-16
4.090000E+03	6.610236E-16	1.734702E-16
4.100000E+03	6.673432E-16	1.751283E-16
4.110000E+03	6.734828E-16	1.767391E-16
4.120000E+03	6.794595E-16	1.783071E-16
4.130000E+03	6.852173E-16	1.798176E-16
4.140000E+03	6.909171E-16	1.813130E-16
4.150000E+03	6.965020E-16	1.827782E-16
4.160000E+03	7.019864E-16	1.842170E-16
4.170000E+03	7.073085E-16	1.856133E-16
4.180000E+03	7.126270E-16	1.870085E-16
4.190000E+03	7.178777E-16	1.883860E-16
4.200000E+03	7.229938E-16	1.897282E-16
4.210000E+03	7.281316E-16	1.910760E-16
4.220000E+03	7.331470E-16	1.923918E-16
4.230000E+03	7.381966E-16	1.937165E-16
4.240000E+03	7.431346E-16	1.950119E-16
4.250000E+03	7.480433E-16	1.962996E-16
4.260000E+03	7.530072E-16	1.976018E-16
4.270000E+03	7.578828E-16	1.988808E-16
4.280000E+03	7.627588E-16	2.001600E-16
4.290000E+03	7.676507E-16	2.014433E-16
4.300000E+03	7.725771E-16	2.027356E-16
4.310000E+03	7.775611E-16	2.040431E-16
4.320000E+03	7.826296E-16	2.053728E-16
4.330000E+03	7.878140E-16	2.067328E-16
4.340000E+03	7.930705E-16	2.081118E-16
4.350000E+03	7.985972E-16	2.095616E-16
4.360000E+03	8.043585E-16	2.110731E-16
4.370000E+03	8.103208E-16	2.126373E-16
4.380000E+03	8.166936E-16	2.143092E-16
4.390000E+03	8.233663E-16	2.160598E-16
4.400000E+03	8.304702E-16	2.179235E-16
4.410000E+03	8.380559E-16	2.199137E-16
4.420000E+03	8.461714E-16	2.220429E-16
4.430000E+03	8.548615E-16	2.243229E-16
4.440000E+03	8.641657E-16	2.267640E-16
4.450000E+03	8.741163E-16	2.293747E-16
4.460000E+03	8.846517E-16	2.321389E-16
4.470000E+03	8.959563E-16	2.351049E-16
4.480000E+03	9.078588E-16	2.382278E-16
4.490000E+03	9.204329E-16	2.415270E-16
4.500000E+03	9.337406E-16	2.450186E-16
4.510000E+03	9.475589E-16	2.486442E-16
4.520000E+03	9.618220E-16	2.523865E-16
4.530000E+03	9.766322E-16	2.562724E-16
4.540000E+03	9.917985E-16	2.602518E-16
4.550000E+03	1.007106E-15	2.642682E-16
4.560000E+03	1.022609E-15	2.683358E-16
4.570000E+03	1.037960E-15	2.723637E-16
4.580000E+03	1.053088E-15	2.763327E-16
4.590000E+03	1.067811E-15	2.801958E-16
4.600000E+03	1.081943E-15	2.839037E-16
4.610000E+03	1.095189E-15	2.873790E-16
4.620000E+03	1.107562E-15	2.906255E-16
4.630000E+03	1.118673E-15	2.935405E-16
4.640000E+03	1.128450E-15	2.961057E-16
4.650000E+03	1.136739E-15	2.982804E-16
4.660000E+03	1.143406E-15	3.000296E-16
4.670000E+03	1.148343E-15	3.013246E-16
4.680000E+03	1.151473E-15	3.021456E-16
4.690000E+03	1.152643E-15	3.024523E-16
4.700000E+03	1.151950E-15	3.022702E-16
4.710000E+03	1.149524E-15	3.016332E-16
4.720000E+03	1.145101E-15	3.004724E-16
4.730000E+03	1.139089E-15	2.988946E-16
4.740000E+03	1.131497E-15	2.969020E-16
4.750000E+03	1.122358E-15	2.945038E-16
4.760000E+03	1.112040E-15	2.917961E-16
4.770000E+03	1.100510E-15	2.887704E-16
4.780000E+03	1.088051E-15	2.855009E-16
4.790000E+03	1.074750E-15	2.820106E-16
4.800000E+03	1.060990E-15	2.783997E-16
4.810000E+03	1.046755E-15	2.746642E-16
4.820000E+03	1.032314E-15	2.708748E-16
4.830000E+03	1.017827E-15	2.670733E-16
4.840000E+03	1.003440E-15	2.632981E-16
4.850000E+03	9.892851E-16	2.595837E-16
4.860000E+03	9.753886E-16	2.559372E-16
4.870000E+03	9.620265E-16	2.524309E-16
4.880000E+03	9.491077E-16	2.490409E-16
4.890000E+03	9.367869E-16	2.458078E-16
4.900000E+03	9.250342E-16	2.427238E-16
4.910000E+03	9.140552E-16	2.398429E-16
4.920000E+03	9.037131E-16	2.371291E-16
4.930000E+03	8.941865E-16	2.346292E-16
4.940000E+03	8.853230E-16	2.323034E-16
4.950000E+03	8.771246E-16	2.301521E-16
4.960000E+03	8.697416E-16	2.282148E-16
4.970000E+03	8.630073E-16	2.264476E-16
4.980000E+03	8.570598E-16	2.248870E-16
4.990000E+03	8.517287E-16	2.234881E-16
5.000000E+03	8.469957E-16	2.222461E-16
5.010000E+03	8.429887E-16	2.211947E-16
5.020000E+03	8.395366E-16	2.202888E-16
5.030000E+03	8.367644E-16	2.195614E-16
5.040000E+03	8.345017E-16	2.189676E-16
5.050000E+03	8.327987E-16	2.185207E-16
5.060000E+03	8.315588E-16	2.181954E-16
5.070000E+03	8.309026E-16	2.180232E-16
5.080000E+03	8.306590E-16	2.179593E-16
5.090000E+03	8.308735E-16	2.180155E-16
5.100000E+03	8.315167E-16	2.181843E-16
5.110000E+03	8.325571E-16	2.184573E-16
5.120000E+03	8.338879E-16	2.188066E-16
5.130000E+03	8.356164E-16	2.192601E-16
5.140000E+03	8.375563E-16	2.197692E-16
5.150000E+03	8.397351E-16	2.203409E-16
5.160000E+03	8.420311E-16	2.209434E-16
5.170000E+03	8.445368E-16	2.216010E-16
5.180000E+03	8.470492E-16	2.222603E-16
5.190000E+03	8.495810E-16	2.229247E-16
5.200000E+03	8.520677E-16	2.235773E-16
5.210000E+03	8.544426E-16	2.242005E-16
5.220000E+03	8.566363E-16	2.247762E-16
5.230000E+03	8.585041E-16	2.252664E-16
5.240000E+03	8.600482E-16	2.256717E-16
5.250000E+03	8.611972E-16	2.259733E-16
5.260000E+03	8.618809E-16	2.261528E-16
5.270000E+03	8.620316E-16	2.261925E-16
5.280000E+03	8.615113E-16	2.260561E-16
5.290000E+03	8.603341E-16	2.257474E-16
5.300000E+03	8.584461E-16	2.252522E-16
5.310000E+03	8.557998E-16	2.245580E-16
5.320000E+03	8.523557E-16	2.236544E-16
5.330000E+03	8.480102E-16	2.225143E-16
5.340000E+03	8.428864E-16	2.211701E-16
5.350000E+03	8.368281E-16	2.195806E-16
5.360000E+03	8.299058E-16	2.177644E-16
5.370000E+03	8.221275E-16	2.157236E-16
5.380000E+03	8.134426E-16	2.134450E-16
5.390000E+03	8.040185E-16	2.109723E-16
5.400000E+03	7.937555E-16	2.082796E-16
5.410000E+03	7.827698E-16	2.053972E-16
5.420000E+03	7.711159E-16	2.023394E-16
5.430000E+03	7.587914E-16	1.991058E-16
5.440000E+03	7.459940E-16	1.957480E-16
5.450000E+03	7.326694E-16	1.922519E-16
5.460000E+03	7.190197E-16	1.886705E-16
5.470000E+03	7.050020E-16	1.849924E-16
5.480000E+03	6.907014E-16	1.812402E-16
5.490000E+03	6.763188E-16	1.774665E-16
5.500000E+03	6.618769E-16	1.736772E-16
5.510000E+03	6.474025E-16	1.698793E-16
5.520000E+03	6.330328E-16	1.661089E-16
5.530000E+03	6.188451E-16	1.623863E-16
5.540000E+03	6.049142E-16	1.587310E-16
5.550000E+03	5.913114E-16	1.551619E-16
5.560000E+03	5.780557E-16	1.516838E-16
5.570000E+03	5.653091E-16	1.483393E-16
5.580000E+03	5.530346E-16	1.451187E-16
5.590000E+03	5.413355E-16	1.420490E-16
5.600000E+03	5.302619E-16	1.391435E-16
5.610000E+03	5.198588E-16	1.364139E-16
5.620000E+03	5.101236E-16	1.338596E-16
5.630000E+03	5.011782E-16	1.315125E-16
5.640000E+03	4.929675E-16	1.293582E-16
5.650000E+03	4.855595E-16	1.274145E-16
5.660000E+03	4.789739E-16	1.256866E-16
5.670000E+03	4.732249E-16	1.241783E-16
5.680000E+03	4.682827E-16	1.228816E-16
5.690000E+03	4.642298E-16	1.218184E-16
5.700000E+03	4.609859E-16	1.209674E-16
5.710000E+03	4.586208E-16	1.203470E-16
5.720000E+03	4.570434E-16	1.199333E-16
5.730000E+03	4.562720E-16	1.197312E-16
5.740000E+03	4.562799E-16	1.197335E-16
5.750000E+03	4.569948E-16	1.199213E-16
5.760000E+03	4.584520E-16	1.203040E-16
5.770000E+03	4.605261E-16	1.208485E-16
5.780000E+03	4.632378E-16	1.215603E-16
5.790000E+03	4.664456E-16	1.224024E-16
5.800000E+03	4.701164E-16	1.233660E-16
5.810000E+03	4.741713E-16	1.244303E-16
5.820000E+03	4.785248E-16	1.255730E-16
5.830000E+03	4.830453E-16	1.267596E-16
5.840000E+03	4.877176E-16	1.279859E-16
5.850000E+03	4.923618E-16	1.292050E-16
5.860000E+03	4.969604E-16	1.304120E-16
5.870000E+03	5.013316E-16	1.315594E-16
5.880000E+03	5.054211E-16	1.326329E-16
5.890000E+03	5.091389E-16	1.336088E-16
5.900000E+03	5.124027E-16	1.344656E-16
5.910000E+03	5.151402E-16	1.351844E-16
5.920000E+03	5.172477E-16	1.357377E-16
5.930000E+03	5.187645E-16	1.361361E-16
5.940000E+03	5.195713E-16	1.363482E-16
5.950000E+03	5.196937E-16	1.363806E-16
5.960000E+03	5.191726E-16	1.362442E-16
5.970000E+03	5.179327E-16	1.359192E-16
5.980000E+03	5.160422E-16	1.354234E-16
5.990000E+03	5.134951E-16	1.347553E-16
6.000000E+03	5.104238E-16	1.339497E-16
6.010000E+03	5.068396E-16	1.330094E-16
6.020000E+03	5.027599E-16	1.319391E-16
6.030000E+03	4.983326E-16	1.307776E-16
6.040000E+03	4.935377E-16	1.295196E-16
6.050000E+03	4.885220E-16	1.282037E-16
6.060000E+03	4.832638E-16	1.268241E-16
6.070000E+03	4.778616E-16	1.254067E-16
6.080000E+03	4.723674E-16	1.239651E-16
6.090000E+03	4.668276E-16	1.225116E-16
6.100000E+03	4.612824E-16	1.210567E-16
6.110000E+03	4.557278E-16	1.195993E-16
6.120000E+03	4.502686E-16	1.181669E-16
6.130000E+03	4.448884E-16	1.167553E-16
6.140000E+03	4.395673E-16	1.153592E-16
6.150000E+03	4.343923E-16	1.140013E-16
6.160000E+03	4.292986E-16	1.126649E-16
6.170000E+03	4.243291E-16	1.113609E-16
6.180000E+03	4.194871E-16	1.100905E-16
6.190000E+03	4.147746E-16	1.088541E-16
6.200000E+03	4.102275E-16	1.076610E-16
6.210000E+03	4.057433E-16	1.064844E-16
6.220000E+03	4.014265E-16	1.053518E-16
6.230000E+03	3.972449E-16	1.042547E-16
6.240000E+03	3.932010E-16	1.031937E-16
6.250000E+03	3.892987E-16	1.021698E-16
6.260000E+03	3.855103E-16	1.011758E-16
6.270000E+03	3.819063E-16	1.002303E-16
6.280000E+03	3.784284E-16	9.931776E-17
6.290000E+03	3.751468E-16	9.845679E-17
6.300000E+03	3.720040E-16	9.763223E-17
6.310000E+03	3.690372E-16	9.685387E-17
6.320000E+03	3.662505E-16	9.612277E-17
6.330000E+03	3.636770E-16	9.544762E-17
6.340000E+03	3.612553E-16	9.481231E-17
6.350000E+03	3.590135E-16	9.422421E-17
6.360000E+03	3.569460E-16	9.368185E-17
6.370000E+03	3.550435E-16	9.318278E-17
6.380000E+03	3.532629E-16	9.271570E-17
6.390000E+03	3.516470E-16	9.229188E-17
6.400000E+03	3.501449E-16	9.189789E-17
6.410000E+03	3.487315E-16	9.152719E-17
6.420000E+03	3.473488E-16	9.116454E-17
6.430000E+03	3.460237E-16	9.081701E-17
6.440000E+03	3.446627E-16	9.046006E-17
6.450000E+03	3.432876E-16	9.009941E-17
6.460000E+03	3.418021E-16	8.970976E-17
6.470000E+03	3.402258E-16	8.929629E-17
6.480000E+03	3.384631E-16	8.883390E-17
6.490000E+03	3.365074E-16	8.832086E-17
6.500000E+03	3.343542E-16	8.775596E-17
6.510000E+03	3.319178E-16	8.711674E-17
6.520000E+03	3.292030E-16	8.640445E-17
6.530000E+03	3.261923E-16	8.561447E-17
6.540000E+03	3.228745E-16	8.474392E-17
6.550000E+03	3.192460E-16	8.379179E-17
6.560000E+03	3.153106E-16	8.275908E-17
6.570000E+03	3.110792E-16	8.164870E-17
6.580000E+03	3.065705E-16	8.046554E-17
6.590000E+03	3.018097E-16	7.921620E-17
6.600000E+03	2.968280E-16	7.790886E-17
6.610000E+03	2.916619E-16	7.655312E-17
6.620000E+03	2.863276E-16	7.515322E-17
6.630000E+03	2.809178E-16	7.373350E-17
6.640000E+03	2.754531E-16	7.229937E-17
6.650000E+03	2.699568E-16	7.085692E-17
6.660000E+03	2.645213E-16	6.943042E-17
6.670000E+03	2.591677E-16	6.802544E-17
6.680000E+03	2.539172E-16	6.664749E-17
6.690000E+03	2.488534E-16	6.531853E-17
6.700000E+03	2.439702E-16	6.403696E-17
6.710000E+03	2.393225E-16	6.281721E-17
6.720000E+03	2.349597E-16	6.167223E-17
6.730000E+03	2.308670E-16	6.059816E-17
6.740000E+03	2.270867E-16	5.960606E-17
6.750000E+03	2.236562E-16	5.870578E-17
6.760000E+03	2.205513E-16	5.789096E-17
6.770000E+03	2.178033E-16	5.716981E-17
6.780000E+03	2.154205E-16	5.654451E-17
6.790000E+03	2.134272E-16	5.602144E-17
6.800000E+03	2.117897E-16	5.559178E-17
6.810000E+03	2.105279E-16	5.526073E-17
6.820000E+03	2.096411E-16	5.502810E-17
6.830000E+03	2.091271E-16	5.489332E-17
6.840000E+03	2.089816E-16	5.485529E-17
6.850000E+03	2.091997E-16	5.491269E-17
6.860000E+03	2.097746E-16	5.506373E-17
6.870000E+03	2.106988E-16	5.530646E-17
6.880000E+03	2.119449E-16	5.563372E-17
6.890000E+03	2.135399E-16	5.605253E-17
6.900000E+03	2.154546E-16	5.655527E-17
6.910000E+03	2.176773E-16	5.713886E-17
6.920000E+03	2.201951E-16	5.779991E-17
6.930000E+03	2.229751E-16	5.852980E-17
6.940000E+03	2.260409E-16	5.933471E-17
6.950000E+03	2.293381E-16	6.020038E-17
6.960000E+03	2.328898E-16	6.113283E-17
6.970000E+03	2.366589E-16	6.212237E-17
6.980000E+03	2.406063E-16	6.315872E-17
6.990000E+03	2.447545E-16	6.424779E-17
7.000000E+03	2.490417E-16	6.537332E-17
7.010000E+03	2.534678E-16	6.653534E-17
7.020000E+03	2.580342E-16	6.773421E-17
7.030000E+03	2.626744E-16	6.895243E-17
7.040000E+03	2.673878E-16	7.018988E-17
7.050000E+03	2.721749E-16	7.144668E-17
7.060000E+03	2.769650E-16	7.270429E-17
7.070000E+03	2.817572E-16	7.396245E-17
7.080000E+03	2.865271E-16	7.521475E-17
7.090000E+03	2.912496E-16	7.645462E-17
7.100000E+03	2.959256E-16	7.768230E-17
7.110000E+03	3.004785E-16	7.887765E-17
7.120000E+03	3.049088E-16	8.004084E-17
7.130000E+03	3.091917E-16	8.116531E-17
7.140000E+03	3.132751E-16	8.223744E-17
7.150000E+03	3.171900E-16	8.326534E-17
7.160000E+03	3.208864E-16	8.423589E-17
7.170000E+03	3.243425E-16	8.514335E-17
7.180000E+03	3.275378E-16	8.598238E-17
7.190000E+03	3.304247E-16	8.674042E-17
7.200000E+03	3.330440E-16	8.742824E-17
7.210000E+03	3.353525E-16	8.803444E-17
7.220000E+03	3.373076E-16	8.854790E-17
7.230000E+03	3.389589E-16	8.898160E-17
7.240000E+03	3.402396E-16	8.931800E-17
7.250000E+03	3.412047E-16	8.957156E-17
7.260000E+03	3.417925E-16	8.972609E-17
7.270000E+03	3.420339E-16	8.978966E-17
7.280000E+03	3.419628E-16	8.977122E-17
7.290000E+03	3.415249E-16	8.965647E-17
7.300000E+03	3.407592E-16	8.945566E-17
7.310000E+03	3.396765E-16	8.917164E-17
7.320000E+03	3.382896E-16	8.880775E-17
7.330000E+03	3.366133E-16	8.836787E-17
7.340000E+03	3.346636E-16	8.785623E-17
7.350000E+03	3.324576E-16	8.727733E-17
7.360000E+03	3.300139E-16	8.663598E-17
7.370000E+03	3.273510E-16	8.593712E-17
7.380000E+03	3.244883E-16	8.518577E-17
7.390000E+03	3.214165E-16	8.437953E-17
7.400000E+03	3.182125E-16	8.353859E-17
7.410000E+03	3.148662E-16	8.266028E-17
7.420000E+03	3.113685E-16	8.174224E-17
7.430000E+03	3.077935E-16	8.080389E-17
7.440000E+03	3.041030E-16	7.983521E-17
7.450000E+03	3.003415E-16	7.884789E-17
7.460000E+03	2.965516E-16	7.785309E-17
7.470000E+03	2.926946E-16	7.684069E-17
7.480000E+03	2.888115E-16	7.582144E-17
7.490000E+03	2.849157E-16	7.479883E-17
7.500000E+03	2.810198E-16	7.377619E-17
7.510000E+03	2.771350E-16	7.275647E-17
7.520000E+03	2.732722E-16	7.174251E-17
7.530000E+03	2.694413E-16	7.073691E-17
7.540000E+03	2.656510E-16	6.974199E-17
7.550000E+03	2.618858E-16	6.875364E-17
7.560000E+03	2.582004E-16	6.778623E-17
7.570000E+03	2.545536E-16	6.682897E-17
7.580000E+03	2.509971E-16	6.589542E-17
7.590000E+03	2.474890E-16	6.497455E-17
7.600000E+03	2.440772E-16	6.407895E-17
7.610000E+03	2.407189E-16	6.319740E-17
7.620000E+03	2.374370E-16	6.233591E-17
7.630000E+03	2.342307E-16	6.149426E-17
7.640000E+03	2.310983E-16	6.067201E-17
7.650000E+03	2.280367E-16	5.986835E-17
7.660000E+03	2.250418E-16	5.908219E-17
7.670000E+03	2.221084E-16	5.831216E-17
7.680000E+03	2.192304E-16	5.755669E-17
7.690000E+03	2.164009E-16	5.681393E-17
7.700000E+03	2.135926E-16	5.607674E-17
7.710000E+03	2.108368E-16	5.535334E-17
7.720000E+03	2.080859E-16	5.463123E-17
7.730000E+03	2.053699E-16	5.391825E-17
7.740000E+03	2.026417E-16	5.320210E-17
7.750000E+03	1.999120E-16	5.248553E-17
7.760000E+03	1.971727E-16	5.176645E-17
