#wls	flux	fluxerr
1.600000E+03	1.053530E-16	2.620137E-17
1.640000E+03	1.038199E-16	2.581992E-17
1.680000E+03	1.023345E-16	2.545036E-17
1.720000E+03	1.009344E-16	2.510198E-17
1.760000E+03	9.958577E-17	2.476643E-17
1.800000E+03	9.830809E-17	2.444851E-17
1.840000E+03	9.708639E-17	2.414452E-17
1.880000E+03	9.595609E-17	2.386326E-17
1.920000E+03	9.488600E-17	2.359697E-17
1.960000E+03	9.389483E-17	2.335031E-17
2.000000E+03	9.298477E-17	2.312382E-17
2.040000E+03	9.215821E-17	2.291809E-17
2.080000E+03	9.140231E-17	2.272993E-17
2.120000E+03	9.075088E-17	2.256775E-17
2.160000E+03	9.019140E-17	2.242844E-17
2.200000E+03	8.972729E-17	2.231284E-17
2.240000E+03	8.936227E-17	2.222187E-17
2.280000E+03	8.910052E-17	2.215659E-17
2.320000E+03	8.894660E-17	2.211812E-17
2.360000E+03	8.890565E-17	2.210773E-17
2.400000E+03	8.899780E-17	2.213044E-17
2.440000E+03	8.921484E-17	2.218420E-17
2.480000E+03	8.956392E-17	2.227079E-17
2.520000E+03	9.005305E-17	2.239219E-17
2.560000E+03	9.070557E-17	2.255422E-17
2.600000E+03	9.151722E-17	2.275581E-17
2.640000E+03	9.249935E-17	2.299977E-17
2.680000E+03	9.367939E-17	2.329294E-17
2.720000E+03	9.505733E-17	2.363530E-17
2.760000E+03	9.666446E-17	2.403464E-17
2.800000E+03	9.850468E-17	2.449192E-17
2.840000E+03	1.006143E-16	2.501617E-17
2.880000E+03	1.030024E-16	2.560962E-17
2.920000E+03	1.057118E-16	2.628297E-17
2.960000E+03	1.087582E-16	2.704009E-17
3.000000E+03	1.121935E-16	2.789385E-17
3.010000E+03	1.131125E-16	2.812226E-17
3.020000E+03	1.140739E-16	2.836118E-17
3.030000E+03	1.150444E-16	2.860240E-17
3.040000E+03	1.160589E-16	2.885453E-17
3.050000E+03	1.170840E-16	2.910929E-17
3.060000E+03	1.181546E-16	2.937537E-17
3.070000E+03	1.192545E-16	2.964873E-17
3.080000E+03	1.203844E-16	2.992956E-17
3.090000E+03	1.215453E-16	3.021809E-17
3.100000E+03	1.227379E-16	3.051450E-17
3.110000E+03	1.239633E-16	3.081906E-17
3.120000E+03	1.252224E-16	3.113197E-17
3.130000E+03	1.265341E-16	3.145799E-17
3.140000E+03	1.278634E-16	3.178836E-17
3.150000E+03	1.292477E-16	3.213242E-17
3.160000E+03	1.306513E-16	3.248128E-17
3.170000E+03	1.321125E-16	3.284444E-17
3.180000E+03	1.336138E-16	3.321757E-17
3.190000E+03	1.351565E-16	3.360098E-17
3.200000E+03	1.367417E-16	3.399497E-17
3.210000E+03	1.383707E-16	3.439986E-17
3.220000E+03	1.400449E-16	3.481594E-17
3.230000E+03	1.417853E-16	3.524851E-17
3.240000E+03	1.435538E-16	3.568806E-17
3.250000E+03	1.453919E-16	3.614489E-17
3.260000E+03	1.472604E-16	3.660929E-17
3.270000E+03	1.492019E-16	3.709184E-17
3.280000E+03	1.511976E-16	3.758786E-17
3.290000E+03	1.532491E-16	3.809773E-17
3.300000E+03	1.553581E-16	3.862189E-17
3.310000E+03	1.575262E-16	3.916078E-17
3.320000E+03	1.597552E-16	3.971477E-17
3.330000E+03	1.620471E-16	4.028440E-17
3.340000E+03	1.644261E-16	4.087567E-17
3.350000E+03	1.668494E-16	4.147794E-17
3.360000E+03	1.693643E-16	4.210301E-17
3.370000E+03	1.719269E-16	4.273991E-17
3.380000E+03	1.745860E-16	4.340080E-17
3.390000E+03	1.773204E-16	4.408040E-17
3.400000E+03	1.801325E-16	4.477933E-17
3.410000E+03	1.830244E-16	4.549808E-17
3.420000E+03	1.859984E-16	4.623724E-17
3.430000E+03	1.890571E-16	4.699743E-17
3.440000E+03	1.922026E-16	4.777921E-17
3.450000E+03	1.954375E-16	4.858321E-17
3.460000E+03	1.987910E-16	4.941667E-17
3.470000E+03	2.022125E-16	5.026705E-17
3.480000E+03	2.057585E-16	5.114838E-17
3.490000E+03	2.094049E-16	5.205463E-17
3.500000E+03	2.131261E-16	5.297948E-17
3.510000E+03	2.169807E-16	5.393748E-17
3.520000E+03	2.209436E-16	5.492242E-17
3.530000E+03	2.250176E-16	5.593495E-17
3.540000E+03	2.292053E-16	5.697573E-17
3.550000E+03	2.335092E-16	5.804538E-17
3.560000E+03	2.379320E-16	5.914460E-17
3.570000E+03	2.425077E-16	6.028183E-17
3.580000E+03	2.471761E-16	6.144208E-17
3.590000E+03	2.519709E-16	6.263374E-17
3.600000E+03	2.569274E-16	6.386558E-17
3.610000E+03	2.619819E-16	6.512179E-17
3.620000E+03	2.672035E-16	6.641952E-17
3.630000E+03	2.725607E-16	6.775095E-17
3.640000E+03	2.780198E-16	6.910769E-17
3.650000E+03	2.836527E-16	7.050762E-17
3.660000E+03	2.894254E-16	7.194231E-17
3.670000E+03	2.953390E-16	7.341200E-17
3.680000E+03	3.013941E-16	7.491684E-17
3.690000E+03	3.075907E-16	7.645688E-17
3.700000E+03	3.139287E-16	7.803203E-17
3.710000E+03	3.204076E-16	7.964219E-17
3.720000E+03	3.270261E-16	8.128704E-17
3.730000E+03	3.338244E-16	8.297658E-17
3.740000E+03	3.407176E-16	8.468970E-17
3.750000E+03	3.477440E-16	8.643592E-17
3.760000E+03	3.549446E-16	8.822540E-17
3.770000E+03	3.622275E-16	9.003536E-17
3.780000E+03	3.696777E-16	9.188688E-17
3.790000E+03	3.771990E-16	9.375604E-17
3.800000E+03	3.848778E-16	9.566437E-17
3.810000E+03	3.926136E-16	9.758682E-17
3.820000E+03	4.004945E-16	9.954536E-17
3.830000E+03	4.084655E-16	1.015263E-16
3.840000E+03	4.165179E-16	1.035274E-16
3.850000E+03	4.245907E-16	1.055335E-16
3.860000E+03	4.327767E-16	1.075679E-16
3.870000E+03	4.410150E-16	1.096151E-16
3.880000E+03	4.492948E-16	1.116727E-16
3.890000E+03	4.576051E-16	1.137379E-16
3.900000E+03	4.659347E-16	1.158079E-16
3.910000E+03	4.742723E-16	1.178798E-16
3.920000E+03	4.826063E-16	1.199508E-16
3.930000E+03	4.909253E-16	1.220181E-16
3.940000E+03	4.992183E-16	1.240789E-16
3.950000E+03	5.074744E-16	1.261305E-16
3.960000E+03	5.156831E-16	1.281703E-16
3.970000E+03	5.238346E-16	1.301959E-16
3.980000E+03	5.319197E-16	1.322050E-16
3.990000E+03	5.399298E-16	1.341954E-16
4.000000E+03	5.478574E-16	1.361653E-16
4.010000E+03	5.556959E-16	1.381130E-16
4.020000E+03	5.634393E-16	1.400372E-16
4.030000E+03	5.710831E-16	1.419365E-16
4.040000E+03	5.786236E-16	1.438102E-16
4.050000E+03	5.860581E-16	1.456575E-16
4.060000E+03	5.933853E-16	1.474781E-16
4.070000E+03	6.006045E-16	1.492719E-16
4.080000E+03	6.077161E-16	1.510389E-16
4.090000E+03	6.147216E-16	1.527795E-16
4.100000E+03	6.216232E-16	1.544943E-16
4.110000E+03	6.284240E-16	1.561841E-16
4.120000E+03	6.351278E-16	1.578497E-16
4.130000E+03	6.417394E-16	1.594924E-16
4.140000E+03	6.482635E-16	1.611134E-16
4.150000E+03	6.547060E-16	1.627141E-16
4.160000E+03	6.610731E-16	1.642960E-16
4.170000E+03	6.673715E-16	1.658608E-16
4.180000E+03	6.736080E-16	1.674103E-16
4.190000E+03	6.797900E-16	1.689462E-16
4.200000E+03	6.858486E-16	1.704515E-16
4.210000E+03	6.919454E-16	1.719662E-16
4.220000E+03	6.980122E-16	1.734734E-16
4.230000E+03	7.039796E-16	1.749560E-16
4.240000E+03	7.100134E-16	1.764550E-16
4.250000E+03	7.160453E-16	1.779536E-16
4.260000E+03	7.220054E-16	1.794343E-16
4.270000E+03	7.280637E-16	1.809395E-16
4.280000E+03	7.340707E-16	1.824318E-16
4.290000E+03	7.401176E-16	1.839341E-16
4.300000E+03	7.462981E-16	1.854696E-16
4.310000E+03	7.524607E-16	1.870006E-16
4.320000E+03	7.586989E-16	1.885504E-16
4.330000E+03	7.650248E-16	1.901220E-16
4.340000E+03	7.714505E-16	1.917185E-16
4.350000E+03	7.779877E-16	1.933426E-16
4.360000E+03	7.846477E-16	1.949972E-16
4.370000E+03	7.914411E-16	1.966850E-16
4.380000E+03	7.983775E-16	1.984083E-16
4.390000E+03	8.054651E-16	2.001692E-16
4.400000E+03	8.126231E-16	2.019475E-16
4.410000E+03	8.200305E-16	2.037879E-16
4.420000E+03	8.275143E-16	2.056472E-16
4.430000E+03	8.352508E-16	2.075693E-16
4.440000E+03	8.430588E-16	2.095092E-16
4.450000E+03	8.510204E-16	2.114873E-16
4.460000E+03	8.592166E-16	2.135237E-16
4.470000E+03	8.674516E-16	2.155697E-16
4.480000E+03	8.757976E-16	2.176432E-16
4.490000E+03	8.842320E-16	2.197388E-16
4.500000E+03	8.926339E-16	2.218263E-16
4.510000E+03	9.011597E-16	2.239445E-16
4.520000E+03	9.096803E-16	2.260615E-16
4.530000E+03	9.180596E-16	2.281433E-16
4.540000E+03	9.264462E-16	2.302270E-16
4.550000E+03	9.345997E-16	2.322527E-16
4.560000E+03	9.425669E-16	2.342322E-16
4.570000E+03	9.502954E-16	2.361523E-16
4.580000E+03	9.577319E-16	2.379998E-16
4.590000E+03	9.648222E-16	2.397614E-16
4.600000E+03	9.715122E-16	2.414234E-16
4.610000E+03	9.777488E-16	2.429728E-16
4.620000E+03	9.833800E-16	2.443717E-16
4.630000E+03	9.885607E-16	2.456587E-16
4.640000E+03	9.930441E-16	2.467724E-16
4.650000E+03	9.968936E-16	2.477286E-16
4.660000E+03	1.000179E-15	2.485448E-16
4.670000E+03	1.002671E-15	2.491634E-16
4.680000E+03	1.004349E-15	2.495800E-16
4.690000E+03	1.005408E-15	2.498428E-16
4.700000E+03	1.005742E-15	2.499255E-16
4.710000E+03	1.005254E-15	2.498040E-16
4.720000E+03	1.004162E-15	2.495323E-16
4.730000E+03	1.002283E-15	2.490648E-16
4.740000E+03	9.997447E-16	2.484338E-16
4.750000E+03	9.965833E-16	2.476479E-16
4.760000E+03	9.928385E-16	2.467170E-16
4.770000E+03	9.885557E-16	2.456524E-16
4.780000E+03	9.836852E-16	2.444418E-16
4.790000E+03	9.784784E-16	2.431476E-16
4.800000E+03	9.727930E-16	2.417346E-16
4.810000E+03	9.668813E-16	2.402653E-16
4.820000E+03	9.606058E-16	2.387056E-16
4.830000E+03	9.541203E-16	2.370937E-16
4.840000E+03	9.473856E-16	2.354199E-16
4.850000E+03	9.406454E-16	2.337448E-16
4.860000E+03	9.338551E-16	2.320572E-16
4.870000E+03	9.269707E-16	2.303463E-16
4.880000E+03	9.201308E-16	2.286464E-16
4.890000E+03	9.134673E-16	2.269904E-16
4.900000E+03	9.068356E-16	2.253423E-16
4.910000E+03	9.002715E-16	2.237109E-16
4.920000E+03	8.939831E-16	2.221482E-16
4.930000E+03	8.879064E-16	2.206380E-16
4.940000E+03	8.819762E-16	2.191642E-16
4.950000E+03	8.762982E-16	2.177532E-16
4.960000E+03	8.709726E-16	2.164297E-16
4.970000E+03	8.658381E-16	2.151537E-16
4.980000E+03	8.609039E-16	2.139274E-16
4.990000E+03	8.563436E-16	2.127942E-16
5.000000E+03	8.520739E-16	2.117331E-16
5.010000E+03	8.480103E-16	2.107232E-16
5.020000E+03	8.442328E-16	2.097845E-16
5.030000E+03	8.408172E-16	2.089356E-16
5.040000E+03	8.375903E-16	2.081337E-16
5.050000E+03	8.345425E-16	2.073763E-16
5.060000E+03	8.318238E-16	2.067007E-16
5.070000E+03	8.293380E-16	2.060830E-16
5.080000E+03	8.269885E-16	2.054991E-16
5.090000E+03	8.248375E-16	2.049646E-16
5.100000E+03	8.229450E-16	2.044943E-16
5.110000E+03	8.211299E-16	2.040433E-16
5.120000E+03	8.193700E-16	2.036059E-16
5.130000E+03	8.177994E-16	2.032157E-16
5.140000E+03	8.163132E-16	2.028464E-16
5.150000E+03	8.148062E-16	2.024720E-16
5.160000E+03	8.133294E-16	2.021050E-16
5.170000E+03	8.118543E-16	2.017385E-16
5.180000E+03	8.103517E-16	2.013652E-16
5.190000E+03	8.087919E-16	2.009777E-16
5.200000E+03	8.071451E-16	2.005685E-16
5.210000E+03	8.053039E-16	2.001111E-16
5.220000E+03	8.033937E-16	1.996365E-16
5.230000E+03	8.012314E-16	1.990993E-16
5.240000E+03	7.988661E-16	1.985117E-16
5.250000E+03	7.962711E-16	1.978670E-16
5.260000E+03	7.934211E-16	1.971589E-16
5.270000E+03	7.902929E-16	1.963817E-16
5.280000E+03	7.867902E-16	1.955114E-16
5.290000E+03	7.830449E-16	1.945809E-16
5.300000E+03	7.788913E-16	1.935489E-16
5.310000E+03	7.743919E-16	1.924310E-16
5.320000E+03	7.695368E-16	1.912248E-16
5.330000E+03	7.643202E-16	1.899286E-16
5.340000E+03	7.586671E-16	1.885241E-16
5.350000E+03	7.527238E-16	1.870474E-16
5.360000E+03	7.463511E-16	1.854640E-16
5.370000E+03	7.397001E-16	1.838115E-16
5.380000E+03	7.326420E-16	1.820578E-16
5.390000E+03	7.252632E-16	1.802245E-16
5.400000E+03	7.175829E-16	1.783162E-16
5.410000E+03	7.096234E-16	1.763385E-16
5.420000E+03	7.013433E-16	1.742812E-16
5.430000E+03	6.929041E-16	1.721844E-16
5.440000E+03	6.842039E-16	1.700226E-16
5.450000E+03	6.753413E-16	1.678206E-16
5.460000E+03	6.663500E-16	1.655865E-16
5.470000E+03	6.572649E-16	1.633292E-16
5.480000E+03	6.481219E-16	1.610574E-16
5.490000E+03	6.389573E-16	1.587803E-16
5.500000E+03	6.297483E-16	1.564922E-16
5.510000E+03	6.206506E-16	1.542317E-16
5.520000E+03	6.115821E-16	1.519785E-16
5.530000E+03	6.026372E-16	1.497559E-16
5.540000E+03	5.938495E-16	1.475725E-16
5.550000E+03	5.852510E-16	1.454360E-16
5.560000E+03	5.768727E-16	1.433543E-16
5.570000E+03	5.687429E-16	1.413343E-16
5.580000E+03	5.608885E-16	1.393828E-16
5.590000E+03	5.532819E-16	1.374928E-16
5.600000E+03	5.459984E-16	1.356831E-16
5.610000E+03	5.391079E-16	1.339711E-16
5.620000E+03	5.325257E-16	1.323357E-16
5.630000E+03	5.263171E-16	1.307931E-16
5.640000E+03	5.204935E-16	1.293462E-16
5.650000E+03	5.150154E-16	1.279852E-16
5.660000E+03	5.099855E-16	1.267355E-16
5.670000E+03	5.053582E-16	1.255859E-16
5.680000E+03	5.010866E-16	1.245247E-16
5.690000E+03	4.972158E-16	1.235631E-16
5.700000E+03	4.937402E-16	1.226997E-16
5.710000E+03	4.906973E-16	1.219438E-16
5.720000E+03	4.879838E-16	1.212698E-16
5.730000E+03	4.855867E-16	1.206744E-16
5.740000E+03	4.835805E-16	1.201762E-16
5.750000E+03	4.819007E-16	1.197590E-16
5.760000E+03	4.804807E-16	1.194065E-16
5.770000E+03	4.793870E-16	1.191350E-16
5.780000E+03	4.785038E-16	1.189158E-16
5.790000E+03	4.778932E-16	1.187644E-16
5.800000E+03	4.774364E-16	1.186512E-16
5.810000E+03	4.771472E-16	1.185797E-16
5.820000E+03	4.769941E-16	1.185420E-16
5.830000E+03	4.769446E-16	1.185301E-16
5.840000E+03	4.769213E-16	1.185246E-16
5.850000E+03	4.769806E-16	1.185397E-16
5.860000E+03	4.770461E-16	1.185564E-16
5.870000E+03	4.770419E-16	1.185557E-16
5.880000E+03	4.769825E-16	1.185413E-16
5.890000E+03	4.768845E-16	1.185173E-16
5.900000E+03	4.766330E-16	1.184551E-16
5.910000E+03	4.762489E-16	1.183601E-16
5.920000E+03	4.757119E-16	1.182270E-16
5.930000E+03	4.750040E-16	1.180514E-16
5.940000E+03	4.741112E-16	1.178299E-16
5.950000E+03	4.730224E-16	1.175597E-16
5.960000E+03	4.716857E-16	1.172278E-16
5.970000E+03	4.701853E-16	1.168553E-16
5.980000E+03	4.684757E-16	1.164308E-16
5.990000E+03	4.665154E-16	1.159440E-16
6.000000E+03	4.643532E-16	1.154070E-16
6.010000E+03	4.620395E-16	1.148324E-16
6.020000E+03	4.594974E-16	1.142010E-16
6.030000E+03	4.567819E-16	1.135264E-16
6.040000E+03	4.539059E-16	1.128120E-16
6.050000E+03	4.508838E-16	1.120613E-16
6.060000E+03	4.477306E-16	1.112780E-16
6.070000E+03	4.444619E-16	1.104660E-16
6.080000E+03	4.410934E-16	1.096291E-16
6.090000E+03	4.376002E-16	1.087613E-16
6.100000E+03	4.340798E-16	1.078867E-16
6.110000E+03	4.304655E-16	1.069888E-16
6.120000E+03	4.268527E-16	1.060912E-16
6.130000E+03	4.231746E-16	1.051774E-16
6.140000E+03	4.195235E-16	1.042703E-16
6.150000E+03	4.158321E-16	1.033532E-16
6.160000E+03	4.121511E-16	1.024387E-16
6.170000E+03	4.084900E-16	1.015291E-16
6.180000E+03	4.048579E-16	1.006267E-16
6.190000E+03	4.012627E-16	9.973346E-17
6.200000E+03	3.977114E-16	9.885114E-17
6.210000E+03	3.942102E-16	9.798128E-17
6.220000E+03	3.907646E-16	9.712520E-17
6.230000E+03	3.873790E-16	9.628406E-17
6.240000E+03	3.840573E-16	9.545878E-17
6.250000E+03	3.807669E-16	9.464129E-17
6.260000E+03	3.775818E-16	9.384995E-17
6.270000E+03	3.744323E-16	9.306747E-17
6.280000E+03	3.713900E-16	9.231162E-17
6.290000E+03	3.683849E-16	9.156500E-17
6.300000E+03	3.654856E-16	9.084470E-17
6.310000E+03	3.626220E-16	9.013324E-17
6.320000E+03	3.598261E-16	8.943863E-17
6.330000E+03	3.571286E-16	8.876844E-17
6.340000E+03	3.544580E-16	8.810495E-17
6.350000E+03	3.518434E-16	8.745538E-17
6.360000E+03	3.492793E-16	8.681837E-17
6.370000E+03	3.467595E-16	8.619234E-17
6.380000E+03	3.442768E-16	8.557555E-17
6.390000E+03	3.418236E-16	8.496607E-17
6.400000E+03	3.393918E-16	8.436192E-17
6.410000E+03	3.369727E-16	8.376091E-17
6.420000E+03	3.345573E-16	8.316082E-17
6.430000E+03	3.321052E-16	8.255160E-17
6.440000E+03	3.296701E-16	8.194661E-17
6.450000E+03	3.272116E-16	8.133580E-17
6.460000E+03	3.246906E-16	8.070944E-17
6.470000E+03	3.221607E-16	8.008087E-17
6.480000E+03	3.195535E-16	7.943308E-17
6.490000E+03	3.169234E-16	7.877959E-17
6.500000E+03	3.142055E-16	7.810426E-17
6.510000E+03	3.114554E-16	7.742094E-17
6.520000E+03	3.086118E-16	7.671438E-17
6.530000E+03	3.057326E-16	7.599893E-17
6.540000E+03	3.027604E-16	7.526038E-17
6.550000E+03	2.997271E-16	7.450664E-17
6.560000E+03	2.966371E-16	7.373879E-17
6.570000E+03	2.935238E-16	7.296514E-17
6.580000E+03	2.903392E-16	7.217376E-17
6.590000E+03	2.871203E-16	7.137385E-17
6.600000E+03	2.838773E-16	7.056796E-17
6.610000E+03	2.806221E-16	6.975901E-17
6.620000E+03	2.773671E-16	6.895010E-17
6.630000E+03	2.741258E-16	6.814462E-17
6.640000E+03	2.709124E-16	6.734605E-17
6.650000E+03	2.677413E-16	6.655797E-17
6.660000E+03	2.646272E-16	6.578409E-17
6.670000E+03	2.615599E-16	6.502182E-17
6.680000E+03	2.586039E-16	6.428720E-17
6.690000E+03	2.557483E-16	6.357754E-17
6.700000E+03	2.530064E-16	6.289615E-17
6.710000E+03	2.503675E-16	6.224036E-17
6.720000E+03	2.478915E-16	6.162505E-17
6.730000E+03	2.455657E-16	6.104709E-17
6.740000E+03	2.433769E-16	6.050319E-17
6.750000E+03	2.413814E-16	6.000731E-17
6.760000E+03	2.395636E-16	5.955563E-17
6.770000E+03	2.379081E-16	5.914429E-17
6.780000E+03	2.364439E-16	5.878050E-17
6.790000E+03	2.351986E-16	5.847110E-17
6.800000E+03	2.341308E-16	5.820584E-17
6.810000E+03	2.332882E-16	5.799657E-17
6.820000E+03	2.326282E-16	5.783271E-17
6.830000E+03	2.321739E-16	5.771998E-17
6.840000E+03	2.319474E-16	5.766387E-17
6.850000E+03	2.319034E-16	5.765312E-17
6.860000E+03	2.320622E-16	5.769280E-17
6.870000E+03	2.324208E-16	5.778217E-17
6.880000E+03	2.329984E-16	5.792596E-17
6.890000E+03	2.337456E-16	5.811193E-17
6.900000E+03	2.346799E-16	5.834440E-17
6.910000E+03	2.357951E-16	5.862186E-17
6.920000E+03	2.370848E-16	5.894270E-17
6.930000E+03	2.385414E-16	5.930504E-17
6.940000E+03	2.401570E-16	5.970691E-17
6.950000E+03	2.419229E-16	6.014615E-17
6.960000E+03	2.438297E-16	6.062042E-17
6.970000E+03	2.458674E-16	6.112723E-17
6.980000E+03	2.480015E-16	6.165802E-17
6.990000E+03	2.502685E-16	6.222185E-17
7.000000E+03	2.526330E-16	6.280991E-17
7.010000E+03	2.550827E-16	6.341917E-17
7.020000E+03	2.576049E-16	6.404646E-17
7.030000E+03	2.601614E-16	6.468228E-17
7.040000E+03	2.627888E-16	6.533573E-17
7.050000E+03	2.654482E-16	6.599714E-17
7.060000E+03	2.680998E-16	6.665662E-17
7.070000E+03	2.707808E-16	6.732342E-17
7.080000E+03	2.734248E-16	6.798102E-17
7.090000E+03	2.760701E-16	6.863893E-17
7.100000E+03	2.786489E-16	6.928032E-17
7.110000E+03	2.812008E-16	6.991501E-17
7.120000E+03	2.836572E-16	7.052600E-17
7.130000E+03	2.860316E-16	7.111658E-17
7.140000E+03	2.883387E-16	7.169040E-17
7.150000E+03	2.905095E-16	7.223039E-17
7.160000E+03	2.925599E-16	7.274041E-17
7.170000E+03	2.944778E-16	7.321750E-17
7.180000E+03	2.962527E-16	7.365904E-17
7.190000E+03	2.979036E-16	7.406975E-17
7.200000E+03	2.993634E-16	7.443292E-17
7.210000E+03	3.006528E-16	7.475375E-17
7.220000E+03	3.017649E-16	7.503051E-17
7.230000E+03	3.026937E-16	7.526168E-17
7.240000E+03	3.034344E-16	7.544609E-17
7.250000E+03	3.039835E-16	7.558285E-17
7.260000E+03	3.043086E-16	7.566390E-17
7.270000E+03	3.044680E-16	7.570379E-17
7.280000E+03	3.044319E-16	7.569503E-17
7.290000E+03	3.042013E-16	7.563792E-17
7.300000E+03	3.037484E-16	7.552555E-17
7.310000E+03	3.031361E-16	7.537354E-17
7.320000E+03	3.023387E-16	7.517548E-17
7.330000E+03	3.013316E-16	7.492530E-17
7.340000E+03	3.001799E-16	7.463915E-17
7.350000E+03	2.988311E-16	7.430400E-17
7.360000E+03	2.973515E-16	7.393632E-17
7.370000E+03	2.956902E-16	7.352344E-17
7.380000E+03	2.938847E-16	7.307473E-17
7.390000E+03	2.919728E-16	7.259953E-17
7.400000E+03	2.899055E-16	7.208571E-17
7.410000E+03	2.877209E-16	7.154272E-17
7.420000E+03	2.854282E-16	7.097284E-17
7.430000E+03	2.830369E-16	7.037842E-17
7.440000E+03	2.805560E-16	6.976173E-17
7.450000E+03	2.779946E-16	6.912502E-17
7.460000E+03	2.753616E-16	6.847051E-17
7.470000E+03	2.726656E-16	6.780033E-17
7.480000E+03	2.699152E-16	6.711660E-17
7.490000E+03	2.671179E-16	6.642123E-17
7.500000E+03	2.642817E-16	6.571616E-17
7.510000E+03	2.613876E-16	6.499668E-17
7.520000E+03	2.584945E-16	6.427748E-17
7.530000E+03	2.555825E-16	6.355354E-17
7.540000E+03	2.526321E-16	6.282006E-17
7.550000E+03	2.496990E-16	6.209087E-17
7.560000E+03	2.467378E-16	6.135472E-17
7.570000E+03	2.437780E-16	6.061888E-17
7.580000E+03	2.408472E-16	5.989025E-17
7.590000E+03	2.378998E-16	5.915749E-17
7.600000E+03	2.349628E-16	5.842733E-17
7.610000E+03	2.320383E-16	5.770025E-17
7.620000E+03	2.291276E-16	5.697660E-17
7.630000E+03	2.262545E-16	5.626230E-17
7.640000E+03	2.233739E-16	5.554614E-17
7.650000E+03	2.204867E-16	5.482832E-17
7.660000E+03	2.176374E-16	5.411991E-17
7.670000E+03	2.148028E-16	5.341518E-17
7.680000E+03	2.119820E-16	5.271387E-17
7.690000E+03	2.091741E-16	5.201574E-17
7.700000E+03	2.063567E-16	5.131528E-17
7.710000E+03	2.035704E-16	5.062252E-17
7.720000E+03	2.007721E-16	4.992678E-17
7.730000E+03	1.980010E-16	4.923780E-17
7.740000E+03	1.952153E-16	4.854518E-17
7.750000E+03	1.924531E-16	4.785841E-17
7.760000E+03	1.896737E-16	4.716736E-17
