#wls	flux	fluxerr
1.600000E+03	1.281157E-14	5.845560E-16
1.640000E+03	1.305713E-14	5.918079E-16
1.680000E+03	1.329627E-14	5.985402E-16
1.720000E+03	1.352803E-14	6.047114E-16
1.760000E+03	1.375327E-14	6.103607E-16
1.800000E+03	1.397469E-14	6.156090E-16
1.840000E+03	1.419114E-14	6.204051E-16
1.880000E+03	1.440820E-14	6.249904E-16
1.920000E+03	1.462839E-14	6.294687E-16
1.960000E+03	1.485393E-14	6.339267E-16
2.000000E+03	1.508430E-14	6.383317E-16
2.040000E+03	1.531713E-14	6.425742E-16
2.080000E+03	1.554595E-14	6.463777E-16
2.120000E+03	1.576450E-14	6.494844E-16
2.160000E+03	1.597394E-14	6.519489E-16
2.200000E+03	1.617229E-14	6.536981E-16
2.240000E+03	1.635521E-14	6.545673E-16
2.280000E+03	1.651943E-14	6.544430E-16
2.320000E+03	1.666837E-14	6.534794E-16
2.360000E+03	1.681332E-14	6.521312E-16
2.400000E+03	1.696661E-14	6.508747E-16
2.440000E+03	1.713666E-14	6.500176E-16
2.480000E+03	1.732791E-14	6.497033E-16
2.520000E+03	1.753460E-14	6.496891E-16
2.560000E+03	1.774319E-14	6.494576E-16
2.600000E+03	1.793170E-14	6.482107E-16
2.640000E+03	1.808342E-14	6.453803E-16
2.680000E+03	1.819717E-14	6.409758E-16
2.720000E+03	1.828719E-14	6.355484E-16
2.760000E+03	1.837074E-14	6.297264E-16
2.800000E+03	1.845872E-14	6.238910E-16
2.840000E+03	1.855526E-14	6.181790E-16
2.880000E+03	1.866129E-14	6.126135E-16
2.920000E+03	1.877522E-14	6.071356E-16
2.960000E+03	1.889839E-14	6.017834E-16
3.000000E+03	1.903242E-14	5.966018E-16
3.010000E+03	1.906868E-14	5.953654E-16
3.020000E+03	1.910573E-14	5.941422E-16
3.030000E+03	1.914366E-14	5.929349E-16
3.040000E+03	1.918342E-14	5.917727E-16
3.050000E+03	1.922464E-14	5.906436E-16
3.060000E+03	1.926742E-14	5.895506E-16
3.070000E+03	1.931230E-14	5.885095E-16
3.080000E+03	1.935896E-14	5.875098E-16
3.090000E+03	1.940753E-14	5.865556E-16
3.100000E+03	1.945895E-14	5.856738E-16
3.110000E+03	1.951255E-14	5.848443E-16
3.120000E+03	1.956887E-14	5.840820E-16
3.130000E+03	1.962765E-14	5.833787E-16
3.140000E+03	1.969024E-14	5.827732E-16
3.150000E+03	1.975560E-14	5.822342E-16
3.160000E+03	1.982427E-14	5.817765E-16
3.170000E+03	1.989678E-14	5.814144E-16
3.180000E+03	1.997327E-14	5.811512E-16
3.190000E+03	2.005311E-14	5.809671E-16
3.200000E+03	2.013755E-14	5.808974E-16
3.210000E+03	2.022597E-14	5.809225E-16
3.220000E+03	2.031881E-14	5.810539E-16
3.230000E+03	2.041577E-14	5.812819E-16
3.240000E+03	2.051727E-14	5.816170E-16
3.250000E+03	2.062331E-14	5.820582E-16
3.260000E+03	2.073388E-14	5.826032E-16
3.270000E+03	2.084853E-14	5.832385E-16
3.280000E+03	2.096753E-14	5.839703E-16
3.290000E+03	2.109069E-14	5.847924E-16
3.300000E+03	2.121744E-14	5.856876E-16
3.310000E+03	2.134783E-14	5.866568E-16
3.320000E+03	2.148117E-14	5.876796E-16
3.330000E+03	2.161734E-14	5.887523E-16
3.340000E+03	2.175547E-14	5.898509E-16
3.350000E+03	2.189491E-14	5.909574E-16
3.360000E+03	2.203492E-14	5.920521E-16
3.370000E+03	2.217466E-14	5.931127E-16
3.380000E+03	2.231314E-14	5.941137E-16
3.390000E+03	2.244896E-14	5.950187E-16
3.400000E+03	2.258123E-14	5.958058E-16
3.410000E+03	2.270799E-14	5.964256E-16
3.420000E+03	2.282847E-14	5.968603E-16
3.430000E+03	2.294056E-14	5.970578E-16
3.440000E+03	2.304274E-14	5.969825E-16
3.450000E+03	2.313349E-14	5.965990E-16
3.460000E+03	2.321104E-14	5.958665E-16
3.470000E+03	2.327435E-14	5.947643E-16
3.480000E+03	2.332198E-14	5.932606E-16
3.490000E+03	2.335275E-14	5.913318E-16
3.500000E+03	2.336651E-14	5.889805E-16
3.510000E+03	2.336407E-14	5.862332E-16
3.520000E+03	2.334730E-14	5.831420E-16
3.530000E+03	2.331714E-14	5.797352E-16
3.540000E+03	2.327583E-14	5.760730E-16
3.550000E+03	2.322513E-14	5.722020E-16
3.560000E+03	2.316702E-14	5.681743E-16
3.570000E+03	2.310289E-14	5.640259E-16
3.580000E+03	2.303423E-14	5.597953E-16
3.590000E+03	2.296297E-14	5.555304E-16
3.600000E+03	2.288976E-14	5.512475E-16
3.610000E+03	2.281607E-14	5.469826E-16
3.620000E+03	2.274263E-14	5.427533E-16
3.630000E+03	2.266969E-14	5.385653E-16
3.640000E+03	2.259754E-14	5.344252E-16
3.650000E+03	2.252649E-14	5.303398E-16
3.660000E+03	2.245613E-14	5.262997E-16
3.670000E+03	2.238663E-14	5.223080E-16
3.680000E+03	2.231702E-14	5.183420E-16
3.690000E+03	2.224692E-14	5.143934E-16
3.700000E+03	2.217564E-14	5.104457E-16
3.710000E+03	2.210265E-14	5.064879E-16
3.720000E+03	2.202696E-14	5.024976E-16
3.730000E+03	2.194801E-14	4.984631E-16
3.740000E+03	2.186510E-14	4.943694E-16
3.750000E+03	2.177779E-14	4.902075E-16
3.760000E+03	2.168549E-14	4.859662E-16
3.770000E+03	2.158792E-14	4.816404E-16
3.780000E+03	2.148466E-14	4.772225E-16
3.790000E+03	2.137540E-14	4.727070E-16
3.800000E+03	2.126052E-14	4.681044E-16
3.810000E+03	2.113944E-14	4.634033E-16
3.820000E+03	2.101247E-14	4.586124E-16
3.830000E+03	2.087996E-14	4.537412E-16
3.840000E+03	2.074173E-14	4.487868E-16
3.850000E+03	2.059799E-14	4.437558E-16
3.860000E+03	2.044920E-14	4.386595E-16
3.870000E+03	2.029563E-14	4.335047E-16
3.880000E+03	2.013752E-14	4.282980E-16
3.890000E+03	1.997495E-14	4.230421E-16
3.900000E+03	1.980835E-14	4.177472E-16
3.910000E+03	1.963793E-14	4.124189E-16
3.920000E+03	1.946389E-14	4.070620E-16
3.930000E+03	1.928641E-14	4.016812E-16
3.940000E+03	1.910563E-14	3.962805E-16
3.950000E+03	1.892187E-14	3.908666E-16
3.960000E+03	1.873526E-14	3.854430E-16
3.970000E+03	1.854575E-14	3.800092E-16
3.980000E+03	1.835376E-14	3.745746E-16
3.990000E+03	1.815930E-14	3.691393E-16
4.000000E+03	1.796264E-14	3.637095E-16
4.010000E+03	1.776395E-14	3.582891E-16
4.020000E+03	1.756327E-14	3.528785E-16
4.030000E+03	1.736112E-14	3.474888E-16
4.040000E+03	1.715758E-14	3.421214E-16
4.050000E+03	1.695309E-14	3.367853E-16
4.060000E+03	1.674794E-14	3.314859E-16
4.070000E+03	1.654248E-14	3.262300E-16
4.080000E+03	1.633708E-14	3.210247E-16
4.090000E+03	1.613230E-14	3.158802E-16
4.100000E+03	1.592842E-14	3.108020E-16
4.110000E+03	1.572594E-14	3.057987E-16
4.120000E+03	1.552563E-14	3.008850E-16
4.130000E+03	1.532779E-14	2.960655E-16
4.140000E+03	1.513309E-14	2.913524E-16
4.150000E+03	1.494215E-14	2.867566E-16
4.160000E+03	1.475558E-14	2.822884E-16
4.170000E+03	1.457397E-14	2.779581E-16
4.180000E+03	1.439792E-14	2.737757E-16
4.190000E+03	1.422802E-14	2.697509E-16
4.200000E+03	1.406479E-14	2.658922E-16
4.210000E+03	1.390873E-14	2.622075E-16
4.220000E+03	1.376026E-14	2.587031E-16
4.230000E+03	1.361959E-14	2.553816E-16
4.240000E+03	1.348702E-14	2.522466E-16
4.250000E+03	1.336281E-14	2.493013E-16
4.260000E+03	1.324704E-14	2.465448E-16
4.270000E+03	1.313942E-14	2.439699E-16
4.280000E+03	1.303996E-14	2.415749E-16
4.290000E+03	1.294843E-14	2.393537E-16
4.300000E+03	1.286455E-14	2.372994E-16
4.310000E+03	1.278794E-14	2.354036E-16
4.320000E+03	1.271804E-14	2.336544E-16
4.330000E+03	1.265443E-14	2.320425E-16
4.340000E+03	1.259626E-14	2.305511E-16
4.350000E+03	1.254315E-14	2.291719E-16
4.360000E+03	1.249450E-14	2.278927E-16
4.370000E+03	1.244994E-14	2.267055E-16
4.380000E+03	1.240905E-14	2.256020E-16
4.390000E+03	1.237164E-14	2.245774E-16
4.400000E+03	1.233745E-14	2.236262E-16
4.410000E+03	1.230648E-14	2.227475E-16
4.420000E+03	1.227852E-14	2.219367E-16
4.430000E+03	1.225341E-14	2.211899E-16
4.440000E+03	1.223118E-14	2.205073E-16
4.450000E+03	1.221166E-14	2.198847E-16
4.460000E+03	1.219474E-14	2.193194E-16
4.470000E+03	1.218044E-14	2.188112E-16
4.480000E+03	1.216838E-14	2.183526E-16
4.490000E+03	1.215848E-14	2.179414E-16
4.500000E+03	1.215056E-14	2.175739E-16
4.510000E+03	1.214426E-14	2.172432E-16
4.520000E+03	1.213931E-14	2.169438E-16
4.530000E+03	1.213547E-14	2.166707E-16
4.540000E+03	1.213246E-14	2.164186E-16
4.550000E+03	1.213003E-14	2.161825E-16
4.560000E+03	1.212782E-14	2.159557E-16
4.570000E+03	1.212551E-14	2.157320E-16
4.580000E+03	1.212318E-14	2.155124E-16
4.590000E+03	1.212046E-14	2.152898E-16
4.600000E+03	1.211717E-14	2.150609E-16
4.610000E+03	1.211340E-14	2.148268E-16
4.620000E+03	1.210919E-14	2.145879E-16
4.630000E+03	1.210428E-14	2.143392E-16
4.640000E+03	1.209913E-14	2.140886E-16
4.650000E+03	1.209346E-14	2.138309E-16
4.660000E+03	1.208768E-14	2.135730E-16
4.670000E+03	1.208192E-14	2.133168E-16
4.680000E+03	1.207631E-14	2.130643E-16
4.690000E+03	1.207097E-14	2.128175E-16
4.700000E+03	1.206607E-14	2.125789E-16
4.710000E+03	1.206194E-14	2.123543E-16
4.720000E+03	1.205862E-14	2.121440E-16
4.730000E+03	1.205620E-14	2.119491E-16
4.740000E+03	1.205486E-14	2.117728E-16
4.750000E+03	1.205439E-14	2.116112E-16
4.760000E+03	1.205518E-14	2.114706E-16
4.770000E+03	1.205678E-14	2.113432E-16
4.780000E+03	1.205935E-14	2.112315E-16
4.790000E+03	1.206273E-14	2.111324E-16
4.800000E+03	1.206647E-14	2.110381E-16
4.810000E+03	1.207047E-14	2.109463E-16
4.820000E+03	1.207452E-14	2.108535E-16
4.830000E+03	1.207804E-14	2.107496E-16
4.840000E+03	1.208079E-14	2.106298E-16
4.850000E+03	1.208236E-14	2.104876E-16
4.860000E+03	1.208224E-14	2.103135E-16
4.870000E+03	1.207999E-14	2.101002E-16
4.880000E+03	1.207537E-14	2.098434E-16
4.890000E+03	1.206787E-14	2.095344E-16
4.900000E+03	1.205728E-14	2.091697E-16
4.910000E+03	1.204310E-14	2.087407E-16
4.920000E+03	1.202524E-14	2.082461E-16
4.930000E+03	1.200356E-14	2.076836E-16
4.940000E+03	1.197788E-14	2.070503E-16
4.950000E+03	1.194833E-14	2.063487E-16
4.960000E+03	1.191488E-14	2.055786E-16
4.970000E+03	1.187782E-14	2.047451E-16
4.980000E+03	1.183722E-14	2.038499E-16
4.990000E+03	1.179337E-14	2.028980E-16
5.000000E+03	1.174644E-14	2.018928E-16
5.010000E+03	1.169697E-14	2.008438E-16
5.020000E+03	1.164508E-14	1.997535E-16
5.030000E+03	1.159110E-14	1.986274E-16
5.040000E+03	1.153547E-14	1.974737E-16
5.050000E+03	1.147841E-14	1.962962E-16
5.060000E+03	1.142022E-14	1.951005E-16
5.070000E+03	1.136121E-14	1.938919E-16
5.080000E+03	1.130167E-14	1.926756E-16
5.090000E+03	1.124177E-14	1.914547E-16
5.100000E+03	1.118176E-14	1.902339E-16
5.110000E+03	1.112203E-14	1.890198E-16
5.120000E+03	1.106258E-14	1.878128E-16
5.130000E+03	1.100388E-14	1.866207E-16
5.140000E+03	1.094578E-14	1.854416E-16
5.150000E+03	1.088868E-14	1.842822E-16
5.160000E+03	1.083262E-14	1.831433E-16
5.170000E+03	1.077772E-14	1.820274E-16
5.180000E+03	1.072408E-14	1.809360E-16
5.190000E+03	1.067164E-14	1.798686E-16
5.200000E+03	1.062043E-14	1.788256E-16
5.210000E+03	1.057036E-14	1.778057E-16
5.220000E+03	1.052166E-14	1.768131E-16
5.230000E+03	1.047399E-14	1.758423E-16
5.240000E+03	1.042745E-14	1.748950E-16
5.250000E+03	1.038205E-14	1.739717E-16
5.260000E+03	1.033779E-14	1.730724E-16
5.270000E+03	1.029449E-14	1.721947E-16
5.280000E+03	1.025229E-14	1.713407E-16
5.290000E+03	1.021115E-14	1.705102E-16
5.300000E+03	1.017114E-14	1.697045E-16
5.310000E+03	1.013223E-14	1.689233E-16
5.320000E+03	1.009462E-14	1.681702E-16
5.330000E+03	1.005821E-14	1.674438E-16
5.340000E+03	1.002311E-14	1.667461E-16
5.350000E+03	9.989345E-15	1.660775E-16
5.360000E+03	9.957122E-15	1.654419E-16
5.370000E+03	9.926238E-15	1.648361E-16
5.380000E+03	9.896903E-15	1.642639E-16
5.390000E+03	9.869119E-15	1.637254E-16
5.400000E+03	9.842868E-15	1.632205E-16
5.410000E+03	9.817940E-15	1.627459E-16
5.420000E+03	9.794297E-15	1.623007E-16
5.430000E+03	9.771939E-15	1.618847E-16
5.440000E+03	9.750533E-15	1.614922E-16
5.450000E+03	9.730160E-15	1.611241E-16
5.460000E+03	9.710627E-15	1.607771E-16
5.470000E+03	9.691850E-15	1.604492E-16
5.480000E+03	9.674244E-15	1.601473E-16
5.490000E+03	9.657743E-15	1.598699E-16
5.500000E+03	9.642645E-15	1.596216E-16
5.510000E+03	9.628998E-15	1.594031E-16
5.520000E+03	9.617102E-15	1.592189E-16
5.530000E+03	9.606735E-15	1.590653E-16
5.540000E+03	9.597934E-15	1.589426E-16
5.550000E+03	9.590523E-15	1.588476E-16
5.560000E+03	9.584606E-15	1.587819E-16
5.570000E+03	9.579891E-15	1.587404E-16
5.580000E+03	9.576288E-15	1.587214E-16
5.590000E+03	9.573618E-15	1.587219E-16
5.600000E+03	9.571922E-15	1.587422E-16
5.610000E+03	9.570968E-15	1.587784E-16
5.620000E+03	9.570754E-15	1.588302E-16
5.630000E+03	9.571311E-15	1.588980E-16
5.640000E+03	9.572604E-15	1.589811E-16
5.650000E+03	9.574739E-15	1.590810E-16
5.660000E+03	9.577651E-15	1.591966E-16
5.670000E+03	9.581510E-15	1.593306E-16
5.680000E+03	9.586516E-15	1.594861E-16
5.690000E+03	9.592788E-15	1.596651E-16
5.700000E+03	9.600464E-15	1.598697E-16
5.710000E+03	9.609693E-15	1.601023E-16
5.720000E+03	9.620829E-15	1.603689E-16
5.730000E+03	9.633810E-15	1.606682E-16
5.740000E+03	9.648969E-15	1.610058E-16
5.750000E+03	9.666410E-15	1.613834E-16
5.760000E+03	9.686095E-15	1.618003E-16
5.770000E+03	9.708151E-15	1.622587E-16
5.780000E+03	9.732650E-15	1.627598E-16
5.790000E+03	9.759397E-15	1.633004E-16
5.800000E+03	9.788231E-15	1.638777E-16
5.810000E+03	9.819134E-15	1.644915E-16
5.820000E+03	9.851588E-15	1.651331E-16
5.830000E+03	9.885317E-15	1.657980E-16
5.840000E+03	9.919869E-15	1.664786E-16
5.850000E+03	9.954728E-15	1.671663E-16
5.860000E+03	9.989428E-15	1.678531E-16
5.870000E+03	1.002313E-14	1.685252E-16
5.880000E+03	1.005542E-14	1.691753E-16
5.890000E+03	1.008553E-14	1.697908E-16
5.900000E+03	1.011283E-14	1.703607E-16
5.910000E+03	1.013672E-14	1.708752E-16
5.920000E+03	1.015667E-14	1.713251E-16
5.930000E+03	1.017236E-14	1.717048E-16
5.940000E+03	1.018320E-14	1.720046E-16
5.950000E+03	1.018898E-14	1.722206E-16
5.960000E+03	1.018973E-14	1.723533E-16
5.970000E+03	1.018548E-14	1.724032E-16
5.980000E+03	1.017619E-14	1.723693E-16
5.990000E+03	1.016240E-14	1.722609E-16
6.000000E+03	1.014416E-14	1.720787E-16
6.010000E+03	1.012234E-14	1.718373E-16
6.020000E+03	1.009716E-14	1.715406E-16
6.030000E+03	1.006925E-14	1.711992E-16
6.040000E+03	1.003938E-14	1.708261E-16
6.050000E+03	1.000808E-14	1.704307E-16
6.060000E+03	9.976007E-15	1.700239E-16
6.070000E+03	9.943536E-15	1.696123E-16
6.080000E+03	9.911484E-15	1.692101E-16
6.090000E+03	9.880027E-15	1.688203E-16
6.100000E+03	9.849878E-15	1.684553E-16
6.110000E+03	9.821339E-15	1.681205E-16
6.120000E+03	9.794649E-15	1.678202E-16
6.130000E+03	9.770106E-15	1.675598E-16
6.140000E+03	9.748058E-15	1.673455E-16
6.150000E+03	9.728553E-15	1.671784E-16
6.160000E+03	9.711690E-15	1.670605E-16
6.170000E+03	9.697745E-15	1.669968E-16
6.180000E+03	9.686438E-15	1.669830E-16
6.190000E+03	9.677785E-15	1.670196E-16
6.200000E+03	9.671738E-15	1.671061E-16
6.210000E+03	9.668184E-15	1.672409E-16
6.220000E+03	9.666707E-15	1.674172E-16
6.230000E+03	9.666963E-15	1.676294E-16
6.240000E+03	9.668705E-15	1.678734E-16
6.250000E+03	9.671424E-15	1.681408E-16
6.260000E+03	9.674882E-15	1.684277E-16
6.270000E+03	9.678755E-15	1.687287E-16
6.280000E+03	9.683004E-15	1.690434E-16
6.290000E+03	9.687928E-15	1.693771E-16
6.300000E+03	9.694010E-15	1.697379E-16
6.310000E+03	9.701908E-15	1.701373E-16
6.320000E+03	9.712292E-15	1.705869E-16
6.330000E+03	9.725550E-15	1.710934E-16
6.340000E+03	9.742285E-15	1.716676E-16
6.350000E+03	9.763038E-15	1.723189E-16
6.360000E+03	9.787995E-15	1.730507E-16
6.370000E+03	9.817656E-15	1.738722E-16
6.380000E+03	9.852148E-15	1.747856E-16
6.390000E+03	9.891493E-15	1.757916E-16
6.400000E+03	9.935601E-15	1.768889E-16
6.410000E+03	9.984567E-15	1.780794E-16
6.420000E+03	1.003795E-14	1.793553E-16
6.430000E+03	1.009564E-14	1.807151E-16
6.440000E+03	1.015715E-14	1.821501E-16
6.450000E+03	1.022191E-14	1.836503E-16
6.460000E+03	1.028940E-14	1.852065E-16
6.470000E+03	1.035890E-14	1.868057E-16
6.480000E+03	1.042979E-14	1.884367E-16
6.490000E+03	1.050090E-14	1.900783E-16
6.500000E+03	1.057171E-14	1.917208E-16
6.510000E+03	1.064130E-14	1.933475E-16
6.520000E+03	1.070863E-14	1.949389E-16
6.530000E+03	1.077299E-14	1.964816E-16
6.540000E+03	1.083351E-14	1.979592E-16
6.550000E+03	1.088936E-14	1.993561E-16
6.560000E+03	1.093978E-14	2.006575E-16
6.570000E+03	1.098424E-14	2.018528E-16
6.580000E+03	1.102195E-14	2.029269E-16
6.590000E+03	1.105238E-14	2.038689E-16
6.600000E+03	1.107529E-14	2.046734E-16
6.610000E+03	1.109034E-14	2.053336E-16
6.620000E+03	1.109719E-14	2.058417E-16
6.630000E+03	1.109594E-14	2.061986E-16
6.640000E+03	1.108646E-14	2.064012E-16
6.650000E+03	1.106930E-14	2.064584E-16
6.660000E+03	1.104435E-14	2.063677E-16
6.670000E+03	1.101200E-14	2.061350E-16
6.680000E+03	1.097290E-14	2.057719E-16
6.690000E+03	1.092759E-14	2.052877E-16
6.700000E+03	1.087649E-14	2.046896E-16
6.710000E+03	1.082023E-14	2.039888E-16
6.720000E+03	1.075967E-14	2.032010E-16
6.730000E+03	1.069532E-14	2.023355E-16
6.740000E+03	1.062803E-14	2.014080E-16
6.750000E+03	1.055813E-14	2.004242E-16
6.760000E+03	1.048664E-14	1.994035E-16
6.770000E+03	1.041380E-14	1.983502E-16
6.780000E+03	1.034060E-14	1.972832E-16
6.790000E+03	1.026722E-14	1.962057E-16
6.800000E+03	1.019433E-14	1.951308E-16
6.810000E+03	1.012240E-14	1.940674E-16
6.820000E+03	1.005166E-14	1.930200E-16
6.830000E+03	9.982637E-15	1.919992E-16
6.840000E+03	9.915451E-15	1.910072E-16
6.850000E+03	9.850531E-15	1.900528E-16
6.860000E+03	9.787709E-15	1.891328E-16
6.870000E+03	9.727495E-15	1.882575E-16
6.880000E+03	9.669806E-15	1.874255E-16
6.890000E+03	9.614694E-15	1.866381E-16
6.900000E+03	9.561986E-15	1.858924E-16
6.910000E+03	9.512014E-15	1.851950E-16
6.920000E+03	9.464166E-15	1.845344E-16
6.930000E+03	9.418880E-15	1.839195E-16
6.940000E+03	9.375661E-15	1.833408E-16
6.950000E+03	9.334342E-15	1.827954E-16
6.960000E+03	9.294914E-15	1.822834E-16
6.970000E+03	9.256980E-15	1.817973E-16
6.980000E+03	9.220309E-15	1.813328E-16
6.990000E+03	9.184649E-15	1.808852E-16
7.000000E+03	9.149738E-15	1.804495E-16
7.010000E+03	9.115303E-15	1.800206E-16
7.020000E+03	9.080885E-15	1.795895E-16
7.030000E+03	9.046563E-15	1.791580E-16
7.040000E+03	9.011522E-15	1.787101E-16
7.050000E+03	8.976026E-15	1.782511E-16
7.060000E+03	8.939279E-15	1.777654E-16
7.070000E+03	8.901390E-15	1.772551E-16
7.080000E+03	8.861952E-15	1.767123E-16
7.090000E+03	8.820765E-15	1.761329E-16
7.100000E+03	8.777828E-15	1.755171E-16
7.110000E+03	8.732645E-15	1.748549E-16
7.120000E+03	8.685287E-15	1.741477E-16
7.130000E+03	8.635510E-15	1.733906E-16
7.140000E+03	8.583462E-15	1.725867E-16
7.150000E+03	8.529155E-15	1.717361E-16
7.160000E+03	8.472471E-15	1.708365E-16
7.170000E+03	8.413676E-15	1.698931E-16
7.180000E+03	8.352556E-15	1.689018E-16
7.190000E+03	8.289614E-15	1.678725E-16
7.200000E+03	8.224862E-15	1.668057E-16
7.210000E+03	8.158340E-15	1.657021E-16
7.220000E+03	8.090436E-15	1.645696E-16
7.230000E+03	8.021375E-15	1.634129E-16
7.240000E+03	7.951222E-15	1.622332E-16
7.250000E+03	7.880205E-15	1.610354E-16
7.260000E+03	7.808543E-15	1.598239E-16
7.270000E+03	7.736446E-15	1.586032E-16
7.280000E+03	7.664112E-15	1.573774E-16
7.290000E+03	7.591406E-15	1.561438E-16
7.300000E+03	7.518815E-15	1.549125E-16
7.310000E+03	7.446340E-15	1.536837E-16
7.320000E+03	7.373968E-15	1.524573E-16
7.330000E+03	7.301985E-15	1.512392E-16
7.340000E+03	7.230213E-15	1.500260E-16
7.350000E+03	7.158769E-15	1.488200E-16
7.360000E+03	7.087767E-15	1.476240E-16
7.370000E+03	7.017165E-15	1.464370E-16
7.380000E+03	6.947216E-15	1.452645E-16
7.390000E+03	6.877581E-15	1.440996E-16
7.400000E+03	6.808648E-15	1.429504E-16
7.410000E+03	6.740223E-15	1.418131E-16
7.420000E+03	6.672540E-15	1.406926E-16
7.430000E+03	6.605539E-15	1.395878E-16
7.440000E+03	6.539300E-15	1.385005E-16
7.450000E+03	6.474031E-15	1.374353E-16
7.460000E+03	6.409658E-15	1.363908E-16
7.470000E+03	6.346648E-15	1.353769E-16
7.480000E+03	6.284768E-15	1.343891E-16
7.490000E+03	6.224325E-15	1.334340E-16
7.500000E+03	6.165212E-15	1.325094E-16
7.510000E+03	6.107844E-15	1.316247E-16
7.520000E+03	6.052093E-15	1.307773E-16
7.530000E+03	5.997959E-15	1.299674E-16
7.540000E+03	5.945561E-15	1.291979E-16
7.550000E+03	5.894882E-15	1.284687E-16
7.560000E+03	5.846157E-15	1.277853E-16
7.570000E+03	5.799094E-15	1.271416E-16
7.580000E+03	5.753783E-15	1.265399E-16
7.590000E+03	5.710308E-15	1.259823E-16
7.600000E+03	5.668491E-15	1.254654E-16
7.610000E+03	5.628402E-15	1.249908E-16
7.620000E+03	5.589851E-15	1.245546E-16
7.630000E+03	5.553015E-15	1.241607E-16
7.640000E+03	5.517560E-15	1.238016E-16
7.650000E+03	5.483642E-15	1.234808E-16
7.660000E+03	5.450909E-15	1.231903E-16
7.670000E+03	5.419494E-15	1.229333E-16
7.680000E+03	5.389030E-15	1.227014E-16
7.690000E+03	5.359640E-15	1.224972E-16
7.700000E+03	5.331084E-15	1.223154E-16
7.710000E+03	5.303257E-15	1.221533E-16
7.720000E+03	5.276189E-15	1.220116E-16
7.730000E+03	5.250056E-15	1.218943E-16
7.740000E+03	5.225043E-15	1.218057E-16
7.750000E+03	5.201206E-15	1.217472E-16
7.760000E+03	5.178951E-15	1.217283E-16
