#wls	flux	fluxerr
1.600000E+03	8.880752E-15	5.499758E-16
1.640000E+03	9.042472E-15	5.251963E-16
1.680000E+03	9.195869E-15	4.988739E-16
1.720000E+03	9.339999E-15	4.711656E-16
1.760000E+03	9.471529E-15	4.421550E-16
1.800000E+03	9.587944E-15	4.120392E-16
1.840000E+03	9.687678E-15	3.811241E-16
1.880000E+03	9.767290E-15	3.497137E-16
1.920000E+03	9.826130E-15	3.183033E-16
1.960000E+03	9.863388E-15	2.874594E-16
2.000000E+03	9.884798E-15	2.580135E-16
2.040000E+03	9.899826E-15	2.309210E-16
2.080000E+03	9.927801E-15	2.073665E-16
2.120000E+03	9.984585E-15	1.884176E-16
2.160000E+03	1.006532E-14	1.745644E-16
2.200000E+03	1.016077E-14	1.654962E-16
2.240000E+03	1.027993E-14	1.608924E-16
2.280000E+03	1.043677E-14	1.603771E-16
2.320000E+03	1.062491E-14	1.629881E-16
2.360000E+03	1.082169E-14	1.671772E-16
2.400000E+03	1.100843E-14	1.716483E-16
2.440000E+03	1.117462E-14	1.755533E-16
2.480000E+03	1.131812E-14	1.785300E-16
2.520000E+03	1.144825E-14	1.807563E-16
2.560000E+03	1.159083E-14	1.830127E-16
2.600000E+03	1.179504E-14	1.867591E-16
2.640000E+03	1.212406E-14	1.939618E-16
2.680000E+03	1.257004E-14	2.056999E-16
2.720000E+03	1.307087E-14	2.216540E-16
2.760000E+03	1.357539E-14	2.403715E-16
2.800000E+03	1.404960E-14	2.602959E-16
2.840000E+03	1.447215E-14	2.799605E-16
2.880000E+03	1.482790E-14	2.980098E-16
2.920000E+03	1.510974E-14	3.133336E-16
2.960000E+03	1.531560E-14	3.250785E-16
3.000000E+03	1.544704E-14	3.326572E-16
3.010000E+03	1.546818E-14	3.338456E-16
3.020000E+03	1.548465E-14	3.347414E-16
3.030000E+03	1.549669E-14	3.353469E-16
3.040000E+03	1.550413E-14	3.356550E-16
3.050000E+03	1.550681E-14	3.356603E-16
3.060000E+03	1.550531E-14	3.353746E-16
3.070000E+03	1.549868E-14	3.347769E-16
3.080000E+03	1.548753E-14	3.338809E-16
3.090000E+03	1.547164E-14	3.326833E-16
3.100000E+03	1.545122E-14	3.311912E-16
3.110000E+03	1.542606E-14	3.294030E-16
3.120000E+03	1.539633E-14	3.273266E-16
3.130000E+03	1.536184E-14	3.249632E-16
3.140000E+03	1.532243E-14	3.223147E-16
3.150000E+03	1.527824E-14	3.193916E-16
3.160000E+03	1.522946E-14	3.162051E-16
3.170000E+03	1.517591E-14	3.127604E-16
3.180000E+03	1.511745E-14	3.090644E-16
3.190000E+03	1.505426E-14	3.051312E-16
3.200000E+03	1.498655E-14	3.009766E-16
3.210000E+03	1.491422E-14	2.966109E-16
3.220000E+03	1.483721E-14	2.920464E-16
3.230000E+03	1.475549E-14	2.872970E-16
3.240000E+03	1.466965E-14	2.823895E-16
3.250000E+03	1.457972E-14	2.773404E-16
3.260000E+03	1.448581E-14	2.721685E-16
3.270000E+03	1.438807E-14	2.668945E-16
3.280000E+03	1.428695E-14	2.615457E-16
3.290000E+03	1.418250E-14	2.561418E-16
3.300000E+03	1.407578E-14	2.507220E-16
3.310000E+03	1.396672E-14	2.453056E-16
3.320000E+03	1.385584E-14	2.399224E-16
3.330000E+03	1.374416E-14	2.346115E-16
3.340000E+03	1.363209E-14	2.294018E-16
3.350000E+03	1.352042E-14	2.243281E-16
3.360000E+03	1.340999E-14	2.194264E-16
3.370000E+03	1.330179E-14	2.147349E-16
3.380000E+03	1.319694E-14	2.102933E-16
3.390000E+03	1.309653E-14	2.061405E-16
3.400000E+03	1.300238E-14	2.023261E-16
3.410000E+03	1.291557E-14	1.988872E-16
3.420000E+03	1.283798E-14	1.958723E-16
3.430000E+03	1.277176E-14	1.933336E-16
3.440000E+03	1.271876E-14	1.913170E-16
3.450000E+03	1.268082E-14	1.898682E-16
3.460000E+03	1.266013E-14	1.890374E-16
3.470000E+03	1.265786E-14	1.888591E-16
3.480000E+03	1.267290E-14	1.893254E-16
3.490000E+03	1.269927E-14	1.903333E-16
3.500000E+03	1.273031E-14	1.917649E-16
3.510000E+03	1.276208E-14	1.935388E-16
3.520000E+03	1.279279E-14	1.956032E-16
3.530000E+03	1.282130E-14	1.979141E-16
3.540000E+03	1.284753E-14	2.004424E-16
3.550000E+03	1.287168E-14	2.031627E-16
3.560000E+03	1.289486E-14	2.060641E-16
3.570000E+03	1.291829E-14	2.091389E-16
3.580000E+03	1.294324E-14	2.123819E-16
3.590000E+03	1.297146E-14	2.157980E-16
3.600000E+03	1.300444E-14	2.193904E-16
3.610000E+03	1.304355E-14	2.231629E-16
3.620000E+03	1.309039E-14	2.271263E-16
3.630000E+03	1.314633E-14	2.312898E-16
3.640000E+03	1.321276E-14	2.356652E-16
3.650000E+03	1.329031E-14	2.402537E-16
3.660000E+03	1.337974E-14	2.450592E-16
3.670000E+03	1.348125E-14	2.500777E-16
3.680000E+03	1.359504E-14	2.553054E-16
3.690000E+03	1.372029E-14	2.607195E-16
3.700000E+03	1.385655E-14	2.663041E-16
3.710000E+03	1.400238E-14	2.720235E-16
3.720000E+03	1.415642E-14	2.778424E-16
3.730000E+03	1.431708E-14	2.837203E-16
3.740000E+03	1.448254E-14	2.896104E-16
3.750000E+03	1.465092E-14	2.954639E-16
3.760000E+03	1.482066E-14	3.012369E-16
3.770000E+03	1.498991E-14	3.068796E-16
3.780000E+03	1.515753E-14	3.123552E-16
3.790000E+03	1.532191E-14	3.176180E-16
3.800000E+03	1.548233E-14	3.226395E-16
3.810000E+03	1.563772E-14	3.273855E-16
3.820000E+03	1.578762E-14	3.318337E-16
3.830000E+03	1.593155E-14	3.359630E-16
3.840000E+03	1.606890E-14	3.397499E-16
3.850000E+03	1.619967E-14	3.431849E-16
3.860000E+03	1.632349E-14	3.462513E-16
3.870000E+03	1.644005E-14	3.489348E-16
3.880000E+03	1.654925E-14	3.512267E-16
3.890000E+03	1.665060E-14	3.531110E-16
3.900000E+03	1.674409E-14	3.545832E-16
3.910000E+03	1.682916E-14	3.556282E-16
3.920000E+03	1.690561E-14	3.562398E-16
3.930000E+03	1.697295E-14	3.564074E-16
3.940000E+03	1.703068E-14	3.561212E-16
3.950000E+03	1.707859E-14	3.553791E-16
3.960000E+03	1.711610E-14	3.541730E-16
3.970000E+03	1.714310E-14	3.525062E-16
3.980000E+03	1.715927E-14	3.503794E-16
3.990000E+03	1.716442E-14	3.477973E-16
4.000000E+03	1.715860E-14	3.447714E-16
4.010000E+03	1.714195E-14	3.413164E-16
4.020000E+03	1.711446E-14	3.374458E-16
4.030000E+03	1.707647E-14	3.331815E-16
4.040000E+03	1.702843E-14	3.285483E-16
4.050000E+03	1.697068E-14	3.235708E-16
4.060000E+03	1.690349E-14	3.182731E-16
4.070000E+03	1.682752E-14	3.126884E-16
4.080000E+03	1.674322E-14	3.068461E-16
4.090000E+03	1.665099E-14	3.007766E-16
4.100000E+03	1.655121E-14	2.945106E-16
4.110000E+03	1.644432E-14	2.880811E-16
4.120000E+03	1.633074E-14	2.815221E-16
4.130000E+03	1.621130E-14	2.748750E-16
4.140000E+03	1.608655E-14	2.681778E-16
4.150000E+03	1.595738E-14	2.614748E-16
4.160000E+03	1.582493E-14	2.548143E-16
4.170000E+03	1.569075E-14	2.482520E-16
4.180000E+03	1.555628E-14	2.418413E-16
4.190000E+03	1.542325E-14	2.356402E-16
4.200000E+03	1.529337E-14	2.297055E-16
4.210000E+03	1.516834E-14	2.240938E-16
4.220000E+03	1.504958E-14	2.188575E-16
4.230000E+03	1.493846E-14	2.140481E-16
4.240000E+03	1.483572E-14	2.097084E-16
4.250000E+03	1.474193E-14	2.058786E-16
4.260000E+03	1.465692E-14	2.025896E-16
4.270000E+03	1.458029E-14	1.998685E-16
4.280000E+03	1.451119E-14	1.977359E-16
4.290000E+03	1.444834E-14	1.962044E-16
4.300000E+03	1.439045E-14	1.952724E-16
4.310000E+03	1.433654E-14	1.949247E-16
4.320000E+03	1.428620E-14	1.951487E-16
4.330000E+03	1.424013E-14	1.959436E-16
4.340000E+03	1.419931E-14	1.973094E-16
4.350000E+03	1.416431E-14	1.992348E-16
4.360000E+03	1.413570E-14	2.016943E-16
4.370000E+03	1.411306E-14	2.046452E-16
4.380000E+03	1.409499E-14	2.080307E-16
4.390000E+03	1.407983E-14	2.117884E-16
4.400000E+03	1.406595E-14	2.158567E-16
4.410000E+03	1.405200E-14	2.201769E-16
4.420000E+03	1.403724E-14	2.247006E-16
4.430000E+03	1.402106E-14	2.293818E-16
4.440000E+03	1.400344E-14	2.341860E-16
4.450000E+03	1.398472E-14	2.390866E-16
4.460000E+03	1.396528E-14	2.440608E-16
4.470000E+03	1.394559E-14	2.490892E-16
4.480000E+03	1.392613E-14	2.541566E-16
4.490000E+03	1.390718E-14	2.592458E-16
4.500000E+03	1.388884E-14	2.643389E-16
4.510000E+03	1.387137E-14	2.694233E-16
4.520000E+03	1.385460E-14	2.744791E-16
4.530000E+03	1.383831E-14	2.794873E-16
4.540000E+03	1.382223E-14	2.844285E-16
4.550000E+03	1.380606E-14	2.892837E-16
4.560000E+03	1.378962E-14	2.940370E-16
4.570000E+03	1.377268E-14	2.986721E-16
4.580000E+03	1.375506E-14	3.031744E-16
4.590000E+03	1.373670E-14	3.075330E-16
4.600000E+03	1.371776E-14	3.117425E-16
4.610000E+03	1.369839E-14	3.157980E-16
4.620000E+03	1.367876E-14	3.196966E-16
4.630000E+03	1.365939E-14	3.234437E-16
4.640000E+03	1.364076E-14	3.270456E-16
4.650000E+03	1.362345E-14	3.305119E-16
4.660000E+03	1.360789E-14	3.338494E-16
4.670000E+03	1.359488E-14	3.370750E-16
4.680000E+03	1.358490E-14	3.401988E-16
4.690000E+03	1.357881E-14	3.432405E-16
4.700000E+03	1.357740E-14	3.462200E-16
4.710000E+03	1.358122E-14	3.491505E-16
4.720000E+03	1.359106E-14	3.520527E-16
4.730000E+03	1.360750E-14	3.549419E-16
4.740000E+03	1.363100E-14	3.578300E-16
4.750000E+03	1.366182E-14	3.607243E-16
4.760000E+03	1.370007E-14	3.636272E-16
4.770000E+03	1.374536E-14	3.665278E-16
4.780000E+03	1.379731E-14	3.694148E-16
4.790000E+03	1.385529E-14	3.722695E-16
4.800000E+03	1.391827E-14	3.750615E-16
4.810000E+03	1.398495E-14	3.777536E-16
4.820000E+03	1.405393E-14	3.803039E-16
4.830000E+03	1.412331E-14	3.826575E-16
4.840000E+03	1.419127E-14	3.847613E-16
4.850000E+03	1.425572E-14	3.865547E-16
4.860000E+03	1.431437E-14	3.879731E-16
4.870000E+03	1.436526E-14	3.889599E-16
4.880000E+03	1.440635E-14	3.894588E-16
4.890000E+03	1.443586E-14	3.894216E-16
4.900000E+03	1.445230E-14	3.888089E-16
4.910000E+03	1.445440E-14	3.875894E-16
4.920000E+03	1.444171E-14	3.857557E-16
4.930000E+03	1.441370E-14	3.833000E-16
4.940000E+03	1.437073E-14	3.802396E-16
4.950000E+03	1.431342E-14	3.765999E-16
4.960000E+03	1.424270E-14	3.724159E-16
4.970000E+03	1.416003E-14	3.677373E-16
4.980000E+03	1.406704E-14	3.626174E-16
4.990000E+03	1.396544E-14	3.571126E-16
5.000000E+03	1.385676E-14	3.512737E-16
5.010000E+03	1.374314E-14	3.451663E-16
5.020000E+03	1.362582E-14	3.388324E-16
5.030000E+03	1.350658E-14	3.323262E-16
5.040000E+03	1.338674E-14	3.256898E-16
5.050000E+03	1.326719E-14	3.189536E-16
5.060000E+03	1.314910E-14	3.121532E-16
5.070000E+03	1.303344E-14	3.053189E-16
5.080000E+03	1.292072E-14	2.984692E-16
5.090000E+03	1.281173E-14	2.916280E-16
5.100000E+03	1.270709E-14	2.848145E-16
5.110000E+03	1.260736E-14	2.780457E-16
5.120000E+03	1.251291E-14	2.713337E-16
5.130000E+03	1.242419E-14	2.646918E-16
5.140000E+03	1.234170E-14	2.581335E-16
5.150000E+03	1.226559E-14	2.516649E-16
5.160000E+03	1.219601E-14	2.452919E-16
5.170000E+03	1.213302E-14	2.390184E-16
5.180000E+03	1.207653E-14	2.328462E-16
5.190000E+03	1.202621E-14	2.267729E-16
5.200000E+03	1.198187E-14	2.208003E-16
5.210000E+03	1.194312E-14	2.149275E-16
5.220000E+03	1.190939E-14	2.091523E-16
5.230000E+03	1.188020E-14	2.034766E-16
5.240000E+03	1.185519E-14	1.979063E-16
5.250000E+03	1.183375E-14	1.924457E-16
5.260000E+03	1.181531E-14	1.871029E-16
5.270000E+03	1.179951E-14	1.818924E-16
5.280000E+03	1.178591E-14	1.768308E-16
5.290000E+03	1.177403E-14	1.719370E-16
5.300000E+03	1.176326E-14	1.672319E-16
5.310000E+03	1.175306E-14	1.627412E-16
5.320000E+03	1.174282E-14	1.584929E-16
5.330000E+03	1.173185E-14	1.545175E-16
5.340000E+03	1.171942E-14	1.508479E-16
5.350000E+03	1.170456E-14	1.475160E-16
5.360000E+03	1.168654E-14	1.445575E-16
5.370000E+03	1.166430E-14	1.420036E-16
5.380000E+03	1.163692E-14	1.398847E-16
5.390000E+03	1.160340E-14	1.382258E-16
5.400000E+03	1.156313E-14	1.370490E-16
5.410000E+03	1.151562E-14	1.363563E-16
5.420000E+03	1.146109E-14	1.361311E-16
5.430000E+03	1.140095E-14	1.363583E-16
5.440000E+03	1.133803E-14	1.370255E-16
5.450000E+03	1.127447E-14	1.381080E-16
5.460000E+03	1.121199E-14	1.395751E-16
5.470000E+03	1.115153E-14	1.413875E-16
5.480000E+03	1.109410E-14	1.435091E-16
5.490000E+03	1.104014E-14	1.459004E-16
5.500000E+03	1.099014E-14	1.485260E-16
5.510000E+03	1.094433E-14	1.513512E-16
5.520000E+03	1.090264E-14	1.543412E-16
5.530000E+03	1.086516E-14	1.574671E-16
5.540000E+03	1.083152E-14	1.606972E-16
5.550000E+03	1.080127E-14	1.640007E-16
5.560000E+03	1.077398E-14	1.673499E-16
5.570000E+03	1.074933E-14	1.707208E-16
5.580000E+03	1.072678E-14	1.740877E-16
5.590000E+03	1.070596E-14	1.774292E-16
5.600000E+03	1.068658E-14	1.807266E-16
5.610000E+03	1.066847E-14	1.839644E-16
5.620000E+03	1.065160E-14	1.871308E-16
5.630000E+03	1.063604E-14	1.902171E-16
5.640000E+03	1.062190E-14	1.932167E-16
5.650000E+03	1.060961E-14	1.961300E-16
5.660000E+03	1.059950E-14	1.989566E-16
5.670000E+03	1.059218E-14	2.017028E-16
5.680000E+03	1.058809E-14	2.043728E-16
5.690000E+03	1.058784E-14	2.069749E-16
5.700000E+03	1.059212E-14	2.095200E-16
5.710000E+03	1.060140E-14	2.120154E-16
5.720000E+03	1.061636E-14	2.144729E-16
5.730000E+03	1.063738E-14	2.168993E-16
5.740000E+03	1.066489E-14	2.193018E-16
5.750000E+03	1.069922E-14	2.216862E-16
5.760000E+03	1.074087E-14	2.240611E-16
5.770000E+03	1.078959E-14	2.264200E-16
5.780000E+03	1.084570E-14	2.287672E-16
5.790000E+03	1.090865E-14	2.310888E-16
5.800000E+03	1.097845E-14	2.333816E-16
5.810000E+03	1.105442E-14	2.356276E-16
5.820000E+03	1.113569E-14	2.378041E-16
5.830000E+03	1.122153E-14	2.398907E-16
5.840000E+03	1.131065E-14	2.418550E-16
5.850000E+03	1.140183E-14	2.436655E-16
5.860000E+03	1.149323E-14	2.452780E-16
5.870000E+03	1.158350E-14	2.466588E-16
5.880000E+03	1.167055E-14	2.477590E-16
5.890000E+03	1.175268E-14	2.485393E-16
5.900000E+03	1.182768E-14	2.489506E-16
5.910000E+03	1.189390E-14	2.489578E-16
5.920000E+03	1.194959E-14	2.485253E-16
5.930000E+03	1.199321E-14	2.476244E-16
5.940000E+03	1.202341E-14	2.462326E-16
5.950000E+03	1.203962E-14	2.443460E-16
5.960000E+03	1.204149E-14	2.419667E-16
5.970000E+03	1.202894E-14	2.391051E-16
5.980000E+03	1.200287E-14	2.357924E-16
5.990000E+03	1.196422E-14	2.320612E-16
6.000000E+03	1.191460E-14	2.279583E-16
6.010000E+03	1.185605E-14	2.235382E-16
6.020000E+03	1.179060E-14	2.188540E-16
6.030000E+03	1.172079E-14	2.139675E-16
6.040000E+03	1.164929E-14	2.089403E-16
6.050000E+03	1.157883E-14	2.038331E-16
6.060000E+03	1.151187E-14	1.986986E-16
6.070000E+03	1.145111E-14	1.935914E-16
6.080000E+03	1.139928E-14	1.885631E-16
6.090000E+03	1.135854E-14	1.836533E-16
6.100000E+03	1.133138E-14	1.789038E-16
6.110000E+03	1.131959E-14	1.743438E-16
6.120000E+03	1.132536E-14	1.700068E-16
6.130000E+03	1.135003E-14	1.659128E-16
6.140000E+03	1.139477E-14	1.620797E-16
6.150000E+03	1.146065E-14	1.585259E-16
6.160000E+03	1.154781E-14	1.552603E-16
6.170000E+03	1.165575E-14	1.522885E-16
6.180000E+03	1.178368E-14	1.496200E-16
6.190000E+03	1.192948E-14	1.472573E-16
6.200000E+03	1.208969E-14	1.451990E-16
6.210000E+03	1.225973E-14	1.434446E-16
6.220000E+03	1.243286E-14	1.419850E-16
6.230000E+03	1.260123E-14	1.408142E-16
6.240000E+03	1.275515E-14	1.399197E-16
6.250000E+03	1.288366E-14	1.392844E-16
6.260000E+03	1.297564E-14	1.388907E-16
6.270000E+03	1.302104E-14	1.387226E-16
6.280000E+03	1.301478E-14	1.387957E-16
6.290000E+03	1.296122E-14	1.391896E-16
6.300000E+03	1.287009E-14	1.399744E-16
6.310000E+03	1.275237E-14	1.411968E-16
6.320000E+03	1.262000E-14	1.429032E-16
6.330000E+03	1.248303E-14	1.451185E-16
6.340000E+03	1.235081E-14	1.478682E-16
6.350000E+03	1.223050E-14	1.511659E-16
6.360000E+03	1.212782E-14	1.550242E-16
6.370000E+03	1.204721E-14	1.594567E-16
6.380000E+03	1.199177E-14	1.644764E-16
6.390000E+03	1.196316E-14	1.700912E-16
6.400000E+03	1.196252E-14	1.763132E-16
6.410000E+03	1.199003E-14	1.831500E-16
6.420000E+03	1.204508E-14	1.906037E-16
6.430000E+03	1.212653E-14	1.986718E-16
6.440000E+03	1.223312E-14	2.073519E-16
6.450000E+03	1.236264E-14	2.166250E-16
6.460000E+03	1.251283E-14	2.264695E-16
6.470000E+03	1.268110E-14	2.368540E-16
6.480000E+03	1.286429E-14	2.477319E-16
6.490000E+03	1.305922E-14	2.590494E-16
6.500000E+03	1.326238E-14	2.707400E-16
6.510000E+03	1.346967E-14	2.827170E-16
6.520000E+03	1.367747E-14	2.948951E-16
6.530000E+03	1.388189E-14	3.071746E-16
6.540000E+03	1.407898E-14	3.194473E-16
6.550000E+03	1.426446E-14	3.315877E-16
6.560000E+03	1.443479E-14	3.434802E-16
6.570000E+03	1.458651E-14	3.550031E-16
6.580000E+03	1.471619E-14	3.660297E-16
6.590000E+03	1.482108E-14	3.764444E-16
6.600000E+03	1.489916E-14	3.861465E-16
6.610000E+03	1.494857E-14	3.950363E-16
6.620000E+03	1.496830E-14	4.030354E-16
6.630000E+03	1.495802E-14	4.100843E-16
6.640000E+03	1.491802E-14	4.161421E-16
6.650000E+03	1.484926E-14	4.211892E-16
6.660000E+03	1.475291E-14	4.252166E-16
6.670000E+03	1.463116E-14	4.282495E-16
6.680000E+03	1.448629E-14	4.303214E-16
6.690000E+03	1.432090E-14	4.314815E-16
6.700000E+03	1.413749E-14	4.317826E-16
6.710000E+03	1.393941E-14	4.313091E-16
6.720000E+03	1.372909E-14	4.301239E-16
6.730000E+03	1.350936E-14	4.283072E-16
6.740000E+03	1.328341E-14	4.259564E-16
6.750000E+03	1.305336E-14	4.231395E-16
6.760000E+03	1.282183E-14	4.199448E-16
6.770000E+03	1.259078E-14	4.164425E-16
6.780000E+03	1.236261E-14	4.127200E-16
6.790000E+03	1.213862E-14	4.088317E-16
6.800000E+03	1.192053E-14	4.048467E-16
6.810000E+03	1.170965E-14	4.008223E-16
6.820000E+03	1.150706E-14	3.968084E-16
6.830000E+03	1.131362E-14	3.928487E-16
6.840000E+03	1.113003E-14	3.889807E-16
6.850000E+03	1.095659E-14	3.852285E-16
6.860000E+03	1.079404E-14	3.816309E-16
6.870000E+03	1.064220E-14	3.781936E-16
6.880000E+03	1.050150E-14	3.749437E-16
6.890000E+03	1.037170E-14	3.718833E-16
6.900000E+03	1.025245E-14	3.690093E-16
6.910000E+03	1.014386E-14	3.663350E-16
6.920000E+03	1.004541E-14	3.638490E-16
6.930000E+03	9.956682E-15	3.615434E-16
6.940000E+03	9.877200E-15	3.594066E-16
6.950000E+03	9.806605E-15	3.574307E-16
6.960000E+03	9.743941E-15	3.555850E-16
6.970000E+03	9.688937E-15	3.538630E-16
6.980000E+03	9.640733E-15	3.522360E-16
6.990000E+03	9.598615E-15	3.506799E-16
7.000000E+03	9.561838E-15	3.491690E-16
7.010000E+03	9.529817E-15	3.476831E-16
7.020000E+03	9.501579E-15	3.461873E-16
7.030000E+03	9.476327E-15	3.446530E-16
7.040000E+03	9.453438E-15	3.430582E-16
7.050000E+03	9.431927E-15	3.413675E-16
7.060000E+03	9.411195E-15	3.395595E-16
7.070000E+03	9.390294E-15	3.376011E-16
7.080000E+03	9.368506E-15	3.354673E-16
7.090000E+03	9.345346E-15	3.331423E-16
7.100000E+03	9.320221E-15	3.306070E-16
7.110000E+03	9.292430E-15	3.278390E-16
7.120000E+03	9.261933E-15	3.248399E-16
7.130000E+03	9.227870E-15	3.215832E-16
7.140000E+03	9.190623E-15	3.180863E-16
7.150000E+03	9.149759E-15	3.143390E-16
7.160000E+03	9.105536E-15	3.103550E-16
7.170000E+03	9.058321E-15	3.061523E-16
7.180000E+03	9.008025E-15	3.017334E-16
7.190000E+03	8.955202E-15	2.971223E-16
7.200000E+03	8.900466E-15	2.923451E-16
7.210000E+03	8.843910E-15	2.874101E-16
7.220000E+03	8.786384E-15	2.823503E-16
7.230000E+03	8.728354E-15	2.771853E-16
7.240000E+03	8.670071E-15	2.719275E-16
7.250000E+03	8.611926E-15	2.665934E-16
7.260000E+03	8.554252E-15	2.611973E-16
7.270000E+03	8.497685E-15	2.557620E-16
7.280000E+03	8.441872E-15	2.502802E-16
7.290000E+03	8.387497E-15	2.447753E-16
7.300000E+03	8.334080E-15	2.392364E-16
7.310000E+03	8.282181E-15	2.336829E-16
7.320000E+03	8.231218E-15	2.281016E-16
7.330000E+03	8.181484E-15	2.225044E-16
7.340000E+03	8.132703E-15	2.168878E-16
7.350000E+03	8.084762E-15	2.112534E-16
7.360000E+03	8.037554E-15	2.056035E-16
7.370000E+03	7.990623E-15	1.999325E-16
7.380000E+03	7.944252E-15	1.942543E-16
7.390000E+03	7.897857E-15	1.885621E-16
7.400000E+03	7.851783E-15	1.828728E-16
7.410000E+03	7.805698E-15	1.771879E-16
7.420000E+03	7.759484E-15	1.715157E-16
7.430000E+03	7.713239E-15	1.658701E-16
7.440000E+03	7.667451E-15	1.602747E-16
7.450000E+03	7.622095E-15	1.547425E-16
7.460000E+03	7.577881E-15	1.493031E-16
7.470000E+03	7.534633E-15	1.439693E-16
7.480000E+03	7.492895E-15	1.387699E-16
7.490000E+03	7.453029E-15	1.337320E-16
7.500000E+03	7.415207E-15	1.288812E-16
7.510000E+03	7.379587E-15	1.242460E-16
7.520000E+03	7.346308E-15	1.198578E-16
7.530000E+03	7.315669E-15	1.157541E-16
7.540000E+03	7.287587E-15	1.119703E-16
7.550000E+03	7.262305E-15	1.085502E-16
7.560000E+03	7.239863E-15	1.055380E-16
7.570000E+03	7.220081E-15	1.029770E-16
7.580000E+03	7.202920E-15	1.009139E-16
7.590000E+03	7.188472E-15	9.939606E-17
7.600000E+03	7.176584E-15	9.846414E-17
7.610000E+03	7.166667E-15	9.814685E-17
7.620000E+03	7.158759E-15	9.847298E-17
7.630000E+03	7.152241E-15	9.944460E-17
7.640000E+03	7.146536E-15	1.010380E-16
7.650000E+03	7.140726E-15	1.032125E-16
7.660000E+03	7.134280E-15	1.059239E-16
7.670000E+03	7.125946E-15	1.091110E-16
7.680000E+03	7.114332E-15	1.127044E-16
7.690000E+03	7.098522E-15	1.166382E-16
7.700000E+03	7.076894E-15	1.208324E-16
7.710000E+03	7.048663E-15	1.252184E-16
7.720000E+03	7.013863E-15	1.297425E-16
7.730000E+03	6.973599E-15	1.343738E-16
7.740000E+03	6.929271E-15	1.390933E-16
7.750000E+03	6.882478E-15	1.438939E-16
7.760000E+03	6.834155E-15	1.487624E-16
