#wls	flux	fluxerr
1.600000E+03	8.859349E-15	5.515990E-16
1.640000E+03	9.015180E-15	5.265949E-16
1.680000E+03	9.163819E-15	5.001515E-16
1.720000E+03	9.301318E-15	4.722598E-16
1.760000E+03	9.426687E-15	4.431329E-16
1.800000E+03	9.537659E-15	4.129716E-16
1.840000E+03	9.631891E-15	3.820410E-16
1.880000E+03	9.707261E-15	3.506897E-16
1.920000E+03	9.761397E-15	3.193404E-16
1.960000E+03	9.795660E-15	2.886225E-16
2.000000E+03	9.814790E-15	2.593196E-16
2.040000E+03	9.828316E-15	2.323744E-16
2.080000E+03	9.852361E-15	2.088878E-16
2.120000E+03	9.902533E-15	1.899206E-16
2.160000E+03	9.975421E-15	1.759717E-16
2.200000E+03	1.006496E-14	1.667770E-16
2.240000E+03	1.017946E-14	1.620144E-16
2.280000E+03	1.033113E-14	1.613026E-16
2.320000E+03	1.051443E-14	1.637165E-16
2.360000E+03	1.070978E-14	1.677838E-16
2.400000E+03	1.089817E-14	1.722242E-16
2.440000E+03	1.107148E-14	1.762379E-16
2.480000E+03	1.122521E-14	1.794264E-16
2.520000E+03	1.136819E-14	1.819518E-16
2.560000E+03	1.152314E-14	1.845311E-16
2.600000E+03	1.173784E-14	1.885880E-16
2.640000E+03	1.206836E-14	1.959583E-16
2.680000E+03	1.250794E-14	2.076982E-16
2.720000E+03	1.299852E-14	2.235137E-16
2.760000E+03	1.349197E-14	2.419984E-16
2.800000E+03	1.395421E-14	2.616042E-16
2.840000E+03	1.436540E-14	2.809100E-16
2.880000E+03	1.471164E-14	2.986055E-16
2.920000E+03	1.498691E-14	3.136266E-16
2.960000E+03	1.518878E-14	3.251330E-16
3.000000E+03	1.531806E-14	3.325375E-16
3.010000E+03	1.533937E-14	3.337028E-16
3.020000E+03	1.535578E-14	3.345733E-16
3.030000E+03	1.536756E-14	3.351510E-16
3.040000E+03	1.537495E-14	3.354387E-16
3.050000E+03	1.537778E-14	3.354306E-16
3.060000E+03	1.537586E-14	3.351216E-16
3.070000E+03	1.536982E-14	3.345250E-16
3.080000E+03	1.535905E-14	3.336285E-16
3.090000E+03	1.534340E-14	3.324300E-16
3.100000E+03	1.532341E-14	3.309439E-16
3.110000E+03	1.529891E-14	3.291691E-16
3.120000E+03	1.527005E-14	3.271135E-16
3.130000E+03	1.523592E-14	3.247623E-16
3.140000E+03	1.519777E-14	3.221480E-16
3.150000E+03	1.515470E-14	3.192583E-16
3.160000E+03	1.510690E-14	3.161047E-16
3.170000E+03	1.505452E-14	3.126993E-16
3.180000E+03	1.499742E-14	3.090483E-16
3.190000E+03	1.493579E-14	3.051661E-16
3.200000E+03	1.486950E-14	3.010617E-16
3.210000E+03	1.479876E-14	2.967514E-16
3.220000E+03	1.472351E-14	2.922471E-16
3.230000E+03	1.464399E-14	2.875677E-16
3.240000E+03	1.456022E-14	2.827285E-16
3.250000E+03	1.447223E-14	2.777459E-16
3.260000E+03	1.438038E-14	2.726438E-16
3.270000E+03	1.428483E-14	2.674424E-16
3.280000E+03	1.418605E-14	2.621687E-16
3.290000E+03	1.408427E-14	2.568460E-16
3.300000E+03	1.397986E-14	2.515003E-16
3.310000E+03	1.387320E-14	2.461589E-16
3.320000E+03	1.376505E-14	2.408554E-16
3.330000E+03	1.365595E-14	2.356206E-16
3.340000E+03	1.354655E-14	2.304866E-16
3.350000E+03	1.343760E-14	2.254876E-16
3.360000E+03	1.332974E-14	2.206559E-16
3.370000E+03	1.322414E-14	2.160324E-16
3.380000E+03	1.312171E-14	2.116533E-16
3.390000E+03	1.302389E-14	2.075626E-16
3.400000E+03	1.293193E-14	2.038009E-16
3.410000E+03	1.284707E-14	2.004075E-16
3.420000E+03	1.277150E-14	1.974360E-16
3.430000E+03	1.270669E-14	1.949275E-16
3.440000E+03	1.265477E-14	1.929330E-16
3.450000E+03	1.261774E-14	1.915000E-16
3.460000E+03	1.259744E-14	1.906735E-16
3.470000E+03	1.259494E-14	1.904869E-16
3.480000E+03	1.260929E-14	1.909335E-16
3.490000E+03	1.263419E-14	1.919054E-16
3.500000E+03	1.266336E-14	1.932886E-16
3.510000E+03	1.269297E-14	1.950035E-16
3.520000E+03	1.272092E-14	1.969931E-16
3.530000E+03	1.274636E-14	1.992181E-16
3.540000E+03	1.276890E-14	2.016450E-16
3.550000E+03	1.278918E-14	2.042556E-16
3.560000E+03	1.280834E-14	2.070403E-16
3.570000E+03	1.282773E-14	2.099938E-16
3.580000E+03	1.284889E-14	2.131163E-16
3.590000E+03	1.287331E-14	2.164091E-16
3.600000E+03	1.290300E-14	2.198849E-16
3.610000E+03	1.293931E-14	2.235483E-16
3.620000E+03	1.298382E-14	2.274104E-16
3.630000E+03	1.303789E-14	2.314811E-16
3.640000E+03	1.310263E-14	2.357681E-16
3.650000E+03	1.317884E-14	2.402758E-16
3.660000E+03	1.326713E-14	2.450063E-16
3.670000E+03	1.336784E-14	2.499583E-16
3.680000E+03	1.348083E-14	2.551218E-16
3.690000E+03	1.360543E-14	2.604772E-16
3.700000E+03	1.374110E-14	2.660065E-16
3.710000E+03	1.388642E-14	2.716747E-16
3.720000E+03	1.404010E-14	2.774475E-16
3.730000E+03	1.420042E-14	2.832821E-16
3.740000E+03	1.436573E-14	2.891348E-16
3.750000E+03	1.453404E-14	2.949544E-16
3.760000E+03	1.470368E-14	3.006950E-16
3.770000E+03	1.487319E-14	3.063140E-16
3.780000E+03	1.504091E-14	3.117646E-16
3.790000E+03	1.520562E-14	3.170085E-16
3.800000E+03	1.536630E-14	3.220117E-16
3.810000E+03	1.552216E-14	3.267449E-16
3.820000E+03	1.567242E-14	3.311798E-16
3.830000E+03	1.581658E-14	3.352947E-16
3.840000E+03	1.595442E-14	3.390743E-16
3.850000E+03	1.608538E-14	3.424970E-16
3.860000E+03	1.620934E-14	3.455519E-16
3.870000E+03	1.632610E-14	3.482267E-16
3.880000E+03	1.643530E-14	3.505074E-16
3.890000E+03	1.653672E-14	3.523836E-16
3.900000E+03	1.663010E-14	3.538456E-16
3.910000E+03	1.671503E-14	3.548815E-16
3.920000E+03	1.679135E-14	3.554860E-16
3.930000E+03	1.685845E-14	3.556458E-16
3.940000E+03	1.691614E-14	3.553579E-16
3.950000E+03	1.696410E-14	3.546178E-16
3.960000E+03	1.700179E-14	3.534182E-16
3.970000E+03	1.702896E-14	3.517594E-16
3.980000E+03	1.704547E-14	3.496455E-16
3.990000E+03	1.705125E-14	3.470840E-16
4.000000E+03	1.704607E-14	3.440805E-16
4.010000E+03	1.703006E-14	3.406495E-16
4.020000E+03	1.700350E-14	3.368101E-16
4.030000E+03	1.696658E-14	3.325809E-16
4.040000E+03	1.691958E-14	3.279839E-16
4.050000E+03	1.686298E-14	3.230458E-16
4.060000E+03	1.679717E-14	3.177933E-16
4.070000E+03	1.672241E-14	3.122513E-16
4.080000E+03	1.663937E-14	3.064541E-16
4.090000E+03	1.654830E-14	3.004290E-16
4.100000E+03	1.644974E-14	2.942092E-16
4.110000E+03	1.634410E-14	2.878276E-16
4.120000E+03	1.623170E-14	2.813157E-16
4.130000E+03	1.611336E-14	2.747154E-16
4.140000E+03	1.598967E-14	2.680648E-16
4.150000E+03	1.586155E-14	2.614086E-16
4.160000E+03	1.573026E-14	2.547971E-16
4.170000E+03	1.559713E-14	2.482824E-16
4.180000E+03	1.546369E-14	2.419192E-16
4.190000E+03	1.533171E-14	2.357654E-16
4.200000E+03	1.520273E-14	2.298757E-16
4.210000E+03	1.507858E-14	2.243083E-16
4.220000E+03	1.496054E-14	2.191132E-16
4.230000E+03	1.484999E-14	2.143416E-16
4.240000E+03	1.474757E-14	2.100345E-16
4.250000E+03	1.465398E-14	2.062340E-16
4.260000E+03	1.456912E-14	2.029708E-16
4.270000E+03	1.449253E-14	2.002707E-16
4.280000E+03	1.442337E-14	1.981534E-16
4.290000E+03	1.436065E-14	1.966353E-16
4.300000E+03	1.430318E-14	1.957158E-16
4.310000E+03	1.424984E-14	1.953772E-16
4.320000E+03	1.420044E-14	1.956096E-16
4.330000E+03	1.415562E-14	1.964111E-16
4.340000E+03	1.411631E-14	1.977815E-16
4.350000E+03	1.408344E-14	1.997148E-16
4.360000E+03	1.405735E-14	2.021832E-16
4.370000E+03	1.403762E-14	2.051455E-16
4.380000E+03	1.402237E-14	2.085380E-16
4.390000E+03	1.400989E-14	2.122988E-16
4.400000E+03	1.399823E-14	2.163612E-16
4.410000E+03	1.398622E-14	2.206699E-16
4.420000E+03	1.397284E-14	2.251717E-16
4.430000E+03	1.395769E-14	2.298246E-16
4.440000E+03	1.394079E-14	2.345941E-16
4.450000E+03	1.392238E-14	2.394527E-16
4.460000E+03	1.390289E-14	2.443777E-16
4.470000E+03	1.388290E-14	2.493520E-16
4.480000E+03	1.386303E-14	2.543627E-16
4.490000E+03	1.384333E-14	2.593886E-16
4.500000E+03	1.382426E-14	2.644185E-16
4.510000E+03	1.380591E-14	2.694360E-16
4.520000E+03	1.378805E-14	2.744210E-16
4.530000E+03	1.377061E-14	2.793567E-16
4.540000E+03	1.375332E-14	2.842238E-16
4.550000E+03	1.373599E-14	2.890055E-16
4.560000E+03	1.371822E-14	2.936814E-16
4.570000E+03	1.369996E-14	2.982393E-16
4.580000E+03	1.368095E-14	3.026627E-16
4.590000E+03	1.366133E-14	3.069453E-16
4.600000E+03	1.364091E-14	3.110737E-16
4.610000E+03	1.362021E-14	3.150517E-16
4.620000E+03	1.359927E-14	3.188732E-16
4.630000E+03	1.357860E-14	3.225438E-16
4.640000E+03	1.355881E-14	3.260732E-16
4.650000E+03	1.354048E-14	3.294708E-16
4.660000E+03	1.352415E-14	3.327466E-16
4.670000E+03	1.351076E-14	3.359210E-16
4.680000E+03	1.350079E-14	3.390047E-16
4.690000E+03	1.349533E-14	3.420236E-16
4.700000E+03	1.349472E-14	3.449865E-16
4.710000E+03	1.349986E-14	3.479160E-16
4.720000E+03	1.351134E-14	3.508272E-16
4.730000E+03	1.352960E-14	3.537325E-16
4.740000E+03	1.355499E-14	3.566408E-16
4.750000E+03	1.358781E-14	3.595601E-16
4.760000E+03	1.362801E-14	3.624889E-16
4.770000E+03	1.367534E-14	3.654198E-16
4.780000E+03	1.372943E-14	3.683415E-16
4.790000E+03	1.378950E-14	3.712315E-16
4.800000E+03	1.385456E-14	3.740599E-16
4.810000E+03	1.392328E-14	3.767885E-16
4.820000E+03	1.399413E-14	3.793722E-16
4.830000E+03	1.406548E-14	3.817625E-16
4.840000E+03	1.413522E-14	3.838990E-16
4.850000E+03	1.420142E-14	3.857249E-16
4.860000E+03	1.426179E-14	3.871749E-16
4.870000E+03	1.431433E-14	3.881924E-16
4.880000E+03	1.435705E-14	3.887215E-16
4.890000E+03	1.438802E-14	3.887096E-16
4.900000E+03	1.440586E-14	3.881209E-16
4.910000E+03	1.440931E-14	3.869239E-16
4.920000E+03	1.439790E-14	3.851110E-16
4.930000E+03	1.437110E-14	3.826740E-16
4.940000E+03	1.432924E-14	3.796295E-16
4.950000E+03	1.427294E-14	3.760036E-16
4.960000E+03	1.420324E-14	3.718334E-16
4.970000E+03	1.412148E-14	3.671658E-16
4.980000E+03	1.402911E-14	3.620498E-16
4.990000E+03	1.392811E-14	3.565488E-16
5.000000E+03	1.382000E-14	3.507133E-16
5.010000E+03	1.370663E-14	3.446020E-16
5.020000E+03	1.358967E-14	3.382674E-16
5.030000E+03	1.347059E-14	3.317567E-16
5.040000E+03	1.335075E-14	3.251124E-16
5.050000E+03	1.323118E-14	3.183688E-16
5.060000E+03	1.311301E-14	3.115608E-16
5.070000E+03	1.299713E-14	3.047167E-16
5.080000E+03	1.288417E-14	2.978577E-16
5.090000E+03	1.277494E-14	2.910087E-16
5.100000E+03	1.266993E-14	2.841856E-16
5.110000E+03	1.256983E-14	2.774084E-16
5.120000E+03	1.247501E-14	2.706895E-16
5.130000E+03	1.238603E-14	2.640446E-16
5.140000E+03	1.230303E-14	2.574793E-16
5.150000E+03	1.222652E-14	2.510077E-16
5.160000E+03	1.215642E-14	2.446305E-16
5.170000E+03	1.209301E-14	2.383568E-16
5.180000E+03	1.203598E-14	2.321834E-16
5.190000E+03	1.198524E-14	2.261131E-16
5.200000E+03	1.194036E-14	2.201428E-16
5.210000E+03	1.190108E-14	2.142745E-16
5.220000E+03	1.186696E-14	2.085083E-16
5.230000E+03	1.183729E-14	2.028416E-16
5.240000E+03	1.181182E-14	1.972828E-16
5.250000E+03	1.178996E-14	1.918363E-16
5.260000E+03	1.177113E-14	1.865104E-16
5.270000E+03	1.175499E-14	1.813198E-16
5.280000E+03	1.174109E-14	1.762808E-16
5.290000E+03	1.172897E-14	1.714129E-16
5.300000E+03	1.171793E-14	1.667354E-16
5.310000E+03	1.170763E-14	1.622771E-16
5.320000E+03	1.169738E-14	1.580648E-16
5.330000E+03	1.168650E-14	1.541291E-16
5.340000E+03	1.167414E-14	1.505007E-16
5.350000E+03	1.165959E-14	1.472149E-16
5.360000E+03	1.164186E-14	1.443036E-16
5.370000E+03	1.162010E-14	1.418005E-16
5.380000E+03	1.159313E-14	1.397320E-16
5.390000E+03	1.156017E-14	1.381252E-16
5.400000E+03	1.152042E-14	1.369993E-16
5.410000E+03	1.147335E-14	1.363532E-16
5.420000E+03	1.141914E-14	1.361689E-16
5.430000E+03	1.135925E-14	1.364310E-16
5.440000E+03	1.129605E-14	1.371215E-16
5.450000E+03	1.123180E-14	1.382171E-16
5.460000E+03	1.116808E-14	1.396851E-16
5.470000E+03	1.110610E-14	1.414898E-16
5.480000E+03	1.104691E-14	1.435958E-16
5.490000E+03	1.099147E-14	1.459703E-16
5.500000E+03	1.094004E-14	1.485756E-16
5.510000E+03	1.089286E-14	1.513776E-16
5.520000E+03	1.085008E-14	1.543451E-16
5.530000E+03	1.081134E-14	1.574433E-16
5.540000E+03	1.077647E-14	1.606436E-16
5.550000E+03	1.074511E-14	1.639168E-16
5.560000E+03	1.071679E-14	1.672351E-16
5.570000E+03	1.069095E-14	1.705711E-16
5.580000E+03	1.066717E-14	1.739009E-16
5.590000E+03	1.064505E-14	1.772029E-16
5.600000E+03	1.062442E-14	1.804602E-16
5.610000E+03	1.060489E-14	1.836541E-16
5.620000E+03	1.058664E-14	1.867765E-16
5.630000E+03	1.056954E-14	1.898152E-16
5.640000E+03	1.055381E-14	1.927658E-16
5.650000E+03	1.054003E-14	1.956312E-16
5.660000E+03	1.052841E-14	1.984095E-16
5.670000E+03	1.051958E-14	2.011073E-16
5.680000E+03	1.051402E-14	2.037296E-16
5.690000E+03	1.051232E-14	2.062847E-16
5.700000E+03	1.051517E-14	2.087839E-16
5.710000E+03	1.052320E-14	2.112374E-16
5.720000E+03	1.053682E-14	2.136522E-16
5.730000E+03	1.055654E-14	2.160375E-16
5.740000E+03	1.058290E-14	2.184033E-16
5.750000E+03	1.061614E-14	2.207532E-16
5.760000E+03	1.065659E-14	2.230929E-16
5.770000E+03	1.070435E-14	2.254232E-16
5.780000E+03	1.075930E-14	2.277390E-16
5.790000E+03	1.082135E-14	2.300362E-16
5.800000E+03	1.089013E-14	2.323039E-16
5.810000E+03	1.096508E-14	2.345262E-16
5.820000E+03	1.104544E-14	2.366830E-16
5.830000E+03	1.113025E-14	2.387491E-16
5.840000E+03	1.121834E-14	2.406945E-16
5.850000E+03	1.130846E-14	2.424871E-16
5.860000E+03	1.139891E-14	2.440854E-16
5.870000E+03	1.148810E-14	2.454507E-16
5.880000E+03	1.157416E-14	2.465386E-16
5.890000E+03	1.165515E-14	2.473046E-16
5.900000E+03	1.172925E-14	2.477078E-16
5.910000E+03	1.179427E-14	2.477016E-16
5.920000E+03	1.184886E-14	2.472590E-16
5.930000E+03	1.189135E-14	2.463481E-16
5.940000E+03	1.192040E-14	2.449466E-16
5.950000E+03	1.193557E-14	2.430534E-16
5.960000E+03	1.193620E-14	2.406644E-16
5.970000E+03	1.192255E-14	2.377967E-16
5.980000E+03	1.189533E-14	2.344776E-16
5.990000E+03	1.185561E-14	2.307431E-16
6.000000E+03	1.180491E-14	2.266373E-16
6.010000E+03	1.174509E-14	2.222120E-16
6.020000E+03	1.167862E-14	2.175287E-16
6.030000E+03	1.160775E-14	2.126436E-16
6.040000E+03	1.153516E-14	2.076190E-16
6.050000E+03	1.146361E-14	2.025156E-16
6.060000E+03	1.139569E-14	1.973889E-16
6.070000E+03	1.133408E-14	1.922931E-16
6.080000E+03	1.128142E-14	1.872776E-16
6.090000E+03	1.123986E-14	1.823819E-16
6.100000E+03	1.121200E-14	1.776499E-16
6.110000E+03	1.119968E-14	1.731105E-16
6.120000E+03	1.120508E-14	1.687969E-16
6.130000E+03	1.122969E-14	1.647306E-16
6.140000E+03	1.127486E-14	1.609310E-16
6.150000E+03	1.134152E-14	1.574136E-16
6.160000E+03	1.143046E-14	1.541947E-16
6.170000E+03	1.154126E-14	1.512789E-16
6.180000E+03	1.167285E-14	1.486702E-16
6.190000E+03	1.182273E-14	1.463644E-16
6.200000E+03	1.198758E-14	1.443604E-16
6.210000E+03	1.216270E-14	1.426549E-16
6.220000E+03	1.234153E-14	1.412395E-16
6.230000E+03	1.251561E-14	1.401007E-16
6.240000E+03	1.267551E-14	1.392289E-16
6.250000E+03	1.280992E-14	1.386039E-16
6.260000E+03	1.290758E-14	1.382077E-16
6.270000E+03	1.295863E-14	1.380288E-16
6.280000E+03	1.295735E-14	1.380788E-16
6.290000E+03	1.290842E-14	1.384451E-16
6.300000E+03	1.282124E-14	1.392000E-16
6.310000E+03	1.270744E-14	1.403992E-16
6.320000E+03	1.257835E-14	1.420831E-16
6.330000E+03	1.244457E-14	1.442832E-16
6.340000E+03	1.231519E-14	1.470218E-16
6.350000E+03	1.219767E-14	1.503152E-16
6.360000E+03	1.209783E-14	1.541767E-16
6.370000E+03	1.201979E-14	1.586156E-16
6.380000E+03	1.196655E-14	1.636424E-16
6.390000E+03	1.193981E-14	1.692641E-16
6.400000E+03	1.194071E-14	1.754923E-16
6.410000E+03	1.196945E-14	1.823337E-16
6.420000E+03	1.202556E-14	1.897921E-16
6.430000E+03	1.210790E-14	1.978643E-16
6.440000E+03	1.221516E-14	2.065465E-16
6.450000E+03	1.234564E-14	2.158287E-16
6.460000E+03	1.249668E-14	2.256819E-16
6.470000E+03	1.266602E-14	2.360810E-16
6.480000E+03	1.285047E-14	2.469792E-16
6.490000E+03	1.304657E-14	2.583177E-16
6.500000E+03	1.325099E-14	2.700332E-16
6.510000E+03	1.346000E-14	2.820472E-16
6.520000E+03	1.366931E-14	2.942607E-16
6.530000E+03	1.387517E-14	3.065773E-16
6.540000E+03	1.407362E-14	3.188876E-16
6.550000E+03	1.426075E-14	3.310753E-16
6.560000E+03	1.443235E-14	3.430088E-16
6.570000E+03	1.458534E-14	3.545754E-16
6.580000E+03	1.471606E-14	3.656426E-16
6.590000E+03	1.482196E-14	3.760993E-16
6.600000E+03	1.490055E-14	3.858324E-16
6.610000E+03	1.495017E-14	3.947464E-16
6.620000E+03	1.497006E-14	4.027694E-16
6.630000E+03	1.495962E-14	4.098345E-16
6.640000E+03	1.491895E-14	4.158941E-16
6.650000E+03	1.484945E-14	4.209409E-16
6.660000E+03	1.475212E-14	4.249605E-16
6.670000E+03	1.462890E-14	4.279703E-16
6.680000E+03	1.448262E-14	4.300193E-16
6.690000E+03	1.431540E-14	4.311428E-16
6.700000E+03	1.413028E-14	4.314089E-16
6.710000E+03	1.392994E-14	4.308815E-16
6.720000E+03	1.371755E-14	4.296461E-16
6.730000E+03	1.349574E-14	4.277768E-16
6.740000E+03	1.326751E-14	4.253650E-16
6.750000E+03	1.303523E-14	4.224867E-16
6.760000E+03	1.280154E-14	4.192308E-16
6.770000E+03	1.256844E-14	4.156687E-16
6.780000E+03	1.233810E-14	4.118813E-16
6.790000E+03	1.211227E-14	4.079371E-16
6.800000E+03	1.189228E-14	4.038925E-16
6.810000E+03	1.167962E-14	3.998113E-16
6.820000E+03	1.147516E-14	3.957367E-16
6.830000E+03	1.127999E-14	3.917198E-16
6.840000E+03	1.109479E-14	3.877982E-16
6.850000E+03	1.091987E-14	3.839961E-16
6.860000E+03	1.075577E-14	3.803455E-16
6.870000E+03	1.060268E-14	3.768655E-16
6.880000E+03	1.046066E-14	3.735699E-16
6.890000E+03	1.032946E-14	3.704607E-16
6.900000E+03	1.020929E-14	3.675551E-16
6.910000E+03	1.009951E-14	3.648395E-16
6.920000E+03	9.999968E-15	3.623158E-16
6.930000E+03	9.910239E-15	3.599760E-16
6.940000E+03	9.829841E-15	3.578085E-16
6.950000E+03	9.758230E-15	3.557985E-16
6.960000E+03	9.694808E-15	3.539286E-16
6.970000E+03	9.638931E-15	3.521786E-16
6.980000E+03	9.590094E-15	3.505329E-16
6.990000E+03	9.547214E-15	3.489540E-16
7.000000E+03	9.509897E-15	3.474290E-16
7.010000E+03	9.477188E-15	3.459241E-16
7.020000E+03	9.448286E-15	3.444109E-16
7.030000E+03	9.422384E-15	3.428605E-16
7.040000E+03	9.398847E-15	3.412502E-16
7.050000E+03	9.376687E-15	3.395446E-16
7.060000E+03	9.355289E-15	3.377220E-16
7.070000E+03	9.333705E-15	3.357490E-16
7.080000E+03	9.311392E-15	3.336071E-16
7.090000E+03	9.287497E-15	3.312673E-16
7.100000E+03	9.261607E-15	3.287168E-16
7.110000E+03	9.233210E-15	3.259401E-16
7.120000E+03	9.201902E-15	3.229260E-16
7.130000E+03	9.167389E-15	3.196676E-16
7.140000E+03	9.129318E-15	3.161570E-16
7.150000E+03	9.088015E-15	3.124101E-16
7.160000E+03	9.043377E-15	3.084282E-16
7.170000E+03	8.995596E-15	3.042233E-16
7.180000E+03	8.944971E-15	2.998109E-16
7.190000E+03	8.892062E-15	2.952154E-16
7.200000E+03	8.837308E-15	2.904565E-16
7.210000E+03	8.780993E-15	2.855490E-16
7.220000E+03	8.723783E-15	2.805194E-16
7.230000E+03	8.665965E-15	2.753817E-16
7.240000E+03	8.608340E-15	2.701657E-16
7.250000E+03	8.550933E-15	2.648759E-16
7.260000E+03	8.494436E-15	2.595375E-16
7.270000E+03	8.438748E-15	2.541504E-16
7.280000E+03	8.384424E-15	2.487346E-16
7.290000E+03	8.331408E-15	2.432910E-16
7.300000E+03	8.279760E-15	2.378244E-16
7.310000E+03	8.229479E-15	2.323375E-16
7.320000E+03	8.180520E-15	2.268323E-16
7.330000E+03	8.132798E-15	2.213096E-16
7.340000E+03	8.086026E-15	2.157656E-16
7.350000E+03	8.040084E-15	2.102015E-16
7.360000E+03	7.994853E-15	2.046192E-16
7.370000E+03	7.950226E-15	1.990219E-16
7.380000E+03	7.905585E-15	1.934006E-16
7.390000E+03	7.861234E-15	1.877708E-16
7.400000E+03	7.816621E-15	1.821277E-16
7.410000E+03	7.771769E-15	1.764819E-16
7.420000E+03	7.726564E-15	1.708420E-16
7.430000E+03	7.681102E-15	1.652224E-16
7.440000E+03	7.635338E-15	1.596355E-16
7.450000E+03	7.590137E-15	1.541140E-16
7.460000E+03	7.545495E-15	1.486731E-16
7.470000E+03	7.501779E-15	1.433368E-16
7.480000E+03	7.459530E-15	1.381340E-16
7.490000E+03	7.418936E-15	1.330883E-16
7.500000E+03	7.380351E-15	1.282290E-16
7.510000E+03	7.343937E-15	1.235844E-16
7.520000E+03	7.309841E-15	1.191860E-16
7.530000E+03	7.278538E-15	1.150741E-16
7.540000E+03	7.249774E-15	1.112808E-16
7.550000E+03	7.223975E-15	1.078527E-16
7.560000E+03	7.201005E-15	1.048312E-16
7.570000E+03	7.180693E-15	1.022596E-16
7.580000E+03	7.163359E-15	1.001895E-16
7.590000E+03	7.148737E-15	9.866327E-17
7.600000E+03	7.136679E-15	9.772168E-17
7.610000E+03	7.126777E-15	9.739606E-17
7.620000E+03	7.119067E-15	9.771528E-17
7.630000E+03	7.112746E-15	9.867926E-17
7.640000E+03	7.107234E-15	1.002645E-16
7.650000E+03	7.101975E-15	1.024354E-16
7.660000E+03	7.096061E-15	1.051429E-16
7.670000E+03	7.088232E-15	1.083254E-16
7.680000E+03	7.077453E-15	1.119194E-16
7.690000E+03	7.062240E-15	1.158503E-16
7.700000E+03	7.041339E-15	1.200438E-16
7.710000E+03	7.013963E-15	1.244317E-16
7.720000E+03	6.979961E-15	1.289572E-16
7.730000E+03	6.940616E-15	1.335925E-16
7.740000E+03	6.897150E-15	1.383157E-16
7.750000E+03	6.851171E-15	1.431195E-16
7.760000E+03	6.804004E-15	1.479992E-16
