#wls	flux	fluxerr
1.600000E+03	6.260615E-15	4.873674E-16
1.640000E+03	6.377487E-15	4.822764E-16
1.680000E+03	6.497847E-15	4.769804E-16
1.720000E+03	6.620791E-15	4.714295E-16
1.760000E+03	6.748882E-15	4.658281E-16
1.800000E+03	6.882219E-15	4.602011E-16
1.840000E+03	7.019282E-15	4.544766E-16
1.880000E+03	7.162835E-15	4.488740E-16
1.920000E+03	7.309516E-15	4.432292E-16
1.960000E+03	7.456588E-15	4.374541E-16
2.000000E+03	7.598756E-15	4.313484E-16
2.040000E+03	7.726681E-15	4.245396E-16
2.080000E+03	7.832825E-15	4.168238E-16
2.120000E+03	7.913598E-15	4.082510E-16
2.160000E+03	7.975422E-15	3.993789E-16
2.200000E+03	8.031196E-15	3.909757E-16
2.240000E+03	8.091415E-15	3.835908E-16
2.280000E+03	8.164893E-15	3.776407E-16
2.320000E+03	8.260237E-15	3.734753E-16
2.360000E+03	8.385699E-15	3.713630E-16
2.400000E+03	8.545980E-15	3.713969E-16
2.440000E+03	8.741500E-15	3.734884E-16
2.480000E+03	8.969345E-15	3.774248E-16
2.520000E+03	9.216019E-15	3.825781E-16
2.560000E+03	9.457668E-15	3.879371E-16
2.600000E+03	9.663926E-15	3.922765E-16
2.640000E+03	9.799362E-15	3.942122E-16
2.680000E+03	9.864119E-15	3.938131E-16
2.720000E+03	9.883488E-15	3.920833E-16
2.760000E+03	9.883843E-15	3.899549E-16
2.800000E+03	9.881569E-15	3.879385E-16
2.840000E+03	9.886103E-15	3.862715E-16
2.880000E+03	9.903279E-15	3.850587E-16
2.920000E+03	9.935068E-15	3.842660E-16
2.960000E+03	9.982345E-15	3.838302E-16
3.000000E+03	1.004807E-14	3.837811E-16
3.010000E+03	1.006824E-14	3.838533E-16
3.020000E+03	1.009041E-14	3.839761E-16
3.030000E+03	1.011252E-14	3.840702E-16
3.040000E+03	1.013779E-14	3.842570E-16
3.050000E+03	1.016417E-14	3.844577E-16
3.060000E+03	1.019174E-14	3.846743E-16
3.070000E+03	1.022161E-14	3.849480E-16
3.080000E+03	1.025387E-14	3.852808E-16
3.090000E+03	1.028858E-14	3.856745E-16
3.100000E+03	1.032585E-14	3.861317E-16
3.110000E+03	1.036474E-14	3.866167E-16
3.120000E+03	1.040742E-14	3.872091E-16
3.130000E+03	1.045194E-14	3.878359E-16
3.140000E+03	1.050048E-14	3.885764E-16
3.150000E+03	1.055113E-14	3.893589E-16
3.160000E+03	1.060606E-14	3.902626E-16
3.170000E+03	1.066438E-14	3.912538E-16
3.180000E+03	1.072727E-14	3.923742E-16
3.190000E+03	1.079386E-14	3.935907E-16
3.200000E+03	1.086431E-14	3.949080E-16
3.210000E+03	1.094080E-14	3.964039E-16
3.220000E+03	1.102146E-14	3.980091E-16
3.230000E+03	1.110745E-14	3.997642E-16
3.240000E+03	1.119891E-14	4.016727E-16
3.250000E+03	1.129599E-14	4.037377E-16
3.260000E+03	1.139979E-14	4.059974E-16
3.270000E+03	1.150938E-14	4.084168E-16
3.280000E+03	1.162482E-14	4.109958E-16
3.290000E+03	1.174813E-14	4.138042E-16
3.300000E+03	1.187823E-14	4.168019E-16
3.310000E+03	1.201394E-14	4.199459E-16
3.320000E+03	1.215707E-14	4.232978E-16
3.330000E+03	1.230727E-14	4.268434E-16
3.340000E+03	1.246299E-14	4.305273E-16
3.350000E+03	1.262560E-14	4.343961E-16
3.360000E+03	1.279319E-14	4.383822E-16
3.370000E+03	1.296462E-14	4.424466E-16
3.380000E+03	1.313947E-14	4.465751E-16
3.390000E+03	1.331706E-14	4.507449E-16
3.400000E+03	1.349317E-14	4.548146E-16
3.410000E+03	1.366841E-14	4.588072E-16
3.420000E+03	1.383767E-14	4.625548E-16
3.430000E+03	1.399964E-14	4.660183E-16
3.440000E+03	1.415038E-14	4.690730E-16
3.450000E+03	1.428449E-14	4.715474E-16
3.460000E+03	1.440037E-14	4.733986E-16
3.470000E+03	1.448994E-14	4.743720E-16
3.480000E+03	1.455114E-14	4.744140E-16
3.490000E+03	1.457890E-14	4.733730E-16
3.500000E+03	1.456912E-14	4.711279E-16
3.510000E+03	1.452422E-14	4.677698E-16
3.520000E+03	1.444580E-14	4.633604E-16
3.530000E+03	1.433856E-14	4.580600E-16
3.540000E+03	1.420679E-14	4.520133E-16
3.550000E+03	1.405509E-14	4.453724E-16
3.560000E+03	1.388888E-14	4.383136E-16
3.570000E+03	1.371162E-14	4.309484E-16
3.580000E+03	1.352898E-14	4.234557E-16
3.590000E+03	1.334291E-14	4.158966E-16
3.600000E+03	1.315665E-14	4.083703E-16
3.610000E+03	1.297442E-14	4.010058E-16
3.620000E+03	1.279775E-14	3.938465E-16
3.630000E+03	1.262782E-14	3.869248E-16
3.640000E+03	1.246687E-14	3.803053E-16
3.650000E+03	1.231606E-14	3.740174E-16
3.660000E+03	1.217625E-14	3.680826E-16
3.670000E+03	1.204745E-14	3.624949E-16
3.680000E+03	1.193066E-14	3.572791E-16
3.690000E+03	1.182607E-14	3.524348E-16
3.700000E+03	1.173316E-14	3.479400E-16
3.710000E+03	1.165186E-14	3.437871E-16
3.720000E+03	1.158199E-14	3.399652E-16
3.730000E+03	1.152332E-14	3.364610E-16
3.740000E+03	1.147603E-14	3.332742E-16
3.750000E+03	1.143874E-14	3.303592E-16
3.760000E+03	1.141110E-14	3.277003E-16
3.770000E+03	1.139319E-14	3.252949E-16
3.780000E+03	1.138414E-14	3.231126E-16
3.790000E+03	1.138354E-14	3.211370E-16
3.800000E+03	1.139098E-14	3.193521E-16
3.810000E+03	1.140564E-14	3.177300E-16
3.820000E+03	1.142712E-14	3.162560E-16
3.830000E+03	1.145547E-14	3.149273E-16
3.840000E+03	1.148989E-14	3.137181E-16
3.850000E+03	1.152919E-14	3.125929E-16
3.860000E+03	1.157424E-14	3.115722E-16
3.870000E+03	1.162349E-14	3.106112E-16
3.880000E+03	1.167699E-14	3.097094E-16
3.890000E+03	1.173401E-14	3.088457E-16
3.900000E+03	1.179462E-14	3.080197E-16
3.910000E+03	1.185773E-14	3.072024E-16
3.920000E+03	1.192342E-14	3.063948E-16
3.930000E+03	1.199101E-14	3.055796E-16
3.940000E+03	1.206023E-14	3.047497E-16
3.950000E+03	1.213046E-14	3.038904E-16
3.960000E+03	1.220179E-14	3.030056E-16
3.970000E+03	1.227333E-14	3.020744E-16
3.980000E+03	1.234524E-14	3.011030E-16
3.990000E+03	1.241702E-14	3.000824E-16
4.000000E+03	1.248825E-14	2.990055E-16
4.010000E+03	1.255920E-14	2.978826E-16
4.020000E+03	1.262985E-14	2.967173E-16
4.030000E+03	1.269925E-14	2.954924E-16
4.040000E+03	1.276848E-14	2.942378E-16
4.050000E+03	1.283668E-14	2.929393E-16
4.060000E+03	1.290434E-14	2.916142E-16
4.070000E+03	1.297166E-14	2.902732E-16
4.080000E+03	1.303823E-14	2.889139E-16
4.090000E+03	1.310493E-14	2.875632E-16
4.100000E+03	1.317112E-14	2.862144E-16
4.110000E+03	1.323772E-14	2.848952E-16
4.120000E+03	1.330477E-14	2.836147E-16
4.130000E+03	1.337234E-14	2.823829E-16
4.140000E+03	1.344114E-14	2.812238E-16
4.150000E+03	1.351129E-14	2.801488E-16
4.160000E+03	1.358322E-14	2.791764E-16
4.170000E+03	1.365733E-14	2.783246E-16
4.180000E+03	1.373368E-14	2.776045E-16
4.190000E+03	1.381274E-14	2.770364E-16
4.200000E+03	1.389426E-14	2.766262E-16
4.210000E+03	1.397801E-14	2.763807E-16
4.220000E+03	1.406366E-14	2.763055E-16
4.230000E+03	1.414967E-14	2.763828E-16
4.240000E+03	1.423505E-14	2.766066E-16
4.250000E+03	1.431745E-14	2.769450E-16
4.260000E+03	1.439448E-14	2.773657E-16
4.270000E+03	1.446261E-14	2.778147E-16
4.280000E+03	1.451812E-14	2.782342E-16
4.290000E+03	1.455718E-14	2.785638E-16
4.300000E+03	1.457579E-14	2.787369E-16
4.310000E+03	1.457030E-14	2.786839E-16
4.320000E+03	1.453987E-14	2.783796E-16
4.330000E+03	1.448533E-14	2.778272E-16
4.340000E+03	1.440908E-14	2.770583E-16
4.350000E+03	1.431353E-14	2.761025E-16
4.360000E+03	1.420174E-14	2.750003E-16
4.370000E+03	1.407666E-14	2.737901E-16
4.380000E+03	1.394044E-14	2.724941E-16
4.390000E+03	1.379597E-14	2.711502E-16
4.400000E+03	1.364535E-14	2.697810E-16
4.410000E+03	1.349093E-14	2.684157E-16
4.420000E+03	1.333451E-14	2.670742E-16
4.430000E+03	1.317775E-14	2.657743E-16
4.440000E+03	1.302271E-14	2.645446E-16
4.450000E+03	1.287085E-14	2.634028E-16
4.460000E+03	1.272306E-14	2.623564E-16
4.470000E+03	1.258037E-14	2.614175E-16
4.480000E+03	1.244394E-14	2.606026E-16
4.490000E+03	1.231399E-14	2.599096E-16
4.500000E+03	1.219087E-14	2.593403E-16
4.510000E+03	1.207494E-14	2.588975E-16
4.520000E+03	1.196619E-14	2.585771E-16
4.530000E+03	1.186413E-14	2.583652E-16
4.540000E+03	1.176874E-14	2.582583E-16
4.550000E+03	1.167959E-14	2.582439E-16
4.560000E+03	1.159652E-14	2.583168E-16
4.570000E+03	1.151893E-14	2.584612E-16
4.580000E+03	1.144671E-14	2.586729E-16
4.590000E+03	1.137964E-14	2.589450E-16
4.600000E+03	1.131739E-14	2.592689E-16
4.610000E+03	1.125972E-14	2.596372E-16
4.620000E+03	1.120673E-14	2.600516E-16
4.630000E+03	1.115831E-14	2.605080E-16
4.640000E+03	1.111453E-14	2.610076E-16
4.650000E+03	1.107539E-14	2.615495E-16
4.660000E+03	1.104134E-14	2.621438E-16
4.670000E+03	1.101215E-14	2.627848E-16
4.680000E+03	1.098831E-14	2.634840E-16
4.690000E+03	1.096990E-14	2.642429E-16
4.700000E+03	1.095711E-14	2.650661E-16
4.710000E+03	1.095011E-14	2.659575E-16
4.720000E+03	1.094888E-14	2.669167E-16
4.730000E+03	1.095361E-14	2.679482E-16
4.740000E+03	1.096400E-14	2.690446E-16
4.750000E+03	1.098008E-14	2.702058E-16
4.760000E+03	1.100162E-14	2.714260E-16
4.770000E+03	1.102800E-14	2.726892E-16
4.780000E+03	1.105874E-14	2.739826E-16
4.790000E+03	1.109324E-14	2.752905E-16
4.800000E+03	1.113061E-14	2.765895E-16
4.810000E+03	1.117011E-14	2.778603E-16
4.820000E+03	1.121080E-14	2.790778E-16
4.830000E+03	1.125172E-14	2.802171E-16
4.840000E+03	1.129162E-14	2.812459E-16
4.850000E+03	1.132959E-14	2.821403E-16
4.860000E+03	1.136420E-14	2.828637E-16
4.870000E+03	1.139470E-14	2.833970E-16
4.880000E+03	1.141977E-14	2.837072E-16
4.890000E+03	1.143868E-14	2.837761E-16
4.900000E+03	1.145045E-14	2.835804E-16
4.910000E+03	1.145442E-14	2.831048E-16
4.920000E+03	1.145018E-14	2.823411E-16
4.930000E+03	1.143732E-14	2.812813E-16
4.940000E+03	1.141584E-14	2.799286E-16
4.950000E+03	1.138583E-14	2.782885E-16
4.960000E+03	1.134759E-14	2.763720E-16
4.970000E+03	1.130157E-14	2.741946E-16
4.980000E+03	1.124836E-14	2.717751E-16
4.990000E+03	1.118868E-14	2.691353E-16
5.000000E+03	1.112343E-14	2.663023E-16
5.010000E+03	1.105331E-14	2.632974E-16
5.020000E+03	1.097930E-14	2.601492E-16
5.030000E+03	1.090210E-14	2.568789E-16
5.040000E+03	1.082263E-14	2.535131E-16
5.050000E+03	1.074165E-14	2.500743E-16
5.060000E+03	1.065988E-14	2.465838E-16
5.070000E+03	1.057800E-14	2.430613E-16
5.080000E+03	1.049663E-14	2.395255E-16
5.090000E+03	1.041637E-14	2.359938E-16
5.100000E+03	1.033789E-14	2.324848E-16
5.110000E+03	1.026171E-14	2.290138E-16
5.120000E+03	1.018818E-14	2.255916E-16
5.130000E+03	1.011782E-14	2.222330E-16
5.140000E+03	1.005097E-14	2.189482E-16
5.150000E+03	9.987914E-15	2.157459E-16
5.160000E+03	9.928738E-15	2.126306E-16
5.170000E+03	9.873735E-15	2.096114E-16
5.180000E+03	9.822814E-15	2.066887E-16
5.190000E+03	9.775900E-15	2.038638E-16
5.200000E+03	9.732929E-15	2.011382E-16
5.210000E+03	9.693583E-15	1.985086E-16
5.220000E+03	9.657593E-15	1.959728E-16
5.230000E+03	9.624749E-15	1.935303E-16
5.240000E+03	9.594620E-15	1.911765E-16
5.250000E+03	9.566954E-15	1.889109E-16
5.260000E+03	9.541296E-15	1.867293E-16
5.270000E+03	9.517373E-15	1.846315E-16
5.280000E+03	9.494811E-15	1.826157E-16
5.290000E+03	9.473222E-15	1.806803E-16
5.300000E+03	9.452104E-15	1.788218E-16
5.310000E+03	9.431137E-15	1.770405E-16
5.320000E+03	9.409786E-15	1.753329E-16
5.330000E+03	9.387691E-15	1.736991E-16
5.340000E+03	9.364383E-15	1.721369E-16
5.350000E+03	9.339388E-15	1.706444E-16
5.360000E+03	9.312142E-15	1.692179E-16
5.370000E+03	9.282303E-15	1.678574E-16
5.380000E+03	9.249475E-15	1.665616E-16
5.390000E+03	9.213345E-15	1.653303E-16
5.400000E+03	9.173622E-15	1.641629E-16
5.410000E+03	9.130358E-15	1.630622E-16
5.420000E+03	9.083641E-15	1.620241E-16
5.430000E+03	9.034101E-15	1.610523E-16
5.440000E+03	8.982644E-15	1.601546E-16
5.450000E+03	8.930232E-15	1.593397E-16
5.460000E+03	8.877687E-15	1.586135E-16
5.470000E+03	8.826013E-15	1.579853E-16
5.480000E+03	8.775735E-15	1.574559E-16
5.490000E+03	8.727584E-15	1.570302E-16
5.500000E+03	8.681867E-15	1.567057E-16
5.510000E+03	8.638905E-15	1.564805E-16
5.520000E+03	8.598785E-15	1.563490E-16
5.530000E+03	8.561465E-15	1.563035E-16
5.540000E+03	8.526806E-15	1.563348E-16
5.550000E+03	8.494685E-15	1.564345E-16
5.560000E+03	8.464784E-15	1.565904E-16
5.570000E+03	8.436870E-15	1.567928E-16
5.580000E+03	8.410672E-15	1.570309E-16
5.590000E+03	8.386237E-15	1.573005E-16
5.600000E+03	8.363450E-15	1.575945E-16
5.610000E+03	8.342301E-15	1.579079E-16
5.620000E+03	8.323133E-15	1.582429E-16
5.630000E+03	8.306145E-15	1.585994E-16
5.640000E+03	8.291703E-15	1.589805E-16
5.650000E+03	8.280323E-15	1.593928E-16
5.660000E+03	8.272315E-15	1.598392E-16
5.670000E+03	8.268339E-15	1.603296E-16
5.680000E+03	8.268879E-15	1.608709E-16
5.690000E+03	8.274313E-15	1.614681E-16
5.700000E+03	8.285054E-15	1.621270E-16
5.710000E+03	8.301547E-15	1.628541E-16
5.720000E+03	8.324003E-15	1.636517E-16
5.730000E+03	8.352734E-15	1.645237E-16
5.740000E+03	8.387815E-15	1.654696E-16
5.750000E+03	8.429406E-15	1.664903E-16
5.760000E+03	8.477511E-15	1.675836E-16
5.770000E+03	8.531963E-15	1.687439E-16
5.780000E+03	8.592665E-15	1.699667E-16
5.790000E+03	8.659257E-15	1.712421E-16
5.800000E+03	8.731428E-15	1.725614E-16
5.810000E+03	8.808666E-15	1.739114E-16
5.820000E+03	8.890243E-15	1.752748E-16
5.830000E+03	8.975380E-15	1.766333E-16
5.840000E+03	9.063256E-15	1.779679E-16
5.850000E+03	9.152839E-15	1.792556E-16
5.860000E+03	9.242888E-15	1.804694E-16
5.870000E+03	9.332158E-15	1.815830E-16
5.880000E+03	9.419341E-15	1.825693E-16
5.890000E+03	9.503191E-15	1.834029E-16
5.900000E+03	9.582201E-15	1.840544E-16
5.910000E+03	9.655302E-15	1.845036E-16
5.920000E+03	9.721162E-15	1.847263E-16
5.930000E+03	9.778905E-15	1.847081E-16
5.940000E+03	9.827780E-15	1.844378E-16
5.950000E+03	9.867203E-15	1.839086E-16
5.960000E+03	9.897079E-15	1.831235E-16
5.970000E+03	9.917345E-15	1.820869E-16
5.980000E+03	9.928562E-15	1.808155E-16
5.990000E+03	9.931511E-15	1.793301E-16
6.000000E+03	9.927277E-15	1.776570E-16
6.010000E+03	9.917017E-15	1.758242E-16
6.020000E+03	9.902495E-15	1.738695E-16
6.030000E+03	9.885158E-15	1.718250E-16
6.040000E+03	9.867047E-15	1.697322E-16
6.050000E+03	9.849964E-15	1.676276E-16
6.060000E+03	9.835616E-15	1.655452E-16
6.070000E+03	9.825941E-15	1.635219E-16
6.080000E+03	9.822588E-15	1.615890E-16
6.090000E+03	9.827060E-15	1.597744E-16
6.100000E+03	9.840684E-15	1.581027E-16
6.110000E+03	9.864663E-15	1.565961E-16
6.120000E+03	9.899856E-15	1.552710E-16
6.130000E+03	9.946739E-15	1.541385E-16
6.140000E+03	1.000576E-14	1.532095E-16
6.150000E+03	1.007659E-14	1.524843E-16
6.160000E+03	1.015890E-14	1.519644E-16
6.170000E+03	1.025169E-14	1.516432E-16
6.180000E+03	1.035343E-14	1.515085E-16
6.190000E+03	1.046223E-14	1.515455E-16
6.200000E+03	1.057549E-14	1.517320E-16
6.210000E+03	1.069002E-14	1.520397E-16
6.220000E+03	1.080206E-14	1.524356E-16
6.230000E+03	1.090750E-14	1.528837E-16
6.240000E+03	1.100190E-14	1.533454E-16
6.250000E+03	1.108113E-14	1.537868E-16
6.260000E+03	1.114138E-14	1.541780E-16
6.270000E+03	1.118005E-14	1.545039E-16
6.280000E+03	1.119628E-14	1.547703E-16
6.290000E+03	1.119146E-14	1.550099E-16
6.300000E+03	1.116866E-14	1.552738E-16
6.310000E+03	1.113230E-14	1.556189E-16
6.320000E+03	1.108745E-14	1.561009E-16
6.330000E+03	1.103917E-14	1.567744E-16
6.340000E+03	1.099253E-14	1.576953E-16
6.350000E+03	1.095172E-14	1.589083E-16
6.360000E+03	1.092089E-14	1.604608E-16
6.370000E+03	1.090315E-14	1.623886E-16
6.380000E+03	1.090088E-14	1.647197E-16
6.390000E+03	1.091611E-14	1.674805E-16
6.400000E+03	1.095001E-14	1.706879E-16
6.410000E+03	1.100333E-14	1.743540E-16
6.420000E+03	1.107599E-14	1.784810E-16
6.430000E+03	1.116767E-14	1.830676E-16
6.440000E+03	1.127757E-14	1.881060E-16
6.450000E+03	1.140420E-14	1.935765E-16
6.460000E+03	1.154573E-14	1.994532E-16
6.470000E+03	1.169987E-14	2.056996E-16
6.480000E+03	1.186419E-14	2.122756E-16
6.490000E+03	1.203585E-14	2.191300E-16
6.500000E+03	1.221157E-14	2.262007E-16
6.510000E+03	1.238864E-14	2.334319E-16
6.520000E+03	1.256333E-14	2.407454E-16
6.530000E+03	1.273247E-14	2.480684E-16
6.540000E+03	1.289242E-14	2.553157E-16
6.550000E+03	1.304013E-14	2.624087E-16
6.560000E+03	1.317234E-14	2.692615E-16
6.570000E+03	1.328580E-14	2.757838E-16
6.580000E+03	1.337812E-14	2.819000E-16
6.590000E+03	1.344701E-14	2.875344E-16
6.600000E+03	1.349048E-14	2.926154E-16
6.610000E+03	1.350732E-14	2.970871E-16
6.620000E+03	1.349659E-14	3.008982E-16
6.630000E+03	1.345820E-14	3.040174E-16
6.640000E+03	1.339246E-14	3.064232E-16
6.650000E+03	1.330005E-14	3.081041E-16
6.660000E+03	1.318263E-14	3.090736E-16
6.670000E+03	1.304177E-14	3.093463E-16
6.680000E+03	1.287961E-14	3.089530E-16
6.690000E+03	1.269867E-14	3.079375E-16
6.700000E+03	1.250136E-14	3.063446E-16
6.710000E+03	1.229052E-14	3.042329E-16
6.720000E+03	1.206885E-14	3.016617E-16
6.730000E+03	1.183888E-14	2.986890E-16
6.740000E+03	1.160346E-14	2.953847E-16
6.750000E+03	1.136492E-14	2.918076E-16
6.760000E+03	1.112564E-14	2.880210E-16
6.770000E+03	1.088759E-14	2.840793E-16
6.780000E+03	1.065272E-14	2.800393E-16
6.790000E+03	1.042258E-14	2.759474E-16
6.800000E+03	1.019885E-14	2.718556E-16
6.810000E+03	9.982497E-15	2.677974E-16
6.820000E+03	9.774781E-15	2.638152E-16
6.830000E+03	9.576408E-15	2.599364E-16
6.840000E+03	9.388029E-15	2.561874E-16
6.850000E+03	9.210126E-15	2.525898E-16
6.860000E+03	9.043149E-15	2.491641E-16
6.870000E+03	8.887180E-15	2.459207E-16
6.880000E+03	8.742400E-15	2.428719E-16
6.890000E+03	8.608766E-15	2.400235E-16
6.900000E+03	8.486026E-15	2.373751E-16
6.910000E+03	8.374050E-15	2.349290E-16
6.920000E+03	8.272413E-15	2.326783E-16
6.930000E+03	8.180931E-15	2.306227E-16
6.940000E+03	8.098932E-15	2.287474E-16
6.950000E+03	8.025898E-15	2.270414E-16
6.960000E+03	7.961464E-15	2.254972E-16
6.970000E+03	7.904808E-15	2.240942E-16
6.980000E+03	7.855374E-15	2.228188E-16
6.990000E+03	7.812479E-15	2.216531E-16
7.000000E+03	7.775309E-15	2.205754E-16
7.010000E+03	7.743329E-15	2.195718E-16
7.020000E+03	7.715500E-15	2.186133E-16
7.030000E+03	7.691372E-15	2.176881E-16
7.040000E+03	7.669909E-15	2.167673E-16
7.050000E+03	7.650682E-15	2.158394E-16
7.060000E+03	7.632695E-15	2.148768E-16
7.070000E+03	7.615488E-15	2.138673E-16
7.080000E+03	7.598352E-15	2.127917E-16
7.090000E+03	7.580742E-15	2.116358E-16
7.100000E+03	7.562187E-15	2.103876E-16
7.110000E+03	7.542306E-15	2.090380E-16
7.120000E+03	7.520813E-15	2.075807E-16
7.130000E+03	7.497428E-15	2.060099E-16
7.140000E+03	7.472067E-15	2.043256E-16
7.150000E+03	7.444854E-15	2.025334E-16
7.160000E+03	7.415706E-15	2.006336E-16
7.170000E+03	7.385014E-15	1.986395E-16
7.180000E+03	7.352748E-15	1.965530E-16
7.190000E+03	7.319507E-15	1.943928E-16
7.200000E+03	7.285339E-15	1.921630E-16
7.210000E+03	7.250690E-15	1.898781E-16
7.220000E+03	7.215802E-15	1.875471E-16
7.230000E+03	7.181088E-15	1.851834E-16
7.240000E+03	7.146733E-15	1.827942E-16
7.250000E+03	7.112777E-15	1.803832E-16
7.260000E+03	7.079588E-15	1.779624E-16
7.270000E+03	7.047183E-15	1.755345E-16
7.280000E+03	7.015521E-15	1.731014E-16
7.290000E+03	6.984498E-15	1.706632E-16
7.300000E+03	6.954130E-15	1.682234E-16
7.310000E+03	6.924200E-15	1.657800E-16
7.320000E+03	6.894439E-15	1.633302E-16
7.330000E+03	6.864545E-15	1.608709E-16
7.340000E+03	6.834371E-15	1.584030E-16
7.350000E+03	6.803488E-15	1.559215E-16
7.360000E+03	6.771555E-15	1.534241E-16
7.370000E+03	6.738426E-15	1.509134E-16
7.380000E+03	6.703795E-15	1.483889E-16
7.390000E+03	6.667300E-15	1.458494E-16
7.400000E+03	6.628881E-15	1.433012E-16
7.410000E+03	6.588253E-15	1.407457E-16
7.420000E+03	6.545438E-15	1.381916E-16
7.430000E+03	6.500147E-15	1.356411E-16
7.440000E+03	6.452657E-15	1.331086E-16
7.450000E+03	6.402842E-15	1.306004E-16
7.460000E+03	6.350786E-15	1.281269E-16
7.470000E+03	6.296852E-15	1.257041E-16
7.480000E+03	6.241006E-15	1.233401E-16
7.490000E+03	6.183651E-15	1.210511E-16
7.500000E+03	6.124786E-15	1.188454E-16
7.510000E+03	6.064841E-15	1.167389E-16
7.520000E+03	6.003925E-15	1.147413E-16
7.530000E+03	5.942401E-15	1.128663E-16
7.540000E+03	5.880401E-15	1.111226E-16
7.550000E+03	5.818228E-15	1.095217E-16
7.560000E+03	5.756276E-15	1.080759E-16
7.570000E+03	5.694633E-15	1.067910E-16
7.580000E+03	5.633720E-15	1.056781E-16
7.590000E+03	5.573889E-15	1.047465E-16
7.600000E+03	5.515282E-15	1.040003E-16
7.610000E+03	5.458442E-15	1.034509E-16
7.620000E+03	5.403548E-15	1.031009E-16
7.630000E+03	5.351109E-15	1.029546E-16
7.640000E+03	5.301497E-15	1.030120E-16
7.650000E+03	5.255038E-15	1.032724E-16
7.660000E+03	5.212228E-15	1.037390E-16
7.670000E+03	5.173518E-15	1.044146E-16
7.680000E+03	5.139375E-15	1.053033E-16
7.690000E+03	5.110353E-15	1.064122E-16
7.700000E+03	5.086833E-15	1.077462E-16
7.710000E+03	5.069152E-15	1.093107E-16
7.720000E+03	5.057314E-15	1.111049E-16
7.730000E+03	5.050740E-15	1.131161E-16
7.740000E+03	5.048809E-15	1.153303E-16
7.750000E+03	5.050964E-15	1.177348E-16
7.760000E+03	5.056609E-15	1.203155E-16
