#wls	flux	fluxerr
1.600000E+03	6.231227E-15	4.878871E-16
1.640000E+03	6.347920E-15	4.832105E-16
1.680000E+03	6.468123E-15	4.783426E-16
1.720000E+03	6.590929E-15	4.732318E-16
1.760000E+03	6.718872E-15	4.680805E-16
1.800000E+03	6.852025E-15	4.629103E-16
1.840000E+03	6.988829E-15	4.576441E-16
1.880000E+03	7.131970E-15	4.524959E-16
1.920000E+03	7.278026E-15	4.472931E-16
1.960000E+03	7.424202E-15	4.419386E-16
2.000000E+03	7.565218E-15	4.362242E-16
2.040000E+03	7.691919E-15	4.297736E-16
2.080000E+03	7.797121E-15	4.223867E-16
2.120000E+03	7.877505E-15	4.141134E-16
2.160000E+03	7.939206E-15	4.054924E-16
2.200000E+03	7.994785E-15	3.972824E-16
2.240000E+03	8.054710E-15	3.900412E-16
2.280000E+03	8.127965E-15	3.842015E-16
2.320000E+03	8.223094E-15	3.801193E-16
2.360000E+03	8.348076E-15	3.780617E-16
2.400000E+03	8.507388E-15	3.781197E-16
2.440000E+03	8.701295E-15	3.802011E-16
2.480000E+03	8.926752E-15	3.840870E-16
2.520000E+03	9.170205E-15	3.891357E-16
2.560000E+03	9.407972E-15	3.943235E-16
2.600000E+03	9.610332E-15	3.984283E-16
2.640000E+03	9.742971E-15	4.000858E-16
2.680000E+03	9.806003E-15	3.993702E-16
2.720000E+03	9.823920E-15	3.972827E-16
2.760000E+03	9.822735E-15	3.947730E-16
2.800000E+03	9.818901E-15	3.923764E-16
2.840000E+03	9.822101E-15	3.903536E-16
2.880000E+03	9.838450E-15	3.888297E-16
2.920000E+03	9.870195E-15	3.877859E-16
2.960000E+03	9.918453E-15	3.871711E-16
3.000000E+03	9.986383E-15	3.870250E-16
3.010000E+03	1.000732E-14	3.870870E-16
3.020000E+03	1.003035E-14	3.872056E-16
3.030000E+03	1.005341E-14	3.873008E-16
3.040000E+03	1.007973E-14	3.874953E-16
3.050000E+03	1.010726E-14	3.877095E-16
3.060000E+03	1.013608E-14	3.879457E-16
3.070000E+03	1.016731E-14	3.882455E-16
3.080000E+03	1.020103E-14	3.886108E-16
3.090000E+03	1.023732E-14	3.890438E-16
3.100000E+03	1.027627E-14	3.895469E-16
3.110000E+03	1.031696E-14	3.900841E-16
3.120000E+03	1.036156E-14	3.907360E-16
3.130000E+03	1.040813E-14	3.914287E-16
3.140000E+03	1.045883E-14	3.922426E-16
3.150000E+03	1.051177E-14	3.931049E-16
3.160000E+03	1.056910E-14	3.940957E-16
3.170000E+03	1.062997E-14	3.951811E-16
3.180000E+03	1.069552E-14	3.964029E-16
3.190000E+03	1.076491E-14	3.977278E-16
3.200000E+03	1.083828E-14	3.991604E-16
3.210000E+03	1.091782E-14	4.007790E-16
3.220000E+03	1.100165E-14	4.025136E-16
3.230000E+03	1.109094E-14	4.044048E-16
3.240000E+03	1.118582E-14	4.064561E-16
3.250000E+03	1.128642E-14	4.086700E-16
3.260000E+03	1.139384E-14	4.110850E-16
3.270000E+03	1.150716E-14	4.136650E-16
3.280000E+03	1.162641E-14	4.164099E-16
3.290000E+03	1.175359E-14	4.193889E-16
3.300000E+03	1.188761E-14	4.225609E-16
3.310000E+03	1.202730E-14	4.258822E-16
3.320000E+03	1.217439E-14	4.294132E-16
3.330000E+03	1.232855E-14	4.331390E-16
3.340000E+03	1.248818E-14	4.370025E-16
3.350000E+03	1.265463E-14	4.410495E-16
3.360000E+03	1.282593E-14	4.452099E-16
3.370000E+03	1.300091E-14	4.494426E-16
3.380000E+03	1.317913E-14	4.537322E-16
3.390000E+03	1.335986E-14	4.580541E-16
3.400000E+03	1.353881E-14	4.622628E-16
3.410000E+03	1.371657E-14	4.663808E-16
3.420000E+03	1.388803E-14	4.702374E-16
3.430000E+03	1.405181E-14	4.737916E-16
3.440000E+03	1.420402E-14	4.769175E-16
3.450000E+03	1.433925E-14	4.794419E-16
3.460000E+03	1.445596E-14	4.813236E-16
3.470000E+03	1.454614E-14	4.823061E-16
3.480000E+03	1.460787E-14	4.823405E-16
3.490000E+03	1.463617E-14	4.812757E-16
3.500000E+03	1.462701E-14	4.789927E-16
3.510000E+03	1.458277E-14	4.755813E-16
3.520000E+03	1.450493E-14	4.711017E-16
3.530000E+03	1.439810E-14	4.657132E-16
3.540000E+03	1.426650E-14	4.595606E-16
3.550000E+03	1.411464E-14	4.527955E-16
3.560000E+03	1.394791E-14	4.455956E-16
3.570000E+03	1.376972E-14	4.380730E-16
3.580000E+03	1.358576E-14	4.304100E-16
3.590000E+03	1.339796E-14	4.226675E-16
3.600000E+03	1.320956E-14	4.149473E-16
3.610000E+03	1.302486E-14	4.073817E-16
3.620000E+03	1.284538E-14	4.000156E-16
3.630000E+03	1.267234E-14	3.928829E-16
3.640000E+03	1.250803E-14	3.860500E-16
3.650000E+03	1.235364E-14	3.795490E-16
3.660000E+03	1.221008E-14	3.734027E-16
3.670000E+03	1.207738E-14	3.676060E-16
3.680000E+03	1.195660E-14	3.621855E-16
3.690000E+03	1.184795E-14	3.571417E-16
3.700000E+03	1.175093E-14	3.524538E-16
3.710000E+03	1.166552E-14	3.481149E-16
3.720000E+03	1.159158E-14	3.441150E-16
3.730000E+03	1.152889E-14	3.404415E-16
3.740000E+03	1.147764E-14	3.370948E-16
3.750000E+03	1.143649E-14	3.340294E-16
3.760000E+03	1.140509E-14	3.312301E-16
3.770000E+03	1.138356E-14	3.286945E-16
3.780000E+03	1.137101E-14	3.263922E-16
3.790000E+03	1.136705E-14	3.243072E-16
3.800000E+03	1.137128E-14	3.224232E-16
3.810000E+03	1.138287E-14	3.207123E-16
3.820000E+03	1.140144E-14	3.191597E-16
3.830000E+03	1.142702E-14	3.177626E-16
3.840000E+03	1.145882E-14	3.164949E-16
3.850000E+03	1.149566E-14	3.153209E-16
3.860000E+03	1.153838E-14	3.142611E-16
3.870000E+03	1.158545E-14	3.132703E-16
3.880000E+03	1.163690E-14	3.123478E-16
3.890000E+03	1.169202E-14	3.114724E-16
3.900000E+03	1.175086E-14	3.106437E-16
3.910000E+03	1.181234E-14	3.098323E-16
3.920000E+03	1.187652E-14	3.090392E-16
3.930000E+03	1.194275E-14	3.082467E-16
3.940000E+03	1.201074E-14	3.074480E-16
3.950000E+03	1.207988E-14	3.066280E-16
3.960000E+03	1.215027E-14	3.057906E-16
3.970000E+03	1.222101E-14	3.049147E-16
3.980000E+03	1.229226E-14	3.040067E-16
3.990000E+03	1.236354E-14	3.030572E-16
4.000000E+03	1.243443E-14	3.020587E-16
4.010000E+03	1.250518E-14	3.010217E-16
4.020000E+03	1.257579E-14	2.999496E-16
4.030000E+03	1.264532E-14	2.988246E-16
4.040000E+03	1.271481E-14	2.976764E-16
4.050000E+03	1.278342E-14	2.964904E-16
4.060000E+03	1.285164E-14	2.952836E-16
4.070000E+03	1.291963E-14	2.940660E-16
4.080000E+03	1.298702E-14	2.928352E-16
4.090000E+03	1.305464E-14	2.916170E-16
4.100000E+03	1.312191E-14	2.904051E-16
4.110000E+03	1.318967E-14	2.892261E-16
4.120000E+03	1.325800E-14	2.880890E-16
4.130000E+03	1.332695E-14	2.870030E-16
4.140000E+03	1.339720E-14	2.859910E-16
4.150000E+03	1.346887E-14	2.850642E-16
4.160000E+03	1.354235E-14	2.842397E-16
4.170000E+03	1.361800E-14	2.835342E-16
4.180000E+03	1.369582E-14	2.829572E-16
4.190000E+03	1.377625E-14	2.825276E-16
4.200000E+03	1.385898E-14	2.822495E-16
4.210000E+03	1.394371E-14	2.821275E-16
4.220000E+03	1.403006E-14	2.821652E-16
4.230000E+03	1.411643E-14	2.823423E-16
4.240000E+03	1.420180E-14	2.826511E-16
4.250000E+03	1.428385E-14	2.830577E-16
4.260000E+03	1.436016E-14	2.835276E-16
4.270000E+03	1.442726E-14	2.840059E-16
4.280000E+03	1.448149E-14	2.844328E-16
4.290000E+03	1.451918E-14	2.847486E-16
4.300000E+03	1.453644E-14	2.848864E-16
4.310000E+03	1.452981E-14	2.847783E-16
4.320000E+03	1.449853E-14	2.844005E-16
4.330000E+03	1.444338E-14	2.837568E-16
4.340000E+03	1.436673E-14	2.828800E-16
4.350000E+03	1.427092E-14	2.818005E-16
4.360000E+03	1.415897E-14	2.805611E-16
4.370000E+03	1.403382E-14	2.792021E-16
4.380000E+03	1.389761E-14	2.777477E-16
4.390000E+03	1.375322E-14	2.762382E-16
4.400000E+03	1.360271E-14	2.746977E-16
4.410000E+03	1.344845E-14	2.731575E-16
4.420000E+03	1.329220E-14	2.716384E-16
4.430000E+03	1.313561E-14	2.701599E-16
4.440000E+03	1.298070E-14	2.687510E-16
4.450000E+03	1.282895E-14	2.674310E-16
4.460000E+03	1.268116E-14	2.662068E-16
4.470000E+03	1.253840E-14	2.650920E-16
4.480000E+03	1.240182E-14	2.641033E-16
4.490000E+03	1.227163E-14	2.632392E-16
4.500000E+03	1.214819E-14	2.625017E-16
4.510000E+03	1.203187E-14	2.618943E-16
4.520000E+03	1.192270E-14	2.614136E-16
4.530000E+03	1.182021E-14	2.610463E-16
4.540000E+03	1.172439E-14	2.607890E-16
4.550000E+03	1.163484E-14	2.606304E-16
4.560000E+03	1.155144E-14	2.605652E-16
4.570000E+03	1.147358E-14	2.605781E-16
4.580000E+03	1.140117E-14	2.606650E-16
4.590000E+03	1.133401E-14	2.608197E-16
4.600000E+03	1.127178E-14	2.610332E-16
4.610000E+03	1.121421E-14	2.612984E-16
4.620000E+03	1.116143E-14	2.616165E-16
4.630000E+03	1.111329E-14	2.619836E-16
4.640000E+03	1.106988E-14	2.624004E-16
4.650000E+03	1.103116E-14	2.628657E-16
4.660000E+03	1.099757E-14	2.633894E-16
4.670000E+03	1.096887E-14	2.639652E-16
4.680000E+03	1.094554E-14	2.646041E-16
4.690000E+03	1.092762E-14	2.653073E-16
4.700000E+03	1.091530E-14	2.660787E-16
4.710000E+03	1.090870E-14	2.669219E-16
4.720000E+03	1.090781E-14	2.678357E-16
4.730000E+03	1.091280E-14	2.688242E-16
4.740000E+03	1.092335E-14	2.698796E-16
4.750000E+03	1.093946E-14	2.710013E-16
4.760000E+03	1.096091E-14	2.721832E-16
4.770000E+03	1.098707E-14	2.734088E-16
4.780000E+03	1.101746E-14	2.746657E-16
4.790000E+03	1.105147E-14	2.759377E-16
4.800000E+03	1.108824E-14	2.772019E-16
4.810000E+03	1.112705E-14	2.784391E-16
4.820000E+03	1.116696E-14	2.796247E-16
4.830000E+03	1.120705E-14	2.807342E-16
4.840000E+03	1.124609E-14	2.817359E-16
4.850000E+03	1.128320E-14	2.826065E-16
4.860000E+03	1.131700E-14	2.833108E-16
4.870000E+03	1.134676E-14	2.838297E-16
4.880000E+03	1.137118E-14	2.841307E-16
4.890000E+03	1.138958E-14	2.841968E-16
4.900000E+03	1.140100E-14	2.840049E-16
4.910000E+03	1.140477E-14	2.835397E-16
4.920000E+03	1.140054E-14	2.827936E-16
4.930000E+03	1.138786E-14	2.817584E-16
4.940000E+03	1.136676E-14	2.804372E-16
4.950000E+03	1.133731E-14	2.788351E-16
4.960000E+03	1.129979E-14	2.769624E-16
4.970000E+03	1.125462E-14	2.748340E-16
4.980000E+03	1.120237E-14	2.724678E-16
4.990000E+03	1.114375E-14	2.698854E-16
5.000000E+03	1.107960E-14	2.671123E-16
5.010000E+03	1.101062E-14	2.641700E-16
5.020000E+03	1.093774E-14	2.610855E-16
5.030000E+03	1.086167E-14	2.578805E-16
5.040000E+03	1.078330E-14	2.545809E-16
5.050000E+03	1.070341E-14	2.512091E-16
5.060000E+03	1.062269E-14	2.477860E-16
5.070000E+03	1.054183E-14	2.443318E-16
5.080000E+03	1.046145E-14	2.408647E-16
5.090000E+03	1.038215E-14	2.374021E-16
5.100000E+03	1.030459E-14	2.339628E-16
5.110000E+03	1.022930E-14	2.305620E-16
5.120000E+03	1.015660E-14	2.272100E-16
5.130000E+03	1.008703E-14	2.239216E-16
5.140000E+03	1.002092E-14	2.207071E-16
5.150000E+03	9.958545E-15	2.175748E-16
5.160000E+03	9.899981E-15	2.145291E-16
5.170000E+03	9.845523E-15	2.115788E-16
5.180000E+03	9.795089E-15	2.087247E-16
5.190000E+03	9.748610E-15	2.059679E-16
5.200000E+03	9.706022E-15	2.033097E-16
5.210000E+03	9.667026E-15	2.007470E-16
5.220000E+03	9.631359E-15	1.982774E-16
5.230000E+03	9.598818E-15	1.959003E-16
5.240000E+03	9.568979E-15	1.936109E-16
5.250000E+03	9.541594E-15	1.914083E-16
5.260000E+03	9.516206E-15	1.892879E-16
5.270000E+03	9.492546E-15	1.872492E-16
5.280000E+03	9.470233E-15	1.852897E-16
5.290000E+03	9.448878E-15	1.834073E-16
5.300000E+03	9.427978E-15	1.815980E-16
5.310000E+03	9.407209E-15	1.798614E-16
5.320000E+03	9.386038E-15	1.781935E-16
5.330000E+03	9.364109E-15	1.765937E-16
5.340000E+03	9.340957E-15	1.750597E-16
5.350000E+03	9.316117E-15	1.735889E-16
5.360000E+03	9.289041E-15	1.721773E-16
5.370000E+03	9.259394E-15	1.708245E-16
5.380000E+03	9.226801E-15	1.695292E-16
5.390000E+03	9.190962E-15	1.682910E-16
5.400000E+03	9.151600E-15	1.671092E-16
5.410000E+03	9.108774E-15	1.659867E-16
5.420000E+03	9.062569E-15	1.649199E-16
5.430000E+03	9.013588E-15	1.639127E-16
5.440000E+03	8.962692E-15	1.629730E-16
5.450000E+03	8.910796E-15	1.621095E-16
5.460000E+03	8.858685E-15	1.613283E-16
5.470000E+03	8.807333E-15	1.606390E-16
5.480000E+03	8.757245E-15	1.600429E-16
5.490000E+03	8.709141E-15	1.595453E-16
5.500000E+03	8.663326E-15	1.591443E-16
5.510000E+03	8.620133E-15	1.588388E-16
5.520000E+03	8.579663E-15	1.586239E-16
5.530000E+03	8.541901E-15	1.584926E-16
5.540000E+03	8.506735E-15	1.584368E-16
5.550000E+03	8.474078E-15	1.584486E-16
5.560000E+03	8.443641E-15	1.585172E-16
5.570000E+03	8.415226E-15	1.586333E-16
5.580000E+03	8.388589E-15	1.587871E-16
5.590000E+03	8.363799E-15	1.589750E-16
5.600000E+03	8.340754E-15	1.591903E-16
5.610000E+03	8.319453E-15	1.594285E-16
5.620000E+03	8.300238E-15	1.596922E-16
5.630000E+03	8.283298E-15	1.599812E-16
5.640000E+03	8.268988E-15	1.602987E-16
5.650000E+03	8.257803E-15	1.606511E-16
5.660000E+03	8.250036E-15	1.610412E-16
5.670000E+03	8.246325E-15	1.614786E-16
5.680000E+03	8.247136E-15	1.619700E-16
5.690000E+03	8.252830E-15	1.625203E-16
5.700000E+03	8.263810E-15	1.631350E-16
5.710000E+03	8.280504E-15	1.638207E-16
5.720000E+03	8.303118E-15	1.645792E-16
5.730000E+03	8.331954E-15	1.654146E-16
5.740000E+03	8.367078E-15	1.663261E-16
5.750000E+03	8.408645E-15	1.673146E-16
5.760000E+03	8.456648E-15	1.683777E-16
5.770000E+03	8.510908E-15	1.695094E-16
5.780000E+03	8.571320E-15	1.707053E-16
5.790000E+03	8.637510E-15	1.719553E-16
5.800000E+03	8.709156E-15	1.732502E-16
5.810000E+03	8.785740E-15	1.745769E-16
5.820000E+03	8.866523E-15	1.759180E-16
5.830000E+03	8.950726E-15	1.772551E-16
5.840000E+03	9.037531E-15	1.785694E-16
5.850000E+03	9.125910E-15	1.798379E-16
5.860000E+03	9.214639E-15	1.810342E-16
5.870000E+03	9.302493E-15	1.821322E-16
5.880000E+03	9.388189E-15	1.831053E-16
5.890000E+03	9.470517E-15	1.839291E-16
5.900000E+03	9.548007E-15	1.845747E-16
5.910000E+03	9.619629E-15	1.850226E-16
5.920000E+03	9.684097E-15	1.852496E-16
5.930000E+03	9.740578E-15	1.852418E-16
5.940000E+03	9.788360E-15	1.849890E-16
5.950000E+03	9.826895E-15	1.844846E-16
5.960000E+03	9.856118E-15	1.837322E-16
5.970000E+03	9.875989E-15	1.827365E-16
5.980000E+03	9.887076E-15	1.815141E-16
5.990000E+03	9.890165E-15	1.800857E-16
6.000000E+03	9.886334E-15	1.784777E-16
6.010000E+03	9.876725E-15	1.767173E-16
6.020000E+03	9.863078E-15	1.748423E-16
6.030000E+03	9.846815E-15	1.728840E-16
6.040000E+03	9.829949E-15	1.708835E-16
6.050000E+03	9.814252E-15	1.688771E-16
6.060000E+03	9.801400E-15	1.668982E-16
6.070000E+03	9.793303E-15	1.649836E-16
6.080000E+03	9.791582E-15	1.631641E-16
6.090000E+03	9.797718E-15	1.614675E-16
6.100000E+03	9.813009E-15	1.599183E-16
6.110000E+03	9.838635E-15	1.585383E-16
6.120000E+03	9.875432E-15	1.573440E-16
6.130000E+03	9.923848E-15	1.563458E-16
6.140000E+03	9.984295E-15	1.555543E-16
6.150000E+03	1.005643E-14	1.549690E-16
6.160000E+03	1.013987E-14	1.545907E-16
6.170000E+03	1.023357E-14	1.544114E-16
6.180000E+03	1.033598E-14	1.544177E-16
6.190000E+03	1.044517E-14	1.545930E-16
6.200000E+03	1.055854E-14	1.549131E-16
6.210000E+03	1.067288E-14	1.553481E-16
6.220000E+03	1.078447E-14	1.558626E-16
6.230000E+03	1.088929E-14	1.564193E-16
6.240000E+03	1.098301E-14	1.569778E-16
6.250000E+03	1.106166E-14	1.575034E-16
6.260000E+03	1.112159E-14	1.579653E-16
6.270000E+03	1.116039E-14	1.583485E-16
6.280000E+03	1.117729E-14	1.586584E-16
6.290000E+03	1.117359E-14	1.589257E-16
6.300000E+03	1.115224E-14	1.592005E-16
6.310000E+03	1.111747E-14	1.595388E-16
6.320000E+03	1.107419E-14	1.599970E-16
6.330000E+03	1.102731E-14	1.606305E-16
6.340000E+03	1.098184E-14	1.614970E-16
6.350000E+03	1.094188E-14	1.626430E-16
6.360000E+03	1.091157E-14	1.641177E-16
6.370000E+03	1.089405E-14	1.659591E-16
6.380000E+03	1.089166E-14	1.681965E-16
6.390000E+03	1.090649E-14	1.708581E-16
6.400000E+03	1.093973E-14	1.739616E-16
6.410000E+03	1.099215E-14	1.775202E-16
6.420000E+03	1.106370E-14	1.815364E-16
6.430000E+03	1.115410E-14	1.860094E-16
6.440000E+03	1.126255E-14	1.909312E-16
6.450000E+03	1.138761E-14	1.962825E-16
6.460000E+03	1.152749E-14	2.020371E-16
6.470000E+03	1.167991E-14	2.081587E-16
6.480000E+03	1.184248E-14	2.146069E-16
6.490000E+03	1.201238E-14	2.213305E-16
6.500000E+03	1.218639E-14	2.282681E-16
6.510000E+03	1.236181E-14	2.353635E-16
6.520000E+03	1.253496E-14	2.425391E-16
6.530000E+03	1.270266E-14	2.497225E-16
6.540000E+03	1.286134E-14	2.568292E-16
6.550000E+03	1.300791E-14	2.637805E-16
6.560000E+03	1.313919E-14	2.704919E-16
6.570000E+03	1.325193E-14	2.768739E-16
6.580000E+03	1.334373E-14	2.828516E-16
6.590000E+03	1.341236E-14	2.883507E-16
6.600000E+03	1.345579E-14	2.933000E-16
6.610000E+03	1.347285E-14	2.976449E-16
6.620000E+03	1.346259E-14	3.013356E-16
6.630000E+03	1.342489E-14	3.043406E-16
6.640000E+03	1.336006E-14	3.066394E-16
6.650000E+03	1.326875E-14	3.082207E-16
6.660000E+03	1.315258E-14	3.090980E-16
6.670000E+03	1.301310E-14	3.092862E-16
6.680000E+03	1.285240E-14	3.088155E-16
6.690000E+03	1.267297E-14	3.077292E-16
6.700000E+03	1.247717E-14	3.060718E-16
6.710000E+03	1.226782E-14	3.039012E-16
6.720000E+03	1.204759E-14	3.012764E-16
6.730000E+03	1.181898E-14	2.982544E-16
6.740000E+03	1.158484E-14	2.949051E-16
6.750000E+03	1.134746E-14	2.912866E-16
6.760000E+03	1.110924E-14	2.874617E-16
6.770000E+03	1.087211E-14	2.834844E-16
6.780000E+03	1.063806E-14	2.794111E-16
6.790000E+03	1.040863E-14	2.752884E-16
6.800000E+03	1.018550E-14	2.711677E-16
6.810000E+03	9.969643E-15	2.670825E-16
6.820000E+03	9.762330E-15	2.630748E-16
6.830000E+03	9.564273E-15	2.591722E-16
6.840000E+03	9.376128E-15	2.554006E-16
6.850000E+03	9.198388E-15	2.517817E-16
6.860000E+03	9.031505E-15	2.483359E-16
6.870000E+03	8.875568E-15	2.450733E-16
6.880000E+03	8.730764E-15	2.420064E-16
6.890000E+03	8.597055E-15	2.391408E-16
6.900000E+03	8.474193E-15	2.364759E-16
6.910000E+03	8.362054E-15	2.340141E-16
6.920000E+03	8.260215E-15	2.317486E-16
6.930000E+03	8.168495E-15	2.296790E-16
6.940000E+03	8.086231E-15	2.277906E-16
6.950000E+03	8.012907E-15	2.260725E-16
6.960000E+03	7.948159E-15	2.245171E-16
6.970000E+03	7.891172E-15	2.231042E-16
6.980000E+03	7.841395E-15	2.218201E-16
6.990000E+03	7.798144E-15	2.206471E-16
7.000000E+03	7.760614E-15	2.195638E-16
7.010000E+03	7.728274E-15	2.185562E-16
7.020000E+03	7.700090E-15	2.175959E-16
7.030000E+03	7.675616E-15	2.166711E-16
7.040000E+03	7.653825E-15	2.157531E-16
7.050000E+03	7.634293E-15	2.148308E-16
7.060000E+03	7.616035E-15	2.138770E-16
7.070000E+03	7.598593E-15	2.128794E-16
7.080000E+03	7.581270E-15	2.118195E-16
7.090000E+03	7.563528E-15	2.106830E-16
7.100000E+03	7.544903E-15	2.094583E-16
7.110000E+03	7.525019E-15	2.081365E-16
7.120000E+03	7.503591E-15	2.067112E-16
7.130000E+03	7.480340E-15	2.051767E-16
7.140000E+03	7.455181E-15	2.035328E-16
7.150000E+03	7.428229E-15	2.017849E-16
7.160000E+03	7.399392E-15	1.999330E-16
7.170000E+03	7.369050E-15	1.979900E-16
7.180000E+03	7.337160E-15	1.959574E-16
7.190000E+03	7.304305E-15	1.938535E-16
7.200000E+03	7.270520E-15	1.916820E-16
7.210000E+03	7.236235E-15	1.894568E-16
7.220000E+03	7.201682E-15	1.871868E-16
7.230000E+03	7.167261E-15	1.848850E-16
7.240000E+03	7.133147E-15	1.825584E-16
7.250000E+03	7.099377E-15	1.802106E-16
7.260000E+03	7.066309E-15	1.778533E-16
7.270000E+03	7.033963E-15	1.754895E-16
7.280000E+03	7.002296E-15	1.731209E-16
7.290000E+03	6.971205E-15	1.707479E-16
7.300000E+03	6.940713E-15	1.683740E-16
7.310000E+03	6.910606E-15	1.659973E-16
7.320000E+03	6.880626E-15	1.636153E-16
7.330000E+03	6.850479E-15	1.612250E-16
7.340000E+03	6.820027E-15	1.588276E-16
7.350000E+03	6.788849E-15	1.564180E-16
7.360000E+03	6.756616E-15	1.539941E-16
7.370000E+03	6.723187E-15	1.515584E-16
7.380000E+03	6.688263E-15	1.491103E-16
7.390000E+03	6.651484E-15	1.466486E-16
7.400000E+03	6.612796E-15	1.441792E-16
7.410000E+03	6.571913E-15	1.417032E-16
7.420000E+03	6.528858E-15	1.392289E-16
7.430000E+03	6.483340E-15	1.367582E-16
7.440000E+03	6.435632E-15	1.343050E-16
7.450000E+03	6.385606E-15	1.318749E-16
7.460000E+03	6.333345E-15	1.294779E-16
7.470000E+03	6.279208E-15	1.271297E-16
7.480000E+03	6.223157E-15	1.248374E-16
7.490000E+03	6.165593E-15	1.226170E-16
7.500000E+03	6.106516E-15	1.204759E-16
7.510000E+03	6.046355E-15	1.184299E-16
7.520000E+03	5.985218E-15	1.164877E-16
7.530000E+03	5.923471E-15	1.146628E-16
7.540000E+03	5.861245E-15	1.129633E-16
7.550000E+03	5.798848E-15	1.114003E-16
7.560000E+03	5.736676E-15	1.099855E-16
7.570000E+03	5.674819E-15	1.087246E-16
7.580000E+03	5.613698E-15	1.076283E-16
7.590000E+03	5.553671E-15	1.067057E-16
7.600000E+03	5.494881E-15	1.059610E-16
7.610000E+03	5.437872E-15	1.054053E-16
7.620000E+03	5.382827E-15	1.050416E-16
7.630000E+03	5.330253E-15	1.048742E-16
7.640000E+03	5.280528E-15	1.049039E-16
7.650000E+03	5.233977E-15	1.051308E-16
7.660000E+03	5.191103E-15	1.055587E-16
7.670000E+03	5.152354E-15	1.061913E-16
7.680000E+03	5.118203E-15	1.070334E-16
7.690000E+03	5.089202E-15	1.080931E-16
7.700000E+03	5.065731E-15	1.093756E-16
7.710000E+03	5.048118E-15	1.108869E-16
7.720000E+03	5.036364E-15	1.126264E-16
7.730000E+03	5.029903E-15	1.145820E-16
7.740000E+03	5.028112E-15	1.167397E-16
7.750000E+03	5.030434E-15	1.190869E-16
7.760000E+03	5.036269E-15	1.216094E-16
