#wls	flux	fluxerr
1.600000E+03	5.932122E-15	4.913267E-16
1.640000E+03	6.048762E-15	4.898735E-16
1.680000E+03	6.168411E-15	4.882654E-16
1.720000E+03	6.293559E-15	4.867035E-16
1.760000E+03	6.421996E-15	4.850197E-16
1.800000E+03	6.555895E-15	4.833898E-16
1.840000E+03	6.694668E-15	4.817806E-16
1.880000E+03	6.836936E-15	4.801130E-16
1.920000E+03	6.982673E-15	4.784165E-16
1.960000E+03	7.125173E-15	4.762805E-16
2.000000E+03	7.262265E-15	4.736407E-16
2.040000E+03	7.386532E-15	4.701175E-16
2.080000E+03	7.489651E-15	4.653239E-16
2.120000E+03	7.572930E-15	4.595058E-16
2.160000E+03	7.639439E-15	4.529980E-16
2.200000E+03	7.699465E-15	4.465007E-16
2.240000E+03	7.763043E-15	4.406264E-16
2.280000E+03	7.838563E-15	4.358468E-16
2.320000E+03	7.936597E-15	4.327054E-16
2.360000E+03	8.060418E-15	4.312954E-16
2.400000E+03	8.215264E-15	4.318062E-16
2.440000E+03	8.400002E-15	4.340885E-16
2.480000E+03	8.609438E-15	4.378008E-16
2.520000E+03	8.829992E-15	4.422072E-16
2.560000E+03	9.042782E-15	4.463569E-16
2.600000E+03	9.221353E-15	4.489848E-16
2.640000E+03	9.340952E-15	4.489723E-16
2.680000E+03	9.401484E-15	4.464209E-16
2.720000E+03	9.419573E-15	4.421827E-16
2.760000E+03	9.416317E-15	4.372271E-16
2.800000E+03	9.408913E-15	4.322933E-16
2.840000E+03	9.409363E-15	4.278550E-16
2.880000E+03	9.423047E-15	4.240721E-16
2.920000E+03	9.456344E-15	4.211466E-16
2.960000E+03	9.512985E-15	4.191599E-16
3.000000E+03	9.598635E-15	4.182774E-16
3.010000E+03	9.625175E-15	4.182452E-16
3.020000E+03	9.654458E-15	4.183158E-16
3.030000E+03	9.686552E-15	4.184904E-16
3.040000E+03	9.720393E-15	4.187216E-16
3.050000E+03	9.756069E-15	4.190121E-16
3.060000E+03	9.795918E-15	4.194608E-16
3.070000E+03	9.837775E-15	4.199732E-16
3.080000E+03	9.883984E-15	4.206478E-16
3.090000E+03	9.932399E-15	4.213915E-16
3.100000E+03	9.984253E-15	4.222552E-16
3.110000E+03	1.003966E-14	4.232419E-16
3.120000E+03	1.009873E-14	4.243548E-16
3.130000E+03	1.016160E-14	4.255973E-16
3.140000E+03	1.022952E-14	4.270198E-16
3.150000E+03	1.030038E-14	4.285325E-16
3.160000E+03	1.037655E-14	4.302323E-16
3.170000E+03	1.045819E-14	4.321228E-16
3.180000E+03	1.054432E-14	4.341611E-16
3.190000E+03	1.063619E-14	4.363971E-16
3.200000E+03	1.073283E-14	4.387878E-16
3.210000E+03	1.083661E-14	4.414281E-16
3.220000E+03	1.094541E-14	4.442285E-16
3.230000E+03	1.106047E-14	4.472364E-16
3.240000E+03	1.118186E-14	4.504524E-16
3.250000E+03	1.131078E-14	4.539218E-16
3.260000E+03	1.144613E-14	4.575971E-16
3.270000E+03	1.158788E-14	4.614739E-16
3.280000E+03	1.173708E-14	4.655916E-16
3.290000E+03	1.189361E-14	4.699420E-16
3.300000E+03	1.205720E-14	4.745115E-16
3.310000E+03	1.222755E-14	4.792850E-16
3.320000E+03	1.240534E-14	4.842864E-16
3.330000E+03	1.258877E-14	4.894430E-16
3.340000E+03	1.277710E-14	4.947230E-16
3.350000E+03	1.297046E-14	5.001308E-16
3.360000E+03	1.316886E-14	5.056646E-16
3.370000E+03	1.336842E-14	5.111745E-16
3.380000E+03	1.356978E-14	5.166849E-16
3.390000E+03	1.376963E-14	5.220707E-16
3.400000E+03	1.396798E-14	5.273342E-16
3.410000E+03	1.415961E-14	5.322811E-16
3.420000E+03	1.434383E-14	5.368902E-16
3.430000E+03	1.451596E-14	5.409915E-16
3.440000E+03	1.467344E-14	5.444978E-16
3.450000E+03	1.481226E-14	5.472697E-16
3.460000E+03	1.492828E-14	5.491651E-16
3.470000E+03	1.501854E-14	5.500886E-16
3.480000E+03	1.507769E-14	5.498586E-16
3.490000E+03	1.510290E-14	5.483881E-16
3.500000E+03	1.509160E-14	5.456004E-16
3.510000E+03	1.504504E-14	5.415552E-16
3.520000E+03	1.496389E-14	5.362921E-16
3.530000E+03	1.485220E-14	5.299696E-16
3.540000E+03	1.471353E-14	5.227271E-16
3.550000E+03	1.455186E-14	5.147158E-16
3.560000E+03	1.437234E-14	5.061263E-16
3.570000E+03	1.417799E-14	4.970713E-16
3.580000E+03	1.397373E-14	4.877283E-16
3.590000E+03	1.376224E-14	4.781935E-16
3.600000E+03	1.354863E-14	4.686459E-16
3.610000E+03	1.333491E-14	4.591548E-16
3.620000E+03	1.312364E-14	4.498066E-16
3.630000E+03	1.291698E-14	4.406741E-16
3.640000E+03	1.271757E-14	4.318429E-16
3.650000E+03	1.252607E-14	4.233322E-16
3.660000E+03	1.234371E-14	4.151786E-16
3.670000E+03	1.217281E-14	4.074553E-16
3.680000E+03	1.201262E-14	4.001310E-16
3.690000E+03	1.186362E-14	3.932166E-16
3.700000E+03	1.172740E-14	3.867585E-16
3.710000E+03	1.160279E-14	3.807121E-16
3.720000E+03	1.149043E-14	3.750921E-16
3.730000E+03	1.138962E-14	3.698700E-16
3.740000E+03	1.130076E-14	3.650528E-16
3.750000E+03	1.122359E-14	3.606256E-16
3.760000E+03	1.115777E-14	3.565722E-16
3.770000E+03	1.110243E-14	3.528587E-16
3.780000E+03	1.105771E-14	3.494843E-16
3.790000E+03	1.102269E-14	3.464148E-16
3.800000E+03	1.099745E-14	3.436477E-16
3.810000E+03	1.098108E-14	3.411494E-16
3.820000E+03	1.097314E-14	3.389024E-16
3.830000E+03	1.097322E-14	3.368893E-16
3.840000E+03	1.098087E-14	3.350927E-16
3.850000E+03	1.099567E-14	3.334962E-16
3.860000E+03	1.101676E-14	3.320704E-16
3.870000E+03	1.104459E-14	3.308255E-16
3.880000E+03	1.107747E-14	3.297088E-16
3.890000E+03	1.111586E-14	3.287314E-16
3.900000E+03	1.115896E-14	3.278675E-16
3.910000E+03	1.120602E-14	3.270937E-16
3.920000E+03	1.125747E-14	3.264213E-16
3.930000E+03	1.131182E-14	3.258064E-16
3.940000E+03	1.136955E-14	3.252619E-16
3.950000E+03	1.142999E-14	3.247687E-16
3.960000E+03	1.149289E-14	3.243199E-16
3.970000E+03	1.155766E-14	3.238996E-16
3.980000E+03	1.162413E-14	3.235038E-16
3.990000E+03	1.169249E-14	3.231391E-16
4.000000E+03	1.176192E-14	3.227843E-16
4.010000E+03	1.183235E-14	3.224396E-16
4.020000E+03	1.190408E-14	3.221150E-16
4.030000E+03	1.197675E-14	3.218036E-16
4.040000E+03	1.205038E-14	3.215087E-16
4.050000E+03	1.212470E-14	3.212259E-16
4.060000E+03	1.219981E-14	3.209610E-16
4.070000E+03	1.227581E-14	3.207206E-16
4.080000E+03	1.235285E-14	3.205118E-16
4.090000E+03	1.243079E-14	3.203350E-16
4.100000E+03	1.250980E-14	3.201989E-16
4.110000E+03	1.259008E-14	3.201131E-16
4.120000E+03	1.267158E-14	3.200804E-16
4.130000E+03	1.275481E-14	3.201186E-16
4.140000E+03	1.283968E-14	3.202306E-16
4.150000E+03	1.292611E-14	3.204192E-16
4.160000E+03	1.301459E-14	3.207019E-16
4.170000E+03	1.310490E-14	3.210791E-16
4.180000E+03	1.319733E-14	3.215637E-16
4.190000E+03	1.329117E-14	3.221442E-16
4.200000E+03	1.338637E-14	3.228263E-16
4.210000E+03	1.348208E-14	3.235962E-16
4.220000E+03	1.357773E-14	3.244475E-16
4.230000E+03	1.367158E-14	3.253464E-16
4.240000E+03	1.376267E-14	3.262780E-16
4.250000E+03	1.384849E-14	3.271916E-16
4.260000E+03	1.392706E-14	3.280492E-16
4.270000E+03	1.399580E-14	3.287986E-16
4.280000E+03	1.405133E-14	3.293693E-16
4.290000E+03	1.409134E-14	3.297157E-16
4.300000E+03	1.411312E-14	3.297819E-16
4.310000E+03	1.411407E-14	3.295094E-16
4.320000E+03	1.409361E-14	3.288807E-16
4.330000E+03	1.405236E-14	3.279052E-16
4.340000E+03	1.399152E-14	3.266034E-16
4.350000E+03	1.391331E-14	3.250186E-16
4.360000E+03	1.381988E-14	3.231924E-16
4.370000E+03	1.371325E-14	3.211621E-16
4.380000E+03	1.359569E-14	3.189701E-16
4.390000E+03	1.346912E-14	3.166512E-16
4.400000E+03	1.333608E-14	3.142544E-16
4.410000E+03	1.319809E-14	3.118060E-16
4.420000E+03	1.305702E-14	3.093401E-16
4.430000E+03	1.291455E-14	3.068874E-16
4.440000E+03	1.277223E-14	3.044766E-16
4.450000E+03	1.263146E-14	3.021329E-16
4.460000E+03	1.249302E-14	2.998680E-16
4.470000E+03	1.235816E-14	2.977055E-16
4.480000E+03	1.222789E-14	2.956637E-16
4.490000E+03	1.210252E-14	2.937451E-16
4.500000E+03	1.198288E-14	2.919654E-16
4.510000E+03	1.186897E-14	2.903204E-16
4.520000E+03	1.176114E-14	2.888157E-16
4.530000E+03	1.165951E-14	2.874504E-16
4.540000E+03	1.156389E-14	2.862173E-16
4.550000E+03	1.147420E-14	2.851122E-16
4.560000E+03	1.139036E-14	2.841303E-16
4.570000E+03	1.131220E-14	2.832659E-16
4.580000E+03	1.123942E-14	2.825096E-16
4.590000E+03	1.117206E-14	2.818603E-16
4.600000E+03	1.110969E-14	2.813060E-16
4.610000E+03	1.105253E-14	2.808506E-16
4.620000E+03	1.100008E-14	2.804802E-16
4.630000E+03	1.095276E-14	2.802046E-16
4.640000E+03	1.091015E-14	2.800117E-16
4.650000E+03	1.087229E-14	2.799019E-16
4.660000E+03	1.083954E-14	2.798831E-16
4.670000E+03	1.081155E-14	2.799458E-16
4.680000E+03	1.078854E-14	2.800948E-16
4.690000E+03	1.077073E-14	2.803352E-16
4.700000E+03	1.075789E-14	2.806604E-16
4.710000E+03	1.075006E-14	2.810705E-16
4.720000E+03	1.074734E-14	2.815680E-16
4.730000E+03	1.074953E-14	2.821467E-16
4.740000E+03	1.075663E-14	2.828056E-16
4.750000E+03	1.076841E-14	2.835383E-16
4.760000E+03	1.078457E-14	2.843361E-16
4.770000E+03	1.080472E-14	2.851876E-16
4.780000E+03	1.082864E-14	2.860862E-16
4.790000E+03	1.085572E-14	2.870152E-16
4.800000E+03	1.088532E-14	2.879562E-16
4.810000E+03	1.091653E-14	2.888845E-16
4.820000E+03	1.094854E-14	2.897772E-16
4.830000E+03	1.098020E-14	2.906034E-16
4.840000E+03	1.101086E-14	2.913448E-16
4.850000E+03	1.103932E-14	2.919691E-16
4.860000E+03	1.106466E-14	2.924511E-16
4.870000E+03	1.108623E-14	2.927736E-16
4.880000E+03	1.110294E-14	2.929078E-16
4.890000E+03	1.111401E-14	2.928334E-16
4.900000E+03	1.111906E-14	2.925409E-16
4.910000E+03	1.111741E-14	2.920136E-16
4.920000E+03	1.110865E-14	2.912419E-16
4.930000E+03	1.109265E-14	2.902244E-16
4.940000E+03	1.106930E-14	2.889599E-16
4.950000E+03	1.103852E-14	2.874488E-16
4.960000E+03	1.100072E-14	2.857047E-16
4.970000E+03	1.095623E-14	2.837392E-16
4.980000E+03	1.090535E-14	2.815627E-16
4.990000E+03	1.084873E-14	2.791956E-16
5.000000E+03	1.078695E-14	2.766565E-16
5.010000E+03	1.072080E-14	2.739686E-16
5.020000E+03	1.065097E-14	2.711534E-16
5.030000E+03	1.057802E-14	2.682286E-16
5.040000E+03	1.050291E-14	2.652218E-16
5.050000E+03	1.042611E-14	2.621480E-16
5.060000E+03	1.034851E-14	2.590331E-16
5.070000E+03	1.027077E-14	2.558960E-16
5.080000E+03	1.019337E-14	2.527523E-16
5.090000E+03	1.011702E-14	2.496217E-16
5.100000E+03	1.004236E-14	2.465225E-16
5.110000E+03	9.969645E-15	2.434634E-16
5.120000E+03	9.899526E-15	2.404625E-16
5.130000E+03	9.832256E-15	2.375278E-16
5.140000E+03	9.768262E-15	2.346715E-16
5.150000E+03	9.707673E-15	2.318985E-16
5.160000E+03	9.650763E-15	2.292170E-16
5.170000E+03	9.597624E-15	2.266309E-16
5.180000E+03	9.548281E-15	2.241422E-16
5.190000E+03	9.502687E-15	2.217517E-16
5.200000E+03	9.460730E-15	2.194583E-16
5.210000E+03	9.422242E-15	2.172601E-16
5.220000E+03	9.387004E-15	2.151539E-16
5.230000E+03	9.354850E-15	2.131381E-16
5.240000E+03	9.325285E-15	2.112036E-16
5.250000E+03	9.298178E-15	2.093500E-16
5.260000E+03	9.273174E-15	2.075721E-16
5.270000E+03	9.249710E-15	2.058600E-16
5.280000E+03	9.227593E-15	2.042126E-16
5.290000E+03	9.206421E-15	2.026244E-16
5.300000E+03	9.185691E-15	2.010875E-16
5.310000E+03	9.164983E-15	1.995966E-16
5.320000E+03	9.143971E-15	1.981482E-16
5.330000E+03	9.122138E-15	1.967349E-16
5.340000E+03	9.099164E-15	1.953539E-16
5.350000E+03	9.074555E-15	1.939982E-16
5.360000E+03	9.048031E-15	1.926659E-16
5.370000E+03	9.019166E-15	1.913515E-16
5.380000E+03	8.987775E-15	1.900548E-16
5.390000E+03	8.953564E-15	1.887728E-16
5.400000E+03	8.916513E-15	1.875082E-16
5.410000E+03	8.876622E-15	1.862622E-16
5.420000E+03	8.833941E-15	1.850328E-16
5.430000E+03	8.788911E-15	1.838248E-16
5.440000E+03	8.742020E-15	1.826440E-16
5.450000E+03	8.694072E-15	1.815022E-16
5.460000E+03	8.645518E-15	1.804042E-16
5.470000E+03	8.596956E-15	1.793574E-16
5.480000E+03	8.549098E-15	1.783719E-16
5.490000E+03	8.502240E-15	1.774490E-16
5.500000E+03	8.456845E-15	1.765938E-16
5.510000E+03	8.413207E-15	1.758077E-16
5.520000E+03	8.371529E-15	1.750907E-16
5.530000E+03	8.331862E-15	1.744395E-16
5.540000E+03	8.294357E-15	1.738534E-16
5.550000E+03	8.258956E-15	1.733271E-16
5.560000E+03	8.225908E-15	1.728622E-16
5.570000E+03	8.194957E-15	1.724498E-16
5.580000E+03	8.166278E-15	1.720902E-16
5.590000E+03	8.139825E-15	1.717791E-16
5.600000E+03	8.115759E-15	1.715169E-16
5.610000E+03	8.094126E-15	1.713017E-16
5.620000E+03	8.075190E-15	1.711363E-16
5.630000E+03	8.059106E-15	1.710215E-16
5.640000E+03	8.046235E-15	1.709623E-16
5.650000E+03	8.036818E-15	1.709618E-16
5.660000E+03	8.031277E-15	1.710265E-16
5.670000E+03	8.029891E-15	1.711606E-16
5.680000E+03	8.033094E-15	1.713711E-16
5.690000E+03	8.041226E-15	1.716635E-16
5.700000E+03	8.054438E-15	1.720392E-16
5.710000E+03	8.073236E-15	1.725072E-16
5.720000E+03	8.097601E-15	1.730653E-16
5.730000E+03	8.127847E-15	1.737183E-16
5.740000E+03	8.164061E-15	1.744664E-16
5.750000E+03	8.206175E-15	1.753062E-16
5.760000E+03	8.254113E-15	1.762342E-16
5.770000E+03	8.307711E-15	1.772449E-16
5.780000E+03	8.366786E-15	1.783325E-16
5.790000E+03	8.430813E-15	1.794838E-16
5.800000E+03	8.499482E-15	1.806901E-16
5.810000E+03	8.572133E-15	1.819355E-16
5.820000E+03	8.647991E-15	1.832016E-16
5.830000E+03	8.726432E-15	1.844734E-16
5.840000E+03	8.806393E-15	1.857267E-16
5.850000E+03	8.886979E-15	1.869413E-16
5.860000E+03	8.967146E-15	1.880940E-16
5.870000E+03	9.045712E-15	1.891592E-16
5.880000E+03	9.121565E-15	1.901134E-16
5.890000E+03	9.193693E-15	1.909356E-16
5.900000E+03	9.260961E-15	1.916027E-16
5.910000E+03	9.322415E-15	1.920963E-16
5.920000E+03	9.377224E-15	1.924009E-16
5.930000E+03	9.424730E-15	1.925054E-16
5.940000E+03	9.464476E-15	1.924034E-16
5.950000E+03	9.496053E-15	1.920900E-16
5.960000E+03	9.519762E-15	1.915752E-16
5.970000E+03	9.535622E-15	1.908636E-16
5.980000E+03	9.544278E-15	1.899727E-16
5.990000E+03	9.546545E-15	1.889233E-16
6.000000E+03	9.543472E-15	1.877412E-16
6.010000E+03	9.536132E-15	1.864520E-16
6.020000E+03	9.526141E-15	1.850919E-16
6.030000E+03	9.514965E-15	1.836936E-16
6.040000E+03	9.504160E-15	1.822911E-16
6.050000E+03	9.495411E-15	1.809204E-16
6.060000E+03	9.490400E-15	1.796165E-16
6.070000E+03	9.490663E-15	1.784115E-16
6.080000E+03	9.497830E-15	1.773383E-16
6.090000E+03	9.513116E-15	1.764219E-16
6.100000E+03	9.537748E-15	1.756869E-16
6.110000E+03	9.572742E-15	1.751542E-16
6.120000E+03	9.618763E-15	1.748381E-16
6.130000E+03	9.676183E-15	1.747476E-16
6.140000E+03	9.745132E-15	1.748882E-16
6.150000E+03	9.825265E-15	1.752572E-16
6.160000E+03	9.915812E-15	1.758455E-16
6.170000E+03	1.001544E-14	1.766350E-16
6.180000E+03	1.012240E-14	1.776019E-16
6.190000E+03	1.023445E-14	1.787147E-16
6.200000E+03	1.034903E-14	1.799383E-16
6.210000E+03	1.046302E-14	1.812290E-16
6.220000E+03	1.057314E-14	1.825419E-16
6.230000E+03	1.067581E-14	1.838273E-16
6.240000E+03	1.076733E-14	1.850342E-16
6.250000E+03	1.084437E-14	1.861181E-16
6.260000E+03	1.090418E-14	1.870436E-16
6.270000E+03	1.094499E-14	1.877906E-16
6.280000E+03	1.096611E-14	1.883559E-16
6.290000E+03	1.096888E-14	1.887697E-16
6.300000E+03	1.095563E-14	1.890761E-16
6.310000E+03	1.092974E-14	1.893325E-16
6.320000E+03	1.089545E-14	1.896033E-16
6.330000E+03	1.085692E-14	1.899512E-16
6.340000E+03	1.081861E-14	1.904453E-16
6.350000E+03	1.078443E-14	1.911457E-16
6.360000E+03	1.075807E-14	1.921111E-16
6.370000E+03	1.074271E-14	1.933933E-16
6.380000E+03	1.074074E-14	1.950320E-16
6.390000E+03	1.075420E-14	1.970626E-16
6.400000E+03	1.078451E-14	1.995118E-16
6.410000E+03	1.083245E-14	2.023955E-16
6.420000E+03	1.089823E-14	2.057211E-16
6.430000E+03	1.098170E-14	2.094894E-16
6.440000E+03	1.108209E-14	2.136901E-16
6.450000E+03	1.119844E-14	2.183092E-16
6.460000E+03	1.132913E-14	2.233196E-16
6.470000E+03	1.147232E-14	2.286882E-16
6.480000E+03	1.162579E-14	2.343735E-16
6.490000E+03	1.178718E-14	2.403287E-16
6.500000E+03	1.195364E-14	2.464951E-16
6.510000E+03	1.212184E-14	2.528017E-16
6.520000E+03	1.228847E-14	2.591738E-16
6.530000E+03	1.245037E-14	2.655376E-16
6.540000E+03	1.260411E-14	2.718101E-16
6.550000E+03	1.274635E-14	2.779070E-16
6.560000E+03	1.287429E-14	2.837525E-16
6.570000E+03	1.298495E-14	2.892645E-16
6.580000E+03	1.307577E-14	2.943673E-16
6.590000E+03	1.314455E-14	2.989917E-16
6.600000E+03	1.318967E-14	3.030798E-16
6.610000E+03	1.320981E-14	3.065792E-16
6.620000E+03	1.320411E-14	3.094486E-16
6.630000E+03	1.317244E-14	3.116626E-16
6.640000E+03	1.311466E-14	3.131969E-16
6.650000E+03	1.303185E-14	3.140573E-16
6.660000E+03	1.292484E-14	3.142446E-16
6.670000E+03	1.279526E-14	3.137816E-16
6.680000E+03	1.264511E-14	3.127014E-16
6.690000E+03	1.247631E-14	3.110386E-16
6.700000E+03	1.229132E-14	3.088434E-16
6.710000E+03	1.209243E-14	3.061642E-16
6.720000E+03	1.188240E-14	3.030640E-16
6.730000E+03	1.166359E-14	2.995983E-16
6.740000E+03	1.143845E-14	2.958271E-16
6.750000E+03	1.120932E-14	2.918097E-16
6.760000E+03	1.097854E-14	2.876075E-16
6.770000E+03	1.074814E-14	2.832760E-16
6.780000E+03	1.051986E-14	2.788640E-16
6.790000E+03	1.029563E-14	2.744264E-16
6.800000E+03	1.007678E-14	2.700039E-16
6.810000E+03	9.864470E-15	2.656329E-16
6.820000E+03	9.660117E-15	2.613575E-16
6.830000E+03	9.464262E-15	2.571984E-16
6.840000E+03	9.277841E-15	2.531873E-16
6.850000E+03	9.101284E-15	2.493423E-16
6.860000E+03	8.935197E-15	2.456860E-16
6.870000E+03	8.779504E-15	2.422224E-16
6.880000E+03	8.634645E-15	2.389692E-16
6.890000E+03	8.500410E-15	2.359259E-16
6.900000E+03	8.376804E-15	2.330977E-16
6.910000E+03	8.263625E-15	2.304835E-16
6.920000E+03	8.160494E-15	2.280768E-16
6.930000E+03	8.067251E-15	2.258768E-16
6.940000E+03	7.983269E-15	2.238695E-16
6.950000E+03	7.908163E-15	2.220467E-16
6.960000E+03	7.841392E-15	2.203958E-16
6.970000E+03	7.782371E-15	2.189025E-16
6.980000E+03	7.730475E-15	2.175511E-16
6.990000E+03	7.684956E-15	2.163218E-16
7.000000E+03	7.645228E-15	2.151997E-16
7.010000E+03	7.610597E-15	2.141661E-16
7.020000E+03	7.580357E-15	2.132020E-16
7.030000E+03	7.553710E-15	2.122858E-16
7.040000E+03	7.529962E-15	2.113987E-16
7.050000E+03	7.508532E-15	2.105250E-16
7.060000E+03	7.488680E-15	2.096447E-16
7.070000E+03	7.469798E-15	2.087416E-16
7.080000E+03	7.451332E-15	2.078011E-16
7.090000E+03	7.432785E-15	2.068102E-16
7.100000E+03	7.413729E-15	2.057583E-16
7.110000E+03	7.393812E-15	2.046369E-16
7.120000E+03	7.372669E-15	2.034373E-16
7.130000E+03	7.350113E-15	2.021562E-16
7.140000E+03	7.326040E-15	2.007924E-16
7.150000E+03	7.300516E-15	1.993499E-16
7.160000E+03	7.273315E-15	1.978244E-16
7.170000E+03	7.244824E-15	1.962290E-16
7.180000E+03	7.214937E-15	1.945630E-16
7.190000E+03	7.183955E-15	1.928369E-16
7.200000E+03	7.152112E-15	1.910594E-16
7.210000E+03	7.119567E-15	1.892374E-16
7.220000E+03	7.086569E-15	1.873799E-16
7.230000E+03	7.053357E-15	1.854958E-16
7.240000E+03	7.020055E-15	1.835909E-16
7.250000E+03	6.986846E-15	1.816725E-16
7.260000E+03	6.953786E-15	1.797447E-16
7.270000E+03	6.921060E-15	1.778150E-16
7.280000E+03	6.888546E-15	1.758829E-16
7.290000E+03	6.856252E-15	1.739515E-16
7.300000E+03	6.824137E-15	1.720227E-16
7.310000E+03	6.792118E-15	1.700976E-16
7.320000E+03	6.759908E-15	1.681724E-16
7.330000E+03	6.727359E-15	1.662469E-16
7.340000E+03	6.694302E-15	1.643207E-16
7.350000E+03	6.660475E-15	1.623914E-16
7.360000E+03	6.625691E-15	1.604586E-16
7.370000E+03	6.589685E-15	1.585205E-16
7.380000E+03	6.552211E-15	1.565756E-16
7.390000E+03	6.513116E-15	1.546254E-16
7.400000E+03	6.472281E-15	1.526718E-16
7.410000E+03	6.429444E-15	1.507140E-16
7.420000E+03	6.384626E-15	1.487576E-16
7.430000E+03	6.337636E-15	1.468033E-16
7.440000E+03	6.288559E-15	1.448584E-16
7.450000E+03	6.237429E-15	1.429287E-16
7.460000E+03	6.184393E-15	1.410227E-16
7.470000E+03	6.129463E-15	1.391453E-16
7.480000E+03	6.072838E-15	1.373056E-16
7.490000E+03	6.014737E-15	1.355128E-16
7.500000E+03	5.955319E-15	1.337744E-16
7.510000E+03	5.894840E-15	1.320999E-16
7.520000E+03	5.833493E-15	1.304967E-16
7.530000E+03	5.771488E-15	1.289724E-16
7.540000E+03	5.709197E-15	1.275379E-16
7.550000E+03	5.646854E-15	1.262003E-16
7.560000E+03	5.584635E-15	1.249653E-16
7.570000E+03	5.522946E-15	1.238432E-16
7.580000E+03	5.461989E-15	1.228396E-16
7.590000E+03	5.402197E-15	1.219647E-16
7.600000E+03	5.343798E-15	1.212240E-16
7.610000E+03	5.287181E-15	1.206264E-16
7.620000E+03	5.232609E-15	1.201763E-16
7.630000E+03	5.180571E-15	1.198808E-16
7.640000E+03	5.131431E-15	1.197443E-16
7.650000E+03	5.085507E-15	1.197704E-16
7.660000E+03	5.043200E-15	1.199654E-16
7.670000E+03	5.005060E-15	1.203397E-16
7.680000E+03	4.971439E-15	1.209000E-16
7.690000E+03	4.942739E-15	1.216550E-16
7.700000E+03	4.919319E-15	1.226131E-16
7.710000E+03	4.901470E-15	1.237823E-16
7.720000E+03	4.889046E-15	1.251601E-16
7.730000E+03	4.881642E-15	1.267379E-16
7.740000E+03	4.878792E-15	1.285052E-16
7.750000E+03	4.879860E-15	1.304467E-16
7.760000E+03	4.884277E-15	1.325485E-16
