#wls	flux	fluxerr
1.600000E+03	5.150346E-15	4.706436E-16
1.640000E+03	5.266990E-15	4.747740E-16
1.680000E+03	5.386729E-15	4.788622E-16
1.720000E+03	5.510457E-15	4.829796E-16
1.760000E+03	5.636741E-15	4.869932E-16
1.800000E+03	5.767050E-15	4.910254E-16
1.840000E+03	5.899138E-15	4.948806E-16
1.880000E+03	6.032366E-15	4.985089E-16
1.920000E+03	6.164284E-15	5.017172E-16
1.960000E+03	6.292973E-15	5.043689E-16
2.000000E+03	6.413761E-15	5.061210E-16
2.040000E+03	6.524729E-15	5.068686E-16
2.080000E+03	6.624165E-15	5.065330E-16
2.120000E+03	6.713808E-15	5.053043E-16
2.160000E+03	6.796238E-15	5.034262E-16
2.200000E+03	6.875282E-15	5.012149E-16
2.240000E+03	6.960645E-15	4.993837E-16
2.280000E+03	7.057327E-15	4.982691E-16
2.320000E+03	7.172780E-15	4.983542E-16
2.360000E+03	7.308860E-15	4.997015E-16
2.400000E+03	7.462887E-15	5.020615E-16
2.440000E+03	7.636468E-15	5.054817E-16
2.480000E+03	7.821582E-15	5.093776E-16
2.520000E+03	8.009569E-15	5.131593E-16
2.560000E+03	8.190638E-15	5.162034E-16
2.600000E+03	8.354831E-15	5.179172E-16
2.640000E+03	8.491502E-15	5.177073E-16
2.680000E+03	8.600222E-15	5.156358E-16
2.720000E+03	8.687093E-15	5.121482E-16
2.760000E+03	8.761260E-15	5.078275E-16
2.800000E+03	8.831911E-15	5.032180E-16
2.840000E+03	8.912982E-15	4.990942E-16
2.880000E+03	9.012882E-15	4.958735E-16
2.920000E+03	9.138652E-15	4.938679E-16
2.960000E+03	9.300245E-15	4.935185E-16
3.000000E+03	9.504491E-15	4.950667E-16
3.010000E+03	9.562495E-15	4.957492E-16
3.020000E+03	9.625131E-15	4.966412E-16
3.030000E+03	9.689904E-15	4.976112E-16
3.040000E+03	9.759488E-15	4.987942E-16
3.050000E+03	9.832686E-15	5.001257E-16
3.060000E+03	9.909588E-15	5.016077E-16
3.070000E+03	9.990289E-15	5.032419E-16
3.080000E+03	1.007618E-14	5.050956E-16
3.090000E+03	1.016476E-14	5.070400E-16
3.100000E+03	1.026003E-14	5.092714E-16
3.110000E+03	1.035816E-14	5.115964E-16
3.120000E+03	1.046186E-14	5.141455E-16
3.130000E+03	1.057122E-14	5.169191E-16
3.140000E+03	1.068500E-14	5.198534E-16
3.150000E+03	1.080459E-14	5.230117E-16
3.160000E+03	1.093005E-14	5.263932E-16
3.170000E+03	1.106010E-14	5.299322E-16
3.180000E+03	1.119744E-14	5.337538E-16
3.190000E+03	1.133940E-14	5.377268E-16
3.200000E+03	1.148730E-14	5.419096E-16
3.210000E+03	1.164244E-14	5.463595E-16
3.220000E+03	1.180341E-14	5.510053E-16
3.230000E+03	1.196868E-14	5.557723E-16
3.240000E+03	1.214219E-14	5.608392E-16
3.250000E+03	1.232098E-14	5.660643E-16
3.260000E+03	1.250470E-14	5.714284E-16
3.270000E+03	1.269437E-14	5.769742E-16
3.280000E+03	1.288951E-14	5.826766E-16
3.290000E+03	1.308815E-14	5.884432E-16
3.300000E+03	1.329098E-14	5.943028E-16
3.310000E+03	1.349860E-14	6.002799E-16
3.320000E+03	1.370867E-14	6.062679E-16
3.330000E+03	1.391863E-14	6.121532E-16
3.340000E+03	1.413153E-14	6.180697E-16
3.350000E+03	1.434306E-14	6.238292E-16
3.360000E+03	1.455163E-14	6.293644E-16
3.370000E+03	1.475690E-14	6.346637E-16
3.380000E+03	1.495692E-14	6.396475E-16
3.390000E+03	1.514960E-14	6.442317E-16
3.400000E+03	1.533267E-14	6.483263E-16
3.410000E+03	1.550377E-14	6.518404E-16
3.420000E+03	1.566188E-14	6.547407E-16
3.430000E+03	1.580303E-14	6.568735E-16
3.440000E+03	1.592614E-14	6.582067E-16
3.450000E+03	1.602731E-14	6.585940E-16
3.460000E+03	1.610700E-14	6.580717E-16
3.470000E+03	1.616154E-14	6.565060E-16
3.480000E+03	1.618737E-14	6.537727E-16
3.490000E+03	1.618645E-14	6.499706E-16
3.500000E+03	1.615453E-14	6.449486E-16
3.510000E+03	1.609141E-14	6.387198E-16
3.520000E+03	1.599910E-14	6.313838E-16
3.530000E+03	1.588025E-14	6.230637E-16
3.540000E+03	1.573426E-14	6.137533E-16
3.550000E+03	1.556596E-14	6.036574E-16
3.560000E+03	1.537678E-14	5.928454E-16
3.570000E+03	1.517069E-14	5.814824E-16
3.580000E+03	1.495055E-14	5.696877E-16
3.590000E+03	1.471818E-14	5.575386E-16
3.600000E+03	1.447853E-14	5.452286E-16
3.610000E+03	1.423318E-14	5.328216E-16
3.620000E+03	1.398564E-14	5.204501E-16
3.630000E+03	1.373726E-14	5.081650E-16
3.640000E+03	1.349106E-14	4.960778E-16
3.650000E+03	1.324809E-14	4.842239E-16
3.660000E+03	1.301171E-14	4.727226E-16
3.670000E+03	1.278249E-14	4.615900E-16
3.680000E+03	1.256246E-14	4.508936E-16
3.690000E+03	1.235189E-14	4.406361E-16
3.700000E+03	1.215233E-14	4.308667E-16
3.710000E+03	1.196375E-14	4.215759E-16
3.720000E+03	1.178796E-14	4.128202E-16
3.730000E+03	1.162449E-14	4.045747E-16
3.740000E+03	1.147344E-14	3.968343E-16
3.750000E+03	1.133472E-14	3.895880E-16
3.760000E+03	1.120872E-14	3.828407E-16
3.770000E+03	1.109507E-14	3.765722E-16
3.780000E+03	1.099282E-14	3.707421E-16
3.790000E+03	1.090259E-14	3.653642E-16
3.800000E+03	1.082282E-14	3.603786E-16
3.810000E+03	1.075401E-14	3.557957E-16
3.820000E+03	1.069510E-14	3.515738E-16
3.830000E+03	1.064600E-14	3.477040E-16
3.840000E+03	1.060566E-14	3.441461E-16
3.850000E+03	1.057349E-14	3.408763E-16
3.860000E+03	1.054937E-14	3.378857E-16
3.870000E+03	1.053268E-14	3.351506E-16
3.880000E+03	1.052284E-14	3.326482E-16
3.890000E+03	1.051886E-14	3.303438E-16
3.900000E+03	1.052061E-14	3.282309E-16
3.910000E+03	1.052799E-14	3.263031E-16
3.920000E+03	1.053971E-14	3.245183E-16
3.930000E+03	1.055574E-14	3.228740E-16
3.940000E+03	1.057605E-14	3.213677E-16
3.950000E+03	1.059954E-14	3.199646E-16
3.960000E+03	1.062626E-14	3.186660E-16
3.970000E+03	1.065596E-14	3.174630E-16
3.980000E+03	1.068872E-14	3.163584E-16
3.990000E+03	1.072365E-14	3.153250E-16
4.000000E+03	1.076057E-14	3.143584E-16
4.010000E+03	1.080002E-14	3.134743E-16
4.020000E+03	1.084119E-14	3.126499E-16
4.030000E+03	1.088397E-14	3.118831E-16
4.040000E+03	1.092859E-14	3.111813E-16
4.050000E+03	1.097494E-14	3.105421E-16
4.060000E+03	1.102227E-14	3.099460E-16
4.070000E+03	1.107078E-14	3.093999E-16
4.080000E+03	1.112029E-14	3.089010E-16
4.090000E+03	1.117036E-14	3.084387E-16
4.100000E+03	1.122079E-14	3.080096E-16
4.110000E+03	1.127169E-14	3.076195E-16
4.120000E+03	1.132229E-14	3.072494E-16
4.130000E+03	1.137245E-14	3.068987E-16
4.140000E+03	1.142203E-14	3.065667E-16
4.150000E+03	1.147123E-14	3.062613E-16
4.160000E+03	1.151916E-14	3.059627E-16
4.170000E+03	1.156611E-14	3.056812E-16
4.180000E+03	1.161209E-14	3.054210E-16
4.190000E+03	1.165688E-14	3.051793E-16
4.200000E+03	1.170048E-14	3.049597E-16
4.210000E+03	1.174239E-14	3.047528E-16
4.220000E+03	1.178281E-14	3.045668E-16
4.230000E+03	1.182161E-14	3.044024E-16
4.240000E+03	1.185809E-14	3.042446E-16
4.250000E+03	1.189171E-14	3.040834E-16
4.260000E+03	1.192238E-14	3.039196E-16
4.270000E+03	1.194936E-14	3.037384E-16
4.280000E+03	1.197196E-14	3.035249E-16
4.290000E+03	1.198940E-14	3.032630E-16
4.300000E+03	1.200091E-14	3.029350E-16
4.310000E+03	1.200620E-14	3.025317E-16
4.320000E+03	1.200428E-14	3.020265E-16
4.330000E+03	1.199448E-14	3.013999E-16
4.340000E+03	1.197623E-14	3.006352E-16
4.350000E+03	1.194953E-14	2.997293E-16
4.360000E+03	1.191378E-14	2.986638E-16
4.370000E+03	1.186922E-14	2.974413E-16
4.380000E+03	1.181627E-14	2.960684E-16
4.390000E+03	1.175504E-14	2.945435E-16
4.400000E+03	1.168674E-14	2.928935E-16
4.410000E+03	1.161187E-14	2.911257E-16
4.420000E+03	1.153139E-14	2.892601E-16
4.430000E+03	1.144673E-14	2.873280E-16
4.440000E+03	1.135897E-14	2.853524E-16
4.450000E+03	1.126921E-14	2.833567E-16
4.460000E+03	1.117861E-14	2.813661E-16
4.470000E+03	1.108811E-14	2.794003E-16
4.480000E+03	1.099848E-14	2.774753E-16
4.490000E+03	1.091086E-14	2.756162E-16
4.500000E+03	1.082569E-14	2.738314E-16
4.510000E+03	1.074331E-14	2.721263E-16
4.520000E+03	1.066422E-14	2.705110E-16
4.530000E+03	1.058862E-14	2.689884E-16
4.540000E+03	1.051666E-14	2.675595E-16
4.550000E+03	1.044838E-14	2.662236E-16
4.560000E+03	1.038380E-14	2.649788E-16
4.570000E+03	1.032300E-14	2.638260E-16
4.580000E+03	1.026582E-14	2.627588E-16
4.590000E+03	1.021247E-14	2.617813E-16
4.600000E+03	1.016278E-14	2.608874E-16
4.610000E+03	1.011657E-14	2.600714E-16
4.620000E+03	1.007422E-14	2.593417E-16
4.630000E+03	1.003547E-14	2.586902E-16
4.640000E+03	1.000046E-14	2.581195E-16
4.650000E+03	9.969208E-15	2.576290E-16
4.660000E+03	9.941745E-15	2.572185E-16
4.670000E+03	9.918228E-15	2.568910E-16
4.680000E+03	9.898553E-15	2.566431E-16
4.690000E+03	9.882736E-15	2.564743E-16
4.700000E+03	9.870890E-15	2.563866E-16
4.710000E+03	9.862858E-15	2.563752E-16
4.720000E+03	9.858686E-15	2.564405E-16
4.730000E+03	9.858136E-15	2.565755E-16
4.740000E+03	9.860916E-15	2.567719E-16
4.750000E+03	9.867032E-15	2.570290E-16
4.760000E+03	9.875944E-15	2.573320E-16
4.770000E+03	9.887396E-15	2.576734E-16
4.780000E+03	9.900938E-15	2.580409E-16
4.790000E+03	9.916054E-15	2.584202E-16
4.800000E+03	9.932276E-15	2.587984E-16
4.810000E+03	9.948852E-15	2.591553E-16
4.820000E+03	9.965338E-15	2.594786E-16
4.830000E+03	9.981146E-15	2.597527E-16
4.840000E+03	9.995442E-15	2.599554E-16
4.850000E+03	1.000775E-14	2.600738E-16
4.860000E+03	1.001748E-14	2.600929E-16
4.870000E+03	1.002388E-14	2.599925E-16
4.880000E+03	1.002644E-14	2.597602E-16
4.890000E+03	1.002474E-14	2.593848E-16
4.900000E+03	1.001832E-14	2.588554E-16
4.910000E+03	1.000692E-14	2.581656E-16
4.920000E+03	9.990245E-15	2.573090E-16
4.930000E+03	9.968227E-15	2.562848E-16
4.940000E+03	9.940578E-15	2.550868E-16
4.950000E+03	9.907662E-15	2.537258E-16
4.960000E+03	9.869514E-15	2.522042E-16
4.970000E+03	9.826381E-15	2.505301E-16
4.980000E+03	9.778708E-15	2.487165E-16
4.990000E+03	9.726901E-15	2.467756E-16
5.000000E+03	9.671315E-15	2.447182E-16
5.010000E+03	9.612664E-15	2.425643E-16
5.020000E+03	9.551363E-15	2.403263E-16
5.030000E+03	9.487954E-15	2.380195E-16
5.040000E+03	9.423084E-15	2.356620E-16
5.050000E+03	9.357194E-15	2.332666E-16
5.060000E+03	9.291028E-15	2.308533E-16
5.070000E+03	9.224809E-15	2.284294E-16
5.080000E+03	9.159359E-15	2.260165E-16
5.090000E+03	9.095079E-15	2.236259E-16
5.100000E+03	9.032356E-15	2.212683E-16
5.110000E+03	8.971848E-15	2.189609E-16
5.120000E+03	8.913792E-15	2.167104E-16
5.130000E+03	8.858765E-15	2.145318E-16
5.140000E+03	8.807010E-15	2.124314E-16
5.150000E+03	8.758792E-15	2.104166E-16
5.160000E+03	8.714303E-15	2.084923E-16
5.170000E+03	8.673654E-15	2.066619E-16
5.180000E+03	8.636866E-15	2.049262E-16
5.190000E+03	8.603966E-15	2.032865E-16
5.200000E+03	8.574719E-15	2.017377E-16
5.210000E+03	8.548913E-15	2.002755E-16
5.220000E+03	8.526279E-15	1.988943E-16
5.230000E+03	8.506505E-15	1.975877E-16
5.240000E+03	8.489246E-15	1.963485E-16
5.250000E+03	8.474138E-15	1.951697E-16
5.260000E+03	8.460890E-15	1.940455E-16
5.270000E+03	8.448941E-15	1.929646E-16
5.280000E+03	8.438079E-15	1.919237E-16
5.290000E+03	8.427738E-15	1.909115E-16
5.300000E+03	8.417621E-15	1.899232E-16
5.310000E+03	8.407343E-15	1.889519E-16
5.320000E+03	8.396525E-15	1.879912E-16
5.330000E+03	8.384801E-15	1.870348E-16
5.340000E+03	8.371818E-15	1.860773E-16
5.350000E+03	8.357163E-15	1.851114E-16
5.360000E+03	8.340540E-15	1.841330E-16
5.370000E+03	8.321865E-15	1.831423E-16
5.380000E+03	8.300673E-15	1.821313E-16
5.390000E+03	8.276992E-15	1.811027E-16
5.400000E+03	8.250741E-15	1.800568E-16
5.410000E+03	8.221833E-15	1.789931E-16
5.420000E+03	8.190349E-15	1.779129E-16
5.430000E+03	8.156498E-15	1.768188E-16
5.440000E+03	8.120615E-15	1.757161E-16
5.450000E+03	8.083100E-15	1.746113E-16
5.460000E+03	8.044386E-15	1.735115E-16
5.470000E+03	8.004910E-15	1.724240E-16
5.480000E+03	7.965024E-15	1.713539E-16
5.490000E+03	7.925211E-15	1.703095E-16
5.500000E+03	7.885759E-15	1.692946E-16
5.510000E+03	7.847075E-15	1.683156E-16
5.520000E+03	7.809353E-15	1.673744E-16
5.530000E+03	7.772828E-15	1.664739E-16
5.540000E+03	7.737764E-15	1.656177E-16
5.550000E+03	7.704238E-15	1.648053E-16
5.560000E+03	7.672535E-15	1.640407E-16
5.570000E+03	7.642543E-15	1.633197E-16
5.580000E+03	7.614605E-15	1.626478E-16
5.590000E+03	7.588775E-15	1.620242E-16
5.600000E+03	7.565201E-15	1.614506E-16
5.610000E+03	7.544142E-15	1.609306E-16
5.620000E+03	7.525661E-15	1.604641E-16
5.630000E+03	7.510086E-15	1.600566E-16
5.640000E+03	7.497776E-15	1.597142E-16
5.650000E+03	7.488897E-15	1.594391E-16
5.660000E+03	7.483933E-15	1.592401E-16
5.670000E+03	7.483080E-15	1.591200E-16
5.680000E+03	7.486827E-15	1.590881E-16
5.690000E+03	7.495357E-15	1.591467E-16
5.700000E+03	7.509039E-15	1.593026E-16
5.710000E+03	7.528132E-15	1.595597E-16
5.720000E+03	7.552762E-15	1.599195E-16
5.730000E+03	7.583061E-15	1.603835E-16
5.740000E+03	7.619157E-15	1.609530E-16
5.750000E+03	7.660936E-15	1.616242E-16
5.760000E+03	7.708333E-15	1.623945E-16
5.770000E+03	7.760950E-15	1.632541E-16
5.780000E+03	7.818500E-15	1.641955E-16
5.790000E+03	7.880506E-15	1.652076E-16
5.800000E+03	7.946373E-15	1.662765E-16
5.810000E+03	8.015321E-15	1.673848E-16
5.820000E+03	8.086618E-15	1.685162E-16
5.830000E+03	8.159207E-15	1.696477E-16
5.840000E+03	8.232267E-15	1.707616E-16
5.850000E+03	8.304677E-15	1.718341E-16
5.860000E+03	8.375282E-15	1.728412E-16
5.870000E+03	8.443065E-15	1.737620E-16
5.880000E+03	8.506870E-15	1.745730E-16
5.890000E+03	8.565745E-15	1.752555E-16
5.900000E+03	8.618657E-15	1.757895E-16
5.910000E+03	8.664691E-15	1.761578E-16
5.920000E+03	8.703330E-15	1.763517E-16
5.930000E+03	8.733914E-15	1.763602E-16
5.940000E+03	8.756250E-15	1.761816E-16
5.950000E+03	8.770216E-15	1.758164E-16
5.960000E+03	8.776030E-15	1.752718E-16
5.970000E+03	8.774255E-15	1.745623E-16
5.980000E+03	8.765455E-15	1.737020E-16
5.990000E+03	8.750770E-15	1.727168E-16
6.000000E+03	8.731219E-15	1.716296E-16
6.010000E+03	8.708333E-15	1.704736E-16
6.020000E+03	8.683453E-15	1.692774E-16
6.030000E+03	8.658191E-15	1.680750E-16
6.040000E+03	8.634381E-15	1.669038E-16
6.050000E+03	8.613541E-15	1.657951E-16
6.060000E+03	8.597418E-15	1.647837E-16
6.070000E+03	8.587611E-15	1.639015E-16
6.080000E+03	8.585627E-15	1.631780E-16
6.090000E+03	8.592758E-15	1.626384E-16
6.100000E+03	8.610387E-15	1.623094E-16
6.110000E+03	8.639365E-15	1.622075E-16
6.120000E+03	8.680647E-15	1.623511E-16
6.130000E+03	8.734588E-15	1.627475E-16
6.140000E+03	8.801392E-15	1.634015E-16
6.150000E+03	8.880988E-15	1.643130E-16
6.160000E+03	8.972632E-15	1.654701E-16
6.170000E+03	9.075096E-15	1.668526E-16
6.180000E+03	9.186695E-15	1.684327E-16
6.190000E+03	9.305335E-15	1.701759E-16
6.200000E+03	9.428214E-15	1.720356E-16
6.210000E+03	9.552078E-15	1.739580E-16
6.220000E+03	9.673098E-15	1.758793E-16
6.230000E+03	9.786664E-15	1.777222E-16
6.240000E+03	9.888052E-15	1.794078E-16
6.250000E+03	9.972531E-15	1.808567E-16
6.260000E+03	1.003571E-14	1.819954E-16
6.270000E+03	1.007416E-14	1.827671E-16
6.280000E+03	1.008683E-14	1.831569E-16
6.290000E+03	1.007610E-14	1.832102E-16
6.300000E+03	1.004633E-14	1.830079E-16
6.310000E+03	1.000334E-14	1.826562E-16
6.320000E+03	9.953099E-15	1.822598E-16
6.330000E+03	9.901303E-15	1.819175E-16
6.340000E+03	9.853454E-15	1.817257E-16
6.350000E+03	9.813980E-15	1.817622E-16
6.360000E+03	9.786939E-15	1.820999E-16
6.370000E+03	9.775409E-15	1.827949E-16
6.380000E+03	9.781614E-15	1.838891E-16
6.390000E+03	9.807369E-15	1.854185E-16
6.400000E+03	9.853550E-15	1.874023E-16
6.410000E+03	9.920642E-15	1.898534E-16
6.420000E+03	1.000839E-14	1.927713E-16
6.430000E+03	1.011612E-14	1.961482E-16
6.440000E+03	1.024292E-14	1.999710E-16
6.450000E+03	1.038688E-14	2.042076E-16
6.460000E+03	1.054609E-14	2.088249E-16
6.470000E+03	1.071804E-14	2.137766E-16
6.480000E+03	1.089995E-14	2.190102E-16
6.490000E+03	1.108865E-14	2.244632E-16
6.500000E+03	1.128074E-14	2.300668E-16
6.510000E+03	1.147303E-14	2.357543E-16
6.520000E+03	1.166219E-14	2.414540E-16
6.530000E+03	1.184508E-14	2.470956E-16
6.540000E+03	1.201828E-14	2.526013E-16
6.550000E+03	1.217889E-14	2.579018E-16
6.560000E+03	1.232414E-14	2.629285E-16
6.570000E+03	1.245133E-14	2.676127E-16
6.580000E+03	1.255804E-14	2.718900E-16
6.590000E+03	1.264238E-14	2.757057E-16
6.600000E+03	1.270266E-14	2.790091E-16
6.610000E+03	1.273778E-14	2.817612E-16
6.620000E+03	1.274672E-14	2.839244E-16
6.630000E+03	1.272947E-14	2.854832E-16
6.640000E+03	1.268607E-14	2.864242E-16
6.650000E+03	1.261729E-14	2.867507E-16
6.660000E+03	1.252418E-14	2.864732E-16
6.670000E+03	1.240816E-14	2.856118E-16
6.680000E+03	1.227080E-14	2.841919E-16
6.690000E+03	1.211434E-14	2.822551E-16
6.700000E+03	1.194082E-14	2.798412E-16
6.710000E+03	1.175241E-14	2.769936E-16
6.720000E+03	1.155175E-14	2.737690E-16
6.730000E+03	1.134112E-14	2.702173E-16
6.740000E+03	1.112302E-14	2.663952E-16
6.750000E+03	1.089965E-14	2.623537E-16
6.760000E+03	1.067323E-14	2.581458E-16
6.770000E+03	1.044596E-14	2.538253E-16
6.780000E+03	1.021965E-14	2.494376E-16
6.790000E+03	9.996168E-15	2.450304E-16
6.800000E+03	9.776970E-15	2.406423E-16
6.810000E+03	9.563537E-15	2.363130E-16
6.820000E+03	9.356933E-15	2.320724E-16
6.830000E+03	9.158361E-15	2.279545E-16
6.840000E+03	8.968308E-15	2.239755E-16
6.850000E+03	8.787723E-15	2.201632E-16
6.860000E+03	8.616877E-15	2.165287E-16
6.870000E+03	8.456208E-15	2.130870E-16
6.880000E+03	8.305920E-15	2.098474E-16
6.890000E+03	8.166097E-15	2.068157E-16
6.900000E+03	8.036619E-15	2.039926E-16
6.910000E+03	7.917454E-15	2.013805E-16
6.920000E+03	7.808376E-15	1.989769E-16
6.930000E+03	7.708982E-15	1.967744E-16
6.940000E+03	7.618968E-15	1.947677E-16
6.950000E+03	7.537777E-15	1.929449E-16
6.960000E+03	7.465058E-15	1.912992E-16
6.970000E+03	7.399964E-15	1.898105E-16
6.980000E+03	7.342040E-15	1.884690E-16
6.990000E+03	7.290625E-15	1.872588E-16
7.000000E+03	7.244942E-15	1.861614E-16
7.010000E+03	7.204280E-15	1.851596E-16
7.020000E+03	7.168008E-15	1.842380E-16
7.030000E+03	7.135320E-15	1.833768E-16
7.040000E+03	7.105507E-15	1.825586E-16
7.050000E+03	7.077877E-15	1.817664E-16
7.060000E+03	7.051773E-15	1.809841E-16
7.070000E+03	7.026487E-15	1.801944E-16
7.080000E+03	7.001622E-15	1.793879E-16
7.090000E+03	6.976500E-15	1.785483E-16
7.100000E+03	6.950768E-15	1.776675E-16
7.110000E+03	6.923985E-15	1.767354E-16
7.120000E+03	6.895881E-15	1.757462E-16
7.130000E+03	6.866357E-15	1.746989E-16
7.140000E+03	6.835230E-15	1.735902E-16
7.150000E+03	6.802488E-15	1.724213E-16
7.160000E+03	6.768185E-15	1.711951E-16
7.170000E+03	6.732358E-15	1.699143E-16
7.180000E+03	6.695255E-15	1.685867E-16
7.190000E+03	6.657074E-15	1.672192E-16
7.200000E+03	6.617957E-15	1.658170E-16
7.210000E+03	6.578132E-15	1.643877E-16
7.220000E+03	6.537832E-15	1.629389E-16
7.230000E+03	6.497356E-15	1.614797E-16
7.240000E+03	6.456744E-15	1.600130E-16
7.250000E+03	6.416253E-15	1.585469E-16
7.260000E+03	6.375944E-15	1.570847E-16
7.270000E+03	6.336082E-15	1.556348E-16
7.280000E+03	6.296496E-15	1.541948E-16
7.290000E+03	6.257365E-15	1.527709E-16
7.300000E+03	6.218594E-15	1.513627E-16
7.310000E+03	6.180205E-15	1.499726E-16
7.320000E+03	6.141951E-15	1.485966E-16
7.330000E+03	6.103874E-15	1.472377E-16
7.340000E+03	6.065682E-15	1.458910E-16
7.350000E+03	6.027386E-15	1.445589E-16
7.360000E+03	5.988691E-15	1.432365E-16
7.370000E+03	5.949608E-15	1.419263E-16
7.380000E+03	5.909865E-15	1.406241E-16
7.390000E+03	5.869511E-15	1.393332E-16
7.400000E+03	5.828391E-15	1.380523E-16
7.410000E+03	5.786382E-15	1.367807E-16
7.420000E+03	5.743605E-15	1.355235E-16
7.430000E+03	5.700066E-15	1.342830E-16
7.440000E+03	5.655653E-15	1.330587E-16
7.450000E+03	5.610498E-15	1.318558E-16
7.460000E+03	5.564686E-15	1.306781E-16
7.470000E+03	5.518395E-15	1.295316E-16
7.480000E+03	5.471606E-15	1.284177E-16
7.490000E+03	5.424526E-15	1.273428E-16
7.500000E+03	5.377235E-15	1.263103E-16
7.510000E+03	5.330025E-15	1.253285E-16
7.520000E+03	5.282920E-15	1.243991E-16
7.530000E+03	5.236091E-15	1.235274E-16
7.540000E+03	5.189787E-15	1.227202E-16
7.550000E+03	5.144128E-15	1.219814E-16
7.560000E+03	5.099314E-15	1.213167E-16
7.570000E+03	5.055547E-15	1.207315E-16
7.580000E+03	5.013094E-15	1.202331E-16
7.590000E+03	4.972091E-15	1.198255E-16
7.600000E+03	4.932797E-15	1.195157E-16
7.610000E+03	4.895267E-15	1.193054E-16
7.620000E+03	4.859800E-15	1.192007E-16
7.630000E+03	4.826481E-15	1.192024E-16
7.640000E+03	4.795501E-15	1.193137E-16
7.650000E+03	4.766896E-15	1.195344E-16
7.660000E+03	4.740732E-15	1.198652E-16
7.670000E+03	4.717102E-15	1.203077E-16
7.680000E+03	4.695943E-15	1.208596E-16
7.690000E+03	4.677288E-15	1.215212E-16
7.700000E+03	4.661022E-15	1.222894E-16
7.710000E+03	4.647132E-15	1.231634E-16
7.720000E+03	4.635455E-15	1.241388E-16
7.730000E+03	4.625989E-15	1.252155E-16
7.740000E+03	4.618471E-15	1.263863E-16
7.750000E+03	4.612751E-15	1.276470E-16
7.760000E+03	4.608787E-15	1.289964E-16
