#wls	flux	fluxerr
1.600000E+03	4.915630E-15	4.545241E-16
1.640000E+03	5.031480E-15	4.593984E-16
1.680000E+03	5.151147E-15	4.643053E-16
1.720000E+03	5.273389E-15	4.691225E-16
1.760000E+03	5.399786E-15	4.739814E-16
1.800000E+03	5.527468E-15	4.786216E-16
1.840000E+03	5.657351E-15	4.831202E-16
1.880000E+03	5.787781E-15	4.873344E-16
1.920000E+03	5.915427E-15	4.909910E-16
1.960000E+03	6.038808E-15	4.939853E-16
2.000000E+03	6.156466E-15	4.962224E-16
2.040000E+03	6.266355E-15	4.975687E-16
2.080000E+03	6.366535E-15	4.979098E-16
2.120000E+03	6.460422E-15	4.975538E-16
2.160000E+03	6.549220E-15	4.966251E-16
2.200000E+03	6.637316E-15	4.954772E-16
2.240000E+03	6.732096E-15	4.946580E-16
2.280000E+03	6.840050E-15	4.946164E-16
2.320000E+03	6.963823E-15	4.954965E-16
2.360000E+03	7.106971E-15	4.974907E-16
2.400000E+03	7.268814E-15	5.004836E-16
2.440000E+03	7.444139E-15	5.040568E-16
2.480000E+03	7.632047E-15	5.081038E-16
2.520000E+03	7.822851E-15	5.119478E-16
2.560000E+03	8.009487E-15	5.151252E-16
2.600000E+03	8.184112E-15	5.171557E-16
2.640000E+03	8.343087E-15	5.178562E-16
2.680000E+03	8.484630E-15	5.171731E-16
2.720000E+03	8.612259E-15	5.153780E-16
2.760000E+03	8.730607E-15	5.127834E-16
2.800000E+03	8.850405E-15	5.100283E-16
2.840000E+03	8.981300E-15	5.076437E-16
2.880000E+03	9.130992E-15	5.060111E-16
2.920000E+03	9.309010E-15	5.055784E-16
2.960000E+03	9.524120E-15	5.067118E-16
3.000000E+03	9.783271E-15	5.096461E-16
3.010000E+03	9.856117E-15	5.107046E-16
3.020000E+03	9.932220E-15	5.118892E-16
3.030000E+03	1.001300E-14	5.132702E-16
3.040000E+03	1.009586E-14	5.147113E-16
3.050000E+03	1.018356E-14	5.163506E-16
3.060000E+03	1.027484E-14	5.181206E-16
3.070000E+03	1.037113E-14	5.200900E-16
3.080000E+03	1.047114E-14	5.221905E-16
3.090000E+03	1.057495E-14	5.244231E-16
3.100000E+03	1.068398E-14	5.268545E-16
3.110000E+03	1.079829E-14	5.294832E-16
3.120000E+03	1.091658E-14	5.322418E-16
3.130000E+03	1.104025E-14	5.351951E-16
3.140000E+03	1.116797E-14	5.382743E-16
3.150000E+03	1.130250E-14	5.416086E-16
3.160000E+03	1.144109E-14	5.450616E-16
3.170000E+03	1.158510E-14	5.486942E-16
3.180000E+03	1.173448E-14	5.525003E-16
3.190000E+03	1.189057E-14	5.565380E-16
3.200000E+03	1.205047E-14	5.606671E-16
3.210000E+03	1.221685E-14	5.650080E-16
3.220000E+03	1.238810E-14	5.694821E-16
3.230000E+03	1.256399E-14	5.740751E-16
3.240000E+03	1.274566E-14	5.788352E-16
3.250000E+03	1.293131E-14	5.836768E-16
3.260000E+03	1.312196E-14	5.886429E-16
3.270000E+03	1.331708E-14	5.937067E-16
3.280000E+03	1.351465E-14	5.987746E-16
3.290000E+03	1.371686E-14	6.039423E-16
3.300000E+03	1.391999E-14	6.090443E-16
3.310000E+03	1.412460E-14	6.141037E-16
3.320000E+03	1.433109E-14	6.191385E-16
3.330000E+03	1.453685E-14	6.240351E-16
3.340000E+03	1.474055E-14	6.287388E-16
3.350000E+03	1.494226E-14	6.332552E-16
3.360000E+03	1.514040E-14	6.375202E-16
3.370000E+03	1.533182E-14	6.414059E-16
3.380000E+03	1.551615E-14	6.449040E-16
3.390000E+03	1.569152E-14	6.479433E-16
3.400000E+03	1.585589E-14	6.504491E-16
3.410000E+03	1.600722E-14	6.523484E-16
3.420000E+03	1.614485E-14	6.536261E-16
3.430000E+03	1.626524E-14	6.541517E-16
3.440000E+03	1.636634E-14	6.538583E-16
3.450000E+03	1.644900E-14	6.527969E-16
3.460000E+03	1.650848E-14	6.507961E-16
3.470000E+03	1.654444E-14	6.478617E-16
3.480000E+03	1.655650E-14	6.439989E-16
3.490000E+03	1.654151E-14	6.391049E-16
3.500000E+03	1.649826E-14	6.331545E-16
3.510000E+03	1.642658E-14	6.261623E-16
3.520000E+03	1.632961E-14	6.182679E-16
3.530000E+03	1.620588E-14	6.094350E-16
3.540000E+03	1.605827E-14	5.997904E-16
3.550000E+03	1.588993E-14	5.894676E-16
3.560000E+03	1.570184E-14	5.785181E-16
3.570000E+03	1.549642E-14	5.670441E-16
3.580000E+03	1.527731E-14	5.551900E-16
3.590000E+03	1.504700E-14	5.430546E-16
3.600000E+03	1.480799E-14	5.307348E-16
3.610000E+03	1.456269E-14	5.183222E-16
3.620000E+03	1.431438E-14	5.059359E-16
3.630000E+03	1.406426E-14	4.936198E-16
3.640000E+03	1.381439E-14	4.814459E-16
3.650000E+03	1.356837E-14	4.695380E-16
3.660000E+03	1.332614E-14	4.578902E-16
3.670000E+03	1.309007E-14	4.465804E-16
3.680000E+03	1.286228E-14	4.356742E-16
3.690000E+03	1.264387E-14	4.252032E-16
3.700000E+03	1.243515E-14	4.151694E-16
3.710000E+03	1.223766E-14	4.056168E-16
3.720000E+03	1.205202E-14	3.965575E-16
3.730000E+03	1.187862E-14	3.879950E-16
3.740000E+03	1.171757E-14	3.799239E-16
3.750000E+03	1.156936E-14	3.723510E-16
3.760000E+03	1.143367E-14	3.652563E-16
3.770000E+03	1.130954E-14	3.586011E-16
3.780000E+03	1.119763E-14	3.523973E-16
3.790000E+03	1.109635E-14	3.465869E-16
3.800000E+03	1.100625E-14	3.411793E-16
3.810000E+03	1.092627E-14	3.361344E-16
3.820000E+03	1.085635E-14	3.314433E-16
3.830000E+03	1.079589E-14	3.270813E-16
3.840000E+03	1.074382E-14	3.230100E-16
3.850000E+03	1.069999E-14	3.192194E-16
3.860000E+03	1.066421E-14	3.156984E-16
3.870000E+03	1.063534E-14	3.124092E-16
3.880000E+03	1.061276E-14	3.093291E-16
3.890000E+03	1.059584E-14	3.064364E-16
3.900000E+03	1.058438E-14	3.037228E-16
3.910000E+03	1.057743E-14	3.011578E-16
3.920000E+03	1.057526E-14	2.987471E-16
3.930000E+03	1.057661E-14	2.964537E-16
3.940000E+03	1.058110E-14	2.942654E-16
3.950000E+03	1.058912E-14	2.921922E-16
3.960000E+03	1.059962E-14	2.902046E-16
3.970000E+03	1.061271E-14	2.883050E-16
3.980000E+03	1.062814E-14	2.864868E-16
3.990000E+03	1.064570E-14	2.847442E-16
4.000000E+03	1.066521E-14	2.830730E-16
4.010000E+03	1.068653E-14	2.814698E-16
4.020000E+03	1.070921E-14	2.799237E-16
4.030000E+03	1.073347E-14	2.784418E-16
4.040000E+03	1.075893E-14	2.770149E-16
4.050000E+03	1.078579E-14	2.756498E-16
4.060000E+03	1.081361E-14	2.743369E-16
4.070000E+03	1.084225E-14	2.730741E-16
4.080000E+03	1.087149E-14	2.718580E-16
4.090000E+03	1.090108E-14	2.706845E-16
4.100000E+03	1.093041E-14	2.695413E-16
4.110000E+03	1.095921E-14	2.684239E-16
4.120000E+03	1.098715E-14	2.673276E-16
4.130000E+03	1.101398E-14	2.662495E-16
4.140000E+03	1.103899E-14	2.651757E-16
4.150000E+03	1.106260E-14	2.641199E-16
4.160000E+03	1.108405E-14	2.630676E-16
4.170000E+03	1.110396E-14	2.620368E-16
4.180000E+03	1.112202E-14	2.610241E-16
4.190000E+03	1.113828E-14	2.600340E-16
4.200000E+03	1.115331E-14	2.590829E-16
4.210000E+03	1.116698E-14	2.581710E-16
4.220000E+03	1.117962E-14	2.573093E-16
4.230000E+03	1.119155E-14	2.565076E-16
4.240000E+03	1.120256E-14	2.557639E-16
4.250000E+03	1.121261E-14	2.550802E-16
4.260000E+03	1.122199E-14	2.544658E-16
4.270000E+03	1.123035E-14	2.539144E-16
4.280000E+03	1.123741E-14	2.534227E-16
4.290000E+03	1.124290E-14	2.529851E-16
4.300000E+03	1.124661E-14	2.525950E-16
4.310000E+03	1.124801E-14	2.522373E-16
4.320000E+03	1.124610E-14	2.518868E-16
4.330000E+03	1.123984E-14	2.515171E-16
4.340000E+03	1.122850E-14	2.511082E-16
4.350000E+03	1.121071E-14	2.506261E-16
4.360000E+03	1.118586E-14	2.500536E-16
4.370000E+03	1.115326E-14	2.493711E-16
4.380000E+03	1.111292E-14	2.485744E-16
4.390000E+03	1.106494E-14	2.476613E-16
4.400000E+03	1.100954E-14	2.466320E-16
4.410000E+03	1.094722E-14	2.454933E-16
4.420000E+03	1.087919E-14	2.442671E-16
4.430000E+03	1.080612E-14	2.429640E-16
4.440000E+03	1.072931E-14	2.416082E-16
4.450000E+03	1.064971E-14	2.402168E-16
4.460000E+03	1.056857E-14	2.388140E-16
4.470000E+03	1.048705E-14	2.374215E-16
4.480000E+03	1.040628E-14	2.360614E-16
4.490000E+03	1.032672E-14	2.347407E-16
4.500000E+03	1.024924E-14	2.334763E-16
4.510000E+03	1.017411E-14	2.322711E-16
4.520000E+03	1.010170E-14	2.311312E-16
4.530000E+03	1.003203E-14	2.300543E-16
4.540000E+03	9.965267E-15	2.290421E-16
4.550000E+03	9.901399E-15	2.280922E-16
4.560000E+03	9.840244E-15	2.271986E-16
4.570000E+03	9.781997E-15	2.263639E-16
4.580000E+03	9.726461E-15	2.255818E-16
4.590000E+03	9.673706E-15	2.248524E-16
4.600000E+03	9.623688E-15	2.241733E-16
4.610000E+03	9.576630E-15	2.235483E-16
4.620000E+03	9.532278E-15	2.229702E-16
4.630000E+03	9.490892E-15	2.224440E-16
4.640000E+03	9.452622E-15	2.219723E-16
4.650000E+03	9.417387E-15	2.215520E-16
4.660000E+03	9.385592E-15	2.211920E-16
4.670000E+03	9.357049E-15	2.208870E-16
4.680000E+03	9.332148E-15	2.206455E-16
4.690000E+03	9.310915E-15	2.204674E-16
4.700000E+03	9.293359E-15	2.203523E-16
4.710000E+03	9.279687E-15	2.203046E-16
4.720000E+03	9.269960E-15	2.203251E-16
4.730000E+03	9.263973E-15	2.204084E-16
4.740000E+03	9.261920E-15	2.205585E-16
4.750000E+03	9.263597E-15	2.207701E-16
4.760000E+03	9.268731E-15	2.210362E-16
4.770000E+03	9.277083E-15	2.213503E-16
4.780000E+03	9.288218E-15	2.217016E-16
4.790000E+03	9.301625E-15	2.220773E-16
4.800000E+03	9.316942E-15	2.224680E-16
4.810000E+03	9.333315E-15	2.228530E-16
4.820000E+03	9.350187E-15	2.232182E-16
4.830000E+03	9.366760E-15	2.235442E-16
4.840000E+03	9.382552E-15	2.238190E-16
4.850000E+03	9.396651E-15	2.240206E-16
4.860000E+03	9.408492E-15	2.241353E-16
4.870000E+03	9.417328E-15	2.241451E-16
4.880000E+03	9.422803E-15	2.240418E-16
4.890000E+03	9.424190E-15	2.238081E-16
4.900000E+03	9.421269E-15	2.234395E-16
4.910000E+03	9.413468E-15	2.229228E-16
4.920000E+03	9.400731E-15	2.222576E-16
4.930000E+03	9.382774E-15	2.214381E-16
4.940000E+03	9.359624E-15	2.204660E-16
4.950000E+03	9.331211E-15	2.193412E-16
4.960000E+03	9.297802E-15	2.180712E-16
4.970000E+03	9.259575E-15	2.166619E-16
4.980000E+03	9.217120E-15	2.151288E-16
4.990000E+03	9.170675E-15	2.134790E-16
5.000000E+03	9.120820E-15	2.117280E-16
5.010000E+03	9.068152E-15	2.098912E-16
5.020000E+03	9.013074E-15	2.079799E-16
5.030000E+03	8.956095E-15	2.060075E-16
5.040000E+03	8.897722E-15	2.039873E-16
5.050000E+03	8.838551E-15	2.019348E-16
5.060000E+03	8.779072E-15	1.998625E-16
5.070000E+03	8.719669E-15	1.977809E-16
5.080000E+03	8.660914E-15	1.957042E-16
5.090000E+03	8.603184E-15	1.936423E-16
5.100000E+03	8.547045E-15	1.916091E-16
5.110000E+03	8.492965E-15	1.896162E-16
5.120000E+03	8.441399E-15	1.876747E-16
5.130000E+03	8.392781E-15	1.857950E-16
5.140000E+03	8.347406E-15	1.839844E-16
5.150000E+03	8.305691E-15	1.822527E-16
5.160000E+03	8.267955E-15	1.806074E-16
5.170000E+03	8.234156E-15	1.790480E-16
5.180000E+03	8.204402E-15	1.775772E-16
5.190000E+03	8.178516E-15	1.761917E-16
5.200000E+03	8.156489E-15	1.748919E-16
5.210000E+03	8.137971E-15	1.736707E-16
5.220000E+03	8.122553E-15	1.725202E-16
5.230000E+03	8.110048E-15	1.714373E-16
5.240000E+03	8.099903E-15	1.704111E-16
5.250000E+03	8.091816E-15	1.694366E-16
5.260000E+03	8.085398E-15	1.685068E-16
5.270000E+03	8.080266E-15	1.676152E-16
5.280000E+03	8.075961E-15	1.667540E-16
5.290000E+03	8.072191E-15	1.659188E-16
5.300000E+03	8.068586E-15	1.651040E-16
5.310000E+03	8.064768E-15	1.643037E-16
5.320000E+03	8.060280E-15	1.635107E-16
5.330000E+03	8.054745E-15	1.627197E-16
5.340000E+03	8.047882E-15	1.619272E-16
5.350000E+03	8.039341E-15	1.611284E-16
5.360000E+03	8.028637E-15	1.603162E-16
5.370000E+03	8.015654E-15	1.594903E-16
5.380000E+03	8.000158E-15	1.586486E-16
5.390000E+03	7.981806E-15	1.577865E-16
5.400000E+03	7.960652E-15	1.569071E-16
5.410000E+03	7.936491E-15	1.560084E-16
5.420000E+03	7.909534E-15	1.550952E-16
5.430000E+03	7.879895E-15	1.541682E-16
5.440000E+03	7.847864E-15	1.532309E-16
5.450000E+03	7.814049E-15	1.522933E-16
5.460000E+03	7.778771E-15	1.513593E-16
5.470000E+03	7.742595E-15	1.504376E-16
5.480000E+03	7.705986E-15	1.495348E-16
5.490000E+03	7.669299E-15	1.486555E-16
5.500000E+03	7.633004E-15	1.478064E-16
5.510000E+03	7.597361E-15	1.469901E-16
5.520000E+03	7.562656E-15	1.462099E-16
5.530000E+03	7.529116E-15	1.454678E-16
5.540000E+03	7.496990E-15	1.447665E-16
5.550000E+03	7.466405E-15	1.441062E-16
5.560000E+03	7.437383E-15	1.434853E-16
5.570000E+03	7.410007E-15	1.429033E-16
5.580000E+03	7.384502E-15	1.423626E-16
5.590000E+03	7.360890E-15	1.418618E-16
5.600000E+03	7.339299E-15	1.414016E-16
5.610000E+03	7.319823E-15	1.409821E-16
5.620000E+03	7.302818E-15	1.406084E-16
5.630000E+03	7.288477E-15	1.402826E-16
5.640000E+03	7.277107E-15	1.400092E-16
5.650000E+03	7.269057E-15	1.397934E-16
5.660000E+03	7.264774E-15	1.396423E-16
5.670000E+03	7.264506E-15	1.395592E-16
5.680000E+03	7.268716E-15	1.395518E-16
5.690000E+03	7.277779E-15	1.396257E-16
5.700000E+03	7.292040E-15	1.397864E-16
5.710000E+03	7.311730E-15	1.400368E-16
5.720000E+03	7.337233E-15	1.403828E-16
5.730000E+03	7.368578E-15	1.408237E-16
5.740000E+03	7.405920E-15	1.413610E-16
5.750000E+03	7.449175E-15	1.419915E-16
5.760000E+03	7.498291E-15	1.427129E-16
5.770000E+03	7.552953E-15	1.435176E-16
5.780000E+03	7.612792E-15	1.443971E-16
5.790000E+03	7.677386E-15	1.453420E-16
5.800000E+03	7.745967E-15	1.463363E-16
5.810000E+03	7.817942E-15	1.473674E-16
5.820000E+03	7.892311E-15	1.484153E-16
5.830000E+03	7.968202E-15	1.494624E-16
5.840000E+03	8.044518E-15	1.504873E-16
5.850000E+03	8.120249E-15	1.514704E-16
5.860000E+03	8.194189E-15	1.523889E-16
5.870000E+03	8.265191E-15	1.532212E-16
5.880000E+03	8.332113E-15	1.539467E-16
5.890000E+03	8.393861E-15	1.545456E-16
5.900000E+03	8.449331E-15	1.549987E-16
5.910000E+03	8.497701E-15	1.552924E-16
5.920000E+03	8.538139E-15	1.554134E-16
5.930000E+03	8.570084E-15	1.553536E-16
5.940000E+03	8.593206E-15	1.551099E-16
5.950000E+03	8.607352E-15	1.546822E-16
5.960000E+03	8.612813E-15	1.540791E-16
5.970000E+03	8.610008E-15	1.533113E-16
5.980000E+03	8.599795E-15	1.523976E-16
5.990000E+03	8.583053E-15	1.513568E-16
6.000000E+03	8.561136E-15	1.502161E-16
6.010000E+03	8.535429E-15	1.490030E-16
6.020000E+03	8.507632E-15	1.477499E-16
6.030000E+03	8.479305E-15	1.464864E-16
6.040000E+03	8.452387E-15	1.452481E-16
6.050000E+03	8.428508E-15	1.440648E-16
6.060000E+03	8.409430E-15	1.429681E-16
6.070000E+03	8.396932E-15	1.419891E-16
6.080000E+03	8.392448E-15	1.411529E-16
6.090000E+03	8.397529E-15	1.404858E-16
6.100000E+03	8.413400E-15	1.400088E-16
6.110000E+03	8.441257E-15	1.397417E-16
6.120000E+03	8.481909E-15	1.396982E-16
6.130000E+03	8.535900E-15	1.398875E-16
6.140000E+03	8.603619E-15	1.403165E-16
6.150000E+03	8.685019E-15	1.409854E-16
6.160000E+03	8.779535E-15	1.418866E-16
6.170000E+03	8.886264E-15	1.430076E-16
6.180000E+03	9.003722E-15	1.443275E-16
6.190000E+03	9.129583E-15	1.458130E-16
6.200000E+03	9.260845E-15	1.474209E-16
6.210000E+03	9.393628E-15	1.490954E-16
6.220000E+03	9.523431E-15	1.507718E-16
6.230000E+03	9.645018E-15	1.523748E-16
6.240000E+03	9.752327E-15	1.538166E-16
6.250000E+03	9.839350E-15	1.550106E-16
6.260000E+03	9.900493E-15	1.558763E-16
6.270000E+03	9.931025E-15	1.563457E-16
6.280000E+03	9.929556E-15	1.564020E-16
6.290000E+03	9.899331E-15	1.560995E-16
6.300000E+03	9.846988E-15	1.555443E-16
6.310000E+03	9.780104E-15	1.548564E-16
6.320000E+03	9.706218E-15	1.541516E-16
6.330000E+03	9.632600E-15	1.535391E-16
6.340000E+03	9.565337E-15	1.531104E-16
6.350000E+03	9.509736E-15	1.529465E-16
6.360000E+03	9.469749E-15	1.531082E-16
6.370000E+03	9.448526E-15	1.536456E-16
6.380000E+03	9.448218E-15	1.545944E-16
6.390000E+03	9.470290E-15	1.559806E-16
6.400000E+03	9.515524E-15	1.578206E-16
6.410000E+03	9.583915E-15	1.601187E-16
6.420000E+03	9.675317E-15	1.628778E-16
6.430000E+03	9.788614E-15	1.660846E-16
6.440000E+03	9.922628E-15	1.697253E-16
6.450000E+03	1.007574E-14	1.737777E-16
6.460000E+03	1.024559E-14	1.782066E-16
6.470000E+03	1.042968E-14	1.829731E-16
6.480000E+03	1.062504E-14	1.880284E-16
6.490000E+03	1.082836E-14	1.933163E-16
6.500000E+03	1.103614E-14	1.987745E-16
6.510000E+03	1.124467E-14	2.043350E-16
6.520000E+03	1.145008E-14	2.099242E-16
6.530000E+03	1.164881E-14	2.154714E-16
6.540000E+03	1.183764E-14	2.209099E-16
6.550000E+03	1.201341E-14	2.261720E-16
6.560000E+03	1.217339E-14	2.311958E-16
6.570000E+03	1.231453E-14	2.359110E-16
6.580000E+03	1.243475E-14	2.402646E-16
6.590000E+03	1.253150E-14	2.441931E-16
6.600000E+03	1.260315E-14	2.476489E-16
6.610000E+03	1.264851E-14	2.505927E-16
6.620000E+03	1.266653E-14	2.529878E-16
6.630000E+03	1.265711E-14	2.548155E-16
6.640000E+03	1.262049E-14	2.560648E-16
6.650000E+03	1.255747E-14	2.567371E-16
6.660000E+03	1.246892E-14	2.568354E-16
6.670000E+03	1.235641E-14	2.563790E-16
6.680000E+03	1.222175E-14	2.553933E-16
6.690000E+03	1.206708E-14	2.539126E-16
6.700000E+03	1.189451E-14	2.519724E-16
6.710000E+03	1.170640E-14	2.496147E-16
6.720000E+03	1.150531E-14	2.468880E-16
6.730000E+03	1.129357E-14	2.438380E-16
6.740000E+03	1.107373E-14	2.405166E-16
6.750000E+03	1.084818E-14	2.369735E-16
6.760000E+03	1.061918E-14	2.332578E-16
6.770000E+03	1.038877E-14	2.294147E-16
6.780000E+03	1.015920E-14	2.254952E-16
6.790000E+03	9.932052E-15	2.215368E-16
6.800000E+03	9.709178E-15	2.175836E-16
6.810000E+03	9.491881E-15	2.136685E-16
6.820000E+03	9.281376E-15	2.098225E-16
6.830000E+03	9.078782E-15	2.060753E-16
6.840000E+03	8.884818E-15	2.024474E-16
6.850000E+03	8.700138E-15	1.989582E-16
6.860000E+03	8.525328E-15	1.956256E-16
6.870000E+03	8.360729E-15	1.924617E-16
6.880000E+03	8.206465E-15	1.894736E-16
6.890000E+03	8.062654E-15	1.866681E-16
6.900000E+03	7.929398E-15	1.840513E-16
6.910000E+03	7.806596E-15	1.816245E-16
6.920000E+03	7.693948E-15	1.793840E-16
6.930000E+03	7.591327E-15	1.773298E-16
6.940000E+03	7.498059E-15	1.754491E-16
6.950000E+03	7.413933E-15	1.737393E-16
6.960000E+03	7.338218E-15	1.721854E-16
6.970000E+03	7.270312E-15	1.707753E-16
6.980000E+03	7.209738E-15	1.694993E-16
6.990000E+03	7.155640E-15	1.683390E-16
7.000000E+03	7.107306E-15	1.672787E-16
7.010000E+03	7.064090E-15	1.663043E-16
7.020000E+03	7.025249E-15	1.653995E-16
7.030000E+03	6.989953E-15	1.645455E-16
7.040000E+03	6.957469E-15	1.637258E-16
7.050000E+03	6.927166E-15	1.629265E-16
7.060000E+03	6.898356E-15	1.621322E-16
7.070000E+03	6.870308E-15	1.613265E-16
7.080000E+03	6.842423E-15	1.604962E-16
7.090000E+03	6.814163E-15	1.596297E-16
7.100000E+03	6.785148E-15	1.587191E-16
7.110000E+03	6.754832E-15	1.577529E-16
7.120000E+03	6.723101E-15	1.567296E-16
7.130000E+03	6.689696E-15	1.556445E-16
7.140000E+03	6.654542E-15	1.544975E-16
7.150000E+03	6.617658E-15	1.532904E-16
7.160000E+03	6.579142E-15	1.520272E-16
7.170000E+03	6.539076E-15	1.507116E-16
7.180000E+03	6.497828E-15	1.493536E-16
7.190000E+03	6.455469E-15	1.479568E-16
7.200000E+03	6.412333E-15	1.465304E-16
7.210000E+03	6.368670E-15	1.450821E-16
7.220000E+03	6.324649E-15	1.436174E-16
7.230000E+03	6.280586E-15	1.421452E-16
7.240000E+03	6.236696E-15	1.406722E-16
7.250000E+03	6.193092E-15	1.392027E-16
7.260000E+03	6.149932E-15	1.377418E-16
7.270000E+03	6.107412E-15	1.362959E-16
7.280000E+03	6.065606E-15	1.348682E-16
7.290000E+03	6.024392E-15	1.334578E-16
7.300000E+03	5.983903E-15	1.320695E-16
7.310000E+03	5.944077E-15	1.307037E-16
7.320000E+03	5.904736E-15	1.293583E-16
7.330000E+03	5.865750E-15	1.280325E-16
7.340000E+03	5.827041E-15	1.267267E-16
7.350000E+03	5.788306E-15	1.254362E-16
7.360000E+03	5.749538E-15	1.241632E-16
7.370000E+03	5.710600E-15	1.229068E-16
7.380000E+03	5.671302E-15	1.216652E-16
7.390000E+03	5.631480E-15	1.204371E-16
7.400000E+03	5.591221E-15	1.192268E-16
7.410000E+03	5.550489E-15	1.180357E-16
7.420000E+03	5.509140E-15	1.168631E-16
7.430000E+03	5.467337E-15	1.157145E-16
7.440000E+03	5.424995E-15	1.145905E-16
7.450000E+03	5.382335E-15	1.134978E-16
7.460000E+03	5.339325E-15	1.124377E-16
7.470000E+03	5.296231E-15	1.114179E-16
7.480000E+03	5.253129E-15	1.104416E-16
7.490000E+03	5.210163E-15	1.095139E-16
7.500000E+03	5.167481E-15	1.086393E-16
7.510000E+03	5.125224E-15	1.078225E-16
7.520000E+03	5.083523E-15	1.070678E-16
7.530000E+03	5.042513E-15	1.063792E-16
7.540000E+03	5.002273E-15	1.057598E-16
7.550000E+03	4.963095E-15	1.052170E-16
7.560000E+03	4.925022E-15	1.047529E-16
7.570000E+03	4.888291E-15	1.043735E-16
7.580000E+03	4.853007E-15	1.040822E-16
7.590000E+03	4.819388E-15	1.038847E-16
7.600000E+03	4.787571E-15	1.037849E-16
7.610000E+03	4.757612E-15	1.037843E-16
7.620000E+03	4.729669E-15	1.038851E-16
7.630000E+03	4.703810E-15	1.040874E-16
7.640000E+03	4.680003E-15	1.043893E-16
7.650000E+03	4.658235E-15	1.047894E-16
7.660000E+03	4.638492E-15	1.052863E-16
7.670000E+03	4.620571E-15	1.058743E-16
7.680000E+03	4.604338E-15	1.065495E-16
7.690000E+03	4.589568E-15	1.073055E-16
7.700000E+03	4.575905E-15	1.081329E-16
7.710000E+03	4.563331E-15	1.090299E-16
7.720000E+03	4.551607E-15	1.099897E-16
7.730000E+03	4.540707E-15	1.110102E-16
7.740000E+03	4.530707E-15	1.120921E-16
7.750000E+03	4.521573E-15	1.132334E-16
7.760000E+03	4.513383E-15	1.144348E-16
