#wls	flux	fluxerr
1.600000E+03	4.414655E-15	4.273740E-16
1.640000E+03	4.532333E-15	4.329951E-16
1.680000E+03	4.651713E-15	4.384052E-16
1.720000E+03	4.773183E-15	4.436300E-16
1.760000E+03	4.895161E-15	4.485128E-16
1.800000E+03	5.018671E-15	4.531411E-16
1.840000E+03	5.141766E-15	4.573329E-16
1.880000E+03	5.264281E-15	4.610732E-16
1.920000E+03	5.384038E-15	4.641751E-16
1.960000E+03	5.502067E-15	4.667362E-16
2.000000E+03	5.615683E-15	4.685395E-16
2.040000E+03	5.727079E-15	4.697836E-16
2.080000E+03	5.836198E-15	4.704745E-16
2.120000E+03	5.945947E-15	4.708542E-16
2.160000E+03	6.059774E-15	4.711903E-16
2.200000E+03	6.178547E-15	4.715343E-16
2.240000E+03	6.308371E-15	4.723218E-16
2.280000E+03	6.453082E-15	4.737862E-16
2.320000E+03	6.614608E-15	4.760002E-16
2.360000E+03	6.792789E-15	4.788766E-16
2.400000E+03	6.988815E-15	4.824214E-16
2.440000E+03	7.198322E-15	4.862587E-16
2.480000E+03	7.421352E-15	4.903295E-16
2.520000E+03	7.656750E-15	4.944979E-16
2.560000E+03	7.901387E-15	4.985110E-16
2.600000E+03	8.155921E-15	5.023688E-16
2.640000E+03	8.422117E-15	5.061353E-16
2.680000E+03	8.700171E-15	5.097737E-16
2.720000E+03	8.987938E-15	5.131139E-16
2.760000E+03	9.287422E-15	5.162284E-16
2.800000E+03	9.599602E-15	5.191197E-16
2.840000E+03	9.930983E-15	5.220767E-16
2.880000E+03	1.028455E-14	5.251717E-16
2.920000E+03	1.066619E-14	5.286067E-16
2.960000E+03	1.108287E-14	5.326032E-16
3.000000E+03	1.153630E-14	5.371014E-16
3.010000E+03	1.165600E-14	5.383159E-16
3.020000E+03	1.177911E-14	5.396011E-16
3.030000E+03	1.190415E-14	5.408866E-16
3.040000E+03	1.203253E-14	5.422342E-16
3.050000E+03	1.216423E-14	5.436402E-16
3.060000E+03	1.229769E-14	5.450324E-16
3.070000E+03	1.243434E-14	5.464718E-16
3.080000E+03	1.257259E-14	5.478867E-16
3.090000E+03	1.271533E-14	5.494007E-16
3.100000E+03	1.285946E-14	5.508765E-16
3.110000E+03	1.300781E-14	5.524341E-16
3.120000E+03	1.315724E-14	5.539372E-16
3.130000E+03	1.331057E-14	5.555028E-16
3.140000E+03	1.346456E-14	5.569940E-16
3.150000E+03	1.362202E-14	5.585261E-16
3.160000E+03	1.378113E-14	5.600225E-16
3.170000E+03	1.394163E-14	5.614717E-16
3.180000E+03	1.410316E-14	5.628595E-16
3.190000E+03	1.426688E-14	5.642312E-16
3.200000E+03	1.443238E-14	5.655703E-16
3.210000E+03	1.459770E-14	5.667996E-16
3.220000E+03	1.476386E-14	5.679598E-16
3.230000E+03	1.492880E-14	5.689736E-16
3.240000E+03	1.509347E-14	5.698790E-16
3.250000E+03	1.525724E-14	5.706548E-16
3.260000E+03	1.541944E-14	5.712783E-16
3.270000E+03	1.557936E-14	5.717269E-16
3.280000E+03	1.573622E-14	5.719765E-16
3.290000E+03	1.588921E-14	5.720029E-16
3.300000E+03	1.603900E-14	5.718359E-16
3.310000E+03	1.618169E-14	5.713427E-16
3.320000E+03	1.632086E-14	5.706580E-16
3.330000E+03	1.645107E-14	5.695988E-16
3.340000E+03	1.657583E-14	5.682967E-16
3.350000E+03	1.669118E-14	5.666243E-16
3.360000E+03	1.679761E-14	5.646100E-16
3.370000E+03	1.689414E-14	5.622321E-16
3.380000E+03	1.697982E-14	5.594707E-16
3.390000E+03	1.705369E-14	5.563076E-16
3.400000E+03	1.711630E-14	5.527735E-16
3.410000E+03	1.716536E-14	5.488082E-16
3.420000E+03	1.720010E-14	5.444024E-16
3.430000E+03	1.722121E-14	5.395925E-16
3.440000E+03	1.722666E-14	5.343306E-16
3.450000E+03	1.721855E-14	5.286973E-16
3.460000E+03	1.719371E-14	5.226099E-16
3.470000E+03	1.715425E-14	5.161490E-16
3.480000E+03	1.709829E-14	5.092721E-16
3.490000E+03	1.702522E-14	5.019762E-16
3.500000E+03	1.693586E-14	4.942974E-16
3.510000E+03	1.682905E-14	4.862138E-16
3.520000E+03	1.670635E-14	4.777824E-16
3.530000E+03	1.656835E-14	4.690304E-16
3.540000E+03	1.641582E-14	4.599895E-16
3.550000E+03	1.624973E-14	4.506959E-16
3.560000E+03	1.607225E-14	4.412178E-16
3.570000E+03	1.588356E-14	4.315657E-16
3.580000E+03	1.568501E-14	4.217831E-16
3.590000E+03	1.547995E-14	4.119637E-16
3.600000E+03	1.526787E-14	4.020968E-16
3.610000E+03	1.505206E-14	3.922711E-16
3.620000E+03	1.483298E-14	3.824986E-16
3.630000E+03	1.461203E-14	3.728153E-16
3.640000E+03	1.439135E-14	3.632741E-16
3.650000E+03	1.417136E-14	3.538830E-16
3.660000E+03	1.395478E-14	3.447068E-16
3.670000E+03	1.374111E-14	3.357282E-16
3.680000E+03	1.353281E-14	3.270023E-16
3.690000E+03	1.332994E-14	3.185251E-16
3.700000E+03	1.313323E-14	3.103074E-16
3.710000E+03	1.294461E-14	3.023880E-16
3.720000E+03	1.276314E-14	2.947381E-16
3.730000E+03	1.258978E-14	2.873721E-16
3.740000E+03	1.242472E-14	2.802875E-16
3.750000E+03	1.226860E-14	2.734904E-16
3.760000E+03	1.212072E-14	2.669582E-16
3.770000E+03	1.198148E-14	2.606921E-16
3.780000E+03	1.185054E-14	2.546775E-16
3.790000E+03	1.172701E-14	2.488886E-16
3.800000E+03	1.161146E-14	2.433312E-16
3.810000E+03	1.150288E-14	2.379781E-16
3.820000E+03	1.140072E-14	2.328122E-16
3.830000E+03	1.130488E-14	2.278268E-16
3.840000E+03	1.121476E-14	2.230048E-16
3.850000E+03	1.112923E-14	2.183204E-16
3.860000E+03	1.104822E-14	2.137686E-16
3.870000E+03	1.097114E-14	2.093352E-16
3.880000E+03	1.089737E-14	2.050064E-16
3.890000E+03	1.082642E-14	2.007714E-16
3.900000E+03	1.075819E-14	1.966269E-16
3.910000E+03	1.069141E-14	1.925495E-16
3.920000E+03	1.062650E-14	1.885464E-16
3.930000E+03	1.056308E-14	1.846113E-16
3.940000E+03	1.050048E-14	1.807332E-16
3.950000E+03	1.043852E-14	1.769103E-16
3.960000E+03	1.037737E-14	1.731469E-16
3.970000E+03	1.031685E-14	1.694416E-16
3.980000E+03	1.025635E-14	1.657866E-16
3.990000E+03	1.019677E-14	1.621991E-16
4.000000E+03	1.013721E-14	1.586668E-16
4.010000E+03	1.007834E-14	1.552031E-16
4.020000E+03	1.002021E-14	1.518120E-16
4.030000E+03	9.962296E-15	1.484882E-16
4.040000E+03	9.904951E-15	1.452406E-16
4.050000E+03	9.848453E-15	1.420769E-16
4.060000E+03	9.792236E-15	1.389926E-16
4.070000E+03	9.736290E-15	1.359919E-16
4.080000E+03	9.680770E-15	1.330814E-16
4.090000E+03	9.625280E-15	1.302602E-16
4.100000E+03	9.569724E-15	1.275323E-16
4.110000E+03	9.513747E-15	1.248982E-16
4.120000E+03	9.457451E-15	1.223648E-16
4.130000E+03	9.400488E-15	1.199333E-16
4.140000E+03	9.343400E-15	1.176164E-16
4.150000E+03	9.285743E-15	1.154140E-16
4.160000E+03	9.228129E-15	1.133393E-16
4.170000E+03	9.171002E-15	1.114028E-16
4.180000E+03	9.114459E-15	1.096104E-16
4.190000E+03	9.059290E-15	1.079762E-16
4.200000E+03	9.005903E-15	1.065086E-16
4.210000E+03	8.954683E-15	1.052157E-16
4.220000E+03	8.906223E-15	1.041072E-16
4.230000E+03	8.861045E-15	1.031917E-16
4.240000E+03	8.819233E-15	1.024719E-16
4.250000E+03	8.781109E-15	1.019522E-16
4.260000E+03	8.746725E-15	1.016284E-16
4.270000E+03	8.716176E-15	1.014935E-16
4.280000E+03	8.689079E-15	1.015349E-16
4.290000E+03	8.665454E-15	1.017445E-16
4.300000E+03	8.644681E-15	1.021066E-16
4.310000E+03	8.626656E-15	1.026115E-16
4.320000E+03	8.610105E-15	1.032358E-16
4.330000E+03	8.594118E-15	1.039597E-16
4.340000E+03	8.577287E-15	1.047574E-16
4.350000E+03	8.558606E-15	1.056073E-16
4.360000E+03	8.536894E-15	1.064855E-16
4.370000E+03	8.511708E-15	1.073767E-16
4.380000E+03	8.482561E-15	1.082650E-16
4.390000E+03	8.449311E-15	1.091390E-16
4.400000E+03	8.411868E-15	1.099883E-16
4.410000E+03	8.370581E-15	1.108082E-16
4.420000E+03	8.325690E-15	1.115934E-16
4.430000E+03	8.277579E-15	1.123410E-16
4.440000E+03	8.226834E-15	1.130517E-16
4.450000E+03	8.173952E-15	1.137255E-16
4.460000E+03	8.119610E-15	1.143660E-16
4.470000E+03	8.064779E-15	1.149815E-16
4.480000E+03	8.010211E-15	1.155786E-16
4.490000E+03	7.956352E-15	1.161601E-16
4.500000E+03	7.903968E-15	1.167341E-16
4.510000E+03	7.853091E-15	1.172989E-16
4.520000E+03	7.804050E-15	1.178574E-16
4.530000E+03	7.757007E-15	1.184103E-16
4.540000E+03	7.712076E-15	1.189581E-16
4.550000E+03	7.669214E-15	1.194990E-16
4.560000E+03	7.628464E-15	1.200330E-16
4.570000E+03	7.589776E-15	1.205584E-16
4.580000E+03	7.553179E-15	1.210752E-16
4.590000E+03	7.518628E-15	1.215822E-16
4.600000E+03	7.486194E-15	1.220801E-16
4.610000E+03	7.455949E-15	1.225700E-16
4.620000E+03	7.427803E-15	1.230502E-16
4.630000E+03	7.402062E-15	1.235257E-16
4.640000E+03	7.378573E-15	1.239940E-16
4.650000E+03	7.357562E-15	1.244590E-16
4.660000E+03	7.339181E-15	1.249234E-16
4.670000E+03	7.323471E-15	1.253881E-16
4.680000E+03	7.310479E-15	1.258542E-16
4.690000E+03	7.300517E-15	1.263272E-16
4.700000E+03	7.293501E-15	1.268059E-16
4.710000E+03	7.289514E-15	1.272921E-16
4.720000E+03	7.288704E-15	1.277884E-16
4.730000E+03	7.291077E-15	1.282952E-16
4.740000E+03	7.296521E-15	1.288105E-16
4.750000E+03	7.305054E-15	1.293348E-16
4.760000E+03	7.316536E-15	1.298654E-16
4.770000E+03	7.330775E-15	1.303989E-16
4.780000E+03	7.347702E-15	1.309337E-16
4.790000E+03	7.366818E-15	1.314608E-16
4.800000E+03	7.387664E-15	1.319715E-16
4.810000E+03	7.409738E-15	1.324565E-16
4.820000E+03	7.432398E-15	1.329038E-16
4.830000E+03	7.455061E-15	1.333026E-16
4.840000E+03	7.477048E-15	1.336404E-16
4.850000E+03	7.497740E-15	1.339056E-16
4.860000E+03	7.516446E-15	1.340858E-16
4.870000E+03	7.532593E-15	1.341707E-16
4.880000E+03	7.545666E-15	1.341513E-16
4.890000E+03	7.555126E-15	1.340183E-16
4.900000E+03	7.560584E-15	1.337654E-16
4.910000E+03	7.561838E-15	1.333898E-16
4.920000E+03	7.558517E-15	1.328862E-16
4.930000E+03	7.550676E-15	1.322567E-16
4.940000E+03	7.538154E-15	1.315001E-16
4.950000E+03	7.521138E-15	1.306215E-16
4.960000E+03	7.499824E-15	1.296262E-16
4.970000E+03	7.474433E-15	1.285201E-16
4.980000E+03	7.445426E-15	1.273134E-16
4.990000E+03	7.413230E-15	1.260157E-16
5.000000E+03	7.378280E-15	1.246366E-16
5.010000E+03	7.340956E-15	1.231848E-16
5.020000E+03	7.301811E-15	1.216721E-16
5.030000E+03	7.261304E-15	1.201081E-16
5.040000E+03	7.219900E-15	1.185028E-16
5.050000E+03	7.178058E-15	1.168658E-16
5.060000E+03	7.136216E-15	1.152061E-16
5.070000E+03	7.094807E-15	1.135325E-16
5.080000E+03	7.054263E-15	1.118537E-16
5.090000E+03	7.015073E-15	1.101788E-16
5.100000E+03	6.977571E-15	1.085145E-16
5.110000E+03	6.942158E-15	1.068683E-16
5.120000E+03	6.909206E-15	1.052468E-16
5.130000E+03	6.879139E-15	1.036575E-16
5.140000E+03	6.852269E-15	1.021058E-16
5.150000E+03	6.828770E-15	1.005948E-16
5.160000E+03	6.808831E-15	9.912805E-17
5.170000E+03	6.792722E-15	9.770985E-17
5.180000E+03	6.780325E-15	9.633905E-17
5.190000E+03	6.771668E-15	9.501668E-17
5.200000E+03	6.766649E-15	9.374207E-17
5.210000E+03	6.765082E-15	9.251359E-17
5.220000E+03	6.766737E-15	9.132931E-17
5.230000E+03	6.771352E-15	9.018720E-17
5.240000E+03	6.778635E-15	8.908518E-17
5.250000E+03	6.788273E-15	8.802138E-17
5.260000E+03	6.799949E-15	8.699427E-17
5.270000E+03	6.813402E-15	8.600351E-17
5.280000E+03	6.828224E-15	8.504732E-17
5.290000E+03	6.844060E-15	8.412513E-17
5.300000E+03	6.860589E-15	8.323721E-17
5.310000E+03	6.877249E-15	8.238141E-17
5.320000E+03	6.893807E-15	8.155999E-17
5.330000E+03	6.909554E-15	8.076997E-17
5.340000E+03	6.924095E-15	8.001253E-17
5.350000E+03	6.936884E-15	7.928737E-17
5.360000E+03	6.947233E-15	7.859287E-17
5.370000E+03	6.954735E-15	7.793077E-17
5.380000E+03	6.958858E-15	7.730137E-17
5.390000E+03	6.959019E-15	7.670436E-17
5.400000E+03	6.954987E-15	7.614294E-17
5.410000E+03	6.946388E-15	7.561834E-17
5.420000E+03	6.933122E-15	7.513415E-17
5.430000E+03	6.915208E-15	7.469436E-17
5.440000E+03	6.893355E-15	7.430656E-17
5.450000E+03	6.868106E-15	7.397190E-17
5.460000E+03	6.840341E-15	7.369427E-17
5.470000E+03	6.810663E-15	7.347410E-17
5.480000E+03	6.779863E-15	7.331357E-17
5.490000E+03	6.748395E-15	7.321105E-17
5.500000E+03	6.716922E-15	7.316717E-17
5.510000E+03	6.685885E-15	7.318025E-17
5.520000E+03	6.655516E-15	7.324653E-17
5.530000E+03	6.626314E-15	7.336540E-17
5.540000E+03	6.598332E-15	7.353161E-17
5.550000E+03	6.571898E-15	7.374328E-17
5.560000E+03	6.547105E-15	7.399624E-17
5.570000E+03	6.524105E-15	7.428730E-17
5.580000E+03	6.503035E-15	7.461345E-17
5.590000E+03	6.484028E-15	7.497197E-17
5.600000E+03	6.467250E-15	7.536085E-17
5.610000E+03	6.452879E-15	7.577858E-17
5.620000E+03	6.441179E-15	7.622496E-17
5.630000E+03	6.432335E-15	7.669919E-17
5.640000E+03	6.426616E-15	7.720180E-17
5.650000E+03	6.424309E-15	7.773380E-17
5.660000E+03	6.425793E-15	7.829762E-17
5.670000E+03	6.431263E-15	7.889368E-17
5.680000E+03	6.441159E-15	7.952564E-17
5.690000E+03	6.455724E-15	8.019490E-17
5.700000E+03	6.475297E-15	8.090423E-17
5.710000E+03	6.499982E-15	8.165356E-17
5.720000E+03	6.530026E-15	8.244465E-17
5.730000E+03	6.565608E-15	8.327842E-17
5.740000E+03	6.606635E-15	8.415238E-17
5.750000E+03	6.653119E-15	8.506521E-17
5.760000E+03	6.704910E-15	8.601348E-17
5.770000E+03	6.761753E-15	8.699232E-17
5.780000E+03	6.823283E-15	8.799523E-17
5.790000E+03	6.888955E-15	8.901330E-17
5.800000E+03	6.958185E-15	9.003697E-17
5.810000E+03	7.030359E-15	9.105615E-17
5.820000E+03	7.104630E-15	9.205768E-17
5.830000E+03	7.180205E-15	9.302904E-17
5.840000E+03	7.256021E-15	9.395426E-17
5.850000E+03	7.331238E-15	9.482030E-17
5.860000E+03	7.404704E-15	9.561028E-17
5.870000E+03	7.475556E-15	9.631126E-17
5.880000E+03	7.542661E-15	9.690711E-17
5.890000E+03	7.605145E-15	9.738544E-17
5.900000E+03	7.662086E-15	9.773366E-17
5.910000E+03	7.712817E-15	9.794296E-17
5.920000E+03	7.756669E-15	9.800498E-17
5.930000E+03	7.793259E-15	9.791558E-17
5.940000E+03	7.822411E-15	9.767369E-17
5.950000E+03	7.844249E-15	9.728245E-17
5.960000E+03	7.858956E-15	9.674618E-17
5.970000E+03	7.867189E-15	9.607529E-17
5.980000E+03	7.869768E-15	9.528236E-17
5.990000E+03	7.867704E-15	9.438231E-17
6.000000E+03	7.862290E-15	9.339329E-17
6.010000E+03	7.854982E-15	9.233509E-17
6.020000E+03	7.847493E-15	9.123000E-17
6.030000E+03	7.841400E-15	9.009812E-17
6.040000E+03	7.838503E-15	8.896139E-17
6.050000E+03	7.840735E-15	8.784236E-17
6.060000E+03	7.849804E-15	8.676007E-17
6.070000E+03	7.867687E-15	8.573558E-17
6.080000E+03	7.895947E-15	8.478434E-17
6.090000E+03	7.936435E-15	8.392403E-17
6.100000E+03	7.990578E-15	8.316680E-17
6.110000E+03	8.059885E-15	8.252498E-17
6.120000E+03	8.145512E-15	8.200662E-17
6.130000E+03	8.248349E-15	8.161684E-17
6.140000E+03	8.369179E-15	8.135971E-17
6.150000E+03	8.508124E-15	8.123327E-17
6.160000E+03	8.664828E-15	8.123204E-17
6.170000E+03	8.838263E-15	8.134591E-17
6.180000E+03	9.026450E-15	8.155842E-17
6.190000E+03	9.226407E-15	8.184735E-17
6.200000E+03	9.433446E-15	8.217960E-17
6.210000E+03	9.641584E-15	8.251611E-17
6.220000E+03	9.843315E-15	8.281071E-17
6.230000E+03	1.002902E-14	8.300589E-17
6.240000E+03	1.018794E-14	8.304141E-17
6.250000E+03	1.030858E-14	8.285642E-17
6.260000E+03	1.037895E-14	8.239042E-17
6.270000E+03	1.038990E-14	8.160662E-17
6.280000E+03	1.033860E-14	8.051542E-17
6.290000E+03	1.023341E-14	7.920751E-17
6.300000E+03	1.008941E-14	7.781590E-17
6.310000E+03	9.923241E-15	7.647660E-17
6.320000E+03	9.749069E-15	7.529989E-17
6.330000E+03	9.579337E-15	7.437630E-17
6.340000E+03	9.424529E-15	7.377080E-17
6.350000E+03	9.291001E-15	7.351614E-17
6.360000E+03	9.183305E-15	7.363430E-17
6.370000E+03	9.104897E-15	7.414263E-17
6.380000E+03	9.057282E-15	7.504700E-17
6.390000E+03	9.040878E-15	7.634809E-17
6.400000E+03	9.055807E-15	7.804742E-17
6.410000E+03	9.101557E-15	8.014393E-17
6.420000E+03	9.176918E-15	8.263257E-17
6.430000E+03	9.280594E-15	8.550880E-17
6.440000E+03	9.410674E-15	8.876318E-17
6.450000E+03	9.564879E-15	9.238267E-17
6.460000E+03	9.740762E-15	9.635170E-17
6.470000E+03	9.935067E-15	1.006452E-16
6.480000E+03	1.014436E-14	1.052339E-16
6.490000E+03	1.036512E-14	1.100843E-16
6.500000E+03	1.059325E-14	1.151541E-16
6.510000E+03	1.082469E-14	1.203970E-16
6.520000E+03	1.105555E-14	1.257643E-16
6.530000E+03	1.128205E-14	1.312054E-16
6.540000E+03	1.150027E-14	1.366636E-16
6.550000E+03	1.170652E-14	1.420812E-16
6.560000E+03	1.189758E-14	1.474028E-16
6.570000E+03	1.206982E-14	1.525645E-16
6.580000E+03	1.222033E-14	1.575088E-16
6.590000E+03	1.234648E-14	1.621785E-16
6.600000E+03	1.244570E-14	1.665161E-16
6.610000E+03	1.251625E-14	1.704727E-16
6.620000E+03	1.255717E-14	1.740098E-16
6.630000E+03	1.256769E-14	1.770913E-16
6.640000E+03	1.254831E-14	1.796992E-16
6.650000E+03	1.249936E-14	1.818148E-16
6.660000E+03	1.242206E-14	1.834340E-16
6.670000E+03	1.231794E-14	1.845590E-16
6.680000E+03	1.218878E-14	1.851984E-16
6.690000E+03	1.203706E-14	1.853741E-16
6.700000E+03	1.186507E-14	1.851080E-16
6.710000E+03	1.167526E-14	1.844272E-16
6.720000E+03	1.147055E-14	1.833694E-16
6.730000E+03	1.125337E-14	1.819671E-16
6.740000E+03	1.102648E-14	1.802608E-16
6.750000E+03	1.079246E-14	1.782903E-16
6.760000E+03	1.055387E-14	1.760979E-16
6.770000E+03	1.031279E-14	1.737194E-16
6.780000E+03	1.007150E-14	1.711958E-16
6.790000E+03	9.831841E-15	1.685623E-16
6.800000E+03	9.595797E-15	1.658575E-16
6.810000E+03	9.364795E-15	1.631118E-16
6.820000E+03	9.140059E-15	1.603524E-16
6.830000E+03	8.922920E-15	1.576090E-16
6.840000E+03	8.714088E-15	1.549010E-16
6.850000E+03	8.514402E-15	1.522497E-16
6.860000E+03	8.324415E-15	1.496719E-16
6.870000E+03	8.144425E-15	1.471791E-16
6.880000E+03	7.974880E-15	1.447857E-16
6.890000E+03	7.815704E-15	1.424963E-16
6.900000E+03	7.667082E-15	1.403197E-16
6.910000E+03	7.528717E-15	1.382556E-16
6.920000E+03	7.400483E-15	1.363063E-16
6.930000E+03	7.282076E-15	1.344705E-16
6.940000E+03	7.173017E-15	1.327432E-16
6.950000E+03	7.073020E-15	1.311224E-16
6.960000E+03	6.981475E-15	1.295997E-16
6.970000E+03	6.897726E-15	1.281656E-16
6.980000E+03	6.821245E-15	1.268125E-16
6.990000E+03	6.751470E-15	1.255318E-16
7.000000E+03	6.687569E-15	1.243095E-16
7.010000E+03	6.628942E-15	1.231360E-16
7.020000E+03	6.574902E-15	1.219997E-16
7.030000E+03	6.524844E-15	1.208903E-16
7.040000E+03	6.477932E-15	1.197933E-16
7.050000E+03	6.433593E-15	1.186989E-16
7.060000E+03	6.391198E-15	1.175965E-16
7.070000E+03	6.350158E-15	1.164761E-16
7.080000E+03	6.309925E-15	1.153286E-16
7.090000E+03	6.270088E-15	1.141474E-16
7.100000E+03	6.230058E-15	1.129232E-16
7.110000E+03	6.189630E-15	1.116533E-16
7.120000E+03	6.148436E-15	1.103327E-16
7.130000E+03	6.106270E-15	1.089591E-16
7.140000E+03	6.062997E-15	1.075320E-16
7.150000E+03	6.018553E-15	1.060518E-16
7.160000E+03	5.973021E-15	1.045221E-16
7.170000E+03	5.926384E-15	1.029446E-16
7.180000E+03	5.878741E-15	1.013229E-16
7.190000E+03	5.830237E-15	9.966181E-17
7.200000E+03	5.781104E-15	9.796733E-17
7.210000E+03	5.731446E-15	9.624332E-17
7.220000E+03	5.681515E-15	9.449619E-17
7.230000E+03	5.631417E-15	9.272978E-17
7.240000E+03	5.581394E-15	9.095017E-17
7.250000E+03	5.531530E-15	8.916079E-17
7.260000E+03	5.482037E-15	8.736714E-17
7.270000E+03	5.432960E-15	8.557195E-17
7.280000E+03	5.384460E-15	8.377988E-17
7.290000E+03	5.336605E-15	8.199405E-17
7.300000E+03	5.289434E-15	8.021718E-17
7.310000E+03	5.242894E-15	7.845070E-17
7.320000E+03	5.197050E-15	7.669791E-17
7.330000E+03	5.151881E-15	7.496093E-17
7.340000E+03	5.107355E-15	7.324186E-17
7.350000E+03	5.063434E-15	7.154288E-17
7.360000E+03	5.020146E-15	6.986727E-17
7.370000E+03	4.977394E-15	6.821679E-17
7.380000E+03	4.935160E-15	6.659445E-17
7.390000E+03	4.893499E-15	6.500454E-17
7.400000E+03	4.852426E-15	6.345089E-17
7.410000E+03	4.812034E-15	6.193860E-17
7.420000E+03	4.772234E-15	6.047062E-17
7.430000E+03	4.733225E-15	5.905376E-17
7.440000E+03	4.695086E-15	5.769346E-17
7.450000E+03	4.657843E-15	5.639471E-17
7.460000E+03	4.621605E-15	5.516367E-17
7.470000E+03	4.586491E-15	5.400677E-17
7.480000E+03	4.552552E-15	5.292976E-17
7.490000E+03	4.519914E-15	5.193937E-17
7.500000E+03	4.488694E-15	5.104228E-17
7.510000E+03	4.458941E-15	5.024439E-17
7.520000E+03	4.430827E-15	4.955290E-17
7.530000E+03	4.404451E-15	4.897409E-17
7.540000E+03	4.379785E-15	4.851259E-17
7.550000E+03	4.357041E-15	4.817540E-17
7.560000E+03	4.336179E-15	4.796636E-17
7.570000E+03	4.317319E-15	4.789062E-17
7.580000E+03	4.300511E-15	4.795200E-17
7.590000E+03	4.285713E-15	4.815216E-17
7.600000E+03	4.272968E-15	4.848999E-17
7.610000E+03	4.262211E-15	4.896175E-17
7.620000E+03	4.253268E-15	4.956196E-17
7.630000E+03	4.245964E-15	5.028478E-17
7.640000E+03	4.240100E-15	5.112373E-17
7.650000E+03	4.235284E-15	5.206969E-17
7.660000E+03	4.231080E-15	5.311255E-17
7.670000E+03	4.226954E-15	5.424052E-17
7.680000E+03	4.222109E-15	5.543778E-17
7.690000E+03	4.215913E-15	5.668980E-17
7.700000E+03	4.207447E-15	5.797732E-17
7.710000E+03	4.196052E-15	5.928353E-17
7.720000E+03	4.181455E-15	6.059632E-17
7.730000E+03	4.164142E-15	6.191441E-17
7.740000E+03	4.144602E-15	6.323746E-17
7.750000E+03	4.123468E-15	6.456822E-17
7.760000E+03	4.101127E-15	6.590669E-17
