#wls	flux	fluxerr
1.600000E+03	3.802016E-15	4.254561E-16
1.640000E+03	3.899349E-15	4.309505E-16
1.680000E+03	3.996700E-15	4.361020E-16
1.720000E+03	4.093602E-15	4.408557E-16
1.760000E+03	4.189574E-15	4.451578E-16
1.800000E+03	4.284153E-15	4.489600E-16
1.840000E+03	4.377740E-15	4.523060E-16
1.880000E+03	4.470132E-15	4.551761E-16
1.920000E+03	4.560529E-15	4.574925E-16
1.960000E+03	4.650891E-15	4.594554E-16
2.000000E+03	4.741166E-15	4.610575E-16
2.040000E+03	4.833428E-15	4.624962E-16
2.080000E+03	4.929396E-15	4.639225E-16
2.120000E+03	5.031051E-15	4.655010E-16
2.160000E+03	5.141195E-15	4.674588E-16
2.200000E+03	5.261908E-15	4.699400E-16
2.240000E+03	5.395453E-15	4.730907E-16
2.280000E+03	5.543964E-15	4.770287E-16
2.320000E+03	5.710520E-15	4.819376E-16
2.360000E+03	5.894613E-15	4.876821E-16
2.400000E+03	6.097388E-15	4.942635E-16
2.440000E+03	6.319241E-15	5.016154E-16
2.480000E+03	6.563056E-15	5.098619E-16
2.520000E+03	6.830549E-15	5.190186E-16
2.560000E+03	7.124341E-15	5.291571E-16
2.600000E+03	7.450015E-15	5.405459E-16
2.640000E+03	7.810949E-15	5.532597E-16
2.680000E+03	8.208682E-15	5.672241E-16
2.720000E+03	8.641731E-15	5.821519E-16
2.760000E+03	9.108599E-15	5.977667E-16
2.800000E+03	9.605994E-15	6.136877E-16
2.840000E+03	1.012880E-14	6.294458E-16
2.880000E+03	1.067622E-14	6.448729E-16
2.920000E+03	1.124135E-14	6.594533E-16
2.960000E+03	1.181819E-14	6.727764E-16
3.000000E+03	1.239996E-14	6.844402E-16
3.010000E+03	1.254480E-14	6.870225E-16
3.020000E+03	1.268946E-14	6.894774E-16
3.030000E+03	1.283233E-14	6.917185E-16
3.040000E+03	1.297590E-14	6.938822E-16
3.050000E+03	1.311712E-14	6.958064E-16
3.060000E+03	1.325708E-14	6.975527E-16
3.070000E+03	1.339548E-14	6.991076E-16
3.080000E+03	1.353199E-14	7.004571E-16
3.090000E+03	1.366628E-14	7.015880E-16
3.100000E+03	1.379800E-14	7.024859E-16
3.110000E+03	1.392679E-14	7.031375E-16
3.120000E+03	1.405229E-14	7.035286E-16
3.130000E+03	1.417548E-14	7.037145E-16
3.140000E+03	1.429324E-14	7.035444E-16
3.150000E+03	1.440789E-14	7.031408E-16
3.160000E+03	1.451906E-14	7.024901E-16
3.170000E+03	1.462494E-14	7.015113E-16
3.180000E+03	1.472512E-14	7.001933E-16
3.190000E+03	1.482055E-14	6.985889E-16
3.200000E+03	1.490946E-14	6.966228E-16
3.210000E+03	1.499280E-14	6.943486E-16
3.220000E+03	1.507016E-14	6.917557E-16
3.230000E+03	1.514114E-14	6.888342E-16
3.240000E+03	1.520402E-14	6.855168E-16
3.250000E+03	1.525980E-14	6.818584E-16
3.260000E+03	1.530941E-14	6.779110E-16
3.270000E+03	1.534994E-14	6.735553E-16
3.280000E+03	1.538366E-14	6.689030E-16
3.290000E+03	1.540780E-14	6.638434E-16
3.300000E+03	1.542464E-14	6.584876E-16
3.310000E+03	1.543275E-14	6.527845E-16
3.320000E+03	1.543321E-14	6.467914E-16
3.330000E+03	1.542472E-14	6.404639E-16
3.340000E+03	1.540843E-14	6.338615E-16
3.350000E+03	1.538314E-14	6.269456E-16
3.360000E+03	1.535127E-14	6.198249E-16
3.370000E+03	1.530943E-14	6.123730E-16
3.380000E+03	1.526126E-14	6.047461E-16
3.390000E+03	1.520582E-14	5.969149E-16
3.400000E+03	1.514336E-14	5.888989E-16
3.410000E+03	1.507421E-14	5.807193E-16
3.420000E+03	1.499980E-14	5.724381E-16
3.430000E+03	1.491945E-14	5.640364E-16
3.440000E+03	1.483362E-14	5.555385E-16
3.450000E+03	1.474376E-14	5.470043E-16
3.460000E+03	1.464933E-14	5.384190E-16
3.470000E+03	1.455268E-14	5.298724E-16
3.480000E+03	1.445222E-14	5.213102E-16
3.490000E+03	1.434919E-14	5.127775E-16
3.500000E+03	1.424376E-14	5.042811E-16
3.510000E+03	1.413700E-14	4.958572E-16
3.520000E+03	1.402815E-14	4.874787E-16
3.530000E+03	1.391744E-14	4.791523E-16
3.540000E+03	1.380586E-14	4.709116E-16
3.550000E+03	1.369283E-14	4.627344E-16
3.560000E+03	1.358014E-14	4.546795E-16
3.570000E+03	1.346646E-14	4.467005E-16
3.580000E+03	1.335280E-14	4.388291E-16
3.590000E+03	1.323942E-14	4.310711E-16
3.600000E+03	1.312727E-14	4.234546E-16
3.610000E+03	1.301587E-14	4.159612E-16
3.620000E+03	1.290545E-14	4.085954E-16
3.630000E+03	1.279754E-14	4.014022E-16
3.640000E+03	1.269095E-14	3.943409E-16
3.650000E+03	1.258589E-14	3.874144E-16
3.660000E+03	1.248366E-14	3.806601E-16
3.670000E+03	1.238431E-14	3.740750E-16
3.680000E+03	1.228665E-14	3.676196E-16
3.690000E+03	1.219184E-14	3.613253E-16
3.700000E+03	1.209921E-14	3.551693E-16
3.710000E+03	1.200975E-14	3.491770E-16
3.720000E+03	1.192218E-14	3.433083E-16
3.730000E+03	1.183687E-14	3.375704E-16
3.740000E+03	1.175356E-14	3.319541E-16
3.750000E+03	1.167198E-14	3.264488E-16
3.760000E+03	1.159233E-14	3.210584E-16
3.770000E+03	1.151381E-14	3.157587E-16
3.780000E+03	1.143655E-14	3.105520E-16
3.790000E+03	1.136020E-14	3.054274E-16
3.800000E+03	1.128399E-14	3.003636E-16
3.810000E+03	1.120841E-14	2.953734E-16
3.820000E+03	1.113230E-14	2.904256E-16
3.830000E+03	1.105611E-14	2.855330E-16
3.840000E+03	1.097952E-14	2.806869E-16
3.850000E+03	1.090179E-14	2.758696E-16
3.860000E+03	1.082262E-14	2.710749E-16
3.870000E+03	1.074210E-14	2.663066E-16
3.880000E+03	1.066032E-14	2.615684E-16
3.890000E+03	1.057632E-14	2.568386E-16
3.900000E+03	1.049026E-14	2.521235E-16
3.910000E+03	1.040198E-14	2.474219E-16
3.920000E+03	1.031140E-14	2.427341E-16
3.930000E+03	1.021878E-14	2.380689E-16
3.940000E+03	1.012379E-14	2.334214E-16
3.950000E+03	1.002651E-14	2.287959E-16
3.960000E+03	9.927323E-15	2.242043E-16
3.970000E+03	9.826380E-15	2.196521E-16
3.980000E+03	9.723599E-15	2.151402E-16
3.990000E+03	9.619212E-15	2.106761E-16
4.000000E+03	9.513743E-15	2.062734E-16
4.010000E+03	9.407456E-15	2.019400E-16
4.020000E+03	9.300649E-15	1.976840E-16
4.030000E+03	9.193371E-15	1.935080E-16
4.040000E+03	9.085941E-15	1.894203E-16
4.050000E+03	8.978895E-15	1.854334E-16
4.060000E+03	8.872521E-15	1.815542E-16
4.070000E+03	8.766886E-15	1.777849E-16
4.080000E+03	8.662272E-15	1.741320E-16
4.090000E+03	8.559150E-15	1.706055E-16
4.100000E+03	8.457387E-15	1.672030E-16
4.110000E+03	8.357641E-15	1.639379E-16
4.120000E+03	8.259811E-15	1.608083E-16
4.130000E+03	8.164390E-15	1.578236E-16
4.140000E+03	8.071528E-15	1.549865E-16
4.150000E+03	7.981757E-15	1.523070E-16
4.160000E+03	7.895132E-15	1.497855E-16
4.170000E+03	7.812234E-15	1.474325E-16
4.180000E+03	7.733329E-15	1.452522E-16
4.190000E+03	7.658838E-15	1.432518E-16
4.200000E+03	7.589158E-15	1.414379E-16
4.210000E+03	7.524500E-15	1.398134E-16
4.220000E+03	7.465024E-15	1.383806E-16
4.230000E+03	7.411101E-15	1.371457E-16
4.240000E+03	7.362600E-15	1.361049E-16
4.250000E+03	7.319708E-15	1.352576E-16
4.260000E+03	7.282124E-15	1.345929E-16
4.270000E+03	7.249736E-15	1.341037E-16
4.280000E+03	7.222237E-15	1.337797E-16
4.290000E+03	7.199271E-15	1.336098E-16
4.300000E+03	7.180443E-15	1.335823E-16
4.310000E+03	7.165514E-15	1.336887E-16
4.320000E+03	7.153531E-15	1.339072E-16
4.330000E+03	7.143504E-15	1.342153E-16
4.340000E+03	7.134649E-15	1.345941E-16
4.350000E+03	7.125706E-15	1.350157E-16
4.360000E+03	7.116103E-15	1.354649E-16
4.370000E+03	7.105090E-15	1.359230E-16
4.380000E+03	7.092074E-15	1.363740E-16
4.390000E+03	7.076727E-15	1.368069E-16
4.400000E+03	7.058862E-15	1.372134E-16
4.410000E+03	7.038324E-15	1.375859E-16
4.420000E+03	7.015176E-15	1.379208E-16
4.430000E+03	6.989381E-15	1.382131E-16
4.440000E+03	6.961366E-15	1.384667E-16
4.450000E+03	6.931221E-15	1.386796E-16
4.460000E+03	6.899450E-15	1.388579E-16
4.470000E+03	6.866369E-15	1.390045E-16
4.480000E+03	6.832471E-15	1.391262E-16
4.490000E+03	6.798037E-15	1.392258E-16
4.500000E+03	6.763502E-15	1.393097E-16
4.510000E+03	6.729258E-15	1.393836E-16
4.520000E+03	6.695488E-15	1.394494E-16
4.530000E+03	6.662602E-15	1.395137E-16
4.540000E+03	6.630804E-15	1.395795E-16
4.550000E+03	6.600193E-15	1.396473E-16
4.560000E+03	6.571094E-15	1.397230E-16
4.570000E+03	6.543650E-15	1.398086E-16
4.580000E+03	6.517988E-15	1.399061E-16
4.590000E+03	6.494387E-15	1.400205E-16
4.600000E+03	6.472797E-15	1.401504E-16
4.610000E+03	6.453477E-15	1.403008E-16
4.620000E+03	6.436522E-15	1.404733E-16
4.630000E+03	6.422097E-15	1.406712E-16
4.640000E+03	6.410200E-15	1.408942E-16
4.650000E+03	6.401052E-15	1.411467E-16
4.660000E+03	6.394630E-15	1.414281E-16
4.670000E+03	6.390969E-15	1.417388E-16
4.680000E+03	6.390235E-15	1.420824E-16
4.690000E+03	6.392273E-15	1.424550E-16
4.700000E+03	6.397126E-15	1.428573E-16
4.710000E+03	6.404734E-15	1.432876E-16
4.720000E+03	6.414862E-15	1.437402E-16
4.730000E+03	6.427456E-15	1.442136E-16
4.740000E+03	6.442214E-15	1.447004E-16
4.750000E+03	6.458932E-15	1.451955E-16
4.760000E+03	6.477225E-15	1.456896E-16
4.770000E+03	6.496804E-15	1.461758E-16
4.780000E+03	6.517407E-15	1.466474E-16
4.790000E+03	6.538509E-15	1.470919E-16
4.800000E+03	6.559829E-15	1.475027E-16
4.810000E+03	6.580978E-15	1.478702E-16
4.820000E+03	6.601535E-15	1.481846E-16
4.830000E+03	6.621057E-15	1.484356E-16
4.840000E+03	6.639166E-15	1.486144E-16
4.850000E+03	6.655340E-15	1.487092E-16
4.860000E+03	6.669226E-15	1.487120E-16
4.870000E+03	6.680355E-15	1.486127E-16
4.880000E+03	6.688379E-15	1.484040E-16
4.890000E+03	6.692865E-15	1.480767E-16
4.900000E+03	6.693664E-15	1.476286E-16
4.910000E+03	6.690485E-15	1.470541E-16
4.920000E+03	6.683261E-15	1.463533E-16
4.930000E+03	6.671935E-15	1.455262E-16
4.940000E+03	6.656535E-15	1.445752E-16
4.950000E+03	6.637239E-15	1.435061E-16
4.960000E+03	6.614161E-15	1.423232E-16
4.970000E+03	6.587625E-15	1.410356E-16
4.980000E+03	6.557872E-15	1.396507E-16
4.990000E+03	6.525398E-15	1.381811E-16
5.000000E+03	6.490521E-15	1.366358E-16
5.010000E+03	6.453648E-15	1.350255E-16
5.020000E+03	6.415267E-15	1.333625E-16
5.030000E+03	6.375728E-15	1.316560E-16
5.040000E+03	6.335513E-15	1.299180E-16
5.050000E+03	6.295091E-15	1.281597E-16
5.060000E+03	6.254721E-15	1.263881E-16
5.070000E+03	6.214905E-15	1.246149E-16
5.080000E+03	6.175932E-15	1.228471E-16
5.090000E+03	6.138197E-15	1.210938E-16
5.100000E+03	6.101945E-15	1.193611E-16
5.110000E+03	6.067527E-15	1.176565E-16
5.120000E+03	6.035259E-15	1.159871E-16
5.130000E+03	6.005245E-15	1.143555E-16
5.140000E+03	5.977800E-15	1.127683E-16
5.150000E+03	5.953014E-15	1.112276E-16
5.160000E+03	5.931000E-15	1.097361E-16
5.170000E+03	5.911887E-15	1.082964E-16
5.180000E+03	5.895637E-15	1.069084E-16
5.190000E+03	5.882293E-15	1.055733E-16
5.200000E+03	5.871737E-15	1.042896E-16
5.210000E+03	5.863938E-15	1.030572E-16
5.220000E+03	5.858769E-15	1.018749E-16
5.230000E+03	5.856025E-15	1.007400E-16
5.240000E+03	5.855601E-15	9.965193E-17
5.250000E+03	5.857313E-15	9.860890E-17
5.260000E+03	5.860911E-15	9.760835E-17
5.270000E+03	5.866193E-15	9.664878E-17
5.280000E+03	5.873006E-15	9.572980E-17
5.290000E+03	5.881131E-15	9.485020E-17
5.300000E+03	5.890273E-15	9.400783E-17
5.310000E+03	5.900185E-15	9.320165E-17
5.320000E+03	5.910607E-15	9.243067E-17
5.330000E+03	5.921260E-15	9.169391E-17
5.340000E+03	5.931852E-15	9.099041E-17
5.350000E+03	5.942075E-15	9.031925E-17
5.360000E+03	5.951554E-15	8.967863E-17
5.370000E+03	5.960025E-15	8.906866E-17
5.380000E+03	5.967109E-15	8.848778E-17
5.390000E+03	5.972499E-15	8.793555E-17
5.400000E+03	5.975914E-15	8.741190E-17
5.410000E+03	5.977064E-15	8.691648E-17
5.420000E+03	5.975852E-15	8.645157E-17
5.430000E+03	5.972183E-15	8.601914E-17
5.440000E+03	5.966175E-15	8.562372E-17
5.450000E+03	5.957986E-15	8.526715E-17
5.460000E+03	5.947894E-15	8.495021E-17
5.470000E+03	5.936096E-15	8.467204E-17
5.480000E+03	5.922871E-15	8.443264E-17
5.490000E+03	5.908385E-15	8.423021E-17
5.500000E+03	5.892920E-15	8.406443E-17
5.510000E+03	5.877100E-15	8.393975E-17
5.520000E+03	5.861350E-15	8.385781E-17
5.530000E+03	5.846019E-15	8.381919E-17
5.540000E+03	5.831487E-15	8.382501E-17
5.550000E+03	5.817995E-15	8.387458E-17
5.560000E+03	5.805768E-15	8.396707E-17
5.570000E+03	5.795068E-15	8.410242E-17
5.580000E+03	5.786090E-15	8.427975E-17
5.590000E+03	5.778959E-15	8.449737E-17
5.600000E+03	5.773968E-15	8.475628E-17
5.610000E+03	5.771238E-15	8.505510E-17
5.620000E+03	5.770944E-15	8.539348E-17
5.630000E+03	5.773379E-15	8.577297E-17
5.640000E+03	5.778601E-15	8.619186E-17
5.650000E+03	5.786782E-15	8.665029E-17
5.660000E+03	5.798266E-15	8.715105E-17
5.670000E+03	5.813032E-15	8.769169E-17
5.680000E+03	5.831279E-15	8.827313E-17
5.690000E+03	5.853183E-15	8.889604E-17
5.700000E+03	5.878837E-15	8.955988E-17
5.710000E+03	5.908239E-15	9.026274E-17
5.720000E+03	5.941469E-15	9.100395E-17
5.730000E+03	5.978499E-15	9.178121E-17
5.740000E+03	6.019255E-15	9.259149E-17
5.750000E+03	6.063549E-15	9.342996E-17
5.760000E+03	6.111315E-15	9.429364E-17
5.770000E+03	6.162255E-15	9.517589E-17
5.780000E+03	6.216008E-15	9.606907E-17
5.790000E+03	6.272346E-15	9.696756E-17
5.800000E+03	6.330808E-15	9.786208E-17
5.810000E+03	6.390950E-15	9.874362E-17
5.820000E+03	6.452295E-15	9.960266E-17
5.830000E+03	6.514405E-15	1.004303E-16
5.840000E+03	6.576630E-15	1.012146E-16
5.850000E+03	6.638583E-15	1.019476E-16
5.860000E+03	6.699619E-15	1.026175E-16
5.870000E+03	6.759390E-15	1.032175E-16
5.880000E+03	6.817313E-15	1.037371E-16
5.890000E+03	6.873066E-15	1.041704E-16
5.900000E+03	6.926331E-15	1.045115E-16
5.910000E+03	6.976881E-15	1.047562E-16
5.920000E+03	7.024516E-15	1.049012E-16
5.930000E+03	7.069227E-15	1.049462E-16
5.940000E+03	7.111202E-15	1.048940E-16
5.950000E+03	7.150622E-15	1.047475E-16
5.960000E+03	7.187877E-15	1.045128E-16
5.970000E+03	7.223423E-15	1.041971E-16
5.980000E+03	7.257985E-15	1.038114E-16
5.990000E+03	7.292270E-15	1.033663E-16
6.000000E+03	7.327156E-15	1.028745E-16
6.010000E+03	7.363610E-15	1.023499E-16
6.020000E+03	7.402592E-15	1.018057E-16
6.030000E+03	7.445252E-15	1.012575E-16
6.040000E+03	7.492539E-15	1.007172E-16
6.050000E+03	7.545613E-15	1.001994E-16
6.060000E+03	7.605378E-15	9.971467E-17
6.070000E+03	7.672897E-15	9.927497E-17
6.080000E+03	7.749064E-15	9.888966E-17
6.090000E+03	7.834405E-15	9.856303E-17
6.100000E+03	7.929661E-15	9.830191E-17
6.110000E+03	8.035043E-15	9.810647E-17
6.120000E+03	8.150574E-15	9.797489E-17
6.130000E+03	8.276031E-15	9.790296E-17
6.140000E+03	8.410728E-15	9.788193E-17
6.150000E+03	8.553527E-15	9.789924E-17
6.160000E+03	8.702770E-15	9.793831E-17
6.170000E+03	8.856302E-15	9.797946E-17
6.180000E+03	9.011426E-15	9.800000E-17
6.190000E+03	9.164494E-15	9.797045E-17
6.200000E+03	9.311453E-15	9.786110E-17
6.210000E+03	9.447612E-15	9.763995E-17
6.220000E+03	9.567765E-15	9.727419E-17
6.230000E+03	9.666314E-15	9.673139E-17
6.240000E+03	9.737791E-15	9.598435E-17
6.250000E+03	9.777234E-15	9.501375E-17
6.260000E+03	9.780697E-15	9.381157E-17
6.270000E+03	9.746093E-15	9.238727E-17
6.280000E+03	9.674446E-15	9.077726E-17
6.290000E+03	9.570568E-15	8.904875E-17
6.300000E+03	9.441791E-15	8.728627E-17
6.310000E+03	9.296838E-15	8.558081E-17
6.320000E+03	9.144542E-15	8.401884E-17
6.330000E+03	8.993264E-15	8.267836E-17
6.340000E+03	8.850446E-15	8.162600E-17
6.350000E+03	8.722352E-15	8.090945E-17
6.360000E+03	8.614088E-15	8.056138E-17
6.370000E+03	8.529372E-15	8.060424E-17
6.380000E+03	8.471021E-15	8.105546E-17
6.390000E+03	8.440646E-15	8.192475E-17
6.400000E+03	8.439438E-15	8.322134E-17
6.410000E+03	8.467581E-15	8.494803E-17
6.420000E+03	8.525082E-15	8.710859E-17
6.430000E+03	8.611130E-15	8.970077E-17
6.440000E+03	8.724678E-15	9.272142E-17
6.450000E+03	8.864304E-15	9.616424E-17
6.460000E+03	9.028309E-15	1.000202E-16
6.470000E+03	9.214350E-15	1.042725E-16
6.480000E+03	9.419909E-15	1.089012E-16
6.490000E+03	9.642224E-15	1.138814E-16
6.500000E+03	9.877893E-15	1.191783E-16
6.510000E+03	1.012363E-14	1.247551E-16
6.520000E+03	1.037546E-14	1.305631E-16
6.530000E+03	1.062974E-14	1.365537E-16
6.540000E+03	1.088213E-14	1.426651E-16
6.550000E+03	1.112867E-14	1.488357E-16
6.560000E+03	1.136526E-14	1.549983E-16
6.570000E+03	1.158764E-14	1.610786E-16
6.580000E+03	1.179212E-14	1.670061E-16
6.590000E+03	1.197500E-14	1.727063E-16
6.600000E+03	1.213310E-14	1.781092E-16
6.610000E+03	1.226356E-14	1.831464E-16
6.620000E+03	1.236410E-14	1.877560E-16
6.630000E+03	1.243330E-14	1.918882E-16
6.640000E+03	1.247003E-14	1.954964E-16
6.650000E+03	1.247404E-14	1.985489E-16
6.660000E+03	1.244563E-14	2.010231E-16
6.670000E+03	1.238584E-14	2.029101E-16
6.680000E+03	1.229597E-14	2.042073E-16
6.690000E+03	1.217818E-14	2.049293E-16
6.700000E+03	1.203476E-14	2.050958E-16
6.710000E+03	1.186826E-14	2.047343E-16
6.720000E+03	1.168132E-14	2.038768E-16
6.730000E+03	1.147707E-14	2.025674E-16
6.740000E+03	1.125841E-14	2.008496E-16
6.750000E+03	1.102810E-14	1.987669E-16
6.760000E+03	1.078917E-14	1.963714E-16
6.770000E+03	1.054404E-14	1.937057E-16
6.780000E+03	1.029543E-14	1.908213E-16
6.790000E+03	1.004553E-14	1.877607E-16
6.800000E+03	9.796530E-15	1.845690E-16
6.810000E+03	9.550269E-15	1.812857E-16
6.820000E+03	9.308361E-15	1.779474E-16
6.830000E+03	9.072085E-15	1.745849E-16
6.840000E+03	8.842821E-15	1.712315E-16
6.850000E+03	8.621407E-15	1.679106E-16
6.860000E+03	8.408590E-15	1.646439E-16
6.870000E+03	8.204930E-15	1.614495E-16
6.880000E+03	8.010918E-15	1.583439E-16
6.890000E+03	7.826693E-15	1.553367E-16
6.900000E+03	7.652452E-15	1.524380E-16
6.910000E+03	7.488084E-15	1.496517E-16
6.920000E+03	7.333562E-15	1.469828E-16
6.930000E+03	7.188585E-15	1.444304E-16
6.940000E+03	7.052961E-15	1.419953E-16
6.950000E+03	6.926256E-15	1.396731E-16
6.960000E+03	6.808159E-15	1.374614E-16
6.970000E+03	6.698232E-15	1.353548E-16
6.980000E+03	6.595924E-15	1.333450E-16
6.990000E+03	6.500824E-15	1.314267E-16
7.000000E+03	6.412424E-15	1.295918E-16
7.010000E+03	6.330123E-15	1.278303E-16
7.020000E+03	6.253402E-15	1.261336E-16
7.030000E+03	6.181820E-15	1.244944E-16
7.040000E+03	6.114860E-15	1.229038E-16
7.050000E+03	6.051863E-15	1.213498E-16
7.060000E+03	5.992573E-15	1.198287E-16
7.070000E+03	5.936287E-15	1.183275E-16
7.080000E+03	5.882710E-15	1.168414E-16
7.090000E+03	5.831344E-15	1.153618E-16
7.100000E+03	5.781794E-15	1.138819E-16
7.110000E+03	5.733698E-15	1.123960E-16
7.120000E+03	5.686729E-15	1.108988E-16
7.130000E+03	5.640520E-15	1.093847E-16
7.140000E+03	5.594960E-15	1.078529E-16
7.150000E+03	5.549686E-15	1.062981E-16
7.160000E+03	5.504583E-15	1.047197E-16
7.170000E+03	5.459365E-15	1.031140E-16
7.180000E+03	5.414123E-15	1.014849E-16
7.190000E+03	5.368559E-15	9.982863E-17
7.200000E+03	5.322685E-15	9.814766E-17
7.210000E+03	5.276462E-15	9.644351E-17
7.220000E+03	5.229807E-15	9.471705E-17
7.230000E+03	5.182791E-15	9.297197E-17
7.240000E+03	5.135363E-15	9.120991E-17
7.250000E+03	5.087555E-15	8.943409E-17
7.260000E+03	5.039410E-15	8.764794E-17
7.270000E+03	4.990918E-15	8.585407E-17
7.280000E+03	4.942139E-15	8.405644E-17
7.290000E+03	4.893141E-15	8.225912E-17
7.300000E+03	4.843934E-15	8.046534E-17
7.310000E+03	4.794597E-15	7.867950E-17
7.320000E+03	4.745208E-15	7.690609E-17
7.330000E+03	4.695727E-15	7.514773E-17
7.340000E+03	4.646360E-15	7.341110E-17
7.350000E+03	4.597008E-15	7.169805E-17
7.360000E+03	4.547756E-15	7.001352E-17
7.370000E+03	4.498695E-15	6.836252E-17
7.380000E+03	4.449796E-15	6.674838E-17
7.390000E+03	4.401209E-15	6.517720E-17
7.400000E+03	4.352914E-15	6.365258E-17
7.410000E+03	4.305009E-15	6.217996E-17
7.420000E+03	4.257487E-15	6.076329E-17
7.430000E+03	4.210451E-15	5.940814E-17
7.440000E+03	4.164008E-15	5.812016E-17
7.450000E+03	4.118318E-15	5.690563E-17
7.460000E+03	4.073482E-15	5.576997E-17
7.470000E+03	4.029709E-15	5.471994E-17
7.480000E+03	3.987040E-15	5.375986E-17
7.490000E+03	3.945621E-15	5.289530E-17
7.500000E+03	3.905636E-15	5.213215E-17
7.510000E+03	3.867113E-15	5.147391E-17
7.520000E+03	3.830168E-15	5.092499E-17
7.530000E+03	3.794862E-15	5.048873E-17
7.540000E+03	3.761340E-15	5.016925E-17
7.550000E+03	3.729586E-15	4.996809E-17
7.560000E+03	3.699674E-15	4.988758E-17
7.570000E+03	3.671611E-15	4.992731E-17
7.580000E+03	3.645441E-15	5.008469E-17
7.590000E+03	3.621092E-15	5.035513E-17
7.600000E+03	3.598579E-15	5.073505E-17
7.610000E+03	3.577844E-15	5.121987E-17
7.620000E+03	3.558820E-15	5.180476E-17
7.630000E+03	3.541419E-15	5.248468E-17
7.640000E+03	3.525632E-15	5.325580E-17
7.650000E+03	3.511194E-15	5.411054E-17
7.660000E+03	3.498115E-15	5.504552E-17
7.670000E+03	3.486203E-15	5.605440E-17
7.680000E+03	3.475269E-15	5.713083E-17
7.690000E+03	3.465260E-15	5.827079E-17
7.700000E+03	3.455943E-15	5.946733E-17
7.710000E+03	3.447272E-15	6.071663E-17
7.720000E+03	3.439028E-15	6.201199E-17
7.730000E+03	3.431017E-15	6.334702E-17
7.740000E+03	3.423102E-15	6.471624E-17
7.750000E+03	3.415033E-15	6.611202E-17
7.760000E+03	3.406780E-15	6.753076E-17
