#wls	flux	fluxerr
1.600000E+03	4.077235E-15	4.187213E-16
1.640000E+03	4.185268E-15	4.241302E-16
1.680000E+03	4.294681E-15	4.293060E-16
1.720000E+03	4.404135E-15	4.341066E-16
1.760000E+03	4.514668E-15	4.386282E-16
1.800000E+03	4.623900E-15	4.426340E-16
1.840000E+03	4.732807E-15	4.462181E-16
1.880000E+03	4.840719E-15	4.493164E-16
1.920000E+03	4.947092E-15	4.518806E-16
1.960000E+03	5.050719E-15	4.538068E-16
2.000000E+03	5.153632E-15	4.552851E-16
2.040000E+03	5.255681E-15	4.563045E-16
2.080000E+03	5.359287E-15	4.570746E-16
2.120000E+03	5.466426E-15	4.577540E-16
2.160000E+03	5.579229E-15	4.585014E-16
2.200000E+03	5.701220E-15	4.595754E-16
2.240000E+03	5.835341E-15	4.611640E-16
2.280000E+03	5.983345E-15	4.633439E-16
2.320000E+03	6.149732E-15	4.663878E-16
2.360000E+03	6.332325E-15	4.700427E-16
2.400000E+03	6.532580E-15	4.743328E-16
2.440000E+03	6.749657E-15	4.791092E-16
2.480000E+03	6.982834E-15	4.842374E-16
2.520000E+03	7.233048E-15	4.896998E-16
2.560000E+03	7.502207E-15	4.955378E-16
2.600000E+03	7.792203E-15	5.017798E-16
2.640000E+03	8.107764E-15	5.086210E-16
2.680000E+03	8.448570E-15	5.159186E-16
2.720000E+03	8.813151E-15	5.234655E-16
2.760000E+03	9.201420E-15	5.311458E-16
2.800000E+03	9.611397E-15	5.387370E-16
2.840000E+03	1.004441E-14	5.462123E-16
2.880000E+03	1.050219E-14	5.535611E-16
2.920000E+03	1.098495E-14	5.606897E-16
2.960000E+03	1.149345E-14	5.675361E-16
3.000000E+03	1.202995E-14	5.741121E-16
3.010000E+03	1.216762E-14	5.756632E-16
3.020000E+03	1.230722E-14	5.771985E-16
3.030000E+03	1.244716E-14	5.786433E-16
3.040000E+03	1.258876E-14	5.800587E-16
3.050000E+03	1.273185E-14	5.814357E-16
3.060000E+03	1.287628E-14	5.827663E-16
3.070000E+03	1.302185E-14	5.840407E-16
3.080000E+03	1.316689E-14	5.851850E-16
3.090000E+03	1.331408E-14	5.863191E-16
3.100000E+03	1.346175E-14	5.873677E-16
3.110000E+03	1.360962E-14	5.883197E-16
3.120000E+03	1.375738E-14	5.891634E-16
3.130000E+03	1.390476E-14	5.898878E-16
3.140000E+03	1.405139E-14	5.904801E-16
3.150000E+03	1.419841E-14	5.909898E-16
3.160000E+03	1.434397E-14	5.913409E-16
3.170000E+03	1.448913E-14	5.915811E-16
3.180000E+03	1.463199E-14	5.916351E-16
3.190000E+03	1.477357E-14	5.915480E-16
3.200000E+03	1.491194E-14	5.912464E-16
3.210000E+03	1.504806E-14	5.907739E-16
3.220000E+03	1.518139E-14	5.901141E-16
3.230000E+03	1.531143E-14	5.892523E-16
3.240000E+03	1.543614E-14	5.881166E-16
3.250000E+03	1.555784E-14	5.868033E-16
3.260000E+03	1.567307E-14	5.851879E-16
3.270000E+03	1.578412E-14	5.833646E-16
3.280000E+03	1.588893E-14	5.812649E-16
3.290000E+03	1.598691E-14	5.788765E-16
3.300000E+03	1.607885E-14	5.762378E-16
3.310000E+03	1.616277E-14	5.732868E-16
3.320000E+03	1.623946E-14	5.700628E-16
3.330000E+03	1.630700E-14	5.665089E-16
3.340000E+03	1.636757E-14	5.627119E-16
3.350000E+03	1.641795E-14	5.585719E-16
3.360000E+03	1.645771E-14	5.540873E-16
3.370000E+03	1.648908E-14	5.493460E-16
3.380000E+03	1.651166E-14	5.443451E-16
3.390000E+03	1.652253E-14	5.390008E-16
3.400000E+03	1.652404E-14	5.334023E-16
3.410000E+03	1.651472E-14	5.275140E-16
3.420000E+03	1.649446E-14	5.213453E-16
3.430000E+03	1.646567E-14	5.149835E-16
3.440000E+03	1.642589E-14	5.083628E-16
3.450000E+03	1.637642E-14	5.015341E-16
3.460000E+03	1.631733E-14	4.945108E-16
3.470000E+03	1.624877E-14	4.873069E-16
3.480000E+03	1.617078E-14	4.799329E-16
3.490000E+03	1.608439E-14	4.724262E-16
3.500000E+03	1.598844E-14	4.647575E-16
3.510000E+03	1.588401E-14	4.569622E-16
3.520000E+03	1.577120E-14	4.490472E-16
3.530000E+03	1.564925E-14	4.409944E-16
3.540000E+03	1.552048E-14	4.328729E-16
3.550000E+03	1.538342E-14	4.246438E-16
3.560000E+03	1.524050E-14	4.163771E-16
3.570000E+03	1.509229E-14	4.080892E-16
3.580000E+03	1.493858E-14	3.997751E-16
3.590000E+03	1.478010E-14	3.914552E-16
3.600000E+03	1.461850E-14	3.831731E-16
3.610000E+03	1.445529E-14	3.749673E-16
3.620000E+03	1.428963E-14	3.668139E-16
3.630000E+03	1.412383E-14	3.587708E-16
3.640000E+03	1.395782E-14	3.508330E-16
3.650000E+03	1.379230E-14	3.430154E-16
3.660000E+03	1.362928E-14	3.353647E-16
3.670000E+03	1.346791E-14	3.278553E-16
3.680000E+03	1.330938E-14	3.205125E-16
3.690000E+03	1.315412E-14	3.133418E-16
3.700000E+03	1.300247E-14	3.063471E-16
3.710000E+03	1.285532E-14	2.995441E-16
3.720000E+03	1.271224E-14	2.929180E-16
3.730000E+03	1.257393E-14	2.864798E-16
3.740000E+03	1.244042E-14	2.802256E-16
3.750000E+03	1.231113E-14	2.741371E-16
3.760000E+03	1.218705E-14	2.682321E-16
3.770000E+03	1.206747E-14	2.624900E-16
3.780000E+03	1.195219E-14	2.569025E-16
3.790000E+03	1.184094E-14	2.514600E-16
3.800000E+03	1.173392E-14	2.461629E-16
3.810000E+03	1.163029E-14	2.409904E-16
3.820000E+03	1.153059E-14	2.359508E-16
3.830000E+03	1.143354E-14	2.310152E-16
3.840000E+03	1.133874E-14	2.261738E-16
3.850000E+03	1.124662E-14	2.214335E-16
3.860000E+03	1.115634E-14	2.167763E-16
3.870000E+03	1.106746E-14	2.121932E-16
3.880000E+03	1.097959E-14	2.076763E-16
3.890000E+03	1.089234E-14	2.032185E-16
3.900000E+03	1.080537E-14	1.988145E-16
3.910000E+03	1.071872E-14	1.944656E-16
3.920000E+03	1.063179E-14	1.901623E-16
3.930000E+03	1.054440E-14	1.859037E-16
3.940000E+03	1.045644E-14	1.816896E-16
3.950000E+03	1.036788E-14	1.775220E-16
3.960000E+03	1.027872E-14	1.734036E-16
3.970000E+03	1.018902E-14	1.693379E-16
3.980000E+03	1.009889E-14	1.653297E-16
3.990000E+03	1.000845E-14	1.613840E-16
4.000000E+03	9.917568E-15	1.575016E-16
4.010000E+03	9.826681E-15	1.536929E-16
4.020000E+03	9.735706E-15	1.499596E-16
4.030000E+03	9.645075E-15	1.463118E-16
4.040000E+03	9.554466E-15	1.427479E-16
4.050000E+03	9.464311E-15	1.392779E-16
4.060000E+03	9.374545E-15	1.359045E-16
4.070000E+03	9.285334E-15	1.326336E-16
4.080000E+03	9.196831E-15	1.294712E-16
4.090000E+03	9.108958E-15	1.264199E-16
4.100000E+03	9.022061E-15	1.234884E-16
4.110000E+03	8.935870E-15	1.206767E-16
4.120000E+03	8.850572E-15	1.179914E-16
4.130000E+03	8.766588E-15	1.154416E-16
4.140000E+03	8.683636E-15	1.130274E-16
4.150000E+03	8.602465E-15	1.107619E-16
4.160000E+03	8.522974E-15	1.086471E-16
4.170000E+03	8.446034E-15	1.066969E-16
4.180000E+03	8.371849E-15	1.049165E-16
4.190000E+03	8.300998E-15	1.033152E-16
4.200000E+03	8.233892E-15	1.019001E-16
4.210000E+03	8.171061E-15	1.006790E-16
4.220000E+03	8.112808E-15	9.965694E-17
4.230000E+03	8.059332E-15	9.883714E-17
4.240000E+03	8.010987E-15	9.822404E-17
4.250000E+03	7.967490E-15	9.780929E-17
4.260000E+03	7.928497E-15	9.758089E-17
4.270000E+03	7.893846E-15	9.752892E-17
4.280000E+03	7.862391E-15	9.763140E-17
4.290000E+03	7.833137E-15	9.786794E-17
4.300000E+03	7.804970E-15	9.821646E-17
4.310000E+03	7.776430E-15	9.865014E-17
4.320000E+03	7.746610E-15	9.914866E-17
4.330000E+03	7.715609E-15	9.970440E-17
4.340000E+03	7.683377E-15	1.003079E-16
4.350000E+03	7.649920E-15	1.009506E-16
4.360000E+03	7.615198E-15	1.016236E-16
4.370000E+03	7.579176E-15	1.023183E-16
4.380000E+03	7.541977E-15	1.030286E-16
4.390000E+03	7.503547E-15	1.037463E-16
4.400000E+03	7.464021E-15	1.044663E-16
4.410000E+03	7.423716E-15	1.051865E-16
4.420000E+03	7.382797E-15	1.059030E-16
4.430000E+03	7.341703E-15	1.066168E-16
4.440000E+03	7.300594E-15	1.073253E-16
4.450000E+03	7.260076E-15	1.080328E-16
4.460000E+03	7.220337E-15	1.087384E-16
4.470000E+03	7.181954E-15	1.094475E-16
4.480000E+03	7.145047E-15	1.101592E-16
4.490000E+03	7.109981E-15	1.108768E-16
4.500000E+03	7.076951E-15	1.116013E-16
4.510000E+03	7.045916E-15	1.123306E-16
4.520000E+03	7.016987E-15	1.130649E-16
4.530000E+03	6.990146E-15	1.138028E-16
4.540000E+03	6.965444E-15	1.145441E-16
4.550000E+03	6.942911E-15	1.152884E-16
4.560000E+03	6.922390E-15	1.160325E-16
4.570000E+03	6.903900E-15	1.167759E-16
4.580000E+03	6.887461E-15	1.175185E-16
4.590000E+03	6.873103E-15	1.182603E-16
4.600000E+03	6.860690E-15	1.189985E-16
4.610000E+03	6.850361E-15	1.197351E-16
4.620000E+03	6.842181E-15	1.204711E-16
4.630000E+03	6.836140E-15	1.212060E-16
4.640000E+03	6.832402E-15	1.219426E-16
4.650000E+03	6.830886E-15	1.226792E-16
4.660000E+03	6.831837E-15	1.234202E-16
4.670000E+03	6.835167E-15	1.241637E-16
4.680000E+03	6.841016E-15	1.249123E-16
4.690000E+03	6.849269E-15	1.256637E-16
4.700000E+03	6.860104E-15	1.264209E-16
4.710000E+03	6.873277E-15	1.271794E-16
4.720000E+03	6.888831E-15	1.279397E-16
4.730000E+03	6.906543E-15	1.286972E-16
4.740000E+03	6.926232E-15	1.294482E-16
4.750000E+03	6.947674E-15	1.301880E-16
4.760000E+03	6.970597E-15	1.309112E-16
4.770000E+03	6.994521E-15	1.316080E-16
4.780000E+03	7.019140E-15	1.322721E-16
4.790000E+03	7.043923E-15	1.328928E-16
4.800000E+03	7.068668E-15	1.334658E-16
4.810000E+03	7.092889E-15	1.339811E-16
4.820000E+03	7.116283E-15	1.344325E-16
4.830000E+03	7.138275E-15	1.348087E-16
4.840000E+03	7.158585E-15	1.351039E-16
4.850000E+03	7.176535E-15	1.353052E-16
4.860000E+03	7.191851E-15	1.354072E-16
4.870000E+03	7.203912E-15	1.353984E-16
4.880000E+03	7.212395E-15	1.352730E-16
4.890000E+03	7.216968E-15	1.350253E-16
4.900000E+03	7.217304E-15	1.346500E-16
4.910000E+03	7.213229E-15	1.341448E-16
4.920000E+03	7.204658E-15	1.335094E-16
4.930000E+03	7.191592E-15	1.327454E-16
4.940000E+03	7.173893E-15	1.318519E-16
4.950000E+03	7.151901E-15	1.308373E-16
4.960000E+03	7.125673E-15	1.297045E-16
4.970000E+03	7.095668E-15	1.284644E-16
4.980000E+03	7.062266E-15	1.271260E-16
4.990000E+03	7.025818E-15	1.256980E-16
5.000000E+03	6.986920E-15	1.241936E-16
5.010000E+03	6.945883E-15	1.226206E-16
5.020000E+03	6.903313E-15	1.209920E-16
5.030000E+03	6.859532E-15	1.193158E-16
5.040000E+03	6.815138E-15	1.176045E-16
5.050000E+03	6.770574E-15	1.158677E-16
5.060000E+03	6.726196E-15	1.141134E-16
5.070000E+03	6.682482E-15	1.123516E-16
5.080000E+03	6.639824E-15	1.105903E-16
5.090000E+03	6.598533E-15	1.088362E-16
5.100000E+03	6.559038E-15	1.070976E-16
5.110000E+03	6.521752E-15	1.053825E-16
5.120000E+03	6.486869E-15	1.036948E-16
5.130000E+03	6.454751E-15	1.020412E-16
5.140000E+03	6.425661E-15	1.004264E-16
5.150000E+03	6.399873E-15	9.885547E-17
5.160000E+03	6.377480E-15	9.733013E-17
5.170000E+03	6.358578E-15	9.585238E-17
5.180000E+03	6.343259E-15	9.442410E-17
5.190000E+03	6.331427E-15	9.304439E-17
5.200000E+03	6.323054E-15	9.171353E-17
5.210000E+03	6.317931E-15	9.042936E-17
5.220000E+03	6.315999E-15	8.919212E-17
5.230000E+03	6.316910E-15	8.799822E-17
5.240000E+03	6.320420E-15	8.684602E-17
5.250000E+03	6.326402E-15	8.573579E-17
5.260000E+03	6.334523E-15	8.466535E-17
5.270000E+03	6.344509E-15	8.363383E-17
5.280000E+03	6.356133E-15	8.264140E-17
5.290000E+03	6.369026E-15	8.168679E-17
5.300000E+03	6.382858E-15	8.076976E-17
5.310000E+03	6.397337E-15	7.989097E-17
5.320000E+03	6.412068E-15	7.905029E-17
5.330000E+03	6.426623E-15	7.824757E-17
5.340000E+03	6.440534E-15	7.748262E-17
5.350000E+03	6.453302E-15	7.675523E-17
5.360000E+03	6.464397E-15	7.606517E-17
5.370000E+03	6.473331E-15	7.541286E-17
5.380000E+03	6.479471E-15	7.479717E-17
5.390000E+03	6.482310E-15	7.421835E-17
5.400000E+03	6.481290E-15	7.367592E-17
5.410000E+03	6.475909E-15	7.316966E-17
5.420000E+03	6.465800E-15	7.270033E-17
5.430000E+03	6.450961E-15	7.227205E-17
5.440000E+03	6.431887E-15	7.189165E-17
5.450000E+03	6.409287E-15	7.156290E-17
5.460000E+03	6.383990E-15	7.128961E-17
5.470000E+03	6.356678E-15	7.107339E-17
5.480000E+03	6.328114E-15	7.091641E-17
5.490000E+03	6.298866E-15	7.081846E-17
5.500000E+03	6.269495E-15	7.077927E-17
5.510000E+03	6.240553E-15	7.079852E-17
5.520000E+03	6.212400E-15	7.087391E-17
5.530000E+03	6.185395E-15	7.100340E-17
5.540000E+03	6.159836E-15	7.118456E-17
5.550000E+03	6.136040E-15	7.141547E-17
5.560000E+03	6.114093E-15	7.169197E-17
5.570000E+03	6.094300E-15	7.201276E-17
5.580000E+03	6.076763E-15	7.237455E-17
5.590000E+03	6.061580E-15	7.277432E-17
5.600000E+03	6.048970E-15	7.321086E-17
5.610000E+03	6.039102E-15	7.368271E-17
5.620000E+03	6.032101E-15	7.418820E-17
5.630000E+03	6.028166E-15	7.472686E-17
5.640000E+03	6.027517E-15	7.529876E-17
5.650000E+03	6.030382E-15	7.590436E-17
5.660000E+03	6.036996E-15	7.654448E-17
5.670000E+03	6.047534E-15	7.721937E-17
5.680000E+03	6.062223E-15	7.793014E-17
5.690000E+03	6.081331E-15	7.867858E-17
5.700000E+03	6.104920E-15	7.946394E-17
5.710000E+03	6.133253E-15	8.028816E-17
5.720000E+03	6.166307E-15	8.114946E-17
5.730000E+03	6.204122E-15	8.204692E-17
5.740000E+03	6.246735E-15	8.297950E-17
5.750000E+03	6.293984E-15	8.394345E-17
5.760000E+03	6.345627E-15	8.493390E-17
5.770000E+03	6.401462E-15	8.594634E-17
5.780000E+03	6.461136E-15	8.697414E-17
5.790000E+03	6.524213E-15	8.800938E-17
5.800000E+03	6.590048E-15	8.904125E-17
5.810000E+03	6.658170E-15	9.006117E-17
5.820000E+03	6.727791E-15	9.105620E-17
5.830000E+03	6.798259E-15	9.201521E-17
5.840000E+03	6.868818E-15	9.292567E-17
5.850000E+03	6.938616E-15	9.377386E-17
5.860000E+03	7.006927E-15	9.454792E-17
5.870000E+03	7.072897E-15	9.523439E-17
5.880000E+03	7.135697E-15	9.582050E-17
5.890000E+03	7.194763E-15	9.629731E-17
5.900000E+03	7.249331E-15	9.665359E-17
5.910000E+03	7.298879E-15	9.688177E-17
5.920000E+03	7.343089E-15	9.697743E-17
5.930000E+03	7.381735E-15	9.693778E-17
5.940000E+03	7.414692E-15	9.676178E-17
5.950000E+03	7.442034E-15	9.645140E-17
5.960000E+03	7.464271E-15	9.601454E-17
5.970000E+03	7.481896E-15	9.545910E-17
5.980000E+03	7.495680E-15	9.479657E-17
5.990000E+03	7.506581E-15	9.404083E-17
6.000000E+03	7.515652E-15	9.320674E-17
6.010000E+03	7.524309E-15	9.231332E-17
6.020000E+03	7.533790E-15	9.137690E-17
6.030000E+03	7.545637E-15	9.041697E-17
6.040000E+03	7.561383E-15	8.945208E-17
6.050000E+03	7.582658E-15	8.850111E-17
6.060000E+03	7.610950E-15	8.758033E-17
6.070000E+03	7.647788E-15	8.670555E-17
6.080000E+03	7.694717E-15	8.589181E-17
6.090000E+03	7.753202E-15	8.515226E-17
6.100000E+03	7.824432E-15	8.449609E-17
6.110000E+03	7.909669E-15	8.393267E-17
6.120000E+03	8.009903E-15	8.346778E-17
6.130000E+03	8.125698E-15	8.310254E-17
6.140000E+03	8.257696E-15	8.283898E-17
6.150000E+03	8.405805E-15	8.267215E-17
6.160000E+03	8.569678E-15	8.259570E-17
6.170000E+03	8.748250E-15	8.259802E-17
6.180000E+03	8.939509E-15	8.266111E-17
6.190000E+03	9.140489E-15	8.276166E-17
6.200000E+03	9.346684E-15	8.286710E-17
6.210000E+03	9.552630E-15	8.294212E-17
6.220000E+03	9.750965E-15	8.294158E-17
6.230000E+03	9.933235E-15	8.281859E-17
6.240000E+03	1.008931E-14	8.251987E-17
6.250000E+03	1.020849E-14	8.199498E-17
6.260000E+03	1.028051E-14	8.120246E-17
6.270000E+03	1.029684E-14	8.011794E-17
6.280000E+03	1.025430E-14	7.875774E-17
6.290000E+03	1.015954E-14	7.720777E-17
6.300000E+03	1.002474E-14	7.558611E-17
6.310000E+03	9.863758E-15	7.401288E-17
6.320000E+03	9.690057E-15	7.259607E-17
6.330000E+03	9.515873E-15	7.142802E-17
6.340000E+03	9.351271E-15	7.057746E-17
6.350000E+03	9.203910E-15	7.008348E-17
6.360000E+03	9.079626E-15	6.997145E-17
6.370000E+03	8.982096E-15	7.025383E-17
6.380000E+03	8.913911E-15	7.093888E-17
6.390000E+03	8.876340E-15	7.202887E-17
6.400000E+03	8.869900E-15	7.352418E-17
6.410000E+03	8.894271E-15	7.542193E-17
6.420000E+03	8.948893E-15	7.772016E-17
6.430000E+03	9.032507E-15	8.041320E-17
6.440000E+03	9.143760E-15	8.349593E-17
6.450000E+03	9.280753E-15	8.695906E-17
6.460000E+03	9.441331E-15	9.079072E-17
6.470000E+03	9.622887E-15	9.497387E-17
6.480000E+03	9.822578E-15	9.948737E-17
6.490000E+03	1.003726E-14	1.043048E-16
6.500000E+03	1.026331E-14	1.093918E-16
6.510000E+03	1.049713E-14	1.147107E-16
6.520000E+03	1.073484E-14	1.202170E-16
6.530000E+03	1.097241E-14	1.258602E-16
6.540000E+03	1.120602E-14	1.315879E-16
6.550000E+03	1.143160E-14	1.373411E-16
6.560000E+03	1.164520E-14	1.430570E-16
6.570000E+03	1.184320E-14	1.486738E-16
6.580000E+03	1.202196E-14	1.541251E-16
6.590000E+03	1.217809E-14	1.593444E-16
6.600000E+03	1.230883E-14	1.642708E-16
6.610000E+03	1.241180E-14	1.688460E-16
6.620000E+03	1.248506E-14	1.730160E-16
6.630000E+03	1.252744E-14	1.767368E-16
6.640000E+03	1.253837E-14	1.799729E-16
6.650000E+03	1.251814E-14	1.827015E-16
6.660000E+03	1.246718E-14	1.849035E-16
6.670000E+03	1.238703E-14	1.865779E-16
6.680000E+03	1.227941E-14	1.877294E-16
6.690000E+03	1.214629E-14	1.883691E-16
6.700000E+03	1.199019E-14	1.885196E-16
6.710000E+03	1.181371E-14	1.882079E-16
6.720000E+03	1.161954E-14	1.874661E-16
6.730000E+03	1.141032E-14	1.863281E-16
6.740000E+03	1.118918E-14	1.848390E-16
6.750000E+03	1.095843E-14	1.830332E-16
6.760000E+03	1.072088E-14	1.809564E-16
6.770000E+03	1.047900E-14	1.786503E-16
6.780000E+03	1.023520E-14	1.761577E-16
6.790000E+03	9.991333E-15	1.735142E-16
6.800000E+03	9.749429E-15	1.707594E-16
6.810000E+03	9.511293E-15	1.679303E-16
6.820000E+03	9.278287E-15	1.650570E-16
6.830000E+03	9.051894E-15	1.621725E-16
6.840000E+03	8.832852E-15	1.592971E-16
6.850000E+03	8.622332E-15	1.564588E-16
6.860000E+03	8.420889E-15	1.536750E-16
6.870000E+03	8.229108E-15	1.509631E-16
6.880000E+03	8.047111E-15	1.483323E-16
6.890000E+03	7.875266E-15	1.457956E-16
6.900000E+03	7.713517E-15	1.433583E-16
6.910000E+03	7.561876E-15	1.410262E-16
6.920000E+03	7.420156E-15	1.388010E-16
6.930000E+03	7.287997E-15	1.366808E-16
6.940000E+03	7.165218E-15	1.346666E-16
6.950000E+03	7.051231E-15	1.327511E-16
6.960000E+03	6.945647E-15	1.309305E-16
6.970000E+03	6.847953E-15	1.291981E-16
6.980000E+03	6.757513E-15	1.275446E-16
6.990000E+03	6.673916E-15	1.259646E-16
7.000000E+03	6.596565E-15	1.244488E-16
7.010000E+03	6.524695E-15	1.229844E-16
7.020000E+03	6.457779E-15	1.215632E-16
7.030000E+03	6.395292E-15	1.201765E-16
7.040000E+03	6.336482E-15	1.188115E-16
7.050000E+03	6.280928E-15	1.174613E-16
7.060000E+03	6.228077E-15	1.161168E-16
7.070000E+03	6.177245E-15	1.147661E-16
7.080000E+03	6.128095E-15	1.134042E-16
7.090000E+03	6.080093E-15	1.120223E-16
7.100000E+03	6.032833E-15	1.106141E-16
7.110000E+03	5.986024E-15	1.091756E-16
7.120000E+03	5.939283E-15	1.077013E-16
7.130000E+03	5.892429E-15	1.061893E-16
7.140000E+03	5.845111E-15	1.046351E-16
7.150000E+03	5.797405E-15	1.030418E-16
7.160000E+03	5.748990E-15	1.014055E-16
7.170000E+03	5.699960E-15	9.972995E-17
7.180000E+03	5.650302E-15	9.801699E-17
7.190000E+03	5.599963E-15	9.626787E-17
7.200000E+03	5.549062E-15	9.448685E-17
7.210000E+03	5.497594E-15	9.267615E-17
7.220000E+03	5.445710E-15	9.084066E-17
7.230000E+03	5.393503E-15	8.898425E-17
7.240000E+03	5.340997E-15	8.710976E-17
7.250000E+03	5.288432E-15	8.522348E-17
7.260000E+03	5.235766E-15	8.332720E-17
7.270000E+03	5.183233E-15	8.142708E-17
7.280000E+03	5.130856E-15	7.952599E-17
7.290000E+03	5.078726E-15	7.762784E-17
7.300000E+03	5.026993E-15	7.573748E-17
7.310000E+03	4.975665E-15	7.385767E-17
7.320000E+03	4.924881E-15	7.199312E-17
7.330000E+03	4.874701E-15	7.014748E-17
7.340000E+03	4.825118E-15	6.832348E-17
7.350000E+03	4.776306E-15	6.652656E-17
7.360000E+03	4.728184E-15	6.475868E-17
7.370000E+03	4.680797E-15	6.302375E-17
7.380000E+03	4.634317E-15	6.132751E-17
7.390000E+03	4.588608E-15	5.967179E-17
7.400000E+03	4.543787E-15	5.806199E-17
7.410000E+03	4.499917E-15	5.650298E-17
7.420000E+03	4.457008E-15	5.499919E-17
7.430000E+03	4.415075E-15	5.355539E-17
7.440000E+03	4.374264E-15	5.217814E-17
7.450000E+03	4.334603E-15	5.087280E-17
7.460000E+03	4.296302E-15	4.964707E-17
7.470000E+03	4.259398E-15	4.850673E-17
7.480000E+03	4.224044E-15	4.745907E-17
7.490000E+03	4.190334E-15	4.651078E-17
7.500000E+03	4.158248E-15	4.566732E-17
7.510000E+03	4.128043E-15	4.493715E-17
7.520000E+03	4.099687E-15	4.432542E-17
7.530000E+03	4.073256E-15	4.383821E-17
7.540000E+03	4.048811E-15	4.348106E-17
7.550000E+03	4.026400E-15	4.325896E-17
7.560000E+03	4.006057E-15	4.317607E-17
7.570000E+03	3.987736E-15	4.323509E-17
7.580000E+03	3.971480E-15	4.343746E-17
7.590000E+03	3.957189E-15	4.377933E-17
7.600000E+03	3.944785E-15	4.425600E-17
7.610000E+03	3.934147E-15	4.486184E-17
7.620000E+03	3.925161E-15	4.559091E-17
7.630000E+03	3.917498E-15	4.643444E-17
7.640000E+03	3.910932E-15	4.738454E-17
7.650000E+03	3.905066E-15	4.843100E-17
7.660000E+03	3.899544E-15	4.956375E-17
7.670000E+03	3.893898E-15	5.077096E-17
7.680000E+03	3.887561E-15	5.203906E-17
7.690000E+03	3.880049E-15	5.335499E-17
7.700000E+03	3.870797E-15	5.470399E-17
7.710000E+03	3.859451E-15	5.607370E-17
7.720000E+03	3.845867E-15	5.745451E-17
7.730000E+03	3.830138E-15	5.884032E-17
7.740000E+03	3.812529E-15	6.022815E-17
7.750000E+03	3.793409E-15	6.161734E-17
7.760000E+03	3.773090E-15	6.300720E-17
