#wls	flux	fluxerr
1.600000E+03	3.944553E-15	4.221600E-16
1.640000E+03	4.047590E-15	4.276302E-16
1.680000E+03	4.150515E-15	4.327288E-16
1.720000E+03	4.253566E-15	4.374762E-16
1.760000E+03	4.356994E-15	4.418927E-16
1.800000E+03	4.458609E-15	4.457536E-16
1.840000E+03	4.560315E-15	4.492506E-16
1.880000E+03	4.660013E-15	4.521761E-16
1.920000E+03	4.757417E-15	4.545087E-16
1.960000E+03	4.854321E-15	4.564250E-16
2.000000E+03	4.951268E-15	4.579754E-16
2.040000E+03	5.047520E-15	4.590910E-16
2.080000E+03	5.147401E-15	4.601604E-16
2.120000E+03	5.252018E-15	4.612632E-16
2.160000E+03	5.363390E-15	4.625510E-16
2.200000E+03	5.484723E-15	4.642628E-16
2.240000E+03	5.618567E-15	4.665615E-16
2.280000E+03	5.767322E-15	4.695796E-16
2.320000E+03	5.933212E-15	4.734196E-16
2.360000E+03	6.117363E-15	4.780822E-16
2.400000E+03	6.318514E-15	4.833769E-16
2.440000E+03	6.538499E-15	4.893531E-16
2.480000E+03	6.776421E-15	4.958481E-16
2.520000E+03	7.035255E-15	5.029820E-16
2.560000E+03	7.316836E-15	5.107757E-16
2.600000E+03	7.626259E-15	5.194605E-16
2.640000E+03	7.965366E-15	5.290178E-16
2.680000E+03	8.336533E-15	5.394522E-16
2.720000E+03	8.738219E-15	5.505074E-16
2.760000E+03	9.168261E-15	5.619007E-16
2.800000E+03	9.625781E-15	5.734399E-16
2.840000E+03	1.010745E-14	5.847993E-16
2.880000E+03	1.061370E-14	5.958914E-16
2.920000E+03	1.114181E-14	6.064582E-16
2.960000E+03	1.169054E-14	6.163466E-16
3.000000E+03	1.225415E-14	6.251878E-16
3.010000E+03	1.239629E-14	6.271751E-16
3.020000E+03	1.253929E-14	6.290912E-16
3.030000E+03	1.268295E-14	6.309264E-16
3.040000E+03	1.282707E-14	6.326704E-16
3.050000E+03	1.296999E-14	6.342422E-16
3.060000E+03	1.311291E-14	6.357025E-16
3.070000E+03	1.325699E-14	6.371083E-16
3.080000E+03	1.339910E-14	6.383092E-16
3.090000E+03	1.354182E-14	6.394313E-16
3.100000E+03	1.368197E-14	6.403254E-16
3.110000E+03	1.382209E-14	6.411141E-16
3.120000E+03	1.395898E-14	6.416514E-16
3.130000E+03	1.409515E-14	6.420564E-16
3.140000E+03	1.423022E-14	6.423143E-16
3.150000E+03	1.436237E-14	6.423464E-16
3.160000E+03	1.449118E-14	6.421390E-16
3.170000E+03	1.461622E-14	6.416791E-16
3.180000E+03	1.473851E-14	6.410162E-16
3.190000E+03	1.485757E-14	6.401354E-16
3.200000E+03	1.497294E-14	6.390219E-16
3.210000E+03	1.508274E-14	6.376022E-16
3.220000E+03	1.518791E-14	6.359238E-16
3.230000E+03	1.528794E-14	6.339737E-16
3.240000E+03	1.538099E-14	6.316831E-16
3.250000E+03	1.546933E-14	6.291547E-16
3.260000E+03	1.555111E-14	6.263209E-16
3.270000E+03	1.562585E-14	6.231727E-16
3.280000E+03	1.569311E-14	6.197021E-16
3.290000E+03	1.575380E-14	6.159554E-16
3.300000E+03	1.580617E-14	6.118741E-16
3.310000E+03	1.584983E-14	6.074545E-16
3.320000E+03	1.588576E-14	6.027458E-16
3.330000E+03	1.591362E-14	5.977453E-16
3.340000E+03	1.593186E-14	5.924063E-16
3.350000E+03	1.594153E-14	5.867798E-16
3.360000E+03	1.594246E-14	5.808708E-16
3.370000E+03	1.593572E-14	5.747293E-16
3.380000E+03	1.591880E-14	5.682756E-16
3.390000E+03	1.589294E-14	5.615654E-16
3.400000E+03	1.585936E-14	5.546529E-16
3.410000E+03	1.581700E-14	5.475105E-16
3.420000E+03	1.576717E-14	5.401940E-16
3.430000E+03	1.570894E-14	5.326809E-16
3.440000E+03	1.564374E-14	5.250281E-16
3.450000E+03	1.557185E-14	5.172535E-16
3.460000E+03	1.549359E-14	5.093752E-16
3.470000E+03	1.540827E-14	5.013771E-16
3.480000E+03	1.531820E-14	4.933418E-16
3.490000E+03	1.522252E-14	4.852437E-16
3.500000E+03	1.512226E-14	4.771182E-16
3.510000E+03	1.501655E-14	4.689387E-16
3.520000E+03	1.490640E-14	4.607390E-16
3.530000E+03	1.479197E-14	4.525245E-16
3.540000E+03	1.467256E-14	4.442750E-16
3.550000E+03	1.455021E-14	4.360533E-16
3.560000E+03	1.442354E-14	4.278175E-16
3.570000E+03	1.429458E-14	4.196287E-16
3.580000E+03	1.416291E-14	4.114733E-16
3.590000E+03	1.402975E-14	4.033862E-16
3.600000E+03	1.389552E-14	3.953777E-16
3.610000E+03	1.375990E-14	3.874372E-16
3.620000E+03	1.362409E-14	3.795965E-16
3.630000E+03	1.348919E-14	3.718838E-16
3.640000E+03	1.335419E-14	3.642685E-16
3.650000E+03	1.322086E-14	3.567958E-16
3.660000E+03	1.308946E-14	3.494696E-16
3.670000E+03	1.295965E-14	3.422767E-16
3.680000E+03	1.283170E-14	3.352210E-16
3.690000E+03	1.270699E-14	3.283355E-16
3.700000E+03	1.258507E-14	3.216036E-16
3.710000E+03	1.246600E-14	3.150232E-16
3.720000E+03	1.234979E-14	3.085908E-16
3.730000E+03	1.223697E-14	3.023160E-16
3.740000E+03	1.212689E-14	2.961788E-16
3.750000E+03	1.201994E-14	2.901856E-16
3.760000E+03	1.191595E-14	2.843288E-16
3.770000E+03	1.181468E-14	2.785995E-16
3.780000E+03	1.171541E-14	2.729784E-16
3.790000E+03	1.161929E-14	2.674895E-16
3.800000E+03	1.152462E-14	2.620914E-16
3.810000E+03	1.143200E-14	2.567964E-16
3.820000E+03	1.134069E-14	2.515863E-16
3.830000E+03	1.125079E-14	2.464621E-16
3.840000E+03	1.116195E-14	2.414156E-16
3.850000E+03	1.107345E-14	2.364307E-16
3.860000E+03	1.098571E-14	2.315166E-16
3.870000E+03	1.089763E-14	2.266509E-16
3.880000E+03	1.080965E-14	2.218431E-16
3.890000E+03	1.072072E-14	2.170733E-16
3.900000E+03	1.063127E-14	2.123517E-16
3.910000E+03	1.054074E-14	2.076691E-16
3.920000E+03	1.044894E-14	2.030242E-16
3.930000E+03	1.035609E-14	1.984237E-16
3.940000E+03	1.026184E-14	1.938636E-16
3.950000E+03	1.016621E-14	1.893471E-16
3.960000E+03	1.006930E-14	1.848792E-16
3.970000E+03	9.971528E-15	1.804705E-16
3.980000E+03	9.872756E-15	1.761217E-16
3.990000E+03	9.773163E-15	1.718389E-16
4.000000E+03	9.672971E-15	1.676292E-16
4.010000E+03	9.572372E-15	1.634990E-16
4.020000E+03	9.471610E-15	1.594553E-16
4.030000E+03	9.370917E-15	1.555051E-16
4.040000E+03	9.270530E-15	1.516551E-16
4.050000E+03	9.170466E-15	1.479084E-16
4.060000E+03	9.070991E-15	1.442722E-16
4.070000E+03	8.972562E-15	1.407563E-16
4.080000E+03	8.874990E-15	1.373605E-16
4.090000E+03	8.778727E-15	1.340945E-16
4.100000E+03	8.683964E-15	1.309634E-16
4.110000E+03	8.590707E-15	1.279700E-16
4.120000E+03	8.499192E-15	1.251200E-16
4.130000E+03	8.409489E-15	1.224167E-16
4.140000E+03	8.322080E-15	1.198693E-16
4.150000E+03	8.237139E-15	1.174820E-16
4.160000E+03	8.154912E-15	1.152601E-16
4.170000E+03	8.076030E-15	1.132139E-16
4.180000E+03	8.000654E-15	1.113468E-16
4.190000E+03	7.929435E-15	1.096687E-16
4.200000E+03	7.862543E-15	1.081828E-16
4.210000E+03	7.800567E-15	1.068976E-16
4.220000E+03	7.743697E-15	1.058159E-16
4.230000E+03	7.692045E-15	1.049396E-16
4.240000E+03	7.645738E-15	1.042697E-16
4.250000E+03	7.604586E-15	1.037982E-16
4.260000E+03	7.568385E-15	1.035152E-16
4.270000E+03	7.536643E-15	1.034069E-16
4.280000E+03	7.508829E-15	1.034591E-16
4.290000E+03	7.484041E-15	1.036524E-16
4.300000E+03	7.461695E-15	1.039719E-16
4.310000E+03	7.440816E-15	1.043969E-16
4.320000E+03	7.420749E-15	1.049111E-16
4.330000E+03	7.400929E-15	1.054995E-16
4.340000E+03	7.380532E-15	1.061431E-16
4.350000E+03	7.359385E-15	1.068319E-16
4.360000E+03	7.336835E-15	1.075494E-16
4.370000E+03	7.312825E-15	1.082873E-16
4.380000E+03	7.287173E-15	1.090359E-16
4.390000E+03	7.259773E-15	1.097866E-16
4.400000E+03	7.230614E-15	1.105327E-16
4.410000E+03	7.199968E-15	1.112717E-16
4.420000E+03	7.167751E-15	1.119966E-16
4.430000E+03	7.134461E-15	1.127092E-16
4.440000E+03	7.100235E-15	1.134067E-16
4.450000E+03	7.065438E-15	1.140902E-16
4.460000E+03	7.030357E-15	1.147600E-16
4.470000E+03	6.995471E-15	1.154202E-16
4.480000E+03	6.960931E-15	1.160699E-16
4.490000E+03	6.927026E-15	1.167112E-16
4.500000E+03	6.893900E-15	1.173438E-16
4.510000E+03	6.861847E-15	1.179706E-16
4.520000E+03	6.830947E-15	1.185910E-16
4.530000E+03	6.801256E-15	1.192045E-16
4.540000E+03	6.772981E-15	1.198132E-16
4.550000E+03	6.746142E-15	1.204162E-16
4.560000E+03	6.720908E-15	1.210157E-16
4.570000E+03	6.697190E-15	1.216092E-16
4.580000E+03	6.675151E-15	1.221989E-16
4.590000E+03	6.654783E-15	1.227842E-16
4.600000E+03	6.636245E-15	1.233673E-16
4.610000E+03	6.619622E-15	1.239497E-16
4.620000E+03	6.604924E-15	1.245312E-16
4.630000E+03	6.592318E-15	1.251148E-16
4.640000E+03	6.581890E-15	1.257020E-16
4.650000E+03	6.573648E-15	1.262930E-16
4.660000E+03	6.567743E-15	1.268904E-16
4.670000E+03	6.564307E-15	1.274970E-16
4.680000E+03	6.563306E-15	1.281122E-16
4.690000E+03	6.564832E-15	1.287376E-16
4.700000E+03	6.569025E-15	1.293760E-16
4.710000E+03	6.575767E-15	1.300252E-16
4.720000E+03	6.585140E-15	1.306867E-16
4.730000E+03	6.597191E-15	1.313614E-16
4.740000E+03	6.611792E-15	1.320465E-16
4.750000E+03	6.628996E-15	1.327429E-16
4.760000E+03	6.648664E-15	1.334476E-16
4.770000E+03	6.670618E-15	1.341567E-16
4.780000E+03	6.694473E-15	1.348620E-16
4.790000E+03	6.720007E-15	1.355586E-16
4.800000E+03	6.746646E-15	1.362344E-16
4.810000E+03	6.773919E-15	1.368794E-16
4.820000E+03	6.801165E-15	1.374795E-16
4.830000E+03	6.827687E-15	1.380202E-16
4.840000E+03	6.852997E-15	1.384912E-16
4.850000E+03	6.876297E-15	1.388758E-16
4.860000E+03	6.897021E-15	1.391625E-16
4.870000E+03	6.914649E-15	1.393406E-16
4.880000E+03	6.928658E-15	1.393998E-16
4.890000E+03	6.938671E-15	1.393328E-16
4.900000E+03	6.944450E-15	1.391355E-16
4.910000E+03	6.945689E-15	1.388026E-16
4.920000E+03	6.942234E-15	1.383320E-16
4.930000E+03	6.934151E-15	1.377264E-16
4.940000E+03	6.921303E-15	1.369847E-16
4.950000E+03	6.903924E-15	1.361132E-16
4.960000E+03	6.882202E-15	1.351176E-16
4.970000E+03	6.856437E-15	1.340059E-16
4.980000E+03	6.827079E-15	1.327891E-16
4.990000E+03	6.794542E-15	1.314774E-16
5.000000E+03	6.759253E-15	1.300814E-16
5.010000E+03	6.721717E-15	1.286131E-16
5.020000E+03	6.682379E-15	1.270831E-16
5.030000E+03	6.641752E-15	1.255035E-16
5.040000E+03	6.600212E-15	1.238833E-16
5.050000E+03	6.558255E-15	1.222340E-16
5.060000E+03	6.516289E-15	1.205649E-16
5.070000E+03	6.474767E-15	1.188862E-16
5.080000E+03	6.433992E-15	1.172050E-16
5.090000E+03	6.394388E-15	1.155306E-16
5.100000E+03	6.356354E-15	1.138714E-16
5.110000E+03	6.320147E-15	1.122333E-16
5.120000E+03	6.286070E-15	1.106226E-16
5.130000E+03	6.254469E-15	1.090464E-16
5.140000E+03	6.225584E-15	1.075096E-16
5.150000E+03	6.199612E-15	1.060163E-16
5.160000E+03	6.176634E-15	1.045684E-16
5.170000E+03	6.156869E-15	1.031704E-16
5.180000E+03	6.140340E-15	1.018231E-16
5.190000E+03	6.126890E-15	1.005245E-16
5.200000E+03	6.116626E-15	9.927719E-17
5.210000E+03	6.109225E-15	9.807670E-17
5.220000E+03	6.104701E-15	9.692430E-17
5.230000E+03	6.102729E-15	9.581605E-17
5.240000E+03	6.103094E-15	9.475008E-17
5.250000E+03	6.105691E-15	9.372646E-17
5.260000E+03	6.110159E-15	9.274164E-17
5.270000E+03	6.116384E-15	9.179617E-17
5.280000E+03	6.123999E-15	9.088706E-17
5.290000E+03	6.132866E-15	9.001511E-17
5.300000E+03	6.142649E-15	8.917849E-17
5.310000E+03	6.153048E-15	8.837626E-17
5.320000E+03	6.163801E-15	8.760832E-17
5.330000E+03	6.174488E-15	8.687263E-17
5.340000E+03	6.184783E-15	8.616884E-17
5.350000E+03	6.194336E-15	8.549642E-17
5.360000E+03	6.202580E-15	8.485213E-17
5.370000E+03	6.209183E-15	8.423611E-17
5.380000E+03	6.213665E-15	8.364659E-17
5.390000E+03	6.215607E-15	8.308261E-17
5.400000E+03	6.214471E-15	8.254154E-17
5.410000E+03	6.209880E-15	8.202271E-17
5.420000E+03	6.201481E-15	8.152548E-17
5.430000E+03	6.189282E-15	8.105348E-17
5.440000E+03	6.173724E-15	8.061457E-17
5.450000E+03	6.155285E-15	8.021254E-17
5.460000E+03	6.134609E-15	7.985171E-17
5.470000E+03	6.112345E-15	7.953598E-17
5.480000E+03	6.088988E-15	7.926702E-17
5.490000E+03	6.065117E-15	7.904742E-17
5.500000E+03	6.041214E-15	7.887840E-17
5.510000E+03	6.017647E-15	7.875974E-17
5.520000E+03	5.994923E-15	7.869315E-17
5.530000E+03	5.973266E-15	7.867670E-17
5.540000E+03	5.952967E-15	7.870960E-17
5.550000E+03	5.934279E-15	7.879071E-17
5.560000E+03	5.917426E-15	7.891875E-17
5.570000E+03	5.902597E-15	7.909218E-17
5.580000E+03	5.889843E-15	7.930793E-17
5.590000E+03	5.879389E-15	7.956540E-17
5.600000E+03	5.871395E-15	7.986342E-17
5.610000E+03	5.865915E-15	8.019955E-17
5.620000E+03	5.863180E-15	8.057403E-17
5.630000E+03	5.863380E-15	8.098673E-17
5.640000E+03	5.866654E-15	8.143703E-17
5.650000E+03	5.873204E-15	8.192535E-17
5.660000E+03	5.883176E-15	8.245151E-17
5.670000E+03	5.896828E-15	8.301703E-17
5.680000E+03	5.914348E-15	8.362258E-17
5.690000E+03	5.935783E-15	8.426695E-17
5.700000E+03	5.961389E-15	8.495195E-17
5.710000E+03	5.991216E-15	8.567649E-17
5.720000E+03	6.025317E-15	8.643956E-17
5.730000E+03	6.063706E-15	8.723958E-17
5.740000E+03	6.106278E-15	8.807317E-17
5.750000E+03	6.152973E-15	8.893761E-17
5.760000E+03	6.203605E-15	8.982825E-17
5.770000E+03	6.257928E-15	9.073947E-17
5.780000E+03	6.315543E-15	9.166338E-17
5.790000E+03	6.376046E-15	9.259196E-17
5.800000E+03	6.439038E-15	9.351712E-17
5.810000E+03	6.503928E-15	9.442800E-17
5.820000E+03	6.570199E-15	9.531482E-17
5.830000E+03	6.637177E-15	9.616550E-17
5.840000E+03	6.704220E-15	9.696855E-17
5.850000E+03	6.770744E-15	9.771338E-17
5.860000E+03	6.835962E-15	9.838671E-17
5.870000E+03	6.899373E-15	9.897954E-17
5.880000E+03	6.960303E-15	9.948067E-17
5.890000E+03	7.018198E-15	9.988095E-17
5.900000E+03	7.072511E-15	1.001717E-16
5.910000E+03	7.122993E-15	1.003487E-16
5.920000E+03	7.169296E-15	1.004068E-16
5.930000E+03	7.211220E-15	1.003433E-16
5.940000E+03	7.248849E-15	1.001599E-16
5.950000E+03	7.282357E-15	9.985948E-17
5.960000E+03	7.312052E-15	9.944733E-17
5.970000E+03	7.338545E-15	9.893283E-17
5.980000E+03	7.362539E-15	9.832658E-17
5.990000E+03	7.384834E-15	9.764039E-17
6.000000E+03	7.406505E-15	9.688950E-17
6.010000E+03	7.428589E-15	9.608820E-17
6.020000E+03	7.452366E-15	9.525353E-17
6.030000E+03	7.479115E-15	9.440183E-17
6.040000E+03	7.510064E-15	9.354813E-17
6.050000E+03	7.546535E-15	9.270791E-17
6.060000E+03	7.589984E-15	9.189741E-17
6.070000E+03	7.641442E-15	9.112690E-17
6.080000E+03	7.702310E-15	9.041032E-17
6.090000E+03	7.773507E-15	8.975514E-17
6.100000E+03	7.855964E-15	8.916841E-17
6.110000E+03	7.950486E-15	8.865535E-17
6.120000E+03	8.057512E-15	8.821682E-17
6.130000E+03	8.177189E-15	8.785072E-17
6.140000E+03	8.309441E-15	8.755309E-17
6.150000E+03	8.453557E-15	8.731424E-17
6.160000E+03	8.608488E-15	8.712272E-17
6.170000E+03	8.772466E-15	8.696202E-17
6.180000E+03	8.943178E-15	8.681326E-17
6.190000E+03	9.117473E-15	8.665314E-17
6.200000E+03	9.291433E-15	8.645565E-17
6.210000E+03	9.460419E-15	8.619324E-17
6.220000E+03	9.618646E-15	8.583366E-17
6.230000E+03	9.759142E-15	8.534035E-17
6.240000E+03	9.874529E-15	8.467954E-17
6.250000E+03	9.957348E-15	8.382234E-17
6.260000E+03	1.000056E-14	8.274758E-17
6.270000E+03	9.999235E-15	8.145332E-17
6.280000E+03	9.952130E-15	7.996651E-17
6.290000E+03	9.863990E-15	7.835711E-17
6.300000E+03	9.743277E-15	7.671668E-17
6.310000E+03	9.600377E-15	7.514311E-17
6.320000E+03	9.446070E-15	7.372935E-17
6.330000E+03	9.290345E-15	7.255597E-17
6.340000E+03	9.142313E-15	7.169135E-17
6.350000E+03	9.008894E-15	7.117508E-17
6.360000E+03	8.895580E-15	7.103196E-17
6.370000E+03	8.806239E-15	7.127675E-17
6.380000E+03	8.743744E-15	7.192004E-17
6.390000E+03	8.709588E-15	7.296526E-17
6.400000E+03	8.704864E-15	7.441660E-17
6.410000E+03	8.729793E-15	7.627471E-17
6.420000E+03	8.783885E-15	7.853718E-17
6.430000E+03	8.866566E-15	8.120341E-17
6.440000E+03	8.976479E-15	8.426747E-17
6.450000E+03	9.112242E-15	8.772414E-17
6.460000E+03	9.271815E-15	9.156222E-17
6.470000E+03	9.452853E-15	9.576677E-17
6.480000E+03	9.652624E-15	1.003175E-16
6.490000E+03	9.867950E-15	1.051873E-16
6.500000E+03	1.009558E-14	1.103455E-16
6.510000E+03	1.033179E-14	1.157526E-16
6.520000E+03	1.057284E-14	1.213654E-16
6.530000E+03	1.081476E-14	1.271336E-16
6.540000E+03	1.105382E-14	1.330057E-16
6.550000E+03	1.128603E-14	1.389226E-16
6.560000E+03	1.150745E-14	1.448218E-16
6.570000E+03	1.171437E-14	1.506391E-16
6.580000E+03	1.190293E-14	1.563050E-16
6.590000E+03	1.206993E-14	1.617544E-16
6.600000E+03	1.221210E-14	1.669186E-16
6.610000E+03	1.232674E-14	1.717339E-16
6.620000E+03	1.241205E-14	1.761470E-16
6.630000E+03	1.246643E-14	1.801069E-16
6.640000E+03	1.248907E-14	1.835730E-16
6.650000E+03	1.247997E-14	1.865178E-16
6.660000E+03	1.243968E-14	1.889223E-16
6.670000E+03	1.236923E-14	1.907778E-16
6.680000E+03	1.227025E-14	1.920862E-16
6.690000E+03	1.214472E-14	1.928583E-16
6.700000E+03	1.199526E-14	1.931178E-16
6.710000E+03	1.182414E-14	1.928864E-16
6.720000E+03	1.163420E-14	1.921983E-16
6.730000E+03	1.142823E-14	1.910900E-16
6.740000E+03	1.120914E-14	1.896032E-16
6.750000E+03	1.097953E-14	1.877775E-16
6.760000E+03	1.074230E-14	1.856603E-16
6.770000E+03	1.049973E-14	1.832907E-16
6.780000E+03	1.025419E-14	1.807117E-16
6.790000E+03	1.000823E-14	1.779710E-16
6.800000E+03	9.763473E-15	1.751019E-16
6.810000E+03	9.521910E-15	1.721455E-16
6.820000E+03	9.284978E-15	1.691337E-16
6.830000E+03	9.054117E-15	1.660995E-16
6.840000E+03	8.830443E-15	1.630704E-16
6.850000E+03	8.614767E-15	1.600685E-16
6.860000E+03	8.407999E-15	1.571182E-16
6.870000E+03	8.210469E-15	1.542327E-16
6.880000E+03	8.022733E-15	1.514294E-16
6.890000E+03	7.844899E-15	1.487171E-16
6.900000E+03	7.677039E-15	1.461036E-16
6.910000E+03	7.519112E-15	1.435939E-16
6.920000E+03	7.371049E-15	1.411923E-16
6.930000E+03	7.232520E-15	1.388975E-16
6.940000E+03	7.103210E-15	1.367080E-16
6.950000E+03	6.982822E-15	1.346223E-16
6.960000E+03	6.870835E-15	1.326341E-16
6.970000E+03	6.766856E-15	1.307390E-16
6.980000E+03	6.670298E-15	1.289285E-16
6.990000E+03	6.580707E-15	1.271966E-16
7.000000E+03	6.497457E-15	1.255331E-16
7.010000E+03	6.420070E-15	1.239311E-16
7.020000E+03	6.347907E-15	1.223796E-16
7.030000E+03	6.280487E-15	1.208711E-16
7.040000E+03	6.217187E-15	1.193948E-16
7.050000E+03	6.157469E-15	1.179417E-16
7.060000E+03	6.100895E-15	1.165045E-16
7.070000E+03	6.046891E-15	1.150734E-16
7.080000E+03	5.994991E-15	1.136407E-16
7.090000E+03	5.944755E-15	1.121991E-16
7.100000E+03	5.895856E-15	1.107437E-16
7.110000E+03	5.847780E-15	1.092661E-16
7.120000E+03	5.800279E-15	1.077630E-16
7.130000E+03	5.753077E-15	1.062307E-16
7.140000E+03	5.705943E-15	1.046667E-16
7.150000E+03	5.658686E-15	1.030689E-16
7.160000E+03	5.611096E-15	1.014356E-16
7.170000E+03	5.563070E-15	9.976661E-17
7.180000E+03	5.514608E-15	9.806414E-17
7.190000E+03	5.465675E-15	9.632963E-17
7.200000E+03	5.416123E-15	9.456271E-17
7.210000E+03	5.366101E-15	9.276830E-17
7.220000E+03	5.315502E-15	9.094694E-17
7.230000E+03	5.264439E-15	8.910305E-17
7.240000E+03	5.212968E-15	8.724009E-17
7.250000E+03	5.161153E-15	8.536170E-17
7.260000E+03	5.109001E-15	8.347066E-17
7.270000E+03	5.056655E-15	8.157201E-17
7.280000E+03	5.004136E-15	7.966882E-17
7.290000E+03	4.951532E-15	7.776532E-17
7.300000E+03	4.898998E-15	7.586680E-17
7.310000E+03	4.846559E-15	7.397655E-17
7.320000E+03	4.794372E-15	7.209994E-17
7.330000E+03	4.742460E-15	7.024035E-17
7.340000E+03	4.690967E-15	6.840300E-17
7.350000E+03	4.639906E-15	6.659130E-17
7.360000E+03	4.589468E-15	6.481132E-17
7.370000E+03	4.539726E-15	6.306744E-17
7.380000E+03	4.490746E-15	6.136410E-17
7.390000E+03	4.442657E-15	5.970670E-17
7.400000E+03	4.395527E-15	5.809995E-17
7.410000E+03	4.349545E-15	5.655027E-17
7.420000E+03	4.304782E-15	5.506266E-17
7.430000E+03	4.261317E-15	5.364235E-17
7.440000E+03	4.219169E-15	5.229407E-17
7.450000E+03	4.178479E-15	5.102418E-17
7.460000E+03	4.139165E-15	4.983651E-17
7.470000E+03	4.101315E-15	4.873712E-17
7.480000E+03	4.064907E-15	4.773086E-17
7.490000E+03	4.030081E-15	4.682454E-17
7.500000E+03	3.996814E-15	4.602302E-17
7.510000E+03	3.965235E-15	4.533282E-17
7.520000E+03	3.935309E-15	4.475836E-17
7.530000E+03	3.907203E-15	4.430605E-17
7.540000E+03	3.880809E-15	4.397877E-17
7.550000E+03	3.856317E-15	4.378229E-17
7.560000E+03	3.833594E-15	4.371809E-17
7.570000E+03	3.812740E-15	4.378949E-17
7.580000E+03	3.793733E-15	4.399520E-17
7.590000E+03	3.776476E-15	4.433054E-17
7.600000E+03	3.760893E-15	4.479053E-17
7.610000E+03	3.746881E-15	4.536948E-17
7.620000E+03	3.734399E-15	4.606220E-17
7.630000E+03	3.723177E-15	4.686046E-17
7.640000E+03	3.713008E-15	4.775663E-17
7.650000E+03	3.703702E-15	4.874311E-17
7.660000E+03	3.695042E-15	4.981190E-17
7.670000E+03	3.686643E-15	5.095259E-17
7.680000E+03	3.678265E-15	5.215650E-17
7.690000E+03	3.669629E-15	5.341430E-17
7.700000E+03	3.660483E-15	5.471691E-17
7.710000E+03	3.650679E-15	5.605665E-17
7.720000E+03	3.640027E-15	5.742519E-17
7.730000E+03	3.628451E-15	5.881599E-17
7.740000E+03	3.615983E-15	6.022441E-17
7.750000E+03	3.602607E-15	6.164524E-17
7.760000E+03	3.588433E-15	6.307574E-17
