#wls	flux	fluxerr
1.600000E+03	3.756515E-15	4.280256E-16
1.640000E+03	3.851476E-15	4.334901E-16
1.680000E+03	3.945495E-15	4.385108E-16
1.720000E+03	4.039550E-15	4.431948E-16
1.760000E+03	4.132491E-15	4.474130E-16
1.800000E+03	4.223907E-15	4.511223E-16
1.840000E+03	4.314258E-15	4.543743E-16
1.880000E+03	4.402631E-15	4.570757E-16
1.920000E+03	4.490702E-15	4.594040E-16
1.960000E+03	4.578125E-15	4.613231E-16
2.000000E+03	4.665729E-15	4.629161E-16
2.040000E+03	4.755623E-15	4.643865E-16
2.080000E+03	4.849547E-15	4.658892E-16
2.120000E+03	4.949468E-15	4.675899E-16
2.160000E+03	5.057270E-15	4.696336E-16
2.200000E+03	5.176675E-15	4.723216E-16
2.240000E+03	5.309010E-15	4.757145E-16
2.280000E+03	5.456332E-15	4.799270E-16
2.320000E+03	5.621700E-15	4.851462E-16
2.360000E+03	5.804738E-15	4.912466E-16
2.400000E+03	6.006752E-15	4.982437E-16
2.440000E+03	6.229331E-15	5.061668E-16
2.480000E+03	6.473650E-15	5.150015E-16
2.520000E+03	6.742634E-15	5.248611E-16
2.560000E+03	7.039133E-15	5.358335E-16
2.600000E+03	7.368848E-15	5.481993E-16
2.640000E+03	7.735255E-15	5.620385E-16
2.680000E+03	8.139985E-15	5.772773E-16
2.720000E+03	8.582768E-15	5.937007E-16
2.760000E+03	9.059677E-15	6.108507E-16
2.800000E+03	9.566964E-15	6.283081E-16
2.840000E+03	1.010262E-14	6.457935E-16
2.880000E+03	1.066132E-14	6.628401E-16
2.920000E+03	1.123636E-14	6.789398E-16
2.960000E+03	1.182056E-14	6.936113E-16
3.000000E+03	1.240451E-14	7.063032E-16
3.010000E+03	1.255049E-14	7.091731E-16
3.020000E+03	1.269461E-14	7.118191E-16
3.030000E+03	1.283656E-14	7.142279E-16
3.040000E+03	1.297884E-14	7.165399E-16
3.050000E+03	1.311838E-14	7.185879E-16
3.060000E+03	1.325624E-14	7.204341E-16
3.070000E+03	1.339212E-14	7.220647E-16
3.080000E+03	1.352566E-14	7.234653E-16
3.090000E+03	1.365654E-14	7.246217E-16
3.100000E+03	1.378438E-14	7.255188E-16
3.110000E+03	1.390883E-14	7.261434E-16
3.120000E+03	1.402951E-14	7.264810E-16
3.130000E+03	1.414742E-14	7.265890E-16
3.140000E+03	1.425941E-14	7.263117E-16
3.150000E+03	1.436783E-14	7.257768E-16
3.160000E+03	1.447229E-14	7.249699E-16
3.170000E+03	1.456964E-14	7.237413E-16
3.180000E+03	1.466224E-14	7.222171E-16
3.190000E+03	1.474965E-14	7.203838E-16
3.200000E+03	1.483017E-14	7.181658E-16
3.210000E+03	1.490472E-14	7.156185E-16
3.220000E+03	1.497164E-14	7.126703E-16
3.230000E+03	1.503318E-14	7.094395E-16
3.240000E+03	1.508639E-14	7.057952E-16
3.250000E+03	1.513226E-14	7.017949E-16
3.260000E+03	1.516920E-14	6.973766E-16
3.270000E+03	1.519953E-14	6.926574E-16
3.280000E+03	1.522172E-14	6.875780E-16
3.290000E+03	1.523558E-14	6.821408E-16
3.300000E+03	1.524218E-14	6.764049E-16
3.310000E+03	1.523896E-14	6.702667E-16
3.320000E+03	1.522826E-14	6.638423E-16
3.330000E+03	1.520887E-14	6.570888E-16
3.340000E+03	1.518198E-14	6.500684E-16
3.350000E+03	1.514766E-14	6.427939E-16
3.360000E+03	1.510487E-14	6.352313E-16
3.370000E+03	1.505493E-14	6.274463E-16
3.380000E+03	1.499806E-14	6.194571E-16
3.390000E+03	1.493345E-14	6.112387E-16
3.400000E+03	1.486358E-14	6.029020E-16
3.410000E+03	1.478775E-14	5.944246E-16
3.420000E+03	1.470635E-14	5.858295E-16
3.430000E+03	1.462084E-14	5.771813E-16
3.440000E+03	1.452969E-14	5.684247E-16
3.450000E+03	1.443631E-14	5.596988E-16
3.460000E+03	1.433922E-14	5.509487E-16
3.470000E+03	1.423889E-14	5.421969E-16
3.480000E+03	1.413751E-14	5.335293E-16
3.490000E+03	1.403355E-14	5.248874E-16
3.500000E+03	1.392814E-14	5.163132E-16
3.510000E+03	1.382149E-14	5.078130E-16
3.520000E+03	1.371464E-14	4.994232E-16
3.530000E+03	1.360692E-14	4.911177E-16
3.540000E+03	1.349854E-14	4.829025E-16
3.550000E+03	1.339052E-14	4.748110E-16
3.560000E+03	1.328302E-14	4.668472E-16
3.570000E+03	1.317553E-14	4.589897E-16
3.580000E+03	1.306971E-14	4.512942E-16
3.590000E+03	1.296434E-14	4.437148E-16
3.600000E+03	1.286032E-14	4.362800E-16
3.610000E+03	1.275853E-14	4.290159E-16
3.620000E+03	1.265844E-14	4.219006E-16
3.630000E+03	1.256084E-14	4.149575E-16
3.640000E+03	1.246518E-14	4.081645E-16
3.650000E+03	1.237216E-14	4.015410E-16
3.660000E+03	1.228181E-14	3.950840E-16
3.670000E+03	1.219411E-14	3.887891E-16
3.680000E+03	1.210956E-14	3.826688E-16
3.690000E+03	1.202692E-14	3.766800E-16
3.700000E+03	1.194716E-14	3.708503E-16
3.710000E+03	1.187008E-14	3.651699E-16
3.720000E+03	1.179488E-14	3.596117E-16
3.730000E+03	1.172184E-14	3.541811E-16
3.740000E+03	1.165063E-14	3.488663E-16
3.750000E+03	1.158093E-14	3.436555E-16
3.760000E+03	1.151240E-14	3.385365E-16
3.770000E+03	1.144468E-14	3.334976E-16
3.780000E+03	1.137783E-14	3.285398E-16
3.790000E+03	1.131148E-14	3.236512E-16
3.800000E+03	1.124479E-14	3.188076E-16
3.810000E+03	1.117824E-14	3.140225E-16
3.820000E+03	1.111060E-14	3.092617E-16
3.830000E+03	1.104195E-14	3.045280E-16
3.840000E+03	1.097193E-14	2.998124E-16
3.850000E+03	1.090060E-14	2.951183E-16
3.860000E+03	1.082724E-14	2.904274E-16
3.870000E+03	1.075197E-14	2.857447E-16
3.880000E+03	1.067449E-14	2.810643E-16
3.890000E+03	1.059425E-14	2.763738E-16
3.900000E+03	1.051140E-14	2.716801E-16
3.910000E+03	1.042582E-14	2.669822E-16
3.920000E+03	1.033742E-14	2.622807E-16
3.930000E+03	1.024615E-14	2.575770E-16
3.940000E+03	1.015204E-14	2.528747E-16
3.950000E+03	1.005547E-14	2.481858E-16
3.960000E+03	9.956230E-15	2.435081E-16
3.970000E+03	9.854522E-15	2.388488E-16
3.980000E+03	9.750817E-15	2.342218E-16
3.990000E+03	9.645115E-15	2.296294E-16
4.000000E+03	9.537707E-15	2.250805E-16
4.010000E+03	9.429158E-15	2.205904E-16
4.020000E+03	9.319791E-15	2.161682E-16
4.030000E+03	9.209709E-15	2.118175E-16
4.040000E+03	9.099270E-15	2.075478E-16
4.050000E+03	8.989040E-15	2.033729E-16
4.060000E+03	8.879123E-15	1.992958E-16
4.070000E+03	8.769844E-15	1.953243E-16
4.080000E+03	8.661710E-15	1.914700E-16
4.090000E+03	8.554798E-15	1.877346E-16
4.100000E+03	8.449194E-15	1.841199E-16
4.110000E+03	8.345575E-15	1.806405E-16
4.120000E+03	8.243847E-15	1.772940E-16
4.130000E+03	8.144514E-15	1.740906E-16
4.140000E+03	8.047737E-15	1.710332E-16
4.150000E+03	7.953890E-15	1.681289E-16
4.160000E+03	7.863380E-15	1.653854E-16
4.170000E+03	7.776471E-15	1.628072E-16
4.180000E+03	7.693763E-15	1.604057E-16
4.190000E+03	7.615383E-15	1.581825E-16
4.200000E+03	7.541905E-15	1.561481E-16
4.210000E+03	7.473564E-15	1.543064E-16
4.220000E+03	7.410547E-15	1.526600E-16
4.230000E+03	7.353258E-15	1.512163E-16
4.240000E+03	7.301611E-15	1.499718E-16
4.250000E+03	7.255711E-15	1.489246E-16
4.260000E+03	7.215577E-15	1.480700E-16
4.270000E+03	7.180901E-15	1.473973E-16
4.280000E+03	7.151562E-15	1.468996E-16
4.290000E+03	7.127255E-15	1.465667E-16
4.300000E+03	7.107721E-15	1.463894E-16
4.310000E+03	7.092347E-15	1.463515E-16
4.320000E+03	7.080499E-15	1.464364E-16
4.330000E+03	7.071024E-15	1.466170E-16
4.340000E+03	7.062949E-15	1.468694E-16
4.350000E+03	7.055135E-15	1.471666E-16
4.360000E+03	7.046681E-15	1.474860E-16
4.370000E+03	7.036947E-15	1.478104E-16
4.380000E+03	7.025135E-15	1.481192E-16
4.390000E+03	7.010840E-15	1.483998E-16
4.400000E+03	6.993920E-15	1.486451E-16
4.410000E+03	6.974077E-15	1.488446E-16
4.420000E+03	6.951550E-15	1.489995E-16
4.430000E+03	6.926287E-15	1.491048E-16
4.440000E+03	6.898520E-15	1.491615E-16
4.450000E+03	6.868732E-15	1.491767E-16
4.460000E+03	6.837053E-15	1.491496E-16
4.470000E+03	6.804099E-15	1.490907E-16
4.480000E+03	6.770195E-15	1.490042E-16
4.490000E+03	6.735648E-15	1.488942E-16
4.500000E+03	6.700915E-15	1.487684E-16
4.510000E+03	6.666416E-15	1.486342E-16
4.520000E+03	6.632361E-15	1.484942E-16
4.530000E+03	6.599098E-15	1.483547E-16
4.540000E+03	6.566776E-15	1.482174E-16
4.550000E+03	6.535852E-15	1.480915E-16
4.560000E+03	6.506341E-15	1.479761E-16
4.570000E+03	6.478488E-15	1.478760E-16
4.580000E+03	6.452520E-15	1.477952E-16
4.590000E+03	6.428493E-15	1.477345E-16
4.600000E+03	6.406683E-15	1.476995E-16
4.610000E+03	6.387201E-15	1.476922E-16
4.620000E+03	6.370069E-15	1.477127E-16
4.630000E+03	6.355456E-15	1.477643E-16
4.640000E+03	6.343516E-15	1.478502E-16
4.650000E+03	6.334312E-15	1.479716E-16
4.660000E+03	6.327820E-15	1.481275E-16
4.670000E+03	6.324146E-15	1.483200E-16
4.680000E+03	6.323302E-15	1.485489E-16
4.690000E+03	6.325203E-15	1.488119E-16
4.700000E+03	6.329810E-15	1.491076E-16
4.710000E+03	6.337132E-15	1.494357E-16
4.720000E+03	6.346923E-15	1.497899E-16
4.730000E+03	6.359123E-15	1.501683E-16
4.740000E+03	6.373417E-15	1.505628E-16
4.750000E+03	6.389594E-15	1.509678E-16
4.760000E+03	6.407475E-15	1.513785E-16
4.770000E+03	6.426689E-15	1.517853E-16
4.780000E+03	6.446895E-15	1.521797E-16
4.790000E+03	6.467782E-15	1.525536E-16
4.800000E+03	6.488852E-15	1.528947E-16
4.810000E+03	6.509791E-15	1.531951E-16
4.820000E+03	6.530109E-15	1.534427E-16
4.830000E+03	6.549299E-15	1.536253E-16
4.840000E+03	6.566989E-15	1.537340E-16
4.850000E+03	6.582669E-15	1.537567E-16
4.860000E+03	6.595989E-15	1.536855E-16
4.870000E+03	6.606491E-15	1.535099E-16
4.880000E+03	6.613759E-15	1.532207E-16
4.890000E+03	6.617510E-15	1.528123E-16
4.900000E+03	6.617597E-15	1.522821E-16
4.910000E+03	6.613666E-15	1.516232E-16
4.920000E+03	6.605726E-15	1.508373E-16
4.930000E+03	6.593727E-15	1.499247E-16
4.940000E+03	6.577773E-15	1.488896E-16
4.950000E+03	6.557907E-15	1.477350E-16
4.960000E+03	6.534385E-15	1.464685E-16
4.970000E+03	6.507529E-15	1.450997E-16
4.980000E+03	6.477508E-15	1.436343E-16
4.990000E+03	6.444877E-15	1.420870E-16
5.000000E+03	6.409879E-15	1.404652E-16
5.010000E+03	6.372985E-15	1.387814E-16
5.020000E+03	6.334603E-15	1.370465E-16
5.030000E+03	6.295212E-15	1.352729E-16
5.040000E+03	6.255150E-15	1.334695E-16
5.050000E+03	6.214880E-15	1.316481E-16
5.060000E+03	6.174783E-15	1.298181E-16
5.070000E+03	6.135221E-15	1.279888E-16
5.080000E+03	6.096537E-15	1.261684E-16
5.090000E+03	6.059053E-15	1.243647E-16
5.100000E+03	6.023067E-15	1.225849E-16
5.110000E+03	5.988914E-15	1.208366E-16
5.120000E+03	5.956836E-15	1.191255E-16
5.130000E+03	5.927046E-15	1.174562E-16
5.140000E+03	5.899659E-15	1.158316E-16
5.150000E+03	5.874878E-15	1.142561E-16
5.160000E+03	5.852865E-15	1.127332E-16
5.170000E+03	5.833562E-15	1.112622E-16
5.180000E+03	5.817051E-15	1.098449E-16
5.190000E+03	5.803373E-15	1.084826E-16
5.200000E+03	5.792416E-15	1.071736E-16
5.210000E+03	5.784093E-15	1.059170E-16
5.220000E+03	5.778293E-15	1.047114E-16
5.230000E+03	5.774939E-15	1.035563E-16
5.240000E+03	5.773759E-15	1.024479E-16
5.250000E+03	5.774706E-15	1.013867E-16
5.260000E+03	5.777541E-15	1.003699E-16
5.270000E+03	5.782137E-15	9.939716E-17
5.280000E+03	5.788183E-15	9.846493E-17
5.290000E+03	5.795529E-15	9.757295E-17
5.300000E+03	5.803963E-15	9.672008E-17
5.310000E+03	5.813260E-15	9.590522E-17
5.320000E+03	5.823183E-15	9.512737E-17
5.330000E+03	5.833426E-15	9.438465E-17
5.340000E+03	5.843729E-15	9.367621E-17
5.350000E+03	5.853887E-15	9.300226E-17
5.360000E+03	5.863508E-15	9.236025E-17
5.370000E+03	5.872443E-15	9.175160E-17
5.380000E+03	5.880250E-15	9.117327E-17
5.390000E+03	5.886814E-15	9.062730E-17
5.400000E+03	5.891872E-15	9.011346E-17
5.410000E+03	5.895160E-15	8.963139E-17
5.420000E+03	5.896716E-15	8.918516E-17
5.430000E+03	5.896338E-15	8.877494E-17
5.440000E+03	5.894050E-15	8.840394E-17
5.450000E+03	5.889884E-15	8.807289E-17
5.460000E+03	5.883940E-15	8.778044E-17
5.470000E+03	5.876254E-15	8.752379E-17
5.480000E+03	5.867023E-15	8.730223E-17
5.490000E+03	5.856522E-15	8.711601E-17
5.500000E+03	5.844981E-15	8.696449E-17
5.510000E+03	5.832743E-15	8.684865E-17
5.520000E+03	5.820321E-15	8.677192E-17
5.530000E+03	5.807979E-15	8.673405E-17
5.540000E+03	5.796083E-15	8.673636E-17
5.550000E+03	5.784983E-15	8.678004E-17
5.560000E+03	5.774955E-15	8.686535E-17
5.570000E+03	5.766204E-15	8.699156E-17
5.580000E+03	5.758982E-15	8.715886E-17
5.590000E+03	5.753591E-15	8.736840E-17
5.600000E+03	5.750095E-15	8.761790E-17
5.610000E+03	5.748788E-15	8.790873E-17
5.620000E+03	5.749847E-15	8.824068E-17
5.630000E+03	5.753387E-15	8.861276E-17
5.640000E+03	5.759694E-15	8.902680E-17
5.650000E+03	5.768876E-15	8.948200E-17
5.660000E+03	5.781149E-15	8.997942E-17
5.670000E+03	5.796659E-15	9.051911E-17
5.680000E+03	5.815534E-15	9.110098E-17
5.690000E+03	5.837822E-15	9.172380E-17
5.700000E+03	5.863720E-15	9.238865E-17
5.710000E+03	5.893216E-15	9.309347E-17
5.720000E+03	5.926377E-15	9.383741E-17
5.730000E+03	5.963114E-15	9.461716E-17
5.740000E+03	6.003341E-15	9.542948E-17
5.750000E+03	6.046990E-15	9.627136E-17
5.760000E+03	6.093818E-15	9.713695E-17
5.770000E+03	6.143649E-15	9.802149E-17
5.780000E+03	6.196200E-15	9.891843E-17
5.790000E+03	6.251069E-15	9.981930E-17
5.800000E+03	6.307944E-15	1.007170E-16
5.810000E+03	6.366408E-15	1.016029E-16
5.820000E+03	6.425950E-15	1.024668E-16
5.830000E+03	6.486168E-15	1.033001E-16
5.840000E+03	6.546522E-15	1.040925E-16
5.850000E+03	6.606603E-15	1.048355E-16
5.860000E+03	6.665952E-15	1.055201E-16
5.870000E+03	6.724068E-15	1.061370E-16
5.880000E+03	6.780561E-15	1.066785E-16
5.890000E+03	6.835162E-15	1.071394E-16
5.900000E+03	6.887473E-15	1.075124E-16
5.910000E+03	6.937452E-15	1.077963E-16
5.920000E+03	6.984880E-15	1.079871E-16
5.930000E+03	7.029860E-15	1.080864E-16
5.940000E+03	7.072540E-15	1.080962E-16
5.950000E+03	7.113125E-15	1.080201E-16
5.960000E+03	7.152016E-15	1.078643E-16
5.970000E+03	7.189738E-15	1.076371E-16
5.980000E+03	7.226935E-15	1.073486E-16
5.990000E+03	7.264285E-15	1.070092E-16
6.000000E+03	7.302630E-15	1.066317E-16
6.010000E+03	7.342891E-15	1.062295E-16
6.020000E+03	7.386046E-15	1.058167E-16
6.030000E+03	7.432957E-15	1.054052E-16
6.040000E+03	7.484795E-15	1.050110E-16
6.050000E+03	7.542343E-15	1.046440E-16
6.060000E+03	7.606716E-15	1.043183E-16
6.070000E+03	7.678579E-15	1.040416E-16
6.080000E+03	7.758870E-15	1.038245E-16
6.090000E+03	7.848078E-15	1.036719E-16
6.100000E+03	7.946584E-15	1.035867E-16
6.110000E+03	8.054698E-15	1.035712E-16
6.120000E+03	8.172211E-15	1.036214E-16
6.130000E+03	8.298736E-15	1.037318E-16
6.140000E+03	8.433493E-15	1.038928E-16
6.150000E+03	8.575157E-15	1.040897E-16
6.160000E+03	8.721877E-15	1.043034E-16
6.170000E+03	8.871488E-15	1.045134E-16
6.180000E+03	9.020944E-15	1.046915E-16
6.190000E+03	9.166546E-15	1.048057E-16
6.200000E+03	9.304167E-15	1.048225E-16
6.210000E+03	9.429043E-15	1.047053E-16
6.220000E+03	9.536017E-15	1.044171E-16
6.230000E+03	9.619784E-15	1.039228E-16
6.240000E+03	9.675342E-15	1.031939E-16
6.250000E+03	9.698349E-15	1.022108E-16
6.260000E+03	9.685471E-15	1.009651E-16
6.270000E+03	9.635535E-15	9.947009E-17
6.280000E+03	9.549867E-15	9.776191E-17
6.290000E+03	9.433761E-15	9.591291E-17
6.300000E+03	9.295201E-15	9.401706E-17
6.310000E+03	9.142552E-15	9.216655E-17
6.320000E+03	8.984732E-15	9.045459E-17
6.330000E+03	8.829897E-15	8.896340E-17
6.340000E+03	8.685229E-15	8.776346E-17
6.350000E+03	8.556733E-15	8.690707E-17
6.360000E+03	8.449080E-15	8.642896E-17
6.370000E+03	8.366033E-15	8.635728E-17
6.380000E+03	8.310027E-15	8.670999E-17
6.390000E+03	8.282688E-15	8.750017E-17
6.400000E+03	8.284893E-15	8.873643E-17
6.410000E+03	8.316818E-15	9.042299E-17
6.420000E+03	8.378401E-15	9.256404E-17
6.430000E+03	8.468795E-15	9.515724E-17
6.440000E+03	8.586942E-15	9.819922E-17
6.450000E+03	8.731427E-15	1.016833E-16
6.460000E+03	8.900576E-15	1.055999E-16
6.470000E+03	9.092177E-15	1.099327E-16
6.480000E+03	9.303656E-15	1.146596E-16
6.490000E+03	9.532285E-15	1.197546E-16
6.500000E+03	9.774900E-15	1.251840E-16
6.510000E+03	1.002802E-14	1.309070E-16
6.520000E+03	1.028789E-14	1.368756E-16
6.530000E+03	1.055050E-14	1.430345E-16
6.540000E+03	1.081181E-14	1.493237E-16
6.550000E+03	1.106754E-14	1.556755E-16
6.560000E+03	1.131339E-14	1.620175E-16
6.570000E+03	1.154536E-14	1.682772E-16
6.580000E+03	1.175938E-14	1.743768E-16
6.590000E+03	1.195153E-14	1.802366E-16
6.600000E+03	1.211877E-14	1.857869E-16
6.610000E+03	1.225801E-14	1.909546E-16
6.620000E+03	1.236685E-14	1.956748E-16
6.630000E+03	1.244382E-14	1.998957E-16
6.640000E+03	1.248754E-14	2.035666E-16
6.650000E+03	1.249801E-14	2.066593E-16
6.660000E+03	1.247548E-14	2.091505E-16
6.670000E+03	1.242066E-14	2.110264E-16
6.680000E+03	1.233495E-14	2.122866E-16
6.690000E+03	1.222068E-14	2.129495E-16
6.700000E+03	1.207971E-14	2.130283E-16
6.710000E+03	1.191506E-14	2.125597E-16
6.720000E+03	1.172937E-14	2.115771E-16
6.730000E+03	1.152558E-14	2.101225E-16
6.740000E+03	1.130678E-14	2.082441E-16
6.750000E+03	1.107593E-14	2.059904E-16
6.760000E+03	1.083587E-14	2.034110E-16
6.770000E+03	1.058934E-14	2.005559E-16
6.780000E+03	1.033900E-14	1.974763E-16
6.790000E+03	1.008707E-14	1.942168E-16
6.800000E+03	9.835805E-15	1.908242E-16
6.810000E+03	9.587085E-15	1.873398E-16
6.820000E+03	9.342445E-15	1.837993E-16
6.830000E+03	9.103528E-15	1.802411E-16
6.840000E+03	8.871402E-15	1.766931E-16
6.850000E+03	8.647032E-15	1.731814E-16
6.860000E+03	8.431288E-15	1.697305E-16
6.870000E+03	8.224635E-15	1.663567E-16
6.880000E+03	8.027580E-15	1.630772E-16
6.890000E+03	7.840267E-15	1.599016E-16
6.900000E+03	7.662817E-15	1.568385E-16
6.910000E+03	7.495411E-15	1.538977E-16
6.920000E+03	7.337749E-15	1.510785E-16
6.930000E+03	7.189727E-15	1.483840E-16
6.940000E+03	7.050983E-15	1.458114E-16
6.950000E+03	6.921272E-15	1.433600E-16
6.960000E+03	6.800206E-15	1.410255E-16
6.970000E+03	6.687360E-15	1.388026E-16
6.980000E+03	6.582276E-15	1.366850E-16
6.990000E+03	6.484388E-15	1.346636E-16
7.000000E+03	6.393285E-15	1.327324E-16
7.010000E+03	6.308376E-15	1.308813E-16
7.020000E+03	6.229310E-15	1.291048E-16
7.030000E+03	6.155417E-15	1.273908E-16
7.040000E+03	6.086194E-15	1.257305E-16
7.050000E+03	6.021223E-15	1.241166E-16
7.060000E+03	5.960022E-15	1.225405E-16
7.070000E+03	5.902050E-15	1.209922E-16
7.080000E+03	5.846867E-15	1.194640E-16
7.090000E+03	5.794052E-15	1.179485E-16
7.100000E+03	5.743288E-15	1.164404E-16
7.110000E+03	5.694138E-15	1.149321E-16
7.120000E+03	5.646274E-15	1.134183E-16
7.130000E+03	5.599323E-15	1.118929E-16
7.140000E+03	5.553170E-15	1.103551E-16
7.150000E+03	5.507442E-15	1.087991E-16
7.160000E+03	5.461946E-15	1.072228E-16
7.170000E+03	5.416592E-15	1.056261E-16
7.180000E+03	5.371249E-15	1.040086E-16
7.190000E+03	5.325678E-15	1.023675E-16
7.200000E+03	5.279876E-15	1.007050E-16
7.210000E+03	5.233722E-15	9.902097E-17
7.220000E+03	5.187327E-15	9.731988E-17
7.230000E+03	5.140474E-15	9.560014E-17
7.240000E+03	5.093240E-15	9.386568E-17
7.250000E+03	5.045645E-15	9.211950E-17
7.260000E+03	4.997653E-15	9.036370E-17
7.270000E+03	4.949377E-15	8.860305E-17
7.280000E+03	4.900735E-15	8.683899E-17
7.290000E+03	4.851788E-15	8.507557E-17
7.300000E+03	4.802602E-15	8.331694E-17
7.310000E+03	4.753244E-15	8.156740E-17
7.320000E+03	4.703727E-15	7.983030E-17
7.330000E+03	4.654063E-15	7.810912E-17
7.340000E+03	4.604331E-15	7.640852E-17
7.350000E+03	4.554555E-15	7.473223E-17
7.360000E+03	4.504813E-15	7.308506E-17
7.370000E+03	4.455136E-15	7.147098E-17
7.380000E+03	4.405611E-15	6.989497E-17
7.390000E+03	4.356216E-15	6.836029E-17
7.400000E+03	4.307049E-15	6.687214E-17
7.410000E+03	4.258155E-15	6.543491E-17
7.420000E+03	4.209692E-15	6.405469E-17
7.430000E+03	4.161656E-15	6.273507E-17
7.440000E+03	4.114211E-15	6.148210E-17
7.450000E+03	4.067462E-15	6.030090E-17
7.460000E+03	4.021520E-15	5.919648E-17
7.470000E+03	3.976536E-15	5.817439E-17
7.480000E+03	3.932614E-15	5.723922E-17
7.490000E+03	3.889898E-15	5.639601E-17
7.500000E+03	3.848525E-15	5.564945E-17
7.510000E+03	3.808576E-15	5.500318E-17
7.520000E+03	3.770173E-15	5.446113E-17
7.530000E+03	3.733376E-15	5.402613E-17
7.540000E+03	3.698241E-15	5.370055E-17
7.550000E+03	3.664855E-15	5.348699E-17
7.560000E+03	3.633300E-15	5.338752E-17
7.570000E+03	3.603544E-15	5.340053E-17
7.580000E+03	3.575645E-15	5.352371E-17
7.590000E+03	3.549643E-15	5.375435E-17
7.600000E+03	3.525477E-15	5.408818E-17
7.610000E+03	3.503212E-15	5.452286E-17
7.620000E+03	3.482715E-15	5.505306E-17
7.630000E+03	3.463983E-15	5.567553E-17
7.640000E+03	3.446994E-15	5.638689E-17
7.650000E+03	3.431667E-15	5.718294E-17
7.660000E+03	3.417859E-15	5.805854E-17
7.670000E+03	3.405504E-15	5.900999E-17
7.680000E+03	3.394480E-15	6.003269E-17
7.690000E+03	3.384660E-15	6.112207E-17
7.700000E+03	3.375906E-15	6.227337E-17
7.710000E+03	3.368064E-15	6.348160E-17
7.720000E+03	3.360990E-15	6.474193E-17
7.730000E+03	3.354372E-15	6.604617E-17
7.740000E+03	3.348079E-15	6.738948E-17
7.750000E+03	3.341870E-15	6.876464E-17
7.760000E+03	3.335577E-15	7.016575E-17
