#wls	flux	fluxerr
1.600000E+03	3.610289E-15	4.283546E-16
1.640000E+03	3.699789E-15	4.336763E-16
1.680000E+03	3.788006E-15	4.385185E-16
1.720000E+03	3.875215E-15	4.429136E-16
1.760000E+03	3.961769E-15	4.469018E-16
1.800000E+03	4.046704E-15	4.503747E-16
1.840000E+03	4.130586E-15	4.533981E-16
1.880000E+03	4.213459E-15	4.559782E-16
1.920000E+03	4.294857E-15	4.580671E-16
1.960000E+03	4.376867E-15	4.598884E-16
2.000000E+03	4.459701E-15	4.614588E-16
2.040000E+03	4.545491E-15	4.629895E-16
2.080000E+03	4.635981E-15	4.646393E-16
2.120000E+03	4.733884E-15	4.666510E-16
2.160000E+03	4.839421E-15	4.690080E-16
2.200000E+03	4.956875E-15	4.720789E-16
2.240000E+03	5.087486E-15	4.759177E-16
2.280000E+03	5.234060E-15	4.807123E-16
2.320000E+03	5.397106E-15	4.864234E-16
2.360000E+03	5.579993E-15	4.932596E-16
2.400000E+03	5.781798E-15	5.010332E-16
2.440000E+03	6.005391E-15	5.098845E-16
2.480000E+03	6.252459E-15	5.198344E-16
2.520000E+03	6.525397E-15	5.309496E-16
2.560000E+03	6.830348E-15	5.435774E-16
2.600000E+03	7.169294E-15	5.576979E-16
2.640000E+03	7.548880E-15	5.736314E-16
2.680000E+03	7.968912E-15	5.911434E-16
2.720000E+03	8.430319E-15	6.100838E-16
2.760000E+03	8.929165E-15	6.299538E-16
2.800000E+03	9.461221E-15	6.502630E-16
2.840000E+03	1.002221E-14	6.705506E-16
2.880000E+03	1.060403E-14	6.901419E-16
2.920000E+03	1.120185E-14	7.086343E-16
2.960000E+03	1.180379E-14	7.252328E-16
3.000000E+03	1.239804E-14	7.392412E-16
3.010000E+03	1.254334E-14	7.422256E-16
3.020000E+03	1.268754E-14	7.450205E-16
3.030000E+03	1.283038E-14	7.476121E-16
3.040000E+03	1.297017E-14	7.499058E-16
3.050000E+03	1.310796E-14	7.519660E-16
3.060000E+03	1.324337E-14	7.537761E-16
3.070000E+03	1.337611E-14	7.553222E-16
3.080000E+03	1.350445E-14	7.565123E-16
3.090000E+03	1.363074E-14	7.574845E-16
3.100000E+03	1.375189E-14	7.580721E-16
3.110000E+03	1.386892E-14	7.583379E-16
3.120000E+03	1.398142E-14	7.582673E-16
3.130000E+03	1.409041E-14	7.579211E-16
3.140000E+03	1.419276E-14	7.571395E-16
3.150000E+03	1.429083E-14	7.560562E-16
3.160000E+03	1.438155E-14	7.545174E-16
3.170000E+03	1.446724E-14	7.526544E-16
3.180000E+03	1.454753E-14	7.504563E-16
3.190000E+03	1.461942E-14	7.477777E-16
3.200000E+03	1.468521E-14	7.447481E-16
3.210000E+03	1.474461E-14	7.413611E-16
3.220000E+03	1.479598E-14	7.375451E-16
3.230000E+03	1.483906E-14	7.332991E-16
3.240000E+03	1.487489E-14	7.286859E-16
3.250000E+03	1.490325E-14	7.237048E-16
3.260000E+03	1.492267E-14	7.182966E-16
3.270000E+03	1.493549E-14	7.125851E-16
3.280000E+03	1.493910E-14	7.064570E-16
3.290000E+03	1.493465E-14	6.999784E-16
3.300000E+03	1.492209E-14	6.931589E-16
3.310000E+03	1.490142E-14	6.860094E-16
3.320000E+03	1.487269E-14	6.785430E-16
3.330000E+03	1.483599E-14	6.707758E-16
3.340000E+03	1.479259E-14	6.627747E-16
3.350000E+03	1.474042E-14	6.544571E-16
3.360000E+03	1.468198E-14	6.459444E-16
3.370000E+03	1.461747E-14	6.372546E-16
3.380000E+03	1.454617E-14	6.283634E-16
3.390000E+03	1.446950E-14	6.193412E-16
3.400000E+03	1.438680E-14	6.101673E-16
3.410000E+03	1.429958E-14	6.009119E-16
3.420000E+03	1.420828E-14	5.915998E-16
3.430000E+03	1.411340E-14	5.822562E-16
3.440000E+03	1.401542E-14	5.729062E-16
3.450000E+03	1.391489E-14	5.635749E-16
3.460000E+03	1.381230E-14	5.542857E-16
3.470000E+03	1.370811E-14	5.450593E-16
3.480000E+03	1.360363E-14	5.359486E-16
3.490000E+03	1.349832E-14	5.269307E-16
3.500000E+03	1.339247E-14	5.180157E-16
3.510000E+03	1.328806E-14	5.092770E-16
3.520000E+03	1.318286E-14	5.006264E-16
3.530000E+03	1.307957E-14	4.921639E-16
3.540000E+03	1.297761E-14	4.838635E-16
3.550000E+03	1.287647E-14	4.757026E-16
3.560000E+03	1.277789E-14	4.677419E-16
3.570000E+03	1.268131E-14	4.599570E-16
3.580000E+03	1.258696E-14	4.523516E-16
3.590000E+03	1.249504E-14	4.449286E-16
3.600000E+03	1.240638E-14	4.377137E-16
3.610000E+03	1.232109E-14	4.307052E-16
3.620000E+03	1.223862E-14	4.238794E-16
3.630000E+03	1.215967E-14	4.172560E-16
3.640000E+03	1.208428E-14	4.108315E-16
3.650000E+03	1.201240E-14	4.045994E-16
3.660000E+03	1.194396E-14	3.985533E-16
3.670000E+03	1.187885E-14	3.926845E-16
3.680000E+03	1.181745E-14	3.870017E-16
3.690000E+03	1.175896E-14	3.814743E-16
3.700000E+03	1.170366E-14	3.761078E-16
3.710000E+03	1.165065E-14	3.708696E-16
3.720000E+03	1.160007E-14	3.657618E-16
3.730000E+03	1.155202E-14	3.607846E-16
3.740000E+03	1.150501E-14	3.558891E-16
3.750000E+03	1.145910E-14	3.510756E-16
3.760000E+03	1.141381E-14	3.463286E-16
3.770000E+03	1.136914E-14	3.416469E-16
3.780000E+03	1.132413E-14	3.370014E-16
3.790000E+03	1.127876E-14	3.323918E-16
3.800000E+03	1.123211E-14	3.277915E-16
3.810000E+03	1.118416E-14	3.232013E-16
3.820000E+03	1.113448E-14	3.186101E-16
3.830000E+03	1.108262E-14	3.140068E-16
3.840000E+03	1.102821E-14	3.093833E-16
3.850000E+03	1.097084E-14	3.047311E-16
3.860000E+03	1.091060E-14	3.000552E-16
3.870000E+03	1.084639E-14	2.953291E-16
3.880000E+03	1.077875E-14	2.905709E-16
3.890000E+03	1.070744E-14	2.857780E-16
3.900000E+03	1.063191E-14	2.809394E-16
3.910000E+03	1.055242E-14	2.760664E-16
3.920000E+03	1.046853E-14	2.711514E-16
3.930000E+03	1.038092E-14	2.662163E-16
3.940000E+03	1.028895E-14	2.612488E-16
3.950000E+03	1.019305E-14	2.562641E-16
3.960000E+03	1.009308E-14	2.512624E-16
3.970000E+03	9.989865E-15	2.462684E-16
3.980000E+03	9.883365E-15	2.412846E-16
3.990000E+03	9.773627E-15	2.363153E-16
4.000000E+03	9.661585E-15	2.313862E-16
4.010000E+03	9.547383E-15	2.265035E-16
4.020000E+03	9.431199E-15	2.216737E-16
4.030000E+03	9.314031E-15	2.169222E-16
4.040000E+03	9.195835E-15	2.122497E-16
4.050000E+03	9.077344E-15	2.076743E-16
4.060000E+03	8.958981E-15	2.032066E-16
4.070000E+03	8.841142E-15	1.988560E-16
4.080000E+03	8.723960E-15	1.946260E-16
4.090000E+03	8.607769E-15	1.905240E-16
4.100000E+03	8.493067E-15	1.865611E-16
4.110000E+03	8.379912E-15	1.827379E-16
4.120000E+03	8.268777E-15	1.790643E-16
4.130000E+03	8.159388E-15	1.755336E-16
4.140000E+03	8.052668E-15	1.721650E-16
4.150000E+03	7.948638E-15	1.689575E-16
4.160000E+03	7.847766E-15	1.659200E-16
4.170000E+03	7.750564E-15	1.630619E-16
4.180000E+03	7.657403E-15	1.603894E-16
4.190000E+03	7.568840E-15	1.579124E-16
4.200000E+03	7.485573E-15	1.556438E-16
4.210000E+03	7.407788E-15	1.535856E-16
4.220000E+03	7.335784E-15	1.517422E-16
4.230000E+03	7.270229E-15	1.501260E-16
4.240000E+03	7.210958E-15	1.487302E-16
4.250000E+03	7.158275E-15	1.475556E-16
4.260000E+03	7.112091E-15	1.465947E-16
4.270000E+03	7.072348E-15	1.458412E-16
4.280000E+03	7.038734E-15	1.452839E-16
4.290000E+03	7.010831E-15	1.449098E-16
4.300000E+03	6.988103E-15	1.447036E-16
4.310000E+03	6.970096E-15	1.446520E-16
4.320000E+03	6.955851E-15	1.447314E-16
4.330000E+03	6.944053E-15	1.449107E-16
4.340000E+03	6.933595E-15	1.451629E-16
4.350000E+03	6.923301E-15	1.454597E-16
4.360000E+03	6.912243E-15	1.457775E-16
4.370000E+03	6.899552E-15	1.460936E-16
4.380000E+03	6.884659E-15	1.463919E-16
4.390000E+03	6.866975E-15	1.466552E-16
4.400000E+03	6.846227E-15	1.468732E-16
4.410000E+03	6.822650E-15	1.470465E-16
4.420000E+03	6.795985E-15	1.471650E-16
4.430000E+03	6.766743E-15	1.472357E-16
4.440000E+03	6.735109E-15	1.472584E-16
4.450000E+03	6.701539E-15	1.472393E-16
4.460000E+03	6.666508E-15	1.471853E-16
4.470000E+03	6.630401E-15	1.471017E-16
4.480000E+03	6.593678E-15	1.469959E-16
4.490000E+03	6.556668E-15	1.468725E-16
4.500000E+03	6.519754E-15	1.467377E-16
4.510000E+03	6.483192E-15	1.465952E-16
4.520000E+03	6.447476E-15	1.464543E-16
4.530000E+03	6.412700E-15	1.463156E-16
4.540000E+03	6.379115E-15	1.461834E-16
4.550000E+03	6.347035E-15	1.460636E-16
4.560000E+03	6.316486E-15	1.459558E-16
4.570000E+03	6.287825E-15	1.458674E-16
4.580000E+03	6.261132E-15	1.457994E-16
4.590000E+03	6.236474E-15	1.457528E-16
4.600000E+03	6.214154E-15	1.457340E-16
4.610000E+03	6.194211E-15	1.457434E-16
4.620000E+03	6.176753E-15	1.457833E-16
4.630000E+03	6.161796E-15	1.458535E-16
4.640000E+03	6.149581E-15	1.459595E-16
4.650000E+03	6.140093E-15	1.461006E-16
4.660000E+03	6.133301E-15	1.462757E-16
4.670000E+03	6.129389E-15	1.464888E-16
4.680000E+03	6.128284E-15	1.467380E-16
4.690000E+03	6.129968E-15	1.470223E-16
4.700000E+03	6.134394E-15	1.473403E-16
4.710000E+03	6.141485E-15	1.476897E-16
4.720000E+03	6.151210E-15	1.480693E-16
4.730000E+03	6.163349E-15	1.484732E-16
4.740000E+03	6.177722E-15	1.488965E-16
4.750000E+03	6.194112E-15	1.493334E-16
4.760000E+03	6.212408E-15	1.497806E-16
4.770000E+03	6.232160E-15	1.502265E-16
4.780000E+03	6.253100E-15	1.506641E-16
4.790000E+03	6.274921E-15	1.510852E-16
4.800000E+03	6.297047E-15	1.514754E-16
4.810000E+03	6.319250E-15	1.518285E-16
4.820000E+03	6.340969E-15	1.521306E-16
4.830000E+03	6.361700E-15	1.523692E-16
4.840000E+03	6.381003E-15	1.525334E-16
4.850000E+03	6.398359E-15	1.526108E-16
4.860000E+03	6.413342E-15	1.525912E-16
4.870000E+03	6.425404E-15	1.524620E-16
4.880000E+03	6.434278E-15	1.522171E-16
4.890000E+03	6.439601E-15	1.518489E-16
4.900000E+03	6.441011E-15	1.513498E-16
4.910000E+03	6.438523E-15	1.507212E-16
4.920000E+03	6.431863E-15	1.499583E-16
4.930000E+03	6.421142E-15	1.490652E-16
4.940000E+03	6.406332E-15	1.480431E-16
4.950000E+03	6.387638E-15	1.468989E-16
4.960000E+03	6.365339E-15	1.456409E-16
4.970000E+03	6.339706E-15	1.442776E-16
4.980000E+03	6.311065E-15	1.428185E-16
4.990000E+03	6.279852E-15	1.412758E-16
5.000000E+03	6.246373E-15	1.396585E-16
5.010000E+03	6.211097E-15	1.379792E-16
5.020000E+03	6.174493E-15	1.362505E-16
5.030000E+03	6.136885E-15	1.344814E-16
5.040000E+03	6.098730E-15	1.326837E-16
5.050000E+03	6.060404E-15	1.308674E-16
5.060000E+03	6.022330E-15	1.290431E-16
5.070000E+03	5.984779E-15	1.272181E-16
5.080000E+03	5.948070E-15	1.254003E-16
5.090000E+03	5.912569E-15	1.235987E-16
5.100000E+03	5.878547E-15	1.218200E-16
5.110000E+03	5.846256E-15	1.200701E-16
5.120000E+03	5.815987E-15	1.183557E-16
5.130000E+03	5.787806E-15	1.166789E-16
5.140000E+03	5.762007E-15	1.150460E-16
5.150000E+03	5.738656E-15	1.134590E-16
5.160000E+03	5.717911E-15	1.119212E-16
5.170000E+03	5.699767E-15	1.104329E-16
5.180000E+03	5.684236E-15	1.089950E-16
5.190000E+03	5.671359E-15	1.076085E-16
5.200000E+03	5.661020E-15	1.062719E-16
5.210000E+03	5.653192E-15	1.049853E-16
5.220000E+03	5.647704E-15	1.037464E-16
5.230000E+03	5.644428E-15	1.025539E-16
5.240000E+03	5.643225E-15	1.014063E-16
5.250000E+03	5.644011E-15	1.003037E-16
5.260000E+03	5.646513E-15	9.924265E-17
5.270000E+03	5.650637E-15	9.822350E-17
5.280000E+03	5.656166E-15	9.724453E-17
5.290000E+03	5.663001E-15	9.630635E-17
5.300000E+03	5.670846E-15	9.540652E-17
5.310000E+03	5.679646E-15	9.454691E-17
5.320000E+03	5.689036E-15	9.372445E-17
5.330000E+03	5.698945E-15	9.294128E-17
5.340000E+03	5.709118E-15	9.219669E-17
5.350000E+03	5.719300E-15	9.149018E-17
5.360000E+03	5.729290E-15	9.082238E-17
5.370000E+03	5.738895E-15	9.019411E-17
5.380000E+03	5.747863E-15	8.960542E-17
5.390000E+03	5.756011E-15	8.905744E-17
5.400000E+03	5.763055E-15	8.854975E-17
5.410000E+03	5.768992E-15	8.808620E-17
5.420000E+03	5.773666E-15	8.766810E-17
5.430000E+03	5.776892E-15	8.729609E-17
5.440000E+03	5.778684E-15	8.697359E-17
5.450000E+03	5.778990E-15	8.670118E-17
5.460000E+03	5.777946E-15	8.647844E-17
5.470000E+03	5.775564E-15	8.630215E-17
5.480000E+03	5.772075E-15	8.617212E-17
5.490000E+03	5.767677E-15	8.608734E-17
5.500000E+03	5.762585E-15	8.604690E-17
5.510000E+03	5.757020E-15	8.604985E-17
5.520000E+03	5.751264E-15	8.609607E-17
5.530000E+03	5.745477E-15	8.618358E-17
5.540000E+03	5.739927E-15	8.631209E-17
5.550000E+03	5.734816E-15	8.648035E-17
5.560000E+03	5.730400E-15	8.668805E-17
5.570000E+03	5.726922E-15	8.693482E-17
5.580000E+03	5.724500E-15	8.721859E-17
5.590000E+03	5.723432E-15	8.754013E-17
5.600000E+03	5.723888E-15	8.789853E-17
5.610000E+03	5.726038E-15	8.829298E-17
5.620000E+03	5.730175E-15	8.872484E-17
5.630000E+03	5.736402E-15	8.919269E-17
5.640000E+03	5.744883E-15	8.969625E-17
5.650000E+03	5.755897E-15	9.023717E-17
5.660000E+03	5.769593E-15	9.081530E-17
5.670000E+03	5.786105E-15	9.143036E-17
5.680000E+03	5.805612E-15	9.208290E-17
5.690000E+03	5.828147E-15	9.277128E-17
5.700000E+03	5.853837E-15	9.349545E-17
5.710000E+03	5.882720E-15	9.425396E-17
5.720000E+03	5.914859E-15	9.504584E-17
5.730000E+03	5.950214E-15	9.586849E-17
5.740000E+03	5.988704E-15	9.671863E-17
5.750000E+03	6.030200E-15	9.759221E-17
5.760000E+03	6.074457E-15	9.848328E-17
5.770000E+03	6.121451E-15	9.938942E-17
5.780000E+03	6.170710E-15	1.003010E-16
5.790000E+03	6.222059E-15	1.012130E-16
5.800000E+03	6.275149E-15	1.021177E-16
5.810000E+03	6.329542E-15	1.030060E-16
5.820000E+03	6.384844E-15	1.038694E-16
5.830000E+03	6.440793E-15	1.047016E-16
5.840000E+03	6.496778E-15	1.054908E-16
5.850000E+03	6.552548E-15	1.062311E-16
5.860000E+03	6.607734E-15	1.069148E-16
5.870000E+03	6.661851E-15	1.075325E-16
5.880000E+03	6.714747E-15	1.080802E-16
5.890000E+03	6.766178E-15	1.085530E-16
5.900000E+03	6.815822E-15	1.089445E-16
5.910000E+03	6.863651E-15	1.092536E-16
5.920000E+03	6.909657E-15	1.094796E-16
5.930000E+03	6.953856E-15	1.096222E-16
5.940000E+03	6.996520E-15	1.096855E-16
5.950000E+03	7.037882E-15	1.096731E-16
5.960000E+03	7.078357E-15	1.095915E-16
5.970000E+03	7.118473E-15	1.094489E-16
5.980000E+03	7.158850E-15	1.092549E-16
5.990000E+03	7.200122E-15	1.090193E-16
6.000000E+03	7.243077E-15	1.087538E-16
6.010000E+03	7.288480E-15	1.084697E-16
6.020000E+03	7.337372E-15	1.081822E-16
6.030000E+03	7.390502E-15	1.079015E-16
6.040000E+03	7.448764E-15	1.076398E-16
6.050000E+03	7.512949E-15	1.074073E-16
6.060000E+03	7.584037E-15	1.072165E-16
6.070000E+03	7.662512E-15	1.070727E-16
6.080000E+03	7.749149E-15	1.069848E-16
6.090000E+03	7.844322E-15	1.069562E-16
6.100000E+03	7.948199E-15	1.069874E-16
6.110000E+03	8.060788E-15	1.070772E-16
6.120000E+03	8.181890E-15	1.072219E-16
6.130000E+03	8.310689E-15	1.074109E-16
6.140000E+03	8.446209E-15	1.076325E-16
6.150000E+03	8.586923E-15	1.078698E-16
6.160000E+03	8.730768E-15	1.081012E-16
6.170000E+03	8.874995E-15	1.082992E-16
6.180000E+03	9.016339E-15	1.084332E-16
6.190000E+03	9.150927E-15	1.084688E-16
6.200000E+03	9.274293E-15	1.083684E-16
6.210000E+03	9.381614E-15	1.080942E-16
6.220000E+03	9.467452E-15	1.076052E-16
6.230000E+03	9.526719E-15	1.068680E-16
6.240000E+03	9.554248E-15	1.058510E-16
6.250000E+03	9.546122E-15	1.045381E-16
6.260000E+03	9.499458E-15	1.029248E-16
6.270000E+03	9.413745E-15	1.010305E-16
6.280000E+03	9.291366E-15	9.890250E-17
6.290000E+03	9.139528E-15	9.663383E-17
6.300000E+03	8.967651E-15	9.433473E-17
6.310000E+03	8.786034E-15	9.211871E-17
6.320000E+03	8.604378E-15	9.008844E-17
6.330000E+03	8.431258E-15	8.833195E-17
6.340000E+03	8.274050E-15	8.692355E-17
6.350000E+03	8.138399E-15	8.591483E-17
6.360000E+03	8.028401E-15	8.533703E-17
6.370000E+03	7.947150E-15	8.521389E-17
6.380000E+03	7.896274E-15	8.555723E-17
6.390000E+03	7.876618E-15	8.637414E-17
6.400000E+03	7.888428E-15	8.766850E-17
6.410000E+03	7.931470E-15	8.944188E-17
6.420000E+03	8.005245E-15	9.169528E-17
6.430000E+03	8.108773E-15	9.442618E-17
6.440000E+03	8.240868E-15	9.763089E-17
6.450000E+03	8.400151E-15	1.013042E-16
6.460000E+03	8.584846E-15	1.054361E-16
6.470000E+03	8.792832E-15	1.100119E-16
6.480000E+03	9.021516E-15	1.150097E-16
6.490000E+03	9.268266E-15	1.204050E-16
6.500000E+03	9.529770E-15	1.261621E-16
6.510000E+03	9.802475E-15	1.322387E-16
6.520000E+03	1.008266E-14	1.385867E-16
6.530000E+03	1.036614E-14	1.451474E-16
6.540000E+03	1.064878E-14	1.518583E-16
6.550000E+03	1.092633E-14	1.586505E-16
6.560000E+03	1.119421E-14	1.654459E-16
6.570000E+03	1.144813E-14	1.721655E-16
6.580000E+03	1.168377E-14	1.787253E-16
6.590000E+03	1.189705E-14	1.850408E-16
6.600000E+03	1.208421E-14	1.910283E-16
6.610000E+03	1.224237E-14	1.966149E-16
6.620000E+03	1.236863E-14	2.017250E-16
6.630000E+03	1.246143E-14	2.063029E-16
6.640000E+03	1.251961E-14	2.102989E-16
6.650000E+03	1.254256E-14	2.136723E-16
6.660000E+03	1.253083E-14	2.164032E-16
6.670000E+03	1.248511E-14	2.184757E-16
6.680000E+03	1.240687E-14	2.198897E-16
6.690000E+03	1.229839E-14	2.206623E-16
6.700000E+03	1.216188E-14	2.208122E-16
6.710000E+03	1.200019E-14	2.203734E-16
6.720000E+03	1.181610E-14	2.193819E-16
6.730000E+03	1.161280E-14	2.178850E-16
6.740000E+03	1.139340E-14	2.159319E-16
6.750000E+03	1.116113E-14	2.135772E-16
6.760000E+03	1.091867E-14	2.108685E-16
6.770000E+03	1.066930E-14	2.078674E-16
6.780000E+03	1.041553E-14	2.046232E-16
6.790000E+03	1.015967E-14	2.011835E-16
6.800000E+03	9.904068E-15	1.975982E-16
6.810000E+03	9.650804E-15	1.939137E-16
6.820000E+03	9.401456E-15	1.901672E-16
6.830000E+03	9.157604E-15	1.863974E-16
6.840000E+03	8.920344E-15	1.826332E-16
6.850000E+03	8.690790E-15	1.789046E-16
6.860000E+03	8.469720E-15	1.752349E-16
6.870000E+03	8.257726E-15	1.716437E-16
6.880000E+03	8.055117E-15	1.681444E-16
6.890000E+03	7.862372E-15	1.647539E-16
6.900000E+03	7.679407E-15	1.614770E-16
6.910000E+03	7.506441E-15	1.583246E-16
6.920000E+03	7.343274E-15	1.552981E-16
6.930000E+03	7.189727E-15	1.523992E-16
6.940000E+03	7.045549E-15	1.496275E-16
6.950000E+03	6.910420E-15	1.469807E-16
6.960000E+03	6.783977E-15	1.444552E-16
6.970000E+03	6.665905E-15	1.420479E-16
6.980000E+03	6.555671E-15	1.397508E-16
6.990000E+03	6.452728E-15	1.375551E-16
7.000000E+03	6.356775E-15	1.354571E-16
7.010000E+03	6.267234E-15	1.334467E-16
7.020000E+03	6.183612E-15	1.315155E-16
7.030000E+03	6.105417E-15	1.296549E-16
7.040000E+03	6.032162E-15	1.278562E-16
7.050000E+03	5.963366E-15	1.261107E-16
7.060000E+03	5.898483E-15	1.244082E-16
7.070000E+03	5.837143E-15	1.227423E-16
7.080000E+03	5.778911E-15	1.211051E-16
7.090000E+03	5.723296E-15	1.194875E-16
7.100000E+03	5.669988E-15	1.178843E-16
7.110000E+03	5.618471E-15	1.162862E-16
7.120000E+03	5.568565E-15	1.146907E-16
7.130000E+03	5.519891E-15	1.130914E-16
7.140000E+03	5.472101E-15	1.114828E-16
7.150000E+03	5.425035E-15	1.098631E-16
7.160000E+03	5.378485E-15	1.082300E-16
7.170000E+03	5.332130E-15	1.065787E-16
7.180000E+03	5.285973E-15	1.049114E-16
7.190000E+03	5.239753E-15	1.032248E-16
7.200000E+03	5.193523E-15	1.015222E-16
7.210000E+03	5.147001E-15	9.980045E-17
7.220000E+03	5.100281E-15	9.806370E-17
7.230000E+03	5.053193E-15	9.631122E-17
7.240000E+03	5.005794E-15	9.454674E-17
7.250000E+03	4.958014E-15	9.277164E-17
7.260000E+03	4.909933E-15	9.099027E-17
7.270000E+03	4.861438E-15	8.920337E-17
7.280000E+03	4.812561E-15	8.741460E-17
7.290000E+03	4.763407E-15	8.562895E-17
7.300000E+03	4.713887E-15	8.384798E-17
7.310000E+03	4.664052E-15	8.207589E-17
7.320000E+03	4.614021E-15	8.031809E-17
7.330000E+03	4.563784E-15	7.857782E-17
7.340000E+03	4.513340E-15	7.685855E-17
7.350000E+03	4.462754E-15	7.516490E-17
7.360000E+03	4.412095E-15	7.350166E-17
7.370000E+03	4.361434E-15	7.187366E-17
7.380000E+03	4.310790E-15	7.028486E-17
7.390000E+03	4.260305E-15	6.874130E-17
7.400000E+03	4.209953E-15	6.724622E-17
7.410000E+03	4.159889E-15	6.580579E-17
7.420000E+03	4.110214E-15	6.442526E-17
7.430000E+03	4.061035E-15	6.310986E-17
7.440000E+03	4.012407E-15	6.186393E-17
7.450000E+03	3.964498E-15	6.069345E-17
7.460000E+03	3.917422E-15	5.960334E-17
7.470000E+03	3.871235E-15	5.859753E-17
7.480000E+03	3.826102E-15	5.768135E-17
7.490000E+03	3.782125E-15	5.685897E-17
7.500000E+03	3.739402E-15	5.613422E-17
7.510000E+03	3.698077E-15	5.551134E-17
7.520000E+03	3.658186E-15	5.499262E-17
7.530000E+03	3.619808E-15	5.458073E-17
7.540000E+03	3.583116E-15	5.427940E-17
7.550000E+03	3.548123E-15	5.408964E-17
7.560000E+03	3.514883E-15	5.401176E-17
7.570000E+03	3.483488E-15	5.404413E-17
7.580000E+03	3.453922E-15	5.418295E-17
7.590000E+03	3.426257E-15	5.442585E-17
7.600000E+03	3.400558E-15	5.477040E-17
7.610000E+03	3.376791E-15	5.521268E-17
7.620000E+03	3.355015E-15	5.575050E-17
7.630000E+03	3.335241E-15	5.638103E-17
7.640000E+03	3.317424E-15	5.710081E-17
7.650000E+03	3.301647E-15	5.790877E-17
7.660000E+03	3.287766E-15	5.880020E-17
7.670000E+03	3.275766E-15	5.977285E-17
7.680000E+03	3.265497E-15	6.082225E-17
7.690000E+03	3.256735E-15	6.194254E-17
7.700000E+03	3.249265E-15	6.312803E-17
7.710000E+03	3.242965E-15	6.437469E-17
7.720000E+03	3.237445E-15	6.567321E-17
7.730000E+03	3.232571E-15	6.701899E-17
7.740000E+03	3.227999E-15	6.840304E-17
7.750000E+03	3.223562E-15	6.981966E-17
7.760000E+03	3.219078E-15	7.126275E-17
