#wls	flux	fluxerr
1.600000E+03	3.342604E-15	4.220625E-16
1.640000E+03	3.420322E-15	4.266265E-16
1.680000E+03	3.496948E-15	4.307416E-16
1.720000E+03	3.572266E-15	4.343822E-16
1.760000E+03	3.646134E-15	4.375330E-16
1.800000E+03	3.719163E-15	4.402694E-16
1.840000E+03	3.790843E-15	4.425322E-16
1.880000E+03	3.861471E-15	4.443588E-16
1.920000E+03	3.932905E-15	4.459620E-16
1.960000E+03	4.004620E-15	4.472762E-16
2.000000E+03	4.079043E-15	4.485640E-16
2.040000E+03	4.156876E-15	4.498849E-16
2.080000E+03	4.240447E-15	4.514665E-16
2.120000E+03	4.331524E-15	4.534612E-16
2.160000E+03	4.431792E-15	4.560000E-16
2.200000E+03	4.543711E-15	4.592795E-16
2.240000E+03	4.668439E-15	4.633483E-16
2.280000E+03	4.809365E-15	4.684623E-16
2.320000E+03	4.967357E-15	4.746095E-16
2.360000E+03	5.144520E-15	4.818868E-16
2.400000E+03	5.342355E-15	4.903174E-16
2.440000E+03	5.563514E-15	5.000162E-16
2.480000E+03	5.810357E-15	5.110509E-16
2.520000E+03	6.086678E-15	5.235933E-16
2.560000E+03	6.396018E-15	5.377639E-16
2.600000E+03	6.742265E-15	5.536830E-16
2.640000E+03	7.131776E-15	5.716381E-16
2.680000E+03	7.563859E-15	5.913151E-16
2.720000E+03	8.038836E-15	6.124829E-16
2.760000E+03	8.554235E-15	6.347016E-16
2.800000E+03	9.105806E-15	6.574222E-16
2.840000E+03	9.686255E-15	6.799170E-16
2.880000E+03	1.028856E-14	7.015392E-16
2.920000E+03	1.090112E-14	7.213993E-16
2.960000E+03	1.151114E-14	7.386305E-16
3.000000E+03	1.210611E-14	7.524940E-16
3.010000E+03	1.225042E-14	7.553196E-16
3.020000E+03	1.239208E-14	7.578421E-16
3.030000E+03	1.253211E-14	7.601275E-16
3.040000E+03	1.266753E-14	7.619994E-16
3.050000E+03	1.280066E-14	7.636048E-16
3.060000E+03	1.293120E-14	7.649290E-16
3.070000E+03	1.305612E-14	7.657994E-16
3.080000E+03	1.317778E-14	7.663627E-16
3.090000E+03	1.329585E-14	7.666049E-16
3.100000E+03	1.340730E-14	7.663591E-16
3.110000E+03	1.351584E-14	7.658468E-16
3.120000E+03	1.361711E-14	7.648282E-16
3.130000E+03	1.371482E-14	7.635215E-16
3.140000E+03	1.380464E-14	7.616935E-16
3.150000E+03	1.389030E-14	7.595612E-16
3.160000E+03	1.396748E-14	7.568976E-16
3.170000E+03	1.403991E-14	7.539168E-16
3.180000E+03	1.410468E-14	7.504716E-16
3.190000E+03	1.416286E-14	7.466309E-16
3.200000E+03	1.421291E-14	7.423253E-16
3.210000E+03	1.425727E-14	7.376933E-16
3.220000E+03	1.429314E-14	7.326007E-16
3.230000E+03	1.432036E-14	7.270539E-16
3.240000E+03	1.434140E-14	7.211901E-16
3.250000E+03	1.435362E-14	7.148873E-16
3.260000E+03	1.435946E-14	7.082804E-16
3.270000E+03	1.435639E-14	7.012555E-16
3.280000E+03	1.434565E-14	6.938869E-16
3.290000E+03	1.432730E-14	6.861892E-16
3.300000E+03	1.430141E-14	6.781774E-16
3.310000E+03	1.426927E-14	6.699238E-16
3.320000E+03	1.422866E-14	6.613345E-16
3.330000E+03	1.418211E-14	6.525395E-16
3.340000E+03	1.412751E-14	6.434517E-16
3.350000E+03	1.406745E-14	6.341994E-16
3.360000E+03	1.400106E-14	6.247523E-16
3.370000E+03	1.392869E-14	6.151352E-16
3.380000E+03	1.385176E-14	6.054197E-16
3.390000E+03	1.376960E-14	5.955829E-16
3.400000E+03	1.368264E-14	5.856508E-16
3.410000E+03	1.359236E-14	5.756936E-16
3.420000E+03	1.349920E-14	5.657347E-16
3.430000E+03	1.340163E-14	5.557144E-16
3.440000E+03	1.330315E-14	5.457823E-16
3.450000E+03	1.320226E-14	5.358798E-16
3.460000E+03	1.309946E-14	5.260299E-16
3.470000E+03	1.299615E-14	5.162904E-16
3.480000E+03	1.289268E-14	5.066764E-16
3.490000E+03	1.278944E-14	4.972005E-16
3.500000E+03	1.268679E-14	4.878743E-16
3.510000E+03	1.258431E-14	4.786780E-16
3.520000E+03	1.248336E-14	4.696604E-16
3.530000E+03	1.238437E-14	4.608331E-16
3.540000E+03	1.228777E-14	4.522077E-16
3.550000E+03	1.219399E-14	4.437939E-16
3.560000E+03	1.210416E-14	4.356272E-16
3.570000E+03	1.201709E-14	4.276587E-16
3.580000E+03	1.193388E-14	4.199213E-16
3.590000E+03	1.185553E-14	4.124436E-16
3.600000E+03	1.178153E-14	4.052002E-16
3.610000E+03	1.171207E-14	3.981914E-16
3.620000E+03	1.164728E-14	3.914140E-16
3.630000E+03	1.158792E-14	3.848867E-16
3.640000E+03	1.153333E-14	3.785800E-16
3.650000E+03	1.148347E-14	3.724857E-16
3.660000E+03	1.143889E-14	3.666146E-16
3.670000E+03	1.139939E-14	3.609537E-16
3.680000E+03	1.136408E-14	3.554678E-16
3.690000E+03	1.133263E-14	3.501414E-16
3.700000E+03	1.130528E-14	3.449761E-16
3.710000E+03	1.128153E-14	3.399522E-16
3.720000E+03	1.126084E-14	3.350484E-16
3.730000E+03	1.124208E-14	3.302277E-16
3.740000E+03	1.122522E-14	3.254870E-16
3.750000E+03	1.120966E-14	3.208062E-16
3.760000E+03	1.119477E-14	3.161662E-16
3.770000E+03	1.117940E-14	3.115341E-16
3.780000E+03	1.116403E-14	3.069238E-16
3.790000E+03	1.114700E-14	3.022904E-16
3.800000E+03	1.112827E-14	2.976351E-16
3.810000E+03	1.110728E-14	2.929459E-16
3.820000E+03	1.108351E-14	2.882119E-16
3.830000E+03	1.105642E-14	2.834233E-16
3.840000E+03	1.102553E-14	2.785725E-16
3.850000E+03	1.099084E-14	2.736650E-16
3.860000E+03	1.095095E-14	2.686715E-16
3.870000E+03	1.090592E-14	2.636011E-16
3.880000E+03	1.085541E-14	2.584523E-16
3.890000E+03	1.079914E-14	2.532265E-16
3.900000E+03	1.073732E-14	2.479365E-16
3.910000E+03	1.066893E-14	2.425671E-16
3.920000E+03	1.059435E-14	2.371360E-16
3.930000E+03	1.051404E-14	2.316622E-16
3.940000E+03	1.042725E-14	2.261379E-16
3.950000E+03	1.033463E-14	2.205860E-16
3.960000E+03	1.023683E-14	2.150294E-16
3.970000E+03	1.013343E-14	2.094668E-16
3.980000E+03	1.002522E-14	2.039231E-16
3.990000E+03	9.912694E-15	1.984158E-16
4.000000E+03	9.796359E-15	1.929623E-16
4.010000E+03	9.676454E-15	1.875738E-16
4.020000E+03	9.554296E-15	1.822818E-16
4.030000E+03	9.429794E-15	1.770899E-16
4.040000E+03	9.303936E-15	1.720215E-16
4.050000E+03	9.177001E-15	1.670860E-16
4.060000E+03	9.049572E-15	1.622977E-16
4.070000E+03	8.922766E-15	1.576798E-16
4.080000E+03	8.796120E-15	1.532266E-16
4.090000E+03	8.670627E-15	1.489577E-16
4.100000E+03	8.546321E-15	1.448755E-16
4.110000E+03	8.423235E-15	1.409820E-16
4.120000E+03	8.302226E-15	1.372929E-16
4.130000E+03	8.183372E-15	1.338098E-16
4.140000E+03	8.066815E-15	1.305355E-16
4.150000E+03	7.953262E-15	1.274811E-16
4.160000E+03	7.843243E-15	1.246545E-16
4.170000E+03	7.737104E-15	1.220598E-16
4.180000E+03	7.635455E-15	1.197051E-16
4.190000E+03	7.538926E-15	1.175982E-16
4.200000E+03	7.448121E-15	1.157461E-16
4.210000E+03	7.363561E-15	1.141542E-16
4.220000E+03	7.285650E-15	1.128255E-16
4.230000E+03	7.214471E-15	1.117530E-16
4.240000E+03	7.150156E-15	1.109285E-16
4.250000E+03	7.092822E-15	1.103441E-16
4.260000E+03	7.041824E-15	1.099805E-16
4.270000E+03	6.996895E-15	1.098247E-16
4.280000E+03	6.957322E-15	1.098571E-16
4.290000E+03	6.922019E-15	1.100526E-16
4.300000E+03	6.890081E-15	1.103888E-16
4.310000E+03	6.859887E-15	1.108318E-16
4.320000E+03	6.830619E-15	1.113604E-16
4.330000E+03	6.800995E-15	1.119454E-16
4.340000E+03	6.770342E-15	1.125675E-16
4.350000E+03	6.737714E-15	1.132022E-16
4.360000E+03	6.702465E-15	1.138302E-16
4.370000E+03	6.663994E-15	1.144325E-16
4.380000E+03	6.622350E-15	1.150013E-16
4.390000E+03	6.577131E-15	1.155211E-16
4.400000E+03	6.528648E-15	1.159894E-16
4.410000E+03	6.476928E-15	1.163989E-16
4.420000E+03	6.422710E-15	1.167557E-16
4.430000E+03	6.366251E-15	1.170583E-16
4.440000E+03	6.308305E-15	1.173146E-16
4.450000E+03	6.249489E-15	1.175314E-16
4.460000E+03	6.190256E-15	1.177129E-16
4.470000E+03	6.131042E-15	1.178640E-16
4.480000E+03	6.072623E-15	1.179968E-16
4.490000E+03	6.015154E-15	1.181121E-16
4.500000E+03	5.959127E-15	1.182179E-16
4.510000E+03	5.904846E-15	1.183191E-16
4.520000E+03	5.852441E-15	1.184174E-16
4.530000E+03	5.802132E-15	1.185168E-16
4.540000E+03	5.754107E-15	1.186209E-16
4.550000E+03	5.708524E-15	1.187331E-16
4.560000E+03	5.665523E-15	1.188564E-16
4.570000E+03	5.625113E-15	1.189915E-16
4.580000E+03	5.587519E-15	1.191437E-16
4.590000E+03	5.552837E-15	1.193157E-16
4.600000E+03	5.521046E-15	1.195076E-16
4.610000E+03	5.492225E-15	1.197222E-16
4.620000E+03	5.466443E-15	1.199615E-16
4.630000E+03	5.443866E-15	1.202302E-16
4.640000E+03	5.424431E-15	1.205276E-16
4.650000E+03	5.408172E-15	1.208553E-16
4.660000E+03	5.395109E-15	1.212146E-16
4.670000E+03	5.385145E-15	1.216039E-16
4.680000E+03	5.378468E-15	1.220282E-16
4.690000E+03	5.374947E-15	1.224850E-16
4.700000E+03	5.374528E-15	1.229736E-16
4.710000E+03	5.377033E-15	1.234903E-16
4.720000E+03	5.382466E-15	1.240354E-16
4.730000E+03	5.390793E-15	1.246084E-16
4.740000E+03	5.401662E-15	1.252010E-16
4.750000E+03	5.414985E-15	1.258114E-16
4.760000E+03	5.430537E-15	1.264339E-16
4.770000E+03	5.448062E-15	1.270625E-16
4.780000E+03	5.467269E-15	1.276900E-16
4.790000E+03	5.487822E-15	1.283081E-16
4.800000E+03	5.509358E-15	1.289079E-16
4.810000E+03	5.531478E-15	1.294794E-16
4.820000E+03	5.553755E-15	1.300123E-16
4.830000E+03	5.575836E-15	1.304976E-16
4.840000E+03	5.597162E-15	1.309220E-16
4.850000E+03	5.617263E-15	1.312740E-16
4.860000E+03	5.635674E-15	1.315425E-16
4.870000E+03	5.652059E-15	1.317196E-16
4.880000E+03	5.666035E-15	1.317963E-16
4.890000E+03	5.677173E-15	1.317632E-16
4.900000E+03	5.685303E-15	1.316165E-16
4.910000E+03	5.690241E-15	1.313528E-16
4.920000E+03	5.691781E-15	1.309682E-16
4.930000E+03	5.690081E-15	1.304674E-16
4.940000E+03	5.685005E-15	1.298487E-16
4.950000E+03	5.676874E-15	1.291207E-16
4.960000E+03	5.665784E-15	1.282873E-16
4.970000E+03	5.651998E-15	1.273561E-16
4.980000E+03	5.635825E-15	1.263357E-16
4.990000E+03	5.617691E-15	1.252376E-16
5.000000E+03	5.597844E-15	1.240690E-16
5.010000E+03	5.576625E-15	1.228392E-16
5.020000E+03	5.554565E-15	1.215616E-16
5.030000E+03	5.531815E-15	1.202411E-16
5.040000E+03	5.508790E-15	1.188883E-16
5.050000E+03	5.485714E-15	1.175096E-16
5.060000E+03	5.463060E-15	1.161163E-16
5.070000E+03	5.440929E-15	1.147119E-16
5.080000E+03	5.419673E-15	1.133049E-16
5.090000E+03	5.399626E-15	1.119034E-16
5.100000E+03	5.380844E-15	1.105093E-16
5.110000E+03	5.363714E-15	1.091315E-16
5.120000E+03	5.348260E-15	1.077711E-16
5.130000E+03	5.334825E-15	1.064357E-16
5.140000E+03	5.323476E-15	1.051271E-16
5.150000E+03	5.314409E-15	1.038497E-16
5.160000E+03	5.307538E-15	1.026022E-16
5.170000E+03	5.303086E-15	1.013893E-16
5.180000E+03	5.300971E-15	1.002101E-16
5.190000E+03	5.301164E-15	9.906447E-17
5.200000E+03	5.303693E-15	9.795370E-17
5.210000E+03	5.308380E-15	9.687525E-17
5.220000E+03	5.315198E-15	9.582963E-17
5.230000E+03	5.323852E-15	9.481275E-17
5.240000E+03	5.334376E-15	9.382667E-17
5.250000E+03	5.346544E-15	9.286908E-17
5.260000E+03	5.360298E-15	9.194095E-17
5.270000E+03	5.375404E-15	9.104049E-17
5.280000E+03	5.391717E-15	9.016778E-17
5.290000E+03	5.409080E-15	8.932304E-17
5.300000E+03	5.427317E-15	8.850657E-17
5.310000E+03	5.446328E-15	8.772017E-17
5.320000E+03	5.465822E-15	8.696294E-17
5.330000E+03	5.485564E-15	8.623527E-17
5.340000E+03	5.505295E-15	8.553754E-17
5.350000E+03	5.524725E-15	8.487000E-17
5.360000E+03	5.543516E-15	8.423251E-17
5.370000E+03	5.561381E-15	8.362599E-17
5.380000E+03	5.577721E-15	8.304692E-17
5.390000E+03	5.592199E-15	8.249594E-17
5.400000E+03	5.604104E-15	8.196832E-17
5.410000E+03	5.613080E-15	8.146456E-17
5.420000E+03	5.618456E-15	8.098050E-17
5.430000E+03	5.620239E-15	8.052146E-17
5.440000E+03	5.618637E-15	8.009510E-17
5.450000E+03	5.614027E-15	7.971080E-17
5.460000E+03	5.607122E-15	7.938012E-17
5.470000E+03	5.598378E-15	7.910623E-17
5.480000E+03	5.588284E-15	7.889161E-17
5.490000E+03	5.577289E-15	7.873778E-17
5.500000E+03	5.565803E-15	7.864540E-17
5.510000E+03	5.554172E-15	7.861404E-17
5.520000E+03	5.542788E-15	7.864386E-17
5.530000E+03	5.531836E-15	7.873207E-17
5.540000E+03	5.521541E-15	7.887649E-17
5.550000E+03	5.512102E-15	7.907473E-17
5.560000E+03	5.503786E-15	7.932548E-17
5.570000E+03	5.496662E-15	7.962485E-17
5.580000E+03	5.490878E-15	7.997024E-17
5.590000E+03	5.486658E-15	8.036042E-17
5.600000E+03	5.484136E-15	8.079312E-17
5.610000E+03	5.483363E-15	8.126505E-17
5.620000E+03	5.484556E-15	8.177565E-17
5.630000E+03	5.487851E-15	8.232343E-17
5.640000E+03	5.493384E-15	8.290714E-17
5.650000E+03	5.501205E-15	8.352439E-17
5.660000E+03	5.511609E-15	8.417683E-17
5.670000E+03	5.524631E-15	8.486228E-17
5.680000E+03	5.540378E-15	8.557984E-17
5.690000E+03	5.558935E-15	8.632845E-17
5.700000E+03	5.580370E-15	8.710689E-17
5.710000E+03	5.604813E-15	8.791499E-17
5.720000E+03	5.632186E-15	8.874945E-17
5.730000E+03	5.662469E-15	8.960788E-17
5.740000E+03	5.695699E-15	9.048883E-17
5.750000E+03	5.731783E-15	9.138880E-17
5.760000E+03	5.770506E-15	9.230232E-17
5.770000E+03	5.811794E-15	9.322616E-17
5.780000E+03	5.855447E-15	9.415505E-17
5.790000E+03	5.901235E-15	9.508317E-17
5.800000E+03	5.948812E-15	9.600282E-17
5.810000E+03	5.997999E-15	9.690899E-17
5.820000E+03	6.048608E-15	9.779646E-17
5.830000E+03	6.100161E-15	9.865541E-17
5.840000E+03	6.152469E-15	9.948067E-17
5.850000E+03	6.205357E-15	1.002673E-16
5.860000E+03	6.258373E-15	1.010062E-16
5.870000E+03	6.311388E-15	1.016932E-16
5.880000E+03	6.364306E-15	1.023250E-16
5.890000E+03	6.416877E-15	1.028960E-16
5.900000E+03	6.469004E-15	1.034030E-16
5.910000E+03	6.520544E-15	1.038424E-16
5.920000E+03	6.571841E-15	1.042184E-16
5.930000E+03	6.622706E-15	1.045269E-16
5.940000E+03	6.673443E-15	1.047716E-16
5.950000E+03	6.724447E-15	1.049577E-16
5.960000E+03	6.775999E-15	1.050888E-16
5.970000E+03	6.828568E-15	1.051712E-16
5.980000E+03	6.882698E-15	1.052124E-16
5.990000E+03	6.939015E-15	1.052208E-16
6.000000E+03	6.998199E-15	1.052057E-16
6.010000E+03	7.060978E-15	1.051766E-16
6.020000E+03	7.128221E-15	1.051448E-16
6.030000E+03	7.200477E-15	1.051166E-16
6.040000E+03	7.278741E-15	1.051043E-16
6.050000E+03	7.363638E-15	1.051145E-16
6.060000E+03	7.455742E-15	1.051528E-16
6.070000E+03	7.555916E-15	1.052283E-16
6.080000E+03	7.664422E-15	1.053417E-16
6.090000E+03	7.781882E-15	1.054984E-16
6.100000E+03	7.908376E-15	1.056964E-16
6.110000E+03	8.043724E-15	1.059308E-16
6.120000E+03	8.187732E-15	1.061969E-16
6.130000E+03	8.339885E-15	1.064868E-16
6.140000E+03	8.498804E-15	1.067830E-16
6.150000E+03	8.663043E-15	1.070691E-16
6.160000E+03	8.830465E-15	1.073227E-16
6.170000E+03	8.998066E-15	1.075139E-16
6.180000E+03	9.162592E-15	1.076140E-16
6.190000E+03	9.319436E-15	1.075824E-16
6.200000E+03	9.463538E-15	1.073788E-16
6.210000E+03	9.588969E-15	1.069586E-16
6.220000E+03	9.689164E-15	1.062758E-16
6.230000E+03	9.756960E-15	1.052834E-16
6.240000E+03	9.785048E-15	1.039382E-16
6.250000E+03	9.766991E-15	1.022098E-16
6.260000E+03	9.697353E-15	1.000799E-16
6.270000E+03	9.573596E-15	9.755958E-17
6.280000E+03	9.398713E-15	9.471162E-17
6.290000E+03	9.183880E-15	9.167308E-17
6.300000E+03	8.944990E-15	8.861703E-17
6.310000E+03	8.697503E-15	8.570178E-17
6.320000E+03	8.455221E-15	8.306174E-17
6.330000E+03	8.229467E-15	8.080259E-17
6.340000E+03	8.028976E-15	7.900327E-17
6.350000E+03	7.859468E-15	7.771084E-17
6.360000E+03	7.724569E-15	7.694599E-17
6.370000E+03	7.626484E-15	7.671879E-17
6.380000E+03	7.565507E-15	7.702529E-17
6.390000E+03	7.541417E-15	7.786096E-17
6.400000E+03	7.553538E-15	7.922076E-17
6.410000E+03	7.600491E-15	8.109577E-17
6.420000E+03	7.681207E-15	8.348305E-17
6.430000E+03	7.794196E-15	8.637722E-17
6.440000E+03	7.937512E-15	8.976914E-17
6.450000E+03	8.109535E-15	9.365378E-17
6.460000E+03	8.308126E-15	9.802014E-17
6.470000E+03	8.530683E-15	1.028508E-16
6.480000E+03	8.774383E-15	1.081237E-16
6.490000E+03	9.036206E-15	1.138119E-16
6.500000E+03	9.312655E-15	1.198794E-16
6.510000E+03	9.599892E-15	1.262817E-16
6.520000E+03	9.893632E-15	1.329639E-16
6.530000E+03	1.018980E-14	1.398689E-16
6.540000E+03	1.048399E-14	1.469301E-16
6.550000E+03	1.077170E-14	1.540739E-16
6.560000E+03	1.104841E-14	1.612209E-16
6.570000E+03	1.130983E-14	1.682900E-16
6.580000E+03	1.155119E-14	1.751881E-16
6.590000E+03	1.176881E-14	1.818328E-16
6.600000E+03	1.195874E-14	1.881343E-16
6.610000E+03	1.211781E-14	1.940108E-16
6.620000E+03	1.224385E-14	1.993942E-16
6.630000E+03	1.233523E-14	2.042237E-16
6.640000E+03	1.239080E-14	2.084460E-16
6.650000E+03	1.241041E-14	2.120244E-16
6.660000E+03	1.239480E-14	2.149393E-16
6.670000E+03	1.234532E-14	2.171837E-16
6.680000E+03	1.226328E-14	2.187524E-16
6.690000E+03	1.215088E-14	2.196593E-16
6.700000E+03	1.201109E-14	2.199361E-16
6.710000E+03	1.184652E-14	2.196117E-16
6.720000E+03	1.166015E-14	2.187258E-16
6.730000E+03	1.145505E-14	2.173236E-16
6.740000E+03	1.123451E-14	2.154581E-16
6.750000E+03	1.100114E-14	2.131731E-16
6.760000E+03	1.075827E-14	2.105295E-16
6.770000E+03	1.050846E-14	2.075761E-16
6.780000E+03	1.025450E-14	2.043687E-16
6.790000E+03	9.998567E-15	2.009533E-16
6.800000E+03	9.742787E-15	1.973771E-16
6.810000E+03	9.489234E-15	1.936873E-16
6.820000E+03	9.239550E-15	1.899238E-16
6.830000E+03	8.994955E-15	1.861188E-16
6.840000E+03	8.756791E-15	1.823076E-16
6.850000E+03	8.525852E-15	1.785146E-16
6.860000E+03	8.303045E-15	1.747666E-16
6.870000E+03	8.088937E-15	1.710835E-16
6.880000E+03	7.883785E-15	1.674784E-16
6.890000E+03	7.687997E-15	1.639674E-16
6.900000E+03	7.501700E-15	1.605604E-16
6.910000E+03	7.324921E-15	1.572648E-16
6.920000E+03	7.157444E-15	1.540822E-16
6.930000E+03	6.999251E-15	1.510180E-16
6.940000E+03	6.850125E-15	1.480730E-16
6.950000E+03	6.709653E-15	1.452433E-16
6.960000E+03	6.577638E-15	1.425290E-16
6.970000E+03	6.453718E-15	1.399264E-16
6.980000E+03	6.337497E-15	1.374306E-16
6.990000E+03	6.228441E-15	1.350332E-16
7.000000E+03	6.126243E-15	1.327306E-16
7.010000E+03	6.030346E-15	1.305133E-16
7.020000E+03	5.940536E-15	1.283790E-16
7.030000E+03	5.856031E-15	1.263128E-16
7.040000E+03	5.776620E-15	1.243121E-16
7.050000E+03	5.701866E-15	1.223691E-16
7.060000E+03	5.631240E-15	1.204741E-16
7.070000E+03	5.564445E-15	1.186222E-16
7.080000E+03	5.500975E-15	1.168039E-16
7.090000E+03	5.440461E-15	1.150127E-16
7.100000E+03	5.382648E-15	1.132447E-16
7.110000E+03	5.327100E-15	1.114917E-16
7.120000E+03	5.273509E-15	1.097489E-16
7.130000E+03	5.221593E-15	1.080118E-16
7.140000E+03	5.171098E-15	1.062765E-16
7.150000E+03	5.121796E-15	1.045399E-16
7.160000E+03	5.073488E-15	1.027996E-16
7.170000E+03	5.026005E-15	1.010539E-16
7.180000E+03	4.979199E-15	9.930165E-17
7.190000E+03	4.932945E-15	9.754228E-17
7.200000E+03	4.887050E-15	9.577399E-17
7.210000E+03	4.841430E-15	9.399732E-17
7.220000E+03	4.796204E-15	9.221684E-17
7.230000E+03	4.751131E-15	9.043023E-17
7.240000E+03	4.706169E-15	8.863918E-17
7.250000E+03	4.661285E-15	8.684568E-17
7.260000E+03	4.616544E-15	8.505366E-17
7.270000E+03	4.571841E-15	8.326394E-17
7.280000E+03	4.527161E-15	8.147926E-17
7.290000E+03	4.482498E-15	7.970252E-17
7.300000E+03	4.437851E-15	7.793695E-17
7.310000E+03	4.393304E-15	7.618732E-17
7.320000E+03	4.348608E-15	7.445276E-17
7.330000E+03	4.304030E-15	7.274148E-17
7.340000E+03	4.259495E-15	7.105590E-17
7.350000E+03	4.214943E-15	6.939889E-17
7.360000E+03	4.170485E-15	6.777626E-17
7.370000E+03	4.126074E-15	6.619135E-17
7.380000E+03	4.081835E-15	6.465043E-17
7.390000E+03	4.037745E-15	6.315739E-17
7.400000E+03	3.993947E-15	6.171888E-17
7.410000E+03	3.950442E-15	6.033931E-17
7.420000E+03	3.907316E-15	5.902446E-17
7.430000E+03	3.864743E-15	5.778138E-17
7.440000E+03	3.822752E-15	5.661488E-17
7.450000E+03	3.781454E-15	5.553088E-17
7.460000E+03	3.740965E-15	5.453523E-17
7.470000E+03	3.701476E-15	5.363469E-17
7.480000E+03	3.662961E-15	5.283256E-17
7.490000E+03	3.625679E-15	5.213604E-17
7.500000E+03	3.589672E-15	5.154882E-17
7.510000E+03	3.554984E-15	5.107423E-17
7.520000E+03	3.521864E-15	5.071816E-17
7.530000E+03	3.490348E-15	5.048298E-17
7.540000E+03	3.460537E-15	5.037153E-17
7.550000E+03	3.432454E-15	5.038400E-17
7.560000E+03	3.406325E-15	5.052042E-17
7.570000E+03	3.382156E-15	5.077715E-17
7.580000E+03	3.359948E-15	5.115029E-17
7.590000E+03	3.339884E-15	5.163880E-17
7.600000E+03	3.321864E-15	5.223739E-17
7.610000E+03	3.305952E-15	5.294353E-17
7.620000E+03	3.292118E-15	5.375334E-17
7.630000E+03	3.280281E-15	5.466243E-17
7.640000E+03	3.270299E-15	5.566553E-17
7.650000E+03	3.261967E-15	5.675637E-17
7.660000E+03	3.254996E-15	5.792726E-17
7.670000E+03	3.248931E-15	5.916728E-17
7.680000E+03	3.243432E-15	6.046722E-17
7.690000E+03	3.237840E-15	6.181142E-17
7.700000E+03	3.231641E-15	6.318609E-17
7.710000E+03	3.224322E-15	6.457665E-17
7.720000E+03	3.215552E-15	6.597146E-17
7.730000E+03	3.205459E-15	6.736791E-17
7.740000E+03	3.194021E-15	6.876055E-17
7.750000E+03	3.181449E-15	7.014918E-17
7.760000E+03	3.167885E-15	7.153256E-17
