#wls	flux	fluxerr
1.600000E+03	3.211320E-15	4.276050E-16
1.640000E+03	3.278975E-15	4.314260E-16
1.680000E+03	3.345770E-15	4.348476E-16
1.720000E+03	3.411731E-15	4.378737E-16
1.760000E+03	3.476387E-15	4.404449E-16
1.800000E+03	3.539944E-15	4.425905E-16
1.840000E+03	3.603353E-15	4.444298E-16
1.880000E+03	3.667123E-15	4.460230E-16
1.920000E+03	3.731304E-15	4.473716E-16
1.960000E+03	3.797978E-15	4.487170E-16
2.000000E+03	3.866910E-15	4.500165E-16
2.040000E+03	3.940553E-15	4.515375E-16
2.080000E+03	4.019621E-15	4.533331E-16
2.120000E+03	4.105571E-15	4.555338E-16
2.160000E+03	4.199938E-15	4.582678E-16
2.200000E+03	4.305722E-15	4.618087E-16
2.240000E+03	4.422619E-15	4.660586E-16
2.280000E+03	4.554512E-15	4.713540E-16
2.320000E+03	4.702496E-15	4.777180E-16
2.360000E+03	4.867592E-15	4.851568E-16
2.400000E+03	5.053950E-15	4.939736E-16
2.440000E+03	5.261414E-15	5.040263E-16
2.480000E+03	5.493884E-15	5.155545E-16
2.520000E+03	5.753995E-15	5.286504E-16
2.560000E+03	6.043634E-15	5.433187E-16
2.600000E+03	6.367250E-15	5.597739E-16
2.640000E+03	6.726218E-15	5.779327E-16
2.680000E+03	7.122495E-15	5.977505E-16
2.720000E+03	7.554535E-15	6.188828E-16
2.760000E+03	8.021328E-15	6.410432E-16
2.800000E+03	8.519334E-15	6.637585E-16
2.840000E+03	9.043401E-15	6.864655E-16
2.880000E+03	9.587967E-15	7.086184E-16
2.920000E+03	1.014467E-14	7.295219E-16
2.960000E+03	1.070351E-14	7.484422E-16
3.000000E+03	1.125155E-14	7.645339E-16
3.010000E+03	1.138570E-14	7.680496E-16
3.020000E+03	1.151914E-14	7.713975E-16
3.030000E+03	1.165025E-14	7.744710E-16
3.040000E+03	1.177881E-14	7.772599E-16
3.050000E+03	1.190603E-14	7.798499E-16
3.060000E+03	1.203173E-14	7.822306E-16
3.070000E+03	1.215274E-14	7.842026E-16
3.080000E+03	1.227178E-14	7.859467E-16
3.090000E+03	1.238865E-14	7.874551E-16
3.100000E+03	1.250164E-14	7.886241E-16
3.110000E+03	1.261053E-14	7.894470E-16
3.120000E+03	1.271661E-14	7.900113E-16
3.130000E+03	1.281816E-14	7.902168E-16
3.140000E+03	1.291649E-14	7.901511E-16
3.150000E+03	1.300988E-14	7.897156E-16
3.160000E+03	1.309965E-14	7.889992E-16
3.170000E+03	1.318410E-14	7.879062E-16
3.180000E+03	1.326302E-14	7.864340E-16
3.190000E+03	1.333777E-14	7.846713E-16
3.200000E+03	1.340819E-14	7.826164E-16
3.210000E+03	1.347103E-14	7.800889E-16
3.220000E+03	1.353076E-14	7.773574E-16
3.230000E+03	1.358413E-14	7.742433E-16
3.240000E+03	1.363103E-14	7.707502E-16
3.250000E+03	1.367287E-14	7.669672E-16
3.260000E+03	1.370799E-14	7.628113E-16
3.270000E+03	1.373780E-14	7.583707E-16
3.280000E+03	1.376070E-14	7.535665E-16
3.290000E+03	1.377811E-14	7.484862E-16
3.300000E+03	1.378844E-14	7.430536E-16
3.310000E+03	1.379313E-14	7.373564E-16
3.320000E+03	1.379064E-14	7.313212E-16
3.330000E+03	1.378241E-14	7.250348E-16
3.340000E+03	1.376693E-14	7.184271E-16
3.350000E+03	1.374566E-14	7.115841E-16
3.360000E+03	1.371711E-14	7.044380E-16
3.370000E+03	1.368276E-14	6.970747E-16
3.380000E+03	1.364117E-14	6.894293E-16
3.390000E+03	1.359379E-14	6.815848E-16
3.400000E+03	1.353926E-14	6.734814E-16
3.410000E+03	1.347905E-14	6.652005E-16
3.420000E+03	1.341182E-14	6.566846E-16
3.430000E+03	1.333906E-14	6.480146E-16
3.440000E+03	1.325949E-14	6.391360E-16
3.450000E+03	1.317462E-14	6.301291E-16
3.460000E+03	1.308457E-14	6.210058E-16
3.470000E+03	1.298823E-14	6.117197E-16
3.480000E+03	1.288586E-14	6.022890E-16
3.490000E+03	1.277905E-14	5.927912E-16
3.500000E+03	1.266823E-14	5.832477E-16
3.510000E+03	1.255272E-14	5.736296E-16
3.520000E+03	1.243324E-14	5.639710E-16
3.530000E+03	1.231169E-14	5.543584E-16
3.540000E+03	1.218880E-14	5.448233E-16
3.550000E+03	1.206407E-14	5.353426E-16
3.560000E+03	1.193935E-14	5.259965E-16
3.570000E+03	1.181417E-14	5.167612E-16
3.580000E+03	1.169023E-14	5.077090E-16
3.590000E+03	1.156698E-14	4.988124E-16
3.600000E+03	1.144601E-14	4.901357E-16
3.610000E+03	1.132670E-14	4.816483E-16
3.620000E+03	1.121047E-14	4.734067E-16
3.630000E+03	1.109662E-14	4.653757E-16
3.640000E+03	1.098641E-14	4.576045E-16
3.650000E+03	1.087907E-14	4.500555E-16
3.660000E+03	1.077573E-14	4.427705E-16
3.670000E+03	1.067646E-14	4.357479E-16
3.680000E+03	1.058036E-14	4.289455E-16
3.690000E+03	1.048746E-14	4.223605E-16
3.700000E+03	1.039864E-14	4.160240E-16
3.710000E+03	1.031289E-14	4.098912E-16
3.720000E+03	1.023101E-14	4.039900E-16
3.730000E+03	1.015283E-14	3.983090E-16
3.740000E+03	1.007643E-14	3.927702E-16
3.750000E+03	1.000420E-14	3.874630E-16
3.760000E+03	9.934201E-15	3.823090E-16
3.770000E+03	9.866202E-15	3.772968E-16
3.780000E+03	9.800781E-15	3.724462E-16
3.790000E+03	9.736853E-15	3.677135E-16
3.800000E+03	9.674958E-15	3.631174E-16
3.810000E+03	9.614027E-15	3.586159E-16
3.820000E+03	9.554573E-15	3.542268E-16
3.830000E+03	9.495553E-15	3.499104E-16
3.840000E+03	9.436720E-15	3.456568E-16
3.850000E+03	9.378584E-15	3.414841E-16
3.860000E+03	9.320158E-15	3.373560E-16
3.870000E+03	9.261963E-15	3.332911E-16
3.880000E+03	9.203065E-15	3.292557E-16
3.890000E+03	9.144008E-15	3.252694E-16
3.900000E+03	9.083921E-15	3.213015E-16
3.910000E+03	9.022686E-15	3.173483E-16
3.920000E+03	8.960893E-15	3.134312E-16
3.930000E+03	8.897779E-15	3.095238E-16
3.940000E+03	8.833305E-15	3.056258E-16
3.950000E+03	8.768118E-15	3.017601E-16
3.960000E+03	8.701560E-15	2.979047E-16
3.970000E+03	8.634312E-15	2.940836E-16
3.980000E+03	8.565152E-15	2.902559E-16
3.990000E+03	8.495438E-15	2.864684E-16
4.000000E+03	8.425249E-15	2.827240E-16
4.010000E+03	8.353473E-15	2.789862E-16
4.020000E+03	8.281464E-15	2.753006E-16
4.030000E+03	8.208756E-15	2.716521E-16
4.040000E+03	8.136083E-15	2.680651E-16
4.050000E+03	8.063012E-15	2.645257E-16
4.060000E+03	7.989144E-15	2.610209E-16
4.070000E+03	7.915775E-15	2.575932E-16
4.080000E+03	7.843043E-15	2.542470E-16
4.090000E+03	7.770011E-15	2.509517E-16
4.100000E+03	7.697914E-15	2.477471E-16
4.110000E+03	7.626353E-15	2.446200E-16
4.120000E+03	7.555469E-15	2.415747E-16
4.130000E+03	7.485390E-15	2.386148E-16
4.140000E+03	7.416230E-15	2.357437E-16
4.150000E+03	7.348093E-15	2.329641E-16
4.160000E+03	7.281546E-15	2.302935E-16
4.170000E+03	7.215681E-15	2.277025E-16
4.180000E+03	7.151505E-15	2.252225E-16
4.190000E+03	7.088093E-15	2.228235E-16
4.200000E+03	7.026374E-15	2.205343E-16
4.210000E+03	6.965849E-15	2.183385E-16
4.220000E+03	6.906018E-15	2.162185E-16
4.230000E+03	6.847688E-15	2.141962E-16
4.240000E+03	6.790300E-15	2.122505E-16
4.250000E+03	6.733295E-15	2.103606E-16
4.260000E+03	6.677376E-15	2.085453E-16
4.270000E+03	6.621530E-15	2.067696E-16
4.280000E+03	6.566415E-15	2.050509E-16
4.290000E+03	6.511026E-15	2.033548E-16
4.300000E+03	6.455605E-15	2.016859E-16
4.310000E+03	6.399985E-15	2.000361E-16
4.320000E+03	6.344005E-15	1.983974E-16
4.330000E+03	6.287516E-15	1.967624E-16
4.340000E+03	6.230393E-15	1.951246E-16
4.350000E+03	6.172179E-15	1.934670E-16
4.360000E+03	6.113199E-15	1.917972E-16
4.370000E+03	6.053441E-15	1.901124E-16
4.380000E+03	5.992925E-15	1.884109E-16
4.390000E+03	5.931361E-15	1.866814E-16
4.400000E+03	5.869547E-15	1.849466E-16
4.410000E+03	5.806909E-15	1.831867E-16
4.420000E+03	5.743611E-15	1.814047E-16
4.430000E+03	5.680494E-15	1.796255E-16
4.440000E+03	5.617077E-15	1.778323E-16
4.450000E+03	5.553572E-15	1.760302E-16
4.460000E+03	5.490821E-15	1.742445E-16
4.470000E+03	5.428087E-15	1.724506E-16
4.480000E+03	5.366510E-15	1.706835E-16
4.490000E+03	5.305674E-15	1.689290E-16
4.500000E+03	5.246073E-15	1.672020E-16
4.510000E+03	5.187598E-15	1.654981E-16
4.520000E+03	5.130710E-15	1.638314E-16
4.530000E+03	5.075564E-15	1.622061E-16
4.540000E+03	5.022021E-15	1.606174E-16
4.550000E+03	4.970220E-15	1.590691E-16
4.560000E+03	4.920552E-15	1.575734E-16
4.570000E+03	4.873116E-15	1.561330E-16
4.580000E+03	4.827734E-15	1.547421E-16
4.590000E+03	4.784489E-15	1.534028E-16
4.600000E+03	4.743703E-15	1.521253E-16
4.610000E+03	4.705171E-15	1.509027E-16
4.620000E+03	4.669185E-15	1.497442E-16
4.630000E+03	4.635767E-15	1.486502E-16
4.640000E+03	4.604441E-15	1.476052E-16
4.650000E+03	4.575705E-15	1.466249E-16
4.660000E+03	4.549547E-15	1.457086E-16
4.670000E+03	4.525709E-15	1.448478E-16
4.680000E+03	4.504164E-15	1.440412E-16
4.690000E+03	4.485109E-15	1.432948E-16
4.700000E+03	4.468257E-15	1.425992E-16
4.710000E+03	4.453550E-15	1.419520E-16
4.720000E+03	4.441149E-15	1.413580E-16
4.730000E+03	4.430741E-15	1.408068E-16
4.740000E+03	4.422463E-15	1.403023E-16
4.750000E+03	4.415990E-15	1.398336E-16
4.760000E+03	4.411212E-15	1.393970E-16
4.770000E+03	4.408016E-15	1.389882E-16
4.780000E+03	4.406500E-15	1.386099E-16
4.790000E+03	4.406312E-15	1.382506E-16
4.800000E+03	4.407320E-15	1.379057E-16
4.810000E+03	4.409606E-15	1.375773E-16
4.820000E+03	4.412813E-15	1.372537E-16
4.830000E+03	4.416801E-15	1.369304E-16
4.840000E+03	4.421654E-15	1.366096E-16
4.850000E+03	4.427022E-15	1.362800E-16
4.860000E+03	4.432780E-15	1.359378E-16
4.870000E+03	4.438811E-15	1.355790E-16
4.880000E+03	4.445227E-15	1.352070E-16
4.890000E+03	4.451499E-15	1.348056E-16
4.900000E+03	4.458201E-15	1.343922E-16
4.910000E+03	4.464612E-15	1.339451E-16
4.920000E+03	4.471122E-15	1.334760E-16
4.930000E+03	4.477480E-15	1.329777E-16
4.940000E+03	4.483671E-15	1.324498E-16
4.950000E+03	4.489698E-15	1.318928E-16
4.960000E+03	4.495793E-15	1.313137E-16
4.970000E+03	4.501775E-15	1.307075E-16
4.980000E+03	4.507690E-15	1.300757E-16
4.990000E+03	4.513598E-15	1.294206E-16
5.000000E+03	4.519786E-15	1.287507E-16
5.010000E+03	4.526119E-15	1.280623E-16
5.020000E+03	4.532685E-15	1.273582E-16
5.030000E+03	4.539793E-15	1.266475E-16
5.040000E+03	4.547110E-15	1.259210E-16
5.050000E+03	4.555164E-15	1.251938E-16
5.060000E+03	4.564055E-15	1.244685E-16
5.070000E+03	4.573451E-15	1.237364E-16
5.080000E+03	4.583875E-15	1.230117E-16
5.090000E+03	4.595201E-15	1.222912E-16
5.100000E+03	4.607512E-15	1.215772E-16
5.110000E+03	4.620881E-15	1.208716E-16
5.120000E+03	4.635587E-15	1.201819E-16
5.130000E+03	4.651468E-15	1.195039E-16
5.140000E+03	4.668564E-15	1.188386E-16
5.150000E+03	4.687118E-15	1.181924E-16
5.160000E+03	4.706924E-15	1.175602E-16
5.170000E+03	4.727977E-15	1.169421E-16
5.180000E+03	4.750255E-15	1.163378E-16
5.190000E+03	4.773937E-15	1.157522E-16
5.200000E+03	4.798745E-15	1.151789E-16
5.210000E+03	4.824598E-15	1.146167E-16
5.220000E+03	4.851399E-15	1.140642E-16
5.230000E+03	4.879250E-15	1.135247E-16
5.240000E+03	4.907787E-15	1.129909E-16
5.250000E+03	4.936847E-15	1.124605E-16
5.260000E+03	4.966473E-15	1.119363E-16
5.270000E+03	4.996234E-15	1.114103E-16
5.280000E+03	5.025902E-15	1.108797E-16
5.290000E+03	5.055457E-15	1.103467E-16
5.300000E+03	5.084406E-15	1.098032E-16
5.310000E+03	5.112459E-15	1.092462E-16
5.320000E+03	5.139549E-15	1.086776E-16
5.330000E+03	5.165128E-15	1.080895E-16
5.340000E+03	5.188873E-15	1.074792E-16
5.350000E+03	5.210455E-15	1.068443E-16
5.360000E+03	5.229789E-15	1.061875E-16
5.370000E+03	5.246566E-15	1.055071E-16
5.380000E+03	5.260026E-15	1.047926E-16
5.390000E+03	5.270392E-15	1.040534E-16
5.400000E+03	5.277224E-15	1.032857E-16
5.410000E+03	5.280620E-15	1.024962E-16
5.420000E+03	5.280280E-15	1.016836E-16
5.430000E+03	5.276471E-15	1.008576E-16
5.440000E+03	5.269093E-15	1.000200E-16
5.450000E+03	5.258353E-15	9.917869E-17
5.460000E+03	5.244530E-15	9.834200E-17
5.470000E+03	5.228186E-15	9.752321E-17
5.480000E+03	5.209679E-15	9.673012E-17
5.490000E+03	5.189154E-15	9.596309E-17
5.500000E+03	5.167006E-15	9.522618E-17
5.510000E+03	5.143628E-15	9.452313E-17
5.520000E+03	5.119864E-15	9.386568E-17
5.530000E+03	5.095399E-15	9.324415E-17
5.540000E+03	5.071048E-15	9.266946E-17
5.550000E+03	5.046921E-15	9.213964E-17
5.560000E+03	5.023558E-15	9.166054E-17
5.570000E+03	5.001250E-15	9.123354E-17
5.580000E+03	4.979820E-15	9.085160E-17
5.590000E+03	4.960182E-15	9.052768E-17
5.600000E+03	4.941900E-15	9.025025E-17
5.610000E+03	4.925619E-15	9.002767E-17
5.620000E+03	4.911524E-15	8.986007E-17
5.630000E+03	4.899563E-15	8.974342E-17
5.640000E+03	4.890106E-15	8.968153E-17
5.650000E+03	4.883068E-15	8.967007E-17
5.660000E+03	4.878788E-15	8.971265E-17
5.670000E+03	4.877155E-15	8.980468E-17
5.680000E+03	4.878478E-15	8.994950E-17
5.690000E+03	4.882624E-15	9.014240E-17
5.700000E+03	4.889878E-15	9.038646E-17
5.710000E+03	4.900086E-15	9.067676E-17
5.720000E+03	4.913516E-15	9.101622E-17
5.730000E+03	4.929994E-15	9.139966E-17
5.740000E+03	4.949775E-15	9.182991E-17
5.750000E+03	4.972668E-15	9.230152E-17
5.760000E+03	4.999143E-15	9.282134E-17
5.770000E+03	5.028554E-15	9.337553E-17
5.780000E+03	5.061364E-15	9.397083E-17
5.790000E+03	5.097594E-15	9.460570E-17
5.800000E+03	5.137263E-15	9.527865E-17
5.810000E+03	5.180165E-15	9.598393E-17
5.820000E+03	5.226320E-15	9.671992E-17
5.830000E+03	5.275993E-15	9.748956E-17
5.840000E+03	5.329222E-15	9.829152E-17
5.850000E+03	5.386061E-15	9.912469E-17
5.860000E+03	5.446328E-15	9.998359E-17
5.870000E+03	5.510341E-15	1.008719E-16
5.880000E+03	5.577940E-15	1.017843E-16
5.890000E+03	5.649477E-15	1.027251E-16
5.900000E+03	5.725080E-15	1.036941E-16
5.910000E+03	5.804632E-15	1.046868E-16
5.920000E+03	5.888549E-15	1.057081E-16
5.930000E+03	5.977014E-15	1.067587E-16
5.940000E+03	6.069952E-15	1.078346E-16
5.950000E+03	6.167843E-15	1.089415E-16
5.960000E+03	6.270914E-15	1.100805E-16
5.970000E+03	6.379116E-15	1.112479E-16
5.980000E+03	6.492965E-15	1.124496E-16
5.990000E+03	6.612702E-15	1.136868E-16
6.000000E+03	6.738253E-15	1.149550E-16
6.010000E+03	6.870430E-15	1.162649E-16
6.020000E+03	7.008806E-15	1.176061E-16
6.030000E+03	7.153506E-15	1.189778E-16
6.040000E+03	7.305252E-15	1.203890E-16
6.050000E+03	7.463414E-15	1.218266E-16
6.060000E+03	7.628240E-15	1.232922E-16
6.070000E+03	7.799206E-15	1.247753E-16
6.080000E+03	7.976699E-15	1.262808E-16
6.090000E+03	8.159560E-15	1.277893E-16
6.100000E+03	8.347521E-15	1.292969E-16
6.110000E+03	8.539775E-15	1.307922E-16
6.120000E+03	8.734914E-15	1.322559E-16
6.130000E+03	8.932080E-15	1.336792E-16
6.140000E+03	9.129806E-15	1.350455E-16
6.150000E+03	9.326397E-15	1.363371E-16
6.160000E+03	9.519932E-15	1.375352E-16
6.170000E+03	9.707849E-15	1.386146E-16
6.180000E+03	9.888278E-15	1.395625E-16
6.190000E+03	1.005881E-14	1.403610E-16
6.200000E+03	1.021701E-14	1.409942E-16
6.210000E+03	1.036047E-14	1.414490E-16
6.220000E+03	1.048646E-14	1.417101E-16
6.230000E+03	1.059395E-14	1.417866E-16
6.240000E+03	1.068044E-14	1.416684E-16
6.250000E+03	1.074534E-14	1.413717E-16
6.260000E+03	1.078828E-14	1.409142E-16
6.270000E+03	1.080907E-14	1.403152E-16
6.280000E+03	1.080975E-14	1.396207E-16
6.290000E+03	1.079102E-14	1.388570E-16
6.300000E+03	1.075617E-14	1.380807E-16
6.310000E+03	1.070698E-14	1.373263E-16
6.320000E+03	1.064709E-14	1.366487E-16
6.330000E+03	1.057976E-14	1.360960E-16
6.340000E+03	1.050829E-14	1.357110E-16
6.350000E+03	1.043531E-14	1.355170E-16
6.360000E+03	1.036465E-14	1.355501E-16
6.370000E+03	1.029788E-14	1.358172E-16
6.380000E+03	1.023807E-14	1.363461E-16
6.390000E+03	1.018600E-14	1.371352E-16
6.400000E+03	1.014344E-14	1.381978E-16
6.410000E+03	1.011130E-14	1.395371E-16
6.420000E+03	1.009010E-14	1.411523E-16
6.430000E+03	1.008000E-14	1.430394E-16
6.440000E+03	1.008084E-14	1.451905E-16
6.450000E+03	1.009216E-14	1.475946E-16
6.460000E+03	1.011277E-14	1.502303E-16
6.470000E+03	1.014266E-14	1.530934E-16
6.480000E+03	1.018021E-14	1.561560E-16
6.490000E+03	1.022360E-14	1.593864E-16
6.500000E+03	1.027229E-14	1.627719E-16
6.510000E+03	1.032374E-14	1.662670E-16
6.520000E+03	1.037723E-14	1.698541E-16
6.530000E+03	1.043003E-14	1.734820E-16
6.540000E+03	1.048086E-14	1.771212E-16
6.550000E+03	1.052845E-14	1.807413E-16
6.560000E+03	1.057011E-14	1.842860E-16
6.570000E+03	1.060467E-14	1.877236E-16
6.580000E+03	1.063060E-14	1.910146E-16
6.590000E+03	1.064698E-14	1.941300E-16
6.600000E+03	1.065159E-14	1.970154E-16
6.610000E+03	1.064386E-14	1.996461E-16
6.620000E+03	1.062295E-14	2.019917E-16
6.630000E+03	1.058823E-14	2.040258E-16
6.640000E+03	1.053979E-14	2.057361E-16
6.650000E+03	1.047647E-14	2.070859E-16
6.660000E+03	1.039883E-14	2.080726E-16
6.670000E+03	1.030713E-14	2.086891E-16
6.680000E+03	1.020185E-14	2.089333E-16
6.690000E+03	1.008411E-14	2.088179E-16
6.700000E+03	9.953794E-15	2.083308E-16
6.710000E+03	9.812319E-15	2.074938E-16
6.720000E+03	9.660755E-15	2.063226E-16
6.730000E+03	9.500248E-15	2.048362E-16
6.740000E+03	9.332443E-15	2.030660E-16
6.750000E+03	9.157681E-15	2.010168E-16
6.760000E+03	8.977655E-15	1.987239E-16
6.770000E+03	8.794013E-15	1.962233E-16
6.780000E+03	8.607100E-15	1.935234E-16
6.790000E+03	8.418490E-15	1.906609E-16
6.800000E+03	8.229657E-15	1.876717E-16
6.810000E+03	8.040813E-15	1.845635E-16
6.820000E+03	7.853660E-15	1.813792E-16
6.830000E+03	7.668279E-15	1.781246E-16
6.840000E+03	7.486161E-15	1.748390E-16
6.850000E+03	7.307236E-15	1.715255E-16
6.860000E+03	7.132783E-15	1.682190E-16
6.870000E+03	6.962589E-15	1.649197E-16
6.880000E+03	6.797728E-15	1.616580E-16
6.890000E+03	6.637855E-15	1.584309E-16
6.900000E+03	6.483860E-15	1.552645E-16
6.910000E+03	6.335593E-15	1.521601E-16
6.920000E+03	6.192870E-15	1.491180E-16
6.930000E+03	6.056352E-15	1.461585E-16
6.940000E+03	5.925742E-15	1.432787E-16
6.950000E+03	5.800722E-15	1.404749E-16
6.960000E+03	5.681787E-15	1.377628E-16
6.970000E+03	5.568541E-15	1.351363E-16
6.980000E+03	5.460852E-15	1.325955E-16
6.990000E+03	5.358560E-15	1.301396E-16
7.000000E+03	5.261232E-15	1.277606E-16
7.010000E+03	5.169192E-15	1.254692E-16
7.020000E+03	5.081974E-15	1.232562E-16
7.030000E+03	4.999368E-15	1.211188E-16
7.040000E+03	4.921154E-15	1.190536E-16
7.050000E+03	4.846875E-15	1.170513E-16
7.060000E+03	4.776786E-15	1.151198E-16
7.070000E+03	4.710426E-15	1.132495E-16
7.080000E+03	4.647578E-15	1.114365E-16
7.090000E+03	4.588027E-15	1.096771E-16
7.100000E+03	4.531344E-15	1.079622E-16
7.110000E+03	4.477777E-15	1.062990E-16
7.120000E+03	4.426905E-15	1.046787E-16
7.130000E+03	4.378546E-15	1.030979E-16
7.140000E+03	4.332310E-15	1.015488E-16
7.150000E+03	4.288460E-15	1.000385E-16
7.160000E+03	4.246623E-15	9.855942E-17
7.170000E+03	4.206445E-15	9.710452E-17
7.180000E+03	4.168207E-15	9.568145E-17
7.190000E+03	4.131367E-15	9.427896E-17
7.200000E+03	4.096219E-15	9.290502E-17
7.210000E+03	4.062249E-15	9.154924E-17
7.220000E+03	4.029559E-15	9.021535E-17
7.230000E+03	3.998062E-15	8.890281E-17
7.240000E+03	3.967873E-15	8.761567E-17
7.250000E+03	3.938523E-15	8.634512E-17
7.260000E+03	3.910146E-15	8.509580E-17
7.270000E+03	3.882684E-15	8.386823E-17
7.280000E+03	3.856085E-15	8.266313E-17
7.290000E+03	3.830116E-15	8.147746E-17
7.300000E+03	3.805122E-15	8.032066E-17
7.310000E+03	3.780692E-15	7.918614E-17
7.320000E+03	3.757178E-15	7.808357E-17
7.330000E+03	3.734185E-15	7.700704E-17
7.340000E+03	3.711888E-15	7.596268E-17
7.350000E+03	3.690460E-15	7.495658E-17
7.360000E+03	3.669528E-15	7.398378E-17
7.370000E+03	3.649094E-15	7.304717E-17
7.380000E+03	3.629527E-15	7.215706E-17
7.390000E+03	3.610651E-15	7.131282E-17
7.400000E+03	3.592295E-15	7.051416E-17
7.410000E+03	3.574651E-15	6.976801E-17
7.420000E+03	3.557914E-15	6.908135E-17
7.430000E+03	3.541737E-15	6.845067E-17
7.440000E+03	3.526136E-15	6.787961E-17
7.450000E+03	3.511483E-15	6.737862E-17
7.460000E+03	3.497609E-15	6.694777E-17
7.470000E+03	3.484344E-15	6.658712E-17
7.480000E+03	3.471873E-15	6.630344E-17
7.490000E+03	3.460191E-15	6.609983E-17
7.500000E+03	3.449295E-15	6.597929E-17
7.510000E+03	3.438991E-15	6.594107E-17
7.520000E+03	3.429605E-15	6.599424E-17
7.530000E+03	3.420754E-15	6.613402E-17
7.540000E+03	3.412563E-15	6.636522E-17
7.550000E+03	3.404974E-15	6.668859E-17
7.560000E+03	3.397739E-15	6.709888E-17
7.570000E+03	3.391114E-15	6.759943E-17
7.580000E+03	3.384647E-15	6.817928E-17
7.590000E+03	3.378385E-15	6.883711E-17
7.600000E+03	3.372013E-15	6.956403E-17
7.610000E+03	3.365721E-15	7.036113E-17
7.620000E+03	3.358985E-15	7.121456E-17
7.630000E+03	3.351788E-15	7.212062E-17
7.640000E+03	3.343928E-15	7.307141E-17
7.650000E+03	3.335026E-15	7.405475E-17
7.660000E+03	3.325045E-15	7.506558E-17
7.670000E+03	3.313786E-15	7.609495E-17
7.680000E+03	3.301062E-15	7.713388E-17
7.690000E+03	3.286544E-15	7.816962E-17
7.700000E+03	3.270452E-15	7.920208E-17
7.710000E+03	3.252362E-15	8.021569E-17
7.720000E+03	3.232239E-15	8.120386E-17
7.730000E+03	3.210436E-15	8.216980E-17
7.740000E+03	3.186670E-15	8.310087E-17
7.750000E+03	3.161205E-15	8.399839E-17
7.760000E+03	3.134004E-15	8.485608E-17
