#wls	flux	fluxerr
1.600000E+03	3.175441E-15	4.015772E-16
1.640000E+03	3.245123E-15	4.061909E-16
1.680000E+03	3.314226E-15	4.104938E-16
1.720000E+03	3.383411E-15	4.145659E-16
1.760000E+03	3.452249E-15	4.183520E-16
1.800000E+03	3.522159E-15	4.220209E-16
1.840000E+03	3.592258E-15	4.254608E-16
1.880000E+03	3.663545E-15	4.287854E-16
1.920000E+03	3.735883E-15	4.319717E-16
1.960000E+03	3.811148E-15	4.352272E-16
2.000000E+03	3.888775E-15	4.384738E-16
2.040000E+03	3.970249E-15	4.418645E-16
2.080000E+03	4.056544E-15	4.454879E-16
2.120000E+03	4.148761E-15	4.494401E-16
2.160000E+03	4.248110E-15	4.538227E-16
2.200000E+03	4.355919E-15	4.587418E-16
2.240000E+03	4.473620E-15	4.643056E-16
2.280000E+03	4.602702E-15	4.706178E-16
2.320000E+03	4.744569E-15	4.777645E-16
2.360000E+03	4.901354E-15	4.858935E-16
2.400000E+03	5.072832E-15	4.949089E-16
2.440000E+03	5.262068E-15	5.050310E-16
2.480000E+03	5.469773E-15	5.162386E-16
2.520000E+03	5.697529E-15	5.285857E-16
2.560000E+03	5.946934E-15	5.421176E-16
2.600000E+03	6.219486E-15	5.568600E-16
2.640000E+03	6.517358E-15	5.728884E-16
2.680000E+03	6.839819E-15	5.900137E-16
2.720000E+03	7.187147E-15	6.081375E-16
2.760000E+03	7.556593E-15	6.269085E-16
2.800000E+03	7.945552E-15	6.460040E-16
2.840000E+03	8.351825E-15	6.651519E-16
2.880000E+03	8.769858E-15	6.838347E-16
2.920000E+03	9.195714E-15	7.016984E-16
2.960000E+03	9.621851E-15	7.181484E-16
3.000000E+03	1.004107E-14	7.326696E-16
3.010000E+03	1.014476E-14	7.360018E-16
3.020000E+03	1.024578E-14	7.390565E-16
3.030000E+03	1.034702E-14	7.420437E-16
3.040000E+03	1.044683E-14	7.448462E-16
3.050000E+03	1.054506E-14	7.474558E-16
3.060000E+03	1.064156E-14	7.498642E-16
3.070000E+03	1.073619E-14	7.520638E-16
3.080000E+03	1.082878E-14	7.540457E-16
3.090000E+03	1.092079E-14	7.559133E-16
3.100000E+03	1.100887E-14	7.574381E-16
3.110000E+03	1.109605E-14	7.588327E-16
3.120000E+03	1.117895E-14	7.598688E-16
3.130000E+03	1.126066E-14	7.607605E-16
3.140000E+03	1.133938E-14	7.613896E-16
3.150000E+03	1.141496E-14	7.617498E-16
3.160000E+03	1.148557E-14	7.617242E-16
3.170000E+03	1.155598E-14	7.616343E-16
3.180000E+03	1.162108E-14	7.611463E-16
3.190000E+03	1.168235E-14	7.603628E-16
3.200000E+03	1.173961E-14	7.592787E-16
3.210000E+03	1.179438E-14	7.579959E-16
3.220000E+03	1.184310E-14	7.562924E-16
3.230000E+03	1.188900E-14	7.543793E-16
3.240000E+03	1.192850E-14	7.520369E-16
3.250000E+03	1.196482E-14	7.494739E-16
3.260000E+03	1.199611E-14	7.465806E-16
3.270000E+03	1.202218E-14	7.433515E-16
3.280000E+03	1.204288E-14	7.397845E-16
3.290000E+03	1.205802E-14	7.358753E-16
3.300000E+03	1.206747E-14	7.316234E-16
3.310000E+03	1.207104E-14	7.270253E-16
3.320000E+03	1.207027E-14	7.221800E-16
3.330000E+03	1.206165E-14	7.168849E-16
3.340000E+03	1.204840E-14	7.113400E-16
3.350000E+03	1.202702E-14	7.053468E-16
3.360000E+03	1.200072E-14	6.991021E-16
3.370000E+03	1.196772E-14	6.925096E-16
3.380000E+03	1.192792E-14	6.855709E-16
3.390000E+03	1.188120E-14	6.782887E-16
3.400000E+03	1.182751E-14	6.706681E-16
3.410000E+03	1.176679E-14	6.627145E-16
3.420000E+03	1.169898E-14	6.544332E-16
3.430000E+03	1.162408E-14	6.458326E-16
3.440000E+03	1.154369E-14	6.370091E-16
3.450000E+03	1.145468E-14	6.277977E-16
3.460000E+03	1.135875E-14	6.183006E-16
3.470000E+03	1.125752E-14	6.086136E-16
3.480000E+03	1.114967E-14	5.986711E-16
3.490000E+03	1.103398E-14	5.884138E-16
3.500000E+03	1.091387E-14	5.780308E-16
3.510000E+03	1.078843E-14	5.674782E-16
3.520000E+03	1.065837E-14	5.567975E-16
3.530000E+03	1.052445E-14	5.460320E-16
3.540000E+03	1.038744E-14	5.352250E-16
3.550000E+03	1.024814E-14	5.244189E-16
3.560000E+03	1.010731E-14	5.136546E-16
3.570000E+03	9.965703E-15	5.029704E-16
3.580000E+03	9.825340E-15	4.924674E-16
3.590000E+03	9.684301E-15	4.820476E-16
3.600000E+03	9.545793E-15	4.718695E-16
3.610000E+03	9.407899E-15	4.618354E-16
3.620000E+03	9.273656E-15	4.520919E-16
3.630000E+03	9.141132E-15	4.425410E-16
3.640000E+03	9.013185E-15	4.333174E-16
3.650000E+03	8.889011E-15	4.243774E-16
3.660000E+03	8.768965E-15	4.157334E-16
3.670000E+03	8.653346E-15	4.073947E-16
3.680000E+03	8.541303E-15	3.993165E-16
3.690000E+03	8.435240E-15	3.916064E-16
3.700000E+03	8.334182E-15	3.842129E-16
3.710000E+03	8.239272E-15	3.771832E-16
3.720000E+03	8.148436E-15	3.704165E-16
3.730000E+03	8.062742E-15	3.639568E-16
3.740000E+03	7.982153E-15	3.577972E-16
3.750000E+03	7.906595E-15	3.519293E-16
3.760000E+03	7.836960E-15	3.463876E-16
3.770000E+03	7.771130E-15	3.410733E-16
3.780000E+03	7.709959E-15	3.360201E-16
3.790000E+03	7.654240E-15	3.312580E-16
3.800000E+03	7.601863E-15	3.266911E-16
3.810000E+03	7.554542E-15	3.223897E-16
3.820000E+03	7.510179E-15	3.182603E-16
3.830000E+03	7.470429E-15	3.143701E-16
3.840000E+03	7.433204E-15	3.106278E-16
3.850000E+03	7.400114E-15	3.070984E-16
3.860000E+03	7.369990E-15	3.037302E-16
3.870000E+03	7.341682E-15	3.004739E-16
3.880000E+03	7.316750E-15	2.973918E-16
3.890000E+03	7.294035E-15	2.944345E-16
3.900000E+03	7.273286E-15	2.915906E-16
3.910000E+03	7.253374E-15	2.888140E-16
3.920000E+03	7.235828E-15	2.861649E-16
3.930000E+03	7.219529E-15	2.835981E-16
3.940000E+03	7.204251E-15	2.811042E-16
3.950000E+03	7.189782E-15	2.786750E-16
3.960000E+03	7.175063E-15	2.762695E-16
3.970000E+03	7.161643E-15	2.739480E-16
3.980000E+03	7.148492E-15	2.716710E-16
3.990000E+03	7.135466E-15	2.694335E-16
4.000000E+03	7.122442E-15	2.672316E-16
4.010000E+03	7.109313E-15	2.650622E-16
4.020000E+03	7.095996E-15	2.629229E-16
4.030000E+03	7.081583E-15	2.607813E-16
4.040000E+03	7.067705E-15	2.586986E-16
4.050000E+03	7.053484E-15	2.566432E-16
4.060000E+03	7.038893E-15	2.546154E-16
4.070000E+03	7.023914E-15	2.526154E-16
4.080000E+03	7.008544E-15	2.506443E-16
4.090000E+03	6.991959E-15	2.486739E-16
4.100000E+03	6.975808E-15	2.467638E-16
4.110000E+03	6.959281E-15	2.448864E-16
4.120000E+03	6.942399E-15	2.430432E-16
4.130000E+03	6.925187E-15	2.412361E-16
4.140000E+03	6.906884E-15	2.394397E-16
4.150000E+03	6.889135E-15	2.377121E-16
4.160000E+03	6.871183E-15	2.360277E-16
4.170000E+03	6.852290E-15	2.343621E-16
4.180000E+03	6.834087E-15	2.327719E-16
4.190000E+03	6.815827E-15	2.312322E-16
4.200000E+03	6.796765E-15	2.297183E-16
4.210000E+03	6.778477E-15	2.282843E-16
4.220000E+03	6.759409E-15	2.268784E-16
4.230000E+03	6.741080E-15	2.255519E-16
4.240000E+03	6.721899E-15	2.242522E-16
4.250000E+03	6.702551E-15	2.230026E-16
4.260000E+03	6.683675E-15	2.218243E-16
4.270000E+03	6.663618E-15	2.206607E-16
4.280000E+03	6.642975E-15	2.195295E-16
4.290000E+03	6.621562E-15	2.184226E-16
4.300000E+03	6.599185E-15	2.173316E-16
4.310000E+03	6.576378E-15	2.162720E-16
4.320000E+03	6.551490E-15	2.151874E-16
4.330000E+03	6.525101E-15	2.140948E-16
4.340000E+03	6.496361E-15	2.129641E-16
4.350000E+03	6.466609E-15	2.118374E-16
4.360000E+03	6.435043E-15	2.106858E-16
4.370000E+03	6.401617E-15	2.095060E-16
4.380000E+03	6.365622E-15	2.082724E-16
4.390000E+03	6.328494E-15	2.070298E-16
4.400000E+03	6.288904E-15	2.057325E-16
4.410000E+03	6.248339E-15	2.044269E-16
4.420000E+03	6.205556E-15	2.030703E-16
4.430000E+03	6.162079E-15	2.017103E-16
4.440000E+03	6.116734E-15	2.003064E-16
4.450000E+03	6.070390E-15	1.988850E-16
4.460000E+03	6.023243E-15	1.974505E-16
4.470000E+03	5.975487E-15	1.960073E-16
4.480000E+03	5.927312E-15	1.945600E-16
4.490000E+03	5.878897E-15	1.931125E-16
4.500000E+03	5.829784E-15	1.916482E-16
4.510000E+03	5.781394E-15	1.902121E-16
4.520000E+03	5.732628E-15	1.887666E-16
4.530000E+03	5.684862E-15	1.873556E-16
4.540000E+03	5.637008E-15	1.859420E-16
4.550000E+03	5.589810E-15	1.845491E-16
4.560000E+03	5.543988E-15	1.831994E-16
4.570000E+03	5.498477E-15	1.818569E-16
4.580000E+03	5.454000E-15	1.805442E-16
4.590000E+03	5.410677E-15	1.792647E-16
4.600000E+03	5.368060E-15	1.780024E-16
4.610000E+03	5.327409E-15	1.767986E-16
4.620000E+03	5.287706E-15	1.756187E-16
4.630000E+03	5.250181E-15	1.745028E-16
4.640000E+03	5.213826E-15	1.734171E-16
4.650000E+03	5.179836E-15	1.724006E-16
4.660000E+03	5.147206E-15	1.714195E-16
4.670000E+03	5.116558E-15	1.704940E-16
4.680000E+03	5.087956E-15	1.696258E-16
4.690000E+03	5.060921E-15	1.687985E-16
4.700000E+03	5.036546E-15	1.680484E-16
4.710000E+03	5.014322E-15	1.673579E-16
4.720000E+03	4.993728E-15	1.667095E-16
4.730000E+03	4.975277E-15	1.661199E-16
4.740000E+03	4.959444E-15	1.656046E-16
4.750000E+03	4.945146E-15	1.651272E-16
4.760000E+03	4.932821E-15	1.647019E-16
4.770000E+03	4.922371E-15	1.643253E-16
4.780000E+03	4.913171E-15	1.639760E-16
4.790000E+03	4.906092E-15	1.636829E-16
4.800000E+03	4.899961E-15	1.634066E-16
4.810000E+03	4.895607E-15	1.631743E-16
4.820000E+03	4.891830E-15	1.629459E-16
4.830000E+03	4.888928E-15	1.627309E-16
4.840000E+03	4.886690E-15	1.625221E-16
4.850000E+03	4.884901E-15	1.623122E-16
4.860000E+03	4.883355E-15	1.620941E-16
4.870000E+03	4.881353E-15	1.618446E-16
4.880000E+03	4.879709E-15	1.615904E-16
4.890000E+03	4.877261E-15	1.612932E-16
4.900000E+03	4.874363E-15	1.609647E-16
4.910000E+03	4.870895E-15	1.606009E-16
4.920000E+03	4.866763E-15	1.601989E-16
4.930000E+03	4.861900E-15	1.597567E-16
4.940000E+03	4.856265E-15	1.592732E-16
4.950000E+03	4.849356E-15	1.587322E-16
4.960000E+03	4.842159E-15	1.581663E-16
4.970000E+03	4.833732E-15	1.575451E-16
4.980000E+03	4.824613E-15	1.568865E-16
4.990000E+03	4.814871E-15	1.561932E-16
5.000000E+03	4.804589E-15	1.554684E-16
5.010000E+03	4.793859E-15	1.547155E-16
5.020000E+03	4.782787E-15	1.539383E-16
5.030000E+03	4.771004E-15	1.531255E-16
5.040000E+03	4.759582E-15	1.523120E-16
5.050000E+03	4.747687E-15	1.514715E-16
5.060000E+03	4.735918E-15	1.506236E-16
5.070000E+03	4.724395E-15	1.497726E-16
5.080000E+03	4.713239E-15	1.489226E-16
5.090000E+03	4.702099E-15	1.480632E-16
5.100000E+03	4.692020E-15	1.472275E-16
5.110000E+03	4.682175E-15	1.463899E-16
5.120000E+03	4.673584E-15	1.455827E-16
5.130000E+03	4.665400E-15	1.447797E-16
5.140000E+03	4.658154E-15	1.439978E-16
5.150000E+03	4.651892E-15	1.432387E-16
5.160000E+03	4.646183E-15	1.424894E-16
5.170000E+03	4.641954E-15	1.417788E-16
5.180000E+03	4.638275E-15	1.410785E-16
5.190000E+03	4.636030E-15	1.404159E-16
5.200000E+03	4.634254E-15	1.397621E-16
5.210000E+03	4.633335E-15	1.391291E-16
5.220000E+03	4.633190E-15	1.385150E-16
5.230000E+03	4.633724E-15	1.379173E-16
5.240000E+03	4.634377E-15	1.373199E-16
5.250000E+03	4.635945E-15	1.367473E-16
5.260000E+03	4.637401E-15	1.361695E-16
5.270000E+03	4.639534E-15	1.356106E-16
5.280000E+03	4.641311E-15	1.350411E-16
5.290000E+03	4.643066E-15	1.344718E-16
5.300000E+03	4.644676E-15	1.339000E-16
5.310000E+03	4.645572E-15	1.333103E-16
5.320000E+03	4.646545E-15	1.327266E-16
5.330000E+03	4.646582E-15	1.321211E-16
5.340000E+03	4.646486E-15	1.315177E-16
5.350000E+03	4.645256E-15	1.308894E-16
5.360000E+03	4.643261E-15	1.302479E-16
5.370000E+03	4.640430E-15	1.295924E-16
5.380000E+03	4.636699E-15	1.289225E-16
5.390000E+03	4.632028E-15	1.282384E-16
5.400000E+03	4.625940E-15	1.275283E-16
5.410000E+03	4.619337E-15	1.268183E-16
5.420000E+03	4.611352E-15	1.260859E-16
5.430000E+03	4.602512E-15	1.253467E-16
5.440000E+03	4.592948E-15	1.246055E-16
5.450000E+03	4.582830E-15	1.238679E-16
5.460000E+03	4.572339E-15	1.231398E-16
5.470000E+03	4.561665E-15	1.224265E-16
5.480000E+03	4.550561E-15	1.217205E-16
5.490000E+03	4.540102E-15	1.210497E-16
5.500000E+03	4.529599E-15	1.203943E-16
5.510000E+03	4.520115E-15	1.197814E-16
5.520000E+03	4.510954E-15	1.191915E-16
5.530000E+03	4.502725E-15	1.186393E-16
5.540000E+03	4.495590E-15	1.181278E-16
5.550000E+03	4.489272E-15	1.176484E-16
5.560000E+03	4.484782E-15	1.172264E-16
5.570000E+03	4.481827E-15	1.168528E-16
5.580000E+03	4.480107E-15	1.165184E-16
5.590000E+03	4.480183E-15	1.162364E-16
5.600000E+03	4.482607E-15	1.160200E-16
5.610000E+03	4.486635E-15	1.158485E-16
5.620000E+03	4.492814E-15	1.157347E-16
5.630000E+03	4.501254E-15	1.156802E-16
5.640000E+03	4.511633E-15	1.156754E-16
5.650000E+03	4.524920E-15	1.157439E-16
5.660000E+03	4.540783E-15	1.158758E-16
5.670000E+03	4.558878E-15	1.160610E-16
5.680000E+03	4.579724E-15	1.163115E-16
5.690000E+03	4.603839E-15	1.166391E-16
5.700000E+03	4.630403E-15	1.170217E-16
5.710000E+03	4.659907E-15	1.174703E-16
5.720000E+03	4.692383E-15	1.179845E-16
5.730000E+03	4.727851E-15	1.185633E-16
5.740000E+03	4.765849E-15	1.191940E-16
5.750000E+03	4.807271E-15	1.198974E-16
5.760000E+03	4.851618E-15	1.206597E-16
5.770000E+03	4.898361E-15	1.214665E-16
5.780000E+03	4.947880E-15	1.223259E-16
5.790000E+03	5.000552E-15	1.232458E-16
5.800000E+03	5.055306E-15	1.241985E-16
5.810000E+03	5.112484E-15	1.251912E-16
5.820000E+03	5.171939E-15	1.262191E-16
5.830000E+03	5.233516E-15	1.272773E-16
5.840000E+03	5.297055E-15	1.283605E-16
5.850000E+03	5.361879E-15	1.294516E-16
5.860000E+03	5.428855E-15	1.305703E-16
5.870000E+03	5.496800E-15	1.316873E-16
5.880000E+03	5.566629E-15	1.328236E-16
5.890000E+03	5.637172E-15	1.339506E-16
5.900000E+03	5.709419E-15	1.350912E-16
5.910000E+03	5.782236E-15	1.362178E-16
5.920000E+03	5.856155E-15	1.373425E-16
5.930000E+03	5.931209E-15	1.384656E-16
5.940000E+03	6.007478E-15	1.395887E-16
5.950000E+03	6.085092E-15	1.407144E-16
5.960000E+03	6.163638E-15	1.418328E-16
5.970000E+03	6.244515E-15	1.429760E-16
5.980000E+03	6.327414E-15	1.441365E-16
5.990000E+03	6.412035E-15	1.453072E-16
6.000000E+03	6.499956E-15	1.465238E-16
6.010000E+03	6.590329E-15	1.477668E-16
6.020000E+03	6.684822E-15	1.490734E-16
6.030000E+03	6.782601E-15	1.504246E-16
6.040000E+03	6.884737E-15	1.518440E-16
6.050000E+03	6.991673E-15	1.533413E-16
6.060000E+03	7.103833E-15	1.549253E-16
6.070000E+03	7.221613E-15	1.566045E-16
6.080000E+03	7.345360E-15	1.583865E-16
6.090000E+03	7.475363E-15	1.602774E-16
6.100000E+03	7.611822E-15	1.622817E-16
6.110000E+03	7.754088E-15	1.643863E-16
6.120000E+03	7.903603E-15	1.666225E-16
6.130000E+03	8.059447E-15	1.689720E-16
6.140000E+03	8.220463E-15	1.714124E-16
6.150000E+03	8.387630E-15	1.739664E-16
6.160000E+03	8.558536E-15	1.765869E-16
6.170000E+03	8.732879E-15	1.792715E-16
6.180000E+03	8.909276E-15	1.819964E-16
6.190000E+03	9.086894E-15	1.847500E-16
6.200000E+03	9.261974E-15	1.874621E-16
6.210000E+03	9.432999E-15	1.901095E-16
6.220000E+03	9.597278E-15	1.926462E-16
6.230000E+03	9.751846E-15	1.950217E-16
6.240000E+03	9.893546E-15	1.971827E-16
6.250000E+03	1.001917E-14	1.990756E-16
6.260000E+03	1.012571E-14	2.006507E-16
6.270000E+03	1.020973E-14	2.018504E-16
6.280000E+03	1.027204E-14	2.027001E-16
6.290000E+03	1.031280E-14	2.032122E-16
6.300000E+03	1.033368E-14	2.034264E-16
6.310000E+03	1.033998E-14	2.034531E-16
6.320000E+03	1.033330E-14	2.033288E-16
6.330000E+03	1.031923E-14	2.031672E-16
6.340000E+03	1.029919E-14	2.029992E-16
6.350000E+03	1.027728E-14	2.029073E-16
6.360000E+03	1.025723E-14	2.029617E-16
6.370000E+03	1.023939E-14	2.031651E-16
6.380000E+03	1.022669E-14	2.035712E-16
6.390000E+03	1.022065E-14	2.042066E-16
6.400000E+03	1.022341E-14	2.051107E-16
6.410000E+03	1.023376E-14	2.062570E-16
6.420000E+03	1.025313E-14	2.076715E-16
6.430000E+03	1.028159E-14	2.093543E-16
6.440000E+03	1.031892E-14	2.112995E-16
6.450000E+03	1.036459E-14	2.134948E-16
6.460000E+03	1.041677E-14	2.159016E-16
6.470000E+03	1.047640E-14	2.185376E-16
6.480000E+03	1.054115E-14	2.213533E-16
6.490000E+03	1.060950E-14	2.243148E-16
6.500000E+03	1.067876E-14	2.273621E-16
6.510000E+03	1.074916E-14	2.304972E-16
6.520000E+03	1.081783E-14	2.336544E-16
6.530000E+03	1.088180E-14	2.367645E-16
6.540000E+03	1.094130E-14	2.398266E-16
6.550000E+03	1.099241E-14	2.427477E-16
6.560000E+03	1.103553E-14	2.455289E-16
6.570000E+03	1.106694E-14	2.480792E-16
6.580000E+03	1.108739E-14	2.504053E-16
6.590000E+03	1.109350E-14	2.524213E-16
6.600000E+03	1.108534E-14	2.541181E-16
6.610000E+03	1.106324E-14	2.554919E-16
6.620000E+03	1.102451E-14	2.564703E-16
6.630000E+03	1.096996E-14	2.570605E-16
6.640000E+03	1.089958E-14	2.572509E-16
6.650000E+03	1.081460E-14	2.570605E-16
6.660000E+03	1.071333E-14	2.564386E-16
6.670000E+03	1.059741E-14	2.554148E-16
6.680000E+03	1.046761E-14	2.539985E-16
6.690000E+03	1.032483E-14	2.522033E-16
6.700000E+03	1.017009E-14	2.500467E-16
6.710000E+03	1.000451E-14	2.475498E-16
6.720000E+03	9.829275E-15	2.447365E-16
6.730000E+03	9.645653E-15	2.416334E-16
6.740000E+03	9.454935E-15	2.382694E-16
6.750000E+03	9.257541E-15	2.346520E-16
6.760000E+03	9.056628E-15	2.308594E-16
6.770000E+03	8.852588E-15	2.269008E-16
6.780000E+03	8.646711E-15	2.228090E-16
6.790000E+03	8.439412E-15	2.185951E-16
6.800000E+03	8.233535E-15	2.143340E-16
6.810000E+03	8.029330E-15	2.100341E-16
6.820000E+03	7.827035E-15	2.057039E-16
6.830000E+03	7.629104E-15	2.014106E-16
6.840000E+03	7.435545E-15	1.971577E-16
6.850000E+03	7.246334E-15	1.929479E-16
6.860000E+03	7.063489E-15	1.888385E-16
6.870000E+03	6.886077E-15	1.848084E-16
6.880000E+03	6.715837E-15	1.809080E-16
6.890000E+03	6.551705E-15	1.771125E-16
6.900000E+03	6.394546E-15	1.734492E-16
6.910000E+03	6.245074E-15	1.699411E-16
6.920000E+03	6.102078E-15	1.665591E-16
6.930000E+03	5.966148E-15	1.633228E-16
6.940000E+03	5.837763E-15	1.602487E-16
6.950000E+03	5.715614E-15	1.573041E-16
6.960000E+03	5.600096E-15	1.545030E-16
6.970000E+03	5.490977E-15	1.518420E-16
6.980000E+03	5.387994E-15	1.493164E-16
6.990000E+03	5.290862E-15	1.469210E-16
7.000000E+03	5.199790E-15	1.446641E-16
7.010000E+03	5.113422E-15	1.425101E-16
7.020000E+03	5.031953E-15	1.404667E-16
7.030000E+03	4.955054E-15	1.385265E-16
7.040000E+03	4.881914E-15	1.366689E-16
7.050000E+03	4.813177E-15	1.349134E-16
7.060000E+03	4.748039E-15	1.332393E-16
7.070000E+03	4.686195E-15	1.316396E-16
7.080000E+03	4.627350E-15	1.301075E-16
7.090000E+03	4.571233E-15	1.286367E-16
7.100000E+03	4.517137E-15	1.272087E-16
7.110000E+03	4.465724E-15	1.258435E-16
7.120000E+03	4.416325E-15	1.245234E-16
7.130000E+03	4.368742E-15	1.232442E-16
7.140000E+03	4.322370E-15	1.219900E-16
7.150000E+03	4.277915E-15	1.207820E-16
7.160000E+03	4.234387E-15	1.195932E-16
7.170000E+03	4.192510E-15	1.184455E-16
7.180000E+03	4.151340E-15	1.173132E-16
7.190000E+03	4.111617E-15	1.162186E-16
7.200000E+03	4.072438E-15	1.151371E-16
7.210000E+03	4.034147E-15	1.140797E-16
7.220000E+03	3.997079E-15	1.130570E-16
7.230000E+03	3.960377E-15	1.120460E-16
7.240000E+03	3.924396E-15	1.110579E-16
7.250000E+03	3.889088E-15	1.100923E-16
7.260000E+03	3.854797E-15	1.091604E-16
7.270000E+03	3.820710E-15	1.082401E-16
7.280000E+03	3.787181E-15	1.073426E-16
7.290000E+03	3.754177E-15	1.064682E-16
7.300000E+03	3.721666E-15	1.056170E-16
7.310000E+03	3.689621E-15	1.047896E-16
7.320000E+03	3.658020E-15	1.039862E-16
7.330000E+03	3.626839E-15	1.032074E-16
7.340000E+03	3.596062E-15	1.024538E-16
7.350000E+03	3.565318E-15	1.017158E-16
7.360000E+03	3.535317E-15	1.010148E-16
7.370000E+03	3.505693E-15	1.003414E-16
7.380000E+03	3.476446E-15	9.969654E-17
7.390000E+03	3.447233E-15	9.907138E-17
7.400000E+03	3.418761E-15	9.848715E-17
7.410000E+03	3.390346E-15	9.792513E-17
7.420000E+03	3.362696E-15	9.740658E-17
7.430000E+03	3.335143E-15	9.691308E-17
7.440000E+03	3.308385E-15	9.646569E-17
7.450000E+03	3.281767E-15	9.604616E-17
7.460000E+03	3.255646E-15	9.566565E-17
7.470000E+03	3.230368E-15	9.533506E-17
7.480000E+03	3.205289E-15	9.503615E-17
7.490000E+03	3.180751E-15	9.477968E-17
7.500000E+03	3.156760E-15	9.456645E-17
7.510000E+03	3.133322E-15	9.439722E-17
7.520000E+03	3.110434E-15	9.427248E-17
7.530000E+03	3.088090E-15	9.419255E-17
7.540000E+03	3.066276E-15	9.415691E-17
7.550000E+03	3.044975E-15	9.416410E-17
7.560000E+03	3.024163E-15	9.421234E-17
7.570000E+03	3.003807E-15	9.429970E-17
7.580000E+03	2.983568E-15	9.441435E-17
7.590000E+03	2.964013E-15	9.457320E-17
7.600000E+03	2.944787E-15	9.476401E-17
7.610000E+03	2.925535E-15	9.497421E-17
7.620000E+03	2.906801E-15	9.522028E-17
7.630000E+03	2.887923E-15	9.547947E-17
7.640000E+03	2.869428E-15	9.576793E-17
7.650000E+03	2.850651E-15	9.606238E-17
7.660000E+03	2.831812E-15	9.636874E-17
7.670000E+03	2.812837E-15	9.668310E-17
7.680000E+03	2.793937E-15	9.701144E-17
7.690000E+03	2.774460E-15	9.732976E-17
7.700000E+03	2.754633E-15	9.764421E-17
7.710000E+03	2.734403E-15	9.795136E-17
7.720000E+03	2.713749E-15	9.824878E-17
7.730000E+03	2.692681E-15	9.853520E-17
7.740000E+03	2.671221E-15	9.880984E-17
7.750000E+03	2.649126E-15	9.906198E-17
7.760000E+03	2.626983E-15	9.931192E-17
