#wls	flux	fluxerr
1.600000E+03	3.090287E-15	3.944932E-16
1.640000E+03	3.158147E-15	3.985383E-16
1.680000E+03	3.225107E-15	4.022050E-16
1.720000E+03	3.292361E-15	4.056406E-16
1.760000E+03	3.358945E-15	4.087227E-16
1.800000E+03	3.425660E-15	4.115471E-16
1.840000E+03	3.493438E-15	4.142204E-16
1.880000E+03	3.561536E-15	4.166474E-16
1.920000E+03	3.631095E-15	4.189553E-16
1.960000E+03	3.702792E-15	4.212109E-16
2.000000E+03	3.778070E-15	4.235628E-16
2.040000E+03	3.856607E-15	4.259551E-16
2.080000E+03	3.940763E-15	4.286255E-16
2.120000E+03	4.031102E-15	4.316035E-16
2.160000E+03	4.128931E-15	4.349924E-16
2.200000E+03	4.235666E-15	4.388980E-16
2.240000E+03	4.353544E-15	4.434986E-16
2.280000E+03	4.484203E-15	4.488955E-16
2.320000E+03	4.627739E-15	4.550258E-16
2.360000E+03	4.787894E-15	4.621767E-16
2.400000E+03	4.964771E-15	4.702629E-16
2.440000E+03	5.160043E-15	4.793425E-16
2.480000E+03	5.376351E-15	4.895495E-16
2.520000E+03	5.615685E-15	5.009391E-16
2.560000E+03	5.879179E-15	5.134762E-16
2.600000E+03	6.170616E-15	5.273430E-16
2.640000E+03	6.489741E-15	5.423554E-16
2.680000E+03	6.838132E-15	5.584808E-16
2.720000E+03	7.215315E-15	5.755112E-16
2.760000E+03	7.619829E-15	5.931654E-16
2.800000E+03	8.049188E-15	6.110950E-16
2.840000E+03	8.498622E-15	6.288022E-16
2.880000E+03	8.967320E-15	6.461137E-16
2.920000E+03	9.445826E-15	6.622594E-16
2.960000E+03	9.928614E-15	6.768142E-16
3.000000E+03	1.040931E-14	6.893450E-16
3.010000E+03	1.052671E-14	6.920042E-16
3.020000E+03	1.064450E-14	6.945753E-16
3.030000E+03	1.076104E-14	6.969525E-16
3.040000E+03	1.087616E-14	6.991270E-16
3.050000E+03	1.098970E-14	7.010914E-16
3.060000E+03	1.110308E-14	7.029370E-16
3.070000E+03	1.121300E-14	7.044590E-16
3.080000E+03	1.132242E-14	7.058465E-16
3.090000E+03	1.142961E-14	7.069940E-16
3.100000E+03	1.153440E-14	7.078944E-16
3.110000E+03	1.163661E-14	7.085415E-16
3.120000E+03	1.173607E-14	7.089288E-16
3.130000E+03	1.183422E-14	7.091471E-16
3.140000E+03	1.192762E-14	7.089958E-16
3.150000E+03	1.201937E-14	7.086635E-16
3.160000E+03	1.210763E-14	7.080472E-16
3.170000E+03	1.219224E-14	7.071419E-16
3.180000E+03	1.227298E-14	7.059426E-16
3.190000E+03	1.234970E-14	7.044455E-16
3.200000E+03	1.242217E-14	7.026456E-16
3.210000E+03	1.249191E-14	7.006342E-16
3.220000E+03	1.255535E-14	6.982176E-16
3.230000E+03	1.261569E-14	6.955820E-16
3.240000E+03	1.267104E-14	6.926299E-16
3.250000E+03	1.272121E-14	6.893581E-16
3.260000E+03	1.276600E-14	6.857652E-16
3.270000E+03	1.280692E-14	6.819399E-16
3.280000E+03	1.284039E-14	6.776987E-16
3.290000E+03	1.286962E-14	6.732222E-16
3.300000E+03	1.289272E-14	6.684180E-16
3.310000E+03	1.290949E-14	6.632865E-16
3.320000E+03	1.291977E-14	6.578288E-16
3.330000E+03	1.292337E-14	6.520449E-16
3.340000E+03	1.292011E-14	6.459365E-16
3.350000E+03	1.291151E-14	6.395888E-16
3.360000E+03	1.289406E-14	6.328379E-16
3.370000E+03	1.287094E-14	6.258514E-16
3.380000E+03	1.284033E-14	6.185501E-16
3.390000E+03	1.280211E-14	6.109393E-16
3.400000E+03	1.275617E-14	6.030247E-16
3.410000E+03	1.270240E-14	5.948126E-16
3.420000E+03	1.264076E-14	5.863115E-16
3.430000E+03	1.257278E-14	5.776031E-16
3.440000E+03	1.249684E-14	5.686226E-16
3.450000E+03	1.241138E-14	5.593104E-16
3.460000E+03	1.231962E-14	5.498235E-16
3.470000E+03	1.222011E-14	5.401057E-16
3.480000E+03	1.211303E-14	5.301742E-16
3.490000E+03	1.200017E-14	5.201144E-16
3.500000E+03	1.187895E-14	5.098217E-16
3.510000E+03	1.175301E-14	4.994593E-16
3.520000E+03	1.162019E-14	4.889405E-16
3.530000E+03	1.148422E-14	4.784277E-16
3.540000E+03	1.134448E-14	4.678976E-16
3.550000E+03	1.120182E-14	4.573880E-16
3.560000E+03	1.105710E-14	4.469356E-16
3.570000E+03	1.091112E-14	4.365732E-16
3.580000E+03	1.076598E-14	4.263839E-16
3.590000E+03	1.061976E-14	4.162901E-16
3.600000E+03	1.047574E-14	4.064193E-16
3.610000E+03	1.033200E-14	3.966933E-16
3.620000E+03	1.019162E-14	3.872279E-16
3.630000E+03	1.005385E-14	3.779897E-16
3.640000E+03	9.919163E-15	3.689916E-16
3.650000E+03	9.787946E-15	3.602435E-16
3.660000E+03	9.660549E-15	3.517532E-16
3.670000E+03	9.538389E-15	3.435662E-16
3.680000E+03	9.419424E-15	3.356028E-16
3.690000E+03	9.306082E-15	3.279442E-16
3.700000E+03	9.196288E-15	3.205109E-16
3.710000E+03	9.092310E-15	3.133764E-16
3.720000E+03	8.993096E-15	3.064976E-16
3.730000E+03	8.898654E-15	2.998688E-16
3.740000E+03	8.808956E-15	2.934835E-16
3.750000E+03	8.723938E-15	2.873338E-16
3.760000E+03	8.643507E-15	2.814112E-16
3.770000E+03	8.567545E-15	2.757067E-16
3.780000E+03	8.496884E-15	2.702416E-16
3.790000E+03	8.429402E-15	2.649434E-16
3.800000E+03	8.365906E-15	2.598338E-16
3.810000E+03	8.307143E-15	2.549314E-16
3.820000E+03	8.251008E-15	2.501676E-16
3.830000E+03	8.199165E-15	2.455898E-16
3.840000E+03	8.150445E-15	2.411591E-16
3.850000E+03	8.104619E-15	2.368661E-16
3.860000E+03	8.061454E-15	2.327015E-16
3.870000E+03	8.020715E-15	2.286567E-16
3.880000E+03	7.982169E-15	2.247233E-16
3.890000E+03	7.945585E-15	2.208937E-16
3.900000E+03	7.910734E-15	2.171605E-16
3.910000E+03	7.877396E-15	2.135172E-16
3.920000E+03	7.845361E-15	2.099579E-16
3.930000E+03	7.814425E-15	2.064773E-16
3.940000E+03	7.784396E-15	2.030708E-16
3.950000E+03	7.755940E-15	1.997564E-16
3.960000E+03	7.727198E-15	1.964868E-16
3.970000E+03	7.698870E-15	1.932818E-16
3.980000E+03	7.671650E-15	1.901603E-16
3.990000E+03	7.643757E-15	1.870795E-16
4.000000E+03	7.616740E-15	1.840799E-16
4.010000E+03	7.588872E-15	1.811216E-16
4.020000E+03	7.561709E-15	1.782446E-16
4.030000E+03	7.533578E-15	1.754116E-16
4.040000E+03	7.506042E-15	1.726621E-16
4.050000E+03	7.477474E-15	1.699612E-16
4.060000E+03	7.449441E-15	1.673477E-16
4.070000E+03	7.420358E-15	1.647887E-16
4.080000E+03	7.391789E-15	1.623223E-16
4.090000E+03	7.362186E-15	1.599172E-16
4.100000E+03	7.333106E-15	1.576105E-16
4.110000E+03	7.303032E-15	1.553725E-16
4.120000E+03	7.273507E-15	1.532392E-16
4.130000E+03	7.243041E-15	1.511819E-16
4.140000E+03	7.213155E-15	1.492354E-16
4.150000E+03	7.182378E-15	1.473717E-16
4.160000E+03	7.152208E-15	1.456245E-16
4.170000E+03	7.121180E-15	1.439661E-16
4.180000E+03	7.090760E-15	1.424285E-16
4.190000E+03	7.059488E-15	1.409843E-16
4.200000E+03	7.028070E-15	1.396496E-16
4.210000E+03	6.996476E-15	1.384253E-16
4.220000E+03	6.965357E-15	1.373254E-16
4.230000E+03	6.933238E-15	1.363217E-16
4.240000E+03	6.900746E-15	1.354266E-16
4.250000E+03	6.867784E-15	1.346344E-16
4.260000E+03	6.834243E-15	1.339376E-16
4.270000E+03	6.800001E-15	1.333279E-16
4.280000E+03	6.764932E-15	1.327969E-16
4.290000E+03	6.728894E-15	1.323356E-16
4.300000E+03	6.691092E-15	1.319221E-16
4.310000E+03	6.652727E-15	1.315736E-16
4.320000E+03	6.613046E-15	1.312688E-16
4.330000E+03	6.571370E-15	1.309876E-16
4.340000E+03	6.528980E-15	1.307491E-16
4.350000E+03	6.484602E-15	1.305214E-16
4.360000E+03	6.438896E-15	1.303112E-16
4.370000E+03	6.391901E-15	1.301131E-16
4.380000E+03	6.343668E-15	1.299222E-16
4.390000E+03	6.294262E-15	1.297339E-16
4.400000E+03	6.243767E-15	1.295443E-16
4.410000E+03	6.192282E-15	1.293502E-16
4.420000E+03	6.139923E-15	1.291488E-16
4.430000E+03	6.086236E-15	1.289259E-16
4.440000E+03	6.032528E-15	1.287045E-16
4.450000E+03	5.977795E-15	1.284591E-16
4.460000E+03	5.922768E-15	1.282014E-16
4.470000E+03	5.867608E-15	1.279314E-16
4.480000E+03	5.812476E-15	1.276495E-16
4.490000E+03	5.757529E-15	1.273563E-16
4.500000E+03	5.702927E-15	1.270527E-16
4.510000E+03	5.648824E-15	1.267399E-16
4.520000E+03	5.594846E-15	1.264076E-16
4.530000E+03	5.541673E-15	1.260691E-16
4.540000E+03	5.489955E-15	1.257381E-16
4.550000E+03	5.438794E-15	1.253927E-16
4.560000E+03	5.388337E-15	1.250352E-16
4.570000E+03	5.339704E-15	1.246907E-16
4.580000E+03	5.292505E-15	1.243498E-16
4.590000E+03	5.246361E-15	1.240030E-16
4.600000E+03	5.202338E-15	1.236752E-16
4.610000E+03	5.159569E-15	1.233457E-16
4.620000E+03	5.118616E-15	1.230279E-16
4.630000E+03	5.079552E-15	1.227237E-16
4.640000E+03	5.041980E-15	1.224234E-16
4.650000E+03	5.006879E-15	1.221512E-16
4.660000E+03	4.973376E-15	1.218860E-16
4.670000E+03	4.941963E-15	1.216403E-16
4.680000E+03	4.912661E-15	1.214147E-16
4.690000E+03	4.885480E-15	1.212101E-16
4.700000E+03	4.860416E-15	1.210267E-16
4.710000E+03	4.837021E-15	1.208537E-16
4.720000E+03	4.815704E-15	1.207015E-16
4.730000E+03	4.796854E-15	1.205804E-16
4.740000E+03	4.779556E-15	1.204677E-16
4.750000E+03	4.763746E-15	1.203620E-16
4.760000E+03	4.750199E-15	1.202831E-16
4.770000E+03	4.737970E-15	1.202073E-16
4.780000E+03	4.727380E-15	1.201428E-16
4.790000E+03	4.718315E-15	1.200871E-16
4.800000E+03	4.710649E-15	1.200369E-16
4.810000E+03	4.704250E-15	1.199891E-16
4.820000E+03	4.698566E-15	1.199295E-16
4.830000E+03	4.694287E-15	1.198759E-16
4.840000E+03	4.690441E-15	1.198034E-16
4.850000E+03	4.686890E-15	1.197087E-16
4.860000E+03	4.684319E-15	1.196092E-16
4.870000E+03	4.682185E-15	1.194912E-16
4.880000E+03	4.679955E-15	1.193411E-16
4.890000E+03	4.677926E-15	1.191667E-16
4.900000E+03	4.675998E-15	1.189655E-16
4.910000E+03	4.673679E-15	1.187252E-16
4.920000E+03	4.671707E-15	1.184648E-16
4.930000E+03	4.669218E-15	1.181627E-16
4.940000E+03	4.666576E-15	1.178285E-16
4.950000E+03	4.663759E-15	1.174618E-16
4.960000E+03	4.660357E-15	1.170530E-16
4.970000E+03	4.657181E-15	1.166227E-16
4.980000E+03	4.653452E-15	1.161519E-16
4.990000E+03	4.649605E-15	1.156521E-16
5.000000E+03	4.645688E-15	1.151249E-16
5.010000E+03	4.641358E-15	1.145626E-16
5.020000E+03	4.637476E-15	1.139870E-16
5.030000E+03	4.633321E-15	1.133810E-16
5.040000E+03	4.629366E-15	1.127567E-16
5.050000E+03	4.625691E-15	1.121169E-16
5.060000E+03	4.621986E-15	1.114546E-16
5.070000E+03	4.619117E-15	1.107914E-16
5.080000E+03	4.616379E-15	1.101110E-16
5.090000E+03	4.614240E-15	1.094253E-16
5.100000E+03	4.612379E-15	1.087272E-16
5.110000E+03	4.611640E-15	1.080376E-16
5.120000E+03	4.611298E-15	1.073398E-16
5.130000E+03	4.611786E-15	1.066447E-16
5.140000E+03	4.613136E-15	1.059537E-16
5.150000E+03	4.615369E-15	1.052681E-16
5.160000E+03	4.618103E-15	1.045797E-16
5.170000E+03	4.621718E-15	1.038983E-16
5.180000E+03	4.626191E-15	1.032239E-16
5.190000E+03	4.631487E-15	1.025568E-16
5.200000E+03	4.637554E-15	1.018967E-16
5.210000E+03	4.643937E-15	1.012347E-16
5.220000E+03	4.651337E-15	1.005873E-16
5.230000E+03	4.658883E-15	9.993685E-17
5.240000E+03	4.666474E-15	9.928277E-17
5.250000E+03	4.674774E-15	9.864076E-17
5.260000E+03	4.682885E-15	9.799341E-17
5.270000E+03	4.691067E-15	9.734810E-17
5.280000E+03	4.699186E-15	9.670397E-17
5.290000E+03	4.707106E-15	9.606029E-17
5.300000E+03	4.714685E-15	9.541639E-17
5.310000E+03	4.721395E-15	9.476396E-17
5.320000E+03	4.727487E-15	9.411069E-17
5.330000E+03	4.732826E-15	9.345650E-17
5.340000E+03	4.737286E-15	9.280156E-17
5.350000E+03	4.740743E-15	9.214630E-17
5.360000E+03	4.742696E-15	9.148387E-17
5.370000E+03	4.743440E-15	9.082299E-17
5.380000E+03	4.742892E-15	9.016498E-17
5.390000E+03	4.740984E-15	8.951148E-17
5.400000E+03	4.737673E-15	8.886455E-17
5.410000E+03	4.732551E-15	8.821939E-17
5.420000E+03	4.726410E-15	8.759350E-17
5.430000E+03	4.718533E-15	8.697611E-17
5.440000E+03	4.709043E-15	8.637198E-17
5.450000E+03	4.698869E-15	8.580037E-17
5.460000E+03	4.687803E-15	8.525935E-17
5.470000E+03	4.675647E-15	8.474691E-17
5.480000E+03	4.662984E-15	8.427288E-17
5.490000E+03	4.650017E-15	8.383851E-17
5.500000E+03	4.636954E-15	8.344498E-17
5.510000E+03	4.623622E-15	8.308652E-17
5.520000E+03	4.610985E-15	8.277773E-17
5.530000E+03	4.598491E-15	8.250587E-17
5.540000E+03	4.586717E-15	8.227851E-17
5.550000E+03	4.575854E-15	8.209631E-17
5.560000E+03	4.566089E-15	8.195988E-17
5.570000E+03	4.557227E-15	8.186302E-17
5.580000E+03	4.550185E-15	8.181959E-17
5.590000E+03	4.544379E-15	8.181658E-17
5.600000E+03	4.540337E-15	8.186103E-17
5.610000E+03	4.538204E-15	8.195321E-17
5.620000E+03	4.537746E-15	8.208668E-17
5.630000E+03	4.539834E-15	8.227504E-17
5.640000E+03	4.543845E-15	8.250497E-17
5.650000E+03	4.550633E-15	8.279004E-17
5.660000E+03	4.559561E-15	8.311679E-17
5.670000E+03	4.571088E-15	8.349185E-17
5.680000E+03	4.584929E-15	8.390825E-17
5.690000E+03	4.601901E-15	8.437932E-17
5.700000E+03	4.621319E-15	8.489096E-17
5.710000E+03	4.643991E-15	8.545642E-17
5.720000E+03	4.669203E-15	8.606113E-17
5.730000E+03	4.697365E-15	8.671113E-17
5.740000E+03	4.728498E-15	8.740538E-17
5.750000E+03	4.762226E-15	8.813545E-17
5.760000E+03	4.799324E-15	8.891423E-17
5.770000E+03	4.839003E-15	8.972571E-17
5.780000E+03	4.882035E-15	9.058269E-17
5.790000E+03	4.927601E-15	9.146856E-17
5.800000E+03	4.976068E-15	9.238862E-17
5.810000E+03	5.027400E-15	9.334071E-17
5.820000E+03	5.081149E-15	9.431498E-17
5.830000E+03	5.138101E-15	9.532449E-17
5.840000E+03	5.197811E-15	9.635943E-17
5.850000E+03	5.259826E-15	9.740983E-17
5.860000E+03	5.324541E-15	9.848143E-17
5.870000E+03	5.391947E-15	9.957249E-17
5.880000E+03	5.462047E-15	1.006815E-16
5.890000E+03	5.534861E-15	1.018072E-16
5.900000E+03	5.610428E-15	1.029487E-16
5.910000E+03	5.688348E-15	1.040971E-16
5.920000E+03	5.769621E-15	1.052691E-16
5.930000E+03	5.853427E-15	1.064483E-16
5.940000E+03	5.940363E-15	1.076438E-16
5.950000E+03	6.030588E-15	1.088571E-16
5.960000E+03	6.124288E-15	1.100899E-16
5.970000E+03	6.221672E-15	1.113444E-16
5.980000E+03	6.322969E-15	1.126233E-16
5.990000E+03	6.428428E-15	1.139293E-16
6.000000E+03	6.537778E-15	1.152563E-16
6.010000E+03	6.652342E-15	1.166260E-16
6.020000E+03	6.771317E-15	1.180230E-16
6.030000E+03	6.896055E-15	1.194695E-16
6.040000E+03	7.025691E-15	1.209490E-16
6.050000E+03	7.160989E-15	1.224738E-16
6.060000E+03	7.302130E-15	1.240459E-16
6.070000E+03	7.449236E-15	1.256665E-16
6.080000E+03	7.601747E-15	1.273257E-16
6.090000E+03	7.760861E-15	1.290434E-16
6.100000E+03	7.925845E-15	1.308075E-16
6.110000E+03	8.095795E-15	1.326039E-16
6.120000E+03	8.271634E-15	1.344492E-16
6.130000E+03	8.451490E-15	1.363149E-16
6.140000E+03	8.635310E-15	1.382033E-16
6.150000E+03	8.822195E-15	1.401040E-16
6.160000E+03	9.011041E-15	1.420044E-16
6.170000E+03	9.200530E-15	1.438900E-16
6.180000E+03	9.389129E-15	1.457443E-16
6.190000E+03	9.575087E-15	1.475490E-16
6.200000E+03	9.756455E-15	1.492843E-16
6.210000E+03	9.930296E-15	1.509168E-16
6.220000E+03	1.009595E-14	1.524495E-16
6.230000E+03	1.024946E-14	1.538362E-16
6.240000E+03	1.039012E-14	1.550818E-16
6.250000E+03	1.051404E-14	1.561429E-16
6.260000E+03	1.062007E-14	1.570186E-16
6.270000E+03	1.070756E-14	1.577147E-16
6.280000E+03	1.077409E-14	1.582101E-16
6.290000E+03	1.082121E-14	1.585414E-16
6.300000E+03	1.085054E-14	1.587445E-16
6.310000E+03	1.086423E-14	1.588613E-16
6.320000E+03	1.086474E-14	1.589364E-16
6.330000E+03	1.085465E-14	1.590147E-16
6.340000E+03	1.083566E-14	1.591269E-16
6.350000E+03	1.081207E-14	1.593367E-16
6.360000E+03	1.078531E-14	1.596584E-16
6.370000E+03	1.075661E-14	1.601014E-16
6.380000E+03	1.072958E-14	1.607107E-16
6.390000E+03	1.070400E-14	1.614750E-16
6.400000E+03	1.068289E-14	1.624314E-16
6.410000E+03	1.066546E-14	1.635603E-16
6.420000E+03	1.065325E-14	1.648782E-16
6.430000E+03	1.064664E-14	1.663843E-16
6.440000E+03	1.064663E-14	1.680882E-16
6.450000E+03	1.065133E-14	1.699545E-16
6.460000E+03	1.066124E-14	1.719856E-16
6.470000E+03	1.067578E-14	1.741666E-16
6.480000E+03	1.069417E-14	1.764798E-16
6.490000E+03	1.071547E-14	1.789040E-16
6.500000E+03	1.073862E-14	1.814157E-16
6.510000E+03	1.076151E-14	1.839732E-16
6.520000E+03	1.078466E-14	1.865785E-16
6.530000E+03	1.080585E-14	1.891863E-16
6.540000E+03	1.082373E-14	1.917651E-16
6.550000E+03	1.083606E-14	1.942667E-16
6.560000E+03	1.084331E-14	1.966904E-16
6.570000E+03	1.084336E-14	1.989882E-16
6.580000E+03	1.083416E-14	2.011122E-16
6.590000E+03	1.081646E-14	2.030657E-16
6.600000E+03	1.078757E-14	2.047875E-16
6.610000E+03	1.074764E-14	2.062690E-16
6.620000E+03	1.069700E-14	2.075054E-16
6.630000E+03	1.063345E-14	2.084436E-16
6.640000E+03	1.055766E-14	2.090857E-16
6.650000E+03	1.047048E-14	2.094378E-16
6.660000E+03	1.037028E-14	2.094582E-16
6.670000E+03	1.025824E-14	2.091612E-16
6.680000E+03	1.013483E-14	2.085478E-16
6.690000E+03	1.000064E-14	2.076228E-16
6.700000E+03	9.856412E-15	2.063949E-16
6.710000E+03	9.702973E-15	2.048758E-16
6.720000E+03	9.541253E-15	2.030805E-16
6.730000E+03	9.372251E-15	2.010266E-16
6.740000E+03	9.197015E-15	1.987339E-16
6.750000E+03	9.016627E-15	1.962241E-16
6.760000E+03	8.832179E-15	1.935202E-16
6.770000E+03	8.644761E-15	1.906460E-16
6.780000E+03	8.455443E-15	1.876261E-16
6.790000E+03	8.265257E-15	1.844848E-16
6.800000E+03	8.074510E-15	1.812313E-16
6.810000E+03	7.885497E-15	1.779196E-16
6.820000E+03	7.698379E-15	1.745567E-16
6.830000E+03	7.513308E-15	1.711495E-16
6.840000E+03	7.332258E-15	1.677469E-16
6.850000E+03	7.154600E-15	1.643386E-16
6.860000E+03	6.982084E-15	1.609688E-16
6.870000E+03	6.813969E-15	1.576248E-16
6.880000E+03	6.651786E-15	1.543462E-16
6.890000E+03	6.494689E-15	1.511176E-16
6.900000E+03	6.344004E-15	1.479740E-16
6.910000E+03	6.198799E-15	1.448975E-16
6.920000E+03	6.059704E-15	1.419068E-16
6.930000E+03	5.927248E-15	1.390178E-16
6.940000E+03	5.800395E-15	1.362096E-16
6.950000E+03	5.679587E-15	1.334958E-16
6.960000E+03	5.564716E-15	1.308769E-16
6.970000E+03	5.456097E-15	1.283631E-16
6.980000E+03	5.352628E-15	1.259310E-16
6.990000E+03	5.254581E-15	1.235893E-16
7.000000E+03	5.161744E-15	1.213353E-16
7.010000E+03	5.073882E-15	1.191654E-16
7.020000E+03	4.990755E-15	1.170758E-16
7.030000E+03	4.912115E-15	1.150624E-16
7.040000E+03	4.837711E-15	1.131208E-16
7.050000E+03	4.767288E-15	1.112465E-16
7.060000E+03	4.700200E-15	1.094257E-16
7.070000E+03	4.637002E-15	1.076726E-16
7.080000E+03	4.577050E-15	1.059735E-16
7.090000E+03	4.520115E-15	1.043240E-16
7.100000E+03	4.465592E-15	1.027114E-16
7.110000E+03	4.414038E-15	1.011495E-16
7.120000E+03	4.364868E-15	9.962594E-17
7.130000E+03	4.317527E-15	9.812912E-17
7.140000E+03	4.272582E-15	9.667301E-17
7.150000E+03	4.229137E-15	9.523836E-17
7.160000E+03	4.187771E-15	9.383933E-17
7.170000E+03	4.147624E-15	9.245779E-17
7.180000E+03	4.108934E-15	9.110027E-17
7.190000E+03	4.071935E-15	8.977313E-17
7.200000E+03	4.035822E-15	8.845986E-17
7.210000E+03	4.000851E-15	8.716750E-17
7.220000E+03	3.966938E-15	8.589558E-17
7.230000E+03	3.934004E-15	8.464385E-17
7.240000E+03	3.901981E-15	8.341236E-17
7.250000E+03	3.870803E-15	8.220131E-17
7.260000E+03	3.840415E-15	8.101119E-17
7.270000E+03	3.810767E-15	7.984264E-17
7.280000E+03	3.781812E-15	7.869653E-17
7.290000E+03	3.753511E-15	7.757391E-17
7.300000E+03	3.725825E-15	7.647598E-17
7.310000E+03	3.698408E-15	7.539767E-17
7.320000E+03	3.671870E-15	7.435363E-17
7.330000E+03	3.645868E-15	7.333903E-17
7.340000E+03	3.620069E-15	7.234944E-17
7.350000E+03	3.595088E-15	7.139954E-17
7.360000E+03	3.570287E-15	7.047904E-17
7.370000E+03	3.545969E-15	6.959646E-17
7.380000E+03	3.522435E-15	6.876014E-17
7.390000E+03	3.499067E-15	6.796057E-17
7.400000E+03	3.476172E-15	6.720629E-17
7.410000E+03	3.453748E-15	6.649991E-17
7.420000E+03	3.431797E-15	6.584402E-17
7.430000E+03	3.410321E-15	6.524124E-17
7.440000E+03	3.389319E-15	6.469409E-17
7.450000E+03	3.368792E-15	6.420510E-17
7.460000E+03	3.348738E-15	6.377664E-17
7.470000E+03	3.329154E-15	6.341100E-17
7.480000E+03	3.309743E-15	6.310473E-17
7.490000E+03	3.291076E-15	6.287082E-17
7.500000E+03	3.272560E-15	6.269984E-17
7.510000E+03	3.254754E-15	6.260423E-17
7.520000E+03	3.237061E-15	6.257410E-17
7.530000E+03	3.220022E-15	6.262117E-17
7.540000E+03	3.203039E-15	6.273469E-17
7.550000E+03	3.186353E-15	6.291813E-17
7.560000E+03	3.169923E-15	6.316859E-17
7.570000E+03	3.153698E-15	6.348269E-17
7.580000E+03	3.137624E-15	6.385694E-17
7.590000E+03	3.121640E-15	6.428748E-17
7.600000E+03	3.105682E-15	6.477027E-17
7.610000E+03	3.089682E-15	6.530106E-17
7.620000E+03	3.073295E-15	6.586956E-17
7.630000E+03	3.056994E-15	6.648280E-17
7.640000E+03	3.040159E-15	6.712428E-17
7.650000E+03	3.023254E-15	6.780095E-17
7.660000E+03	3.005663E-15	6.849588E-17
7.670000E+03	2.987579E-15	6.920997E-17
7.680000E+03	2.969198E-15	6.994449E-17
7.690000E+03	2.949922E-15	7.068208E-17
7.700000E+03	2.929959E-15	7.142408E-17
7.710000E+03	2.909264E-15	7.216597E-17
7.720000E+03	2.887824E-15	7.290398E-17
7.730000E+03	2.865401E-15	7.362860E-17
7.740000E+03	2.842537E-15	7.435038E-17
7.750000E+03	2.819015E-15	7.506072E-17
7.760000E+03	2.794628E-15	7.575092E-17
