#wls	flux	fluxerr
1.600000E+03	3.255541E-15	3.933607E-16
1.640000E+03	3.330222E-15	3.983073E-16
1.680000E+03	3.404853E-15	4.030092E-16
1.720000E+03	3.479519E-15	4.074737E-16
1.760000E+03	3.554977E-15	4.117854E-16
1.800000E+03	3.631456E-15	4.159650E-16
1.840000E+03	3.708610E-15	4.199666E-16
1.880000E+03	3.787423E-15	4.238957E-16
1.920000E+03	3.867674E-15	4.277187E-16
1.960000E+03	3.950537E-15	4.315565E-16
2.000000E+03	4.036645E-15	4.354647E-16
2.040000E+03	4.126745E-15	4.395080E-16
2.080000E+03	4.220991E-15	4.436846E-16
2.120000E+03	4.320340E-15	4.480752E-16
2.160000E+03	4.427373E-15	4.529211E-16
2.200000E+03	4.541863E-15	4.581658E-16
2.240000E+03	4.665901E-15	4.639833E-16
2.280000E+03	4.800898E-15	4.704680E-16
2.320000E+03	4.948159E-15	4.776954E-16
2.360000E+03	5.108028E-15	4.856409E-16
2.400000E+03	5.282493E-15	4.944311E-16
2.440000E+03	5.472772E-15	5.041090E-16
2.480000E+03	5.680116E-15	5.147135E-16
2.520000E+03	5.905795E-15	5.262772E-16
2.560000E+03	6.151064E-15	5.388231E-16
2.600000E+03	6.416016E-15	5.522668E-16
2.640000E+03	6.703481E-15	5.667545E-16
2.680000E+03	7.011217E-15	5.819944E-16
2.720000E+03	7.340319E-15	5.979806E-16
2.760000E+03	7.686547E-15	6.142730E-16
2.800000E+03	8.049582E-15	6.307635E-16
2.840000E+03	8.423427E-15	6.469105E-16
2.880000E+03	8.804987E-15	6.624293E-16
2.920000E+03	9.190531E-15	6.770097E-16
2.960000E+03	9.571220E-15	6.899984E-16
3.000000E+03	9.941559E-15	7.010366E-16
3.010000E+03	1.003102E-14	7.033922E-16
3.020000E+03	1.012067E-14	7.056904E-16
3.030000E+03	1.020886E-14	7.078158E-16
3.040000E+03	1.029387E-14	7.096524E-16
3.050000E+03	1.037870E-14	7.114100E-16
3.060000E+03	1.046165E-14	7.129730E-16
3.070000E+03	1.054098E-14	7.142249E-16
3.080000E+03	1.061973E-14	7.153767E-16
3.090000E+03	1.069617E-14	7.163126E-16
3.100000E+03	1.077015E-14	7.170255E-16
3.110000E+03	1.084152E-14	7.175089E-16
3.120000E+03	1.091012E-14	7.177563E-16
3.130000E+03	1.097747E-14	7.178697E-16
3.140000E+03	1.104010E-14	7.176258E-16
3.150000E+03	1.109951E-14	7.171274E-16
3.160000E+03	1.115554E-14	7.163686E-16
3.170000E+03	1.120973E-14	7.154515E-16
3.180000E+03	1.125855E-14	7.141556E-16
3.190000E+03	1.130523E-14	7.126904E-16
3.200000E+03	1.134623E-14	7.108375E-16
3.210000E+03	1.138479E-14	7.088053E-16
3.220000E+03	1.141906E-14	7.064836E-16
3.230000E+03	1.144719E-14	7.037631E-16
3.240000E+03	1.147244E-14	7.008513E-16
3.250000E+03	1.149295E-14	6.976388E-16
3.260000E+03	1.150860E-14	6.941243E-16
3.270000E+03	1.151925E-14	6.903059E-16
3.280000E+03	1.152475E-14	6.861806E-16
3.290000E+03	1.152500E-14	6.817485E-16
3.300000E+03	1.151985E-14	6.770089E-16
3.310000E+03	1.150921E-14	6.719616E-16
3.320000E+03	1.149466E-14	6.667055E-16
3.330000E+03	1.147269E-14	6.610444E-16
3.340000E+03	1.144494E-14	6.550798E-16
3.350000E+03	1.141299E-14	6.489088E-16
3.360000E+03	1.137342E-14	6.423443E-16
3.370000E+03	1.132786E-14	6.354862E-16
3.380000E+03	1.127791E-14	6.284308E-16
3.390000E+03	1.122188E-14	6.210903E-16
3.400000E+03	1.115815E-14	6.133826E-16
3.410000E+03	1.108997E-14	6.054941E-16
3.420000E+03	1.101573E-14	5.973437E-16
3.430000E+03	1.093393E-14	5.888561E-16
3.440000E+03	1.084779E-14	5.802133E-16
3.450000E+03	1.075583E-14	5.713409E-16
3.460000E+03	1.065815E-14	5.622520E-16
3.470000E+03	1.055493E-14	5.529610E-16
3.480000E+03	1.044637E-14	5.434839E-16
3.490000E+03	1.033270E-14	5.338387E-16
3.500000E+03	1.021432E-14	5.240494E-16
3.510000E+03	1.009175E-14	5.141479E-16
3.520000E+03	9.965621E-15	5.041697E-16
3.530000E+03	9.837983E-15	4.942205E-16
3.540000E+03	9.706694E-15	4.841946E-16
3.550000E+03	9.573828E-15	4.741979E-16
3.560000E+03	9.440037E-15	4.642634E-16
3.570000E+03	9.307266E-15	4.544864E-16
3.580000E+03	9.173491E-15	4.447671E-16
3.590000E+03	9.041899E-15	4.352592E-16
3.600000E+03	8.910502E-15	4.258649E-16
3.610000E+03	8.782349E-15	4.167282E-16
3.620000E+03	8.655477E-15	4.077526E-16
3.630000E+03	8.532801E-15	3.990726E-16
3.640000E+03	8.412378E-15	3.905933E-16
3.650000E+03	8.296983E-15	3.824398E-16
3.660000E+03	8.185813E-15	3.745699E-16
3.670000E+03	8.078080E-15	3.669430E-16
3.680000E+03	7.976291E-15	3.596686E-16
3.690000E+03	7.879516E-15	3.526986E-16
3.700000E+03	7.787900E-15	3.460343E-16
3.710000E+03	7.701523E-15	3.396739E-16
3.720000E+03	7.619374E-15	3.335677E-16
3.730000E+03	7.543532E-15	3.278018E-16
3.740000E+03	7.472869E-15	3.223213E-16
3.750000E+03	7.407276E-15	3.171164E-16
3.760000E+03	7.346625E-15	3.121767E-16
3.770000E+03	7.290772E-15	3.074914E-16
3.780000E+03	7.239564E-15	3.030497E-16
3.790000E+03	7.192841E-15	2.988405E-16
3.800000E+03	7.150436E-15	2.948529E-16
3.810000E+03	7.112173E-15	2.910757E-16
3.820000E+03	7.077866E-15	2.874979E-16
3.830000E+03	7.047309E-15	2.841076E-16
3.840000E+03	7.020283E-15	2.808930E-16
3.850000E+03	6.996557E-15	2.778421E-16
3.860000E+03	6.975885E-15	2.749425E-16
3.870000E+03	6.958011E-15	2.721819E-16
3.880000E+03	6.943601E-15	2.695842E-16
3.890000E+03	6.930540E-15	2.670654E-16
3.900000E+03	6.919491E-15	2.646501E-16
3.910000E+03	6.910196E-15	2.623275E-16
3.920000E+03	6.902393E-15	2.600867E-16
3.930000E+03	6.895829E-15	2.579178E-16
3.940000E+03	6.890255E-15	2.558112E-16
3.950000E+03	6.886335E-15	2.537913E-16
3.960000E+03	6.882029E-15	2.517828E-16
3.970000E+03	6.878034E-15	2.498123E-16
3.980000E+03	6.874159E-15	2.478734E-16
3.990000E+03	6.870243E-15	2.459611E-16
4.000000E+03	6.866147E-15	2.440715E-16
4.010000E+03	6.862662E-15	2.422334E-16
4.020000E+03	6.857926E-15	2.403823E-16
4.030000E+03	6.852783E-15	2.385493E-16
4.040000E+03	6.847209E-15	2.367347E-16
4.050000E+03	6.841195E-15	2.349398E-16
4.060000E+03	6.834737E-15	2.331655E-16
4.070000E+03	6.827830E-15	2.314131E-16
4.080000E+03	6.820468E-15	2.296837E-16
4.090000E+03	6.812634E-15	2.279780E-16
4.100000E+03	6.804307E-15	2.262966E-16
4.110000E+03	6.795461E-15	2.246401E-16
4.120000E+03	6.786077E-15	2.230091E-16
4.130000E+03	6.776154E-15	2.214049E-16
4.140000E+03	6.765710E-15	2.198294E-16
4.150000E+03	6.754789E-15	2.182854E-16
4.160000E+03	6.743473E-15	2.167766E-16
4.170000E+03	6.731874E-15	2.153077E-16
4.180000E+03	6.720116E-15	2.138838E-16
4.190000E+03	6.708332E-15	2.125101E-16
4.200000E+03	6.696650E-15	2.111914E-16
4.210000E+03	6.685181E-15	2.099320E-16
4.220000E+03	6.673165E-15	2.087089E-16
4.230000E+03	6.662323E-15	2.075767E-16
4.240000E+03	6.651824E-15	2.065098E-16
4.250000E+03	6.641621E-15	2.055075E-16
4.260000E+03	6.630801E-15	2.045420E-16
4.270000E+03	6.620894E-15	2.036608E-16
4.280000E+03	6.610065E-15	2.028058E-16
4.290000E+03	6.599740E-15	2.020190E-16
4.300000E+03	6.588012E-15	2.012400E-16
4.310000E+03	6.576203E-15	2.005073E-16
4.320000E+03	6.562351E-15	1.997593E-16
4.330000E+03	6.547765E-15	1.990339E-16
4.340000E+03	6.530524E-15	1.982707E-16
4.350000E+03	6.511163E-15	1.974841E-16
4.360000E+03	6.489458E-15	1.966652E-16
4.370000E+03	6.466036E-15	1.958311E-16
4.380000E+03	6.439210E-15	1.949284E-16
4.390000E+03	6.409755E-15	1.939785E-16
4.400000E+03	6.377733E-15	1.929811E-16
4.410000E+03	6.343280E-15	1.919380E-16
4.420000E+03	6.306590E-15	1.908528E-16
4.430000E+03	6.267919E-15	1.897310E-16
4.440000E+03	6.227556E-15	1.885792E-16
4.450000E+03	6.185046E-15	1.873813E-16
4.460000E+03	6.142189E-15	1.861897E-16
4.470000E+03	6.098495E-15	1.849876E-16
4.480000E+03	6.053464E-15	1.837576E-16
4.490000E+03	6.008747E-15	1.825481E-16
4.500000E+03	5.963748E-15	1.813390E-16
4.510000E+03	5.917877E-15	1.801106E-16
4.520000E+03	5.871963E-15	1.788865E-16
4.530000E+03	5.826800E-15	1.776893E-16
4.540000E+03	5.781083E-15	1.764776E-16
4.550000E+03	5.735619E-15	1.752747E-16
4.560000E+03	5.690520E-15	1.740827E-16
4.570000E+03	5.645902E-15	1.729038E-16
4.580000E+03	5.601894E-15	1.717409E-16
4.590000E+03	5.558631E-15	1.705970E-16
4.600000E+03	5.516253E-15	1.694754E-16
4.610000E+03	5.474906E-15	1.683798E-16
4.620000E+03	5.434737E-15	1.673138E-16
4.630000E+03	5.395255E-15	1.662615E-16
4.640000E+03	5.357884E-15	1.652662E-16
4.650000E+03	5.321488E-15	1.642921E-16
4.660000E+03	5.287454E-15	1.633816E-16
4.670000E+03	5.254647E-15	1.624990E-16
4.680000E+03	5.223793E-15	1.616663E-16
4.690000E+03	5.195591E-15	1.609048E-16
4.700000E+03	5.168880E-15	1.601782E-16
4.710000E+03	5.144327E-15	1.595066E-16
4.720000E+03	5.121964E-15	1.588908E-16
4.730000E+03	5.101809E-15	1.583310E-16
4.740000E+03	5.083852E-15	1.578266E-16
4.750000E+03	5.067477E-15	1.573580E-16
4.760000E+03	5.053816E-15	1.569603E-16
4.770000E+03	5.042193E-15	1.566120E-16
4.780000E+03	5.031906E-15	1.562912E-16
4.790000E+03	5.023968E-15	1.560288E-16
4.800000E+03	5.017013E-15	1.557823E-16
4.810000E+03	5.011398E-15	1.555624E-16
4.820000E+03	5.006861E-15	1.553607E-16
4.830000E+03	5.003113E-15	1.551679E-16
4.840000E+03	4.999853E-15	1.549746E-16
4.850000E+03	4.996769E-15	1.547708E-16
4.860000E+03	4.993553E-15	1.545468E-16
4.870000E+03	4.989921E-15	1.542938E-16
4.880000E+03	4.985625E-15	1.540040E-16
4.890000E+03	4.979885E-15	1.536533E-16
4.900000E+03	4.973676E-15	1.532720E-16
4.910000E+03	4.965720E-15	1.528208E-16
4.920000E+03	4.957064E-15	1.523321E-16
4.930000E+03	4.946508E-15	1.517693E-16
4.940000E+03	4.934603E-15	1.511496E-16
4.950000E+03	4.921364E-15	1.504740E-16
4.960000E+03	4.906839E-15	1.497443E-16
4.970000E+03	4.891118E-15	1.489638E-16
4.980000E+03	4.874314E-15	1.481364E-16
4.990000E+03	4.855999E-15	1.472496E-16
5.000000E+03	4.837409E-15	1.463416E-16
5.010000E+03	4.818118E-15	1.453998E-16
5.020000E+03	4.797713E-15	1.444126E-16
5.030000E+03	4.776882E-15	1.434011E-16
5.040000E+03	4.756309E-15	1.423865E-16
5.050000E+03	4.735054E-15	1.413411E-16
5.060000E+03	4.713807E-15	1.402862E-16
5.070000E+03	4.692716E-15	1.392267E-16
5.080000E+03	4.671931E-15	1.381676E-16
5.090000E+03	4.651603E-15	1.371138E-16
5.100000E+03	4.631882E-15	1.360701E-16
5.110000E+03	4.612397E-15	1.350261E-16
5.120000E+03	4.594332E-15	1.340168E-16
5.130000E+03	4.576781E-15	1.330163E-16
5.140000E+03	4.560890E-15	1.320580E-16
5.150000E+03	4.545715E-15	1.311148E-16
5.160000E+03	4.531829E-15	1.302038E-16
5.170000E+03	4.519257E-15	1.293257E-16
5.180000E+03	4.507986E-15	1.284805E-16
5.190000E+03	4.497975E-15	1.276672E-16
5.200000E+03	4.489156E-15	1.268841E-16
5.210000E+03	4.481437E-15	1.261291E-16
5.220000E+03	4.474713E-15	1.253994E-16
5.230000E+03	4.468367E-15	1.246782E-16
5.240000E+03	4.463283E-15	1.239908E-16
5.250000E+03	4.458341E-15	1.233064E-16
5.260000E+03	4.453928E-15	1.226364E-16
5.270000E+03	4.450427E-15	1.219921E-16
5.280000E+03	4.446741E-15	1.213439E-16
5.290000E+03	4.443267E-15	1.207035E-16
5.300000E+03	4.439909E-15	1.200691E-16
5.310000E+03	4.436578E-15	1.194392E-16
5.320000E+03	4.433188E-15	1.188124E-16
5.330000E+03	4.429168E-15	1.181742E-16
5.340000E+03	4.425431E-15	1.175502E-16
5.350000E+03	4.420926E-15	1.169132E-16
5.360000E+03	4.416577E-15	1.162889E-16
5.370000E+03	4.411352E-15	1.156510E-16
5.380000E+03	4.406197E-15	1.150254E-16
5.390000E+03	4.400110E-15	1.143870E-16
5.400000E+03	4.393580E-15	1.137496E-16
5.410000E+03	4.386628E-15	1.131148E-16
5.420000E+03	4.379293E-15	1.124846E-16
5.430000E+03	4.371662E-15	1.118621E-16
5.440000E+03	4.363881E-15	1.112521E-16
5.450000E+03	4.355640E-15	1.106473E-16
5.460000E+03	4.348083E-15	1.100778E-16
5.470000E+03	4.340426E-15	1.095235E-16
5.480000E+03	4.333805E-15	1.090121E-16
5.490000E+03	4.327431E-15	1.085227E-16
5.500000E+03	4.322425E-15	1.080822E-16
5.510000E+03	4.317984E-15	1.076693E-16
5.520000E+03	4.314731E-15	1.072984E-16
5.530000E+03	4.312801E-15	1.069716E-16
5.540000E+03	4.312314E-15	1.066906E-16
5.550000E+03	4.313382E-15	1.064570E-16
5.560000E+03	4.316105E-15	1.062719E-16
5.570000E+03	4.320098E-15	1.061248E-16
5.580000E+03	4.326396E-15	1.060397E-16
5.590000E+03	4.334605E-15	1.060058E-16
5.600000E+03	4.344330E-15	1.060122E-16
5.610000E+03	4.356609E-15	1.060829E-16
5.620000E+03	4.370574E-15	1.061958E-16
5.630000E+03	4.386803E-15	1.063635E-16
5.640000E+03	4.405882E-15	1.065990E-16
5.650000E+03	4.426952E-15	1.068804E-16
5.660000E+03	4.450607E-15	1.072208E-16
5.670000E+03	4.476955E-15	1.076215E-16
5.680000E+03	4.506103E-15	1.080839E-16
5.690000E+03	4.538143E-15	1.086088E-16
5.700000E+03	4.572655E-15	1.091850E-16
5.710000E+03	4.610705E-15	1.098367E-16
5.720000E+03	4.651838E-15	1.105515E-16
5.730000E+03	4.695560E-15	1.113165E-16
5.740000E+03	4.742894E-15	1.121546E-16
5.750000E+03	4.792768E-15	1.130390E-16
5.760000E+03	4.846164E-15	1.139916E-16
5.770000E+03	4.901926E-15	1.149838E-16
5.780000E+03	4.960447E-15	1.160234E-16
5.790000E+03	5.021557E-15	1.171052E-16
5.800000E+03	5.085063E-15	1.182234E-16
5.810000E+03	5.150745E-15	1.193715E-16
5.820000E+03	5.218364E-15	1.205429E-16
5.830000E+03	5.287658E-15	1.217303E-16
5.840000E+03	5.358351E-15	1.229262E-16
5.850000E+03	5.430156E-15	1.241231E-16
5.860000E+03	5.502780E-15	1.253134E-16
5.870000E+03	5.575322E-15	1.264759E-16
5.880000E+03	5.648716E-15	1.276311E-16
5.890000E+03	5.722104E-15	1.287591E-16
5.900000E+03	5.794633E-15	1.298402E-16
5.910000E+03	5.866744E-15	1.308843E-16
5.920000E+03	5.938975E-15	1.319031E-16
5.930000E+03	6.009998E-15	1.328671E-16
5.940000E+03	6.080497E-15	1.337915E-16
5.950000E+03	6.151245E-15	1.346935E-16
5.960000E+03	6.221077E-15	1.355478E-16
5.970000E+03	6.290890E-15	1.363741E-16
5.980000E+03	6.360982E-15	1.371794E-16
5.990000E+03	6.431722E-15	1.379719E-16
6.000000E+03	6.503537E-15	1.387609E-16
6.010000E+03	6.576902E-15	1.395569E-16
6.020000E+03	6.651610E-15	1.403558E-16
6.030000E+03	6.729667E-15	1.412000E-16
6.040000E+03	6.810928E-15	1.420865E-16
6.050000E+03	6.895979E-15	1.430274E-16
6.060000E+03	6.984645E-15	1.440192E-16
6.070000E+03	7.079011E-15	1.451048E-16
6.080000E+03	7.178054E-15	1.462632E-16
6.090000E+03	7.283798E-15	1.475354E-16
6.100000E+03	7.395039E-15	1.488972E-16
6.110000E+03	7.512825E-15	1.503698E-16
6.120000E+03	7.638127E-15	1.519730E-16
6.130000E+03	7.769269E-15	1.536739E-16
6.140000E+03	7.906859E-15	1.554857E-16
6.150000E+03	8.050476E-15	1.574018E-16
6.160000E+03	8.199471E-15	1.594113E-16
6.170000E+03	8.353809E-15	1.615163E-16
6.180000E+03	8.510448E-15	1.636612E-16
6.190000E+03	8.668733E-15	1.658381E-16
6.200000E+03	8.826740E-15	1.680153E-16
6.210000E+03	8.981225E-15	1.701373E-16
6.220000E+03	9.131555E-15	1.721993E-16
6.230000E+03	9.273841E-15	1.741359E-16
6.240000E+03	9.404963E-15	1.758972E-16
6.250000E+03	9.521707E-15	1.774326E-16
6.260000E+03	9.619871E-15	1.786737E-16
6.270000E+03	9.698945E-15	1.796209E-16
6.280000E+03	9.756642E-15	1.802412E-16
6.290000E+03	9.793556E-15	1.805544E-16
6.300000E+03	9.815124E-15	1.806680E-16
6.310000E+03	9.823071E-15	1.806199E-16
6.320000E+03	9.823482E-15	1.805271E-16
6.330000E+03	9.817983E-15	1.804236E-16
6.340000E+03	9.811140E-15	1.803970E-16
6.350000E+03	9.807005E-15	1.805250E-16
6.360000E+03	9.805960E-15	1.808163E-16
6.370000E+03	9.811240E-15	1.813276E-16
6.380000E+03	9.825650E-15	1.821082E-16
6.390000E+03	9.848410E-15	1.831412E-16
6.400000E+03	9.881653E-15	1.844644E-16
6.410000E+03	9.926065E-15	1.860894E-16
6.420000E+03	9.982021E-15	1.880224E-16
6.430000E+03	1.004959E-14	1.902647E-16
6.440000E+03	1.012849E-14	1.928109E-16
6.450000E+03	1.021809E-14	1.956494E-16
6.460000E+03	1.031737E-14	1.987611E-16
6.470000E+03	1.042484E-14	2.021175E-16
6.480000E+03	1.053862E-14	2.056820E-16
6.490000E+03	1.065653E-14	2.094109E-16
6.500000E+03	1.077610E-14	2.132543E-16
6.510000E+03	1.089472E-14	2.171573E-16
6.520000E+03	1.100856E-14	2.210394E-16
6.530000E+03	1.111756E-14	2.248938E-16
6.540000E+03	1.121816E-14	2.286423E-16
6.550000E+03	1.130694E-14	2.322070E-16
6.560000E+03	1.138441E-14	2.355893E-16
6.570000E+03	1.144755E-14	2.387171E-16
6.580000E+03	1.149346E-14	2.415187E-16
6.590000E+03	1.152324E-14	2.440054E-16
6.600000E+03	1.153316E-14	2.460860E-16
6.610000E+03	1.152496E-14	2.477847E-16
6.620000E+03	1.149574E-14	2.490262E-16
6.630000E+03	1.144810E-14	2.498537E-16
6.640000E+03	1.137985E-14	2.502069E-16
6.650000E+03	1.129411E-14	2.501420E-16
6.660000E+03	1.118919E-14	2.496100E-16
6.670000E+03	1.106728E-14	2.486492E-16
6.680000E+03	1.093070E-14	2.473013E-16
6.690000E+03	1.077819E-14	2.455291E-16
6.700000E+03	1.061222E-14	2.433808E-16
6.710000E+03	1.043410E-14	2.408791E-16
6.720000E+03	1.024631E-14	2.380754E-16
6.730000E+03	1.004793E-14	2.349435E-16
6.740000E+03	9.841525E-15	2.315388E-16
6.750000E+03	9.628525E-15	2.278920E-16
6.760000E+03	9.410415E-15	2.240362E-16
6.770000E+03	9.188744E-15	2.200069E-16
6.780000E+03	8.965066E-15	2.158410E-16
6.790000E+03	8.740879E-15	2.115753E-16
6.800000E+03	8.517598E-15	2.072453E-16
6.810000E+03	8.296535E-15	2.028848E-16
6.820000E+03	8.078869E-15	1.985253E-16
6.830000E+03	7.865638E-15	1.941954E-16
6.840000E+03	7.657746E-15	1.899208E-16
6.850000E+03	7.455945E-15	1.857240E-16
6.860000E+03	7.260844E-15	1.816240E-16
6.870000E+03	7.072131E-15	1.776170E-16
6.880000E+03	6.891763E-15	1.737562E-16
6.890000E+03	6.719181E-15	1.700319E-16
6.900000E+03	6.554539E-15	1.664520E-16
6.910000E+03	6.397190E-15	1.630041E-16
6.920000E+03	6.248564E-15	1.597283E-16
6.930000E+03	6.107843E-15	1.566077E-16
6.940000E+03	5.974210E-15	1.536248E-16
6.950000E+03	5.848791E-15	1.508120E-16
6.960000E+03	5.730638E-15	1.481480E-16
6.970000E+03	5.618807E-15	1.456114E-16
6.980000E+03	5.514219E-15	1.432290E-16
6.990000E+03	5.415249E-15	1.409611E-16
7.000000E+03	5.322726E-15	1.388319E-16
7.010000E+03	5.235039E-15	1.368014E-16
7.020000E+03	5.152382E-15	1.348770E-16
7.030000E+03	5.074911E-15	1.330647E-16
7.040000E+03	5.001075E-15	1.313257E-16
7.050000E+03	4.931608E-15	1.296810E-16
7.060000E+03	4.865016E-15	1.280930E-16
7.070000E+03	4.801495E-15	1.265683E-16
7.080000E+03	4.740702E-15	1.250993E-16
7.090000E+03	4.682841E-15	1.236930E-16
7.100000E+03	4.626556E-15	1.223148E-16
7.110000E+03	4.572111E-15	1.209730E-16
7.120000E+03	4.519273E-15	1.196627E-16
7.130000E+03	4.467847E-15	1.183800E-16
7.140000E+03	4.417670E-15	1.171218E-16
7.150000E+03	4.368605E-15	1.158856E-16
7.160000E+03	4.320544E-15	1.146700E-16
7.170000E+03	4.273399E-15	1.134736E-16
7.180000E+03	4.227099E-15	1.122958E-16
7.190000E+03	4.181590E-15	1.111363E-16
7.200000E+03	4.136833E-15	1.099953E-16
7.210000E+03	4.092794E-15	1.088730E-16
7.220000E+03	4.049440E-15	1.077698E-16
7.230000E+03	4.006740E-15	1.066858E-16
7.240000E+03	3.964664E-15	1.056216E-16
7.250000E+03	3.922739E-15	1.045655E-16
7.260000E+03	3.881827E-15	1.035417E-16
7.270000E+03	3.841452E-15	1.025386E-16
7.280000E+03	3.801585E-15	1.015566E-16
7.290000E+03	3.761771E-15	1.005844E-16
7.300000E+03	3.722842E-15	9.964555E-17
7.310000E+03	3.684340E-15	9.872870E-17
7.320000E+03	3.645826E-15	9.782309E-17
7.330000E+03	3.608108E-15	9.695142E-17
7.340000E+03	3.570340E-15	9.609189E-17
7.350000E+03	3.533324E-15	9.526697E-17
7.360000E+03	3.496238E-15	9.445545E-17
7.370000E+03	3.459486E-15	9.366903E-17
7.380000E+03	3.423464E-15	9.291924E-17
7.390000E+03	3.387398E-15	9.218590E-17
7.400000E+03	3.351702E-15	9.148089E-17
7.410000E+03	3.316779E-15	9.081600E-17
7.420000E+03	3.281902E-15	9.017193E-17
7.430000E+03	3.247488E-15	8.956071E-17
7.440000E+03	3.213576E-15	8.898397E-17
7.450000E+03	3.180568E-15	8.845343E-17
7.460000E+03	3.147775E-15	8.795046E-17
7.470000E+03	3.115603E-15	8.748680E-17
7.480000E+03	3.084087E-15	8.706384E-17
7.490000E+03	3.053252E-15	8.668278E-17
7.500000E+03	3.023123E-15	8.634466E-17
7.510000E+03	2.993717E-15	8.605035E-17
7.520000E+03	2.965045E-15	8.580034E-17
7.530000E+03	2.936773E-15	8.558426E-17
7.540000E+03	2.909582E-15	8.542089E-17
7.550000E+03	2.883126E-15	8.529918E-17
7.560000E+03	2.857393E-15	8.521791E-17
7.570000E+03	2.832366E-15	8.517557E-17
7.580000E+03	2.807692E-15	8.516067E-17
7.590000E+03	2.783989E-15	8.519093E-17
7.600000E+03	2.760889E-15	8.525441E-17
7.610000E+03	2.738029E-15	8.533900E-17
7.620000E+03	2.715997E-15	8.546206E-17
7.630000E+03	2.694109E-15	8.560130E-17
7.640000E+03	2.672938E-15	8.577395E-17
7.650000E+03	2.651802E-15	8.595737E-17
7.660000E+03	2.630953E-15	8.615864E-17
7.670000E+03	2.610632E-15	8.638484E-17
7.680000E+03	2.590167E-15	8.661284E-17
7.690000E+03	2.569800E-15	8.684959E-17
7.700000E+03	2.549763E-15	8.710198E-17
7.710000E+03	2.529407E-15	8.734689E-17
7.720000E+03	2.508999E-15	8.759227E-17
7.730000E+03	2.488536E-15	8.783690E-17
7.740000E+03	2.468025E-15	8.808000E-17
7.750000E+03	2.447477E-15	8.832089E-17
7.760000E+03	2.426901E-15	8.855897E-17
