#wls	flux	fluxerr
1.600000E+03	3.238857E-15	2.860879E-16
1.640000E+03	3.305067E-15	2.902692E-16
1.680000E+03	3.371456E-15	2.943795E-16
1.720000E+03	3.438094E-15	2.984242E-16
1.760000E+03	3.505698E-15	3.024638E-16
1.800000E+03	3.573792E-15	3.064558E-16
1.840000E+03	3.642515E-15	3.104105E-16
1.880000E+03	3.712675E-15	3.143953E-16
1.920000E+03	3.783820E-15	3.183694E-16
1.960000E+03	3.856144E-15	3.223473E-16
2.000000E+03	3.930551E-15	3.264019E-16
2.040000E+03	4.006636E-15	3.304966E-16
2.080000E+03	4.084726E-15	3.346554E-16
2.120000E+03	4.165987E-15	3.389701E-16
2.160000E+03	4.250321E-15	3.434276E-16
2.200000E+03	4.339208E-15	3.481417E-16
2.240000E+03	4.432739E-15	3.531109E-16
2.280000E+03	4.531737E-15	3.583918E-16
2.320000E+03	4.637683E-15	3.640902E-16
2.360000E+03	4.750348E-15	3.701747E-16
2.400000E+03	4.870179E-15	3.766665E-16
2.440000E+03	4.998375E-15	3.836433E-16
2.480000E+03	5.135226E-15	3.911105E-16
2.520000E+03	5.279984E-15	3.989944E-16
2.560000E+03	5.432572E-15	4.072732E-16
2.600000E+03	5.592748E-15	4.159129E-16
2.640000E+03	5.761969E-15	4.250056E-16
2.680000E+03	5.936431E-15	4.342545E-16
2.720000E+03	6.116639E-15	4.436843E-16
2.760000E+03	6.299818E-15	4.530808E-16
2.800000E+03	6.484897E-15	4.623576E-16
2.840000E+03	6.669418E-15	4.713331E-16
2.880000E+03	6.848255E-15	4.796447E-16
2.920000E+03	7.020299E-15	4.872217E-16
2.960000E+03	7.181905E-15	4.938225E-16
3.000000E+03	7.327890E-15	4.991101E-16
3.010000E+03	7.361446E-15	5.001960E-16
3.020000E+03	7.393690E-15	5.011794E-16
3.030000E+03	7.424551E-15	5.020561E-16
3.040000E+03	7.453962E-15	5.028221E-16
3.050000E+03	7.481852E-15	5.034733E-16
3.060000E+03	7.508151E-15	5.040058E-16
3.070000E+03	7.534017E-15	5.044979E-16
3.080000E+03	7.556930E-15	5.047814E-16
3.090000E+03	7.578046E-15	5.049348E-16
3.100000E+03	7.597296E-15	5.049543E-16
3.110000E+03	7.615851E-15	5.049185E-16
3.120000E+03	7.631174E-15	5.046601E-16
3.130000E+03	7.644435E-15	5.042577E-16
3.140000E+03	7.656812E-15	5.037898E-16
3.150000E+03	7.665765E-15	5.030902E-16
3.160000E+03	7.672474E-15	5.022380E-16
3.170000E+03	7.678123E-15	5.013115E-16
3.180000E+03	7.680179E-15	5.001463E-16
3.190000E+03	7.681068E-15	4.989018E-16
3.200000E+03	7.678269E-15	4.974154E-16
3.210000E+03	7.674210E-15	4.958457E-16
3.220000E+03	7.666380E-15	4.940317E-16
3.230000E+03	7.657211E-15	4.921316E-16
3.240000E+03	7.644210E-15	4.899863E-16
3.250000E+03	7.629807E-15	4.877531E-16
3.260000E+03	7.612750E-15	4.853531E-16
3.270000E+03	7.591810E-15	4.827095E-16
3.280000E+03	7.569412E-15	4.799780E-16
3.290000E+03	7.543129E-15	4.770061E-16
3.300000E+03	7.515380E-15	4.739484E-16
3.310000E+03	7.484966E-15	4.707302E-16
3.320000E+03	7.451908E-15	4.673544E-16
3.330000E+03	7.415053E-15	4.637502E-16
3.340000E+03	7.376803E-15	4.600696E-16
3.350000E+03	7.336017E-15	4.562423E-16
3.360000E+03	7.292750E-15	4.522733E-16
3.370000E+03	7.247066E-15	4.481677E-16
3.380000E+03	7.197898E-15	4.438614E-16
3.390000E+03	7.147622E-15	4.395020E-16
3.400000E+03	7.095183E-15	4.350259E-16
3.410000E+03	7.040688E-15	4.304406E-16
3.420000E+03	6.984253E-15	4.257544E-16
3.430000E+03	6.926010E-15	4.209765E-16
3.440000E+03	6.866094E-15	4.161162E-16
3.450000E+03	6.804658E-15	4.111835E-16
3.460000E+03	6.741857E-15	4.061889E-16
3.470000E+03	6.677859E-15	4.011430E-16
3.480000E+03	6.612835E-15	3.960569E-16
3.490000E+03	6.546950E-15	3.909411E-16
3.500000E+03	6.480381E-15	3.858066E-16
3.510000E+03	6.413304E-15	3.806643E-16
3.520000E+03	6.345909E-15	3.755258E-16
3.530000E+03	6.278386E-15	3.704026E-16
3.540000E+03	6.210940E-15	3.653067E-16
3.550000E+03	6.143772E-15	3.602502E-16
3.560000E+03	6.077093E-15	3.552452E-16
3.570000E+03	6.012048E-15	3.503582E-16
3.580000E+03	5.946964E-15	3.454913E-16
3.590000E+03	5.882994E-15	3.407113E-16
3.600000E+03	5.820340E-15	3.360293E-16
3.610000E+03	5.759197E-15	3.314560E-16
3.620000E+03	5.699754E-15	3.270014E-16
3.630000E+03	5.643061E-15	3.227247E-16
3.640000E+03	5.587530E-15	3.185340E-16
3.650000E+03	5.534196E-15	3.144874E-16
3.660000E+03	5.483198E-15	3.105919E-16
3.670000E+03	5.434662E-15	3.068532E-16
3.680000E+03	5.389524E-15	3.033227E-16
3.690000E+03	5.346209E-15	2.999104E-16
3.700000E+03	5.305628E-15	2.966662E-16
3.710000E+03	5.267838E-15	2.935919E-16
3.720000E+03	5.233683E-15	2.907328E-16
3.730000E+03	5.201575E-15	2.879992E-16
3.740000E+03	5.172333E-15	2.854352E-16
3.750000E+03	5.145950E-15	2.830388E-16
3.760000E+03	5.123189E-15	2.808504E-16
3.770000E+03	5.102451E-15	2.787807E-16
3.780000E+03	5.084477E-15	2.768690E-16
3.790000E+03	5.069988E-15	2.751530E-16
3.800000E+03	5.057371E-15	2.735437E-16
3.810000E+03	5.047332E-15	2.720780E-16
3.820000E+03	5.039786E-15	2.707501E-16
3.830000E+03	5.035412E-15	2.695950E-16
3.840000E+03	5.032585E-15	2.685244E-16
3.850000E+03	5.031966E-15	2.675727E-16
3.860000E+03	5.034212E-15	2.667734E-16
3.870000E+03	5.037685E-15	2.660387E-16
3.880000E+03	5.043032E-15	2.654020E-16
3.890000E+03	5.050133E-15	2.648560E-16
3.900000E+03	5.059626E-15	2.644333E-16
3.910000E+03	5.069866E-15	2.640469E-16
3.920000E+03	5.081490E-15	2.637295E-16
3.930000E+03	5.095140E-15	2.635138E-16
3.940000E+03	5.109166E-15	2.633137E-16
3.950000E+03	5.124213E-15	2.631622E-16
3.960000E+03	5.140168E-15	2.630530E-16
3.970000E+03	5.157691E-15	2.630196E-16
3.980000E+03	5.175139E-15	2.629776E-16
3.990000E+03	5.193185E-15	2.629612E-16
4.000000E+03	5.211739E-15	2.629658E-16
4.010000E+03	5.231498E-15	2.630262E-16
4.020000E+03	5.250830E-15	2.630601E-16
4.030000E+03	5.270445E-15	2.631035E-16
4.040000E+03	5.290284E-15	2.631532E-16
4.050000E+03	5.311082E-15	2.632459E-16
4.060000E+03	5.331216E-15	2.633008E-16
4.070000E+03	5.351434E-15	2.633555E-16
4.080000E+03	5.371700E-15	2.634081E-16
4.090000E+03	5.391985E-15	2.634575E-16
4.100000E+03	5.413064E-15	2.635414E-16
4.110000E+03	5.433319E-15	2.635813E-16
4.120000E+03	5.453535E-15	2.636156E-16
4.130000E+03	5.473700E-15	2.636438E-16
4.140000E+03	5.493808E-15	2.636661E-16
4.150000E+03	5.513856E-15	2.636823E-16
4.160000E+03	5.533841E-15	2.636927E-16
4.170000E+03	5.553763E-15	2.636973E-16
4.180000E+03	5.573620E-15	2.636964E-16
4.190000E+03	5.593405E-15	2.636898E-16
4.200000E+03	5.613931E-15	2.637159E-16
4.210000E+03	5.633534E-15	2.636967E-16
4.220000E+03	5.653005E-15	2.636698E-16
4.230000E+03	5.672303E-15	2.636335E-16
4.240000E+03	5.690541E-15	2.635470E-16
4.250000E+03	5.709308E-15	2.634845E-16
4.260000E+03	5.727692E-15	2.634038E-16
4.270000E+03	5.745588E-15	2.633007E-16
4.280000E+03	5.762883E-15	2.631703E-16
4.290000E+03	5.779451E-15	2.630075E-16
4.300000E+03	5.795156E-15	2.628066E-16
4.310000E+03	5.809859E-15	2.625620E-16
4.320000E+03	5.823424E-15	2.622683E-16
4.330000E+03	5.834876E-15	2.618821E-16
4.340000E+03	5.845790E-15	2.614747E-16
4.350000E+03	5.855219E-15	2.610040E-16
4.360000E+03	5.863071E-15	2.604662E-16
4.370000E+03	5.868426E-15	2.598214E-16
4.380000E+03	5.872928E-15	2.591427E-16
4.390000E+03	5.875694E-15	2.583917E-16
4.400000E+03	5.875868E-15	2.575312E-16
4.410000E+03	5.875151E-15	2.566367E-16
4.420000E+03	5.872730E-15	2.556728E-16
4.430000E+03	5.867812E-15	2.546056E-16
4.440000E+03	5.862152E-15	2.535118E-16
4.450000E+03	5.854143E-15	2.523225E-16
4.460000E+03	5.845561E-15	2.511145E-16
4.470000E+03	5.834827E-15	2.498202E-16
4.480000E+03	5.823719E-15	2.485164E-16
4.490000E+03	5.810674E-15	2.471363E-16
4.500000E+03	5.796637E-15	2.457208E-16
4.510000E+03	5.782545E-15	2.443094E-16
4.520000E+03	5.766850E-15	2.428370E-16
4.530000E+03	5.750492E-15	2.413433E-16
4.540000E+03	5.734395E-15	2.398671E-16
4.550000E+03	5.717031E-15	2.383444E-16
4.560000E+03	5.699328E-15	2.368140E-16
4.570000E+03	5.681394E-15	2.352804E-16
4.580000E+03	5.663338E-15	2.337480E-16
4.590000E+03	5.646071E-15	2.322541E-16
4.600000E+03	5.628095E-15	2.307368E-16
4.610000E+03	5.610321E-15	2.292334E-16
4.620000E+03	5.592854E-15	2.277480E-16
4.630000E+03	5.575795E-15	2.262844E-16
4.640000E+03	5.559243E-15	2.248463E-16
4.650000E+03	5.543288E-15	2.234368E-16
4.660000E+03	5.528014E-15	2.220591E-16
4.670000E+03	5.513498E-15	2.207157E-16
4.680000E+03	5.499027E-15	2.193779E-16
4.690000E+03	5.486211E-15	2.181094E-16
4.700000E+03	5.474313E-15	2.168802E-16
4.710000E+03	5.463358E-15	2.156909E-16
4.720000E+03	5.452591E-15	2.145113E-16
4.730000E+03	5.443544E-15	2.134011E-16
4.740000E+03	5.435427E-15	2.123288E-16
4.750000E+03	5.427435E-15	2.112625E-16
4.760000E+03	5.421037E-15	2.102591E-16
4.770000E+03	5.414633E-15	2.092560E-16
4.780000E+03	5.409650E-15	2.083081E-16
4.790000E+03	5.404457E-15	2.073521E-16
4.800000E+03	5.400446E-15	2.064413E-16
4.810000E+03	5.395960E-15	2.055120E-16
4.820000E+03	5.392363E-15	2.046161E-16
4.830000E+03	5.387986E-15	2.036901E-16
4.840000E+03	5.383422E-15	2.027566E-16
4.850000E+03	5.379261E-15	2.018378E-16
4.860000E+03	5.373838E-15	2.008713E-16
4.870000E+03	5.367755E-15	1.998800E-16
4.880000E+03	5.360872E-15	1.988590E-16
4.890000E+03	5.353061E-15	1.978039E-16
4.900000E+03	5.344211E-15	1.967109E-16
4.910000E+03	5.334232E-15	1.955774E-16
4.920000E+03	5.323053E-15	1.944012E-16
4.930000E+03	5.310625E-15	1.931810E-16
4.940000E+03	5.296921E-15	1.919164E-16
4.950000E+03	5.281935E-15	1.906079E-16
4.960000E+03	5.265681E-15	1.892565E-16
4.970000E+03	5.248195E-15	1.878641E-16
4.980000E+03	5.229528E-15	1.864332E-16
4.990000E+03	5.209028E-15	1.849412E-16
5.000000E+03	5.188225E-15	1.834432E-16
5.010000E+03	5.166487E-15	1.819169E-16
5.020000E+03	5.143209E-15	1.803418E-16
5.030000E+03	5.119930E-15	1.787724E-16
5.040000E+03	5.095351E-15	1.771636E-16
5.050000E+03	5.071006E-15	1.755692E-16
5.060000E+03	5.045616E-15	1.739452E-16
5.070000E+03	5.020706E-15	1.723444E-16
5.080000E+03	4.995011E-15	1.707236E-16
5.090000E+03	4.970034E-15	1.691343E-16
5.100000E+03	4.944517E-15	1.675338E-16
5.110000E+03	4.919261E-15	1.659496E-16
5.120000E+03	4.894368E-15	1.643850E-16
5.130000E+03	4.870601E-15	1.628655E-16
5.140000E+03	4.846698E-15	1.613488E-16
5.150000E+03	4.823401E-15	1.598597E-16
5.160000E+03	4.800770E-15	1.584001E-16
5.170000E+03	4.778848E-15	1.569713E-16
5.180000E+03	4.757667E-15	1.555742E-16
5.190000E+03	4.737246E-15	1.542092E-16
5.200000E+03	4.717595E-15	1.528765E-16
5.210000E+03	4.698709E-15	1.515759E-16
5.220000E+03	4.680579E-15	1.503068E-16
5.230000E+03	4.662545E-15	1.490480E-16
5.240000E+03	4.645864E-15	1.478397E-16
5.250000E+03	4.629865E-15	1.466602E-16
5.260000E+03	4.614514E-15	1.455084E-16
5.270000E+03	4.599150E-15	1.443634E-16
5.280000E+03	4.584996E-15	1.432637E-16
5.290000E+03	4.570764E-15	1.421689E-16
5.300000E+03	4.557672E-15	1.411170E-16
5.310000E+03	4.545064E-15	1.400874E-16
5.320000E+03	4.532291E-15	1.390604E-16
5.330000E+03	4.519951E-15	1.380544E-16
5.340000E+03	4.508641E-15	1.370876E-16
5.350000E+03	4.497111E-15	1.361220E-16
5.360000E+03	4.485968E-15	1.351763E-16
5.370000E+03	4.475815E-15	1.342686E-16
5.380000E+03	4.465435E-15	1.333623E-16
5.390000E+03	4.455446E-15	1.324763E-16
5.400000E+03	4.445869E-15	1.316111E-16
5.410000E+03	4.436733E-15	1.307677E-16
5.420000E+03	4.428683E-15	1.299651E-16
5.430000E+03	4.420572E-15	1.291696E-16
5.440000E+03	4.413088E-15	1.284015E-16
5.450000E+03	4.406326E-15	1.276635E-16
5.460000E+03	4.400382E-15	1.269582E-16
5.470000E+03	4.394760E-15	1.262708E-16
5.480000E+03	4.390756E-15	1.256381E-16
5.490000E+03	4.387875E-15	1.250451E-16
5.500000E+03	4.386214E-15	1.244940E-16
5.510000E+03	4.385869E-15	1.239868E-16
5.520000E+03	4.386336E-15	1.235087E-16
5.530000E+03	4.388892E-15	1.230949E-16
5.540000E+03	4.393027E-15	1.227303E-16
5.550000E+03	4.398216E-15	1.223997E-16
5.560000E+03	4.405730E-15	1.221376E-16
5.570000E+03	4.415039E-15	1.219286E-16
5.580000E+03	4.425608E-15	1.217572E-16
5.590000E+03	4.438701E-15	1.216574E-16
5.600000E+03	4.453170E-15	1.215969E-16
5.610000E+03	4.469675E-15	1.215932E-16
5.620000E+03	4.488874E-15	1.216633E-16
5.630000E+03	4.509604E-15	1.217748E-16
5.640000E+03	4.532518E-15	1.219448E-16
5.650000E+03	4.558276E-15	1.221901E-16
5.660000E+03	4.585685E-15	1.224780E-16
5.670000E+03	4.615394E-15	1.228252E-16
5.680000E+03	4.647426E-15	1.232315E-16
5.690000E+03	4.681799E-15	1.236967E-16
5.700000E+03	4.719163E-15	1.242371E-16
5.710000E+03	4.758240E-15	1.248183E-16
5.720000E+03	4.799652E-15	1.254561E-16
5.730000E+03	4.843371E-15	1.261490E-16
5.740000E+03	4.889354E-15	1.268952E-16
5.750000E+03	4.937547E-15	1.276929E-16
5.760000E+03	4.987203E-15	1.285220E-16
5.770000E+03	5.039579E-15	1.294144E-16
5.780000E+03	5.093908E-15	1.303500E-16
5.790000E+03	5.150076E-15	1.313252E-16
5.800000E+03	5.207959E-15	1.323366E-16
5.810000E+03	5.267422E-15	1.333803E-16
5.820000E+03	5.327603E-15	1.344342E-16
5.830000E+03	5.389792E-15	1.355308E-16
5.840000E+03	5.453128E-15	1.366480E-16
5.850000E+03	5.516726E-15	1.377637E-16
5.860000E+03	5.581932E-15	1.389114E-16
5.870000E+03	5.647126E-15	1.400508E-16
5.880000E+03	5.713720E-15	1.412171E-16
5.890000E+03	5.780879E-15	1.423894E-16
5.900000E+03	5.847753E-15	1.435472E-16
5.910000E+03	5.915092E-15	1.447092E-16
5.920000E+03	5.983709E-15	1.458953E-16
5.930000E+03	6.052043E-15	1.470678E-16
5.940000E+03	6.121805E-15	1.482686E-16
5.950000E+03	6.191474E-15	1.494610E-16
5.960000E+03	6.262032E-15	1.506692E-16
5.970000E+03	6.334539E-15	1.519188E-16
5.980000E+03	6.407536E-15	1.531751E-16
5.990000E+03	6.482146E-15	1.544654E-16
6.000000E+03	6.558675E-15	1.557971E-16
6.010000E+03	6.637454E-15	1.571784E-16
6.020000E+03	6.719740E-15	1.586392E-16
6.030000E+03	6.804094E-15	1.601456E-16
6.040000E+03	6.891774E-15	1.617276E-16
6.050000E+03	6.983138E-15	1.633937E-16
6.060000E+03	7.078527E-15	1.651520E-16
6.070000E+03	7.178246E-15	1.670101E-16
6.080000E+03	7.282562E-15	1.689742E-16
6.090000E+03	7.391685E-15	1.710496E-16
6.100000E+03	7.505748E-15	1.732397E-16
6.110000E+03	7.624797E-15	1.755461E-16
6.120000E+03	7.748770E-15	1.779679E-16
6.130000E+03	7.877477E-15	1.805016E-16
6.140000E+03	8.009506E-15	1.831157E-16
6.150000E+03	8.146502E-15	1.858490E-16
6.160000E+03	8.286726E-15	1.886631E-16
6.170000E+03	8.429299E-15	1.915394E-16
6.180000E+03	8.573138E-15	1.944553E-16
6.190000E+03	8.715759E-15	1.973563E-16
6.200000E+03	8.857982E-15	2.002633E-16
6.210000E+03	8.996923E-15	2.031137E-16
6.220000E+03	9.129454E-15	2.058394E-16
6.230000E+03	9.255997E-15	2.084529E-16
6.240000E+03	9.373262E-15	2.108829E-16
6.250000E+03	9.477946E-15	2.130581E-16
6.260000E+03	9.570785E-15	2.149979E-16
6.270000E+03	9.647792E-15	2.166154E-16
6.280000E+03	9.710867E-15	2.179559E-16
6.290000E+03	9.757923E-15	2.189745E-16
6.300000E+03	9.792935E-15	2.197623E-16
6.310000E+03	9.815079E-15	2.203024E-16
6.320000E+03	9.829088E-15	2.207021E-16
6.330000E+03	9.834510E-15	2.209522E-16
6.340000E+03	9.834869E-15	2.211326E-16
6.350000E+03	9.833581E-15	2.213194E-16
6.360000E+03	9.829891E-15	2.214942E-16
6.370000E+03	9.828136E-15	2.217534E-16
6.380000E+03	9.827081E-15	2.220681E-16
6.390000E+03	9.829207E-15	2.224932E-16
6.400000E+03	9.835403E-15	2.230479E-16
6.410000E+03	9.847612E-15	2.237758E-16
6.420000E+03	9.863528E-15	2.246240E-16
6.430000E+03	9.884585E-15	2.256247E-16
6.440000E+03	9.910649E-15	2.267745E-16
6.450000E+03	9.941364E-15	2.280650E-16
6.460000E+03	9.977518E-15	2.295143E-16
6.470000E+03	1.001567E-14	2.310429E-16
6.480000E+03	1.005626E-14	2.326605E-16
6.490000E+03	1.009824E-14	2.343424E-16
6.500000E+03	1.014046E-14	2.360609E-16
6.510000E+03	1.018168E-14	2.377865E-16
6.520000E+03	1.022061E-14	2.394876E-16
6.530000E+03	1.025596E-14	2.411324E-16
6.540000E+03	1.028642E-14	2.426883E-16
6.550000E+03	1.031076E-14	2.441237E-16
6.560000E+03	1.032778E-14	2.454078E-16
6.570000E+03	1.033641E-14	2.465119E-16
6.580000E+03	1.033567E-14	2.474096E-16
6.590000E+03	1.032474E-14	2.480771E-16
6.600000E+03	1.030292E-14	2.484944E-16
6.610000E+03	1.026970E-14	2.486446E-16
6.620000E+03	1.022334E-14	2.484811E-16
6.630000E+03	1.016643E-14	2.480626E-16
6.640000E+03	1.009757E-14	2.473505E-16
6.650000E+03	1.001689E-14	2.463436E-16
6.660000E+03	9.924697E-15	2.450447E-16
6.670000E+03	9.821405E-15	2.434600E-16
6.680000E+03	9.706251E-15	2.415663E-16
6.690000E+03	9.582549E-15	2.394417E-16
6.700000E+03	9.449715E-15	2.370683E-16
6.710000E+03	9.307311E-15	2.344315E-16
6.720000E+03	9.158774E-15	2.316144E-16
6.730000E+03	9.003752E-15	2.286057E-16
6.740000E+03	8.842008E-15	2.253965E-16
6.750000E+03	8.676950E-15	2.220716E-16
6.760000E+03	8.508333E-15	2.186230E-16
6.770000E+03	8.335999E-15	2.150451E-16
6.780000E+03	8.163186E-15	2.114202E-16
6.790000E+03	7.988566E-15	2.077132E-16
6.800000E+03	7.815205E-15	2.040034E-16
6.810000E+03	7.642809E-15	2.002832E-16
6.820000E+03	7.471112E-15	1.965455E-16
6.830000E+03	7.302855E-15	1.928629E-16
6.840000E+03	7.136642E-15	1.891993E-16
6.850000E+03	6.974973E-15	1.856217E-16
6.860000E+03	6.816390E-15	1.820925E-16
6.870000E+03	6.662251E-15	1.786490E-16
6.880000E+03	6.513756E-15	1.753249E-16
6.890000E+03	6.369355E-15	1.720800E-16
6.900000E+03	6.230980E-15	1.689680E-16
6.910000E+03	6.097031E-15	1.659472E-16
6.920000E+03	5.968432E-15	1.630443E-16
6.930000E+03	5.845988E-15	1.602830E-16
6.940000E+03	5.728044E-15	1.576198E-16
6.950000E+03	5.615332E-15	1.550763E-16
6.960000E+03	5.508483E-15	1.526717E-16
6.970000E+03	5.405826E-15	1.503613E-16
6.980000E+03	5.307949E-15	1.481631E-16
6.990000E+03	5.214651E-15	1.460729E-16
7.000000E+03	5.126414E-15	1.441057E-16
7.010000E+03	5.041594E-15	1.422168E-16
7.020000E+03	4.960664E-15	1.404209E-16
7.030000E+03	4.883378E-15	1.387121E-16
7.040000E+03	4.809489E-15	1.370847E-16
7.050000E+03	4.739399E-15	1.355514E-16
7.060000E+03	4.671560E-15	1.340689E-16
7.070000E+03	4.606398E-15	1.326505E-16
7.080000E+03	4.543687E-15	1.312905E-16
7.090000E+03	4.483213E-15	1.299836E-16
7.100000E+03	4.424774E-15	1.287248E-16
7.110000E+03	4.368184E-15	1.275094E-16
7.120000E+03	4.313267E-15	1.263329E-16
7.130000E+03	4.259867E-15	1.251915E-16
7.140000E+03	4.207840E-15	1.240816E-16
7.150000E+03	4.157057E-15	1.229998E-16
7.160000E+03	4.107405E-15	1.219434E-16
7.170000E+03	4.058780E-15	1.209099E-16
7.180000E+03	4.011095E-15	1.198970E-16
7.190000E+03	3.964271E-15	1.189028E-16
7.200000E+03	3.918243E-15	1.179259E-16
7.210000E+03	3.872950E-15	1.169647E-16
7.220000E+03	3.828342E-15	1.160182E-16
7.230000E+03	3.784375E-15	1.150854E-16
7.240000E+03	3.740497E-15	1.141498E-16
7.250000E+03	3.697710E-15	1.132422E-16
7.260000E+03	3.655465E-15	1.123462E-16
7.270000E+03	3.613738E-15	1.114615E-16
7.280000E+03	3.572510E-15	1.105877E-16
7.290000E+03	3.531277E-15	1.097094E-16
7.300000E+03	3.491001E-15	1.088569E-16
7.310000E+03	3.451184E-15	1.080148E-16
7.320000E+03	3.411815E-15	1.071831E-16
7.330000E+03	3.372426E-15	1.063473E-16
7.340000E+03	3.333952E-15	1.055371E-16
7.350000E+03	3.295924E-15	1.047380E-16
7.360000E+03	3.257898E-15	1.039360E-16
7.370000E+03	3.220789E-15	1.031606E-16
7.380000E+03	3.183711E-15	1.023835E-16
7.390000E+03	3.147565E-15	1.016340E-16
7.400000E+03	3.111926E-15	1.008987E-16
7.410000E+03	3.076385E-15	1.001644E-16
7.420000E+03	3.041821E-15	9.946008E-17
7.430000E+03	3.007410E-15	9.875893E-17
7.440000E+03	2.974014E-15	9.808951E-17
7.450000E+03	2.940828E-15	9.742557E-17
7.460000E+03	2.908697E-15	9.679530E-17
7.470000E+03	2.876832E-15	9.617279E-17
7.480000E+03	2.846059E-15	9.558585E-17
7.490000E+03	2.815603E-15	9.500879E-17
7.500000E+03	2.785882E-15	9.445590E-17
7.510000E+03	2.757294E-15	9.394103E-17
7.520000E+03	2.729082E-15	9.343880E-17
7.530000E+03	2.702015E-15	9.297580E-17
7.540000E+03	2.675350E-15	9.252680E-17
7.550000E+03	2.649463E-15	9.210502E-17
7.560000E+03	2.624357E-15	9.171052E-17
7.570000E+03	2.600386E-15	9.135579E-17
7.580000E+03	2.576814E-15	9.101506E-17
7.590000E+03	2.553994E-15	9.070069E-17
7.600000E+03	2.531908E-15	9.041210E-17
7.610000E+03	2.510885E-15	9.016115E-17
7.620000E+03	2.490199E-15	8.992191E-17
7.630000E+03	2.470176E-15	8.970604E-17
7.640000E+03	2.450786E-15	8.951254E-17
7.650000E+03	2.431997E-15	8.934026E-17
7.660000E+03	2.413775E-15	8.918801E-17
7.670000E+03	2.396081E-15	8.905442E-17
7.680000E+03	2.379212E-15	8.895060E-17
7.690000E+03	2.362465E-15	8.885038E-17
7.700000E+03	2.346141E-15	8.876489E-17
7.710000E+03	2.330206E-15	8.869290E-17
7.720000E+03	2.314638E-15	8.863352E-17
7.730000E+03	2.299417E-15	8.858598E-17
7.740000E+03	2.284529E-15	8.854973E-17
7.750000E+03	2.269962E-15	8.852427E-17
7.760000E+03	2.255391E-15	8.849678E-17
