#wls	flux	fluxerr
1.586090E+03	1.356674E-02	7.623121E-04
1.625742E+03	1.127459E-02	6.245772E-04
1.665394E+03	9.281222E-03	5.067009E-04
1.705047E+03	7.564944E-03	4.068582E-04
1.744699E+03	6.102776E-03	3.232085E-04
1.784351E+03	4.870583E-03	2.539095E-04
1.824003E+03	3.841992E-03	1.970695E-04
1.863656E+03	2.993117E-03	1.509983E-04
1.903308E+03	2.299909E-03	1.140680E-04
1.942960E+03	1.740272E-03	8.481898E-05
1.982612E+03	1.294474E-03	6.197405E-05
2.022265E+03	9.458475E-04	4.446278E-05
2.061917E+03	6.807931E-04	3.141006E-05
2.101569E+03	4.891551E-04	2.214113E-05
2.141221E+03	3.611996E-04	1.603336E-05
2.180874E+03	2.846120E-04	1.238464E-05
2.220526E+03	2.488473E-04	1.061086E-05
2.260178E+03	2.491954E-04	1.040848E-05
2.299830E+03	2.872200E-04	1.174743E-05
2.339483E+03	3.740471E-04	1.497604E-05
2.379135E+03	5.365688E-04	2.102393E-05
2.418787E+03	8.250112E-04	3.162692E-05
2.458439E+03	1.322224E-03	4.958143E-05
2.498092E+03	2.147763E-03	7.876719E-05
2.537744E+03	3.442153E-03	1.234463E-04
2.577396E+03	5.312817E-03	1.863046E-04
2.617048E+03	7.761397E-03	2.661161E-04
2.656701E+03	1.070881E-02	3.590103E-04
2.696353E+03	1.409190E-02	4.619351E-04
2.736005E+03	1.789895E-02	5.737183E-04
2.775657E+03	2.216297E-02	6.946671E-04
2.815310E+03	2.692153E-02	8.251830E-04
2.854962E+03	3.216824E-02	9.642986E-04
2.894614E+03	3.781525E-02	1.108733E-03
2.934266E+03	4.369587E-02	1.253234E-03
2.973919E+03	4.958852E-02	1.391482E-03
2.983832E+03	5.103866E-02	1.424412E-03
2.993745E+03	5.247202E-02	1.456499E-03
3.003658E+03	5.388586E-02	1.487681E-03
3.013571E+03	5.528025E-02	1.517975E-03
3.023484E+03	5.665220E-02	1.547314E-03
3.033397E+03	5.800048E-02	1.575681E-03
3.043310E+03	5.932575E-02	1.603110E-03
3.053223E+03	6.062690E-02	1.629586E-03
3.063136E+03	6.190475E-02	1.655150E-03
3.073049E+03	6.316355E-02	1.679930E-03
3.082962E+03	6.440313E-02	1.703935E-03
3.092875E+03	6.562793E-02	1.727298E-03
3.102789E+03	6.684050E-02	1.750097E-03
3.112702E+03	6.804933E-02	1.772565E-03
3.122615E+03	6.925542E-02	1.794737E-03
3.132528E+03	7.046548E-02	1.816793E-03
3.142441E+03	7.168653E-02	1.838919E-03
3.152354E+03	7.292427E-02	1.861264E-03
3.162267E+03	7.418158E-02	1.883900E-03
3.172180E+03	7.546789E-02	1.907068E-03
3.182093E+03	7.678522E-02	1.930814E-03
3.192006E+03	7.813903E-02	1.955272E-03
3.201919E+03	7.953101E-02	1.980480E-03
3.211832E+03	8.096452E-02	2.006515E-03
3.221745E+03	8.244019E-02	2.033389E-03
3.231658E+03	8.395706E-02	2.061068E-03
3.241571E+03	8.551099E-02	2.089445E-03
3.251484E+03	8.709864E-02	2.118430E-03
3.261398E+03	8.871304E-02	2.147849E-03
3.271311E+03	9.034332E-02	2.177439E-03
3.281224E+03	9.197885E-02	2.206943E-03
3.291137E+03	9.360316E-02	2.235974E-03
3.301050E+03	9.519955E-02	2.264143E-03
3.310963E+03	9.674498E-02	2.290918E-03
3.320876E+03	9.821419E-02	2.315726E-03
3.330789E+03	9.957796E-02	2.337909E-03
3.340702E+03	1.008030E-01	2.356722E-03
3.350615E+03	1.018516E-01	2.371335E-03
3.360528E+03	1.026806E-01	2.380802E-03
3.370441E+03	1.032465E-01	2.384180E-03
3.380354E+03	1.034994E-01	2.380401E-03
3.390267E+03	1.033968E-01	2.368576E-03
3.400180E+03	1.028957E-01	2.347819E-03
3.410093E+03	1.019661E-01	2.317552E-03
3.420007E+03	1.005920E-01	2.277524E-03
3.429920E+03	9.877320E-02	2.227840E-03
3.439833E+03	9.652909E-02	2.169042E-03
3.449746E+03	9.388583E-02	2.101813E-03
3.459659E+03	9.087030E-02	2.026842E-03
3.469572E+03	8.752257E-02	1.945098E-03
3.479485E+03	8.390199E-02	1.857962E-03
3.489398E+03	8.009012E-02	1.767283E-03
3.499311E+03	7.617992E-02	1.675131E-03
3.509224E+03	7.227685E-02	1.583822E-03
3.519137E+03	6.848536E-02	1.495616E-03
3.529050E+03	6.490570E-02	1.412655E-03
3.538963E+03	6.162580E-02	1.336784E-03
3.548876E+03	5.871999E-02	1.269533E-03
3.558789E+03	5.624826E-02	1.212101E-03
3.568702E+03	5.425486E-02	1.165338E-03
3.578616E+03	5.277582E-02	1.129907E-03
3.588529E+03	5.183709E-02	1.106248E-03
3.598442E+03	5.146067E-02	1.094713E-03
3.608355E+03	5.166916E-02	1.095664E-03
3.618268E+03	5.248646E-02	1.109486E-03
3.628181E+03	5.393825E-02	1.136595E-03
3.638094E+03	5.605455E-02	1.177496E-03
3.648007E+03	5.886270E-02	1.232632E-03
3.657920E+03	6.238970E-02	1.302430E-03
3.667833E+03	6.665731E-02	1.387204E-03
3.677746E+03	7.167929E-02	1.487098E-03
3.687659E+03	7.745356E-02	1.601925E-03
3.697572E+03	8.396160E-02	1.731159E-03
3.707485E+03	9.116534E-02	1.873880E-03
3.717398E+03	9.900322E-02	2.028694E-03
3.727311E+03	1.073907E-01	2.193754E-03
3.737225E+03	1.162329E-01	2.367024E-03
3.747138E+03	1.254192E-01	2.546173E-03
3.757051E+03	1.348258E-01	2.728626E-03
3.766964E+03	1.443313E-01	2.911897E-03
3.776877E+03	1.538034E-01	3.093299E-03
3.786790E+03	1.631117E-01	3.270225E-03
3.796703E+03	1.721325E-01	3.440232E-03
3.806616E+03	1.807404E-01	3.600872E-03
3.816529E+03	1.888185E-01	3.749899E-03
3.826442E+03	1.962685E-01	3.885470E-03
3.836355E+03	2.030051E-01	4.006012E-03
3.846268E+03	2.089611E-01	4.110342E-03
3.856181E+03	2.141007E-01	4.197902E-03
3.866094E+03	2.184187E-01	4.268745E-03
3.876007E+03	2.219347E-01	4.323413E-03
3.885920E+03	2.247041E-01	4.363131E-03
3.895834E+03	2.268044E-01	4.389543E-03
3.905747E+03	2.283277E-01	4.404558E-03
3.915660E+03	2.293832E-01	4.410383E-03
3.925573E+03	2.300751E-01	4.409113E-03
3.935486E+03	2.304888E-01	4.402447E-03
3.945399E+03	2.306914E-01	4.391726E-03
3.955312E+03	2.307126E-01	4.377554E-03
3.965225E+03	2.305492E-01	4.359913E-03
3.975138E+03	2.301600E-01	4.338068E-03
3.985051E+03	2.294677E-01	4.310612E-03
3.994964E+03	2.283806E-01	4.275900E-03
4.004877E+03	2.267992E-01	4.232148E-03
4.014790E+03	2.246294E-01	4.177712E-03
4.024703E+03	2.217939E-01	4.111271E-03
4.034616E+03	2.182559E-01	4.032280E-03
4.044529E+03	2.140114E-01	3.940797E-03
4.054443E+03	2.090910E-01	3.837517E-03
4.064356E+03	2.035600E-01	3.723764E-03
4.074269E+03	1.975098E-01	3.601313E-03
4.084182E+03	1.910511E-01	3.472272E-03
4.094095E+03	1.843089E-01	3.338974E-03
4.104008E+03	1.774162E-01	3.203871E-03
4.113921E+03	1.705048E-01	3.069354E-03
4.123834E+03	1.637112E-01	2.937869E-03
4.133747E+03	1.571638E-01	2.811689E-03
4.143660E+03	1.509806E-01	2.692869E-03
4.153573E+03	1.452762E-01	2.583379E-03
4.163486E+03	1.401491E-01	2.484883E-03
4.173399E+03	1.356790E-01	2.398690E-03
4.183312E+03	1.319315E-01	2.325850E-03
4.193225E+03	1.289503E-01	2.267017E-03
4.203138E+03	1.267564E-01	2.222448E-03
4.213052E+03	1.253500E-01	2.192033E-03
4.222965E+03	1.247057E-01	2.175223E-03
4.232878E+03	1.247697E-01	2.170986E-03
4.242791E+03	1.254648E-01	2.177899E-03
4.252704E+03	1.266846E-01	2.194057E-03
4.262617E+03	1.283002E-01	2.217179E-03
4.272530E+03	1.301695E-01	2.244777E-03
4.282443E+03	1.321377E-01	2.274171E-03
4.292356E+03	1.340565E-01	2.302814E-03
4.302269E+03	1.357989E-01	2.328539E-03
4.312182E+03	1.372687E-01	2.349725E-03
4.322095E+03	1.384003E-01	2.365282E-03
4.332008E+03	1.391867E-01	2.375122E-03
4.341921E+03	1.396852E-01	2.380252E-03
4.351834E+03	1.399813E-01	2.382150E-03
4.361747E+03	1.401631E-01	2.382324E-03
4.371661E+03	1.403124E-01	2.382164E-03
4.381574E+03	1.404886E-01	2.382664E-03
4.391487E+03	1.407218E-01	2.384323E-03
4.401400E+03	1.410177E-01	2.387220E-03
4.411313E+03	1.413586E-01	2.391040E-03
4.421226E+03	1.417129E-01	2.395237E-03
4.431139E+03	1.420366E-01	2.399051E-03
4.441052E+03	1.422723E-01	2.401503E-03
4.450965E+03	1.423610E-01	2.401588E-03
4.460878E+03	1.422393E-01	2.398227E-03
4.470791E+03	1.418509E-01	2.390465E-03
4.480704E+03	1.411613E-01	2.377714E-03
4.490617E+03	1.401523E-01	2.359658E-03
4.500530E+03	1.388194E-01	2.336219E-03
4.510443E+03	1.371745E-01	2.307589E-03
4.520356E+03	1.352397E-01	2.274133E-03
4.530270E+03	1.330481E-01	2.236402E-03
4.540183E+03	1.306501E-01	2.195234E-03
4.550096E+03	1.280987E-01	2.151517E-03
4.560009E+03	1.254547E-01	2.106263E-03
4.569922E+03	1.227890E-01	2.060655E-03
4.579835E+03	1.201703E-01	2.015840E-03
4.589748E+03	1.176568E-01	1.972789E-03
4.599661E+03	1.153047E-01	1.932432E-03
4.609574E+03	1.131482E-01	1.895337E-03
4.619487E+03	1.112109E-01	1.861890E-03
4.629400E+03	1.094936E-01	1.832095E-03
4.639313E+03	1.079792E-01	1.805657E-03
4.649226E+03	1.066362E-01	1.782038E-03
4.659139E+03	1.054216E-01	1.760516E-03
4.669052E+03	1.042858E-01	1.740256E-03
4.678965E+03	1.031753E-01	1.720359E-03
4.688879E+03	1.020473E-01	1.700111E-03
4.698792E+03	1.008680E-01	1.678949E-03
4.708705E+03	9.961404E-02	1.656488E-03
4.718618E+03	9.829079E-02	1.632820E-03
4.728531E+03	9.691404E-02	1.608212E-03
4.738444E+03	9.551732E-02	1.583225E-03
4.748357E+03	9.414603E-02	1.558613E-03
4.758270E+03	9.284847E-02	1.535177E-03
4.768183E+03	9.167107E-02	1.513681E-03
4.778096E+03	9.065050E-02	1.494724E-03
4.788009E+03	8.980954E-02	1.478675E-03
4.797922E+03	8.916132E-02	1.465736E-03
4.807835E+03	8.870467E-02	1.455877E-03
4.817748E+03	8.842692E-02	1.448877E-03
4.827661E+03	8.831050E-02	1.444434E-03
4.837574E+03	8.833744E-02	1.442243E-03
4.847488E+03	8.848746E-02	1.441962E-03
4.857401E+03	8.874658E-02	1.443352E-03
4.867314E+03	8.910874E-02	1.446306E-03
4.877227E+03	8.957652E-02	1.450855E-03
4.887140E+03	9.015540E-02	1.457080E-03
4.897053E+03	9.085542E-02	1.465131E-03
4.906966E+03	9.168794E-02	1.475179E-03
4.916879E+03	9.265780E-02	1.487288E-03
4.926792E+03	9.376694E-02	1.501475E-03
4.936705E+03	9.500705E-02	1.517592E-03
4.946618E+03	9.636104E-02	1.535354E-03
4.956531E+03	9.780245E-02	1.554328E-03
4.966444E+03	9.929890E-02	1.573993E-03
4.976357E+03	1.008079E-01	1.593673E-03
4.986270E+03	1.022880E-01	1.612716E-03
4.996183E+03	1.036975E-01	1.630477E-03
5.006097E+03	1.049939E-01	1.646301E-03
5.016010E+03	1.061420E-01	1.659662E-03
5.025923E+03	1.071106E-01	1.670097E-03
5.035836E+03	1.078698E-01	1.677175E-03
5.045749E+03	1.083916E-01	1.680498E-03
5.055662E+03	1.086499E-01	1.679703E-03
5.065575E+03	1.086198E-01	1.674451E-03
5.075488E+03	1.082741E-01	1.664374E-03
5.085401E+03	1.075948E-01	1.649247E-03
5.095314E+03	1.065687E-01	1.628921E-03
5.105227E+03	1.052043E-01	1.603583E-03
5.115140E+03	1.035246E-01	1.573633E-03
5.125053E+03	1.015747E-01	1.539803E-03
5.134966E+03	9.942399E-02	1.503182E-03
5.144879E+03	9.715467E-02	1.465042E-03
5.154792E+03	9.485438E-02	1.426718E-03
5.164706E+03	9.260830E-02	1.389497E-03
5.174619E+03	9.049483E-02	1.354548E-03
5.184532E+03	8.856924E-02	1.322687E-03
5.194445E+03	8.686697E-02	1.294424E-03
5.204358E+03	8.540160E-02	1.269942E-03
5.214271E+03	8.416744E-02	1.249140E-03
5.224184E+03	8.313854E-02	1.231615E-03
5.234097E+03	8.227886E-02	1.216823E-03
5.244010E+03	8.154619E-02	1.204135E-03
5.253923E+03	8.090079E-02	1.192961E-03
5.263836E+03	8.030586E-02	1.182759E-03
5.273749E+03	7.973547E-02	1.173153E-03
5.283662E+03	7.917691E-02	1.163959E-03
5.293575E+03	7.863123E-02	1.155198E-03
5.303488E+03	7.810966E-02	1.147040E-03
5.313401E+03	7.763722E-02	1.139857E-03
5.323315E+03	7.724035E-02	1.134037E-03
5.333228E+03	7.694515E-02	1.129958E-03
5.343141E+03	7.676837E-02	1.127860E-03
5.353054E+03	7.671521E-02	1.127818E-03
5.362967E+03	7.677296E-02	1.129642E-03
5.372880E+03	7.691220E-02	1.132897E-03
5.382793E+03	7.710341E-02	1.137145E-03
5.392706E+03	7.731863E-02	1.141966E-03
5.402619E+03	7.753278E-02	1.146987E-03
5.412532E+03	7.771593E-02	1.151755E-03
5.422445E+03	7.784381E-02	1.155899E-03
5.432358E+03	7.790885E-02	1.159296E-03
5.442271E+03	7.791005E-02	1.161914E-03
5.452184E+03	7.785777E-02	1.163894E-03
5.462097E+03	7.777084E-02	1.165503E-03
5.472010E+03	7.767524E-02	1.167119E-03
5.481924E+03	7.759144E-02	1.169039E-03
5.491837E+03	7.753685E-02	1.171519E-03
5.501750E+03	7.752044E-02	1.174690E-03
5.511663E+03	7.754416E-02	1.178579E-03
5.521576E+03	7.759524E-02	1.182988E-03
5.531489E+03	7.765357E-02	1.187606E-03
5.541402E+03	7.769440E-02	1.192048E-03
5.551315E+03	7.769484E-02	1.195950E-03
5.561228E+03	7.763062E-02	1.198926E-03
5.571141E+03	7.748403E-02	1.200683E-03
5.581054E+03	7.724777E-02	1.201088E-03
5.590967E+03	7.692159E-02	1.200116E-03
5.600880E+03	7.651359E-02	1.197874E-03
5.610793E+03	7.603996E-02	1.194596E-03
5.620706E+03	7.552356E-02	1.190625E-03
5.630619E+03	7.498871E-02	1.186334E-03
5.640533E+03	7.445942E-02	1.182094E-03
5.650446E+03	7.395641E-02	1.178233E-03
5.660359E+03	7.349429E-02	1.174984E-03
5.670272E+03	7.308166E-02	1.172486E-03
5.680185E+03	7.271513E-02	1.170691E-03
5.690098E+03	7.238522E-02	1.169450E-03
5.700011E+03	7.207242E-02	1.168449E-03
5.709924E+03	7.174830E-02	1.167226E-03
5.719837E+03	7.138024E-02	1.165243E-03
5.729750E+03	7.093344E-02	1.161923E-03
5.739663E+03	7.037027E-02	1.156630E-03
5.749576E+03	6.965699E-02	1.148788E-03
5.759489E+03	6.877086E-02	1.137994E-03
5.769402E+03	6.769428E-02	1.123927E-03
5.779315E+03	6.642302E-02	1.106484E-03
5.789228E+03	6.496891E-02	1.085830E-03
5.799142E+03	6.335497E-02	1.062323E-03
5.809055E+03	6.161505E-02	1.036506E-03
5.818968E+03	5.979322E-02	1.009104E-03
5.828881E+03	5.793948E-02	9.809511E-04
5.838794E+03	5.609990E-02	9.528263E-04
5.848707E+03	5.431930E-02	9.254972E-04
5.858620E+03	5.263478E-02	8.996095E-04
5.868533E+03	5.107259E-02	8.756303E-04
5.878446E+03	4.964914E-02	8.538629E-04
5.888359E+03	4.836873E-02	8.344056E-04
5.898272E+03	4.722755E-02	8.172168E-04
5.908185E+03	4.621509E-02	8.021380E-04
5.918098E+03	4.531488E-02	7.889044E-04
5.928011E+03	4.450749E-02	7.771961E-04
5.937924E+03	4.377730E-02	7.667559E-04
5.947837E+03	4.310872E-02	7.573236E-04
5.957751E+03	4.249476E-02	7.487876E-04
5.967664E+03	4.193493E-02	7.411495E-04
5.977577E+03	4.143719E-02	7.345608E-04
5.987490E+03	4.101618E-02	7.292933E-04
5.997403E+03	4.069263E-02	7.257308E-04
6.007316E+03	4.049082E-02	7.243254E-04
6.017229E+03	4.043339E-02	7.255050E-04
6.027142E+03	4.054255E-02	7.296951E-04
6.037055E+03	4.083360E-02	7.372022E-04
6.046968E+03	4.131737E-02	7.482556E-04
6.056881E+03	4.199441E-02	7.629012E-04
6.066794E+03	4.285643E-02	7.810249E-04
6.076707E+03	4.388782E-02	8.023778E-04
6.086620E+03	4.506680E-02	8.265953E-04
6.096533E+03	4.636390E-02	8.531675E-04
6.106446E+03	4.774631E-02	8.815166E-04
6.116360E+03	4.918282E-02	9.110873E-04
6.126273E+03	5.063978E-02	9.412724E-04
6.136186E+03	5.208684E-02	9.715181E-04
6.146099E+03	5.349877E-02	1.001359E-03
6.156012E+03	5.485436E-02	1.030399E-03
6.165925E+03	5.613361E-02	1.058260E-03
6.175838E+03	5.732018E-02	1.084625E-03
6.185751E+03	5.840088E-02	1.109234E-03
6.195664E+03	5.936289E-02	1.131829E-03
6.205577E+03	6.019670E-02	1.152212E-03
6.215490E+03	6.089364E-02	1.170194E-03
6.225403E+03	6.144745E-02	1.185632E-03
6.235316E+03	6.185299E-02	1.198399E-03
6.245229E+03	6.210734E-02	1.208404E-03
6.255142E+03	6.221139E-02	1.215623E-03
6.265055E+03	6.217011E-02	1.220112E-03
6.274969E+03	6.199081E-02	1.221973E-03
6.284882E+03	6.168712E-02	1.221435E-03
6.294795E+03	6.127800E-02	1.218836E-03
6.304708E+03	6.078495E-02	1.214571E-03
6.314621E+03	6.023581E-02	1.209168E-03
6.324534E+03	5.966005E-02	1.203201E-03
6.334447E+03	5.908677E-02	1.197244E-03
6.344360E+03	5.854243E-02	1.191830E-03
6.354273E+03	5.804411E-02	1.187312E-03
6.364186E+03	5.758373E-02	1.183530E-03
6.374099E+03	5.714952E-02	1.180247E-03
6.384012E+03	5.672948E-02	1.177217E-03
6.393925E+03	5.631341E-02	1.174226E-03
6.403838E+03	5.589447E-02	1.171126E-03
6.413751E+03	5.546880E-02	1.167832E-03
6.423664E+03	5.503609E-02	1.164329E-03
6.433578E+03	5.459515E-02	1.160587E-03
6.443491E+03	5.414949E-02	1.156673E-03
6.453404E+03	5.370146E-02	1.152631E-03
6.463317E+03	5.325281E-02	1.148496E-03
6.473230E+03	5.280732E-02	1.144345E-03
6.483143E+03	5.236758E-02	1.140232E-03
6.493056E+03	5.193586E-02	1.136206E-03
6.502969E+03	5.151461E-02	1.132318E-03
6.512882E+03	5.110644E-02	1.128628E-03
6.522795E+03	5.071158E-02	1.125141E-03
6.532708E+03	5.033088E-02	1.121878E-03
6.542621E+03	4.996520E-02	1.118860E-03
6.552534E+03	4.961374E-02	1.116072E-03
6.562447E+03	4.927492E-02	1.113479E-03
6.572360E+03	4.894810E-02	1.111068E-03
6.582273E+03	4.863054E-02	1.108780E-03
6.592187E+03	4.832252E-02	1.106621E-03
6.602100E+03	4.802065E-02	1.104515E-03
6.612013E+03	4.772296E-02	1.102416E-03
6.621926E+03	4.742899E-02	1.100312E-03
6.631839E+03	4.713723E-02	1.098170E-03
6.641752E+03	4.684527E-02	1.095931E-03
6.651665E+03	4.655216E-02	1.093572E-03
6.661578E+03	4.625778E-02	1.091089E-03
6.671491E+03	4.596042E-02	1.088440E-03
6.681404E+03	4.566090E-02	1.085642E-03
6.691317E+03	4.535773E-02	1.082659E-03
6.701230E+03	4.505286E-02	1.079536E-03
6.711143E+03	4.474599E-02	1.076264E-03
6.721056E+03	4.444004E-02	1.072913E-03
6.730969E+03	4.413481E-02	1.069479E-03
6.740882E+03	4.383317E-02	1.066030E-03
6.750796E+03	4.353706E-02	1.062615E-03
6.760709E+03	4.324727E-02	1.059255E-03
6.770622E+03	4.296659E-02	1.056019E-03
6.780535E+03	4.269575E-02	1.052928E-03
6.790448E+03	4.243655E-02	1.050030E-03
6.800361E+03	4.218841E-02	1.047312E-03
6.810274E+03	4.195337E-02	1.044829E-03
6.820187E+03	4.173047E-02	1.042559E-03
6.830100E+03	4.151959E-02	1.040503E-03
6.840013E+03	4.131931E-02	1.038628E-03
6.849926E+03	4.113024E-02	1.036951E-03
6.859839E+03	4.094943E-02	1.035402E-03
6.869752E+03	4.077844E-02	1.034021E-03
6.879665E+03	4.061473E-02	1.032747E-03
6.889578E+03	4.045793E-02	1.031571E-03
6.899491E+03	4.030828E-02	1.030503E-03
6.909405E+03	4.016423E-02	1.029503E-03
6.919318E+03	4.002521E-02	1.028559E-03
6.929231E+03	3.989036E-02	1.027650E-03
6.939144E+03	3.975834E-02	1.026743E-03
6.949057E+03	3.962792E-02	1.025806E-03
6.958970E+03	3.949672E-02	1.024779E-03
6.968883E+03	3.936428E-02	1.023650E-03
6.978796E+03	3.922638E-02	1.022310E-03
6.988709E+03	3.908327E-02	1.020765E-03
6.998622E+03	3.893034E-02	1.018895E-03
7.008535E+03	3.876737E-02	1.016691E-03
7.018448E+03	3.859176E-02	1.014087E-03
7.028361E+03	3.840188E-02	1.011037E-03
7.038274E+03	3.819768E-02	1.007540E-03
7.048187E+03	3.797711E-02	1.003540E-03
7.058100E+03	3.774097E-02	9.990579E-04
7.068014E+03	3.748978E-02	9.941060E-04
7.077927E+03	3.722617E-02	9.887538E-04
7.087840E+03	3.695241E-02	9.830621E-04
7.097753E+03	3.667106E-02	9.770986E-04
7.107666E+03	3.638637E-02	9.709784E-04
7.117579E+03	3.610026E-02	9.647535E-04
7.127492E+03	3.581778E-02	9.585608E-04
7.137405E+03	3.554131E-02	9.524663E-04
7.147318E+03	3.527249E-02	9.465163E-04
7.157231E+03	3.501395E-02	9.407844E-04
7.167144E+03	3.476670E-02	9.353002E-04
7.177057E+03	3.453017E-02	9.300516E-04
7.186970E+03	3.430414E-02	9.250348E-04
7.196883E+03	3.408762E-02	9.202263E-04
7.206796E+03	3.387913E-02	9.155886E-04
7.216709E+03	3.367730E-02	9.110869E-04
7.226623E+03	3.347908E-02	9.066408E-04
7.236536E+03	3.328412E-02	9.022427E-04
7.246449E+03	3.309056E-02	8.978444E-04
7.256362E+03	3.289663E-02	8.933993E-04
7.266275E+03	3.270217E-02	8.889050E-04
7.276188E+03	3.250583E-02	8.843263E-04
7.286101E+03	3.230795E-02	8.796745E-04
7.296014E+03	3.210919E-02	8.749686E-04
7.305927E+03	3.191047E-02	8.702358E-04
7.315840E+03	3.171415E-02	8.655421E-04
7.325753E+03	3.151993E-02	8.608813E-04
7.335666E+03	3.133130E-02	8.563510E-04
7.345579E+03	3.114856E-02	8.519614E-04
7.355492E+03	3.097322E-02	8.477554E-04
7.365405E+03	3.080502E-02	8.437290E-04
7.375318E+03	3.064330E-02	8.398654E-04
7.385232E+03	3.048699E-02	8.361381E-04
7.395145E+03	3.033334E-02	8.324735E-04
7.405058E+03	3.018130E-02	8.288444E-04
7.414971E+03	3.002573E-02	8.251118E-04
7.424884E+03	2.986402E-02	8.212053E-04
7.434797E+03	2.969096E-02	8.169831E-04
7.444710E+03	2.950344E-02	8.123611E-04
7.454623E+03	2.929619E-02	8.071945E-04
7.464536E+03	2.906412E-02	8.013439E-04
7.474449E+03	2.880241E-02	7.946765E-04
7.484362E+03	2.850623E-02	7.870590E-04
7.494275E+03	2.817186E-02	7.783882E-04
7.504188E+03	2.779331E-02	7.684975E-04
7.514101E+03	2.736794E-02	7.573127E-04
7.524014E+03	2.689361E-02	7.447724E-04
7.533927E+03	2.636768E-02	7.308016E-04
7.543841E+03	2.579054E-02	7.154082E-04
7.553754E+03	2.516221E-02	6.985892E-04
7.563667E+03	2.448520E-02	6.804112E-04
7.573580E+03	2.376180E-02	6.609340E-04
7.583493E+03	2.299741E-02	6.403035E-04
7.593406E+03	2.219640E-02	6.186377E-04
7.603319E+03	2.136775E-02	5.961823E-04
7.613232E+03	2.051916E-02	5.731486E-04
7.623145E+03	1.966059E-02	5.498113E-04
7.633058E+03	1.880163E-02	5.264357E-04
7.642971E+03	1.795206E-02	5.032936E-04
7.652884E+03	1.712111E-02	4.806419E-04
7.662797E+03	1.631779E-02	4.587335E-04
7.672710E+03	1.555031E-02	4.378000E-04
7.682623E+03	1.482552E-02	4.180356E-04
7.692536E+03	1.415066E-02	3.996473E-04
