#wls	flux	fluxerr
1.586090E+03	4.131493E-02	1.372927E-03
1.625742E+03	3.527790E-02	1.145785E-03
1.665394E+03	2.984069E-02	9.465772E-04
1.705047E+03	2.499421E-02	7.737742E-04
1.744699E+03	2.072240E-02	6.256327E-04
1.784351E+03	1.700107E-02	5.001889E-04
1.824003E+03	1.379245E-02	3.951401E-04
1.863656E+03	1.106027E-02	3.083203E-04
1.903308E+03	8.759512E-03	2.374229E-04
1.942960E+03	6.843123E-03	1.802154E-04
1.982612E+03	5.263407E-03	1.345862E-04
2.022265E+03	3.975936E-03	9.864836E-05
2.061917E+03	2.944532E-03	7.084839E-05
2.101569E+03	2.159481E-03	5.036246E-05
2.141221E+03	1.622150E-03	3.665363E-05
2.180874E+03	1.301219E-03	2.847902E-05
2.220526E+03	1.155649E-03	2.449616E-05
2.260178E+03	1.164236E-03	2.390245E-05
2.299830E+03	1.338664E-03	2.662772E-05
2.339483E+03	1.736969E-03	3.349374E-05
2.379135E+03	2.487167E-03	4.653367E-05
2.418787E+03	3.820551E-03	6.944022E-05
2.458439E+03	6.101905E-03	1.079112E-04
2.498092E+03	9.805038E-03	1.690454E-04
2.537744E+03	1.534048E-02	2.584110E-04
2.577396E+03	2.266938E-02	3.740258E-04
2.617048E+03	3.099678E-02	5.021557E-04
2.656701E+03	3.943866E-02	6.287925E-04
2.696353E+03	4.794523E-02	7.538950E-04
2.736005E+03	5.726290E-02	8.896827E-04
2.775657E+03	6.839542E-02	1.051700E-03
2.815310E+03	8.211501E-02	1.251369E-03
2.854962E+03	9.857578E-02	1.490444E-03
2.894614E+03	1.172357E-01	1.760231E-03
2.934266E+03	1.370655E-01	2.044982E-03
2.973919E+03	1.569961E-01	2.328671E-03
2.983832E+03	1.618968E-01	2.397982E-03
2.993745E+03	1.667269E-01	2.466092E-03
3.003658E+03	1.714635E-01	2.532665E-03
3.013571E+03	1.760877E-01	2.597430E-03
3.023484E+03	1.805673E-01	2.659913E-03
3.033397E+03	1.848704E-01	2.719654E-03
3.043310E+03	1.889692E-01	2.776254E-03
3.053223E+03	1.928338E-01	2.829282E-03
3.063136E+03	1.964407E-01	2.878406E-03
3.073049E+03	1.997817E-01	2.923519E-03
3.082962E+03	2.028505E-01	2.964543E-03
3.092875E+03	2.056635E-01	3.001731E-03
3.102789E+03	2.082401E-01	3.035376E-03
3.112702E+03	2.106366E-01	3.066313E-03
3.122615E+03	2.128959E-01	3.095174E-03
3.132528E+03	2.150850E-01	3.122938E-03
3.142441E+03	2.172767E-01	3.150663E-03
3.152354E+03	2.195446E-01	3.179416E-03
3.162267E+03	2.219556E-01	3.210157E-03
3.172180E+03	2.245934E-01	3.244085E-03
3.182093E+03	2.275195E-01	3.282069E-03
3.192006E+03	2.308032E-01	3.325089E-03
3.201919E+03	2.344925E-01	3.373809E-03
3.211832E+03	2.386347E-01	3.428886E-03
3.221745E+03	2.432628E-01	3.490763E-03
3.231658E+03	2.483892E-01	3.559587E-03
3.241571E+03	2.540076E-01	3.635238E-03
3.251484E+03	2.601059E-01	3.717512E-03
3.261398E+03	2.666483E-01	3.805866E-03
3.271311E+03	2.735779E-01	3.899463E-03
3.281224E+03	2.808323E-01	3.997389E-03
3.291137E+03	2.883276E-01	4.098432E-03
3.301050E+03	2.959747E-01	4.201313E-03
3.310963E+03	3.036649E-01	4.304478E-03
3.320876E+03	3.112877E-01	4.406363E-03
3.330789E+03	3.187269E-01	4.505329E-03
3.340702E+03	3.258666E-01	4.599753E-03
3.350615E+03	3.326035E-01	4.688198E-03
3.360528E+03	3.388403E-01	4.769321E-03
3.370441E+03	3.445078E-01	4.842182E-03
3.380354E+03	3.495533E-01	4.906081E-03
3.390267E+03	3.539737E-01	4.961018E-03
3.400180E+03	3.577818E-01	5.007211E-03
3.410093E+03	3.610530E-01	5.045761E-03
3.420007E+03	3.638926E-01	5.078174E-03
3.429920E+03	3.664212E-01	5.106163E-03
3.439833E+03	3.687871E-01	5.131819E-03
3.449746E+03	3.710053E-01	5.155367E-03
3.459659E+03	3.727772E-01	5.172681E-03
3.469572E+03	3.737035E-01	5.178261E-03
3.479485E+03	3.733701E-01	5.166418E-03
3.489398E+03	3.714264E-01	5.132365E-03
3.499311E+03	3.676401E-01	5.072976E-03
3.509224E+03	3.619179E-01	4.987052E-03
3.519137E+03	3.542851E-01	4.875042E-03
3.529050E+03	3.449355E-01	4.739707E-03
3.538963E+03	3.341565E-01	4.585078E-03
3.548876E+03	3.223104E-01	4.416197E-03
3.558789E+03	3.098348E-01	4.239106E-03
3.568702E+03	2.971576E-01	4.059686E-03
3.578616E+03	2.846961E-01	3.883642E-03
3.588529E+03	2.728329E-01	3.716173E-03
3.598442E+03	2.618929E-01	3.561663E-03
3.608355E+03	2.521378E-01	3.423609E-03
3.618268E+03	2.437649E-01	3.304615E-03
3.628181E+03	2.369165E-01	3.206520E-03
3.638094E+03	2.316944E-01	3.130599E-03
3.648007E+03	2.281255E-01	3.077108E-03
3.657920E+03	2.262216E-01	3.046089E-03
3.667833E+03	2.259839E-01	3.037442E-03
3.677746E+03	2.273977E-01	3.050841E-03
3.687659E+03	2.304428E-01	3.085888E-03
3.697572E+03	2.351074E-01	3.142294E-03
3.707485E+03	2.413711E-01	3.219649E-03
3.717398E+03	2.492155E-01	3.317570E-03
3.727311E+03	2.586170E-01	3.435597E-03
3.737225E+03	2.695427E-01	3.573146E-03
3.747138E+03	2.819429E-01	3.729406E-03
3.757051E+03	2.957454E-01	3.903276E-03
3.766964E+03	3.108531E-01	4.093323E-03
3.776877E+03	3.271165E-01	4.297439E-03
3.786790E+03	3.443578E-01	4.513156E-03
3.796703E+03	3.623580E-01	4.737485E-03
3.806616E+03	3.808453E-01	4.966779E-03
3.816529E+03	3.995233E-01	5.197101E-03
3.826442E+03	4.180966E-01	5.424571E-03
3.836355E+03	4.362610E-01	5.645231E-03
3.846268E+03	4.537192E-01	5.855263E-03
3.856181E+03	4.702114E-01	6.051374E-03
3.866094E+03	4.855229E-01	6.230892E-03
3.876007E+03	4.994748E-01	6.391640E-03
3.885920E+03	5.119391E-01	6.532126E-03
3.895834E+03	5.228345E-01	6.651473E-03
3.905747E+03	5.321206E-01	6.749348E-03
3.915660E+03	5.398038E-01	6.826016E-03
3.925573E+03	5.459137E-01	6.882045E-03
3.935486E+03	5.504904E-01	6.918135E-03
3.945399E+03	5.535903E-01	6.935190E-03
3.955312E+03	5.552532E-01	6.933898E-03
3.965225E+03	5.555223E-01	6.914993E-03
3.975138E+03	5.544265E-01	6.879027E-03
3.985051E+03	5.519809E-01	6.826376E-03
3.994964E+03	5.482093E-01	6.757528E-03
4.004877E+03	5.431180E-01	6.672749E-03
4.014790E+03	5.367279E-01	6.572487E-03
4.024703E+03	5.290650E-01	6.457246E-03
4.034616E+03	5.201685E-01	6.327687E-03
4.044529E+03	5.100968E-01	6.184697E-03
4.054443E+03	4.989361E-01	6.029485E-03
4.064356E+03	4.867874E-01	5.863421E-03
4.074269E+03	4.737787E-01	5.688179E-03
4.084182E+03	4.600723E-01	5.505822E-03
4.094095E+03	4.458468E-01	5.318575E-03
4.104008E+03	4.313084E-01	5.128957E-03
4.113921E+03	4.166695E-01	4.939528E-03
4.123834E+03	4.021647E-01	4.753072E-03
4.133747E+03	3.880246E-01	4.572291E-03
4.143660E+03	3.744677E-01	4.399709E-03
4.153573E+03	3.617071E-01	4.237752E-03
4.163486E+03	3.499347E-01	4.088577E-03
4.173399E+03	3.393101E-01	3.953936E-03
4.183312E+03	3.299512E-01	3.835083E-03
4.193225E+03	3.219427E-01	3.732883E-03
4.203138E+03	3.153386E-01	3.647838E-03
4.213052E+03	3.101459E-01	3.579915E-03
4.222965E+03	3.063375E-01	3.528698E-03
4.232878E+03	3.038505E-01	3.493373E-03
4.242791E+03	3.025866E-01	3.472739E-03
4.252704E+03	3.024119E-01	3.465206E-03
4.262617E+03	3.031587E-01	3.468813E-03
4.272530E+03	3.046127E-01	3.481075E-03
4.282443E+03	3.065248E-01	3.499129E-03
4.292356E+03	3.086273E-01	3.519914E-03
4.302269E+03	3.106107E-01	3.539913E-03
4.312182E+03	3.121810E-01	3.555791E-03
4.322095E+03	3.130806E-01	3.564633E-03
4.332008E+03	3.131607E-01	3.564756E-03
4.341921E+03	3.124536E-01	3.556535E-03
4.351834E+03	3.110948E-01	3.541508E-03
4.361747E+03	3.092619E-01	3.521672E-03
4.371661E+03	3.071599E-01	3.499318E-03
4.381574E+03	3.049858E-01	3.476648E-03
4.391487E+03	3.029051E-01	3.455505E-03
4.401400E+03	3.010693E-01	3.437580E-03
4.411313E+03	2.996059E-01	3.424299E-03
4.421226E+03	2.986174E-01	3.416813E-03
4.431139E+03	2.981776E-01	3.415947E-03
4.441052E+03	2.983069E-01	3.421930E-03
4.450965E+03	2.989517E-01	3.434141E-03
4.460878E+03	2.999987E-01	3.451273E-03
4.470791E+03	3.013094E-01	3.471725E-03
4.480704E+03	3.027442E-01	3.493871E-03
4.490617E+03	3.041662E-01	3.516112E-03
4.500530E+03	3.054467E-01	3.536928E-03
4.510443E+03	3.064663E-01	3.554901E-03
4.520356E+03	3.071197E-01	3.568766E-03
4.530270E+03	3.073222E-01	3.577485E-03
4.540183E+03	3.070173E-01	3.580347E-03
4.550096E+03	3.061602E-01	3.576770E-03
4.560009E+03	3.047331E-01	3.566485E-03
4.569922E+03	3.027490E-01	3.549586E-03
4.579835E+03	3.002380E-01	3.526369E-03
4.589748E+03	2.972388E-01	3.497234E-03
4.599661E+03	2.938216E-01	3.462960E-03
4.609574E+03	2.900447E-01	3.424194E-03
4.619487E+03	2.859849E-01	3.381808E-03
4.629400E+03	2.817059E-01	3.336525E-03
4.639313E+03	2.772665E-01	3.289023E-03
4.649226E+03	2.727180E-01	3.239891E-03
4.659139E+03	2.680998E-01	3.189589E-03
4.669052E+03	2.634492E-01	3.138550E-03
4.678965E+03	2.587892E-01	3.087046E-03
4.688879E+03	2.541349E-01	3.035256E-03
4.698792E+03	2.495016E-01	2.983364E-03
4.708705E+03	2.448952E-01	2.931442E-03
4.718618E+03	2.403269E-01	2.879629E-03
4.728531E+03	2.357948E-01	2.827908E-03
4.738444E+03	2.313158E-01	2.776490E-03
4.748357E+03	2.269066E-01	2.725584E-03
4.758270E+03	2.225850E-01	2.675411E-03
4.768183E+03	2.183801E-01	2.626335E-03
4.778096E+03	2.143231E-01	2.578741E-03
4.788009E+03	2.104403E-01	2.532957E-03
4.797922E+03	2.067644E-01	2.489391E-03
4.807835E+03	2.033242E-01	2.448401E-03
4.817748E+03	2.001442E-01	2.410293E-03
4.827661E+03	1.972495E-01	2.375380E-03
4.837574E+03	1.946615E-01	2.343928E-03
4.847488E+03	1.923959E-01	2.316135E-03
4.857401E+03	1.904700E-01	2.292212E-03
4.867314E+03	1.888908E-01	2.272250E-03
4.877227E+03	1.876689E-01	2.256374E-03
4.887140E+03	1.868091E-01	2.244645E-03
4.897053E+03	1.863070E-01	2.237003E-03
4.906966E+03	1.861571E-01	2.233381E-03
4.916879E+03	1.863466E-01	2.233615E-03
4.926792E+03	1.868604E-01	2.237518E-03
4.936705E+03	1.876740E-01	2.244788E-03
4.946618E+03	1.887603E-01	2.255089E-03
4.956531E+03	1.900834E-01	2.267983E-03
4.966444E+03	1.916077E-01	2.283038E-03
4.976357E+03	1.932849E-01	2.299670E-03
4.986270E+03	1.950655E-01	2.317284E-03
4.996183E+03	1.968980E-01	2.335268E-03
5.006097E+03	1.987236E-01	2.352923E-03
5.016010E+03	2.004835E-01	2.369559E-03
5.025923E+03	2.021183E-01	2.384486E-03
5.035836E+03	2.035709E-01	2.397043E-03
5.045749E+03	2.047853E-01	2.406594E-03
5.055662E+03	2.057140E-01	2.412606E-03
5.065575E+03	2.063194E-01	2.414668E-03
5.075488E+03	2.065673E-01	2.412418E-03
5.085401E+03	2.064445E-01	2.405739E-03
5.095314E+03	2.059405E-01	2.394552E-03
5.105227E+03	2.050696E-01	2.379067E-03
5.115140E+03	2.038543E-01	2.359587E-03
5.125053E+03	2.023336E-01	2.336608E-03
5.134966E+03	2.005587E-01	2.310757E-03
5.144879E+03	1.985886E-01	2.282751E-03
5.154792E+03	1.964906E-01	2.253392E-03
5.164706E+03	1.943315E-01	2.223472E-03
5.174619E+03	1.921840E-01	2.193838E-03
5.184532E+03	1.901061E-01	2.165169E-03
5.194445E+03	1.881546E-01	2.138118E-03
5.204358E+03	1.863764E-01	2.113220E-03
5.214271E+03	1.848095E-01	2.090910E-03
5.224184E+03	1.834771E-01	2.071447E-03
5.234097E+03	1.823994E-01	2.055057E-03
5.244010E+03	1.815860E-01	2.041845E-03
5.253923E+03	1.810406E-01	2.031852E-03
5.263836E+03	1.807603E-01	2.025045E-03
5.273749E+03	1.807416E-01	2.021385E-03
5.283662E+03	1.809708E-01	2.020723E-03
5.293575E+03	1.814352E-01	2.022925E-03
5.303488E+03	1.821182E-01	2.027813E-03
5.313401E+03	1.830031E-01	2.035213E-03
5.323315E+03	1.840639E-01	2.044853E-03
5.333228E+03	1.852799E-01	2.056520E-03
5.343141E+03	1.866222E-01	2.069914E-03
5.353054E+03	1.880608E-01	2.084725E-03
5.362967E+03	1.895632E-01	2.100613E-03
5.372880E+03	1.911020E-01	2.117284E-03
5.382793E+03	1.926558E-01	2.134503E-03
5.392706E+03	1.942005E-01	2.152005E-03
5.402619E+03	1.957206E-01	2.169618E-03
5.412532E+03	1.971976E-01	2.187131E-03
5.422445E+03	1.986192E-01	2.204401E-03
5.432358E+03	1.999824E-01	2.221387E-03
5.442271E+03	2.012761E-01	2.237956E-03
5.452184E+03	2.024969E-01	2.254061E-03
5.462097E+03	2.036363E-01	2.269595E-03
5.472010E+03	2.046906E-01	2.284504E-03
5.481924E+03	2.056457E-01	2.298617E-03
5.491837E+03	2.064921E-01	2.311811E-03
5.501750E+03	2.072153E-01	2.323906E-03
5.511663E+03	2.078088E-01	2.334813E-03
5.521576E+03	2.082613E-01	2.344383E-03
5.531489E+03	2.085677E-01	2.352539E-03
5.541402E+03	2.087224E-01	2.359194E-03
5.551315E+03	2.087271E-01	2.364344E-03
5.561228E+03	2.085803E-01	2.367950E-03
5.571141E+03	2.082883E-01	2.370059E-03
5.581054E+03	2.078632E-01	2.370785E-03
5.590967E+03	2.073194E-01	2.370272E-03
5.600880E+03	2.066780E-01	2.368739E-03
5.610793E+03	2.059612E-01	2.366424E-03
5.620706E+03	2.051983E-01	2.363645E-03
5.630619E+03	2.044192E-01	2.360733E-03
5.640533E+03	2.036524E-01	2.358010E-03
5.650446E+03	2.029241E-01	2.355769E-03
5.660359E+03	2.022563E-01	2.354267E-03
5.670272E+03	2.016707E-01	2.353752E-03
5.680185E+03	2.011738E-01	2.354300E-03
5.690098E+03	2.007730E-01	2.356005E-03
5.700011E+03	2.004655E-01	2.358835E-03
5.709924E+03	2.002375E-01	2.362634E-03
5.719837E+03	2.000722E-01	2.367205E-03
5.729750E+03	1.999451E-01	2.372264E-03
5.739663E+03	1.998210E-01	2.377389E-03
5.749576E+03	1.996606E-01	2.382112E-03
5.759489E+03	1.994250E-01	2.385964E-03
5.769402E+03	1.990643E-01	2.388336E-03
5.779315E+03	1.985338E-01	2.388677E-03
5.789228E+03	1.977882E-01	2.386426E-03
5.799142E+03	1.967855E-01	2.381050E-03
5.809055E+03	1.954914E-01	2.372110E-03
5.818968E+03	1.938716E-01	2.359159E-03
5.828881E+03	1.919093E-01	2.341960E-03
5.838794E+03	1.895899E-01	2.320300E-03
5.848707E+03	1.869110E-01	2.294113E-03
5.858620E+03	1.838792E-01	2.263445E-03
5.868533E+03	1.805104E-01	2.228454E-03
5.878446E+03	1.768298E-01	2.189420E-03
5.888359E+03	1.728640E-01	2.146640E-03
5.898272E+03	1.686505E-01	2.100548E-03
5.908185E+03	1.642337E-01	2.051675E-03
5.918098E+03	1.596609E-01	2.000587E-03
5.928011E+03	1.549798E-01	1.947868E-03
5.937924E+03	1.502481E-01	1.894231E-03
5.947837E+03	1.455161E-01	1.840304E-03
5.957751E+03	1.408452E-01	1.786864E-03
5.967664E+03	1.362855E-01	1.734554E-03
5.977577E+03	1.318894E-01	1.684052E-03
5.987490E+03	1.277070E-01	1.636018E-03
5.997403E+03	1.237795E-01	1.591005E-03
6.007316E+03	1.201433E-01	1.549511E-03
6.017229E+03	1.168247E-01	1.511910E-03
6.027142E+03	1.138475E-01	1.478554E-03
6.037055E+03	1.112210E-01	1.449604E-03
6.046968E+03	1.089532E-01	1.425215E-03
6.056881E+03	1.070410E-01	1.405392E-03
6.066794E+03	1.054744E-01	1.390056E-03
6.076707E+03	1.042386E-01	1.379064E-03
6.086620E+03	1.033152E-01	1.372220E-03
6.096533E+03	1.026786E-01	1.369234E-03
6.106446E+03	1.023008E-01	1.369782E-03
6.116360E+03	1.021540E-01	1.373533E-03
6.126273E+03	1.022029E-01	1.380055E-03
6.136186E+03	1.024147E-01	1.388942E-03
6.146099E+03	1.027562E-01	1.399770E-03
6.156012E+03	1.031937E-01	1.412099E-03
6.165925E+03	1.036918E-01	1.425452E-03
6.175838E+03	1.042171E-01	1.439377E-03
6.185751E+03	1.047394E-01	1.453450E-03
6.195664E+03	1.052277E-01	1.467238E-03
6.205577E+03	1.056569E-01	1.480370E-03
6.215490E+03	1.060033E-01	1.492500E-03
6.225403E+03	1.062490E-01	1.503348E-03
6.235316E+03	1.063788E-01	1.512670E-03
6.245229E+03	1.063824E-01	1.520287E-03
6.255142E+03	1.062560E-01	1.526111E-03
6.265055E+03	1.060012E-01	1.530126E-03
6.274969E+03	1.056215E-01	1.532351E-03
6.284882E+03	1.051283E-01	1.532916E-03
6.294795E+03	1.045369E-01	1.532012E-03
6.304708E+03	1.038629E-01	1.529836E-03
6.314621E+03	1.031275E-01	1.526682E-03
6.324534E+03	1.023494E-01	1.522802E-03
6.334447E+03	1.015453E-01	1.518432E-03
6.344360E+03	1.007286E-01	1.513758E-03
6.354273E+03	9.991143E-02	1.508957E-03
6.364186E+03	9.909866E-02	1.504095E-03
6.374099E+03	9.829507E-02	1.499241E-03
6.384012E+03	9.749937E-02	1.494370E-03
6.393925E+03	9.670832E-02	1.489430E-03
6.403838E+03	9.591948E-02	1.484379E-03
6.413751E+03	9.512919E-02	1.479156E-03
6.423664E+03	9.433608E-02	1.473734E-03
6.433578E+03	9.353553E-02	1.468038E-03
6.443491E+03	9.272996E-02	1.462099E-03
6.453404E+03	9.191996E-02	1.455922E-03
6.463317E+03	9.110566E-02	1.449506E-03
6.473230E+03	9.029074E-02	1.442905E-03
6.483143E+03	8.947793E-02	1.436160E-03
6.493056E+03	8.867017E-02	1.429317E-03
6.502969E+03	8.787037E-02	1.422422E-03
6.512882E+03	8.708276E-02	1.415543E-03
6.522795E+03	8.630843E-02	1.408699E-03
6.532708E+03	8.554947E-02	1.401925E-03
6.542621E+03	8.480897E-02	1.395274E-03
6.552534E+03	8.408814E-02	1.388769E-03
6.562447E+03	8.338632E-02	1.382401E-03
6.572360E+03	8.270524E-02	1.376202E-03
6.582273E+03	8.204343E-02	1.370150E-03
6.592187E+03	8.140326E-02	1.364288E-03
6.602100E+03	8.078129E-02	1.358561E-03
6.612013E+03	8.017665E-02	1.352959E-03
6.621926E+03	7.958969E-02	1.347488E-03
6.631839E+03	7.901931E-02	1.342135E-03
6.641752E+03	7.846304E-02	1.336858E-03
6.651665E+03	7.791981E-02	1.331642E-03
6.661578E+03	7.739000E-02	1.326496E-03
6.671491E+03	7.687141E-02	1.321384E-03
6.681404E+03	7.636468E-02	1.316319E-03
6.691317E+03	7.586660E-02	1.311247E-03
6.701230E+03	7.537952E-02	1.306212E-03
6.711143E+03	7.490058E-02	1.301165E-03
6.721056E+03	7.443250E-02	1.296156E-03
6.730969E+03	7.397269E-02	1.291141E-03
6.740882E+03	7.352279E-02	1.286150E-03
6.750796E+03	7.308312E-02	1.281192E-03
6.760709E+03	7.265267E-02	1.276250E-03
6.770622E+03	7.223320E-02	1.271358E-03
6.780535E+03	7.182367E-02	1.266499E-03
6.790448E+03	7.142571E-02	1.261704E-03
6.800361E+03	7.103685E-02	1.256931E-03
6.810274E+03	7.065981E-02	1.252231E-03
6.820187E+03	7.029326E-02	1.247582E-03
6.830100E+03	6.993704E-02	1.242983E-03
6.840013E+03	6.958952E-02	1.238406E-03
6.849926E+03	6.925294E-02	1.233895E-03
6.859839E+03	6.892278E-02	1.229370E-03
6.869752E+03	6.860236E-02	1.224892E-03
6.879665E+03	6.828822E-02	1.220401E-03
6.889578E+03	6.797951E-02	1.215883E-03
6.899491E+03	6.767651E-02	1.211345E-03
6.909405E+03	6.737684E-02	1.206747E-03
6.919318E+03	6.707931E-02	1.202068E-03
6.929231E+03	6.678269E-02	1.197287E-03
6.939144E+03	6.648565E-02	1.192384E-03
6.949057E+03	6.618692E-02	1.187336E-03
6.958970E+03	6.588387E-02	1.182099E-03
6.968883E+03	6.557785E-02	1.176697E-03
6.978796E+03	6.526380E-02	1.171043E-03
6.988709E+03	6.494455E-02	1.165189E-03
6.998622E+03	6.461535E-02	1.159052E-03
7.008535E+03	6.427807E-02	1.152667E-03
7.018448E+03	6.393096E-02	1.146007E-03
7.028361E+03	6.357376E-02	1.139068E-03
7.038274E+03	6.320776E-02	1.131877E-03
7.048187E+03	6.283069E-02	1.124396E-03
7.058100E+03	6.244439E-02	1.116662E-03
7.068014E+03	6.204842E-02	1.108668E-03
7.077927E+03	6.164513E-02	1.100461E-03
7.087840E+03	6.123584E-02	1.092068E-03
7.097753E+03	6.082086E-02	1.083497E-03
7.107666E+03	6.040312E-02	1.074804E-03
7.117579E+03	5.998206E-02	1.065982E-03
7.127492E+03	5.956207E-02	1.057114E-03
7.137405E+03	5.914395E-02	1.048216E-03
7.147318E+03	5.872849E-02	1.039305E-03
7.157231E+03	5.831892E-02	1.030442E-03
7.167144E+03	5.791716E-02	1.021663E-03
7.177057E+03	5.752390E-02	1.012984E-03
7.186970E+03	5.714097E-02	1.004439E-03
7.196883E+03	5.677014E-02	9.960615E-04
7.206796E+03	5.641317E-02	9.878848E-04
7.216709E+03	5.607184E-02	9.799418E-04
7.226623E+03	5.574571E-02	9.722266E-04
7.236536E+03	5.543906E-02	9.648155E-04
7.246449E+03	5.515287E-02	9.577266E-04
7.256362E+03	5.488837E-02	9.509823E-04
7.266275E+03	5.464924E-02	9.446472E-04
7.276188E+03	5.443604E-02	9.387309E-04
7.286101E+03	5.425175E-02	9.332850E-04
7.296014E+03	5.409959E-02	9.283646E-04
7.305927E+03	5.398173E-02	9.240058E-04
7.315840E+03	5.390265E-02	9.202841E-04
7.325753E+03	5.386226E-02	9.171963E-04
7.335666E+03	5.386598E-02	9.148325E-04
7.345579E+03	5.391444E-02	9.132011E-04
7.355492E+03	5.401132E-02	9.123615E-04
7.365405E+03	5.415757E-02	9.123268E-04
7.375318E+03	5.435474E-02	9.131197E-04
7.385232E+03	5.460489E-02	9.147718E-04
7.395145E+03	5.490710E-02	9.172641E-04
7.405058E+03	5.526437E-02	9.206434E-04
7.414971E+03	5.567297E-02	9.248448E-04
7.424884E+03	5.613307E-02	9.298685E-04
7.434797E+03	5.664023E-02	9.356389E-04
7.444710E+03	5.719392E-02	9.421463E-04
7.454623E+03	5.778760E-02	9.492824E-04
7.464536E+03	5.841480E-02	9.569423E-04
7.474449E+03	5.906915E-02	9.650236E-04
7.484362E+03	5.974178E-02	9.733855E-04
7.494275E+03	6.042532E-02	9.819133E-04
7.504188E+03	6.110597E-02	9.903896E-04
7.514101E+03	6.177277E-02	9.986465E-04
7.524014E+03	6.241398E-02	1.006505E-03
7.533927E+03	6.301429E-02	1.013731E-03
7.543841E+03	6.356068E-02	1.020129E-03
7.553754E+03	6.403704E-02	1.025458E-03
7.563667E+03	6.443172E-02	1.029549E-03
7.573580E+03	6.472775E-02	1.032149E-03
7.583493E+03	6.491494E-02	1.033114E-03
7.593406E+03	6.497864E-02	1.032233E-03
7.603319E+03	6.491193E-02	1.029413E-03
7.613232E+03	6.470433E-02	1.024508E-03
7.623145E+03	6.435397E-02	1.017506E-03
7.633058E+03	6.385761E-02	1.008370E-03
7.642971E+03	6.321674E-02	9.971375E-04
7.652884E+03	6.243622E-02	9.838966E-04
7.662797E+03	6.152423E-02	9.687833E-04
7.672710E+03	6.049202E-02	9.519798E-04
7.682623E+03	5.935223E-02	9.336868E-04
7.692536E+03	5.812396E-02	9.142038E-04
