#wls	flux	fluxerr
1.586090E+03	4.525563E-02	3.451946E-03
1.625742E+03	3.704621E-02	2.796157E-03
1.665394E+03	2.995948E-02	2.237270E-03
1.705047E+03	2.393841E-02	1.768438E-03
1.744699E+03	1.891403E-02	1.382095E-03
1.784351E+03	1.479440E-02	1.069215E-03
1.824003E+03	1.147529E-02	8.201739E-04
1.863656E+03	8.846683E-03	6.252661E-04
1.903308E+03	6.798174E-03	4.751093E-04
1.942960E+03	5.226656E-03	3.611812E-04
1.982612E+03	4.037809E-03	2.758919E-04
2.022265E+03	3.149009E-03	2.127456E-04
2.061917E+03	2.493292E-03	1.665579E-04
2.101569E+03	2.022528E-03	1.336026E-04
2.141221E+03	1.705141E-03	1.113893E-04
2.180874E+03	1.517875E-03	9.806834E-05
2.220526E+03	1.446280E-03	9.243030E-05
2.260178E+03	1.486769E-03	9.400392E-05
2.299830E+03	1.648563E-03	1.031396E-04
2.339483E+03	1.956190E-03	1.211219E-04
2.379135E+03	2.451882E-03	1.502686E-04
2.418787E+03	3.197045E-03	1.939667E-04
2.458439E+03	4.265154E-03	2.561901E-04
2.498092E+03	5.728350E-03	3.406682E-04
2.537744E+03	7.628272E-03	4.491726E-04
2.577396E+03	9.943876E-03	5.797274E-04
2.617048E+03	1.257119E-02	7.256160E-04
2.656701E+03	1.536033E-02	8.777268E-04
2.696353E+03	1.816551E-02	1.027510E-03
2.736005E+03	2.086781E-02	1.168238E-03
2.775657E+03	2.337789E-02	1.295083E-03
2.815310E+03	2.563865E-02	1.405179E-03
2.854962E+03	2.760967E-02	1.496700E-03
2.894614E+03	2.926964E-02	1.568940E-03
2.934266E+03	3.061265E-02	1.622072E-03
2.973919E+03	3.165579E-02	1.657500E-03
2.983832E+03	3.187453E-02	1.663900E-03
2.993745E+03	3.207712E-02	1.669366E-03
3.003658E+03	3.226517E-02	1.673989E-03
3.013571E+03	3.244043E-02	1.677864E-03
3.023484E+03	3.260388E-02	1.681047E-03
3.033397E+03	3.275666E-02	1.683603E-03
3.043310E+03	3.290178E-02	1.685690E-03
3.053223E+03	3.303983E-02	1.687340E-03
3.063136E+03	3.317244E-02	1.688641E-03
3.073049E+03	3.330306E-02	1.689768E-03
3.082962E+03	3.343365E-02	1.690822E-03
3.092875E+03	3.356714E-02	1.691948E-03
3.102789E+03	3.370430E-02	1.693185E-03
3.112702E+03	3.385082E-02	1.694814E-03
3.122615E+03	3.400788E-02	1.696889E-03
3.132528E+03	3.417922E-02	1.699589E-03
3.142441E+03	3.436878E-02	1.703102E-03
3.152354E+03	3.457994E-02	1.707585E-03
3.162267E+03	3.481711E-02	1.713242E-03
3.172180E+03	3.508411E-02	1.720247E-03
3.182093E+03	3.538577E-02	1.728819E-03
3.192006E+03	3.572641E-02	1.739148E-03
3.201919E+03	3.611128E-02	1.751468E-03
3.211832E+03	3.654513E-02	1.765984E-03
3.221745E+03	3.703292E-02	1.782906E-03
3.231658E+03	3.758053E-02	1.802486E-03
3.241571E+03	3.819328E-02	1.824942E-03
3.251484E+03	3.887738E-02	1.850534E-03
3.261398E+03	3.963847E-02	1.879487E-03
3.271311E+03	4.048231E-02	1.912027E-03
3.281224E+03	4.141477E-02	1.948383E-03
3.291137E+03	4.244249E-02	1.988813E-03
3.301050E+03	4.357140E-02	2.033536E-03
3.310963E+03	4.480741E-02	2.082768E-03
3.320876E+03	4.615634E-02	2.136710E-03
3.330789E+03	4.762302E-02	2.195519E-03
3.340702E+03	4.921347E-02	2.259398E-03
3.350615E+03	5.093174E-02	2.328456E-03
3.360528E+03	5.278282E-02	2.402839E-03
3.370441E+03	5.476927E-02	2.482580E-03
3.380354E+03	5.689178E-02	2.567625E-03
3.390267E+03	5.915288E-02	2.658000E-03
3.400180E+03	6.154945E-02	2.753475E-03
3.410093E+03	6.407880E-02	2.853843E-03
3.420007E+03	6.673521E-02	2.958762E-03
3.429920E+03	6.951051E-02	3.067786E-03
3.439833E+03	7.239308E-02	3.180324E-03
3.449746E+03	7.536996E-02	3.295734E-03
3.459659E+03	7.842464E-02	3.413230E-03
3.469572E+03	8.154137E-02	3.532073E-03
3.479485E+03	8.469892E-02	3.651299E-03
3.489398E+03	8.787333E-02	3.769845E-03
3.499311E+03	9.103897E-02	3.886596E-03
3.509224E+03	9.416495E-02	4.000236E-03
3.519137E+03	9.722100E-02	4.109502E-03
3.529050E+03	1.001765E-01	4.213138E-03
3.538963E+03	1.030005E-01	4.309909E-03
3.548876E+03	1.056642E-01	4.398694E-03
3.558789E+03	1.081414E-01	4.478496E-03
3.568702E+03	1.104148E-01	4.548721E-03
3.578616E+03	1.124685E-01	4.608845E-03
3.588529E+03	1.142966E-01	4.658760E-03
3.598442E+03	1.159002E-01	4.698659E-03
3.608355E+03	1.172879E-01	4.729029E-03
3.618268E+03	1.184756E-01	4.750653E-03
3.628181E+03	1.194878E-01	4.764630E-03
3.638094E+03	1.203567E-01	4.772353E-03
3.648007E+03	1.211193E-01	4.775383E-03
3.657920E+03	1.218172E-01	4.775416E-03
3.667833E+03	1.225008E-01	4.774461E-03
3.677746E+03	1.232196E-01	4.774443E-03
3.687659E+03	1.240288E-01	4.777467E-03
3.697572E+03	1.249840E-01	4.785598E-03
3.707485E+03	1.261419E-01	4.800894E-03
3.717398E+03	1.275563E-01	4.825250E-03
3.727311E+03	1.292806E-01	4.860494E-03
3.737225E+03	1.313656E-01	4.908308E-03
3.747138E+03	1.338531E-01	4.969983E-03
3.757051E+03	1.367790E-01	5.046568E-03
3.766964E+03	1.401696E-01	5.138711E-03
3.776877E+03	1.440386E-01	5.246579E-03
3.786790E+03	1.483832E-01	5.369727E-03
3.796703E+03	1.531849E-01	5.507152E-03
3.806616E+03	1.584075E-01	5.657226E-03
3.816529E+03	1.639911E-01	5.817523E-03
3.826442E+03	1.698598E-01	5.985100E-03
3.836355E+03	1.759176E-01	6.156391E-03
3.846268E+03	1.820507E-01	6.327306E-03
3.856181E+03	1.881345E-01	6.493482E-03
3.866094E+03	1.940375E-01	6.650453E-03
3.876007E+03	1.996260E-01	6.793795E-03
3.885920E+03	2.047766E-01	6.919570E-03
3.895834E+03	2.093756E-01	7.024284E-03
3.905747E+03	2.133353E-01	7.105424E-03
3.915660E+03	2.165933E-01	7.161402E-03
3.925573E+03	2.191146E-01	7.191586E-03
3.935486E+03	2.208998E-01	7.196541E-03
3.945399E+03	2.219810E-01	7.177857E-03
3.955312E+03	2.224190E-01	7.138008E-03
3.965225E+03	2.222947E-01	7.080054E-03
3.975138E+03	2.217099E-01	7.007638E-03
3.985051E+03	2.207772E-01	6.924636E-03
3.994964E+03	2.196116E-01	6.834893E-03
4.004877E+03	2.183251E-01	6.742057E-03
4.014790E+03	2.170241E-01	6.649488E-03
4.024703E+03	2.158016E-01	6.560037E-03
4.034616E+03	2.147332E-01	6.475941E-03
4.044529E+03	2.138831E-01	6.399024E-03
4.054443E+03	2.132921E-01	6.330360E-03
4.064356E+03	2.129863E-01	6.270541E-03
4.074269E+03	2.129713E-01	6.219550E-03
4.084182E+03	2.132341E-01	6.176823E-03
4.094095E+03	2.137505E-01	6.141482E-03
4.104008E+03	2.144761E-01	6.112108E-03
4.113921E+03	2.153558E-01	6.087020E-03
4.123834E+03	2.163265E-01	6.064365E-03
4.133747E+03	2.173154E-01	6.042085E-03
4.143660E+03	2.182458E-01	6.018075E-03
4.153573E+03	2.190407E-01	5.990300E-03
4.163486E+03	2.196215E-01	5.956746E-03
4.173399E+03	2.199195E-01	5.915739E-03
4.183312E+03	2.198675E-01	5.865700E-03
4.193225E+03	2.194139E-01	5.805525E-03
4.203138E+03	2.185142E-01	5.734330E-03
4.213052E+03	2.171454E-01	5.651828E-03
4.222965E+03	2.152956E-01	5.558031E-03
4.232878E+03	2.129729E-01	5.453462E-03
4.242791E+03	2.102040E-01	5.339108E-03
4.252704E+03	2.070379E-01	5.216484E-03
4.262617E+03	2.035402E-01	5.087469E-03
4.272530E+03	1.997910E-01	4.954249E-03
4.282443E+03	1.958887E-01	4.819380E-03
4.292356E+03	1.919404E-01	4.685553E-03
4.302269E+03	1.880627E-01	4.555608E-03
4.312182E+03	1.843773E-01	4.432412E-03
4.322095E+03	1.810052E-01	4.318730E-03
4.332008E+03	1.780715E-01	4.217338E-03
4.341921E+03	1.757037E-01	4.130985E-03
4.351834E+03	1.740267E-01	4.062287E-03
4.361747E+03	1.731405E-01	4.013206E-03
4.371661E+03	1.731273E-01	3.985254E-03
4.381574E+03	1.740394E-01	3.979224E-03
4.391487E+03	1.759045E-01	3.995345E-03
4.401400E+03	1.787228E-01	4.033228E-03
4.411313E+03	1.824658E-01	4.091874E-03
4.421226E+03	1.870763E-01	4.169684E-03
4.431139E+03	1.924720E-01	4.264554E-03
4.441052E+03	1.985536E-01	4.374042E-03
4.450965E+03	2.052197E-01	4.495712E-03
4.460878E+03	2.123717E-01	4.627261E-03
4.470791E+03	2.198887E-01	4.765949E-03
4.480704E+03	2.276230E-01	4.908520E-03
4.490617E+03	2.354039E-01	5.051291E-03
4.500530E+03	2.430349E-01	5.190097E-03
4.510443E+03	2.503016E-01	5.320466E-03
4.520356E+03	2.569748E-01	5.437680E-03
4.530270E+03	2.628298E-01	5.537200E-03
4.540183E+03	2.676478E-01	5.614664E-03
4.550096E+03	2.712413E-01	5.666431E-03
4.560009E+03	2.734511E-01	5.689486E-03
4.569922E+03	2.741787E-01	5.682106E-03
4.579835E+03	2.733697E-01	5.643487E-03
4.589748E+03	2.710365E-01	5.574203E-03
4.599661E+03	2.672503E-01	5.476005E-03
4.609574E+03	2.621326E-01	5.351640E-03
4.619487E+03	2.558474E-01	5.204674E-03
4.629400E+03	2.485981E-01	5.039415E-03
4.639313E+03	2.405997E-01	4.860342E-03
4.649226E+03	2.320858E-01	4.672253E-03
4.659139E+03	2.232737E-01	4.479557E-03
4.669052E+03	2.143781E-01	4.286550E-03
4.678965E+03	2.055886E-01	4.096980E-03
4.688879E+03	1.970694E-01	3.914043E-03
4.698792E+03	1.889557E-01	3.740328E-03
4.708705E+03	1.813569E-01	3.577877E-03
4.718618E+03	1.743522E-01	3.428124E-03
4.728531E+03	1.679969E-01	3.292009E-03
4.738444E+03	1.623253E-01	3.170061E-03
4.748357E+03	1.573522E-01	3.062412E-03
4.758270E+03	1.530758E-01	2.968881E-03
4.768183E+03	1.494812E-01	2.889027E-03
4.778096E+03	1.465412E-01	2.822182E-03
4.788009E+03	1.442194E-01	2.767506E-03
4.797922E+03	1.424669E-01	2.723929E-03
4.807835E+03	1.412276E-01	2.690257E-03
4.817748E+03	1.404338E-01	2.665090E-03
4.827661E+03	1.400112E-01	2.646924E-03
4.837574E+03	1.398771E-01	2.634113E-03
4.847488E+03	1.399432E-01	2.624932E-03
4.857401E+03	1.401236E-01	2.617727E-03
4.867314E+03	1.403353E-01	2.610924E-03
4.877227E+03	1.405104E-01	2.603252E-03
4.887140E+03	1.405927E-01	2.593680E-03
4.897053E+03	1.405509E-01	2.581654E-03
4.906966E+03	1.403757E-01	2.567034E-03
4.916879E+03	1.400817E-01	2.550120E-03
4.926792E+03	1.397051E-01	2.531601E-03
4.936705E+03	1.392992E-01	2.512460E-03
4.946618E+03	1.389346E-01	2.493980E-03
4.956531E+03	1.386853E-01	2.477478E-03
4.966444E+03	1.386330E-01	2.464382E-03
4.976357E+03	1.388570E-01	2.456052E-03
4.986270E+03	1.394332E-01	2.453755E-03
4.996183E+03	1.404306E-01	2.458616E-03
5.006097E+03	1.419098E-01	2.471581E-03
5.016010E+03	1.439252E-01	2.493471E-03
5.025923E+03	1.465210E-01	2.524911E-03
5.035836E+03	1.497305E-01	2.566318E-03
5.045749E+03	1.535791E-01	2.617968E-03
5.055662E+03	1.580769E-01	2.679869E-03
5.065575E+03	1.632228E-01	2.751835E-03
5.075488E+03	1.689953E-01	2.833345E-03
5.085401E+03	1.753555E-01	2.923601E-03
5.095314E+03	1.822360E-01	3.021351E-03
5.105227E+03	1.895509E-01	3.125068E-03
5.115140E+03	1.971797E-01	3.232700E-03
5.125053E+03	2.049831E-01	3.341938E-03
5.134966E+03	2.127908E-01	3.450034E-03
5.144879E+03	2.204213E-01	3.554123E-03
5.154792E+03	2.276788E-01	3.651184E-03
5.164706E+03	2.343727E-01	3.738357E-03
5.174619E+03	2.403220E-01	3.812996E-03
5.184532E+03	2.453626E-01	3.872785E-03
5.194445E+03	2.493712E-01	3.916102E-03
5.204358E+03	2.522558E-01	3.941838E-03
5.214271E+03	2.539657E-01	3.949553E-03
5.224184E+03	2.544978E-01	3.939534E-03
5.234097E+03	2.538858E-01	3.912625E-03
5.244010E+03	2.521980E-01	3.870165E-03
5.253923E+03	2.495256E-01	3.813804E-03
5.263836E+03	2.459907E-01	3.745615E-03
5.273749E+03	2.417229E-01	3.667733E-03
5.283662E+03	2.368628E-01	3.582408E-03
5.293575E+03	2.315538E-01	3.491881E-03
5.303488E+03	2.259459E-01	3.398448E-03
5.313401E+03	2.201835E-01	3.304283E-03
5.323315E+03	2.144118E-01	3.211535E-03
5.333228E+03	2.087637E-01	3.122146E-03
5.343141E+03	2.033674E-01	3.037963E-03
5.353054E+03	1.983324E-01	2.960493E-03
5.362967E+03	1.937400E-01	2.890812E-03
5.372880E+03	1.896365E-01	2.829487E-03
5.382793E+03	1.860207E-01	2.776389E-03
5.392706E+03	1.828417E-01	2.730668E-03
5.402619E+03	1.800355E-01	2.691290E-03
5.412532E+03	1.775230E-01	2.657005E-03
5.422445E+03	1.752209E-01	2.626508E-03
5.432358E+03	1.730491E-01	2.598536E-03
5.442271E+03	1.709372E-01	2.571976E-03
5.452184E+03	1.688170E-01	2.545739E-03
5.462097E+03	1.666350E-01	2.518956E-03
5.472010E+03	1.643525E-01	2.490973E-03
5.481924E+03	1.619397E-01	2.461268E-03
5.491837E+03	1.593844E-01	2.429584E-03
5.501750E+03	1.566858E-01	2.395835E-03
5.511663E+03	1.538540E-01	2.360103E-03
5.521576E+03	1.509070E-01	2.322599E-03
5.531489E+03	1.478723E-01	2.283684E-03
5.541402E+03	1.447835E-01	2.243822E-03
5.551315E+03	1.416799E-01	2.203578E-03
5.561228E+03	1.385995E-01	2.163503E-03
5.571141E+03	1.355876E-01	2.124279E-03
5.581054E+03	1.326840E-01	2.086516E-03
5.590967E+03	1.299311E-01	2.050877E-03
5.600880E+03	1.273728E-01	2.018059E-03
5.610793E+03	1.250456E-01	1.988659E-03
5.620706E+03	1.229878E-01	1.963313E-03
5.630619E+03	1.212324E-01	1.942582E-03
5.640533E+03	1.198105E-01	1.927009E-03
5.650446E+03	1.187511E-01	1.917110E-03
5.660359E+03	1.180778E-01	1.913326E-03
5.670272E+03	1.178088E-01	1.916014E-03
5.680185E+03	1.179589E-01	1.925479E-03
5.690098E+03	1.185385E-01	1.941963E-03
5.700011E+03	1.195494E-01	1.965564E-03
5.709924E+03	1.209887E-01	1.996306E-03
5.719837E+03	1.228441E-01	2.034057E-03
5.729750E+03	1.250923E-01	2.078498E-03
5.739663E+03	1.277023E-01	2.129175E-03
5.749576E+03	1.306300E-01	2.185411E-03
5.759489E+03	1.338190E-01	2.246311E-03
5.769402E+03	1.372008E-01	2.310764E-03
5.779315E+03	1.406951E-01	2.377447E-03
5.789228E+03	1.442117E-01	2.444849E-03
5.799142E+03	1.476534E-01	2.511327E-03
5.809055E+03	1.509147E-01	2.575072E-03
5.818968E+03	1.538911E-01	2.634273E-03
5.828881E+03	1.564781E-01	2.687099E-03
5.838794E+03	1.585759E-01	2.731780E-03
5.848707E+03	1.600964E-01	2.766725E-03
5.858620E+03	1.609578E-01	2.790436E-03
5.868533E+03	1.611035E-01	2.801840E-03
5.878446E+03	1.604883E-01	2.800045E-03
5.888359E+03	1.590874E-01	2.784510E-03
5.898272E+03	1.569068E-01	2.755222E-03
5.908185E+03	1.539659E-01	2.712409E-03
5.918098E+03	1.503136E-01	2.656816E-03
5.928011E+03	1.460208E-01	2.589587E-03
5.937924E+03	1.411773E-01	2.512214E-03
5.947837E+03	1.358896E-01	2.426503E-03
5.957751E+03	1.302775E-01	2.334517E-03
5.967664E+03	1.244715E-01	2.238535E-03
5.977577E+03	1.185997E-01	2.140824E-03
5.987490E+03	1.127900E-01	2.043677E-03
5.997403E+03	1.071622E-01	1.949267E-03
6.007316E+03	1.018218E-01	1.859544E-03
6.017229E+03	9.686034E-02	1.776227E-03
6.027142E+03	9.235106E-02	1.700731E-03
6.037055E+03	8.834624E-02	1.634109E-03
6.046968E+03	8.488411E-02	1.577174E-03
6.056881E+03	8.198087E-02	1.530347E-03
6.066794E+03	7.964159E-02	1.493858E-03
6.076707E+03	7.785495E-02	1.467633E-03
6.086620E+03	7.659985E-02	1.451424E-03
6.096533E+03	7.584654E-02	1.444817E-03
6.106446E+03	7.556035E-02	1.447304E-03
6.116360E+03	7.569673E-02	1.458182E-03
6.126273E+03	7.620685E-02	1.476658E-03
6.136186E+03	7.703360E-02	1.501755E-03
6.146099E+03	7.811806E-02	1.532429E-03
6.156012E+03	7.939714E-02	1.567529E-03
6.165925E+03	8.080377E-02	1.605799E-03
6.175838E+03	8.226862E-02	1.645903E-03
6.185751E+03	8.372797E-02	1.686585E-03
6.195664E+03	8.511720E-02	1.726531E-03
6.205577E+03	8.638007E-02	1.764564E-03
6.215490E+03	8.747014E-02	1.799669E-03
6.225403E+03	8.834783E-02	1.830945E-03
6.235316E+03	8.899042E-02	1.857815E-03
6.245229E+03	8.938292E-02	1.879846E-03
6.255142E+03	8.952687E-02	1.896941E-03
6.265055E+03	8.943324E-02	1.909205E-03
6.274969E+03	8.912491E-02	1.916999E-03
6.284882E+03	8.863343E-02	1.920888E-03
6.294795E+03	8.799657E-02	1.921588E-03
6.304708E+03	8.725588E-02	1.919926E-03
6.314621E+03	8.645263E-02	1.916747E-03
6.324534E+03	8.562778E-02	1.912918E-03
6.334447E+03	8.481664E-02	1.909207E-03
6.344360E+03	8.404982E-02	1.906300E-03
6.354273E+03	8.334696E-02	1.904655E-03
6.364186E+03	8.271732E-02	1.904503E-03
6.374099E+03	8.216019E-02	1.905854E-03
6.384012E+03	8.167110E-02	1.908629E-03
6.393925E+03	8.124153E-02	1.912650E-03
6.403838E+03	8.085655E-02	1.917583E-03
6.413751E+03	8.050467E-02	1.923168E-03
6.423664E+03	8.016995E-02	1.929027E-03
6.433578E+03	7.983623E-02	1.934769E-03
6.443491E+03	7.949001E-02	1.940054E-03
6.453404E+03	7.911702E-02	1.944518E-03
6.463317E+03	7.870127E-02	1.947743E-03
6.473230E+03	7.823143E-02	1.949416E-03
6.483143E+03	7.769619E-02	1.949220E-03
6.493056E+03	7.708573E-02	1.946865E-03
6.502969E+03	7.638965E-02	1.942046E-03
6.512882E+03	7.560446E-02	1.934623E-03
6.522795E+03	7.472422E-02	1.924395E-03
6.532708E+03	7.374918E-02	1.911320E-03
6.542621E+03	7.267992E-02	1.895362E-03
6.552534E+03	7.152095E-02	1.876594E-03
6.562447E+03	7.028058E-02	1.855190E-03
6.572360E+03	6.896721E-02	1.831337E-03
6.582273E+03	6.759138E-02	1.805282E-03
6.592187E+03	6.616863E-02	1.777416E-03
6.602100E+03	6.471114E-02	1.748050E-03
6.612013E+03	6.323399E-02	1.717582E-03
6.621926E+03	6.175428E-02	1.686476E-03
6.631839E+03	6.028456E-02	1.655078E-03
6.641752E+03	5.883956E-02	1.623807E-03
6.651665E+03	5.743077E-02	1.592998E-03
6.661578E+03	5.607021E-02	1.563006E-03
6.671491E+03	5.476630E-02	1.534096E-03
6.681404E+03	5.352765E-02	1.506537E-03
6.691317E+03	5.235923E-02	1.480504E-03
6.701230E+03	5.126623E-02	1.456176E-03
6.711143E+03	5.025038E-02	1.433640E-03
6.721056E+03	4.931368E-02	1.412986E-03
6.730969E+03	4.845591E-02	1.394243E-03
6.740882E+03	4.767471E-02	1.377376E-03
6.750796E+03	4.696829E-02	1.362364E-03
6.760709E+03	4.633224E-02	1.349110E-03
6.770622E+03	4.576292E-02	1.337533E-03
6.780535E+03	4.525512E-02	1.327507E-03
6.790448E+03	4.480230E-02	1.318860E-03
6.800361E+03	4.439912E-02	1.311456E-03
6.810274E+03	4.403921E-02	1.305123E-03
6.820187E+03	4.371609E-02	1.299682E-03
6.830100E+03	4.342266E-02	1.294934E-03
6.840013E+03	4.315441E-02	1.290754E-03
6.849926E+03	4.290408E-02	1.286931E-03
6.859839E+03	4.266734E-02	1.283343E-03
6.869752E+03	4.243971E-02	1.279859E-03
6.879665E+03	4.221738E-02	1.276366E-03
6.889578E+03	4.199733E-02	1.272776E-03
6.899491E+03	4.177727E-02	1.269021E-03
6.909405E+03	4.155562E-02	1.265055E-03
6.919318E+03	4.133224E-02	1.260875E-03
6.929231E+03	4.110521E-02	1.256423E-03
6.939144E+03	4.087622E-02	1.251752E-03
6.949057E+03	4.064495E-02	1.246855E-03
6.958970E+03	4.041214E-02	1.241755E-03
6.968883E+03	4.017866E-02	1.236481E-03
6.978796E+03	3.994619E-02	1.231086E-03
6.988709E+03	3.971482E-02	1.225577E-03
6.998622E+03	3.948609E-02	1.220002E-03
7.008535E+03	3.925987E-02	1.214361E-03
7.018448E+03	3.903739E-02	1.208695E-03
7.028361E+03	3.881815E-02	1.202989E-03
7.038274E+03	3.860305E-02	1.197276E-03
7.048187E+03	3.839203E-02	1.191556E-03
7.058100E+03	3.818490E-02	1.185825E-03
7.068014E+03	3.798128E-02	1.180074E-03
7.077927E+03	3.777998E-02	1.174270E-03
7.087840E+03	3.758190E-02	1.168442E-03
7.097753E+03	3.738560E-02	1.162549E-03
7.107666E+03	3.719034E-02	1.156569E-03
7.117579E+03	3.699526E-02	1.150480E-03
7.127492E+03	3.680018E-02	1.144278E-03
7.137405E+03	3.660412E-02	1.137935E-03
7.147318E+03	3.640527E-02	1.131397E-03
7.157231E+03	3.620321E-02	1.124655E-03
7.167144E+03	3.599594E-02	1.117650E-03
7.177057E+03	3.578364E-02	1.110390E-03
7.186970E+03	3.556334E-02	1.102787E-03
7.196883E+03	3.533502E-02	1.094843E-03
7.206796E+03	3.509557E-02	1.086467E-03
7.216709E+03	3.484495E-02	1.077662E-03
7.226623E+03	3.458094E-02	1.068363E-03
7.236536E+03	3.430221E-02	1.058534E-03
7.246449E+03	3.400774E-02	1.048150E-03
7.256362E+03	3.369689E-02	1.037197E-03
7.266275E+03	3.336940E-02	1.025673E-03
7.276188E+03	3.302486E-02	1.013572E-03
7.286101E+03	3.266404E-02	1.000924E-03
7.296014E+03	3.228833E-02	9.877792E-04
7.305927E+03	3.189962E-02	9.742012E-04
7.315840E+03	3.149810E-02	9.602037E-04
7.325753E+03	3.108790E-02	9.459188E-04
7.335666E+03	3.066991E-02	9.313801E-04
7.345579E+03	3.024724E-02	9.166880E-04
7.355492E+03	2.982234E-02	9.019224E-04
7.365405E+03	2.939826E-02	8.871807E-04
7.375318E+03	2.897710E-02	8.725308E-04
7.385232E+03	2.856406E-02	8.581332E-04
7.395145E+03	2.816056E-02	8.440332E-04
7.405058E+03	2.776893E-02	8.303033E-04
7.414971E+03	2.739169E-02	8.170207E-04
7.424884E+03	2.702971E-02	8.042120E-04
7.434797E+03	2.668405E-02	7.919100E-04
7.444710E+03	2.635484E-02	7.801185E-04
7.454623E+03	2.604189E-02	7.688326E-04
7.464536E+03	2.574605E-02	7.580773E-04
7.474449E+03	2.546550E-02	7.477991E-04
7.484362E+03	2.520081E-02	7.380146E-04
7.494275E+03	2.495067E-02	7.286858E-04
7.504188E+03	2.471382E-02	7.197757E-04
7.514101E+03	2.449092E-02	7.113046E-04
7.524014E+03	2.428099E-02	7.032437E-04
7.533927E+03	2.408383E-02	6.955880E-04
7.543841E+03	2.389890E-02	6.883227E-04
7.553754E+03	2.372772E-02	6.814913E-04
7.563667E+03	2.356959E-02	6.750749E-04
7.573580E+03	2.342528E-02	6.690954E-04
7.583493E+03	2.329628E-02	6.635958E-04
7.593406E+03	2.318364E-02	6.586061E-04
7.603319E+03	2.308786E-02	6.541404E-04
7.613232E+03	2.301067E-02	6.502478E-04
7.623145E+03	2.295257E-02	6.469424E-04
7.633058E+03	2.291458E-02	6.442523E-04
7.642971E+03	2.289823E-02	6.422208E-04
7.652884E+03	2.290372E-02	6.408534E-04
7.662797E+03	2.293238E-02	6.401876E-04
7.672710E+03	2.298418E-02	6.402235E-04
7.682623E+03	2.306024E-02	6.409926E-04
7.692536E+03	2.316091E-02	6.425066E-04
