#wls	flux	fluxerr
1.586090E+03	4.168334E-02	2.622816E-03
1.625742E+03	3.456244E-02	2.149621E-03
1.665394E+03	2.830293E-02	1.739700E-03
1.705047E+03	2.289675E-02	1.390724E-03
1.744699E+03	1.830686E-02	1.098627E-03
1.784351E+03	1.448039E-02	8.584948E-04
1.824003E+03	1.134987E-02	6.647051E-04
1.863656E+03	8.834058E-03	5.110309E-04
1.903308E+03	6.848734E-03	3.913128E-04
1.942960E+03	5.307618E-03	2.995221E-04
1.982612E+03	4.130216E-03	2.302065E-04
2.022265E+03	3.241901E-03	1.784734E-04
2.061917E+03	2.580892E-03	1.403457E-04
2.101569E+03	2.102141E-03	1.129245E-04
2.141221E+03	1.778607E-03	9.439760E-05
2.180874E+03	1.589392E-03	8.335666E-05
2.220526E+03	1.521830E-03	7.888514E-05
2.260178E+03	1.574474E-03	8.068516E-05
2.299830E+03	1.759434E-03	8.916360E-05
2.339483E+03	2.105400E-03	1.055460E-04
2.379135E+03	2.661620E-03	1.320311E-04
2.418787E+03	3.498522E-03	1.717731E-04
2.458439E+03	4.701605E-03	2.285386E-04
2.498092E+03	6.354456E-03	3.058597E-04
2.537744E+03	8.506784E-03	4.055187E-04
2.577396E+03	1.113262E-02	5.256535E-04
2.617048E+03	1.410984E-02	6.599619E-04
2.656701E+03	1.726757E-02	8.000994E-04
2.696353E+03	2.045113E-02	9.387523E-04
2.736005E+03	2.353736E-02	1.070288E-03
2.775657E+03	2.643837E-02	1.190855E-03
2.815310E+03	2.909430E-02	1.297984E-03
2.854962E+03	3.145640E-02	1.389790E-03
2.894614E+03	3.348936E-02	1.465048E-03
2.934266E+03	3.517288E-02	1.523247E-03
2.973919E+03	3.651204E-02	1.565002E-03
2.983832E+03	3.679572E-02	1.573034E-03
2.993745E+03	3.706054E-02	1.580182E-03
3.003658E+03	3.730811E-02	1.586520E-03
3.013571E+03	3.753926E-02	1.592090E-03
3.023484E+03	3.775503E-02	1.596939E-03
3.033397E+03	3.795853E-02	1.601203E-03
3.043310E+03	3.814927E-02	1.604866E-03
3.053223E+03	3.833079E-02	1.608079E-03
3.063136E+03	3.850495E-02	1.610923E-03
3.073049E+03	3.867476E-02	1.613525E-03
3.082962E+03	3.884256E-02	1.615984E-03
3.092875E+03	3.901182E-02	1.618443E-03
3.102789E+03	3.918536E-02	1.621018E-03
3.112702E+03	3.936632E-02	1.623837E-03
3.122615E+03	3.955892E-02	1.627070E-03
3.132528E+03	3.976764E-02	1.630896E-03
3.142441E+03	3.999635E-02	1.635467E-03
3.152354E+03	4.024920E-02	1.640944E-03
3.162267E+03	4.053144E-02	1.647531E-03
3.172180E+03	4.084853E-02	1.655438E-03
3.182093E+03	4.120535E-02	1.664849E-03
3.192006E+03	4.160704E-02	1.675955E-03
3.201919E+03	4.205896E-02	1.688955E-03
3.211832E+03	4.256824E-02	1.704114E-03
3.221745E+03	4.314068E-02	1.721640E-03
3.231658E+03	4.378221E-02	1.741744E-03
3.241571E+03	4.449895E-02	1.764641E-03
3.251484E+03	4.529797E-02	1.790580E-03
3.261398E+03	4.618490E-02	1.819750E-03
3.271311E+03	4.716863E-02	1.852463E-03
3.281224E+03	4.825419E-02	1.888877E-03
3.291137E+03	4.944821E-02	1.929208E-03
3.301050E+03	5.075893E-02	1.973731E-03
3.310963E+03	5.219208E-02	2.022620E-03
3.320876E+03	5.375404E-02	2.076070E-03
3.330789E+03	5.545087E-02	2.134258E-03
3.340702E+03	5.728815E-02	2.197341E-03
3.350615E+03	5.927085E-02	2.265449E-03
3.360528E+03	6.140217E-02	2.338639E-03
3.370441E+03	6.368671E-02	2.417021E-03
3.380354E+03	6.612321E-02	2.500480E-03
3.390267E+03	6.871102E-02	2.588923E-03
3.400180E+03	7.144813E-02	2.682206E-03
3.410093E+03	7.432694E-02	2.779976E-03
3.420007E+03	7.733668E-02	2.881766E-03
3.429920E+03	8.046626E-02	2.987103E-03
3.439833E+03	8.369881E-02	3.095305E-03
3.449746E+03	8.701535E-02	3.205620E-03
3.459659E+03	9.039736E-02	3.317326E-03
3.469572E+03	9.382409E-02	3.429629E-03
3.479485E+03	9.727069E-02	3.541595E-03
3.489398E+03	1.007133E-01	3.652346E-03
3.499311E+03	1.041227E-01	3.760816E-03
3.509224E+03	1.074690E-01	3.865936E-03
3.519137E+03	1.107179E-01	3.966501E-03
3.529050E+03	1.138388E-01	4.061457E-03
3.538963E+03	1.168005E-01	4.149739E-03
3.548876E+03	1.195733E-01	4.230365E-03
3.558789E+03	1.221353E-01	4.302644E-03
3.568702E+03	1.244681E-01	4.366017E-03
3.578616E+03	1.265595E-01	4.420159E-03
3.588529E+03	1.284081E-01	4.465124E-03
3.598442E+03	1.300206E-01	4.501249E-03
3.608355E+03	1.314133E-01	4.529203E-03
3.618268E+03	1.326069E-01	4.549798E-03
3.628181E+03	1.336324E-01	4.564176E-03
3.638094E+03	1.345260E-01	4.573651E-03
3.648007E+03	1.353335E-01	4.579825E-03
3.657920E+03	1.360982E-01	4.584205E-03
3.667833E+03	1.368753E-01	4.588652E-03
3.677746E+03	1.377155E-01	4.594855E-03
3.687659E+03	1.386744E-01	4.604631E-03
3.697572E+03	1.398084E-01	4.619783E-03
3.707485E+03	1.411713E-01	4.641993E-03
3.717398E+03	1.428148E-01	4.672839E-03
3.727311E+03	1.447893E-01	4.713830E-03
3.737225E+03	1.471373E-01	4.766169E-03
3.747138E+03	1.498992E-01	4.830979E-03
3.757051E+03	1.531016E-01	4.908899E-03
3.766964E+03	1.567665E-01	5.000414E-03
3.776877E+03	1.608995E-01	5.105464E-03
3.786790E+03	1.654955E-01	5.223647E-03
3.796703E+03	1.705323E-01	5.354034E-03
3.806616E+03	1.759683E-01	5.495092E-03
3.816529E+03	1.817488E-01	5.644921E-03
3.826442E+03	1.877977E-01	5.800986E-03
3.836355E+03	1.940222E-01	5.960295E-03
3.846268E+03	2.003180E-01	6.119566E-03
3.856181E+03	2.065657E-01	6.275132E-03
3.866094E+03	2.126459E-01	6.423413E-03
3.876007E+03	2.184334E-01	6.560725E-03
3.885920E+03	2.238132E-01	6.683788E-03
3.895834E+03	2.286800E-01	6.789684E-03
3.905747E+03	2.329467E-01	6.876113E-03
3.915660E+03	2.365534E-01	6.941632E-03
3.925573E+03	2.394616E-01	6.985463E-03
3.935486E+03	2.416665E-01	7.007837E-03
3.945399E+03	2.431879E-01	7.009701E-03
3.955312E+03	2.440714E-01	6.992724E-03
3.965225E+03	2.443861E-01	6.959218E-03
3.975138E+03	2.442186E-01	6.911939E-03
3.985051E+03	2.436623E-01	6.853781E-03
3.994964E+03	2.428202E-01	6.787831E-03
4.004877E+03	2.417948E-01	6.717102E-03
4.014790E+03	2.406817E-01	6.644340E-03
4.024703E+03	2.395653E-01	6.571916E-03
4.034616E+03	2.385236E-01	6.501969E-03
4.044529E+03	2.376160E-01	6.436083E-03
4.054443E+03	2.368864E-01	6.375381E-03
4.064356E+03	2.363624E-01	6.320520E-03
4.074269E+03	2.360553E-01	6.271710E-03
4.084182E+03	2.359606E-01	6.228734E-03
4.094095E+03	2.360637E-01	6.191111E-03
4.104008E+03	2.363308E-01	6.157876E-03
4.113921E+03	2.367191E-01	6.127855E-03
4.123834E+03	2.371769E-01	6.099670E-03
4.133747E+03	2.376496E-01	6.071911E-03
4.143660E+03	2.380731E-01	6.042960E-03
4.153573E+03	2.383854E-01	6.011294E-03
4.163486E+03	2.385239E-01	5.975421E-03
4.173399E+03	2.384311E-01	5.934014E-03
4.183312E+03	2.380539E-01	5.885893E-03
4.193225E+03	2.373511E-01	5.830198E-03
4.203138E+03	2.362879E-01	5.766257E-03
4.213052E+03	2.348447E-01	5.693780E-03
4.222965E+03	2.330123E-01	5.612737E-03
4.232878E+03	2.307985E-01	5.523514E-03
4.242791E+03	2.282268E-01	5.426851E-03
4.252704E+03	2.253327E-01	5.323762E-03
4.262617E+03	2.221680E-01	5.215611E-03
4.272530E+03	2.187983E-01	5.104050E-03
4.282443E+03	2.152964E-01	4.990860E-03
4.292356E+03	2.117451E-01	4.878000E-03
4.302269E+03	2.082332E-01	4.767523E-03
4.312182E+03	2.048498E-01	4.661435E-03
4.322095E+03	2.016948E-01	4.561931E-03
4.332008E+03	1.988746E-01	4.471303E-03
4.341921E+03	1.965160E-01	4.392235E-03
4.351834E+03	1.947425E-01	4.327284E-03
4.361747E+03	1.936605E-01	4.278567E-03
4.371661E+03	1.933523E-01	4.247630E-03
4.381574E+03	1.938783E-01	4.235512E-03
4.391487E+03	1.952685E-01	4.242568E-03
4.401400E+03	1.975285E-01	4.268638E-03
4.411313E+03	2.006400E-01	4.313045E-03
4.421226E+03	2.045571E-01	4.374555E-03
4.431139E+03	2.092101E-01	4.451443E-03
4.441052E+03	2.145137E-01	4.541680E-03
4.450965E+03	2.203734E-01	4.643085E-03
4.460878E+03	2.266829E-01	4.753286E-03
4.470791E+03	2.333239E-01	4.869694E-03
4.480704E+03	2.401514E-01	4.989223E-03
4.490617E+03	2.470015E-01	5.108449E-03
4.500530E+03	2.536918E-01	5.223627E-03
4.510443E+03	2.600265E-01	5.330795E-03
4.520356E+03	2.658051E-01	5.425968E-03
4.530270E+03	2.708281E-01	5.505234E-03
4.540183E+03	2.749079E-01	5.564988E-03
4.550096E+03	2.778806E-01	5.602154E-03
4.560009E+03	2.796176E-01	5.614407E-03
4.569922E+03	2.800300E-01	5.600246E-03
4.579835E+03	2.790736E-01	5.559082E-03
4.589748E+03	2.767589E-01	5.491417E-03
4.599661E+03	2.731439E-01	5.398676E-03
4.609574E+03	2.683309E-01	5.283139E-03
4.619487E+03	2.624564E-01	5.147715E-03
4.629400E+03	2.556922E-01	4.995965E-03
4.639313E+03	2.482232E-01	4.831646E-03
4.649226E+03	2.402489E-01	4.658754E-03
4.659139E+03	2.319681E-01	4.481204E-03
4.669052E+03	2.235662E-01	4.302604E-03
4.678965E+03	2.152183E-01	4.126311E-03
4.688879E+03	2.070766E-01	3.955199E-03
4.698792E+03	1.992702E-01	3.791660E-03
4.708705E+03	1.919032E-01	3.637581E-03
4.718618E+03	1.850563E-01	3.494375E-03
4.728531E+03	1.787843E-01	3.362950E-03
4.738444E+03	1.731255E-01	3.243890E-03
4.748357E+03	1.680997E-01	3.137424E-03
4.758270E+03	1.637101E-01	3.043467E-03
4.768183E+03	1.599459E-01	2.961676E-03
4.778096E+03	1.567861E-01	2.891519E-03
4.788009E+03	1.541965E-01	2.832235E-03
4.797922E+03	1.521360E-01	2.782939E-03
4.807835E+03	1.505539E-01	2.742587E-03
4.817748E+03	1.493908E-01	2.709988E-03
4.827661E+03	1.485835E-01	2.683906E-03
4.837574E+03	1.480635E-01	2.663020E-03
4.847488E+03	1.477602E-01	2.646003E-03
4.857401E+03	1.476051E-01	2.631577E-03
4.867314E+03	1.475334E-01	2.618558E-03
4.877227E+03	1.474941E-01	2.606024E-03
4.887140E+03	1.474437E-01	2.593203E-03
4.897053E+03	1.473589E-01	2.579688E-03
4.906966E+03	1.472324E-01	2.565364E-03
4.916879E+03	1.470734E-01	2.550403E-03
4.926792E+03	1.469102E-01	2.535305E-03
4.936705E+03	1.467843E-01	2.520786E-03
4.946618E+03	1.467478E-01	2.507735E-03
4.956531E+03	1.468580E-01	2.497106E-03
4.966444E+03	1.471827E-01	2.490014E-03
4.976357E+03	1.477820E-01	2.487424E-03
4.986270E+03	1.487208E-01	2.490357E-03
4.996183E+03	1.500568E-01	2.499695E-03
5.006097E+03	1.518389E-01	2.516152E-03
5.016010E+03	1.541128E-01	2.540373E-03
5.025923E+03	1.569157E-01	2.572850E-03
5.035836E+03	1.602709E-01	2.613836E-03
5.045749E+03	1.641949E-01	2.663467E-03
5.055662E+03	1.686906E-01	2.721655E-03
5.065575E+03	1.737461E-01	2.788078E-03
5.075488E+03	1.793312E-01	2.862131E-03
5.085401E+03	1.853992E-01	2.942960E-03
5.095314E+03	1.918838E-01	3.029419E-03
5.105227E+03	1.986944E-01	3.120016E-03
5.115140E+03	2.057198E-01	3.212968E-03
5.125053E+03	2.128295E-01	3.306240E-03
5.134966E+03	2.198754E-01	3.397571E-03
5.144879E+03	2.266966E-01	3.484556E-03
5.154792E+03	2.331308E-01	3.564829E-03
5.164706E+03	2.390173E-01	3.636098E-03
5.174619E+03	2.442043E-01	3.696258E-03
5.184532E+03	2.485623E-01	3.743589E-03
5.194445E+03	2.519908E-01	3.776833E-03
5.204358E+03	2.544164E-01	3.795163E-03
5.214271E+03	2.558005E-01	3.798277E-03
5.224184E+03	2.561439E-01	3.786457E-03
5.234097E+03	2.554780E-01	3.760419E-03
5.244010E+03	2.538639E-01	3.721291E-03
5.253923E+03	2.513837E-01	3.670475E-03
5.263836E+03	2.481410E-01	3.609652E-03
5.273749E+03	2.442533E-01	3.540660E-03
5.283662E+03	2.398460E-01	3.465415E-03
5.293575E+03	2.350489E-01	3.385855E-03
5.303488E+03	2.299900E-01	3.303858E-03
5.313401E+03	2.247999E-01	3.221305E-03
5.323315E+03	2.195985E-01	3.139900E-03
5.333228E+03	2.144999E-01	3.061241E-03
5.343141E+03	2.096026E-01	2.986684E-03
5.353054E+03	2.049928E-01	2.917368E-03
5.362967E+03	2.007302E-01	2.854040E-03
5.372880E+03	1.968504E-01	2.797102E-03
5.382793E+03	1.933526E-01	2.746451E-03
5.392706E+03	1.902080E-01	2.701599E-03
5.402619E+03	1.873744E-01	2.661878E-03
5.412532E+03	1.848017E-01	2.626513E-03
5.422445E+03	1.824264E-01	2.594547E-03
5.432358E+03	1.801892E-01	2.565087E-03
5.442271E+03	1.780291E-01	2.537215E-03
5.452184E+03	1.758935E-01	2.510136E-03
5.462097E+03	1.737376E-01	2.483161E-03
5.472010E+03	1.715240E-01	2.455708E-03
5.481924E+03	1.692304E-01	2.427407E-03
5.491837E+03	1.668396E-01	2.397962E-03
5.501750E+03	1.643449E-01	2.367224E-03
5.511663E+03	1.617507E-01	2.335208E-03
5.521576E+03	1.590716E-01	2.302075E-03
5.531489E+03	1.563261E-01	2.268049E-03
5.541402E+03	1.535408E-01	2.233474E-03
5.551315E+03	1.507469E-01	2.198768E-03
5.561228E+03	1.479790E-01	2.164405E-03
5.571141E+03	1.452740E-01	2.130902E-03
5.581054E+03	1.426698E-01	2.098800E-03
5.590967E+03	1.402034E-01	2.068632E-03
5.600880E+03	1.379139E-01	2.040974E-03
5.610793E+03	1.358361E-01	2.016351E-03
5.620706E+03	1.340059E-01	1.995306E-03
5.630619E+03	1.324537E-01	1.978316E-03
5.640533E+03	1.312086E-01	1.965839E-03
5.650446E+03	1.302972E-01	1.958312E-03
5.660359E+03	1.297397E-01	1.956074E-03
5.670272E+03	1.295545E-01	1.959447E-03
5.680185E+03	1.297522E-01	1.968639E-03
5.690098E+03	1.303392E-01	1.983796E-03
5.700011E+03	1.313155E-01	2.004970E-03
5.709924E+03	1.326768E-01	2.032148E-03
5.719837E+03	1.344034E-01	2.065080E-03
5.729750E+03	1.364754E-01	2.103513E-03
5.739663E+03	1.388544E-01	2.146899E-03
5.749576E+03	1.415004E-01	2.194664E-03
5.759489E+03	1.443567E-01	2.245967E-03
5.769402E+03	1.473562E-01	2.299792E-03
5.779315E+03	1.504267E-01	2.355033E-03
5.789228E+03	1.534828E-01	2.410363E-03
5.799142E+03	1.564355E-01	2.464387E-03
5.809055E+03	1.591873E-01	2.515551E-03
5.818968E+03	1.616474E-01	2.562397E-03
5.828881E+03	1.637187E-01	2.603348E-03
5.838794E+03	1.653167E-01	2.637008E-03
5.848707E+03	1.663584E-01	2.661988E-03
5.858620E+03	1.667805E-01	2.677201E-03
5.868533E+03	1.665311E-01	2.681729E-03
5.878446E+03	1.655755E-01	2.674920E-03
5.888359E+03	1.638973E-01	2.656410E-03
5.898272E+03	1.615062E-01	2.626251E-03
5.908185E+03	1.584295E-01	2.584788E-03
5.918098E+03	1.547137E-01	2.532672E-03
5.928011E+03	1.504305E-01	2.470980E-03
5.937924E+03	1.456629E-01	2.400990E-03
5.947837E+03	1.405119E-01	2.324285E-03
5.957751E+03	1.350882E-01	2.242632E-03
5.967664E+03	1.295047E-01	2.157856E-03
5.977577E+03	1.238787E-01	2.071878E-03
5.987490E+03	1.183233E-01	1.986577E-03
5.997403E+03	1.129437E-01	1.903724E-03
6.007316E+03	1.078308E-01	1.824879E-03
6.017229E+03	1.030646E-01	1.751436E-03
6.027142E+03	9.871068E-02	1.684573E-03
6.037055E+03	9.481474E-02	1.625143E-03
6.046968E+03	9.141039E-02	1.573813E-03
6.056881E+03	8.851283E-02	1.530945E-03
6.066794E+03	8.612860E-02	1.496762E-03
6.076707E+03	8.424815E-02	1.471216E-03
6.086620E+03	8.285332E-02	1.454108E-03
6.096533E+03	8.192001E-02	1.445141E-03
6.106446E+03	8.141399E-02	1.443831E-03
6.116360E+03	8.129519E-02	1.449590E-03
6.126273E+03	8.152163E-02	1.461784E-03
6.136186E+03	8.204465E-02	1.479636E-03
6.146099E+03	8.281045E-02	1.502258E-03
6.156012E+03	8.376438E-02	1.528726E-03
6.165925E+03	8.484639E-02	1.557998E-03
6.175838E+03	8.599934E-02	1.589059E-03
6.185751E+03	8.716626E-02	1.620872E-03
6.195664E+03	8.829216E-02	1.652410E-03
6.205577E+03	8.932840E-02	1.682738E-03
6.215490E+03	9.023212E-02	1.711007E-03
6.225403E+03	9.097150E-02	1.736554E-03
6.235316E+03	9.152324E-02	1.758860E-03
6.245229E+03	9.187429E-02	1.777592E-03
6.255142E+03	9.201924E-02	1.792555E-03
6.265055E+03	9.196896E-02	1.803871E-03
6.274969E+03	9.173626E-02	1.811702E-03
6.284882E+03	9.134616E-02	1.816459E-03
6.294795E+03	9.082472E-02	1.818586E-03
6.304708E+03	9.020221E-02	1.818626E-03
6.314621E+03	8.951095E-02	1.817182E-03
6.324534E+03	8.878188E-02	1.814843E-03
6.334447E+03	8.804026E-02	1.812103E-03
6.344360E+03	8.730974E-02	1.809433E-03
6.354273E+03	8.660746E-02	1.807186E-03
6.364186E+03	8.594329E-02	1.805570E-03
6.374099E+03	8.532191E-02	1.804691E-03
6.384012E+03	8.474582E-02	1.804611E-03
6.393925E+03	8.420949E-02	1.805222E-03
6.403838E+03	8.370672E-02	1.806398E-03
6.413751E+03	8.322894E-02	1.807960E-03
6.423664E+03	8.276466E-02	1.809659E-03
6.433578E+03	8.230266E-02	1.811247E-03
6.443491E+03	8.183133E-02	1.812460E-03
6.453404E+03	8.133646E-02	1.812972E-03
6.463317E+03	8.080800E-02	1.812541E-03
6.473230E+03	8.023535E-02	1.810907E-03
6.483143E+03	7.960890E-02	1.807829E-03
6.493056E+03	7.891779E-02	1.803030E-03
6.502969E+03	7.815656E-02	1.796356E-03
6.512882E+03	7.732030E-02	1.787659E-03
6.522795E+03	7.640491E-02	1.776811E-03
6.532708E+03	7.540972E-02	1.763762E-03
6.542621E+03	7.433757E-02	1.748544E-03
6.552534E+03	7.319116E-02	1.731190E-03
6.562447E+03	7.197653E-02	1.711815E-03
6.572360E+03	7.070180E-02	1.690586E-03
6.582273E+03	6.937669E-02	1.667715E-03
6.592187E+03	6.801237E-02	1.643455E-03
6.602100E+03	6.661978E-02	1.618059E-03
6.612013E+03	6.521267E-02	1.591856E-03
6.621926E+03	6.380371E-02	1.565154E-03
6.631839E+03	6.240530E-02	1.538264E-03
6.641752E+03	6.102813E-02	1.511457E-03
6.651665E+03	5.968510E-02	1.485066E-03
6.661578E+03	5.838376E-02	1.459298E-03
6.671491E+03	5.713248E-02	1.434380E-03
6.681404E+03	5.594010E-02	1.410559E-03
6.691317E+03	5.481011E-02	1.387946E-03
6.701230E+03	5.374747E-02	1.366692E-03
6.711143E+03	5.275385E-02	1.346866E-03
6.721056E+03	5.183237E-02	1.328574E-03
6.730969E+03	5.098123E-02	1.311795E-03
6.740882E+03	5.020029E-02	1.296550E-03
6.750796E+03	4.948742E-02	1.282809E-03
6.760709E+03	4.883964E-02	1.270516E-03
6.770622E+03	4.825316E-02	1.259593E-03
6.780535E+03	4.772357E-02	1.249945E-03
6.790448E+03	4.724511E-02	1.241436E-03
6.800361E+03	4.681416E-02	1.233988E-03
6.810274E+03	4.642354E-02	1.227424E-03
6.820187E+03	4.606931E-02	1.221651E-03
6.830100E+03	4.574512E-02	1.216511E-03
6.840013E+03	4.544480E-02	1.211847E-03
6.849926E+03	4.516501E-02	1.207576E-03
6.859839E+03	4.490033E-02	1.203560E-03
6.869752E+03	4.464667E-02	1.199693E-03
6.879665E+03	4.440055E-02	1.195883E-03
6.889578E+03	4.415990E-02	1.192079E-03
6.899491E+03	4.392079E-02	1.188177E-03
6.909405E+03	4.368318E-02	1.184176E-03
6.919318E+03	4.344511E-02	1.180026E-03
6.929231E+03	4.320593E-02	1.175710E-03
6.939144E+03	4.296544E-02	1.171224E-03
6.949057E+03	4.272454E-02	1.166595E-03
6.958970E+03	4.248278E-02	1.161811E-03
6.968883E+03	4.224068E-02	1.156889E-03
6.978796E+03	4.199967E-02	1.151870E-03
6.988709E+03	4.175951E-02	1.146749E-03
6.998622E+03	4.152162E-02	1.141567E-03
7.008535E+03	4.128566E-02	1.136317E-03
7.018448E+03	4.105200E-02	1.131012E-03
7.028361E+03	4.082171E-02	1.125683E-03
7.038274E+03	4.059488E-02	1.120335E-03
7.048187E+03	4.037066E-02	1.114947E-03
7.058100E+03	4.015050E-02	1.109562E-03
7.068014E+03	3.993167E-02	1.104105E-03
7.077927E+03	3.971615E-02	1.098636E-03
7.087840E+03	3.950178E-02	1.093095E-03
7.097753E+03	3.928872E-02	1.087489E-03
7.107666E+03	3.907702E-02	1.081823E-03
7.117579E+03	3.886423E-02	1.076031E-03
7.127492E+03	3.865025E-02	1.070112E-03
7.137405E+03	3.843487E-02	1.064063E-03
7.147318E+03	3.821543E-02	1.057813E-03
7.157231E+03	3.799238E-02	1.051377E-03
7.167144E+03	3.776451E-02	1.044725E-03
7.177057E+03	3.752975E-02	1.037801E-03
7.186970E+03	3.728675E-02	1.030571E-03
7.196883E+03	3.703418E-02	1.023002E-03
7.206796E+03	3.677228E-02	1.015105E-03
7.216709E+03	3.649742E-02	1.006781E-03
7.226623E+03	3.621083E-02	9.980700E-04
7.236536E+03	3.590916E-02	9.888829E-04
7.246449E+03	3.559414E-02	9.792716E-04
7.256362E+03	3.526302E-02	9.691653E-04
7.266275E+03	3.491740E-02	9.586131E-04
7.276188E+03	3.455699E-02	9.476114E-04
7.286101E+03	3.418267E-02	9.361901E-04
7.296014E+03	3.379578E-02	9.243906E-04
7.305927E+03	3.339655E-02	9.122248E-04
7.315840E+03	3.298862E-02	8.997970E-04
7.325753E+03	3.257215E-02	8.871166E-04
7.335666E+03	3.215125E-02	8.743006E-04
7.345579E+03	3.172714E-02	8.613864E-04
7.355492E+03	3.130184E-02	8.484332E-04
7.365405E+03	3.087798E-02	8.355164E-04
7.375318E+03	3.045948E-02	8.227453E-04
7.385232E+03	3.004782E-02	8.101628E-04
7.395145E+03	2.964701E-02	7.978797E-04
7.405058E+03	2.925718E-02	7.859016E-04
7.414971E+03	2.888092E-02	7.743000E-04
7.424884E+03	2.851979E-02	7.631175E-04
7.434797E+03	2.817431E-02	7.523693E-04
7.444710E+03	2.784469E-02	7.420620E-04
7.454623E+03	2.753093E-02	7.321959E-04
7.464536E+03	2.723351E-02	7.227846E-04
7.474449E+03	2.695136E-02	7.138003E-04
7.484362E+03	2.668475E-02	7.052502E-04
7.494275E+03	2.643316E-02	6.971212E-04
7.504188E+03	2.619548E-02	6.893848E-04
7.514101E+03	2.597137E-02	6.820322E-04
7.524014E+03	2.576121E-02	6.750746E-04
7.533927E+03	2.556490E-02	6.685095E-04
7.543841E+03	2.538126E-02	6.623069E-04
7.553754E+03	2.521186E-02	6.565086E-04
7.563667E+03	2.505653E-02	6.511106E-04
7.573580E+03	2.491590E-02	6.461301E-04
7.583493E+03	2.479014E-02	6.415719E-04
7.593406E+03	2.468141E-02	6.374925E-04
7.603319E+03	2.459007E-02	6.339017E-04
7.613232E+03	2.451642E-02	6.308079E-04
7.623145E+03	2.446277E-02	6.282711E-04
7.633058E+03	2.442874E-02	6.262819E-04
7.642971E+03	2.441587E-02	6.248808E-04
7.652884E+03	2.442493E-02	6.240881E-04
7.662797E+03	2.445662E-02	6.239230E-04
7.672710E+03	2.451149E-02	6.244005E-04
7.682623E+03	2.459066E-02	6.255513E-04
7.692536E+03	2.469312E-02	6.273517E-04
