#wls	flux	fluxerr
1.586090E+03	9.689527E-03	8.057291E-04
1.625742E+03	7.836150E-03	6.411021E-04
1.665394E+03	6.299649E-03	5.069699E-04
1.705047E+03	5.039965E-03	3.988868E-04
1.744699E+03	4.017351E-03	3.126413E-04
1.784351E+03	3.195459E-03	2.444941E-04
1.824003E+03	2.540596E-03	1.911003E-04
1.863656E+03	2.023087E-03	1.495938E-04
1.903308E+03	1.618121E-03	1.176221E-04
1.942960E+03	1.303618E-03	9.316218E-05
1.982612E+03	1.061454E-03	7.458700E-05
2.022265E+03	8.773196E-04	6.062983E-05
2.061917E+03	7.396869E-04	5.028886E-05
2.101569E+03	6.401916E-04	4.283474E-05
2.141221E+03	5.727972E-04	3.773611E-05
2.180874E+03	5.341024E-04	3.466581E-05
2.220526E+03	5.223416E-04	3.342313E-05
2.260178E+03	5.381040E-04	3.397151E-05
2.299830E+03	5.837529E-04	3.639310E-05
2.339483E+03	6.635058E-04	4.088674E-05
2.379135E+03	7.845727E-04	4.783072E-05
2.418787E+03	9.565827E-04	5.774223E-05
2.458439E+03	1.190527E-03	7.120963E-05
2.498092E+03	1.496887E-03	8.878005E-05
2.537744E+03	1.882189E-03	1.107593E-04
2.577396E+03	2.345197E-03	1.369983E-04
2.617048E+03	2.872980E-03	1.666782E-04
2.656701E+03	3.445507E-03	1.985936E-04
2.696353E+03	4.038184E-03	2.313047E-04
2.736005E+03	4.625343E-03	2.633388E-04
2.775657E+03	5.183972E-03	2.933996E-04
2.815310E+03	5.695103E-03	3.204403E-04
2.854962E+03	6.145777E-03	3.437676E-04
2.894614E+03	6.528494E-03	3.630038E-04
2.934266E+03	6.845980E-03	3.783440E-04
2.973919E+03	7.104761E-03	3.901890E-04
2.983832E+03	7.161202E-03	3.926589E-04
2.993745E+03	7.215641E-03	3.950044E-04
3.003658E+03	7.267748E-03	3.972076E-04
3.013571E+03	7.317778E-03	3.992829E-04
3.023484E+03	7.365992E-03	4.012448E-04
3.033397E+03	7.412664E-03	4.031082E-04
3.043310E+03	7.458072E-03	4.048883E-04
3.053223E+03	7.502503E-03	4.066009E-04
3.063136E+03	7.546807E-03	4.082919E-04
3.073049E+03	7.590723E-03	4.099469E-04
3.082962E+03	7.634548E-03	4.115818E-04
3.092875E+03	7.679148E-03	4.132430E-04
3.102789E+03	7.724271E-03	4.149165E-04
3.112702E+03	7.770785E-03	4.166484E-04
3.122615E+03	7.819000E-03	4.184545E-04
3.132528E+03	7.868679E-03	4.203216E-04
3.142441E+03	7.920688E-03	4.222952E-04
3.152354E+03	7.975890E-03	4.244201E-04
3.162267E+03	8.033502E-03	4.266536E-04
3.172180E+03	8.094932E-03	4.290693E-04
3.182093E+03	8.159395E-03	4.316242E-04
3.192006E+03	8.228834E-03	4.344197E-04
3.201919E+03	8.302456E-03	4.374123E-04
3.211832E+03	8.380555E-03	4.406156E-04
3.221745E+03	8.464502E-03	4.441000E-04
3.231658E+03	8.553480E-03	4.478203E-04
3.241571E+03	8.648837E-03	4.518452E-04
3.251484E+03	8.750269E-03	4.561564E-04
3.261398E+03	8.858550E-03	4.607914E-04
3.271311E+03	8.973331E-03	4.657293E-04
3.281224E+03	9.095337E-03	4.710048E-04
3.291137E+03	9.225271E-03	4.766509E-04
3.301050E+03	9.362698E-03	4.826417E-04
3.310963E+03	9.508252E-03	4.890065E-04
3.320876E+03	9.661977E-03	4.957437E-04
3.330789E+03	9.823863E-03	5.028491E-04
3.340702E+03	9.994419E-03	5.103448E-04
3.350615E+03	1.017354E-02	5.182211E-04
3.360528E+03	1.036103E-02	5.264649E-04
3.370441E+03	1.055725E-02	5.350889E-04
3.380354E+03	1.076186E-02	5.440728E-04
3.390267E+03	1.097565E-02	5.534513E-04
3.400180E+03	1.119696E-02	5.631367E-04
3.410093E+03	1.142640E-02	5.731553E-04
3.420007E+03	1.166391E-02	5.834997E-04
3.429920E+03	1.190874E-02	5.941287E-04
3.439833E+03	1.216068E-02	6.050266E-04
3.449746E+03	1.241966E-02	6.161862E-04
3.459659E+03	1.268488E-02	6.275636E-04
3.469572E+03	1.295892E-02	6.392822E-04
3.479485E+03	1.324066E-02	6.512819E-04
3.489398E+03	1.353146E-02	6.636250E-04
3.499311E+03	1.383146E-02	6.763125E-04
3.509224E+03	1.414207E-02	6.894076E-04
3.519137E+03	1.446278E-02	7.028797E-04
3.529050E+03	1.479377E-02	7.167312E-04
3.538963E+03	1.513457E-02	7.309334E-04
3.548876E+03	1.548606E-02	7.455224E-04
3.558789E+03	1.584725E-02	7.604442E-04
3.568702E+03	1.621913E-02	7.757391E-04
3.578616E+03	1.660151E-02	7.913912E-04
3.588529E+03	1.699494E-02	8.074195E-04
3.598442E+03	1.739877E-02	8.237858E-04
3.608355E+03	1.781516E-02	8.405842E-04
3.618268E+03	1.824306E-02	8.577573E-04
3.628181E+03	1.868423E-02	8.753788E-04
3.638094E+03	1.913926E-02	8.934680E-04
3.648007E+03	1.960958E-02	9.120808E-04
3.657920E+03	2.009534E-02	9.312147E-04
3.667833E+03	2.059959E-02	9.509993E-04
3.677746E+03	2.112269E-02	9.714386E-04
3.687659E+03	2.166645E-02	9.926035E-04
3.697572E+03	2.223198E-02	1.014530E-03
3.707485E+03	2.282103E-02	1.037283E-03
3.717398E+03	2.343455E-02	1.060890E-03
3.727311E+03	2.407465E-02	1.085430E-03
3.737225E+03	2.474112E-02	1.110874E-03
3.747138E+03	2.543476E-02	1.137241E-03
3.757051E+03	2.615598E-02	1.164530E-03
3.766964E+03	2.690465E-02	1.192717E-03
3.776877E+03	2.767859E-02	1.221685E-03
3.786790E+03	2.847792E-02	1.251422E-03
3.796703E+03	2.929837E-02	1.281721E-03
3.806616E+03	3.013791E-02	1.312481E-03
3.816529E+03	3.099234E-02	1.343502E-03
3.826442E+03	3.185750E-02	1.374592E-03
3.836355E+03	3.272872E-02	1.405542E-03
3.846268E+03	3.359999E-02	1.436087E-03
3.856181E+03	3.446496E-02	1.465955E-03
3.866094E+03	3.531875E-02	1.494938E-03
3.876007E+03	3.615482E-02	1.522767E-03
3.885920E+03	3.696691E-02	1.549188E-03
3.895834E+03	3.774998E-02	1.574002E-03
3.905747E+03	3.849965E-02	1.597045E-03
3.915660E+03	3.921154E-02	1.618157E-03
3.925573E+03	3.988220E-02	1.637218E-03
3.935486E+03	4.051101E-02	1.654230E-03
3.945399E+03	4.109675E-02	1.669169E-03
3.955312E+03	4.164028E-02	1.682099E-03
3.965225E+03	4.214265E-02	1.693090E-03
3.975138E+03	4.260601E-02	1.702256E-03
3.985051E+03	4.303423E-02	1.709778E-03
3.994964E+03	4.343268E-02	1.715892E-03
4.004877E+03	4.380482E-02	1.720757E-03
4.014790E+03	4.415526E-02	1.724572E-03
4.024703E+03	4.449117E-02	1.727633E-03
4.034616E+03	4.481633E-02	1.730097E-03
4.044529E+03	4.513505E-02	1.732141E-03
4.054443E+03	4.545277E-02	1.733980E-03
4.064356E+03	4.577272E-02	1.735739E-03
4.074269E+03	4.609815E-02	1.737544E-03
4.084182E+03	4.643144E-02	1.739484E-03
4.094095E+03	4.677251E-02	1.741553E-03
4.104008E+03	4.712266E-02	1.743801E-03
4.113921E+03	4.748150E-02	1.746209E-03
4.123834E+03	4.784689E-02	1.748700E-03
4.133747E+03	4.821583E-02	1.751165E-03
4.143660E+03	4.858694E-02	1.753556E-03
4.153573E+03	4.895501E-02	1.755693E-03
4.163486E+03	4.931668E-02	1.757462E-03
4.173399E+03	4.966666E-02	1.758688E-03
4.183312E+03	5.000104E-02	1.759248E-03
4.193225E+03	5.031362E-02	1.758942E-03
4.203138E+03	5.060226E-02	1.757718E-03
4.213052E+03	5.086132E-02	1.755405E-03
4.222965E+03	5.108811E-02	1.751938E-03
4.232878E+03	5.127906E-02	1.747226E-03
4.242791E+03	5.143459E-02	1.741312E-03
4.252704E+03	5.155217E-02	1.734144E-03
4.262617E+03	5.163336E-02	1.725806E-03
4.272530E+03	5.167918E-02	1.716363E-03
4.282443E+03	5.169309E-02	1.705961E-03
4.292356E+03	5.167651E-02	1.694673E-03
4.302269E+03	5.163609E-02	1.682742E-03
4.312182E+03	5.157628E-02	1.670336E-03
4.322095E+03	5.150232E-02	1.657641E-03
4.332008E+03	5.142598E-02	1.645051E-03
4.341921E+03	5.136675E-02	1.633193E-03
4.351834E+03	5.134558E-02	1.622727E-03
4.361747E+03	5.138468E-02	1.614337E-03
4.371661E+03	5.150261E-02	1.608578E-03
4.381574E+03	5.171691E-02	1.605958E-03
4.391487E+03	5.204458E-02	1.606962E-03
4.401400E+03	5.249774E-02	1.611909E-03
4.411313E+03	5.308789E-02	1.621090E-03
4.421226E+03	5.382296E-02	1.634682E-03
4.431139E+03	5.470865E-02	1.652792E-03
4.441052E+03	5.574780E-02	1.675440E-03
4.450965E+03	5.693802E-02	1.702493E-03
4.460878E+03	5.827250E-02	1.733689E-03
4.470791E+03	5.974110E-02	1.768675E-03
4.480704E+03	6.133009E-02	1.807003E-03
4.490617E+03	6.302124E-02	1.848099E-03
4.500530E+03	6.479322E-02	1.891315E-03
4.510443E+03	6.662170E-02	1.935926E-03
4.520356E+03	6.847719E-02	1.981071E-03
4.530270E+03	7.032889E-02	2.025867E-03
4.540183E+03	7.214289E-02	2.069347E-03
4.550096E+03	7.388327E-02	2.110503E-03
4.560009E+03	7.551705E-02	2.148423E-03
4.569922E+03	7.700915E-02	2.182149E-03
4.579835E+03	7.833216E-02	2.210952E-03
4.589748E+03	7.945843E-02	2.234105E-03
4.599661E+03	8.036870E-02	2.251125E-03
4.609574E+03	8.105115E-02	2.261741E-03
4.619487E+03	8.149818E-02	2.265802E-03
4.629400E+03	8.171221E-02	2.263435E-03
4.639313E+03	8.170169E-02	2.254930E-03
4.649226E+03	8.148034E-02	2.240718E-03
4.659139E+03	8.106914E-02	2.221420E-03
4.669052E+03	8.049321E-02	2.197765E-03
4.678965E+03	7.977955E-02	2.170520E-03
4.688879E+03	7.895669E-02	2.140485E-03
4.698792E+03	7.805619E-02	2.108530E-03
4.708705E+03	7.710599E-02	2.075418E-03
4.718618E+03	7.613398E-02	2.041899E-03
4.728531E+03	7.516463E-02	2.008623E-03
4.738444E+03	7.421941E-02	1.976151E-03
4.748357E+03	7.331723E-02	1.944968E-03
4.758270E+03	7.247099E-02	1.915396E-03
4.768183E+03	7.168940E-02	1.887640E-03
4.778096E+03	7.097949E-02	1.861858E-03
4.788009E+03	7.034514E-02	1.838126E-03
4.797922E+03	6.978577E-02	1.816399E-03
4.807835E+03	6.929986E-02	1.796611E-03
4.817748E+03	6.888367E-02	1.778639E-03
4.827661E+03	6.853088E-02	1.762293E-03
4.837574E+03	6.823460E-02	1.747373E-03
4.847488E+03	6.798701E-02	1.733660E-03
4.857401E+03	6.777982E-02	1.720924E-03
4.867314E+03	6.760405E-02	1.708922E-03
4.877227E+03	6.745341E-02	1.697483E-03
4.887140E+03	6.731958E-02	1.686390E-03
4.897053E+03	6.719849E-02	1.675533E-03
4.906966E+03	6.708484E-02	1.664776E-03
4.916879E+03	6.697810E-02	1.654103E-03
4.926792E+03	6.687766E-02	1.643498E-03
4.936705E+03	6.678574E-02	1.633013E-03
4.946618E+03	6.670740E-02	1.622770E-03
4.956531E+03	6.664893E-02	1.612919E-03
4.966444E+03	6.661839E-02	1.603648E-03
4.976357E+03	6.662463E-02	1.595161E-03
4.986270E+03	6.667977E-02	1.587737E-03
4.996183E+03	6.679399E-02	1.581601E-03
5.006097E+03	6.698072E-02	1.577051E-03
5.016010E+03	6.725213E-02	1.574346E-03
5.025923E+03	6.761946E-02	1.573720E-03
5.035836E+03	6.809488E-02	1.575420E-03
5.045749E+03	6.868894E-02	1.579651E-03
5.055662E+03	6.941108E-02	1.586586E-03
5.065575E+03	7.026931E-02	1.596360E-03
5.075488E+03	7.126910E-02	1.609050E-03
5.085401E+03	7.241685E-02	1.624748E-03
5.095314E+03	7.371216E-02	1.643393E-03
5.105227E+03	7.515570E-02	1.664951E-03
5.115140E+03	7.674283E-02	1.689271E-03
5.125053E+03	7.846726E-02	1.716169E-03
5.134966E+03	8.031760E-02	1.745361E-03
5.144879E+03	8.228041E-02	1.776524E-03
5.154792E+03	8.433696E-02	1.809233E-03
5.164706E+03	8.646659E-02	1.843037E-03
5.174619E+03	8.864454E-02	1.877411E-03
5.184532E+03	9.084235E-02	1.911772E-03
5.194445E+03	9.303123E-02	1.945547E-03
5.204358E+03	9.518039E-02	1.978142E-03
5.214271E+03	9.725800E-02	2.008957E-03
5.224184E+03	9.923529E-02	2.037479E-03
5.234097E+03	1.010851E-01	2.063239E-03
5.244010E+03	1.027841E-01	2.085863E-03
5.253923E+03	1.043129E-01	2.105064E-03
5.263836E+03	1.056588E-01	2.120703E-03
5.273749E+03	1.068173E-01	2.132802E-03
5.283662E+03	1.077881E-01	2.141472E-03
5.293575E+03	1.085803E-01	2.146997E-03
5.303488E+03	1.092066E-01	2.149736E-03
5.313401E+03	1.096874E-01	2.150178E-03
5.323315E+03	1.100444E-01	2.148834E-03
5.333228E+03	1.103014E-01	2.146243E-03
5.343141E+03	1.104859E-01	2.143000E-03
5.353054E+03	1.106199E-01	2.139591E-03
5.362967E+03	1.107221E-01	2.136423E-03
5.372880E+03	1.108095E-01	2.133867E-03
5.382793E+03	1.108904E-01	2.132124E-03
5.392706E+03	1.109702E-01	2.131323E-03
5.402619E+03	1.110412E-01	2.131307E-03
5.412532E+03	1.110906E-01	2.131801E-03
5.422445E+03	1.110994E-01	2.132409E-03
5.432358E+03	1.110486E-01	2.132726E-03
5.442271E+03	1.109161E-01	2.132291E-03
5.452184E+03	1.106819E-01	2.130674E-03
5.462097E+03	1.103295E-01	2.127502E-03
5.472010E+03	1.098445E-01	2.122442E-03
5.481924E+03	1.092147E-01	2.115194E-03
5.491837E+03	1.084382E-01	2.105651E-03
5.501750E+03	1.075139E-01	2.093721E-03
5.511663E+03	1.064463E-01	2.079412E-03
5.521576E+03	1.052477E-01	2.062889E-03
5.531489E+03	1.039310E-01	2.044330E-03
5.541402E+03	1.025182E-01	2.024090E-03
5.551315E+03	1.010291E-01	2.002494E-03
5.561228E+03	9.948908E-02	1.979980E-03
5.571141E+03	9.792357E-02	1.957000E-03
5.581054E+03	9.635873E-02	1.934030E-03
5.590967E+03	9.482035E-02	1.911552E-03
5.600880E+03	9.333326E-02	1.890037E-03
5.610793E+03	9.192161E-02	1.869958E-03
5.620706E+03	9.060559E-02	1.851719E-03
5.630619E+03	8.940576E-02	1.835741E-03
5.640533E+03	8.833531E-02	1.822304E-03
5.650446E+03	8.741000E-02	1.811751E-03
5.660359E+03	8.663891E-02	1.804295E-03
5.670272E+03	8.602801E-02	1.800086E-03
5.680185E+03	8.558269E-02	1.799271E-03
5.690098E+03	8.530162E-02	1.801858E-03
5.700011E+03	8.518362E-02	1.807857E-03
5.709924E+03	8.522163E-02	1.817155E-03
5.719837E+03	8.540613E-02	1.829586E-03
5.729750E+03	8.572422E-02	1.844905E-03
5.739663E+03	8.615968E-02	1.862794E-03
5.749576E+03	8.669396E-02	1.882876E-03
5.759489E+03	8.730367E-02	1.904664E-03
5.769402E+03	8.796356E-02	1.927621E-03
5.779315E+03	8.864592E-02	1.951147E-03
5.789228E+03	8.932123E-02	1.974590E-03
5.799142E+03	8.995876E-02	1.997263E-03
5.809055E+03	9.052749E-02	2.018462E-03
5.818968E+03	9.099692E-02	2.037483E-03
5.828881E+03	9.133818E-02	2.053648E-03
5.838794E+03	9.152410E-02	2.066311E-03
5.848707E+03	9.153295E-02	2.074936E-03
5.858620E+03	9.134673E-02	2.079071E-03
5.868533E+03	9.095081E-02	2.078331E-03
5.878446E+03	9.034015E-02	2.072551E-03
5.888359E+03	8.951312E-02	2.061642E-03
5.898272E+03	8.847424E-02	2.045657E-03
5.908185E+03	8.723577E-02	2.024835E-03
5.918098E+03	8.581354E-02	1.999498E-03
5.928011E+03	8.422986E-02	1.970130E-03
5.937924E+03	8.250808E-02	1.937244E-03
5.947837E+03	8.067690E-02	1.901490E-03
5.957751E+03	7.876577E-02	1.863544E-03
5.967664E+03	7.680469E-02	1.824106E-03
5.977577E+03	7.482173E-02	1.783839E-03
5.987490E+03	7.284683E-02	1.743462E-03
5.997403E+03	7.090486E-02	1.703579E-03
6.007316E+03	6.902115E-02	1.664819E-03
6.017229E+03	6.721512E-02	1.627672E-03
6.027142E+03	6.550586E-02	1.592629E-03
6.037055E+03	6.390637E-02	1.560040E-03
6.046968E+03	6.242843E-02	1.530230E-03
6.056881E+03	6.108054E-02	1.503448E-03
6.066794E+03	5.986756E-02	1.479856E-03
6.076707E+03	5.879149E-02	1.459552E-03
6.086620E+03	5.785187E-02	1.442570E-03
6.096533E+03	5.704658E-02	1.428906E-03
6.106446E+03	5.637150E-02	1.418506E-03
6.116360E+03	5.582083E-02	1.411275E-03
6.126273E+03	5.538683E-02	1.407064E-03
6.136186E+03	5.506128E-02	1.405714E-03
6.146099E+03	5.483398E-02	1.407011E-03
6.156012E+03	5.469552E-02	1.410758E-03
6.165925E+03	5.463448E-02	1.416703E-03
6.175838E+03	5.464074E-02	1.424624E-03
6.185751E+03	5.470402E-02	1.434290E-03
6.195664E+03	5.481528E-02	1.445488E-03
6.205577E+03	5.496575E-02	1.458000E-03
6.215490E+03	5.514900E-02	1.471663E-03
6.225403E+03	5.535872E-02	1.486316E-03
6.235316E+03	5.559007E-02	1.501831E-03
6.245229E+03	5.584091E-02	1.518153E-03
6.255142E+03	5.610953E-02	1.535235E-03
6.265055E+03	5.639697E-02	1.553106E-03
6.274969E+03	5.670448E-02	1.571804E-03
6.284882E+03	5.703458E-02	1.591398E-03
6.294795E+03	5.739263E-02	1.612043E-03
6.304708E+03	5.778216E-02	1.633845E-03
6.314621E+03	5.820822E-02	1.656957E-03
6.324534E+03	5.867568E-02	1.681528E-03
6.334447E+03	5.918865E-02	1.707694E-03
6.344360E+03	5.975004E-02	1.735554E-03
6.354273E+03	6.035920E-02	1.765109E-03
6.364186E+03	6.101180E-02	1.796251E-03
6.374099E+03	6.170082E-02	1.828787E-03
6.384012E+03	6.241719E-02	1.862458E-03
6.393925E+03	6.314998E-02	1.896942E-03
6.403838E+03	6.388669E-02	1.931861E-03
6.413751E+03	6.461357E-02	1.966788E-03
6.423664E+03	6.531747E-02	2.001302E-03
6.433578E+03	6.598318E-02	2.034911E-03
6.443491E+03	6.659607E-02	2.067124E-03
6.453404E+03	6.714163E-02	2.097446E-03
6.463317E+03	6.760599E-02	2.125388E-03
6.473230E+03	6.797457E-02	2.150429E-03
6.483143E+03	6.823642E-02	2.172153E-03
6.493056E+03	6.838070E-02	2.190139E-03
6.502969E+03	6.839848E-02	2.204019E-03
6.512882E+03	6.828299E-02	2.213489E-03
6.522795E+03	6.803153E-02	2.218377E-03
6.532708E+03	6.764062E-02	2.218482E-03
6.542621E+03	6.711351E-02	2.213825E-03
6.552534E+03	6.645264E-02	2.204404E-03
6.562447E+03	6.566370E-02	2.190330E-03
6.572360E+03	6.475461E-02	2.171795E-03
6.582273E+03	6.373602E-02	2.149092E-03
6.592187E+03	6.262020E-02	2.122576E-03
6.602100E+03	6.141908E-02	2.092605E-03
6.612013E+03	6.014627E-02	2.059602E-03
6.621926E+03	5.881740E-02	2.024072E-03
6.631839E+03	5.744515E-02	1.986430E-03
6.641752E+03	5.604427E-02	1.947173E-03
6.651665E+03	5.462887E-02	1.906786E-03
6.661578E+03	5.321020E-02	1.865666E-03
6.671491E+03	5.180197E-02	1.824302E-03
6.681404E+03	5.041324E-02	1.783028E-03
6.691317E+03	4.905325E-02	1.742192E-03
6.701230E+03	4.773115E-02	1.702141E-03
6.711143E+03	4.645223E-02	1.663093E-03
6.721056E+03	4.522244E-02	1.625290E-03
6.730969E+03	4.404580E-02	1.588906E-03
6.740882E+03	4.292521E-02	1.554078E-03
6.750796E+03	4.186256E-02	1.520907E-03
6.760709E+03	4.085933E-02	1.489478E-03
6.770622E+03	3.991458E-02	1.459787E-03
6.780535E+03	3.902879E-02	1.431882E-03
6.790448E+03	3.820032E-02	1.405732E-03
6.800361E+03	3.742757E-02	1.381304E-03
6.810274E+03	3.670859E-02	1.358552E-03
6.820187E+03	3.604116E-02	1.337418E-03
6.830100E+03	3.542338E-02	1.317851E-03
6.840013E+03	3.485225E-02	1.299762E-03
6.849926E+03	3.432523E-02	1.283074E-03
6.859839E+03	3.384028E-02	1.267727E-03
6.869752E+03	3.339401E-02	1.253609E-03
6.879665E+03	3.298504E-02	1.240683E-03
6.889578E+03	3.261068E-02	1.228860E-03
6.899491E+03	3.226888E-02	1.218074E-03
6.909405E+03	3.195778E-02	1.208264E-03
6.919318E+03	3.167567E-02	1.199374E-03
6.929231E+03	3.142149E-02	1.191374E-03
6.939144E+03	3.119301E-02	1.184184E-03
6.949057E+03	3.098947E-02	1.177783E-03
6.958970E+03	3.081031E-02	1.172155E-03
6.968883E+03	3.065372E-02	1.167236E-03
6.978796E+03	3.051897E-02	1.163003E-03
6.988709E+03	3.040627E-02	1.159467E-03
6.998622E+03	3.031413E-02	1.156574E-03
7.008535E+03	3.024246E-02	1.154324E-03
7.018448E+03	3.019079E-02	1.152700E-03
7.028361E+03	3.015820E-02	1.151670E-03
7.038274E+03	3.014424E-02	1.151217E-03
7.048187E+03	3.014888E-02	1.151341E-03
7.058100E+03	3.017118E-02	1.152006E-03
7.068014E+03	3.021061E-02	1.153192E-03
7.077927E+03	3.026655E-02	1.154875E-03
7.087840E+03	3.033883E-02	1.157047E-03
7.097753E+03	3.042581E-02	1.159645E-03
7.107666E+03	3.052715E-02	1.162655E-03
7.117579E+03	3.064150E-02	1.166024E-03
7.127492E+03	3.076885E-02	1.169751E-03
7.137405E+03	3.090676E-02	1.173739E-03
7.147318E+03	3.105503E-02	1.177981E-03
7.157231E+03	3.121202E-02	1.182412E-03
7.167144E+03	3.137695E-02	1.187000E-03
7.177057E+03	3.154754E-02	1.191660E-03
7.186970E+03	3.172296E-02	1.196357E-03
7.196883E+03	3.190133E-02	1.201020E-03
7.206796E+03	3.208175E-02	1.205614E-03
7.216709E+03	3.226240E-02	1.210070E-03
7.226623E+03	3.244240E-02	1.214357E-03
7.236536E+03	3.261950E-02	1.218391E-03
7.246449E+03	3.279296E-02	1.222144E-03
7.256362E+03	3.296164E-02	1.225578E-03
7.266275E+03	3.312405E-02	1.228638E-03
7.276188E+03	3.327926E-02	1.231294E-03
7.286101E+03	3.342700E-02	1.233540E-03
7.296014E+03	3.356565E-02	1.235318E-03
7.305927E+03	3.369520E-02	1.236636E-03
7.315840E+03	3.381484E-02	1.237467E-03
7.325753E+03	3.392487E-02	1.237829E-03
7.335666E+03	3.402425E-02	1.237691E-03
7.345579E+03	3.411358E-02	1.237081E-03
7.355492E+03	3.419258E-02	1.235996E-03
7.365405E+03	3.426160E-02	1.234458E-03
7.375318E+03	3.432109E-02	1.232489E-03
7.385232E+03	3.437218E-02	1.230139E-03
7.395145E+03	3.441437E-02	1.227398E-03
7.405058E+03	3.445003E-02	1.224358E-03
7.414971E+03	3.447881E-02	1.221016E-03
7.424884E+03	3.450200E-02	1.217425E-03
7.434797E+03	3.452046E-02	1.213624E-03
7.444710E+03	3.453548E-02	1.209667E-03
7.454623E+03	3.454735E-02	1.205571E-03
7.464536E+03	3.455737E-02	1.201391E-03
7.474449E+03	3.456629E-02	1.197159E-03
7.484362E+03	3.457482E-02	1.192910E-03
7.494275E+03	3.458360E-02	1.188672E-03
7.504188E+03	3.459321E-02	1.184473E-03
7.514101E+03	3.460474E-02	1.180359E-03
7.524014E+03	3.461802E-02	1.176332E-03
7.533927E+03	3.463396E-02	1.172431E-03
7.543841E+03	3.465225E-02	1.168653E-03
7.553754E+03	3.467351E-02	1.165029E-03
7.563667E+03	3.469779E-02	1.161568E-03
7.573580E+03	3.472491E-02	1.158274E-03
7.583493E+03	3.475460E-02	1.155148E-03
7.593406E+03	3.478645E-02	1.152185E-03
7.603319E+03	3.481986E-02	1.149377E-03
7.613232E+03	3.485412E-02	1.146710E-03
7.623145E+03	3.488893E-02	1.144188E-03
7.633058E+03	3.492210E-02	1.141749E-03
7.642971E+03	3.495363E-02	1.139406E-03
7.652884E+03	3.498162E-02	1.137113E-03
7.662797E+03	3.500466E-02	1.134835E-03
7.672710E+03	3.502119E-02	1.132537E-03
7.682623E+03	3.502956E-02	1.130180E-03
7.692536E+03	3.502805E-02	1.127723E-03
