#wls	flux	fluxerr
1.586090E+03	1.053650E-02	1.898574E-03
1.625742E+03	8.439961E-03	1.510940E-03
1.665394E+03	6.727711E-03	1.196524E-03
1.705047E+03	5.340243E-03	9.434887E-04
1.744699E+03	4.227551E-03	7.419316E-04
1.784351E+03	3.341719E-03	5.825392E-04
1.824003E+03	2.642655E-03	4.575728E-04
1.863656E+03	2.094485E-03	3.602052E-04
1.903308E+03	1.667384E-03	2.848090E-04
1.942960E+03	1.336312E-03	2.267086E-04
1.982612E+03	1.081183E-03	1.821810E-04
2.022265E+03	8.857922E-04	1.482468E-04
2.061917E+03	7.380166E-04	1.226819E-04
2.101569E+03	6.285433E-04	1.037831E-04
2.141221E+03	5.511735E-04	9.040212E-05
2.180874E+03	5.013520E-04	8.168788E-05
2.220526E+03	4.762833E-04	7.709567E-05
2.260178E+03	4.745995E-04	7.632484E-05
2.299830E+03	4.959176E-04	7.923969E-05
2.339483E+03	5.412904E-04	8.593528E-05
2.379135E+03	6.132226E-04	9.673265E-05
2.418787E+03	7.154320E-04	1.121334E-04
2.458439E+03	8.520702E-04	1.326915E-04
2.498092E+03	1.026619E-03	1.588401E-04
2.537744E+03	1.240540E-03	1.906855E-04
2.577396E+03	1.490897E-03	2.276545E-04
2.617048E+03	1.770228E-03	2.684948E-04
2.656701E+03	2.068332E-03	3.115688E-04
2.696353E+03	2.374366E-03	3.551800E-04
2.736005E+03	2.678447E-03	3.978167E-04
2.775657E+03	2.970859E-03	4.380313E-04
2.815310E+03	3.244503E-03	4.747992E-04
2.854962E+03	3.493889E-03	5.073615E-04
2.894614E+03	3.716411E-03	5.354001E-04
2.934266E+03	3.913570E-03	5.591986E-04
2.973919E+03	4.088706E-03	5.792971E-04
2.983832E+03	4.129825E-03	5.838600E-04
2.993745E+03	4.170294E-03	5.882982E-04
3.003658E+03	4.209811E-03	5.925695E-04
3.013571E+03	4.248492E-03	5.966906E-04
3.023484E+03	4.287300E-03	6.007971E-04
3.033397E+03	4.325100E-03	6.047298E-04
3.043310E+03	4.363286E-03	6.086837E-04
3.053223E+03	4.401147E-03	6.125593E-04
3.063136E+03	4.439239E-03	6.164337E-04
3.073049E+03	4.477701E-03	6.203257E-04
3.082962E+03	4.516244E-03	6.241947E-04
3.092875E+03	4.555858E-03	6.281766E-04
3.102789E+03	4.595830E-03	6.321721E-04
3.112702E+03	4.637153E-03	6.363167E-04
3.122615E+03	4.679109E-03	6.405107E-04
3.132528E+03	4.722693E-03	6.448886E-04
3.142441E+03	4.767613E-03	6.494088E-04
3.152354E+03	4.814434E-03	6.541463E-04
3.162267E+03	4.862857E-03	6.590582E-04
3.172180E+03	4.913444E-03	6.642187E-04
3.182093E+03	4.965887E-03	6.695834E-04
3.192006E+03	5.020742E-03	6.752248E-04
3.201919E+03	5.078127E-03	6.811556E-04
3.211832E+03	5.138153E-03	6.873879E-04
3.221745E+03	5.201368E-03	6.939912E-04
3.231658E+03	5.266989E-03	7.008575E-04
3.241571E+03	5.335989E-03	7.081129E-04
3.251484E+03	5.408452E-03	7.157643E-04
3.261398E+03	5.484455E-03	7.238173E-04
3.271311E+03	5.563606E-03	7.322159E-04
3.281224E+03	5.646854E-03	7.410807E-04
3.291137E+03	5.733787E-03	7.503523E-04
3.301050E+03	5.824877E-03	7.600877E-04
3.310963E+03	5.920135E-03	7.702827E-04
3.320876E+03	6.019546E-03	7.809300E-04
3.330789E+03	6.123078E-03	7.920198E-04
3.340702E+03	6.231149E-03	8.036005E-04
3.350615E+03	6.343690E-03	8.156574E-04
3.360528E+03	6.460611E-03	8.281725E-04
3.370441E+03	6.582282E-03	8.411871E-04
3.380354E+03	6.708577E-03	8.546787E-04
3.390267E+03	6.839350E-03	8.686223E-04
3.400180E+03	6.974935E-03	8.830536E-04
3.410093E+03	7.115168E-03	8.979453E-04
3.420007E+03	7.259883E-03	9.132698E-04
3.429920E+03	7.409425E-03	9.290636E-04
3.439833E+03	7.564169E-03	9.453666E-04
3.449746E+03	7.723503E-03	9.620951E-04
3.459659E+03	7.888397E-03	9.793624E-04
3.469572E+03	8.058318E-03	9.970945E-04
3.479485E+03	8.234326E-03	1.015414E-03
3.489398E+03	8.415949E-03	1.034255E-03
3.499311E+03	8.603249E-03	1.053616E-03
3.509224E+03	8.797367E-03	1.073627E-03
3.519137E+03	8.997868E-03	1.094226E-03
3.529050E+03	9.205384E-03	1.115479E-03
3.538963E+03	9.419489E-03	1.137323E-03
3.548876E+03	9.640830E-03	1.159828E-03
3.558789E+03	9.869533E-03	1.182997E-03
3.568702E+03	1.010517E-02	1.206767E-03
3.578616E+03	1.034847E-02	1.231213E-03
3.588529E+03	1.059958E-02	1.256342E-03
3.598442E+03	1.085760E-02	1.282035E-03
3.608355E+03	1.112390E-02	1.308442E-03
3.618268E+03	1.139878E-02	1.335584E-03
3.628181E+03	1.168147E-02	1.363358E-03
3.638094E+03	1.197353E-02	1.391931E-03
3.648007E+03	1.227432E-02	1.421218E-03
3.657920E+03	1.258499E-02	1.451333E-03
3.667833E+03	1.290566E-02	1.482277E-03
3.677746E+03	1.323765E-02	1.514182E-03
3.687659E+03	1.358122E-02	1.547061E-03
3.697572E+03	1.393729E-02	1.581000E-03
3.707485E+03	1.430678E-02	1.616083E-03
3.717398E+03	1.469069E-02	1.652399E-03
3.727311E+03	1.508937E-02	1.689964E-03
3.737225E+03	1.550367E-02	1.728850E-03
3.747138E+03	1.593434E-02	1.769115E-03
3.757051E+03	1.638136E-02	1.810729E-03
3.766964E+03	1.684563E-02	1.853765E-03
3.776877E+03	1.732658E-02	1.898132E-03
3.786790E+03	1.782382E-02	1.943762E-03
3.796703E+03	1.833661E-02	1.990544E-03
3.806616E+03	1.886244E-02	2.038183E-03
3.816529E+03	1.940084E-02	2.086605E-03
3.826442E+03	1.994834E-02	2.135416E-03
3.836355E+03	2.050288E-02	2.184381E-03
3.846268E+03	2.106005E-02	2.233019E-03
3.856181E+03	2.161770E-02	2.281094E-03
3.866094E+03	2.217009E-02	2.328002E-03
3.876007E+03	2.271468E-02	2.373484E-03
3.885920E+03	2.324625E-02	2.417005E-03
3.895834E+03	2.376104E-02	2.458194E-03
3.905747E+03	2.425560E-02	2.496720E-03
3.915660E+03	2.472690E-02	2.532303E-03
3.925573E+03	2.517183E-02	2.564662E-03
3.935486E+03	2.558862E-02	2.593656E-03
3.945399E+03	2.597559E-02	2.619160E-03
3.955312E+03	2.633255E-02	2.641202E-03
3.965225E+03	2.666011E-02	2.659888E-03
3.975138E+03	2.695901E-02	2.675339E-03
3.985051E+03	2.723134E-02	2.687809E-03
3.994964E+03	2.747922E-02	2.697547E-03
4.004877E+03	2.770653E-02	2.704971E-03
4.014790E+03	2.791559E-02	2.710341E-03
4.024703E+03	2.811088E-02	2.714120E-03
4.034616E+03	2.829567E-02	2.716644E-03
4.044529E+03	2.847381E-02	2.718300E-03
4.054443E+03	2.864832E-02	2.719386E-03
4.064356E+03	2.882254E-02	2.720224E-03
4.074269E+03	2.899942E-02	2.721093E-03
4.084182E+03	2.918080E-02	2.722161E-03
4.094095E+03	2.936919E-02	2.723657E-03
4.104008E+03	2.956527E-02	2.725632E-03
4.113921E+03	2.976916E-02	2.728086E-03
4.123834E+03	2.998214E-02	2.731124E-03
4.133747E+03	3.020186E-02	2.734522E-03
4.143660E+03	3.042843E-02	2.738279E-03
4.153573E+03	3.065898E-02	2.742130E-03
4.163486E+03	3.089261E-02	2.745990E-03
4.173399E+03	3.112616E-02	2.749578E-03
4.183312E+03	3.135619E-02	2.752594E-03
4.193225E+03	3.158082E-02	2.754883E-03
4.203138E+03	3.179572E-02	2.756080E-03
4.213052E+03	3.199890E-02	2.756033E-03
4.222965E+03	3.218623E-02	2.754412E-03
4.232878E+03	3.235619E-02	2.751116E-03
4.242791E+03	3.250654E-02	2.745990E-03
4.252704E+03	3.263510E-02	2.738883E-03
4.262617E+03	3.274151E-02	2.729806E-03
4.272530E+03	3.282574E-02	2.718798E-03
4.282443E+03	3.288932E-02	2.706024E-03
4.292356E+03	3.293432E-02	2.691690E-03
4.302269E+03	3.296409E-02	2.676103E-03
4.312182E+03	3.298334E-02	2.659671E-03
4.322095E+03	3.299937E-02	2.642998E-03
4.332008E+03	3.301944E-02	2.626673E-03
4.341921E+03	3.305346E-02	2.611475E-03
4.351834E+03	3.311141E-02	2.598168E-03
4.361747E+03	3.320544E-02	2.587665E-03
4.371661E+03	3.334687E-02	2.580787E-03
4.381574E+03	3.354625E-02	2.578274E-03
4.391487E+03	3.381468E-02	2.580884E-03
4.401400E+03	3.416139E-02	2.589214E-03
4.411313E+03	3.459561E-02	2.603837E-03
4.421226E+03	3.512371E-02	2.625097E-03
4.431139E+03	3.575248E-02	2.653355E-03
4.441052E+03	3.648565E-02	2.688736E-03
4.450965E+03	3.732340E-02	2.731097E-03
4.460878E+03	3.826483E-02	2.780218E-03
4.470791E+03	3.930520E-02	2.835609E-03
4.480704E+03	4.043810E-02	2.896667E-03
4.490617E+03	4.165252E-02	2.962481E-03
4.500530E+03	4.293614E-02	3.032070E-03
4.510443E+03	4.427251E-02	3.104189E-03
4.520356E+03	4.564287E-02	3.177469E-03
4.530270E+03	4.702532E-02	3.250361E-03
4.540183E+03	4.839574E-02	3.321208E-03
4.550096E+03	4.972981E-02	3.388382E-03
4.560009E+03	5.100131E-02	3.450171E-03
4.569922E+03	5.218502E-02	3.504979E-03
4.579835E+03	5.325642E-02	3.551301E-03
4.589748E+03	5.419427E-02	3.587898E-03
4.599661E+03	5.498082E-02	3.613795E-03
4.609574E+03	5.560278E-02	3.628344E-03
4.619487E+03	5.605123E-02	3.631196E-03
4.629400E+03	5.632408E-02	3.622462E-03
4.639313E+03	5.642330E-02	3.602510E-03
4.649226E+03	5.635681E-02	3.572079E-03
4.659139E+03	5.613718E-02	3.532185E-03
4.669052E+03	5.578086E-02	3.484062E-03
4.678965E+03	5.530659E-02	3.429053E-03
4.688879E+03	5.473645E-02	3.368671E-03
4.698792E+03	5.409203E-02	3.304359E-03
4.708705E+03	5.339569E-02	3.237567E-03
4.718618E+03	5.266825E-02	3.169610E-03
4.728531E+03	5.192973E-02	3.101718E-03
4.738444E+03	5.119811E-02	3.034967E-03
4.748357E+03	5.048781E-02	2.970188E-03
4.758270E+03	4.981187E-02	2.908106E-03
4.768183E+03	4.918129E-02	2.849309E-03
4.778096E+03	4.860437E-02	2.794207E-03
4.788009E+03	4.808571E-02	2.742986E-03
4.797922E+03	4.762872E-02	2.695758E-03
4.807835E+03	4.723408E-02	2.652474E-03
4.817748E+03	4.690116E-02	2.613014E-03
4.827661E+03	4.662769E-02	2.577166E-03
4.837574E+03	4.640901E-02	2.544596E-03
4.847488E+03	4.623995E-02	2.514948E-03
4.857401E+03	4.611525E-02	2.487869E-03
4.867314E+03	4.602815E-02	2.462940E-03
4.877227E+03	4.597290E-02	2.439805E-03
4.887140E+03	4.594346E-02	2.418103E-03
4.897053E+03	4.593489E-02	2.397543E-03
4.906966E+03	4.594153E-02	2.377805E-03
4.916879E+03	4.596027E-02	2.358711E-03
4.926792E+03	4.598877E-02	2.340125E-03
4.936705E+03	4.602653E-02	2.322013E-03
4.946618E+03	4.607348E-02	2.304360E-03
4.956531E+03	4.613139E-02	2.287245E-03
4.966444E+03	4.620391E-02	2.270835E-03
4.976357E+03	4.629490E-02	2.255303E-03
4.986270E+03	4.641022E-02	2.240910E-03
4.996183E+03	4.655607E-02	2.227928E-03
5.006097E+03	4.673931E-02	2.216647E-03
5.016010E+03	4.696662E-02	2.207337E-03
5.025923E+03	4.724641E-02	2.200341E-03
5.035836E+03	4.758507E-02	2.195894E-03
5.045749E+03	4.799081E-02	2.194302E-03
5.055662E+03	4.847039E-02	2.195797E-03
5.065575E+03	4.902908E-02	2.200532E-03
5.075488E+03	4.967404E-02	2.208737E-03
5.085401E+03	5.040845E-02	2.220458E-03
5.095314E+03	5.123775E-02	2.235834E-03
5.105227E+03	5.216359E-02	2.254838E-03
5.115140E+03	5.318863E-02	2.277482E-03
5.125053E+03	5.431191E-02	2.303626E-03
5.134966E+03	5.553266E-02	2.333143E-03
5.144879E+03	5.684849E-02	2.365843E-03
5.154792E+03	5.825421E-02	2.401428E-03
5.164706E+03	5.974333E-02	2.439560E-03
5.174619E+03	6.130761E-02	2.479845E-03
5.184532E+03	6.293706E-02	2.521837E-03
5.194445E+03	6.462072E-02	2.565070E-03
5.204358E+03	6.634560E-02	2.609020E-03
5.214271E+03	6.809686E-02	2.653114E-03
5.224184E+03	6.985960E-02	2.696805E-03
5.234097E+03	7.161933E-02	2.739585E-03
5.244010E+03	7.336040E-02	2.780925E-03
5.253923E+03	7.506930E-02	2.820403E-03
5.263836E+03	7.673318E-02	2.857642E-03
5.273749E+03	7.834012E-02	2.892316E-03
5.283662E+03	7.988204E-02	2.924258E-03
5.293575E+03	8.135177E-02	2.953343E-03
5.303488E+03	8.274651E-02	2.979611E-03
5.313401E+03	8.406451E-02	3.003143E-03
5.323315E+03	8.530834E-02	3.024172E-03
5.333228E+03	8.648104E-02	3.042944E-03
5.343141E+03	8.758919E-02	3.059821E-03
5.353054E+03	8.863867E-02	3.075134E-03
5.362967E+03	8.963757E-02	3.089279E-03
5.372880E+03	9.059201E-02	3.102578E-03
5.382793E+03	9.151056E-02	3.115424E-03
5.392706E+03	9.239918E-02	3.128118E-03
5.402619E+03	9.326127E-02	3.140862E-03
5.412532E+03	9.409708E-02	3.153751E-03
5.422445E+03	9.490121E-02	3.166676E-03
5.432358E+03	9.566693E-02	3.179430E-03
5.442271E+03	9.638353E-02	3.191660E-03
5.452184E+03	9.703690E-02	3.202894E-03
5.462097E+03	9.761395E-02	3.212697E-03
5.472010E+03	9.809860E-02	3.220530E-03
5.481924E+03	9.847462E-02	3.225845E-03
5.491837E+03	9.872643E-02	3.228115E-03
5.501750E+03	9.884022E-02	3.226861E-03
5.511663E+03	9.880476E-02	3.221687E-03
5.521576E+03	9.861246E-02	3.212306E-03
5.531489E+03	9.825892E-02	3.198528E-03
5.541402E+03	9.774648E-02	3.180376E-03
5.551315E+03	9.708146E-02	3.157997E-03
5.561228E+03	9.627408E-02	3.131660E-03
5.571141E+03	9.534199E-02	3.101872E-03
5.581054E+03	9.430385E-02	3.069170E-03
5.590967E+03	9.318140E-02	3.034193E-03
5.600880E+03	9.200129E-02	2.997743E-03
5.610793E+03	9.078850E-02	2.960570E-03
5.620706E+03	8.956890E-02	2.923459E-03
5.630619E+03	8.836748E-02	2.887174E-03
5.640533E+03	8.720831E-02	2.852453E-03
5.650446E+03	8.611111E-02	2.819903E-03
5.660359E+03	8.509425E-02	2.790092E-03
5.670272E+03	8.417085E-02	2.763425E-03
5.680185E+03	8.335100E-02	2.740212E-03
5.690098E+03	8.264160E-02	2.720665E-03
5.700011E+03	8.204459E-02	2.704835E-03
5.709924E+03	8.155702E-02	2.692619E-03
5.719837E+03	8.117355E-02	2.683835E-03
5.729750E+03	8.088354E-02	2.678127E-03
5.739663E+03	8.067442E-02	2.675075E-03
5.749576E+03	8.052894E-02	2.674106E-03
5.759489E+03	8.042879E-02	2.674607E-03
5.769402E+03	8.035286E-02	2.675871E-03
5.779315E+03	8.027791E-02	2.677120E-03
5.789228E+03	8.018083E-02	2.677576E-03
5.799142E+03	8.003959E-02	2.676495E-03
5.809055E+03	7.983163E-02	2.673113E-03
5.818968E+03	7.953786E-02	2.666782E-03
5.828881E+03	7.913955E-02	2.656863E-03
5.838794E+03	7.862444E-02	2.642935E-03
5.848707E+03	7.798180E-02	2.624626E-03
5.858620E+03	7.720519E-02	2.601713E-03
5.868533E+03	7.629487E-02	2.574195E-03
5.878446E+03	7.525166E-02	2.542095E-03
5.888359E+03	7.408506E-02	2.505730E-03
5.898272E+03	7.280388E-02	2.465397E-03
5.908185E+03	7.142386E-02	2.421627E-03
5.918098E+03	6.996109E-02	2.374970E-03
5.928011E+03	6.843364E-02	2.326043E-03
5.937924E+03	6.686215E-02	2.275554E-03
5.947837E+03	6.526631E-02	2.224182E-03
5.957751E+03	6.366635E-02	2.172627E-03
5.967664E+03	6.208104E-02	2.121541E-03
5.977577E+03	6.052912E-02	2.071579E-03
5.987490E+03	5.902583E-02	2.023280E-03
5.997403E+03	5.758624E-02	1.977178E-03
6.007316E+03	5.622208E-02	1.933696E-03
6.017229E+03	5.494290E-02	1.893185E-03
6.027142E+03	5.375650E-02	1.855939E-03
6.037055E+03	5.266852E-02	1.822178E-03
6.046968E+03	5.168143E-02	1.792018E-03
6.056881E+03	5.079684E-02	1.765546E-03
6.066794E+03	5.001456E-02	1.742788E-03
6.076707E+03	4.933180E-02	1.723685E-03
6.086620E+03	4.874586E-02	1.708178E-03
6.096533E+03	4.825181E-02	1.696135E-03
6.106446E+03	4.784372E-02	1.687389E-03
6.116360E+03	4.751534E-02	1.681763E-03
6.126273E+03	4.726027E-02	1.679071E-03
6.136186E+03	4.707128E-02	1.679103E-03
6.146099E+03	4.694056E-02	1.681622E-03
6.156012E+03	4.686137E-02	1.686431E-03
6.165925E+03	4.682647E-02	1.693310E-03
6.175838E+03	4.683015E-02	1.702096E-03
6.185751E+03	4.686715E-02	1.712637E-03
6.195664E+03	4.693374E-02	1.724834E-03
6.205577E+03	4.702690E-02	1.738599E-03
6.215490E+03	4.714487E-02	1.753867E-03
6.225403E+03	4.728806E-02	1.770657E-03
6.235316E+03	4.745664E-02	1.788977E-03
6.245229E+03	4.765318E-02	1.808929E-03
6.255142E+03	4.788008E-02	1.830609E-03
6.265055E+03	4.814019E-02	1.854140E-03
6.274969E+03	4.843750E-02	1.879687E-03
6.284882E+03	4.877427E-02	1.907357E-03
6.294795E+03	4.915268E-02	1.937256E-03
6.304708E+03	4.957508E-02	1.969503E-03
6.314621E+03	5.004228E-02	2.004157E-03
6.324534E+03	5.055228E-02	2.041168E-03
6.334447E+03	5.110414E-02	2.080524E-03
6.344360E+03	5.169553E-02	2.122160E-03
6.354273E+03	5.232332E-02	2.165973E-03
6.364186E+03	5.298440E-02	2.211855E-03
6.374099E+03	5.367515E-02	2.259677E-03
6.384012E+03	5.439154E-02	2.309284E-03
6.393925E+03	5.512753E-02	2.360429E-03
6.403838E+03	5.587562E-02	2.412796E-03
6.413751E+03	5.662604E-02	2.465955E-03
6.423664E+03	5.736740E-02	2.519392E-03
6.433578E+03	5.808889E-02	2.572602E-03
6.443491E+03	5.877732E-02	2.624956E-03
6.453404E+03	5.941940E-02	2.675799E-03
6.463317E+03	6.000081E-02	2.724410E-03
6.473230E+03	6.050867E-02	2.770113E-03
6.483143E+03	6.092791E-02	2.812109E-03
6.493056E+03	6.124715E-02	2.849751E-03
6.502969E+03	6.145510E-02	2.882377E-03
6.512882E+03	6.154162E-02	2.909363E-03
6.522795E+03	6.150081E-02	2.930275E-03
6.532708E+03	6.132716E-02	2.944690E-03
6.542621E+03	6.101849E-02	2.952338E-03
6.552534E+03	6.057533E-02	2.953082E-03
6.562447E+03	6.000091E-02	2.946920E-03
6.572360E+03	5.930173E-02	2.934019E-03
6.582273E+03	5.848593E-02	2.914641E-03
6.592187E+03	5.756300E-02	2.889131E-03
6.602100E+03	5.654553E-02	2.858005E-03
6.612013E+03	5.544671E-02	2.821834E-03
6.621926E+03	5.428058E-02	2.781250E-03
6.631839E+03	5.306226E-02	2.736967E-03
6.641752E+03	5.180561E-02	2.689655E-03
6.651665E+03	5.052546E-02	2.640055E-03
6.661578E+03	4.923465E-02	2.588826E-03
6.671491E+03	4.794689E-02	2.536692E-03
6.681404E+03	4.667236E-02	2.484208E-03
6.691317E+03	4.542218E-02	2.431992E-03
6.701230E+03	4.420439E-02	2.380512E-03
6.711143E+03	4.302605E-02	2.330193E-03
6.721056E+03	4.189336E-02	2.281420E-03
6.730969E+03	4.081053E-02	2.234479E-03
6.740882E+03	3.977999E-02	2.189558E-03
6.750796E+03	3.880442E-02	2.146865E-03
6.760709E+03	3.788352E-02	2.106442E-03
6.770622E+03	3.701753E-02	2.068359E-03
6.780535E+03	3.620587E-02	2.032640E-03
6.790448E+03	3.544643E-02	1.999221E-03
6.800361E+03	3.473710E-02	1.968033E-03
6.810274E+03	3.407544E-02	1.938987E-03
6.820187E+03	3.345923E-02	1.912000E-03
6.830100E+03	3.288526E-02	1.886930E-03
6.840013E+03	3.235118E-02	1.863680E-03
6.849926E+03	3.185389E-02	1.842106E-03
6.859839E+03	3.139121E-02	1.822115E-03
6.869752E+03	3.096036E-02	1.803574E-03
6.879665E+03	3.055958E-02	1.786406E-03
6.889578E+03	3.018695E-02	1.770526E-03
6.899491E+03	2.984044E-02	1.755834E-03
6.909405E+03	2.951860E-02	1.742268E-03
6.919318E+03	2.922110E-02	1.729826E-03
6.929231E+03	2.894587E-02	1.718404E-03
6.939144E+03	2.869338E-02	1.708045E-03
6.949057E+03	2.846207E-02	1.698673E-03
6.958970E+03	2.825242E-02	1.690330E-03
6.968883E+03	2.806437E-02	1.683026E-03
6.978796E+03	2.789766E-02	1.676759E-03
6.988709E+03	2.775247E-02	1.671551E-03
6.998622E+03	2.762918E-02	1.667436E-03
7.008535E+03	2.752819E-02	1.664450E-03
7.018448E+03	2.745036E-02	1.662654E-03
7.028361E+03	2.739551E-02	1.662047E-03
7.038274E+03	2.736449E-02	1.662689E-03
7.048187E+03	2.735783E-02	1.664621E-03
7.058100E+03	2.737564E-02	1.667855E-03
7.068014E+03	2.741857E-02	1.672439E-03
7.077927E+03	2.748656E-02	1.678374E-03
7.087840E+03	2.757963E-02	1.685666E-03
7.097753E+03	2.769771E-02	1.694314E-03
7.107666E+03	2.784008E-02	1.704278E-03
7.117579E+03	2.800696E-02	1.715574E-03
7.127492E+03	2.819645E-02	1.728084E-03
7.137405E+03	2.840785E-02	1.741769E-03
7.147318E+03	2.864026E-02	1.756571E-03
7.157231E+03	2.889098E-02	1.772325E-03
7.167144E+03	2.915900E-02	1.788967E-03
7.177057E+03	2.944197E-02	1.806351E-03
7.186970E+03	2.973733E-02	1.824317E-03
7.196883E+03	3.004320E-02	1.842746E-03
7.206796E+03	3.035638E-02	1.861443E-03
7.216709E+03	3.067444E-02	1.880253E-03
7.226623E+03	3.099543E-02	1.899056E-03
7.236536E+03	3.131612E-02	1.917652E-03
7.246449E+03	3.163431E-02	1.935905E-03
7.256362E+03	3.194746E-02	1.953661E-03
7.266275E+03	3.225413E-02	1.970830E-03
7.276188E+03	3.255178E-02	1.987259E-03
7.286101E+03	3.283848E-02	2.002833E-03
7.296014E+03	3.311345E-02	2.017507E-03
7.305927E+03	3.337529E-02	2.031199E-03
7.315840E+03	3.362273E-02	2.043838E-03
7.325753E+03	3.385521E-02	2.055397E-03
7.335666E+03	3.407139E-02	2.065800E-03
7.345579E+03	3.427148E-02	2.075069E-03
7.355492E+03	3.445538E-02	2.083206E-03
7.365405E+03	3.462170E-02	2.090137E-03
7.375318E+03	3.477155E-02	2.095939E-03
7.385232E+03	3.490519E-02	2.100641E-03
7.395145E+03	3.502310E-02	2.104281E-03
7.405058E+03	3.512588E-02	2.106909E-03
7.414971E+03	3.521485E-02	2.108615E-03
7.424884E+03	3.529106E-02	2.109476E-03
7.434797E+03	3.535629E-02	2.109612E-03
7.444710E+03	3.541262E-02	2.109158E-03
7.454623E+03	3.546240E-02	2.108268E-03
7.464536E+03	3.550681E-02	2.107024E-03
7.474449E+03	3.555022E-02	2.105696E-03
7.484362E+03	3.559377E-02	2.104365E-03
7.494275E+03	3.564175E-02	2.103294E-03
7.504188E+03	3.569710E-02	2.102667E-03
7.514101E+03	3.576222E-02	2.102635E-03
7.524014E+03	3.584096E-02	2.103432E-03
7.533927E+03	3.593551E-02	2.105197E-03
7.543841E+03	3.604927E-02	2.108137E-03
7.553754E+03	3.618372E-02	2.112346E-03
7.563667E+03	3.634039E-02	2.117921E-03
7.573580E+03	3.652069E-02	2.124955E-03
7.583493E+03	3.672489E-02	2.133472E-03
7.593406E+03	3.695253E-02	2.143456E-03
7.603319E+03	3.720231E-02	2.154843E-03
7.613232E+03	3.747218E-02	2.167529E-03
7.623145E+03	3.775975E-02	2.181391E-03
7.633058E+03	3.806129E-02	2.196231E-03
7.642971E+03	3.837179E-02	2.211777E-03
7.652884E+03	3.868595E-02	2.227748E-03
7.662797E+03	3.899849E-02	2.243862E-03
7.672710E+03	3.930240E-02	2.259741E-03
7.682623E+03	3.959144E-02	2.275051E-03
7.692536E+03	3.985790E-02	2.289377E-03
