#wls	flux	fluxerr
1.597671E+03	8.607461E-03	3.001113E-04
1.637612E+03	6.929338E-03	2.415523E-04
1.677554E+03	5.501545E-03	1.917407E-04
1.717496E+03	4.305208E-03	1.500140E-04
1.757438E+03	3.319175E-03	1.156309E-04
1.797379E+03	2.520567E-03	8.779014E-05
1.837321E+03	1.884826E-03	6.563277E-05
1.877263E+03	1.388711E-03	4.834606E-05
1.917205E+03	1.009329E-03	3.513012E-05
1.957146E+03	7.255442E-04	2.524678E-05
1.997088E+03	5.183413E-04	1.803230E-05
2.037030E+03	3.711939E-04	1.291003E-05
2.076972E+03	2.699930E-04	9.387883E-06
2.116914E+03	2.025953E-04	7.042570E-06
2.156855E+03	1.588845E-04	5.521634E-06
2.196797E+03	1.320114E-04	4.586481E-06
2.236739E+03	1.179166E-04	4.095650E-06
2.276681E+03	1.144942E-04	3.975659E-06
2.316622E+03	1.209897E-04	4.200000E-06
2.356564E+03	1.379552E-04	4.787534E-06
2.396506E+03	1.673321E-04	5.805289E-06
2.436448E+03	2.121885E-04	7.359272E-06
2.476389E+03	2.760990E-04	9.572909E-06
2.516331E+03	3.619097E-04	1.254421E-05
2.556273E+03	4.703346E-04	1.629715E-05
2.596215E+03	5.992297E-04	2.075665E-05
2.636156E+03	7.443196E-04	2.577393E-05
2.676098E+03	8.977868E-04	3.107773E-05
2.716040E+03	1.050048E-03	3.633609E-05
2.755982E+03	1.195070E-03	4.134022E-05
2.795924E+03	1.331585E-03	4.604653E-05
2.835865E+03	1.461149E-03	5.050903E-05
2.875807E+03	1.585116E-03	5.477471E-05
2.915749E+03	1.701873E-03	5.878798E-05
2.955691E+03	1.805746E-03	6.235319E-05
2.995632E+03	1.886897E-03	6.513117E-05
3.005618E+03	1.902331E-03	6.565777E-05
3.015603E+03	1.915424E-03	6.610346E-05
3.025589E+03	1.926019E-03	6.646287E-05
3.035574E+03	1.934069E-03	6.673436E-05
3.045560E+03	1.939423E-03	6.691278E-05
3.055545E+03	1.942007E-03	6.699559E-05
3.065530E+03	1.941825E-03	6.698293E-05
3.075516E+03	1.938834E-03	6.687340E-05
3.085501E+03	1.933077E-03	6.666845E-05
3.095487E+03	1.924713E-03	6.637366E-05
3.105472E+03	1.913783E-03	6.599038E-05
3.115458E+03	1.900478E-03	6.552533E-05
3.125443E+03	1.884949E-03	6.498363E-05
3.135429E+03	1.867516E-03	6.437643E-05
3.145414E+03	1.848297E-03	6.370774E-05
3.155399E+03	1.827570E-03	6.298721E-05
3.165385E+03	1.805616E-03	6.222449E-05
3.175370E+03	1.782674E-03	6.142789E-05
3.185356E+03	1.758912E-03	6.060318E-05
3.195341E+03	1.734648E-03	5.976130E-05
3.205327E+03	1.710014E-03	5.890684E-05
3.215312E+03	1.685217E-03	5.804695E-05
3.225298E+03	1.660377E-03	5.718570E-05
3.235283E+03	1.635643E-03	5.632827E-05
3.245268E+03	1.611106E-03	5.547777E-05
3.255254E+03	1.586827E-03	5.463634E-05
3.265239E+03	1.562814E-03	5.380421E-05
3.275225E+03	1.539102E-03	5.298259E-05
3.285210E+03	1.515672E-03	5.217086E-05
3.295196E+03	1.492463E-03	5.136685E-05
3.305181E+03	1.469442E-03	5.056947E-05
3.315166E+03	1.446512E-03	4.977538E-05
3.325152E+03	1.423612E-03	4.898247E-05
3.335137E+03	1.400626E-03	4.818678E-05
3.345123E+03	1.377458E-03	4.738497E-05
3.355108E+03	1.354009E-03	4.657362E-05
3.365094E+03	1.330184E-03	4.574949E-05
3.375079E+03	1.305891E-03	4.490947E-05
3.385065E+03	1.281034E-03	4.405019E-05
3.395050E+03	1.255565E-03	4.317003E-05
3.405035E+03	1.229397E-03	4.226605E-05
3.415021E+03	1.202538E-03	4.133846E-05
3.425006E+03	1.174945E-03	4.038582E-05
3.434992E+03	1.146635E-03	3.940874E-05
3.444977E+03	1.117653E-03	3.840877E-05
3.454963E+03	1.088053E-03	3.738775E-05
3.464948E+03	1.057925E-03	3.634879E-05
3.474934E+03	1.027377E-03	3.529563E-05
3.484919E+03	9.965795E-04	3.423409E-05
3.494904E+03	9.657471E-04	3.317157E-05
3.504890E+03	9.351109E-04	3.211601E-05
3.514875E+03	9.049501E-04	3.107698E-05
3.524861E+03	8.755115E-04	3.006296E-05
3.534846E+03	8.471130E-04	2.908486E-05
3.544832E+03	8.200732E-04	2.815360E-05
3.554817E+03	7.947313E-04	2.728082E-05
3.564803E+03	7.714194E-04	2.647789E-05
3.574788E+03	7.504806E-04	2.575656E-05
3.584773E+03	7.322537E-04	2.512845E-05
3.594759E+03	7.170239E-04	2.460331E-05
3.604744E+03	7.050850E-04	2.419118E-05
3.614730E+03	6.966731E-04	2.390013E-05
3.624715E+03	6.919882E-04	2.373699E-05
3.634701E+03	6.912101E-04	2.370789E-05
3.644686E+03	6.945017E-04	2.381836E-05
3.654671E+03	7.019874E-04	2.407264E-05
3.664657E+03	7.138001E-04	2.447523E-05
3.674642E+03	7.300312E-04	2.502923E-05
3.684628E+03	7.507755E-04	2.573783E-05
3.694613E+03	7.760980E-04	2.660323E-05
3.704599E+03	8.060550E-04	2.762730E-05
3.714584E+03	8.406470E-04	2.881002E-05
3.724570E+03	8.798442E-04	3.015030E-05
3.734555E+03	9.235719E-04	3.164555E-05
3.744540E+03	9.716951E-04	3.329110E-05
3.754526E+03	1.023991E-03	3.507925E-05
3.764511E+03	1.080180E-03	3.700041E-05
3.774497E+03	1.139874E-03	3.904127E-05
3.784482E+03	1.202580E-03	4.118484E-05
3.794468E+03	1.267765E-03	4.341286E-05
3.804453E+03	1.334739E-03	4.570175E-05
3.814439E+03	1.402782E-03	4.802676E-05
3.824424E+03	1.471148E-03	5.036235E-05
3.834409E+03	1.539025E-03	5.268079E-05
3.844395E+03	1.605638E-03	5.495550E-05
3.854380E+03	1.670298E-03	5.716292E-05
3.864366E+03	1.732387E-03	5.928194E-05
3.874351E+03	1.791394E-03	6.129513E-05
3.884337E+03	1.846930E-03	6.318914E-05
3.894322E+03	1.898772E-03	6.495646E-05
3.904308E+03	1.946807E-03	6.659321E-05
3.914293E+03	1.991015E-03	6.809878E-05
3.924278E+03	2.031457E-03	6.947524E-05
3.934264E+03	2.068232E-03	7.072610E-05
3.944249E+03	2.101459E-03	7.185540E-05
3.954235E+03	2.131222E-03	7.286606E-05
3.964220E+03	2.157554E-03	7.375929E-05
3.974206E+03	2.180488E-03	7.453619E-05
3.984191E+03	2.199952E-03	7.519439E-05
3.994176E+03	2.215873E-03	7.573139E-05
4.004162E+03	2.228096E-03	7.614193E-05
4.014147E+03	2.236427E-03	7.641944E-05
4.024133E+03	2.240734E-03	7.655944E-05
4.034118E+03	2.240802E-03	7.655464E-05
4.044104E+03	2.236503E-03	7.640066E-05
4.054089E+03	2.227744E-03	7.609441E-05
4.064075E+03	2.214448E-03	7.563329E-05
4.074060E+03	2.196622E-03	7.501762E-05
4.084045E+03	2.174384E-03	7.425138E-05
4.094031E+03	2.147843E-03	7.333841E-05
4.104016E+03	2.117239E-03	7.228694E-05
4.114002E+03	2.082965E-03	7.111039E-05
4.123987E+03	2.045393E-03	6.982148E-05
4.133973E+03	2.005086E-03	6.843953E-05
4.143958E+03	1.962727E-03	6.698780E-05
4.153944E+03	1.919040E-03	6.549104E-05
4.163929E+03	1.874858E-03	6.397768E-05
4.173914E+03	1.831087E-03	6.247867E-05
4.183900E+03	1.788587E-03	6.102329E-05
4.193885E+03	1.748217E-03	5.964087E-05
4.203871E+03	1.710796E-03	5.835932E-05
4.213856E+03	1.676997E-03	5.720156E-05
4.223842E+03	1.647374E-03	5.618648E-05
4.233827E+03	1.622378E-03	5.532937E-05
4.243813E+03	1.602288E-03	5.463976E-05
4.253798E+03	1.587233E-03	5.412199E-05
4.263783E+03	1.577183E-03	5.377496E-05
4.273769E+03	1.571997E-03	5.359389E-05
4.283754E+03	1.571418E-03	5.356993E-05
4.293740E+03	1.575105E-03	5.369142E-05
4.303725E+03	1.582621E-03	5.394347E-05
4.313711E+03	1.593471E-03	5.430913E-05
4.323696E+03	1.607168E-03	5.477178E-05
4.333681E+03	1.623106E-03	5.531081E-05
4.343667E+03	1.640726E-03	5.590710E-05
4.353652E+03	1.659443E-03	5.654072E-05
4.363638E+03	1.678694E-03	5.719251E-05
4.373623E+03	1.697981E-03	5.784547E-05
4.383609E+03	1.716864E-03	5.848462E-05
4.393594E+03	1.734856E-03	5.909339E-05
4.403580E+03	1.751520E-03	5.965689E-05
4.413565E+03	1.766427E-03	6.016055E-05
4.423550E+03	1.779164E-03	6.059028E-05
4.433536E+03	1.789447E-03	6.093644E-05
4.443521E+03	1.797073E-03	6.119215E-05
4.453507E+03	1.801900E-03	6.135257E-05
4.463492E+03	1.803883E-03	6.141620E-05
4.473478E+03	1.802968E-03	6.138122E-05
4.483463E+03	1.799085E-03	6.124530E-05
4.493449E+03	1.792158E-03	6.100578E-05
4.503434E+03	1.782123E-03	6.066058E-05
4.513419E+03	1.768935E-03	6.020819E-05
4.523405E+03	1.752641E-03	5.965017E-05
4.533390E+03	1.733393E-03	5.899172E-05
4.543376E+03	1.711397E-03	5.823994E-05
4.553361E+03	1.686960E-03	5.740518E-05
4.563347E+03	1.660483E-03	5.650118E-05
4.573332E+03	1.632444E-03	5.554420E-05
4.583318E+03	1.603318E-03	5.455034E-05
4.593303E+03	1.573625E-03	5.353739E-05
4.603288E+03	1.543868E-03	5.252238E-05
4.613274E+03	1.514506E-03	5.152099E-05
4.623259E+03	1.485909E-03	5.054574E-05
4.633245E+03	1.458412E-03	4.960806E-05
4.643230E+03	1.432164E-03	4.871302E-05
4.653216E+03	1.407307E-03	4.786540E-05
4.663201E+03	1.383811E-03	4.706418E-05
4.673186E+03	1.361566E-03	4.630563E-05
4.683172E+03	1.340403E-03	4.558400E-05
4.693157E+03	1.320089E-03	4.489134E-05
4.703143E+03	1.300415E-03	4.422056E-05
4.713128E+03	1.281168E-03	4.356434E-05
4.723114E+03	1.262172E-03	4.291681E-05
4.733099E+03	1.243356E-03	4.227545E-05
4.743085E+03	1.224709E-03	4.163994E-05
4.753070E+03	1.206361E-03	4.101471E-05
4.763055E+03	1.188472E-03	4.040512E-05
4.773041E+03	1.171346E-03	3.982158E-05
4.783026E+03	1.155307E-03	3.927506E-05
4.793012E+03	1.140691E-03	3.877701E-05
4.802997E+03	1.127882E-03	3.834042E-05
4.812983E+03	1.117227E-03	3.797716E-05
4.822968E+03	1.109008E-03	3.769673E-05
4.832954E+03	1.103489E-03	3.750813E-05
4.842939E+03	1.100854E-03	3.741761E-05
4.852924E+03	1.101223E-03	3.742923E-05
4.862910E+03	1.104674E-03	3.754564E-05
4.872895E+03	1.111239E-03	3.776794E-05
4.882881E+03	1.120885E-03	3.809498E-05
4.892866E+03	1.133557E-03	3.852486E-05
4.902852E+03	1.149111E-03	3.905273E-05
4.912837E+03	1.167390E-03	3.967324E-05
4.922823E+03	1.188175E-03	4.037893E-05
4.932808E+03	1.211174E-03	4.115986E-05
4.942793E+03	1.236064E-03	4.200508E-05
4.952779E+03	1.262445E-03	4.290100E-05
4.962764E+03	1.289885E-03	4.383295E-05
4.972750E+03	1.317892E-03	4.478415E-05
4.982735E+03	1.345958E-03	4.573742E-05
4.992721E+03	1.373541E-03	4.667430E-05
5.002706E+03	1.400153E-03	4.757822E-05
5.012691E+03	1.425278E-03	4.843166E-05
5.022677E+03	1.448453E-03	4.921888E-05
5.032662E+03	1.469296E-03	4.992687E-05
5.042648E+03	1.487469E-03	5.054422E-05
5.052633E+03	1.502698E-03	5.106160E-05
5.062619E+03	1.514797E-03	5.147267E-05
5.072604E+03	1.523664E-03	5.177398E-05
5.082590E+03	1.529211E-03	5.196251E-05
5.092575E+03	1.531439E-03	5.203836E-05
5.102560E+03	1.530438E-03	5.200453E-05
5.112546E+03	1.526253E-03	5.186257E-05
5.122531E+03	1.519065E-03	5.161862E-05
5.132517E+03	1.509052E-03	5.127875E-05
5.142502E+03	1.496483E-03	5.085209E-05
5.152488E+03	1.481668E-03	5.034914E-05
5.162473E+03	1.465014E-03	4.978379E-05
5.172459E+03	1.446939E-03	4.917016E-05
5.182444E+03	1.427901E-03	4.852385E-05
5.192429E+03	1.408402E-03	4.786193E-05
5.202415E+03	1.388867E-03	4.719882E-05
5.212400E+03	1.369732E-03	4.654937E-05
5.222386E+03	1.351306E-03	4.592404E-05
5.232371E+03	1.333819E-03	4.533065E-05
5.242357E+03	1.317406E-03	4.477380E-05
5.252342E+03	1.302128E-03	4.425556E-05
5.262328E+03	1.287903E-03	4.377312E-05
5.272313E+03	1.274651E-03	4.332381E-05
5.282298E+03	1.262258E-03	4.290373E-05
5.292284E+03	1.250584E-03	4.250813E-05
5.302269E+03	1.239518E-03	4.213322E-05
5.312255E+03	1.229029E-03	4.177797E-05
5.322240E+03	1.219066E-03	4.144064E-05
5.332226E+03	1.209663E-03	4.112239E-05
5.342211E+03	1.200894E-03	4.082570E-05
5.352196E+03	1.192849E-03	4.055366E-05
5.362182E+03	1.185584E-03	4.030819E-05
5.372167E+03	1.179202E-03	4.009280E-05
5.382153E+03	1.173731E-03	3.990840E-05
5.392138E+03	1.169176E-03	3.975518E-05
5.402124E+03	1.165498E-03	3.963184E-05
5.412109E+03	1.162643E-03	3.953654E-05
5.422095E+03	1.160562E-03	3.946758E-05
5.432080E+03	1.159185E-03	3.942262E-05
5.442065E+03	1.158500E-03	3.940125E-05
5.452051E+03	1.158489E-03	3.940282E-05
5.462036E+03	1.159167E-03	3.942792E-05
5.472022E+03	1.160581E-03	3.947808E-05
5.482007E+03	1.162717E-03	3.955285E-05
5.491993E+03	1.165586E-03	3.965264E-05
5.501978E+03	1.169125E-03	3.977524E-05
5.511964E+03	1.173276E-03	3.991875E-05
5.521949E+03	1.177895E-03	4.007826E-05
5.531934E+03	1.182827E-03	4.024845E-05
5.541920E+03	1.187871E-03	4.042254E-05
5.551905E+03	1.192854E-03	4.059463E-05
5.561891E+03	1.197524E-03	4.075613E-05
5.571876E+03	1.201665E-03	4.089967E-05
5.581862E+03	1.205073E-03	4.101834E-05
5.591847E+03	1.207577E-03	4.110626E-05
5.601833E+03	1.209014E-03	4.115793E-05
5.611818E+03	1.209298E-03	4.117042E-05
5.621803E+03	1.208369E-03	4.114163E-05
5.631789E+03	1.206205E-03	4.107081E-05
5.641774E+03	1.202844E-03	4.095929E-05
5.651760E+03	1.198312E-03	4.080789E-05
5.661745E+03	1.192691E-03	4.061946E-05
5.671731E+03	1.186093E-03	4.039772E-05
5.681716E+03	1.178601E-03	4.014554E-05
5.691701E+03	1.170309E-03	3.986612E-05
5.701687E+03	1.161311E-03	3.956262E-05
5.711672E+03	1.151692E-03	3.923795E-05
5.721658E+03	1.141470E-03	3.889273E-05
5.731643E+03	1.130687E-03	3.852839E-05
5.741629E+03	1.119311E-03	3.814378E-05
5.751614E+03	1.107260E-03	3.773612E-05
5.761600E+03	1.094439E-03	3.730222E-05
5.771585E+03	1.080707E-03	3.683720E-05
5.781570E+03	1.065880E-03	3.633483E-05
5.791556E+03	1.049789E-03	3.578927E-05
5.801541E+03	1.032288E-03	3.519561E-05
5.811527E+03	1.013244E-03	3.454925E-05
5.821512E+03	9.926380E-04	3.384951E-05
5.831498E+03	9.705133E-04	3.309790E-05
5.841483E+03	9.470234E-04	3.229962E-05
5.851469E+03	9.224318E-04	3.146364E-05
5.861454E+03	8.970282E-04	3.059984E-05
5.871439E+03	8.712007E-04	2.972144E-05
5.881425E+03	8.453371E-04	2.884167E-05
5.891410E+03	8.198168E-04	2.797347E-05
5.901396E+03	7.950008E-04	2.712916E-05
5.911381E+03	7.712215E-04	2.632010E-05
5.921367E+03	7.487636E-04	2.555600E-05
5.931352E+03	7.278435E-04	2.484427E-05
5.941338E+03	7.086515E-04	2.419140E-05
5.951323E+03	6.913307E-04	2.360232E-05
5.961308E+03	6.759826E-04	2.308049E-05
5.971294E+03	6.626728E-04	2.262818E-05
5.981279E+03	6.514799E-04	2.224808E-05
5.991265E+03	6.424311E-04	2.194115E-05
6.001250E+03	6.355865E-04	2.170946E-05
6.011236E+03	6.309564E-04	2.155338E-05
6.021221E+03	6.285591E-04	2.147355E-05
6.031207E+03	6.284070E-04	2.147043E-05
6.041192E+03	6.305006E-04	2.154406E-05
6.051177E+03	6.348283E-04	2.169405E-05
6.061163E+03	6.413423E-04	2.191880E-05
6.071148E+03	6.500198E-04	2.221755E-05
6.081134E+03	6.607645E-04	2.258703E-05
6.091119E+03	6.734813E-04	2.302401E-05
6.101105E+03	6.880260E-04	2.352358E-05
6.111090E+03	7.042058E-04	2.407916E-05
6.121075E+03	7.217840E-04	2.468268E-05
6.131061E+03	7.404980E-04	2.532518E-05
6.141046E+03	7.600247E-04	2.599561E-05
6.151032E+03	7.800142E-04	2.668201E-05
6.161017E+03	8.001186E-04	2.737249E-05
6.171003E+03	8.199481E-04	2.805371E-05
6.180988E+03	8.391556E-04	2.871379E-05
6.190974E+03	8.574199E-04	2.934173E-05
6.200959E+03	8.744735E-04	2.992837E-05
6.210944E+03	8.900912E-04	3.046599E-05
6.220930E+03	9.041169E-04	3.094923E-05
6.230915E+03	9.164845E-04	3.137581E-05
6.240901E+03	9.271790E-04	3.174520E-05
6.250886E+03	9.362541E-04	3.205922E-05
6.260872E+03	9.438054E-04	3.232112E-05
6.270857E+03	9.499806E-04	3.253595E-05
6.280843E+03	9.549156E-04	3.270835E-05
6.290828E+03	9.587591E-04	3.284340E-05
6.300813E+03	9.616760E-04	3.294674E-05
6.310799E+03	9.638087E-04	3.302323E-05
6.320784E+03	9.652728E-04	3.307683E-05
6.330770E+03	9.662142E-04	3.311253E-05
6.340755E+03	9.667680E-04	3.313496E-05
6.350741E+03	9.670558E-04	3.314827E-05
6.360726E+03	9.672568E-04	3.315862E-05
6.370712E+03	9.675146E-04	3.317092E-05
6.380697E+03	9.679621E-04	3.318972E-05
6.390682E+03	9.686917E-04	3.321821E-05
6.400668E+03	9.697393E-04	3.325761E-05
6.410653E+03	9.710159E-04	3.330487E-05
6.420639E+03	9.724109E-04	3.335620E-05
6.430624E+03	9.737463E-04	3.340551E-05
6.440610E+03	9.748420E-04	3.344659E-05
6.450595E+03	9.755507E-04	3.347441E-05
6.460580E+03	9.757281E-04	3.348400E-05
6.470566E+03	9.752775E-04	3.347203E-05
6.480551E+03	9.740898E-04	3.343477E-05
6.490537E+03	9.721364E-04	3.337121E-05
6.500522E+03	9.693880E-04	3.328034E-05
6.510508E+03	9.658275E-04	3.316157E-05
6.520493E+03	9.614806E-04	3.301577E-05
6.530479E+03	9.563794E-04	3.284403E-05
6.540464E+03	9.505728E-04	3.264802E-05
6.550449E+03	9.441149E-04	3.242960E-05
6.560435E+03	9.370841E-04	3.219146E-05
6.570420E+03	9.295356E-04	3.193547E-05
6.580406E+03	9.215335E-04	3.166384E-05
6.590391E+03	9.131573E-04	3.137930E-05
6.600377E+03	9.044707E-04	3.108403E-05
6.610362E+03	8.955108E-04	3.077929E-05
6.620348E+03	8.863430E-04	3.046735E-05
6.630333E+03	8.769997E-04	3.014930E-05
6.640318E+03	8.675486E-04	2.982748E-05
6.650304E+03	8.579967E-04	2.950213E-05
6.660289E+03	8.483788E-04	2.917443E-05
6.670275E+03	8.387382E-04	2.884588E-05
6.680260E+03	8.291010E-04	2.851737E-05
6.690246E+03	8.194805E-04	2.818937E-05
6.700231E+03	8.098989E-04	2.786263E-05
6.710217E+03	8.003923E-04	2.753840E-05
6.720202E+03	7.909690E-04	2.721697E-05
6.730187E+03	7.816613E-04	2.689944E-05
6.740173E+03	7.724591E-04	2.658548E-05
6.750158E+03	7.634099E-04	2.627672E-05
6.760144E+03	7.545016E-04	2.597274E-05
6.770129E+03	7.457790E-04	2.567508E-05
6.780115E+03	7.372346E-04	2.538349E-05
6.790100E+03	7.288963E-04	2.509894E-05
6.800085E+03	7.207823E-04	2.482205E-05
6.810071E+03	7.129020E-04	2.455314E-05
6.820056E+03	7.052874E-04	2.429333E-05
6.830042E+03	6.979499E-04	2.404301E-05
6.840027E+03	6.909321E-04	2.380364E-05
6.850013E+03	6.842325E-04	2.357519E-05
6.859998E+03	6.779061E-04	2.335955E-05
6.869984E+03	6.719713E-04	2.315735E-05
6.879969E+03	6.664532E-04	2.296947E-05
6.889954E+03	6.613642E-04	2.279634E-05
6.899940E+03	6.567525E-04	2.263962E-05
6.909925E+03	6.525912E-04	2.249839E-05
6.919911E+03	6.489240E-04	2.237416E-05
6.929896E+03	6.457259E-04	2.226608E-05
6.939882E+03	6.429838E-04	2.217370E-05
6.949867E+03	6.406892E-04	2.209673E-05
6.959853E+03	6.388041E-04	2.203386E-05
6.969838E+03	6.372922E-04	2.198385E-05
6.979823E+03	6.361134E-04	2.194531E-05
6.989809E+03	6.352231E-04	2.191672E-05
6.999794E+03	6.345716E-04	2.189635E-05
7.009780E+03	6.340946E-04	2.188200E-05
7.019765E+03	6.337628E-04	2.187265E-05
7.029751E+03	6.334826E-04	2.186507E-05
7.039736E+03	6.332349E-04	2.185860E-05
7.049722E+03	6.329255E-04	2.185000E-05
7.059707E+03	6.325234E-04	2.183820E-05
7.069692E+03	6.319628E-04	2.182090E-05
7.079678E+03	6.311942E-04	2.179642E-05
7.089663E+03	6.301860E-04	2.176365E-05
7.099649E+03	6.288762E-04	2.172045E-05
7.109634E+03	6.272501E-04	2.166631E-05
7.119620E+03	6.252760E-04	2.160014E-05
7.129605E+03	6.229581E-04	2.152207E-05
7.139590E+03	6.202983E-04	2.143216E-05
7.149576E+03	6.172918E-04	2.133025E-05
7.159561E+03	6.139674E-04	2.121733E-05
7.169547E+03	6.103234E-04	2.109333E-05
7.179532E+03	6.064095E-04	2.095998E-05
7.189518E+03	6.022432E-04	2.081787E-05
7.199503E+03	5.978450E-04	2.066771E-05
7.209489E+03	5.932595E-04	2.051105E-05
7.219474E+03	5.885208E-04	2.034905E-05
7.229459E+03	5.836546E-04	2.018261E-05
7.239445E+03	5.786948E-04	2.001289E-05
7.249430E+03	5.736786E-04	1.984119E-05
7.259416E+03	5.686431E-04	1.966878E-05
7.269401E+03	5.636195E-04	1.949675E-05
7.279387E+03	5.586157E-04	1.932536E-05
7.289372E+03	5.536831E-04	1.915640E-05
7.299358E+03	5.488298E-04	1.899016E-05
7.309343E+03	5.440612E-04	1.882680E-05
7.319328E+03	5.394025E-04	1.866721E-05
7.329314E+03	5.348390E-04	1.851089E-05
7.339299E+03	5.303767E-04	1.835804E-05
7.349285E+03	5.260239E-04	1.820894E-05
7.359270E+03	5.217752E-04	1.806341E-05
7.369256E+03	5.176510E-04	1.792217E-05
7.379241E+03	5.136321E-04	1.778454E-05
7.389227E+03	5.097563E-04	1.765183E-05
7.399212E+03	5.060211E-04	1.752397E-05
7.409197E+03	5.024621E-04	1.740218E-05
7.419183E+03	4.990931E-04	1.728695E-05
7.429168E+03	4.959404E-04	1.717919E-05
7.439154E+03	4.930398E-04	1.708013E-05
7.449139E+03	4.904016E-04	1.699014E-05
7.459125E+03	4.880741E-04	1.691090E-05
7.469110E+03	4.860460E-04	1.684201E-05
7.479095E+03	4.843414E-04	1.678432E-05
7.489081E+03	4.829437E-04	1.673725E-05
7.499066E+03	4.818701E-04	1.670139E-05
7.509052E+03	4.810875E-04	1.667562E-05
7.519037E+03	4.805644E-04	1.665883E-05
7.529023E+03	4.802721E-04	1.665002E-05
7.539008E+03	4.801633E-04	1.664758E-05
7.548994E+03	4.802068E-04	1.665041E-05
7.558979E+03	4.803203E-04	1.665567E-05
7.568964E+03	4.804485E-04	1.666142E-05
7.578950E+03	4.805312E-04	1.666560E-05
7.588935E+03	4.804819E-04	1.666519E-05
7.598921E+03	4.802327E-04	1.665784E-05
7.608906E+03	4.796927E-04	1.664040E-05
7.618892E+03	4.788030E-04	1.661081E-05
7.628877E+03	4.774608E-04	1.656552E-05
7.638863E+03	4.756115E-04	1.650262E-05
7.648848E+03	4.731612E-04	1.641885E-05
7.658833E+03	4.700634E-04	1.631259E-05
7.668819E+03	4.662412E-04	1.618117E-05
7.678804E+03	4.616736E-04	1.602385E-05
7.688790E+03	4.563206E-04	1.583923E-05
7.698775E+03	4.501743E-04	1.562706E-05
7.708761E+03	4.432504E-04	1.538784E-05
7.718746E+03	4.355826E-04	1.512276E-05
7.728732E+03	4.272314E-04	1.483391E-05
7.738717E+03	4.182732E-04	1.452393E-05
7.748702E+03	4.088287E-04	1.419701E-05
