#wls	flux	fluxerr
1.597671E+03	1.399485E-02	6.743595E-04
1.637612E+03	1.219715E-02	5.747530E-04
1.677554E+03	1.052285E-02	4.846023E-04
1.717496E+03	8.980433E-03	4.039315E-04
1.757438E+03	7.576393E-03	3.326306E-04
1.797379E+03	6.314411E-03	2.704311E-04
1.837321E+03	5.192829E-03	2.168168E-04
1.877263E+03	4.209812E-03	1.712644E-04
1.917205E+03	3.359229E-03	1.330830E-04
1.957146E+03	2.632954E-03	1.015279E-04
1.997088E+03	2.021297E-03	7.582886E-05
2.037030E+03	1.515045E-03	5.527428E-05
2.076972E+03	1.106996E-03	3.926469E-05
2.116914E+03	7.961866E-04	2.744973E-05
2.156855E+03	5.845295E-04	1.958645E-05
2.196797E+03	4.580099E-04	1.491658E-05
2.236739E+03	3.983003E-04	1.261070E-05
2.276681E+03	3.949237E-04	1.216034E-05
2.316622E+03	4.498569E-04	1.347941E-05
2.356564E+03	5.822913E-04	1.699266E-05
2.396506E+03	8.383843E-04	2.385378E-05
2.436448E+03	1.306646E-03	3.629504E-05
2.476389E+03	2.137742E-03	5.806140E-05
2.516331E+03	3.551477E-03	9.446326E-05
2.556273E+03	5.786625E-03	1.509613E-04
2.596215E+03	8.927888E-03	2.287786E-04
2.636156E+03	1.267503E-02	3.194852E-04
2.676098E+03	1.653009E-02	4.103776E-04
2.716040E+03	2.019619E-02	4.944428E-04
2.755982E+03	2.364504E-02	5.714982E-04
2.795924E+03	2.705915E-02	6.463487E-04
2.835865E+03	3.068834E-02	7.251292E-04
2.875807E+03	3.471118E-02	8.120414E-04
2.915749E+03	3.918385E-02	9.083029E-04
2.955691E+03	4.400822E-02	1.011570E-03
2.995632E+03	4.884122E-02	1.114019E-03
3.005618E+03	4.998367E-02	1.137997E-03
3.015603E+03	5.107509E-02	1.160774E-03
3.025589E+03	5.210263E-02	1.182064E-03
3.035574E+03	5.305601E-02	1.201647E-03
3.045560E+03	5.392199E-02	1.219234E-03
3.055545E+03	5.468995E-02	1.234596E-03
3.065530E+03	5.535234E-02	1.247572E-03
3.075516E+03	5.590173E-02	1.258002E-03
3.085501E+03	5.633495E-02	1.265826E-03
3.095487E+03	5.665464E-02	1.271109E-03
3.105472E+03	5.686229E-02	1.273893E-03
3.115458E+03	5.696662E-02	1.274381E-03
3.125443E+03	5.697756E-02	1.272799E-03
3.135429E+03	5.691242E-02	1.269540E-03
3.145414E+03	5.678436E-02	1.264898E-03
3.155399E+03	5.661255E-02	1.259302E-03
3.165385E+03	5.641727E-02	1.253203E-03
3.175370E+03	5.621782E-02	1.247027E-03
3.185356E+03	5.603099E-02	1.241143E-03
3.195341E+03	5.587787E-02	1.236013E-03
3.205327E+03	5.577291E-02	1.231948E-03
3.215312E+03	5.573211E-02	1.229295E-03
3.225298E+03	5.576754E-02	1.228308E-03
3.235283E+03	5.589148E-02	1.229249E-03
3.245268E+03	5.611341E-02	1.232314E-03
3.255254E+03	5.644104E-02	1.237657E-03
3.265239E+03	5.687952E-02	1.245380E-03
3.275225E+03	5.743442E-02	1.255588E-03
3.285210E+03	5.810885E-02	1.268334E-03
3.295196E+03	5.890390E-02	1.283626E-03
3.305181E+03	5.982123E-02	1.301482E-03
3.315166E+03	6.085963E-02	1.321859E-03
3.325152E+03	6.201891E-02	1.344734E-03
3.335137E+03	6.329603E-02	1.370024E-03
3.345123E+03	6.468817E-02	1.397647E-03
3.355108E+03	6.619153E-02	1.427503E-03
3.365094E+03	6.780145E-02	1.459472E-03
3.375079E+03	6.951205E-02	1.493407E-03
3.385065E+03	7.131523E-02	1.529115E-03
3.395050E+03	7.320339E-02	1.566415E-03
3.405035E+03	7.516445E-02	1.605029E-03
3.415021E+03	7.718894E-02	1.644736E-03
3.425006E+03	7.926182E-02	1.685201E-03
3.434992E+03	8.136873E-02	1.726103E-03
3.444977E+03	8.349356E-02	1.767088E-03
3.454963E+03	8.561653E-02	1.807725E-03
3.464948E+03	8.771557E-02	1.847540E-03
3.474934E+03	8.975756E-02	1.885833E-03
3.484919E+03	9.169492E-02	1.921606E-03
3.494904E+03	9.347063E-02	1.953676E-03
3.504890E+03	9.502106E-02	1.980733E-03
3.514875E+03	9.628245E-02	2.001480E-03
3.524861E+03	9.718650E-02	2.014542E-03
3.534846E+03	9.767512E-02	2.018775E-03
3.544832E+03	9.769753E-02	2.013201E-03
3.554817E+03	9.721780E-02	1.997166E-03
3.564803E+03	9.621706E-02	1.970376E-03
3.574788E+03	9.470230E-02	1.933079E-03
3.584773E+03	9.270919E-02	1.886105E-03
3.594759E+03	9.029505E-02	1.830721E-03
3.604744E+03	8.754511E-02	1.768745E-03
3.614730E+03	8.456094E-02	1.702306E-03
3.624715E+03	8.145312E-02	1.633685E-03
3.634701E+03	7.833461E-02	1.565180E-03
3.644686E+03	7.531311E-02	1.498952E-03
3.654671E+03	7.248196E-02	1.436843E-03
3.664657E+03	6.991805E-02	1.380338E-03
3.674642E+03	6.767418E-02	1.330423E-03
3.684628E+03	6.578664E-02	1.287740E-03
3.694613E+03	6.427377E-02	1.252565E-03
3.704599E+03	6.313942E-02	1.224883E-03
3.714584E+03	6.237548E-02	1.204443E-03
3.724570E+03	6.196860E-02	1.190891E-03
3.734555E+03	6.190018E-02	1.183776E-03
3.744540E+03	6.215018E-02	1.182622E-03
3.754526E+03	6.269839E-02	1.186954E-03
3.764511E+03	6.352639E-02	1.196335E-03
3.774497E+03	6.461711E-02	1.210358E-03
3.784482E+03	6.595527E-02	1.228654E-03
3.794468E+03	6.752873E-02	1.250917E-03
3.804453E+03	6.932168E-02	1.276773E-03
3.814439E+03	7.131683E-02	1.305827E-03
3.824424E+03	7.348930E-02	1.337554E-03
3.834409E+03	7.580434E-02	1.371257E-03
3.844395E+03	7.822099E-02	1.406142E-03
3.854380E+03	8.069100E-02	1.441304E-03
3.864366E+03	8.315891E-02	1.475729E-03
3.874351E+03	8.556539E-02	1.508366E-03
3.884337E+03	8.784912E-02	1.538153E-03
3.894322E+03	8.995277E-02	1.564132E-03
3.904308E+03	9.182573E-02	1.585487E-03
3.914293E+03	9.342943E-02	1.601640E-03
3.924278E+03	9.473943E-02	1.612273E-03
3.934264E+03	9.574723E-02	1.617351E-03
3.944249E+03	9.646199E-02	1.617145E-03
3.954235E+03	9.690600E-02	1.612141E-03
3.964220E+03	9.711029E-02	1.602961E-03
3.974206E+03	9.711390E-02	1.590343E-03
3.984191E+03	9.695481E-02	1.574991E-03
3.994176E+03	9.666924E-02	1.557560E-03
4.004162E+03	9.628443E-02	1.538545E-03
4.014147E+03	9.581548E-02	1.518235E-03
4.024133E+03	9.526350E-02	1.496690E-03
4.034118E+03	9.460789E-02	1.473634E-03
4.044104E+03	9.381760E-02	1.448640E-03
4.054089E+03	9.285866E-02	1.421254E-03
4.064075E+03	9.170150E-02	1.391107E-03
4.074060E+03	9.032502E-02	1.357974E-03
4.084045E+03	8.872127E-02	1.321838E-03
4.094031E+03	8.689459E-02	1.282865E-03
4.104016E+03	8.486222E-02	1.241410E-03
4.114002E+03	8.265155E-02	1.197961E-03
4.123987E+03	8.029360E-02	1.153045E-03
4.133973E+03	7.782608E-02	1.107266E-03
4.143958E+03	7.528855E-02	1.061230E-03
4.153944E+03	7.272219E-02	1.015544E-03
4.163929E+03	7.016858E-02	9.707997E-04
4.173914E+03	6.766958E-02	9.275669E-04
4.183900E+03	6.526675E-02	8.863899E-04
4.193885E+03	6.300042E-02	8.477748E-04
4.203871E+03	6.090851E-02	8.121756E-04
4.213856E+03	5.902606E-02	7.799900E-04
4.223842E+03	5.738278E-02	7.515307E-04
4.233827E+03	5.600129E-02	7.270064E-04
4.243813E+03	5.489568E-02	7.065090E-04
4.253798E+03	5.407101E-02	6.900121E-04
4.263783E+03	5.352184E-02	6.773594E-04
4.273769E+03	5.323310E-02	6.682808E-04
4.283754E+03	5.317922E-02	6.623866E-04
4.293740E+03	5.332390E-02	6.591702E-04
4.303725E+03	5.361939E-02	6.580024E-04
4.313711E+03	5.400994E-02	6.581775E-04
4.323696E+03	5.444035E-02	6.590183E-04
4.333681E+03	5.485704E-02	6.598868E-04
4.343667E+03	5.521694E-02	6.602871E-04
4.353652E+03	5.548949E-02	6.598826E-04
4.363638E+03	5.566395E-02	6.585771E-04
4.373623E+03	5.575115E-02	6.565274E-04
4.383609E+03	5.577928E-02	6.540880E-04
4.393594E+03	5.578702E-02	6.517221E-04
4.403580E+03	5.581865E-02	6.499366E-04
4.413565E+03	5.591371E-02	6.491748E-04
4.423550E+03	5.610193E-02	6.497618E-04
4.433536E+03	5.640425E-02	6.519193E-04
4.443521E+03	5.683199E-02	6.557587E-04
4.453507E+03	5.738866E-02	6.613027E-04
4.463492E+03	5.807006E-02	6.684874E-04
4.473478E+03	5.885606E-02	6.770680E-04
4.483463E+03	5.969263E-02	6.864117E-04
4.493449E+03	6.050597E-02	6.956602E-04
4.503434E+03	6.122751E-02	7.040145E-04
4.513419E+03	6.180597E-02	7.108730E-04
4.523405E+03	6.220723E-02	7.158280E-04
4.533390E+03	6.240928E-02	7.186082E-04
4.543376E+03	6.239882E-02	7.190402E-04
4.553361E+03	6.216944E-02	7.170276E-04
4.563347E+03	6.172137E-02	7.125493E-04
4.573332E+03	6.106263E-02	7.056737E-04
4.583318E+03	6.020766E-02	6.965436E-04
4.593303E+03	5.918333E-02	6.854476E-04
4.603288E+03	5.802955E-02	6.728273E-04
4.613274E+03	5.679477E-02	6.592274E-04
4.623259E+03	5.553046E-02	6.452314E-04
4.633245E+03	5.429115E-02	6.314626E-04
4.643230E+03	5.312177E-02	6.184367E-04
4.653216E+03	5.205765E-02	6.065605E-04
4.663201E+03	5.111619E-02	5.960339E-04
4.673186E+03	5.030149E-02	5.869023E-04
4.683172E+03	4.960818E-02	5.791011E-04
4.693157E+03	4.902326E-02	5.724762E-04
4.703143E+03	4.852959E-02	5.668243E-04
4.713128E+03	4.810470E-02	5.618796E-04
4.723114E+03	4.772308E-02	5.573404E-04
4.733099E+03	4.735748E-02	5.528852E-04
4.743085E+03	4.697765E-02	5.481576E-04
4.753070E+03	4.655500E-02	5.428223E-04
4.763055E+03	4.606078E-02	5.365440E-04
4.773041E+03	4.547543E-02	5.290970E-04
4.783026E+03	4.478796E-02	5.203585E-04
4.793012E+03	4.399778E-02	5.103287E-04
4.802997E+03	4.311733E-02	4.991612E-04
4.812983E+03	4.216994E-02	4.871366E-04
4.822968E+03	4.118502E-02	4.746045E-04
4.832954E+03	4.019561E-02	4.619551E-04
4.842939E+03	3.923300E-02	4.495543E-04
4.852924E+03	3.832445E-02	4.377186E-04
4.862910E+03	3.749189E-02	4.266986E-04
4.872895E+03	3.675059E-02	4.166655E-04
4.882881E+03	3.610940E-02	4.077138E-04
4.892866E+03	3.557355E-02	3.998942E-04
4.902852E+03	3.514367E-02	3.932032E-04
4.912837E+03	3.481974E-02	3.876279E-04
4.922823E+03	3.460112E-02	3.831472E-04
4.932808E+03	3.448722E-02	3.797386E-04
4.942793E+03	3.447870E-02	3.773920E-04
4.952779E+03	3.457563E-02	3.760887E-04
4.962764E+03	3.477817E-02	3.758096E-04
4.972750E+03	3.508477E-02	3.765154E-04
4.982735E+03	3.549224E-02	3.781484E-04
4.992721E+03	3.599393E-02	3.806140E-04
5.002706E+03	3.658106E-02	3.837959E-04
5.012691E+03	3.723971E-02	3.875266E-04
5.022677E+03	3.795257E-02	3.916074E-04
5.032662E+03	3.869952E-02	3.958170E-04
5.042648E+03	3.945808E-02	3.999174E-04
5.052633E+03	4.020588E-02	4.036803E-04
5.062619E+03	4.092106E-02	4.068922E-04
5.072604E+03	4.158357E-02	4.093669E-04
5.082590E+03	4.217559E-02	4.109493E-04
5.092575E+03	4.268213E-02	4.115203E-04
5.102560E+03	4.309110E-02	4.109965E-04
5.112546E+03	4.339037E-02	4.093006E-04
5.122531E+03	4.356968E-02	4.063796E-04
5.132517E+03	4.361362E-02	4.021390E-04
5.142502E+03	4.350538E-02	3.964792E-04
5.152488E+03	4.322697E-02	3.892987E-04
5.162473E+03	4.276751E-02	3.805673E-04
5.172459E+03	4.212709E-02	3.703566E-04
5.182444E+03	4.131852E-02	3.588481E-04
5.192429E+03	4.036916E-02	3.463423E-04
5.202415E+03	3.931948E-02	3.332374E-04
5.212400E+03	3.821981E-02	3.199961E-04
5.222386E+03	3.712154E-02	3.070679E-04
5.232371E+03	3.607630E-02	2.948818E-04
5.242357E+03	3.512962E-02	2.837972E-04
5.252342E+03	3.431752E-02	2.740804E-04
5.262328E+03	3.366370E-02	2.658886E-04
5.272313E+03	3.318125E-02	2.592901E-04
5.282298E+03	3.287055E-02	2.542541E-04
5.292284E+03	3.271999E-02	2.506622E-04
5.302269E+03	3.270755E-02	2.483251E-04
5.312255E+03	3.280435E-02	2.470125E-04
5.322240E+03	3.297485E-02	2.464560E-04
5.332226E+03	3.318094E-02	2.463792E-04
5.342211E+03	3.338481E-02	2.465172E-04
5.352196E+03	3.355376E-02	2.466488E-04
5.362182E+03	3.366012E-02	2.465926E-04
5.372167E+03	3.368617E-02	2.462383E-04
5.382153E+03	3.362369E-02	2.455319E-04
5.392138E+03	3.347204E-02	2.444597E-04
5.402124E+03	3.323317E-02	2.430210E-04
5.412109E+03	3.291410E-02	2.412465E-04
5.422095E+03	3.254183E-02	2.393081E-04
5.432080E+03	3.215794E-02	2.374853E-04
5.442065E+03	3.180316E-02	2.360557E-04
5.452051E+03	3.150742E-02	2.352232E-04
5.462036E+03	3.128762E-02	2.351014E-04
5.472022E+03	3.114770E-02	2.357116E-04
5.482007E+03	3.107971E-02	2.369884E-04
5.491993E+03	3.107264E-02	2.388432E-04
5.501978E+03	3.111506E-02	2.411835E-04
5.511964E+03	3.119811E-02	2.439353E-04
5.521949E+03	3.131342E-02	2.470274E-04
5.531934E+03	3.145587E-02	2.504129E-04
5.541920E+03	3.162127E-02	2.540518E-04
5.551905E+03	3.180629E-02	2.579102E-04
5.561891E+03	3.200484E-02	2.619314E-04
5.571876E+03	3.220975E-02	2.660482E-04
5.581862E+03	3.241158E-02	2.701728E-04
5.591847E+03	3.259952E-02	2.742034E-04
5.601833E+03	3.276064E-02	2.780174E-04
5.611818E+03	3.288313E-02	2.814985E-04
5.621803E+03	3.295685E-02	2.845418E-04
5.631789E+03	3.297364E-02	2.870575E-04
5.641774E+03	3.292879E-02	2.889849E-04
5.651760E+03	3.282073E-02	2.902905E-04
5.661745E+03	3.265200E-02	2.909786E-04
5.671731E+03	3.242835E-02	2.910841E-04
5.681716E+03	3.215821E-02	2.906688E-04
5.691701E+03	3.185229E-02	2.898192E-04
5.701687E+03	3.152331E-02	2.886434E-04
5.711672E+03	3.118629E-02	2.872747E-04
5.721658E+03	3.085493E-02	2.858384E-04
5.731643E+03	3.054281E-02	2.844619E-04
5.741629E+03	3.026065E-02	2.832490E-04
5.751614E+03	3.001611E-02	2.822764E-04
5.761600E+03	2.981454E-02	2.816003E-04
5.771585E+03	2.965846E-02	2.812507E-04
5.781570E+03	2.954683E-02	2.812234E-04
5.791556E+03	2.947604E-02	2.814893E-04
5.801541E+03	2.944071E-02	2.820014E-04
5.811527E+03	2.943269E-02	2.826850E-04
5.821512E+03	2.944467E-02	2.834725E-04
5.831498E+03	2.947012E-02	2.843032E-04
5.841483E+03	2.950360E-02	2.851262E-04
5.851469E+03	2.954064E-02	2.859000E-04
5.861454E+03	2.957634E-02	2.865789E-04
5.871439E+03	2.960755E-02	2.871341E-04
5.881425E+03	2.963037E-02	2.875301E-04
5.891410E+03	2.964125E-02	2.877351E-04
5.901396E+03	2.963655E-02	2.877166E-04
5.911381E+03	2.961217E-02	2.874386E-04
5.921367E+03	2.956354E-02	2.868609E-04
5.931352E+03	2.948364E-02	2.859204E-04
5.941338E+03	2.936365E-02	2.845372E-04
5.951323E+03	2.919201E-02	2.826060E-04
5.961308E+03	2.895486E-02	2.800006E-04
5.971294E+03	2.863738E-02	2.765864E-04
5.981279E+03	2.822697E-02	2.722522E-04
5.991265E+03	2.771154E-02	2.668927E-04
6.001250E+03	2.708417E-02	2.604536E-04
6.011236E+03	2.634066E-02	2.529074E-04
6.021221E+03	2.548490E-02	2.443041E-04
6.031207E+03	2.453108E-02	2.347919E-04
6.041192E+03	2.350372E-02	2.246158E-04
6.051177E+03	2.243599E-02	2.141011E-04
6.061163E+03	2.136602E-02	2.036173E-04
6.071148E+03	2.033556E-02	1.935650E-04
6.081134E+03	1.938330E-02	1.843130E-04
6.091119E+03	1.854373E-02	1.761883E-04
6.101105E+03	1.784369E-02	1.694442E-04
6.111090E+03	1.730251E-02	1.642635E-04
6.121075E+03	1.693162E-02	1.607550E-04
6.131061E+03	1.673463E-02	1.589565E-04
6.141046E+03	1.670872E-02	1.588472E-04
6.151032E+03	1.684643E-02	1.603667E-04
6.161017E+03	1.713598E-02	1.634168E-04
6.171003E+03	1.756036E-02	1.678534E-04
6.180988E+03	1.809908E-02	1.735020E-04
6.190974E+03	1.872763E-02	1.801516E-04
6.200959E+03	1.941790E-02	1.875573E-04
6.210944E+03	2.013897E-02	1.954458E-04
6.220930E+03	2.085965E-02	2.035371E-04
6.230915E+03	2.154988E-02	2.115569E-04
6.240901E+03	2.218166E-02	2.192383E-04
6.250886E+03	2.273195E-02	2.263489E-04
6.260872E+03	2.318300E-02	2.326979E-04
6.270857E+03	2.352369E-02	2.381520E-04
6.280843E+03	2.374939E-02	2.426353E-04
6.290828E+03	2.386151E-02	2.461278E-04
6.300813E+03	2.386657E-02	2.486591E-04
6.310799E+03	2.377482E-02	2.502965E-04
6.320784E+03	2.359857E-02	2.511311E-04
6.330770E+03	2.335276E-02	2.512852E-04
6.340755E+03	2.305373E-02	2.509012E-04
6.350741E+03	2.271844E-02	2.501361E-04
6.360726E+03	2.236650E-02	2.491835E-04
6.370712E+03	2.201830E-02	2.482566E-04
6.380697E+03	2.169426E-02	2.475801E-04
6.390682E+03	2.141270E-02	2.473666E-04
6.400668E+03	2.118222E-02	2.477262E-04
6.410653E+03	2.099270E-02	2.485538E-04
6.420639E+03	2.083060E-02	2.496979E-04
6.430624E+03	2.068401E-02	2.510200E-04
6.440610E+03	2.054419E-02	2.524139E-04
6.450595E+03	2.040563E-02	2.538085E-04
6.460580E+03	2.026534E-02	2.551619E-04
6.470566E+03	2.012272E-02	2.564605E-04
6.480551E+03	1.997736E-02	2.576934E-04
6.490537E+03	1.983061E-02	2.588729E-04
6.500522E+03	1.968334E-02	2.600054E-04
6.510508E+03	1.953577E-02	2.610901E-04
6.520493E+03	1.938825E-02	2.621280E-04
6.530479E+03	1.924045E-02	2.631114E-04
6.540464E+03	1.909193E-02	2.640309E-04
6.550449E+03	1.894231E-02	2.648781E-04
6.560435E+03	1.879168E-02	2.656513E-04
6.570420E+03	1.863974E-02	2.663433E-04
6.580406E+03	1.848679E-02	2.669555E-04
6.590391E+03	1.833358E-02	2.674964E-04
6.600377E+03	1.818061E-02	2.679717E-04
6.610362E+03	1.802806E-02	2.683823E-04
6.620348E+03	1.787658E-02	2.687368E-04
6.630333E+03	1.772606E-02	2.690327E-04
6.640318E+03	1.757705E-02	2.692776E-04
6.650304E+03	1.742878E-02	2.694592E-04
6.660289E+03	1.728100E-02	2.695730E-04
6.670275E+03	1.713375E-02	2.696193E-04
6.680260E+03	1.698687E-02	2.695947E-04
6.690246E+03	1.684004E-02	2.694940E-04
6.700231E+03	1.669342E-02	2.693194E-04
6.710217E+03	1.654760E-02	2.690799E-04
6.720202E+03	1.640262E-02	2.687766E-04
6.730187E+03	1.625907E-02	2.684192E-04
6.740173E+03	1.611664E-02	2.680030E-04
6.750158E+03	1.597610E-02	2.675415E-04
6.760144E+03	1.583703E-02	2.670283E-04
6.770129E+03	1.570015E-02	2.664762E-04
6.780115E+03	1.556509E-02	2.658798E-04
6.790100E+03	1.543244E-02	2.652501E-04
6.800085E+03	1.530260E-02	2.645954E-04
6.810071E+03	1.517581E-02	2.639206E-04
6.820056E+03	1.505293E-02	2.632424E-04
6.830042E+03	1.493429E-02	2.625680E-04
6.840027E+03	1.482070E-02	2.619133E-04
6.850013E+03	1.471195E-02	2.612766E-04
6.859998E+03	1.460881E-02	2.606729E-04
6.869984E+03	1.451095E-02	2.600986E-04
6.879969E+03	1.441813E-02	2.595506E-04
6.889954E+03	1.432964E-02	2.590180E-04
6.899940E+03	1.424555E-02	2.585034E-04
6.909925E+03	1.416457E-02	2.579844E-04
6.919911E+03	1.408708E-02	2.574690E-04
6.929896E+03	1.401225E-02	2.569433E-04
6.939882E+03	1.393997E-02	2.564058E-04
6.949867E+03	1.387052E-02	2.558626E-04
6.959853E+03	1.380375E-02	2.553117E-04
6.969838E+03	1.373983E-02	2.547574E-04
6.979823E+03	1.367897E-02	2.542039E-04
6.989809E+03	1.362134E-02	2.536553E-04
6.999794E+03	1.356703E-02	2.531142E-04
7.009780E+03	1.351578E-02	2.525760E-04
7.019765E+03	1.346798E-02	2.520490E-04
7.029751E+03	1.342258E-02	2.515143E-04
7.039736E+03	1.337998E-02	2.509794E-04
7.049722E+03	1.333881E-02	2.504193E-04
7.059707E+03	1.329889E-02	2.498309E-04
7.069692E+03	1.325911E-02	2.491939E-04
7.079678E+03	1.321850E-02	2.484904E-04
7.089663E+03	1.317632E-02	2.477065E-04
7.099649E+03	1.313093E-02	2.468124E-04
7.109634E+03	1.308155E-02	2.457932E-04
7.119620E+03	1.302695E-02	2.446270E-04
7.129605E+03	1.296658E-02	2.433041E-04
7.139590E+03	1.289987E-02	2.418147E-04
7.149576E+03	1.282636E-02	2.401514E-04
7.159561E+03	1.274649E-02	2.383237E-04
7.169547E+03	1.266028E-02	2.363335E-04
7.179532E+03	1.256923E-02	2.342106E-04
7.189518E+03	1.247437E-02	2.319753E-04
7.199503E+03	1.237686E-02	2.296513E-04
7.209489E+03	1.227845E-02	2.272723E-04
7.219474E+03	1.218051E-02	2.248651E-04
7.229459E+03	1.208398E-02	2.224481E-04
7.239445E+03	1.198967E-02	2.200376E-04
7.249430E+03	1.189810E-02	2.176436E-04
7.259416E+03	1.180939E-02	2.152695E-04
7.269401E+03	1.172339E-02	2.129131E-04
7.279387E+03	1.163925E-02	2.105596E-04
7.289372E+03	1.155700E-02	2.082108E-04
7.299358E+03	1.147603E-02	2.058562E-04
7.309343E+03	1.139570E-02	2.034857E-04
7.319328E+03	1.131585E-02	2.010974E-04
7.329314E+03	1.123557E-02	1.986763E-04
7.339299E+03	1.115424E-02	1.962133E-04
7.349285E+03	1.107105E-02	1.936955E-04
7.359270E+03	1.098478E-02	1.911039E-04
7.369256E+03	1.089453E-02	1.884251E-04
7.379241E+03	1.079851E-02	1.856313E-04
7.389227E+03	1.069639E-02	1.827201E-04
7.399212E+03	1.058727E-02	1.796800E-04
7.409197E+03	1.047158E-02	1.765222E-04
7.419183E+03	1.035018E-02	1.732653E-04
7.429168E+03	1.022484E-02	1.699427E-04
7.439154E+03	1.009812E-02	1.665999E-04
7.449139E+03	9.972748E-03	1.632840E-04
7.459125E+03	9.852458E-03	1.600574E-04
7.469110E+03	9.739680E-03	1.569590E-04
7.479095E+03	9.637330E-03	1.540346E-04
7.489081E+03	9.547065E-03	1.513081E-04
7.499066E+03	9.470569E-03	1.488030E-04
7.509052E+03	9.407895E-03	1.465162E-04
7.519037E+03	9.358550E-03	1.444361E-04
7.529023E+03	9.321672E-03	1.425457E-04
7.539008E+03	9.295896E-03	1.408208E-04
7.548994E+03	9.279979E-03	1.392396E-04
7.558979E+03	9.271810E-03	1.377684E-04
7.568964E+03	9.270114E-03	1.363870E-04
7.578950E+03	9.273760E-03	1.350781E-04
7.588935E+03	9.281422E-03	1.338222E-04
7.598921E+03	9.292590E-03	1.326127E-04
7.608906E+03	9.306567E-03	1.314404E-04
7.618892E+03	9.323448E-03	1.303082E-04
7.628877E+03	9.342762E-03	1.292108E-04
7.638863E+03	9.364954E-03	1.281562E-04
7.648848E+03	9.389690E-03	1.271419E-04
7.658833E+03	9.417621E-03	1.261787E-04
7.668819E+03	9.448374E-03	1.252639E-04
7.678804E+03	9.482088E-03	1.244019E-04
7.688790E+03	9.517982E-03	1.235856E-04
7.698775E+03	9.554971E-03	1.228042E-04
7.708761E+03	9.591426E-03	1.220414E-04
7.718746E+03	9.625408E-03	1.212778E-04
7.728732E+03	9.654641E-03	1.204908E-04
7.738717E+03	9.676467E-03	1.196547E-04
7.748702E+03	9.689074E-03	1.187550E-04
