#wls	flux	fluxerr
1.597671E+03	8.968888E-03	5.071365E-04
1.637612E+03	7.802042E-03	4.307259E-04
1.677554E+03	6.722776E-03	3.620891E-04
1.717496E+03	5.734919E-03	3.011124E-04
1.757438E+03	4.841005E-03	2.475859E-04
1.797379E+03	4.041801E-03	2.011887E-04
1.837321E+03	3.334726E-03	1.614257E-04
1.877263E+03	2.717185E-03	1.278084E-04
1.917205E+03	2.183956E-03	9.973705E-05
1.957146E+03	1.728644E-03	7.658407E-05
1.997088E+03	1.343908E-03	5.771359E-05
2.037030E+03	1.022622E-03	4.253692E-05
2.076972E+03	7.592667E-04	3.056832E-05
2.116914E+03	5.541819E-04	2.158057E-05
2.156855E+03	4.124914E-04	1.552734E-05
2.196797E+03	3.273878E-04	1.190678E-05
2.236739E+03	2.881608E-04	1.012150E-05
2.276681E+03	2.891916E-04	9.807608E-06
2.316622E+03	3.331283E-04	1.090739E-05
2.356564E+03	4.349009E-04	1.374939E-05
2.396506E+03	6.295598E-04	1.922509E-05
2.436448E+03	9.837514E-04	2.903517E-05
2.476389E+03	1.610077E-03	4.597130E-05
2.516331E+03	2.670570E-03	7.384211E-05
2.556273E+03	4.333415E-03	1.161553E-04
2.596215E+03	6.628611E-03	1.724116E-04
2.636156E+03	9.262948E-03	2.340046E-04
2.676098E+03	1.182099E-02	2.902836E-04
2.716040E+03	1.411033E-02	3.370741E-04
2.755982E+03	1.617600E-02	3.761586E-04
2.795924E+03	1.824891E-02	4.133451E-04
2.835865E+03	2.059717E-02	4.546776E-04
2.875807E+03	2.335395E-02	5.027054E-04
2.915749E+03	2.656481E-02	5.579068E-04
2.955691E+03	3.021456E-02	6.195018E-04
2.995632E+03	3.410951E-02	6.832638E-04
3.005618E+03	3.507040E-02	6.985251E-04
3.015603E+03	3.600411E-02	7.130936E-04
3.025589E+03	3.689752E-02	7.267270E-04
3.035574E+03	3.773857E-02	7.392084E-04
3.045560E+03	3.851247E-02	7.502732E-04
3.055545E+03	3.920535E-02	7.596802E-04
3.065530E+03	3.980547E-02	7.672342E-04
3.075516E+03	4.030213E-02	7.727604E-04
3.085501E+03	4.068792E-02	7.761490E-04
3.095487E+03	4.096079E-02	7.773928E-04
3.105472E+03	4.112072E-02	7.765233E-04
3.115458E+03	4.117444E-02	7.736974E-04
3.125443E+03	4.113121E-02	7.691159E-04
3.135429E+03	4.100910E-02	7.631391E-04
3.145414E+03	4.082448E-02	7.560890E-04
3.155399E+03	4.059835E-02	7.483664E-04
3.165385E+03	4.035268E-02	7.403825E-04
3.175370E+03	4.010864E-02	7.325265E-04
3.185356E+03	3.988455E-02	7.251286E-04
3.195341E+03	3.970027E-02	7.185409E-04
3.205327E+03	3.957018E-02	7.130114E-04
3.215312E+03	3.950872E-02	7.087844E-04
3.225298E+03	3.952576E-02	7.060190E-04
3.235283E+03	3.963074E-02	7.048645E-04
3.245268E+03	3.983100E-02	7.054307E-04
3.255254E+03	4.013187E-02	7.077904E-04
3.265239E+03	4.053686E-02	7.119844E-04
3.275225E+03	4.104994E-02	7.180608E-04
3.285210E+03	4.167262E-02	7.260252E-04
3.295196E+03	4.240471E-02	7.358538E-04
3.305181E+03	4.324640E-02	7.475310E-04
3.315166E+03	4.419486E-02	7.609898E-04
3.325152E+03	4.524766E-02	7.761719E-04
3.335137E+03	4.640112E-02	7.929997E-04
3.345123E+03	4.765317E-02	8.114249E-04
3.355108E+03	4.900215E-02	8.314079E-04
3.365094E+03	5.044647E-02	8.529118E-04
3.375079E+03	5.198486E-02	8.759065E-04
3.385065E+03	5.361464E-02	9.003401E-04
3.395050E+03	5.533172E-02	9.261391E-04
3.405035E+03	5.712492E-02	9.531134E-04
3.415021E+03	5.898186E-02	9.810570E-04
3.425006E+03	6.088438E-02	1.009672E-03
3.434992E+03	6.281466E-02	1.038669E-03
3.444977E+03	6.475248E-02	1.067727E-03
3.454963E+03	6.667718E-02	1.096518E-03
3.464948E+03	6.857369E-02	1.124812E-03
3.474934E+03	7.041637E-02	1.152209E-03
3.484919E+03	7.214882E-02	1.177809E-03
3.494904E+03	7.370967E-02	1.200641E-03
3.504890E+03	7.503433E-02	1.219677E-03
3.514875E+03	7.605762E-02	1.233878E-03
3.524861E+03	7.671444E-02	1.242212E-03
3.534846E+03	7.694704E-02	1.243768E-03
3.544832E+03	7.670701E-02	1.237786E-03
3.554817E+03	7.596985E-02	1.223897E-03
3.564803E+03	7.472878E-02	1.202013E-03
3.574788E+03	7.300290E-02	1.172464E-03
3.584773E+03	7.084752E-02	1.136154E-03
3.594759E+03	6.833645E-02	1.094281E-03
3.604744E+03	6.556411E-02	1.048364E-03
3.614730E+03	6.264286E-02	1.000202E-03
3.624715E+03	5.968598E-02	9.516022E-04
3.634701E+03	5.679886E-02	9.042350E-04
3.644686E+03	5.407916E-02	8.596418E-04
3.654671E+03	5.160579E-02	8.190585E-04
3.664657E+03	4.943676E-02	7.833827E-04
3.674642E+03	4.760720E-02	7.531450E-04
3.684628E+03	4.613729E-02	7.286357E-04
3.694613E+03	4.503175E-02	7.098981E-04
3.704599E+03	4.428270E-02	6.967753E-04
3.714584E+03	4.387379E-02	6.889759E-04
3.724570E+03	4.378597E-02	6.861664E-04
3.734555E+03	4.399708E-02	6.879639E-04
3.744540E+03	4.448399E-02	6.939709E-04
3.754526E+03	4.522357E-02	7.037902E-04
3.764511E+03	4.619453E-02	7.170542E-04
3.774497E+03	4.737549E-02	7.333935E-04
3.784482E+03	4.874625E-02	7.524589E-04
3.794468E+03	5.029169E-02	7.739793E-04
3.804453E+03	5.199403E-02	7.976437E-04
3.814439E+03	5.383474E-02	8.231307E-04
3.824424E+03	5.579261E-02	8.500794E-04
3.834409E+03	5.783939E-02	8.780251E-04
3.844395E+03	5.994098E-02	9.064188E-04
3.854380E+03	6.205742E-02	9.346314E-04
3.864366E+03	6.414190E-02	9.619395E-04
3.874351E+03	6.614378E-02	9.875754E-04
3.884337E+03	6.801268E-02	1.010790E-03
3.894322E+03	6.970150E-02	1.030899E-03
3.904308E+03	7.116924E-02	1.047324E-03
3.914293E+03	7.238785E-02	1.059693E-03
3.924278E+03	7.334162E-02	1.067825E-03
3.934264E+03	7.402795E-02	1.071740E-03
3.944249E+03	7.446158E-02	1.071713E-03
3.954235E+03	7.466769E-02	1.068169E-03
3.964220E+03	7.467809E-02	1.061620E-03
3.974206E+03	7.453285E-02	1.052689E-03
3.984191E+03	7.427019E-02	1.041961E-03
3.994176E+03	7.392354E-02	1.029943E-03
4.004162E+03	7.351650E-02	1.016994E-03
4.014147E+03	7.306029E-02	1.003296E-03
4.024133E+03	7.255421E-02	9.888636E-04
4.034118E+03	7.198113E-02	9.734923E-04
4.044104E+03	7.131550E-02	9.568724E-04
4.054089E+03	7.052901E-02	9.386699E-04
4.064075E+03	6.959723E-02	9.186156E-04
4.074060E+03	6.850197E-02	8.965344E-04
4.084045E+03	6.723479E-02	8.723869E-04
4.094031E+03	6.579825E-02	8.462806E-04
4.104016E+03	6.420489E-02	8.184499E-04
4.114002E+03	6.247495E-02	7.892208E-04
4.123987E+03	6.063236E-02	7.589564E-04
4.133973E+03	5.870604E-02	7.280700E-04
4.143958E+03	5.672622E-02	6.969769E-04
4.153944E+03	5.472491E-02	6.660988E-04
4.163929E+03	5.273407E-02	6.358409E-04
4.173914E+03	5.078594E-02	6.065954E-04
4.183900E+03	4.891340E-02	5.787464E-04
4.193885E+03	4.714802E-02	5.526463E-04
4.203871E+03	4.551871E-02	5.286023E-04
4.213856E+03	4.405206E-02	5.068819E-04
4.223842E+03	4.276994E-02	4.876881E-04
4.233827E+03	4.168802E-02	4.711458E-04
4.243813E+03	4.081513E-02	4.572994E-04
4.253798E+03	4.015278E-02	4.461113E-04
4.263783E+03	3.969431E-02	4.374573E-04
4.273769E+03	3.942546E-02	4.311368E-04
4.283754E+03	3.932415E-02	4.268740E-04
4.293740E+03	3.936063E-02	4.243221E-04
4.303725E+03	3.949698E-02	4.230592E-04
4.313711E+03	3.969052E-02	4.226269E-04
4.323696E+03	3.989988E-02	4.225943E-04
4.333681E+03	4.008655E-02	4.225709E-04
4.343667E+03	4.022127E-02	4.222702E-04
4.353652E+03	4.028563E-02	4.215221E-04
4.363638E+03	4.027694E-02	4.203196E-04
4.373623E+03	4.020907E-02	4.188244E-04
4.383609E+03	4.010715E-02	4.173076E-04
4.393594E+03	4.000165E-02	4.160768E-04
4.403580E+03	3.992514E-02	4.154527E-04
4.413565E+03	3.990413E-02	4.156928E-04
4.423550E+03	3.995474E-02	4.169492E-04
4.433536E+03	4.008541E-02	4.192969E-04
4.443521E+03	4.029726E-02	4.227372E-04
4.453507E+03	4.058447E-02	4.272004E-04
4.463492E+03	4.093557E-02	4.325585E-04
4.473478E+03	4.133254E-02	4.386133E-04
4.483463E+03	4.174491E-02	4.450316E-04
4.493449E+03	4.213631E-02	4.514107E-04
4.503434E+03	4.247413E-02	4.573808E-04
4.513419E+03	4.273448E-02	4.626577E-04
4.523405E+03	4.290247E-02	4.670489E-04
4.533390E+03	4.296839E-02	4.704140E-04
4.543376E+03	4.292460E-02	4.726326E-04
4.553361E+03	4.276626E-02	4.736128E-04
4.563347E+03	4.249224E-02	4.733036E-04
4.573332E+03	4.210528E-02	4.716973E-04
4.583318E+03	4.161222E-02	4.688341E-04
4.593303E+03	4.102860E-02	4.648566E-04
4.603288E+03	4.037797E-02	4.600038E-04
4.613274E+03	3.968946E-02	4.545864E-04
4.623259E+03	3.899449E-02	4.489504E-04
4.633245E+03	3.832682E-02	4.434779E-04
4.643230E+03	3.771416E-02	4.384895E-04
4.653216E+03	3.717792E-02	4.342393E-04
4.663201E+03	3.672648E-02	4.308329E-04
4.673186E+03	3.635918E-02	4.282709E-04
4.683172E+03	3.606943E-02	4.264832E-04
4.693157E+03	3.584533E-02	4.253346E-04
4.703143E+03	3.567238E-02	4.246566E-04
4.713128E+03	3.553250E-02	4.242349E-04
4.723114E+03	3.540507E-02	4.238222E-04
4.733099E+03	3.526859E-02	4.231576E-04
4.743085E+03	3.509992E-02	4.219593E-04
4.753070E+03	3.487729E-02	4.199603E-04
4.763055E+03	3.457959E-02	4.169018E-04
4.773041E+03	3.419359E-02	4.126208E-04
4.783026E+03	3.371322E-02	4.070431E-04
4.793012E+03	3.314057E-02	4.001954E-04
4.802997E+03	3.248793E-02	3.922306E-04
4.812983E+03	3.177584E-02	3.834040E-04
4.822968E+03	3.102946E-02	3.740283E-04
4.832954E+03	3.027695E-02	3.644526E-04
4.842939E+03	2.954512E-02	3.550088E-04
4.852924E+03	2.885776E-02	3.459901E-04
4.862910E+03	2.823378E-02	3.376287E-04
4.872895E+03	2.768571E-02	3.300762E-04
4.882881E+03	2.722038E-02	3.234135E-04
4.892866E+03	2.684149E-02	3.176807E-04
4.902852E+03	2.654851E-02	3.128657E-04
4.912837E+03	2.634018E-02	3.089449E-04
4.922823E+03	2.621451E-02	3.058848E-04
4.932808E+03	2.616902E-02	3.036439E-04
4.942793E+03	2.620197E-02	3.021883E-04
4.952779E+03	2.631079E-02	3.014728E-04
4.962764E+03	2.649217E-02	3.014424E-04
4.972750E+03	2.674124E-02	3.020240E-04
4.982735E+03	2.705202E-02	3.031321E-04
4.992721E+03	2.741591E-02	3.046526E-04
5.002706E+03	2.782336E-02	3.064632E-04
5.012691E+03	2.826187E-02	3.084125E-04
5.022677E+03	2.871717E-02	3.103343E-04
5.032662E+03	2.917457E-02	3.120644E-04
5.042648E+03	2.961962E-02	3.134476E-04
5.052633E+03	3.003934E-02	3.143520E-04
5.062619E+03	3.042317E-02	3.146777E-04
5.072604E+03	3.076319E-02	3.143584E-04
5.082590E+03	3.105312E-02	3.133501E-04
5.092575E+03	3.128917E-02	3.116382E-04
5.102560E+03	3.146918E-02	3.092282E-04
5.112546E+03	3.158951E-02	3.061141E-04
5.122531E+03	3.164676E-02	3.022956E-04
5.132517E+03	3.163313E-02	2.977349E-04
5.142502E+03	3.153836E-02	2.923771E-04
5.152488E+03	3.135033E-02	2.861578E-04
5.162473E+03	3.106036E-02	2.790516E-04
5.172459E+03	3.066520E-02	2.710873E-04
5.182444E+03	3.016918E-02	2.623620E-04
5.192429E+03	2.958670E-02	2.530567E-04
5.202415E+03	2.894138E-02	2.434214E-04
5.212400E+03	2.826420E-02	2.337529E-04
5.222386E+03	2.758719E-02	2.243384E-04
5.232371E+03	2.694280E-02	2.154501E-04
5.242357E+03	2.635975E-02	2.073129E-04
5.252342E+03	2.586009E-02	2.000857E-04
5.262328E+03	2.545658E-02	1.938469E-04
5.272313E+03	2.515484E-02	1.886172E-04
5.282298E+03	2.495201E-02	1.843555E-04
5.292284E+03	2.483702E-02	1.809658E-04
5.302269E+03	2.479300E-02	1.783191E-04
5.312255E+03	2.480091E-02	1.762808E-04
5.322240E+03	2.483981E-02	1.747128E-04
5.332226E+03	2.489025E-02	1.734953E-04
5.342211E+03	2.493486E-02	1.725281E-04
5.352196E+03	2.495941E-02	1.717356E-04
5.362182E+03	2.495284E-02	1.710626E-04
5.372167E+03	2.490971E-02	1.704865E-04
5.382153E+03	2.482791E-02	1.699885E-04
5.392138E+03	2.470802E-02	1.695590E-04
5.402124E+03	2.455069E-02	1.691833E-04
5.412109E+03	2.435685E-02	1.688414E-04
5.422095E+03	2.413617E-02	1.685688E-04
5.432080E+03	2.390510E-02	1.684485E-04
5.442065E+03	2.368140E-02	1.685761E-04
5.452051E+03	2.347803E-02	1.690183E-04
5.462036E+03	2.330243E-02	1.698078E-04
5.472022E+03	2.315670E-02	1.709421E-04
5.482007E+03	2.303761E-02	1.723824E-04
5.491993E+03	2.294186E-02	1.740901E-04
5.501978E+03	2.286696E-02	1.760334E-04
5.511964E+03	2.281236E-02	1.781962E-04
5.521949E+03	2.277728E-02	1.805621E-04
5.531934E+03	2.276247E-02	1.831281E-04
5.541920E+03	2.276805E-02	1.858875E-04
5.551905E+03	2.279372E-02	1.888316E-04
5.561891E+03	2.283674E-02	1.919317E-04
5.571876E+03	2.289299E-02	1.951474E-04
5.581862E+03	2.295615E-02	1.984177E-04
5.591847E+03	2.301853E-02	2.016674E-04
5.601833E+03	2.307071E-02	2.048031E-04
5.611818E+03	2.310398E-02	2.077339E-04
5.621803E+03	2.311081E-02	2.103766E-04
5.631789E+03	2.308513E-02	2.126592E-04
5.641774E+03	2.302336E-02	2.145313E-04
5.651760E+03	2.292430E-02	2.159645E-04
5.661745E+03	2.278979E-02	2.169604E-04
5.671731E+03	2.262405E-02	2.175456E-04
5.681716E+03	2.243351E-02	2.177708E-04
5.691701E+03	2.222630E-02	2.177071E-04
5.701687E+03	2.201140E-02	2.174380E-04
5.711672E+03	2.179847E-02	2.170571E-04
5.721658E+03	2.159597E-02	2.166501E-04
5.731643E+03	2.141213E-02	2.163027E-04
5.741629E+03	2.125278E-02	2.160785E-04
5.751614E+03	2.112175E-02	2.160222E-04
5.761600E+03	2.102149E-02	2.161644E-04
5.771585E+03	2.095228E-02	2.165135E-04
5.781570E+03	2.091204E-02	2.170527E-04
5.791556E+03	2.089693E-02	2.177462E-04
5.801541E+03	2.090151E-02	2.185398E-04
5.811527E+03	2.091823E-02	2.193564E-04
5.821512E+03	2.094029E-02	2.201255E-04
5.831498E+03	2.096137E-02	2.207811E-04
5.841483E+03	2.097605E-02	2.212664E-04
5.851469E+03	2.098038E-02	2.215400E-04
5.861454E+03	2.097110E-02	2.215682E-04
5.871439E+03	2.094693E-02	2.213392E-04
5.881425E+03	2.090693E-02	2.208448E-04
5.891410E+03	2.085155E-02	2.200927E-04
5.901396E+03	2.078170E-02	2.190957E-04
5.911381E+03	2.069807E-02	2.178654E-04
5.921367E+03	2.060102E-02	2.164103E-04
5.931352E+03	2.048929E-02	2.147224E-04
5.941338E+03	2.036077E-02	2.127854E-04
5.951323E+03	2.021210E-02	2.105715E-04
5.961308E+03	2.003860E-02	2.080397E-04
5.971294E+03	1.983437E-02	2.051378E-04
5.981279E+03	1.959396E-02	2.018202E-04
5.991265E+03	1.931117E-02	1.980353E-04
6.001250E+03	1.898224E-02	1.937581E-04
6.011236E+03	1.860383E-02	1.889695E-04
6.021221E+03	1.817650E-02	1.836910E-04
6.031207E+03	1.770564E-02	1.779927E-04
6.041192E+03	1.720136E-02	1.719914E-04
6.051177E+03	1.667861E-02	1.658495E-04
6.061163E+03	1.615571E-02	1.597591E-04
6.071148E+03	1.565411E-02	1.539387E-04
6.081134E+03	1.519459E-02	1.485950E-04
6.091119E+03	1.479695E-02	1.439202E-04
6.101105E+03	1.447712E-02	1.400648E-04
6.111090E+03	1.424705E-02	1.371382E-04
6.121075E+03	1.411382E-02	1.352013E-04
6.131061E+03	1.407883E-02	1.342616E-04
6.141046E+03	1.413858E-02	1.342813E-04
6.151032E+03	1.428629E-02	1.351951E-04
6.161017E+03	1.451223E-02	1.369137E-04
6.171003E+03	1.480329E-02	1.393200E-04
6.180988E+03	1.514477E-02	1.422870E-04
6.190974E+03	1.552028E-02	1.456751E-04
6.200959E+03	1.591242E-02	1.493389E-04
6.210944E+03	1.630343E-02	1.531314E-04
6.220930E+03	1.667675E-02	1.569168E-04
6.230915E+03	1.701776E-02	1.605771E-04
6.240901E+03	1.731393E-02	1.640106E-04
6.250886E+03	1.755631E-02	1.671454E-04
6.260872E+03	1.773907E-02	1.699334E-04
6.270857E+03	1.786016E-02	1.723495E-04
6.280843E+03	1.792082E-02	1.743903E-04
6.290828E+03	1.792494E-02	1.760739E-04
6.300813E+03	1.787828E-02	1.774342E-04
6.310799E+03	1.778761E-02	1.785139E-04
6.320784E+03	1.765965E-02	1.793551E-04
6.330770E+03	1.750186E-02	1.800089E-04
6.340755E+03	1.732219E-02	1.805334E-04
6.350741E+03	1.712872E-02	1.809920E-04
6.360726E+03	1.693149E-02	1.814727E-04
6.370712E+03	1.674162E-02	1.820822E-04
6.380697E+03	1.657094E-02	1.829424E-04
6.390682E+03	1.643052E-02	1.841755E-04
6.400668E+03	1.632513E-02	1.858409E-04
6.410653E+03	1.624611E-02	1.878477E-04
6.420639E+03	1.618273E-02	1.900753E-04
6.430624E+03	1.612563E-02	1.924128E-04
6.440610E+03	1.606808E-02	1.947748E-04
6.450595E+03	1.600616E-02	1.971057E-04
6.460580E+03	1.593824E-02	1.993757E-04
6.470566E+03	1.586471E-02	2.015801E-04
6.480551E+03	1.578604E-02	2.037157E-04
6.490537E+03	1.570395E-02	2.057959E-04
6.500522E+03	1.561956E-02	2.078286E-04
6.510508E+03	1.553342E-02	2.098148E-04
6.520493E+03	1.544604E-02	2.117558E-04
6.530479E+03	1.535735E-02	2.136453E-04
6.540464E+03	1.526713E-02	2.154754E-04
6.550449E+03	1.517518E-02	2.172390E-04
6.560435E+03	1.508168E-02	2.189338E-04
6.570420E+03	1.498651E-02	2.205540E-04
6.580406E+03	1.489003E-02	2.221011E-04
6.590391E+03	1.479299E-02	2.235831E-04
6.600377E+03	1.469592E-02	2.250050E-04
6.610362E+03	1.459896E-02	2.263668E-04
6.620348E+03	1.450261E-02	2.276746E-04
6.630333E+03	1.440668E-02	2.289236E-04
6.640318E+03	1.431143E-02	2.301168E-04
6.650304E+03	1.421604E-02	2.312393E-04
6.660289E+03	1.412009E-02	2.322832E-04
6.670275E+03	1.402347E-02	2.332449E-04
6.680260E+03	1.392591E-02	2.341185E-04
6.690246E+03	1.382707E-02	2.348967E-04
6.700231E+03	1.372705E-02	2.355798E-04
6.710217E+03	1.362632E-02	2.361748E-04
6.720202E+03	1.352497E-02	2.366820E-04
6.730187E+03	1.342350E-02	2.371099E-04
6.740173E+03	1.332174E-02	2.374550E-04
6.750158E+03	1.322043E-02	2.377299E-04
6.760144E+03	1.311927E-02	2.379297E-04
6.770129E+03	1.301894E-02	2.380667E-04
6.780115E+03	1.291926E-02	2.381376E-04
6.790100E+03	1.282076E-02	2.381532E-04
6.800085E+03	1.272384E-02	2.381213E-04
6.810071E+03	1.262874E-02	2.380474E-04
6.820056E+03	1.253612E-02	2.379449E-04
6.830042E+03	1.244615E-02	2.378186E-04
6.840027E+03	1.235944E-02	2.376811E-04
6.850013E+03	1.227570E-02	2.375286E-04
6.859998E+03	1.219545E-02	2.373725E-04
6.869984E+03	1.211834E-02	2.372077E-04
6.879969E+03	1.204406E-02	2.370292E-04
6.889954E+03	1.197198E-02	2.368260E-04
6.899940E+03	1.190222E-02	2.366016E-04
6.909925E+03	1.183385E-02	2.363382E-04
6.919911E+03	1.176745E-02	2.360483E-04
6.929896E+03	1.170264E-02	2.357254E-04
6.939882E+03	1.163958E-02	2.353735E-04
6.949867E+03	1.157879E-02	2.350037E-04
6.959853E+03	1.152038E-02	2.346194E-04
6.969838E+03	1.146465E-02	2.342274E-04
6.979823E+03	1.141185E-02	2.338344E-04
6.989809E+03	1.136223E-02	2.334456E-04
6.999794E+03	1.131583E-02	2.330636E-04
7.009780E+03	1.127245E-02	2.326844E-04
7.019765E+03	1.123241E-02	2.323157E-04
7.029751E+03	1.119476E-02	2.319386E-04
7.039736E+03	1.115978E-02	2.315593E-04
7.049722E+03	1.112631E-02	2.311544E-04
7.059707E+03	1.109410E-02	2.307190E-04
7.069692E+03	1.106215E-02	2.302327E-04
7.079678E+03	1.102969E-02	2.296797E-04
7.089663E+03	1.099607E-02	2.290468E-04
7.099649E+03	1.096003E-02	2.283082E-04
7.109634E+03	1.092102E-02	2.274526E-04
7.119620E+03	1.087799E-02	2.264590E-04
7.129605E+03	1.083046E-02	2.253180E-04
7.139590E+03	1.077796E-02	2.240206E-04
7.149576E+03	1.071997E-02	2.225570E-04
7.159561E+03	1.065668E-02	2.209327E-04
7.169547E+03	1.058804E-02	2.191476E-04
7.179532E+03	1.051512E-02	2.172258E-04
7.189518E+03	1.043865E-02	2.151839E-04
7.199503E+03	1.035953E-02	2.130420E-04
7.209489E+03	1.027915E-02	2.108302E-04
7.219474E+03	1.019864E-02	2.085736E-04
7.229459E+03	1.011881E-02	2.062895E-04
7.239445E+03	1.004034E-02	2.039933E-04
7.249430E+03	9.963696E-03	2.016954E-04
7.259416E+03	9.889041E-03	1.993999E-04
7.269401E+03	9.816179E-03	1.971038E-04
7.279387E+03	9.744382E-03	1.947935E-04
7.289372E+03	9.673769E-03	1.924723E-04
7.299358E+03	9.603904E-03	1.901326E-04
7.309343E+03	9.534495E-03	1.877697E-04
7.319328E+03	9.465655E-03	1.853871E-04
7.329314E+03	9.396744E-03	1.829735E-04
7.339299E+03	9.327441E-03	1.805242E-04
7.349285E+03	9.257171E-03	1.780295E-04
7.359270E+03	9.184755E-03	1.754688E-04
7.369256E+03	9.109293E-03	1.728273E-04
7.379241E+03	9.029248E-03	1.700789E-04
7.389227E+03	8.944216E-03	1.672196E-04
7.399212E+03	8.853512E-03	1.642405E-04
7.409197E+03	8.757627E-03	1.611550E-04
7.419183E+03	8.657268E-03	1.579801E-04
7.429168E+03	8.553962E-03	1.547478E-04
7.439154E+03	8.449909E-03	1.515008E-04
7.449139E+03	8.347109E-03	1.482771E-04
7.459125E+03	8.248445E-03	1.451290E-04
7.469110E+03	8.155827E-03	1.420898E-04
7.479095E+03	8.071467E-03	1.391965E-04
7.489081E+03	7.996670E-03	1.364691E-04
7.499066E+03	7.932906E-03	1.339291E-04
7.509052E+03	7.880142E-03	1.315718E-04
7.519037E+03	7.838024E-03	1.293871E-04
7.529023E+03	7.805995E-03	1.273617E-04
7.539008E+03	7.782876E-03	1.254725E-04
7.548994E+03	7.767702E-03	1.237010E-04
7.558979E+03	7.758891E-03	1.220195E-04
7.568964E+03	7.755344E-03	1.204091E-04
7.578950E+03	7.756149E-03	1.188547E-04
7.588935E+03	7.760294E-03	1.173407E-04
7.598921E+03	7.767227E-03	1.158594E-04
7.608906E+03	7.776256E-03	1.144013E-04
7.618892E+03	7.787432E-03	1.129688E-04
7.628877E+03	7.800164E-03	1.115551E-04
7.638863E+03	7.814739E-03	1.101667E-04
7.648848E+03	7.830848E-03	1.088018E-04
7.658833E+03	7.848808E-03	1.074676E-04
7.668819E+03	7.868175E-03	1.061613E-04
7.678804E+03	7.888872E-03	1.048855E-04
7.688790E+03	7.909537E-03	1.036265E-04
7.698775E+03	7.928564E-03	1.023690E-04
7.708761E+03	7.944089E-03	1.010959E-04
7.718746E+03	7.953860E-03	9.978686E-05
7.728732E+03	7.955673E-03	9.842404E-05
7.738717E+03	7.947512E-03	9.699353E-05
7.748702E+03	7.928234E-03	9.549324E-05
