#wls	flux	fluxerr
1.597671E+03	7.822029E-03	4.657171E-04
1.637612E+03	6.783708E-03	3.947080E-04
1.677554E+03	5.827599E-03	3.311179E-04
1.717496E+03	4.956273E-03	2.747911E-04
1.757438E+03	4.171165E-03	2.254871E-04
1.797379E+03	3.472168E-03	1.828679E-04
1.837321E+03	2.856314E-03	1.464417E-04
1.877263E+03	2.320669E-03	1.157281E-04
1.917205E+03	1.860124E-03	9.015198E-05
1.957146E+03	1.468662E-03	6.911985E-05
1.997088E+03	1.139566E-03	5.203648E-05
2.037030E+03	8.664077E-04	3.835502E-05
2.076972E+03	6.441305E-04	2.762205E-05
2.116914E+03	4.723531E-04	1.960616E-05
2.156855E+03	3.537458E-04	1.420165E-05
2.196797E+03	2.824574E-04	1.096028E-05
2.236739E+03	2.499141E-04	9.367187E-06
2.276681E+03	2.519684E-04	9.117564E-06
2.316622E+03	2.912469E-04	1.016994E-05
2.356564E+03	3.807437E-04	1.282561E-05
2.396506E+03	5.507059E-04	1.789299E-05
2.436448E+03	8.581441E-04	2.689337E-05
2.476389E+03	1.398438E-03	4.228024E-05
2.516331E+03	2.307203E-03	6.731561E-05
2.556273E+03	3.722848E-03	1.048435E-04
2.596215E+03	5.666046E-03	1.540437E-04
2.636156E+03	7.893330E-03	2.071753E-04
2.676098E+03	1.005944E-02	2.548775E-04
2.716040E+03	1.200299E-02	2.935218E-04
2.755982E+03	1.376219E-02	3.247079E-04
2.795924E+03	1.553514E-02	3.534976E-04
2.835865E+03	1.755484E-02	3.850374E-04
2.875807E+03	1.993387E-02	4.211811E-04
2.915749E+03	2.271276E-02	4.619944E-04
2.955691E+03	2.588322E-02	5.065188E-04
2.995632E+03	2.928408E-02	5.510211E-04
3.005618E+03	3.012659E-02	5.612980E-04
3.015603E+03	3.094689E-02	5.708956E-04
3.025589E+03	3.173347E-02	5.796211E-04
3.035574E+03	3.247567E-02	5.873054E-04
3.045560E+03	3.316062E-02	5.937479E-04
3.055545E+03	3.377591E-02	5.987648E-04
3.065530E+03	3.431052E-02	6.022055E-04
3.075516E+03	3.475542E-02	6.039601E-04
3.085501E+03	3.510371E-02	6.039583E-04
3.095487E+03	3.535221E-02	6.021969E-04
3.105472E+03	3.550177E-02	5.987421E-04
3.115458E+03	3.555800E-02	5.937378E-04
3.125443E+03	3.552759E-02	5.873418E-04
3.135429E+03	3.542738E-02	5.798724E-04
3.145414E+03	3.527199E-02	5.716010E-04
3.155399E+03	3.507935E-02	5.628418E-04
3.165385E+03	3.486887E-02	5.539211E-04
3.175370E+03	3.465929E-02	5.451420E-04
3.185356E+03	3.446694E-02	5.367588E-04
3.195341E+03	3.430859E-02	5.290227E-04
3.205327E+03	3.419687E-02	5.221120E-04
3.215312E+03	3.414502E-02	5.162075E-04
3.225298E+03	3.416074E-02	5.113995E-04
3.235283E+03	3.425202E-02	5.077799E-04
3.245268E+03	3.442575E-02	5.054208E-04
3.255254E+03	3.468581E-02	5.043478E-04
3.265239E+03	3.503511E-02	5.045723E-04
3.275225E+03	3.547750E-02	5.061193E-04
3.285210E+03	3.601363E-02	5.089681E-04
3.295196E+03	3.664306E-02	5.130850E-04
3.305181E+03	3.736617E-02	5.184500E-04
3.315166E+03	3.817985E-02	5.249972E-04
3.325152E+03	3.908125E-02	5.326688E-04
3.335137E+03	4.006642E-02	5.413959E-04
3.345123E+03	4.113367E-02	5.511448E-04
3.355108E+03	4.228128E-02	5.618850E-04
3.365094E+03	4.350728E-02	5.735866E-04
3.375079E+03	4.481073E-02	5.862373E-04
3.385065E+03	4.618958E-02	5.998138E-04
3.395050E+03	4.764087E-02	6.142855E-04
3.405035E+03	4.915393E-02	6.295275E-04
3.415021E+03	5.071707E-02	6.454093E-04
3.425006E+03	5.231338E-02	6.617406E-04
3.434992E+03	5.392799E-02	6.783650E-04
3.444977E+03	5.554194E-02	6.950805E-04
3.454963E+03	5.713303E-02	7.116517E-04
3.464948E+03	5.868850E-02	7.279650E-04
3.474934E+03	6.017965E-02	7.437122E-04
3.484919E+03	6.155735E-02	7.583370E-04
3.494904E+03	6.277814E-02	7.713560E-04
3.504890E+03	6.378986E-02	7.821630E-04
3.514875E+03	6.453598E-02	7.900800E-04
3.524861E+03	6.496790E-02	7.945179E-04
3.534846E+03	6.504023E-02	7.949174E-04
3.544832E+03	6.471214E-02	7.907632E-04
3.554817E+03	6.397611E-02	7.819355E-04
3.564803E+03	6.283359E-02	7.684132E-04
3.574788E+03	6.130031E-02	7.503400E-04
3.584773E+03	5.943510E-02	7.283815E-04
3.594759E+03	5.730266E-02	7.032743E-04
3.604744E+03	5.497602E-02	6.758590E-04
3.614730E+03	5.255306E-02	6.472891E-04
3.624715E+03	5.012474E-02	6.186439E-04
3.634701E+03	4.777014E-02	5.908680E-04
3.644686E+03	4.556828E-02	5.649187E-04
3.654671E+03	4.358067E-02	5.415493E-04
3.664657E+03	4.185112E-02	5.213041E-04
3.674642E+03	4.040688E-02	5.045298E-04
3.684628E+03	3.926404E-02	4.914399E-04
3.694613E+03	3.842736E-02	4.821098E-04
3.704599E+03	3.789085E-02	4.764811E-04
3.714584E+03	3.764246E-02	4.744190E-04
3.724570E+03	3.766830E-02	4.757627E-04
3.734555E+03	3.795164E-02	4.803134E-04
3.744540E+03	3.847444E-02	4.878520E-04
3.754526E+03	3.921756E-02	4.981408E-04
3.764511E+03	4.016385E-02	5.109638E-04
3.774497E+03	4.129397E-02	5.260730E-04
3.784482E+03	4.258745E-02	5.432010E-04
3.794468E+03	4.403101E-02	5.621691E-04
3.804453E+03	4.560713E-02	5.827403E-04
3.814439E+03	4.729571E-02	6.046414E-04
3.824424E+03	4.907804E-02	6.276140E-04
3.834409E+03	5.092861E-02	6.513104E-04
3.844395E+03	5.281628E-02	6.753089E-04
3.854380E+03	5.470788E-02	6.991614E-04
3.864366E+03	5.656417E-02	7.223423E-04
3.874351E+03	5.834184E-02	7.442765E-04
3.884337E+03	6.000159E-02	7.644436E-04
3.894322E+03	6.150597E-02	7.823518E-04
3.904308E+03	6.282043E-02	7.975527E-04
3.914293E+03	6.392442E-02	8.097834E-04
3.924278E+03	6.480469E-02	8.188803E-04
3.934264E+03	6.545621E-02	8.247907E-04
3.944249E+03	6.589300E-02	8.277081E-04
3.954235E+03	6.613498E-02	8.279031E-04
3.964220E+03	6.620503E-02	8.256849E-04
3.974206E+03	6.613623E-02	8.214905E-04
3.984191E+03	6.595835E-02	8.157128E-04
3.994176E+03	6.569621E-02	8.086807E-04
4.004162E+03	6.536786E-02	8.006379E-04
4.014147E+03	6.498122E-02	7.917014E-04
4.024133E+03	6.453550E-02	7.818833E-04
4.034118E+03	6.401986E-02	7.710767E-04
4.044104E+03	6.341731E-02	7.591056E-04
4.054089E+03	6.270761E-02	7.457629E-04
4.064075E+03	6.187440E-02	7.308956E-04
4.074060E+03	6.090428E-02	7.143931E-04
4.084045E+03	5.979012E-02	6.962251E-04
4.094031E+03	5.853541E-02	6.764879E-04
4.104016E+03	5.715000E-02	6.553522E-04
4.114002E+03	5.564962E-02	6.330531E-04
4.123987E+03	5.405525E-02	6.098802E-04
4.133973E+03	5.239144E-02	5.861557E-04
4.143958E+03	5.068355E-02	5.622013E-04
4.153944E+03	4.896050E-02	5.383677E-04
4.163929E+03	4.725029E-02	5.149830E-04
4.173914E+03	4.557983E-02	4.923518E-04
4.183900E+03	4.397851E-02	4.707932E-04
4.193885E+03	4.247288E-02	4.505835E-04
4.203871E+03	4.108573E-02	4.319479E-04
4.213856E+03	3.983933E-02	4.150966E-04
4.223842E+03	3.875059E-02	4.001761E-04
4.233827E+03	3.783075E-02	3.872685E-04
4.243813E+03	3.708737E-02	3.764156E-04
4.253798E+03	3.652131E-02	3.675912E-04
4.263783E+03	3.612604E-02	3.606974E-04
4.273769E+03	3.588977E-02	3.555895E-04
4.283754E+03	3.579381E-02	3.520623E-04
4.293740E+03	3.581289E-02	3.498553E-04
4.303725E+03	3.591566E-02	3.486582E-04
4.313711E+03	3.606694E-02	3.481345E-04
4.323696E+03	3.623232E-02	3.479651E-04
4.333681E+03	3.637904E-02	3.478543E-04
4.343667E+03	3.648192E-02	3.475835E-04
4.353652E+03	3.652510E-02	3.470241E-04
4.363638E+03	3.650684E-02	3.461798E-04
4.373623E+03	3.643870E-02	3.451764E-04
4.383609E+03	3.634194E-02	3.442267E-04
4.393594E+03	3.624130E-02	3.435618E-04
4.403580E+03	3.616256E-02	3.434087E-04
4.413565E+03	3.612736E-02	3.439550E-04
4.423550E+03	3.614907E-02	3.453128E-04
4.433536E+03	3.623643E-02	3.475529E-04
4.443521E+03	3.639329E-02	3.507024E-04
4.453507E+03	3.661752E-02	3.547330E-04
4.463492E+03	3.690262E-02	3.595754E-04
4.473478E+03	3.723415E-02	3.650824E-04
4.483463E+03	3.758792E-02	3.710077E-04
4.493449E+03	3.793366E-02	3.770390E-04
4.503434E+03	3.824217E-02	3.828658E-04
4.513419E+03	3.848940E-02	3.882205E-04
4.523405E+03	3.865856E-02	3.929014E-04
4.533390E+03	3.873843E-02	3.967577E-04
4.543376E+03	3.871958E-02	3.996533E-04
4.553361E+03	3.859676E-02	4.014927E-04
4.563347E+03	3.836967E-02	4.022310E-04
4.573332E+03	3.804166E-02	4.018622E-04
4.583318E+03	3.762125E-02	4.004381E-04
4.593303E+03	3.712480E-02	3.980988E-04
4.603288E+03	3.657382E-02	3.950469E-04
4.613274E+03	3.599376E-02	3.915364E-04
4.623259E+03	3.541074E-02	3.878383E-04
4.633245E+03	3.485127E-02	3.842373E-04
4.643230E+03	3.433564E-02	3.809572E-04
4.653216E+03	3.388003E-02	3.781830E-04
4.663201E+03	3.349174E-02	3.760041E-04
4.673186E+03	3.317152E-02	3.744376E-04
4.683172E+03	3.291462E-02	3.734380E-04
4.693157E+03	3.271078E-02	3.728952E-04
4.703143E+03	3.254720E-02	3.726674E-04
4.713128E+03	3.240784E-02	3.725723E-04
4.723114E+03	3.227434E-02	3.723975E-04
4.733099E+03	3.212807E-02	3.719251E-04
4.743085E+03	3.194991E-02	3.709289E-04
4.753070E+03	3.172231E-02	3.691996E-04
4.763055E+03	3.142915E-02	3.665442E-04
4.773041E+03	3.106123E-02	3.628514E-04
4.783026E+03	3.061483E-02	3.580753E-04
4.793012E+03	3.009272E-02	3.522492E-04
4.802997E+03	2.950583E-02	3.455039E-04
4.812983E+03	2.887126E-02	3.380461E-04
4.822968E+03	2.820961E-02	3.301248E-04
4.832954E+03	2.754450E-02	3.220254E-04
4.842939E+03	2.689929E-02	3.140302E-04
4.852924E+03	2.629505E-02	3.063930E-04
4.862910E+03	2.574896E-02	2.993195E-04
4.872895E+03	2.527229E-02	2.929440E-04
4.882881E+03	2.487152E-02	2.873418E-04
4.892866E+03	2.455033E-02	2.825530E-04
4.902852E+03	2.430829E-02	2.785673E-04
4.912837E+03	2.414429E-02	2.753645E-04
4.922823E+03	2.405638E-02	2.729130E-04
4.932808E+03	2.404153E-02	2.711666E-04
4.942793E+03	2.409719E-02	2.700837E-04
4.952779E+03	2.422008E-02	2.696128E-04
4.962764E+03	2.440580E-02	2.696892E-04
4.972750E+03	2.464857E-02	2.702328E-04
4.982735E+03	2.494173E-02	2.711543E-04
4.992721E+03	2.527601E-02	2.723377E-04
5.002706E+03	2.564170E-02	2.736646E-04
5.012691E+03	2.602708E-02	2.749987E-04
5.022677E+03	2.641907E-02	2.761949E-04
5.032662E+03	2.680534E-02	2.771210E-04
5.042648E+03	2.717433E-02	2.776598E-04
5.052633E+03	2.751538E-02	2.777092E-04
5.062619E+03	2.782056E-02	2.772012E-04
5.072604E+03	2.808470E-02	2.761005E-04
5.082590E+03	2.830272E-02	2.743770E-04
5.092575E+03	2.847208E-02	2.720295E-04
5.102560E+03	2.859194E-02	2.690761E-04
5.112546E+03	2.865875E-02	2.655118E-04
5.122531E+03	2.866987E-02	2.613439E-04
5.132517E+03	2.862017E-02	2.565608E-04
5.142502E+03	2.850241E-02	2.511367E-04
5.152488E+03	2.830922E-02	2.450510E-04
5.162473E+03	2.803645E-02	2.383165E-04
5.172459E+03	2.768187E-02	2.309656E-04
5.182444E+03	2.724956E-02	2.230848E-04
5.192429E+03	2.675184E-02	2.148247E-04
5.202415E+03	2.620670E-02	2.063728E-04
5.212400E+03	2.563816E-02	1.979521E-04
5.222386E+03	2.507153E-02	1.897796E-04
5.232371E+03	2.453226E-02	1.820585E-04
5.242357E+03	2.404298E-02	1.749558E-04
5.252342E+03	2.362123E-02	1.685902E-04
5.262328E+03	2.327630E-02	1.630144E-04
5.272313E+03	2.301182E-02	1.582394E-04
5.282298E+03	2.282484E-02	1.542332E-04
5.292284E+03	2.270606E-02	1.509267E-04
5.302269E+03	2.264202E-02	1.482312E-04
5.312255E+03	2.261800E-02	1.460589E-04
5.322240E+03	2.261760E-02	1.443191E-04
5.332226E+03	2.262663E-02	1.429413E-04
5.342211E+03	2.263309E-02	1.418725E-04
5.352196E+03	2.262594E-02	1.410658E-04
5.362182E+03	2.259682E-02	1.404892E-04
5.372167E+03	2.254195E-02	1.401275E-04
5.382153E+03	2.245855E-02	1.399501E-04
5.392138E+03	2.234579E-02	1.399311E-04
5.402124E+03	2.220339E-02	1.400423E-04
5.412109E+03	2.203186E-02	1.402543E-04
5.422095E+03	2.183789E-02	1.405734E-04
5.432080E+03	2.163339E-02	1.410402E-04
5.442065E+03	2.143154E-02	1.417070E-04
5.452051E+03	2.124247E-02	1.426117E-04
5.462036E+03	2.107279E-02	1.437740E-04
5.472022E+03	2.092578E-02	1.451959E-04
5.482007E+03	2.080054E-02	1.468541E-04
5.491993E+03	2.069568E-02	1.487238E-04
5.501978E+03	2.061024E-02	1.507847E-04
5.511964E+03	2.054416E-02	1.530250E-04
5.521949E+03	2.049656E-02	1.554285E-04
5.531934E+03	2.046793E-02	1.579906E-04
5.541920E+03	2.045779E-02	1.607010E-04
5.551905E+03	2.046513E-02	1.635460E-04
5.561891E+03	2.048713E-02	1.664977E-04
5.571876E+03	2.051994E-02	1.695191E-04
5.581862E+03	2.055800E-02	1.725577E-04
5.591847E+03	2.059520E-02	1.755540E-04
5.601833E+03	2.062428E-02	1.784360E-04
5.611818E+03	2.063849E-02	1.811332E-04
5.621803E+03	2.063191E-02	1.835803E-04
5.631789E+03	2.059963E-02	1.857189E-04
5.641774E+03	2.053876E-02	1.875081E-04
5.651760E+03	2.044871E-02	1.889281E-04
5.661745E+03	2.033125E-02	1.899821E-04
5.671731E+03	2.018993E-02	1.906921E-04
5.681716E+03	2.003010E-02	1.911002E-04
5.691701E+03	1.985817E-02	1.912616E-04
5.701687E+03	1.968105E-02	1.912395E-04
5.711672E+03	1.950631E-02	1.911068E-04
5.721658E+03	1.934016E-02	1.909258E-04
5.731643E+03	1.918865E-02	1.907591E-04
5.741629E+03	1.905636E-02	1.906562E-04
5.751614E+03	1.894602E-02	1.906491E-04
5.761600E+03	1.885910E-02	1.907568E-04
5.771585E+03	1.879575E-02	1.909850E-04
5.781570E+03	1.875393E-02	1.913166E-04
5.791556E+03	1.873014E-02	1.917183E-04
5.801541E+03	1.872022E-02	1.921494E-04
5.811527E+03	1.871831E-02	1.925506E-04
5.821512E+03	1.871890E-02	1.928659E-04
5.831498E+03	1.871687E-02	1.930427E-04
5.841483E+03	1.870775E-02	1.930356E-04
5.851469E+03	1.868826E-02	1.928112E-04
5.861454E+03	1.865588E-02	1.923449E-04
5.871439E+03	1.860982E-02	1.916307E-04
5.881425E+03	1.854953E-02	1.906654E-04
5.891410E+03	1.847594E-02	1.894622E-04
5.901396E+03	1.839028E-02	1.880376E-04
5.911381E+03	1.829351E-02	1.864061E-04
5.921367E+03	1.818622E-02	1.845788E-04
5.931352E+03	1.806758E-02	1.825528E-04
5.941338E+03	1.793616E-02	1.803203E-04
5.951323E+03	1.778976E-02	1.778664E-04
5.961308E+03	1.762513E-02	1.751667E-04
5.971294E+03	1.743805E-02	1.721891E-04
5.981279E+03	1.722501E-02	1.689102E-04
5.991265E+03	1.698181E-02	1.653015E-04
6.001250E+03	1.670630E-02	1.613565E-04
6.011236E+03	1.639680E-02	1.570744E-04
6.021221E+03	1.605457E-02	1.524841E-04
6.031207E+03	1.568427E-02	1.476460E-04
6.041192E+03	1.529374E-02	1.426495E-04
6.051177E+03	1.489426E-02	1.376132E-04
6.061163E+03	1.449936E-02	1.326721E-04
6.071148E+03	1.412491E-02	1.279772E-04
6.081134E+03	1.378604E-02	1.236673E-04
6.091119E+03	1.349748E-02	1.198718E-04
6.101105E+03	1.327112E-02	1.166897E-04
6.111090E+03	1.311569E-02	1.141886E-04
6.121075E+03	1.303629E-02	1.124028E-04
6.131061E+03	1.303421E-02	1.113333E-04
6.141046E+03	1.310665E-02	1.109485E-04
6.151032E+03	1.324771E-02	1.111936E-04
6.161017E+03	1.344894E-02	1.119975E-04
6.171003E+03	1.369879E-02	1.132687E-04
6.180988E+03	1.398440E-02	1.149110E-04
6.190974E+03	1.429178E-02	1.168246E-04
6.200959E+03	1.460653E-02	1.189110E-04
6.210944E+03	1.491424E-02	1.210758E-04
6.220930E+03	1.520199E-02	1.232382E-04
6.230915E+03	1.545899E-02	1.253348E-04
6.240901E+03	1.567643E-02	1.273164E-04
6.250886E+03	1.584866E-02	1.291562E-04
6.260872E+03	1.597268E-02	1.308437E-04
6.270857E+03	1.604835E-02	1.323835E-04
6.280843E+03	1.607765E-02	1.337816E-04
6.290828E+03	1.606429E-02	1.350522E-04
6.300813E+03	1.601328E-02	1.362166E-04
6.310799E+03	1.593007E-02	1.372981E-04
6.320784E+03	1.581986E-02	1.383167E-04
6.330770E+03	1.568839E-02	1.392982E-04
6.340755E+03	1.554164E-02	1.402715E-04
6.350741E+03	1.538567E-02	1.412693E-04
6.360726E+03	1.522826E-02	1.423436E-04
6.370712E+03	1.507784E-02	1.435587E-04
6.380697E+03	1.494359E-02	1.449926E-04
6.390682E+03	1.483432E-02	1.467275E-04
6.400668E+03	1.475383E-02	1.488038E-04
6.410653E+03	1.469529E-02	1.511568E-04
6.420639E+03	1.465036E-02	1.537023E-04
6.430624E+03	1.461143E-02	1.563578E-04
6.440610E+03	1.457284E-02	1.590566E-04
6.450595E+03	1.453115E-02	1.617525E-04
6.460580E+03	1.448450E-02	1.644150E-04
6.470566E+03	1.443266E-02	1.670308E-04
6.480551E+03	1.437554E-02	1.695888E-04
6.490537E+03	1.431430E-02	1.720929E-04
6.500522E+03	1.424968E-02	1.745440E-04
6.510508E+03	1.418207E-02	1.769388E-04
6.520493E+03	1.411203E-02	1.792779E-04
6.530479E+03	1.403970E-02	1.815566E-04
6.540464E+03	1.396514E-02	1.837698E-04
6.550449E+03	1.388840E-02	1.859129E-04
6.560435E+03	1.380984E-02	1.879856E-04
6.570420E+03	1.372949E-02	1.899840E-04
6.580406E+03	1.364773E-02	1.919093E-04
6.590391E+03	1.356523E-02	1.937673E-04
6.600377E+03	1.348244E-02	1.955616E-04
6.610362E+03	1.339945E-02	1.972912E-04
6.620348E+03	1.331670E-02	1.989603E-04
6.630333E+03	1.323399E-02	2.005644E-04
6.640318E+03	1.315164E-02	2.021067E-04
6.650304E+03	1.306895E-02	2.035752E-04
6.660289E+03	1.298564E-02	2.049638E-04
6.670275E+03	1.290168E-02	2.062705E-04
6.680260E+03	1.281687E-02	2.074909E-04
6.690246E+03	1.273091E-02	2.086183E-04
6.700231E+03	1.264384E-02	2.096523E-04
6.710217E+03	1.255601E-02	2.105975E-04
6.720202E+03	1.246740E-02	2.114524E-04
6.730187E+03	1.237845E-02	2.122238E-04
6.740173E+03	1.228893E-02	2.129073E-04
6.750158E+03	1.219949E-02	2.135138E-04
6.760144E+03	1.210989E-02	2.140391E-04
6.770129E+03	1.202081E-02	2.144950E-04
6.780115E+03	1.193206E-02	2.148786E-04
6.790100E+03	1.184418E-02	2.152001E-04
6.800085E+03	1.175754E-02	2.154668E-04
6.810071E+03	1.167230E-02	2.156821E-04
6.820056E+03	1.158902E-02	2.158580E-04
6.830042E+03	1.150781E-02	2.159972E-04
6.840027E+03	1.142910E-02	2.161096E-04
6.850013E+03	1.135264E-02	2.161914E-04
6.859998E+03	1.127889E-02	2.162528E-04
6.869984E+03	1.120754E-02	2.162893E-04
6.879969E+03	1.113839E-02	2.162984E-04
6.889954E+03	1.107097E-02	2.162720E-04
6.899940E+03	1.100549E-02	2.162154E-04
6.909925E+03	1.094126E-02	2.161159E-04
6.919911E+03	1.087896E-02	2.159880E-04
6.929896E+03	1.081836E-02	2.158278E-04
6.939882E+03	1.075972E-02	2.156420E-04
6.949867E+03	1.070358E-02	2.154420E-04
6.959853E+03	1.065002E-02	2.152308E-04
6.969838E+03	1.059932E-02	2.150149E-04
6.979823E+03	1.055165E-02	2.147991E-04
6.989809E+03	1.050712E-02	2.145865E-04
6.999794E+03	1.046572E-02	2.143779E-04
7.009780E+03	1.042713E-02	2.141679E-04
7.019765E+03	1.039154E-02	2.139608E-04
7.029751E+03	1.035799E-02	2.137381E-04
7.039736E+03	1.032668E-02	2.135038E-04
7.049722E+03	1.029644E-02	2.132347E-04
7.059707E+03	1.026704E-02	2.129262E-04
7.069692E+03	1.023756E-02	2.125598E-04
7.079678E+03	1.020725E-02	2.121199E-04
7.089663E+03	1.017556E-02	2.115955E-04
7.099649E+03	1.014133E-02	2.109629E-04
7.109634E+03	1.010408E-02	2.102121E-04
7.119620E+03	1.006297E-02	2.093267E-04
7.129605E+03	1.001772E-02	2.083008E-04
7.139590E+03	9.967986E-03	2.071286E-04
7.149576E+03	9.913454E-03	2.058042E-04
7.159561E+03	9.854453E-03	2.043357E-04
7.169547E+03	9.790942E-03	2.027234E-04
7.179532E+03	9.723932E-03	2.009897E-04
7.189518E+03	9.654016E-03	1.991484E-04
7.199503E+03	9.581887E-03	1.972151E-04
7.209489E+03	9.508681E-03	1.952148E-04
7.219474E+03	9.435262E-03	1.931666E-04
7.229459E+03	9.362184E-03	1.910832E-04
7.239445E+03	9.290008E-03	1.889770E-04
7.249430E+03	9.219086E-03	1.868565E-04
7.259416E+03	9.149562E-03	1.847255E-04
7.269401E+03	9.081403E-03	1.825843E-04
7.279387E+03	9.014106E-03	1.804238E-04
7.289372E+03	8.947867E-03	1.782489E-04
7.299358E+03	8.882357E-03	1.760542E-04
7.309343E+03	8.817247E-03	1.738341E-04
7.319328E+03	8.752553E-03	1.715903E-04
7.329314E+03	8.687668E-03	1.693121E-04
7.339299E+03	8.622215E-03	1.669935E-04
7.349285E+03	8.555660E-03	1.646259E-04
7.359270E+03	8.487120E-03	1.621943E-04
7.369256E+03	8.416012E-03	1.596898E-04
7.379241E+03	8.341117E-03	1.570921E-04
7.389227E+03	8.262331E-03	1.544024E-04
7.399212E+03	8.179185E-03	1.516155E-04
7.409197E+03	8.092182E-03	1.487442E-04
7.419183E+03	8.001960E-03	1.458040E-04
7.429168E+03	7.909781E-03	1.428210E-04
7.439154E+03	7.817415E-03	1.398299E-04
7.449139E+03	7.726514E-03	1.368620E-04
7.459125E+03	7.639462E-03	1.339603E-04
7.469110E+03	7.557697E-03	1.311498E-04
7.479095E+03	7.483066E-03	1.284611E-04
7.489081E+03	7.416554E-03	1.259090E-04
7.499066E+03	7.359333E-03	1.235102E-04
7.509052E+03	7.311431E-03	1.212617E-04
7.519037E+03	7.272601E-03	1.191555E-04
7.529023E+03	7.242406E-03	1.171810E-04
7.539008E+03	7.220014E-03	1.153211E-04
7.548994E+03	7.204796E-03	1.135628E-04
7.558979E+03	7.195474E-03	1.118836E-04
7.568964E+03	7.191344E-03	1.102707E-04
7.578950E+03	7.191817E-03	1.087138E-04
7.588935E+03	7.196096E-03	1.072002E-04
7.598921E+03	7.203805E-03	1.057241E-04
7.608906E+03	7.214354E-03	1.042771E-04
7.618892E+03	7.227697E-03	1.028593E-04
7.628877E+03	7.243200E-03	1.014630E-04
7.638863E+03	7.260907E-03	1.000903E-04
7.648848E+03	7.280181E-03	9.873464E-05
7.658833E+03	7.300978E-03	9.739820E-05
7.668819E+03	7.322395E-03	9.607225E-05
7.678804E+03	7.343920E-03	9.475428E-05
7.688790E+03	7.364164E-03	9.343159E-05
7.698775E+03	7.381568E-03	9.209087E-05
7.708761E+03	7.394324E-03	9.071755E-05
7.718746E+03	7.400488E-03	8.929725E-05
7.728732E+03	7.398165E-03	8.781800E-05
7.738717E+03	7.385555E-03	8.627061E-05
7.748702E+03	7.361762E-03	8.465763E-05
