#wls	flux	fluxerr
1.597671E+03	1.655583E-02	4.347871E-04
1.637612E+03	1.431900E-02	3.709951E-04
1.677554E+03	1.220452E-02	3.118703E-04
1.717496E+03	1.023716E-02	2.579280E-04
1.757438E+03	8.439706E-03	2.095947E-04
1.797379E+03	6.829466E-03	1.671256E-04
1.837321E+03	5.418954E-03	1.306309E-04
1.877263E+03	4.213733E-03	1.000332E-04
1.917205E+03	3.211588E-03	7.506190E-05
1.957146E+03	2.403268E-03	5.528455E-05
1.997088E+03	1.772533E-03	4.012190E-05
2.037030E+03	1.297656E-03	2.889490E-05
2.076972E+03	9.535337E-04	2.088178E-05
2.116914E+03	7.144121E-04	1.538343E-05
2.156855E+03	5.565115E-04	1.178048E-05
2.196797E+03	4.608533E-04	9.588659E-06
2.236739E+03	4.147333E-04	8.480149E-06
2.276681E+03	4.124401E-04	8.286686E-06
2.316622E+03	4.547396E-04	8.976941E-06
2.356564E+03	5.505931E-04	1.067862E-05
2.396506E+03	7.205883E-04	1.372994E-05
2.436448E+03	1.000320E-03	1.872400E-05
2.476389E+03	1.444046E-03	2.655201E-05
2.516331E+03	2.127183E-03	3.841942E-05
2.556273E+03	3.145387E-03	5.579789E-05
2.596215E+03	4.610928E-03	8.033310E-05
2.636156E+03	6.641864E-03	1.136371E-04
2.676098E+03	9.318826E-03	1.565580E-04
2.716040E+03	1.263766E-02	2.084608E-04
2.755982E+03	1.649884E-02	2.671876E-04
2.795924E+03	2.072098E-02	3.294154E-04
2.835865E+03	2.506635E-02	3.911714E-04
2.875807E+03	2.926864E-02	4.483344E-04
2.915749E+03	3.306221E-02	4.971055E-04
2.955691E+03	3.621401E-02	5.344660E-04
2.995632E+03	3.854455E-02	5.584222E-04
3.005618E+03	3.898453E-02	5.621969E-04
3.015603E+03	3.936702E-02	5.651045E-04
3.025589E+03	3.968961E-02	5.671232E-04
3.035574E+03	3.995309E-02	5.682768E-04
3.045560E+03	4.015951E-02	5.686068E-04
3.055545E+03	4.030779E-02	5.681098E-04
3.065530E+03	4.040085E-02	5.668385E-04
3.075516E+03	4.044016E-02	5.648243E-04
3.085501E+03	4.042765E-02	5.621047E-04
3.095487E+03	4.036557E-02	5.587206E-04
3.105472E+03	4.025819E-02	5.547403E-04
3.115458E+03	4.010754E-02	5.502000E-04
3.125443E+03	3.991754E-02	5.451613E-04
3.135429E+03	3.969148E-02	5.396761E-04
3.145414E+03	3.943283E-02	5.337977E-04
3.155399E+03	3.914596E-02	5.275908E-04
3.165385E+03	3.883524E-02	5.211188E-04
3.175370E+03	3.850286E-02	5.144151E-04
3.185356E+03	3.815465E-02	5.075605E-04
3.195341E+03	3.779349E-02	5.005958E-04
3.205327E+03	3.742355E-02	4.935781E-04
3.215312E+03	3.704830E-02	4.865537E-04
3.225298E+03	3.667035E-02	4.795578E-04
3.235283E+03	3.629480E-02	4.726565E-04
3.245268E+03	3.592280E-02	4.658643E-04
3.255254E+03	3.555906E-02	4.592409E-04
3.265239E+03	3.520624E-02	4.528191E-04
3.275225E+03	3.486586E-02	4.466163E-04
3.285210E+03	3.454204E-02	4.406827E-04
3.295196E+03	3.423609E-02	4.350323E-04
3.305181E+03	3.395079E-02	4.296972E-04
3.315166E+03	3.368843E-02	4.247029E-04
3.325152E+03	3.345163E-02	4.200790E-04
3.335137E+03	3.324208E-02	4.158426E-04
3.345123E+03	3.306200E-02	4.120175E-04
3.355108E+03	3.291360E-02	4.086269E-04
3.365094E+03	3.279959E-02	4.057000E-04
3.375079E+03	3.272191E-02	4.032561E-04
3.385065E+03	3.268299E-02	4.013204E-04
3.395050E+03	3.268536E-02	3.999189E-04
3.405035E+03	3.273120E-02	3.990734E-04
3.415021E+03	3.282303E-02	3.988093E-04
3.425006E+03	3.296331E-02	3.991514E-04
3.434992E+03	3.315377E-02	4.001153E-04
3.444977E+03	3.339601E-02	4.017149E-04
3.454963E+03	3.369044E-02	4.039503E-04
3.464948E+03	3.403642E-02	4.068090E-04
3.474934E+03	3.443177E-02	4.102604E-04
3.484919E+03	3.487121E-02	4.142379E-04
3.494904E+03	3.534847E-02	4.186633E-04
3.504890E+03	3.585522E-02	4.234346E-04
3.514875E+03	3.638166E-02	4.284336E-04
3.524861E+03	3.691691E-02	4.335310E-04
3.534846E+03	3.745100E-02	4.386093E-04
3.544832E+03	3.797284E-02	4.435393E-04
3.554817E+03	3.847106E-02	4.481896E-04
3.564803E+03	3.893618E-02	4.524522E-04
3.574788E+03	3.935962E-02	4.562307E-04
3.584773E+03	3.973396E-02	4.594425E-04
3.594759E+03	4.005317E-02	4.620217E-04
3.604744E+03	4.031470E-02	4.639432E-04
3.614730E+03	4.051742E-02	4.651980E-04
3.624715E+03	4.066246E-02	4.658031E-04
3.634701E+03	4.075502E-02	4.658213E-04
3.644686E+03	4.080121E-02	4.653255E-04
3.654671E+03	4.080968E-02	4.644168E-04
3.664657E+03	4.079109E-02	4.632178E-04
3.674642E+03	4.075765E-02	4.618679E-04
3.684628E+03	4.072245E-02	4.605150E-04
3.694613E+03	4.070046E-02	4.593273E-04
3.704599E+03	4.070587E-02	4.584627E-04
3.714584E+03	4.075409E-02	4.580914E-04
3.724570E+03	4.086076E-02	4.583852E-04
3.734555E+03	4.103935E-02	4.594904E-04
3.744540E+03	4.130519E-02	4.615725E-04
3.754526E+03	4.167012E-02	4.647574E-04
3.764511E+03	4.214678E-02	4.691789E-04
3.774497E+03	4.274514E-02	4.749399E-04
3.784482E+03	4.347323E-02	4.821215E-04
3.794468E+03	4.433675E-02	4.907780E-04
3.804453E+03	4.533815E-02	5.009276E-04
3.814439E+03	4.647646E-02	5.125508E-04
3.824424E+03	4.774686E-02	5.255857E-04
3.834409E+03	4.913966E-02	5.399172E-04
3.844395E+03	5.064105E-02	5.553860E-04
3.854380E+03	5.223272E-02	5.717846E-04
3.864366E+03	5.389187E-02	5.888580E-04
3.874351E+03	5.559274E-02	6.063204E-04
3.884337E+03	5.730703E-02	6.238608E-04
3.894322E+03	5.900497E-02	6.411541E-04
3.904308E+03	6.065732E-02	6.578838E-04
3.914293E+03	6.223624E-02	6.737505E-04
3.924278E+03	6.371799E-02	6.885015E-04
3.934264E+03	6.508219E-02	7.019222E-04
3.944249E+03	6.631420E-02	7.138615E-04
3.954235E+03	6.740393E-02	7.242186E-04
3.964220E+03	6.834889E-02	7.329748E-04
3.974206E+03	6.914954E-02	7.401435E-04
3.984191E+03	6.981157E-02	7.457939E-04
3.994176E+03	7.034345E-02	7.500245E-04
4.004162E+03	7.075688E-02	7.529676E-04
4.014147E+03	7.106296E-02	7.547483E-04
4.024133E+03	7.127447E-02	7.555085E-04
4.034118E+03	7.140187E-02	7.553649E-04
4.044104E+03	7.145593E-02	7.544363E-04
4.054089E+03	7.144421E-02	7.528072E-04
4.064075E+03	7.137347E-02	7.505531E-04
4.074060E+03	7.124876E-02	7.477308E-04
4.084045E+03	7.107345E-02	7.443794E-04
4.094031E+03	7.084826E-02	7.405099E-04
4.104016E+03	7.057359E-02	7.361304E-04
4.114002E+03	7.024797E-02	7.312287E-04
4.123987E+03	6.986951E-02	7.257894E-04
4.133973E+03	6.943533E-02	7.197864E-04
4.143958E+03	6.894102E-02	7.131784E-04
4.153944E+03	6.838372E-02	7.059403E-04
4.163929E+03	6.775945E-02	6.980359E-04
4.173914E+03	6.706640E-02	6.894514E-04
4.183900E+03	6.630461E-02	6.801926E-04
4.193885E+03	6.547546E-02	6.702786E-04
4.203871E+03	6.458442E-02	6.597704E-04
4.213856E+03	6.363951E-02	6.487546E-04
4.223842E+03	6.265280E-02	6.373578E-04
4.233827E+03	6.163700E-02	6.257125E-04
4.243813E+03	6.060875E-02	6.139898E-04
4.253798E+03	5.958405E-02	6.023528E-04
4.263783E+03	5.858025E-02	5.909767E-04
4.273769E+03	5.761176E-02	5.800060E-04
4.283754E+03	5.669194E-02	5.695732E-04
4.293740E+03	5.583094E-02	5.597775E-04
4.303725E+03	5.503372E-02	5.506651E-04
4.313711E+03	5.430272E-02	5.422573E-04
4.323696E+03	5.363395E-02	5.345108E-04
4.333681E+03	5.302203E-02	5.273685E-04
4.343667E+03	5.245692E-02	5.207271E-04
4.353652E+03	5.193063E-02	5.145042E-04
4.363638E+03	5.144809E-02	5.087456E-04
4.373623E+03	5.104203E-02	5.037716E-04
4.383609E+03	5.075062E-02	4.999533E-04
4.393594E+03	5.060761E-02	4.976159E-04
4.403580E+03	5.063983E-02	4.970143E-04
4.413565E+03	5.086927E-02	4.983542E-04
4.423550E+03	5.130970E-02	5.017598E-04
4.433536E+03	5.196990E-02	5.073054E-04
4.443521E+03	5.285296E-02	5.150089E-04
4.453507E+03	5.395725E-02	5.248420E-04
4.463492E+03	5.527372E-02	5.367042E-04
4.473478E+03	5.678377E-02	5.504033E-04
4.483463E+03	5.844305E-02	5.654992E-04
4.493449E+03	6.018998E-02	5.813883E-04
4.503434E+03	6.195629E-02	5.974064E-04
4.513419E+03	6.366940E-02	6.128523E-04
4.523405E+03	6.526029E-02	6.270639E-04
4.533390E+03	6.666572E-02	6.394390E-04
4.543376E+03	6.783003E-02	6.494518E-04
4.553361E+03	6.870911E-02	6.566916E-04
4.563347E+03	6.926940E-02	6.608505E-04
4.573332E+03	6.949081E-02	6.617522E-04
4.583318E+03	6.936520E-02	6.593352E-04
4.593303E+03	6.889665E-02	6.536553E-04
4.603288E+03	6.810056E-02	6.448754E-04
4.613274E+03	6.700462E-02	6.332741E-04
4.623259E+03	6.564324E-02	6.191919E-04
4.633245E+03	6.405962E-02	6.030501E-04
4.643230E+03	6.230079E-02	5.853033E-04
4.653216E+03	6.041531E-02	5.664172E-04
4.663201E+03	5.845279E-02	5.468644E-04
4.673186E+03	5.645817E-02	5.270699E-04
4.683172E+03	5.447365E-02	5.074299E-04
4.693157E+03	5.253648E-02	4.882917E-04
4.703143E+03	5.067622E-02	4.699279E-04
4.713128E+03	4.891720E-02	4.525602E-04
4.723114E+03	4.727727E-02	4.363485E-04
4.733099E+03	4.576794E-02	4.213923E-04
4.743085E+03	4.439535E-02	4.077408E-04
4.753070E+03	4.316196E-02	3.954086E-04
4.763055E+03	4.206505E-02	3.843626E-04
4.773041E+03	4.110111E-02	3.745621E-04
4.783026E+03	4.026454E-02	3.659477E-04
4.793012E+03	3.954863E-02	3.584503E-04
4.802997E+03	3.894758E-02	3.520092E-04
4.812983E+03	3.845450E-02	3.465543E-04
4.822968E+03	3.806216E-02	3.420130E-04
4.832954E+03	3.776205E-02	3.383016E-04
4.842939E+03	3.754359E-02	3.353186E-04
4.852924E+03	3.739407E-02	3.329447E-04
4.862910E+03	3.729602E-02	3.310194E-04
4.872895E+03	3.723100E-02	3.293757E-04
4.882881E+03	3.717826E-02	3.278279E-04
4.892866E+03	3.711848E-02	3.262058E-04
4.902852E+03	3.703500E-02	3.243643E-04
4.912837E+03	3.691734E-02	3.222148E-04
4.922823E+03	3.676337E-02	3.197423E-04
4.932808E+03	3.657892E-02	3.170016E-04
4.942793E+03	3.637954E-02	3.141303E-04
4.952779E+03	3.618748E-02	3.113222E-04
4.962764E+03	3.602971E-02	3.088085E-04
4.972750E+03	3.593473E-02	3.068303E-04
4.982735E+03	3.593045E-02	3.056196E-04
4.992721E+03	3.604181E-02	3.053796E-04
5.002706E+03	3.628764E-02	3.062587E-04
5.012691E+03	3.668185E-02	3.083610E-04
5.022677E+03	3.722989E-02	3.117182E-04
5.032662E+03	3.793056E-02	3.163056E-04
5.042648E+03	3.877567E-02	3.220404E-04
5.052633E+03	3.974909E-02	3.287756E-04
5.062619E+03	4.082826E-02	3.363133E-04
5.072604E+03	4.198404E-02	3.444050E-04
5.082590E+03	4.318286E-02	3.527700E-04
5.092575E+03	4.438645E-02	3.610943E-04
5.102560E+03	4.555321E-02	3.690425E-04
5.112546E+03	4.664179E-02	3.762869E-04
5.122531E+03	4.761130E-02	3.825092E-04
5.132517E+03	4.842352E-02	3.874183E-04
5.142502E+03	4.904437E-02	3.907613E-04
5.152488E+03	4.944657E-02	3.923434E-04
5.162473E+03	4.961025E-02	3.920320E-04
5.172459E+03	4.952661E-02	3.897836E-04
5.182444E+03	4.919591E-02	3.856266E-04
5.192429E+03	4.863131E-02	3.796891E-04
5.202415E+03	4.785786E-02	3.721894E-04
5.212400E+03	4.691162E-02	3.634275E-04
5.222386E+03	4.583556E-02	3.537512E-04
5.232371E+03	4.467852E-02	3.435478E-04
5.242357E+03	4.349149E-02	3.332149E-04
5.252342E+03	4.232107E-02	3.231107E-04
5.262328E+03	4.121077E-02	3.135640E-04
5.272313E+03	4.019523E-02	3.048326E-04
5.282298E+03	3.930059E-02	2.971062E-04
5.292284E+03	3.854399E-02	2.905051E-04
5.302269E+03	3.793239E-02	2.850719E-04
5.312255E+03	3.746575E-02	2.807971E-04
5.322240E+03	3.713636E-02	2.776147E-04
5.332226E+03	3.693019E-02	2.754132E-04
5.342211E+03	3.682818E-02	2.740457E-04
5.352196E+03	3.680578E-02	2.733264E-04
5.362182E+03	3.683627E-02	2.730558E-04
5.372167E+03	3.689103E-02	2.730223E-04
5.382153E+03	3.694168E-02	2.730176E-04
5.392138E+03	3.696439E-02	2.728670E-04
5.402124E+03	3.694062E-02	2.724339E-04
5.412109E+03	3.686102E-02	2.716493E-04
5.422095E+03	3.673617E-02	2.705902E-04
5.432080E+03	3.659285E-02	2.694521E-04
5.442065E+03	3.645970E-02	2.684435E-04
5.452051E+03	3.636475E-02	2.677687E-04
5.462036E+03	3.633089E-02	2.675941E-04
5.472022E+03	3.637362E-02	2.680323E-04
5.482007E+03	3.650148E-02	2.691456E-04
5.491993E+03	3.671539E-02	2.709406E-04
5.501978E+03	3.700766E-02	2.733611E-04
5.511964E+03	3.736333E-02	2.762973E-04
5.521949E+03	3.776112E-02	2.795927E-04
5.531934E+03	3.817619E-02	2.830638E-04
5.541920E+03	3.857941E-02	2.864943E-04
5.551905E+03	3.894324E-02	2.896782E-04
5.561891E+03	3.924224E-02	2.924239E-04
5.571876E+03	3.945580E-02	2.945740E-04
5.581862E+03	3.956932E-02	2.960145E-04
5.591847E+03	3.957411E-02	2.966742E-04
5.601833E+03	3.946859E-02	2.965348E-04
5.611818E+03	3.925642E-02	2.956164E-04
5.621803E+03	3.894644E-02	2.939783E-04
5.631789E+03	3.855292E-02	2.917212E-04
5.641774E+03	3.809250E-02	2.889648E-04
5.651760E+03	3.758435E-02	2.858488E-04
5.661745E+03	3.704996E-02	2.825324E-04
5.671731E+03	3.651154E-02	2.791817E-04
5.681716E+03	3.598985E-02	2.759540E-04
5.691701E+03	3.550558E-02	2.730076E-04
5.701687E+03	3.507728E-02	2.704866E-04
5.711672E+03	3.471979E-02	2.685080E-04
5.721658E+03	3.444513E-02	2.671687E-04
5.731643E+03	3.426045E-02	2.665291E-04
5.741629E+03	3.416920E-02	2.666214E-04
5.751614E+03	3.416984E-02	2.674396E-04
5.761600E+03	3.425671E-02	2.689454E-04
5.771585E+03	3.441879E-02	2.710577E-04
5.781570E+03	3.464317E-02	2.736800E-04
5.791556E+03	3.491223E-02	2.766771E-04
5.801541E+03	3.520772E-02	2.799072E-04
5.811527E+03	3.551055E-02	2.832202E-04
5.821512E+03	3.580269E-02	2.864723E-04
5.831498E+03	3.606879E-02	2.895399E-04
5.841483E+03	3.629639E-02	2.923207E-04
5.851469E+03	3.647671E-02	2.947408E-04
5.861454E+03	3.660420E-02	2.967519E-04
5.871439E+03	3.667768E-02	2.983405E-04
5.881425E+03	3.669704E-02	2.995013E-04
5.891410E+03	3.666412E-02	3.002454E-04
5.901396E+03	3.657993E-02	3.005772E-04
5.911381E+03	3.644514E-02	3.004980E-04
5.921367E+03	3.625766E-02	2.999868E-04
5.931352E+03	3.601202E-02	2.989937E-04
5.941338E+03	3.569864E-02	2.974344E-04
5.951323E+03	3.530371E-02	2.951875E-04
5.961308E+03	3.481022E-02	2.921034E-04
5.971294E+03	3.419791E-02	2.880027E-04
5.981279E+03	3.344847E-02	2.827195E-04
5.991265E+03	3.254573E-02	2.761040E-04
6.001250E+03	3.148088E-02	2.680661E-04
6.011236E+03	3.025577E-02	2.586057E-04
6.021221E+03	2.888409E-02	2.478235E-04
6.031207E+03	2.739483E-02	2.359536E-04
6.041192E+03	2.582801E-02	2.233286E-04
6.051177E+03	2.423325E-02	2.103694E-04
6.061163E+03	2.266327E-02	1.975306E-04
6.071148E+03	2.116875E-02	1.852558E-04
6.081134E+03	1.979451E-02	1.739449E-04
6.091119E+03	1.857656E-02	1.639263E-04
6.101105E+03	1.754121E-02	1.554484E-04
6.111090E+03	1.670572E-02	1.486839E-04
6.121075E+03	1.607984E-02	1.437413E-04
6.131061E+03	1.566754E-02	1.406799E-04
6.141046E+03	1.546860E-02	1.395225E-04
6.151032E+03	1.547966E-02	1.402648E-04
6.161017E+03	1.569427E-02	1.428747E-04
6.171003E+03	1.610241E-02	1.472874E-04
6.180988E+03	1.668921E-02	1.533930E-04
6.190974E+03	1.743375E-02	1.610238E-04
6.200959E+03	1.830759E-02	1.699391E-04
6.210944E+03	1.927486E-02	1.798235E-04
6.220930E+03	2.029284E-02	1.902915E-04
6.230915E+03	2.131405E-02	2.009047E-04
6.240901E+03	2.229088E-02	2.112139E-04
6.250886E+03	2.317976E-02	2.207989E-04
6.260872E+03	2.394365E-02	2.292928E-04
6.270857E+03	2.455615E-02	2.364228E-04
6.280843E+03	2.500242E-02	2.420223E-04
6.290828E+03	2.527776E-02	2.460194E-04
6.300813E+03	2.538894E-02	2.484526E-04
6.310799E+03	2.535036E-02	2.494368E-04
6.320784E+03	2.518216E-02	2.491461E-04
6.330770E+03	2.491041E-02	2.478174E-04
6.340755E+03	2.456317E-02	2.457135E-04
6.350741E+03	2.416931E-02	2.431108E-04
6.360726E+03	2.375769E-02	2.402923E-04
6.370712E+03	2.335600E-02	2.375355E-04
6.380697E+03	2.298694E-02	2.350729E-04
6.390682E+03	2.266821E-02	2.330911E-04
6.400668E+03	2.240927E-02	2.316953E-04
6.410653E+03	2.220784E-02	2.308713E-04
6.420639E+03	2.205611E-02	2.305463E-04
6.430624E+03	2.194380E-02	2.306198E-04
6.440610E+03	2.185975E-02	2.309802E-04
6.450595E+03	2.179286E-02	2.315135E-04
6.460580E+03	2.173368E-02	2.321211E-04
6.470566E+03	2.167381E-02	2.327136E-04
6.480551E+03	2.160659E-02	2.332182E-04
6.490537E+03	2.152650E-02	2.335734E-04
6.500522E+03	2.142970E-02	2.337344E-04
6.510508E+03	2.131368E-02	2.336703E-04
6.520493E+03	2.117669E-02	2.333581E-04
6.530479E+03	2.101872E-02	2.327938E-04
6.540464E+03	2.084031E-02	2.319793E-04
6.550449E+03	2.064240E-02	2.309214E-04
6.560435E+03	2.042716E-02	2.296410E-04
6.570420E+03	2.019654E-02	2.281569E-04
6.580406E+03	1.995308E-02	2.264952E-04
6.590391E+03	1.969976E-02	2.246877E-04
6.600377E+03	1.943865E-02	2.227562E-04
6.610362E+03	1.917334E-02	2.207408E-04
6.620348E+03	1.890536E-02	2.186584E-04
6.630333E+03	1.863767E-02	2.165430E-04
6.640318E+03	1.837202E-02	2.144150E-04
6.650304E+03	1.811025E-02	2.122964E-04
6.660289E+03	1.785420E-02	2.102096E-04
6.670275E+03	1.760483E-02	2.081667E-04
6.680260E+03	1.736307E-02	2.061801E-04
6.690246E+03	1.712958E-02	2.042587E-04
6.700231E+03	1.690499E-02	2.024116E-04
6.710217E+03	1.668878E-02	2.006339E-04
6.720202E+03	1.648134E-02	1.989317E-04
6.730187E+03	1.628197E-02	1.972977E-04
6.740173E+03	1.609004E-02	1.957259E-04
6.750158E+03	1.590481E-02	1.942084E-04
6.760144E+03	1.572545E-02	1.927358E-04
6.770129E+03	1.555134E-02	1.913017E-04
6.780115E+03	1.538104E-02	1.898894E-04
6.790100E+03	1.521403E-02	1.884927E-04
6.800085E+03	1.504954E-02	1.871030E-04
6.810071E+03	1.488699E-02	1.857134E-04
6.820056E+03	1.472591E-02	1.843185E-04
6.830042E+03	1.456598E-02	1.829147E-04
6.840027E+03	1.440706E-02	1.815006E-04
6.850013E+03	1.424888E-02	1.800732E-04
6.859998E+03	1.409184E-02	1.786379E-04
6.869984E+03	1.393620E-02	1.771983E-04
6.879969E+03	1.378207E-02	1.757563E-04
6.889954E+03	1.363012E-02	1.743209E-04
6.899940E+03	1.348083E-02	1.728988E-04
6.909925E+03	1.333441E-02	1.714933E-04
6.919911E+03	1.319135E-02	1.701110E-04
6.929896E+03	1.305230E-02	1.687615E-04
6.939882E+03	1.291738E-02	1.674465E-04
6.949867E+03	1.278687E-02	1.661705E-04
6.959853E+03	1.266119E-02	1.649397E-04
6.969838E+03	1.254020E-02	1.637531E-04
6.979823E+03	1.242391E-02	1.626115E-04
6.989809E+03	1.231204E-02	1.615118E-04
6.999794E+03	1.220496E-02	1.604595E-04
7.009780E+03	1.210227E-02	1.594502E-04
7.019765E+03	1.200376E-02	1.584815E-04
7.029751E+03	1.190895E-02	1.575479E-04
7.039736E+03	1.181781E-02	1.566494E-04
7.049722E+03	1.172979E-02	1.557790E-04
7.059707E+03	1.164497E-02	1.549387E-04
7.069692E+03	1.156228E-02	1.541143E-04
7.079678E+03	1.148173E-02	1.533065E-04
7.089663E+03	1.140261E-02	1.525063E-04
7.099649E+03	1.132466E-02	1.517103E-04
7.109634E+03	1.124691E-02	1.509058E-04
7.119620E+03	1.116927E-02	1.500920E-04
7.129605E+03	1.109074E-02	1.492558E-04
7.139590E+03	1.101101E-02	1.483929E-04
7.149576E+03	1.092950E-02	1.474958E-04
7.159561E+03	1.084562E-02	1.465567E-04
7.169547E+03	1.075854E-02	1.455645E-04
7.179532E+03	1.066765E-02	1.445110E-04
7.189518E+03	1.057257E-02	1.433911E-04
7.199503E+03	1.047246E-02	1.421936E-04
7.209489E+03	1.036699E-02	1.409142E-04
7.219474E+03	1.025522E-02	1.395398E-04
7.229459E+03	1.013717E-02	1.380712E-04
7.239445E+03	1.001234E-02	1.365012E-04
7.249430E+03	9.880560E-03	1.348278E-04
7.259416E+03	9.741825E-03	1.330510E-04
7.269401E+03	9.596291E-03	1.311731E-04
7.279387E+03	9.444287E-03	1.291986E-04
7.289372E+03	9.286482E-03	1.271369E-04
7.299358E+03	9.123077E-03	1.249910E-04
7.309343E+03	8.955403E-03	1.227792E-04
7.319328E+03	8.784087E-03	1.205105E-04
7.329314E+03	8.609828E-03	1.181947E-04
7.339299E+03	8.434164E-03	1.158533E-04
7.349285E+03	8.257680E-03	1.134946E-04
7.359270E+03	8.081924E-03	1.111402E-04
7.369256E+03	7.907669E-03	1.088012E-04
7.379241E+03	7.736050E-03	1.064935E-04
7.389227E+03	7.568167E-03	1.042327E-04
7.399212E+03	7.404929E-03	1.020317E-04
7.409197E+03	7.247580E-03	9.990798E-05
7.419183E+03	7.097153E-03	9.787620E-05
7.429168E+03	6.954347E-03	9.594640E-05
7.439154E+03	6.819986E-03	9.413034E-05
7.449139E+03	6.694857E-03	9.243925E-05
7.459125E+03	6.579518E-03	9.088122E-05
7.469110E+03	6.474428E-03	8.946296E-05
7.479095E+03	6.379922E-03	8.818946E-05
7.489081E+03	6.296346E-03	8.706586E-05
7.499066E+03	6.223735E-03	8.609299E-05
7.509052E+03	6.161978E-03	8.526966E-05
7.519037E+03	6.111121E-03	8.459685E-05
7.529023E+03	6.070653E-03	8.406780E-05
7.539008E+03	6.040270E-03	8.367867E-05
7.548994E+03	6.019599E-03	8.342459E-05
7.558979E+03	6.008246E-03	8.330046E-05
7.568964E+03	6.005805E-03	8.330097E-05
7.578950E+03	6.011728E-03	8.341888E-05
7.588935E+03	6.025644E-03	8.364937E-05
7.598921E+03	6.047391E-03	8.399056E-05
7.608906E+03	6.076559E-03	8.443712E-05
7.618892E+03	6.113118E-03	8.498906E-05
7.628877E+03	6.156660E-03	8.564107E-05
7.638863E+03	6.207485E-03	8.639779E-05
7.648848E+03	6.265524E-03	8.725870E-05
7.658833E+03	6.330927E-03	8.822640E-05
7.668819E+03	6.403896E-03	8.930422E-05
7.678804E+03	6.484775E-03	9.049754E-05
7.688790E+03	6.573528E-03	9.180650E-05
7.698775E+03	6.670137E-03	9.323148E-05
7.708761E+03	6.774582E-03	9.477293E-05
7.718746E+03	6.886422E-03	9.642544E-05
7.728732E+03	7.004756E-03	9.817718E-05
7.738717E+03	7.128716E-03	1.000168E-04
7.748702E+03	7.256915E-03	1.019255E-04
