#wls	flux	fluxerr
1.597671E+03	1.588001E-02	5.834873E-04
1.637612E+03	1.368929E-02	4.970234E-04
1.677554E+03	1.162442E-02	4.169647E-04
1.717496E+03	9.712172E-03	3.441099E-04
1.757438E+03	7.973325E-03	2.789959E-04
1.797379E+03	6.426935E-03	2.220595E-04
1.837321E+03	5.081482E-03	1.733397E-04
1.877263E+03	3.940912E-03	1.327054E-04
1.917205E+03	3.000127E-03	9.971600E-05
1.957146E+03	2.246953E-03	7.370719E-05
1.997088E+03	1.662501E-03	5.381891E-05
2.037030E+03	1.223653E-03	3.908995E-05
2.076972E+03	9.052059E-04	2.853486E-05
2.116914E+03	6.829096E-04	2.124289E-05
2.156855E+03	5.355271E-04	1.643869E-05
2.196797E+03	4.459819E-04	1.351034E-05
2.236739E+03	4.025424E-04	1.203559E-05
2.276681E+03	3.997739E-04	1.179876E-05
2.316622E+03	4.381046E-04	1.276561E-05
2.356564E+03	5.252691E-04	1.511367E-05
2.396506E+03	6.791492E-04	1.930030E-05
2.436448E+03	9.304787E-04	2.612175E-05
2.476389E+03	1.326005E-03	3.678035E-05
2.516331E+03	1.930680E-03	5.292060E-05
2.556273E+03	2.827024E-03	7.658552E-05
2.596215E+03	4.111073E-03	1.100840E-04
2.636156E+03	5.881444E-03	1.556840E-04
2.676098E+03	8.205183E-03	2.147182E-04
2.716040E+03	1.108012E-02	2.866592E-04
2.755982E+03	1.442107E-02	3.688678E-04
2.795924E+03	1.806481E-02	4.568363E-04
2.835865E+03	2.179023E-02	5.448005E-04
2.875807E+03	2.534695E-02	6.265227E-04
2.915749E+03	2.849296E-02	6.962487E-04
2.955691E+03	3.102518E-02	7.494309E-04
2.995632E+03	3.280524E-02	7.832863E-04
3.005618E+03	3.312359E-02	7.885869E-04
3.015603E+03	3.339148E-02	7.926481E-04
3.025589E+03	3.360721E-02	7.954404E-04
3.035574E+03	3.377351E-02	7.970386E-04
3.045560E+03	3.389014E-02	7.974479E-04
3.055545E+03	3.395813E-02	7.967022E-04
3.065530E+03	3.397950E-02	7.948586E-04
3.075516E+03	3.395657E-02	7.919804E-04
3.085501E+03	3.389046E-02	7.881024E-04
3.095487E+03	3.378473E-02	7.833157E-04
3.105472E+03	3.364099E-02	7.776653E-04
3.115458E+03	3.346247E-02	7.712330E-04
3.125443E+03	3.325253E-02	7.641030E-04
3.135429E+03	3.301393E-02	7.563443E-04
3.145414E+03	3.274894E-02	7.480148E-04
3.155399E+03	3.246245E-02	7.392307E-04
3.165385E+03	3.215618E-02	7.300350E-04
3.175370E+03	3.183431E-02	7.205266E-04
3.185356E+03	3.149982E-02	7.107756E-04
3.195341E+03	3.115561E-02	7.008495E-04
3.205327E+03	3.080448E-02	6.908129E-04
3.215312E+03	3.045034E-02	6.807547E-04
3.225298E+03	3.009525E-02	6.707210E-04
3.235283E+03	2.974178E-02	6.607692E-04
3.245268E+03	2.939288E-02	6.509642E-04
3.255254E+03	2.905137E-02	6.413671E-04
3.265239E+03	2.871900E-02	6.320147E-04
3.275225E+03	2.839836E-02	6.229619E-04
3.285210E+03	2.809148E-02	6.142507E-04
3.295196E+03	2.780077E-02	6.059306E-04
3.305181E+03	2.752771E-02	5.980303E-04
3.315166E+03	2.727415E-02	5.905861E-04
3.325152E+03	2.704276E-02	5.836515E-04
3.335137E+03	2.683458E-02	5.772441E-04
3.345123E+03	2.665188E-02	5.714075E-04
3.355108E+03	2.649695E-02	5.661853E-04
3.365094E+03	2.637102E-02	5.615976E-04
3.375079E+03	2.627692E-02	5.576981E-04
3.385065E+03	2.621612E-02	5.545112E-04
3.395050E+03	2.619097E-02	5.520792E-04
3.405035E+03	2.620427E-02	5.504531E-04
3.415021E+03	2.625824E-02	5.496706E-04
3.425006E+03	2.635542E-02	5.497758E-04
3.434992E+03	2.649749E-02	5.507943E-04
3.444977E+03	2.668661E-02	5.527605E-04
3.454963E+03	2.692333E-02	5.556755E-04
3.464948E+03	2.720667E-02	5.595082E-04
3.474934E+03	2.753484E-02	5.642116E-04
3.484919E+03	2.790416E-02	5.697001E-04
3.494904E+03	2.830983E-02	5.758665E-04
3.504890E+03	2.874570E-02	5.825777E-04
3.514875E+03	2.920388E-02	5.896667E-04
3.524861E+03	2.967562E-02	5.969522E-04
3.534846E+03	3.015136E-02	6.042384E-04
3.544832E+03	3.062105E-02	6.113234E-04
3.554817E+03	3.107490E-02	6.180130E-04
3.564803E+03	3.150368E-02	6.241276E-04
3.574788E+03	3.189876E-02	6.295020E-04
3.584773E+03	3.225269E-02	6.339969E-04
3.594759E+03	3.256006E-02	6.375152E-04
3.604744E+03	3.281607E-02	6.399738E-04
3.614730E+03	3.301864E-02	6.413439E-04
3.624715E+03	3.316864E-02	6.416544E-04
3.634701E+03	3.326840E-02	6.409623E-04
3.644686E+03	3.332273E-02	6.393713E-04
3.654671E+03	3.333840E-02	6.370217E-04
3.664657E+03	3.332425E-02	6.340908E-04
3.674642E+03	3.329048E-02	6.307786E-04
3.684628E+03	3.324837E-02	6.273028E-04
3.694613E+03	3.321146E-02	6.239200E-04
3.704599E+03	3.319270E-02	6.208707E-04
3.714584E+03	3.320665E-02	6.184221E-04
3.724570E+03	3.326746E-02	6.168283E-04
3.734555E+03	3.338946E-02	6.163423E-04
3.744540E+03	3.358635E-02	6.172006E-04
3.754526E+03	3.387126E-02	6.196249E-04
3.764511E+03	3.425709E-02	6.238277E-04
3.774497E+03	3.475504E-02	6.299868E-04
3.784482E+03	3.537501E-02	6.382520E-04
3.794468E+03	3.612414E-02	6.487206E-04
3.804453E+03	3.700787E-02	6.614563E-04
3.814439E+03	3.802667E-02	6.764326E-04
3.824424E+03	3.917760E-02	6.935625E-04
3.834409E+03	4.045186E-02	7.126564E-04
3.844395E+03	4.183684E-02	7.334604E-04
3.854380E+03	4.331339E-02	7.556111E-04
3.864366E+03	4.485942E-02	7.787005E-04
3.874351E+03	4.644794E-02	8.022437E-04
3.884337E+03	4.804938E-02	8.257204E-04
3.894322E+03	4.963322E-02	8.486050E-04
3.904308E+03	5.116951E-02	8.703919E-04
3.914293E+03	5.263048E-02	8.906236E-04
3.924278E+03	5.399210E-02	9.089147E-04
3.934264E+03	5.523568E-02	9.249788E-04
3.944249E+03	5.634969E-02	9.386550E-04
3.954235E+03	5.732877E-02	9.498892E-04
3.964220E+03	5.817234E-02	9.587081E-04
3.974206E+03	5.888721E-02	9.652603E-04
3.984191E+03	5.948317E-02	9.697404E-04
3.994176E+03	5.997313E-02	9.723905E-04
4.004162E+03	6.037070E-02	9.734593E-04
4.014147E+03	6.069060E-02	9.732090E-04
4.024133E+03	6.094700E-02	9.718874E-04
4.034118E+03	6.115088E-02	9.696873E-04
4.044104E+03	6.131182E-02	9.667748E-04
4.054089E+03	6.143649E-02	9.632678E-04
4.064075E+03	6.152959E-02	9.592509E-04
4.074060E+03	6.159328E-02	9.547677E-04
4.084045E+03	6.162846E-02	9.498415E-04
4.094031E+03	6.163395E-02	9.444637E-04
4.104016E+03	6.160720E-02	9.386050E-04
4.114002E+03	6.154466E-02	9.322222E-04
4.123987E+03	6.144117E-02	9.252488E-04
4.133973E+03	6.128910E-02	9.175835E-04
4.143958E+03	6.108090E-02	9.091282E-04
4.153944E+03	6.080658E-02	8.997519E-04
4.163929E+03	6.045679E-02	8.893361E-04
4.173914E+03	6.002274E-02	8.777738E-04
4.183900E+03	5.949671E-02	8.649757E-04
4.193885E+03	5.887354E-02	8.508927E-04
4.203871E+03	5.815229E-02	8.355375E-04
4.213856E+03	5.733633E-02	8.189840E-04
4.223842E+03	5.643359E-02	8.013699E-04
4.233827E+03	5.545602E-02	7.828858E-04
4.243813E+03	5.441906E-02	7.637676E-04
4.253798E+03	5.334015E-02	7.442735E-04
4.263783E+03	5.223975E-02	7.246971E-04
4.273769E+03	5.113773E-02	7.053177E-04
4.283754E+03	5.005424E-02	6.864111E-04
4.293740E+03	4.900664E-02	6.682091E-04
4.303725E+03	4.801111E-02	6.509219E-04
4.313711E+03	4.708022E-02	6.347061E-04
4.323696E+03	4.622382E-02	6.196782E-04
4.333681E+03	4.544956E-02	6.059228E-04
4.343667E+03	4.476397E-02	5.935075E-04
4.353652E+03	4.417593E-02	5.825289E-04
4.363638E+03	4.370007E-02	5.731570E-04
4.373623E+03	4.336712E-02	5.657681E-04
4.383609E+03	4.321091E-02	5.607713E-04
4.393594E+03	4.326075E-02	5.585090E-04
4.403580E+03	4.353972E-02	5.592375E-04
4.413565E+03	4.406237E-02	5.630993E-04
4.423550E+03	4.483332E-02	5.701087E-04
4.433536E+03	4.584909E-02	5.801786E-04
4.443521E+03	4.709844E-02	5.931269E-04
4.453507E+03	4.856567E-02	6.087179E-04
4.463492E+03	5.022864E-02	6.266397E-04
4.473478E+03	5.205823E-02	6.464999E-04
4.483463E+03	5.400512E-02	6.676638E-04
4.493449E+03	5.600462E-02	6.893189E-04
4.503434E+03	5.798935E-02	7.106343E-04
4.513419E+03	5.989345E-02	7.308113E-04
4.523405E+03	6.165446E-02	7.491056E-04
4.533390E+03	6.321444E-02	7.648398E-04
4.543376E+03	6.452355E-02	7.774442E-04
4.553361E+03	6.553999E-02	7.864544E-04
4.563347E+03	6.623087E-02	7.915193E-04
4.573332E+03	6.657357E-02	7.924146E-04
4.583318E+03	6.655571E-02	7.890409E-04
4.593303E+03	6.617550E-02	7.814247E-04
4.603288E+03	6.544552E-02	7.697607E-04
4.613274E+03	6.438827E-02	7.543569E-04
4.623259E+03	6.303596E-02	7.356300E-04
4.633245E+03	6.143205E-02	7.141209E-04
4.643230E+03	5.962560E-02	6.904275E-04
4.653216E+03	5.766862E-02	6.651730E-04
4.663201E+03	5.561595E-02	6.390040E-04
4.673186E+03	5.351933E-02	6.125219E-04
4.683172E+03	5.142745E-02	5.862847E-04
4.693157E+03	4.938339E-02	5.607783E-04
4.703143E+03	4.742407E-02	5.364121E-04
4.713128E+03	4.557851E-02	5.134995E-04
4.723114E+03	4.386952E-02	4.922802E-04
4.733099E+03	4.231171E-02	4.728979E-04
4.743085E+03	4.091381E-02	4.554287E-04
4.753070E+03	3.967575E-02	4.398495E-04
4.763055E+03	3.859401E-02	4.260991E-04
4.773041E+03	3.766279E-02	4.140924E-04
4.783026E+03	3.687397E-02	4.037192E-04
4.793012E+03	3.622001E-02	3.948775E-04
4.802997E+03	3.569303E-02	3.874628E-04
4.812983E+03	3.528803E-02	3.814030E-04
4.822968E+03	3.499944E-02	3.766206E-04
4.832954E+03	3.481953E-02	3.730161E-04
4.842939E+03	3.473819E-02	3.704656E-04
4.852924E+03	3.474130E-02	3.688047E-04
4.862910E+03	3.480783E-02	3.677984E-04
4.872895E+03	3.491030E-02	3.671480E-04
4.882881E+03	3.501685E-02	3.665144E-04
4.892866E+03	3.509471E-02	3.655554E-04
4.902852E+03	3.511576E-02	3.639837E-04
4.912837E+03	3.505827E-02	3.615841E-04
4.922823E+03	3.491285E-02	3.582725E-04
4.932808E+03	3.468720E-02	3.541415E-04
4.942793E+03	3.440188E-02	3.494135E-04
4.952779E+03	3.408772E-02	3.444100E-04
4.962764E+03	3.378307E-02	3.395221E-04
4.972750E+03	3.352977E-02	3.351674E-04
4.982735E+03	3.336702E-02	3.317283E-04
4.992721E+03	3.332790E-02	3.295182E-04
5.002706E+03	3.343909E-02	3.287801E-04
5.012691E+03	3.371925E-02	3.296725E-04
5.022677E+03	3.417638E-02	3.322462E-04
5.032662E+03	3.481028E-02	3.364707E-04
5.042648E+03	3.561355E-02	3.422464E-04
5.052633E+03	3.657116E-02	3.494025E-04
5.062619E+03	3.766129E-02	3.577073E-04
5.072604E+03	3.885677E-02	3.668835E-04
5.082590E+03	4.012494E-02	3.766091E-04
5.092575E+03	4.143035E-02	3.865433E-04
5.102560E+03	4.273403E-02	3.963215E-04
5.112546E+03	4.399518E-02	4.055710E-04
5.122531E+03	4.517340E-02	4.139328E-04
5.132517E+03	4.622926E-02	4.210652E-04
5.142502E+03	4.712612E-02	4.266616E-04
5.152488E+03	4.782988E-02	4.304457E-04
5.162473E+03	4.831216E-02	4.321999E-04
5.172459E+03	4.855122E-02	4.317713E-04
5.182444E+03	4.853236E-02	4.290730E-04
5.192429E+03	4.825425E-02	4.241380E-04
5.202415E+03	4.773150E-02	4.171375E-04
5.212400E+03	4.699250E-02	4.083584E-04
5.222386E+03	4.607613E-02	3.981707E-04
5.232371E+03	4.503175E-02	3.870260E-04
5.242357E+03	4.391287E-02	3.754002E-04
5.252342E+03	4.277298E-02	3.637588E-04
5.262328E+03	4.166084E-02	3.525167E-04
5.272313E+03	4.061802E-02	3.420195E-04
5.282298E+03	3.967620E-02	3.325235E-04
5.292284E+03	3.885345E-02	3.241668E-04
5.302269E+03	3.815853E-02	3.170084E-04
5.312255E+03	3.759302E-02	3.110478E-04
5.322240E+03	3.715028E-02	3.062179E-04
5.332226E+03	3.681900E-02	3.024151E-04
5.342211E+03	3.658409E-02	2.995080E-04
5.352196E+03	3.642646E-02	2.973351E-04
5.362182E+03	3.632354E-02	2.957099E-04
5.372167E+03	3.625059E-02	2.944305E-04
5.382153E+03	3.618259E-02	2.932953E-04
5.392138E+03	3.609634E-02	2.921163E-04
5.402124E+03	3.597641E-02	2.907660E-04
5.412109E+03	3.582138E-02	2.892305E-04
5.422095E+03	3.564548E-02	2.876207E-04
5.432080E+03	3.547249E-02	2.861237E-04
5.442065E+03	3.532381E-02	2.849072E-04
5.452051E+03	3.521934E-02	2.841271E-04
5.462036E+03	3.517511E-02	2.839085E-04
5.472022E+03	3.520274E-02	2.843418E-04
5.482007E+03	3.530651E-02	2.854594E-04
5.491993E+03	3.548600E-02	2.872566E-04
5.501978E+03	3.573262E-02	2.896629E-04
5.511964E+03	3.603096E-02	2.925533E-04
5.521949E+03	3.635983E-02	2.957549E-04
5.531934E+03	3.669079E-02	2.990351E-04
5.541920E+03	3.699285E-02	3.021386E-04
5.551905E+03	3.723756E-02	3.048285E-04
5.561891E+03	3.740265E-02	3.069163E-04
5.571876E+03	3.747199E-02	3.082614E-04
5.581862E+03	3.743625E-02	3.087781E-04
5.591847E+03	3.729305E-02	3.084365E-04
5.601833E+03	3.704574E-02	3.072537E-04
5.611818E+03	3.670199E-02	3.052827E-04
5.621803E+03	3.627388E-02	3.026139E-04
5.631789E+03	3.577689E-02	2.993673E-04
5.641774E+03	3.522848E-02	2.956812E-04
5.651760E+03	3.464886E-02	2.917185E-04
5.661745E+03	3.406055E-02	2.876645E-04
5.671731E+03	3.348608E-02	2.837068E-04
5.681716E+03	3.294807E-02	2.800366E-04
5.691701E+03	3.246903E-02	2.768469E-04
5.701687E+03	3.206883E-02	2.743106E-04
5.711672E+03	3.176363E-02	2.725718E-04
5.721658E+03	3.156605E-02	2.717454E-04
5.731643E+03	3.148392E-02	2.719071E-04
5.741629E+03	3.151853E-02	2.730768E-04
5.751614E+03	3.166679E-02	2.752366E-04
5.761600E+03	3.191859E-02	2.783072E-04
5.771585E+03	3.225862E-02	2.821628E-04
5.781570E+03	3.266616E-02	2.866288E-04
5.791556E+03	3.311707E-02	2.914978E-04
5.801541E+03	3.358344E-02	2.965270E-04
5.811527E+03	3.403720E-02	3.014691E-04
5.821512E+03	3.445215E-02	3.060904E-04
5.831498E+03	3.480671E-02	3.101957E-04
5.841483E+03	3.508603E-02	3.136477E-04
5.851469E+03	3.528026E-02	3.163527E-04
5.861454E+03	3.538708E-02	3.182833E-04
5.871439E+03	3.540871E-02	3.194534E-04
5.881425E+03	3.535162E-02	3.199155E-04
5.891410E+03	3.522376E-02	3.197362E-04
5.901396E+03	3.503383E-02	3.189899E-04
5.911381E+03	3.479030E-02	3.177503E-04
5.921367E+03	3.449845E-02	3.160622E-04
5.931352E+03	3.416227E-02	3.139598E-04
5.941338E+03	3.378002E-02	3.114242E-04
5.951323E+03	3.334311E-02	3.083735E-04
5.961308E+03	3.283777E-02	3.046762E-04
5.971294E+03	3.224752E-02	3.001740E-04
5.981279E+03	3.155313E-02	2.946805E-04
5.991265E+03	3.073496E-02	2.880028E-04
6.001250E+03	2.977911E-02	2.799990E-04
6.011236E+03	2.867758E-02	2.705803E-04
6.021221E+03	2.743407E-02	2.597667E-04
6.031207E+03	2.606724E-02	2.477203E-04
6.041192E+03	2.461435E-02	2.347818E-04
6.051177E+03	2.312213E-02	2.213870E-04
6.061163E+03	2.164120E-02	2.080156E-04
6.071148E+03	2.022291E-02	1.951608E-04
6.081134E+03	1.891283E-02	1.832683E-04
6.091119E+03	1.774648E-02	1.726929E-04
6.101105E+03	1.675017E-02	1.637063E-04
6.111090E+03	1.594120E-02	1.564969E-04
6.121075E+03	1.532989E-02	1.511888E-04
6.131061E+03	1.492082E-02	1.478526E-04
6.141046E+03	1.471497E-02	1.465254E-04
6.151032E+03	1.471069E-02	1.472204E-04
6.161017E+03	1.490238E-02	1.499124E-04
6.171003E+03	1.528102E-02	1.545430E-04
6.180988E+03	1.583388E-02	1.610159E-04
6.190974E+03	1.654064E-02	1.691562E-04
6.200959E+03	1.737310E-02	1.787033E-04
6.210944E+03	1.829471E-02	1.893052E-04
6.220930E+03	1.926144E-02	2.005232E-04
6.230915E+03	2.022339E-02	2.118468E-04
6.240901E+03	2.113047E-02	2.227504E-04
6.250886E+03	2.194175E-02	2.327913E-04
6.260872E+03	2.262678E-02	2.416269E-04
6.270857E+03	2.316505E-02	2.490117E-04
6.280843E+03	2.354678E-02	2.548091E-04
6.290828E+03	2.377234E-02	2.589890E-04
6.300813E+03	2.385112E-02	2.616192E-04
6.310799E+03	2.379675E-02	2.628159E-04
6.320784E+03	2.362957E-02	2.627734E-04
6.330770E+03	2.337162E-02	2.617103E-04
6.340755E+03	2.304750E-02	2.598804E-04
6.350741E+03	2.268328E-02	2.575621E-04
6.360726E+03	2.230454E-02	2.550359E-04
6.370712E+03	2.193712E-02	2.525933E-04
6.380697E+03	2.160431E-02	2.505050E-04
6.390682E+03	2.132569E-02	2.490061E-04
6.400668E+03	2.111096E-02	2.482220E-04
6.410653E+03	2.095359E-02	2.480894E-04
6.420639E+03	2.084206E-02	2.484834E-04
6.430624E+03	2.076429E-02	2.492690E-04
6.440610E+03	2.070843E-02	2.503100E-04
6.450595E+03	2.066305E-02	2.514714E-04
6.460580E+03	2.061893E-02	2.526418E-04
6.470566E+03	2.056836E-02	2.537249E-04
6.480551E+03	2.050525E-02	2.546425E-04
6.490537E+03	2.042477E-02	2.553302E-04
6.500522E+03	2.032337E-02	2.557375E-04
6.510508E+03	2.019923E-02	2.558357E-04
6.520493E+03	2.005092E-02	2.555996E-04
6.530479E+03	1.987888E-02	2.550284E-04
6.540464E+03	1.968381E-02	2.541244E-04
6.550449E+03	1.946796E-02	2.529105E-04
6.560435E+03	1.923347E-02	2.514092E-04
6.570420E+03	1.898317E-02	2.496527E-04
6.580406E+03	1.872016E-02	2.476776E-04
6.590391E+03	1.844788E-02	2.455267E-04
6.600377E+03	1.816876E-02	2.432298E-04
6.610362E+03	1.788644E-02	2.408342E-04
6.620348E+03	1.760337E-02	2.383725E-04
6.630333E+03	1.732206E-02	2.358784E-04
6.640318E+03	1.704515E-02	2.333887E-04
6.650304E+03	1.677408E-02	2.309241E-04
6.660289E+03	1.651104E-02	2.285165E-04
6.670275E+03	1.625717E-02	2.261836E-04
6.680260E+03	1.601348E-02	2.239416E-04
6.690246E+03	1.578082E-02	2.218052E-04
6.700231E+03	1.555925E-02	2.197775E-04
6.710217E+03	1.534871E-02	2.178603E-04
6.720202E+03	1.514876E-02	2.160498E-04
6.730187E+03	1.495907E-02	2.143437E-04
6.740173E+03	1.477847E-02	2.127275E-04
6.750158E+03	1.460587E-02	2.111873E-04
6.760144E+03	1.444043E-02	2.097129E-04
6.770129E+03	1.428069E-02	2.082845E-04
6.780115E+03	1.412542E-02	2.068855E-04
6.790100E+03	1.397388E-02	2.055060E-04
6.800085E+03	1.382462E-02	2.041257E-04
6.810071E+03	1.367730E-02	2.027400E-04
6.820056E+03	1.353138E-02	2.013418E-04
6.830042E+03	1.338598E-02	1.999183E-04
6.840027E+03	1.324129E-02	1.984730E-04
6.850013E+03	1.309712E-02	1.970033E-04
6.859998E+03	1.295358E-02	1.955114E-04
6.869984E+03	1.281086E-02	1.940008E-04
6.879969E+03	1.266938E-02	1.924783E-04
6.889954E+03	1.252983E-02	1.909549E-04
6.899940E+03	1.239215E-02	1.894307E-04
6.909925E+03	1.225739E-02	1.879222E-04
6.919911E+03	1.212558E-02	1.864308E-04
6.929896E+03	1.199760E-02	1.849709E-04
6.939882E+03	1.187337E-02	1.835423E-04
6.949867E+03	1.175365E-02	1.821573E-04
6.959853E+03	1.163811E-02	1.808123E-04
6.969838E+03	1.152709E-02	1.795131E-04
6.979823E+03	1.142058E-02	1.782605E-04
6.989809E+03	1.131824E-02	1.770502E-04
6.999794E+03	1.122044E-02	1.758888E-04
7.009780E+03	1.112660E-02	1.747680E-04
7.019765E+03	1.103652E-02	1.736855E-04
7.029751E+03	1.095028E-02	1.726430E-04
7.039736E+03	1.086767E-02	1.716382E-04
7.049722E+03	1.078823E-02	1.706644E-04
7.059707E+03	1.071172E-02	1.697184E-04
7.069692E+03	1.063805E-02	1.687992E-04
7.079678E+03	1.056663E-02	1.678982E-04
7.089663E+03	1.049708E-02	1.670097E-04
7.099649E+03	1.042895E-02	1.661272E-04
7.109634E+03	1.036198E-02	1.652467E-04
7.119620E+03	1.029528E-02	1.643546E-04
7.129605E+03	1.022878E-02	1.634500E-04
7.139590E+03	1.016149E-02	1.625176E-04
7.149576E+03	1.009307E-02	1.615523E-04
7.159561E+03	1.002294E-02	1.605450E-04
7.169547E+03	9.950422E-03	1.594853E-04
7.179532E+03	9.874650E-03	1.583595E-04
7.189518E+03	9.795134E-03	1.571603E-04
7.199503E+03	9.711159E-03	1.558764E-04
7.209489E+03	9.621846E-03	1.544942E-04
7.219474E+03	9.526554E-03	1.530036E-04
7.229459E+03	9.424921E-03	1.513995E-04
7.239445E+03	9.316329E-03	1.496722E-04
7.249430E+03	9.200485E-03	1.478177E-04
7.259416E+03	9.077449E-03	1.458374E-04
7.269401E+03	8.947127E-03	1.437305E-04
7.279387E+03	8.809780E-03	1.415018E-04
7.289372E+03	8.666207E-03	1.391649E-04
7.299358E+03	8.516433E-03	1.367208E-04
7.309343E+03	8.361749E-03	1.341911E-04
7.319328E+03	8.202594E-03	1.315836E-04
7.329314E+03	8.040318E-03	1.289206E-04
7.339299E+03	7.875743E-03	1.262162E-04
7.349285E+03	7.710062E-03	1.234902E-04
7.359270E+03	7.544494E-03	1.207628E-04
7.369256E+03	7.379860E-03	1.180478E-04
7.379241E+03	7.217624E-03	1.153691E-04
7.389227E+03	7.058539E-03	1.127394E-04
7.399212E+03	6.903485E-03	1.101733E-04
7.409197E+03	6.753947E-03	1.076947E-04
7.419183E+03	6.610331E-03	1.053106E-04
7.429168E+03	6.473939E-03	1.030419E-04
7.439154E+03	6.345577E-03	1.009015E-04
7.449139E+03	6.225767E-03	9.889805E-05
7.459125E+03	6.115123E-03	9.704115E-05
7.469110E+03	6.014268E-03	9.534071E-05
7.479095E+03	5.923583E-03	9.380266E-05
7.489081E+03	5.843427E-03	9.243259E-05
7.499066E+03	5.773835E-03	9.123083E-05
7.509052E+03	5.714671E-03	9.019505E-05
7.519037E+03	5.665791E-03	8.932276E-05
7.529023E+03	5.626924E-03	8.860949E-05
7.539008E+03	5.597617E-03	8.804791E-05
7.548994E+03	5.577628E-03	8.763401E-05
7.558979E+03	5.566254E-03	8.735662E-05
7.568964E+03	5.563366E-03	8.721357E-05
7.578950E+03	5.568415E-03	8.719618E-05
7.588935E+03	5.580855E-03	8.729586E-05
7.598921E+03	5.600476E-03	8.750935E-05
7.608906E+03	5.626806E-03	8.782931E-05
7.618892E+03	5.659707E-03	8.825367E-05
7.628877E+03	5.698994E-03	8.877971E-05
7.638863E+03	5.744380E-03	8.940315E-05
7.648848E+03	5.795997E-03	9.012627E-05
7.658833E+03	5.853850E-03	9.094945E-05
7.668819E+03	5.918343E-03	9.187929E-05
7.678804E+03	5.989710E-03	9.291981E-05
7.688790E+03	6.068026E-03	9.407261E-05
7.698775E+03	6.153576E-03	9.534262E-05
7.708761E+03	6.246314E-03	9.672971E-05
7.718746E+03	6.345986E-03	9.823062E-05
7.728732E+03	6.452075E-03	9.983811E-05
7.738717E+03	6.563786E-03	1.015408E-04
7.748702E+03	6.680027E-03	1.033226E-04
