#wls	flux	fluxerr
1.597671E+03	1.506990E-02	7.091010E-04
1.637612E+03	1.292429E-02	6.010502E-04
1.677554E+03	1.091559E-02	5.016275E-04
1.717496E+03	9.067911E-03	4.117173E-04
1.757438E+03	7.403010E-03	3.320399E-04
1.797379E+03	5.935029E-03	2.629254E-04
1.837321E+03	4.670890E-03	2.043529E-04
1.877263E+03	3.610043E-03	1.559608E-04
1.917205E+03	2.743299E-03	1.170190E-04
1.957146E+03	2.055319E-03	8.655834E-05
1.997088E+03	1.525003E-03	6.340492E-05
2.037030E+03	1.127802E-03	4.629076E-05
2.076972E+03	8.393200E-04	3.400910E-05
2.116914E+03	6.368991E-04	2.547735E-05
2.156855E+03	5.022140E-04	1.983403E-05
2.196797E+03	4.200999E-04	1.638135E-05
2.236739E+03	3.799835E-04	1.463146E-05
2.276681E+03	3.766944E-04	1.432532E-05
2.316622E+03	4.103681E-04	1.541542E-05
2.356564E+03	4.876295E-04	1.809732E-05
2.396506E+03	6.236174E-04	2.286977E-05
2.436448E+03	8.444404E-04	3.060562E-05
2.476389E+03	1.189778E-03	4.262290E-05
2.516331E+03	1.714726E-03	6.072382E-05
2.556273E+03	2.489043E-03	8.713875E-05
2.596215E+03	3.591822E-03	1.243141E-04
2.636156E+03	5.099798E-03	1.744946E-04
2.676098E+03	7.062827E-03	2.388978E-04
2.716040E+03	9.476028E-03	3.168326E-04
2.755982E+03	1.226783E-02	4.054069E-04
2.795924E+03	1.529835E-02	4.996000E-04
2.835865E+03	1.837451E-02	5.928801E-04
2.875807E+03	2.127976E-02	6.782586E-04
2.915749E+03	2.380543E-02	7.493266E-04
2.955691E+03	2.578763E-02	8.013978E-04
2.995632E+03	2.712210E-02	8.318830E-04
3.005618E+03	2.734955E-02	8.360673E-04
3.015603E+03	2.753422E-02	8.388923E-04
3.025589E+03	2.767705E-02	8.403995E-04
3.035574E+03	2.777853E-02	8.406158E-04
3.045560E+03	2.783940E-02	8.395759E-04
3.055545E+03	2.786135E-02	8.373430E-04
3.065530E+03	2.784628E-02	8.339861E-04
3.075516E+03	2.779498E-02	8.295390E-04
3.085501E+03	2.771036E-02	8.241001E-04
3.095487E+03	2.759368E-02	8.177159E-04
3.105472E+03	2.744811E-02	8.104910E-04
3.115458E+03	2.727511E-02	8.024765E-04
3.125443E+03	2.707808E-02	7.937808E-04
3.135429E+03	2.685869E-02	7.844605E-04
3.145414E+03	2.661987E-02	7.746076E-04
3.155399E+03	2.636448E-02	7.643117E-04
3.165385E+03	2.609433E-02	7.536304E-04
3.175370E+03	2.581284E-02	7.426672E-04
3.185356E+03	2.552231E-02	7.314915E-04
3.195341E+03	2.522499E-02	7.201707E-04
3.205327E+03	2.492359E-02	7.087845E-04
3.215312E+03	2.462022E-02	6.973946E-04
3.225298E+03	2.431742E-02	6.860732E-04
3.235283E+03	2.401716E-02	6.748756E-04
3.245268E+03	2.372134E-02	6.638548E-04
3.255254E+03	2.343221E-02	6.530722E-04
3.265239E+03	2.315191E-02	6.425852E-04
3.275225E+03	2.288170E-02	6.324262E-04
3.285210E+03	2.262323E-02	6.226368E-04
3.295196E+03	2.237880E-02	6.132767E-04
3.305181E+03	2.214955E-02	6.043723E-04
3.315166E+03	2.193733E-02	5.959686E-04
3.325152E+03	2.174360E-02	5.880995E-04
3.335137E+03	2.156950E-02	5.807893E-04
3.345123E+03	2.141687E-02	5.740804E-04
3.355108E+03	2.128754E-02	5.680140E-04
3.365094E+03	2.118247E-02	5.626071E-04
3.375079E+03	2.110362E-02	5.579030E-04
3.385065E+03	2.105272E-02	5.539375E-04
3.395050E+03	2.103163E-02	5.507485E-04
3.405035E+03	2.104175E-02	5.483615E-04
3.415021E+03	2.108577E-02	5.468346E-04
3.425006E+03	2.116542E-02	5.461991E-04
3.434992E+03	2.128291E-02	5.464977E-04
3.444977E+03	2.144100E-02	5.477862E-04
3.454963E+03	2.164045E-02	5.500677E-04
3.464948E+03	2.188065E-02	5.533102E-04
3.474934E+03	2.215973E-02	5.574500E-04
3.484919E+03	2.247502E-02	5.624043E-04
3.494904E+03	2.282232E-02	5.680531E-04
3.504890E+03	2.319639E-02	5.742531E-04
3.514875E+03	2.359048E-02	5.808265E-04
3.524861E+03	2.399787E-02	5.875993E-04
3.534846E+03	2.441037E-02	5.943656E-04
3.544832E+03	2.481919E-02	6.009095E-04
3.554817E+03	2.521621E-02	6.070363E-04
3.564803E+03	2.559385E-02	6.125678E-04
3.574788E+03	2.594433E-02	6.173264E-04
3.584773E+03	2.626148E-02	6.211765E-04
3.594759E+03	2.654030E-02	6.240140E-04
3.604744E+03	2.677650E-02	6.257540E-04
3.614730E+03	2.696857E-02	6.263796E-04
3.624715E+03	2.711564E-02	6.258888E-04
3.634701E+03	2.721928E-02	6.243367E-04
3.644686E+03	2.728255E-02	6.218124E-04
3.654671E+03	2.731049E-02	6.184471E-04
3.664657E+03	2.730972E-02	6.144056E-04
3.674642E+03	2.728850E-02	6.098853E-04
3.684628E+03	2.725696E-02	6.051205E-04
3.694613E+03	2.722540E-02	6.003430E-04
3.704599E+03	2.720576E-02	5.958148E-04
3.714584E+03	2.721113E-02	5.918157E-04
3.724570E+03	2.725411E-02	5.886064E-04
3.734555E+03	2.734739E-02	5.864426E-04
3.744540E+03	2.750352E-02	5.855679E-04
3.754526E+03	2.773502E-02	5.862184E-04
3.764511E+03	2.805366E-02	5.886060E-04
3.774497E+03	2.847074E-02	5.929253E-04
3.784482E+03	2.899759E-02	5.993643E-04
3.794468E+03	2.964213E-02	6.080331E-04
3.804453E+03	3.041092E-02	6.190093E-04
3.814439E+03	3.130817E-02	6.323184E-04
3.824424E+03	3.233056E-02	6.478319E-04
3.834409E+03	3.347043E-02	6.653366E-04
3.844395E+03	3.471610E-02	6.845449E-04
3.854380E+03	3.605050E-02	7.050714E-04
3.864366E+03	3.745105E-02	7.264337E-04
3.874351E+03	3.889223E-02	7.481083E-04
3.884337E+03	4.034649E-02	7.695491E-04
3.894322E+03	4.178362E-02	7.901777E-04
3.904308E+03	4.317385E-02	8.094439E-04
3.914293E+03	4.449197E-02	8.269020E-04
3.924278E+03	4.571579E-02	8.421786E-04
3.934264E+03	4.682691E-02	8.549846E-04
3.944249E+03	4.781808E-02	8.652451E-04
3.954235E+03	4.868670E-02	8.729737E-04
3.964220E+03	4.943648E-02	8.782979E-04
3.974206E+03	5.007541E-02	8.814191E-04
3.984191E+03	5.061608E-02	8.826132E-04
3.994176E+03	5.107247E-02	8.821728E-04
4.004162E+03	5.146029E-02	8.804106E-04
4.014147E+03	5.179431E-02	8.776133E-04
4.024133E+03	5.208963E-02	8.740638E-04
4.034118E+03	5.235531E-02	8.699347E-04
4.044104E+03	5.259963E-02	8.653797E-04
4.054089E+03	5.282810E-02	8.605030E-04
4.064075E+03	5.304266E-02	8.553467E-04
4.074060E+03	5.324222E-02	8.499041E-04
4.084045E+03	5.342675E-02	8.441857E-04
4.094031E+03	5.359359E-02	8.381615E-04
4.104016E+03	5.373951E-02	8.317940E-04
4.114002E+03	5.386062E-02	8.250383E-04
4.123987E+03	5.394989E-02	8.178039E-04
4.133973E+03	5.399884E-02	8.099836E-04
4.143958E+03	5.399797E-02	8.014602E-04
4.153944E+03	5.393289E-02	7.920504E-04
4.163929E+03	5.378944E-02	7.815832E-04
4.173914E+03	5.355345E-02	7.698960E-04
4.183900E+03	5.321211E-02	7.568534E-04
4.193885E+03	5.275581E-02	7.423724E-04
4.203871E+03	5.217791E-02	7.264160E-04
4.213856E+03	5.147906E-02	7.090505E-04
4.223842E+03	5.066390E-02	6.903951E-04
4.233827E+03	4.974317E-02	6.706465E-04
4.243813E+03	4.873122E-02	6.500427E-04
4.253798E+03	4.764687E-02	6.288705E-04
4.263783E+03	4.651142E-02	6.074375E-04
4.273769E+03	4.534752E-02	5.860554E-04
4.283754E+03	4.417919E-02	5.650406E-04
4.293740E+03	4.303044E-02	5.446954E-04
4.303725E+03	4.192162E-02	5.252635E-04
4.313711E+03	4.087459E-02	5.069969E-04
4.323696E+03	3.990833E-02	4.901018E-04
4.333681E+03	3.903834E-02	4.747332E-04
4.343667E+03	3.828154E-02	4.610572E-04
4.353652E+03	3.765579E-02	4.492448E-04
4.363638E+03	3.718061E-02	4.394800E-04
4.373623E+03	3.688578E-02	4.320614E-04
4.383609E+03	3.680450E-02	4.273176E-04
4.393594E+03	3.696418E-02	4.255012E-04
4.403580E+03	3.738912E-02	4.268234E-04
4.413565E+03	3.809621E-02	4.314084E-04
4.423550E+03	3.908355E-02	4.391695E-04
4.433536E+03	4.033809E-02	4.499033E-04
4.443521E+03	4.184049E-02	4.633478E-04
4.453507E+03	4.356417E-02	4.791745E-04
4.463492E+03	4.547461E-02	4.969773E-04
4.473478E+03	4.752702E-02	5.162470E-04
4.483463E+03	4.967165E-02	5.364356E-04
4.493449E+03	5.185021E-02	5.569159E-04
4.503434E+03	5.400072E-02	5.770350E-04
4.513419E+03	5.606349E-02	5.961760E-04
4.523405E+03	5.798235E-02	6.137683E-04
4.533390E+03	5.970193E-02	6.292571E-04
4.543376E+03	6.117170E-02	6.421432E-04
4.553361E+03	6.234882E-02	6.520114E-04
4.563347E+03	6.319642E-02	6.585101E-04
4.573332E+03	6.368517E-02	6.613660E-04
4.583318E+03	6.379514E-02	6.604020E-04
4.593303E+03	6.352140E-02	6.555935E-04
4.603288E+03	6.287008E-02	6.470260E-04
4.613274E+03	6.186217E-02	6.349335E-04
4.623259E+03	6.053228E-02	6.196846E-04
4.633245E+03	5.892287E-02	6.017224E-04
4.643230E+03	5.708410E-02	5.815633E-04
4.653216E+03	5.507441E-02	5.598032E-04
4.663201E+03	5.295276E-02	5.370378E-04
4.673186E+03	5.077599E-02	5.138378E-04
4.683172E+03	4.859960E-02	4.907560E-04
4.693157E+03	4.647205E-02	4.682713E-04
4.703143E+03	4.443616E-02	4.468034E-04
4.713128E+03	4.252651E-02	4.266867E-04
4.723114E+03	4.076784E-02	4.081558E-04
4.733099E+03	3.917774E-02	3.913725E-04
4.743085E+03	3.776413E-02	3.764016E-04
4.753070E+03	3.652534E-02	3.632120E-04
4.763055E+03	3.545408E-02	3.517178E-04
4.773041E+03	3.454210E-02	3.418236E-04
4.783026E+03	3.377993E-02	3.334233E-04
4.793012E+03	3.315898E-02	3.264196E-04
4.802997E+03	3.267263E-02	3.207355E-04
4.812983E+03	3.231578E-02	3.163089E-04
4.822968E+03	3.208565E-02	3.131004E-04
4.832954E+03	3.197687E-02	3.110449E-04
4.842939E+03	3.198015E-02	3.100397E-04
4.852924E+03	3.208034E-02	3.099254E-04
4.862910E+03	3.225624E-02	3.104863E-04
4.872895E+03	3.247316E-02	3.113793E-04
4.882881E+03	3.268937E-02	3.121993E-04
4.892866E+03	3.286353E-02	3.125509E-04
4.902852E+03	3.295825E-02	3.120835E-04
4.912837E+03	3.294367E-02	3.105243E-04
4.922823E+03	3.280492E-02	3.077477E-04
4.932808E+03	3.255054E-02	3.038503E-04
4.942793E+03	3.220491E-02	2.990759E-04
4.952779E+03	3.180283E-02	2.937609E-04
4.962764E+03	3.139075E-02	2.883427E-04
4.972750E+03	3.101724E-02	2.832689E-04
4.982735E+03	3.072900E-02	2.789598E-04
4.992721E+03	3.056447E-02	2.757505E-04
5.002706E+03	3.055636E-02	2.739153E-04
5.012691E+03	3.072787E-02	2.736350E-04
5.022677E+03	3.108797E-02	2.749579E-04
5.032662E+03	3.163552E-02	2.778398E-04
5.042648E+03	3.236404E-02	2.821894E-04
5.052633E+03	3.325920E-02	2.878475E-04
5.062619E+03	3.430032E-02	2.946035E-04
5.072604E+03	3.546242E-02	3.022152E-04
5.082590E+03	3.671868E-02	3.104313E-04
5.092575E+03	3.803738E-02	3.189668E-04
5.102560E+03	3.938534E-02	3.275336E-04
5.112546E+03	4.072860E-02	3.358472E-04
5.122531E+03	4.203151E-02	3.436198E-04
5.132517E+03	4.325663E-02	3.505603E-04
5.142502E+03	4.436731E-02	3.563959E-04
5.152488E+03	4.532743E-02	3.608696E-04
5.162473E+03	4.610115E-02	3.637381E-04
5.172459E+03	4.665487E-02	3.647867E-04
5.182444E+03	4.696072E-02	3.638555E-04
5.192429E+03	4.700237E-02	3.608810E-04
5.202415E+03	4.677951E-02	3.559259E-04
5.212400E+03	4.630770E-02	3.491717E-04
5.222386E+03	4.561783E-02	3.409088E-04
5.232371E+03	4.475467E-02	3.315203E-04
5.242357E+03	4.377179E-02	3.214403E-04
5.252342E+03	4.272414E-02	3.110970E-04
5.262328E+03	4.166529E-02	3.008939E-04
5.272313E+03	4.064193E-02	2.911708E-04
5.282298E+03	3.969078E-02	2.821854E-04
5.292284E+03	3.883150E-02	2.740672E-04
5.302269E+03	3.807311E-02	2.668674E-04
5.312255E+03	3.741953E-02	2.606015E-04
5.322240E+03	3.686587E-02	2.552241E-04
5.332226E+03	3.640418E-02	2.506715E-04
5.342211E+03	3.602517E-02	2.468732E-04
5.352196E+03	3.571748E-02	2.437475E-04
5.362182E+03	3.546991E-02	2.412164E-04
5.372167E+03	3.526845E-02	2.391847E-04
5.382153E+03	3.508734E-02	2.374788E-04
5.392138E+03	3.490084E-02	2.359177E-04
5.402124E+03	3.469020E-02	2.343648E-04
5.412109E+03	3.444677E-02	2.327504E-04
5.422095E+03	3.418381E-02	2.311518E-04
5.432080E+03	3.392895E-02	2.297432E-04
5.442065E+03	3.370259E-02	2.286507E-04
5.452051E+03	3.352243E-02	2.279838E-04
5.462036E+03	3.340272E-02	2.278305E-04
5.472022E+03	3.335132E-02	2.282375E-04
5.482007E+03	3.337020E-02	2.292130E-04
5.491993E+03	3.345642E-02	2.307326E-04
5.501978E+03	3.359882E-02	2.327161E-04
5.511964E+03	3.378021E-02	2.350404E-04
5.521949E+03	3.397813E-02	2.375443E-04
5.531934E+03	3.416374E-02	2.400189E-04
5.541920E+03	3.430553E-02	2.422326E-04
5.551905E+03	3.437740E-02	2.439877E-04
5.561891E+03	3.436227E-02	2.451471E-04
5.571876E+03	3.425091E-02	2.456274E-04
5.581862E+03	3.404009E-02	2.453874E-04
5.591847E+03	3.373482E-02	2.444457E-04
5.601833E+03	3.334342E-02	2.428461E-04
5.611818E+03	3.287770E-02	2.406600E-04
5.621803E+03	3.235218E-02	2.379813E-04
5.631789E+03	3.178204E-02	2.349119E-04
5.641774E+03	3.118455E-02	2.315722E-04
5.651760E+03	3.057951E-02	2.281045E-04
5.661745E+03	2.998773E-02	2.246623E-04
5.671731E+03	2.942921E-02	2.213960E-04
5.681716E+03	2.892736E-02	2.184850E-04
5.691701E+03	2.850380E-02	2.160975E-04
5.701687E+03	2.817642E-02	2.143761E-04
5.711672E+03	2.796170E-02	2.134538E-04
5.721658E+03	2.787161E-02	2.134305E-04
5.731643E+03	2.791334E-02	2.143692E-04
5.741629E+03	2.808675E-02	2.162765E-04
5.751614E+03	2.838646E-02	2.191172E-04
5.761600E+03	2.880128E-02	2.228099E-04
5.771585E+03	2.931173E-02	2.272069E-04
5.781570E+03	2.989176E-02	2.321076E-04
5.791556E+03	3.051129E-02	2.372784E-04
5.801541E+03	3.113612E-02	2.424515E-04
5.811527E+03	3.172921E-02	2.473362E-04
5.821512E+03	3.225750E-02	2.516718E-04
5.831498E+03	3.269590E-02	2.552603E-04
5.841483E+03	3.302607E-02	2.579567E-04
5.851469E+03	3.323851E-02	2.596864E-04
5.861454E+03	3.333362E-02	2.604532E-04
5.871439E+03	3.331905E-02	2.603193E-04
5.881425E+03	3.320593E-02	2.593749E-04
5.891410E+03	3.300863E-02	2.577369E-04
5.901396E+03	3.274168E-02	2.555238E-04
5.911381E+03	3.241869E-02	2.528473E-04
5.921367E+03	3.205217E-02	2.498112E-04
5.931352E+03	3.165184E-02	2.464972E-04
5.941338E+03	3.122243E-02	2.429485E-04
5.951323E+03	3.075916E-02	2.391341E-04
5.961308E+03	3.025392E-02	2.349974E-04
5.971294E+03	2.969305E-02	2.304392E-04
5.981279E+03	2.905785E-02	2.253209E-04
5.991265E+03	2.832884E-02	2.194984E-04
6.001250E+03	2.748797E-02	2.128387E-04
6.011236E+03	2.652019E-02	2.052310E-04
6.021221E+03	2.541873E-02	1.966280E-04
6.031207E+03	2.419472E-02	1.871187E-04
6.041192E+03	2.288050E-02	1.769545E-04
6.051177E+03	2.151921E-02	1.664678E-04
6.061163E+03	2.015881E-02	1.560271E-04
6.071148E+03	1.884850E-02	1.460096E-04
6.081134E+03	1.763203E-02	1.367504E-04
6.091119E+03	1.654409E-02	1.285165E-04
6.101105E+03	1.560959E-02	1.215006E-04
6.111090E+03	1.484645E-02	1.158447E-04
6.121075E+03	1.426514E-02	1.116363E-04
6.131061E+03	1.387036E-02	1.089218E-04
6.141046E+03	1.366423E-02	1.077319E-04
6.151032E+03	1.364593E-02	1.080784E-04
6.161017E+03	1.380985E-02	1.099401E-04
6.171003E+03	1.414736E-02	1.132758E-04
6.180988E+03	1.464744E-02	1.180290E-04
6.190974E+03	1.529093E-02	1.240790E-04
6.200959E+03	1.605196E-02	1.312472E-04
6.210944E+03	1.689588E-02	1.392790E-04
6.220930E+03	1.777993E-02	1.478451E-04
6.230915E+03	1.865435E-02	1.565460E-04
6.240901E+03	1.947010E-02	1.649726E-04
6.250886E+03	2.019120E-02	1.728094E-04
6.260872E+03	2.079305E-02	1.798243E-04
6.270857E+03	2.125919E-02	1.858443E-04
6.280843E+03	2.158537E-02	1.907943E-04
6.290828E+03	2.177502E-02	1.946631E-04
6.300813E+03	2.183783E-02	1.974943E-04
6.310799E+03	2.178704E-02	1.993654E-04
6.320784E+03	2.163979E-02	2.003935E-04
6.330770E+03	2.141488E-02	2.007175E-04
6.340755E+03	2.113308E-02	2.005021E-04
6.350741E+03	2.081571E-02	1.999261E-04
6.360726E+03	2.048601E-02	1.991970E-04
6.370712E+03	2.016808E-02	1.985418E-04
6.380697E+03	1.988580E-02	1.981973E-04
6.390682E+03	1.965938E-02	1.983756E-04
6.400668E+03	1.949841E-02	1.991911E-04
6.410653E+03	1.939441E-02	2.005767E-04
6.420639E+03	1.933138E-02	2.023830E-04
6.430624E+03	1.929562E-02	2.044772E-04
6.440610E+03	1.927380E-02	2.067238E-04
6.450595E+03	1.925532E-02	2.090103E-04
6.460580E+03	1.923126E-02	2.112372E-04
6.470566E+03	1.919482E-02	2.133243E-04
6.480551E+03	1.914113E-02	2.152092E-04
6.490537E+03	1.906607E-02	2.168362E-04
6.500522E+03	1.896650E-02	2.181585E-04
6.510508E+03	1.884123E-02	2.191507E-04
6.520493E+03	1.868981E-02	2.197955E-04
6.530479E+03	1.851222E-02	2.200808E-04
6.540464E+03	1.831053E-02	2.200198E-04
6.550449E+03	1.808643E-02	2.196225E-04
6.560435E+03	1.784290E-02	2.189155E-04
6.570420E+03	1.758357E-02	2.179356E-04
6.580406E+03	1.731158E-02	2.167153E-04
6.590391E+03	1.703048E-02	2.152941E-04
6.600377E+03	1.674403E-02	2.137163E-04
6.610362E+03	1.645487E-02	2.120136E-04
6.620348E+03	1.616652E-02	2.102307E-04
6.630333E+03	1.588148E-02	2.084006E-04
6.640318E+03	1.560182E-02	2.065520E-04
6.650304E+03	1.533013E-02	2.047217E-04
6.660289E+03	1.506768E-02	2.029297E-04
6.670275E+03	1.481629E-02	2.012043E-04
6.680260E+03	1.457648E-02	1.995565E-04
6.690246E+03	1.434940E-02	1.980067E-04
6.700231E+03	1.413500E-02	1.965586E-04
6.710217E+03	1.393290E-02	1.952116E-04
6.720202E+03	1.374318E-02	1.939708E-04
6.730187E+03	1.356477E-02	1.928254E-04
6.740173E+03	1.339662E-02	1.917643E-04
6.750158E+03	1.323756E-02	1.907741E-04
6.760144E+03	1.308624E-02	1.898382E-04
6.770129E+03	1.294150E-02	1.889424E-04
6.780115E+03	1.280157E-02	1.880629E-04
6.790100E+03	1.266568E-02	1.871900E-04
6.800085E+03	1.253251E-02	1.863056E-04
6.810071E+03	1.240118E-02	1.853979E-04
6.820056E+03	1.227122E-02	1.844606E-04
6.830042E+03	1.214192E-02	1.834839E-04
6.840027E+03	1.201301E-02	1.824644E-04
6.850013E+03	1.188440E-02	1.814013E-04
6.859998E+03	1.175639E-02	1.802999E-04
6.869984E+03	1.162897E-02	1.791609E-04
6.879969E+03	1.150246E-02	1.779898E-04
6.889954E+03	1.137727E-02	1.767941E-04
6.899940E+03	1.125409E-02	1.755853E-04
6.909925E+03	1.113335E-02	1.743713E-04
6.919911E+03	1.101512E-02	1.731542E-04
6.929896E+03	1.090024E-02	1.719484E-04
6.939882E+03	1.078879E-02	1.707567E-04
6.949867E+03	1.068124E-02	1.695874E-04
6.959853E+03	1.057755E-02	1.684412E-04
6.969838E+03	1.047774E-02	1.673199E-04
6.979823E+03	1.038202E-02	1.662276E-04
6.989809E+03	1.029013E-02	1.651615E-04
6.999794E+03	1.020214E-02	1.641239E-04
7.009780E+03	1.011774E-02	1.631105E-04
7.019765E+03	1.003680E-02	1.621206E-04
7.029751E+03	9.959361E-03	1.611554E-04
7.039736E+03	9.885075E-03	1.602101E-04
7.049722E+03	9.813787E-03	1.592832E-04
7.059707E+03	9.745456E-03	1.583746E-04
7.069692E+03	9.679643E-03	1.574779E-04
7.079678E+03	9.616277E-03	1.565925E-04
7.089663E+03	9.554824E-03	1.557105E-04
7.099649E+03	9.495124E-03	1.548296E-04
7.109634E+03	9.436624E-03	1.539415E-04
7.119620E+03	9.378902E-03	1.530398E-04
7.129605E+03	9.321714E-03	1.521209E-04
7.139590E+03	9.264605E-03	1.511779E-04
7.149576E+03	9.206836E-03	1.501994E-04
7.159561E+03	9.147819E-03	1.491762E-04
7.169547E+03	9.087297E-03	1.481046E-04
7.179532E+03	9.024007E-03	1.469648E-04
7.189518E+03	8.957776E-03	1.457546E-04
7.199503E+03	8.887294E-03	1.444535E-04
7.209489E+03	8.812402E-03	1.430597E-04
7.219474E+03	8.732032E-03	1.415569E-04
7.229459E+03	8.645747E-03	1.399393E-04
7.239445E+03	8.553085E-03	1.382005E-04
7.249430E+03	8.453508E-03	1.363333E-04
7.259416E+03	8.346999E-03	1.343390E-04
7.269401E+03	8.233602E-03	1.322200E-04
7.279387E+03	8.113323E-03	1.299782E-04
7.289372E+03	7.986687E-03	1.276238E-04
7.299358E+03	7.854242E-03	1.251675E-04
7.309343E+03	7.716659E-03	1.226220E-04
7.319328E+03	7.574539E-03	1.199986E-04
7.329314E+03	7.428990E-03	1.173169E-04
7.339299E+03	7.280999E-03	1.145941E-04
7.349285E+03	7.131392E-03	1.118449E-04
7.359270E+03	6.981187E-03	1.090868E-04
7.369256E+03	6.831531E-03	1.063390E-04
7.379241E+03	6.683177E-03	1.036145E-04
7.389227E+03	6.537186E-03	1.009305E-04
7.399212E+03	6.394243E-03	9.829859E-05
7.409197E+03	6.255323E-03	9.573412E-05
7.419183E+03	6.121280E-03	9.325053E-05
7.429168E+03	5.992962E-03	9.086078E-05
7.439154E+03	5.871322E-03	8.857911E-05
7.449139E+03	5.757036E-03	8.641521E-05
7.459125E+03	5.651007E-03	8.438191E-05
7.469110E+03	5.553871E-03	8.248767E-05
7.479095E+03	5.466111E-03	8.073835E-05
7.489081E+03	5.388063E-03	7.913747E-05
7.499066E+03	5.319772E-03	7.768406E-05
7.509052E+03	5.261457E-03	7.637956E-05
7.519037E+03	5.212684E-03	7.521582E-05
7.529023E+03	5.173449E-03	7.419100E-05
7.539008E+03	5.143134E-03	7.329437E-05
7.548994E+03	5.121455E-03	7.252015E-05
7.558979E+03	5.107965E-03	7.186032E-05
7.568964E+03	5.102094E-03	7.130528E-05
7.578950E+03	5.103504E-03	7.084881E-05
7.588935E+03	5.111615E-03	7.048157E-05
7.598921E+03	5.126023E-03	7.019676E-05
7.608906E+03	5.146483E-03	6.998995E-05
7.618892E+03	5.172543E-03	6.985408E-05
7.628877E+03	5.203989E-03	6.978546E-05
7.638863E+03	5.240676E-03	6.978144E-05
7.648848E+03	5.282740E-03	6.984325E-05
7.658833E+03	5.330056E-03	6.996867E-05
7.668819E+03	5.383163E-03	7.016430E-05
7.678804E+03	5.442197E-03	7.043144E-05
7.688790E+03	5.507443E-03	7.077332E-05
7.698775E+03	5.579112E-03	7.119233E-05
7.708761E+03	5.657277E-03	7.168911E-05
7.718746E+03	5.741804E-03	7.226189E-05
7.728732E+03	5.832515E-03	7.290857E-05
7.738717E+03	5.928853E-03	7.362258E-05
7.748702E+03	6.029682E-03	7.439066E-05
