#wls	flux	fluxerr
1.597671E+03	4.456906E-03	3.293638E-04
1.637612E+03	3.677481E-03	2.670553E-04
1.677554E+03	2.998680E-03	2.139290E-04
1.717496E+03	2.418094E-03	1.694311E-04
1.757438E+03	1.929440E-03	1.327507E-04
1.797379E+03	1.525551E-03	1.030479E-04
1.837321E+03	1.197181E-03	7.938132E-05
1.877263E+03	9.347521E-04	6.083624E-05
1.917205E+03	7.280952E-04	4.651003E-05
1.957146E+03	5.679816E-04	3.561215E-05
1.997088E+03	4.456334E-04	2.742780E-05
2.037030E+03	3.535020E-04	2.136153E-05
2.076972E+03	2.853610E-04	1.693473E-05
2.116914E+03	2.363120E-04	1.377746E-05
2.156855E+03	2.029407E-04	1.162928E-05
2.196797E+03	1.827707E-04	1.029999E-05
2.236739E+03	1.743849E-04	9.671170E-06
2.276681E+03	1.775510E-04	9.697417E-06
2.316622E+03	1.930634E-04	1.039266E-05
2.356564E+03	2.231629E-04	1.184895E-05
2.396506E+03	2.719824E-04	1.425484E-05
2.436448E+03	3.460055E-04	1.791357E-05
2.476389E+03	4.541734E-04	2.324284E-05
2.516331E+03	6.074341E-04	3.074690E-05
2.556273E+03	8.174479E-04	4.094850E-05
2.596215E+03	1.093618E-03	5.424184E-05
2.636156E+03	1.439501E-03	7.072315E-05
2.676098E+03	1.851310E-03	9.013092E-05
2.716040E+03	2.318450E-03	1.118868E-04
2.755982E+03	2.822232E-03	1.350451E-04
2.795924E+03	3.336982E-03	1.583593E-04
2.835865E+03	3.832181E-03	1.803929E-04
2.875807E+03	4.277022E-03	1.997390E-04
2.915749E+03	4.645554E-03	2.152568E-04
2.955691E+03	4.919821E-03	2.262066E-04
2.995632E+03	5.092928E-03	2.323749E-04
3.005618E+03	5.120691E-03	2.331955E-04
3.015603E+03	5.142369E-03	2.337363E-04
3.025589E+03	5.158117E-03	2.340058E-04
3.035574E+03	5.168383E-03	2.340257E-04
3.045560E+03	5.173103E-03	2.337946E-04
3.055545E+03	5.173045E-03	2.333485E-04
3.065530E+03	5.167920E-03	2.326755E-04
3.075516E+03	5.158270E-03	2.318009E-04
3.085501E+03	5.144641E-03	2.307498E-04
3.095487E+03	5.127072E-03	2.295247E-04
3.105472E+03	5.106123E-03	2.281511E-04
3.115458E+03	5.082101E-03	2.266433E-04
3.125443E+03	5.055321E-03	2.250155E-04
3.135429E+03	5.025859E-03	2.232715E-04
3.145414E+03	4.994745E-03	2.214574E-04
3.155399E+03	4.961807E-03	2.195656E-04
3.165385E+03	4.927584E-03	2.176200E-04
3.175370E+03	4.892370E-03	2.156336E-04
3.185356E+03	4.856666E-03	2.136285E-04
3.195341E+03	4.820527E-03	2.116069E-04
3.205327E+03	4.784432E-03	2.095896E-04
3.215312E+03	4.748634E-03	2.075876E-04
3.225298E+03	4.713367E-03	2.056105E-04
3.235283E+03	4.679059E-03	2.036768E-04
3.245268E+03	4.645917E-03	2.017949E-04
3.255254E+03	4.614315E-03	1.999805E-04
3.265239E+03	4.584255E-03	1.982331E-04
3.275225E+03	4.556080E-03	1.965669E-04
3.285210E+03	4.529946E-03	1.949878E-04
3.295196E+03	4.506166E-03	1.935085E-04
3.305181E+03	4.484685E-03	1.921257E-04
3.315166E+03	4.465960E-03	1.908582E-04
3.325152E+03	4.450069E-03	1.897082E-04
3.335137E+03	4.436942E-03	1.886717E-04
3.345123E+03	4.426960E-03	1.877637E-04
3.355108E+03	4.420018E-03	1.869786E-04
3.365094E+03	4.416471E-03	1.863302E-04
3.375079E+03	4.416189E-03	1.858117E-04
3.385065E+03	4.419190E-03	1.854224E-04
3.395050E+03	4.425769E-03	1.851733E-04
3.405035E+03	4.435773E-03	1.850565E-04
3.415021E+03	4.449323E-03	1.850755E-04
3.425006E+03	4.466390E-03	1.852276E-04
3.434992E+03	4.486928E-03	1.855092E-04
3.444977E+03	4.510896E-03	1.859171E-04
3.454963E+03	4.538367E-03	1.864524E-04
3.464948E+03	4.569148E-03	1.871056E-04
3.474934E+03	4.603303E-03	1.878775E-04
3.484919E+03	4.640631E-03	1.887583E-04
3.494904E+03	4.681071E-03	1.897436E-04
3.504890E+03	4.724421E-03	1.908236E-04
3.514875E+03	4.770754E-03	1.919994E-04
3.524861E+03	4.819762E-03	1.932570E-04
3.534846E+03	4.871404E-03	1.945929E-04
3.544832E+03	4.925521E-03	1.959992E-04
3.554817E+03	4.981987E-03	1.974692E-04
3.564803E+03	5.040922E-03	1.990059E-04
3.574788E+03	5.101874E-03	2.005898E-04
3.584773E+03	5.165023E-03	2.022263E-04
3.594759E+03	5.230334E-03	2.039125E-04
3.604744E+03	5.297681E-03	2.056417E-04
3.614730E+03	5.367094E-03	2.074134E-04
3.624715E+03	5.438641E-03	2.092286E-04
3.634701E+03	5.512654E-03	2.110980E-04
3.644686E+03	5.589149E-03	2.130205E-04
3.654671E+03	5.668407E-03	2.150044E-04
3.664657E+03	5.750730E-03	2.170592E-04
3.674642E+03	5.836344E-03	2.191907E-04
3.684628E+03	5.925724E-03	2.214142E-04
3.694613E+03	6.019001E-03	2.237315E-04
3.704599E+03	6.116680E-03	2.261582E-04
3.714584E+03	6.219029E-03	2.287009E-04
3.724570E+03	6.326436E-03	2.313699E-04
3.734555E+03	6.439267E-03	2.341747E-04
3.744540E+03	6.557756E-03	2.371195E-04
3.754526E+03	6.682348E-03	2.402157E-04
3.764511E+03	6.813205E-03	2.434643E-04
3.774497E+03	6.950441E-03	2.468644E-04
3.784482E+03	7.094362E-03	2.504214E-04
3.794468E+03	7.245089E-03	2.541342E-04
3.804453E+03	7.402423E-03	2.579902E-04
3.814439E+03	7.566460E-03	2.619870E-04
3.824424E+03	7.737094E-03	2.661153E-04
3.834409E+03	7.914005E-03	2.703584E-04
3.844395E+03	8.096908E-03	2.747010E-04
3.854380E+03	8.285446E-03	2.791255E-04
3.864366E+03	8.479036E-03	2.836074E-04
3.874351E+03	8.677149E-03	2.881240E-04
3.884337E+03	8.879316E-03	2.926554E-04
3.894322E+03	9.084746E-03	2.971715E-04
3.904308E+03	9.292578E-03	3.016407E-04
3.914293E+03	9.502182E-03	3.060399E-04
3.924278E+03	9.712621E-03	3.103366E-04
3.934264E+03	9.923075E-03	3.145032E-04
3.944249E+03	1.013271E-02	3.185124E-04
3.954235E+03	1.034069E-02	3.223382E-04
3.964220E+03	1.054605E-02	3.259508E-04
3.974206E+03	1.074797E-02	3.293269E-04
3.984191E+03	1.094582E-02	3.324491E-04
3.994176E+03	1.113868E-02	3.352928E-04
4.004162E+03	1.132567E-02	3.378353E-04
4.014147E+03	1.150624E-02	3.400648E-04
4.024133E+03	1.167971E-02	3.419669E-04
4.034118E+03	1.184528E-02	3.435242E-04
4.044104E+03	1.200218E-02	3.447213E-04
4.054089E+03	1.215014E-02	3.455580E-04
4.064075E+03	1.228844E-02	3.460220E-04
4.074060E+03	1.241638E-02	3.461028E-04
4.084045E+03	1.253345E-02	3.457961E-04
4.094031E+03	1.263920E-02	3.450994E-04
4.104016E+03	1.273334E-02	3.440159E-04
4.114002E+03	1.281519E-02	3.425385E-04
4.123987E+03	1.288442E-02	3.406707E-04
4.133973E+03	1.294080E-02	3.384186E-04
4.143958E+03	1.298432E-02	3.357950E-04
4.153944E+03	1.301461E-02	3.328035E-04
4.163929E+03	1.303174E-02	3.294589E-04
4.173914E+03	1.303607E-02	3.257837E-04
4.183900E+03	1.302762E-02	3.217919E-04
4.193885E+03	1.300690E-02	3.175092E-04
4.203871E+03	1.297475E-02	3.129683E-04
4.213856E+03	1.293168E-02	3.081944E-04
4.223842E+03	1.287873E-02	3.032233E-04
4.233827E+03	1.281708E-02	2.980935E-04
4.243813E+03	1.274809E-02	2.928460E-04
4.253798E+03	1.267309E-02	2.875201E-04
4.263783E+03	1.259359E-02	2.821568E-04
4.273769E+03	1.251146E-02	2.768044E-04
4.283754E+03	1.242841E-02	2.715043E-04
4.293740E+03	1.234633E-02	2.663009E-04
4.303725E+03	1.226702E-02	2.612344E-04
4.313711E+03	1.219257E-02	2.563491E-04
4.323696E+03	1.212480E-02	2.516813E-04
4.333681E+03	1.206560E-02	2.472673E-04
4.343667E+03	1.201696E-02	2.431435E-04
4.353652E+03	1.198064E-02	2.393401E-04
4.363638E+03	1.195833E-02	2.358838E-04
4.373623E+03	1.195173E-02	2.328011E-04
4.383609E+03	1.196243E-02	2.301143E-04
4.393594E+03	1.199185E-02	2.278423E-04
4.403580E+03	1.204154E-02	2.260052E-04
4.413565E+03	1.211259E-02	2.246143E-04
4.423550E+03	1.220591E-02	2.236774E-04
4.433536E+03	1.232235E-02	2.232012E-04
4.443521E+03	1.246238E-02	2.231860E-04
4.453507E+03	1.262603E-02	2.236257E-04
4.463492E+03	1.281335E-02	2.245145E-04
4.473478E+03	1.302313E-02	2.258273E-04
4.483463E+03	1.325371E-02	2.275325E-04
4.493449E+03	1.350213E-02	2.295792E-04
4.503434E+03	1.376522E-02	2.319161E-04
4.513419E+03	1.403883E-02	2.344778E-04
4.523405E+03	1.431900E-02	2.372063E-04
4.533390E+03	1.460132E-02	2.400375E-04
4.543376E+03	1.488092E-02	2.428982E-04
4.553361E+03	1.515354E-02	2.457224E-04
4.563347E+03	1.541444E-02	2.484370E-04
4.573332E+03	1.565958E-02	2.509808E-04
4.583318E+03	1.588485E-02	2.532911E-04
4.593303E+03	1.608712E-02	2.553209E-04
4.603288E+03	1.626334E-02	2.570237E-04
4.613274E+03	1.641134E-02	2.583662E-04
4.623259E+03	1.652967E-02	2.593251E-04
4.633245E+03	1.661779E-02	2.598908E-04
4.643230E+03	1.667545E-02	2.600565E-04
4.653216E+03	1.670357E-02	2.598332E-04
4.663201E+03	1.670324E-02	2.592333E-04
4.673186E+03	1.667646E-02	2.582824E-04
4.683172E+03	1.662552E-02	2.570100E-04
4.693157E+03	1.655322E-02	2.554533E-04
4.703143E+03	1.646228E-02	2.536473E-04
4.713128E+03	1.635603E-02	2.516367E-04
4.723114E+03	1.623780E-02	2.494663E-04
4.733099E+03	1.611054E-02	2.471742E-04
4.743085E+03	1.597812E-02	2.448141E-04
4.753070E+03	1.584324E-02	2.424207E-04
4.763055E+03	1.570907E-02	2.400369E-04
4.773041E+03	1.557787E-02	2.376914E-04
4.783026E+03	1.545199E-02	2.354150E-04
4.793012E+03	1.533332E-02	2.332314E-04
4.802997E+03	1.522313E-02	2.311551E-04
4.812983E+03	1.512268E-02	2.292007E-04
4.822968E+03	1.503282E-02	2.273766E-04
4.832954E+03	1.495418E-02	2.256880E-04
4.842939E+03	1.488703E-02	2.241351E-04
4.852924E+03	1.483167E-02	2.227180E-04
4.862910E+03	1.478813E-02	2.214334E-04
4.872895E+03	1.475653E-02	2.202791E-04
4.882881E+03	1.473698E-02	2.192528E-04
4.892866E+03	1.472918E-02	2.183458E-04
4.902852E+03	1.473343E-02	2.175591E-04
4.912837E+03	1.474987E-02	2.168901E-04
4.922823E+03	1.477856E-02	2.163359E-04
4.932808E+03	1.481996E-02	2.158988E-04
4.942793E+03	1.487436E-02	2.155785E-04
4.952779E+03	1.494245E-02	2.153802E-04
4.962764E+03	1.502485E-02	2.153079E-04
4.972750E+03	1.512211E-02	2.153639E-04
4.982735E+03	1.523510E-02	2.155551E-04
4.992721E+03	1.536441E-02	2.158835E-04
5.002706E+03	1.551088E-02	2.163545E-04
5.012691E+03	1.567515E-02	2.169698E-04
5.022677E+03	1.585741E-02	2.177247E-04
5.032662E+03	1.605831E-02	2.186205E-04
5.042648E+03	1.627787E-02	2.196490E-04
5.052633E+03	1.651616E-02	2.208034E-04
5.062619E+03	1.677252E-02	2.220664E-04
5.072604E+03	1.704666E-02	2.234259E-04
5.082590E+03	1.733748E-02	2.248596E-04
5.092575E+03	1.764352E-02	2.263414E-04
5.102560E+03	1.796357E-02	2.278492E-04
5.112546E+03	1.829535E-02	2.293483E-04
5.122531E+03	1.863679E-02	2.308090E-04
5.132517E+03	1.898539E-02	2.321976E-04
5.142502E+03	1.933819E-02	2.334772E-04
5.152488E+03	1.969240E-02	2.346157E-04
5.162473E+03	2.004471E-02	2.355775E-04
5.172459E+03	2.039211E-02	2.363338E-04
5.182444E+03	2.073119E-02	2.368542E-04
5.192429E+03	2.105879E-02	2.371150E-04
5.202415E+03	2.137193E-02	2.370973E-04
5.212400E+03	2.166781E-02	2.367883E-04
5.222386E+03	2.194371E-02	2.361788E-04
5.232371E+03	2.219793E-02	2.352738E-04
5.242357E+03	2.242824E-02	2.340753E-04
5.252342E+03	2.263331E-02	2.325971E-04
5.262328E+03	2.281243E-02	2.308614E-04
5.272313E+03	2.296489E-02	2.288921E-04
5.282298E+03	2.309062E-02	2.267201E-04
5.292284E+03	2.318991E-02	2.243809E-04
5.302269E+03	2.326317E-02	2.219112E-04
5.312255E+03	2.331155E-02	2.193542E-04
5.322240E+03	2.333615E-02	2.167523E-04
5.332226E+03	2.333776E-02	2.141433E-04
5.342211E+03	2.331786E-02	2.115704E-04
5.352196E+03	2.327766E-02	2.090722E-04
5.362182E+03	2.321820E-02	2.066834E-04
5.372167E+03	2.313979E-02	2.044296E-04
5.382153E+03	2.304330E-02	2.023385E-04
5.392138E+03	2.292846E-02	2.004246E-04
5.402124E+03	2.279472E-02	1.986961E-04
5.412109E+03	2.264210E-02	1.971550E-04
5.422095E+03	2.247237E-02	1.957965E-04
5.432080E+03	2.228821E-02	1.946174E-04
5.442065E+03	2.209244E-02	1.936135E-04
5.452051E+03	2.188811E-02	1.927816E-04
5.462036E+03	2.167689E-02	1.921061E-04
5.472022E+03	2.146093E-02	1.915756E-04
5.482007E+03	2.124117E-02	1.911692E-04
5.491993E+03	2.101899E-02	1.908705E-04
5.501978E+03	2.079541E-02	1.906617E-04
5.511964E+03	2.057095E-02	1.905222E-04
5.521949E+03	2.034697E-02	1.904408E-04
5.531934E+03	2.012442E-02	1.904046E-04
5.541920E+03	1.990414E-02	1.904019E-04
5.551905E+03	1.968741E-02	1.904272E-04
5.561891E+03	1.947522E-02	1.904745E-04
5.571876E+03	1.926903E-02	1.905442E-04
5.581862E+03	1.907035E-02	1.906399E-04
5.591847E+03	1.888033E-02	1.907632E-04
5.601833E+03	1.870035E-02	1.909201E-04
5.611818E+03	1.853177E-02	1.911180E-04
5.621803E+03	1.837607E-02	1.913671E-04
5.631789E+03	1.823445E-02	1.916763E-04
5.641774E+03	1.810797E-02	1.920541E-04
5.651760E+03	1.799754E-02	1.925083E-04
5.661745E+03	1.790386E-02	1.930452E-04
5.671731E+03	1.782758E-02	1.936712E-04
5.681716E+03	1.776850E-02	1.943837E-04
5.691701E+03	1.772708E-02	1.951874E-04
5.701687E+03	1.770251E-02	1.960730E-04
5.711672E+03	1.769424E-02	1.970336E-04
5.721658E+03	1.770116E-02	1.980563E-04
5.731643E+03	1.772183E-02	1.991234E-04
5.741629E+03	1.775446E-02	2.002136E-04
5.751614E+03	1.779714E-02	2.013031E-04
5.761600E+03	1.784731E-02	2.023607E-04
5.771585E+03	1.790248E-02	2.033560E-04
5.781570E+03	1.795963E-02	2.042520E-04
5.791556E+03	1.801594E-02	2.050141E-04
5.801541E+03	1.806833E-02	2.056052E-04
5.811527E+03	1.811371E-02	2.059884E-04
5.821512E+03	1.814905E-02	2.061282E-04
5.831498E+03	1.817148E-02	2.059916E-04
5.841483E+03	1.817852E-02	2.055515E-04
5.851469E+03	1.816762E-02	2.047809E-04
5.861454E+03	1.813694E-02	2.036626E-04
5.871439E+03	1.808465E-02	2.021808E-04
5.881425E+03	1.800996E-02	2.003326E-04
5.891410E+03	1.791173E-02	1.981132E-04
5.901396E+03	1.778987E-02	1.955307E-04
5.911381E+03	1.764475E-02	1.925996E-04
5.921367E+03	1.747680E-02	1.893362E-04
5.931352E+03	1.728708E-02	1.857644E-04
5.941338E+03	1.707718E-02	1.819151E-04
5.951323E+03	1.684870E-02	1.778192E-04
5.961308E+03	1.660388E-02	1.735151E-04
5.971294E+03	1.634505E-02	1.690415E-04
5.981279E+03	1.607474E-02	1.644394E-04
5.991265E+03	1.579562E-02	1.597502E-04
6.001250E+03	1.551047E-02	1.550161E-04
6.011236E+03	1.522212E-02	1.502785E-04
6.021221E+03	1.493340E-02	1.455778E-04
6.031207E+03	1.464709E-02	1.409530E-04
6.041192E+03	1.436589E-02	1.364406E-04
6.051177E+03	1.409235E-02	1.320748E-04
6.061163E+03	1.382884E-02	1.278871E-04
6.071148E+03	1.357737E-02	1.239043E-04
6.081134E+03	1.333987E-02	1.201522E-04
6.091119E+03	1.311785E-02	1.166519E-04
6.101105E+03	1.291270E-02	1.134232E-04
6.111090E+03	1.272536E-02	1.104821E-04
6.121075E+03	1.255650E-02	1.078422E-04
6.131061E+03	1.240647E-02	1.055151E-04
6.141046E+03	1.227520E-02	1.035093E-04
6.151032E+03	1.216279E-02	1.018355E-04
6.161017E+03	1.206862E-02	1.004996E-04
6.171003E+03	1.199213E-02	9.950827E-05
6.180988E+03	1.193282E-02	9.886977E-05
6.190974E+03	1.188987E-02	9.858981E-05
6.200959E+03	1.186229E-02	9.867319E-05
6.210944E+03	1.184899E-02	9.912361E-05
6.220930E+03	1.184894E-02	9.994288E-05
6.230915E+03	1.186090E-02	1.011199E-04
6.240901E+03	1.188338E-02	1.026363E-04
6.250886E+03	1.191529E-02	1.044764E-04
6.260872E+03	1.195532E-02	1.066217E-04
6.270857E+03	1.200236E-02	1.090545E-04
6.280843E+03	1.205510E-02	1.117547E-04
6.290828E+03	1.211261E-02	1.147044E-04
6.300813E+03	1.217387E-02	1.178848E-04
6.310799E+03	1.223792E-02	1.212766E-04
6.320784E+03	1.230364E-02	1.248589E-04
6.330770E+03	1.237038E-02	1.286144E-04
6.340755E+03	1.243674E-02	1.325181E-04
6.350741E+03	1.250150E-02	1.365457E-04
6.360726E+03	1.256355E-02	1.406733E-04
6.370712E+03	1.262091E-02	1.448659E-04
6.380697E+03	1.267170E-02	1.490883E-04
6.390682E+03	1.271428E-02	1.533062E-04
6.400668E+03	1.274759E-02	1.574907E-04
6.410653E+03	1.277170E-02	1.616262E-04
6.420639E+03	1.278700E-02	1.657020E-04
6.430624E+03	1.279383E-02	1.697074E-04
6.440610E+03	1.279264E-02	1.736338E-04
6.450595E+03	1.278313E-02	1.774635E-04
6.460580E+03	1.276498E-02	1.811780E-04
6.470566E+03	1.273768E-02	1.847567E-04
6.480551E+03	1.270099E-02	1.881823E-04
6.490537E+03	1.265414E-02	1.914297E-04
6.500522E+03	1.259688E-02	1.944812E-04
6.510508E+03	1.252886E-02	1.973176E-04
6.520493E+03	1.244985E-02	1.999218E-04
6.530479E+03	1.235959E-02	2.022758E-04
6.540464E+03	1.225846E-02	2.043729E-04
6.550449E+03	1.214650E-02	2.062013E-04
6.560435E+03	1.202441E-02	2.077611E-04
6.570420E+03	1.189238E-02	2.090446E-04
6.580406E+03	1.175124E-02	2.100562E-04
6.590391E+03	1.160208E-02	2.108064E-04
6.600377E+03	1.144547E-02	2.112976E-04
6.610362E+03	1.128250E-02	2.115434E-04
6.620348E+03	1.111433E-02	2.115600E-04
6.630333E+03	1.094183E-02	2.113596E-04
6.640318E+03	1.076618E-02	2.109619E-04
6.650304E+03	1.058839E-02	2.103846E-04
6.660289E+03	1.040956E-02	2.096489E-04
6.670275E+03	1.023034E-02	2.087677E-04
6.680260E+03	1.005201E-02	2.077683E-04
6.690246E+03	9.875064E-03	2.066627E-04
6.700231E+03	9.700218E-03	2.054682E-04
6.710217E+03	9.528367E-03	2.042068E-04
6.720202E+03	9.359777E-03	2.028880E-04
6.730187E+03	9.195180E-03	2.015316E-04
6.740173E+03	9.034816E-03	2.001471E-04
6.750158E+03	8.878993E-03	1.987460E-04
6.760144E+03	8.727949E-03	1.973382E-04
6.770129E+03	8.581979E-03	1.959352E-04
6.780115E+03	8.441082E-03	1.945419E-04
6.790100E+03	8.305438E-03	1.931673E-04
6.800085E+03	8.174956E-03	1.918140E-04
6.810071E+03	8.049625E-03	1.904864E-04
6.820056E+03	7.929634E-03	1.891936E-04
6.830042E+03	7.814561E-03	1.879299E-04
6.840027E+03	7.704671E-03	1.867059E-04
6.850013E+03	7.599621E-03	1.855176E-04
6.859998E+03	7.499305E-03	1.843661E-04
6.869984E+03	7.403704E-03	1.832546E-04
6.879969E+03	7.312690E-03	1.821837E-04
6.889954E+03	7.226014E-03	1.811504E-04
6.899940E+03	7.143650E-03	1.801573E-04
6.909925E+03	7.065452E-03	1.792037E-04
6.919911E+03	6.991173E-03	1.782861E-04
6.929896E+03	6.920671E-03	1.774035E-04
6.939882E+03	6.854024E-03	1.765604E-04
6.949867E+03	6.790766E-03	1.757470E-04
6.959853E+03	6.731072E-03	1.749701E-04
6.969838E+03	6.674589E-03	1.742225E-04
6.979823E+03	6.621168E-03	1.735020E-04
6.989809E+03	6.570668E-03	1.728066E-04
6.999794E+03	6.523150E-03	1.721396E-04
7.009780E+03	6.478140E-03	1.714897E-04
7.019765E+03	6.435703E-03	1.708601E-04
7.029751E+03	6.395571E-03	1.702447E-04
7.039736E+03	6.357690E-03	1.696432E-04
7.049722E+03	6.321787E-03	1.690493E-04
7.059707E+03	6.287696E-03	1.684593E-04
7.069692E+03	6.255346E-03	1.678722E-04
7.079678E+03	6.224463E-03	1.672812E-04
7.089663E+03	6.194856E-03	1.666819E-04
7.099649E+03	6.166456E-03	1.660729E-04
7.109634E+03	6.138976E-03	1.654470E-04
7.119620E+03	6.112225E-03	1.647996E-04
7.129605E+03	6.086023E-03	1.641262E-04
7.139590E+03	6.060289E-03	1.634250E-04
7.149576E+03	6.034737E-03	1.626889E-04
7.159561E+03	6.009298E-03	1.619162E-04
7.169547E+03	5.983597E-03	1.610974E-04
7.179532E+03	5.957778E-03	1.602367E-04
7.189518E+03	5.931494E-03	1.593253E-04
7.199503E+03	5.904596E-03	1.583598E-04
7.209489E+03	5.877180E-03	1.573432E-04
7.219474E+03	5.848926E-03	1.562675E-04
7.229459E+03	5.819862E-03	1.551343E-04
7.239445E+03	5.789813E-03	1.539395E-04
7.249430E+03	5.759052E-03	1.526911E-04
7.259416E+03	5.727254E-03	1.513814E-04
7.269401E+03	5.694523E-03	1.500140E-04
7.279387E+03	5.661108E-03	1.485963E-04
7.289372E+03	5.626859E-03	1.471253E-04
7.299358E+03	5.591961E-03	1.456067E-04
7.309343E+03	5.556421E-03	1.440417E-04
7.319328E+03	5.520682E-03	1.424428E-04
7.329314E+03	5.484590E-03	1.408067E-04
7.339299E+03	5.448521E-03	1.391440E-04
7.349285E+03	5.412666E-03	1.374604E-04
7.359270E+03	5.377130E-03	1.357592E-04
7.369256E+03	5.342331E-03	1.340516E-04
7.379241E+03	5.308394E-03	1.323411E-04
7.389227E+03	5.275447E-03	1.306313E-04
7.399212E+03	5.243934E-03	1.289333E-04
7.409197E+03	5.213983E-03	1.272503E-04
7.419183E+03	5.185834E-03	1.255881E-04
7.429168E+03	5.159611E-03	1.239492E-04
7.439154E+03	5.135636E-03	1.223411E-04
7.449139E+03	5.114120E-03	1.207678E-04
7.459125E+03	5.095258E-03	1.192331E-04
7.469110E+03	5.079136E-03	1.177380E-04
7.479095E+03	5.066024E-03	1.162872E-04
7.489081E+03	5.055872E-03	1.148783E-04
7.499066E+03	5.049015E-03	1.135172E-04
7.509052E+03	5.045369E-03	1.122001E-04
7.519037E+03	5.045124E-03	1.109292E-04
7.529023E+03	5.048259E-03	1.097020E-04
7.539008E+03	5.054725E-03	1.085151E-04
7.548994E+03	5.064757E-03	1.073714E-04
7.558979E+03	5.078158E-03	1.062640E-04
7.568964E+03	5.094923E-03	1.051906E-04
7.578950E+03	5.115121E-03	1.041499E-04
7.588935E+03	5.138591E-03	1.031362E-04
7.598921E+03	5.165162E-03	1.021437E-04
7.608906E+03	5.194935E-03	1.011719E-04
7.618892E+03	5.227584E-03	1.002121E-04
7.628877E+03	5.262965E-03	9.925943E-05
7.638863E+03	5.301120E-03	9.831279E-05
7.648848E+03	5.341534E-03	9.736083E-05
7.658833E+03	5.384207E-03	9.640216E-05
7.668819E+03	5.428888E-03	9.543114E-05
7.678804E+03	5.475084E-03	9.443840E-05
7.688790E+03	5.522709E-03	9.342232E-05
7.698775E+03	5.571323E-03	9.237568E-05
7.708761E+03	5.620554E-03	9.129327E-05
7.718746E+03	5.670130E-03	9.017225E-05
7.728732E+03	5.719392E-03	8.900450E-05
7.738717E+03	5.768125E-03	8.778989E-05
7.748702E+03	5.815742E-03	8.652357E-05
