#wls	flux	fluxerr
1.597671E+03	5.336849E-04	2.556278E-04
1.637612E+03	5.107933E-04	2.446618E-04
1.677554E+03	4.896241E-04	2.345208E-04
1.717496E+03	4.700287E-04	2.251337E-04
1.757438E+03	4.519488E-04	2.164726E-04
1.797379E+03	4.354728E-04	2.085798E-04
1.837321E+03	4.203816E-04	2.013503E-04
1.877263E+03	4.066176E-04	1.947566E-04
1.917205E+03	3.942551E-04	1.888342E-04
1.957146E+03	3.831616E-04	1.835196E-04
1.997088E+03	3.732783E-04	1.787847E-04
2.037030E+03	3.645493E-04	1.746027E-04
2.076972E+03	3.569801E-04	1.709762E-04
2.116914E+03	3.504604E-04	1.678524E-04
2.156855E+03	3.449444E-04	1.652094E-04
2.196797E+03	3.404983E-04	1.630787E-04
2.236739E+03	3.369699E-04	1.613876E-04
2.276681E+03	3.344282E-04	1.601691E-04
2.316622E+03	3.327326E-04	1.593557E-04
2.356564E+03	3.319550E-04	1.589821E-04
2.396506E+03	3.320648E-04	1.590333E-04
2.436448E+03	3.329842E-04	1.594723E-04
2.476389E+03	3.347395E-04	1.603116E-04
2.516331E+03	3.373083E-04	1.615404E-04
2.556273E+03	3.407198E-04	1.631728E-04
2.596215E+03	3.448568E-04	1.651526E-04
2.636156E+03	3.498513E-04	1.675429E-04
2.676098E+03	3.556386E-04	1.703128E-04
2.716040E+03	3.622049E-04	1.734557E-04
2.755982E+03	3.695373E-04	1.769654E-04
2.795924E+03	3.776738E-04	1.808600E-04
2.835865E+03	3.865521E-04	1.851098E-04
2.875807E+03	3.962624E-04	1.897578E-04
2.915749E+03	4.067427E-04	1.947745E-04
2.955691E+03	4.180328E-04	2.001788E-04
2.995632E+03	4.301207E-04	2.059650E-04
3.005618E+03	4.332608E-04	2.074681E-04
3.015603E+03	4.364797E-04	2.090089E-04
3.025589E+03	4.397238E-04	2.105618E-04
3.035574E+03	4.430466E-04	2.121523E-04
3.045560E+03	4.463940E-04	2.137546E-04
3.055545E+03	4.497657E-04	2.153685E-04
3.065530E+03	4.532153E-04	2.170198E-04
3.075516E+03	4.566886E-04	2.186823E-04
3.085501E+03	4.602393E-04	2.203819E-04
3.095487E+03	4.638674E-04	2.221186E-04
3.105472E+03	4.675183E-04	2.238662E-04
3.115458E+03	4.711914E-04	2.256244E-04
3.125443E+03	4.749413E-04	2.274193E-04
3.135429E+03	4.787124E-04	2.292244E-04
3.145414E+03	4.825597E-04	2.310660E-04
3.155399E+03	4.864832E-04	2.329440E-04
3.165385E+03	4.904269E-04	2.348317E-04
3.175370E+03	4.943902E-04	2.367288E-04
3.185356E+03	4.984287E-04	2.386618E-04
3.195341E+03	5.025420E-04	2.406307E-04
3.205327E+03	5.066737E-04	2.426083E-04
3.215312E+03	5.108230E-04	2.445944E-04
3.225298E+03	5.151026E-04	2.466428E-04
3.235283E+03	5.193424E-04	2.486722E-04
3.245268E+03	5.237119E-04	2.507637E-04
3.255254E+03	5.280401E-04	2.528354E-04
3.265239E+03	5.324976E-04	2.549690E-04
3.275225E+03	5.369696E-04	2.571095E-04
3.285210E+03	5.414555E-04	2.592566E-04
3.295196E+03	5.460698E-04	2.614652E-04
3.305181E+03	5.506390E-04	2.636522E-04
3.315166E+03	5.553358E-04	2.659003E-04
3.325152E+03	5.599859E-04	2.681260E-04
3.335137E+03	5.647629E-04	2.704124E-04
3.345123E+03	5.695498E-04	2.727036E-04
3.355108E+03	5.744044E-04	2.750272E-04
3.365094E+03	5.792671E-04	2.773546E-04
3.375079E+03	5.841964E-04	2.797139E-04
3.385065E+03	5.891323E-04	2.820764E-04
3.395050E+03	5.941332E-04	2.844699E-04
3.405035E+03	5.991986E-04	2.868943E-04
3.415021E+03	6.042683E-04	2.893208E-04
3.425006E+03	6.094010E-04	2.917774E-04
3.434992E+03	6.145959E-04	2.942638E-04
3.444977E+03	6.197925E-04	2.967509E-04
3.454963E+03	6.250498E-04	2.992671E-04
3.464948E+03	6.303068E-04	3.017832E-04
3.474934E+03	6.356229E-04	3.043275E-04
3.484919E+03	6.409973E-04	3.068997E-04
3.494904E+03	6.463684E-04	3.094703E-04
3.504890E+03	6.517960E-04	3.120680E-04
3.514875E+03	6.572182E-04	3.146631E-04
3.524861E+03	6.627566E-04	3.173137E-04
3.534846E+03	6.682260E-04	3.199314E-04
3.544832E+03	6.738098E-04	3.226037E-04
3.554817E+03	6.793841E-04	3.252715E-04
3.564803E+03	6.850093E-04	3.279636E-04
3.574788E+03	6.906227E-04	3.306501E-04
3.584773E+03	6.962850E-04	3.333600E-04
3.594759E+03	7.019330E-04	3.360630E-04
3.604744E+03	7.076902E-04	3.388183E-04
3.614730E+03	7.134312E-04	3.415658E-04
3.624715E+03	7.191544E-04	3.443047E-04
3.634701E+03	7.249214E-04	3.470646E-04
3.644686E+03	7.307308E-04	3.498448E-04
3.654671E+03	7.365193E-04	3.526149E-04
3.664657E+03	7.423481E-04	3.554044E-04
3.674642E+03	7.482162E-04	3.582126E-04
3.684628E+03	7.540596E-04	3.610090E-04
3.694613E+03	7.599402E-04	3.638231E-04
3.704599E+03	7.658567E-04	3.666544E-04
3.714584E+03	7.717449E-04	3.694722E-04
3.724570E+03	7.776035E-04	3.722758E-04
3.734555E+03	7.835580E-04	3.751252E-04
3.744540E+03	7.894171E-04	3.779290E-04
3.754526E+03	7.953699E-04	3.807776E-04
3.764511E+03	8.012884E-04	3.836098E-04
3.774497E+03	8.072351E-04	3.864554E-04
3.784482E+03	8.131450E-04	3.892834E-04
3.794468E+03	8.190806E-04	3.921237E-04
3.804453E+03	8.249772E-04	3.949453E-04
3.814439E+03	8.308974E-04	3.977782E-04
3.824424E+03	8.368401E-04	4.006218E-04
3.834409E+03	8.427403E-04	4.034451E-04
3.844395E+03	8.485970E-04	4.062475E-04
3.854380E+03	8.544728E-04	4.090591E-04
3.864366E+03	8.603670E-04	4.118794E-04
3.874351E+03	8.662142E-04	4.146772E-04
3.884337E+03	8.720776E-04	4.174827E-04
3.894322E+03	8.778921E-04	4.202649E-04
3.904308E+03	8.836567E-04	4.230231E-04
3.914293E+03	8.894345E-04	4.257876E-04
3.924278E+03	8.952244E-04	4.285578E-04
3.934264E+03	9.009615E-04	4.313028E-04
3.944249E+03	9.067091E-04	4.340528E-04
3.954235E+03	9.123378E-04	4.367459E-04
3.964220E+03	9.180391E-04	4.394737E-04
3.974206E+03	9.236200E-04	4.421438E-04
3.984191E+03	9.292719E-04	4.448480E-04
3.994176E+03	9.348017E-04	4.474936E-04
4.004162E+03	9.403367E-04	4.501417E-04
4.014147E+03	9.458121E-04	4.527613E-04
4.024133E+03	9.512912E-04	4.553826E-04
4.034118E+03	9.567093E-04	4.579747E-04
4.044104E+03	9.620658E-04	4.605373E-04
4.054089E+03	9.673599E-04	4.630700E-04
4.064075E+03	9.726550E-04	4.656031E-04
4.074060E+03	9.778864E-04	4.681058E-04
4.084045E+03	9.831175E-04	4.706083E-04
4.094031E+03	9.882202E-04	4.730493E-04
4.104016E+03	9.933213E-04	4.754895E-04
4.114002E+03	9.983568E-04	4.778984E-04
4.123987E+03	1.003326E-03	4.802755E-04
4.133973E+03	1.008292E-03	4.826510E-04
4.143958E+03	1.013128E-03	4.849641E-04
4.153944E+03	1.017959E-03	4.872752E-04
4.163929E+03	1.022723E-03	4.895537E-04
4.173914E+03	1.027418E-03	4.917996E-04
4.183900E+03	1.032045E-03	4.940127E-04
4.193885E+03	1.036603E-03	4.961928E-04
4.203871E+03	1.041092E-03	4.983399E-04
4.213856E+03	1.045511E-03	5.004537E-04
4.223842E+03	1.049923E-03	5.025641E-04
4.233827E+03	1.054203E-03	5.046111E-04
4.243813E+03	1.058413E-03	5.066245E-04
4.253798E+03	1.062553E-03	5.086043E-04
4.263783E+03	1.066622E-03	5.105504E-04
4.273769E+03	1.070621E-03	5.124627E-04
4.283754E+03	1.074549E-03	5.143412E-04
4.293740E+03	1.078406E-03	5.161857E-04
4.303725E+03	1.082192E-03	5.179963E-04
4.313711E+03	1.085845E-03	5.197433E-04
4.323696E+03	1.089489E-03	5.214858E-04
4.333681E+03	1.093000E-03	5.231648E-04
4.343667E+03	1.096441E-03	5.248098E-04
4.353652E+03	1.099749E-03	5.263916E-04
4.363638E+03	1.103047E-03	5.279686E-04
4.373623E+03	1.106214E-03	5.294824E-04
4.383609E+03	1.109309E-03	5.309623E-04
4.393594E+03	1.112333E-03	5.324082E-04
4.403580E+03	1.115226E-03	5.337913E-04
4.413565E+03	1.118049E-03	5.351405E-04
4.423550E+03	1.120741E-03	5.364273E-04
4.433536E+03	1.123422E-03	5.377091E-04
4.443521E+03	1.125914E-03	5.389000E-04
4.453507E+03	1.128395E-03	5.400859E-04
4.463492E+03	1.130747E-03	5.412100E-04
4.473478E+03	1.132970E-03	5.422723E-04
4.483463E+03	1.135124E-03	5.433016E-04
4.493449E+03	1.137209E-03	5.442978E-04
4.503434E+03	1.139166E-03	5.452329E-04
4.513419E+03	1.141055E-03	5.461353E-04
4.523405E+03	1.142817E-03	5.469770E-04
4.533390E+03	1.144454E-03	5.477586E-04
4.543376E+03	1.146023E-03	5.485080E-04
4.553361E+03	1.147467E-03	5.491976E-04
4.563347E+03	1.148846E-03	5.498556E-04
4.573332E+03	1.150100E-03	5.504544E-04
4.583318E+03	1.151289E-03	5.510218E-04
4.593303E+03	1.152356E-03	5.515309E-04
4.603288E+03	1.153302E-03	5.519818E-04
4.613274E+03	1.154183E-03	5.524022E-04
4.623259E+03	1.154889E-03	5.527382E-04
4.633245E+03	1.155588E-03	5.530713E-04
4.643230E+03	1.156113E-03	5.533209E-04
4.653216E+03	1.156577E-03	5.535412E-04
4.663201E+03	1.156924E-03	5.537059E-04
4.673186E+03	1.157156E-03	5.538153E-04
4.683172E+03	1.157329E-03	5.538964E-04
4.693157E+03	1.157388E-03	5.539232E-04
4.703143E+03	1.157335E-03	5.538960E-04
4.713128E+03	1.157170E-03	5.538156E-04
4.723114E+03	1.156949E-03	5.537084E-04
4.733099E+03	1.156619E-03	5.535488E-04
4.743085E+03	1.156126E-03	5.533116E-04
4.753070E+03	1.155634E-03	5.530747E-04
4.763055E+03	1.154983E-03	5.527612E-04
4.773041E+03	1.154226E-03	5.523977E-04
4.783026E+03	1.153419E-03	5.520100E-04
4.793012E+03	1.152510E-03	5.515732E-04
4.802997E+03	1.151499E-03	5.510879E-04
4.812983E+03	1.150388E-03	5.505547E-04
4.822968E+03	1.149178E-03	5.499742E-04
4.832954E+03	1.147923E-03	5.493720E-04
4.842939E+03	1.146519E-03	5.486989E-04
4.852924E+03	1.145072E-03	5.480050E-04
4.862910E+03	1.143531E-03	5.472662E-04
4.872895E+03	1.141898E-03	5.464830E-04
4.882881E+03	1.140173E-03	5.456563E-04
4.892866E+03	1.138358E-03	5.447864E-04
4.902852E+03	1.136506E-03	5.438985E-04
4.912837E+03	1.134515E-03	5.429446E-04
4.922823E+03	1.132489E-03	5.419735E-04
4.932808E+03	1.130378E-03	5.409618E-04
4.942793E+03	1.128134E-03	5.398864E-04
4.952779E+03	1.125857E-03	5.387956E-04
4.962764E+03	1.123499E-03	5.376660E-04
4.972750E+03	1.121062E-03	5.364984E-04
4.982735E+03	1.118596E-03	5.353167E-04
4.992721E+03	1.116003E-03	5.340748E-04
5.002706E+03	1.113384E-03	5.328199E-04
5.012691E+03	1.110641E-03	5.315063E-04
5.022677E+03	1.107873E-03	5.301805E-04
5.032662E+03	1.105034E-03	5.288204E-04
5.042648E+03	1.102123E-03	5.274262E-04
5.052633E+03	1.099143E-03	5.259989E-04
5.062619E+03	1.096094E-03	5.245387E-04
5.072604E+03	1.092978E-03	5.230465E-04
5.082590E+03	1.089843E-03	5.215449E-04
5.092575E+03	1.086596E-03	5.199900E-04
5.102560E+03	1.083332E-03	5.184267E-04
5.112546E+03	1.080004E-03	5.168333E-04
5.122531E+03	1.076615E-03	5.152104E-04
5.132517E+03	1.073165E-03	5.135585E-04
5.142502E+03	1.069656E-03	5.118781E-04
5.152488E+03	1.066088E-03	5.101697E-04
5.162473E+03	1.062508E-03	5.084552E-04
5.172459E+03	1.058870E-03	5.067136E-04
5.182444E+03	1.055133E-03	5.049240E-04
5.192429E+03	1.051385E-03	5.031297E-04
5.202415E+03	1.047584E-03	5.013095E-04
5.212400E+03	1.043773E-03	4.994849E-04
5.222386E+03	1.039866E-03	4.976146E-04
5.232371E+03	1.035952E-03	4.957405E-04
5.242357E+03	1.031987E-03	4.938423E-04
5.252342E+03	1.027973E-03	4.919204E-04
5.262328E+03	1.023910E-03	4.899752E-04
5.272313E+03	1.019799E-03	4.880071E-04
5.282298E+03	1.015683E-03	4.860368E-04
5.292284E+03	1.011479E-03	4.840241E-04
5.302269E+03	1.007271E-03	4.820096E-04
5.312255E+03	1.003059E-03	4.799935E-04
5.322240E+03	9.987623E-04	4.779364E-04
5.332226E+03	9.944626E-04	4.758781E-04
5.342211E+03	9.901200E-04	4.737993E-04
5.352196E+03	9.857350E-04	4.717002E-04
5.362182E+03	9.813087E-04	4.695814E-04
5.372167E+03	9.768415E-04	4.674431E-04
5.382153E+03	9.723742E-04	4.653046E-04
5.392138E+03	9.678672E-04	4.631473E-04
5.402124E+03	9.633608E-04	4.609902E-04
5.412109E+03	9.587764E-04	4.587958E-04
5.422095E+03	9.541936E-04	4.566022E-04
5.432080E+03	9.495734E-04	4.543908E-04
5.442065E+03	9.449555E-04	4.521804E-04
5.452051E+03	9.403013E-04	4.499527E-04
5.462036E+03	9.356116E-04	4.477080E-04
5.472022E+03	9.308872E-04	4.454468E-04
5.482007E+03	9.261664E-04	4.431873E-04
5.491993E+03	9.214120E-04	4.409117E-04
5.501978E+03	9.166243E-04	4.386202E-04
5.511964E+03	9.118416E-04	4.363311E-04
5.521949E+03	9.070267E-04	4.340266E-04
5.531934E+03	9.021806E-04	4.317072E-04
5.541920E+03	8.973402E-04	4.293906E-04
5.551905E+03	8.924694E-04	4.270594E-04
5.561891E+03	8.875689E-04	4.247140E-04
5.571876E+03	8.826754E-04	4.223720E-04
5.581862E+03	8.777532E-04	4.200163E-04
5.591847E+03	8.728030E-04	4.176471E-04
5.601833E+03	8.678608E-04	4.152819E-04
5.611818E+03	8.629265E-04	4.129204E-04
5.621803E+03	8.579309E-04	4.105296E-04
5.631789E+03	8.529788E-04	4.081596E-04
5.641774E+03	8.479666E-04	4.057609E-04
5.651760E+03	8.429642E-04	4.033669E-04
5.661745E+03	8.379715E-04	4.009776E-04
5.671731E+03	8.329548E-04	3.985767E-04
5.681716E+03	8.279148E-04	3.961648E-04
5.691701E+03	8.228858E-04	3.937581E-04
5.701687E+03	8.178345E-04	3.913407E-04
5.711672E+03	8.127947E-04	3.889289E-04
5.721658E+03	8.077337E-04	3.865069E-04
5.731643E+03	8.026849E-04	3.840908E-04
5.741629E+03	7.976159E-04	3.816651E-04
5.751614E+03	7.925598E-04	3.792455E-04
5.761600E+03	7.874846E-04	3.768168E-04
5.771585E+03	7.824228E-04	3.743945E-04
5.781570E+03	7.773431E-04	3.719636E-04
5.791556E+03	7.722775E-04	3.695395E-04
5.801541E+03	7.671950E-04	3.671074E-04
5.811527E+03	7.621273E-04	3.646823E-04
5.821512E+03	7.570439E-04	3.622497E-04
5.831498E+03	7.519759E-04	3.598246E-04
5.841483E+03	7.469236E-04	3.574069E-04
5.851469E+03	7.418570E-04	3.549824E-04
5.861454E+03	7.368067E-04	3.525657E-04
5.871439E+03	7.317433E-04	3.501428E-04
5.881425E+03	7.266970E-04	3.477280E-04
5.891410E+03	7.216680E-04	3.453216E-04
5.901396E+03	7.166275E-04	3.429095E-04
5.911381E+03	7.116049E-04	3.405062E-04
5.921367E+03	7.065717E-04	3.380977E-04
5.931352E+03	7.015575E-04	3.356984E-04
5.941338E+03	6.965623E-04	3.333081E-04
5.951323E+03	6.915580E-04	3.309135E-04
5.961308E+03	6.865735E-04	3.285284E-04
5.971294E+03	6.815813E-04	3.261396E-04
5.981279E+03	6.766374E-04	3.237739E-04
5.991265E+03	6.716865E-04	3.214049E-04
6.001250E+03	6.667293E-04	3.190329E-04
6.011236E+03	6.618209E-04	3.166842E-04
6.021221E+03	6.569071E-04	3.143330E-04
6.031207E+03	6.519887E-04	3.119795E-04
6.041192E+03	6.471196E-04	3.096497E-04
6.051177E+03	6.422466E-04	3.073180E-04
6.061163E+03	6.373708E-04	3.049850E-04
6.071148E+03	6.325447E-04	3.026757E-04
6.081134E+03	6.277165E-04	3.003655E-04
6.091119E+03	6.229126E-04	2.980669E-04
6.101105E+03	6.181333E-04	2.957801E-04
6.111090E+03	6.133534E-04	2.934929E-04
6.121075E+03	6.086243E-04	2.912301E-04
6.131061E+03	6.038955E-04	2.889675E-04
6.141046E+03	5.991679E-04	2.867054E-04
6.151032E+03	5.944915E-04	2.844679E-04
6.161017E+03	5.898172E-04	2.822313E-04
6.171003E+03	5.851700E-04	2.800077E-04
6.180988E+03	5.805503E-04	2.777973E-04
6.190974E+03	5.759584E-04	2.756002E-04
6.200959E+03	5.713706E-04	2.734050E-04
6.210944E+03	5.668115E-04	2.712236E-04
6.220930E+03	5.622813E-04	2.690561E-04
6.230915E+03	5.577803E-04	2.669024E-04
6.240901E+03	5.533089E-04	2.647630E-04
6.250886E+03	5.488671E-04	2.626377E-04
6.260872E+03	5.444326E-04	2.605160E-04
6.270857E+03	5.400290E-04	2.584090E-04
6.280843E+03	5.356563E-04	2.563168E-04
6.290828E+03	5.313148E-04	2.542396E-04
6.300813E+03	5.270050E-04	2.521775E-04
6.310799E+03	5.227051E-04	2.501201E-04
6.320784E+03	5.184595E-04	2.480888E-04
6.330770E+03	5.142247E-04	2.460626E-04
6.340755E+03	5.100230E-04	2.440522E-04
6.350741E+03	5.058759E-04	2.420680E-04
6.360726E+03	5.017409E-04	2.400896E-04
6.370712E+03	4.976190E-04	2.381174E-04
6.380697E+03	4.935524E-04	2.361717E-04
6.390682E+03	4.895201E-04	2.342425E-04
6.400668E+03	4.855228E-04	2.323299E-04
6.410653E+03	4.815400E-04	2.304243E-04
6.420639E+03	4.776131E-04	2.285454E-04
6.430624E+03	4.737016E-04	2.266740E-04
6.440610E+03	4.698262E-04	2.248198E-04
6.450595E+03	4.660071E-04	2.229925E-04
6.460580E+03	4.622045E-04	2.211732E-04
6.470566E+03	4.584388E-04	2.193714E-04
6.480551E+03	4.547103E-04	2.175875E-04
6.490537E+03	4.510189E-04	2.158214E-04
6.500522E+03	4.473651E-04	2.140732E-04
6.510508E+03	4.437490E-04	2.123431E-04
6.520493E+03	4.401706E-04	2.106310E-04
6.530479E+03	4.366303E-04	2.089371E-04
6.540464E+03	4.331282E-04	2.072615E-04
6.550449E+03	4.296644E-04	2.056043E-04
6.560435E+03	4.262207E-04	2.039567E-04
6.570420E+03	4.228340E-04	2.023363E-04
6.580406E+03	4.194859E-04	2.007344E-04
6.590391E+03	4.161765E-04	1.991511E-04
6.600377E+03	4.129059E-04	1.975862E-04
6.610362E+03	4.096741E-04	1.960400E-04
6.620348E+03	4.064813E-04	1.945124E-04
6.630333E+03	4.033098E-04	1.929951E-04
6.640318E+03	4.001948E-04	1.915047E-04
6.650304E+03	3.971185E-04	1.900328E-04
6.660289E+03	3.940810E-04	1.885796E-04
6.670275E+03	3.910824E-04	1.871449E-04
6.680260E+03	3.881222E-04	1.857287E-04
6.690246E+03	3.852007E-04	1.843309E-04
6.700231E+03	3.823176E-04	1.829515E-04
6.710217E+03	3.794727E-04	1.815904E-04
6.720202E+03	3.766660E-04	1.802475E-04
6.730187E+03	3.739135E-04	1.789306E-04
6.740173E+03	3.711824E-04	1.776240E-04
6.750158E+03	3.684887E-04	1.763352E-04
6.760144E+03	3.658324E-04	1.750644E-04
6.770129E+03	3.632291E-04	1.738188E-04
6.780115E+03	3.606465E-04	1.725832E-04
6.790100E+03	3.581160E-04	1.713725E-04
6.800085E+03	3.556058E-04	1.701716E-04
6.810071E+03	3.531471E-04	1.689952E-04
6.820056E+03	3.507081E-04	1.678284E-04
6.830042E+03	3.483197E-04	1.666857E-04
6.840027E+03	3.459657E-04	1.655595E-04
6.850013E+03	3.436307E-04	1.644423E-04
6.859998E+03	3.413446E-04	1.633486E-04
6.869984E+03	3.390919E-04	1.622708E-04
6.879969E+03	3.368718E-04	1.612087E-04
6.889954E+03	3.346842E-04	1.601620E-04
6.899940E+03	3.325283E-04	1.591306E-04
6.909925E+03	3.304038E-04	1.581142E-04
6.919911E+03	3.283101E-04	1.571125E-04
6.929896E+03	3.262613E-04	1.561323E-04
6.939882E+03	3.242275E-04	1.551593E-04
6.949867E+03	3.222229E-04	1.542003E-04
6.959853E+03	3.202470E-04	1.532550E-04
6.969838E+03	3.183132E-04	1.523298E-04
6.979823E+03	3.163925E-04	1.514109E-04
6.989809E+03	3.144988E-04	1.505049E-04
6.999794E+03	3.126451E-04	1.496181E-04
7.009780E+03	3.108029E-04	1.487367E-04
7.019765E+03	3.089995E-04	1.478740E-04
7.029751E+03	3.072064E-04	1.470161E-04
7.039736E+03	3.054505E-04	1.461761E-04
7.049722E+03	3.037175E-04	1.453470E-04
7.059707E+03	3.019930E-04	1.445220E-04
7.069692E+03	3.003037E-04	1.437138E-04
7.079678E+03	2.986216E-04	1.429091E-04
7.089663E+03	2.969731E-04	1.421204E-04
7.099649E+03	2.953439E-04	1.413410E-04
7.109634E+03	2.937202E-04	1.405642E-04
7.119620E+03	2.921278E-04	1.398024E-04
7.129605E+03	2.905396E-04	1.390426E-04
7.139590E+03	2.889810E-04	1.382970E-04
7.149576E+03	2.874255E-04	1.375528E-04
7.159561E+03	2.858982E-04	1.368221E-04
7.169547E+03	2.843725E-04	1.360922E-04
7.179532E+03	2.828735E-04	1.353751E-04
7.189518E+03	2.813747E-04	1.346581E-04
7.199503E+03	2.798887E-04	1.339471E-04
7.209489E+03	2.784270E-04	1.332479E-04
7.219474E+03	2.769638E-04	1.325479E-04
7.229459E+03	2.755112E-04	1.318529E-04
7.239445E+03	2.740684E-04	1.311627E-04
7.249430E+03	2.726347E-04	1.304768E-04
7.259416E+03	2.712096E-04	1.297950E-04
7.269401E+03	2.697925E-04	1.291171E-04
7.279387E+03	2.683702E-04	1.284366E-04
7.289372E+03	2.669669E-04	1.277653E-04
7.299358E+03	2.655698E-04	1.270969E-04
7.309343E+03	2.641659E-04	1.264253E-04
7.319328E+03	2.627671E-04	1.257561E-04
7.329314E+03	2.613726E-04	1.250890E-04
7.339299E+03	2.599941E-04	1.244295E-04
7.349285E+03	2.585949E-04	1.237601E-04
7.359270E+03	2.572105E-04	1.230978E-04
7.369256E+03	2.558286E-04	1.224366E-04
7.379241E+03	2.544366E-04	1.217707E-04
7.389227E+03	2.530579E-04	1.211111E-04
7.399212E+03	2.516685E-04	1.204464E-04
7.409197E+03	2.502797E-04	1.197820E-04
7.419183E+03	2.488796E-04	1.191121E-04
7.429168E+03	2.474910E-04	1.184478E-04
7.439154E+03	2.460904E-04	1.177777E-04
7.449139E+03	2.447005E-04	1.171127E-04
7.459125E+03	2.432979E-04	1.164417E-04
7.469110E+03	2.418942E-04	1.157701E-04
7.479095E+03	2.404775E-04	1.150923E-04
7.489081E+03	2.390702E-04	1.144191E-04
7.499066E+03	2.376496E-04	1.137394E-04
7.509052E+03	2.362270E-04	1.130587E-04
7.519037E+03	2.347908E-04	1.123716E-04
7.529023E+03	2.333631E-04	1.116886E-04
7.539008E+03	2.319219E-04	1.109990E-04
7.548994E+03	2.304780E-04	1.103082E-04
7.558979E+03	2.290314E-04	1.096161E-04
7.568964E+03	2.275712E-04	1.089174E-04
7.578950E+03	2.261189E-04	1.082226E-04
7.588935E+03	2.246531E-04	1.075213E-04
7.598921E+03	2.231741E-04	1.068136E-04
7.608906E+03	2.217029E-04	1.061097E-04
7.618892E+03	2.202184E-04	1.053995E-04
7.628877E+03	2.187317E-04	1.046881E-04
7.638863E+03	2.172320E-04	1.039706E-04
7.648848E+03	2.157406E-04	1.032570E-04
7.658833E+03	2.142368E-04	1.025375E-04
7.668819E+03	2.127209E-04	1.018122E-04
7.678804E+03	2.112137E-04	1.010910E-04
7.688790E+03	2.096950E-04	1.003644E-04
7.698775E+03	2.081750E-04	9.963710E-05
7.708761E+03	2.066443E-04	9.890466E-05
7.718746E+03	2.051130E-04	9.817197E-05
7.728732E+03	2.035816E-04	9.743922E-05
7.738717E+03	2.020500E-04	9.670639E-05
7.748702E+03	2.005092E-04	9.596913E-05
