#wls	flux	fluxerr
1.597671E+03	3.506527E-04	1.572196E-04
1.637612E+03	3.421520E-04	1.534081E-04
1.677554E+03	3.341982E-04	1.498418E-04
1.717496E+03	3.267292E-04	1.464928E-04
1.757438E+03	3.198531E-04	1.434097E-04
1.797379E+03	3.134502E-04	1.405388E-04
1.837321E+03	3.075694E-04	1.379019E-04
1.877263E+03	3.022019E-04	1.354953E-04
1.917205E+03	2.973392E-04	1.333149E-04
1.957146E+03	2.929724E-04	1.313569E-04
1.997088E+03	2.890930E-04	1.296174E-04
2.037030E+03	2.856919E-04	1.280923E-04
2.076972E+03	2.827605E-04	1.267779E-04
2.116914E+03	2.802907E-04	1.256704E-04
2.156855E+03	2.783205E-04	1.247869E-04
2.196797E+03	2.767492E-04	1.240822E-04
2.236739E+03	2.756613E-04	1.235943E-04
2.276681E+03	2.750039E-04	1.232994E-04
2.316622E+03	2.748149E-04	1.232146E-04
2.356564E+03	2.750429E-04	1.233166E-04
2.396506E+03	2.756821E-04	1.236030E-04
2.436448E+03	2.767709E-04	1.240911E-04
2.476389E+03	2.782598E-04	1.247585E-04
2.516331E+03	2.801435E-04	1.256028E-04
2.556273E+03	2.825056E-04	1.266617E-04
2.596215E+03	2.852083E-04	1.278733E-04
2.636156E+03	2.883802E-04	1.292952E-04
2.676098E+03	2.919276E-04	1.308855E-04
2.716040E+03	2.958904E-04	1.326621E-04
2.755982E+03	3.002640E-04	1.346228E-04
2.795924E+03	3.049975E-04	1.367448E-04
2.835865E+03	3.101306E-04	1.390460E-04
2.875807E+03	3.156575E-04	1.415237E-04
2.915749E+03	3.215712E-04	1.441749E-04
2.955691E+03	3.278646E-04	1.469962E-04
2.995632E+03	3.344806E-04	1.499622E-04
3.005618E+03	3.362367E-04	1.507495E-04
3.015603E+03	3.379609E-04	1.515225E-04
3.025589E+03	3.397498E-04	1.523245E-04
3.035574E+03	3.415060E-04	1.531118E-04
3.045560E+03	3.433269E-04	1.539281E-04
3.055545E+03	3.451633E-04	1.547514E-04
3.065530E+03	3.470153E-04	1.555816E-04
3.075516E+03	3.488823E-04	1.564186E-04
3.085501E+03	3.507641E-04	1.572622E-04
3.095487E+03	3.526608E-04	1.581125E-04
3.105472E+03	3.546217E-04	1.589916E-04
3.115458E+03	3.565469E-04	1.598547E-04
3.125443E+03	3.585361E-04	1.607465E-04
3.135429E+03	3.605392E-04	1.616445E-04
3.145414E+03	3.625053E-04	1.625259E-04
3.155399E+03	3.645350E-04	1.634358E-04
3.165385E+03	3.666285E-04	1.643743E-04
3.175370E+03	3.686839E-04	1.652957E-04
3.185356E+03	3.707515E-04	1.662227E-04
3.195341E+03	3.728824E-04	1.671780E-04
3.205327E+03	3.749738E-04	1.681156E-04
3.215312E+03	3.771281E-04	1.690813E-04
3.225298E+03	3.792937E-04	1.700522E-04
3.235283E+03	3.814699E-04	1.710277E-04
3.245268E+03	3.836567E-04	1.720081E-04
3.255254E+03	3.858535E-04	1.729929E-04
3.265239E+03	3.881128E-04	1.740058E-04
3.275225E+03	3.903287E-04	1.749992E-04
3.285210E+03	3.926067E-04	1.760204E-04
3.295196E+03	3.948934E-04	1.770455E-04
3.305181E+03	3.971349E-04	1.780504E-04
3.315166E+03	3.994378E-04	1.790828E-04
3.325152E+03	4.017479E-04	1.801184E-04
3.335137E+03	4.041192E-04	1.811815E-04
3.345123E+03	4.064433E-04	1.822234E-04
3.355108E+03	4.087733E-04	1.832679E-04
3.365094E+03	4.111635E-04	1.843394E-04
3.375079E+03	4.135048E-04	1.853890E-04
3.385065E+03	4.159053E-04	1.864652E-04
3.395050E+03	4.183104E-04	1.875434E-04
3.405035E+03	4.207193E-04	1.886233E-04
3.415021E+03	4.231318E-04	1.897048E-04
3.425006E+03	4.255473E-04	1.907876E-04
3.434992E+03	4.280207E-04	1.918965E-04
3.444977E+03	4.304406E-04	1.929813E-04
3.454963E+03	4.328617E-04	1.940667E-04
3.464948E+03	4.353398E-04	1.951776E-04
3.474934E+03	4.378182E-04	1.962887E-04
3.484919E+03	4.402969E-04	1.973999E-04
3.494904E+03	4.427746E-04	1.985106E-04
3.504890E+03	4.452514E-04	1.996209E-04
3.514875E+03	4.477262E-04	2.007304E-04
3.524861E+03	4.501986E-04	2.018387E-04
3.534846E+03	4.526678E-04	2.029456E-04
3.544832E+03	4.551910E-04	2.040768E-04
3.554817E+03	4.576526E-04	2.051803E-04
3.564803E+03	4.601670E-04	2.063074E-04
3.574788E+03	4.626761E-04	2.074323E-04
3.584773E+03	4.651213E-04	2.085284E-04
3.594759E+03	4.676177E-04	2.096476E-04
3.604744E+03	4.701071E-04	2.107635E-04
3.614730E+03	4.725887E-04	2.118760E-04
3.624715E+03	4.751202E-04	2.130108E-04
3.634701E+03	4.775841E-04	2.141154E-04
3.644686E+03	4.800381E-04	2.152155E-04
3.654671E+03	4.825406E-04	2.163373E-04
3.664657E+03	4.849729E-04	2.174276E-04
3.674642E+03	4.874528E-04	2.185393E-04
3.684628E+03	4.899201E-04	2.196454E-04
3.694613E+03	4.923148E-04	2.207189E-04
3.704599E+03	4.947552E-04	2.218129E-04
3.714584E+03	4.971813E-04	2.229005E-04
3.724570E+03	4.995921E-04	2.239812E-04
3.734555E+03	5.019872E-04	2.250549E-04
3.744540E+03	5.043655E-04	2.261210E-04
3.754526E+03	5.067267E-04	2.271795E-04
3.764511E+03	5.091303E-04	2.282570E-04
3.774497E+03	5.114549E-04	2.292990E-04
3.784482E+03	5.137600E-04	2.303324E-04
3.794468E+03	5.161058E-04	2.313839E-04
3.804453E+03	5.183702E-04	2.323990E-04
3.814439E+03	5.206740E-04	2.334317E-04
3.824424E+03	5.228947E-04	2.344272E-04
3.834409E+03	5.251537E-04	2.354399E-04
3.844395E+03	5.273893E-04	2.364420E-04
3.854380E+03	5.296008E-04	2.374334E-04
3.864366E+03	5.317259E-04	2.383860E-04
3.874351E+03	5.338868E-04	2.393547E-04
3.884337E+03	5.360216E-04	2.403116E-04
3.894322E+03	5.381296E-04	2.412566E-04
3.904308E+03	5.402100E-04	2.421891E-04
3.914293E+03	5.422622E-04	2.431091E-04
3.924278E+03	5.442854E-04	2.440160E-04
3.934264E+03	5.462793E-04	2.449098E-04
3.944249E+03	5.482429E-04	2.457900E-04
3.954235E+03	5.501757E-04	2.466564E-04
3.964220E+03	5.520769E-04	2.475086E-04
3.974206E+03	5.540083E-04	2.483744E-04
3.984191E+03	5.558450E-04	2.491977E-04
3.994176E+03	5.576482E-04	2.500060E-04
4.004162E+03	5.594178E-04	2.507992E-04
4.014147E+03	5.611528E-04	2.515769E-04
4.024133E+03	5.629151E-04	2.523669E-04
4.034118E+03	5.645796E-04	2.531130E-04
4.044104E+03	5.662079E-04	2.538428E-04
4.054089E+03	5.677995E-04	2.545563E-04
4.064075E+03	5.693540E-04	2.552531E-04
4.074060E+03	5.709332E-04	2.559609E-04
4.084045E+03	5.724119E-04	2.566237E-04
4.094031E+03	5.738519E-04	2.572692E-04
4.104016E+03	5.752527E-04	2.578971E-04
4.114002E+03	5.766139E-04	2.585072E-04
4.123987E+03	5.779974E-04	2.591273E-04
4.133973E+03	5.792784E-04	2.597015E-04
4.143958E+03	5.805184E-04	2.602573E-04
4.153944E+03	5.817171E-04	2.607945E-04
4.163929E+03	5.828743E-04	2.613132E-04
4.173914E+03	5.839896E-04	2.618131E-04
4.183900E+03	5.850626E-04	2.622940E-04
4.193885E+03	5.860930E-04	2.627559E-04
4.203871E+03	5.870805E-04	2.631984E-04
4.213856E+03	5.880248E-04	2.636216E-04
4.223842E+03	5.889257E-04	2.640254E-04
4.233827E+03	5.897210E-04	2.643819E-04
4.243813E+03	5.905343E-04	2.647463E-04
4.253798E+03	5.913036E-04	2.650911E-04
4.263783E+03	5.919669E-04	2.653883E-04
4.273769E+03	5.926473E-04	2.656932E-04
4.283754E+03	5.932217E-04	2.659507E-04
4.293740E+03	5.938128E-04	2.662155E-04
4.303725E+03	5.942978E-04	2.664328E-04
4.313711E+03	5.947990E-04	2.666574E-04
4.323696E+03	5.951942E-04	2.668344E-04
4.333681E+03	5.955445E-04	2.669914E-04
4.343667E+03	5.958499E-04	2.671282E-04
4.353652E+03	5.961104E-04	2.672448E-04
4.363638E+03	5.963257E-04	2.673413E-04
4.373623E+03	5.964962E-04	2.674176E-04
4.383609E+03	5.966220E-04	2.674738E-04
4.393594E+03	5.966425E-04	2.674829E-04
4.403580E+03	5.966788E-04	2.674991E-04
4.413565E+03	5.966105E-04	2.674683E-04
4.423550E+03	5.965578E-04	2.674446E-04
4.433536E+03	5.964012E-04	2.673743E-04
4.443521E+03	5.962007E-04	2.672842E-04
4.453507E+03	5.959564E-04	2.671746E-04
4.463492E+03	5.956687E-04	2.670455E-04
4.473478E+03	5.953377E-04	2.668970E-04
4.483463E+03	5.949635E-04	2.667292E-04
4.493449E+03	5.945467E-04	2.665422E-04
4.503434E+03	5.940287E-04	2.663099E-04
4.513419E+03	5.935273E-04	2.660850E-04
4.523405E+03	5.929259E-04	2.658152E-04
4.533390E+03	5.922832E-04	2.655270E-04
4.543376E+03	5.915994E-04	2.652203E-04
4.553361E+03	5.908752E-04	2.648956E-04
4.563347E+03	5.901109E-04	2.645528E-04
4.573332E+03	5.892496E-04	2.641666E-04
4.583318E+03	5.884061E-04	2.637883E-04
4.593303E+03	5.874671E-04	2.633673E-04
4.603288E+03	5.865463E-04	2.629544E-04
4.613274E+03	5.855312E-04	2.624992E-04
4.623259E+03	5.844787E-04	2.620272E-04
4.633245E+03	5.833894E-04	2.615388E-04
4.643230E+03	5.822082E-04	2.610091E-04
4.653216E+03	5.810470E-04	2.604885E-04
4.663201E+03	5.797952E-04	2.599272E-04
4.673186E+03	5.785640E-04	2.593752E-04
4.683172E+03	5.772438E-04	2.587832E-04
4.693157E+03	5.758901E-04	2.581762E-04
4.703143E+03	5.745037E-04	2.575546E-04
4.713128E+03	5.730308E-04	2.568942E-04
4.723114E+03	5.715807E-04	2.562440E-04
4.733099E+03	5.700455E-04	2.555557E-04
4.743085E+03	5.684803E-04	2.548539E-04
4.753070E+03	5.668856E-04	2.541389E-04
4.763055E+03	5.652620E-04	2.534109E-04
4.773041E+03	5.636098E-04	2.526701E-04
4.783026E+03	5.619299E-04	2.519169E-04
4.793012E+03	5.601703E-04	2.511280E-04
4.802997E+03	5.583848E-04	2.503275E-04
4.812983E+03	5.565736E-04	2.495154E-04
4.822968E+03	5.547373E-04	2.486921E-04
4.832954E+03	5.528769E-04	2.478580E-04
4.842939E+03	5.509416E-04	2.469903E-04
4.852924E+03	5.490344E-04	2.461352E-04
4.862910E+03	5.470541E-04	2.452474E-04
4.872895E+03	5.450522E-04	2.443499E-04
4.882881E+03	5.430295E-04	2.434430E-04
4.892866E+03	5.409866E-04	2.425271E-04
4.902852E+03	5.388745E-04	2.415801E-04
4.912837E+03	5.367930E-04	2.406469E-04
4.922823E+03	5.346442E-04	2.396835E-04
4.932808E+03	5.324779E-04	2.387123E-04
4.942793E+03	5.302948E-04	2.377335E-04
4.952779E+03	5.280473E-04	2.367259E-04
4.962764E+03	5.258324E-04	2.357329E-04
4.972750E+03	5.235550E-04	2.347119E-04
4.982735E+03	5.212638E-04	2.336846E-04
4.992721E+03	5.189588E-04	2.326512E-04
5.002706E+03	5.166411E-04	2.316122E-04
5.012691E+03	5.142647E-04	2.305467E-04
5.022677E+03	5.119231E-04	2.294969E-04
5.032662E+03	5.095244E-04	2.284215E-04
5.042648E+03	5.071154E-04	2.273415E-04
5.052633E+03	5.046968E-04	2.262572E-04
5.062619E+03	5.022241E-04	2.251486E-04
5.072604E+03	4.997883E-04	2.240565E-04
5.082590E+03	4.972995E-04	2.229408E-04
5.092575E+03	4.948037E-04	2.218218E-04
5.102560E+03	4.923015E-04	2.207000E-04
5.112546E+03	4.897931E-04	2.195755E-04
5.122531E+03	4.872791E-04	2.184484E-04
5.132517E+03	4.847167E-04	2.172996E-04
5.142502E+03	4.821503E-04	2.161490E-04
5.152488E+03	4.795800E-04	2.149967E-04
5.162473E+03	4.770066E-04	2.138430E-04
5.172459E+03	4.744303E-04	2.126880E-04
5.182444E+03	4.718097E-04	2.115131E-04
5.192429E+03	4.692293E-04	2.103563E-04
5.202415E+03	4.666062E-04	2.091803E-04
5.212400E+03	4.639823E-04	2.080040E-04
5.222386E+03	4.613581E-04	2.068275E-04
5.232371E+03	4.586937E-04	2.056330E-04
5.242357E+03	4.560705E-04	2.044570E-04
5.252342E+03	4.534082E-04	2.032634E-04
5.262328E+03	4.507478E-04	2.020707E-04
5.272313E+03	4.480895E-04	2.008790E-04
5.282298E+03	4.454337E-04	1.996884E-04
5.292284E+03	4.427417E-04	1.984815E-04
5.302269E+03	4.400920E-04	1.972936E-04
5.312255E+03	4.374075E-04	1.960901E-04
5.322240E+03	4.347272E-04	1.948885E-04
5.332226E+03	4.320513E-04	1.936889E-04
5.342211E+03	4.293804E-04	1.924915E-04
5.352196E+03	4.266776E-04	1.912797E-04
5.362182E+03	4.240175E-04	1.900872E-04
5.372167E+03	4.213263E-04	1.888807E-04
5.382153E+03	4.186417E-04	1.876772E-04
5.392138E+03	4.159639E-04	1.864767E-04
5.402124E+03	4.132569E-04	1.852631E-04
5.412109E+03	4.105933E-04	1.840690E-04
5.422095E+03	4.079017E-04	1.828624E-04
5.432080E+03	4.052537E-04	1.816753E-04
5.442065E+03	4.025786E-04	1.804760E-04
5.452051E+03	3.998771E-04	1.792649E-04
5.462036E+03	3.972197E-04	1.780735E-04
5.472022E+03	3.945710E-04	1.768861E-04
5.482007E+03	3.918977E-04	1.756877E-04
5.491993E+03	3.892343E-04	1.744936E-04
5.501978E+03	3.866144E-04	1.733191E-04
5.511964E+03	3.839709E-04	1.721341E-04
5.521949E+03	3.813049E-04	1.709389E-04
5.531934E+03	3.786827E-04	1.697633E-04
5.541920E+03	3.760386E-04	1.685780E-04
5.551905E+03	3.734382E-04	1.674122E-04
5.561891E+03	3.708167E-04	1.662369E-04
5.571876E+03	3.682067E-04	1.650669E-04
5.581862E+03	3.656087E-04	1.639022E-04
5.591847E+03	3.630225E-04	1.627428E-04
5.601833E+03	3.604170E-04	1.615747E-04
5.611818E+03	3.578550E-04	1.604262E-04
5.621803E+03	3.552747E-04	1.592694E-04
5.631789E+03	3.527069E-04	1.581183E-04
5.641774E+03	3.501523E-04	1.569731E-04
5.651760E+03	3.476105E-04	1.558336E-04
5.661745E+03	3.450819E-04	1.547000E-04
5.671731E+03	3.425663E-04	1.535723E-04
5.681716E+03	3.400348E-04	1.524374E-04
5.691701E+03	3.375167E-04	1.513085E-04
5.701687E+03	3.350416E-04	1.501989E-04
5.711672E+03	3.325513E-04	1.490825E-04
5.721658E+03	3.300748E-04	1.479723E-04
5.731643E+03	3.276125E-04	1.468685E-04
5.741629E+03	3.251360E-04	1.457583E-04
5.751614E+03	3.227021E-04	1.446672E-04
5.761600E+03	3.202548E-04	1.435700E-04
5.771585E+03	3.178494E-04	1.424917E-04
5.781570E+03	3.154312E-04	1.414076E-04
5.791556E+03	3.130275E-04	1.403301E-04
5.801541E+03	3.106387E-04	1.392592E-04
5.811527E+03	3.082648E-04	1.381949E-04
5.821512E+03	3.059057E-04	1.371373E-04
5.831498E+03	3.035354E-04	1.360747E-04
5.841483E+03	3.012062E-04	1.350306E-04
5.851469E+03	2.988661E-04	1.339815E-04
5.861454E+03	2.965415E-04	1.329394E-04
5.871439E+03	2.942574E-04	1.319154E-04
5.881425E+03	2.919632E-04	1.308870E-04
5.891410E+03	2.896844E-04	1.298654E-04
5.901396E+03	2.874209E-04	1.288507E-04
5.911381E+03	2.851483E-04	1.278319E-04
5.921367E+03	2.829158E-04	1.268310E-04
5.931352E+03	2.806744E-04	1.258262E-04
5.941338E+03	2.784729E-04	1.248393E-04
5.951323E+03	2.762629E-04	1.238486E-04
5.961308E+03	2.740688E-04	1.228650E-04
5.971294E+03	2.719138E-04	1.218989E-04
5.981279E+03	2.697508E-04	1.209292E-04
5.991265E+03	2.676037E-04	1.199667E-04
6.001250E+03	2.654494E-04	1.190009E-04
6.011236E+03	2.633339E-04	1.180526E-04
6.021221E+03	2.612339E-04	1.171112E-04
6.031207E+03	2.591274E-04	1.161669E-04
6.041192E+03	2.570591E-04	1.152396E-04
6.051177E+03	2.549845E-04	1.143096E-04
6.061163E+03	2.529474E-04	1.133964E-04
6.071148E+03	2.509045E-04	1.124805E-04
6.081134E+03	2.488774E-04	1.115718E-04
6.091119E+03	2.468661E-04	1.106702E-04
6.101105E+03	2.448708E-04	1.097757E-04
6.111090E+03	2.428914E-04	1.088883E-04
6.121075E+03	2.409277E-04	1.080080E-04
6.131061E+03	2.389798E-04	1.071348E-04
6.141046E+03	2.370272E-04	1.062594E-04
6.151032E+03	2.351107E-04	1.054003E-04
6.161017E+03	2.331898E-04	1.045392E-04
6.171003E+03	2.313050E-04	1.036942E-04
6.180988E+03	2.294159E-04	1.028473E-04
6.190974E+03	2.275426E-04	1.020076E-04
6.200959E+03	2.257046E-04	1.011836E-04
6.210944E+03	2.238627E-04	1.003579E-04
6.220930E+03	2.220365E-04	9.953922E-05
6.230915E+03	2.202260E-04	9.872761E-05
6.240901E+03	2.184312E-04	9.792300E-05
6.250886E+03	2.166520E-04	9.712539E-05
6.260872E+03	2.148884E-04	9.633478E-05
6.270857E+03	2.131217E-04	9.554278E-05
6.280843E+03	2.113889E-04	9.476599E-05
6.290828E+03	2.096718E-04	9.399621E-05
6.300813E+03	2.079517E-04	9.322512E-05
6.310799E+03	2.062652E-04	9.246907E-05
6.320784E+03	2.045760E-04	9.171181E-05
6.330770E+03	2.029201E-04	9.096951E-05
6.340755E+03	2.012616E-04	9.022599E-05
6.350741E+03	1.996184E-04	8.948938E-05
6.360726E+03	1.979905E-04	8.875960E-05
6.370712E+03	1.963950E-04	8.804434E-05
6.380697E+03	1.947971E-04	8.732804E-05
6.390682E+03	1.932145E-04	8.661856E-05
6.400668E+03	1.916468E-04	8.591576E-05
6.410653E+03	1.900940E-04	8.521965E-05
6.420639E+03	1.885560E-04	8.453018E-05
6.430624E+03	1.870327E-04	8.384732E-05
6.440610E+03	1.855080E-04	8.316380E-05
6.450595E+03	1.840142E-04	8.249414E-05
6.460580E+03	1.825349E-04	8.183099E-05
6.470566E+03	1.810701E-04	8.117432E-05
6.480551E+03	1.796039E-04	8.051707E-05
6.490537E+03	1.781679E-04	7.987331E-05
6.500522E+03	1.767306E-04	7.922900E-05
6.510508E+03	1.753231E-04	7.859800E-05
6.520493E+03	1.739144E-04	7.796648E-05
6.530479E+03	1.725349E-04	7.734809E-05
6.540464E+03	1.711543E-04	7.672919E-05
6.550449E+03	1.698027E-04	7.612325E-05
6.560435E+03	1.684499E-04	7.551682E-05
6.570420E+03	1.671110E-04	7.491658E-05
6.580406E+03	1.657858E-04	7.432251E-05
6.590391E+03	1.644742E-04	7.373453E-05
6.600377E+03	1.631904E-04	7.315905E-05
6.610362E+03	1.619057E-04	7.258310E-05
6.620348E+03	1.606343E-04	7.201314E-05
6.630333E+03	1.593760E-04	7.144909E-05
6.640318E+03	1.581309E-04	7.089092E-05
6.650304E+03	1.568989E-04	7.033859E-05
6.660289E+03	1.556796E-04	6.979203E-05
6.670275E+03	1.544732E-04	6.925120E-05
6.680260E+03	1.532660E-04	6.871001E-05
6.690246E+03	1.520849E-04	6.818054E-05
6.700231E+03	1.509162E-04	6.765664E-05
6.710217E+03	1.497599E-04	6.713828E-05
6.720202E+03	1.486027E-04	6.661952E-05
6.730187E+03	1.474708E-04	6.611209E-05
6.740173E+03	1.463509E-04	6.561004E-05
6.750158E+03	1.452300E-04	6.510755E-05
6.760144E+03	1.441337E-04	6.461611E-05
6.770129E+03	1.430491E-04	6.412987E-05
6.780115E+03	1.419634E-04	6.364316E-05
6.790100E+03	1.409017E-04	6.316720E-05
6.800085E+03	1.398388E-04	6.269073E-05
6.810071E+03	1.387872E-04	6.221932E-05
6.820056E+03	1.377590E-04	6.175838E-05
6.830042E+03	1.367295E-04	6.129688E-05
6.840027E+03	1.357110E-04	6.084025E-05
6.850013E+03	1.347151E-04	6.039382E-05
6.859998E+03	1.337178E-04	5.994674E-05
6.869984E+03	1.327310E-04	5.950437E-05
6.879969E+03	1.317546E-04	5.906664E-05
6.889954E+03	1.307884E-04	5.863350E-05
6.899940E+03	1.298438E-04	5.821006E-05
6.909925E+03	1.288976E-04	5.778587E-05
6.919911E+03	1.279611E-04	5.736608E-05
6.929896E+03	1.270344E-04	5.695062E-05
6.939882E+03	1.261172E-04	5.653946E-05
6.949867E+03	1.252094E-04	5.613252E-05
6.959853E+03	1.243109E-04	5.572972E-05
6.969838E+03	1.234106E-04	5.532609E-05
6.979823E+03	1.225303E-04	5.493148E-05
6.989809E+03	1.216589E-04	5.454083E-05
6.999794E+03	1.207962E-04	5.415411E-05
7.009780E+03	1.199422E-04	5.377124E-05
7.019765E+03	1.190859E-04	5.338738E-05
7.029751E+03	1.182487E-04	5.301207E-05
7.039736E+03	1.174197E-04	5.264043E-05
7.049722E+03	1.165883E-04	5.226772E-05
7.059707E+03	1.157754E-04	5.190329E-05
7.069692E+03	1.149599E-04	5.153772E-05
7.079678E+03	1.141625E-04	5.118026E-05
7.089663E+03	1.133624E-04	5.082160E-05
7.099649E+03	1.125800E-04	5.047086E-05
7.109634E+03	1.117949E-04	5.011889E-05
7.119620E+03	1.110170E-04	4.977017E-05
7.129605E+03	1.102562E-04	4.942912E-05
7.139590E+03	1.094925E-04	4.908673E-05
7.149576E+03	1.087357E-04	4.874745E-05
7.159561E+03	1.079856E-04	4.841120E-05
7.169547E+03	1.072422E-04	4.807795E-05
7.179532E+03	1.065150E-04	4.775194E-05
7.189518E+03	1.057845E-04	4.742448E-05
7.199503E+03	1.050603E-04	4.709983E-05
7.209489E+03	1.043424E-04	4.677798E-05
7.219474E+03	1.036305E-04	4.645883E-05
7.229459E+03	1.029152E-04	4.613819E-05
7.239445E+03	1.022152E-04	4.582438E-05
7.249430E+03	1.015209E-04	4.551315E-05
7.259416E+03	1.008323E-04	4.520446E-05
7.269401E+03	1.001402E-04	4.489416E-05
7.279387E+03	9.946262E-05	4.459042E-05
7.289372E+03	9.879040E-05	4.428907E-05
7.299358E+03	9.811448E-05	4.398606E-05
7.309343E+03	9.745274E-05	4.368940E-05
7.319328E+03	9.678719E-05	4.339104E-05
7.329314E+03	9.613551E-05	4.309889E-05
7.339299E+03	9.547998E-05	4.280502E-05
7.349285E+03	9.482934E-05	4.251334E-05
7.359270E+03	9.418353E-05	4.222383E-05
7.369256E+03	9.355103E-05	4.194029E-05
7.379241E+03	9.291456E-05	4.165496E-05
7.389227E+03	9.228265E-05	4.137168E-05
7.399212E+03	9.165527E-05	4.109043E-05
7.409197E+03	9.103231E-05	4.081116E-05
7.419183E+03	9.041373E-05	4.053385E-05
7.429168E+03	8.979944E-05	4.025847E-05
7.439154E+03	8.918116E-05	3.998130E-05
7.449139E+03	8.857532E-05	3.970970E-05
7.459125E+03	8.797361E-05	3.943995E-05
7.469110E+03	8.736788E-05	3.916841E-05
7.479095E+03	8.677426E-05	3.890229E-05
7.489081E+03	8.617665E-05	3.863439E-05
7.499066E+03	8.559093E-05	3.837181E-05
7.509052E+03	8.500121E-05	3.810744E-05
7.519037E+03	8.442322E-05	3.784833E-05
7.529023E+03	8.384123E-05	3.758743E-05
7.539008E+03	8.326307E-05	3.732824E-05
7.548994E+03	8.268869E-05	3.707075E-05
7.558979E+03	8.211807E-05	3.681494E-05
7.568964E+03	8.155119E-05	3.656081E-05
7.578950E+03	8.098799E-05	3.630833E-05
7.588935E+03	8.042845E-05	3.605749E-05
7.598921E+03	7.987256E-05	3.580828E-05
7.608906E+03	7.931289E-05	3.555738E-05
7.618892E+03	7.876426E-05	3.531144E-05
7.628877E+03	7.821922E-05	3.506710E-05
7.638863E+03	7.767048E-05	3.482110E-05
7.648848E+03	7.713260E-05	3.457996E-05
7.658833E+03	7.659109E-05	3.433721E-05
7.668819E+03	7.605316E-05	3.409605E-05
7.678804E+03	7.552596E-05	3.385971E-05
7.688790E+03	7.499522E-05	3.362178E-05
7.698775E+03	7.446807E-05	3.338546E-05
7.708761E+03	7.394451E-05	3.315075E-05
7.718746E+03	7.342455E-05	3.291765E-05
7.728732E+03	7.290818E-05	3.268616E-05
7.738717E+03	7.238855E-05	3.245321E-05
7.748702E+03	7.187941E-05	3.222497E-05
