#wls	flux	fluxerr
1.597671E+03	1.749846E-04	1.612683E-04
1.637612E+03	1.740191E-04	1.603778E-04
1.677554E+03	1.731587E-04	1.595842E-04
1.717496E+03	1.724067E-04	1.588905E-04
1.757438E+03	1.717968E-04	1.583278E-04
1.797379E+03	1.712711E-04	1.578426E-04
1.837321E+03	1.708933E-04	1.574938E-04
1.877263E+03	1.706359E-04	1.572559E-04
1.917205E+03	1.705318E-04	1.571593E-04
1.957146E+03	1.705236E-04	1.571511E-04
1.997088E+03	1.706740E-04	1.572890E-04
2.037030E+03	1.709556E-04	1.575478E-04
2.076972E+03	1.713710E-04	1.579299E-04
2.116914E+03	1.719528E-04	1.584654E-04
2.156855E+03	1.726433E-04	1.591011E-04
2.196797E+03	1.735054E-04	1.598948E-04
2.236739E+03	1.745112E-04	1.608209E-04
2.276681E+03	1.756938E-04	1.619100E-04
2.316622E+03	1.769943E-04	1.631077E-04
2.356564E+03	1.784765E-04	1.644729E-04
2.396506E+03	1.801432E-04	1.660080E-04
2.436448E+03	1.819342E-04	1.676577E-04
2.476389E+03	1.839144E-04	1.694816E-04
2.516331E+03	1.860544E-04	1.714529E-04
2.556273E+03	1.883561E-04	1.735730E-04
2.596215E+03	1.908210E-04	1.758436E-04
2.636156E+03	1.934837E-04	1.782964E-04
2.676098E+03	1.963129E-04	1.809027E-04
2.716040E+03	1.993097E-04	1.836634E-04
2.755982E+03	2.024747E-04	1.865789E-04
2.795924E+03	2.058430E-04	1.896819E-04
2.835865E+03	2.093806E-04	1.929407E-04
2.875807E+03	2.130867E-04	1.963549E-04
2.915749E+03	2.169970E-04	1.999571E-04
2.955691E+03	2.210367E-04	2.036786E-04
2.995632E+03	2.252776E-04	2.075854E-04
3.005618E+03	2.263536E-04	2.085766E-04
3.015603E+03	2.274778E-04	2.096123E-04
3.025589E+03	2.285738E-04	2.106219E-04
3.035574E+03	2.296796E-04	2.116406E-04
3.045560E+03	2.308339E-04	2.127040E-04
3.055545E+03	2.319593E-04	2.137408E-04
3.065530E+03	2.330943E-04	2.147863E-04
3.075516E+03	2.342781E-04	2.158768E-04
3.085501E+03	2.354321E-04	2.169400E-04
3.095487E+03	2.365955E-04	2.180118E-04
3.105472E+03	2.378080E-04	2.191287E-04
3.115458E+03	2.389900E-04	2.202176E-04
3.125443E+03	2.401810E-04	2.213148E-04
3.135429E+03	2.414213E-04	2.224574E-04
3.145414E+03	2.426303E-04	2.235711E-04
3.155399E+03	2.438887E-04	2.247304E-04
3.165385E+03	2.451152E-04	2.258602E-04
3.175370E+03	2.463912E-04	2.270357E-04
3.185356E+03	2.476346E-04	2.281812E-04
3.195341E+03	2.489278E-04	2.293725E-04
3.205327E+03	2.501876E-04	2.305331E-04
3.215312E+03	2.514973E-04	2.317396E-04
3.225298E+03	2.527731E-04	2.329149E-04
3.235283E+03	2.540987E-04	2.341361E-04
3.245268E+03	2.553897E-04	2.353254E-04
3.255254E+03	2.567307E-04	2.365607E-04
3.265239E+03	2.580362E-04	2.377634E-04
3.275225E+03	2.593918E-04	2.390122E-04
3.285210E+03	2.607545E-04	2.402675E-04
3.295196E+03	2.620807E-04	2.414892E-04
3.305181E+03	2.634569E-04	2.427570E-04
3.315166E+03	2.647958E-04	2.439904E-04
3.325152E+03	2.661847E-04	2.452699E-04
3.335137E+03	2.675797E-04	2.465550E-04
3.345123E+03	2.689361E-04	2.478045E-04
3.355108E+03	2.703425E-04	2.491001E-04
3.365094E+03	2.717543E-04	2.504007E-04
3.375079E+03	2.731263E-04	2.516645E-04
3.385065E+03	2.745480E-04	2.529743E-04
3.395050E+03	2.759744E-04	2.542883E-04
3.405035E+03	2.774053E-04	2.556064E-04
3.415021E+03	2.787944E-04	2.568861E-04
3.425006E+03	2.802331E-04	2.582114E-04
3.434992E+03	2.816753E-04	2.595400E-04
3.444977E+03	2.830744E-04	2.608288E-04
3.454963E+03	2.845227E-04	2.621630E-04
3.464948E+03	2.859737E-04	2.634997E-04
3.474934E+03	2.874270E-04	2.648385E-04
3.484919E+03	2.888351E-04	2.661356E-04
3.494904E+03	2.902919E-04	2.674777E-04
3.504890E+03	2.917501E-04	2.688210E-04
3.514875E+03	2.932093E-04	2.701652E-04
3.524861E+03	2.946692E-04	2.715100E-04
3.534846E+03	2.960809E-04	2.728105E-04
3.544832E+03	2.975407E-04	2.741552E-04
3.554817E+03	2.990000E-04	2.754996E-04
3.564803E+03	3.004584E-04	2.768430E-04
3.574788E+03	3.019156E-04	2.781853E-04
3.584773E+03	3.033215E-04	2.794805E-04
3.594759E+03	3.047746E-04	2.808191E-04
3.604744E+03	3.062252E-04	2.821553E-04
3.614730E+03	3.076727E-04	2.834888E-04
3.624715E+03	3.091168E-04	2.848191E-04
3.634701E+03	3.105570E-04	2.861458E-04
3.644686E+03	3.119423E-04	2.874218E-04
3.654671E+03	3.133731E-04	2.887399E-04
3.664657E+03	3.147985E-04	2.900530E-04
3.674642E+03	3.162182E-04	2.913608E-04
3.684628E+03	3.176316E-04	2.926627E-04
3.694613E+03	3.190381E-04	2.939584E-04
3.704599E+03	3.204373E-04	2.952473E-04
3.714584E+03	3.217767E-04	2.964811E-04
3.724570E+03	3.231594E-04	2.977549E-04
3.734555E+03	3.245332E-04	2.990203E-04
3.744540E+03	3.258975E-04	3.002771E-04
3.754526E+03	3.272517E-04	3.015246E-04
3.764511E+03	3.285953E-04	3.027622E-04
3.774497E+03	3.299276E-04	3.039895E-04
3.784482E+03	3.312482E-04	3.052060E-04
3.794468E+03	3.325029E-04	3.063618E-04
3.804453E+03	3.337979E-04	3.075547E-04
3.814439E+03	3.350793E-04	3.087351E-04
3.824424E+03	3.363465E-04	3.099024E-04
3.834409E+03	3.375988E-04	3.110559E-04
3.844395E+03	3.388356E-04	3.121953E-04
3.854380E+03	3.400563E-04	3.133197E-04
3.864366E+03	3.412603E-04	3.144287E-04
3.874351E+03	3.423920E-04	3.154712E-04
3.884337E+03	3.435603E-04	3.165474E-04
3.894322E+03	3.447098E-04	3.176062E-04
3.904308E+03	3.458400E-04	3.186473E-04
3.914293E+03	3.469500E-04	3.196698E-04
3.924278E+03	3.480393E-04	3.206731E-04
3.934264E+03	3.491071E-04	3.216567E-04
3.944249E+03	3.500970E-04	3.225686E-04
3.954235E+03	3.511198E-04	3.235107E-04
3.964220E+03	3.521190E-04	3.244311E-04
3.974206E+03	3.530940E-04	3.253292E-04
3.984191E+03	3.540441E-04	3.262044E-04
3.994176E+03	3.549687E-04	3.270560E-04
4.004162E+03	3.558104E-04	3.278313E-04
4.014147E+03	3.566815E-04	3.286337E-04
4.024133E+03	3.575249E-04	3.294105E-04
4.034118E+03	3.583400E-04	3.301612E-04
4.044104E+03	3.591259E-04	3.308852E-04
4.054089E+03	3.598252E-04	3.315293E-04
4.064075E+03	3.605509E-04	3.321977E-04
4.074060E+03	3.612454E-04	3.328374E-04
4.084045E+03	3.619082E-04	3.334478E-04
4.094031E+03	3.624813E-04	3.339757E-04
4.104016E+03	3.630784E-04	3.345257E-04
4.114002E+03	3.636418E-04	3.350446E-04
4.123987E+03	3.641708E-04	3.355318E-04
4.133973E+03	3.646074E-04	3.359339E-04
4.143958E+03	3.650658E-04	3.363561E-04
4.153944E+03	3.654880E-04	3.367448E-04
4.163929E+03	3.658733E-04	3.370998E-04
4.173914E+03	3.661639E-04	3.373673E-04
4.183900E+03	3.664741E-04	3.376530E-04
4.193885E+03	3.667459E-04	3.379032E-04
4.203871E+03	3.669213E-04	3.380648E-04
4.213856E+03	3.671150E-04	3.382430E-04
4.223842E+03	3.672689E-04	3.383847E-04
4.233827E+03	3.673251E-04	3.384364E-04
4.243813E+03	3.673983E-04	3.385037E-04
4.253798E+03	3.673732E-04	3.384804E-04
4.263783E+03	3.673644E-04	3.384722E-04
4.273769E+03	3.673141E-04	3.384258E-04
4.283754E+03	3.671648E-04	3.382882E-04
4.293740E+03	3.670310E-04	3.381648E-04
4.303725E+03	3.667979E-04	3.379500E-04
4.313711E+03	3.665800E-04	3.377491E-04
4.323696E+03	3.662627E-04	3.374567E-04
4.333681E+03	3.659603E-04	3.371780E-04
4.343667E+03	3.655588E-04	3.368080E-04
4.353652E+03	3.651721E-04	3.364517E-04
4.363638E+03	3.646867E-04	3.360044E-04
4.373623E+03	3.642161E-04	3.355707E-04
4.383609E+03	3.636473E-04	3.350467E-04
4.393594E+03	3.630937E-04	3.345366E-04
4.403580E+03	3.624426E-04	3.339367E-04
4.413565E+03	3.618071E-04	3.333512E-04
4.423550E+03	3.610751E-04	3.326768E-04
4.433536E+03	3.603034E-04	3.319657E-04
4.443521E+03	3.595480E-04	3.312698E-04
4.453507E+03	3.586980E-04	3.304866E-04
4.463492E+03	3.578096E-04	3.296681E-04
4.473478E+03	3.569387E-04	3.288657E-04
4.483463E+03	3.559753E-04	3.279781E-04
4.493449E+03	3.549753E-04	3.270568E-04
4.503434E+03	3.539940E-04	3.261527E-04
4.513419E+03	3.529227E-04	3.251657E-04
4.523405E+03	3.518168E-04	3.241469E-04
4.533390E+03	3.506770E-04	3.230968E-04
4.543376E+03	3.495041E-04	3.220162E-04
4.553361E+03	3.483524E-04	3.209551E-04
4.563347E+03	3.471152E-04	3.198153E-04
4.573332E+03	3.458471E-04	3.186470E-04
4.583318E+03	3.445488E-04	3.174508E-04
4.593303E+03	3.432211E-04	3.162277E-04
4.603288E+03	3.418649E-04	3.149782E-04
4.613274E+03	3.404809E-04	3.137031E-04
4.623259E+03	3.390698E-04	3.124031E-04
4.633245E+03	3.376326E-04	3.110790E-04
4.643230E+03	3.361699E-04	3.097315E-04
4.653216E+03	3.346826E-04	3.083613E-04
4.663201E+03	3.331715E-04	3.069691E-04
4.673186E+03	3.316373E-04	3.055557E-04
4.683172E+03	3.300810E-04	3.041219E-04
4.693157E+03	3.285031E-04	3.026682E-04
4.703143E+03	3.269046E-04	3.011956E-04
4.713128E+03	3.252863E-04	2.997046E-04
4.723114E+03	3.236488E-04	2.981960E-04
4.733099E+03	3.219930E-04	2.966706E-04
4.743085E+03	3.203196E-04	2.951290E-04
4.753070E+03	3.185808E-04	2.935270E-04
4.763055E+03	3.168748E-04	2.919553E-04
4.773041E+03	3.151534E-04	2.903695E-04
4.783026E+03	3.134175E-04	2.887702E-04
4.793012E+03	3.116202E-04	2.871144E-04
4.802997E+03	3.098574E-04	2.854904E-04
4.812983E+03	3.080822E-04	2.838550E-04
4.822968E+03	3.062487E-04	2.821658E-04
4.832954E+03	3.044508E-04	2.805095E-04
4.842939E+03	3.026426E-04	2.788436E-04
4.852924E+03	3.007789E-04	2.771266E-04
4.862910E+03	2.989520E-04	2.754436E-04
4.872895E+03	2.970716E-04	2.737112E-04
4.882881E+03	2.952287E-04	2.720134E-04
4.892866E+03	2.933785E-04	2.703088E-04
4.902852E+03	2.914775E-04	2.685575E-04
4.912837E+03	2.895710E-04	2.668011E-04
4.922823E+03	2.877032E-04	2.650804E-04
4.932808E+03	2.857873E-04	2.633153E-04
4.942793E+03	2.839106E-04	2.615863E-04
4.952779E+03	2.819873E-04	2.598145E-04
4.962764E+03	2.801038E-04	2.580793E-04
4.972750E+03	2.781754E-04	2.563027E-04
4.982735E+03	2.762454E-04	2.545246E-04
4.992721E+03	2.743143E-04	2.527455E-04
5.002706E+03	2.724236E-04	2.510037E-04
5.012691E+03	2.704912E-04	2.492234E-04
5.022677E+03	2.685592E-04	2.474435E-04
5.032662E+03	2.666278E-04	2.456642E-04
5.042648E+03	2.647375E-04	2.439227E-04
5.052633E+03	2.628086E-04	2.421456E-04
5.062619E+03	2.608816E-04	2.403704E-04
5.072604E+03	2.589571E-04	2.385973E-04
5.082590E+03	2.570353E-04	2.368268E-04
5.092575E+03	2.551167E-04	2.350592E-04
5.102560E+03	2.532016E-04	2.332949E-04
5.112546E+03	2.512904E-04	2.315342E-04
5.122531E+03	2.493834E-04	2.297773E-04
5.132517E+03	2.474810E-04	2.280247E-04
5.142502E+03	2.455836E-04	2.262766E-04
5.152488E+03	2.436913E-04	2.245333E-04
5.162473E+03	2.418045E-04	2.227950E-04
5.172459E+03	2.399236E-04	2.210622E-04
5.182444E+03	2.380488E-04	2.193350E-04
5.192429E+03	2.361803E-04	2.176136E-04
5.202415E+03	2.343185E-04	2.158983E-04
5.212400E+03	2.324287E-04	2.141573E-04
5.222386E+03	2.305812E-04	2.124553E-04
5.232371E+03	2.287412E-04	2.107600E-04
5.242357E+03	2.269087E-04	2.090718E-04
5.252342E+03	2.250504E-04	2.073598E-04
5.262328E+03	2.232341E-04	2.056865E-04
5.272313E+03	2.214261E-04	2.040208E-04
5.282298E+03	2.195936E-04	2.023326E-04
5.292284E+03	2.178030E-04	2.006829E-04
5.302269E+03	2.160211E-04	1.990413E-04
5.312255E+03	2.142162E-04	1.973784E-04
5.322240E+03	2.124528E-04	1.957538E-04
5.332226E+03	2.106672E-04	1.941087E-04
5.342211E+03	2.089228E-04	1.925017E-04
5.352196E+03	2.071570E-04	1.908749E-04
5.362182E+03	2.054323E-04	1.892859E-04
5.372167E+03	2.036869E-04	1.876779E-04
5.382153E+03	2.019822E-04	1.861074E-04
5.392138E+03	2.002578E-04	1.845186E-04
5.402124E+03	1.985440E-04	1.829398E-04
5.412109E+03	1.968705E-04	1.813980E-04
5.422095E+03	1.951782E-04	1.798389E-04
5.432080E+03	1.934969E-04	1.782899E-04
5.442065E+03	1.918554E-04	1.767776E-04
5.452051E+03	1.901961E-04	1.752489E-04
5.462036E+03	1.885481E-04	1.737306E-04
5.472022E+03	1.869114E-04	1.722227E-04
5.482007E+03	1.853136E-04	1.707507E-04
5.491993E+03	1.836994E-04	1.692635E-04
5.501978E+03	1.820966E-04	1.677869E-04
5.511964E+03	1.805054E-04	1.663208E-04
5.521949E+03	1.789257E-04	1.648654E-04
5.531934E+03	1.773575E-04	1.634207E-04
5.541920E+03	1.758010E-04	1.619867E-04
5.551905E+03	1.742560E-04	1.605633E-04
5.561891E+03	1.727485E-04	1.591744E-04
5.571876E+03	1.712267E-04	1.577724E-04
5.581862E+03	1.697166E-04	1.563811E-04
5.591847E+03	1.681931E-04	1.549775E-04
5.601833E+03	1.667066E-04	1.536080E-04
5.611818E+03	1.652318E-04	1.522492E-04
5.621803E+03	1.637687E-04	1.509013E-04
5.631789E+03	1.623173E-04	1.495641E-04
5.641774E+03	1.608776E-04	1.482377E-04
5.651760E+03	1.594496E-04	1.469220E-04
5.661745E+03	1.580333E-04	1.456171E-04
5.671731E+03	1.566286E-04	1.443230E-04
5.681716E+03	1.552124E-04	1.430183E-04
5.691701E+03	1.538312E-04	1.417457E-04
5.701687E+03	1.524616E-04	1.404839E-04
5.711672E+03	1.511035E-04	1.392326E-04
5.721658E+03	1.497347E-04	1.379715E-04
5.731643E+03	1.483998E-04	1.367417E-04
5.741629E+03	1.470764E-04	1.355224E-04
5.751614E+03	1.457428E-04	1.342937E-04
5.761600E+03	1.444425E-04	1.330957E-04
5.771585E+03	1.431535E-04	1.319081E-04
5.781570E+03	1.418547E-04	1.307115E-04
5.791556E+03	1.405885E-04	1.295449E-04
5.801541E+03	1.393128E-04	1.283696E-04
5.811527E+03	1.380691E-04	1.272237E-04
5.821512E+03	1.368163E-04	1.260695E-04
5.831498E+03	1.355950E-04	1.249443E-04
5.841483E+03	1.343648E-04	1.238108E-04
5.851469E+03	1.331657E-04	1.227061E-04
5.861454E+03	1.319579E-04	1.215933E-04
5.871439E+03	1.307807E-04	1.205087E-04
5.881425E+03	1.295951E-04	1.194164E-04
5.891410E+03	1.284206E-04	1.183343E-04
5.901396E+03	1.272760E-04	1.172797E-04
5.911381E+03	1.261233E-04	1.162177E-04
5.921367E+03	1.249815E-04	1.151657E-04
5.931352E+03	1.238689E-04	1.141406E-04
5.941338E+03	1.227485E-04	1.131084E-04
5.951323E+03	1.216388E-04	1.120860E-04
5.961308E+03	1.205577E-04	1.110899E-04
5.971294E+03	1.194690E-04	1.100869E-04
5.981279E+03	1.183908E-04	1.090935E-04
5.991265E+03	1.173231E-04	1.081097E-04
6.001250E+03	1.162657E-04	1.071355E-04
6.011236E+03	1.152356E-04	1.061865E-04
6.021221E+03	1.141985E-04	1.052309E-04
6.031207E+03	1.131716E-04	1.042848E-04
6.041192E+03	1.121547E-04	1.033478E-04
6.051177E+03	1.111478E-04	1.024201E-04
6.061163E+03	1.101507E-04	1.015015E-04
6.071148E+03	1.091636E-04	1.005920E-04
6.081134E+03	1.081861E-04	9.969141E-05
6.091119E+03	1.072184E-04	9.879979E-05
6.101105E+03	1.062603E-04	9.791702E-05
6.111090E+03	1.053117E-04	9.704303E-05
6.121075E+03	1.043726E-04	9.617774E-05
6.131061E+03	1.034428E-04	9.532110E-05
6.141046E+03	1.025223E-04	9.447303E-05
6.151032E+03	1.016111E-04	9.363349E-05
6.161017E+03	1.007091E-04	9.280236E-05
6.171003E+03	9.981610E-05	9.197962E-05
6.180988E+03	9.893211E-05	9.116513E-05
6.190974E+03	9.805707E-05	9.035891E-05
6.200959E+03	9.719089E-05	8.956084E-05
6.210944E+03	9.633344E-05	8.877082E-05
6.220930E+03	9.548474E-05	8.798885E-05
6.230915E+03	9.463062E-05	8.720189E-05
6.240901E+03	9.379920E-05	8.643585E-05
6.250886E+03	9.297625E-05	8.567761E-05
6.260872E+03	9.216171E-05	8.492711E-05
6.270857E+03	9.135548E-05	8.418428E-05
6.280843E+03	9.054407E-05	8.343667E-05
6.290828E+03	8.975438E-05	8.270907E-05
6.300813E+03	8.897283E-05	8.198897E-05
6.310799E+03	8.819926E-05	8.127622E-05
6.320784E+03	8.742069E-05	8.055887E-05
6.330770E+03	8.666309E-05	7.986083E-05
6.340755E+03	8.591329E-05	7.916998E-05
6.350741E+03	8.515859E-05	7.847462E-05
6.360726E+03	8.442431E-05	7.779806E-05
6.370712E+03	8.368513E-05	7.711700E-05
6.380697E+03	8.296606E-05	7.645445E-05
6.390682E+03	8.225440E-05	7.579875E-05
6.400668E+03	8.153801E-05	7.513868E-05
6.410653E+03	8.084116E-05	7.449660E-05
6.420639E+03	8.013960E-05	7.385020E-05
6.430624E+03	7.945721E-05	7.322145E-05
6.440610E+03	7.878190E-05	7.259923E-05
6.450595E+03	7.810204E-05	7.197281E-05
6.460580E+03	7.744081E-05	7.136356E-05
6.470566E+03	7.677503E-05	7.075012E-05
6.480551E+03	7.612759E-05	7.015357E-05
6.490537E+03	7.547567E-05	6.955290E-05
6.500522E+03	7.483061E-05	6.895854E-05
6.510508E+03	7.420338E-05	6.838062E-05
6.520493E+03	7.357173E-05	6.779861E-05
6.530479E+03	7.295761E-05	6.723276E-05
6.540464E+03	7.233913E-05	6.666290E-05
6.550449E+03	7.173785E-05	6.610888E-05
6.560435E+03	7.113226E-05	6.555088E-05
6.570420E+03	7.053302E-05	6.499875E-05
6.580406E+03	6.995054E-05	6.446205E-05
6.590391E+03	6.936384E-05	6.392146E-05
6.600377E+03	6.878329E-05	6.338653E-05
6.610362E+03	6.821903E-05	6.286662E-05
6.620348E+03	6.765059E-05	6.234286E-05
6.630333E+03	6.708815E-05	6.182462E-05
6.640318E+03	6.654155E-05	6.132098E-05
6.650304E+03	6.599086E-05	6.081357E-05
6.660289E+03	6.544592E-05	6.031146E-05
6.670275E+03	6.490675E-05	5.981466E-05
6.680260E+03	6.438286E-05	5.933194E-05
6.690246E+03	6.385491E-05	5.884548E-05
6.700231E+03	6.333253E-05	5.836415E-05
6.710217E+03	6.281565E-05	5.788789E-05
6.720202E+03	6.230423E-05	5.741665E-05
6.730187E+03	6.180737E-05	5.695884E-05
6.740173E+03	6.130657E-05	5.649739E-05
6.750158E+03	6.081100E-05	5.604077E-05
6.760144E+03	6.032067E-05	5.558896E-05
6.770129E+03	5.983550E-05	5.514191E-05
6.780115E+03	5.935540E-05	5.469954E-05
6.790100E+03	5.888036E-05	5.426182E-05
6.800085E+03	5.841028E-05	5.382868E-05
6.810071E+03	5.795375E-05	5.340803E-05
6.820056E+03	5.749343E-05	5.298387E-05
6.830042E+03	5.703789E-05	5.256412E-05
6.840027E+03	5.658713E-05	5.214878E-05
6.850013E+03	5.614107E-05	5.173777E-05
6.859998E+03	5.569969E-05	5.133106E-05
6.869984E+03	5.526290E-05	5.092859E-05
6.879969E+03	5.483066E-05	5.053031E-05
6.889954E+03	5.440295E-05	5.013620E-05
6.899940E+03	5.397968E-05	4.974618E-05
6.909925E+03	5.356081E-05	4.936022E-05
6.919911E+03	5.314627E-05	4.897825E-05
6.929896E+03	5.273606E-05	4.860027E-05
6.939882E+03	5.233011E-05	4.822621E-05
6.949867E+03	5.192837E-05	4.785603E-05
6.959853E+03	5.152310E-05	4.748260E-05
6.969838E+03	5.112969E-05	4.712009E-05
6.979823E+03	5.074034E-05	4.676132E-05
6.989809E+03	5.035502E-05	4.640627E-05
6.999794E+03	4.997365E-05	4.605486E-05
7.009780E+03	4.959624E-05	4.570709E-05
7.019765E+03	4.922270E-05	4.536290E-05
7.029751E+03	4.885301E-05	4.502225E-05
7.039736E+03	4.847985E-05	4.467840E-05
7.049722E+03	4.811776E-05	4.434475E-05
7.059707E+03	4.775940E-05	4.401454E-05
7.069692E+03	4.740469E-05	4.368769E-05
7.079678E+03	4.705363E-05	4.336421E-05
7.089663E+03	4.669915E-05	4.303757E-05
7.099649E+03	4.635528E-05	4.272071E-05
7.109634E+03	4.601492E-05	4.240708E-05
7.119620E+03	4.567802E-05	4.209664E-05
7.129605E+03	4.533773E-05	4.178308E-05
7.139590E+03	4.500772E-05	4.147898E-05
7.149576E+03	4.468102E-05	4.117794E-05
7.159561E+03	4.435767E-05	4.087999E-05
7.169547E+03	4.403098E-05	4.057895E-05
7.179532E+03	4.371418E-05	4.028704E-05
7.189518E+03	4.340062E-05	3.999810E-05
7.199503E+03	4.308372E-05	3.970608E-05
7.209489E+03	4.277652E-05	3.942301E-05
7.219474E+03	4.247237E-05	3.914275E-05
7.229459E+03	4.216499E-05	3.885951E-05
7.239445E+03	4.186702E-05	3.858493E-05
7.249430E+03	4.156577E-05	3.830735E-05
7.259416E+03	4.127382E-05	3.803832E-05
7.269401E+03	4.098477E-05	3.777197E-05
7.279387E+03	4.069253E-05	3.750267E-05
7.289372E+03	4.040931E-05	3.724170E-05
7.299358E+03	4.012294E-05	3.697781E-05
7.309343E+03	3.984541E-05	3.672207E-05
7.319328E+03	3.956472E-05	3.646342E-05
7.329314E+03	3.929280E-05	3.621286E-05
7.339299E+03	3.901768E-05	3.595934E-05
7.349285E+03	3.875122E-05	3.571380E-05
7.359270E+03	3.848160E-05	3.546535E-05
7.369256E+03	3.822048E-05	3.522474E-05
7.379241E+03	3.795624E-05	3.498124E-05
7.389227E+03	3.770032E-05	3.474542E-05
7.399212E+03	3.744135E-05	3.450678E-05
7.409197E+03	3.718498E-05	3.427053E-05
7.419183E+03	3.693675E-05	3.404180E-05
7.429168E+03	3.668548E-05	3.381025E-05
7.439154E+03	3.644223E-05	3.358610E-05
7.449139E+03	3.619595E-05	3.335916E-05
7.459125E+03	3.595216E-05	3.313450E-05
7.469110E+03	3.571621E-05	3.291708E-05
7.479095E+03	3.547727E-05	3.269690E-05
7.489081E+03	3.524074E-05	3.247893E-05
7.499066E+03	3.501188E-05	3.226805E-05
7.509052E+03	3.478007E-05	3.205443E-05
7.519037E+03	3.455059E-05	3.184297E-05
7.529023E+03	3.432863E-05	3.163843E-05
7.539008E+03	3.410374E-05	3.143119E-05
7.548994E+03	3.388112E-05	3.122605E-05
7.558979E+03	3.366077E-05	3.102300E-05
7.568964E+03	3.344771E-05	3.082667E-05
7.578950E+03	3.323178E-05	3.062768E-05
7.588935E+03	3.301804E-05	3.043072E-05
7.598921E+03	3.280648E-05	3.023577E-05
7.608906E+03	3.260202E-05	3.004736E-05
7.618892E+03	3.239473E-05	2.985634E-05
7.628877E+03	3.218956E-05	2.966727E-05
7.638863E+03	3.198649E-05	2.948015E-05
7.648848E+03	3.178551E-05	2.929494E-05
7.658833E+03	3.158660E-05	2.911164E-05
7.668819E+03	3.138975E-05	2.893024E-05
7.678804E+03	3.119967E-05	2.875508E-05
7.688790E+03	3.100684E-05	2.857738E-05
7.698775E+03	3.081601E-05	2.840153E-05
7.708761E+03	3.062717E-05	2.822752E-05
7.718746E+03	3.044030E-05	2.805532E-05
7.728732E+03	3.025540E-05	2.788492E-05
7.738717E+03	3.007244E-05	2.771632E-05
7.748702E+03	2.989140E-05	2.754949E-05
