#wls	flux	fluxerr
1.597671E+03	1.771649E-04	1.452655E-04
1.637612E+03	1.760502E-04	1.443511E-04
1.677554E+03	1.750143E-04	1.435014E-04
1.717496E+03	1.741229E-04	1.427701E-04
1.757438E+03	1.733480E-04	1.421344E-04
1.797379E+03	1.726925E-04	1.415966E-04
1.837321E+03	1.721596E-04	1.411592E-04
1.877263E+03	1.717821E-04	1.408493E-04
1.917205E+03	1.715323E-04	1.406441E-04
1.957146E+03	1.714130E-04	1.405459E-04
1.997088E+03	1.714266E-04	1.405567E-04
2.037030E+03	1.716057E-04	1.407032E-04
2.076972E+03	1.719227E-04	1.409626E-04
2.116914E+03	1.723799E-04	1.413371E-04
2.156855E+03	1.729797E-04	1.418285E-04
2.196797E+03	1.737545E-04	1.424634E-04
2.236739E+03	1.746767E-04	1.432190E-04
2.276681E+03	1.757482E-04	1.440972E-04
2.316622E+03	1.769714E-04	1.450996E-04
2.356564E+03	1.783790E-04	1.462533E-04
2.396506E+03	1.799427E-04	1.475349E-04
2.436448E+03	1.816644E-04	1.489460E-04
2.476389E+03	1.835775E-04	1.505141E-04
2.516331E+03	1.856526E-04	1.522150E-04
2.556273E+03	1.878914E-04	1.540501E-04
2.596215E+03	1.902953E-04	1.560206E-04
2.636156E+03	1.928985E-04	1.581544E-04
2.676098E+03	1.956697E-04	1.604259E-04
2.716040E+03	1.986097E-04	1.628358E-04
2.755982E+03	2.017532E-04	1.654125E-04
2.795924E+03	2.050668E-04	1.681287E-04
2.835865E+03	2.085502E-04	1.709841E-04
2.875807E+03	2.122026E-04	1.739780E-04
2.915749E+03	2.160589E-04	1.771392E-04
2.955691E+03	2.200820E-04	1.804369E-04
2.995632E+03	2.242690E-04	1.838691E-04
3.005618E+03	2.253222E-04	1.847324E-04
3.015603E+03	2.264231E-04	1.856348E-04
3.025589E+03	2.275340E-04	1.865455E-04
3.035574E+03	2.286167E-04	1.874330E-04
3.045560E+03	2.297474E-04	1.883599E-04
3.055545E+03	2.308880E-04	1.892948E-04
3.065530E+03	2.319996E-04	1.902060E-04
3.075516E+03	2.331595E-04	1.911568E-04
3.085501E+03	2.343290E-04	1.921155E-04
3.095487E+03	2.354688E-04	1.930498E-04
3.105472E+03	2.366571E-04	1.940238E-04
3.115458E+03	2.378547E-04	1.950055E-04
3.125443E+03	2.390615E-04	1.959948E-04
3.135429E+03	2.402375E-04	1.969588E-04
3.145414E+03	2.414622E-04	1.979627E-04
3.155399E+03	2.426959E-04	1.989740E-04
3.165385E+03	2.439383E-04	1.999924E-04
3.175370E+03	2.451893E-04	2.010178E-04
3.185356E+03	2.464488E-04	2.020503E-04
3.195341E+03	2.476757E-04	2.030560E-04
3.205327E+03	2.489516E-04	2.041019E-04
3.215312E+03	2.502357E-04	2.051544E-04
3.225298E+03	2.515276E-04	2.062134E-04
3.235283E+03	2.528273E-04	2.072788E-04
3.245268E+03	2.541346E-04	2.083504E-04
3.255254E+03	2.554493E-04	2.094281E-04
3.265239E+03	2.567713E-04	2.105118E-04
3.275225E+03	2.581003E-04	2.116012E-04
3.285210E+03	2.594362E-04	2.126963E-04
3.295196E+03	2.607788E-04	2.137968E-04
3.305181E+03	2.621279E-04	2.149027E-04
3.315166E+03	2.634833E-04	2.160137E-04
3.325152E+03	2.648447E-04	2.171297E-04
3.335137E+03	2.662120E-04	2.182504E-04
3.345123E+03	2.675849E-04	2.193758E-04
3.355108E+03	2.689632E-04	2.205057E-04
3.365094E+03	2.703466E-04	2.216397E-04
3.375079E+03	2.717350E-04	2.227777E-04
3.385065E+03	2.731280E-04	2.239196E-04
3.395050E+03	2.745254E-04	2.250650E-04
3.405035E+03	2.759269E-04	2.262138E-04
3.415021E+03	2.773322E-04	2.273658E-04
3.425006E+03	2.787866E-04	2.285579E-04
3.434992E+03	2.801990E-04	2.297157E-04
3.444977E+03	2.816143E-04	2.308758E-04
3.454963E+03	2.830323E-04	2.320382E-04
3.464948E+03	2.844527E-04	2.332025E-04
3.474934E+03	2.858750E-04	2.343684E-04
3.484919E+03	2.873458E-04	2.355740E-04
3.494904E+03	2.887715E-04	2.367426E-04
3.504890E+03	2.901981E-04	2.379121E-04
3.514875E+03	2.916255E-04	2.390821E-04
3.524861E+03	2.930531E-04	2.402523E-04
3.534846E+03	2.945284E-04	2.414616E-04
3.544832E+03	2.959557E-04	2.426315E-04
3.554817E+03	2.973822E-04	2.438008E-04
3.564803E+03	2.988075E-04	2.449691E-04
3.574788E+03	3.002311E-04	2.461361E-04
3.584773E+03	3.017014E-04	2.473413E-04
3.594759E+03	3.031207E-04	2.485047E-04
3.604744E+03	3.045372E-04	2.496657E-04
3.614730E+03	3.059995E-04	2.508645E-04
3.624715E+03	3.074091E-04	2.520198E-04
3.634701E+03	3.088144E-04	2.531717E-04
3.644686E+03	3.102150E-04	2.543198E-04
3.654671E+03	3.116604E-04	2.555046E-04
3.664657E+03	3.130504E-04	2.566440E-04
3.674642E+03	3.144342E-04	2.577783E-04
3.684628E+03	3.158114E-04	2.589072E-04
3.694613E+03	3.172323E-04	2.600718E-04
3.704599E+03	3.185949E-04	2.611887E-04
3.714584E+03	3.199493E-04	2.622990E-04
3.724570E+03	3.213464E-04	2.634441E-04
3.734555E+03	3.226830E-04	2.645397E-04
3.744540E+03	3.240099E-04	2.656273E-04
3.754526E+03	3.253783E-04	2.667490E-04
3.764511E+03	3.266840E-04	2.678193E-04
3.774497E+03	3.279783E-04	2.688802E-04
3.784482E+03	3.292606E-04	2.699312E-04
3.794468E+03	3.305827E-04	2.710150E-04
3.804453E+03	3.318393E-04	2.720449E-04
3.814439E+03	3.330820E-04	2.730635E-04
3.824424E+03	3.343633E-04	2.741138E-04
3.834409E+03	3.355766E-04	2.751083E-04
3.844395E+03	3.367743E-04	2.760900E-04
3.854380E+03	3.380092E-04	2.771023E-04
3.864366E+03	3.391738E-04	2.780569E-04
3.874351E+03	3.403209E-04	2.789971E-04
3.884337E+03	3.415037E-04	2.799666E-04
3.894322E+03	3.426138E-04	2.808765E-04
3.904308E+03	3.437045E-04	2.817705E-04
3.914293E+03	3.447750E-04	2.826479E-04
3.924278E+03	3.458792E-04	2.835530E-04
3.934264E+03	3.469076E-04	2.843959E-04
3.944249E+03	3.479138E-04	2.852206E-04
3.954235E+03	3.489521E-04	2.860717E-04
3.964220E+03	3.499123E-04	2.868588E-04
3.974206E+03	3.508481E-04	2.876258E-04
3.984191E+03	3.517595E-04	2.883728E-04
3.994176E+03	3.527005E-04	2.891441E-04
4.004162E+03	3.535601E-04	2.898486E-04
4.014147E+03	3.543928E-04	2.905311E-04
4.024133E+03	3.551982E-04	2.911913E-04
4.034118E+03	3.560313E-04	2.918741E-04
4.044104E+03	3.567801E-04	2.924878E-04
4.054089E+03	3.574992E-04	2.930772E-04
4.064075E+03	3.581886E-04	2.936423E-04
4.074060E+03	3.588470E-04	2.941819E-04
4.084045E+03	3.595304E-04	2.947420E-04
4.094031E+03	3.601258E-04	2.952300E-04
4.104016E+03	3.606887E-04	2.956914E-04
4.114002E+03	3.612184E-04	2.961255E-04
4.123987E+03	3.617142E-04	2.965318E-04
4.133973E+03	3.622324E-04	2.969565E-04
4.143958E+03	3.626593E-04	2.973064E-04
4.153944E+03	3.630507E-04	2.976271E-04
4.163929E+03	3.634063E-04	2.979186E-04
4.173914E+03	3.637256E-04	2.981803E-04
4.183900E+03	3.640079E-04	2.984116E-04
4.193885E+03	3.642531E-04	2.986125E-04
4.203871E+03	3.644603E-04	2.987822E-04
4.213856E+03	3.646293E-04	2.989207E-04
4.223842E+03	3.648162E-04	2.990738E-04
4.233827E+03	3.649080E-04	2.991490E-04
4.243813E+03	3.649603E-04	2.991918E-04
4.253798E+03	3.649731E-04	2.992022E-04
4.263783E+03	3.649461E-04	2.991800E-04
4.273769E+03	3.648789E-04	2.991249E-04
4.283754E+03	3.647715E-04	2.990368E-04
4.293740E+03	3.646239E-04	2.989157E-04
4.303725E+03	3.644358E-04	2.987614E-04
4.313711E+03	3.642068E-04	2.985736E-04
4.323696E+03	3.638817E-04	2.983071E-04
4.333681E+03	3.635716E-04	2.980528E-04
4.343667E+03	3.632206E-04	2.977650E-04
4.353652E+03	3.628295E-04	2.974443E-04
4.363638E+03	3.623978E-04	2.970904E-04
4.373623E+03	3.619255E-04	2.967032E-04
4.383609E+03	3.614134E-04	2.962834E-04
4.393594E+03	3.608612E-04	2.958306E-04
4.403580E+03	3.602145E-04	2.953005E-04
4.413565E+03	3.595833E-04	2.947830E-04
4.423550E+03	3.589132E-04	2.942336E-04
4.433536E+03	3.582048E-04	2.936528E-04
4.443521E+03	3.574033E-04	2.929958E-04
4.453507E+03	3.566190E-04	2.923528E-04
4.463492E+03	3.557970E-04	2.916789E-04
4.473478E+03	3.549382E-04	2.909749E-04
4.483463E+03	3.539893E-04	2.901970E-04
4.493449E+03	3.530589E-04	2.894343E-04
4.503434E+03	3.520929E-04	2.886424E-04
4.513419E+03	3.510392E-04	2.877786E-04
4.523405E+03	3.500050E-04	2.869308E-04
4.533390E+03	3.488847E-04	2.860123E-04
4.543376E+03	3.477846E-04	2.851106E-04
4.553361E+03	3.466000E-04	2.841394E-04
4.563347E+03	3.454368E-04	2.831859E-04
4.573332E+03	3.442429E-04	2.822072E-04
4.583318E+03	3.429672E-04	2.811614E-04
4.593303E+03	3.416627E-04	2.800920E-04
4.603288E+03	3.403816E-04	2.790419E-04
4.613274E+03	3.390215E-04	2.779269E-04
4.623259E+03	3.376859E-04	2.768320E-04
4.633245E+03	3.362732E-04	2.756739E-04
4.643230E+03	3.348859E-04	2.745367E-04
4.653216E+03	3.334235E-04	2.733379E-04
4.663201E+03	3.319376E-04	2.721198E-04
4.673186E+03	3.304289E-04	2.708830E-04
4.683172E+03	3.289478E-04	2.696688E-04
4.693157E+03	3.273955E-04	2.683963E-04
4.703143E+03	3.258227E-04	2.671070E-04
4.713128E+03	3.242301E-04	2.658015E-04
4.723114E+03	3.226669E-04	2.645201E-04
4.733099E+03	3.210367E-04	2.631838E-04
4.743085E+03	3.193890E-04	2.618330E-04
4.753070E+03	3.177244E-04	2.604684E-04
4.763055E+03	3.160436E-04	2.590907E-04
4.773041E+03	3.143475E-04	2.577003E-04
4.783026E+03	3.126367E-04	2.562978E-04
4.793012E+03	3.109120E-04	2.548840E-04
4.802997E+03	3.091739E-04	2.534592E-04
4.812983E+03	3.074232E-04	2.520240E-04
4.822968E+03	3.056606E-04	2.505791E-04
4.832954E+03	3.038867E-04	2.491250E-04
4.842939E+03	3.021022E-04	2.476622E-04
4.852924E+03	3.003077E-04	2.461911E-04
4.862910E+03	2.985039E-04	2.447124E-04
4.872895E+03	2.966913E-04	2.432266E-04
4.882881E+03	2.948707E-04	2.417342E-04
4.892866E+03	2.929989E-04	2.401997E-04
4.902852E+03	2.911642E-04	2.386957E-04
4.912837E+03	2.893231E-04	2.371866E-04
4.922823E+03	2.874764E-04	2.356727E-04
4.932808E+03	2.855819E-04	2.341197E-04
4.942793E+03	2.837255E-04	2.325979E-04
4.952779E+03	2.818652E-04	2.310729E-04
4.962764E+03	2.799596E-04	2.295108E-04
4.972750E+03	2.780928E-04	2.279805E-04
4.982735E+03	2.761825E-04	2.264145E-04
4.992721E+03	2.743114E-04	2.248807E-04
5.002706E+03	2.724388E-04	2.233457E-04
5.012691E+03	2.705249E-04	2.217768E-04
5.022677E+03	2.686508E-04	2.202405E-04
5.032662E+03	2.667370E-04	2.186716E-04
5.042648E+03	2.648240E-04	2.171034E-04
5.052633E+03	2.629511E-04	2.155682E-04
5.062619E+03	2.610408E-04	2.140021E-04
5.072604E+03	2.591708E-04	2.124693E-04
5.082590E+03	2.572646E-04	2.109067E-04
5.092575E+03	2.553613E-04	2.093464E-04
5.102560E+03	2.534612E-04	2.077888E-04
5.112546E+03	2.516018E-04	2.062646E-04
5.122531E+03	2.497089E-04	2.047129E-04
5.132517E+03	2.478202E-04	2.031646E-04
5.142502E+03	2.459361E-04	2.016201E-04
5.152488E+03	2.440569E-04	2.000797E-04
5.162473E+03	2.422187E-04	1.985728E-04
5.172459E+03	2.403500E-04	1.970409E-04
5.182444E+03	2.384870E-04	1.955137E-04
5.192429E+03	2.366301E-04	1.939915E-04
5.202415E+03	2.347796E-04	1.924745E-04
5.212400E+03	2.329356E-04	1.909630E-04
5.222386E+03	2.310985E-04	1.894570E-04
5.232371E+03	2.292685E-04	1.879569E-04
5.242357E+03	2.274459E-04	1.864627E-04
5.252342E+03	2.255975E-04	1.849476E-04
5.262328E+03	2.237905E-04	1.834662E-04
5.272313E+03	2.219914E-04	1.819914E-04
5.282298E+03	2.202005E-04	1.805233E-04
5.292284E+03	2.184179E-04	1.790620E-04
5.302269E+03	2.166439E-04	1.776078E-04
5.312255E+03	2.148470E-04	1.761348E-04
5.322240E+03	2.130909E-04	1.746952E-04
5.332226E+03	2.113438E-04	1.732630E-04
5.342211E+03	2.095752E-04	1.718132E-04
5.352196E+03	2.078469E-04	1.703964E-04
5.362182E+03	2.061282E-04	1.689875E-04
5.372167E+03	2.043890E-04	1.675618E-04
5.382153E+03	2.026898E-04	1.661689E-04
5.392138E+03	2.009710E-04	1.647599E-04
5.402124E+03	1.992920E-04	1.633835E-04
5.412109E+03	1.975940E-04	1.619916E-04
5.422095E+03	1.959355E-04	1.606320E-04
5.432080E+03	1.942587E-04	1.592574E-04
5.442065E+03	1.926211E-04	1.579150E-04
5.452051E+03	1.909659E-04	1.565581E-04
5.462036E+03	1.893217E-04	1.552102E-04
5.472022E+03	1.877161E-04	1.538940E-04
5.482007E+03	1.860939E-04	1.525642E-04
5.491993E+03	1.844829E-04	1.512436E-04
5.501978E+03	1.829099E-04	1.499541E-04
5.511964E+03	1.813212E-04	1.486518E-04
5.521949E+03	1.797439E-04	1.473588E-04
5.531934E+03	1.781779E-04	1.460751E-04
5.541920E+03	1.766493E-04	1.448219E-04
5.551905E+03	1.751060E-04	1.435568E-04
5.561891E+03	1.735741E-04	1.423010E-04
5.571876E+03	1.720538E-04	1.410547E-04
5.581862E+03	1.705450E-04	1.398178E-04
5.591847E+03	1.690477E-04	1.385904E-04
5.601833E+03	1.675619E-04	1.373724E-04
5.611818E+03	1.660877E-04	1.361639E-04
5.621803E+03	1.646251E-04	1.349649E-04
5.631789E+03	1.631739E-04	1.337753E-04
5.641774E+03	1.617344E-04	1.325952E-04
5.651760E+03	1.603064E-04	1.314246E-04
5.661745E+03	1.588898E-04	1.302634E-04
5.671731E+03	1.574849E-04	1.291116E-04
5.681716E+03	1.560914E-04	1.279693E-04
5.691701E+03	1.546868E-04	1.268178E-04
5.701687E+03	1.533165E-04	1.256945E-04
5.711672E+03	1.519576E-04	1.245805E-04
5.721658E+03	1.506101E-04	1.234759E-04
5.731643E+03	1.492740E-04	1.223806E-04
5.741629E+03	1.479277E-04	1.212769E-04
5.751614E+03	1.466144E-04	1.202004E-04
5.761600E+03	1.453124E-04	1.191330E-04
5.771585E+03	1.440008E-04	1.180577E-04
5.781570E+03	1.427214E-04	1.170090E-04
5.791556E+03	1.414533E-04	1.159694E-04
5.801541E+03	1.401758E-04	1.149222E-04
5.811527E+03	1.389301E-04	1.139009E-04
5.821512E+03	1.376753E-04	1.128723E-04
5.831498E+03	1.364517E-04	1.118693E-04
5.841483E+03	1.352194E-04	1.108590E-04
5.851469E+03	1.340179E-04	1.098740E-04
5.861454E+03	1.328078E-04	1.088820E-04
5.871439E+03	1.316280E-04	1.079149E-04
5.881425E+03	1.304399E-04	1.069409E-04
5.891410E+03	1.292818E-04	1.059915E-04
5.901396E+03	1.281155E-04	1.050354E-04
5.911381E+03	1.269601E-04	1.040883E-04
5.921367E+03	1.258339E-04	1.031650E-04
5.931352E+03	1.247000E-04	1.022354E-04
5.941338E+03	1.235767E-04	1.013146E-04
5.951323E+03	1.224820E-04	1.004171E-04
5.961308E+03	1.213797E-04	9.951357E-05
5.971294E+03	1.202880E-04	9.861861E-05
5.981279E+03	1.192068E-04	9.773219E-05
5.991265E+03	1.181531E-04	9.686839E-05
6.001250E+03	1.170923E-04	9.599878E-05
6.011236E+03	1.160418E-04	9.513757E-05
6.021221E+03	1.150014E-04	9.428469E-05
6.031207E+03	1.139711E-04	9.344006E-05
6.041192E+03	1.129508E-04	9.260363E-05
6.051177E+03	1.119567E-04	9.178873E-05
6.061163E+03	1.109561E-04	9.096845E-05
6.071148E+03	1.099653E-04	9.015618E-05
6.081134E+03	1.089842E-04	8.935189E-05
6.091119E+03	1.080127E-04	8.855550E-05
6.101105E+03	1.070509E-04	8.776698E-05
6.111090E+03	1.060985E-04	8.698626E-05
6.121075E+03	1.051556E-04	8.621324E-05
6.131061E+03	1.042221E-04	8.544793E-05
6.141046E+03	1.032978E-04	8.469021E-05
6.151032E+03	1.023827E-04	8.394005E-05
6.161017E+03	1.014768E-04	8.319736E-05
6.171003E+03	1.005652E-04	8.245010E-05
6.180988E+03	9.967747E-05	8.172231E-05
6.190974E+03	9.879864E-05	8.100185E-05
6.200959E+03	9.792862E-05	8.028861E-05
6.210944E+03	9.706740E-05	7.958259E-05
6.220930E+03	9.621485E-05	7.888368E-05
6.230915E+03	9.535703E-05	7.818044E-05
6.240901E+03	9.452174E-05	7.749567E-05
6.250886E+03	9.369495E-05	7.681787E-05
6.260872E+03	9.287654E-05	7.614694E-05
6.270857E+03	9.205306E-05	7.547185E-05
6.280843E+03	9.125132E-05	7.481458E-05
6.290828E+03	9.045779E-05	7.416405E-05
6.300813E+03	8.965926E-05	7.350942E-05
6.310799E+03	8.888194E-05	7.287217E-05
6.320784E+03	8.811259E-05	7.224145E-05
6.330770E+03	8.733838E-05	7.160675E-05
6.340755E+03	8.658482E-05	7.098898E-05
6.350741E+03	8.583898E-05	7.037754E-05
6.360726E+03	8.508843E-05	6.976224E-05
6.370712E+03	8.435797E-05	6.916340E-05
6.380697E+03	8.362282E-05	6.856073E-05
6.390682E+03	8.290745E-05	6.797426E-05
6.400668E+03	8.218744E-05	6.738399E-05
6.410653E+03	8.148685E-05	6.680964E-05
6.420639E+03	8.078169E-05	6.623155E-05
6.430624E+03	8.009559E-05	6.566908E-05
6.440610E+03	7.940504E-05	6.510296E-05
6.450595E+03	7.873317E-05	6.455215E-05
6.460580E+03	7.805686E-05	6.399771E-05
6.470566E+03	7.739893E-05	6.345834E-05
6.480551E+03	7.673664E-05	6.291538E-05
6.490537E+03	7.609241E-05	6.238723E-05
6.500522E+03	7.544381E-05	6.185551E-05
6.510508E+03	7.480206E-05	6.132939E-05
6.520493E+03	7.417785E-05	6.081766E-05
6.530479E+03	7.354941E-05	6.030246E-05
6.540464E+03	7.292755E-05	5.979264E-05
6.550449E+03	7.232279E-05	5.929685E-05
6.560435E+03	7.171389E-05	5.879766E-05
6.570420E+03	7.111134E-05	5.830369E-05
6.580406E+03	7.052542E-05	5.782334E-05
6.590391E+03	6.993542E-05	5.733965E-05
6.600377E+03	6.935160E-05	5.686102E-05
6.610362E+03	6.877393E-05	5.638744E-05
6.620348E+03	6.821229E-05	5.592699E-05
6.630333E+03	6.764660E-05	5.546323E-05
6.640318E+03	6.708689E-05	5.500437E-05
6.650304E+03	6.653305E-05	5.455032E-05
6.660289E+03	6.598504E-05	5.410105E-05
6.670275E+03	6.544276E-05	5.365648E-05
6.680260E+03	6.491568E-05	5.322436E-05
6.690246E+03	6.438468E-05	5.278904E-05
6.700231E+03	6.385925E-05	5.235828E-05
6.710217E+03	6.333936E-05	5.193206E-05
6.720202E+03	6.282489E-05	5.151029E-05
6.730187E+03	6.231584E-05	5.109296E-05
6.740173E+03	6.181210E-05	5.067997E-05
6.750158E+03	6.131367E-05	5.027135E-05
6.760144E+03	6.082044E-05	4.986699E-05
6.770129E+03	6.033239E-05	4.946687E-05
6.780115E+03	5.984947E-05	4.907095E-05
6.790100E+03	5.937154E-05	4.867914E-05
6.800085E+03	5.889865E-05	4.829145E-05
6.810071E+03	5.843068E-05	4.790779E-05
6.820056E+03	5.796761E-05	4.752815E-05
6.830042E+03	5.750939E-05	4.715249E-05
6.840027E+03	5.705592E-05	4.678072E-05
6.850013E+03	5.660717E-05	4.641282E-05
6.859998E+03	5.616310E-05	4.604876E-05
6.869984E+03	5.572364E-05	4.568847E-05
6.879969E+03	5.528876E-05	4.533194E-05
6.889954E+03	5.485842E-05	4.497913E-05
6.899940E+03	5.443251E-05	4.462996E-05
6.909925E+03	5.401101E-05	4.428440E-05
6.919911E+03	5.358602E-05	4.393598E-05
6.929896E+03	5.317325E-05	4.359758E-05
6.939882E+03	5.276478E-05	4.326270E-05
6.949867E+03	5.236050E-05	4.293125E-05
6.959853E+03	5.196042E-05	4.260325E-05
6.969838E+03	5.155688E-05	4.227241E-05
6.979823E+03	5.116504E-05	4.195116E-05
6.989809E+03	5.077721E-05	4.163321E-05
6.999794E+03	5.039341E-05	4.131855E-05
7.009780E+03	5.001351E-05	4.100710E-05
7.019765E+03	4.963020E-05	4.069284E-05
7.029751E+03	4.925813E-05	4.038780E-05
7.039736E+03	4.888984E-05	4.008586E-05
7.049722E+03	4.851816E-05	3.978114E-05
7.059707E+03	4.815741E-05	3.948538E-05
7.069692E+03	4.780033E-05	3.919263E-05
7.079678E+03	4.743990E-05	3.889713E-05
7.089663E+03	4.709012E-05	3.861037E-05
7.099649E+03	4.674387E-05	3.832650E-05
7.109634E+03	4.639430E-05	3.803990E-05
7.119620E+03	4.605511E-05	3.776182E-05
7.129605E+03	4.571256E-05	3.748098E-05
7.139590E+03	4.538025E-05	3.720854E-05
7.149576E+03	4.505126E-05	3.693881E-05
7.159561E+03	4.471902E-05	3.666642E-05
7.169547E+03	4.439670E-05	3.640217E-05
7.179532E+03	4.407110E-05	3.613522E-05
7.189518E+03	4.375527E-05	3.587630E-05
7.199503E+03	4.343620E-05	3.561471E-05
7.209489E+03	4.312671E-05	3.536096E-05
7.219474E+03	4.281403E-05	3.510461E-05
7.229459E+03	4.251075E-05	3.485597E-05
7.239445E+03	4.220429E-05	3.460472E-05
7.249430E+03	4.190712E-05	3.436108E-05
7.259416E+03	4.160674E-05	3.411481E-05
7.269401E+03	4.131551E-05	3.387605E-05
7.279387E+03	4.102111E-05	3.363468E-05
7.289372E+03	4.072964E-05	3.339571E-05
7.299358E+03	4.044711E-05	3.316408E-05
7.309343E+03	4.016143E-05	3.292987E-05
7.319328E+03	3.988453E-05	3.270284E-05
7.329314E+03	3.960451E-05	3.247327E-05
7.339299E+03	3.932726E-05	3.224596E-05
7.349285E+03	3.905860E-05	3.202569E-05
7.359270E+03	3.878686E-05	3.180291E-05
7.369256E+03	3.851782E-05	3.158233E-05
7.379241E+03	3.825712E-05	3.136860E-05
7.389227E+03	3.799342E-05	3.115240E-05
7.399212E+03	3.773231E-05	3.093832E-05
7.409197E+03	3.747381E-05	3.072639E-05
7.419183E+03	3.722342E-05	3.052110E-05
7.429168E+03	3.696999E-05	3.031332E-05
7.439154E+03	3.671911E-05	3.010764E-05
7.449139E+03	3.647075E-05	2.990401E-05
7.459125E+03	3.622486E-05	2.970242E-05
7.469110E+03	3.598673E-05	2.950718E-05
7.479095E+03	3.574570E-05	2.930957E-05
7.489081E+03	3.550705E-05	2.911391E-05
7.499066E+03	3.527077E-05	2.892019E-05
7.509052E+03	3.503687E-05	2.872842E-05
7.519037E+03	3.480529E-05	2.853855E-05
7.529023E+03	3.458119E-05	2.835482E-05
7.539008E+03	3.435419E-05	2.816871E-05
7.548994E+03	3.412947E-05	2.798447E-05
7.558979E+03	3.390701E-05	2.780208E-05
7.568964E+03	3.368678E-05	2.762152E-05
7.578950E+03	3.346876E-05	2.744277E-05
7.588935E+03	3.325294E-05	2.726582E-05
7.598921E+03	3.303929E-05	2.709066E-05
7.608906E+03	3.282780E-05	2.691726E-05
7.618892E+03	3.261845E-05	2.674562E-05
7.628877E+03	3.241121E-05	2.657571E-05
7.638863E+03	3.220608E-05	2.640753E-05
7.648848E+03	3.200303E-05	2.624106E-05
7.658833E+03	3.180206E-05	2.607628E-05
7.668819E+03	3.160313E-05	2.591318E-05
7.678804E+03	3.140624E-05	2.575176E-05
7.688790E+03	3.121137E-05	2.559199E-05
7.698775E+03	3.101386E-05	2.543005E-05
7.708761E+03	3.082301E-05	2.527358E-05
7.718746E+03	3.063413E-05	2.511872E-05
7.728732E+03	3.044721E-05	2.496547E-05
7.738717E+03	3.026223E-05	2.481381E-05
7.748702E+03	3.007918E-05	2.466373E-05
