#wls	flux	fluxerr
1.597671E+03	1.449771E-04	1.888630E-04
1.637612E+03	1.449526E-04	1.887997E-04
1.677554E+03	1.450031E-04	1.888338E-04
1.717496E+03	1.451317E-04	1.889692E-04
1.757438E+03	1.453672E-04	1.892436E-04
1.797379E+03	1.456608E-04	1.895933E-04
1.837321E+03	1.460675E-04	1.900896E-04
1.877263E+03	1.465641E-04	1.907027E-04
1.917205E+03	1.471276E-04	1.914023E-04
1.957146E+03	1.478132E-04	1.922601E-04
1.997088E+03	1.486241E-04	1.932804E-04
2.037030E+03	1.495105E-04	1.943983E-04
2.076972E+03	1.505018E-04	1.956518E-04
2.116914E+03	1.516276E-04	1.970796E-04
2.156855E+03	1.528374E-04	1.986158E-04
2.196797E+03	1.541879E-04	2.003341E-04
2.236739E+03	1.556554E-04	2.022034E-04
2.276681E+03	1.572426E-04	2.042275E-04
2.316622E+03	1.589525E-04	2.064099E-04
2.356564E+03	1.607879E-04	2.087543E-04
2.396506E+03	1.627516E-04	2.112642E-04
2.436448E+03	1.648754E-04	2.139809E-04
2.476389E+03	1.671041E-04	2.168326E-04
2.516331E+03	1.694990E-04	2.198986E-04
2.556273E+03	1.720333E-04	2.231442E-04
2.596215E+03	1.747094E-04	2.265726E-04
2.636156E+03	1.775296E-04	2.301863E-04
2.676098E+03	1.804957E-04	2.339879E-04
2.716040E+03	1.836417E-04	2.380211E-04
2.755982E+03	1.869051E-04	2.422051E-04
2.795924E+03	1.903521E-04	2.466254E-04
2.835865E+03	1.939512E-04	2.512412E-04
2.875807E+03	1.976683E-04	2.560082E-04
2.915749E+03	2.015716E-04	2.610147E-04
2.955691E+03	2.056266E-04	2.662159E-04
2.995632E+03	2.098682E-04	2.716571E-04
3.005618E+03	2.109156E-04	2.730003E-04
3.015603E+03	2.120086E-04	2.744024E-04
3.025589E+03	2.131109E-04	2.758164E-04
3.035574E+03	2.142225E-04	2.772424E-04
3.045560E+03	2.153432E-04	2.786801E-04
3.055545E+03	2.164357E-04	2.800810E-04
3.065530E+03	2.175745E-04	2.815418E-04
3.075516E+03	2.187223E-04	2.830142E-04
3.085501E+03	2.198790E-04	2.844980E-04
3.095487E+03	2.210447E-04	2.859933E-04
3.105472E+03	2.222192E-04	2.874999E-04
3.115458E+03	2.234024E-04	2.890177E-04
3.125443E+03	2.245943E-04	2.905466E-04
3.135429E+03	2.257558E-04	2.920361E-04
3.145414E+03	2.269646E-04	2.935866E-04
3.155399E+03	2.281818E-04	2.951479E-04
3.165385E+03	2.294074E-04	2.967199E-04
3.175370E+03	2.306411E-04	2.983024E-04
3.185356E+03	2.318830E-04	2.998952E-04
3.195341E+03	2.331328E-04	3.014984E-04
3.205327E+03	2.343906E-04	3.031116E-04
3.215312E+03	2.356561E-04	3.047348E-04
3.225298E+03	2.369293E-04	3.063677E-04
3.235283E+03	2.382099E-04	3.080102E-04
3.245268E+03	2.394980E-04	3.096623E-04
3.255254E+03	2.407519E-04	3.112700E-04
3.265239E+03	2.420541E-04	3.129401E-04
3.275225E+03	2.433633E-04	3.146191E-04
3.285210E+03	2.446792E-04	3.163067E-04
3.295196E+03	2.460017E-04	3.180029E-04
3.305181E+03	2.473307E-04	3.197072E-04
3.315166E+03	2.486660E-04	3.214196E-04
3.325152E+03	2.500074E-04	3.231398E-04
3.335137E+03	2.513547E-04	3.248675E-04
3.345123E+03	2.527077E-04	3.266025E-04
3.355108E+03	2.540663E-04	3.283446E-04
3.365094E+03	2.554301E-04	3.300934E-04
3.375079E+03	2.567990E-04	3.318487E-04
3.385065E+03	2.581728E-04	3.336103E-04
3.395050E+03	2.595513E-04	3.353778E-04
3.405035E+03	2.609341E-04	3.371508E-04
3.415021E+03	2.623212E-04	3.389293E-04
3.425006E+03	2.637121E-04	3.407126E-04
3.434992E+03	2.651067E-04	3.425007E-04
3.444977E+03	2.665048E-04	3.442931E-04
3.454963E+03	2.679059E-04	3.460894E-04
3.464948E+03	2.693099E-04	3.478893E-04
3.474934E+03	2.707164E-04	3.496925E-04
3.484919E+03	2.721252E-04	3.514985E-04
3.494904E+03	2.735359E-04	3.533070E-04
3.504890E+03	2.749484E-04	3.551176E-04
3.514875E+03	2.763621E-04	3.569298E-04
3.524861E+03	2.777768E-04	3.587433E-04
3.534846E+03	2.792398E-04	3.606190E-04
3.544832E+03	2.806557E-04	3.624338E-04
3.554817E+03	2.820716E-04	3.642487E-04
3.564803E+03	2.834870E-04	3.660629E-04
3.574788E+03	2.849017E-04	3.678762E-04
3.584773E+03	2.863153E-04	3.696878E-04
3.594759E+03	2.877273E-04	3.714975E-04
3.604744E+03	2.891374E-04	3.733046E-04
3.614730E+03	2.905451E-04	3.751087E-04
3.624715E+03	2.919500E-04	3.769092E-04
3.634701E+03	2.933518E-04	3.787055E-04
3.644686E+03	2.947499E-04	3.804972E-04
3.654671E+03	2.961440E-04	3.822835E-04
3.664657E+03	2.975335E-04	3.840641E-04
3.674642E+03	2.989180E-04	3.858381E-04
3.684628E+03	3.002971E-04	3.876051E-04
3.694613E+03	3.016703E-04	3.893645E-04
3.704599E+03	3.030370E-04	3.911156E-04
3.714584E+03	3.044482E-04	3.929242E-04
3.724570E+03	3.058008E-04	3.946570E-04
3.734555E+03	3.071453E-04	3.963795E-04
3.744540E+03	3.084814E-04	3.980911E-04
3.754526E+03	3.098084E-04	3.997911E-04
3.764511E+03	3.111259E-04	4.014788E-04
3.774497E+03	3.124332E-04	4.031534E-04
3.784482E+03	3.137299E-04	4.048143E-04
3.794468E+03	3.150152E-04	4.064606E-04
3.804453E+03	3.162888E-04	4.080918E-04
3.814439E+03	3.175497E-04	4.097068E-04
3.824424E+03	3.187978E-04	4.113052E-04
3.834409E+03	3.200321E-04	4.128859E-04
3.844395E+03	3.212521E-04	4.144484E-04
3.854380E+03	3.224573E-04	4.159917E-04
3.864366E+03	3.236468E-04	4.175149E-04
3.874351E+03	3.248202E-04	4.190174E-04
3.884337E+03	3.259767E-04	4.204982E-04
3.894322E+03	3.271707E-04	4.220275E-04
3.904308E+03	3.282917E-04	4.234627E-04
3.914293E+03	3.293939E-04	4.248737E-04
3.924278E+03	3.304765E-04	4.262597E-04
3.934264E+03	3.315389E-04	4.276196E-04
3.944249E+03	3.325804E-04	4.289527E-04
3.954235E+03	3.336002E-04	4.302581E-04
3.964220E+03	3.345977E-04	4.315348E-04
3.974206E+03	3.355721E-04	4.327818E-04
3.984191E+03	3.365228E-04	4.339983E-04
3.994176E+03	3.374489E-04	4.351834E-04
4.004162E+03	3.383497E-04	4.363360E-04
4.014147E+03	3.392246E-04	4.374553E-04
4.024133E+03	3.400728E-04	4.385404E-04
4.034118E+03	3.408935E-04	4.395902E-04
4.044104E+03	3.416860E-04	4.406038E-04
4.054089E+03	3.424495E-04	4.415802E-04
4.064075E+03	3.431832E-04	4.425185E-04
4.074060E+03	3.438865E-04	4.434176E-04
4.084045E+03	3.445585E-04	4.442767E-04
4.094031E+03	3.451984E-04	4.450947E-04
4.104016E+03	3.458057E-04	4.458706E-04
4.114002E+03	3.463793E-04	4.466035E-04
4.123987E+03	3.469187E-04	4.472925E-04
4.133973E+03	3.474230E-04	4.479364E-04
4.143958E+03	3.478915E-04	4.485345E-04
4.153944E+03	3.483234E-04	4.490856E-04
4.163929E+03	3.487180E-04	4.495888E-04
4.173914E+03	3.490744E-04	4.500431E-04
4.183900E+03	3.493921E-04	4.504476E-04
4.193885E+03	3.496119E-04	4.507264E-04
4.203871E+03	3.498496E-04	4.510284E-04
4.213856E+03	3.500462E-04	4.512778E-04
4.223842E+03	3.502011E-04	4.514736E-04
4.233827E+03	3.503135E-04	4.516150E-04
4.243813E+03	3.503827E-04	4.517009E-04
4.253798E+03	3.504081E-04	4.517306E-04
4.263783E+03	3.503888E-04	4.517031E-04
4.273769E+03	3.503243E-04	4.516176E-04
4.283754E+03	3.502139E-04	4.514732E-04
4.293740E+03	3.500569E-04	4.512691E-04
4.303725E+03	3.497949E-04	4.509299E-04
4.313711E+03	3.495432E-04	4.506043E-04
4.323696E+03	3.492432E-04	4.502168E-04
4.333681E+03	3.488946E-04	4.497670E-04
4.343667E+03	3.484971E-04	4.492544E-04
4.353652E+03	3.480504E-04	4.486787E-04
4.363638E+03	3.474971E-04	4.479659E-04
4.373623E+03	3.469528E-04	4.472650E-04
4.383609E+03	3.463603E-04	4.465023E-04
4.393594E+03	3.457203E-04	4.456788E-04
4.403580E+03	3.450337E-04	4.447955E-04
4.413565E+03	3.443013E-04	4.438533E-04
4.423550E+03	3.434673E-04	4.427805E-04
4.433536E+03	3.426462E-04	4.417246E-04
4.443521E+03	3.417822E-04	4.406137E-04
4.453507E+03	3.408761E-04	4.394488E-04
4.463492E+03	3.398729E-04	4.381589E-04
4.473478E+03	3.388858E-04	4.368901E-04
4.483463E+03	3.378597E-04	4.355712E-04
4.493449E+03	3.367954E-04	4.342033E-04
4.503434E+03	3.356386E-04	4.327165E-04
4.513419E+03	3.345011E-04	4.312548E-04
4.523405E+03	3.333285E-04	4.297480E-04
4.533390E+03	3.321216E-04	4.281972E-04
4.543376E+03	3.308269E-04	4.265335E-04
4.553361E+03	3.295547E-04	4.248989E-04
4.563347E+03	3.282510E-04	4.232241E-04
4.573332E+03	3.268633E-04	4.214409E-04
4.583318E+03	3.255001E-04	4.196897E-04
4.593303E+03	3.241084E-04	4.179018E-04
4.603288E+03	3.226361E-04	4.160102E-04
4.613274E+03	3.211905E-04	4.141531E-04
4.623259E+03	3.196665E-04	4.121952E-04
4.633245E+03	3.181706E-04	4.102736E-04
4.643230E+03	3.166508E-04	4.083214E-04
4.653216E+03	3.150562E-04	4.062728E-04
4.663201E+03	3.134915E-04	4.042629E-04
4.673186E+03	3.118543E-04	4.021597E-04
4.683172E+03	3.102482E-04	4.000967E-04
4.693157E+03	3.085720E-04	3.979433E-04
4.703143E+03	3.069279E-04	3.958315E-04
4.713128E+03	3.052659E-04	3.936968E-04
4.723114E+03	3.035372E-04	3.914759E-04
4.733099E+03	3.018421E-04	3.892987E-04
4.743085E+03	3.000825E-04	3.870382E-04
4.753070E+03	2.983576E-04	3.848226E-04
4.763055E+03	2.965703E-04	3.825266E-04
4.773041E+03	2.948186E-04	3.802765E-04
4.783026E+03	2.930065E-04	3.779487E-04
4.793012E+03	2.912310E-04	3.756681E-04
4.802997E+03	2.893972E-04	3.733123E-04
4.812983E+03	2.875538E-04	3.709441E-04
4.822968E+03	2.857481E-04	3.686245E-04
4.832954E+03	2.838870E-04	3.662337E-04
4.842939E+03	2.820645E-04	3.638925E-04
4.852924E+03	2.801885E-04	3.614825E-04
4.862910E+03	2.783063E-04	3.590643E-04
4.872895E+03	2.764635E-04	3.566971E-04
4.882881E+03	2.745701E-04	3.542645E-04
4.892866E+03	2.726723E-04	3.518262E-04
4.902852E+03	2.708147E-04	3.494399E-04
4.912837E+03	2.689094E-04	3.469919E-04
4.922823E+03	2.670012E-04	3.445402E-04
4.932808E+03	2.651341E-04	3.421414E-04
4.942793E+03	2.632217E-04	3.396843E-04
4.952779E+03	2.613082E-04	3.372256E-04
4.962764E+03	2.594363E-04	3.348205E-04
4.972750E+03	2.575216E-04	3.323602E-04
4.982735E+03	2.556072E-04	3.299003E-04
4.992721E+03	2.536936E-04	3.274414E-04
5.002706E+03	2.518223E-04	3.250369E-04
5.012691E+03	2.499113E-04	3.225811E-04
5.022677E+03	2.480024E-04	3.201280E-04
5.032662E+03	2.460961E-04	3.176782E-04
5.042648E+03	2.441926E-04	3.152321E-04
5.052633E+03	2.423320E-04	3.128411E-04
5.062619E+03	2.404353E-04	3.104035E-04
5.072604E+03	2.385428E-04	3.079711E-04
5.082590E+03	2.366547E-04	3.055444E-04
5.092575E+03	2.347714E-04	3.031238E-04
5.102560E+03	2.328932E-04	3.007097E-04
5.112546E+03	2.310205E-04	2.983026E-04
5.122531E+03	2.291908E-04	2.959510E-04
5.132517E+03	2.273297E-04	2.935586E-04
5.142502E+03	2.254749E-04	2.911743E-04
5.152488E+03	2.236268E-04	2.887986E-04
5.162473E+03	2.217856E-04	2.864317E-04
5.172459E+03	2.199517E-04	2.840741E-04
5.182444E+03	2.181252E-04	2.817260E-04
5.192429E+03	2.163063E-04	2.793876E-04
5.202415E+03	2.144955E-04	2.770595E-04
5.212400E+03	2.126928E-04	2.747417E-04
5.222386E+03	2.108985E-04	2.724347E-04
5.232371E+03	2.091128E-04	2.701386E-04
5.242357E+03	2.073359E-04	2.678538E-04
5.252342E+03	2.055680E-04	2.655805E-04
5.262328E+03	2.038092E-04	2.633188E-04
5.272313E+03	2.020598E-04	2.610691E-04
5.282298E+03	2.003198E-04	2.588316E-04
5.292284E+03	1.985574E-04	2.565649E-04
5.302269E+03	1.968373E-04	2.543526E-04
5.312255E+03	1.951270E-04	2.521531E-04
5.322240E+03	1.934269E-04	2.499664E-04
5.332226E+03	1.917371E-04	2.477930E-04
5.342211E+03	1.900575E-04	2.456326E-04
5.352196E+03	1.883884E-04	2.434857E-04
5.362182E+03	1.866997E-04	2.413132E-04
5.372167E+03	1.850521E-04	2.391939E-04
5.382153E+03	1.834153E-04	2.370882E-04
5.392138E+03	1.817894E-04	2.349965E-04
5.402124E+03	1.801743E-04	2.329187E-04
5.412109E+03	1.785414E-04	2.308177E-04
5.422095E+03	1.769488E-04	2.287686E-04
5.432080E+03	1.753673E-04	2.267338E-04
5.442065E+03	1.737970E-04	2.247132E-04
5.452051E+03	1.722101E-04	2.226712E-04
5.462036E+03	1.706626E-04	2.206799E-04
5.472022E+03	1.691265E-04	2.187032E-04
5.482007E+03	1.675747E-04	2.167061E-04
5.491993E+03	1.660617E-04	2.147589E-04
5.501978E+03	1.645602E-04	2.128265E-04
5.511964E+03	1.630437E-04	2.108746E-04
5.521949E+03	1.615654E-04	2.089719E-04
5.531934E+03	1.600987E-04	2.070840E-04
5.541920E+03	1.586178E-04	2.051778E-04
5.551905E+03	1.571743E-04	2.033197E-04
5.561891E+03	1.557425E-04	2.014765E-04
5.571876E+03	1.542973E-04	1.996159E-04
5.581862E+03	1.528888E-04	1.978027E-04
5.591847E+03	1.514674E-04	1.959726E-04
5.601833E+03	1.500822E-04	1.941892E-04
5.611818E+03	1.486845E-04	1.923896E-04
5.621803E+03	1.473227E-04	1.906361E-04
5.631789E+03	1.459723E-04	1.888973E-04
5.641774E+03	1.446101E-04	1.871430E-04
5.651760E+03	1.432829E-04	1.854340E-04
5.661745E+03	1.419442E-04	1.837100E-04
5.671731E+03	1.406174E-04	1.820011E-04
5.681716E+03	1.393249E-04	1.803365E-04
5.691701E+03	1.380213E-04	1.786575E-04
5.701687E+03	1.367517E-04	1.770223E-04
5.711672E+03	1.354714E-04	1.753731E-04
5.721658E+03	1.342245E-04	1.737669E-04
5.731643E+03	1.329672E-04	1.721473E-04
5.741629E+03	1.317429E-04	1.705701E-04
5.751614E+03	1.305084E-04	1.689797E-04
5.761600E+03	1.292855E-04	1.674041E-04
5.771585E+03	1.280947E-04	1.658699E-04
5.781570E+03	1.268943E-04	1.643232E-04
5.791556E+03	1.257052E-04	1.627910E-04
5.801541E+03	1.245474E-04	1.612992E-04
5.811527E+03	1.233805E-04	1.597955E-04
5.821512E+03	1.222247E-04	1.583060E-04
5.831498E+03	1.210995E-04	1.568560E-04
5.841483E+03	1.199656E-04	1.553945E-04
5.851469E+03	1.188425E-04	1.539471E-04
5.861454E+03	1.177493E-04	1.525382E-04
5.871439E+03	1.166478E-04	1.511183E-04
5.881425E+03	1.155569E-04	1.497122E-04
5.891410E+03	1.144952E-04	1.483436E-04
5.901396E+03	1.134254E-04	1.469645E-04
5.911381E+03	1.123661E-04	1.455989E-04
5.921367E+03	1.113173E-04	1.442467E-04
5.931352E+03	1.102789E-04	1.429078E-04
5.941338E+03	1.092683E-04	1.416050E-04
5.951323E+03	1.082502E-04	1.402922E-04
5.961308E+03	1.072422E-04	1.389924E-04
5.971294E+03	1.062444E-04	1.377057E-04
5.981279E+03	1.052565E-04	1.364318E-04
5.991265E+03	1.042953E-04	1.351924E-04
6.001250E+03	1.033271E-04	1.339436E-04
6.011236E+03	1.023686E-04	1.327074E-04
6.021221E+03	1.014199E-04	1.314837E-04
6.031207E+03	1.004807E-04	1.302723E-04
6.041192E+03	9.955110E-05	1.290733E-04
6.051177E+03	9.863094E-05	1.278863E-04
6.061163E+03	9.772023E-05	1.267115E-04
6.071148E+03	9.683445E-05	1.255689E-04
6.081134E+03	9.594212E-05	1.244177E-04
6.091119E+03	9.505897E-05	1.232782E-04
6.101105E+03	9.418489E-05	1.221505E-04
6.111090E+03	9.331987E-05	1.210344E-04
6.121075E+03	9.246375E-05	1.199297E-04
6.131061E+03	9.161646E-05	1.188363E-04
6.141046E+03	9.077801E-05	1.177544E-04
6.151032E+03	8.994822E-05	1.166835E-04
6.161017E+03	8.912704E-05	1.156237E-04
6.171003E+03	8.831446E-05	1.145750E-04
6.180988E+03	8.751031E-05	1.135371E-04
6.190974E+03	8.671454E-05	1.125100E-04
6.200959E+03	8.592714E-05	1.114936E-04
6.210944E+03	8.514795E-05	1.104878E-04
6.220930E+03	8.437691E-05	1.094925E-04
6.230915E+03	8.361400E-05	1.085076E-04
6.240901E+03	8.285907E-05	1.075330E-04
6.250886E+03	8.211212E-05	1.065687E-04
6.260872E+03	8.137296E-05	1.056144E-04
6.270857E+03	8.062864E-05	1.046532E-04
6.280843E+03	7.990520E-05	1.037191E-04
6.290828E+03	7.918933E-05	1.027947E-04
6.300813E+03	7.848103E-05	1.018801E-04
6.310799E+03	7.778024E-05	1.009751E-04
6.320784E+03	7.708686E-05	1.000796E-04
6.330770E+03	7.640081E-05	9.919363E-05
6.340755E+03	7.572206E-05	9.831699E-05
6.350741E+03	7.503839E-05	9.743388E-05
6.360726E+03	7.437408E-05	9.657583E-05
6.370712E+03	7.371683E-05	9.572686E-05
6.380697E+03	7.306653E-05	9.488683E-05
6.390682E+03	7.242316E-05	9.405572E-05
6.400668E+03	7.178668E-05	9.323348E-05
6.410653E+03	7.114550E-05	9.240503E-05
6.420639E+03	7.052256E-05	9.160021E-05
6.430624E+03	6.990627E-05	9.080396E-05
6.440610E+03	6.929659E-05	9.001619E-05
6.450595E+03	6.869339E-05	8.923678E-05
6.460580E+03	6.808564E-05	8.845137E-05
6.470566E+03	6.749535E-05	8.768858E-05
6.480551E+03	6.691132E-05	8.693384E-05
6.490537E+03	6.633361E-05	8.618723E-05
6.500522E+03	6.575144E-05	8.543475E-05
6.510508E+03	6.518606E-05	8.470403E-05
6.520493E+03	6.462672E-05	8.398108E-05
6.530479E+03	6.406303E-05	8.325239E-05
6.540464E+03	6.351568E-05	8.254489E-05
6.550449E+03	6.297420E-05	8.184493E-05
6.560435E+03	6.242841E-05	8.113930E-05
6.570420E+03	6.189853E-05	8.045428E-05
6.580406E+03	6.137428E-05	7.977652E-05
6.590391E+03	6.084589E-05	7.909330E-05
6.600377E+03	6.033290E-05	7.843003E-05
6.610362E+03	5.982543E-05	7.777388E-05
6.620348E+03	5.931380E-05	7.711226E-05
6.630333E+03	5.881714E-05	7.647003E-05
6.640318E+03	5.832588E-05	7.583476E-05
6.650304E+03	5.783046E-05	7.519402E-05
6.660289E+03	5.734973E-05	7.457230E-05
6.670275E+03	5.687411E-05	7.395719E-05
6.680260E+03	5.639444E-05	7.333674E-05
6.690246E+03	5.592901E-05	7.273475E-05
6.700231E+03	5.545957E-05	7.212749E-05
6.710217E+03	5.500410E-05	7.153832E-05
6.720202E+03	5.454467E-05	7.094396E-05
6.730187E+03	5.409898E-05	7.036741E-05
6.740173E+03	5.365796E-05	6.979688E-05
6.750158E+03	5.321312E-05	6.922132E-05
6.760144E+03	5.278158E-05	6.866301E-05
6.770129E+03	5.234619E-05	6.809963E-05
6.780115E+03	5.192387E-05	6.755319E-05
6.790100E+03	5.149773E-05	6.700175E-05
6.800085E+03	5.108443E-05	6.646694E-05
6.810071E+03	5.066734E-05	6.592716E-05
6.820056E+03	5.026285E-05	6.540372E-05
6.830042E+03	4.985462E-05	6.487536E-05
6.840027E+03	4.945875E-05	6.436304E-05
6.850013E+03	4.905917E-05	6.384583E-05
6.859998E+03	4.867175E-05	6.334440E-05
6.869984E+03	4.828063E-05	6.283810E-05
6.879969E+03	4.790144E-05	6.234729E-05
6.889954E+03	4.751860E-05	6.185168E-05
6.899940E+03	4.714747E-05	6.137126E-05
6.909925E+03	4.677272E-05	6.088608E-05
6.919911E+03	4.640948E-05	6.041584E-05
6.929896E+03	4.604264E-05	5.994086E-05
6.939882E+03	4.567972E-05	5.947095E-05
6.949867E+03	4.532800E-05	5.901557E-05
6.959853E+03	4.497273E-05	5.855552E-05
6.969838E+03	4.462847E-05	5.810976E-05
6.979823E+03	4.428067E-05	5.765936E-05
6.989809E+03	4.393658E-05	5.721374E-05
6.999794E+03	4.360322E-05	5.678204E-05
7.009780E+03	4.326636E-05	5.634575E-05
7.019765E+03	4.294003E-05	5.592314E-05
7.029751E+03	4.261025E-05	5.549598E-05
7.039736E+03	4.228397E-05	5.507334E-05
7.049722E+03	4.196794E-05	5.466402E-05
7.059707E+03	4.164850E-05	5.425021E-05
7.069692E+03	4.133244E-05	5.384078E-05
7.079678E+03	4.102638E-05	5.344432E-05
7.089663E+03	4.071693E-05	5.304341E-05
7.099649E+03	4.041077E-05	5.264675E-05
7.109634E+03	4.011434E-05	5.226272E-05
7.119620E+03	3.981457E-05	5.187431E-05
7.129605E+03	3.951796E-05	5.148999E-05
7.139590E+03	3.922449E-05	5.110971E-05
7.149576E+03	3.894043E-05	5.074166E-05
7.159561E+03	3.865308E-05	5.036929E-05
7.169547E+03	3.836876E-05	5.000083E-05
7.179532E+03	3.809361E-05	4.964429E-05
7.189518E+03	3.781522E-05	4.928348E-05
7.199503E+03	3.753975E-05	4.892645E-05
7.209489E+03	3.726719E-05	4.857318E-05
7.219474E+03	3.700349E-05	4.823144E-05
7.229459E+03	3.673660E-05	4.788548E-05
7.239445E+03	3.647250E-05	4.754315E-05
7.249430E+03	3.621119E-05	4.720442E-05
7.259416E+03	3.595263E-05	4.686923E-05
7.269401E+03	3.570258E-05	4.654511E-05
7.279387E+03	3.544938E-05	4.621686E-05
7.289372E+03	3.519885E-05	4.589206E-05
7.299358E+03	3.495095E-05	4.557065E-05
7.309343E+03	3.470566E-05	4.525261E-05
7.319328E+03	3.446854E-05	4.494520E-05
7.329314E+03	3.422833E-05	4.463374E-05
7.339299E+03	3.399065E-05	4.432554E-05
7.349285E+03	3.375547E-05	4.402057E-05
7.359270E+03	3.352276E-05	4.371880E-05
7.369256E+03	3.329249E-05	4.342018E-05
7.379241E+03	3.307001E-05	4.313170E-05
7.389227E+03	3.284453E-05	4.283928E-05
7.399212E+03	3.262141E-05	4.254990E-05
7.409197E+03	3.240064E-05	4.226357E-05
7.419183E+03	3.218220E-05	4.198024E-05
7.429168E+03	3.196605E-05	4.169988E-05
7.439154E+03	3.175218E-05	4.142247E-05
7.449139E+03	3.154057E-05	4.114798E-05
7.459125E+03	3.133118E-05	4.087636E-05
7.469110E+03	3.112907E-05	4.061422E-05
7.479095E+03	3.092405E-05	4.034825E-05
7.489081E+03	3.072119E-05	4.008508E-05
7.499066E+03	3.052047E-05	3.982469E-05
7.509052E+03	3.032188E-05	3.956703E-05
7.519037E+03	3.012539E-05	3.931211E-05
7.529023E+03	2.993098E-05	3.905987E-05
7.539008E+03	2.973864E-05	3.881032E-05
7.548994E+03	2.954834E-05	3.856339E-05
7.558979E+03	2.936006E-05	3.831909E-05
7.568964E+03	2.917379E-05	3.807738E-05
7.578950E+03	2.898949E-05	3.783824E-05
7.588935E+03	2.880717E-05	3.760165E-05
7.598921E+03	2.862680E-05	3.736757E-05
7.608906E+03	2.844836E-05	3.713600E-05
7.618892E+03	2.827182E-05	3.690690E-05
7.628877E+03	2.809719E-05	3.668026E-05
7.638863E+03	2.792443E-05	3.645605E-05
7.648848E+03	2.775353E-05	3.623425E-05
7.658833E+03	2.758448E-05	3.601484E-05
7.668819E+03	2.741726E-05	3.579779E-05
7.678804E+03	2.725185E-05	3.558309E-05
7.688790E+03	2.708823E-05	3.537072E-05
7.698775E+03	2.692640E-05	3.516065E-05
7.708761E+03	2.676633E-05	3.495288E-05
7.718746E+03	2.660801E-05	3.474737E-05
7.728732E+03	2.644711E-05	3.453846E-05
7.738717E+03	2.629227E-05	3.433746E-05
7.748702E+03	2.613913E-05	3.413867E-05
