#wls	flux	fluxerr
1.597671E+03	2.897453E-05	1.220367E-05
1.637612E+03	2.903267E-05	1.222816E-05
1.677554E+03	2.910444E-05	1.225838E-05
1.717496E+03	2.919561E-05	1.229678E-05
1.757438E+03	2.929631E-05	1.233919E-05
1.797379E+03	2.941230E-05	1.238805E-05
1.837321E+03	2.954413E-05	1.244357E-05
1.877263E+03	2.969770E-05	1.250825E-05
1.917205E+03	2.986292E-05	1.257785E-05
1.957146E+03	3.005106E-05	1.265709E-05
1.997088E+03	3.025735E-05	1.274397E-05
2.037030E+03	3.047690E-05	1.283645E-05
2.076972E+03	3.072113E-05	1.293931E-05
2.116914E+03	3.098520E-05	1.305053E-05
2.156855E+03	3.126967E-05	1.317035E-05
2.196797E+03	3.157509E-05	1.329899E-05
2.236739E+03	3.190203E-05	1.343669E-05
2.276681E+03	3.225105E-05	1.358369E-05
2.316622E+03	3.262266E-05	1.374021E-05
2.356564E+03	3.302330E-05	1.390895E-05
2.396506E+03	3.344180E-05	1.408522E-05
2.436448E+03	3.389050E-05	1.427420E-05
2.476389E+03	3.435792E-05	1.447107E-05
2.516331E+03	3.485667E-05	1.468114E-05
2.556273E+03	3.537488E-05	1.489940E-05
2.596215E+03	3.592546E-05	1.513130E-05
2.636156E+03	3.650260E-05	1.537438E-05
2.676098E+03	3.710662E-05	1.562879E-05
2.716040E+03	3.773784E-05	1.589465E-05
2.755982E+03	3.839648E-05	1.617206E-05
2.795924E+03	3.908267E-05	1.646107E-05
2.835865E+03	3.979655E-05	1.676175E-05
2.875807E+03	4.053809E-05	1.707407E-05
2.915749E+03	4.130719E-05	1.739801E-05
2.955691E+03	4.211107E-05	1.773659E-05
2.995632E+03	4.293467E-05	1.808348E-05
3.005618E+03	4.314476E-05	1.817196E-05
3.015603E+03	4.335647E-05	1.826113E-05
3.025589E+03	4.357750E-05	1.835423E-05
3.035574E+03	4.379255E-05	1.844480E-05
3.045560E+03	4.400920E-05	1.853606E-05
3.055545E+03	4.422746E-05	1.862799E-05
3.065530E+03	4.444732E-05	1.872059E-05
3.075516E+03	4.466877E-05	1.881386E-05
3.085501E+03	4.489178E-05	1.890778E-05
3.095487E+03	4.511636E-05	1.900238E-05
3.105472E+03	4.535043E-05	1.910096E-05
3.115458E+03	4.557812E-05	1.919686E-05
3.125443E+03	4.580732E-05	1.929340E-05
3.135429E+03	4.603799E-05	1.939055E-05
3.145414E+03	4.627015E-05	1.948834E-05
3.155399E+03	4.650376E-05	1.958673E-05
3.165385E+03	4.673881E-05	1.968573E-05
3.175370E+03	4.698350E-05	1.978879E-05
3.185356E+03	4.722141E-05	1.988899E-05
3.195341E+03	4.746067E-05	1.998977E-05
3.205327E+03	4.770128E-05	2.009111E-05
3.215312E+03	4.794322E-05	2.019301E-05
3.225298E+03	4.818645E-05	2.029545E-05
3.235283E+03	4.843943E-05	2.040201E-05
3.245268E+03	4.868522E-05	2.050553E-05
3.255254E+03	4.893223E-05	2.060957E-05
3.265239E+03	4.918040E-05	2.071409E-05
3.275225E+03	4.942976E-05	2.081912E-05
3.285210E+03	4.968022E-05	2.092461E-05
3.295196E+03	4.994050E-05	2.103423E-05
3.305181E+03	5.019315E-05	2.114065E-05
3.315166E+03	5.044684E-05	2.124750E-05
3.325152E+03	5.070150E-05	2.135475E-05
3.335137E+03	5.095710E-05	2.146241E-05
3.345123E+03	5.122258E-05	2.157423E-05
3.355108E+03	5.148001E-05	2.168265E-05
3.365094E+03	5.173825E-05	2.179142E-05
3.375079E+03	5.199731E-05	2.190053E-05
3.385065E+03	5.225708E-05	2.200994E-05
3.395050E+03	5.252673E-05	2.212352E-05
3.405035E+03	5.278790E-05	2.223352E-05
3.415021E+03	5.304967E-05	2.234377E-05
3.425006E+03	5.331201E-05	2.245427E-05
3.434992E+03	5.357484E-05	2.256496E-05
3.444977E+03	5.384751E-05	2.267981E-05
3.454963E+03	5.411123E-05	2.279089E-05
3.464948E+03	5.437530E-05	2.290211E-05
3.474934E+03	5.463964E-05	2.301345E-05
3.484919E+03	5.491380E-05	2.312892E-05
3.494904E+03	5.517859E-05	2.324044E-05
3.504890E+03	5.544349E-05	2.335201E-05
3.514875E+03	5.570843E-05	2.346360E-05
3.524861E+03	5.597336E-05	2.357519E-05
3.534846E+03	5.624800E-05	2.369086E-05
3.544832E+03	5.651274E-05	2.380237E-05
3.554817E+03	5.677726E-05	2.391378E-05
3.564803E+03	5.704149E-05	2.402507E-05
3.574788E+03	5.731531E-05	2.414040E-05
3.584773E+03	5.757879E-05	2.425137E-05
3.594759E+03	5.784175E-05	2.436213E-05
3.604744E+03	5.810412E-05	2.447263E-05
3.614730E+03	5.836583E-05	2.458286E-05
3.624715E+03	5.863698E-05	2.469707E-05
3.634701E+03	5.889717E-05	2.480665E-05
3.644686E+03	5.915642E-05	2.491585E-05
3.654671E+03	5.941470E-05	2.502463E-05
3.664657E+03	5.968223E-05	2.513731E-05
3.674642E+03	5.993829E-05	2.524516E-05
3.684628E+03	6.019308E-05	2.535247E-05
3.694613E+03	6.044651E-05	2.545921E-05
3.704599E+03	6.070902E-05	2.556978E-05
3.714584E+03	6.095950E-05	2.567528E-05
3.724570E+03	6.120833E-05	2.578008E-05
3.734555E+03	6.145543E-05	2.588416E-05
3.744540E+03	6.170067E-05	2.598745E-05
3.754526E+03	6.195471E-05	2.609445E-05
3.764511E+03	6.219600E-05	2.619608E-05
3.774497E+03	6.243515E-05	2.629680E-05
3.784482E+03	6.267203E-05	2.639657E-05
3.794468E+03	6.291742E-05	2.649992E-05
3.804453E+03	6.314948E-05	2.659767E-05
3.814439E+03	6.337894E-05	2.669431E-05
3.824424E+03	6.360570E-05	2.678982E-05
3.834409E+03	6.382964E-05	2.688414E-05
3.844395E+03	6.406170E-05	2.698188E-05
3.854380E+03	6.427967E-05	2.707368E-05
3.864366E+03	6.449446E-05	2.716415E-05
3.874351E+03	6.470594E-05	2.725323E-05
3.884337E+03	6.492522E-05	2.734558E-05
3.894322E+03	6.512978E-05	2.743174E-05
3.904308E+03	6.533066E-05	2.751635E-05
3.914293E+03	6.552772E-05	2.759935E-05
3.924278E+03	6.572088E-05	2.768070E-05
3.934264E+03	6.592135E-05	2.776514E-05
3.944249E+03	6.610628E-05	2.784303E-05
3.954235E+03	6.628689E-05	2.791910E-05
3.964220E+03	6.646307E-05	2.799330E-05
3.974206E+03	6.663465E-05	2.806557E-05
3.984191E+03	6.681301E-05	2.814069E-05
3.994176E+03	6.697506E-05	2.820894E-05
4.004162E+03	6.713211E-05	2.827509E-05
4.014147E+03	6.728403E-05	2.833908E-05
4.024133E+03	6.743071E-05	2.840086E-05
4.034118E+03	6.758361E-05	2.846526E-05
4.044104E+03	6.771938E-05	2.852244E-05
4.054089E+03	6.784946E-05	2.857723E-05
4.064075E+03	6.797374E-05	2.862957E-05
4.074060E+03	6.809207E-05	2.867941E-05
4.084045E+03	6.821606E-05	2.873164E-05
4.094031E+03	6.832211E-05	2.877630E-05
4.104016E+03	6.842181E-05	2.881830E-05
4.114002E+03	6.851501E-05	2.885755E-05
4.123987E+03	6.860159E-05	2.889402E-05
4.133973E+03	6.868144E-05	2.892764E-05
4.143958E+03	6.876619E-05	2.896334E-05
4.153944E+03	6.883211E-05	2.899111E-05
4.163929E+03	6.889091E-05	2.901587E-05
4.173914E+03	6.894243E-05	2.903757E-05
4.183900E+03	6.898656E-05	2.905616E-05
4.193885E+03	6.902319E-05	2.907159E-05
4.203871E+03	6.905219E-05	2.908380E-05
4.213856E+03	6.908530E-05	2.909775E-05
4.223842E+03	6.909870E-05	2.910339E-05
4.233827E+03	6.910416E-05	2.910569E-05
4.243813E+03	6.910157E-05	2.910460E-05
4.253798E+03	6.909086E-05	2.910009E-05
4.263783E+03	6.907193E-05	2.909211E-05
4.273769E+03	6.904469E-05	2.908064E-05
4.283754E+03	6.902092E-05	2.907063E-05
4.293740E+03	6.897691E-05	2.905209E-05
4.303725E+03	6.892442E-05	2.902998E-05
4.313711E+03	6.886344E-05	2.900430E-05
4.323696E+03	6.879393E-05	2.897502E-05
4.333681E+03	6.871588E-05	2.894215E-05
4.343667E+03	6.862928E-05	2.890568E-05
4.353652E+03	6.853418E-05	2.886562E-05
4.363638E+03	6.843058E-05	2.882199E-05
4.373623E+03	6.831854E-05	2.877479E-05
4.383609E+03	6.820974E-05	2.872897E-05
4.393594E+03	6.808095E-05	2.867473E-05
4.403580E+03	6.794389E-05	2.861700E-05
4.413565E+03	6.779868E-05	2.855584E-05
4.423550E+03	6.764540E-05	2.849128E-05
4.433536E+03	6.748417E-05	2.842337E-05
4.443521E+03	6.731513E-05	2.835217E-05
4.453507E+03	6.713837E-05	2.827772E-05
4.463492E+03	6.695406E-05	2.820010E-05
4.473478E+03	6.676233E-05	2.811934E-05
4.483463E+03	6.656332E-05	2.803552E-05
4.493449E+03	6.635720E-05	2.794871E-05
4.503434E+03	6.614412E-05	2.785896E-05
4.513419E+03	6.592423E-05	2.776634E-05
4.523405E+03	6.569769E-05	2.767093E-05
4.533390E+03	6.546467E-05	2.757279E-05
4.543376E+03	6.522536E-05	2.747199E-05
4.553361E+03	6.497991E-05	2.736861E-05
4.563347E+03	6.472848E-05	2.726271E-05
4.573332E+03	6.447125E-05	2.715437E-05
4.583318E+03	6.420838E-05	2.704365E-05
4.593303E+03	6.394005E-05	2.693064E-05
4.603288E+03	6.366645E-05	2.681540E-05
4.613274E+03	6.338770E-05	2.669799E-05
4.623259E+03	6.310399E-05	2.657850E-05
4.633245E+03	6.281551E-05	2.645699E-05
4.643230E+03	6.252241E-05	2.633355E-05
4.653216E+03	6.222485E-05	2.620822E-05
4.663201E+03	6.192299E-05	2.608108E-05
4.673186E+03	6.161701E-05	2.595220E-05
4.683172E+03	6.130707E-05	2.582166E-05
4.693157E+03	6.099332E-05	2.568952E-05
4.703143E+03	6.067590E-05	2.555583E-05
4.713128E+03	6.035500E-05	2.542067E-05
4.723114E+03	6.002057E-05	2.527981E-05
4.733099E+03	5.969320E-05	2.514192E-05
4.743085E+03	5.936279E-05	2.500276E-05
4.753070E+03	5.902950E-05	2.486238E-05
4.763055E+03	5.869345E-05	2.472084E-05
4.773041E+03	5.835482E-05	2.457822E-05
4.783026E+03	5.801373E-05	2.443455E-05
4.793012E+03	5.767032E-05	2.428991E-05
4.802997E+03	5.732472E-05	2.414435E-05
4.812983E+03	5.696739E-05	2.399385E-05
4.822968E+03	5.661789E-05	2.384664E-05
4.832954E+03	5.626659E-05	2.369869E-05
4.842939E+03	5.591364E-05	2.355003E-05
4.852924E+03	5.555917E-05	2.340073E-05
4.862910E+03	5.520328E-05	2.325083E-05
4.872895E+03	5.483678E-05	2.309647E-05
4.882881E+03	5.447848E-05	2.294556E-05
4.892866E+03	5.411913E-05	2.279420E-05
4.902852E+03	5.375881E-05	2.264244E-05
4.912837E+03	5.339768E-05	2.249034E-05
4.922823E+03	5.302682E-05	2.233414E-05
4.932808E+03	5.266439E-05	2.218149E-05
4.942793E+03	5.230144E-05	2.202862E-05
4.952779E+03	5.193807E-05	2.187557E-05
4.962764E+03	5.157439E-05	2.172240E-05
4.972750E+03	5.120180E-05	2.156546E-05
4.982735E+03	5.083781E-05	2.141216E-05
4.992721E+03	5.047378E-05	2.125884E-05
5.002706E+03	5.010980E-05	2.110553E-05
5.012691E+03	4.973754E-05	2.094874E-05
5.022677E+03	4.937397E-05	2.079561E-05
5.032662E+03	4.901072E-05	2.064261E-05
5.042648E+03	4.864783E-05	2.048977E-05
5.052633E+03	4.827723E-05	2.033368E-05
5.062619E+03	4.791540E-05	2.018128E-05
5.072604E+03	4.755417E-05	2.002914E-05
5.082590E+03	4.718563E-05	1.987391E-05
5.092575E+03	4.682589E-05	1.972240E-05
5.102560E+03	4.646695E-05	1.957122E-05
5.112546E+03	4.610111E-05	1.941713E-05
5.122531E+03	4.574405E-05	1.926674E-05
5.132517E+03	4.538800E-05	1.911677E-05
5.142502E+03	4.502537E-05	1.896404E-05
5.152488E+03	4.467156E-05	1.881502E-05
5.162473E+03	4.431891E-05	1.866649E-05
5.172459E+03	4.396004E-05	1.851534E-05
5.182444E+03	4.360994E-05	1.836788E-05
5.192429E+03	4.326115E-05	1.822098E-05
5.202415E+03	4.290649E-05	1.807160E-05
5.212400E+03	4.256056E-05	1.792590E-05
5.222386E+03	4.220895E-05	1.777781E-05
5.232371E+03	4.186604E-05	1.763338E-05
5.242357E+03	4.152467E-05	1.748960E-05
5.252342E+03	4.117790E-05	1.734354E-05
5.262328E+03	4.083978E-05	1.720113E-05
5.272313E+03	4.049647E-05	1.705653E-05
5.282298E+03	4.016175E-05	1.691555E-05
5.292284E+03	3.982202E-05	1.677247E-05
5.302269E+03	3.949084E-05	1.663297E-05
5.312255E+03	3.915481E-05	1.649144E-05
5.322240E+03	3.882725E-05	1.635348E-05
5.332226E+03	3.850154E-05	1.621630E-05
5.342211E+03	3.817123E-05	1.607718E-05
5.352196E+03	3.784932E-05	1.594159E-05
5.362182E+03	3.752300E-05	1.580415E-05
5.372167E+03	3.720498E-05	1.567021E-05
5.382153E+03	3.688269E-05	1.553446E-05
5.392138E+03	3.656864E-05	1.540219E-05
5.402124E+03	3.625048E-05	1.526818E-05
5.412109E+03	3.594047E-05	1.513761E-05
5.422095E+03	3.562649E-05	1.500537E-05
5.432080E+03	3.531465E-05	1.487402E-05
5.442065E+03	3.501087E-05	1.474608E-05
5.452051E+03	3.470329E-05	1.461653E-05
5.462036E+03	3.440369E-05	1.449034E-05
5.472022E+03	3.410044E-05	1.436262E-05
5.482007E+03	3.380507E-05	1.423821E-05
5.491993E+03	3.350615E-05	1.411231E-05
5.501978E+03	3.321506E-05	1.398971E-05
5.511964E+03	3.292052E-05	1.386565E-05
5.521949E+03	3.262822E-05	1.374254E-05
5.531934E+03	3.234358E-05	1.362265E-05
5.541920E+03	3.205569E-05	1.350140E-05
5.551905E+03	3.177539E-05	1.338334E-05
5.561891E+03	3.149191E-05	1.326394E-05
5.571876E+03	3.121067E-05	1.314549E-05
5.581862E+03	3.093690E-05	1.303018E-05
5.591847E+03	3.066011E-05	1.291360E-05
5.601833E+03	3.038555E-05	1.279796E-05
5.611818E+03	3.011830E-05	1.268539E-05
5.621803E+03	2.984817E-05	1.257162E-05
5.631789E+03	2.958028E-05	1.245879E-05
5.641774E+03	2.931956E-05	1.234898E-05
5.651760E+03	2.905609E-05	1.223801E-05
5.661745E+03	2.879483E-05	1.212797E-05
5.671731E+03	2.854060E-05	1.202089E-05
5.681716E+03	2.828375E-05	1.191271E-05
5.691701E+03	2.802911E-05	1.180546E-05
5.701687E+03	2.778133E-05	1.170110E-05
5.711672E+03	2.753103E-05	1.159568E-05
5.721658E+03	2.728294E-05	1.149119E-05
5.731643E+03	2.703703E-05	1.138761E-05
5.741629E+03	2.679779E-05	1.128685E-05
5.751614E+03	2.655619E-05	1.118509E-05
5.761600E+03	2.631672E-05	1.108423E-05
5.771585E+03	2.607943E-05	1.098428E-05
5.781570E+03	2.584861E-05	1.088707E-05
5.791556E+03	2.561555E-05	1.078890E-05
5.801541E+03	2.538460E-05	1.069163E-05
5.811527E+03	2.515576E-05	1.059525E-05
5.821512E+03	2.493324E-05	1.050152E-05
5.831498E+03	2.470855E-05	1.040689E-05
5.841483E+03	2.448596E-05	1.031314E-05
5.851469E+03	2.426542E-05	1.022025E-05
5.861454E+03	2.404696E-05	1.012824E-05
5.871439E+03	2.383455E-05	1.003877E-05
5.881425E+03	2.362014E-05	9.948465E-06
5.891410E+03	2.340773E-05	9.859002E-06
5.901396E+03	2.319735E-05	9.770391E-06
5.911381E+03	2.298895E-05	9.682619E-06
5.921367E+03	2.278255E-05	9.595685E-06
5.931352E+03	2.258192E-05	9.511183E-06
5.941338E+03	2.237942E-05	9.425891E-06
5.951323E+03	2.217887E-05	9.341424E-06
5.961308E+03	2.198025E-05	9.257767E-06
5.971294E+03	2.178355E-05	9.174921E-06
5.981279E+03	2.158876E-05	9.092878E-06
5.991265E+03	2.139588E-05	9.011639E-06
6.001250E+03	2.120844E-05	8.932692E-06
6.011236E+03	2.101926E-05	8.853011E-06
6.021221E+03	2.083195E-05	8.774119E-06
6.031207E+03	2.064647E-05	8.695996E-06
6.041192E+03	2.046281E-05	8.618642E-06
6.051177E+03	2.028097E-05	8.542056E-06
6.061163E+03	2.010095E-05	8.466232E-06
6.071148E+03	1.992268E-05	8.391148E-06
6.081134E+03	1.974621E-05	8.316819E-06
6.091119E+03	1.957149E-05	8.243231E-06
6.101105E+03	1.939850E-05	8.170369E-06
6.111090E+03	1.922725E-05	8.098241E-06
6.121075E+03	1.905772E-05	8.026840E-06
6.131061E+03	1.888987E-05	7.956144E-06
6.141046E+03	1.872688E-05	7.887496E-06
6.151032E+03	1.856237E-05	7.818205E-06
6.161017E+03	1.839953E-05	7.749619E-06
6.171003E+03	1.823833E-05	7.681725E-06
6.180988E+03	1.807876E-05	7.614516E-06
6.190974E+03	1.792082E-05	7.547992E-06
6.200959E+03	1.776446E-05	7.482138E-06
6.210944E+03	1.760970E-05	7.416955E-06
6.220930E+03	1.745652E-05	7.352436E-06
6.230915E+03	1.730488E-05	7.288567E-06
6.240901E+03	1.715481E-05	7.225362E-06
6.250886E+03	1.700626E-05	7.162792E-06
6.260872E+03	1.685639E-05	7.099670E-06
6.270857E+03	1.671089E-05	7.038386E-06
6.280843E+03	1.656688E-05	6.977735E-06
6.290828E+03	1.642435E-05	6.917702E-06
6.300813E+03	1.628328E-05	6.858286E-06
6.310799E+03	1.614366E-05	6.799481E-06
6.320784E+03	1.600548E-05	6.741280E-06
6.330770E+03	1.586872E-05	6.683679E-06
6.340755E+03	1.573337E-05	6.626671E-06
6.350741E+03	1.559942E-05	6.570252E-06
6.360726E+03	1.546684E-05	6.514414E-06
6.370712E+03	1.533564E-05	6.459154E-06
6.380697E+03	1.520580E-05	6.404464E-06
6.390682E+03	1.507729E-05	6.350340E-06
6.400668E+03	1.495012E-05	6.296776E-06
6.410653E+03	1.482177E-05	6.242718E-06
6.420639E+03	1.469724E-05	6.190268E-06
6.430624E+03	1.457400E-05	6.138361E-06
6.440610E+03	1.445204E-05	6.086992E-06
6.450595E+03	1.433134E-05	6.036158E-06
6.460580E+03	1.421190E-05	5.985850E-06
6.470566E+03	1.409370E-05	5.936066E-06
6.480551E+03	1.397673E-05	5.886800E-06
6.490537E+03	1.385864E-05	5.837063E-06
6.500522E+03	1.374411E-05	5.788823E-06
6.510508E+03	1.363077E-05	5.741086E-06
6.520493E+03	1.351861E-05	5.693846E-06
6.530479E+03	1.340762E-05	5.647097E-06
6.540464E+03	1.329778E-05	5.600836E-06
6.550449E+03	1.318687E-05	5.554121E-06
6.560435E+03	1.307933E-05	5.508826E-06
6.570420E+03	1.297291E-05	5.464003E-06
6.580406E+03	1.286759E-05	5.419647E-06
6.590391E+03	1.276338E-05	5.375754E-06
6.600377E+03	1.265812E-05	5.331421E-06
6.610362E+03	1.255609E-05	5.288445E-06
6.620348E+03	1.245512E-05	5.245918E-06
6.630333E+03	1.235520E-05	5.203834E-06
6.640318E+03	1.225632E-05	5.162189E-06
6.650304E+03	1.215643E-05	5.120117E-06
6.660289E+03	1.205963E-05	5.079344E-06
6.670275E+03	1.196383E-05	5.038995E-06
6.680260E+03	1.186903E-05	4.999068E-06
6.690246E+03	1.177324E-05	4.958721E-06
6.700231E+03	1.168043E-05	4.919629E-06
6.710217E+03	1.158858E-05	4.880945E-06
6.720202E+03	1.149769E-05	4.842664E-06
6.730187E+03	1.140583E-05	4.803973E-06
6.740173E+03	1.131684E-05	4.766492E-06
6.750158E+03	1.122878E-05	4.729403E-06
6.760144E+03	1.114164E-05	4.692700E-06
6.770129E+03	1.105354E-05	4.655596E-06
6.780115E+03	1.096822E-05	4.619660E-06
6.790100E+03	1.088379E-05	4.584098E-06
6.800085E+03	1.080024E-05	4.548907E-06
6.810071E+03	1.071575E-05	4.513323E-06
6.820056E+03	1.063395E-05	4.478867E-06
6.830042E+03	1.055299E-05	4.444771E-06
6.840027E+03	1.047112E-05	4.410286E-06
6.850013E+03	1.039185E-05	4.376900E-06
6.859998E+03	1.031341E-05	4.343863E-06
6.869984E+03	1.023406E-05	4.310442E-06
6.879969E+03	1.015726E-05	4.278094E-06
6.889954E+03	1.008126E-05	4.246083E-06
6.899940E+03	1.000436E-05	4.213693E-06
6.909925E+03	9.929939E-06	4.182349E-06
6.919911E+03	9.856293E-06	4.151330E-06
6.929896E+03	9.781764E-06	4.119940E-06
6.939882E+03	9.709653E-06	4.089568E-06
6.949867E+03	9.638291E-06	4.059511E-06
6.959853E+03	9.566057E-06	4.029087E-06
6.969838E+03	9.496180E-06	3.999656E-06
6.979823E+03	9.427030E-06	3.970531E-06
6.989809E+03	9.357019E-06	3.941043E-06
6.999794E+03	9.289307E-06	3.912524E-06
7.009780E+03	9.220742E-06	3.883645E-06
7.019765E+03	9.154438E-06	3.855719E-06
7.029751E+03	9.088821E-06	3.828082E-06
7.039736E+03	9.022364E-06	3.800091E-06
7.049722E+03	8.958112E-06	3.773029E-06
7.059707E+03	8.894526E-06	3.746248E-06
7.069692E+03	8.830108E-06	3.719116E-06
7.079678E+03	8.767843E-06	3.692891E-06
7.089663E+03	8.704754E-06	3.666319E-06
7.099649E+03	8.643782E-06	3.640638E-06
7.109634E+03	8.581992E-06	3.614613E-06
7.119620E+03	8.522286E-06	3.589466E-06
7.129605E+03	8.463199E-06	3.564579E-06
7.139590E+03	8.403305E-06	3.539353E-06
7.149576E+03	8.345444E-06	3.514982E-06
7.159561E+03	8.286783E-06	3.490275E-06
7.169547E+03	8.230123E-06	3.466411E-06
7.179532E+03	8.172670E-06	3.442212E-06
7.189518E+03	8.117185E-06	3.418843E-06
7.199503E+03	8.062275E-06	3.395716E-06
7.209489E+03	8.006582E-06	3.372259E-06
7.219474E+03	7.952812E-06	3.349611E-06
7.229459E+03	7.898265E-06	3.326637E-06
7.239445E+03	7.845612E-06	3.304460E-06
7.249430E+03	7.792187E-06	3.281958E-06
7.259416E+03	7.740628E-06	3.260242E-06
7.269401E+03	7.688302E-06	3.238204E-06
7.279387E+03	7.637815E-06	3.216939E-06
7.289372E+03	7.586567E-06	3.195354E-06
7.299358E+03	7.537128E-06	3.174531E-06
7.309343E+03	7.486936E-06	3.153391E-06
7.319328E+03	7.438526E-06	3.133001E-06
7.329314E+03	7.389369E-06	3.112297E-06
7.339299E+03	7.341965E-06	3.092331E-06
7.349285E+03	7.293822E-06	3.072054E-06
7.359270E+03	7.247407E-06	3.052505E-06
7.369256E+03	7.200257E-06	3.032646E-06
7.379241E+03	7.154809E-06	3.013504E-06
7.389227E+03	7.108633E-06	2.994056E-06
7.399212E+03	7.064135E-06	2.975313E-06
7.409197E+03	7.018914E-06	2.956267E-06
7.419183E+03	6.974167E-06	2.937420E-06
7.429168E+03	6.931061E-06	2.919265E-06
7.439154E+03	6.887241E-06	2.900808E-06
7.449139E+03	6.845038E-06	2.883033E-06
7.459125E+03	6.802127E-06	2.864959E-06
7.469110E+03	6.760812E-06	2.847558E-06
7.479095E+03	6.718793E-06	2.829860E-06
7.489081E+03	6.678347E-06	2.812825E-06
7.499066E+03	6.637202E-06	2.795495E-06
7.509052E+03	6.596492E-06	2.778349E-06
7.519037E+03	6.557322E-06	2.761851E-06
7.529023E+03	6.517463E-06	2.745063E-06
7.539008E+03	6.479124E-06	2.728915E-06
7.548994E+03	6.440098E-06	2.712478E-06
7.558979E+03	6.401488E-06	2.696216E-06
7.568964E+03	6.364367E-06	2.680581E-06
7.578950E+03	6.326568E-06	2.664661E-06
7.588935E+03	6.290238E-06	2.649359E-06
7.598921E+03	6.253236E-06	2.633774E-06
7.608906E+03	6.216630E-06	2.618357E-06
7.618892E+03	6.181466E-06	2.603546E-06
7.628877E+03	6.145635E-06	2.588454E-06
7.638863E+03	6.110191E-06	2.573526E-06
7.648848E+03	6.076160E-06	2.559192E-06
7.658833E+03	6.041470E-06	2.544582E-06
7.668819E+03	6.008176E-06	2.530558E-06
7.678804E+03	5.974229E-06	2.516261E-06
7.688790E+03	5.940651E-06	2.502118E-06
7.698775E+03	5.908442E-06	2.488552E-06
7.708761E+03	5.875588E-06	2.474715E-06
7.718746E+03	5.843093E-06	2.461028E-06
7.728732E+03	5.811941E-06	2.447907E-06
7.738717E+03	5.780151E-06	2.434518E-06
7.748702E+03	5.748713E-06	2.421276E-06
