#wls	flux	fluxerr
1.600000E+03	1.077488E-15	8.061082E-16
1.640000E+03	1.102389E-15	8.131085E-16
1.680000E+03	1.129290E-15	8.207182E-16
1.720000E+03	1.158248E-15	8.288859E-16
1.760000E+03	1.189424E-15	8.376266E-16
1.800000E+03	1.223077E-15	8.470127E-16
1.840000E+03	1.259056E-15	8.568198E-16
1.880000E+03	1.297720E-15	8.671686E-16
1.920000E+03	1.339123E-15	8.779564E-16
1.960000E+03	1.383321E-15	8.890753E-16
2.000000E+03	1.430280E-15	9.003511E-16
2.040000E+03	1.480070E-15	9.116727E-16
2.080000E+03	1.532578E-15	9.228087E-16
2.120000E+03	1.587514E-15	9.334259E-16
2.160000E+03	1.644896E-15	9.433814E-16
2.200000E+03	1.704384E-15	9.523251E-16
2.240000E+03	1.765757E-15	9.599919E-16
2.280000E+03	1.829013E-15	9.662420E-16
2.320000E+03	1.894360E-15	9.710429E-16
2.360000E+03	1.962307E-15	9.744980E-16
2.400000E+03	2.033481E-15	9.767325E-16
2.440000E+03	2.108533E-15	9.778421E-16
2.480000E+03	2.188426E-15	9.780166E-16
2.520000E+03	2.273893E-15	9.772805E-16
2.560000E+03	2.365909E-15	9.757061E-16
2.600000E+03	2.465251E-15	9.732193E-16
2.640000E+03	2.572881E-15	9.697607E-16
2.680000E+03	2.689695E-15	9.651804E-16
2.720000E+03	2.816730E-15	9.593161E-16
2.760000E+03	2.955191E-15	9.519918E-16
2.800000E+03	3.106398E-15	9.429892E-16
2.840000E+03	3.271912E-15	9.320804E-16
2.880000E+03	3.453773E-15	9.190749E-16
2.920000E+03	3.654194E-15	9.037100E-16
2.960000E+03	3.876284E-15	8.858153E-16
3.000000E+03	4.123398E-15	8.651129E-16
3.010000E+03	4.189678E-15	8.594922E-16
3.020000E+03	4.257796E-15	8.536625E-16
3.030000E+03	4.327816E-15	8.476177E-16
3.040000E+03	4.400002E-15	8.413893E-16
3.050000E+03	4.474329E-15	8.349511E-16
3.060000E+03	4.550875E-15	8.282959E-16
3.070000E+03	4.629816E-15	8.214345E-16
3.080000E+03	4.711137E-15	8.143416E-16
3.090000E+03	4.794926E-15	8.070105E-16
3.100000E+03	4.881473E-15	7.994673E-16
3.110000E+03	4.970671E-15	7.916710E-16
3.120000E+03	5.062721E-15	7.836307E-16
3.130000E+03	5.157621E-15	7.753235E-16
3.140000E+03	5.255786E-15	7.667886E-16
3.150000E+03	5.357017E-15	7.579724E-16
3.160000E+03	5.461528E-15	7.488836E-16
3.170000E+03	5.569542E-15	7.395297E-16
3.180000E+03	5.681178E-15	7.299036E-16
3.190000E+03	5.796346E-15	7.199718E-16
3.200000E+03	5.915488E-15	7.097693E-16
3.210000E+03	6.038514E-15	6.992640E-16
3.220000E+03	6.165657E-15	6.884646E-16
3.230000E+03	6.296929E-15	6.773548E-16
3.240000E+03	6.432560E-15	6.659442E-16
3.250000E+03	6.572667E-15	6.542307E-16
3.260000E+03	6.717357E-15	6.422136E-16
3.270000E+03	6.866615E-15	6.298827E-16
3.280000E+03	7.020640E-15	6.172514E-16
3.290000E+03	7.179503E-15	6.043238E-16
3.300000E+03	7.343132E-15	5.910962E-16
3.310000E+03	7.511667E-15	5.775874E-16
3.320000E+03	7.684976E-15	5.637992E-16
3.330000E+03	7.863132E-15	5.497555E-16
3.340000E+03	8.045917E-15	5.354653E-16
3.350000E+03	8.233178E-15	5.209508E-16
3.358070E+03	7.989045E-15	1.808722E-15
3.362156E+03	7.959712E-15	1.804562E-15
3.366242E+03	8.043172E-15	1.805137E-15
3.370328E+03	8.089731E-15	1.804129E-15
3.374414E+03	8.188371E-15	1.805256E-15
3.378500E+03	8.355721E-15	1.809209E-15
3.382586E+03	8.632275E-15	1.817755E-15
3.386672E+03	8.881283E-15	2.342072E-15
3.390758E+03	9.177838E-15	2.547608E-15
3.394844E+03	9.380283E-15	2.455677E-15
3.398930E+03	9.684586E-15	2.482451E-15
3.403016E+03	9.917994E-15	2.356417E-15
3.407102E+03	1.023051E-14	2.404489E-15
3.411188E+03	1.058940E-14	2.362435E-15
3.415274E+03	1.102048E-14	2.373264E-15
3.419360E+03	1.143391E-14	2.375860E-15
3.423447E+03	1.173417E-14	2.377635E-15
3.427533E+03	1.208565E-14	2.374944E-15
3.431619E+03	1.247309E-14	2.363761E-15
3.435705E+03	1.271732E-14	1.948538E-15
3.439791E+03	1.293261E-14	1.574017E-15
3.443877E+03	1.317949E-14	1.590792E-15
3.447963E+03	1.341310E-14	1.593109E-15
3.452049E+03	1.350733E-14	1.643268E-15
3.456135E+03	1.350634E-14	1.505966E-15
3.460221E+03	1.351198E-14	1.568213E-15
3.464307E+03	1.354710E-14	1.603925E-15
3.468393E+03	1.361462E-14	1.744207E-15
3.472479E+03	1.358213E-14	1.673990E-15
3.476565E+03	1.334077E-14	1.688067E-15
3.480651E+03	1.327511E-14	1.745303E-15
3.484737E+03	1.323644E-14	1.755359E-15
3.488823E+03	1.312224E-14	1.719757E-15
3.492910E+03	1.291154E-14	1.717720E-15
3.496996E+03	1.287680E-14	1.699735E-15
3.501082E+03	1.270584E-14	1.720686E-15
3.505168E+03	1.272892E-14	1.715077E-15
3.509254E+03	1.241926E-14	1.663057E-15
3.513340E+03	1.244845E-14	1.682107E-15
3.517426E+03	1.236600E-14	1.565860E-15
3.521512E+03	1.239180E-14	1.564445E-15
3.525598E+03	1.236985E-14	1.621234E-15
3.529684E+03	1.228558E-14	1.560381E-15
3.533770E+03	1.218774E-14	1.521712E-15
3.537856E+03	1.213130E-14	1.565658E-15
3.541942E+03	1.200077E-14	1.531405E-15
3.546028E+03	1.181777E-14	1.496310E-15
3.550114E+03	1.168964E-14	1.454563E-15
3.554200E+03	1.156546E-14	1.434117E-15
3.558287E+03	1.147128E-14	1.385156E-15
3.562373E+03	1.141428E-14	1.294842E-15
3.566459E+03	1.130598E-14	1.098164E-15
3.570545E+03	1.125803E-14	1.251108E-15
3.574631E+03	1.126696E-14	1.177629E-15
3.578717E+03	1.135523E-14	1.261765E-15
3.582803E+03	1.141696E-14	1.264379E-15
3.586889E+03	1.150205E-14	1.238949E-15
3.590975E+03	1.152622E-14	1.263236E-15
3.595061E+03	1.174823E-14	1.305902E-15
3.599147E+03	1.195039E-14	1.177086E-15
3.603233E+03	1.235781E-14	1.191334E-15
3.607319E+03	1.281874E-14	1.192384E-15
3.611405E+03	1.334633E-14	1.176434E-15
3.615491E+03	1.386661E-14	1.258719E-15
3.619577E+03	1.436488E-14	1.233712E-15
3.623664E+03	1.495541E-14	1.252396E-15
3.627749E+03	1.556743E-14	1.282486E-15
3.631836E+03	1.603871E-14	1.268094E-15
3.635922E+03	1.662473E-14	1.322409E-15
3.640008E+03	1.722632E-14	1.372602E-15
3.644094E+03	1.773532E-14	1.358090E-15
3.648180E+03	1.813779E-14	1.338631E-15
3.652266E+03	1.845949E-14	1.313251E-15
3.656352E+03	1.870577E-14	1.311228E-15
3.660438E+03	1.874686E-14	1.313870E-15
3.664524E+03	1.872519E-14	1.305294E-15
3.668610E+03	1.857531E-14	1.299473E-15
3.672696E+03	1.829938E-14	1.295832E-15
3.676782E+03	1.797014E-14	1.342079E-15
3.680868E+03	1.748879E-14	1.328302E-15
3.684954E+03	1.690454E-14	1.306942E-15
3.689040E+03	1.619690E-14	1.251117E-15
3.693126E+03	1.550395E-14	1.139371E-15
3.697213E+03	1.469927E-14	1.079753E-15
3.701299E+03	1.394607E-14	1.073622E-15
3.705385E+03	1.308817E-14	1.000149E-15
3.709471E+03	1.227749E-14	8.985864E-16
3.713557E+03	1.150141E-14	8.117079E-16
3.717643E+03	1.079729E-14	7.667172E-16
3.721729E+03	1.011121E-14	7.354845E-16
3.725815E+03	9.504306E-15	8.352060E-16
3.729901E+03	8.933995E-15	8.796168E-16
3.733987E+03	8.422894E-15	8.766177E-16
3.738073E+03	7.957107E-15	8.599795E-16
3.742159E+03	7.627681E-15	8.433217E-16
3.746245E+03	7.309129E-15	8.343818E-16
3.750331E+03	7.076473E-15	8.035157E-16
3.754417E+03	6.923776E-15	8.341166E-16
3.758503E+03	6.846762E-15	7.066165E-16
3.762590E+03	6.795334E-15	7.051070E-16
3.766675E+03	6.775892E-15	6.806306E-16
3.770762E+03	6.810569E-15	6.703116E-16
3.774848E+03	6.915349E-15	6.629896E-16
3.778934E+03	7.015486E-15	6.421603E-16
3.783020E+03	7.119901E-15	6.385802E-16
3.787106E+03	7.259273E-15	6.502875E-16
3.791192E+03	7.486025E-15	6.507817E-16
3.795278E+03	7.747213E-15	6.467415E-16
3.799364E+03	8.082541E-15	6.505157E-16
3.803450E+03	8.407503E-15	6.319415E-16
3.807536E+03	8.746020E-15	6.456997E-16
3.811622E+03	9.126651E-15	5.786124E-16
3.815708E+03	9.580001E-15	6.270730E-16
3.819794E+03	1.007826E-14	6.725216E-16
3.823880E+03	1.064648E-14	7.382779E-16
3.827966E+03	1.127364E-14	7.738837E-16
3.832052E+03	1.200066E-14	8.162387E-16
3.836139E+03	1.275208E-14	8.399926E-16
3.840225E+03	1.362561E-14	8.814031E-16
3.844311E+03	1.457180E-14	9.242993E-16
3.848397E+03	1.552328E-14	9.714189E-16
3.852483E+03	1.650670E-14	1.009212E-15
3.856569E+03	1.755248E-14	1.058239E-15
3.860655E+03	1.863969E-14	1.109335E-15
3.864741E+03	1.976183E-14	1.143733E-15
3.868827E+03	2.101389E-14	1.178270E-15
3.872913E+03	2.228445E-14	1.241774E-15
3.876999E+03	2.354848E-14	1.361099E-15
3.881085E+03	2.478112E-14	1.447822E-15
3.885171E+03	2.593753E-14	1.506195E-15
3.889257E+03	2.705214E-14	1.567051E-15
3.893343E+03	2.813285E-14	1.636210E-15
3.897429E+03	2.913974E-14	1.692991E-15
3.901515E+03	3.010087E-14	1.742081E-15
3.905602E+03	3.104870E-14	1.788439E-15
3.909688E+03	3.196335E-14	1.826584E-15
3.913774E+03	3.283579E-14	1.885646E-15
3.917860E+03	3.361741E-14	1.917654E-15
3.921946E+03	3.431173E-14	1.954820E-15
3.926032E+03	3.489187E-14	1.972232E-15
3.930118E+03	3.541463E-14	1.996336E-15
3.934204E+03	3.585609E-14	2.025116E-15
3.938290E+03	3.623636E-14	2.096881E-15
3.942376E+03	3.655128E-14	2.237681E-15
3.946462E+03	3.686442E-14	2.244183E-15
3.950548E+03	3.710821E-14	2.255578E-15
3.954634E+03	3.725605E-14	2.270086E-15
3.958720E+03	3.731752E-14	2.301564E-15
3.962806E+03	3.736031E-14	2.341771E-15
3.966892E+03	3.732643E-14	2.348546E-15
3.970979E+03	3.722380E-14	2.360508E-15
3.975065E+03	3.704394E-14	2.351305E-15
3.979151E+03	3.686728E-14	2.348445E-15
3.983237E+03	3.657563E-14	2.334330E-15
3.987323E+03	3.624048E-14	2.279116E-15
3.991409E+03	3.585035E-14	2.121082E-15
3.995495E+03	3.539826E-14	2.064783E-15
3.999581E+03	3.486851E-14	2.030349E-15
4.003667E+03	3.428063E-14	2.015211E-15
4.007753E+03	3.370502E-14	1.989406E-15
4.011839E+03	3.312271E-14	1.982327E-15
4.015925E+03	3.248874E-14	1.969803E-15
4.020011E+03	3.183391E-14	1.921480E-15
4.024097E+03	3.115982E-14	1.885156E-15
4.028183E+03	3.044931E-14	1.842353E-15
4.032269E+03	2.974009E-14	1.810956E-15
4.036356E+03	2.906376E-14	1.777774E-15
4.040441E+03	2.834132E-14	1.694590E-15
4.044528E+03	2.759597E-14	1.615534E-15
4.048614E+03	2.683076E-14	1.562351E-15
4.052700E+03	2.609424E-14	1.526735E-15
4.056786E+03	2.536780E-14	1.578147E-15
4.060872E+03	2.471375E-14	1.524148E-15
4.064958E+03	2.416274E-14	1.473793E-15
4.069044E+03	2.360968E-14	1.423024E-15
4.073130E+03	2.308135E-14	1.387321E-15
4.077216E+03	2.252144E-14	1.358059E-15
4.081302E+03	2.197362E-14	1.325511E-15
4.085388E+03	2.147976E-14	1.285544E-15
4.089474E+03	2.104089E-14	1.290490E-15
4.093560E+03	2.061493E-14	1.282637E-15
4.097646E+03	2.024759E-14	1.266057E-15
4.101732E+03	1.992465E-14	1.268585E-15
4.105819E+03	1.963888E-14	1.175025E-15
4.109904E+03	1.937764E-14	1.142158E-15
4.113991E+03	1.912563E-14	1.104855E-15
4.118077E+03	1.889653E-14	1.085764E-15
4.122163E+03	1.873807E-14	1.068780E-15
4.126249E+03	1.861700E-14	1.054992E-15
4.130335E+03	1.853850E-14	1.047581E-15
4.134421E+03	1.854575E-14	1.047216E-15
4.138507E+03	1.857713E-14	1.038558E-15
4.142593E+03	1.867981E-14	1.039798E-15
4.146679E+03	1.878987E-14	1.044307E-15
4.150765E+03	1.888974E-14	1.037257E-15
4.154851E+03	1.903857E-14	1.042149E-15
4.158937E+03	1.922662E-14	1.083513E-15
4.163023E+03	1.941620E-14	1.088483E-15
4.167109E+03	1.959263E-14	1.104564E-15
4.171195E+03	1.980253E-14	1.140898E-15
4.175282E+03	2.001116E-14	1.150813E-15
4.179368E+03	2.014445E-14	1.152893E-15
4.183454E+03	2.025705E-14	1.155178E-15
4.187540E+03	2.034384E-14	1.160770E-15
4.191626E+03	2.042996E-14	1.163960E-15
4.195712E+03	2.047744E-14	1.169298E-15
4.199798E+03	2.050615E-14	1.165163E-15
4.203884E+03	2.053709E-14	1.163295E-15
4.207970E+03	2.051823E-14	1.131143E-15
4.212056E+03	2.053166E-14	1.129515E-15
4.216142E+03	2.052539E-14	1.136718E-15
4.220228E+03	2.049957E-14	1.108201E-15
4.224314E+03	2.052384E-14	1.096830E-15
4.228400E+03	2.054006E-14	1.093434E-15
4.232486E+03	2.055981E-14	1.088550E-15
4.236572E+03	2.056519E-14	1.088107E-15
4.240658E+03	2.059326E-14	1.086102E-15
4.244744E+03	2.064892E-14	1.092784E-15
4.248831E+03	2.072943E-14	1.082407E-15
4.252917E+03	2.082575E-14	1.085804E-15
4.257003E+03	2.096297E-14	1.091067E-15
4.261089E+03	2.111312E-14	1.098668E-15
4.265175E+03	2.124973E-14	1.095876E-15
4.269261E+03	2.141422E-14	1.092739E-15
4.273347E+03	2.156640E-14	1.090366E-15
4.277433E+03	2.173627E-14	1.101502E-15
4.281519E+03	2.191871E-14	1.121941E-15
4.285605E+03	2.202071E-14	1.120816E-15
4.289691E+03	2.207627E-14	1.131944E-15
4.293777E+03	2.207957E-14	1.117010E-15
4.297863E+03	2.203717E-14	1.111317E-15
4.301949E+03	2.194698E-14	1.118953E-15
4.306035E+03	2.180446E-14	1.115830E-15
4.310122E+03	2.161249E-14	1.094005E-15
4.314208E+03	2.137631E-14	1.064559E-15
4.318294E+03	2.107565E-14	1.049789E-15
4.322380E+03	2.069651E-14	1.028775E-15
4.326466E+03	2.030830E-14	1.023699E-15
4.330552E+03	1.989184E-14	1.029169E-15
4.334638E+03	1.942214E-14	1.008016E-15
4.338724E+03	1.894755E-14	9.862183E-16
4.342810E+03	1.842393E-14	9.961455E-16
4.346896E+03	1.788978E-14	9.793508E-16
4.350982E+03	1.735946E-14	9.257531E-16
4.355068E+03	1.685074E-14	8.858214E-16
4.359154E+03	1.636700E-14	8.611955E-16
4.363240E+03	1.588566E-14	8.369145E-16
4.367326E+03	1.544787E-14	8.152374E-16
4.371412E+03	1.503806E-14	7.971661E-16
4.375498E+03	1.465835E-14	7.844449E-16
4.379584E+03	1.432368E-14	7.582525E-16
4.383671E+03	1.406164E-14	7.528815E-16
4.387757E+03	1.387862E-14	7.434255E-16
4.391843E+03	1.373813E-14	7.051312E-16
4.395929E+03	1.365832E-14	6.880334E-16
4.400015E+03	1.361568E-14	6.944357E-16
4.404101E+03	1.360648E-14	6.944856E-16
4.408187E+03	1.365795E-14	6.860475E-16
4.412273E+03	1.372850E-14	6.890560E-16
4.416359E+03	1.383620E-14	6.929725E-16
4.420445E+03	1.399439E-14	7.037423E-16
4.424531E+03	1.418682E-14	7.159404E-16
4.428617E+03	1.439738E-14	7.286839E-16
4.432703E+03	1.463382E-14	7.432973E-16
4.436789E+03	1.490606E-14	7.672088E-16
4.440875E+03	1.520260E-14	7.808808E-16
4.444961E+03	1.554561E-14	8.037450E-16
4.449047E+03	1.590573E-14	8.205063E-16
4.453133E+03	1.631730E-14	8.568575E-16
4.457220E+03	1.673108E-14	8.907339E-16
4.461306E+03	1.716808E-14	9.317622E-16
4.465392E+03	1.766898E-14	9.633368E-16
4.469478E+03	1.818480E-14	9.967694E-16
4.473564E+03	1.869345E-14	1.034996E-15
4.477650E+03	1.920155E-14	1.074075E-15
4.481736E+03	1.975391E-14	1.117727E-15
4.485822E+03	2.032291E-14	1.150972E-15
4.489908E+03	2.088886E-14	1.190038E-15
4.493994E+03	2.148321E-14	1.232309E-15
4.498080E+03	2.208734E-14	1.277993E-15
4.502166E+03	2.271521E-14	1.320018E-15
4.506252E+03	2.333002E-14	1.360556E-15
4.510338E+03	2.394152E-14	1.396560E-15
4.514424E+03	2.453690E-14	1.445413E-15
4.518511E+03	2.512479E-14	1.498459E-15
4.522596E+03	2.569248E-14	1.545268E-15
4.526683E+03	2.622736E-14	1.588719E-15
4.530769E+03	2.673710E-14	1.631265E-15
4.534855E+03	2.720814E-14	1.675330E-15
4.538941E+03	2.766923E-14	1.719405E-15
4.543027E+03	2.809521E-14	1.769431E-15
4.547113E+03	2.843077E-14	1.813336E-15
4.551199E+03	2.876026E-14	1.851403E-15
4.555285E+03	2.902845E-14	1.889548E-15
4.559371E+03	2.923892E-14	1.926133E-15
4.563457E+03	2.943778E-14	1.953638E-15
4.567543E+03	2.958577E-14	1.988948E-15
4.571629E+03	2.970909E-14	2.020221E-15
4.575715E+03	2.980897E-14	2.051633E-15
4.579801E+03	2.989687E-14	2.076942E-15
4.583887E+03	2.992372E-14	2.098570E-15
4.587974E+03	2.992268E-14	2.118800E-15
4.592060E+03	2.991741E-14	2.131566E-15
4.596146E+03	2.989167E-14	2.139961E-15
4.600232E+03	2.983345E-14	2.154914E-15
4.604318E+03	2.972985E-14	2.166394E-15
4.608404E+03	2.958930E-14	2.168257E-15
4.612490E+03	2.942917E-14	2.175242E-15
4.616576E+03	2.925064E-14	2.186269E-15
4.620662E+03	2.906686E-14	2.205201E-15
4.624748E+03	2.886288E-14	2.208147E-15
4.628834E+03	2.865083E-14	2.210887E-15
4.632920E+03	2.844766E-14	2.214853E-15
4.637006E+03	2.823050E-14	2.222520E-15
4.641092E+03	2.803111E-14	2.226270E-15
4.645178E+03	2.778920E-14	2.232487E-15
4.649264E+03	2.755427E-14	2.233558E-15
4.653350E+03	2.730764E-14	2.232643E-15
4.657436E+03	2.704940E-14	2.231677E-15
4.661523E+03	2.679623E-14	2.238416E-15
4.665609E+03	2.650624E-14	2.232556E-15
4.669695E+03	2.615931E-14	2.200052E-15
4.673781E+03	2.580530E-14	2.194857E-15
4.677867E+03	2.543941E-14	2.192478E-15
4.681953E+03	2.498755E-14	2.186230E-15
4.686039E+03	2.449555E-14	2.163005E-15
4.690125E+03	2.399537E-14	2.145331E-15
4.694211E+03	2.344594E-14	2.108356E-15
4.698297E+03	2.285434E-14	2.071039E-15
4.702383E+03	2.222278E-14	2.029399E-15
4.706469E+03	2.156298E-14	1.986449E-15
4.710555E+03	2.087420E-14	1.920099E-15
4.714641E+03	2.015102E-14	1.844618E-15
4.718727E+03	1.941159E-14	1.785120E-15
4.722814E+03	1.868237E-14	1.747619E-15
4.726900E+03	1.797078E-14	1.714521E-15
4.730986E+03	1.726923E-14	1.672519E-15
4.735072E+03	1.659910E-14	1.641868E-15
4.739158E+03	1.593783E-14	1.584513E-15
4.743244E+03	1.528908E-14	1.527236E-15
4.747330E+03	1.472310E-14	1.481592E-15
4.751416E+03	1.418297E-14	1.422636E-15
4.755502E+03	1.371731E-14	1.382446E-15
4.759588E+03	1.332097E-14	1.334474E-15
4.763674E+03	1.295954E-14	1.309338E-15
4.767760E+03	1.266200E-14	1.299597E-15
4.771846E+03	1.241785E-14	1.306028E-15
4.775932E+03	1.221033E-14	1.300839E-15
4.780018E+03	1.201830E-14	1.298188E-15
4.784104E+03	1.188688E-14	1.288587E-15
4.788190E+03	1.180842E-14	1.284537E-15
4.792276E+03	1.176540E-14	1.280053E-15
4.796363E+03	1.173152E-14	1.249785E-15
4.800449E+03	1.168252E-14	1.231952E-15
4.804535E+03	1.162388E-14	1.225907E-15
4.808621E+03	1.155299E-14	1.219589E-15
4.812707E+03	1.145573E-14	1.214901E-15
4.816793E+03	1.139437E-14	1.222099E-15
4.820879E+03	1.133238E-14	1.235360E-15
4.824965E+03	1.127240E-14	1.250642E-15
4.829051E+03	1.122851E-14	1.265919E-15
4.833137E+03	1.115845E-14	1.255211E-15
4.837223E+03	1.112284E-14	1.245606E-15
4.841309E+03	1.111356E-14	1.240019E-15
4.845395E+03	1.109644E-14	1.236193E-15
4.849481E+03	1.111238E-14	1.235573E-15
4.853567E+03	1.116548E-14	1.240343E-15
4.857653E+03	1.127970E-14	1.252408E-15
4.861739E+03	1.141745E-14	1.269813E-15
4.865825E+03	1.160527E-14	1.293987E-15
4.869912E+03	1.186595E-14	1.333200E-15
4.873998E+03	1.214841E-14	1.387436E-15
4.878084E+03	1.246189E-14	1.433395E-15
4.882170E+03	1.282065E-14	1.483455E-15
4.886256E+03	1.321584E-14	1.528260E-15
4.890342E+03	1.361750E-14	1.586719E-15
4.894428E+03	1.401289E-14	1.630546E-15
4.898514E+03	1.440457E-14	1.678956E-15
4.902600E+03	1.477153E-14	1.723734E-15
4.906686E+03	1.511982E-14	1.768247E-15
4.910772E+03	1.542276E-14	1.802692E-15
4.914858E+03	1.567484E-14	1.831812E-15
4.918944E+03	1.586975E-14	1.882850E-15
4.923030E+03	1.600707E-14	1.899998E-15
4.927116E+03	1.608392E-14	1.910208E-15
4.931203E+03	1.607922E-14	1.910835E-15
4.935289E+03	1.600843E-14	1.906643E-15
4.939375E+03	1.587368E-14	1.881551E-15
4.943461E+03	1.568530E-14	1.862116E-15
4.947547E+03	1.544942E-14	1.834834E-15
4.951633E+03	1.517701E-14	1.809729E-15
4.955719E+03	1.485939E-14	1.784260E-15
4.959805E+03	1.450421E-14	1.749362E-15
4.963891E+03	1.413122E-14	1.710596E-15
4.967977E+03	1.375917E-14	1.639831E-15
4.972063E+03	1.337918E-14	1.595679E-15
4.976149E+03	1.300421E-14	1.553631E-15
4.980235E+03	1.264627E-14	1.515261E-15
4.984321E+03	1.233571E-14	1.475313E-15
4.988407E+03	1.206420E-14	1.445714E-15
4.992493E+03	1.181309E-14	1.416504E-15
4.996579E+03	1.157668E-14	1.383164E-15
5.000666E+03	1.138026E-14	1.362850E-15
5.004752E+03	1.123702E-14	1.350578E-15
5.008838E+03	1.114420E-14	1.340869E-15
5.012924E+03	1.112822E-14	1.339624E-15
5.017010E+03	1.114922E-14	1.342003E-15
5.021096E+03	1.122184E-14	1.348540E-15
5.025182E+03	1.133474E-14	1.356995E-15
5.029268E+03	1.148530E-14	1.365853E-15
5.033354E+03	1.168647E-14	1.389212E-15
5.037440E+03	1.191380E-14	1.416137E-15
5.041526E+03	1.212526E-14	1.440746E-15
5.045612E+03	1.235576E-14	1.467230E-15
5.049698E+03	1.261285E-14	1.496396E-15
5.053784E+03	1.287711E-14	1.525462E-15
5.057870E+03	1.312854E-14	1.553421E-15
5.061956E+03	1.338253E-14	1.582033E-15
5.066042E+03	1.362837E-14	1.610316E-15
5.070128E+03	1.381736E-14	1.631215E-15
5.074215E+03	1.399398E-14	1.649457E-15
5.078301E+03	1.415301E-14	1.664944E-15
5.082387E+03	1.429534E-14	1.681078E-15
5.086473E+03	1.442561E-14	1.693489E-15
5.090559E+03	1.452057E-14	1.700530E-15
5.094645E+03	1.459248E-14	1.704253E-15
5.098731E+03	1.465575E-14	1.707704E-15
5.102817E+03	1.470595E-14	1.709535E-15
5.106903E+03	1.472901E-14	1.708321E-15
5.110989E+03	1.476529E-14	1.710551E-15
5.115075E+03	1.478501E-14	1.708279E-15
5.119161E+03	1.480828E-14	1.705880E-15
5.123247E+03	1.483286E-14	1.712546E-15
5.127333E+03	1.486316E-14	1.711941E-15
5.131419E+03	1.490207E-14	1.706955E-15
5.135506E+03	1.494661E-14	1.703317E-15
5.139592E+03	1.501869E-14	1.703413E-15
5.143678E+03	1.510495E-14	1.713153E-15
5.147764E+03	1.520823E-14	1.717764E-15
5.151850E+03	1.532912E-14	1.724355E-15
5.155936E+03	1.548126E-14	1.735041E-15
