#wls	flux	fluxerr
1.600000E+03	1.890999E-15	1.404635E-15
1.640000E+03	1.936808E-15	1.417955E-15
1.680000E+03	1.986096E-15	1.432241E-15
1.720000E+03	2.039409E-15	1.447717E-15
1.760000E+03	2.096495E-15	1.464017E-15
1.800000E+03	2.158284E-15	1.481593E-15
1.840000E+03	2.224520E-15	1.500042E-15
1.880000E+03	2.295920E-15	1.519614E-15
1.920000E+03	2.372808E-15	1.540253E-15
1.960000E+03	2.455114E-15	1.561631E-15
2.000000E+03	2.543541E-15	1.583894E-15
2.040000E+03	2.638209E-15	1.606786E-15
2.080000E+03	2.739237E-15	1.630033E-15
2.120000E+03	2.846750E-15	1.653346E-15
2.160000E+03	2.960497E-15	1.676208E-15
2.200000E+03	3.079489E-15	1.697700E-15
2.240000E+03	3.202200E-15	1.716665E-15
2.280000E+03	3.327700E-15	1.732349E-15
2.320000E+03	3.456569E-15	1.744812E-15
2.360000E+03	3.591421E-15	1.755075E-15
2.400000E+03	3.734293E-15	1.763716E-15
2.440000E+03	3.887210E-15	1.771167E-15
2.480000E+03	4.051279E-15	1.777319E-15
2.520000E+03	4.227986E-15	1.782141E-15
2.560000E+03	4.418289E-15	1.785283E-15
2.600000E+03	4.623541E-15	1.786478E-15
2.640000E+03	4.844595E-15	1.785180E-15
2.680000E+03	5.082357E-15	1.780807E-15
2.720000E+03	5.337805E-15	1.772747E-15
2.760000E+03	5.611464E-15	1.760193E-15
2.800000E+03	5.903962E-15	1.742360E-15
2.840000E+03	6.215868E-15	1.718444E-15
2.880000E+03	6.548244E-15	1.687780E-15
2.920000E+03	6.903022E-15	1.649912E-15
2.960000E+03	7.283019E-15	1.604532E-15
3.000000E+03	7.692324E-15	1.551512E-15
3.010000E+03	7.799792E-15	1.537052E-15
3.020000E+03	7.909331E-15	1.522077E-15
3.030000E+03	8.021325E-15	1.506643E-15
3.040000E+03	8.135443E-15	1.490670E-15
3.050000E+03	8.252071E-15	1.474212E-15
3.060000E+03	8.371241E-15	1.457255E-15
3.070000E+03	8.493161E-15	1.439817E-15
3.080000E+03	8.617507E-15	1.421824E-15
3.090000E+03	8.744850E-15	1.403356E-15
3.100000E+03	8.874866E-15	1.384341E-15
3.110000E+03	9.007949E-15	1.364826E-15
3.120000E+03	9.144138E-15	1.344800E-15
3.130000E+03	9.283292E-15	1.324226E-15
3.140000E+03	9.425810E-15	1.303150E-15
3.150000E+03	9.571555E-15	1.281536E-15
3.160000E+03	9.720749E-15	1.259406E-15
3.170000E+03	9.873438E-15	1.236753E-15
3.180000E+03	1.002967E-14	1.213575E-15
3.190000E+03	1.018966E-14	1.189894E-15
3.200000E+03	1.035347E-14	1.165710E-15
3.210000E+03	1.052097E-14	1.141007E-15
3.220000E+03	1.069257E-14	1.115832E-15
3.230000E+03	1.086815E-14	1.090175E-15
3.240000E+03	1.104794E-14	1.064068E-15
3.250000E+03	1.123199E-14	1.037527E-15
3.260000E+03	1.142020E-14	1.010557E-15
3.270000E+03	1.161299E-14	9.832167E-16
3.280000E+03	1.181005E-14	9.555062E-16
3.290000E+03	1.201184E-14	9.274926E-16
3.300000E+03	1.221842E-14	8.992174E-16
3.310000E+03	1.242951E-14	8.707024E-16
3.320000E+03	1.264558E-14	8.420312E-16
3.330000E+03	1.286671E-14	8.132664E-16
3.340000E+03	1.309282E-14	7.844671E-16
3.350000E+03	1.332405E-14	7.557130E-16
3.360000E+03	1.356050E-14	7.270914E-16
3.370000E+03	1.380223E-14	6.986871E-16
3.380000E+03	1.404905E-14	6.705638E-16
3.390000E+03	1.430064E-14	6.427826E-16
3.400000E+03	1.455639E-14	6.153903E-16
3.410000E+03	1.481540E-14	5.884072E-16
3.420000E+03	1.507719E-14	5.618689E-16
3.430000E+03	1.534021E-14	5.357674E-16
3.440000E+03	1.560347E-14	5.100978E-16
3.450000E+03	1.586549E-14	4.848348E-16
3.460000E+03	1.612483E-14	4.599551E-16
3.470000E+03	1.637951E-14	4.354022E-16
3.480000E+03	1.662758E-14	4.111321E-16
3.490000E+03	1.686716E-14	3.871212E-16
3.500000E+03	1.709570E-14	3.633438E-16
3.510000E+03	1.731088E-14	3.398305E-16
3.520000E+03	1.750944E-14	3.166632E-16
3.530000E+03	1.768842E-14	2.940084E-16
3.540000E+03	1.784413E-14	2.721543E-16
3.550000E+03	1.797306E-14	2.515633E-16
3.560000E+03	1.807135E-14	2.328701E-16
3.570000E+03	1.813501E-14	2.169048E-16
3.580000E+03	1.816112E-14	2.046278E-16
3.590000E+03	1.814634E-14	1.968720E-16
3.600000E+03	1.808917E-14	1.939678E-16
3.610000E+03	1.799271E-14	1.952628E-16
3.620000E+03	1.786124E-14	1.994697E-16
3.630000E+03	1.770004E-14	2.052745E-16
3.640000E+03	1.751461E-14	2.115945E-16
3.650000E+03	1.730972E-14	2.176156E-16
3.660000E+03	1.709011E-14	2.228254E-16
3.670000E+03	1.686114E-14	2.269531E-16
3.680000E+03	1.662985E-14	2.298613E-16
3.690000E+03	1.640374E-14	2.315531E-16
3.700000E+03	1.619069E-14	2.321451E-16
3.710000E+03	1.600067E-14	2.318266E-16
3.720000E+03	1.584330E-14	2.308402E-16
3.730000E+03	1.572890E-14	2.294846E-16
3.740000E+03	1.566822E-14	2.280704E-16
3.750000E+03	1.567250E-14	2.269349E-16
3.760000E+03	1.575337E-14	2.264184E-16
3.770000E+03	1.592166E-14	2.267907E-16
3.780000E+03	1.618956E-14	2.283390E-16
3.790000E+03	1.656905E-14	2.313412E-16
3.800000E+03	1.706882E-14	2.359513E-16
3.810000E+03	1.769792E-14	2.423384E-16
3.820000E+03	1.846487E-14	2.506858E-16
3.830000E+03	1.937365E-14	2.610562E-16
3.840000E+03	2.042619E-14	2.735170E-16
3.850000E+03	2.162234E-14	2.881561E-16
3.860000E+03	2.295537E-14	3.049277E-16
3.870000E+03	2.441376E-14	3.237649E-16
3.880000E+03	2.598006E-14	3.445695E-16
3.890000E+03	2.763087E-14	3.670925E-16
3.900000E+03	2.933590E-14	3.910089E-16
3.910000E+03	3.105831E-14	4.159317E-16
3.920000E+03	3.275851E-14	4.413511E-16
3.930000E+03	3.439377E-14	4.667049E-16
3.940000E+03	3.591959E-14	4.913910E-16
3.950000E+03	3.729543E-14	5.147282E-16
3.960000E+03	3.848513E-14	5.360508E-16
3.970000E+03	3.945815E-14	5.547528E-16
3.980000E+03	4.019393E-14	5.702901E-16
3.990000E+03	4.068108E-14	5.822673E-16
4.000000E+03	4.091770E-14	5.904748E-16
4.010000E+03	4.091216E-14	5.948487E-16
4.020000E+03	4.068183E-14	5.955421E-16
4.030000E+03	4.025085E-14	5.928939E-16
4.040000E+03	3.964951E-14	5.873382E-16
4.050000E+03	3.891088E-14	5.794055E-16
4.060000E+03	3.806898E-14	5.696723E-16
4.070000E+03	3.715791E-14	5.586644E-16
4.080000E+03	3.620936E-14	5.468716E-16
4.090000E+03	3.525199E-14	5.347315E-16
4.100000E+03	3.431014E-14	5.225556E-16
4.110000E+03	3.340437E-14	5.106022E-16
4.120000E+03	3.255086E-14	4.990728E-16
4.130000E+03	3.176139E-14	4.880676E-16
4.140000E+03	3.104463E-14	4.776626E-16
4.150000E+03	3.040595E-14	4.679060E-16
4.160000E+03	2.984769E-14	4.587700E-16
4.170000E+03	2.936956E-14	4.502085E-16
4.180000E+03	2.896996E-14	4.421733E-16
4.190000E+03	2.864484E-14	4.345442E-16
4.200000E+03	2.838951E-14	4.272026E-16
4.210000E+03	2.819756E-14	4.200095E-16
4.220000E+03	2.806181E-14	4.127682E-16
4.230000E+03	2.797355E-14	4.052638E-16
4.240000E+03	2.792418E-14	3.972883E-16
4.250000E+03	2.790336E-14	3.885687E-16
4.260000E+03	2.790100E-14	3.788537E-16
4.270000E+03	2.790557E-14	3.678982E-16
4.280000E+03	2.790515E-14	3.554352E-16
4.290000E+03	2.788820E-14	3.412556E-16
4.300000E+03	2.784212E-14	3.252070E-16
4.310000E+03	2.775576E-14	3.071895E-16
4.320000E+03	2.761764E-14	2.872358E-16
4.330000E+03	2.741872E-14	2.655924E-16
4.340000E+03	2.715142E-14	2.427110E-16
4.350000E+03	2.681057E-14	2.194044E-16
4.360000E+03	2.639424E-14	1.969377E-16
4.370000E+03	2.590363E-14	1.770049E-16
4.380000E+03	2.534454E-14	1.616860E-16
4.390000E+03	2.472877E-14	1.527354E-16
4.400000E+03	2.409067E-14	1.498374E-16
4.410000E+03	2.348320E-14	1.510554E-16
4.420000E+03	2.295553E-14	1.546912E-16
4.430000E+03	2.254375E-14	1.597338E-16
4.440000E+03	2.227764E-14	1.660229E-16
4.450000E+03	2.217808E-14	1.738462E-16
4.460000E+03	2.224719E-14	1.832410E-16
4.470000E+03	2.248054E-14	1.943329E-16
4.480000E+03	2.287171E-14	2.073526E-16
4.490000E+03	2.340868E-14	2.222876E-16
4.500000E+03	2.407651E-14	2.390903E-16
4.510000E+03	2.485787E-14	2.577239E-16
4.520000E+03	2.573354E-14	2.780291E-16
4.530000E+03	2.668080E-14	2.997834E-16
4.540000E+03	2.767471E-14	3.227201E-16
4.550000E+03	2.868885E-14	3.464560E-16
4.560000E+03	2.969462E-14	3.705356E-16
4.570000E+03	3.066327E-14	3.944665E-16
4.580000E+03	3.156625E-14	4.176812E-16
4.590000E+03	3.237703E-14	4.396108E-16
4.600000E+03	3.307114E-14	4.597074E-16
4.610000E+03	3.362932E-14	4.774722E-16
4.620000E+03	3.403646E-14	4.925032E-16
4.630000E+03	3.428230E-14	5.045393E-16
4.640000E+03	3.436304E-14	5.134777E-16
4.650000E+03	3.428035E-14	5.193967E-16
4.660000E+03	3.404076E-14	5.225412E-16
4.670000E+03	3.365545E-14	5.232717E-16
4.680000E+03	3.314084E-14	5.220581E-16
4.690000E+03	3.251597E-14	5.193977E-16
4.700000E+03	3.180162E-14	5.157511E-16
4.710000E+03	3.102033E-14	5.115378E-16
4.720000E+03	3.019470E-14	5.071053E-16
4.730000E+03	2.934556E-14	5.026959E-16
4.740000E+03	2.849281E-14	4.984926E-16
4.750000E+03	2.765336E-14	4.946069E-16
4.760000E+03	2.684177E-14	4.910998E-16
4.770000E+03	2.606932E-14	4.879920E-16
4.780000E+03	2.534418E-14	4.852735E-16
4.790000E+03	2.467212E-14	4.829133E-16
4.800000E+03	2.405612E-14	4.808588E-16
4.810000E+03	2.349765E-14	4.790572E-16
4.820000E+03	2.299601E-14	4.774296E-16
4.830000E+03	2.254950E-14	4.758942E-16
4.840000E+03	2.215541E-14	4.743629E-16
4.850000E+03	2.181047E-14	4.727388E-16
4.860000E+03	2.151045E-14	4.709164E-16
4.870000E+03	2.125104E-14	4.688021E-16
4.880000E+03	2.102752E-14	4.663049E-16
4.890000E+03	2.083577E-14	4.633689E-16
4.900000E+03	2.067114E-14	4.599521E-16
4.910000E+03	2.052940E-14	4.560419E-16
4.920000E+03	2.040642E-14	4.516540E-16
4.930000E+03	2.029890E-14	4.468443E-16
4.940000E+03	2.020374E-14	4.416832E-16
4.950000E+03	2.011873E-14	4.362656E-16
4.960000E+03	2.004264E-14	4.307022E-16
4.970000E+03	1.997479E-14	4.250948E-16
4.980000E+03	1.991555E-14	4.195439E-16
4.990000E+03	1.986583E-14	4.141352E-16
5.000000E+03	1.982758E-14	4.089429E-16
5.010000E+03	1.980301E-14	4.040201E-16
5.020000E+03	1.979436E-14	3.993996E-16
5.030000E+03	1.980416E-14	3.951015E-16
5.040000E+03	1.983488E-14	3.911410E-16
5.050000E+03	1.988864E-14	3.875325E-16
5.060000E+03	1.996777E-14	3.843035E-16
5.070000E+03	2.007418E-14	3.814909E-16
5.080000E+03	2.020919E-14	3.791374E-16
5.090000E+03	2.037448E-14	3.773029E-16
5.100000E+03	2.057138E-14	3.760486E-16
5.110000E+03	2.080084E-14	3.754310E-16
5.120000E+03	2.106380E-14	3.755000E-16
5.130000E+03	2.136096E-14	3.762945E-16
5.140000E+03	2.169268E-14	3.778376E-16
5.150000E+03	2.205855E-14	3.801230E-16
5.160000E+03	2.245790E-14	3.831233E-16
5.170000E+03	2.288846E-14	3.867637E-16
5.180000E+03	2.334748E-14	3.909344E-16
5.190000E+03	2.383051E-14	3.954770E-16
5.200000E+03	2.433202E-14	4.002015E-16
5.210000E+03	2.484522E-14	4.048876E-16
5.220000E+03	2.536221E-14	4.093044E-16
5.230000E+03	2.587367E-14	4.132191E-16
5.240000E+03	2.637071E-14	4.164300E-16
5.250000E+03	2.684342E-14	4.187559E-16
5.260000E+03	2.728226E-14	4.200574E-16
5.270000E+03	2.767802E-14	4.202222E-16
5.280000E+03	2.802271E-14	4.191717E-16
5.290000E+03	2.830972E-14	4.168479E-16
5.300000E+03	2.853411E-14	4.131994E-16
5.310000E+03	2.869278E-14	4.081866E-16
5.320000E+03	2.878423E-14	4.017787E-16
5.330000E+03	2.880971E-14	3.939624E-16
5.340000E+03	2.877104E-14	3.847177E-16
5.350000E+03	2.867210E-14	3.740338E-16
5.360000E+03	2.851866E-14	3.618916E-16
5.370000E+03	2.831639E-14	3.482496E-16
5.380000E+03	2.807280E-14	3.330745E-16
5.390000E+03	2.779526E-14	3.163116E-16
5.400000E+03	2.749211E-14	2.979261E-16
5.410000E+03	2.717161E-14	2.779043E-16
5.420000E+03	2.684343E-14	2.562727E-16
5.430000E+03	2.651695E-14	2.331299E-16
5.440000E+03	2.620279E-14	2.087125E-16
5.450000E+03	2.591184E-14	1.834664E-16
5.460000E+03	2.565643E-14	1.582924E-16
5.470000E+03	2.544910E-14	1.349445E-16
5.480000E+03	2.530351E-14	1.166525E-16
5.490000E+03	2.523220E-14	1.082563E-16
5.500000E+03	2.523489E-14	1.126182E-16
5.510000E+03	2.528978E-14	1.265524E-16
5.520000E+03	2.536849E-14	1.455237E-16
5.530000E+03	2.544485E-14	1.665853E-16
5.540000E+03	2.550344E-14	1.878616E-16
5.550000E+03	2.553306E-14	2.082692E-16
5.560000E+03	2.552668E-14	2.272540E-16
5.570000E+03	2.547957E-14	2.444784E-16
5.580000E+03	2.538936E-14	2.597729E-16
5.590000E+03	2.525582E-14	2.730964E-16
5.600000E+03	2.508048E-14	2.844726E-16
5.610000E+03	2.486605E-14	2.939923E-16
5.620000E+03	2.461715E-14	3.018127E-16
5.630000E+03	2.433850E-14	3.081023E-16
5.640000E+03	2.403663E-14	3.130667E-16
5.650000E+03	2.371767E-14	3.169127E-16
5.660000E+03	2.338909E-14	3.198518E-16
5.670000E+03	2.305801E-14	3.220847E-16
5.680000E+03	2.273111E-14	3.237993E-16
5.690000E+03	2.241509E-14	3.251687E-16
5.700000E+03	2.211577E-14	3.263463E-16
5.710000E+03	2.183833E-14	3.274706E-16
5.720000E+03	2.158670E-14	3.286505E-16
5.730000E+03	2.136352E-14	3.299711E-16
5.740000E+03	2.117100E-14	3.315071E-16
5.750000E+03	2.100978E-14	3.333004E-16
5.760000E+03	2.087931E-14	3.353667E-16
5.770000E+03	2.077852E-14	3.377075E-16
5.780000E+03	2.070558E-14	3.402996E-16
5.790000E+03	2.065779E-14	3.431010E-16
5.800000E+03	2.063176E-14	3.460566E-16
5.810000E+03	2.062423E-14	3.491121E-16
5.820000E+03	2.063176E-14	3.522153E-16
5.830000E+03	2.065062E-14	3.553150E-16
5.840000E+03	2.067690E-14	3.583566E-16
5.850000E+03	2.070726E-14	3.612925E-16
5.860000E+03	2.073834E-14	3.640637E-16
5.870000E+03	2.076726E-14	3.665969E-16
5.880000E+03	2.079131E-14	3.687932E-16
5.890000E+03	2.080791E-14	3.705258E-16
5.900000E+03	2.081543E-14	3.716536E-16
5.910000E+03	2.081220E-14	3.720193E-16
5.920000E+03	2.079789E-14	3.714903E-16
5.930000E+03	2.077114E-14	3.699326E-16
5.940000E+03	2.073179E-14	3.672699E-16
5.950000E+03	2.067991E-14	3.634770E-16
5.960000E+03	2.061523E-14	3.585735E-16
5.970000E+03	2.053781E-14	3.526356E-16
5.980000E+03	2.044798E-14	3.457881E-16
5.990000E+03	2.034560E-14	3.381806E-16
6.000000E+03	2.023098E-14	3.299953E-16
6.010000E+03	2.010373E-14	3.214184E-16
6.020000E+03	1.996440E-14	3.126557E-16
6.030000E+03	1.981260E-14	3.038959E-16
6.040000E+03	1.964888E-14	2.953194E-16
6.050000E+03	1.947246E-14	2.870327E-16
6.060000E+03	1.928379E-14	2.791280E-16
6.070000E+03	1.908270E-14	2.716540E-16
6.080000E+03	1.886935E-14	2.646057E-16
6.090000E+03	1.864368E-14	2.579480E-16
6.100000E+03	1.840698E-14	2.516433E-16
6.110000E+03	1.815994E-14	2.456106E-16
6.120000E+03	1.790496E-14	2.397939E-16
6.130000E+03	1.764407E-14	2.341444E-16
6.140000E+03	1.738083E-14	2.286290E-16
6.150000E+03	1.711923E-14	2.232456E-16
6.160000E+03	1.686409E-14	2.180265E-16
6.170000E+03	1.662012E-14	2.129977E-16
6.180000E+03	1.639292E-14	2.082114E-16
6.190000E+03	1.618780E-14	2.037230E-16
6.200000E+03	1.600996E-14	1.995609E-16
6.210000E+03	1.586409E-14	1.957455E-16
6.220000E+03	1.575452E-14	1.922888E-16
6.230000E+03	1.568465E-14	1.891609E-16
6.240000E+03	1.565648E-14	1.863174E-16
6.250000E+03	1.567125E-14	1.837103E-16
6.260000E+03	1.572874E-14	1.812550E-16
6.270000E+03	1.582754E-14	1.788693E-16
6.280000E+03	1.596539E-14	1.764831E-16
6.290000E+03	1.613851E-14	1.740037E-16
6.300000E+03	1.634205E-14	1.713644E-16
6.310000E+03	1.657039E-14	1.685379E-16
6.320000E+03	1.681636E-14	1.655031E-16
6.330000E+03	1.707233E-14	1.623142E-16
6.340000E+03	1.732928E-14	1.591031E-16
6.350000E+03	1.757825E-14	1.560478E-16
6.360000E+03	1.780982E-14	1.534130E-16
6.370000E+03	1.801513E-14	1.514812E-16
6.380000E+03	1.818580E-14	1.503520E-16
6.390000E+03	1.831489E-14	1.500464E-16
6.400000E+03	1.839723E-14	1.504384E-16
6.410000E+03	1.843084E-14	1.510435E-16
6.420000E+03	1.841649E-14	1.512997E-16
6.430000E+03	1.835731E-14	1.507247E-16
6.440000E+03	1.825911E-14	1.489040E-16
6.450000E+03	1.812927E-14	1.455802E-16
6.460000E+03	1.797671E-14	1.406653E-16
6.470000E+03	1.781214E-14	1.341862E-16
6.480000E+03	1.764655E-14	1.263701E-16
6.490000E+03	1.749115E-14	1.176978E-16
6.500000E+03	1.735942E-14	1.089381E-16
6.510000E+03	1.726396E-14	1.012992E-16
6.520000E+03	1.721614E-14	9.639546E-17
6.530000E+03	1.722586E-14	9.564189E-17
6.540000E+03	1.729311E-14	9.923479E-17
6.550000E+03	1.740694E-14	1.059297E-16
6.560000E+03	1.755373E-14	1.139910E-16
6.570000E+03	1.771909E-14	1.220341E-16
6.580000E+03	1.788746E-14	1.291147E-16
6.590000E+03	1.804829E-14	1.345230E-16
6.600000E+03	1.819194E-14	1.378405E-16
6.610000E+03	1.830937E-14	1.389107E-16
6.620000E+03	1.839555E-14	1.377157E-16
6.630000E+03	1.844578E-14	1.344723E-16
6.640000E+03	1.845815E-14	1.296208E-16
6.650000E+03	1.843222E-14	1.236259E-16
6.660000E+03	1.836987E-14	1.171736E-16
6.670000E+03	1.827367E-14	1.109863E-16
6.680000E+03	1.814735E-14	1.053116E-16
6.690000E+03	1.799542E-14	1.004778E-16
6.700000E+03	1.782231E-14	9.688169E-17
6.710000E+03	1.763091E-14	9.441348E-17
6.720000E+03	1.742380E-14	9.315591E-17
6.730000E+03	1.720344E-14	9.334922E-17
6.740000E+03	1.697272E-14	9.468682E-17
6.750000E+03	1.673434E-14	9.701148E-17
6.760000E+03	1.649086E-14	1.003286E-16
6.770000E+03	1.624483E-14	1.042057E-16
6.780000E+03	1.599919E-14	1.083257E-16
6.790000E+03	1.575627E-14	1.125998E-16
6.800000E+03	1.551814E-14	1.168799E-16
6.810000E+03	1.528710E-14	1.211373E-16
6.820000E+03	1.506460E-14	1.253814E-16
6.830000E+03	1.485237E-14	1.293914E-16
6.840000E+03	1.465183E-14	1.329563E-16
6.850000E+03	1.446409E-14	1.359516E-16
6.860000E+03	1.429026E-14	1.382604E-16
6.870000E+03	1.413040E-14	1.398407E-16
6.880000E+03	1.398504E-14	1.407574E-16
6.890000E+03	1.385416E-14	1.411328E-16
6.900000E+03	1.373722E-14	1.411565E-16
6.910000E+03	1.363391E-14	1.410443E-16
6.920000E+03	1.354351E-14	1.409287E-16
6.930000E+03	1.346481E-14	1.409381E-16
6.940000E+03	1.339673E-14	1.411942E-16
6.950000E+03	1.333860E-14	1.417187E-16
6.960000E+03	1.328920E-14	1.425216E-16
6.970000E+03	1.324749E-14	1.436214E-16
6.980000E+03	1.321265E-14	1.449715E-16
6.990000E+03	1.318383E-14	1.465388E-16
7.000000E+03	1.315997E-14	1.483069E-16
7.010000E+03	1.314093E-14	1.502225E-16
7.020000E+03	1.312562E-14	1.522412E-16
7.030000E+03	1.311377E-14	1.543513E-16
7.040000E+03	1.310487E-14	1.565020E-16
7.050000E+03	1.309875E-14	1.586665E-16
7.060000E+03	1.309555E-14	1.608432E-16
7.070000E+03	1.309516E-14	1.629940E-16
7.080000E+03	1.309747E-14	1.650996E-16
7.090000E+03	1.310319E-14	1.671721E-16
7.100000E+03	1.311221E-14	1.691919E-16
7.110000E+03	1.312437E-14	1.711572E-16
7.120000E+03	1.313996E-14	1.730895E-16
7.130000E+03	1.315860E-14	1.749765E-16
7.140000E+03	1.318029E-14	1.768251E-16
7.150000E+03	1.320442E-14	1.786446E-16
7.160000E+03	1.323072E-14	1.804171E-16
7.170000E+03	1.325801E-14	1.821217E-16
7.180000E+03	1.328581E-14	1.837604E-16
7.190000E+03	1.331366E-14	1.853109E-16
7.200000E+03	1.334017E-14	1.867521E-16
7.210000E+03	1.336449E-14	1.880845E-16
7.220000E+03	1.338602E-14	1.892925E-16
7.230000E+03	1.340388E-14	1.903700E-16
7.240000E+03	1.341685E-14	1.913191E-16
7.250000E+03	1.342430E-14	1.921274E-16
7.260000E+03	1.342498E-14	1.927849E-16
7.270000E+03	1.341789E-14	1.932946E-16
7.280000E+03	1.340228E-14	1.936360E-16
7.290000E+03	1.337681E-14	1.937896E-16
7.300000E+03	1.334069E-14	1.937543E-16
7.310000E+03	1.329251E-14	1.934960E-16
7.320000E+03	1.323121E-14	1.929972E-16
7.330000E+03	1.315635E-14	1.922622E-16
7.340000E+03	1.306643E-14	1.912592E-16
7.350000E+03	1.296128E-14	1.899882E-16
7.360000E+03	1.284001E-14	1.884523E-16
7.370000E+03	1.270261E-14	1.866477E-16
7.380000E+03	1.254931E-14	1.845866E-16
7.390000E+03	1.238006E-14	1.822891E-16
7.400000E+03	1.219611E-14	1.797747E-16
7.410000E+03	1.199848E-14	1.770705E-16
7.420000E+03	1.178880E-14	1.742228E-16
7.430000E+03	1.156893E-14	1.712617E-16
7.440000E+03	1.134104E-14	1.682308E-16
7.450000E+03	1.110783E-14	1.651889E-16
7.460000E+03	1.087166E-14	1.621684E-16
7.470000E+03	1.063557E-14	1.592179E-16
7.480000E+03	1.040244E-14	1.563875E-16
7.490000E+03	1.017580E-14	1.537140E-16
7.500000E+03	9.958648E-15	1.512291E-16
7.510000E+03	9.753777E-15	1.489650E-16
7.520000E+03	9.564025E-15	1.469338E-16
7.530000E+03	9.391951E-15	1.451459E-16
7.540000E+03	9.239540E-15	1.436045E-16
7.550000E+03	9.108731E-15	1.422928E-16
7.560000E+03	9.000459E-15	1.411795E-16
7.570000E+03	8.916079E-15	1.402393E-16
7.580000E+03	8.855515E-15	1.394009E-16
7.590000E+03	8.818531E-15	1.385938E-16
7.600000E+03	8.804487E-15	1.377582E-16
7.610000E+03	8.812979E-15	1.368555E-16
7.620000E+03	8.843240E-15	1.358626E-16
7.630000E+03	8.894372E-15	1.347758E-16
7.640000E+03	8.965112E-15	1.336061E-16
7.650000E+03	9.054510E-15	1.323910E-16
7.660000E+03	9.161063E-15	1.311725E-16
7.670000E+03	9.283833E-15	1.299914E-16
7.680000E+03	9.420612E-15	1.288795E-16
7.690000E+03	9.570476E-15	1.278889E-16
7.700000E+03	9.731494E-15	1.270260E-16
7.710000E+03	9.901588E-15	1.262956E-16
7.720000E+03	1.007899E-14	1.257064E-16
7.730000E+03	1.026148E-14	1.252241E-16
7.740000E+03	1.044661E-14	1.248138E-16
7.750000E+03	1.063178E-14	1.244416E-16
7.760000E+03	1.081442E-14	1.240368E-16
