#wls	flux	fluxerr
1.600000E+03	1.081096E-15	7.994325E-16
1.640000E+03	1.099967E-15	8.016522E-16
1.680000E+03	1.119889E-15	8.039184E-16
1.720000E+03	1.140843E-15	8.061651E-16
1.760000E+03	1.163094E-15	8.085201E-16
1.800000E+03	1.186618E-15	8.109018E-16
1.840000E+03	1.211528E-15	8.133197E-16
1.880000E+03	1.237934E-15	8.157733E-16
1.920000E+03	1.265799E-15	8.181593E-16
1.960000E+03	1.295644E-15	8.207290E-16
2.000000E+03	1.327135E-15	8.231729E-16
2.040000E+03	1.360919E-15	8.257924E-16
2.080000E+03	1.397065E-15	8.285095E-16
2.120000E+03	1.435912E-15	8.313955E-16
2.160000E+03	1.477925E-15	8.345700E-16
2.200000E+03	1.523686E-15	8.381887E-16
2.240000E+03	1.573752E-15	8.423556E-16
2.280000E+03	1.628650E-15	8.471211E-16
2.320000E+03	1.689006E-15	8.525507E-16
2.360000E+03	1.754709E-15	8.583055E-16
2.400000E+03	1.826019E-15	8.642260E-16
2.440000E+03	1.902456E-15	8.697952E-16
2.480000E+03	1.984041E-15	8.747459E-16
2.520000E+03	2.070594E-15	8.787261E-16
2.560000E+03	2.161871E-15	8.813713E-16
2.600000E+03	2.257689E-15	8.823621E-16
2.640000E+03	2.357521E-15	8.812699E-16
2.680000E+03	2.461289E-15	8.778710E-16
2.720000E+03	2.568168E-15	8.717071E-16
2.760000E+03	2.677774E-15	8.625336E-16
2.800000E+03	2.789507E-15	8.500846E-16
2.840000E+03	2.902560E-15	8.340989E-16
2.880000E+03	3.016674E-15	8.145429E-16
2.920000E+03	3.131736E-15	7.914655E-16
2.960000E+03	3.248010E-15	7.650405E-16
3.000000E+03	3.365990E-15	7.355056E-16
3.010000E+03	3.395946E-15	7.276929E-16
3.020000E+03	3.425937E-15	7.196803E-16
3.030000E+03	3.456054E-15	7.114896E-16
3.040000E+03	3.486495E-15	7.031634E-16
3.050000E+03	3.517124E-15	6.946749E-16
3.060000E+03	3.547915E-15	6.860213E-16
3.070000E+03	3.579062E-15	6.772417E-16
3.080000E+03	3.610322E-15	6.682913E-16
3.090000E+03	3.641995E-15	6.592274E-16
3.100000E+03	3.673945E-15	6.500260E-16
3.110000E+03	3.706147E-15	6.406843E-16
3.120000E+03	3.738785E-15	6.312354E-16
3.130000E+03	3.771728E-15	6.216574E-16
3.140000E+03	3.805156E-15	6.119809E-16
3.150000E+03	3.838938E-15	6.021848E-16
3.160000E+03	3.873047E-15	5.922663E-16
3.170000E+03	3.907762E-15	5.822684E-16
3.180000E+03	3.942851E-15	5.721559E-16
3.190000E+03	3.978487E-15	5.619542E-16
3.200000E+03	4.014639E-15	5.516587E-16
3.210000E+03	4.051280E-15	5.412649E-16
3.220000E+03	4.088477E-15	5.307819E-16
3.230000E+03	4.126202E-15	5.202050E-16
3.240000E+03	4.164615E-15	5.095534E-16
3.250000E+03	4.203493E-15	4.987984E-16
3.260000E+03	4.242996E-15	4.879583E-16
3.270000E+03	4.283089E-15	4.770278E-16
3.280000E+03	4.323833E-15	4.660117E-16
3.290000E+03	4.365099E-15	4.548946E-16
3.300000E+03	4.406944E-15	4.436814E-16
3.310000E+03	4.449332E-15	4.323667E-16
3.320000E+03	4.492312E-15	4.209541E-16
3.330000E+03	4.535845E-15	4.094379E-16
3.340000E+03	4.579800E-15	3.978052E-16
3.350000E+03	4.624221E-15	3.860596E-16
3.360000E+03	4.668977E-15	3.741899E-16
3.370000E+03	4.714108E-15	3.622002E-16
3.380000E+03	4.759480E-15	3.500815E-16
3.390000E+03	4.805043E-15	3.378335E-16
3.400000E+03	4.850664E-15	3.254514E-16
3.410000E+03	4.896295E-15	3.129391E-16
3.420000E+03	4.941801E-15	3.002980E-16
3.430000E+03	4.987137E-15	2.875383E-16
3.440000E+03	5.032014E-15	2.746617E-16
3.450000E+03	5.076475E-15	2.616945E-16
3.460000E+03	5.120324E-15	2.486578E-16
3.470000E+03	5.163381E-15	2.355835E-16
3.480000E+03	5.205632E-15	2.225240E-16
3.490000E+03	5.246846E-15	2.095373E-16
3.500000E+03	5.286891E-15	1.967068E-16
3.510000E+03	5.325807E-15	1.841481E-16
3.520000E+03	5.363362E-15	1.719995E-16
3.530000E+03	5.399652E-15	1.604517E-16
3.540000E+03	5.434518E-15	1.497363E-16
3.550000E+03	5.468131E-15	1.401486E-16
3.560000E+03	5.500417E-15	1.320278E-16
3.570000E+03	5.531565E-15	1.257495E-16
3.580000E+03	5.561739E-15	1.216700E-16
3.590000E+03	5.591213E-15	1.200547E-16
3.600000E+03	5.620221E-15	1.209895E-16
3.610000E+03	5.648941E-15	1.243353E-16
3.620000E+03	5.677777E-15	1.297789E-16
3.630000E+03	5.706894E-15	1.369173E-16
3.640000E+03	5.736691E-15	1.453489E-16
3.650000E+03	5.767468E-15	1.547142E-16
3.660000E+03	5.799746E-15	1.647236E-16
3.670000E+03	5.833870E-15	1.751471E-16
3.680000E+03	5.870324E-15	1.858162E-16
3.690000E+03	5.909658E-15	1.966118E-16
3.700000E+03	5.952287E-15	2.074480E-16
3.710000E+03	5.998799E-15	2.182748E-16
3.720000E+03	6.049570E-15	2.290574E-16
3.730000E+03	6.105133E-15	2.397841E-16
3.740000E+03	6.165917E-15	2.504534E-16
3.750000E+03	6.232240E-15	2.610690E-16
3.760000E+03	6.304492E-15	2.716451E-16
3.770000E+03	6.382936E-15	2.821963E-16
3.780000E+03	6.467829E-15	2.927404E-16
3.790000E+03	6.559289E-15	3.032914E-16
3.800000E+03	6.657414E-15	3.138640E-16
3.810000E+03	6.762085E-15	3.244625E-16
3.820000E+03	6.873348E-15	3.350991E-16
3.830000E+03	6.990827E-15	3.457645E-16
3.840000E+03	7.114373E-15	3.564593E-16
3.850000E+03	7.243471E-15	3.671639E-16
3.860000E+03	7.377706E-15	3.778622E-16
3.870000E+03	7.516361E-15	3.885202E-16
3.880000E+03	7.658833E-15	3.991078E-16
3.890000E+03	7.804298E-15	4.095810E-16
3.900000E+03	7.951852E-15	4.198896E-16
3.910000E+03	8.100680E-15	4.299857E-16
3.920000E+03	8.249775E-15	4.398095E-16
3.930000E+03	8.398102E-15	4.492977E-16
3.940000E+03	8.544692E-15	4.583886E-16
3.950000E+03	8.688593E-15	4.670200E-16
3.960000E+03	8.828806E-15	4.751258E-16
3.970000E+03	8.964385E-15	4.826418E-16
3.980000E+03	9.094456E-15	4.895063E-16
3.990000E+03	9.218396E-15	4.956707E-16
4.000000E+03	9.335526E-15	5.010827E-16
4.010000E+03	9.445282E-15	5.056959E-16
4.020000E+03	9.547224E-15	5.094701E-16
4.030000E+03	9.641037E-15	5.123721E-16
4.040000E+03	9.726702E-15	5.143841E-16
4.050000E+03	9.803990E-15	5.154774E-16
4.060000E+03	9.873207E-15	5.156519E-16
4.070000E+03	9.934260E-15	5.148864E-16
4.080000E+03	9.987658E-15	5.131916E-16
4.090000E+03	1.003365E-14	5.105646E-16
4.100000E+03	1.007262E-14	5.070106E-16
4.110000E+03	1.010503E-14	5.025371E-16
4.120000E+03	1.013133E-14	4.971537E-16
4.130000E+03	1.015210E-14	4.908749E-16
4.140000E+03	1.016781E-14	4.837115E-16
4.150000E+03	1.017885E-14	4.756701E-16
4.160000E+03	1.018566E-14	4.667610E-16
4.170000E+03	1.018872E-14	4.569983E-16
4.180000E+03	1.018840E-14	4.463914E-16
4.190000E+03	1.018500E-14	4.349501E-16
4.200000E+03	1.017871E-14	4.226812E-16
4.210000E+03	1.016973E-14	4.095974E-16
4.220000E+03	1.015833E-14	3.957177E-16
4.230000E+03	1.014462E-14	3.810621E-16
4.240000E+03	1.012853E-14	3.656511E-16
4.250000E+03	1.011038E-14	3.495301E-16
4.260000E+03	1.008999E-14	3.327384E-16
4.270000E+03	1.006749E-14	3.153436E-16
4.280000E+03	1.004305E-14	2.974339E-16
4.290000E+03	1.001662E-14	2.791180E-16
4.300000E+03	9.988422E-15	2.605494E-16
4.310000E+03	9.958612E-15	2.419267E-16
4.320000E+03	9.927490E-15	2.235180E-16
4.330000E+03	9.895450E-15	2.056828E-16
4.340000E+03	9.862824E-15	1.888969E-16
4.350000E+03	9.830128E-15	1.737884E-16
4.360000E+03	9.798060E-15	1.611480E-16
4.370000E+03	9.767545E-15	1.518833E-16
4.380000E+03	9.739354E-15	1.468557E-16
4.390000E+03	9.714242E-15	1.466026E-16
4.400000E+03	9.692817E-15	1.510695E-16
4.410000E+03	9.675202E-15	1.596277E-16
4.420000E+03	9.661644E-15	1.713752E-16
4.430000E+03	9.652186E-15	1.854093E-16
4.440000E+03	9.646856E-15	2.009729E-16
4.450000E+03	9.645844E-15	2.174910E-16
4.460000E+03	9.649081E-15	2.345418E-16
4.470000E+03	9.656714E-15	2.518319E-16
4.480000E+03	9.668603E-15	2.691522E-16
4.490000E+03	9.684715E-15	2.863609E-16
4.500000E+03	9.705034E-15	3.033636E-16
4.510000E+03	9.729221E-15	3.200884E-16
4.520000E+03	9.757108E-15	3.364915E-16
4.530000E+03	9.788201E-15	3.525336E-16
4.540000E+03	9.822102E-15	3.681887E-16
4.550000E+03	9.858344E-15	3.834356E-16
4.560000E+03	9.896407E-15	3.982551E-16
4.570000E+03	9.935643E-15	4.126254E-16
4.580000E+03	9.975455E-15	4.265278E-16
4.590000E+03	1.001514E-14	4.399392E-16
4.600000E+03	1.005410E-14	4.528399E-16
4.610000E+03	1.009180E-14	4.652142E-16
4.620000E+03	1.012759E-14	4.770388E-16
4.630000E+03	1.016085E-14	4.882915E-16
4.640000E+03	1.019119E-14	4.989599E-16
4.650000E+03	1.021810E-14	5.090258E-16
4.660000E+03	1.024133E-14	5.184830E-16
4.670000E+03	1.026044E-14	5.273150E-16
4.680000E+03	1.027533E-14	5.355233E-16
4.690000E+03	1.028581E-14	5.431045E-16
4.700000E+03	1.029179E-14	5.500595E-16
4.710000E+03	1.029304E-14	5.563839E-16
4.720000E+03	1.028982E-14	5.620971E-16
4.730000E+03	1.028206E-14	5.672031E-16
4.740000E+03	1.026988E-14	5.717149E-16
4.750000E+03	1.025335E-14	5.756436E-16
4.760000E+03	1.023296E-14	5.790243E-16
4.770000E+03	1.020871E-14	5.818640E-16
4.780000E+03	1.018107E-14	5.841980E-16
4.790000E+03	1.015037E-14	5.860530E-16
4.800000E+03	1.011706E-14	5.874625E-16
4.810000E+03	1.008149E-14	5.884557E-16
4.820000E+03	1.004413E-14	5.890676E-16
4.830000E+03	1.000543E-14	5.893335E-16
4.840000E+03	9.965759E-15	5.892827E-16
4.850000E+03	9.925646E-15	5.889550E-16
4.860000E+03	9.885610E-15	5.883894E-16
4.870000E+03	9.845884E-15	5.876073E-16
4.880000E+03	9.806952E-15	5.866452E-16
4.890000E+03	9.769279E-15	5.855382E-16
4.900000E+03	9.733130E-15	5.843087E-16
4.910000E+03	9.698840E-15	5.829832E-16
4.920000E+03	9.666903E-15	5.815970E-16
4.930000E+03	9.637523E-15	5.801673E-16
4.940000E+03	9.610887E-15	5.787096E-16
4.950000E+03	9.587522E-15	5.772589E-16
4.960000E+03	9.567489E-15	5.758212E-16
4.970000E+03	9.551101E-15	5.744168E-16
4.980000E+03	9.538565E-15	5.730584E-16
4.990000E+03	9.530074E-15	5.717564E-16
5.000000E+03	9.525894E-15	5.705246E-16
5.010000E+03	9.526095E-15	5.693634E-16
5.020000E+03	9.530914E-15	5.682817E-16
5.030000E+03	9.540388E-15	5.672749E-16
5.040000E+03	9.554721E-15	5.663465E-16
5.050000E+03	9.574008E-15	5.654919E-16
5.060000E+03	9.598234E-15	5.646980E-16
5.070000E+03	9.627548E-15	5.639593E-16
5.080000E+03	9.662078E-15	5.632671E-16
5.090000E+03	9.701656E-15	5.625933E-16
5.100000E+03	9.746366E-15	5.619222E-16
5.110000E+03	9.796178E-15	5.612291E-16
5.120000E+03	9.850942E-15	5.604804E-16
5.130000E+03	9.910765E-15	5.596545E-16
5.140000E+03	9.975352E-15	5.587048E-16
5.150000E+03	1.004467E-14	5.575967E-16
5.160000E+03	1.011845E-14	5.562812E-16
5.170000E+03	1.019662E-14	5.547164E-16
5.180000E+03	1.027888E-14	5.528461E-16
5.190000E+03	1.036508E-14	5.506211E-16
5.200000E+03	1.045487E-14	5.479789E-16
5.210000E+03	1.054790E-14	5.448538E-16
5.220000E+03	1.064406E-14	5.411938E-16
5.230000E+03	1.074296E-14	5.369288E-16
5.240000E+03	1.084417E-14	5.319872E-16
5.250000E+03	1.094750E-14	5.263070E-16
5.260000E+03	1.105249E-14	5.198151E-16
5.270000E+03	1.115895E-14	5.124488E-16
5.280000E+03	1.126632E-14	5.041313E-16
5.290000E+03	1.137440E-14	4.948020E-16
5.300000E+03	1.148289E-14	4.843976E-16
5.310000E+03	1.159148E-14	4.728575E-16
5.320000E+03	1.169967E-14	4.601161E-16
5.330000E+03	1.180741E-14	4.461308E-16
5.340000E+03	1.191432E-14	4.308509E-16
5.350000E+03	1.202005E-14	4.142337E-16
5.360000E+03	1.212447E-14	3.962538E-16
5.370000E+03	1.222712E-14	3.768855E-16
5.380000E+03	1.232801E-14	3.561334E-16
5.390000E+03	1.242670E-14	3.340072E-16
5.400000E+03	1.252296E-14	3.105525E-16
5.410000E+03	1.261672E-14	2.858579E-16
5.420000E+03	1.270750E-14	2.600645E-16
5.430000E+03	1.279511E-14	2.334170E-16
5.440000E+03	1.287943E-14	2.063244E-16
5.450000E+03	1.296013E-14	1.794739E-16
5.460000E+03	1.303709E-14	1.540634E-16
5.470000E+03	1.310991E-14	1.321691E-16
5.480000E+03	1.317817E-14	1.171092E-16
5.490000E+03	1.324154E-14	1.127909E-16
5.500000E+03	1.329962E-14	1.209218E-16
5.510000E+03	1.335242E-14	1.392638E-16
5.520000E+03	1.339946E-14	1.640116E-16
5.530000E+03	1.344054E-14	1.921758E-16
5.540000E+03	1.347562E-14	2.219077E-16
5.550000E+03	1.350430E-14	2.521114E-16
5.560000E+03	1.352690E-14	2.821368E-16
5.570000E+03	1.354302E-14	3.115629E-16
5.580000E+03	1.355285E-14	3.401234E-16
5.590000E+03	1.355654E-14	3.676385E-16
5.600000E+03	1.355434E-14	3.939877E-16
5.610000E+03	1.354654E-14	4.190918E-16
5.620000E+03	1.353366E-14	4.429070E-16
5.630000E+03	1.351584E-14	4.653992E-16
5.640000E+03	1.349369E-14	4.865663E-16
5.650000E+03	1.346774E-14	5.064170E-16
5.660000E+03	1.343837E-14	5.249666E-16
5.670000E+03	1.340641E-14	5.422566E-16
5.680000E+03	1.337226E-14	5.583200E-16
5.690000E+03	1.333645E-14	5.732013E-16
5.700000E+03	1.329950E-14	5.869488E-16
5.710000E+03	1.326187E-14	5.996138E-16
5.720000E+03	1.322401E-14	6.112487E-16
5.730000E+03	1.318628E-14	6.219059E-16
5.740000E+03	1.314902E-14	6.316368E-16
5.750000E+03	1.311263E-14	6.404979E-16
5.760000E+03	1.307717E-14	6.485291E-16
5.770000E+03	1.304278E-14	6.557739E-16
5.780000E+03	1.300967E-14	6.622790E-16
5.790000E+03	1.297771E-14	6.680732E-16
5.800000E+03	1.294713E-14	6.732029E-16
5.810000E+03	1.291754E-14	6.776810E-16
5.820000E+03	1.288876E-14	6.815311E-16
5.830000E+03	1.286089E-14	6.847885E-16
5.840000E+03	1.283353E-14	6.874627E-16
5.850000E+03	1.280654E-14	6.895757E-16
5.860000E+03	1.277949E-14	6.911317E-16
5.870000E+03	1.275205E-14	6.921410E-16
5.880000E+03	1.272418E-14	6.926284E-16
5.890000E+03	1.269527E-14	6.925869E-16
5.900000E+03	1.266529E-14	6.920411E-16
5.910000E+03	1.263395E-14	6.910002E-16
5.920000E+03	1.260083E-14	6.894665E-16
5.930000E+03	1.256581E-14	6.874596E-16
5.940000E+03	1.252884E-14	6.850009E-16
5.950000E+03	1.248960E-14	6.820976E-16
5.960000E+03	1.244825E-14	6.787829E-16
5.970000E+03	1.240457E-14	6.750681E-16
5.980000E+03	1.235853E-14	6.709743E-16
5.990000E+03	1.231044E-14	6.665405E-16
6.000000E+03	1.226036E-14	6.617913E-16
6.010000E+03	1.220840E-14	6.567523E-16
6.020000E+03	1.215488E-14	6.514579E-16
6.030000E+03	1.210013E-14	6.459431E-16
6.040000E+03	1.204440E-14	6.402345E-16
6.050000E+03	1.198796E-14	6.343585E-16
6.060000E+03	1.193141E-14	6.283563E-16
6.070000E+03	1.187507E-14	6.222518E-16
6.080000E+03	1.181943E-14	6.160748E-16
6.090000E+03	1.176486E-14	6.098453E-16
6.100000E+03	1.171201E-14	6.035961E-16
6.110000E+03	1.166110E-14	5.973338E-16
6.120000E+03	1.161250E-14	5.910698E-16
6.130000E+03	1.156686E-14	5.848273E-16
6.140000E+03	1.152437E-14	5.786029E-16
6.150000E+03	1.148506E-14	5.723823E-16
6.160000E+03	1.144923E-14	5.661625E-16
6.170000E+03	1.141730E-14	5.599437E-16
6.180000E+03	1.138935E-14	5.537072E-16
6.190000E+03	1.136621E-14	5.474670E-16
6.200000E+03	1.134773E-14	5.411880E-16
6.210000E+03	1.133419E-14	5.348532E-16
6.220000E+03	1.132584E-14	5.284408E-16
6.230000E+03	1.132257E-14	5.219101E-16
6.240000E+03	1.132437E-14	5.152236E-16
6.250000E+03	1.133120E-14	5.083394E-16
6.260000E+03	1.134266E-14	5.011977E-16
6.270000E+03	1.135860E-14	4.937490E-16
6.280000E+03	1.137885E-14	4.859403E-16
6.290000E+03	1.140319E-14	4.777151E-16
6.300000E+03	1.143089E-14	4.689945E-16
6.310000E+03	1.146199E-14	4.597303E-16
6.320000E+03	1.149585E-14	4.498468E-16
6.330000E+03	1.153198E-14	4.392736E-16
6.340000E+03	1.157020E-14	4.279531E-16
6.350000E+03	1.160983E-14	4.158096E-16
6.360000E+03	1.165053E-14	4.027815E-16
6.370000E+03	1.169179E-14	3.888041E-16
6.380000E+03	1.173343E-14	3.738282E-16
6.390000E+03	1.177499E-14	3.577983E-16
6.400000E+03	1.181636E-14	3.406769E-16
6.410000E+03	1.185711E-14	3.224248E-16
6.420000E+03	1.189703E-14	3.030203E-16
6.430000E+03	1.193592E-14	2.824575E-16
6.440000E+03	1.197383E-14	2.607562E-16
6.450000E+03	1.201046E-14	2.379595E-16
6.460000E+03	1.204593E-14	2.141655E-16
6.470000E+03	1.208022E-14	1.895459E-16
6.480000E+03	1.211332E-14	1.644072E-16
6.490000E+03	1.214545E-14	1.393118E-16
6.500000E+03	1.217626E-14	1.153262E-16
6.510000E+03	1.220609E-14	9.456869E-17
6.520000E+03	1.223449E-14	8.092908E-17
6.530000E+03	1.226166E-14	7.919967E-17
6.540000E+03	1.228723E-14	9.025918E-17
6.550000E+03	1.231082E-14	1.098787E-16
6.560000E+03	1.233234E-14	1.336879E-16
6.570000E+03	1.235144E-14	1.591404E-16
6.580000E+03	1.236757E-14	1.849232E-16
6.590000E+03	1.238050E-14	2.103450E-16
6.600000E+03	1.238948E-14	2.350086E-16
6.610000E+03	1.239455E-14	2.586880E-16
6.620000E+03	1.239504E-14	2.812328E-16
6.630000E+03	1.239108E-14	3.025634E-16
6.640000E+03	1.238211E-14	3.226195E-16
6.650000E+03	1.236819E-14	3.413805E-16
6.660000E+03	1.234906E-14	3.588349E-16
6.670000E+03	1.232489E-14	3.749978E-16
6.680000E+03	1.229555E-14	3.898852E-16
6.690000E+03	1.226112E-14	4.035290E-16
6.700000E+03	1.222198E-14	4.159761E-16
6.710000E+03	1.217812E-14	4.272673E-16
6.720000E+03	1.212982E-14	4.374555E-16
6.730000E+03	1.207756E-14	4.466046E-16
6.740000E+03	1.202150E-14	4.547679E-16
6.750000E+03	1.196200E-14	4.620072E-16
6.760000E+03	1.189946E-14	4.683856E-16
6.770000E+03	1.183430E-14	4.739664E-16
6.780000E+03	1.176715E-14	4.788205E-16
6.790000E+03	1.169824E-14	4.830019E-16
6.800000E+03	1.162821E-14	4.865787E-16
6.810000E+03	1.155708E-14	4.895929E-16
6.820000E+03	1.148568E-14	4.921165E-16
6.830000E+03	1.141441E-14	4.942028E-16
6.840000E+03	1.134324E-14	4.958854E-16
6.850000E+03	1.127312E-14	4.972372E-16
6.860000E+03	1.120380E-14	4.982771E-16
6.870000E+03	1.113614E-14	4.990722E-16
6.880000E+03	1.106985E-14	4.996353E-16
6.890000E+03	1.100572E-14	5.000276E-16
6.900000E+03	1.094357E-14	5.002644E-16
6.910000E+03	1.088357E-14	5.003750E-16
6.920000E+03	1.082604E-14	5.003949E-16
6.930000E+03	1.077109E-14	5.003481E-16
6.940000E+03	1.071878E-14	5.002555E-16
6.950000E+03	1.066915E-14	5.001358E-16
6.960000E+03	1.062204E-14	4.999958E-16
6.970000E+03	1.057782E-14	4.998670E-16
6.980000E+03	1.053607E-14	4.997427E-16
6.990000E+03	1.049694E-14	4.996408E-16
7.000000E+03	1.046035E-14	4.995682E-16
7.010000E+03	1.042643E-14	4.995393E-16
7.020000E+03	1.039467E-14	4.995389E-16
7.030000E+03	1.036536E-14	4.995870E-16
7.040000E+03	1.033817E-14	4.996745E-16
7.050000E+03	1.031298E-14	4.998002E-16
7.060000E+03	1.028965E-14	4.999613E-16
7.070000E+03	1.026820E-14	5.001637E-16
7.080000E+03	1.024830E-14	5.003930E-16
7.090000E+03	1.022995E-14	5.006529E-16
7.100000E+03	1.021280E-14	5.009273E-16
7.110000E+03	1.019684E-14	5.012181E-16
7.120000E+03	1.018189E-14	5.015171E-16
7.130000E+03	1.016753E-14	5.018056E-16
7.140000E+03	1.015377E-14	5.020836E-16
7.150000E+03	1.014037E-14	5.023411E-16
7.160000E+03	1.012710E-14	5.025673E-16
7.170000E+03	1.011395E-14	5.027612E-16
7.180000E+03	1.010025E-14	5.028913E-16
7.190000E+03	1.008596E-14	5.029562E-16
7.200000E+03	1.007104E-14	5.029541E-16
7.210000E+03	1.005504E-14	5.028633E-16
7.220000E+03	1.003770E-14	5.026721E-16
7.230000E+03	1.001900E-14	5.023797E-16
7.240000E+03	9.998473E-15	5.019649E-16
7.250000E+03	9.976120E-15	5.014279E-16
7.260000E+03	9.951518E-15	5.007489E-16
7.270000E+03	9.924685E-15	4.999299E-16
7.280000E+03	9.895453E-15	4.989636E-16
7.290000E+03	9.863682E-15	4.978442E-16
7.300000E+03	9.829054E-15	4.965566E-16
7.310000E+03	9.791910E-15	4.951190E-16
7.320000E+03	9.751798E-15	4.935092E-16
7.330000E+03	9.708931E-15	4.917387E-16
7.340000E+03	9.663357E-15	4.898102E-16
7.350000E+03	9.615170E-15	4.877287E-16
7.360000E+03	9.564514E-15	4.855010E-16
7.370000E+03	9.511578E-15	4.831363E-16
7.380000E+03	9.456597E-15	4.806455E-16
7.390000E+03	9.400065E-15	4.780524E-16
7.400000E+03	9.341891E-15	4.753505E-16
7.410000E+03	9.282860E-15	4.725775E-16
7.420000E+03	9.223377E-15	4.697512E-16
7.430000E+03	9.163881E-15	4.668909E-16
7.440000E+03	9.104631E-15	4.640060E-16
7.450000E+03	9.046116E-15	4.611173E-16
7.460000E+03	8.988844E-15	4.582458E-16
7.470000E+03	8.933330E-15	4.554127E-16
7.480000E+03	8.880093E-15	4.526388E-16
7.490000E+03	8.829649E-15	4.499443E-16
7.500000E+03	8.782505E-15	4.473483E-16
7.510000E+03	8.739150E-15	4.448690E-16
7.520000E+03	8.699847E-15	4.425121E-16
7.530000E+03	8.665443E-15	4.403132E-16
7.540000E+03	8.635937E-15	4.382637E-16
7.550000E+03	8.611897E-15	4.363839E-16
7.560000E+03	8.593646E-15	4.346813E-16
7.570000E+03	8.581665E-15	4.331704E-16
7.580000E+03	8.575766E-15	4.318320E-16
7.590000E+03	8.576321E-15	4.306742E-16
7.600000E+03	8.583647E-15	4.297018E-16
7.610000E+03	8.597373E-15	4.288844E-16
7.620000E+03	8.617897E-15	4.282296E-16
7.630000E+03	8.644711E-15	4.276986E-16
7.640000E+03	8.678076E-15	4.272903E-16
7.650000E+03	8.717548E-15	4.269673E-16
7.660000E+03	8.762815E-15	4.266979E-16
7.670000E+03	8.813484E-15	4.264455E-16
7.680000E+03	8.868861E-15	4.261577E-16
7.690000E+03	8.929054E-15	4.258192E-16
7.700000E+03	8.992755E-15	4.253460E-16
7.710000E+03	9.059460E-15	4.246913E-16
7.720000E+03	9.128588E-15	4.238035E-16
7.730000E+03	9.198783E-15	4.225940E-16
7.740000E+03	9.269533E-15	4.210130E-16
7.750000E+03	9.339793E-15	4.189855E-16
7.760000E+03	9.407959E-15	4.164118E-16
