#wls	flux	fluxerr
1.600000E+03	1.156185E-15	8.550070E-16
1.640000E+03	1.177324E-15	8.580626E-16
1.680000E+03	1.199696E-15	8.612230E-16
1.720000E+03	1.223431E-15	8.645171E-16
1.760000E+03	1.248505E-15	8.678611E-16
1.800000E+03	1.275042E-15	8.712684E-16
1.840000E+03	1.303160E-15	8.747419E-16
1.880000E+03	1.333120E-15	8.783700E-16
1.920000E+03	1.364734E-15	8.819361E-16
1.960000E+03	1.398397E-15	8.855998E-16
2.000000E+03	1.434055E-15	8.892186E-16
2.040000E+03	1.472084E-15	8.929123E-16
2.080000E+03	1.512704E-15	8.966834E-16
2.120000E+03	1.556265E-15	9.005961E-16
2.160000E+03	1.603394E-15	9.048472E-16
2.200000E+03	1.654403E-15	9.094202E-16
2.240000E+03	1.710306E-15	9.146528E-16
2.280000E+03	1.771502E-15	9.204958E-16
2.320000E+03	1.838782E-15	9.270711E-16
2.360000E+03	1.912313E-15	9.341401E-16
2.400000E+03	1.991784E-15	9.412234E-16
2.440000E+03	2.077122E-15	9.479672E-16
2.480000E+03	2.168198E-15	9.539959E-16
2.520000E+03	2.264960E-15	9.589754E-16
2.560000E+03	2.367141E-15	9.624910E-16
2.600000E+03	2.474402E-15	9.641205E-16
2.640000E+03	2.586730E-15	9.635958E-16
2.680000E+03	2.703467E-15	9.604301E-16
2.720000E+03	2.824274E-15	9.543032E-16
2.760000E+03	2.948574E-15	9.448598E-16
2.800000E+03	3.075299E-15	9.316575E-16
2.840000E+03	3.204214E-15	9.145908E-16
2.880000E+03	3.334591E-15	8.934672E-16
2.920000E+03	3.466368E-15	8.683453E-16
2.960000E+03	3.600225E-15	8.394957E-16
3.000000E+03	3.736446E-15	8.070961E-16
3.010000E+03	3.771043E-15	7.984939E-16
3.020000E+03	3.805757E-15	7.896735E-16
3.030000E+03	3.840795E-15	7.806805E-16
3.040000E+03	3.876015E-15	7.714869E-16
3.050000E+03	3.911504E-15	7.621128E-16
3.060000E+03	3.947235E-15	7.525551E-16
3.070000E+03	3.983295E-15	7.428321E-16
3.080000E+03	4.019768E-15	7.329610E-16
3.090000E+03	4.056513E-15	7.229170E-16
3.100000E+03	4.093614E-15	7.127176E-16
3.110000E+03	4.131152E-15	7.023786E-16
3.120000E+03	4.169100E-15	6.918960E-16
3.130000E+03	4.207428E-15	6.812667E-16
3.140000E+03	4.246325E-15	6.705228E-16
3.150000E+03	4.285653E-15	6.596428E-16
3.160000E+03	4.325385E-15	6.486243E-16
3.170000E+03	4.365811E-15	6.375123E-16
3.180000E+03	4.406690E-15	6.262712E-16
3.190000E+03	4.448204E-15	6.149283E-16
3.200000E+03	4.490218E-15	6.034654E-16
3.210000E+03	4.532912E-15	5.919077E-16
3.220000E+03	4.576257E-15	5.802510E-16
3.230000E+03	4.620222E-15	5.684916E-16
3.240000E+03	4.664879E-15	5.566386E-16
3.250000E+03	4.710298E-15	5.446995E-16
3.260000E+03	4.756348E-15	5.326587E-16
3.270000E+03	4.803098E-15	5.205236E-16
3.280000E+03	4.850515E-15	5.082903E-16
3.290000E+03	4.898664E-15	4.959649E-16
3.300000E+03	4.947508E-15	4.835426E-16
3.310000E+03	4.997013E-15	4.710189E-16
3.320000E+03	5.047233E-15	4.583979E-16
3.330000E+03	5.097940E-15	4.456579E-16
3.340000E+03	5.149370E-15	4.328193E-16
3.350000E+03	5.201290E-15	4.198611E-16
3.360000E+03	5.253651E-15	4.067794E-16
3.370000E+03	5.306490E-15	3.935775E-16
3.380000E+03	5.359656E-15	3.802450E-16
3.390000E+03	5.412998E-15	3.667738E-16
3.400000E+03	5.466452E-15	3.531636E-16
3.410000E+03	5.519859E-15	3.394106E-16
3.420000E+03	5.573232E-15	3.255242E-16
3.430000E+03	5.626234E-15	3.114968E-16
3.440000E+03	5.678787E-15	2.973416E-16
3.450000E+03	5.730726E-15	2.830731E-16
3.460000E+03	5.781806E-15	2.687101E-16
3.470000E+03	5.831868E-15	2.542869E-16
3.480000E+03	5.880762E-15	2.398511E-16
3.490000E+03	5.928266E-15	2.254649E-16
3.500000E+03	5.974097E-15	2.112112E-16
3.510000E+03	6.018151E-15	1.972095E-16
3.520000E+03	6.060276E-15	1.836145E-16
3.530000E+03	6.100274E-15	1.706279E-16
3.540000E+03	6.138073E-15	1.585137E-16
3.550000E+03	6.173649E-15	1.476034E-16
3.560000E+03	6.207043E-15	1.382955E-16
3.570000E+03	6.238288E-15	1.310306E-16
3.580000E+03	6.267571E-15	1.262380E-16
3.590000E+03	6.295080E-15	1.242379E-16
3.600000E+03	6.321279E-15	1.251355E-16
3.610000E+03	6.346449E-15	1.287504E-16
3.620000E+03	6.370988E-15	1.346851E-16
3.630000E+03	6.395289E-15	1.424480E-16
3.640000E+03	6.419881E-15	1.515584E-16
3.650000E+03	6.445347E-15	1.616014E-16
3.660000E+03	6.472318E-15	1.722472E-16
3.670000E+03	6.501520E-15	1.832498E-16
3.680000E+03	6.533629E-15	1.944317E-16
3.690000E+03	6.569459E-15	2.056757E-16
3.700000E+03	6.609682E-15	2.169043E-16
3.710000E+03	6.655145E-15	2.280800E-16
3.720000E+03	6.706534E-15	2.391860E-16
3.730000E+03	6.764490E-15	2.502234E-16
3.740000E+03	6.829730E-15	2.612110E-16
3.750000E+03	6.902845E-15	2.721739E-16
3.760000E+03	6.984348E-15	2.831420E-16
3.770000E+03	7.074665E-15	2.941472E-16
3.780000E+03	7.174263E-15	3.052266E-16
3.790000E+03	7.283297E-15	3.164060E-16
3.800000E+03	7.401940E-15	3.277128E-16
3.810000E+03	7.530304E-15	3.391709E-16
3.820000E+03	7.668089E-15	3.507850E-16
3.830000E+03	7.815190E-15	3.625665E-16
3.840000E+03	7.971143E-15	3.745077E-16
3.850000E+03	8.135323E-15	3.865909E-16
3.860000E+03	8.307088E-15	3.987944E-16
3.870000E+03	8.485496E-15	4.110788E-16
3.880000E+03	8.669525E-15	4.233976E-16
3.890000E+03	8.857937E-15	4.356904E-16
3.900000E+03	9.049527E-15	4.478950E-16
3.910000E+03	9.242750E-15	4.599293E-16
3.920000E+03	9.436225E-15	4.717160E-16
3.930000E+03	9.628362E-15	4.831647E-16
3.940000E+03	9.817641E-15	4.941858E-16
3.950000E+03	1.000257E-14	5.046888E-16
3.960000E+03	1.018153E-14	5.145753E-16
3.970000E+03	1.035318E-14	5.237586E-16
3.980000E+03	1.051640E-14	5.321620E-16
3.990000E+03	1.066986E-14	5.396977E-16
4.000000E+03	1.081287E-14	5.463093E-16
4.010000E+03	1.094447E-14	5.519275E-16
4.020000E+03	1.106429E-14	5.565121E-16
4.030000E+03	1.117201E-14	5.600250E-16
4.040000E+03	1.126747E-14	5.624391E-16
4.050000E+03	1.135078E-14	5.637381E-16
4.060000E+03	1.142227E-14	5.639205E-16
4.070000E+03	1.148230E-14	5.629841E-16
4.080000E+03	1.153160E-14	5.609485E-16
4.090000E+03	1.157079E-14	5.578250E-16
4.100000E+03	1.160062E-14	5.536343E-16
4.110000E+03	1.162192E-14	5.483997E-16
4.120000E+03	1.163563E-14	5.421505E-16
4.130000E+03	1.164259E-14	5.349113E-16
4.140000E+03	1.164353E-14	5.267010E-16
4.150000E+03	1.163932E-14	5.175454E-16
4.160000E+03	1.163066E-14	5.074629E-16
4.170000E+03	1.161807E-14	4.964650E-16
4.180000E+03	1.160228E-14	4.845728E-16
4.190000E+03	1.158354E-14	4.717884E-16
4.200000E+03	1.156227E-14	4.581247E-16
4.210000E+03	1.153880E-14	4.435937E-16
4.220000E+03	1.151318E-14	4.282013E-16
4.230000E+03	1.148548E-14	4.119604E-16
4.240000E+03	1.145577E-14	3.948933E-16
4.250000E+03	1.142388E-14	3.770245E-16
4.260000E+03	1.138991E-14	3.584004E-16
4.270000E+03	1.135370E-14	3.390782E-16
4.280000E+03	1.131504E-14	3.191356E-16
4.290000E+03	1.127410E-14	2.986919E-16
4.300000E+03	1.123074E-14	2.778963E-16
4.310000E+03	1.118504E-14	2.569589E-16
4.320000E+03	1.113731E-14	2.361673E-16
4.330000E+03	1.108784E-14	2.159107E-16
4.340000E+03	1.103708E-14	1.967200E-16
4.350000E+03	1.098569E-14	1.793121E-16
4.360000E+03	1.093422E-14	1.646117E-16
4.370000E+03	1.088351E-14	1.537184E-16
4.380000E+03	1.083436E-14	1.477105E-16
4.390000E+03	1.078767E-14	1.472693E-16
4.400000E+03	1.074394E-14	1.522922E-16
4.410000E+03	1.070391E-14	1.619420E-16
4.420000E+03	1.066808E-14	1.750648E-16
4.430000E+03	1.063706E-14	1.905655E-16
4.440000E+03	1.061132E-14	2.075696E-16
4.450000E+03	1.059137E-14	2.254434E-16
4.460000E+03	1.057766E-14	2.437509E-16
4.470000E+03	1.057059E-14	2.622035E-16
4.480000E+03	1.057027E-14	2.806100E-16
4.490000E+03	1.057684E-14	2.988518E-16
4.500000E+03	1.059028E-14	3.168559E-16
4.510000E+03	1.061023E-14	3.345725E-16
4.520000E+03	1.063644E-14	3.519766E-16
4.530000E+03	1.066827E-14	3.690439E-16
4.540000E+03	1.070519E-14	3.857626E-16
4.550000E+03	1.074631E-14	4.021110E-16
4.560000E+03	1.079089E-14	4.180753E-16
4.570000E+03	1.083795E-14	4.336314E-16
4.580000E+03	1.088646E-14	4.487509E-16
4.590000E+03	1.093556E-14	4.634097E-16
4.600000E+03	1.098420E-14	4.775732E-16
4.610000E+03	1.103143E-14	4.912089E-16
4.620000E+03	1.107638E-14	5.042836E-16
4.630000E+03	1.111803E-14	5.167562E-16
4.640000E+03	1.115583E-14	5.286047E-16
4.650000E+03	1.118907E-14	5.397976E-16
4.660000E+03	1.121722E-14	5.503118E-16
4.670000E+03	1.123979E-14	5.601248E-16
4.680000E+03	1.125641E-14	5.692196E-16
4.690000E+03	1.126683E-14	5.775856E-16
4.700000E+03	1.127104E-14	5.852237E-16
4.710000E+03	1.126893E-14	5.921316E-16
4.720000E+03	1.126072E-14	5.983235E-16
4.730000E+03	1.124643E-14	6.038042E-16
4.740000E+03	1.122637E-14	6.085947E-16
4.750000E+03	1.120093E-14	6.127213E-16
4.760000E+03	1.117047E-14	6.162093E-16
4.770000E+03	1.113548E-14	6.190933E-16
4.780000E+03	1.109643E-14	6.214053E-16
4.790000E+03	1.105390E-14	6.231853E-16
4.800000E+03	1.100837E-14	6.244692E-16
4.810000E+03	1.096054E-14	6.253051E-16
4.820000E+03	1.091082E-14	6.257245E-16
4.830000E+03	1.085999E-14	6.257810E-16
4.840000E+03	1.080850E-14	6.255107E-16
4.850000E+03	1.075692E-14	6.249541E-16
4.860000E+03	1.070575E-14	6.241502E-16
4.870000E+03	1.065548E-14	6.231362E-16
4.880000E+03	1.060658E-14	6.219475E-16
4.890000E+03	1.055946E-14	6.206173E-16
4.900000E+03	1.051462E-14	6.191823E-16
4.910000E+03	1.047234E-14	6.176658E-16
4.920000E+03	1.043306E-14	6.160999E-16
4.930000E+03	1.039698E-14	6.145034E-16
4.940000E+03	1.036459E-14	6.129097E-16
4.950000E+03	1.033607E-14	6.113330E-16
4.960000E+03	1.031156E-14	6.097850E-16
4.970000E+03	1.029158E-14	6.082981E-16
4.980000E+03	1.027604E-14	6.068682E-16
4.990000E+03	1.026543E-14	6.055227E-16
5.000000E+03	1.025973E-14	6.042585E-16
5.010000E+03	1.025918E-14	6.030867E-16
5.020000E+03	1.026383E-14	6.020044E-16
5.030000E+03	1.027398E-14	6.010230E-16
5.040000E+03	1.028955E-14	6.001283E-16
5.050000E+03	1.031082E-14	5.993254E-16
5.060000E+03	1.033763E-14	5.985938E-16
5.070000E+03	1.037023E-14	5.979319E-16
5.080000E+03	1.040853E-14	5.973177E-16
5.090000E+03	1.045241E-14	5.967253E-16
5.100000E+03	1.050204E-14	5.961420E-16
5.110000E+03	1.055723E-14	5.955339E-16
5.120000E+03	1.061789E-14	5.948687E-16
5.130000E+03	1.068378E-14	5.941041E-16
5.140000E+03	1.075495E-14	5.932110E-16
5.150000E+03	1.083100E-14	5.921328E-16
5.160000E+03	1.091180E-14	5.908264E-16
5.170000E+03	1.099710E-14	5.892387E-16
5.180000E+03	1.108651E-14	5.873073E-16
5.190000E+03	1.117984E-14	5.849777E-16
5.200000E+03	1.127664E-14	5.821810E-16
5.210000E+03	1.137656E-14	5.788511E-16
5.220000E+03	1.147924E-14	5.749199E-16
5.230000E+03	1.158441E-14	5.703230E-16
5.240000E+03	1.169147E-14	5.649784E-16
5.250000E+03	1.180015E-14	5.588202E-16
5.260000E+03	1.190996E-14	5.517718E-16
5.270000E+03	1.202064E-14	5.437684E-16
5.280000E+03	1.213185E-14	5.347413E-16
5.290000E+03	1.224302E-14	5.246136E-16
5.300000E+03	1.235409E-14	5.133325E-16
5.310000E+03	1.246453E-14	5.008284E-16
5.320000E+03	1.257422E-14	4.870513E-16
5.330000E+03	1.268281E-14	4.719468E-16
5.340000E+03	1.279012E-14	4.554719E-16
5.350000E+03	1.289611E-14	4.375949E-16
5.360000E+03	1.300039E-14	4.182804E-16
5.370000E+03	1.310297E-14	3.975169E-16
5.380000E+03	1.320360E-14	3.752990E-16
5.390000E+03	1.330220E-14	3.516448E-16
5.400000E+03	1.339867E-14	3.265990E-16
5.410000E+03	1.349278E-14	3.002422E-16
5.420000E+03	1.358441E-14	2.727192E-16
5.430000E+03	1.367346E-14	2.442713E-16
5.440000E+03	1.375969E-14	2.153020E-16
5.450000E+03	1.384301E-14	1.865090E-16
5.460000E+03	1.392335E-14	1.591264E-16
5.470000E+03	1.400053E-14	1.353547E-16
5.480000E+03	1.407453E-14	1.188458E-16
5.490000E+03	1.414534E-14	1.140809E-16
5.500000E+03	1.421251E-14	1.230631E-16
5.510000E+03	1.427534E-14	1.431398E-16
5.520000E+03	1.433328E-14	1.699812E-16
5.530000E+03	1.438562E-14	2.003275E-16
5.540000E+03	1.443156E-14	2.322241E-16
5.550000E+03	1.447073E-14	2.645447E-16
5.560000E+03	1.450262E-14	2.966130E-16
5.570000E+03	1.452698E-14	3.280063E-16
5.580000E+03	1.454385E-14	3.584515E-16
5.590000E+03	1.455312E-14	3.877591E-16
5.600000E+03	1.455476E-14	4.157978E-16
5.610000E+03	1.454933E-14	4.424907E-16
5.620000E+03	1.453701E-14	4.677801E-16
5.630000E+03	1.451811E-14	4.916313E-16
5.640000E+03	1.449342E-14	5.140446E-16
5.650000E+03	1.446322E-14	5.350157E-16
5.660000E+03	1.442827E-14	5.545692E-16
5.670000E+03	1.438921E-14	5.727358E-16
5.680000E+03	1.434668E-14	5.895547E-16
5.690000E+03	1.430119E-14	6.050654E-16
5.700000E+03	1.425366E-14	6.193318E-16
5.710000E+03	1.420439E-14	6.323953E-16
5.720000E+03	1.415408E-14	6.443186E-16
5.730000E+03	1.410306E-14	6.551514E-16
5.740000E+03	1.405209E-14	6.649637E-16
5.750000E+03	1.400138E-14	6.738027E-16
5.760000E+03	1.395109E-14	6.817128E-16
5.770000E+03	1.390174E-14	6.887570E-16
5.780000E+03	1.385334E-14	6.949727E-16
5.790000E+03	1.380597E-14	7.004004E-16
5.800000E+03	1.375967E-14	7.050766E-16
5.810000E+03	1.371454E-14	7.090414E-16
5.820000E+03	1.367032E-14	7.123153E-16
5.830000E+03	1.362701E-14	7.149310E-16
5.840000E+03	1.358443E-14	7.169100E-16
5.850000E+03	1.354234E-14	7.182708E-16
5.860000E+03	1.350032E-14	7.190216E-16
5.870000E+03	1.345839E-14	7.191932E-16
5.880000E+03	1.341628E-14	7.187992E-16
5.890000E+03	1.337352E-14	7.178444E-16
5.900000E+03	1.332998E-14	7.163500E-16
5.910000E+03	1.328538E-14	7.143297E-16
5.920000E+03	1.323962E-14	7.118063E-16
5.930000E+03	1.319229E-14	7.087878E-16
5.940000E+03	1.314336E-14	7.053001E-16
5.950000E+03	1.309281E-14	7.013714E-16
5.960000E+03	1.304036E-14	6.970152E-16
5.970000E+03	1.298608E-14	6.922634E-16
5.980000E+03	1.293009E-14	6.871501E-16
5.990000E+03	1.287224E-14	6.816943E-16
6.000000E+03	1.281289E-14	6.759414E-16
6.010000E+03	1.275216E-14	6.699211E-16
6.020000E+03	1.269018E-14	6.636639E-16
6.030000E+03	1.262730E-14	6.572086E-16
6.040000E+03	1.256391E-14	6.505935E-16
6.050000E+03	1.250012E-14	6.438401E-16
6.060000E+03	1.243670E-14	6.370007E-16
6.070000E+03	1.237382E-14	6.300938E-16
6.080000E+03	1.231199E-14	6.231516E-16
6.090000E+03	1.225190E-14	6.162118E-16
6.100000E+03	1.219361E-14	6.092775E-16
6.110000E+03	1.213799E-14	6.023880E-16
6.120000E+03	1.208543E-14	5.955554E-16
6.130000E+03	1.203648E-14	5.887960E-16
6.140000E+03	1.199151E-14	5.821145E-16
6.150000E+03	1.195104E-14	5.755191E-16
6.160000E+03	1.191542E-14	5.690061E-16
6.170000E+03	1.188512E-14	5.625750E-16
6.180000E+03	1.186024E-14	5.562058E-16
6.190000E+03	1.184087E-14	5.498739E-16
6.200000E+03	1.182751E-14	5.435726E-16
6.210000E+03	1.181983E-14	5.372531E-16
6.220000E+03	1.181821E-14	5.308991E-16
6.230000E+03	1.182237E-14	5.244598E-16
6.240000E+03	1.183242E-14	5.179017E-16
6.250000E+03	1.184809E-14	5.111722E-16
6.260000E+03	1.186922E-14	5.042212E-16
6.270000E+03	1.189525E-14	4.969804E-16
6.280000E+03	1.192621E-14	4.894057E-16
6.290000E+03	1.196143E-14	4.814214E-16
6.300000E+03	1.200051E-14	4.729627E-16
6.310000E+03	1.204286E-14	4.639556E-16
6.320000E+03	1.208800E-14	4.543310E-16
6.330000E+03	1.213546E-14	4.440186E-16
6.340000E+03	1.218439E-14	4.329352E-16
6.350000E+03	1.223447E-14	4.210175E-16
6.360000E+03	1.228472E-14	4.081794E-16
6.370000E+03	1.233486E-14	3.943627E-16
6.380000E+03	1.238431E-14	3.795010E-16
6.390000E+03	1.243235E-14	3.635294E-16
6.400000E+03	1.247884E-14	3.464070E-16
6.410000E+03	1.252319E-14	3.280870E-16
6.420000E+03	1.256593E-14	3.085646E-16
6.430000E+03	1.260657E-14	2.878212E-16
6.440000E+03	1.264559E-14	2.658830E-16
6.450000E+03	1.268258E-14	2.427861E-16
6.460000E+03	1.271790E-14	2.186316E-16
6.470000E+03	1.275158E-14	1.935913E-16
6.480000E+03	1.278367E-14	1.679748E-16
6.490000E+03	1.281426E-14	1.423514E-16
6.500000E+03	1.284346E-14	1.178116E-16
6.510000E+03	1.287123E-14	9.651490E-17
6.520000E+03	1.289810E-14	8.247155E-17
6.530000E+03	1.292371E-14	8.065774E-17
6.540000E+03	1.294813E-14	9.197185E-17
6.550000E+03	1.297091E-14	1.119712E-16
6.560000E+03	1.299165E-14	1.361321E-16
6.570000E+03	1.301011E-14	1.618507E-16
6.580000E+03	1.302548E-14	1.877908E-16
6.590000E+03	1.303738E-14	2.132519E-16
6.600000E+03	1.304566E-14	2.378486E-16
6.610000E+03	1.305000E-14	2.613560E-16
6.620000E+03	1.304969E-14	2.836331E-16
6.630000E+03	1.304486E-14	3.046123E-16
6.640000E+03	1.303486E-14	3.242461E-16
6.650000E+03	1.301991E-14	3.425328E-16
6.660000E+03	1.299923E-14	3.594641E-16
6.670000E+03	1.297337E-14	3.750797E-16
6.680000E+03	1.294190E-14	3.894032E-16
6.690000E+03	1.290507E-14	4.024850E-16
6.700000E+03	1.286259E-14	4.143638E-16
6.710000E+03	1.281527E-14	4.251168E-16
6.720000E+03	1.276276E-14	4.347850E-16
6.730000E+03	1.270577E-14	4.434464E-16
6.740000E+03	1.264469E-14	4.511669E-16
6.750000E+03	1.257950E-14	4.579973E-16
6.760000E+03	1.251107E-14	4.640184E-16
6.770000E+03	1.243967E-14	4.692866E-16
6.780000E+03	1.236600E-14	4.738726E-16
6.790000E+03	1.229014E-14	4.778206E-16
6.800000E+03	1.221302E-14	4.812046E-16
6.810000E+03	1.213514E-14	4.840799E-16
6.820000E+03	1.205676E-14	4.864908E-16
6.830000E+03	1.197835E-14	4.884869E-16
6.840000E+03	1.190035E-14	4.901149E-16
6.850000E+03	1.182357E-14	4.914359E-16
6.860000E+03	1.174776E-14	4.924657E-16
6.870000E+03	1.167367E-14	4.932602E-16
6.880000E+03	1.160160E-14	4.938556E-16
6.890000E+03	1.153158E-14	4.942767E-16
6.900000E+03	1.146405E-14	4.945631E-16
6.910000E+03	1.139917E-14	4.947433E-16
6.920000E+03	1.133688E-14	4.948343E-16
6.930000E+03	1.127747E-14	4.948680E-16
6.940000E+03	1.122102E-14	4.948652E-16
6.950000E+03	1.116735E-14	4.948350E-16
6.960000E+03	1.111686E-14	4.948110E-16
6.970000E+03	1.106914E-14	4.947883E-16
6.980000E+03	1.102453E-14	4.947958E-16
6.990000E+03	1.098257E-14	4.948240E-16
7.000000E+03	1.094357E-14	4.948975E-16
7.010000E+03	1.090703E-14	4.950024E-16
7.020000E+03	1.087323E-14	4.951598E-16
7.030000E+03	1.084184E-14	4.953613E-16
7.040000E+03	1.081273E-14	4.956063E-16
7.050000E+03	1.078595E-14	4.959021E-16
7.060000E+03	1.076115E-14	4.962358E-16
7.070000E+03	1.073815E-14	4.966029E-16
7.080000E+03	1.071700E-14	4.970072E-16
7.090000E+03	1.069751E-14	4.974422E-16
7.100000E+03	1.067928E-14	4.978905E-16
7.110000E+03	1.066232E-14	4.983535E-16
7.120000E+03	1.064644E-14	4.988220E-16
7.130000E+03	1.063140E-14	4.992860E-16
7.140000E+03	1.061677E-14	4.997252E-16
7.150000E+03	1.060274E-14	5.001480E-16
7.160000E+03	1.058884E-14	5.005331E-16
7.170000E+03	1.057482E-14	5.008681E-16
7.180000E+03	1.056061E-14	5.011508E-16
7.190000E+03	1.054574E-14	5.013584E-16
7.200000E+03	1.052992E-14	5.014781E-16
7.210000E+03	1.051331E-14	5.015175E-16
7.220000E+03	1.049496E-14	5.014332E-16
7.230000E+03	1.047526E-14	5.012439E-16
7.240000E+03	1.045370E-14	5.009273E-16
7.250000E+03	1.042982E-14	5.004619E-16
7.260000E+03	1.040357E-14	4.998476E-16
7.270000E+03	1.037495E-14	4.990857E-16
7.280000E+03	1.034355E-14	4.981574E-16
7.290000E+03	1.030896E-14	4.970455E-16
7.300000E+03	1.027148E-14	4.957657E-16
7.310000E+03	1.023079E-14	4.943043E-16
7.320000E+03	1.018684E-14	4.926595E-16
7.330000E+03	1.013983E-14	4.908427E-16
7.340000E+03	1.008914E-14	4.888246E-16
7.350000E+03	1.003553E-14	4.866423E-16
7.360000E+03	9.978710E-15	4.842819E-16
7.370000E+03	9.918887E-15	4.817534E-16
7.380000E+03	9.856327E-15	4.790688E-16
7.390000E+03	9.791133E-15	4.762321E-16
7.400000E+03	9.723686E-15	4.732601E-16
7.410000E+03	9.654413E-15	4.701714E-16
7.420000E+03	9.583577E-15	4.669759E-16
7.430000E+03	9.511695E-15	4.636956E-16
7.440000E+03	9.439109E-15	4.603431E-16
7.450000E+03	9.367047E-15	4.569739E-16
7.460000E+03	9.295679E-15	4.535912E-16
7.470000E+03	9.226044E-15	4.502402E-16
7.480000E+03	9.158754E-15	4.469445E-16
7.490000E+03	9.094628E-15	4.437374E-16
7.500000E+03	9.034044E-15	4.406303E-16
7.510000E+03	8.977782E-15	4.376536E-16
7.520000E+03	8.926596E-15	4.348358E-16
7.530000E+03	8.880563E-15	4.321725E-16
7.540000E+03	8.840781E-15	4.297081E-16
7.550000E+03	8.807240E-15	4.274330E-16
7.560000E+03	8.780303E-15	4.253553E-16
7.570000E+03	8.760699E-15	4.235006E-16
7.580000E+03	8.748250E-15	4.218500E-16
7.590000E+03	8.743137E-15	4.204018E-16
7.600000E+03	8.745905E-15	4.191715E-16
7.610000E+03	8.756171E-15	4.181294E-16
7.620000E+03	8.773910E-15	4.172625E-16
7.630000E+03	8.799240E-15	4.165643E-16
7.640000E+03	8.831986E-15	4.160135E-16
7.650000E+03	8.871677E-15	4.155739E-16
7.660000E+03	8.918198E-15	4.152257E-16
7.670000E+03	8.971136E-15	4.149336E-16
7.680000E+03	9.029533E-15	4.146366E-16
7.690000E+03	9.093485E-15	4.143210E-16
7.700000E+03	9.161623E-15	4.139047E-16
7.710000E+03	9.233882E-15	4.133641E-16
7.720000E+03	9.308703E-15	4.126070E-16
7.730000E+03	9.385860E-15	4.115999E-16
7.740000E+03	9.463851E-15	4.102519E-16
7.750000E+03	9.541564E-15	4.084893E-16
7.760000E+03	9.618316E-15	4.062563E-16
