#wls	flux	fluxerr
1.600000E+03	8.778630E-16	6.494203E-16
1.640000E+03	8.911413E-16	6.497952E-16
1.680000E+03	9.051128E-16	6.501453E-16
1.720000E+03	9.197640E-16	6.504251E-16
1.760000E+03	9.352024E-16	6.506731E-16
1.800000E+03	9.515336E-16	6.509204E-16
1.840000E+03	9.687362E-16	6.511068E-16
1.880000E+03	9.870336E-16	6.513335E-16
1.920000E+03	1.006397E-15	6.515262E-16
1.960000E+03	1.027041E-15	6.517657E-16
2.000000E+03	1.049176E-15	6.521169E-16
2.040000E+03	1.073005E-15	6.526283E-16
2.080000E+03	1.098599E-15	6.532565E-16
2.120000E+03	1.126391E-15	6.541642E-16
2.160000E+03	1.156429E-15	6.552688E-16
2.200000E+03	1.189371E-15	6.568188E-16
2.240000E+03	1.225231E-15	6.586775E-16
2.280000E+03	1.264499E-15	6.609535E-16
2.320000E+03	1.307267E-15	6.635213E-16
2.360000E+03	1.353844E-15	6.663544E-16
2.400000E+03	1.404012E-15	6.691543E-16
2.440000E+03	1.457886E-15	6.717887E-16
2.480000E+03	1.515175E-15	6.739366E-16
2.520000E+03	1.575669E-15	6.753322E-16
2.560000E+03	1.639356E-15	6.758061E-16
2.600000E+03	1.705813E-15	6.750316E-16
2.640000E+03	1.774928E-15	6.728321E-16
2.680000E+03	1.846298E-15	6.689402E-16
2.720000E+03	1.919703E-15	6.631867E-16
2.760000E+03	1.994528E-15	6.552962E-16
2.800000E+03	2.070457E-15	6.451400E-16
2.840000E+03	2.147127E-15	6.326089E-16
2.880000E+03	2.224027E-15	6.175902E-16
2.920000E+03	2.300730E-15	6.000412E-16
2.960000E+03	2.377410E-15	5.801090E-16
3.000000E+03	2.454488E-15	5.579969E-16
3.010000E+03	2.473876E-15	5.521524E-16
3.020000E+03	2.493383E-15	5.461998E-16
3.030000E+03	2.512994E-15	5.401361E-16
3.040000E+03	2.532693E-15	5.339589E-16
3.050000E+03	2.552465E-15	5.276660E-16
3.060000E+03	2.572391E-15	5.212753E-16
3.070000E+03	2.592456E-15	5.147837E-16
3.080000E+03	2.612738E-15	5.082073E-16
3.090000E+03	2.633124E-15	5.015237E-16
3.100000E+03	2.653691E-15	4.947487E-16
3.110000E+03	2.674517E-15	4.878963E-16
3.120000E+03	2.695487E-15	4.809452E-16
3.130000E+03	2.716677E-15	4.739093E-16
3.140000E+03	2.738160E-15	4.668005E-16
3.150000E+03	2.759823E-15	4.595990E-16
3.160000E+03	2.781828E-15	4.523314E-16
3.170000E+03	2.804152E-15	4.449922E-16
3.180000E+03	2.826683E-15	4.375628E-16
3.190000E+03	2.849579E-15	4.300666E-16
3.200000E+03	2.872813E-15	4.224982E-16
3.210000E+03	2.896364E-15	4.148525E-16
3.220000E+03	2.920205E-15	4.071249E-16
3.230000E+03	2.944485E-15	3.993344E-16
3.240000E+03	2.969177E-15	3.914746E-16
3.250000E+03	2.994167E-15	3.835289E-16
3.260000E+03	3.019598E-15	3.755140E-16
3.270000E+03	3.045441E-15	3.674238E-16
3.280000E+03	3.071667E-15	3.592529E-16
3.290000E+03	3.098247E-15	3.509964E-16
3.300000E+03	3.125314E-15	3.426677E-16
3.310000E+03	3.152758E-15	3.342525E-16
3.320000E+03	3.180627E-15	3.257550E-16
3.330000E+03	3.208893E-15	3.171709E-16
3.340000E+03	3.237602E-15	3.085044E-16
3.350000E+03	3.266649E-15	2.997451E-16
3.360000E+03	3.296083E-15	2.908986E-16
3.370000E+03	3.325801E-15	2.819577E-16
3.380000E+03	3.355931E-15	2.729365E-16
3.390000E+03	3.386374E-15	2.638305E-16
3.400000E+03	3.417111E-15	2.546446E-16
3.410000E+03	3.448054E-15	2.453803E-16
3.420000E+03	3.479266E-15	2.360534E-16
3.430000E+03	3.510669E-15	2.266726E-16
3.440000E+03	3.542192E-15	2.172517E-16
3.450000E+03	3.573847E-15	2.078147E-16
3.460000E+03	3.605648E-15	1.983918E-16
3.470000E+03	3.637415E-15	1.890098E-16
3.480000E+03	3.669185E-15	1.797174E-16
3.490000E+03	3.700941E-15	1.705715E-16
3.500000E+03	3.732608E-15	1.616408E-16
3.510000E+03	3.764195E-15	1.530147E-16
3.520000E+03	3.795592E-15	1.447978E-16
3.530000E+03	3.826903E-15	1.371260E-16
3.540000E+03	3.858048E-15	1.301515E-16
3.550000E+03	3.889093E-15	1.240537E-16
3.560000E+03	3.920050E-15	1.190241E-16
3.570000E+03	3.950880E-15	1.152523E-16
3.580000E+03	3.981678E-15	1.129084E-16
3.590000E+03	4.012482E-15	1.121085E-16
3.600000E+03	4.043273E-15	1.128889E-16
3.610000E+03	4.074156E-15	1.151917E-16
3.620000E+03	4.105172E-15	1.188769E-16
3.630000E+03	4.136421E-15	1.237565E-16
3.640000E+03	4.168063E-15	1.296244E-16
3.650000E+03	4.200195E-15	1.362766E-16
3.660000E+03	4.232911E-15	1.435269E-16
3.670000E+03	4.266421E-15	1.512182E-16
3.680000E+03	4.300869E-15	1.592179E-16
3.690000E+03	4.336340E-15	1.674155E-16
3.700000E+03	4.372968E-15	1.757245E-16
3.710000E+03	4.410881E-15	1.840762E-16
3.720000E+03	4.450255E-15	1.924193E-16
3.730000E+03	4.491140E-15	2.007096E-16
3.740000E+03	4.533628E-15	2.089150E-16
3.750000E+03	4.577857E-15	2.170131E-16
3.760000E+03	4.623889E-15	2.249853E-16
3.770000E+03	4.671713E-15	2.328141E-16
3.780000E+03	4.721409E-15	2.404910E-16
3.790000E+03	4.772983E-15	2.480069E-16
3.800000E+03	4.826474E-15	2.553573E-16
3.810000E+03	4.881726E-15	2.625296E-16
3.820000E+03	4.938791E-15	2.695236E-16
3.830000E+03	4.997581E-15	2.763330E-16
3.840000E+03	5.057928E-15	2.829481E-16
3.850000E+03	5.119814E-15	2.893682E-16
3.860000E+03	5.183024E-15	2.955822E-16
3.870000E+03	5.247324E-15	3.015778E-16
3.880000E+03	5.312694E-15	3.073556E-16
3.890000E+03	5.378804E-15	3.128984E-16
3.900000E+03	5.445546E-15	3.182015E-16
3.910000E+03	5.512561E-15	3.232458E-16
3.920000E+03	5.579724E-15	3.280255E-16
3.930000E+03	5.646721E-15	3.325236E-16
3.940000E+03	5.713423E-15	3.367332E-16
3.950000E+03	5.779455E-15	3.406329E-16
3.960000E+03	5.844636E-15	3.442119E-16
3.970000E+03	5.908791E-15	3.474593E-16
3.980000E+03	5.971700E-15	3.503607E-16
3.990000E+03	6.033097E-15	3.528983E-16
4.000000E+03	6.092857E-15	3.550619E-16
4.010000E+03	6.150880E-15	3.568417E-16
4.020000E+03	6.206965E-15	3.582211E-16
4.030000E+03	6.260996E-15	3.591877E-16
4.040000E+03	6.312949E-15	3.597334E-16
4.050000E+03	6.362763E-15	3.598469E-16
4.060000E+03	6.410401E-15	3.595178E-16
4.070000E+03	6.455855E-15	3.587359E-16
4.080000E+03	6.499201E-15	3.574954E-16
4.090000E+03	6.540413E-15	3.557840E-16
4.100000E+03	6.579546E-15	3.535934E-16
4.110000E+03	6.616740E-15	3.509193E-16
4.120000E+03	6.652019E-15	3.477513E-16
4.130000E+03	6.685551E-15	3.440861E-16
4.140000E+03	6.717383E-15	3.399148E-16
4.150000E+03	6.747702E-15	3.352356E-16
4.160000E+03	6.776568E-15	3.300416E-16
4.170000E+03	6.804112E-15	3.243302E-16
4.180000E+03	6.830464E-15	3.181007E-16
4.190000E+03	6.855758E-15	3.113543E-16
4.200000E+03	6.880127E-15	3.040949E-16
4.210000E+03	6.903573E-15	2.963242E-16
4.220000E+03	6.926295E-15	2.880568E-16
4.230000E+03	6.948296E-15	2.793044E-16
4.240000E+03	6.969713E-15	2.700910E-16
4.250000E+03	6.990618E-15	2.604466E-16
4.260000E+03	7.011156E-15	2.504143E-16
4.270000E+03	7.031283E-15	2.400437E-16
4.280000E+03	7.051093E-15	2.294065E-16
4.290000E+03	7.070692E-15	2.185955E-16
4.300000E+03	7.090195E-15	2.077303E-16
4.310000E+03	7.109538E-15	1.969582E-16
4.320000E+03	7.128926E-15	1.864749E-16
4.330000E+03	7.148380E-15	1.765184E-16
4.340000E+03	7.168057E-15	1.673829E-16
4.350000E+03	7.187983E-15	1.594100E-16
4.360000E+03	7.208303E-15	1.529810E-16
4.370000E+03	7.229207E-15	1.484800E-16
4.380000E+03	7.250983E-15	1.462386E-16
4.390000E+03	7.273750E-15	1.464614E-16
4.400000E+03	7.297879E-15	1.491647E-16
4.410000E+03	7.323403E-15	1.541657E-16
4.420000E+03	7.350441E-15	1.611586E-16
4.430000E+03	7.379070E-15	1.697809E-16
4.440000E+03	7.409332E-15	1.796696E-16
4.450000E+03	7.441040E-15	1.904905E-16
4.460000E+03	7.474250E-15	2.019643E-16
4.470000E+03	7.508871E-15	2.138591E-16
4.480000E+03	7.544657E-15	2.259849E-16
4.490000E+03	7.581553E-15	2.381961E-16
4.500000E+03	7.619352E-15	2.503748E-16
4.510000E+03	7.657768E-15	2.624257E-16
4.520000E+03	7.696639E-15	2.742774E-16
4.530000E+03	7.735725E-15	2.858720E-16
4.540000E+03	7.774704E-15	2.971610E-16
4.550000E+03	7.813321E-15	3.081078E-16
4.560000E+03	7.851244E-15	3.186806E-16
4.570000E+03	7.888216E-15	3.288564E-16
4.580000E+03	7.923837E-15	3.386112E-16
4.590000E+03	7.957937E-15	3.479341E-16
4.600000E+03	7.990066E-15	3.568054E-16
4.610000E+03	8.020161E-15	3.652245E-16
4.620000E+03	8.047742E-15	3.731737E-16
4.630000E+03	8.072801E-15	3.806585E-16
4.640000E+03	8.094989E-15	3.876693E-16
4.650000E+03	8.114294E-15	3.942133E-16
4.660000E+03	8.130441E-15	4.002855E-16
4.670000E+03	8.143497E-15	4.058975E-16
4.680000E+03	8.153418E-15	4.110559E-16
4.690000E+03	8.160127E-15	4.157656E-16
4.700000E+03	8.163660E-15	4.200366E-16
4.710000E+03	8.164016E-15	4.238770E-16
4.720000E+03	8.161154E-15	4.272923E-16
4.730000E+03	8.155216E-15	4.302969E-16
4.740000E+03	8.146147E-15	4.328944E-16
4.750000E+03	8.134219E-15	4.351056E-16
4.760000E+03	8.119423E-15	4.369356E-16
4.770000E+03	8.102070E-15	4.384066E-16
4.780000E+03	8.082407E-15	4.395371E-16
4.790000E+03	8.060617E-15	4.403419E-16
4.800000E+03	8.037037E-15	4.408443E-16
4.810000E+03	8.011929E-15	4.410635E-16
4.820000E+03	7.985632E-15	4.410228E-16
4.830000E+03	7.958328E-15	4.407372E-16
4.840000E+03	7.930345E-15	4.402298E-16
4.850000E+03	7.901930E-15	4.395193E-16
4.860000E+03	7.873468E-15	4.386324E-16
4.870000E+03	7.845042E-15	4.375790E-16
4.880000E+03	7.817094E-15	4.363895E-16
4.890000E+03	7.789691E-15	4.350733E-16
4.900000E+03	7.763186E-15	4.336559E-16
4.910000E+03	7.737706E-15	4.321502E-16
4.920000E+03	7.713593E-15	4.305810E-16
4.930000E+03	7.690890E-15	4.289564E-16
4.940000E+03	7.670005E-15	4.273045E-16
4.950000E+03	7.650905E-15	4.256283E-16
4.960000E+03	7.633994E-15	4.239547E-16
4.970000E+03	7.619382E-15	4.222934E-16
4.980000E+03	7.607328E-15	4.206617E-16
4.990000E+03	7.597871E-15	4.190636E-16
5.000000E+03	7.591341E-15	4.175183E-16
5.010000E+03	7.587923E-15	4.160355E-16
5.020000E+03	7.587728E-15	4.146199E-16
5.030000E+03	7.591009E-15	4.132824E-16
5.040000E+03	7.597870E-15	4.120244E-16
5.050000E+03	7.608555E-15	4.108534E-16
5.060000E+03	7.623227E-15	4.097708E-16
5.070000E+03	7.642038E-15	4.087762E-16
5.080000E+03	7.665056E-15	4.078626E-16
5.090000E+03	7.692479E-15	4.070285E-16
5.100000E+03	7.724415E-15	4.062659E-16
5.110000E+03	7.760878E-15	4.055596E-16
5.120000E+03	7.802008E-15	4.048996E-16
5.130000E+03	7.847694E-15	4.042605E-16
5.140000E+03	7.898179E-15	4.036333E-16
5.150000E+03	7.953221E-15	4.029817E-16
5.160000E+03	8.012929E-15	4.022854E-16
5.170000E+03	8.077151E-15	4.015083E-16
5.180000E+03	8.145702E-15	4.006107E-16
5.190000E+03	8.218600E-15	3.995603E-16
5.200000E+03	8.295515E-15	3.983055E-16
5.210000E+03	8.376239E-15	3.967989E-16
5.220000E+03	8.460619E-15	3.949930E-16
5.230000E+03	8.548304E-15	3.928294E-16
5.240000E+03	8.639000E-15	3.902503E-16
5.250000E+03	8.732383E-15	3.871953E-16
5.260000E+03	8.828107E-15	3.836019E-16
5.270000E+03	8.925721E-15	3.794019E-16
5.280000E+03	9.024927E-15	3.745339E-16
5.290000E+03	9.125240E-15	3.689286E-16
5.300000E+03	9.226253E-15	3.625211E-16
5.310000E+03	9.327465E-15	3.552444E-16
5.320000E+03	9.428552E-15	3.470413E-16
5.330000E+03	9.529105E-15	3.378548E-16
5.340000E+03	9.628531E-15	3.276268E-16
5.350000E+03	9.726527E-15	3.163162E-16
5.360000E+03	9.822706E-15	3.038882E-16
5.370000E+03	9.916594E-15	2.903167E-16
5.380000E+03	1.000792E-14	2.755979E-16
5.390000E+03	1.009614E-14	2.597407E-16
5.400000E+03	1.018100E-14	2.427914E-16
5.410000E+03	1.026204E-14	2.248321E-16
5.420000E+03	1.033903E-14	2.060089E-16
5.430000E+03	1.041140E-14	1.865515E-16
5.440000E+03	1.047899E-14	1.668397E-16
5.450000E+03	1.054120E-14	1.474751E-16
5.460000E+03	1.059771E-14	1.294366E-16
5.470000E+03	1.064798E-14	1.142582E-16
5.480000E+03	1.069159E-14	1.041002E-16
5.490000E+03	1.072809E-14	1.012071E-16
5.500000E+03	1.075732E-14	1.064983E-16
5.510000E+03	1.077945E-14	1.187337E-16
5.520000E+03	1.079449E-14	1.356572E-16
5.530000E+03	1.080289E-14	1.552634E-16
5.540000E+03	1.080503E-14	1.761601E-16
5.550000E+03	1.080132E-14	1.974590E-16
5.560000E+03	1.079218E-14	2.186009E-16
5.570000E+03	1.077818E-14	2.392335E-16
5.580000E+03	1.075971E-14	2.591288E-16
5.590000E+03	1.073721E-14	2.781416E-16
5.600000E+03	1.071159E-14	2.961955E-16
5.610000E+03	1.068315E-14	3.132375E-16
5.620000E+03	1.065287E-14	3.292630E-16
5.630000E+03	1.062123E-14	3.442742E-16
5.640000E+03	1.058893E-14	3.582966E-16
5.650000E+03	1.055680E-14	3.713728E-16
5.660000E+03	1.052554E-14	3.835520E-16
5.670000E+03	1.049584E-14	3.948900E-16
5.680000E+03	1.046836E-14	4.054478E-16
5.690000E+03	1.044369E-14	4.152884E-16
5.700000E+03	1.042241E-14	4.244756E-16
5.710000E+03	1.040498E-14	4.330722E-16
5.720000E+03	1.039182E-14	4.411383E-16
5.730000E+03	1.038334E-14	4.487350E-16
5.740000E+03	1.037976E-14	4.559140E-16
5.750000E+03	1.038109E-14	4.627165E-16
5.760000E+03	1.038733E-14	4.691817E-16
5.770000E+03	1.039861E-14	4.753520E-16
5.780000E+03	1.041450E-14	4.812426E-16
5.790000E+03	1.043490E-14	4.868818E-16
5.800000E+03	1.045918E-14	4.922697E-16
5.810000E+03	1.048705E-14	4.974204E-16
5.820000E+03	1.051781E-14	5.023256E-16
5.830000E+03	1.055091E-14	5.069818E-16
5.840000E+03	1.058560E-14	5.113749E-16
5.850000E+03	1.062101E-14	5.154806E-16
5.860000E+03	1.065644E-14	5.192824E-16
5.870000E+03	1.069118E-14	5.227618E-16
5.880000E+03	1.072418E-14	5.258815E-16
5.890000E+03	1.075502E-14	5.286336E-16
5.900000E+03	1.078268E-14	5.309815E-16
5.910000E+03	1.080647E-14	5.329025E-16
5.920000E+03	1.082599E-14	5.343889E-16
5.930000E+03	1.084058E-14	5.354190E-16
5.940000E+03	1.084977E-14	5.359814E-16
5.950000E+03	1.085333E-14	5.360756E-16
5.960000E+03	1.085088E-14	5.356943E-16
5.970000E+03	1.084240E-14	5.348477E-16
5.980000E+03	1.082796E-14	5.335512E-16
5.990000E+03	1.080740E-14	5.318064E-16
6.000000E+03	1.078111E-14	5.296442E-16
6.010000E+03	1.074922E-14	5.270805E-16
6.020000E+03	1.071232E-14	5.241532E-16
6.030000E+03	1.067042E-14	5.208712E-16
6.040000E+03	1.062436E-14	5.172824E-16
6.050000E+03	1.057452E-14	5.134105E-16
6.060000E+03	1.052143E-14	5.092855E-16
6.070000E+03	1.046563E-14	5.049367E-16
6.080000E+03	1.040769E-14	5.003919E-16
6.090000E+03	1.034829E-14	4.956831E-16
6.100000E+03	1.028796E-14	4.908339E-16
6.110000E+03	1.022736E-14	4.858709E-16
6.120000E+03	1.016685E-14	4.808056E-16
6.130000E+03	1.010714E-14	4.756643E-16
6.140000E+03	1.004891E-14	4.704695E-16
6.150000E+03	9.992659E-15	4.652339E-16
6.160000E+03	9.939245E-15	4.599841E-16
6.170000E+03	9.889345E-15	4.547369E-16
6.180000E+03	9.842856E-15	4.494707E-16
6.190000E+03	9.799893E-15	4.441726E-16
6.200000E+03	9.760293E-15	4.388154E-16
6.210000E+03	9.723991E-15	4.333750E-16
6.220000E+03	9.690899E-15	4.278250E-16
6.230000E+03	9.661286E-15	4.221527E-16
6.240000E+03	9.635026E-15	4.163265E-16
6.250000E+03	9.612352E-15	4.103285E-16
6.260000E+03	9.593235E-15	4.041274E-16
6.270000E+03	9.577882E-15	3.976998E-16
6.280000E+03	9.566237E-15	3.910094E-16
6.290000E+03	9.558354E-15	3.840221E-16
6.300000E+03	9.554272E-15	3.767012E-16
6.310000E+03	9.554141E-15	3.690122E-16
6.320000E+03	9.557964E-15	3.609126E-16
6.330000E+03	9.565593E-15	3.523524E-16
6.340000E+03	9.577108E-15	3.432886E-16
6.350000E+03	9.592433E-15	3.336711E-16
6.360000E+03	9.611461E-15	3.234483E-16
6.370000E+03	9.634046E-15	3.125670E-16
6.380000E+03	9.660141E-15	3.009786E-16
6.390000E+03	9.689394E-15	2.886266E-16
6.400000E+03	9.721549E-15	2.754623E-16
6.410000E+03	9.756308E-15	2.614425E-16
6.420000E+03	9.793475E-15	2.465358E-16
6.430000E+03	9.832415E-15	2.307142E-16
6.440000E+03	9.872866E-15	2.139805E-16
6.450000E+03	9.914412E-15	1.963645E-16
6.460000E+03	9.956615E-15	1.779439E-16
6.470000E+03	9.998747E-15	1.588688E-16
6.480000E+03	1.004063E-14	1.394294E-16
6.490000E+03	1.008154E-14	1.201387E-16
6.500000E+03	1.012102E-14	1.019437E-16
6.510000E+03	1.015880E-14	8.656124E-17
6.520000E+03	1.019424E-14	7.677951E-17
6.530000E+03	1.022725E-14	7.568111E-17
6.540000E+03	1.025752E-14	8.388195E-17
6.550000E+03	1.028417E-14	9.881115E-17
6.560000E+03	1.030710E-14	1.174807E-16
6.570000E+03	1.032568E-14	1.378736E-16
6.580000E+03	1.033994E-14	1.588312E-16
6.590000E+03	1.034939E-14	1.796819E-16
6.600000E+03	1.035401E-14	2.000286E-16
6.610000E+03	1.035370E-14	2.196219E-16
6.620000E+03	1.034840E-14	2.383010E-16
6.630000E+03	1.033812E-14	2.559618E-16
6.640000E+03	1.032273E-14	2.725349E-16
6.650000E+03	1.030247E-14	2.879865E-16
6.660000E+03	1.027763E-14	3.023054E-16
6.670000E+03	1.024807E-14	3.154840E-16
6.680000E+03	1.021413E-14	3.275418E-16
6.690000E+03	1.017605E-14	3.385052E-16
6.700000E+03	1.013409E-14	3.484099E-16
6.710000E+03	1.008869E-14	3.573046E-16
6.720000E+03	1.003984E-14	3.652279E-16
6.730000E+03	9.988183E-15	3.722448E-16
6.740000E+03	9.933903E-15	3.784068E-16
6.750000E+03	9.877504E-15	3.837793E-16
6.760000E+03	9.819192E-15	3.884170E-16
6.770000E+03	9.759333E-15	3.923807E-16
6.780000E+03	9.698446E-15	3.957367E-16
6.790000E+03	9.636896E-15	3.985443E-16
6.800000E+03	9.574890E-15	4.008544E-16
6.810000E+03	9.512932E-15	4.027282E-16
6.820000E+03	9.451209E-15	4.042116E-16
6.830000E+03	9.390351E-15	4.053671E-16
6.840000E+03	9.330360E-15	4.062278E-16
6.850000E+03	9.271672E-15	4.068430E-16
6.860000E+03	9.214399E-15	4.072459E-16
6.870000E+03	9.159079E-15	4.074857E-16
6.880000E+03	9.105765E-15	4.075888E-16
6.890000E+03	9.054484E-15	4.075777E-16
6.900000E+03	9.005681E-15	4.074920E-16
6.910000E+03	8.959170E-15	4.073414E-16
6.920000E+03	8.915333E-15	4.071593E-16
6.930000E+03	8.873919E-15	4.069493E-16
6.940000E+03	8.835253E-15	4.067397E-16
6.950000E+03	8.799177E-15	4.065354E-16
6.960000E+03	8.765513E-15	4.063392E-16
6.970000E+03	8.734659E-15	4.061798E-16
6.980000E+03	8.706095E-15	4.060419E-16
6.990000E+03	8.679884E-15	4.059367E-16
7.000000E+03	8.656083E-15	4.058740E-16
7.010000E+03	8.634280E-15	4.058411E-16
7.020000E+03	8.614670E-15	4.058528E-16
7.030000E+03	8.596983E-15	4.059016E-16
7.040000E+03	8.581257E-15	4.059937E-16
7.050000E+03	8.567223E-15	4.061205E-16
7.060000E+03	8.554766E-15	4.062798E-16
7.070000E+03	8.543771E-15	4.064692E-16
7.080000E+03	8.534124E-15	4.066861E-16
7.090000E+03	8.525870E-15	4.069349E-16
7.100000E+03	8.518895E-15	4.072123E-16
7.110000E+03	8.512930E-15	4.075073E-16
7.120000E+03	8.507854E-15	4.078161E-16
7.130000E+03	8.503543E-15	4.081341E-16
7.140000E+03	8.500182E-15	4.084720E-16
7.150000E+03	8.497155E-15	4.088015E-16
7.160000E+03	8.494630E-15	4.091321E-16
7.170000E+03	8.492446E-15	4.094576E-16
7.180000E+03	8.490431E-15	4.097710E-16
7.190000E+03	8.488239E-15	4.100569E-16
7.200000E+03	8.485836E-15	4.103150E-16
7.210000E+03	8.483018E-15	4.105367E-16
7.220000E+03	8.479570E-15	4.107128E-16
7.230000E+03	8.475106E-15	4.108257E-16
7.240000E+03	8.469735E-15	4.108818E-16
7.250000E+03	8.463065E-15	4.108633E-16
7.260000E+03	8.455045E-15	4.107684E-16
7.270000E+03	8.445293E-15	4.105797E-16
7.280000E+03	8.433605E-15	4.102880E-16
7.290000E+03	8.420134E-15	4.099014E-16
7.300000E+03	8.404374E-15	4.093960E-16
7.310000E+03	8.386522E-15	4.087818E-16
7.320000E+03	8.366294E-15	4.080453E-16
7.330000E+03	8.343777E-15	4.071911E-16
7.340000E+03	8.319097E-15	4.062253E-16
7.350000E+03	8.292069E-15	4.051389E-16
7.360000E+03	8.263068E-15	4.039499E-16
7.370000E+03	8.231991E-15	4.026526E-16
7.380000E+03	8.199122E-15	4.012602E-16
7.390000E+03	8.164786E-15	3.997875E-16
7.400000E+03	8.129177E-15	3.982426E-16
7.410000E+03	8.092701E-15	3.966436E-16
7.420000E+03	8.055632E-15	3.950016E-16
7.430000E+03	8.018448E-15	3.933375E-16
7.440000E+03	7.981147E-15	3.916481E-16
7.450000E+03	7.944099E-15	3.899480E-16
7.460000E+03	7.907705E-15	3.882526E-16
7.470000E+03	7.872213E-15	3.865695E-16
7.480000E+03	7.837894E-15	3.849068E-16
7.490000E+03	7.805028E-15	3.832725E-16
7.500000E+03	7.774080E-15	3.816833E-16
7.510000E+03	7.745516E-15	3.801553E-16
7.520000E+03	7.719795E-15	3.787040E-16
7.530000E+03	7.697030E-15	3.773272E-16
7.540000E+03	7.677826E-15	3.760469E-16
7.550000E+03	7.662598E-15	3.748750E-16
7.560000E+03	7.651560E-15	3.738135E-16
7.570000E+03	7.645060E-15	3.728704E-16
7.580000E+03	7.643405E-15	3.720515E-16
7.590000E+03	7.647027E-15	3.713684E-16
7.600000E+03	7.655784E-15	3.708042E-16
7.610000E+03	7.669992E-15	3.703639E-16
7.620000E+03	7.689552E-15	3.700320E-16
7.630000E+03	7.714819E-15	3.698142E-16
7.640000E+03	7.745368E-15	3.696782E-16
7.650000E+03	7.781221E-15	3.696120E-16
7.660000E+03	7.821956E-15	3.695822E-16
7.670000E+03	7.867422E-15	3.695668E-16
7.680000E+03	7.917200E-15	3.695304E-16
7.690000E+03	7.970779E-15	3.694319E-16
7.700000E+03	8.027365E-15	3.692164E-16
7.710000E+03	8.086450E-15	3.688410E-16
7.720000E+03	8.147254E-15	3.682493E-16
7.730000E+03	8.208914E-15	3.673802E-16
7.740000E+03	8.270494E-15	3.661689E-16
7.750000E+03	8.330792E-15	3.645384E-16
7.760000E+03	8.389145E-15	3.624357E-16
