#wls	flux	fluxerr
1.600000E+03	4.651342E-16	3.467259E-16
1.640000E+03	4.693167E-16	3.450225E-16
1.680000E+03	4.735732E-16	3.431684E-16
1.720000E+03	4.780642E-16	3.412718E-16
1.760000E+03	4.827034E-16	3.392605E-16
1.800000E+03	4.876543E-16	3.372384E-16
1.840000E+03	4.927449E-16	3.350740E-16
1.880000E+03	4.982249E-16	3.329253E-16
1.920000E+03	5.040923E-16	3.307729E-16
1.960000E+03	5.103438E-16	3.285967E-16
2.000000E+03	5.171494E-16	3.264854E-16
2.040000E+03	5.245070E-16	3.244125E-16
2.080000E+03	5.325890E-16	3.224567E-16
2.120000E+03	5.413935E-16	3.205839E-16
2.160000E+03	5.510945E-16	3.188612E-16
2.200000E+03	5.618677E-16	3.173463E-16
2.240000E+03	5.735317E-16	3.158898E-16
2.280000E+03	5.862595E-16	3.145418E-16
2.320000E+03	5.998639E-16	3.131538E-16
2.360000E+03	6.144245E-16	3.117232E-16
2.400000E+03	6.297483E-16	3.101076E-16
2.440000E+03	6.458203E-16	3.082615E-16
2.480000E+03	6.626243E-16	3.061395E-16
2.520000E+03	6.801433E-16	3.036974E-16
2.560000E+03	6.983595E-16	3.008919E-16
2.600000E+03	7.171635E-16	2.976436E-16
2.640000E+03	7.365372E-16	2.939170E-16
2.680000E+03	7.564629E-16	2.896792E-16
2.720000E+03	7.771070E-16	2.849669E-16
2.760000E+03	7.983617E-16	2.797114E-16
2.800000E+03	8.203941E-16	2.739440E-16
2.840000E+03	8.430971E-16	2.675998E-16
2.880000E+03	8.663633E-16	2.606228E-16
2.920000E+03	8.899935E-16	2.529400E-16
2.960000E+03	9.138778E-16	2.445183E-16
3.000000E+03	9.379918E-16	2.353566E-16
3.010000E+03	9.441119E-16	2.329654E-16
3.020000E+03	9.502042E-16	2.305180E-16
3.030000E+03	9.563583E-16	2.280366E-16
3.040000E+03	9.624832E-16	2.254994E-16
3.050000E+03	9.686683E-16	2.229279E-16
3.060000E+03	9.749125E-16	2.203216E-16
3.070000E+03	9.811248E-16	2.176600E-16
3.080000E+03	9.873941E-16	2.149633E-16
3.090000E+03	9.937192E-16	2.122312E-16
3.100000E+03	1.000009E-15	2.094445E-16
3.110000E+03	1.006441E-15	2.066407E-16
3.120000E+03	1.012836E-15	2.037823E-16
3.130000E+03	1.019369E-15	2.009054E-16
3.140000E+03	1.025860E-15	1.979743E-16
3.150000E+03	1.032487E-15	1.950235E-16
3.160000E+03	1.039156E-15	1.920353E-16
3.170000E+03	1.045867E-15	1.890096E-16
3.180000E+03	1.052705E-15	1.859621E-16
3.190000E+03	1.059578E-15	1.828765E-16
3.200000E+03	1.066572E-15	1.797679E-16
3.210000E+03	1.073595E-15	1.766207E-16
3.220000E+03	1.080820E-15	1.734639E-16
3.230000E+03	1.088066E-15	1.702679E-16
3.240000E+03	1.095417E-15	1.670468E-16
3.250000E+03	1.102956E-15	1.638135E-16
3.260000E+03	1.110590E-15	1.605539E-16
3.270000E+03	1.118314E-15	1.572679E-16
3.280000E+03	1.126296E-15	1.539799E-16
3.290000E+03	1.134355E-15	1.506649E-16
3.300000E+03	1.142571E-15	1.473348E-16
3.310000E+03	1.150936E-15	1.439896E-16
3.320000E+03	1.159529E-15	1.406401E-16
3.330000E+03	1.168341E-15	1.372860E-16
3.340000E+03	1.177274E-15	1.339173E-16
3.350000E+03	1.186491E-15	1.305547E-16
3.360000E+03	1.195982E-15	1.271982E-16
3.370000E+03	1.205645E-15	1.238395E-16
3.380000E+03	1.215555E-15	1.204895E-16
3.390000E+03	1.225782E-15	1.171584E-16
3.400000E+03	1.236310E-15	1.138482E-16
3.410000E+03	1.247037E-15	1.105541E-16
3.420000E+03	1.258199E-15	1.073028E-16
3.430000E+03	1.269607E-15	1.040837E-16
3.440000E+03	1.281408E-15	1.009166E-16
3.450000E+03	1.293579E-15	9.780750E-17
3.460000E+03	1.306179E-15	9.477026E-17
3.470000E+03	1.319098E-15	9.180765E-17
3.480000E+03	1.332474E-15	8.894207E-17
3.490000E+03	1.346276E-15	8.618510E-17
3.500000E+03	1.360473E-15	8.355032E-17
3.510000E+03	1.375114E-15	8.105803E-17
3.520000E+03	1.390244E-15	7.872935E-17
3.530000E+03	1.405826E-15	7.658154E-17
3.540000E+03	1.421823E-15	7.463283E-17
3.550000E+03	1.438276E-15	7.290567E-17
3.560000E+03	1.455066E-15	7.141324E-17
3.570000E+03	1.472317E-15	7.017872E-17
3.580000E+03	1.489832E-15	6.920633E-17
3.590000E+03	1.507582E-15	6.850379E-17
3.600000E+03	1.525618E-15	6.807652E-17
3.610000E+03	1.543919E-15	6.791958E-17
3.620000E+03	1.562316E-15	6.801482E-17
3.630000E+03	1.580955E-15	6.835192E-17
3.640000E+03	1.599679E-15	6.890227E-17
3.650000E+03	1.618564E-15	6.964372E-17
3.660000E+03	1.637540E-15	7.054529E-17
3.670000E+03	1.656688E-15	7.158151E-17
3.680000E+03	1.675871E-15	7.271737E-17
3.690000E+03	1.695175E-15	7.392840E-17
3.700000E+03	1.714614E-15	7.518852E-17
3.710000E+03	1.734202E-15	7.647369E-17
3.720000E+03	1.753815E-15	7.775589E-17
3.730000E+03	1.773613E-15	7.902217E-17
3.740000E+03	1.793474E-15	8.024955E-17
3.750000E+03	1.813418E-15	8.142386E-17
3.760000E+03	1.833534E-15	8.253642E-17
3.770000E+03	1.853705E-15	8.357177E-17
3.780000E+03	1.874019E-15	8.452593E-17
3.790000E+03	1.894426E-15	8.539107E-17
3.800000E+03	1.914946E-15	8.616451E-17
3.810000E+03	1.935529E-15	8.684269E-17
3.820000E+03	1.956255E-15	8.742982E-17
3.830000E+03	1.977007E-15	8.792319E-17
3.840000E+03	1.997861E-15	8.833037E-17
3.850000E+03	2.018819E-15	8.865731E-17
3.860000E+03	2.039755E-15	8.890561E-17
3.870000E+03	2.060726E-15	8.908600E-17
3.880000E+03	2.081658E-15	8.920435E-17
3.890000E+03	2.102471E-15	8.926700E-17
3.900000E+03	2.123202E-15	8.928557E-17
3.910000E+03	2.143764E-15	8.926645E-17
3.920000E+03	2.164124E-15	8.921838E-17
3.930000E+03	2.184191E-15	8.914730E-17
3.940000E+03	2.203933E-15	8.906123E-17
3.950000E+03	2.223260E-15	8.896531E-17
3.960000E+03	2.242204E-15	8.886868E-17
3.970000E+03	2.260627E-15	8.877285E-17
3.980000E+03	2.278514E-15	8.868305E-17
3.990000E+03	2.295912E-15	8.860563E-17
4.000000E+03	2.312654E-15	8.853719E-17
4.010000E+03	2.328859E-15	8.848401E-17
4.020000E+03	2.344491E-15	8.844485E-17
4.030000E+03	2.359526E-15	8.841760E-17
4.040000E+03	2.373953E-15	8.839944E-17
4.050000E+03	2.387932E-15	8.839283E-17
4.060000E+03	2.401371E-15	8.838974E-17
4.070000E+03	2.414401E-15	8.838969E-17
4.080000E+03	2.427113E-15	8.838988E-17
4.090000E+03	2.439506E-15	8.838357E-17
4.100000E+03	2.451794E-15	8.837145E-17
4.110000E+03	2.463947E-15	8.834500E-17
4.120000E+03	2.476194E-15	8.830500E-17
4.130000E+03	2.488617E-15	8.824697E-17
4.140000E+03	2.501300E-15	8.816680E-17
4.150000E+03	2.514428E-15	8.806420E-17
4.160000E+03	2.528083E-15	8.793573E-17
4.170000E+03	2.542347E-15	8.777836E-17
4.180000E+03	2.557436E-15	8.759438E-17
4.190000E+03	2.573369E-15	8.737979E-17
4.200000E+03	2.590249E-15	8.713439E-17
4.210000E+03	2.608217E-15	8.686018E-17
4.220000E+03	2.627355E-15	8.655824E-17
4.230000E+03	2.647684E-15	8.622903E-17
4.240000E+03	2.669306E-15	8.587723E-17
4.250000E+03	2.692216E-15	8.550572E-17
4.260000E+03	2.716489E-15	8.512194E-17
4.270000E+03	2.742187E-15	8.473509E-17
4.280000E+03	2.769219E-15	8.435199E-17
4.290000E+03	2.797714E-15	8.398894E-17
4.300000E+03	2.827557E-15	8.365733E-17
4.310000E+03	2.858811E-15	8.337639E-17
4.320000E+03	2.891386E-15	8.316309E-17
4.330000E+03	2.925325E-15	8.303990E-17
4.340000E+03	2.960523E-15	8.302581E-17
4.350000E+03	2.997012E-15	8.314341E-17
4.360000E+03	3.034728E-15	8.341095E-17
4.370000E+03	3.073604E-15	8.384362E-17
4.380000E+03	3.113680E-15	8.445490E-17
4.390000E+03	3.154857E-15	8.524875E-17
4.400000E+03	3.197149E-15	8.622494E-17
4.410000E+03	3.240583E-15	8.737632E-17
4.420000E+03	3.285145E-15	8.868880E-17
4.430000E+03	3.330818E-15	9.014377E-17
4.440000E+03	3.377628E-15	9.172077E-17
4.450000E+03	3.425484E-15	9.339475E-17
4.460000E+03	3.474369E-15	9.514266E-17
4.470000E+03	3.524139E-15	9.693902E-17
4.480000E+03	3.574661E-15	9.876089E-17
4.490000E+03	3.625766E-15	1.005870E-16
4.500000E+03	3.677138E-15	1.023951E-16
4.510000E+03	3.728572E-15	1.041695E-16
4.520000E+03	3.779716E-15	1.058933E-16
4.530000E+03	3.830172E-15	1.075516E-16
4.540000E+03	3.879561E-15	1.091322E-16
4.550000E+03	3.927414E-15	1.106231E-16
4.560000E+03	3.973238E-15	1.120131E-16
4.570000E+03	4.016636E-15	1.132955E-16
4.580000E+03	4.057049E-15	1.144605E-16
4.590000E+03	4.094043E-15	1.155023E-16
4.600000E+03	4.127212E-15	1.164167E-16
4.610000E+03	4.156093E-15	1.171976E-16
4.620000E+03	4.180502E-15	1.178462E-16
4.630000E+03	4.200113E-15	1.183592E-16
4.640000E+03	4.214799E-15	1.187371E-16
4.650000E+03	4.224524E-15	1.189821E-16
4.660000E+03	4.229350E-15	1.190973E-16
4.670000E+03	4.229378E-15	1.190856E-16
4.680000E+03	4.224956E-15	1.189557E-16
4.690000E+03	4.216243E-15	1.187100E-16
4.700000E+03	4.203778E-15	1.183609E-16
4.710000E+03	4.187888E-15	1.179145E-16
4.720000E+03	4.169037E-15	1.173811E-16
4.730000E+03	4.147764E-15	1.167729E-16
4.740000E+03	4.124512E-15	1.161001E-16
4.750000E+03	4.099820E-15	1.153757E-16
4.760000E+03	4.074115E-15	1.146102E-16
4.770000E+03	4.047799E-15	1.138133E-16
4.780000E+03	4.021339E-15	1.129969E-16
4.790000E+03	3.995019E-15	1.121677E-16
4.800000E+03	3.969221E-15	1.113350E-16
4.810000E+03	3.944179E-15	1.105040E-16
4.820000E+03	3.920215E-15	1.096827E-16
4.830000E+03	3.897503E-15	1.088750E-16
4.840000E+03	3.876122E-15	1.080828E-16
4.850000E+03	3.856195E-15	1.073100E-16
4.860000E+03	3.837804E-15	1.065601E-16
4.870000E+03	3.820906E-15	1.058345E-16
4.880000E+03	3.805520E-15	1.051372E-16
4.890000E+03	3.791597E-15	1.044712E-16
4.900000E+03	3.779027E-15	1.038389E-16
4.910000E+03	3.767768E-15	1.032449E-16
4.920000E+03	3.757726E-15	1.026921E-16
4.930000E+03	3.748798E-15	1.021831E-16
4.940000E+03	3.740840E-15	1.017181E-16
4.950000E+03	3.733839E-15	1.013001E-16
4.960000E+03	3.727679E-15	1.009274E-16
4.970000E+03	3.722317E-15	1.005988E-16
4.980000E+03	3.717754E-15	1.003126E-16
4.990000E+03	3.714042E-15	1.000673E-16
5.000000E+03	3.711329E-15	9.986251E-17
5.010000E+03	3.709742E-15	9.969637E-17
5.020000E+03	3.709541E-15	9.956984E-17
5.030000E+03	3.710950E-15	9.948237E-17
5.040000E+03	3.714309E-15	9.943603E-17
5.050000E+03	3.719935E-15	9.943203E-17
5.060000E+03	3.728115E-15	9.947056E-17
5.070000E+03	3.739246E-15	9.955494E-17
5.080000E+03	3.753590E-15	9.968520E-17
5.090000E+03	3.771378E-15	9.986125E-17
5.100000E+03	3.792970E-15	1.000869E-16
5.110000E+03	3.818444E-15	1.003594E-16
5.120000E+03	3.848039E-15	1.006807E-16
5.130000E+03	3.881870E-15	1.010505E-16
5.140000E+03	3.920010E-15	1.014685E-16
5.150000E+03	3.962454E-15	1.019336E-16
5.160000E+03	4.009234E-15	1.024472E-16
5.170000E+03	4.060301E-15	1.030098E-16
5.180000E+03	4.115559E-15	1.036217E-16
5.190000E+03	4.174864E-15	1.042825E-16
5.200000E+03	4.238020E-15	1.049900E-16
5.210000E+03	4.304817E-15	1.057415E-16
5.220000E+03	4.374855E-15	1.065284E-16
5.230000E+03	4.447852E-15	1.073443E-16
5.240000E+03	4.523377E-15	1.081783E-16
5.250000E+03	4.600894E-15	1.090160E-16
5.260000E+03	4.679854E-15	1.098420E-16
5.270000E+03	4.759659E-15	1.106383E-16
5.280000E+03	4.839711E-15	1.113860E-16
5.290000E+03	4.919332E-15	1.120624E-16
5.300000E+03	4.997768E-15	1.126419E-16
5.310000E+03	5.074303E-15	1.130989E-16
5.320000E+03	5.148277E-15	1.134093E-16
5.330000E+03	5.219003E-15	1.135494E-16
5.340000E+03	5.285776E-15	1.134972E-16
5.350000E+03	5.348000E-15	1.132368E-16
5.360000E+03	5.405210E-15	1.127593E-16
5.370000E+03	5.456921E-15	1.120606E-16
5.380000E+03	5.502862E-15	1.111472E-16
5.390000E+03	5.542762E-15	1.100321E-16
5.400000E+03	5.576509E-15	1.087399E-16
5.410000E+03	5.604142E-15	1.073070E-16
5.420000E+03	5.625652E-15	1.057784E-16
5.430000E+03	5.641133E-15	1.042112E-16
5.440000E+03	5.650738E-15	1.026722E-16
5.450000E+03	5.654485E-15	1.012321E-16
5.460000E+03	5.652450E-15	9.996467E-17
5.470000E+03	5.644530E-15	9.893611E-17
5.480000E+03	5.630601E-15	9.820029E-17
5.490000E+03	5.610537E-15	9.779094E-17
5.500000E+03	5.584052E-15	9.771033E-17
5.510000E+03	5.550898E-15	9.792795E-17
5.520000E+03	5.510897E-15	9.838816E-17
5.530000E+03	5.464068E-15	9.902123E-17
5.540000E+03	5.410564E-15	9.975073E-17
5.550000E+03	5.350748E-15	1.005030E-16
5.560000E+03	5.285248E-15	1.012148E-16
5.570000E+03	5.214779E-15	1.018343E-16
5.580000E+03	5.140326E-15	1.023271E-16
5.590000E+03	5.062940E-15	1.026731E-16
5.600000E+03	4.983757E-15	1.028659E-16
5.610000E+03	4.903916E-15	1.029099E-16
5.620000E+03	4.824671E-15	1.028203E-16
5.630000E+03	4.747228E-15	1.026177E-16
5.640000E+03	4.672779E-15	1.023266E-16
5.650000E+03	4.602534E-15	1.019741E-16
5.660000E+03	4.537530E-15	1.015848E-16
5.670000E+03	4.478894E-15	1.011853E-16
5.680000E+03	4.427681E-15	1.008010E-16
5.690000E+03	4.384780E-15	1.004538E-16
5.700000E+03	4.351027E-15	1.001648E-16
5.710000E+03	4.327151E-15	9.995322E-17
5.720000E+03	4.313812E-15	9.983784E-17
5.730000E+03	4.311465E-15	9.983415E-17
5.740000E+03	4.320530E-15	9.995874E-17
5.750000E+03	4.341217E-15	1.002256E-16
5.760000E+03	4.373689E-15	1.006502E-16
5.770000E+03	4.417879E-15	1.012451E-16
5.780000E+03	4.473642E-15	1.020236E-16
5.790000E+03	4.540567E-15	1.029945E-16
5.800000E+03	4.618130E-15	1.041652E-16
5.810000E+03	4.705497E-15	1.055363E-16
5.820000E+03	4.801703E-15	1.071040E-16
5.830000E+03	4.905465E-15	1.088552E-16
5.840000E+03	5.015337E-15	1.107696E-16
5.850000E+03	5.129741E-15	1.128193E-16
5.860000E+03	5.246851E-15	1.149660E-16
5.870000E+03	5.364795E-15	1.171649E-16
5.880000E+03	5.481655E-15	1.193654E-16
5.890000E+03	5.595521E-15	1.215123E-16
5.900000E+03	5.704553E-15	1.235494E-16
5.910000E+03	5.807024E-15	1.254215E-16
5.920000E+03	5.901299E-15	1.270772E-16
5.930000E+03	5.985990E-15	1.284744E-16
5.940000E+03	6.059981E-15	1.295834E-16
5.950000E+03	6.122278E-15	1.303846E-16
5.960000E+03	6.172141E-15	1.308719E-16
5.970000E+03	6.209297E-15	1.310549E-16
5.980000E+03	6.233458E-15	1.309466E-16
5.990000E+03	6.244951E-15	1.305733E-16
6.000000E+03	6.244207E-15	1.299615E-16
6.010000E+03	6.231925E-15	1.291402E-16
6.020000E+03	6.209161E-15	1.281413E-16
6.030000E+03	6.177030E-15	1.269935E-16
6.040000E+03	6.136838E-15	1.257251E-16
6.050000E+03	6.089900E-15	1.243605E-16
6.060000E+03	6.037671E-15	1.229234E-16
6.070000E+03	5.981387E-15	1.214303E-16
6.080000E+03	5.922389E-15	1.198975E-16
6.090000E+03	5.861732E-15	1.183349E-16
6.100000E+03	5.800578E-15	1.167548E-16
6.110000E+03	5.739713E-15	1.151634E-16
6.120000E+03	5.679893E-15	1.135686E-16
6.130000E+03	5.621727E-15	1.119783E-16
6.140000E+03	5.565618E-15	1.103996E-16
6.150000E+03	5.511886E-15	1.088410E-16
6.160000E+03	5.460708E-15	1.073116E-16
6.170000E+03	5.412133E-15	1.058199E-16
6.180000E+03	5.365977E-15	1.043717E-16
6.190000E+03	5.322165E-15	1.029747E-16
6.200000E+03	5.280372E-15	1.016308E-16
6.210000E+03	5.240322E-15	1.003414E-16
6.220000E+03	5.201609E-15	9.910305E-17
6.230000E+03	5.164004E-15	9.791337E-17
6.240000E+03	5.127166E-15	9.676572E-17
6.250000E+03	5.090891E-15	9.565390E-17
6.260000E+03	5.055178E-15	9.457370E-17
6.270000E+03	5.019932E-15	9.351750E-17
6.280000E+03	4.985376E-15	9.248239E-17
6.290000E+03	4.951684E-15	9.146345E-17
6.300000E+03	4.919223E-15	9.045854E-17
6.310000E+03	4.888425E-15	8.946623E-17
6.320000E+03	4.859618E-15	8.848262E-17
6.330000E+03	4.833351E-15	8.750759E-17
6.340000E+03	4.810067E-15	8.653879E-17
6.350000E+03	4.790175E-15	8.557304E-17
6.360000E+03	4.774078E-15	8.460706E-17
6.370000E+03	4.761997E-15	8.363450E-17
6.380000E+03	4.754148E-15	8.264944E-17
6.390000E+03	4.750633E-15	8.164457E-17
6.400000E+03	4.751373E-15	8.061080E-17
6.410000E+03	4.756154E-15	7.953914E-17
6.420000E+03	4.764692E-15	7.842367E-17
6.430000E+03	4.776533E-15	7.726256E-17
6.440000E+03	4.791236E-15	7.606373E-17
6.450000E+03	4.808130E-15	7.484396E-17
6.460000E+03	4.826604E-15	7.363607E-17
6.470000E+03	4.845974E-15	7.248859E-17
6.480000E+03	4.865613E-15	7.146812E-17
6.490000E+03	4.884865E-15	7.065573E-17
6.500000E+03	4.903112E-15	7.014216E-17
6.510000E+03	4.919778E-15	7.001806E-17
6.520000E+03	4.934327E-15	7.036039E-17
6.530000E+03	4.946254E-15	7.121593E-17
6.540000E+03	4.955048E-15	7.257921E-17
6.550000E+03	4.960181E-15	7.438706E-17
6.560000E+03	4.961195E-15	7.654020E-17
6.570000E+03	4.957561E-15	7.891793E-17
6.580000E+03	4.948978E-15	8.139666E-17
6.590000E+03	4.935002E-15	8.385507E-17
6.600000E+03	4.915523E-15	8.618933E-17
6.610000E+03	4.890379E-15	8.831119E-17
6.620000E+03	4.859653E-15	9.015491E-17
6.630000E+03	4.823501E-15	9.167460E-17
6.640000E+03	4.782202E-15	9.284430E-17
6.650000E+03	4.736146E-15	9.365623E-17
6.660000E+03	4.685866E-15	9.411967E-17
6.670000E+03	4.631910E-15	9.425598E-17
6.680000E+03	4.574869E-15	9.409649E-17
6.690000E+03	4.515297E-15	9.367793E-17
6.700000E+03	4.453910E-15	9.304355E-17
6.710000E+03	4.391289E-15	9.223454E-17
6.720000E+03	4.327926E-15	9.128921E-17
6.730000E+03	4.264379E-15	9.024505E-17
6.740000E+03	4.201050E-15	8.913374E-17
6.750000E+03	4.138451E-15	8.798678E-17
6.760000E+03	4.076894E-15	8.682921E-17
6.770000E+03	4.016751E-15	8.568543E-17
6.780000E+03	3.958210E-15	8.457395E-17
6.790000E+03	3.901682E-15	8.351582E-17
6.800000E+03	3.847304E-15	8.252375E-17
6.810000E+03	3.795348E-15	8.161033E-17
6.820000E+03	3.745977E-15	8.078265E-17
6.830000E+03	3.699487E-15	8.004760E-17
6.840000E+03	3.655979E-15	7.940541E-17
6.850000E+03	3.615726E-15	7.885863E-17
6.860000E+03	3.578847E-15	7.840577E-17
6.870000E+03	3.545442E-15	7.804493E-17
6.880000E+03	3.515721E-15	7.777705E-17
6.890000E+03	3.489768E-15	7.760093E-17
6.900000E+03	3.467538E-15	7.751311E-17
6.910000E+03	3.449123E-15	7.751367E-17
6.920000E+03	3.434430E-15	7.759894E-17
6.930000E+03	3.423365E-15	7.776539E-17
6.940000E+03	3.415830E-15	7.800959E-17
6.950000E+03	3.411600E-15	7.832525E-17
6.960000E+03	3.410461E-15	7.870660E-17
6.970000E+03	3.412225E-15	7.914882E-17
6.980000E+03	3.416604E-15	7.964531E-17
6.990000E+03	3.423358E-15	8.019107E-17
7.000000E+03	3.432303E-15	8.078300E-17
7.010000E+03	3.443141E-15	8.141559E-17
7.020000E+03	3.455779E-15	8.208852E-17
7.030000E+03	3.470022E-15	8.279898E-17
7.040000E+03	3.485749E-15	8.354589E-17
7.050000E+03	3.502874E-15	8.432870E-17
7.060000E+03	3.521342E-15	8.514724E-17
7.070000E+03	3.541075E-15	8.600040E-17
7.080000E+03	3.562158E-15	8.689061E-17
7.090000E+03	3.584503E-15	8.781557E-17
7.100000E+03	3.608122E-15	8.877506E-17
7.110000E+03	3.633079E-15	8.976971E-17
7.120000E+03	3.659382E-15	9.079851E-17
7.130000E+03	3.686926E-15	9.185737E-17
7.140000E+03	3.715787E-15	9.294637E-17
7.150000E+03	3.745864E-15	9.406102E-17
7.160000E+03	3.777023E-15	9.519572E-17
7.170000E+03	3.809204E-15	9.634645E-17
7.180000E+03	3.842205E-15	9.750558E-17
7.190000E+03	3.875847E-15	9.866591E-17
7.200000E+03	3.909914E-15	9.981954E-17
7.210000E+03	3.944163E-15	1.009581E-16
7.220000E+03	3.978321E-15	1.020731E-16
7.230000E+03	4.011977E-15	1.031531E-16
7.240000E+03	4.044918E-15	1.041923E-16
7.250000E+03	4.076688E-15	1.051796E-16
7.260000E+03	4.106925E-15	1.061071E-16
7.270000E+03	4.135258E-15	1.069668E-16
7.280000E+03	4.161315E-15	1.077513E-16
7.290000E+03	4.184671E-15	1.084518E-16
7.300000E+03	4.204977E-15	1.090615E-16
7.310000E+03	4.221853E-15	1.095728E-16
7.320000E+03	4.234960E-15	1.099788E-16
7.330000E+03	4.244183E-15	1.102780E-16
7.340000E+03	4.249169E-15	1.104629E-16
7.350000E+03	4.249808E-15	1.105318E-16
7.360000E+03	4.246110E-15	1.104859E-16
7.370000E+03	4.237978E-15	1.103236E-16
7.380000E+03	4.225495E-15	1.100478E-16
7.390000E+03	4.208748E-15	1.096615E-16
7.400000E+03	4.188001E-15	1.091723E-16
7.410000E+03	4.163396E-15	1.085844E-16
7.420000E+03	4.135242E-15	1.079065E-16
7.430000E+03	4.103954E-15	1.071495E-16
7.440000E+03	4.069876E-15	1.063225E-16
7.450000E+03	4.033387E-15	1.054351E-16
7.460000E+03	3.995077E-15	1.045018E-16
7.470000E+03	3.955394E-15	1.035330E-16
7.480000E+03	3.914981E-15	1.025441E-16
7.490000E+03	3.874277E-15	1.015443E-16
7.500000E+03	3.834018E-15	1.005503E-16
7.510000E+03	3.794724E-15	9.957288E-17
7.520000E+03	3.757033E-15	9.862539E-17
7.530000E+03	3.721527E-15	9.771930E-17
7.540000E+03	3.688833E-15	9.686696E-17
7.550000E+03	3.659513E-15	9.607849E-17
7.560000E+03	3.634107E-15	9.536315E-17
7.570000E+03	3.613179E-15	9.473054E-17
7.580000E+03	3.597256E-15	9.418904E-17
7.590000E+03	3.586714E-15	9.374306E-17
7.600000E+03	3.582031E-15	9.339985E-17
7.610000E+03	3.583408E-15	9.315989E-17
7.620000E+03	3.591186E-15	9.302787E-17
7.630000E+03	3.605462E-15	9.300310E-17
7.640000E+03	3.626408E-15	9.308760E-17
7.650000E+03	3.653880E-15	9.327623E-17
7.660000E+03	3.687845E-15	9.356738E-17
7.670000E+03	3.727938E-15	9.395163E-17
7.680000E+03	3.773957E-15	9.442422E-17
7.690000E+03	3.825253E-15	9.496960E-17
7.700000E+03	3.881351E-15	9.557701E-17
7.710000E+03	3.941560E-15	9.623072E-17
7.720000E+03	4.005037E-15	9.691153E-17
7.730000E+03	4.070915E-15	9.759978E-17
7.740000E+03	4.138321E-15	9.827567E-17
7.750000E+03	4.206272E-15	9.891662E-17
7.760000E+03	4.273625E-15	9.949600E-17
