#wls	flux	fluxerr
1.600000E+03	5.306179E-16	3.942810E-16
1.640000E+03	5.360720E-16	3.927692E-16
1.680000E+03	5.416879E-16	3.911235E-16
1.720000E+03	5.476364E-16	3.894550E-16
1.760000E+03	5.538230E-16	3.876815E-16
1.800000E+03	5.602405E-16	3.857845E-16
1.840000E+03	5.671503E-16	3.839279E-16
1.880000E+03	5.744561E-16	3.820248E-16
1.920000E+03	5.821488E-16	3.800497E-16
1.960000E+03	5.905836E-16	3.782103E-16
2.000000E+03	5.995692E-16	3.763530E-16
2.040000E+03	6.093698E-16	3.746134E-16
2.080000E+03	6.201585E-16	3.730580E-16
2.120000E+03	6.319226E-16	3.716339E-16
2.160000E+03	6.448319E-16	3.703928E-16
2.200000E+03	6.590541E-16	3.693749E-16
2.240000E+03	6.745673E-16	3.685066E-16
2.280000E+03	6.914380E-16	3.677615E-16
2.320000E+03	7.095404E-16	3.670089E-16
2.360000E+03	7.289303E-16	3.662160E-16
2.400000E+03	7.495643E-16	3.652983E-16
2.440000E+03	7.712990E-16	3.641261E-16
2.480000E+03	7.941734E-16	3.626622E-16
2.520000E+03	8.180333E-16	3.607821E-16
2.560000E+03	8.428137E-16	3.584096E-16
2.600000E+03	8.685382E-16	3.555099E-16
2.640000E+03	8.951328E-16	3.520096E-16
2.680000E+03	9.224275E-16	3.478057E-16
2.720000E+03	9.506199E-16	3.429403E-16
2.760000E+03	9.795338E-16	3.373161E-16
2.800000E+03	1.009358E-15	3.309692E-16
2.840000E+03	1.039821E-15	3.237824E-16
2.880000E+03	1.070925E-15	3.157392E-16
2.920000E+03	1.102312E-15	3.067259E-16
2.960000E+03	1.133897E-15	2.967266E-16
3.000000E+03	1.165594E-15	2.857335E-16
3.010000E+03	1.173621E-15	2.828528E-16
3.020000E+03	1.181554E-15	2.798872E-16
3.030000E+03	1.189568E-15	2.768786E-16
3.040000E+03	1.197572E-15	2.738062E-16
3.050000E+03	1.205567E-15	2.706702E-16
3.060000E+03	1.213635E-15	2.674899E-16
3.070000E+03	1.221689E-15	2.642459E-16
3.080000E+03	1.229813E-15	2.609566E-16
3.090000E+03	1.237919E-15	2.576036E-16
3.100000E+03	1.246091E-15	2.542046E-16
3.110000E+03	1.254326E-15	2.507589E-16
3.120000E+03	1.262621E-15	2.472659E-16
3.130000E+03	1.270973E-15	2.437250E-16
3.140000E+03	1.279296E-15	2.401198E-16
3.150000E+03	1.287755E-15	2.364818E-16
3.160000E+03	1.296263E-15	2.327945E-16
3.170000E+03	1.304816E-15	2.290575E-16
3.180000E+03	1.313495E-15	2.252849E-16
3.190000E+03	1.322212E-15	2.214614E-16
3.200000E+03	1.331046E-15	2.176004E-16
3.210000E+03	1.339992E-15	2.137010E-16
3.220000E+03	1.349047E-15	2.097622E-16
3.230000E+03	1.358123E-15	2.057706E-16
3.240000E+03	1.367379E-15	2.017508E-16
3.250000E+03	1.376809E-15	1.977013E-16
3.260000E+03	1.386325E-15	1.936093E-16
3.270000E+03	1.396003E-15	1.894857E-16
3.280000E+03	1.405755E-15	1.853188E-16
3.290000E+03	1.415736E-15	1.811297E-16
3.300000E+03	1.425856E-15	1.769068E-16
3.310000E+03	1.436189E-15	1.726598E-16
3.320000E+03	1.446645E-15	1.683786E-16
3.330000E+03	1.457375E-15	1.640818E-16
3.340000E+03	1.468289E-15	1.597599E-16
3.350000E+03	1.479377E-15	1.554137E-16
3.360000E+03	1.490785E-15	1.510603E-16
3.370000E+03	1.502423E-15	1.466921E-16
3.380000E+03	1.514277E-15	1.423109E-16
3.390000E+03	1.526490E-15	1.379335E-16
3.400000E+03	1.538970E-15	1.335551E-16
3.410000E+03	1.551701E-15	1.291797E-16
3.420000E+03	1.564897E-15	1.248310E-16
3.430000E+03	1.578386E-15	1.205019E-16
3.440000E+03	1.592301E-15	1.162114E-16
3.450000E+03	1.606547E-15	1.119630E-16
3.460000E+03	1.621326E-15	1.077834E-16
3.470000E+03	1.636540E-15	1.036806E-16
3.480000E+03	1.652310E-15	9.968022E-17
3.490000E+03	1.668536E-15	9.579729E-17
3.500000E+03	1.685408E-15	9.206816E-17
3.510000E+03	1.702821E-15	8.851635E-17
3.520000E+03	1.720884E-15	8.518222E-17
3.530000E+03	1.739562E-15	8.210317E-17
3.540000E+03	1.758886E-15	7.932488E-17
3.550000E+03	1.778745E-15	7.689035E-17
3.560000E+03	1.799168E-15	7.485102E-17
3.570000E+03	1.820045E-15	7.325104E-17
3.580000E+03	1.841267E-15	7.212923E-17
3.590000E+03	1.862870E-15	7.151853E-17
3.600000E+03	1.884692E-15	7.142674E-17
3.610000E+03	1.906723E-15	7.184596E-17
3.620000E+03	1.928895E-15	7.274546E-17
3.630000E+03	1.951217E-15	7.408122E-17
3.640000E+03	1.973637E-15	7.579618E-17
3.650000E+03	1.996174E-15	7.783057E-17
3.660000E+03	2.018717E-15	8.011859E-17
3.670000E+03	2.041419E-15	8.260688E-17
3.680000E+03	2.064111E-15	8.523324E-17
3.690000E+03	2.086882E-15	8.795105E-17
3.700000E+03	2.109630E-15	9.071135E-17
3.710000E+03	2.132445E-15	9.347878E-17
3.720000E+03	2.155291E-15	9.621790E-17
3.730000E+03	2.178069E-15	9.889535E-17
3.740000E+03	2.200930E-15	1.014934E-16
3.750000E+03	2.223837E-15	1.039900E-16
3.760000E+03	2.246693E-15	1.063639E-16
3.770000E+03	2.269523E-15	1.086028E-16
3.780000E+03	2.292408E-15	1.107002E-16
3.790000E+03	2.315251E-15	1.126440E-16
3.800000E+03	2.338131E-15	1.144328E-16
3.810000E+03	2.360946E-15	1.160592E-16
3.820000E+03	2.383773E-15	1.175264E-16
3.830000E+03	2.406565E-15	1.188337E-16
3.840000E+03	2.429277E-15	1.199824E-16
3.850000E+03	2.451917E-15	1.209781E-16
3.860000E+03	2.474492E-15	1.218277E-16
3.870000E+03	2.497004E-15	1.225396E-16
3.880000E+03	2.519341E-15	1.231175E-16
3.890000E+03	2.541558E-15	1.235743E-16
3.900000E+03	2.563592E-15	1.239179E-16
3.910000E+03	2.585438E-15	1.241595E-16
3.920000E+03	2.607085E-15	1.243104E-16
3.930000E+03	2.628417E-15	1.243769E-16
3.940000E+03	2.649477E-15	1.243727E-16
3.950000E+03	2.670204E-15	1.243063E-16
3.960000E+03	2.690538E-15	1.241854E-16
3.970000E+03	2.710583E-15	1.240243E-16
3.980000E+03	2.730183E-15	1.238245E-16
3.990000E+03	2.749347E-15	1.235935E-16
4.000000E+03	2.768141E-15	1.233401E-16
4.010000E+03	2.786538E-15	1.230674E-16
4.020000E+03	2.804471E-15	1.227752E-16
4.030000E+03	2.822086E-15	1.224712E-16
4.040000E+03	2.839386E-15	1.221557E-16
4.050000E+03	2.856339E-15	1.218256E-16
4.060000E+03	2.873124E-15	1.214857E-16
4.070000E+03	2.889730E-15	1.211314E-16
4.080000E+03	2.906259E-15	1.207611E-16
4.090000E+03	2.922773E-15	1.203705E-16
4.100000E+03	2.939439E-15	1.199582E-16
4.110000E+03	2.956334E-15	1.195180E-16
4.120000E+03	2.973540E-15	1.190427E-16
4.130000E+03	2.991239E-15	1.185283E-16
4.140000E+03	3.009468E-15	1.179642E-16
4.150000E+03	3.028454E-15	1.173470E-16
4.160000E+03	3.048184E-15	1.166635E-16
4.170000E+03	3.068875E-15	1.159093E-16
4.180000E+03	3.090547E-15	1.150730E-16
4.190000E+03	3.113403E-15	1.141505E-16
4.200000E+03	3.137396E-15	1.131294E-16
4.210000E+03	3.162706E-15	1.120068E-16
4.220000E+03	3.189402E-15	1.107774E-16
4.230000E+03	3.217495E-15	1.094360E-16
4.240000E+03	3.247026E-15	1.079809E-16
4.250000E+03	3.278020E-15	1.064133E-16
4.260000E+03	3.310579E-15	1.047407E-16
4.270000E+03	3.344598E-15	1.029690E-16
4.280000E+03	3.380095E-15	1.011138E-16
4.290000E+03	3.417067E-15	9.919685E-17
4.300000E+03	3.455492E-15	9.724771E-17
4.310000E+03	3.495226E-15	9.530200E-17
4.320000E+03	3.536247E-15	9.340965E-17
4.330000E+03	3.578463E-15	9.163021E-17
4.340000E+03	3.621757E-15	9.003433E-17
4.350000E+03	3.665944E-15	8.870131E-17
4.360000E+03	3.710976E-15	8.772010E-17
4.370000E+03	3.756705E-15	8.717609E-17
4.380000E+03	3.803004E-15	8.714262E-17
4.390000E+03	3.849841E-15	8.766899E-17
4.400000E+03	3.897210E-15	8.876545E-17
4.410000E+03	3.945229E-15	9.040411E-17
4.420000E+03	3.994018E-15	9.252662E-17
4.430000E+03	4.043715E-15	9.505727E-17
4.440000E+03	4.094350E-15	9.791144E-17
4.450000E+03	4.146091E-15	1.010096E-16
4.460000E+03	4.198803E-15	1.042719E-16
4.470000E+03	4.252571E-15	1.076330E-16
4.480000E+03	4.307159E-15	1.110299E-16
4.490000E+03	4.362380E-15	1.144107E-16
4.500000E+03	4.418096E-15	1.177340E-16
4.510000E+03	4.473892E-15	1.209597E-16
4.520000E+03	4.529461E-15	1.240579E-16
4.530000E+03	4.584388E-15	1.270031E-16
4.540000E+03	4.638161E-15	1.297728E-16
4.550000E+03	4.690345E-15	1.323522E-16
4.560000E+03	4.740365E-15	1.347277E-16
4.570000E+03	4.787752E-15	1.368929E-16
4.580000E+03	4.831926E-15	1.388418E-16
4.590000E+03	4.872438E-15	1.405751E-16
4.600000E+03	4.908817E-15	1.420951E-16
4.610000E+03	4.940645E-15	1.434066E-16
4.620000E+03	4.967625E-15	1.445187E-16
4.630000E+03	4.989422E-15	1.454386E-16
4.640000E+03	5.005906E-15	1.461784E-16
4.650000E+03	5.016984E-15	1.467494E-16
4.660000E+03	5.022718E-15	1.471651E-16
4.670000E+03	5.023262E-15	1.474388E-16
4.680000E+03	5.018801E-15	1.475824E-16
4.690000E+03	5.009711E-15	1.476103E-16
4.700000E+03	4.996375E-15	1.475345E-16
4.710000E+03	4.979225E-15	1.473663E-16
4.720000E+03	4.958782E-15	1.471171E-16
4.730000E+03	4.935530E-15	1.467958E-16
4.740000E+03	4.910120E-15	1.464145E-16
4.750000E+03	4.883028E-15	1.459794E-16
4.760000E+03	4.854872E-15	1.454998E-16
4.770000E+03	4.826076E-15	1.449791E-16
4.780000E+03	4.797185E-15	1.444241E-16
4.790000E+03	4.768541E-15	1.438354E-16
4.800000E+03	4.740337E-15	1.432096E-16
4.810000E+03	4.712824E-15	1.425453E-16
4.820000E+03	4.686256E-15	1.418416E-16
4.830000E+03	4.660739E-15	1.410940E-16
4.840000E+03	4.636282E-15	1.402959E-16
4.850000E+03	4.613010E-15	1.394449E-16
4.860000E+03	4.590906E-15	1.385356E-16
4.870000E+03	4.569976E-15	1.375645E-16
4.880000E+03	4.550250E-15	1.365304E-16
4.890000E+03	4.531588E-15	1.354295E-16
4.900000E+03	4.513989E-15	1.342640E-16
4.910000E+03	4.497341E-15	1.330362E-16
4.920000E+03	4.481676E-15	1.317556E-16
4.930000E+03	4.466835E-15	1.304289E-16
4.940000E+03	4.452763E-15	1.290687E-16
4.950000E+03	4.439513E-15	1.276921E-16
4.960000E+03	4.427019E-15	1.263139E-16
4.970000E+03	4.415289E-15	1.249507E-16
4.980000E+03	4.404369E-15	1.236182E-16
4.990000E+03	4.394398E-15	1.223324E-16
5.000000E+03	4.385468E-15	1.211042E-16
5.010000E+03	4.377771E-15	1.199434E-16
5.020000E+03	4.371594E-15	1.188585E-16
5.030000E+03	4.367267E-15	1.178555E-16
5.040000E+03	4.365016E-15	1.169350E-16
5.050000E+03	4.365228E-15	1.161003E-16
5.060000E+03	4.368256E-15	1.153530E-16
5.070000E+03	4.374449E-15	1.146954E-16
5.080000E+03	4.384188E-15	1.141316E-16
5.090000E+03	4.397788E-15	1.136659E-16
5.100000E+03	4.415487E-15	1.133028E-16
5.110000E+03	4.437533E-15	1.130493E-16
5.120000E+03	4.464175E-15	1.129140E-16
5.130000E+03	4.495570E-15	1.129043E-16
5.140000E+03	4.531827E-15	1.130266E-16
5.150000E+03	4.572952E-15	1.132843E-16
5.160000E+03	4.619037E-15	1.136815E-16
5.170000E+03	4.669926E-15	1.142145E-16
5.180000E+03	4.725545E-15	1.148788E-16
5.190000E+03	4.785710E-15	1.156647E-16
5.200000E+03	4.850218E-15	1.165593E-16
5.210000E+03	4.918651E-15	1.175416E-16
5.220000E+03	4.990665E-15	1.185901E-16
5.230000E+03	5.065796E-15	1.196785E-16
5.240000E+03	5.143559E-15	1.207779E-16
5.250000E+03	5.223241E-15	1.218533E-16
5.260000E+03	5.304220E-15	1.228705E-16
5.270000E+03	5.385764E-15	1.237921E-16
5.280000E+03	5.467093E-15	1.245790E-16
5.290000E+03	5.547337E-15	1.251894E-16
5.300000E+03	5.625778E-15	1.255838E-16
5.310000E+03	5.701476E-15	1.257175E-16
5.320000E+03	5.773629E-15	1.255473E-16
5.330000E+03	5.841544E-15	1.250323E-16
5.340000E+03	5.904544E-15	1.241314E-16
5.350000E+03	5.961993E-15	1.228054E-16
5.360000E+03	6.013432E-15	1.210215E-16
5.370000E+03	6.058538E-15	1.187546E-16
5.380000E+03	6.097201E-15	1.159916E-16
5.390000E+03	6.129281E-15	1.127311E-16
5.400000E+03	6.154979E-15	1.089946E-16
5.410000E+03	6.174582E-15	1.048282E-16
5.420000E+03	6.188515E-15	1.003111E-16
5.430000E+03	6.197263E-15	9.556369E-17
5.440000E+03	6.201533E-15	9.076010E-17
5.450000E+03	6.201982E-15	8.613335E-17
5.460000E+03	6.199365E-15	8.198008E-17
5.470000E+03	6.194407E-15	7.864325E-17
5.480000E+03	6.187755E-15	7.646426E-17
5.490000E+03	6.179644E-15	7.569619E-17
5.500000E+03	6.169917E-15	7.641123E-17
5.510000E+03	6.157956E-15	7.845761E-17
5.520000E+03	6.142651E-15	8.152581E-17
5.530000E+03	6.123077E-15	8.525277E-17
5.540000E+03	6.098328E-15	8.929534E-17
5.550000E+03	6.067709E-15	9.337059E-17
5.560000E+03	6.030916E-15	9.726756E-17
5.570000E+03	5.988103E-15	1.008433E-16
5.580000E+03	5.939501E-15	1.040065E-16
5.590000E+03	5.885856E-15	1.067143E-16
5.600000E+03	5.827966E-15	1.089549E-16
5.610000E+03	5.766872E-15	1.107434E-16
5.620000E+03	5.703814E-15	1.121145E-16
5.630000E+03	5.640077E-15	1.131143E-16
5.640000E+03	5.577018E-15	1.137962E-16
5.650000E+03	5.516037E-15	1.142170E-16
5.660000E+03	5.458554E-15	1.144340E-16
5.670000E+03	5.405979E-15	1.145022E-16
5.680000E+03	5.359688E-15	1.144739E-16
5.690000E+03	5.321049E-15	1.143982E-16
5.700000E+03	5.291292E-15	1.143190E-16
5.710000E+03	5.271484E-15	1.142748E-16
5.720000E+03	5.262670E-15	1.143025E-16
5.730000E+03	5.265696E-15	1.144341E-16
5.740000E+03	5.281242E-15	1.146982E-16
5.750000E+03	5.309803E-15	1.151200E-16
5.760000E+03	5.351621E-15	1.157199E-16
5.770000E+03	5.406872E-15	1.165182E-16
5.780000E+03	5.475332E-15	1.175273E-16
5.790000E+03	5.556570E-15	1.187564E-16
5.800000E+03	5.649883E-15	1.202093E-16
5.810000E+03	5.754348E-15	1.218854E-16
5.820000E+03	5.868585E-15	1.237739E-16
5.830000E+03	5.991176E-15	1.258615E-16
5.840000E+03	6.120213E-15	1.281223E-16
5.850000E+03	6.253811E-15	1.305269E-16
5.860000E+03	6.389729E-15	1.330339E-16
5.870000E+03	6.525606E-15	1.355936E-16
5.880000E+03	6.659233E-15	1.381535E-16
5.890000E+03	6.788162E-15	1.406503E-16
5.900000E+03	6.910248E-15	1.430215E-16
5.910000E+03	7.023445E-15	1.452032E-16
5.920000E+03	7.125857E-15	1.471328E-16
5.930000E+03	7.216004E-15	1.487582E-16
5.940000E+03	7.292559E-15	1.500343E-16
5.950000E+03	7.354512E-15	1.509296E-16
5.960000E+03	7.401418E-15	1.514328E-16
5.970000E+03	7.432938E-15	1.515436E-16
5.980000E+03	7.448989E-15	1.512752E-16
5.990000E+03	7.450199E-15	1.506618E-16
6.000000E+03	7.437029E-15	1.497379E-16
6.010000E+03	7.410598E-15	1.485521E-16
6.020000E+03	7.371944E-15	1.471492E-16
6.030000E+03	7.322517E-15	1.455775E-16
6.040000E+03	7.263737E-15	1.438783E-16
6.050000E+03	7.197244E-15	1.420896E-16
6.060000E+03	7.124535E-15	1.402395E-16
6.070000E+03	7.047215E-15	1.383521E-16
6.080000E+03	6.966579E-15	1.364416E-16
6.090000E+03	6.884170E-15	1.345250E-16
6.100000E+03	6.801017E-15	1.326092E-16
6.110000E+03	6.718131E-15	1.307028E-16
6.120000E+03	6.636568E-15	1.288175E-16
6.130000E+03	6.556851E-15	1.269580E-16
6.140000E+03	6.479613E-15	1.251337E-16
6.150000E+03	6.405179E-15	1.233506E-16
6.160000E+03	6.333787E-15	1.216141E-16
6.170000E+03	6.265532E-15	1.199278E-16
6.180000E+03	6.200388E-15	1.182930E-16
6.190000E+03	6.138103E-15	1.167063E-16
6.200000E+03	6.078562E-15	1.151665E-16
6.210000E+03	6.021360E-15	1.136667E-16
6.220000E+03	5.966170E-15	1.122015E-16
6.230000E+03	5.912839E-15	1.107691E-16
6.240000E+03	5.861153E-15	1.093667E-16
6.250000E+03	5.810995E-15	1.079937E-16
6.260000E+03	5.762356E-15	1.066513E-16
6.270000E+03	5.715524E-15	1.053454E-16
6.280000E+03	5.670581E-15	1.040767E-16
6.290000E+03	5.628014E-15	1.028514E-16
6.300000E+03	5.588196E-15	1.016711E-16
6.310000E+03	5.551609E-15	1.005363E-16
6.320000E+03	5.518757E-15	9.944475E-17
6.330000E+03	5.490071E-15	9.838969E-17
6.340000E+03	5.466070E-15	9.736214E-17
6.350000E+03	5.447085E-15	9.634595E-17
6.360000E+03	5.433482E-15	9.532156E-17
6.370000E+03	5.425335E-15	9.426027E-17
6.380000E+03	5.422773E-15	9.313078E-17
6.390000E+03	5.425611E-15	9.189343E-17
6.400000E+03	5.433706E-15	9.050787E-17
6.410000E+03	5.446656E-15	8.892984E-17
6.420000E+03	5.463931E-15	8.711621E-17
6.430000E+03	5.484891E-15	8.502919E-17
6.440000E+03	5.508800E-15	8.264184E-17
6.450000E+03	5.534862E-15	7.994577E-17
6.460000E+03	5.562307E-15	7.696231E-17
6.470000E+03	5.590233E-15	7.375345E-17
6.480000E+03	5.618158E-15	7.044579E-17
6.490000E+03	5.645395E-15	6.724007E-17
6.500000E+03	5.671400E-15	6.442852E-17
6.510000E+03	5.695905E-15	6.238697E-17
6.520000E+03	5.718306E-15	6.151274E-17
6.530000E+03	5.738375E-15	6.212212E-17
6.540000E+03	5.755721E-15	6.429389E-17
6.550000E+03	5.769822E-15	6.782406E-17
6.560000E+03	5.780170E-15	7.235266E-17
6.570000E+03	5.786370E-15	7.748135E-17
6.580000E+03	5.788096E-15	8.284928E-17
6.590000E+03	5.784965E-15	8.816145E-17
6.600000E+03	5.776899E-15	9.319647E-17
6.610000E+03	5.763702E-15	9.779190E-17
6.620000E+03	5.745341E-15	1.018380E-16
6.630000E+03	5.722019E-15	1.052703E-16
6.640000E+03	5.693730E-15	1.080539E-16
6.650000E+03	5.660834E-15	1.101876E-16
6.660000E+03	5.623539E-15	1.116898E-16
6.670000E+03	5.582252E-15	1.125998E-16
6.680000E+03	5.537353E-15	1.129698E-16
6.690000E+03	5.489178E-15	1.128603E-16
6.700000E+03	5.438294E-15	1.123427E-16
6.710000E+03	5.384992E-15	1.114851E-16
6.720000E+03	5.329840E-15	1.103613E-16
6.730000E+03	5.273184E-15	1.090380E-16
6.740000E+03	5.215498E-15	1.075803E-16
6.750000E+03	5.157030E-15	1.060431E-16
6.760000E+03	5.098356E-15	1.044817E-16
6.770000E+03	5.039691E-15	1.029369E-16
6.780000E+03	4.981377E-15	1.014453E-16
6.790000E+03	4.923882E-15	1.000383E-16
6.800000E+03	4.867340E-15	9.873344E-17
6.810000E+03	4.812288E-15	9.754921E-17
6.820000E+03	4.758941E-15	9.649094E-17
6.830000E+03	4.707787E-15	9.556365E-17
6.840000E+03	4.658995E-15	9.476134E-17
6.850000E+03	4.613118E-15	9.408275E-17
6.860000E+03	4.570439E-15	9.351970E-17
6.870000E+03	4.531218E-15	9.306351E-17
6.880000E+03	4.495798E-15	9.270857E-17
6.890000E+03	4.464407E-15	9.244892E-17
6.900000E+03	4.437143E-15	9.227835E-17
6.910000E+03	4.414217E-15	9.219526E-17
6.920000E+03	4.395510E-15	9.219324E-17
6.930000E+03	4.381006E-15	9.226972E-17
6.940000E+03	4.370490E-15	9.241919E-17
6.950000E+03	4.363800E-15	9.263832E-17
6.960000E+03	4.360658E-15	9.292212E-17
6.970000E+03	4.360742E-15	9.326539E-17
6.980000E+03	4.363643E-15	9.366152E-17
6.990000E+03	4.369009E-15	9.410531E-17
7.000000E+03	4.376557E-15	9.459301E-17
7.010000E+03	4.385968E-15	9.511960E-17
7.020000E+03	4.396894E-15	9.567864E-17
7.030000E+03	4.409097E-15	9.626506E-17
7.040000E+03	4.422462E-15	9.687526E-17
7.050000E+03	4.436797E-15	9.750310E-17
7.060000E+03	4.452035E-15	9.814433E-17
7.070000E+03	4.468161E-15	9.879552E-17
7.080000E+03	4.485206E-15	9.945430E-17
7.090000E+03	4.503306E-15	1.001210E-16
7.100000E+03	4.522424E-15	1.007928E-16
7.110000E+03	4.542738E-15	1.014723E-16
7.120000E+03	4.564361E-15	1.021618E-16
7.130000E+03	4.587399E-15	1.028641E-16
7.140000E+03	4.611940E-15	1.035821E-16
7.150000E+03	4.637969E-15	1.043173E-16
7.160000E+03	4.665577E-15	1.050735E-16
7.170000E+03	4.694673E-15	1.058506E-16
7.180000E+03	4.725257E-15	1.066506E-16
7.190000E+03	4.757141E-15	1.074712E-16
7.200000E+03	4.790157E-15	1.083103E-16
7.210000E+03	4.824087E-15	1.091648E-16
7.220000E+03	4.858740E-15	1.100319E-16
7.230000E+03	4.893652E-15	1.109025E-16
7.240000E+03	4.928617E-15	1.117735E-16
7.250000E+03	4.963086E-15	1.126336E-16
7.260000E+03	4.996708E-15	1.134759E-16
7.270000E+03	5.028950E-15	1.142892E-16
7.280000E+03	5.059425E-15	1.150653E-16
7.290000E+03	5.087664E-15	1.157940E-16
7.300000E+03	5.113047E-15	1.164615E-16
7.310000E+03	5.135297E-15	1.170616E-16
7.320000E+03	5.154016E-15	1.175855E-16
7.330000E+03	5.168685E-15	1.180219E-16
7.340000E+03	5.179084E-15	1.183663E-16
7.350000E+03	5.184974E-15	1.186142E-16
7.360000E+03	5.186181E-15	1.187631E-16
7.370000E+03	5.182513E-15	1.188104E-16
7.380000E+03	5.174013E-15	1.187592E-16
7.390000E+03	5.160704E-15	1.186125E-16
7.400000E+03	5.142591E-15	1.183731E-16
7.410000E+03	5.119827E-15	1.180474E-16
7.420000E+03	5.092624E-15	1.176430E-16
7.430000E+03	5.061173E-15	1.171665E-16
7.440000E+03	5.025891E-15	1.166292E-16
7.450000E+03	4.987092E-15	1.160392E-16
7.460000E+03	4.945393E-15	1.154102E-16
7.470000E+03	4.901141E-15	1.147484E-16
7.480000E+03	4.855066E-15	1.140671E-16
7.490000E+03	4.807627E-15	1.133713E-16
7.500000E+03	4.759652E-15	1.126730E-16
7.510000E+03	4.711846E-15	1.119791E-16
7.520000E+03	4.664874E-15	1.112940E-16
7.530000E+03	4.619503E-15	1.106225E-16
7.540000E+03	4.576591E-15	1.099706E-16
7.550000E+03	4.536845E-15	1.093396E-16
7.560000E+03	4.501110E-15	1.087339E-16
7.570000E+03	4.470060E-15	1.081544E-16
7.580000E+03	4.444477E-15	1.076058E-16
7.590000E+03	4.424946E-15	1.070904E-16
7.600000E+03	4.412214E-15	1.066171E-16
7.610000E+03	4.406657E-15	1.061897E-16
7.620000E+03	4.408788E-15	1.058189E-16
7.630000E+03	4.418874E-15	1.055133E-16
7.640000E+03	4.437290E-15	1.052874E-16
7.650000E+03	4.463980E-15	1.051482E-16
7.660000E+03	4.499041E-15	1.051085E-16
7.670000E+03	4.542101E-15	1.051714E-16
7.680000E+03	4.592852E-15	1.053421E-16
7.690000E+03	4.650737E-15	1.056204E-16
7.700000E+03	4.715118E-15	1.060036E-16
7.710000E+03	4.784955E-15	1.064794E-16
7.720000E+03	4.859313E-15	1.070370E-16
7.730000E+03	4.937056E-15	1.076594E-16
7.740000E+03	5.016945E-15	1.083259E-16
7.750000E+03	5.097758E-15	1.090138E-16
7.760000E+03	5.177957E-15	1.096913E-16
