#wls	flux	fluxerr
1.600000E+03	4.507332E-16	3.399150E-16
1.640000E+03	4.548229E-16	3.384563E-16
1.680000E+03	4.591840E-16	3.370016E-16
1.720000E+03	4.636411E-16	3.354114E-16
1.760000E+03	4.682808E-16	3.337399E-16
1.800000E+03	4.731022E-16	3.319763E-16
1.840000E+03	4.781960E-16	3.301727E-16
1.880000E+03	4.835633E-16	3.283161E-16
1.920000E+03	4.892051E-16	3.263931E-16
1.960000E+03	4.952164E-16	3.244514E-16
2.000000E+03	5.015998E-16	3.224746E-16
2.040000E+03	5.083578E-16	3.204456E-16
2.080000E+03	5.155890E-16	3.184062E-16
2.120000E+03	5.232974E-16	3.163353E-16
2.160000E+03	5.315848E-16	3.142692E-16
2.200000E+03	5.403564E-16	3.121247E-16
2.240000E+03	5.497142E-16	3.099340E-16
2.280000E+03	5.596610E-16	3.076691E-16
2.320000E+03	5.701987E-16	3.053005E-16
2.360000E+03	5.813275E-16	3.027979E-16
2.400000E+03	5.929431E-16	3.000772E-16
2.440000E+03	6.051448E-16	2.971609E-16
2.480000E+03	6.180329E-16	2.940658E-16
2.520000E+03	6.313913E-16	2.906570E-16
2.560000E+03	6.452088E-16	2.869043E-16
2.600000E+03	6.596842E-16	2.828690E-16
2.640000E+03	6.745885E-16	2.784236E-16
2.680000E+03	6.900072E-16	2.735809E-16
2.720000E+03	7.059143E-16	2.683071E-16
2.760000E+03	7.222776E-16	2.625691E-16
2.800000E+03	7.390572E-16	2.563351E-16
2.840000E+03	7.562044E-16	2.495752E-16
2.880000E+03	7.737692E-16	2.422963E-16
2.920000E+03	7.916802E-16	2.344691E-16
2.960000E+03	8.101808E-16	2.261605E-16
3.000000E+03	8.291671E-16	2.173344E-16
3.010000E+03	8.340510E-16	2.150628E-16
3.020000E+03	8.388867E-16	2.127387E-16
3.030000E+03	8.438916E-16	2.104172E-16
3.040000E+03	8.488436E-16	2.080423E-16
3.050000E+03	8.538500E-16	2.056410E-16
3.060000E+03	8.590181E-16	2.032387E-16
3.070000E+03	8.641253E-16	2.007822E-16
3.080000E+03	8.693883E-16	1.983223E-16
3.090000E+03	8.745845E-16	1.958079E-16
3.100000E+03	8.799303E-16	1.932881E-16
3.110000E+03	8.854219E-16	1.907609E-16
3.120000E+03	8.908369E-16	1.881784E-16
3.130000E+03	8.963906E-16	1.855869E-16
3.140000E+03	9.020789E-16	1.829847E-16
3.150000E+03	9.077883E-16	1.803486E-16
3.160000E+03	9.135149E-16	1.776785E-16
3.170000E+03	9.194721E-16	1.750159E-16
3.180000E+03	9.254372E-16	1.723176E-16
3.190000E+03	9.315142E-16	1.696037E-16
3.200000E+03	9.375894E-16	1.668537E-16
3.210000E+03	9.438744E-16	1.641059E-16
3.220000E+03	9.502549E-16	1.613397E-16
3.230000E+03	9.567251E-16	1.585546E-16
3.240000E+03	9.633865E-16	1.557674E-16
3.250000E+03	9.701248E-16	1.529596E-16
3.260000E+03	9.769334E-16	1.501313E-16
3.270000E+03	9.839126E-16	1.472984E-16
3.280000E+03	9.909480E-16	1.444446E-16
3.290000E+03	9.982453E-16	1.416005E-16
3.300000E+03	1.005583E-15	1.387353E-16
3.310000E+03	1.013060E-15	1.358642E-16
3.320000E+03	1.020773E-15	1.330012E-16
3.330000E+03	1.028501E-15	1.301189E-16
3.340000E+03	1.036551E-15	1.272582E-16
3.350000E+03	1.044598E-15	1.243805E-16
3.360000E+03	1.052947E-15	1.215250E-16
3.370000E+03	1.061378E-15	1.186684E-16
3.380000E+03	1.069984E-15	1.158246E-16
3.390000E+03	1.078754E-15	1.129961E-16
3.400000E+03	1.087781E-15	1.101960E-16
3.410000E+03	1.096948E-15	1.074169E-16
3.420000E+03	1.106245E-15	1.046633E-16
3.430000E+03	1.115761E-15	1.019498E-16
3.440000E+03	1.125485E-15	9.928149E-17
3.450000E+03	1.135402E-15	9.666469E-17
3.460000E+03	1.145501E-15	9.410671E-17
3.470000E+03	1.155869E-15	9.162391E-17
3.480000E+03	1.166392E-15	8.921753E-17
3.490000E+03	1.177158E-15	8.690585E-17
3.500000E+03	1.188056E-15	8.469333E-17
3.510000E+03	1.199268E-15	8.260688E-17
3.520000E+03	1.210589E-15	8.064678E-17
3.530000E+03	1.222200E-15	7.884114E-17
3.540000E+03	1.234089E-15	7.720510E-17
3.550000E+03	1.246151E-15	7.574862E-17
3.560000E+03	1.258470E-15	7.449373E-17
3.570000E+03	1.270943E-15	7.345047E-17
3.580000E+03	1.283750E-15	7.264401E-17
3.590000E+03	1.296880E-15	7.208568E-17
3.600000E+03	1.310142E-15	7.177135E-17
3.610000E+03	1.323800E-15	7.171325E-17
3.620000E+03	1.337661E-15	7.189090E-17
3.630000E+03	1.351803E-15	7.229460E-17
3.640000E+03	1.366216E-15	7.290716E-17
3.650000E+03	1.380891E-15	7.370972E-17
3.660000E+03	1.395906E-15	7.468718E-17
3.670000E+03	1.411165E-15	7.581474E-17
3.680000E+03	1.426747E-15	7.707722E-17
3.690000E+03	1.442645E-15	7.845539E-17
3.700000E+03	1.458766E-15	7.992640E-17
3.710000E+03	1.475274E-15	8.148250E-17
3.720000E+03	1.491994E-15	8.309873E-17
3.730000E+03	1.509088E-15	8.477006E-17
3.740000E+03	1.526467E-15	8.647894E-17
3.750000E+03	1.544124E-15	8.821384E-17
3.760000E+03	1.562135E-15	8.996915E-17
3.770000E+03	1.580493E-15	9.173583E-17
3.780000E+03	1.599110E-15	9.350136E-17
3.790000E+03	1.618059E-15	9.526344E-17
3.800000E+03	1.637330E-15	9.701612E-17
3.810000E+03	1.656914E-15	9.875422E-17
3.820000E+03	1.676802E-15	1.004733E-16
3.830000E+03	1.696981E-15	1.021696E-16
3.840000E+03	1.717365E-15	1.038353E-16
3.850000E+03	1.738094E-15	1.054768E-16
3.860000E+03	1.759077E-15	1.070872E-16
3.870000E+03	1.780302E-15	1.086643E-16
3.880000E+03	1.801754E-15	1.102067E-16
3.890000E+03	1.823419E-15	1.117127E-16
3.900000E+03	1.845282E-15	1.131810E-16
3.910000E+03	1.867330E-15	1.146106E-16
3.920000E+03	1.889549E-15	1.160004E-16
3.930000E+03	1.911995E-15	1.173536E-16
3.940000E+03	1.934517E-15	1.186607E-16
3.950000E+03	1.957105E-15	1.199210E-16
3.960000E+03	1.979889E-15	1.211420E-16
3.970000E+03	2.002725E-15	1.223143E-16
3.980000E+03	2.025677E-15	1.234413E-16
3.990000E+03	2.048678E-15	1.245178E-16
4.000000E+03	2.071796E-15	1.255469E-16
4.010000E+03	2.094971E-15	1.265237E-16
4.020000E+03	2.118211E-15	1.274472E-16
4.030000E+03	2.141467E-15	1.283125E-16
4.040000E+03	2.164883E-15	1.291263E-16
4.050000E+03	2.188290E-15	1.298763E-16
4.060000E+03	2.211900E-15	1.305728E-16
4.070000E+03	2.235557E-15	1.312040E-16
4.080000E+03	2.259354E-15	1.317728E-16
4.090000E+03	2.283327E-15	1.322786E-16
4.100000E+03	2.307514E-15	1.327209E-16
4.110000E+03	2.331838E-15	1.330927E-16
4.120000E+03	2.356405E-15	1.333974E-16
4.130000E+03	2.381259E-15	1.336354E-16
4.140000E+03	2.406450E-15	1.338071E-16
4.150000E+03	2.431911E-15	1.339072E-16
4.160000E+03	2.457749E-15	1.339403E-16
4.170000E+03	2.483960E-15	1.339052E-16
4.180000E+03	2.510592E-15	1.338046E-16
4.190000E+03	2.537639E-15	1.336386E-16
4.200000E+03	2.565205E-15	1.334143E-16
4.210000E+03	2.593279E-15	1.331336E-16
4.220000E+03	2.621848E-15	1.327996E-16
4.230000E+03	2.650952E-15	1.324197E-16
4.240000E+03	2.680628E-15	1.320025E-16
4.250000E+03	2.710850E-15	1.315554E-16
4.260000E+03	2.741593E-15	1.310878E-16
4.270000E+03	2.772930E-15	1.306163E-16
4.280000E+03	2.804771E-15	1.301520E-16
4.290000E+03	2.837177E-15	1.297157E-16
4.300000E+03	2.870045E-15	1.293233E-16
4.310000E+03	2.903424E-15	1.290007E-16
4.320000E+03	2.937196E-15	1.287686E-16
4.330000E+03	2.971398E-15	1.286573E-16
4.340000E+03	3.005898E-15	1.286918E-16
4.350000E+03	3.040716E-15	1.289052E-16
4.360000E+03	3.075708E-15	1.293244E-16
4.370000E+03	3.110881E-15	1.299819E-16
4.380000E+03	3.146130E-15	1.309034E-16
4.390000E+03	3.181351E-15	1.321076E-16
4.400000E+03	3.216503E-15	1.336009E-16
4.410000E+03	3.251555E-15	1.353748E-16
4.420000E+03	3.286423E-15	1.374102E-16
4.430000E+03	3.321021E-15	1.396829E-16
4.440000E+03	3.355361E-15	1.421701E-16
4.450000E+03	3.389343E-15	1.448424E-16
4.460000E+03	3.422862E-15	1.476694E-16
4.470000E+03	3.455855E-15	1.506225E-16
4.480000E+03	3.488306E-15	1.536758E-16
4.490000E+03	3.520036E-15	1.567975E-16
4.500000E+03	3.551015E-15	1.599635E-16
4.510000E+03	3.581154E-15	1.631491E-16
4.520000E+03	3.610308E-15	1.663286E-16
4.530000E+03	3.638433E-15	1.694828E-16
4.540000E+03	3.665325E-15	1.725871E-16
4.550000E+03	3.690988E-15	1.756281E-16
4.560000E+03	3.715273E-15	1.785869E-16
4.570000E+03	3.738033E-15	1.814463E-16
4.580000E+03	3.759280E-15	1.841982E-16
4.590000E+03	3.778831E-15	1.868261E-16
4.600000E+03	3.796663E-15	1.893227E-16
4.610000E+03	3.812716E-15	1.916798E-16
4.620000E+03	3.826892E-15	1.938881E-16
4.630000E+03	3.839156E-15	1.959427E-16
4.640000E+03	3.849593E-15	1.978450E-16
4.650000E+03	3.858052E-15	1.995853E-16
4.660000E+03	3.864599E-15	2.011656E-16
4.670000E+03	3.869317E-15	2.025891E-16
4.680000E+03	3.872159E-15	2.038528E-16
4.690000E+03	3.873239E-15	2.049628E-16
4.700000E+03	3.872591E-15	2.059210E-16
4.710000E+03	3.870308E-15	2.067329E-16
4.720000E+03	3.866498E-15	2.074051E-16
4.730000E+03	3.861229E-15	2.079424E-16
4.740000E+03	3.854674E-15	2.083552E-16
4.750000E+03	3.846822E-15	2.086444E-16
4.760000E+03	3.837901E-15	2.088239E-16
4.770000E+03	3.828004E-15	2.089002E-16
4.780000E+03	3.817220E-15	2.088800E-16
4.790000E+03	3.805731E-15	2.087748E-16
4.800000E+03	3.793670E-15	2.085935E-16
4.810000E+03	3.781208E-15	2.083469E-16
4.820000E+03	3.768511E-15	2.080457E-16
4.830000E+03	3.755690E-15	2.076973E-16
4.840000E+03	3.742854E-15	2.073089E-16
4.850000E+03	3.730186E-15	2.068917E-16
4.860000E+03	3.717821E-15	2.064539E-16
4.870000E+03	3.705796E-15	2.059983E-16
4.880000E+03	3.694231E-15	2.055320E-16
4.890000E+03	3.683237E-15	2.050613E-16
4.900000E+03	3.672917E-15	2.045923E-16
4.910000E+03	3.663329E-15	2.041279E-16
4.920000E+03	3.654524E-15	2.036708E-16
4.930000E+03	3.646552E-15	2.032234E-16
4.940000E+03	3.639541E-15	2.027921E-16
4.950000E+03	3.633536E-15	2.023785E-16
4.960000E+03	3.628538E-15	2.019819E-16
4.970000E+03	3.624629E-15	2.016057E-16
4.980000E+03	3.621851E-15	2.012508E-16
4.990000E+03	3.620287E-15	2.009201E-16
5.000000E+03	3.619978E-15	2.006142E-16
5.010000E+03	3.620964E-15	2.003334E-16
5.020000E+03	3.623287E-15	2.000776E-16
5.030000E+03	3.626987E-15	1.998467E-16
5.040000E+03	3.632141E-15	1.996421E-16
5.050000E+03	3.638785E-15	1.994630E-16
5.060000E+03	3.646951E-15	1.993077E-16
5.070000E+03	3.656626E-15	1.991721E-16
5.080000E+03	3.667911E-15	1.990580E-16
5.090000E+03	3.680779E-15	1.989599E-16
5.100000E+03	3.695236E-15	1.988737E-16
5.110000E+03	3.711317E-15	1.987968E-16
5.120000E+03	3.728928E-15	1.987191E-16
5.130000E+03	3.748162E-15	1.986404E-16
5.140000E+03	3.768897E-15	1.985488E-16
5.150000E+03	3.791121E-15	1.984378E-16
5.160000E+03	3.814723E-15	1.982956E-16
5.170000E+03	3.839661E-15	1.981135E-16
5.180000E+03	3.865793E-15	1.978780E-16
5.190000E+03	3.893086E-15	1.975805E-16
5.200000E+03	3.921325E-15	1.972036E-16
5.210000E+03	3.950403E-15	1.967352E-16
5.220000E+03	3.980114E-15	1.961586E-16
5.230000E+03	4.010363E-15	1.954629E-16
5.240000E+03	4.040873E-15	1.946289E-16
5.250000E+03	4.071480E-15	1.936436E-16
5.260000E+03	4.101922E-15	1.924907E-16
5.270000E+03	4.132057E-15	1.911603E-16
5.280000E+03	4.161563E-15	1.896361E-16
5.290000E+03	4.190198E-15	1.879075E-16
5.300000E+03	4.217761E-15	1.859679E-16
5.310000E+03	4.244005E-15	1.838114E-16
5.320000E+03	4.268644E-15	1.814337E-16
5.330000E+03	4.291485E-15	1.788380E-16
5.340000E+03	4.312253E-15	1.760284E-16
5.350000E+03	4.330776E-15	1.730178E-16
5.360000E+03	4.346805E-15	1.698212E-16
5.370000E+03	4.360155E-15	1.664618E-16
5.380000E+03	4.370659E-15	1.629699E-16
5.390000E+03	4.378220E-15	1.593846E-16
5.400000E+03	4.382674E-15	1.557496E-16
5.410000E+03	4.383885E-15	1.521165E-16
5.420000E+03	4.381877E-15	1.485490E-16
5.430000E+03	4.376573E-15	1.451128E-16
5.440000E+03	4.367924E-15	1.418793E-16
5.450000E+03	4.356046E-15	1.389271E-16
5.460000E+03	4.340908E-15	1.363292E-16
5.470000E+03	4.322647E-15	1.341589E-16
5.480000E+03	4.301338E-15	1.324769E-16
5.490000E+03	4.277217E-15	1.313301E-16
5.500000E+03	4.250370E-15	1.307271E-16
5.510000E+03	4.221070E-15	1.306412E-16
5.520000E+03	4.189525E-15	1.310160E-16
5.530000E+03	4.155971E-15	1.317832E-16
5.540000E+03	4.120632E-15	1.328691E-16
5.550000E+03	4.083879E-15	1.342051E-16
5.560000E+03	4.045944E-15	1.357222E-16
5.570000E+03	4.007160E-15	1.373613E-16
5.580000E+03	3.967876E-15	1.390720E-16
5.590000E+03	3.928495E-15	1.408145E-16
5.600000E+03	3.889345E-15	1.425557E-16
5.610000E+03	3.850799E-15	1.442724E-16
5.620000E+03	3.813224E-15	1.459494E-16
5.630000E+03	3.776983E-15	1.475785E-16
5.640000E+03	3.742426E-15	1.491573E-16
5.650000E+03	3.709884E-15	1.506883E-16
5.660000E+03	3.679673E-15	1.521780E-16
5.670000E+03	3.652044E-15	1.536342E-16
5.680000E+03	3.627333E-15	1.550713E-16
5.690000E+03	3.605702E-15	1.564992E-16
5.700000E+03	3.587387E-15	1.579326E-16
5.710000E+03	3.572557E-15	1.593851E-16
5.720000E+03	3.561311E-15	1.608682E-16
5.730000E+03	3.553746E-15	1.623938E-16
5.740000E+03	3.549959E-15	1.639744E-16
5.750000E+03	3.549940E-15	1.656176E-16
5.760000E+03	3.553675E-15	1.673310E-16
5.770000E+03	3.561150E-15	1.691215E-16
5.780000E+03	3.572209E-15	1.709893E-16
5.790000E+03	3.586731E-15	1.729354E-16
5.800000E+03	3.604629E-15	1.749622E-16
5.810000E+03	3.625612E-15	1.770613E-16
5.820000E+03	3.649565E-15	1.792323E-16
5.830000E+03	3.676138E-15	1.814627E-16
5.840000E+03	3.705095E-15	1.837447E-16
5.850000E+03	3.736144E-15	1.860672E-16
5.860000E+03	3.768940E-15	1.884161E-16
5.870000E+03	3.803201E-15	1.907792E-16
5.880000E+03	3.838596E-15	1.931422E-16
5.890000E+03	3.874723E-15	1.954859E-16
5.900000E+03	3.911288E-15	1.977968E-16
5.910000E+03	3.947971E-15	2.000594E-16
5.920000E+03	3.984463E-15	2.022588E-16
5.930000E+03	4.020397E-15	2.043765E-16
5.940000E+03	4.055580E-15	2.064031E-16
5.950000E+03	4.089727E-15	2.083242E-16
5.960000E+03	4.122584E-15	2.101269E-16
5.970000E+03	4.154003E-15	2.118036E-16
5.980000E+03	4.183831E-15	2.133464E-16
5.990000E+03	4.211906E-15	2.147469E-16
6.000000E+03	4.238099E-15	2.159983E-16
6.010000E+03	4.262434E-15	2.171013E-16
6.020000E+03	4.284842E-15	2.180520E-16
6.030000E+03	4.305323E-15	2.188495E-16
6.040000E+03	4.323861E-15	2.194923E-16
6.050000E+03	4.340582E-15	2.199856E-16
6.060000E+03	4.355465E-15	2.203271E-16
6.070000E+03	4.368629E-15	2.205210E-16
6.080000E+03	4.380198E-15	2.205721E-16
6.090000E+03	4.390179E-15	2.204784E-16
6.100000E+03	4.398748E-15	2.202465E-16
6.110000E+03	4.405995E-15	2.198783E-16
6.120000E+03	4.412006E-15	2.193752E-16
6.130000E+03	4.416902E-15	2.187402E-16
6.140000E+03	4.420754E-15	2.179734E-16
6.150000E+03	4.423623E-15	2.170742E-16
6.160000E+03	4.425688E-15	2.160477E-16
6.170000E+03	4.426947E-15	2.148895E-16
6.180000E+03	4.427514E-15	2.136011E-16
6.190000E+03	4.427369E-15	2.121770E-16
6.200000E+03	4.426523E-15	2.106131E-16
6.210000E+03	4.424939E-15	2.089029E-16
6.220000E+03	4.422489E-15	2.070356E-16
6.230000E+03	4.419258E-15	2.050104E-16
6.240000E+03	4.415156E-15	2.028184E-16
6.250000E+03	4.410183E-15	2.004547E-16
6.260000E+03	4.404294E-15	1.979128E-16
6.270000E+03	4.397537E-15	1.951904E-16
6.280000E+03	4.389919E-15	1.922837E-16
6.290000E+03	4.381408E-15	1.891872E-16
6.300000E+03	4.372021E-15	1.858985E-16
6.310000E+03	4.361820E-15	1.824175E-16
6.320000E+03	4.350784E-15	1.787415E-16
6.330000E+03	4.338979E-15	1.748724E-16
6.340000E+03	4.326429E-15	1.708120E-16
6.350000E+03	4.313115E-15	1.665619E-16
6.360000E+03	4.299142E-15	1.621307E-16
6.370000E+03	4.284443E-15	1.575233E-16
6.380000E+03	4.269117E-15	1.527543E-16
6.390000E+03	4.253129E-15	1.478372E-16
6.400000E+03	4.236483E-15	1.427925E-16
6.410000E+03	4.219179E-15	1.376465E-16
6.420000E+03	4.201254E-15	1.324346E-16
6.430000E+03	4.182702E-15	1.271995E-16
6.440000E+03	4.163511E-15	1.219947E-16
6.450000E+03	4.143672E-15	1.168860E-16
6.460000E+03	4.123216E-15	1.119545E-16
6.470000E+03	4.102178E-15	1.072963E-16
6.480000E+03	4.080549E-15	1.030211E-16
6.490000E+03	4.058411E-15	9.925352E-17
6.500000E+03	4.035718E-15	9.612212E-17
6.510000E+03	4.012513E-15	9.375491E-17
6.520000E+03	3.988711E-15	9.225910E-17
6.530000E+03	3.964339E-15	9.170320E-17
6.540000E+03	3.939296E-15	9.208007E-17
6.550000E+03	3.913513E-15	9.330641E-17
6.560000E+03	3.886911E-15	9.525344E-17
6.570000E+03	3.859336E-15	9.777303E-17
6.580000E+03	3.830777E-15	1.007200E-16
6.590000E+03	3.801160E-15	1.039574E-16
6.600000E+03	3.770436E-15	1.073647E-16
6.610000E+03	3.738624E-15	1.108406E-16
6.620000E+03	3.705768E-15	1.143022E-16
6.630000E+03	3.671896E-15	1.176826E-16
6.640000E+03	3.637063E-15	1.209300E-16
6.650000E+03	3.601347E-15	1.240055E-16
6.660000E+03	3.564926E-15	1.268843E-16
6.670000E+03	3.527836E-15	1.295457E-16
6.680000E+03	3.490289E-15	1.319824E-16
6.690000E+03	3.452390E-15	1.341893E-16
6.700000E+03	3.414329E-15	1.361698E-16
6.710000E+03	3.376265E-15	1.379301E-16
6.720000E+03	3.338360E-15	1.394797E-16
6.730000E+03	3.300810E-15	1.408324E-16
6.740000E+03	3.263703E-15	1.419994E-16
6.750000E+03	3.227266E-15	1.429995E-16
6.760000E+03	3.191612E-15	1.438474E-16
6.770000E+03	3.156919E-15	1.445619E-16
6.780000E+03	3.123284E-15	1.451585E-16
6.790000E+03	3.090867E-15	1.456557E-16
6.800000E+03	3.059780E-15	1.460701E-16
6.810000E+03	3.030092E-15	1.464159E-16
6.820000E+03	3.001930E-15	1.467100E-16
6.830000E+03	2.975410E-15	1.469685E-16
6.840000E+03	2.950500E-15	1.471997E-16
6.850000E+03	2.927363E-15	1.474210E-16
6.860000E+03	2.906013E-15	1.476422E-16
6.870000E+03	2.886457E-15	1.478717E-16
6.880000E+03	2.868790E-15	1.481224E-16
6.890000E+03	2.852966E-15	1.483989E-16
6.900000E+03	2.839027E-15	1.487103E-16
6.910000E+03	2.826976E-15	1.490628E-16
6.920000E+03	2.816805E-15	1.494617E-16
6.930000E+03	2.808498E-15	1.499113E-16
6.940000E+03	2.802000E-15	1.504134E-16
6.950000E+03	2.797313E-15	1.509726E-16
6.960000E+03	2.794401E-15	1.515907E-16
6.970000E+03	2.793188E-15	1.522673E-16
6.980000E+03	2.793658E-15	1.530047E-16
6.990000E+03	2.795756E-15	1.538029E-16
7.000000E+03	2.799357E-15	1.546575E-16
7.010000E+03	2.804498E-15	1.555730E-16
7.020000E+03	2.811008E-15	1.565420E-16
7.030000E+03	2.818882E-15	1.575661E-16
7.040000E+03	2.827977E-15	1.586389E-16
7.050000E+03	2.838278E-15	1.597611E-16
7.060000E+03	2.849633E-15	1.609252E-16
7.070000E+03	2.861988E-15	1.621294E-16
7.080000E+03	2.875251E-15	1.633694E-16
7.090000E+03	2.889289E-15	1.646383E-16
7.100000E+03	2.904003E-15	1.659311E-16
7.110000E+03	2.919324E-15	1.672444E-16
7.120000E+03	2.935072E-15	1.685682E-16
7.130000E+03	2.951208E-15	1.699006E-16
7.140000E+03	2.967510E-15	1.712288E-16
7.150000E+03	2.983967E-15	1.725523E-16
7.160000E+03	3.000351E-15	1.738579E-16
7.170000E+03	3.016614E-15	1.751427E-16
7.180000E+03	3.032557E-15	1.763951E-16
7.190000E+03	3.048096E-15	1.776098E-16
7.200000E+03	3.063072E-15	1.787773E-16
7.210000E+03	3.077403E-15	1.798926E-16
7.220000E+03	3.090897E-15	1.809442E-16
7.230000E+03	3.103520E-15	1.819295E-16
7.240000E+03	3.115053E-15	1.828356E-16
7.250000E+03	3.125517E-15	1.836631E-16
7.260000E+03	3.134709E-15	1.843999E-16
7.270000E+03	3.142594E-15	1.850434E-16
7.280000E+03	3.149071E-15	1.855875E-16
7.290000E+03	3.154170E-15	1.860334E-16
7.300000E+03	3.157744E-15	1.863722E-16
7.310000E+03	3.159814E-15	1.866048E-16
7.320000E+03	3.160384E-15	1.867311E-16
7.330000E+03	3.159472E-15	1.867518E-16
7.340000E+03	3.157115E-15	1.866689E-16
7.350000E+03	3.153330E-15	1.864831E-16
7.360000E+03	3.148190E-15	1.861982E-16
7.370000E+03	3.141785E-15	1.858193E-16
7.380000E+03	3.134220E-15	1.853524E-16
7.390000E+03	3.125618E-15	1.848041E-16
7.400000E+03	3.116152E-15	1.841844E-16
7.410000E+03	3.105890E-15	1.834969E-16
7.420000E+03	3.095030E-15	1.827525E-16
7.430000E+03	3.083738E-15	1.819605E-16
7.440000E+03	3.072147E-15	1.811281E-16
7.450000E+03	3.060512E-15	1.802695E-16
7.460000E+03	3.048936E-15	1.793899E-16
7.470000E+03	3.037639E-15	1.785011E-16
7.480000E+03	3.026762E-15	1.776102E-16
7.490000E+03	3.016558E-15	1.767307E-16
7.500000E+03	3.007085E-15	1.758646E-16
7.510000E+03	2.998621E-15	1.750263E-16
7.520000E+03	2.991248E-15	1.742187E-16
7.530000E+03	2.985149E-15	1.734504E-16
7.540000E+03	2.980459E-15	1.727268E-16
7.550000E+03	2.977261E-15	1.720500E-16
7.560000E+03	2.975700E-15	1.714254E-16
7.570000E+03	2.975904E-15	1.708573E-16
7.580000E+03	2.977871E-15	1.703419E-16
7.590000E+03	2.981692E-15	1.698806E-16
7.600000E+03	2.987402E-15	1.694711E-16
7.610000E+03	2.995054E-15	1.691117E-16
7.620000E+03	3.004600E-15	1.687949E-16
7.630000E+03	3.016009E-15	1.685136E-16
7.640000E+03	3.029266E-15	1.682612E-16
7.650000E+03	3.044253E-15	1.680251E-16
7.660000E+03	3.060905E-15	1.677953E-16
7.670000E+03	3.079095E-15	1.675581E-16
7.680000E+03	3.098671E-15	1.672981E-16
7.690000E+03	3.119415E-15	1.669964E-16
7.700000E+03	3.141208E-15	1.666391E-16
7.710000E+03	3.163787E-15	1.662046E-16
7.720000E+03	3.186909E-15	1.656724E-16
7.730000E+03	3.210310E-15	1.650213E-16
7.740000E+03	3.233708E-15	1.642294E-16
7.750000E+03	3.256808E-15	1.632746E-16
7.760000E+03	3.279344E-15	1.621370E-16
