#wls	flux	fluxerr
1.600000E+03	4.044210E-16	3.142343E-16
1.640000E+03	4.099674E-16	3.147037E-16
1.680000E+03	4.156078E-16	3.150386E-16
1.720000E+03	4.214949E-16	3.153446E-16
1.760000E+03	4.274638E-16	3.154869E-16
1.800000E+03	4.336689E-16	3.155692E-16
1.840000E+03	4.400219E-16	3.155146E-16
1.880000E+03	4.465972E-16	3.153645E-16
1.920000E+03	4.533017E-16	3.150403E-16
1.960000E+03	4.602940E-16	3.146394E-16
2.000000E+03	4.674782E-16	3.140806E-16
2.040000E+03	4.748401E-16	3.133407E-16
2.080000E+03	4.823631E-16	3.123955E-16
2.120000E+03	4.902066E-16	3.113330E-16
2.160000E+03	4.982634E-16	3.100671E-16
2.200000E+03	5.065108E-16	3.085683E-16
2.240000E+03	5.151054E-16	3.069150E-16
2.280000E+03	5.238372E-16	3.049634E-16
2.320000E+03	5.328574E-16	3.027865E-16
2.360000E+03	5.421309E-16	3.003452E-16
2.400000E+03	5.516179E-16	2.976000E-16
2.440000E+03	5.613668E-16	2.945599E-16
2.480000E+03	5.713276E-16	2.911811E-16
2.520000E+03	5.815388E-16	2.874663E-16
2.560000E+03	5.920327E-16	2.834136E-16
2.600000E+03	6.027406E-16	2.789725E-16
2.640000E+03	6.136807E-16	2.741359E-16
2.680000E+03	6.248630E-16	2.688930E-16
2.720000E+03	6.362889E-16	2.632295E-16
2.760000E+03	6.479499E-16	2.571279E-16
2.800000E+03	6.599203E-16	2.506043E-16
2.840000E+03	6.720771E-16	2.435992E-16
2.880000E+03	6.845626E-16	2.361555E-16
2.920000E+03	6.973210E-16	2.282433E-16
2.960000E+03	7.103741E-16	2.198634E-16
3.000000E+03	7.237290E-16	2.110140E-16
3.010000E+03	7.271511E-16	2.087386E-16
3.020000E+03	7.305395E-16	2.064187E-16
3.030000E+03	7.339783E-16	2.040784E-16
3.040000E+03	7.374642E-16	2.017166E-16
3.050000E+03	7.409078E-16	1.993089E-16
3.060000E+03	7.444775E-16	1.969008E-16
3.070000E+03	7.479988E-16	1.944456E-16
3.080000E+03	7.515539E-16	1.919656E-16
3.090000E+03	7.552235E-16	1.894808E-16
3.100000E+03	7.588354E-16	1.869479E-16
3.110000E+03	7.624706E-16	1.843879E-16
3.120000E+03	7.662087E-16	1.818197E-16
3.130000E+03	7.698799E-16	1.792032E-16
3.140000E+03	7.736463E-16	1.765769E-16
3.150000E+03	7.774215E-16	1.739209E-16
3.160000E+03	7.812833E-16	1.712530E-16
3.170000E+03	7.851463E-16	1.685544E-16
3.180000E+03	7.890074E-16	1.658252E-16
3.190000E+03	7.929430E-16	1.630823E-16
3.200000E+03	7.969485E-16	1.603247E-16
3.210000E+03	8.009408E-16	1.575361E-16
3.220000E+03	8.050730E-16	1.547474E-16
3.230000E+03	8.091064E-16	1.519130E-16
3.240000E+03	8.132711E-16	1.490778E-16
3.250000E+03	8.174845E-16	1.462268E-16
3.260000E+03	8.217426E-16	1.433601E-16
3.270000E+03	8.260412E-16	1.404781E-16
3.280000E+03	8.303762E-16	1.375814E-16
3.290000E+03	8.348183E-16	1.346829E-16
3.300000E+03	8.392142E-16	1.317592E-16
3.310000E+03	8.437820E-16	1.288467E-16
3.320000E+03	8.483691E-16	1.259229E-16
3.330000E+03	8.529722E-16	1.229898E-16
3.340000E+03	8.577315E-16	1.200700E-16
3.350000E+03	8.624981E-16	1.171444E-16
3.360000E+03	8.673396E-16	1.142255E-16
3.370000E+03	8.722517E-16	1.113157E-16
3.380000E+03	8.772298E-16	1.084181E-16
3.390000E+03	8.822699E-16	1.055360E-16
3.400000E+03	8.874364E-16	1.026814E-16
3.410000E+03	8.926559E-16	9.985045E-17
3.420000E+03	8.979922E-16	9.705589E-17
3.430000E+03	9.034400E-16	9.430293E-17
3.440000E+03	9.089283E-16	9.159101E-17
3.450000E+03	9.145198E-16	8.893447E-17
3.460000E+03	9.202100E-16	8.634135E-17
3.470000E+03	9.259947E-16	8.382078E-17
3.480000E+03	9.319338E-16	8.138862E-17
3.490000E+03	9.379586E-16	7.905025E-17
3.500000E+03	9.440659E-16	7.681830E-17
3.510000E+03	9.503146E-16	7.471148E-17
3.520000E+03	9.567004E-16	7.274401E-17
3.530000E+03	9.631582E-16	7.092657E-17
3.540000E+03	9.698068E-16	6.928418E-17
3.550000E+03	9.765815E-16	6.782831E-17
3.560000E+03	9.834791E-16	6.657485E-17
3.570000E+03	9.905560E-16	6.554273E-17
3.580000E+03	9.977500E-16	6.474121E-17
3.590000E+03	1.005117E-15	6.418482E-17
3.600000E+03	1.012596E-15	6.387568E-17
3.610000E+03	1.020301E-15	6.381808E-17
3.620000E+03	1.028173E-15	6.399869E-17
3.630000E+03	1.036210E-15	6.440420E-17
3.640000E+03	1.044413E-15	6.501869E-17
3.650000E+03	1.052836E-15	6.582778E-17
3.660000E+03	1.061478E-15	6.681253E-17
3.670000E+03	1.070337E-15	6.795364E-17
3.680000E+03	1.079359E-15	6.922855E-17
3.690000E+03	1.088651E-15	7.062558E-17
3.700000E+03	1.098160E-15	7.212371E-17
3.710000E+03	1.107936E-15	7.370993E-17
3.720000E+03	1.117926E-15	7.536560E-17
3.730000E+03	1.128132E-15	7.707679E-17
3.740000E+03	1.138653E-15	7.883780E-17
3.750000E+03	1.149438E-15	8.063377E-17
3.760000E+03	1.160435E-15	8.245091E-17
3.770000E+03	1.171743E-15	8.428699E-17
3.780000E+03	1.183310E-15	8.613024E-17
3.790000E+03	1.195182E-15	8.797674E-17
3.800000E+03	1.207309E-15	8.981624E-17
3.810000E+03	1.219736E-15	9.164626E-17
3.820000E+03	1.232460E-15	9.346131E-17
3.830000E+03	1.245429E-15	9.525281E-17
3.840000E+03	1.258735E-15	9.702331E-17
3.850000E+03	1.272281E-15	9.876142E-17
3.860000E+03	1.286154E-15	1.004703E-16
3.870000E+03	1.300258E-15	1.021392E-16
3.880000E+03	1.314682E-15	1.037716E-16
3.890000E+03	1.329418E-15	1.053642E-16
3.900000E+03	1.344375E-15	1.069066E-16
3.910000E+03	1.359637E-15	1.084029E-16
3.920000E+03	1.375155E-15	1.098464E-16
3.930000E+03	1.390927E-15	1.112342E-16
3.940000E+03	1.406994E-15	1.125669E-16
3.950000E+03	1.423309E-15	1.138380E-16
3.960000E+03	1.439871E-15	1.150449E-16
3.970000E+03	1.456679E-15	1.161846E-16
3.980000E+03	1.473735E-15	1.172544E-16
3.990000E+03	1.491039E-15	1.182517E-16
4.000000E+03	1.508552E-15	1.191703E-16
4.010000E+03	1.526321E-15	1.200111E-16
4.020000E+03	1.544349E-15	1.207713E-16
4.030000E+03	1.562563E-15	1.214419E-16
4.040000E+03	1.581051E-15	1.220270E-16
4.050000E+03	1.599742E-15	1.225178E-16
4.060000E+03	1.618688E-15	1.229150E-16
4.070000E+03	1.637861E-15	1.232136E-16
4.080000E+03	1.657276E-15	1.234113E-16
4.090000E+03	1.676908E-15	1.235034E-16
4.100000E+03	1.696774E-15	1.234881E-16
4.110000E+03	1.716893E-15	1.233639E-16
4.120000E+03	1.737243E-15	1.231269E-16
4.130000E+03	1.757845E-15	1.227760E-16
4.140000E+03	1.778719E-15	1.223106E-16
4.150000E+03	1.799809E-15	1.217254E-16
4.160000E+03	1.821136E-15	1.210209E-16
4.170000E+03	1.842759E-15	1.202006E-16
4.180000E+03	1.864585E-15	1.192590E-16
4.190000E+03	1.886670E-15	1.182014E-16
4.200000E+03	1.908998E-15	1.170295E-16
4.210000E+03	1.931583E-15	1.157484E-16
4.220000E+03	1.954369E-15	1.143608E-16
4.230000E+03	1.977404E-15	1.128777E-16
4.240000E+03	2.000628E-15	1.113062E-16
4.250000E+03	2.024047E-15	1.096601E-16
4.260000E+03	2.047630E-15	1.079547E-16
4.270000E+03	2.071417E-15	1.062125E-16
4.280000E+03	2.095294E-15	1.044528E-16
4.290000E+03	2.119328E-15	1.027088E-16
4.300000E+03	2.143437E-15	1.010115E-16
4.310000E+03	2.167604E-15	9.940109E-17
4.320000E+03	2.191775E-15	9.792122E-17
4.330000E+03	2.215997E-15	9.662565E-17
4.340000E+03	2.240132E-15	9.556416E-17
4.350000E+03	2.264221E-15	9.479688E-17
4.360000E+03	2.288191E-15	9.437912E-17
4.370000E+03	2.312041E-15	9.436562E-17
4.380000E+03	2.335731E-15	9.480204E-17
4.390000E+03	2.359225E-15	9.572168E-17
4.400000E+03	2.382540E-15	9.714007E-17
4.410000E+03	2.405634E-15	9.904987E-17
4.420000E+03	2.428580E-15	1.014333E-16
4.430000E+03	2.451307E-15	1.042558E-16
4.440000E+03	2.473888E-15	1.074808E-16
4.450000E+03	2.496254E-15	1.110618E-16
4.460000E+03	2.518473E-15	1.149565E-16
4.470000E+03	2.540542E-15	1.191201E-16
4.480000E+03	2.562385E-15	1.235064E-16
4.490000E+03	2.583991E-15	1.280747E-16
4.500000E+03	2.605385E-15	1.327896E-16
4.510000E+03	2.626447E-15	1.376115E-16
4.520000E+03	2.647160E-15	1.425091E-16
4.530000E+03	2.667469E-15	1.474523E-16
4.540000E+03	2.687320E-15	1.524137E-16
4.550000E+03	2.706657E-15	1.573682E-16
4.560000E+03	2.725490E-15	1.622970E-16
4.570000E+03	2.743695E-15	1.671753E-16
4.580000E+03	2.761282E-15	1.719883E-16
4.590000E+03	2.778232E-15	1.767209E-16
4.600000E+03	2.794455E-15	1.813553E-16
4.610000E+03	2.809968E-15	1.858816E-16
4.620000E+03	2.824722E-15	1.902869E-16
4.630000E+03	2.838705E-15	1.945619E-16
4.640000E+03	2.851943E-15	1.987009E-16
4.650000E+03	2.864362E-15	2.026922E-16
4.660000E+03	2.875996E-15	2.065324E-16
4.670000E+03	2.886813E-15	2.102142E-16
4.680000E+03	2.896855E-15	2.137366E-16
4.690000E+03	2.906101E-15	2.170941E-16
4.700000E+03	2.914565E-15	2.202848E-16
4.710000E+03	2.922234E-15	2.233053E-16
4.720000E+03	2.929099E-15	2.261524E-16
4.730000E+03	2.935220E-15	2.288293E-16
4.740000E+03	2.940594E-15	2.313344E-16
4.750000E+03	2.945189E-15	2.336640E-16
4.760000E+03	2.949074E-15	2.358229E-16
4.770000E+03	2.952221E-15	2.378084E-16
4.780000E+03	2.954703E-15	2.396262E-16
4.790000E+03	2.956560E-15	2.412795E-16
4.800000E+03	2.957835E-15	2.427719E-16
4.810000E+03	2.958568E-15	2.441073E-16
4.820000E+03	2.958866E-15	2.452949E-16
4.830000E+03	2.958769E-15	2.463388E-16
4.840000E+03	2.958380E-15	2.472484E-16
4.850000E+03	2.957770E-15	2.480303E-16
4.860000E+03	2.957006E-15	2.486911E-16
4.870000E+03	2.956156E-15	2.492373E-16
4.880000E+03	2.955251E-15	2.496724E-16
4.890000E+03	2.954418E-15	2.500078E-16
4.900000E+03	2.953654E-15	2.502440E-16
4.910000E+03	2.953019E-15	2.503864E-16
4.920000E+03	2.952539E-15	2.504377E-16
4.930000E+03	2.952300E-15	2.504055E-16
4.940000E+03	2.952296E-15	2.502892E-16
4.950000E+03	2.952578E-15	2.500930E-16
4.960000E+03	2.953167E-15	2.498184E-16
4.970000E+03	2.954113E-15	2.494691E-16
4.980000E+03	2.955402E-15	2.490432E-16
4.990000E+03	2.957082E-15	2.485436E-16
5.000000E+03	2.959197E-15	2.479730E-16
5.010000E+03	2.961699E-15	2.473259E-16
5.020000E+03	2.964659E-15	2.466066E-16
5.030000E+03	2.968056E-15	2.458115E-16
5.040000E+03	2.971925E-15	2.449416E-16
5.050000E+03	2.976270E-15	2.439946E-16
5.060000E+03	2.981060E-15	2.429657E-16
5.070000E+03	2.986352E-15	2.418568E-16
5.080000E+03	2.992077E-15	2.406594E-16
5.090000E+03	2.998253E-15	2.393719E-16
5.100000E+03	3.004895E-15	2.379922E-16
5.110000E+03	3.011920E-15	2.365104E-16
5.120000E+03	3.019361E-15	2.349257E-16
5.130000E+03	3.027157E-15	2.332297E-16
5.140000E+03	3.035267E-15	2.314157E-16
5.150000E+03	3.043681E-15	2.294793E-16
5.160000E+03	3.052317E-15	2.274108E-16
5.170000E+03	3.061150E-15	2.252050E-16
5.180000E+03	3.070121E-15	2.228542E-16
5.190000E+03	3.079131E-15	2.203482E-16
5.200000E+03	3.088141E-15	2.176817E-16
5.210000E+03	3.097074E-15	2.148471E-16
5.220000E+03	3.105818E-15	2.118350E-16
5.230000E+03	3.114355E-15	2.086432E-16
5.240000E+03	3.122566E-15	2.052636E-16
5.250000E+03	3.130364E-15	2.016914E-16
5.260000E+03	3.137658E-15	1.979227E-16
5.270000E+03	3.144392E-15	1.939574E-16
5.280000E+03	3.150445E-15	1.897930E-16
5.290000E+03	3.155732E-15	1.854311E-16
5.300000E+03	3.160231E-15	1.808793E-16
5.310000E+03	3.163800E-15	1.761406E-16
5.320000E+03	3.166364E-15	1.712250E-16
5.330000E+03	3.167918E-15	1.661495E-16
5.340000E+03	3.168368E-15	1.609300E-16
5.350000E+03	3.167659E-15	1.555888E-16
5.360000E+03	3.165745E-15	1.501538E-16
5.370000E+03	3.162622E-15	1.446603E-16
5.380000E+03	3.158230E-15	1.391476E-16
5.390000E+03	3.152551E-15	1.336642E-16
5.400000E+03	3.145611E-15	1.282685E-16
5.410000E+03	3.137413E-15	1.230267E-16
5.420000E+03	3.127938E-15	1.180136E-16
5.430000E+03	3.117242E-15	1.133158E-16
5.440000E+03	3.105359E-15	1.090267E-16
5.450000E+03	3.092331E-15	1.052448E-16
5.460000E+03	3.078181E-15	1.020678E-16
5.470000E+03	3.062999E-15	9.958799E-17
5.480000E+03	3.046857E-15	9.788013E-17
5.490000E+03	3.029830E-15	9.699204E-17
5.500000E+03	3.011999E-15	9.693080E-17
5.510000E+03	2.993441E-15	9.765437E-17
5.520000E+03	2.974235E-15	9.908655E-17
5.530000E+03	2.954469E-15	1.011314E-16
5.540000E+03	2.934234E-15	1.036840E-16
5.550000E+03	2.913596E-15	1.066387E-16
5.560000E+03	2.892685E-15	1.098982E-16
5.570000E+03	2.871575E-15	1.133740E-16
5.580000E+03	2.850371E-15	1.169903E-16
5.590000E+03	2.829235E-15	1.206865E-16
5.600000E+03	2.808191E-15	1.244075E-16
5.610000E+03	2.787372E-15	1.281136E-16
5.620000E+03	2.766911E-15	1.317744E-16
5.630000E+03	2.746883E-15	1.353650E-16
5.640000E+03	2.727362E-15	1.388667E-16
5.650000E+03	2.708468E-15	1.422693E-16
5.660000E+03	2.690294E-15	1.455657E-16
5.670000E+03	2.672896E-15	1.487511E-16
5.680000E+03	2.656353E-15	1.518247E-16
5.690000E+03	2.640763E-15	1.547897E-16
5.700000E+03	2.626136E-15	1.576467E-16
5.710000E+03	2.612553E-15	1.604015E-16
5.720000E+03	2.600062E-15	1.630599E-16
5.730000E+03	2.588674E-15	1.656259E-16
5.740000E+03	2.578444E-15	1.681075E-16
5.750000E+03	2.569341E-15	1.705074E-16
5.760000E+03	2.561427E-15	1.728347E-16
5.770000E+03	2.554654E-15	1.750915E-16
5.780000E+03	2.549041E-15	1.772844E-16
5.790000E+03	2.544550E-15	1.794159E-16
5.800000E+03	2.541184E-15	1.814914E-16
5.810000E+03	2.538864E-15	1.835100E-16
5.820000E+03	2.537606E-15	1.854773E-16
5.830000E+03	2.537318E-15	1.873911E-16
5.840000E+03	2.537980E-15	1.892537E-16
5.850000E+03	2.539516E-15	1.910630E-16
5.860000E+03	2.541899E-15	1.928200E-16
5.870000E+03	2.545046E-15	1.945214E-16
5.880000E+03	2.548875E-15	1.961632E-16
5.890000E+03	2.553377E-15	1.977468E-16
5.900000E+03	2.558443E-15	1.992654E-16
5.910000E+03	2.564040E-15	2.007178E-16
5.920000E+03	2.570110E-15	2.021004E-16
5.930000E+03	2.576547E-15	2.034059E-16
5.940000E+03	2.583350E-15	2.046343E-16
5.950000E+03	2.590444E-15	2.057800E-16
5.960000E+03	2.597781E-15	2.068391E-16
5.970000E+03	2.605344E-15	2.078101E-16
5.980000E+03	2.613043E-15	2.086852E-16
5.990000E+03	2.620865E-15	2.094628E-16
6.000000E+03	2.628805E-15	2.101415E-16
6.010000E+03	2.636781E-15	2.107137E-16
6.020000E+03	2.644790E-15	2.111781E-16
6.030000E+03	2.652833E-15	2.115334E-16
6.040000E+03	2.660859E-15	2.117741E-16
6.050000E+03	2.668873E-15	2.118988E-16
6.060000E+03	2.676850E-15	2.119040E-16
6.070000E+03	2.684742E-15	2.117837E-16
6.080000E+03	2.692601E-15	2.115403E-16
6.090000E+03	2.700350E-15	2.111655E-16
6.100000E+03	2.708012E-15	2.106588E-16
6.110000E+03	2.715555E-15	2.100155E-16
6.120000E+03	2.722972E-15	2.092324E-16
6.130000E+03	2.730224E-15	2.083043E-16
6.140000E+03	2.737322E-15	2.072292E-16
6.150000E+03	2.744220E-15	2.060013E-16
6.160000E+03	2.750895E-15	2.046160E-16
6.170000E+03	2.757321E-15	2.030687E-16
6.180000E+03	2.763386E-15	2.013488E-16
6.190000E+03	2.769111E-15	1.994553E-16
6.200000E+03	2.774323E-15	1.973736E-16
6.210000E+03	2.779013E-15	1.951011E-16
6.220000E+03	2.783030E-15	1.926256E-16
6.230000E+03	2.786309E-15	1.899415E-16
6.240000E+03	2.788784E-15	1.870438E-16
6.250000E+03	2.790336E-15	1.839244E-16
6.260000E+03	2.790903E-15	1.805799E-16
6.270000E+03	2.790400E-15	1.770063E-16
6.280000E+03	2.788775E-15	1.732025E-16
6.290000E+03	2.785982E-15	1.691687E-16
6.300000E+03	2.781949E-15	1.649048E-16
6.310000E+03	2.776644E-15	1.604140E-16
6.320000E+03	2.770038E-15	1.557013E-16
6.330000E+03	2.762111E-15	1.507735E-16
6.340000E+03	2.752849E-15	1.456391E-16
6.350000E+03	2.742218E-15	1.403076E-16
6.360000E+03	2.730274E-15	1.347951E-16
6.370000E+03	2.717025E-15	1.291171E-16
6.380000E+03	2.702427E-15	1.232899E-16
6.390000E+03	2.686584E-15	1.173393E-16
6.400000E+03	2.669490E-15	1.112902E-16
6.410000E+03	2.651203E-15	1.051747E-16
6.420000E+03	2.631753E-15	9.902945E-17
6.430000E+03	2.611231E-15	9.290050E-17
6.440000E+03	2.589647E-15	8.683990E-17
6.450000E+03	2.567067E-15	8.091325E-17
6.460000E+03	2.543586E-15	7.520113E-17
6.470000E+03	2.519246E-15	6.979971E-17
6.480000E+03	2.494088E-15	6.482520E-17
6.490000E+03	2.468211E-15	6.041549E-17
6.500000E+03	2.441632E-15	5.672188E-17
6.510000E+03	2.414425E-15	5.389883E-17
6.520000E+03	2.386642E-15	5.207729E-17
6.530000E+03	2.358291E-15	5.133055E-17
6.540000E+03	2.329496E-15	5.163905E-17
6.550000E+03	2.300273E-15	5.288240E-17
6.560000E+03	2.270768E-15	5.488909E-17
6.570000E+03	2.241031E-15	5.747066E-17
6.580000E+03	2.211136E-15	6.045136E-17
6.590000E+03	2.181228E-15	6.368363E-17
6.600000E+03	2.151352E-15	6.704716E-17
6.610000E+03	2.121622E-15	7.045149E-17
6.620000E+03	2.092078E-15	7.382729E-17
6.630000E+03	2.062850E-15	7.712713E-17
6.640000E+03	2.033993E-15	8.031588E-17
6.650000E+03	2.005581E-15	8.337046E-17
6.660000E+03	1.977708E-15	8.627740E-17
6.670000E+03	1.950397E-15	8.902699E-17
6.680000E+03	1.923753E-15	9.161840E-17
6.690000E+03	1.897836E-15	9.405279E-17
6.700000E+03	1.872680E-15	9.633312E-17
6.710000E+03	1.848356E-15	9.846666E-17
6.720000E+03	1.824911E-15	1.004613E-16
6.730000E+03	1.802388E-15	1.023259E-16
6.740000E+03	1.780848E-15	1.040717E-16
6.750000E+03	1.760285E-15	1.057065E-16
6.760000E+03	1.740792E-15	1.072445E-16
6.770000E+03	1.722357E-15	1.086942E-16
6.780000E+03	1.705025E-15	1.100674E-16
6.790000E+03	1.688799E-15	1.113734E-16
6.800000E+03	1.673756E-15	1.126263E-16
6.810000E+03	1.659854E-15	1.138322E-16
6.820000E+03	1.647143E-15	1.150032E-16
6.830000E+03	1.635616E-15	1.161470E-16
6.840000E+03	1.625317E-15	1.172750E-16
6.850000E+03	1.616215E-15	1.183927E-16
6.860000E+03	1.608330E-15	1.195089E-16
6.870000E+03	1.601663E-15	1.206308E-16
6.880000E+03	1.596213E-15	1.217650E-16
6.890000E+03	1.591977E-15	1.229176E-16
6.900000E+03	1.588968E-15	1.240955E-16
6.910000E+03	1.587159E-15	1.253024E-16
6.920000E+03	1.586561E-15	1.265443E-16
6.930000E+03	1.587143E-15	1.278237E-16
6.940000E+03	1.588911E-15	1.291458E-16
6.950000E+03	1.591852E-15	1.305137E-16
6.960000E+03	1.595930E-15	1.319285E-16
6.970000E+03	1.601145E-15	1.333939E-16
6.980000E+03	1.607478E-15	1.349117E-16
6.990000E+03	1.614907E-15	1.364832E-16
7.000000E+03	1.623408E-15	1.381093E-16
7.010000E+03	1.632954E-15	1.397902E-16
7.020000E+03	1.643518E-15	1.415261E-16
7.030000E+03	1.655069E-15	1.433163E-16
7.040000E+03	1.667574E-15	1.451600E-16
7.050000E+03	1.680995E-15	1.470555E-16
7.060000E+03	1.695317E-15	1.490029E-16
7.070000E+03	1.710454E-15	1.509960E-16
7.080000E+03	1.726405E-15	1.530357E-16
7.090000E+03	1.743098E-15	1.551166E-16
7.100000E+03	1.760482E-15	1.572348E-16
7.110000E+03	1.778523E-15	1.593877E-16
7.120000E+03	1.797140E-15	1.615686E-16
7.130000E+03	1.816269E-15	1.637717E-16
7.140000E+03	1.835866E-15	1.659932E-16
7.150000E+03	1.855837E-15	1.682246E-16
7.160000E+03	1.876132E-15	1.704610E-16
7.170000E+03	1.896648E-15	1.726928E-16
7.180000E+03	1.917330E-15	1.749145E-16
7.190000E+03	1.938096E-15	1.771181E-16
7.200000E+03	1.958835E-15	1.792929E-16
7.210000E+03	1.979513E-15	1.814350E-16
7.220000E+03	1.999992E-15	1.835311E-16
7.230000E+03	2.020211E-15	1.855747E-16
7.240000E+03	2.040087E-15	1.875575E-16
7.250000E+03	2.059562E-15	1.894732E-16
7.260000E+03	2.078533E-15	1.913115E-16
7.270000E+03	2.096924E-15	1.930646E-16
7.280000E+03	2.114665E-15	1.947253E-16
7.290000E+03	2.131750E-15	1.962919E-16
7.300000E+03	2.148068E-15	1.977537E-16
7.310000E+03	2.163602E-15	1.991080E-16
7.320000E+03	2.178284E-15	2.003480E-16
7.330000E+03	2.192146E-15	2.014758E-16
7.340000E+03	2.205113E-15	2.024837E-16
7.350000E+03	2.217208E-15	2.033731E-16
7.360000E+03	2.228437E-15	2.041439E-16
7.370000E+03	2.238787E-15	2.047940E-16
7.380000E+03	2.248315E-15	2.053281E-16
7.390000E+03	2.257000E-15	2.057432E-16
7.400000E+03	2.264890E-15	2.060431E-16
7.410000E+03	2.272072E-15	2.062349E-16
7.420000E+03	2.278522E-15	2.063153E-16
7.430000E+03	2.284343E-15	2.062930E-16
7.440000E+03	2.289616E-15	2.061739E-16
7.450000E+03	2.294457E-15	2.059675E-16
7.460000E+03	2.298924E-15	2.056776E-16
7.470000E+03	2.303139E-15	2.053139E-16
7.480000E+03	2.307197E-15	2.048829E-16
7.490000E+03	2.311220E-15	2.043939E-16
7.500000E+03	2.315268E-15	2.038501E-16
7.510000E+03	2.319460E-15	2.032596E-16
7.520000E+03	2.323845E-15	2.026246E-16
7.530000E+03	2.328534E-15	2.019517E-16
7.540000E+03	2.333593E-15	2.012440E-16
7.550000E+03	2.339019E-15	2.004980E-16
7.560000E+03	2.344927E-15	1.997200E-16
7.570000E+03	2.351323E-15	1.989071E-16
7.580000E+03	2.358234E-15	1.980576E-16
7.590000E+03	2.365675E-15	1.971688E-16
7.600000E+03	2.373615E-15	1.962336E-16
7.610000E+03	2.382040E-15	1.952466E-16
7.620000E+03	2.390955E-15	1.942035E-16
7.630000E+03	2.400318E-15	1.930962E-16
7.640000E+03	2.410007E-15	1.919100E-16
7.650000E+03	2.419983E-15	1.906370E-16
7.660000E+03	2.430161E-15	1.892656E-16
7.670000E+03	2.440475E-15	1.877859E-16
7.680000E+03	2.450746E-15	1.861794E-16
7.690000E+03	2.460850E-15	1.844325E-16
7.700000E+03	2.470722E-15	1.825361E-16
7.710000E+03	2.480150E-15	1.804708E-16
7.720000E+03	2.489020E-15	1.782250E-16
7.730000E+03	2.497177E-15	1.757849E-16
7.740000E+03	2.504463E-15	1.731372E-16
7.750000E+03	2.510719E-15	1.702695E-16
7.760000E+03	2.515753E-15	1.671685E-16
