#wls	flux	fluxerr
1.600000E+03	3.731441E-16	2.955485E-16
1.640000E+03	3.790403E-16	2.968533E-16
1.680000E+03	3.851074E-16	2.980965E-16
1.720000E+03	3.913408E-16	2.992644E-16
1.760000E+03	3.977352E-16	3.003425E-16
1.800000E+03	4.042839E-16	3.013157E-16
1.840000E+03	4.110533E-16	3.022221E-16
1.880000E+03	4.180371E-16	3.030444E-16
1.920000E+03	4.251513E-16	3.037098E-16
1.960000E+03	4.325376E-16	3.043073E-16
2.000000E+03	4.401097E-16	3.047620E-16
2.040000E+03	4.479330E-16	3.051057E-16
2.080000E+03	4.559950E-16	3.053146E-16
2.120000E+03	4.642806E-16	3.053639E-16
2.160000E+03	4.728535E-16	3.052799E-16
2.200000E+03	4.816959E-16	3.050340E-16
2.240000E+03	4.907874E-16	3.045967E-16
2.280000E+03	5.001044E-16	3.039375E-16
2.320000E+03	5.097866E-16	3.031240E-16
2.360000E+03	5.197235E-16	3.020709E-16
2.400000E+03	5.299672E-16	3.007913E-16
2.440000E+03	5.404830E-16	2.992472E-16
2.480000E+03	5.514018E-16	2.974922E-16
2.520000E+03	5.626825E-16	2.954822E-16
2.560000E+03	5.742789E-16	2.931733E-16
2.600000E+03	5.863108E-16	2.906069E-16
2.640000E+03	5.987227E-16	2.877337E-16
2.680000E+03	6.115391E-16	2.845456E-16
2.720000E+03	6.247789E-16	2.810316E-16
2.760000E+03	6.385396E-16	2.772148E-16
2.800000E+03	6.528265E-16	2.730754E-16
2.840000E+03	6.675536E-16	2.685582E-16
2.880000E+03	6.829635E-16	2.637431E-16
2.920000E+03	6.989533E-16	2.585692E-16
2.960000E+03	7.155789E-16	2.530425E-16
3.000000E+03	7.329672E-16	2.471937E-16
3.010000E+03	7.374260E-16	2.456771E-16
3.020000E+03	7.419578E-16	2.441477E-16
3.030000E+03	7.464795E-16	2.425783E-16
3.040000E+03	7.511502E-16	2.410205E-16
3.050000E+03	7.558065E-16	2.394212E-16
3.060000E+03	7.605267E-16	2.378057E-16
3.070000E+03	7.653082E-16	2.361730E-16
3.080000E+03	7.701487E-16	2.345224E-16
3.090000E+03	7.750457E-16	2.328529E-16
3.100000E+03	7.799967E-16	2.311640E-16
3.110000E+03	7.849993E-16	2.294550E-16
3.120000E+03	7.900510E-16	2.277254E-16
3.130000E+03	7.952272E-16	2.259969E-16
3.140000E+03	8.003694E-16	2.242246E-16
3.150000E+03	8.056305E-16	2.224520E-16
3.160000E+03	8.110073E-16	2.206778E-16
3.170000E+03	8.164195E-16	2.188803E-16
3.180000E+03	8.218648E-16	2.170595E-16
3.190000E+03	8.274167E-16	2.152354E-16
3.200000E+03	8.329961E-16	2.133877E-16
3.210000E+03	8.386760E-16	2.115360E-16
3.220000E+03	8.444530E-16	2.096794E-16
3.230000E+03	8.503236E-16	2.078178E-16
3.240000E+03	8.562100E-16	2.059326E-16
3.250000E+03	8.621840E-16	2.040426E-16
3.260000E+03	8.683159E-16	2.021647E-16
3.270000E+03	8.744545E-16	2.002645E-16
3.280000E+03	8.807435E-16	1.983761E-16
3.290000E+03	8.870333E-16	1.964667E-16
3.300000E+03	8.934661E-16	1.945695E-16
3.310000E+03	8.999657E-16	1.926689E-16
3.320000E+03	9.066003E-16	1.907808E-16
3.330000E+03	9.132945E-16	1.888905E-16
3.340000E+03	9.201157E-16	1.870138E-16
3.350000E+03	9.269893E-16	1.851371E-16
3.360000E+03	9.340522E-16	1.832896E-16
3.370000E+03	9.410899E-16	1.814307E-16
3.380000E+03	9.483084E-16	1.796029E-16
3.390000E+03	9.556334E-16	1.777935E-16
3.400000E+03	9.630608E-16	1.760041E-16
3.410000E+03	9.705863E-16	1.742362E-16
3.420000E+03	9.782736E-16	1.725036E-16
3.430000E+03	9.860501E-16	1.707956E-16
3.440000E+03	9.939117E-16	1.691144E-16
3.450000E+03	1.001921E-15	1.674732E-16
3.460000E+03	1.010007E-15	1.658629E-16
3.470000E+03	1.018296E-15	1.643070E-16
3.480000E+03	1.026652E-15	1.627860E-16
3.490000E+03	1.035136E-15	1.613124E-16
3.500000E+03	1.043743E-15	1.598883E-16
3.510000E+03	1.052532E-15	1.585253E-16
3.520000E+03	1.061432E-15	1.572153E-16
3.530000E+03	1.070440E-15	1.559603E-16
3.540000E+03	1.079612E-15	1.547712E-16
3.550000E+03	1.088880E-15	1.536404E-16
3.560000E+03	1.098364E-15	1.525869E-16
3.570000E+03	1.107932E-15	1.515943E-16
3.580000E+03	1.117641E-15	1.506723E-16
3.590000E+03	1.127485E-15	1.498216E-16
3.600000E+03	1.137518E-15	1.490505E-16
3.610000E+03	1.147673E-15	1.483510E-16
3.620000E+03	1.157943E-15	1.477232E-16
3.630000E+03	1.168441E-15	1.471816E-16
3.640000E+03	1.179041E-15	1.467101E-16
3.650000E+03	1.189736E-15	1.463080E-16
3.660000E+03	1.200636E-15	1.459880E-16
3.670000E+03	1.211733E-15	1.457480E-16
3.680000E+03	1.222904E-15	1.455717E-16
3.690000E+03	1.234257E-15	1.454705E-16
3.700000E+03	1.245726E-15	1.454348E-16
3.710000E+03	1.257416E-15	1.454744E-16
3.720000E+03	1.269207E-15	1.455729E-16
3.730000E+03	1.281147E-15	1.457329E-16
3.740000E+03	1.293226E-15	1.459507E-16
3.750000E+03	1.305437E-15	1.462221E-16
3.760000E+03	1.317827E-15	1.465489E-16
3.770000E+03	1.330331E-15	1.469204E-16
3.780000E+03	1.342995E-15	1.473382E-16
3.790000E+03	1.355810E-15	1.477973E-16
3.800000E+03	1.368715E-15	1.482874E-16
3.810000E+03	1.381807E-15	1.488149E-16
3.820000E+03	1.394972E-15	1.493637E-16
3.830000E+03	1.408306E-15	1.499402E-16
3.840000E+03	1.421800E-15	1.505392E-16
3.850000E+03	1.435394E-15	1.511505E-16
3.860000E+03	1.449082E-15	1.517694E-16
3.870000E+03	1.462906E-15	1.523965E-16
3.880000E+03	1.476908E-15	1.530320E-16
3.890000E+03	1.490982E-15	1.536610E-16
3.900000E+03	1.505171E-15	1.542843E-16
3.910000E+03	1.519468E-15	1.548974E-16
3.920000E+03	1.533869E-15	1.554959E-16
3.930000E+03	1.548416E-15	1.560807E-16
3.940000E+03	1.563057E-15	1.566427E-16
3.950000E+03	1.577790E-15	1.571782E-16
3.960000E+03	1.592657E-15	1.576880E-16
3.970000E+03	1.607656E-15	1.581687E-16
3.980000E+03	1.622741E-15	1.586122E-16
3.990000E+03	1.637912E-15	1.590155E-16
4.000000E+03	1.653215E-15	1.593801E-16
4.010000E+03	1.668652E-15	1.597033E-16
4.020000E+03	1.684226E-15	1.599825E-16
4.030000E+03	1.699896E-15	1.602114E-16
4.040000E+03	1.715670E-15	1.603881E-16
4.050000E+03	1.731596E-15	1.605153E-16
4.060000E+03	1.747683E-15	1.605915E-16
4.070000E+03	1.763896E-15	1.606120E-16
4.080000E+03	1.780246E-15	1.605764E-16
4.090000E+03	1.796787E-15	1.604885E-16
4.100000E+03	1.813448E-15	1.603411E-16
4.110000E+03	1.830325E-15	1.601426E-16
4.120000E+03	1.847352E-15	1.598873E-16
4.130000E+03	1.864583E-15	1.595807E-16
4.140000E+03	1.881997E-15	1.592220E-16
4.150000E+03	1.899650E-15	1.588180E-16
4.160000E+03	1.917482E-15	1.583660E-16
4.170000E+03	1.935550E-15	1.578744E-16
4.180000E+03	1.953837E-15	1.573455E-16
4.190000E+03	1.972361E-15	1.567860E-16
4.200000E+03	1.991143E-15	1.562036E-16
4.210000E+03	2.010166E-15	1.556038E-16
4.220000E+03	2.029412E-15	1.549934E-16
4.230000E+03	2.048940E-15	1.543862E-16
4.240000E+03	2.068695E-15	1.537885E-16
4.250000E+03	2.088735E-15	1.532164E-16
4.260000E+03	2.109005E-15	1.526787E-16
4.270000E+03	2.129524E-15	1.521910E-16
4.280000E+03	2.150275E-15	1.517676E-16
4.290000E+03	2.171238E-15	1.514234E-16
4.300000E+03	2.192393E-15	1.511748E-16
4.310000E+03	2.213793E-15	1.510433E-16
4.320000E+03	2.235341E-15	1.510413E-16
4.330000E+03	2.257016E-15	1.511862E-16
4.340000E+03	2.278863E-15	1.514997E-16
4.350000E+03	2.300747E-15	1.519911E-16
4.360000E+03	2.322712E-15	1.526801E-16
4.370000E+03	2.344688E-15	1.535775E-16
4.380000E+03	2.366606E-15	1.546919E-16
4.390000E+03	2.388428E-15	1.560313E-16
4.400000E+03	2.410111E-15	1.575991E-16
4.410000E+03	2.431570E-15	1.593917E-16
4.420000E+03	2.452753E-15	1.614044E-16
4.430000E+03	2.473534E-15	1.636245E-16
4.440000E+03	2.493923E-15	1.660454E-16
4.450000E+03	2.513790E-15	1.686485E-16
4.460000E+03	2.533140E-15	1.714222E-16
4.470000E+03	2.551907E-15	1.743485E-16
4.480000E+03	2.570089E-15	1.774124E-16
4.490000E+03	2.587619E-15	1.805933E-16
4.500000E+03	2.604494E-15	1.838745E-16
4.510000E+03	2.620711E-15	1.872390E-16
4.520000E+03	2.636200E-15	1.906649E-16
4.530000E+03	2.650991E-15	1.941378E-16
4.540000E+03	2.665048E-15	1.976387E-16
4.550000E+03	2.678304E-15	2.011467E-16
4.560000E+03	2.690793E-15	2.046491E-16
4.570000E+03	2.702484E-15	2.081289E-16
4.580000E+03	2.713351E-15	2.115700E-16
4.590000E+03	2.723434E-15	2.149626E-16
4.600000E+03	2.732647E-15	2.182874E-16
4.610000E+03	2.741037E-15	2.215366E-16
4.620000E+03	2.748592E-15	2.246983E-16
4.630000E+03	2.755334E-15	2.277644E-16
4.640000E+03	2.761226E-15	2.307225E-16
4.650000E+03	2.766334E-15	2.335694E-16
4.660000E+03	2.770627E-15	2.362950E-16
4.670000E+03	2.774116E-15	2.388929E-16
4.680000E+03	2.776877E-15	2.413631E-16
4.690000E+03	2.778864E-15	2.436959E-16
4.700000E+03	2.780130E-15	2.458905E-16
4.710000E+03	2.780701E-15	2.479445E-16
4.720000E+03	2.780543E-15	2.498506E-16
4.730000E+03	2.779722E-15	2.516109E-16
4.740000E+03	2.778210E-15	2.532196E-16
4.750000E+03	2.776049E-15	2.546773E-16
4.760000E+03	2.773217E-15	2.559795E-16
4.770000E+03	2.769760E-15	2.571282E-16
4.780000E+03	2.765755E-15	2.581284E-16
4.790000E+03	2.761187E-15	2.589773E-16
4.800000E+03	2.756166E-15	2.596837E-16
4.810000E+03	2.750769E-15	2.602541E-16
4.820000E+03	2.745073E-15	2.606950E-16
4.830000E+03	2.739155E-15	2.610132E-16
4.840000E+03	2.733117E-15	2.612182E-16
4.850000E+03	2.727004E-15	2.613141E-16
4.860000E+03	2.720915E-15	2.613106E-16
4.870000E+03	2.714890E-15	2.612114E-16
4.880000E+03	2.708995E-15	2.610232E-16
4.890000E+03	2.703235E-15	2.607467E-16
4.900000E+03	2.697703E-15	2.603908E-16
4.910000E+03	2.692400E-15	2.599559E-16
4.920000E+03	2.687381E-15	2.594476E-16
4.930000E+03	2.682674E-15	2.588684E-16
4.940000E+03	2.678301E-15	2.582206E-16
4.950000E+03	2.674310E-15	2.575087E-16
4.960000E+03	2.670690E-15	2.567314E-16
4.970000E+03	2.667484E-15	2.558926E-16
4.980000E+03	2.664674E-15	2.549903E-16
4.990000E+03	2.662325E-15	2.540300E-16
5.000000E+03	2.660414E-15	2.530089E-16
5.010000E+03	2.658941E-15	2.519264E-16
5.020000E+03	2.657934E-15	2.507841E-16
5.030000E+03	2.657358E-15	2.495778E-16
5.040000E+03	2.657232E-15	2.483082E-16
5.050000E+03	2.657570E-15	2.469754E-16
5.060000E+03	2.658301E-15	2.455714E-16
5.070000E+03	2.659458E-15	2.440982E-16
5.080000E+03	2.660991E-15	2.425495E-16
5.090000E+03	2.662897E-15	2.409239E-16
5.100000E+03	2.665116E-15	2.392145E-16
5.110000E+03	2.667640E-15	2.374192E-16
5.120000E+03	2.670455E-15	2.355355E-16
5.130000E+03	2.673462E-15	2.335536E-16
5.140000E+03	2.676667E-15	2.314732E-16
5.150000E+03	2.679993E-15	2.292866E-16
5.160000E+03	2.683382E-15	2.269888E-16
5.170000E+03	2.686806E-15	2.245771E-16
5.180000E+03	2.690175E-15	2.220445E-16
5.190000E+03	2.693454E-15	2.193890E-16
5.200000E+03	2.696550E-15	2.166046E-16
5.210000E+03	2.699423E-15	2.136902E-16
5.220000E+03	2.702005E-15	2.106434E-16
5.230000E+03	2.704201E-15	2.074607E-16
5.240000E+03	2.705970E-15	2.041437E-16
5.250000E+03	2.707243E-15	2.006934E-16
5.260000E+03	2.707926E-15	1.971099E-16
5.270000E+03	2.707956E-15	1.933973E-16
5.280000E+03	2.707297E-15	1.895632E-16
5.290000E+03	2.705891E-15	1.856153E-16
5.300000E+03	2.703656E-15	1.815615E-16
5.310000E+03	2.700541E-15	1.774138E-16
5.320000E+03	2.696503E-15	1.731871E-16
5.330000E+03	2.691501E-15	1.688986E-16
5.340000E+03	2.685503E-15	1.645685E-16
5.350000E+03	2.678483E-15	1.602197E-16
5.360000E+03	2.670395E-15	1.558767E-16
5.370000E+03	2.661254E-15	1.515700E-16
5.380000E+03	2.651030E-15	1.473301E-16
5.390000E+03	2.639727E-15	1.431917E-16
5.400000E+03	2.627358E-15	1.391919E-16
5.410000E+03	2.613915E-15	1.353684E-16
5.420000E+03	2.599452E-15	1.317628E-16
5.430000E+03	2.583979E-15	1.284141E-16
5.440000E+03	2.567536E-15	1.253615E-16
5.450000E+03	2.550148E-15	1.226403E-16
5.460000E+03	2.531869E-15	1.202828E-16
5.470000E+03	2.512709E-15	1.183125E-16
5.480000E+03	2.492711E-15	1.167466E-16
5.490000E+03	2.471873E-15	1.155903E-16
5.500000E+03	2.450248E-15	1.148402E-16
5.510000E+03	2.428042E-15	1.144864E-16
5.520000E+03	2.405387E-15	1.145061E-16
5.530000E+03	2.382391E-15	1.148683E-16
5.540000E+03	2.359186E-15	1.155384E-16
5.550000E+03	2.335858E-15	1.164770E-16
5.560000E+03	2.312491E-15	1.176439E-16
5.570000E+03	2.289195E-15	1.190009E-16
5.580000E+03	2.266055E-15	1.205110E-16
5.590000E+03	2.243130E-15	1.221390E-16
5.600000E+03	2.220550E-15	1.238569E-16
5.610000E+03	2.198372E-15	1.256372E-16
5.620000E+03	2.176675E-15	1.274573E-16
5.630000E+03	2.155577E-15	1.293011E-16
5.640000E+03	2.135109E-15	1.311509E-16
5.650000E+03	2.115339E-15	1.329949E-16
5.660000E+03	2.096396E-15	1.348281E-16
5.670000E+03	2.078279E-15	1.366403E-16
5.680000E+03	2.061066E-15	1.384286E-16
5.690000E+03	2.044829E-15	1.401922E-16
5.700000E+03	2.029617E-15	1.419305E-16
5.710000E+03	2.015453E-15	1.436427E-16
5.720000E+03	2.002395E-15	1.453319E-16
5.730000E+03	1.990478E-15	1.470005E-16
5.740000E+03	1.979730E-15	1.486514E-16
5.750000E+03	1.970157E-15	1.502865E-16
5.760000E+03	1.961817E-15	1.519123E-16
5.770000E+03	1.954708E-15	1.535310E-16
5.780000E+03	1.948820E-15	1.551446E-16
5.790000E+03	1.944200E-15	1.567596E-16
5.800000E+03	1.940831E-15	1.583777E-16
5.810000E+03	1.938715E-15	1.600016E-16
5.820000E+03	1.937845E-15	1.616340E-16
5.830000E+03	1.938235E-15	1.632784E-16
5.840000E+03	1.939835E-15	1.649333E-16
5.850000E+03	1.942670E-15	1.666031E-16
5.860000E+03	1.946683E-15	1.682851E-16
5.870000E+03	1.951895E-15	1.699826E-16
5.880000E+03	1.958245E-15	1.716919E-16
5.890000E+03	1.965726E-15	1.734137E-16
5.900000E+03	1.974311E-15	1.751463E-16
5.910000E+03	1.983970E-15	1.768876E-16
5.920000E+03	1.994652E-15	1.786332E-16
5.930000E+03	2.006321E-15	1.803798E-16
5.940000E+03	2.018960E-15	1.821253E-16
5.950000E+03	2.032508E-15	1.838635E-16
5.960000E+03	2.046925E-15	1.855894E-16
5.970000E+03	2.062143E-15	1.872956E-16
5.980000E+03	2.078136E-15	1.889778E-16
5.990000E+03	2.094832E-15	1.906275E-16
6.000000E+03	2.112178E-15	1.922375E-16
6.010000E+03	2.130116E-15	1.937999E-16
6.020000E+03	2.148564E-15	1.953046E-16
6.030000E+03	2.167480E-15	1.967446E-16
6.040000E+03	2.186754E-15	1.981067E-16
6.050000E+03	2.206335E-15	1.993831E-16
6.060000E+03	2.226103E-15	2.005593E-16
6.070000E+03	2.246001E-15	2.016268E-16
6.080000E+03	2.265945E-15	2.025745E-16
6.090000E+03	2.285780E-15	2.033848E-16
6.100000E+03	2.305457E-15	2.040503E-16
6.110000E+03	2.324836E-15	2.045549E-16
6.120000E+03	2.343792E-15	2.048848E-16
6.130000E+03	2.362222E-15	2.050281E-16
6.140000E+03	2.379996E-15	2.049709E-16
6.150000E+03	2.396981E-15	2.046999E-16
6.160000E+03	2.413041E-15	2.042019E-16
6.170000E+03	2.428067E-15	2.034667E-16
6.180000E+03	2.441969E-15	2.024866E-16
6.190000E+03	2.454591E-15	2.012488E-16
6.200000E+03	2.465847E-15	1.997478E-16
6.210000E+03	2.475661E-15	1.979792E-16
6.220000E+03	2.483957E-15	1.959401E-16
6.230000E+03	2.490643E-15	1.936270E-16
6.240000E+03	2.495658E-15	1.910401E-16
6.250000E+03	2.498951E-15	1.881815E-16
6.260000E+03	2.500454E-15	1.850530E-16
6.270000E+03	2.500107E-15	1.816588E-16
6.280000E+03	2.497916E-15	1.780088E-16
6.290000E+03	2.493845E-15	1.741114E-16
6.300000E+03	2.487847E-15	1.699756E-16
6.310000E+03	2.479937E-15	1.656163E-16
6.320000E+03	2.470121E-15	1.610492E-16
6.330000E+03	2.458415E-15	1.562922E-16
6.340000E+03	2.444851E-15	1.513659E-16
6.350000E+03	2.429473E-15	1.462935E-16
6.360000E+03	2.412366E-15	1.411020E-16
6.370000E+03	2.393572E-15	1.358180E-16
6.380000E+03	2.373199E-15	1.304737E-16
6.390000E+03	2.351289E-15	1.250998E-16
6.400000E+03	2.327994E-15	1.197350E-16
6.410000E+03	2.303375E-15	1.144157E-16
6.420000E+03	2.277597E-15	1.091863E-16
6.430000E+03	2.250735E-15	1.040891E-16
6.440000E+03	2.222917E-15	9.917166E-17
6.450000E+03	2.194273E-15	9.448436E-17
6.460000E+03	2.164956E-15	9.008039E-17
6.470000E+03	2.135050E-15	8.601107E-17
6.480000E+03	2.104686E-15	8.232924E-17
6.490000E+03	2.074009E-15	7.908567E-17
6.500000E+03	2.043096E-15	7.632254E-17
6.510000E+03	2.012106E-15	7.407586E-17
6.520000E+03	1.981099E-15	7.236509E-17
6.530000E+03	1.950239E-15	7.119723E-17
6.540000E+03	1.919567E-15	7.055373E-17
6.550000E+03	1.889192E-15	7.039758E-17
6.560000E+03	1.859196E-15	7.067779E-17
6.570000E+03	1.829610E-15	7.133404E-17
6.580000E+03	1.800520E-15	7.230526E-17
6.590000E+03	1.771966E-15	7.352983E-17
6.600000E+03	1.744001E-15	7.495090E-17
6.610000E+03	1.716656E-15	7.651673E-17
6.620000E+03	1.689957E-15	7.818231E-17
6.630000E+03	1.663965E-15	7.991135E-17
6.640000E+03	1.638683E-15	8.167165E-17
6.650000E+03	1.614146E-15	8.343882E-17
6.660000E+03	1.590370E-15	8.519300E-17
6.670000E+03	1.567388E-15	8.691993E-17
6.680000E+03	1.545192E-15	8.860737E-17
6.690000E+03	1.523828E-15	9.024938E-17
6.700000E+03	1.503306E-15	9.184085E-17
6.710000E+03	1.483631E-15	9.337888E-17
6.720000E+03	1.464792E-15	9.486131E-17
6.730000E+03	1.446828E-15	9.629072E-17
6.740000E+03	1.429742E-15	9.766874E-17
6.750000E+03	1.413519E-15	9.899674E-17
6.760000E+03	1.398193E-15	1.002803E-16
6.770000E+03	1.383730E-15	1.015207E-16
6.780000E+03	1.370163E-15	1.027246E-16
6.790000E+03	1.357472E-15	1.038951E-16
6.800000E+03	1.345672E-15	1.050380E-16
6.810000E+03	1.334757E-15	1.061579E-16
6.820000E+03	1.324724E-15	1.072595E-16
6.830000E+03	1.315550E-15	1.083460E-16
6.840000E+03	1.307262E-15	1.094245E-16
6.850000E+03	1.299836E-15	1.104980E-16
6.860000E+03	1.293266E-15	1.115707E-16
6.870000E+03	1.287542E-15	1.126465E-16
6.880000E+03	1.282673E-15	1.137305E-16
6.890000E+03	1.278632E-15	1.148249E-16
6.900000E+03	1.275425E-15	1.159343E-16
6.910000E+03	1.273027E-15	1.170605E-16
6.920000E+03	1.271442E-15	1.182075E-16
6.930000E+03	1.270643E-15	1.193765E-16
6.940000E+03	1.270632E-15	1.205712E-16
6.950000E+03	1.271383E-15	1.217920E-16
6.960000E+03	1.272896E-15	1.230423E-16
6.970000E+03	1.275158E-15	1.243236E-16
6.980000E+03	1.278139E-15	1.256354E-16
6.990000E+03	1.281838E-15	1.269803E-16
7.000000E+03	1.286242E-15	1.283590E-16
7.010000E+03	1.291315E-15	1.297704E-16
7.020000E+03	1.297042E-15	1.312146E-16
7.030000E+03	1.303420E-15	1.326931E-16
7.040000E+03	1.310431E-15	1.342057E-16
7.050000E+03	1.318023E-15	1.357483E-16
7.060000E+03	1.326224E-15	1.373254E-16
7.070000E+03	1.334964E-15	1.389306E-16
7.080000E+03	1.344254E-15	1.405663E-16
7.090000E+03	1.354056E-15	1.422290E-16
7.100000E+03	1.364347E-15	1.439172E-16
7.110000E+03	1.375102E-15	1.456288E-16
7.120000E+03	1.386297E-15	1.473617E-16
7.130000E+03	1.397890E-15	1.491117E-16
7.140000E+03	1.409891E-15	1.508802E-16
7.150000E+03	1.422239E-15	1.526606E-16
7.160000E+03	1.434925E-15	1.544521E-16
7.170000E+03	1.447887E-15	1.562478E-16
7.180000E+03	1.461154E-15	1.580506E-16
7.190000E+03	1.474644E-15	1.598514E-16
7.200000E+03	1.488349E-15	1.616489E-16
7.210000E+03	1.502244E-15	1.634398E-16
7.220000E+03	1.516283E-15	1.652187E-16
7.230000E+03	1.530462E-15	1.669844E-16
7.240000E+03	1.544737E-15	1.687315E-16
7.250000E+03	1.559085E-15	1.704564E-16
7.260000E+03	1.573483E-15	1.721561E-16
7.270000E+03	1.587891E-15	1.738251E-16
7.280000E+03	1.602288E-15	1.754601E-16
7.290000E+03	1.616657E-15	1.770582E-16
7.300000E+03	1.630960E-15	1.786142E-16
7.310000E+03	1.645181E-15	1.801250E-16
7.320000E+03	1.659308E-15	1.815882E-16
7.330000E+03	1.673286E-15	1.829965E-16
7.340000E+03	1.687147E-15	1.843520E-16
7.350000E+03	1.700819E-15	1.856456E-16
7.360000E+03	1.714295E-15	1.868749E-16
7.370000E+03	1.727569E-15	1.880381E-16
7.380000E+03	1.740595E-15	1.891283E-16
7.390000E+03	1.753392E-15	1.901464E-16
7.400000E+03	1.765915E-15	1.910857E-16
7.410000E+03	1.778164E-15	1.919447E-16
7.420000E+03	1.790095E-15	1.927171E-16
7.430000E+03	1.801711E-15	1.934014E-16
7.440000E+03	1.813014E-15	1.939963E-16
7.450000E+03	1.824033E-15	1.945030E-16
7.460000E+03	1.834771E-15	1.949203E-16
7.470000E+03	1.845283E-15	1.952518E-16
7.480000E+03	1.855548E-15	1.954938E-16
7.490000E+03	1.865598E-15	1.956473E-16
7.500000E+03	1.875484E-15	1.957158E-16
7.510000E+03	1.885187E-15	1.956951E-16
7.520000E+03	1.894734E-15	1.955858E-16
7.530000E+03	1.904125E-15	1.953856E-16
7.540000E+03	1.913409E-15	1.950972E-16
7.550000E+03	1.922559E-15	1.947153E-16
7.560000E+03	1.931593E-15	1.942395E-16
7.570000E+03	1.940505E-15	1.936663E-16
7.580000E+03	1.949306E-15	1.929945E-16
7.590000E+03	1.957959E-15	1.922176E-16
7.600000E+03	1.966468E-15	1.913336E-16
7.610000E+03	1.974814E-15	1.903379E-16
7.620000E+03	1.982969E-15	1.892255E-16
7.630000E+03	1.990904E-15	1.879910E-16
7.640000E+03	1.998639E-15	1.866339E-16
7.650000E+03	2.006055E-15	1.851409E-16
7.660000E+03	2.013191E-15	1.835137E-16
7.670000E+03	2.019976E-15	1.817437E-16
7.680000E+03	2.026332E-15	1.798225E-16
7.690000E+03	2.032262E-15	1.777492E-16
7.700000E+03	2.037654E-15	1.755130E-16
7.710000E+03	2.042505E-15	1.731133E-16
7.720000E+03	2.046725E-15	1.705426E-16
7.730000E+03	2.050251E-15	1.677962E-16
7.740000E+03	2.053044E-15	1.648723E-16
7.750000E+03	2.054984E-15	1.617631E-16
7.760000E+03	2.056057E-15	1.584705E-16
