#wls	flux	fluxerr
1.600000E+03	3.423816E-16	2.769097E-16
1.640000E+03	3.483021E-16	2.788048E-16
1.680000E+03	3.544024E-16	2.806685E-16
1.720000E+03	3.606804E-16	2.824901E-16
1.760000E+03	3.671982E-16	2.843078E-16
1.800000E+03	3.738896E-16	2.860597E-16
1.840000E+03	3.807504E-16	2.877324E-16
1.880000E+03	3.878427E-16	2.893625E-16
1.920000E+03	3.952311E-16	2.909852E-16
1.960000E+03	4.027759E-16	2.924852E-16
2.000000E+03	4.106083E-16	2.939459E-16
2.040000E+03	4.186536E-16	2.953003E-16
2.080000E+03	4.270461E-16	2.966294E-16
2.120000E+03	4.356372E-16	2.978147E-16
2.160000E+03	4.445615E-16	2.989346E-16
2.200000E+03	4.538112E-16	2.999670E-16
2.240000E+03	4.633766E-16	3.008892E-16
2.280000E+03	4.732463E-16	3.016772E-16
2.320000E+03	4.834824E-16	3.023539E-16
2.360000E+03	4.941476E-16	3.029392E-16
2.400000E+03	5.051512E-16	3.033580E-16
2.440000E+03	5.166295E-16	3.036733E-16
2.480000E+03	5.284877E-16	3.038080E-16
2.520000E+03	5.408604E-16	3.038195E-16
2.560000E+03	5.536476E-16	3.036293E-16
2.600000E+03	5.670603E-16	3.033313E-16
2.640000E+03	5.809935E-16	3.028435E-16
2.680000E+03	5.954965E-16	3.021685E-16
2.720000E+03	6.106958E-16	3.013452E-16
2.760000E+03	6.264759E-16	3.002900E-16
2.800000E+03	6.430367E-16	2.990735E-16
2.840000E+03	6.603347E-16	2.976466E-16
2.880000E+03	6.784819E-16	2.960315E-16
2.920000E+03	6.974248E-16	2.941759E-16
2.960000E+03	7.173445E-16	2.921276E-16
3.000000E+03	7.382552E-16	2.898603E-16
3.010000E+03	7.436070E-16	2.892437E-16
3.020000E+03	7.490697E-16	2.886301E-16
3.030000E+03	7.546420E-16	2.880181E-16
3.040000E+03	7.601639E-16	2.873461E-16
3.050000E+03	7.658720E-16	2.867036E-16
3.060000E+03	7.716064E-16	2.860295E-16
3.070000E+03	7.773658E-16	2.853233E-16
3.080000E+03	7.833069E-16	2.846419E-16
3.090000E+03	7.892701E-16	2.839263E-16
3.100000E+03	7.952541E-16	2.831759E-16
3.110000E+03	8.013361E-16	2.824182E-16
3.120000E+03	8.075931E-16	2.816790E-16
3.130000E+03	8.137878E-16	2.808751E-16
3.140000E+03	8.201539E-16	2.800871E-16
3.150000E+03	8.266111E-16	2.792864E-16
3.160000E+03	8.330796E-16	2.784456E-16
3.170000E+03	8.397136E-16	2.776160E-16
3.180000E+03	8.463553E-16	2.767444E-16
3.190000E+03	8.531584E-16	2.758810E-16
3.200000E+03	8.599655E-16	2.749739E-16
3.210000E+03	8.669297E-16	2.740718E-16
3.220000E+03	8.739712E-16	2.731485E-16
3.230000E+03	8.810879E-16	2.722029E-16
3.240000E+03	8.882776E-16	2.712338E-16
3.250000E+03	8.956148E-16	2.702633E-16
3.260000E+03	9.029437E-16	2.692438E-16
3.270000E+03	9.104914E-16	2.682427E-16
3.280000E+03	9.180260E-16	2.671904E-16
3.290000E+03	9.257737E-16	2.661525E-16
3.300000E+03	9.335033E-16	2.650615E-16
3.310000E+03	9.414398E-16	2.639810E-16
3.320000E+03	9.494286E-16	2.628664E-16
3.330000E+03	9.574670E-16	2.617168E-16
3.340000E+03	9.656273E-16	2.605516E-16
3.350000E+03	9.739810E-16	2.593888E-16
3.360000E+03	9.823001E-16	2.581668E-16
3.370000E+03	9.908056E-16	2.569437E-16
3.380000E+03	9.994189E-16	2.556977E-16
3.390000E+03	1.008136E-15	2.544272E-16
3.400000E+03	1.016954E-15	2.531304E-16
3.410000E+03	1.025869E-15	2.518057E-16
3.420000E+03	1.034875E-15	2.504513E-16
3.430000E+03	1.043971E-15	2.490657E-16
3.440000E+03	1.053223E-15	2.476644E-16
3.450000E+03	1.062555E-15	2.462280E-16
3.460000E+03	1.072034E-15	2.447715E-16
3.470000E+03	1.081583E-15	2.432763E-16
3.480000E+03	1.091198E-15	2.417408E-16
3.490000E+03	1.100945E-15	2.401792E-16
3.500000E+03	1.110819E-15	2.385893E-16
3.510000E+03	1.120815E-15	2.369686E-16
3.520000E+03	1.130854E-15	2.353003E-16
3.530000E+03	1.141074E-15	2.336119E-16
3.540000E+03	1.151326E-15	2.318721E-16
3.550000E+03	1.161675E-15	2.300936E-16
3.560000E+03	1.172185E-15	2.282879E-16
3.570000E+03	1.182709E-15	2.264255E-16
3.580000E+03	1.193379E-15	2.245316E-16
3.590000E+03	1.204120E-15	2.225907E-16
3.600000E+03	1.214991E-15	2.206136E-16
3.610000E+03	1.225917E-15	2.185855E-16
3.620000E+03	1.236958E-15	2.165170E-16
3.630000E+03	1.248038E-15	2.143941E-16
3.640000E+03	1.259150E-15	2.122156E-16
3.650000E+03	1.270418E-15	2.100024E-16
3.660000E+03	1.281700E-15	2.077305E-16
3.670000E+03	1.293120E-15	2.054199E-16
3.680000E+03	1.304535E-15	2.030480E-16
3.690000E+03	1.316002E-15	2.006242E-16
3.700000E+03	1.327576E-15	1.981574E-16
3.710000E+03	1.339117E-15	1.956269E-16
3.720000E+03	1.350743E-15	1.930516E-16
3.730000E+03	1.362380E-15	1.904213E-16
3.740000E+03	1.374079E-15	1.877451E-16
3.750000E+03	1.385765E-15	1.850139E-16
3.760000E+03	1.397427E-15	1.822287E-16
3.770000E+03	1.409116E-15	1.793986E-16
3.780000E+03	1.420819E-15	1.765244E-16
3.790000E+03	1.432461E-15	1.735999E-16
3.800000E+03	1.444152E-15	1.706424E-16
3.810000E+03	1.455756E-15	1.676393E-16
3.820000E+03	1.467320E-15	1.646011E-16
3.830000E+03	1.478830E-15	1.615314E-16
3.840000E+03	1.490273E-15	1.584344E-16
3.850000E+03	1.501633E-15	1.553150E-16
3.860000E+03	1.512896E-15	1.521789E-16
3.870000E+03	1.524047E-15	1.490324E-16
3.880000E+03	1.535070E-15	1.458828E-16
3.890000E+03	1.546009E-15	1.427434E-16
3.900000E+03	1.556731E-15	1.396122E-16
3.910000E+03	1.567337E-15	1.365095E-16
3.920000E+03	1.577808E-15	1.334451E-16
3.930000E+03	1.588016E-15	1.304208E-16
3.940000E+03	1.598055E-15	1.274572E-16
3.950000E+03	1.607839E-15	1.245584E-16
3.960000E+03	1.617391E-15	1.217376E-16
3.970000E+03	1.626571E-15	1.189946E-16
3.980000E+03	1.635520E-15	1.163468E-16
3.990000E+03	1.644053E-15	1.137872E-16
4.000000E+03	1.652209E-15	1.113244E-16
4.010000E+03	1.660025E-15	1.089656E-16
4.020000E+03	1.667441E-15	1.067105E-16
4.030000E+03	1.674449E-15	1.045621E-16
4.040000E+03	1.681054E-15	1.025210E-16
4.050000E+03	1.687265E-15	1.005874E-16
4.060000E+03	1.693043E-15	9.875781E-17
4.070000E+03	1.698508E-15	9.703591E-17
4.080000E+03	1.703585E-15	9.541343E-17
4.090000E+03	1.708351E-15	9.389040E-17
4.100000E+03	1.712802E-15	9.245987E-17
4.110000E+03	1.716984E-15	9.111753E-17
4.120000E+03	1.720995E-15	8.986117E-17
4.130000E+03	1.724806E-15	8.867881E-17
4.140000E+03	1.728534E-15	8.756574E-17
4.150000E+03	1.732247E-15	8.651505E-17
4.160000E+03	1.736017E-15	8.551834E-17
4.170000E+03	1.739832E-15	8.456362E-17
4.180000E+03	1.743852E-15	8.364845E-17
4.190000E+03	1.748062E-15	8.276132E-17
4.200000E+03	1.752575E-15	8.189821E-17
4.210000E+03	1.757416E-15	8.105226E-17
4.220000E+03	1.762648E-15	8.021806E-17
4.230000E+03	1.768332E-15	7.939165E-17
4.240000E+03	1.774526E-15	7.857094E-17
4.250000E+03	1.781207E-15	7.775139E-17
4.260000E+03	1.788470E-15	7.693600E-17
4.270000E+03	1.796371E-15	7.612813E-17
4.280000E+03	1.804921E-15	7.533089E-17
4.290000E+03	1.814131E-15	7.454988E-17
4.300000E+03	1.824128E-15	7.379773E-17
4.310000E+03	1.834839E-15	7.308019E-17
4.320000E+03	1.846343E-15	7.241153E-17
4.330000E+03	1.858641E-15	7.180465E-17
4.340000E+03	1.871797E-15	7.127423E-17
4.350000E+03	1.885761E-15	7.083190E-17
4.360000E+03	1.900592E-15	7.049379E-17
4.370000E+03	1.916222E-15	7.026697E-17
4.380000E+03	1.932692E-15	7.016198E-17
4.390000E+03	1.949969E-15	7.018564E-17
4.400000E+03	1.968105E-15	7.033580E-17
4.410000E+03	1.987026E-15	7.059709E-17
4.420000E+03	2.006842E-15	7.095952E-17
4.430000E+03	2.027530E-15	7.140557E-17
4.440000E+03	2.049061E-15	7.191776E-17
4.450000E+03	2.071470E-15	7.248118E-17
4.460000E+03	2.094622E-15	7.307274E-17
4.470000E+03	2.118478E-15	7.367383E-17
4.480000E+03	2.142915E-15	7.426523E-17
4.490000E+03	2.167844E-15	7.483050E-17
4.500000E+03	2.193056E-15	7.535195E-17
4.510000E+03	2.218436E-15	7.581893E-17
4.520000E+03	2.243769E-15	7.622013E-17
4.530000E+03	2.268866E-15	7.654924E-17
4.540000E+03	2.293520E-15	7.680358E-17
4.550000E+03	2.317506E-15	7.698195E-17
4.560000E+03	2.340546E-15	7.708574E-17
4.570000E+03	2.362434E-15	7.712198E-17
4.580000E+03	2.382900E-15	7.709365E-17
4.590000E+03	2.401710E-15	7.700781E-17
4.600000E+03	2.418642E-15	7.687420E-17
4.610000E+03	2.433534E-15	7.670025E-17
4.620000E+03	2.446240E-15	7.649557E-17
4.630000E+03	2.456599E-15	7.627050E-17
4.640000E+03	2.464642E-15	7.603552E-17
4.650000E+03	2.470274E-15	7.579776E-17
4.660000E+03	2.473501E-15	7.556746E-17
4.670000E+03	2.474488E-15	7.535125E-17
4.680000E+03	2.473278E-15	7.515172E-17
4.690000E+03	2.470004E-15	7.497460E-17
4.700000E+03	2.464885E-15	7.482172E-17
4.710000E+03	2.458115E-15	7.469489E-17
4.720000E+03	2.449858E-15	7.459610E-17
4.730000E+03	2.440396E-15	7.452627E-17
4.740000E+03	2.429869E-15	7.448347E-17
4.750000E+03	2.418520E-15	7.447001E-17
4.760000E+03	2.406546E-15	7.448101E-17
4.770000E+03	2.394139E-15	7.451276E-17
4.780000E+03	2.381513E-15	7.456379E-17
4.790000E+03	2.368756E-15	7.462353E-17
4.800000E+03	2.356112E-15	7.468817E-17
4.810000E+03	2.343646E-15	7.475073E-17
4.820000E+03	2.331451E-15	7.480309E-17
4.830000E+03	2.319676E-15	7.484146E-17
4.840000E+03	2.308357E-15	7.486169E-17
4.850000E+03	2.297531E-15	7.486004E-17
4.860000E+03	2.287222E-15	7.483531E-17
4.870000E+03	2.277512E-15	7.478951E-17
4.880000E+03	2.268326E-15	7.471498E-17
4.890000E+03	2.259676E-15	7.460823E-17
4.900000E+03	2.251551E-15	7.446702E-17
4.910000E+03	2.243985E-15	7.428963E-17
4.920000E+03	2.236991E-15	7.407556E-17
4.930000E+03	2.230553E-15	7.382571E-17
4.940000E+03	2.224760E-15	7.354380E-17
4.950000E+03	2.219584E-15	7.323179E-17
4.960000E+03	2.215113E-15	7.289702E-17
4.970000E+03	2.211358E-15	7.254167E-17
4.980000E+03	2.208328E-15	7.216922E-17
4.990000E+03	2.206000E-15	7.178355E-17
5.000000E+03	2.204446E-15	7.138845E-17
5.010000E+03	2.203649E-15	7.098618E-17
5.020000E+03	2.203667E-15	7.058238E-17
5.030000E+03	2.204551E-15	7.017881E-17
5.040000E+03	2.206428E-15	6.978062E-17
5.050000E+03	2.209404E-15	6.939346E-17
5.060000E+03	2.213620E-15	6.902039E-17
5.070000E+03	2.219231E-15	6.866607E-17
5.080000E+03	2.226379E-15	6.833598E-17
5.090000E+03	2.235187E-15	6.803125E-17
5.100000E+03	2.245742E-15	6.775325E-17
5.110000E+03	2.258082E-15	6.750415E-17
5.120000E+03	2.272199E-15	6.728343E-17
5.130000E+03	2.288093E-15	6.709334E-17
5.140000E+03	2.305717E-15	6.693628E-17
5.150000E+03	2.324940E-15	6.680737E-17
5.160000E+03	2.345603E-15	6.670279E-17
5.170000E+03	2.367512E-15	6.661984E-17
5.180000E+03	2.390513E-15	6.655368E-17
5.190000E+03	2.414412E-15	6.650072E-17
5.200000E+03	2.438977E-15	6.645891E-17
5.210000E+03	2.464071E-15	6.642528E-17
5.220000E+03	2.489423E-15	6.639578E-17
5.230000E+03	2.514816E-15	6.636959E-17
5.240000E+03	2.540063E-15	6.633948E-17
5.250000E+03	2.564934E-15	6.629873E-17
5.260000E+03	2.589162E-15	6.624128E-17
5.270000E+03	2.612504E-15	6.615447E-17
5.280000E+03	2.634709E-15	6.602751E-17
5.290000E+03	2.655557E-15	6.585361E-17
5.300000E+03	2.674726E-15	6.562001E-17
5.310000E+03	2.691994E-15	6.532032E-17
5.320000E+03	2.707109E-15	6.495105E-17
5.330000E+03	2.719847E-15	6.450407E-17
5.340000E+03	2.729961E-15	6.397470E-17
5.350000E+03	2.737255E-15	6.336400E-17
5.360000E+03	2.741627E-15	6.267108E-17
5.370000E+03	2.742895E-15	6.189814E-17
5.380000E+03	2.741039E-15	6.105594E-17
5.390000E+03	2.736008E-15	6.014970E-17
5.400000E+03	2.727779E-15	5.919038E-17
5.410000E+03	2.716419E-15	5.819531E-17
5.420000E+03	2.701996E-15	5.717372E-17
5.430000E+03	2.684666E-15	5.614167E-17
5.440000E+03	2.664528E-15	5.512057E-17
5.450000E+03	2.641758E-15	5.413168E-17
5.460000E+03	2.616473E-15	5.320123E-17
5.470000E+03	2.588845E-15	5.236213E-17
5.480000E+03	2.558923E-15	5.164073E-17
5.490000E+03	2.526874E-15	5.106752E-17
5.500000E+03	2.492750E-15	5.066112E-17
5.510000E+03	2.456428E-15	5.040192E-17
5.520000E+03	2.417802E-15	5.026537E-17
5.530000E+03	2.376879E-15	5.022945E-17
5.540000E+03	2.333666E-15	5.026336E-17
5.550000E+03	2.288387E-15	5.034391E-17
5.560000E+03	2.241208E-15	5.044982E-17
5.570000E+03	2.192497E-15	5.055745E-17
5.580000E+03	2.142738E-15	5.065083E-17
5.590000E+03	2.092351E-15	5.071901E-17
5.600000E+03	2.041777E-15	5.075123E-17
5.610000E+03	1.991469E-15	5.074314E-17
5.620000E+03	1.941888E-15	5.069664E-17
5.630000E+03	1.893363E-15	5.061057E-17
5.640000E+03	1.846282E-15	5.049008E-17
5.650000E+03	1.800949E-15	5.034165E-17
5.660000E+03	1.757609E-15	5.016795E-17
5.670000E+03	1.716521E-15	4.997490E-17
5.680000E+03	1.677894E-15	4.976953E-17
5.690000E+03	1.641899E-15	4.955588E-17
5.700000E+03	1.608710E-15	4.934007E-17
5.710000E+03	1.578440E-15	4.912881E-17
5.720000E+03	1.551208E-15	4.892919E-17
5.730000E+03	1.527103E-15	4.874912E-17
5.740000E+03	1.506179E-15	4.859655E-17
5.750000E+03	1.488472E-15	4.847775E-17
5.760000E+03	1.473955E-15	4.839773E-17
5.770000E+03	1.462611E-15	4.836247E-17
5.780000E+03	1.454364E-15	4.837449E-17
5.790000E+03	1.449097E-15	4.843549E-17
5.800000E+03	1.446711E-15	4.854831E-17
5.810000E+03	1.447081E-15	4.871313E-17
5.820000E+03	1.450059E-15	4.893003E-17
5.830000E+03	1.455502E-15	4.919960E-17
5.840000E+03	1.463216E-15	4.951847E-17
5.850000E+03	1.473057E-15	4.988555E-17
5.860000E+03	1.484811E-15	5.029801E-17
5.870000E+03	1.498297E-15	5.075229E-17
5.880000E+03	1.513372E-15	5.124677E-17
5.890000E+03	1.529821E-15	5.177800E-17
5.900000E+03	1.547518E-15	5.234262E-17
5.910000E+03	1.566325E-15	5.293727E-17
5.920000E+03	1.586089E-15	5.355872E-17
5.930000E+03	1.606764E-15	5.420463E-17
5.940000E+03	1.628209E-15	5.487004E-17
5.950000E+03	1.650393E-15	5.555451E-17
5.960000E+03	1.673283E-15	5.625524E-17
5.970000E+03	1.696832E-15	5.696981E-17
5.980000E+03	1.721020E-15	5.769765E-17
5.990000E+03	1.745878E-15	5.843776E-17
6.000000E+03	1.771380E-15	5.918807E-17
6.010000E+03	1.797593E-15	5.995071E-17
6.020000E+03	1.824546E-15	6.072377E-17
6.030000E+03	1.852275E-15	6.150648E-17
6.040000E+03	1.880867E-15	6.230077E-17
6.050000E+03	1.910397E-15	6.310560E-17
6.060000E+03	1.940947E-15	6.392104E-17
6.070000E+03	1.972572E-15	6.474747E-17
6.080000E+03	2.005339E-15	6.558321E-17
6.090000E+03	2.039339E-15	6.642853E-17
6.100000E+03	2.074604E-15	6.728282E-17
6.110000E+03	2.111154E-15	6.814192E-17
6.120000E+03	2.148995E-15	6.900237E-17
6.130000E+03	2.188121E-15	6.986129E-17
6.140000E+03	2.228466E-15	7.071064E-17
6.150000E+03	2.269945E-15	7.154283E-17
6.160000E+03	2.312445E-15	7.235083E-17
6.170000E+03	2.355743E-15	7.312089E-17
6.180000E+03	2.399640E-15	7.384171E-17
6.190000E+03	2.443872E-15	7.450231E-17
6.200000E+03	2.488058E-15	7.508692E-17
6.210000E+03	2.531838E-15	7.558331E-17
6.220000E+03	2.574746E-15	7.597875E-17
6.230000E+03	2.616298E-15	7.625734E-17
6.240000E+03	2.655895E-15	7.640293E-17
6.250000E+03	2.692989E-15	7.640394E-17
6.260000E+03	2.726948E-15	7.624342E-17
6.270000E+03	2.757201E-15	7.590959E-17
6.280000E+03	2.783120E-15	7.539261E-17
6.290000E+03	2.804245E-15	7.468357E-17
6.300000E+03	2.820075E-15	7.377619E-17
6.310000E+03	2.830248E-15	7.267133E-17
6.320000E+03	2.834507E-15	7.136784E-17
6.330000E+03	2.832747E-15	6.987210E-17
6.340000E+03	2.824866E-15	6.819440E-17
6.350000E+03	2.811035E-15	6.634710E-17
6.360000E+03	2.791464E-15	6.434767E-17
6.370000E+03	2.766421E-15	6.221938E-17
6.380000E+03	2.736282E-15	5.998377E-17
6.390000E+03	2.701539E-15	5.767011E-17
6.400000E+03	2.662708E-15	5.531242E-17
6.410000E+03	2.620259E-15	5.293736E-17
6.420000E+03	2.574779E-15	5.057984E-17
6.430000E+03	2.526834E-15	4.828073E-17
6.440000E+03	2.476889E-15	4.607579E-17
6.450000E+03	2.425423E-15	4.400854E-17
6.460000E+03	2.372908E-15	4.212756E-17
6.470000E+03	2.319689E-15	4.046911E-17
6.480000E+03	2.266144E-15	3.907372E-17
6.490000E+03	2.212596E-15	3.798117E-17
6.500000E+03	2.159356E-15	3.721218E-17
6.510000E+03	2.106801E-15	3.678362E-17
6.520000E+03	2.055200E-15	3.670264E-17
6.530000E+03	2.004903E-15	3.695320E-17
6.540000E+03	1.956089E-15	3.749148E-17
6.550000E+03	1.908733E-15	3.824521E-17
6.560000E+03	1.862720E-15	3.913581E-17
6.570000E+03	1.818008E-15	4.009638E-17
6.580000E+03	1.774455E-15	4.107145E-17
6.590000E+03	1.732011E-15	4.201892E-17
6.600000E+03	1.690606E-15	4.290750E-17
6.610000E+03	1.650204E-15	4.371611E-17
6.620000E+03	1.610773E-15	4.442977E-17
6.630000E+03	1.572337E-15	4.504132E-17
6.640000E+03	1.534904E-15	4.554826E-17
6.650000E+03	1.498502E-15	4.595118E-17
6.660000E+03	1.463211E-15	4.625554E-17
6.670000E+03	1.429099E-15	4.646948E-17
6.680000E+03	1.396201E-15	4.660108E-17
6.690000E+03	1.364567E-15	4.666075E-17
6.700000E+03	1.334257E-15	4.666067E-17
6.710000E+03	1.305296E-15	4.661195E-17
6.720000E+03	1.277685E-15	4.652553E-17
6.730000E+03	1.251472E-15	4.641432E-17
6.740000E+03	1.226623E-15	4.628626E-17
6.750000E+03	1.203170E-15	4.615181E-17
6.760000E+03	1.181088E-15	4.601874E-17
6.770000E+03	1.160359E-15	4.589191E-17
6.780000E+03	1.140979E-15	4.577645E-17
6.790000E+03	1.122909E-15	4.567606E-17
6.800000E+03	1.106143E-15	4.559406E-17
6.810000E+03	1.090655E-15	4.553316E-17
6.820000E+03	1.076422E-15	4.549625E-17
6.830000E+03	1.063405E-15	4.548427E-17
6.840000E+03	1.051597E-15	4.549978E-17
6.850000E+03	1.040991E-15	4.554556E-17
6.860000E+03	1.031530E-15	4.562087E-17
6.870000E+03	1.023220E-15	4.572802E-17
6.880000E+03	1.016020E-15	4.586754E-17
6.890000E+03	1.009903E-15	4.603973E-17
6.900000E+03	1.004840E-15	4.624524E-17
6.910000E+03	1.000806E-15	4.648508E-17
6.920000E+03	9.977876E-16	4.676018E-17
6.930000E+03	9.957402E-16	4.707038E-17
6.940000E+03	9.946364E-16	4.741653E-17
6.950000E+03	9.944594E-16	4.779925E-17
6.960000E+03	9.951619E-16	4.821791E-17
6.970000E+03	9.967125E-16	4.867289E-17
6.980000E+03	9.990752E-16	4.916344E-17
6.990000E+03	1.002229E-15	4.968981E-17
7.000000E+03	1.006108E-15	5.025012E-17
7.010000E+03	1.010704E-15	5.084469E-17
7.020000E+03	1.015966E-15	5.147169E-17
7.030000E+03	1.021855E-15	5.213027E-17
7.040000E+03	1.028336E-15	5.281876E-17
7.050000E+03	1.035371E-15	5.353571E-17
7.060000E+03	1.042924E-15	5.427984E-17
7.070000E+03	1.050960E-15	5.504917E-17
7.080000E+03	1.059425E-15	5.584099E-17
7.090000E+03	1.068299E-15	5.665452E-17
7.100000E+03	1.077527E-15	5.748650E-17
7.110000E+03	1.087088E-15	5.833558E-17
7.120000E+03	1.096924E-15	5.919880E-17
7.130000E+03	1.107013E-15	6.007428E-17
7.140000E+03	1.117278E-15	6.095748E-17
7.150000E+03	1.127711E-15	6.184779E-17
7.160000E+03	1.138234E-15	6.274006E-17
7.170000E+03	1.148838E-15	6.363320E-17
7.180000E+03	1.159421E-15	6.452129E-17
7.190000E+03	1.169974E-15	6.540279E-17
7.200000E+03	1.180448E-15	6.627434E-17
7.210000E+03	1.190777E-15	6.713172E-17
7.220000E+03	1.200910E-15	6.797113E-17
7.230000E+03	1.210777E-15	6.878787E-17
7.240000E+03	1.220367E-15	6.958075E-17
7.250000E+03	1.229590E-15	7.034365E-17
7.260000E+03	1.238416E-15	7.107403E-17
7.270000E+03	1.246777E-15	7.176743E-17
7.280000E+03	1.254628E-15	7.242029E-17
7.290000E+03	1.261930E-15	7.302945E-17
7.300000E+03	1.268643E-15	7.359227E-17
7.310000E+03	1.274744E-15	7.410624E-17
7.320000E+03	1.280191E-15	7.456826E-17
7.330000E+03	1.284988E-15	7.497818E-17
7.340000E+03	1.289114E-15	7.533387E-17
7.350000E+03	1.292597E-15	7.563627E-17
7.360000E+03	1.295405E-15	7.588330E-17
7.370000E+03	1.297606E-15	7.607809E-17
7.380000E+03	1.299188E-15	7.621953E-17
7.390000E+03	1.300230E-15	7.631196E-17
7.400000E+03	1.300735E-15	7.635492E-17
7.410000E+03	1.300774E-15	7.635218E-17
7.420000E+03	1.300377E-15	7.630551E-17
7.430000E+03	1.299626E-15	7.621895E-17
7.440000E+03	1.298580E-15	7.609575E-17
7.450000E+03	1.297281E-15	7.593829E-17
7.460000E+03	1.295794E-15	7.574976E-17
7.470000E+03	1.294207E-15	7.553492E-17
7.480000E+03	1.292585E-15	7.529751E-17
7.490000E+03	1.290953E-15	7.503822E-17
7.500000E+03	1.289438E-15	7.476398E-17
7.510000E+03	1.288042E-15	7.447463E-17
7.520000E+03	1.286866E-15	7.417506E-17
7.530000E+03	1.285968E-15	7.386787E-17
7.540000E+03	1.285383E-15	7.355455E-17
7.550000E+03	1.285157E-15	7.323650E-17
7.560000E+03	1.285354E-15	7.291643E-17
7.570000E+03	1.286016E-15	7.259585E-17
7.580000E+03	1.287172E-15	7.227482E-17
7.590000E+03	1.288827E-15	7.195231E-17
7.600000E+03	1.291002E-15	7.162843E-17
7.610000E+03	1.293749E-15	7.130401E-17
7.620000E+03	1.297028E-15	7.097523E-17
7.630000E+03	1.300880E-15	7.064294E-17
7.640000E+03	1.305246E-15	7.030171E-17
7.650000E+03	1.310121E-15	6.994963E-17
7.660000E+03	1.315478E-15	6.958363E-17
7.670000E+03	1.321263E-15	6.919878E-17
7.680000E+03	1.327418E-15	6.879021E-17
7.690000E+03	1.333877E-15	6.835309E-17
7.700000E+03	1.340558E-15	6.788093E-17
7.710000E+03	1.347368E-15	6.736737E-17
7.720000E+03	1.354215E-15	6.680637E-17
7.730000E+03	1.360990E-15	6.619077E-17
7.740000E+03	1.367586E-15	6.551383E-17
7.750000E+03	1.373912E-15	6.477051E-17
7.760000E+03	1.379807E-15	6.395194E-17
