#wls	flux	fluxerr
1.600000E+03	3.176547E-16	2.590948E-16
1.640000E+03	3.233115E-16	2.610970E-16
1.680000E+03	3.291458E-16	2.630821E-16
1.720000E+03	3.350984E-16	2.649945E-16
1.760000E+03	3.412844E-16	2.669168E-16
1.800000E+03	3.476442E-16	2.687922E-16
1.840000E+03	3.542366E-16	2.706563E-16
1.880000E+03	3.610607E-16	2.724974E-16
1.920000E+03	3.680526E-16	2.742564E-16
1.960000E+03	3.752710E-16	2.759669E-16
2.000000E+03	3.827772E-16	2.776615E-16
2.040000E+03	3.905045E-16	2.792791E-16
2.080000E+03	3.985137E-16	2.808506E-16
2.120000E+03	4.068012E-16	2.823597E-16
2.160000E+03	4.153622E-16	2.837891E-16
2.200000E+03	4.242586E-16	2.851665E-16
2.240000E+03	4.334853E-16	2.864724E-16
2.280000E+03	4.430356E-16	2.876865E-16
2.320000E+03	4.529017E-16	2.887876E-16
2.360000E+03	4.632151E-16	2.898427E-16
2.400000E+03	4.738971E-16	2.907828E-16
2.440000E+03	4.849365E-16	2.915838E-16
2.480000E+03	4.964649E-16	2.923062E-16
2.520000E+03	5.084704E-16	2.929214E-16
2.560000E+03	5.209390E-16	2.934002E-16
2.600000E+03	5.340016E-16	2.937943E-16
2.640000E+03	5.475674E-16	2.940297E-16
2.680000E+03	5.616903E-16	2.941136E-16
2.720000E+03	5.764978E-16	2.940879E-16
2.760000E+03	5.918908E-16	2.938761E-16
2.800000E+03	6.080675E-16	2.935511E-16
2.840000E+03	6.249223E-16	2.930330E-16
2.880000E+03	6.425719E-16	2.923501E-16
2.920000E+03	6.610539E-16	2.914898E-16
2.960000E+03	6.804767E-16	2.904688E-16
3.000000E+03	7.007916E-16	2.892339E-16
3.010000E+03	7.060746E-16	2.889147E-16
3.020000E+03	7.113236E-16	2.885429E-16
3.030000E+03	7.166894E-16	2.881797E-16
3.040000E+03	7.221711E-16	2.878236E-16
3.050000E+03	7.276159E-16	2.874131E-16
3.060000E+03	7.331744E-16	2.870077E-16
3.070000E+03	7.388455E-16	2.866060E-16
3.080000E+03	7.444765E-16	2.861483E-16
3.090000E+03	7.502937E-16	2.857211E-16
3.100000E+03	7.560684E-16	2.852366E-16
3.110000E+03	7.620266E-16	2.847798E-16
3.120000E+03	7.679401E-16	2.842644E-16
3.130000E+03	7.740343E-16	2.837736E-16
3.140000E+03	7.801566E-16	2.832505E-16
3.150000E+03	7.863058E-16	2.826943E-16
3.160000E+03	7.925559E-16	2.821314E-16
3.170000E+03	7.989052E-16	2.815602E-16
3.180000E+03	8.053522E-16	2.809794E-16
3.190000E+03	8.118199E-16	2.803616E-16
3.200000E+03	8.183820E-16	2.797319E-16
3.210000E+03	8.250367E-16	2.790888E-16
3.220000E+03	8.317821E-16	2.784310E-16
3.230000E+03	8.386163E-16	2.777570E-16
3.240000E+03	8.454627E-16	2.770411E-16
3.250000E+03	8.524687E-16	2.763311E-16
3.260000E+03	8.594829E-16	2.755769E-16
3.270000E+03	8.666524E-16	2.748253E-16
3.280000E+03	8.738260E-16	2.740275E-16
3.290000E+03	8.811501E-16	2.732290E-16
3.300000E+03	8.884739E-16	2.723822E-16
3.310000E+03	8.959433E-16	2.715316E-16
3.320000E+03	9.034816E-16	2.706528E-16
3.330000E+03	9.111600E-16	2.697664E-16
3.340000E+03	9.188283E-16	2.688271E-16
3.350000E+03	9.266311E-16	2.678772E-16
3.360000E+03	9.344920E-16	2.668935E-16
3.370000E+03	9.424811E-16	2.658955E-16
3.380000E+03	9.505221E-16	2.648608E-16
3.390000E+03	9.586849E-16	2.638083E-16
3.400000E+03	9.668932E-16	2.627162E-16
3.410000E+03	9.752162E-16	2.616028E-16
3.420000E+03	9.835780E-16	2.604470E-16
3.430000E+03	9.920472E-16	2.592667E-16
3.440000E+03	1.000620E-15	2.580599E-16
3.450000E+03	1.009220E-15	2.568065E-16
3.460000E+03	1.017916E-15	2.555235E-16
3.470000E+03	1.026702E-15	2.542092E-16
3.480000E+03	1.035576E-15	2.528618E-16
3.490000E+03	1.044531E-15	2.514795E-16
3.500000E+03	1.053564E-15	2.500609E-16
3.510000E+03	1.062599E-15	2.485877E-16
3.520000E+03	1.071772E-15	2.470918E-16
3.530000E+03	1.081008E-15	2.455549E-16
3.540000E+03	1.090301E-15	2.439756E-16
3.550000E+03	1.099715E-15	2.423681E-16
3.560000E+03	1.109105E-15	2.407001E-16
3.570000E+03	1.118606E-15	2.390009E-16
3.580000E+03	1.128141E-15	2.372542E-16
3.590000E+03	1.137773E-15	2.354732E-16
3.600000E+03	1.147427E-15	2.336424E-16
3.610000E+03	1.157164E-15	2.317748E-16
3.620000E+03	1.166910E-15	2.298556E-16
3.630000E+03	1.176726E-15	2.278976E-16
3.640000E+03	1.186537E-15	2.258869E-16
3.650000E+03	1.196402E-15	2.238360E-16
3.660000E+03	1.206315E-15	2.217441E-16
3.670000E+03	1.216200E-15	2.195989E-16
3.680000E+03	1.226183E-15	2.174243E-16
3.690000E+03	1.236122E-15	2.151964E-16
3.700000E+03	1.246076E-15	2.129275E-16
3.710000E+03	1.256036E-15	2.106181E-16
3.720000E+03	1.265992E-15	2.082687E-16
3.730000E+03	1.275936E-15	2.058805E-16
3.740000E+03	1.285858E-15	2.034546E-16
3.750000E+03	1.295749E-15	2.009927E-16
3.760000E+03	1.305663E-15	1.985064E-16
3.770000E+03	1.315463E-15	1.959783E-16
3.780000E+03	1.325265E-15	1.934302E-16
3.790000E+03	1.334996E-15	1.908553E-16
3.800000E+03	1.344645E-15	1.882569E-16
3.810000E+03	1.354265E-15	1.856473E-16
3.820000E+03	1.363720E-15	1.830133E-16
3.830000E+03	1.373185E-15	1.803841E-16
3.840000E+03	1.382463E-15	1.777397E-16
3.850000E+03	1.391667E-15	1.751010E-16
3.860000E+03	1.400784E-15	1.724728E-16
3.870000E+03	1.409682E-15	1.698458E-16
3.880000E+03	1.418530E-15	1.672474E-16
3.890000E+03	1.427138E-15	1.646621E-16
3.900000E+03	1.435612E-15	1.621099E-16
3.910000E+03	1.443941E-15	1.595963E-16
3.920000E+03	1.452056E-15	1.571209E-16
3.930000E+03	1.459946E-15	1.546896E-16
3.940000E+03	1.467659E-15	1.523141E-16
3.950000E+03	1.475129E-15	1.499937E-16
3.960000E+03	1.482403E-15	1.477393E-16
3.970000E+03	1.489364E-15	1.455443E-16
3.980000E+03	1.496172E-15	1.434292E-16
3.990000E+03	1.502659E-15	1.413815E-16
4.000000E+03	1.508933E-15	1.394148E-16
4.010000E+03	1.514941E-15	1.375263E-16
4.020000E+03	1.520687E-15	1.357181E-16
4.030000E+03	1.526178E-15	1.339914E-16
4.040000E+03	1.531425E-15	1.323469E-16
4.050000E+03	1.536491E-15	1.307891E-16
4.060000E+03	1.541291E-15	1.293089E-16
4.070000E+03	1.545896E-15	1.279096E-16
4.080000E+03	1.550280E-15	1.265859E-16
4.090000E+03	1.554520E-15	1.253402E-16
4.100000E+03	1.558645E-15	1.241703E-16
4.110000E+03	1.562639E-15	1.230700E-16
4.120000E+03	1.566587E-15	1.220407E-16
4.130000E+03	1.570478E-15	1.210758E-16
4.140000E+03	1.574354E-15	1.201729E-16
4.150000E+03	1.578211E-15	1.193258E-16
4.160000E+03	1.582186E-15	1.185392E-16
4.170000E+03	1.586230E-15	1.178036E-16
4.180000E+03	1.590436E-15	1.171207E-16
4.190000E+03	1.594804E-15	1.164852E-16
4.200000E+03	1.599380E-15	1.158960E-16
4.210000E+03	1.604253E-15	1.153553E-16
4.220000E+03	1.609380E-15	1.148563E-16
4.230000E+03	1.614849E-15	1.144024E-16
4.240000E+03	1.620657E-15	1.139911E-16
4.250000E+03	1.626888E-15	1.136267E-16
4.260000E+03	1.633538E-15	1.133077E-16
4.270000E+03	1.640602E-15	1.130337E-16
4.280000E+03	1.648197E-15	1.128130E-16
4.290000E+03	1.656273E-15	1.126431E-16
4.300000E+03	1.664857E-15	1.125273E-16
4.310000E+03	1.673975E-15	1.124696E-16
4.320000E+03	1.683652E-15	1.124736E-16
4.330000E+03	1.693906E-15	1.125431E-16
4.340000E+03	1.704712E-15	1.126792E-16
4.350000E+03	1.716122E-15	1.128880E-16
4.360000E+03	1.728064E-15	1.131670E-16
4.370000E+03	1.740581E-15	1.135214E-16
4.380000E+03	1.753672E-15	1.139529E-16
4.390000E+03	1.767291E-15	1.144595E-16
4.400000E+03	1.781431E-15	1.150402E-16
4.410000E+03	1.796084E-15	1.156915E-16
4.420000E+03	1.811235E-15	1.164093E-16
4.430000E+03	1.826823E-15	1.171857E-16
4.440000E+03	1.842859E-15	1.180174E-16
4.450000E+03	1.859265E-15	1.188949E-16
4.460000E+03	1.875958E-15	1.198087E-16
4.470000E+03	1.892959E-15	1.207559E-16
4.480000E+03	1.910088E-15	1.217212E-16
4.490000E+03	1.927351E-15	1.227013E-16
4.500000E+03	1.944668E-15	1.236883E-16
4.510000E+03	1.961870E-15	1.246690E-16
4.520000E+03	1.978903E-15	1.256381E-16
4.530000E+03	1.995667E-15	1.265883E-16
4.540000E+03	2.012018E-15	1.275100E-16
4.550000E+03	2.027890E-15	1.283993E-16
4.560000E+03	2.043137E-15	1.292476E-16
4.570000E+03	2.057696E-15	1.300523E-16
4.580000E+03	2.071388E-15	1.308037E-16
4.590000E+03	2.084159E-15	1.315004E-16
4.600000E+03	2.095928E-15	1.321395E-16
4.610000E+03	2.106620E-15	1.327183E-16
4.620000E+03	2.116175E-15	1.332354E-16
4.630000E+03	2.124509E-15	1.336874E-16
4.640000E+03	2.131590E-15	1.340741E-16
4.650000E+03	2.137484E-15	1.344011E-16
4.660000E+03	2.142073E-15	1.346620E-16
4.670000E+03	2.145455E-15	1.348637E-16
4.680000E+03	2.147661E-15	1.350083E-16
4.690000E+03	2.148663E-15	1.350939E-16
4.700000E+03	2.148597E-15	1.351283E-16
4.710000E+03	2.147534E-15	1.351150E-16
4.720000E+03	2.145479E-15	1.350527E-16
4.730000E+03	2.142633E-15	1.349524E-16
4.740000E+03	2.138977E-15	1.348107E-16
4.750000E+03	2.134682E-15	1.346360E-16
4.760000E+03	2.129807E-15	1.344296E-16
4.770000E+03	2.124488E-15	1.341972E-16
4.780000E+03	2.118782E-15	1.339397E-16
4.790000E+03	2.112818E-15	1.336623E-16
4.800000E+03	2.106647E-15	1.333654E-16
4.810000E+03	2.100388E-15	1.330538E-16
4.820000E+03	2.094115E-15	1.327296E-16
4.830000E+03	2.087900E-15	1.323945E-16
4.840000E+03	2.081770E-15	1.320482E-16
4.850000E+03	2.075853E-15	1.316964E-16
4.860000E+03	2.070133E-15	1.313362E-16
4.870000E+03	2.064723E-15	1.309729E-16
4.880000E+03	2.059631E-15	1.306057E-16
4.890000E+03	2.054895E-15	1.302354E-16
4.900000E+03	2.050550E-15	1.298634E-16
4.910000E+03	2.046693E-15	1.294949E-16
4.920000E+03	2.043255E-15	1.291249E-16
4.930000E+03	2.040363E-15	1.287609E-16
4.940000E+03	2.037978E-15	1.284003E-16
4.950000E+03	2.036161E-15	1.280467E-16
4.960000E+03	2.034938E-15	1.277018E-16
4.970000E+03	2.034337E-15	1.273675E-16
4.980000E+03	2.034385E-15	1.270458E-16
4.990000E+03	2.035145E-15	1.267407E-16
5.000000E+03	2.036614E-15	1.264524E-16
5.010000E+03	2.038822E-15	1.261830E-16
5.020000E+03	2.041832E-15	1.259367E-16
5.030000E+03	2.045644E-15	1.257137E-16
5.040000E+03	2.050318E-15	1.255179E-16
5.050000E+03	2.055882E-15	1.253511E-16
5.060000E+03	2.062362E-15	1.252150E-16
5.070000E+03	2.069744E-15	1.251089E-16
5.080000E+03	2.078108E-15	1.250374E-16
5.090000E+03	2.087395E-15	1.249972E-16
5.100000E+03	2.097666E-15	1.249918E-16
5.110000E+03	2.108845E-15	1.250166E-16
5.120000E+03	2.120971E-15	1.250741E-16
5.130000E+03	2.133976E-15	1.251601E-16
5.140000E+03	2.147809E-15	1.252720E-16
5.150000E+03	2.162440E-15	1.254080E-16
5.160000E+03	2.177761E-15	1.255620E-16
5.170000E+03	2.193682E-15	1.257294E-16
5.180000E+03	2.210101E-15	1.259045E-16
5.190000E+03	2.226905E-15	1.260816E-16
5.200000E+03	2.244002E-15	1.262560E-16
5.210000E+03	2.261226E-15	1.264190E-16
5.220000E+03	2.278466E-15	1.265655E-16
5.230000E+03	2.295504E-15	1.266841E-16
5.240000E+03	2.312250E-15	1.267712E-16
5.250000E+03	2.328509E-15	1.268172E-16
5.260000E+03	2.344150E-15	1.268167E-16
5.270000E+03	2.358935E-15	1.267585E-16
5.280000E+03	2.372770E-15	1.266396E-16
5.290000E+03	2.385453E-15	1.264517E-16
5.300000E+03	2.396825E-15	1.261891E-16
5.310000E+03	2.406732E-15	1.258469E-16
5.320000E+03	2.415065E-15	1.254232E-16
5.330000E+03	2.421616E-15	1.249113E-16
5.340000E+03	2.426300E-15	1.243117E-16
5.350000E+03	2.429008E-15	1.236242E-16
5.360000E+03	2.429648E-15	1.228500E-16
5.370000E+03	2.428145E-15	1.219919E-16
5.380000E+03	2.424441E-15	1.210541E-16
5.390000E+03	2.418497E-15	1.200420E-16
5.400000E+03	2.410257E-15	1.189610E-16
5.410000E+03	2.399752E-15	1.178209E-16
5.420000E+03	2.386999E-15	1.166308E-16
5.430000E+03	2.372026E-15	1.154008E-16
5.440000E+03	2.354880E-15	1.141412E-16
5.450000E+03	2.335586E-15	1.128612E-16
5.460000E+03	2.314288E-15	1.115747E-16
5.470000E+03	2.291002E-15	1.102886E-16
5.480000E+03	2.265860E-15	1.090139E-16
5.490000E+03	2.238940E-15	1.077574E-16
5.500000E+03	2.210425E-15	1.065278E-16
5.510000E+03	2.180367E-15	1.053209E-16
5.520000E+03	2.148961E-15	1.041374E-16
5.530000E+03	2.116288E-15	1.029713E-16
5.540000E+03	2.082570E-15	1.018227E-16
5.550000E+03	2.047917E-15	1.006861E-16
5.560000E+03	2.012576E-15	9.956224E-17
5.570000E+03	1.976713E-15	9.844847E-17
5.580000E+03	1.940536E-15	9.734436E-17
5.590000E+03	1.904255E-15	9.625053E-17
5.600000E+03	1.868114E-15	9.517001E-17
5.610000E+03	1.832326E-15	9.410529E-17
5.620000E+03	1.797044E-15	9.305700E-17
5.630000E+03	1.762554E-15	9.203341E-17
5.640000E+03	1.728992E-15	9.103647E-17
5.650000E+03	1.696590E-15	9.007400E-17
5.660000E+03	1.665463E-15	8.914873E-17
5.670000E+03	1.635786E-15	8.826751E-17
5.680000E+03	1.607691E-15	8.743588E-17
5.690000E+03	1.581296E-15	8.665920E-17
5.700000E+03	1.556722E-15	8.594391E-17
5.710000E+03	1.534004E-15	8.529224E-17
5.720000E+03	1.513277E-15	8.471239E-17
5.730000E+03	1.494520E-15	8.420447E-17
5.740000E+03	1.477812E-15	8.377435E-17
5.750000E+03	1.463170E-15	8.342483E-17
5.760000E+03	1.450598E-15	8.315808E-17
5.770000E+03	1.440067E-15	8.297441E-17
5.780000E+03	1.431575E-15	8.287599E-17
5.790000E+03	1.425093E-15	8.286314E-17
5.800000E+03	1.420577E-15	8.293556E-17
5.810000E+03	1.417979E-15	8.309237E-17
5.820000E+03	1.417219E-15	8.333091E-17
5.830000E+03	1.418276E-15	8.365177E-17
5.840000E+03	1.421060E-15	8.405133E-17
5.850000E+03	1.425499E-15	8.452683E-17
5.860000E+03	1.431518E-15	8.507518E-17
5.870000E+03	1.439041E-15	8.569301E-17
5.880000E+03	1.448014E-15	8.637805E-17
5.890000E+03	1.458340E-15	8.712531E-17
5.900000E+03	1.469923E-15	8.792967E-17
5.910000E+03	1.482740E-15	8.878996E-17
5.920000E+03	1.496724E-15	8.970246E-17
5.930000E+03	1.511771E-15	9.066080E-17
5.940000E+03	1.527870E-15	9.166416E-17
5.950000E+03	1.544950E-15	9.270780E-17
5.960000E+03	1.562967E-15	9.378853E-17
5.970000E+03	1.581884E-15	9.490337E-17
5.980000E+03	1.601671E-15	9.604952E-17
5.990000E+03	1.622300E-15	9.722437E-17
6.000000E+03	1.643777E-15	9.842698E-17
6.010000E+03	1.666062E-15	9.965354E-17
6.020000E+03	1.689114E-15	1.009003E-16
6.030000E+03	1.712975E-15	1.021679E-16
6.040000E+03	1.737610E-15	1.034527E-16
6.050000E+03	1.762979E-15	1.047505E-16
6.060000E+03	1.789124E-15	1.060617E-16
6.070000E+03	1.816001E-15	1.073816E-16
6.080000E+03	1.843556E-15	1.087051E-16
6.090000E+03	1.871786E-15	1.100295E-16
6.100000E+03	1.900677E-15	1.113519E-16
6.110000E+03	1.930115E-15	1.126631E-16
6.120000E+03	1.960029E-15	1.139568E-16
6.130000E+03	1.990393E-15	1.152290E-16
6.140000E+03	2.021041E-15	1.164677E-16
6.150000E+03	2.051877E-15	1.176655E-16
6.160000E+03	2.082757E-15	1.188120E-16
6.170000E+03	2.113481E-15	1.198938E-16
6.180000E+03	2.143891E-15	1.209006E-16
6.190000E+03	2.173778E-15	1.218194E-16
6.200000E+03	2.202878E-15	1.226347E-16
6.210000E+03	2.230977E-15	1.233342E-16
6.220000E+03	2.257813E-15	1.239037E-16
6.230000E+03	2.283078E-15	1.243274E-16
6.240000E+03	2.306529E-15	1.245935E-16
6.250000E+03	2.327849E-15	1.246874E-16
6.260000E+03	2.346838E-15	1.246014E-16
6.270000E+03	2.363124E-15	1.243197E-16
6.280000E+03	2.376576E-15	1.238403E-16
6.290000E+03	2.386900E-15	1.231536E-16
6.300000E+03	2.393909E-15	1.222565E-16
6.310000E+03	2.397531E-15	1.211529E-16
6.320000E+03	2.397581E-15	1.198417E-16
6.330000E+03	2.393994E-15	1.183291E-16
6.340000E+03	2.386829E-15	1.166279E-16
6.350000E+03	2.376037E-15	1.147469E-16
6.360000E+03	2.361771E-15	1.127049E-16
6.370000E+03	2.344069E-15	1.105162E-16
6.380000E+03	2.323129E-15	1.082032E-16
6.390000E+03	2.299105E-15	1.057866E-16
6.400000E+03	2.272293E-15	1.032942E-16
6.410000E+03	2.242903E-15	1.007498E-16
6.420000E+03	2.211197E-15	9.817987E-17
6.430000E+03	2.177452E-15	9.561127E-17
6.440000E+03	2.141986E-15	9.307239E-17
6.450000E+03	2.105010E-15	9.058649E-17
6.460000E+03	2.066874E-15	8.818191E-17
6.470000E+03	2.027813E-15	8.588094E-17
6.480000E+03	1.988119E-15	8.370673E-17
6.490000E+03	1.948001E-15	8.167705E-17
6.500000E+03	1.907717E-15	7.980937E-17
6.510000E+03	1.867441E-15	7.811490E-17
6.520000E+03	1.827388E-15	7.660363E-17
6.530000E+03	1.787722E-15	7.527992E-17
6.540000E+03	1.748566E-15	7.413752E-17
6.550000E+03	1.710003E-15	7.315793E-17
6.560000E+03	1.672074E-15	7.231935E-17
6.570000E+03	1.634887E-15	7.160316E-17
6.580000E+03	1.598458E-15	7.098749E-17
6.590000E+03	1.562824E-15	7.045280E-17
6.600000E+03	1.528040E-15	6.998237E-17
6.610000E+03	1.494105E-15	6.955911E-17
6.620000E+03	1.461042E-15	6.916936E-17
6.630000E+03	1.428895E-15	6.880295E-17
6.640000E+03	1.397683E-15	6.845078E-17
6.650000E+03	1.367400E-15	6.810481E-17
6.660000E+03	1.338087E-15	6.776129E-17
6.670000E+03	1.309760E-15	6.741710E-17
6.680000E+03	1.282434E-15	6.707066E-17
6.690000E+03	1.256099E-15	6.672055E-17
6.700000E+03	1.230813E-15	6.636986E-17
6.710000E+03	1.206561E-15	6.601905E-17
6.720000E+03	1.183373E-15	6.567148E-17
6.730000E+03	1.161211E-15	6.532753E-17
6.740000E+03	1.140119E-15	6.499241E-17
6.750000E+03	1.120095E-15	6.466914E-17
6.760000E+03	1.101098E-15	6.435855E-17
6.770000E+03	1.083180E-15	6.406700E-17
6.780000E+03	1.066295E-15	6.379511E-17
6.790000E+03	1.050433E-15	6.354556E-17
6.800000E+03	1.035602E-15	6.332194E-17
6.810000E+03	1.021789E-15	6.312651E-17
6.820000E+03	1.008977E-15	6.296127E-17
6.830000E+03	9.971343E-16	6.282691E-17
6.840000E+03	9.862607E-16	6.272612E-17
6.850000E+03	9.763556E-16	6.266135E-17
6.860000E+03	9.673652E-16	6.263153E-17
6.870000E+03	9.592873E-16	6.263874E-17
6.880000E+03	9.520846E-16	6.268263E-17
6.890000E+03	9.457701E-16	6.276604E-17
6.900000E+03	9.403051E-16	6.288830E-17
6.910000E+03	9.356676E-16	6.304968E-17
6.920000E+03	9.318349E-16	6.325031E-17
6.930000E+03	9.287671E-16	6.348903E-17
6.940000E+03	9.264739E-16	6.376797E-17
6.950000E+03	9.249145E-16	6.408566E-17
6.960000E+03	9.240640E-16	6.444166E-17
6.970000E+03	9.238805E-16	6.483420E-17
6.980000E+03	9.243717E-16	6.526490E-17
6.990000E+03	9.254778E-16	6.573050E-17
7.000000E+03	9.272057E-16	6.623237E-17
7.010000E+03	9.294943E-16	6.676697E-17
7.020000E+03	9.323328E-16	6.733418E-17
7.030000E+03	9.356929E-16	6.793257E-17
7.040000E+03	9.395459E-16	6.856058E-17
7.050000E+03	9.438454E-16	6.921525E-17
7.060000E+03	9.485962E-16	6.989726E-17
7.070000E+03	9.537159E-16	7.060082E-17
7.080000E+03	9.592261E-16	7.132767E-17
7.090000E+03	9.650604E-16	7.207300E-17
7.100000E+03	9.711870E-16	7.283445E-17
7.110000E+03	9.775911E-16	7.361086E-17
7.120000E+03	9.842220E-16	7.439830E-17
7.130000E+03	9.910461E-16	7.519407E-17
7.140000E+03	9.980479E-16	7.599674E-17
7.150000E+03	1.005175E-15	7.680204E-17
7.160000E+03	1.012392E-15	7.760699E-17
7.170000E+03	1.019665E-15	7.840852E-17
7.180000E+03	1.026939E-15	7.920206E-17
7.190000E+03	1.034218E-15	7.998737E-17
7.200000E+03	1.041447E-15	8.075985E-17
7.210000E+03	1.048573E-15	8.151482E-17
7.220000E+03	1.055582E-15	8.225063E-17
7.230000E+03	1.062422E-15	8.296268E-17
7.240000E+03	1.069080E-15	8.364946E-17
7.250000E+03	1.075507E-15	8.430656E-17
7.260000E+03	1.081675E-15	8.493122E-17
7.270000E+03	1.087578E-15	8.552243E-17
7.280000E+03	1.093173E-15	8.607628E-17
7.290000E+03	1.098441E-15	8.659067E-17
7.300000E+03	1.103364E-15	8.706376E-17
7.310000E+03	1.107910E-15	8.749240E-17
7.320000E+03	1.112109E-15	8.787866E-17
7.330000E+03	1.115916E-15	8.821843E-17
7.340000E+03	1.119372E-15	8.851451E-17
7.350000E+03	1.122418E-15	8.876184E-17
7.360000E+03	1.125124E-15	8.896560E-17
7.370000E+03	1.127440E-15	8.912143E-17
7.380000E+03	1.129444E-15	8.923526E-17
7.390000E+03	1.131093E-15	8.930335E-17
7.400000E+03	1.132454E-15	8.933061E-17
7.410000E+03	1.133531E-15	8.931718E-17
7.420000E+03	1.134376E-15	8.926681E-17
7.430000E+03	1.134978E-15	8.917839E-17
7.440000E+03	1.135414E-15	8.905769E-17
7.450000E+03	1.135698E-15	8.890555E-17
7.460000E+03	1.135868E-15	8.872454E-17
7.470000E+03	1.135960E-15	8.851727E-17
7.480000E+03	1.136012E-15	8.828633E-17
7.490000E+03	1.136062E-15	8.803422E-17
7.500000E+03	1.136145E-15	8.776335E-17
7.510000E+03	1.136298E-15	8.747598E-17
7.520000E+03	1.136554E-15	8.717416E-17
7.530000E+03	1.136944E-15	8.685972E-17
7.540000E+03	1.137475E-15	8.653261E-17
7.550000E+03	1.138217E-15	8.619737E-17
7.560000E+03	1.139148E-15	8.585169E-17
7.570000E+03	1.140331E-15	8.549944E-17
7.580000E+03	1.141737E-15	8.513760E-17
7.590000E+03	1.143399E-15	8.476764E-17
7.600000E+03	1.145322E-15	8.438902E-17
7.610000E+03	1.147507E-15	8.400075E-17
7.620000E+03	1.149928E-15	8.359987E-17
7.630000E+03	1.152619E-15	8.318778E-17
7.640000E+03	1.155522E-15	8.275908E-17
7.650000E+03	1.158637E-15	8.231277E-17
7.660000E+03	1.161938E-15	8.184586E-17
7.670000E+03	1.165394E-15	8.135503E-17
7.680000E+03	1.168945E-15	8.083508E-17
7.690000E+03	1.172593E-15	8.028522E-17
7.700000E+03	1.176245E-15	7.969821E-17
7.710000E+03	1.179873E-15	7.907130E-17
7.720000E+03	1.183417E-15	7.840010E-17
7.730000E+03	1.186796E-15	7.767868E-17
7.740000E+03	1.189990E-15	7.690571E-17
7.750000E+03	1.192887E-15	7.607395E-17
7.760000E+03	1.195439E-15	7.518091E-17
