#wls	flux	fluxerr
1.600000E+03	4.399274E-15	9.915492E-16
1.640000E+03	4.196084E-15	8.571920E-16
1.680000E+03	3.989204E-15	7.314553E-16
1.720000E+03	3.779402E-15	6.148722E-16
1.760000E+03	3.567823E-15	5.079395E-16
1.800000E+03	3.355817E-15	4.110580E-16
1.840000E+03	3.143494E-15	3.243687E-16
1.880000E+03	2.932236E-15	2.480958E-16
1.920000E+03	2.722313E-15	1.823000E-16
1.960000E+03	2.513647E-15	1.270963E-16
2.000000E+03	2.305501E-15	8.289081E-17
2.040000E+03	2.096959E-15	5.105229E-17
2.080000E+03	1.887935E-15	3.450997E-17
2.120000E+03	1.686875E-15	3.148508E-17
2.160000E+03	1.517716E-15	3.145712E-17
2.200000E+03	1.400131E-15	3.024566E-17
2.240000E+03	1.346438E-15	2.970927E-17
2.280000E+03	1.366374E-15	3.324430E-17
2.320000E+03	1.468222E-15	4.187271E-17
2.360000E+03	1.663511E-15	5.457778E-17
2.400000E+03	1.972115E-15	7.036302E-17
2.440000E+03	2.422620E-15	8.778777E-17
2.480000E+03	3.049690E-15	1.038198E-16
2.520000E+03	3.884699E-15	1.128760E-16
2.560000E+03	4.937557E-15	1.081588E-16
2.600000E+03	6.165997E-15	9.542748E-17
2.640000E+03	7.458274E-15	1.311507E-16
2.680000E+03	8.710800E-15	2.411415E-16
2.720000E+03	9.876168E-15	3.913326E-16
2.760000E+03	1.092963E-14	5.605893E-16
2.800000E+03	1.185815E-14	7.345599E-16
2.840000E+03	1.265835E-14	9.014317E-16
2.880000E+03	1.333652E-14	1.051646E-15
2.920000E+03	1.390611E-14	1.178036E-15
2.960000E+03	1.438872E-14	1.276097E-15
3.000000E+03	1.480932E-14	1.343536E-15
3.010000E+03	1.490849E-14	1.355570E-15
3.020000E+03	1.500578E-14	1.365649E-15
3.030000E+03	1.510163E-14	1.373782E-15
3.040000E+03	1.519714E-14	1.380044E-15
3.050000E+03	1.529239E-14	1.384419E-15
3.060000E+03	1.538778E-14	1.386926E-15
3.070000E+03	1.548407E-14	1.387614E-15
3.080000E+03	1.558132E-14	1.386476E-15
3.090000E+03	1.567994E-14	1.383533E-15
3.100000E+03	1.578095E-14	1.378865E-15
3.110000E+03	1.588408E-14	1.372437E-15
3.120000E+03	1.599001E-14	1.364298E-15
3.130000E+03	1.609877E-14	1.354442E-15
3.140000E+03	1.621165E-14	1.342969E-15
3.150000E+03	1.632798E-14	1.329817E-15
3.160000E+03	1.644839E-14	1.315029E-15
3.170000E+03	1.657344E-14	1.298645E-15
3.180000E+03	1.670338E-14	1.280676E-15
3.190000E+03	1.683776E-14	1.261087E-15
3.200000E+03	1.697771E-14	1.239957E-15
3.210000E+03	1.712272E-14	1.217248E-15
3.220000E+03	1.727320E-14	1.192989E-15
3.230000E+03	1.742887E-14	1.167165E-15
3.240000E+03	1.759002E-14	1.139803E-15
3.250000E+03	1.775657E-14	1.110908E-15
3.260000E+03	1.792838E-14	1.080486E-15
3.270000E+03	1.810493E-14	1.048526E-15
3.280000E+03	1.828622E-14	1.015058E-15
3.290000E+03	1.847184E-14	9.800954E-16
3.300000E+03	1.866102E-14	9.436401E-16
3.310000E+03	1.885343E-14	9.057340E-16
3.320000E+03	1.904807E-14	8.663968E-16
3.330000E+03	1.924437E-14	8.256890E-16
3.340000E+03	1.944106E-14	7.836598E-16
3.350000E+03	1.963699E-14	7.403946E-16
3.360000E+03	1.983087E-14	6.960093E-16
3.370000E+03	2.002125E-14	6.506622E-16
3.380000E+03	2.020651E-14	6.045722E-16
3.390000E+03	2.038452E-14	5.580374E-16
3.400000E+03	2.055362E-14	5.115003E-16
3.410000E+03	2.071101E-14	4.655651E-16
3.420000E+03	2.085495E-14	4.211327E-16
3.430000E+03	2.098229E-14	3.794552E-16
3.440000E+03	2.109034E-14	3.422955E-16
3.450000E+03	2.117629E-14	3.119614E-16
3.460000E+03	2.123699E-14	2.910872E-16
3.470000E+03	2.126988E-14	2.819383E-16
3.480000E+03	2.127239E-14	2.852164E-16
3.490000E+03	2.124408E-14	2.991226E-16
3.500000E+03	2.118561E-14	3.205140E-16
3.510000E+03	2.109758E-14	3.462090E-16
3.520000E+03	2.098129E-14	3.736384E-16
3.530000E+03	2.083721E-14	4.009364E-16
3.540000E+03	2.066706E-14	4.268622E-16
3.550000E+03	2.047227E-14	4.506187E-16
3.560000E+03	2.025483E-14	4.717379E-16
3.570000E+03	2.001656E-14	4.899719E-16
3.580000E+03	1.975988E-14	5.052453E-16
3.590000E+03	1.948810E-14	5.176167E-16
3.600000E+03	1.920400E-14	5.272124E-16
3.610000E+03	1.891171E-14	5.342508E-16
3.620000E+03	1.861528E-14	5.389891E-16
3.630000E+03	1.831897E-14	5.417155E-16
3.640000E+03	1.802759E-14	5.427500E-16
3.650000E+03	1.774646E-14	5.424348E-16
3.660000E+03	1.748069E-14	5.411075E-16
3.670000E+03	1.723612E-14	5.391239E-16
3.680000E+03	1.701789E-14	5.368100E-16
3.690000E+03	1.683170E-14	5.344984E-16
3.700000E+03	1.668295E-14	5.324998E-16
3.710000E+03	1.657708E-14	5.311121E-16
3.720000E+03	1.651895E-14	5.306006E-16
3.730000E+03	1.651353E-14	5.312195E-16
3.740000E+03	1.656530E-14	5.331941E-16
3.750000E+03	1.667859E-14	5.367312E-16
3.760000E+03	1.685716E-14	5.420081E-16
3.770000E+03	1.710450E-14	5.491824E-16
3.780000E+03	1.742341E-14	5.583799E-16
3.790000E+03	1.781608E-14	5.696978E-16
3.800000E+03	1.828447E-14	5.832183E-16
3.810000E+03	1.882876E-14	5.989600E-16
3.820000E+03	1.944882E-14	6.169235E-16
3.830000E+03	2.014329E-14	6.370641E-16
3.840000E+03	2.090888E-14	6.592684E-16
3.850000E+03	2.174119E-14	6.833788E-16
3.860000E+03	2.263443E-14	7.091854E-16
3.870000E+03	2.358102E-14	7.364123E-16
3.880000E+03	2.457188E-14	7.647250E-16
3.890000E+03	2.559634E-14	7.937275E-16
3.900000E+03	2.664308E-14	8.229922E-16
3.910000E+03	2.769977E-14	8.520503E-16
3.920000E+03	2.875376E-14	8.804124E-16
3.930000E+03	2.979241E-14	9.075852E-16
3.940000E+03	3.080359E-14	9.330885E-16
3.950000E+03	3.177632E-14	9.564806E-16
3.960000E+03	3.270055E-14	9.773565E-16
3.970000E+03	3.356729E-14	9.953597E-16
3.980000E+03	3.437002E-14	1.010227E-15
3.990000E+03	3.510280E-14	1.021740E-15
4.000000E+03	3.576180E-14	1.029773E-15
4.010000E+03	3.634413E-14	1.034263E-15
4.020000E+03	3.684768E-14	1.035207E-15
4.030000E+03	3.727216E-14	1.032692E-15
4.040000E+03	3.761697E-14	1.026834E-15
4.050000E+03	3.788258E-14	1.017816E-15
4.060000E+03	3.806952E-14	1.005857E-15
4.070000E+03	3.817851E-14	9.912061E-16
4.080000E+03	3.821057E-14	9.741422E-16
4.090000E+03	3.816730E-14	9.549689E-16
4.100000E+03	3.805007E-14	9.339802E-16
4.110000E+03	3.786106E-14	9.114767E-16
4.120000E+03	3.760381E-14	8.877626E-16
4.130000E+03	3.728126E-14	8.630909E-16
4.140000E+03	3.689824E-14	8.377140E-16
4.150000E+03	3.646009E-14	8.118493E-16
4.160000E+03	3.597308E-14	7.856865E-16
4.170000E+03	3.544428E-14	7.593872E-16
4.180000E+03	3.488149E-14	7.330842E-16
4.190000E+03	3.429313E-14	7.068802E-16
4.200000E+03	3.368805E-14	6.808450E-16
4.210000E+03	3.307533E-14	6.550139E-16
4.220000E+03	3.246412E-14	6.293848E-16
4.230000E+03	3.186317E-14	6.039137E-16
4.240000E+03	3.128113E-14	5.785278E-16
4.250000E+03	3.072644E-14	5.531307E-16
4.260000E+03	3.020654E-14	5.276023E-16
4.270000E+03	2.972753E-14	5.018128E-16
4.280000E+03	2.929536E-14	4.756689E-16
4.290000E+03	2.891467E-14	4.491276E-16
4.300000E+03	2.858904E-14	4.222439E-16
4.310000E+03	2.832091E-14	3.952270E-16
4.320000E+03	2.811141E-14	3.685087E-16
4.330000E+03	2.796137E-14	3.428451E-16
4.340000E+03	2.786966E-14	3.193846E-16
4.350000E+03	2.783524E-14	2.997446E-16
4.360000E+03	2.785576E-14	2.859089E-16
4.370000E+03	2.792794E-14	2.796782E-16
4.380000E+03	2.804633E-14	2.817103E-16
4.390000E+03	2.820491E-14	2.917604E-16
4.400000E+03	2.839708E-14	3.084517E-16
4.410000E+03	2.861650E-14	3.296748E-16
4.420000E+03	2.885614E-14	3.533983E-16
4.430000E+03	2.910876E-14	3.779341E-16
4.440000E+03	2.936753E-14	4.019946E-16
4.450000E+03	2.962505E-14	4.246350E-16
4.460000E+03	2.987417E-14	4.451951E-16
4.470000E+03	3.010814E-14	4.632385E-16
4.480000E+03	3.031963E-14	4.784869E-16
4.490000E+03	3.050251E-14	4.908110E-16
4.500000E+03	3.065096E-14	5.001891E-16
4.510000E+03	3.075957E-14	5.066891E-16
4.520000E+03	3.082409E-14	5.104647E-16
4.530000E+03	3.084126E-14	5.117397E-16
4.540000E+03	3.080887E-14	5.107963E-16
4.550000E+03	3.072582E-14	5.079612E-16
4.560000E+03	3.059180E-14	5.035818E-16
4.570000E+03	3.040751E-14	4.980091E-16
4.580000E+03	3.017545E-14	4.915850E-16
4.590000E+03	2.989777E-14	4.845847E-16
4.600000E+03	2.957752E-14	4.772204E-16
4.610000E+03	2.921884E-14	4.696367E-16
4.620000E+03	2.882590E-14	4.618983E-16
4.630000E+03	2.840223E-14	4.539941E-16
4.640000E+03	2.795307E-14	4.458947E-16
4.650000E+03	2.748169E-14	4.375136E-16
4.660000E+03	2.699283E-14	4.287805E-16
4.670000E+03	2.649022E-14	4.196155E-16
4.680000E+03	2.597735E-14	4.099535E-16
4.690000E+03	2.545749E-14	3.997539E-16
4.700000E+03	2.493371E-14	3.890096E-16
4.710000E+03	2.440944E-14	3.777655E-16
4.720000E+03	2.388727E-14	3.661090E-16
4.730000E+03	2.337006E-14	3.541971E-16
4.740000E+03	2.286097E-14	3.422644E-16
4.750000E+03	2.236255E-14	3.306129E-16
4.760000E+03	2.187861E-14	3.196341E-16
4.770000E+03	2.141176E-14	3.097513E-16
4.780000E+03	2.096576E-14	3.014139E-16
4.790000E+03	2.054397E-14	2.950133E-16
4.800000E+03	2.014924E-14	2.907992E-16
4.810000E+03	1.978454E-14	2.886685E-16
4.820000E+03	1.945234E-14	2.882373E-16
4.830000E+03	1.915429E-14	2.890597E-16
4.840000E+03	1.889241E-14	2.907170E-16
4.850000E+03	1.866817E-14	2.928501E-16
4.860000E+03	1.848244E-14	2.951765E-16
4.870000E+03	1.833580E-14	2.974961E-16
4.880000E+03	1.822843E-14	2.996803E-16
4.890000E+03	1.815956E-14	3.016486E-16
4.900000E+03	1.812819E-14	3.033659E-16
4.910000E+03	1.813211E-14	3.048141E-16
4.920000E+03	1.816916E-14	3.059996E-16
4.930000E+03	1.823644E-14	3.069336E-16
4.940000E+03	1.833047E-14	3.076267E-16
4.950000E+03	1.844782E-14	3.080969E-16
4.960000E+03	1.858445E-14	3.083579E-16
4.970000E+03	1.873659E-14	3.084344E-16
4.980000E+03	1.890007E-14	3.083535E-16
4.990000E+03	1.907092E-14	3.081579E-16
5.000000E+03	1.924506E-14	3.079005E-16
5.010000E+03	1.941908E-14	3.076557E-16
5.020000E+03	1.958886E-14	3.074920E-16
5.030000E+03	1.975071E-14	3.074818E-16
5.040000E+03	1.990116E-14	3.076875E-16
5.050000E+03	2.003634E-14	3.081404E-16
5.060000E+03	2.015257E-14	3.088402E-16
5.070000E+03	2.024619E-14	3.097467E-16
5.080000E+03	2.031368E-14	3.107779E-16
5.090000E+03	2.035153E-14	3.118123E-16
5.100000E+03	2.035682E-14	3.127045E-16
5.110000E+03	2.032739E-14	3.132988E-16
5.120000E+03	2.026117E-14	3.134314E-16
5.130000E+03	2.015772E-14	3.129686E-16
5.140000E+03	2.001648E-14	3.117913E-16
5.150000E+03	1.983887E-14	3.098386E-16
5.160000E+03	1.962662E-14	3.070882E-16
5.170000E+03	1.938256E-14	3.035728E-16
5.180000E+03	1.911034E-14	2.993745E-16
5.190000E+03	1.881415E-14	2.946155E-16
5.200000E+03	1.849894E-14	2.894543E-16
5.210000E+03	1.816995E-14	2.840661E-16
5.220000E+03	1.783326E-14	2.786383E-16
5.230000E+03	1.749413E-14	2.733305E-16
5.240000E+03	1.715851E-14	2.682838E-16
5.250000E+03	1.683183E-14	2.635932E-16
5.260000E+03	1.651909E-14	2.593009E-16
5.270000E+03	1.622424E-14	2.553894E-16
5.280000E+03	1.595096E-14	2.517977E-16
5.290000E+03	1.570169E-14	2.484180E-16
5.300000E+03	1.547813E-14	2.451158E-16
5.310000E+03	1.528092E-14	2.417384E-16
5.320000E+03	1.511022E-14	2.381357E-16
5.330000E+03	1.496504E-14	2.341578E-16
5.340000E+03	1.484416E-14	2.296762E-16
5.350000E+03	1.474575E-14	2.245827E-16
5.360000E+03	1.466798E-14	2.188017E-16
5.370000E+03	1.460821E-14	2.122823E-16
5.380000E+03	1.456427E-14	2.050233E-16
5.390000E+03	1.453369E-14	1.970662E-16
5.400000E+03	1.451404E-14	1.885077E-16
5.410000E+03	1.450275E-14	1.795013E-16
5.420000E+03	1.449779E-14	1.702673E-16
5.430000E+03	1.449755E-14	1.610881E-16
5.440000E+03	1.450049E-14	1.522666E-16
5.450000E+03	1.450703E-14	1.440488E-16
5.460000E+03	1.451773E-14	1.368181E-16
5.470000E+03	1.453365E-14	1.312277E-16
5.480000E+03	1.455649E-14	1.281824E-16
5.490000E+03	1.458711E-14	1.286119E-16
5.500000E+03	1.462633E-14	1.329294E-16
5.510000E+03	1.467381E-14	1.404842E-16
5.520000E+03	1.472894E-14	1.502380E-16
5.530000E+03	1.478968E-14	1.611644E-16
5.540000E+03	1.485388E-14	1.724259E-16
5.550000E+03	1.491865E-14	1.833984E-16
5.560000E+03	1.498121E-14	1.936522E-16
5.570000E+03	1.503809E-14	2.028992E-16
5.580000E+03	1.508615E-14	2.109707E-16
5.590000E+03	1.512237E-14	2.177868E-16
5.600000E+03	1.514442E-14	2.233442E-16
5.610000E+03	1.515008E-14	2.276895E-16
5.620000E+03	1.513805E-14	2.309154E-16
5.630000E+03	1.510778E-14	2.331427E-16
5.640000E+03	1.505931E-14	2.345042E-16
5.650000E+03	1.499361E-14	2.351392E-16
5.660000E+03	1.491210E-14	2.351798E-16
5.670000E+03	1.481720E-14	2.347563E-16
5.680000E+03	1.471192E-14	2.339926E-16
5.690000E+03	1.459961E-14	2.330030E-16
5.700000E+03	1.448398E-14	2.318941E-16
5.710000E+03	1.436893E-14	2.307614E-16
5.720000E+03	1.425869E-14	2.296899E-16
5.730000E+03	1.415674E-14	2.287352E-16
5.740000E+03	1.406688E-14	2.279396E-16
5.750000E+03	1.399211E-14	2.273182E-16
5.760000E+03	1.393469E-14	2.268649E-16
5.770000E+03	1.389644E-14	2.265653E-16
5.780000E+03	1.387837E-14	2.263988E-16
5.790000E+03	1.388025E-14	2.263384E-16
5.800000E+03	1.390108E-14	2.263610E-16
5.810000E+03	1.393915E-14	2.264500E-16
5.820000E+03	1.399119E-14	2.265796E-16
5.830000E+03	1.405342E-14	2.267292E-16
5.840000E+03	1.412104E-14	2.268726E-16
5.850000E+03	1.418847E-14	2.269806E-16
5.860000E+03	1.424971E-14	2.270239E-16
5.870000E+03	1.429789E-14	2.269642E-16
5.880000E+03	1.432665E-14	2.267716E-16
5.890000E+03	1.432930E-14	2.264042E-16
5.900000E+03	1.429976E-14	2.258141E-16
5.910000E+03	1.423276E-14	2.249408E-16
5.920000E+03	1.412407E-14	2.237095E-16
5.930000E+03	1.397099E-14	2.220366E-16
5.940000E+03	1.377193E-14	2.198290E-16
5.950000E+03	1.352726E-14	2.170096E-16
5.960000E+03	1.323931E-14	2.135292E-16
5.970000E+03	1.291191E-14	2.093735E-16
5.980000E+03	1.255016E-14	2.045675E-16
5.990000E+03	1.216108E-14	1.991904E-16
6.000000E+03	1.175199E-14	1.933488E-16
6.010000E+03	1.133172E-14	1.871913E-16
6.020000E+03	1.090860E-14	1.808687E-16
6.030000E+03	1.049127E-14	1.745407E-16
6.040000E+03	1.008814E-14	1.683601E-16
6.050000E+03	9.706678E-15	1.624571E-16
6.060000E+03	9.353639E-15	1.569407E-16
6.070000E+03	9.034580E-15	1.518901E-16
6.080000E+03	8.754483E-15	1.473663E-16
6.090000E+03	8.516787E-15	1.433969E-16
6.100000E+03	8.324525E-15	1.399973E-16
6.110000E+03	8.179568E-15	1.371591E-16
6.120000E+03	8.083045E-15	1.348592E-16
6.130000E+03	8.035527E-15	1.330644E-16
6.140000E+03	8.037077E-15	1.317345E-16
6.150000E+03	8.086984E-15	1.308207E-16
6.160000E+03	8.184029E-15	1.302749E-16
6.170000E+03	8.326548E-15	1.300573E-16
6.180000E+03	8.511722E-15	1.301335E-16
6.190000E+03	8.736207E-15	1.304957E-16
6.200000E+03	8.995744E-15	1.311666E-16
6.210000E+03	9.285121E-15	1.322066E-16
6.220000E+03	9.597934E-15	1.337101E-16
6.230000E+03	9.927035E-15	1.357981E-16
6.240000E+03	1.026475E-14	1.385897E-16
6.250000E+03	1.060290E-14	1.421306E-16
6.260000E+03	1.093395E-14	1.462854E-16
6.270000E+03	1.125070E-14	1.508100E-16
6.280000E+03	1.154671E-14	1.554167E-16
6.290000E+03	1.181625E-14	1.598141E-16
6.300000E+03	1.205456E-14	1.637471E-16
6.310000E+03	1.225815E-14	1.670255E-16
6.320000E+03	1.242465E-14	1.695346E-16
6.330000E+03	1.255242E-14	1.712296E-16
6.340000E+03	1.264115E-14	1.721329E-16
6.350000E+03	1.269134E-14	1.723093E-16
6.360000E+03	1.270383E-14	1.718370E-16
6.370000E+03	1.268048E-14	1.707951E-16
6.380000E+03	1.262324E-14	1.692336E-16
6.390000E+03	1.253439E-14	1.671672E-16
6.400000E+03	1.241656E-14	1.645748E-16
6.410000E+03	1.227306E-14	1.614119E-16
6.420000E+03	1.210711E-14	1.576130E-16
6.430000E+03	1.192287E-14	1.531237E-16
6.440000E+03	1.172459E-14	1.479087E-16
6.450000E+03	1.151697E-14	1.419761E-16
6.460000E+03	1.130520E-14	1.353983E-16
6.470000E+03	1.109455E-14	1.283256E-16
6.480000E+03	1.089056E-14	1.210090E-16
6.490000E+03	1.069813E-14	1.138103E-16
6.500000E+03	1.052254E-14	1.072259E-16
6.510000E+03	1.036813E-14	1.018603E-16
6.520000E+03	1.023820E-14	9.835737E-17
6.530000E+03	1.013517E-14	9.725221E-17
6.540000E+03	1.005917E-14	9.861688E-17
6.550000E+03	1.000793E-14	1.019670E-16
6.560000E+03	9.978053E-15	1.066694E-16
6.570000E+03	9.965683E-15	1.121276E-16
6.580000E+03	9.966325E-15	1.178595E-16
6.590000E+03	9.975626E-15	1.235180E-16
6.600000E+03	9.989596E-15	1.288711E-16
6.610000E+03	1.000445E-14	1.337711E-16
6.620000E+03	1.001673E-14	1.381278E-16
6.630000E+03	1.002384E-14	1.418966E-16
6.640000E+03	1.002344E-14	1.450557E-16
6.650000E+03	1.001427E-14	1.476103E-16
6.660000E+03	9.994919E-15	1.495703E-16
6.670000E+03	9.964819E-15	1.509628E-16
6.680000E+03	9.923999E-15	1.518282E-16
6.690000E+03	9.872697E-15	1.522149E-16
6.700000E+03	9.811294E-15	1.521785E-16
6.710000E+03	9.740608E-15	1.517858E-16
6.720000E+03	9.661831E-15	1.511140E-16
6.730000E+03	9.575971E-15	1.502401E-16
6.740000E+03	9.484479E-15	1.492489E-16
6.750000E+03	9.388360E-15	1.482163E-16
6.760000E+03	9.289301E-15	1.472230E-16
6.770000E+03	9.188293E-15	1.463294E-16
6.780000E+03	9.086934E-15	1.455917E-16
6.790000E+03	8.986077E-15	1.450371E-16
6.800000E+03	8.886972E-15	1.446789E-16
6.810000E+03	8.790598E-15	1.445050E-16
6.820000E+03	8.697667E-15	1.444791E-16
6.830000E+03	8.609104E-15	1.445532E-16
6.840000E+03	8.525406E-15	1.446637E-16
6.850000E+03	8.447278E-15	1.447501E-16
6.860000E+03	8.374836E-15	1.447500E-16
6.870000E+03	8.308711E-15	1.446243E-16
6.880000E+03	8.248938E-15	1.443428E-16
6.890000E+03	8.195584E-15	1.438967E-16
6.900000E+03	8.148434E-15	1.432925E-16
6.910000E+03	8.107612E-15	1.425599E-16
6.920000E+03	8.072350E-15	1.417253E-16
6.930000E+03	8.042692E-15	1.408370E-16
6.940000E+03	8.017818E-15	1.399294E-16
6.950000E+03	7.997136E-15	1.390379E-16
6.960000E+03	7.980154E-15	1.381933E-16
6.970000E+03	7.966039E-15	1.374125E-16
6.980000E+03	7.954101E-15	1.367071E-16
6.990000E+03	7.943662E-15	1.360824E-16
7.000000E+03	7.934067E-15	1.355397E-16
7.010000E+03	7.924699E-15	1.350777E-16
7.020000E+03	7.914823E-15	1.346909E-16
7.030000E+03	7.904220E-15	1.343799E-16
7.040000E+03	7.891932E-15	1.341286E-16
7.050000E+03	7.877985E-15	1.339327E-16
7.060000E+03	7.861517E-15	1.337667E-16
7.070000E+03	7.842503E-15	1.336136E-16
7.080000E+03	7.820518E-15	1.334461E-16
7.090000E+03	7.795378E-15	1.332396E-16
7.100000E+03	7.767152E-15	1.329759E-16
7.110000E+03	7.735553E-15	1.326357E-16
7.120000E+03	7.700872E-15	1.322168E-16
7.130000E+03	7.663201E-15	1.317213E-16
7.140000E+03	7.623034E-15	1.311654E-16
7.150000E+03	7.580781E-15	1.305687E-16
7.160000E+03	7.536736E-15	1.299516E-16
7.170000E+03	7.491498E-15	1.293386E-16
7.180000E+03	7.445172E-15	1.287422E-16
7.190000E+03	7.398393E-15	1.281786E-16
7.200000E+03	7.351231E-15	1.276479E-16
7.210000E+03	7.303625E-15	1.271424E-16
7.220000E+03	7.255669E-15	1.266525E-16
7.230000E+03	7.207156E-15	1.261607E-16
7.240000E+03	7.157592E-15	1.256432E-16
7.250000E+03	7.106504E-15	1.250771E-16
7.260000E+03	7.053322E-15	1.244384E-16
7.270000E+03	6.997401E-15	1.237039E-16
7.280000E+03	6.938060E-15	1.228515E-16
7.290000E+03	6.874334E-15	1.218567E-16
7.300000E+03	6.805876E-15	1.207087E-16
7.310000E+03	6.731995E-15	1.193941E-16
7.320000E+03	6.652135E-15	1.179053E-16
7.330000E+03	6.566186E-15	1.162469E-16
7.340000E+03	6.473826E-15	1.144235E-16
7.350000E+03	6.375242E-15	1.124525E-16
7.360000E+03	6.270868E-15	1.103584E-16
7.370000E+03	6.161257E-15	1.081700E-16
7.380000E+03	6.047475E-15	1.059255E-16
7.390000E+03	5.930305E-15	1.036574E-16
7.400000E+03	5.811371E-15	1.014105E-16
7.410000E+03	5.691961E-15	9.922009E-17
7.420000E+03	5.573844E-15	9.712551E-17
7.430000E+03	5.458609E-15	9.515772E-17
7.440000E+03	5.347963E-15	9.334472E-17
7.450000E+03	5.243665E-15	9.171053E-17
7.460000E+03	5.147134E-15	9.026863E-17
7.470000E+03	5.060067E-15	8.903320E-17
7.480000E+03	4.983407E-15	8.800111E-17
7.490000E+03	4.918311E-15	8.716887E-17
7.500000E+03	4.865378E-15	8.651912E-17
7.510000E+03	4.825394E-15	8.603426E-17
7.520000E+03	4.798501E-15	8.568272E-17
7.530000E+03	4.784751E-15	8.543073E-17
7.540000E+03	4.784130E-15	8.524567E-17
7.550000E+03	4.796374E-15	8.509660E-17
7.560000E+03	4.821311E-15	8.496486E-17
7.570000E+03	4.858240E-15	8.483812E-17
7.580000E+03	4.906684E-15	8.472888E-17
7.590000E+03	4.966075E-15	8.467354E-17
7.600000E+03	5.035538E-15	8.473130E-17
7.610000E+03	5.114320E-15	8.499080E-17
7.620000E+03	5.201346E-15	8.555560E-17
7.630000E+03	5.295782E-15	8.653961E-17
7.640000E+03	5.396221E-15	8.802370E-17
7.650000E+03	5.501612E-15	9.000462E-17
7.660000E+03	5.610313E-15	9.241207E-17
7.670000E+03	5.721089E-15	9.515521E-17
7.680000E+03	5.832124E-15	9.811938E-17
7.690000E+03	5.942079E-15	1.011950E-16
7.700000E+03	6.049213E-15	1.042707E-16
7.710000E+03	6.151946E-15	1.072482E-16
7.720000E+03	6.248767E-15	1.100433E-16
7.730000E+03	6.338280E-15	1.125882E-16
7.740000E+03	6.419231E-15	1.148328E-16
7.750000E+03	6.490394E-15	1.167417E-16
7.760000E+03	6.551191E-15	1.183044E-16
