#wls	flux	fluxerr
1.600000E+03	1.631939E-15	4.177925E-16
1.640000E+03	1.510284E-15	3.556546E-16
1.680000E+03	1.391874E-15	2.994540E-16
1.720000E+03	1.277243E-15	2.491421E-16
1.760000E+03	1.167056E-15	2.046384E-16
1.800000E+03	1.062054E-15	1.658118E-16
1.840000E+03	9.626241E-16	1.324215E-16
1.880000E+03	8.696541E-16	1.042599E-16
1.920000E+03	7.838404E-16	8.105106E-17
1.960000E+03	7.060334E-16	6.251570E-17
2.000000E+03	6.372494E-16	4.837815E-17
2.040000E+03	5.788344E-16	3.836097E-17
2.080000E+03	5.323200E-16	3.208767E-17
2.120000E+03	4.986991E-16	2.888812E-17
2.160000E+03	4.774196E-16	2.777794E-17
2.200000E+03	4.681622E-16	2.797732E-17
2.240000E+03	4.715463E-16	2.912414E-17
2.280000E+03	4.888654E-16	3.113937E-17
2.320000E+03	5.218672E-16	3.403441E-17
2.360000E+03	5.727012E-16	3.778985E-17
2.400000E+03	6.438325E-16	4.230335E-17
2.440000E+03	7.378592E-16	4.738293E-17
2.480000E+03	8.573054E-16	5.281806E-17
2.520000E+03	1.004114E-15	5.859352E-17
2.560000E+03	1.179804E-15	6.539045E-17
2.600000E+03	1.386008E-15	7.521074E-17
2.640000E+03	1.625271E-15	9.131781E-17
2.680000E+03	1.894301E-15	1.161401E-16
2.720000E+03	2.182789E-15	1.498085E-16
2.760000E+03	2.478848E-15	1.907279E-16
2.800000E+03	2.770871E-15	2.363113E-16
2.840000E+03	3.048693E-15	2.835175E-16
2.880000E+03	3.304389E-15	3.292461E-16
2.920000E+03	3.532144E-15	3.705989E-16
2.960000E+03	3.728739E-15	4.051542E-16
3.000000E+03	3.892467E-15	4.310194E-16
3.010000E+03	3.928323E-15	4.359776E-16
3.020000E+03	3.962053E-15	4.402899E-16
3.030000E+03	3.993655E-15	4.439435E-16
3.040000E+03	4.023308E-15	4.469475E-16
3.050000E+03	4.050921E-15	4.492834E-16
3.060000E+03	4.076493E-15	4.509444E-16
3.070000E+03	4.100111E-15	4.519355E-16
3.080000E+03	4.121684E-15	4.522443E-16
3.090000E+03	4.141211E-15	4.518699E-16
3.100000E+03	4.158858E-15	4.508319E-16
3.110000E+03	4.174445E-15	4.491139E-16
3.120000E+03	4.188048E-15	4.467296E-16
3.130000E+03	4.199567E-15	4.436758E-16
3.140000E+03	4.209239E-15	4.399866E-16
3.150000E+03	4.216790E-15	4.356446E-16
3.160000E+03	4.222281E-15	4.306695E-16
3.170000E+03	4.225764E-15	4.250820E-16
3.180000E+03	4.227204E-15	4.188957E-16
3.190000E+03	4.226406E-15	4.121107E-16
3.200000E+03	4.223566E-15	4.047678E-16
3.210000E+03	4.218481E-15	3.968712E-16
3.220000E+03	4.211182E-15	3.884496E-16
3.230000E+03	4.201540E-15	3.795195E-16
3.240000E+03	4.189577E-15	3.701135E-16
3.250000E+03	4.175236E-15	3.602593E-16
3.260000E+03	4.158458E-15	3.499870E-16
3.270000E+03	4.139116E-15	3.393238E-16
3.280000E+03	4.117222E-15	3.283113E-16
3.290000E+03	4.092721E-15	3.169878E-16
3.300000E+03	4.065494E-15	3.053899E-16
3.310000E+03	4.035564E-15	2.935676E-16
3.320000E+03	4.002825E-15	2.815642E-16
3.330000E+03	3.967314E-15	2.694359E-16
3.340000E+03	3.928950E-15	2.572335E-16
3.350000E+03	3.887733E-15	2.450156E-16
3.360000E+03	3.843681E-15	2.328446E-16
3.370000E+03	3.796831E-15	2.207860E-16
3.380000E+03	3.747246E-15	2.089082E-16
3.390000E+03	3.694963E-15	1.972794E-16
3.400000E+03	3.640161E-15	1.859757E-16
3.410000E+03	3.582895E-15	1.750661E-16
3.420000E+03	3.523469E-15	1.646288E-16
3.430000E+03	3.462005E-15	1.547274E-16
3.440000E+03	3.398747E-15	1.454212E-16
3.450000E+03	3.333971E-15	1.367609E-16
3.460000E+03	3.267952E-15	1.287840E-16
3.470000E+03	3.201088E-15	1.215167E-16
3.480000E+03	3.133733E-15	1.149668E-16
3.490000E+03	3.066289E-15	1.091269E-16
3.500000E+03	2.999221E-15	1.039740E-16
3.510000E+03	2.932982E-15	9.947095E-17
3.520000E+03	2.868103E-15	9.557133E-17
3.530000E+03	2.804952E-15	9.221246E-17
3.540000E+03	2.744032E-15	8.933275E-17
3.550000E+03	2.685754E-15	8.686754E-17
3.560000E+03	2.630524E-15	8.475207E-17
3.570000E+03	2.578662E-15	8.292462E-17
3.580000E+03	2.530496E-15	8.133200E-17
3.590000E+03	2.486380E-15	7.992828E-17
3.600000E+03	2.446531E-15	7.867193E-17
3.610000E+03	2.411272E-15	7.753366E-17
3.620000E+03	2.380850E-15	7.648810E-17
3.630000E+03	2.355488E-15	7.551584E-17
3.640000E+03	2.335447E-15	7.460490E-17
3.650000E+03	2.321027E-15	7.374853E-17
3.660000E+03	2.312494E-15	7.294289E-17
3.670000E+03	2.310218E-15	7.219012E-17
3.680000E+03	2.314485E-15	7.149074E-17
3.690000E+03	2.325684E-15	7.084979E-17
3.700000E+03	2.344200E-15	7.027229E-17
3.710000E+03	2.370427E-15	6.976220E-17
3.720000E+03	2.404732E-15	6.932276E-17
3.730000E+03	2.447545E-15	6.896015E-17
3.740000E+03	2.499252E-15	6.867979E-17
3.750000E+03	2.560269E-15	6.849054E-17
3.760000E+03	2.630968E-15	6.840308E-17
3.770000E+03	2.711655E-15	6.842867E-17
3.780000E+03	2.802531E-15	6.858082E-17
3.790000E+03	2.903644E-15	6.887214E-17
3.800000E+03	3.014819E-15	6.930796E-17
3.810000E+03	3.135472E-15	6.988802E-17
3.820000E+03	3.264876E-15	7.061338E-17
3.830000E+03	3.401969E-15	7.147607E-17
3.840000E+03	3.545263E-15	7.246388E-17
3.850000E+03	3.693058E-15	7.356423E-17
3.860000E+03	3.843460E-15	7.475532E-17
3.870000E+03	3.994309E-15	7.601200E-17
3.880000E+03	4.143329E-15	7.730753E-17
3.890000E+03	4.288284E-15	7.860493E-17
3.900000E+03	4.427065E-15	7.986797E-17
3.910000E+03	4.557689E-15	8.106033E-17
3.920000E+03	4.678581E-15	8.213837E-17
3.930000E+03	4.788486E-15	8.306365E-17
3.940000E+03	4.886435E-15	8.380796E-17
3.950000E+03	4.971904E-15	8.434775E-17
3.960000E+03	5.044638E-15	8.467356E-17
3.970000E+03	5.104573E-15	8.478822E-17
3.980000E+03	5.152037E-15	8.469662E-17
3.990000E+03	5.187410E-15	8.441286E-17
4.000000E+03	5.211272E-15	8.396018E-17
4.010000E+03	5.224214E-15	8.335141E-17
4.020000E+03	5.226834E-15	8.260479E-17
4.030000E+03	5.219890E-15	8.174660E-17
4.040000E+03	5.203973E-15	8.079015E-17
4.050000E+03	5.179762E-15	7.975626E-17
4.060000E+03	5.147885E-15	7.867000E-17
4.070000E+03	5.108933E-15	7.754374E-17
4.080000E+03	5.063484E-15	7.639385E-17
4.090000E+03	5.012149E-15	7.523804E-17
4.100000E+03	4.955399E-15	7.407384E-17
4.110000E+03	4.893744E-15	7.290125E-17
4.120000E+03	4.827773E-15	7.172594E-17
4.130000E+03	4.757863E-15	7.053955E-17
4.140000E+03	4.684534E-15	6.934048E-17
4.150000E+03	4.608293E-15	6.812806E-17
4.160000E+03	4.529659E-15	6.688527E-17
4.170000E+03	4.449203E-15	6.560045E-17
4.180000E+03	4.367579E-15	6.427515E-17
4.190000E+03	4.285528E-15	6.291374E-17
4.200000E+03	4.203872E-15	6.153449E-17
4.210000E+03	4.123519E-15	6.016509E-17
4.220000E+03	4.045479E-15	5.882732E-17
4.230000E+03	3.970780E-15	5.754878E-17
4.240000E+03	3.900504E-15	5.636104E-17
4.250000E+03	3.835772E-15	5.528447E-17
4.260000E+03	3.777651E-15	5.434023E-17
4.270000E+03	3.727059E-15	5.354563E-17
4.280000E+03	3.684859E-15	5.289995E-17
4.290000E+03	3.651785E-15	5.240063E-17
4.300000E+03	3.628431E-15	5.204653E-17
4.310000E+03	3.615136E-15	5.182470E-17
4.320000E+03	3.612065E-15	5.172444E-17
4.330000E+03	3.619306E-15	5.173815E-17
4.340000E+03	3.636485E-15	5.184318E-17
4.350000E+03	3.663189E-15	5.202118E-17
4.360000E+03	3.698826E-15	5.226051E-17
4.370000E+03	3.742637E-15	5.254763E-17
4.380000E+03	3.793714E-15	5.287700E-17
4.390000E+03	3.851074E-15	5.325188E-17
4.400000E+03	3.913515E-15	5.367172E-17
4.410000E+03	3.979759E-15	5.414341E-17
4.420000E+03	4.048345E-15	5.467335E-17
4.430000E+03	4.117654E-15	5.524993E-17
4.440000E+03	4.186053E-15	5.586265E-17
4.450000E+03	4.251852E-15	5.650341E-17
4.460000E+03	4.313510E-15	5.715257E-17
4.470000E+03	4.369640E-15	5.779585E-17
4.480000E+03	4.418915E-15	5.842140E-17
4.490000E+03	4.460400E-15	5.900448E-17
4.500000E+03	4.493359E-15	5.952524E-17
4.510000E+03	4.517247E-15	5.997247E-17
4.520000E+03	4.531835E-15	6.032886E-17
4.530000E+03	4.537123E-15	6.058768E-17
4.540000E+03	4.533304E-15	6.075206E-17
4.550000E+03	4.520770E-15	6.081669E-17
4.560000E+03	4.500031E-15	6.078401E-17
4.570000E+03	4.471728E-15	6.066482E-17
4.580000E+03	4.436734E-15	6.046288E-17
4.590000E+03	4.395836E-15	6.018645E-17
4.600000E+03	4.349889E-15	5.984894E-17
4.610000E+03	4.299805E-15	5.945169E-17
4.620000E+03	4.246431E-15	5.899938E-17
4.630000E+03	4.190400E-15	5.849851E-17
4.640000E+03	4.132421E-15	5.794622E-17
4.650000E+03	4.072822E-15	5.733997E-17
4.660000E+03	4.012078E-15	5.668675E-17
4.670000E+03	3.950395E-15	5.598426E-17
4.680000E+03	3.887927E-15	5.523666E-17
4.690000E+03	3.824827E-15	5.445582E-17
4.700000E+03	3.761225E-15	5.364932E-17
4.710000E+03	3.697359E-15	5.283131E-17
4.720000E+03	3.633416E-15	5.201607E-17
4.730000E+03	3.569667E-15	5.120650E-17
4.740000E+03	3.506482E-15	5.040778E-17
4.750000E+03	3.444193E-15	4.962725E-17
4.760000E+03	3.383362E-15	4.886829E-17
4.770000E+03	3.324399E-15	4.813572E-17
4.780000E+03	3.267939E-15	4.744083E-17
4.790000E+03	3.214597E-15	4.678712E-17
4.800000E+03	3.164954E-15	4.617914E-17
4.810000E+03	3.119679E-15	4.562348E-17
4.820000E+03	3.079377E-15	4.511767E-17
4.830000E+03	3.044507E-15	4.465931E-17
4.840000E+03	3.015510E-15	4.424955E-17
4.850000E+03	2.992591E-15	4.388257E-17
4.860000E+03	2.975790E-15	4.355579E-17
4.870000E+03	2.965048E-15	4.327186E-17
4.880000E+03	2.960136E-15	4.303043E-17
4.890000E+03	2.960643E-15	4.283489E-17
4.900000E+03	2.966144E-15	4.269214E-17
4.910000E+03	2.976021E-15	4.260011E-17
4.920000E+03	2.989700E-15	4.255999E-17
4.930000E+03	3.006571E-15	4.257391E-17
4.940000E+03	3.025999E-15	4.263419E-17
4.950000E+03	3.047430E-15	4.273523E-17
4.960000E+03	3.070278E-15	4.287133E-17
4.970000E+03	3.094049E-15	4.302736E-17
4.980000E+03	3.118227E-15	4.318919E-17
4.990000E+03	3.142359E-15	4.334728E-17
5.000000E+03	3.165972E-15	4.348632E-17
5.010000E+03	3.188722E-15	4.359763E-17
5.020000E+03	3.210149E-15	4.367658E-17
5.030000E+03	3.229829E-15	4.371498E-17
5.040000E+03	3.247378E-15	4.371050E-17
5.050000E+03	3.262354E-15	4.366355E-17
5.060000E+03	3.274325E-15	4.356663E-17
5.070000E+03	3.282879E-15	4.341673E-17
5.080000E+03	3.287659E-15	4.321624E-17
5.090000E+03	3.288332E-15	4.296102E-17
5.100000E+03	3.284681E-15	4.265420E-17
5.110000E+03	3.276616E-15	4.230496E-17
5.120000E+03	3.264038E-15	4.191279E-17
5.130000E+03	3.247075E-15	4.148447E-17
5.140000E+03	3.225753E-15	4.102970E-17
5.150000E+03	3.200287E-15	4.055083E-17
5.160000E+03	3.170849E-15	4.005235E-17
5.170000E+03	3.137721E-15	3.954071E-17
5.180000E+03	3.101239E-15	3.900886E-17
5.190000E+03	3.061788E-15	3.845017E-17
5.200000E+03	3.019892E-15	3.785983E-17
5.210000E+03	2.976156E-15	3.722174E-17
5.220000E+03	2.931347E-15	3.652574E-17
5.230000E+03	2.886096E-15	3.576858E-17
5.240000E+03	2.841128E-15	3.494824E-17
5.250000E+03	2.797092E-15	3.407290E-17
5.260000E+03	2.754517E-15	3.316023E-17
5.270000E+03	2.713687E-15	3.222586E-17
5.280000E+03	2.674831E-15	3.129541E-17
5.290000E+03	2.637985E-15	3.039944E-17
5.300000E+03	2.603021E-15	2.956079E-17
5.310000E+03	2.569693E-15	2.880510E-17
5.320000E+03	2.537807E-15	2.815481E-17
5.330000E+03	2.507127E-15	2.760967E-17
5.340000E+03	2.477529E-15	2.716672E-17
5.350000E+03	2.448987E-15	2.682102E-17
5.360000E+03	2.421715E-15	2.655235E-17
5.370000E+03	2.395956E-15	2.634418E-17
5.380000E+03	2.372144E-15	2.619275E-17
5.390000E+03	2.350763E-15	2.609437E-17
5.400000E+03	2.332345E-15	2.605496E-17
5.410000E+03	2.317337E-15	2.608274E-17
5.420000E+03	2.306125E-15	2.617163E-17
5.430000E+03	2.299011E-15	2.631428E-17
5.440000E+03	2.296050E-15	2.650130E-17
5.450000E+03	2.297110E-15	2.671012E-17
5.460000E+03	2.301822E-15	2.691924E-17
5.470000E+03	2.309735E-15	2.711630E-17
5.480000E+03	2.320343E-15	2.729124E-17
5.490000E+03	2.332935E-15	2.744317E-17
5.500000E+03	2.346849E-15	2.758151E-17
5.510000E+03	2.361326E-15	2.771342E-17
5.520000E+03	2.375672E-15	2.785370E-17
5.530000E+03	2.389120E-15	2.801883E-17
5.540000E+03	2.401071E-15	2.821515E-17
5.550000E+03	2.410963E-15	2.844838E-17
5.560000E+03	2.418411E-15	2.872225E-17
5.570000E+03	2.423063E-15	2.902152E-17
5.580000E+03	2.424730E-15	2.932970E-17
5.590000E+03	2.423283E-15	2.963259E-17
5.600000E+03	2.418724E-15	2.990914E-17
5.610000E+03	2.411074E-15	3.014315E-17
5.620000E+03	2.400490E-15	3.032770E-17
5.630000E+03	2.387213E-15	3.045520E-17
5.640000E+03	2.371559E-15	3.052648E-17
5.650000E+03	2.353971E-15	3.055189E-17
5.660000E+03	2.334925E-15	3.054114E-17
5.670000E+03	2.315038E-15	3.051059E-17
5.680000E+03	2.294998E-15	3.047840E-17
5.690000E+03	2.275498E-15	3.045275E-17
5.700000E+03	2.257262E-15	3.044208E-17
5.710000E+03	2.241013E-15	3.045765E-17
5.720000E+03	2.227451E-15	3.050692E-17
5.730000E+03	2.217114E-15	3.059724E-17
5.740000E+03	2.210498E-15	3.073443E-17
5.750000E+03	2.207797E-15	3.091066E-17
5.760000E+03	2.209007E-15	3.111499E-17
5.770000E+03	2.214007E-15	3.133821E-17
5.780000E+03	2.222450E-15	3.156646E-17
5.790000E+03	2.233777E-15	3.178858E-17
5.800000E+03	2.247310E-15	3.199856E-17
5.810000E+03	2.262256E-15	3.219008E-17
5.820000E+03	2.277601E-15	3.235987E-17
5.830000E+03	2.292330E-15	3.250823E-17
5.840000E+03	2.305344E-15	3.262912E-17
5.850000E+03	2.315525E-15	3.271705E-17
5.860000E+03	2.321805E-15	3.276600E-17
5.870000E+03	2.323111E-15	3.275958E-17
5.880000E+03	2.318580E-15	3.268338E-17
5.890000E+03	2.307406E-15	3.252612E-17
5.900000E+03	2.288991E-15	3.227651E-17
5.910000E+03	2.262949E-15	3.192977E-17
5.920000E+03	2.229145E-15	3.148762E-17
5.930000E+03	2.187745E-15	3.095196E-17
5.940000E+03	2.139123E-15	3.032938E-17
5.950000E+03	2.084010E-15	2.963134E-17
5.960000E+03	2.023477E-15	2.886667E-17
5.970000E+03	1.958798E-15	2.804810E-17
5.980000E+03	1.891375E-15	2.719264E-17
5.990000E+03	1.822835E-15	2.631773E-17
6.000000E+03	1.754718E-15	2.544271E-17
6.010000E+03	1.688622E-15	2.459028E-17
6.020000E+03	1.625905E-15	2.377672E-17
6.030000E+03	1.567832E-15	2.301883E-17
6.040000E+03	1.515478E-15	2.233231E-17
6.050000E+03	1.469630E-15	2.172605E-17
6.060000E+03	1.430915E-15	2.120765E-17
6.070000E+03	1.399741E-15	2.078277E-17
6.080000E+03	1.376369E-15	2.045258E-17
6.090000E+03	1.360854E-15	2.021604E-17
6.100000E+03	1.353218E-15	2.007187E-17
6.110000E+03	1.353261E-15	2.001206E-17
6.120000E+03	1.360687E-15	2.002779E-17
6.130000E+03	1.375151E-15	2.011082E-17
6.140000E+03	1.396209E-15	2.025008E-17
6.150000E+03	1.423289E-15	2.043482E-17
6.160000E+03	1.455749E-15	2.065607E-17
6.170000E+03	1.492870E-15	2.090360E-17
6.180000E+03	1.533749E-15	2.116866E-17
6.190000E+03	1.577439E-15	2.144661E-17
6.200000E+03	1.622921E-15	2.173260E-17
6.210000E+03	1.669119E-15	2.202539E-17
6.220000E+03	1.714917E-15	2.232356E-17
6.230000E+03	1.759316E-15	2.261784E-17
6.240000E+03	1.801447E-15	2.289882E-17
6.250000E+03	1.840547E-15	2.315878E-17
6.260000E+03	1.876139E-15	2.338784E-17
6.270000E+03	1.907942E-15	2.358155E-17
6.280000E+03	1.935901E-15	2.374353E-17
6.290000E+03	1.960147E-15	2.387875E-17
6.300000E+03	1.980977E-15	2.400010E-17
6.310000E+03	1.998794E-15	2.412423E-17
6.320000E+03	2.014002E-15	2.425886E-17
6.330000E+03	2.026953E-15	2.441156E-17
6.340000E+03	2.037991E-15	2.459015E-17
6.350000E+03	2.047299E-15	2.479037E-17
6.360000E+03	2.054917E-15	2.500680E-17
6.370000E+03	2.060926E-15	2.523648E-17
6.380000E+03	2.065292E-15	2.546762E-17
6.390000E+03	2.067967E-15	2.569080E-17
6.400000E+03	2.068936E-15	2.590138E-17
6.410000E+03	2.068282E-15	2.609244E-17
6.420000E+03	2.066050E-15	2.626057E-17
6.430000E+03	2.062413E-15	2.640772E-17
6.440000E+03	2.057508E-15	2.653076E-17
6.450000E+03	2.051496E-15	2.662971E-17
6.460000E+03	2.044574E-15	2.670736E-17
6.470000E+03	2.036875E-15	2.676017E-17
6.480000E+03	2.028552E-15	2.678790E-17
6.490000E+03	2.019671E-15	2.679397E-17
6.500000E+03	2.010398E-15	2.678194E-17
6.510000E+03	2.000840E-15	2.675947E-17
6.520000E+03	1.991065E-15	2.673807E-17
6.530000E+03	1.981185E-15	2.672667E-17
6.540000E+03	1.971260E-15	2.673509E-17
6.550000E+03	1.961328E-15	2.677213E-17
6.560000E+03	1.951380E-15	2.683784E-17
6.570000E+03	1.941422E-15	2.693122E-17
6.580000E+03	1.931373E-15	2.704874E-17
6.590000E+03	1.921126E-15	2.717847E-17
6.600000E+03	1.910595E-15	2.730861E-17
6.610000E+03	1.899666E-15	2.742961E-17
6.620000E+03	1.888184E-15	2.752951E-17
6.630000E+03	1.876074E-15	2.760106E-17
6.640000E+03	1.863221E-15	2.764036E-17
6.650000E+03	1.849618E-15	2.764443E-17
6.660000E+03	1.835163E-15	2.761288E-17
6.670000E+03	1.819853E-15	2.755133E-17
6.680000E+03	1.803752E-15	2.746658E-17
6.690000E+03	1.786927E-15	2.736882E-17
6.700000E+03	1.769456E-15	2.726993E-17
6.710000E+03	1.751469E-15	2.717901E-17
6.720000E+03	1.733157E-15	2.710608E-17
6.730000E+03	1.714665E-15	2.705962E-17
6.740000E+03	1.696189E-15	2.704354E-17
6.750000E+03	1.677839E-15	2.705929E-17
6.760000E+03	1.659836E-15	2.710998E-17
6.770000E+03	1.642245E-15	2.719280E-17
6.780000E+03	1.625238E-15	2.730652E-17
6.790000E+03	1.608851E-15	2.744746E-17
6.800000E+03	1.593176E-15	2.760925E-17
6.810000E+03	1.578266E-15	2.778404E-17
6.820000E+03	1.564153E-15	2.796241E-17
6.830000E+03	1.550928E-15	2.813179E-17
6.840000E+03	1.538635E-15	2.827844E-17
6.850000E+03	1.527376E-15	2.839137E-17
6.860000E+03	1.517161E-15	2.845853E-17
6.870000E+03	1.508106E-15	2.847363E-17
6.880000E+03	1.500240E-15	2.843468E-17
6.890000E+03	1.493605E-15	2.834582E-17
6.900000E+03	1.488201E-15	2.821577E-17
6.910000E+03	1.484085E-15	2.805742E-17
6.920000E+03	1.481126E-15	2.788037E-17
6.930000E+03	1.479337E-15	2.769791E-17
6.940000E+03	1.478571E-15	2.752034E-17
6.950000E+03	1.478713E-15	2.735622E-17
6.960000E+03	1.479669E-15	2.721384E-17
6.970000E+03	1.481286E-15	2.709920E-17
6.980000E+03	1.483425E-15	2.701509E-17
6.990000E+03	1.485949E-15	2.696336E-17
7.000000E+03	1.488722E-15	2.694506E-17
7.010000E+03	1.491594E-15	2.695769E-17
7.020000E+03	1.494388E-15	2.699761E-17
7.030000E+03	1.497017E-15	2.706233E-17
7.040000E+03	1.499245E-15	2.714381E-17
7.050000E+03	1.501013E-15	2.723768E-17
7.060000E+03	1.502100E-15	2.733770E-17
7.070000E+03	1.502429E-15	2.743968E-17
7.080000E+03	1.501850E-15	2.753994E-17
7.090000E+03	1.500263E-15	2.763756E-17
7.100000E+03	1.497611E-15	2.773173E-17
7.110000E+03	1.493775E-15	2.782136E-17
7.120000E+03	1.488763E-15	2.790786E-17
7.130000E+03	1.482555E-15	2.798936E-17
7.140000E+03	1.475229E-15	2.806471E-17
7.150000E+03	1.466862E-15	2.813154E-17
7.160000E+03	1.457522E-15	2.818404E-17
7.170000E+03	1.447356E-15	2.821701E-17
7.180000E+03	1.436425E-15	2.822403E-17
7.190000E+03	1.424907E-15	2.820060E-17
7.200000E+03	1.412879E-15	2.814197E-17
7.210000E+03	1.400411E-15	2.804523E-17
7.220000E+03	1.387608E-15	2.790929E-17
7.230000E+03	1.374526E-15	2.773460E-17
7.240000E+03	1.361179E-15	2.752295E-17
7.250000E+03	1.347589E-15	2.727703E-17
7.260000E+03	1.333763E-15	2.700111E-17
7.270000E+03	1.319702E-15	2.670077E-17
7.280000E+03	1.305395E-15	2.638132E-17
7.290000E+03	1.290777E-15	2.604768E-17
7.300000E+03	1.275891E-15	2.570687E-17
7.310000E+03	1.260693E-15	2.536214E-17
7.320000E+03	1.245152E-15	2.501648E-17
7.330000E+03	1.229304E-15	2.467363E-17
7.340000E+03	1.213122E-15	2.433379E-17
7.350000E+03	1.196656E-15	2.399849E-17
7.360000E+03	1.179980E-15	2.366985E-17
7.370000E+03	1.163167E-15	2.334861E-17
7.380000E+03	1.146361E-15	2.303763E-17
7.390000E+03	1.129637E-15	2.273925E-17
7.400000E+03	1.113200E-15	2.245822E-17
7.410000E+03	1.097179E-15	2.219861E-17
7.420000E+03	1.081782E-15	2.196677E-17
7.430000E+03	1.067163E-15	2.176736E-17
7.440000E+03	1.053499E-15	2.160593E-17
7.450000E+03	1.040975E-15	2.148871E-17
7.460000E+03	1.029708E-15	2.141962E-17
7.470000E+03	1.019882E-15	2.140425E-17
7.480000E+03	1.011551E-15	2.144571E-17
7.490000E+03	1.004823E-15	2.154723E-17
7.500000E+03	9.997167E-16	2.170939E-17
7.510000E+03	9.963115E-16	2.193264E-17
7.520000E+03	9.945655E-16	2.221194E-17
7.530000E+03	9.944398E-16	2.254018E-17
7.540000E+03	9.959102E-16	2.290876E-17
7.550000E+03	9.989223E-16	2.330626E-17
7.560000E+03	1.003464E-15	2.372156E-17
7.570000E+03	1.009436E-15	2.414217E-17
7.580000E+03	1.016799E-15	2.455820E-17
7.590000E+03	1.025511E-15	2.496177E-17
7.600000E+03	1.035480E-15	2.534659E-17
7.610000E+03	1.046647E-15	2.571014E-17
7.620000E+03	1.058901E-15	2.605132E-17
7.630000E+03	1.072184E-15	2.637280E-17
7.640000E+03	1.086323E-15	2.667622E-17
7.650000E+03	1.101222E-15	2.696631E-17
7.660000E+03	1.116649E-15	2.724512E-17
7.670000E+03	1.132424E-15	2.751588E-17
7.680000E+03	1.148234E-15	2.777898E-17
7.690000E+03	1.163846E-15	2.803690E-17
7.700000E+03	1.178941E-15	2.828875E-17
7.710000E+03	1.193223E-15	2.853396E-17
7.720000E+03	1.206411E-15	2.877186E-17
7.730000E+03	1.218244E-15	2.900079E-17
7.740000E+03	1.228492E-15	2.921887E-17
7.750000E+03	1.236928E-15	2.942277E-17
7.760000E+03	1.243447E-15	2.960900E-17
