#wls	flux	fluxerr
1.600000E+03	3.368212E-15	7.828420E-16
1.640000E+03	3.189825E-15	6.740526E-16
1.680000E+03	3.010504E-15	5.730834E-16
1.720000E+03	2.830960E-15	4.802373E-16
1.760000E+03	2.652185E-15	3.957800E-16
1.800000E+03	2.475334E-15	3.198963E-16
1.840000E+03	2.300679E-15	2.525671E-16
1.880000E+03	2.129528E-15	1.938415E-16
1.920000E+03	1.962551E-15	1.436478E-16
1.960000E+03	1.800514E-15	1.019600E-16
2.000000E+03	1.644287E-15	6.894868E-17
2.040000E+03	1.495397E-15	4.533315E-17
2.080000E+03	1.356284E-15	3.246189E-17
2.120000E+03	1.232220E-15	2.911581E-17
2.160000E+03	1.133295E-15	2.929745E-17
2.200000E+03	1.068595E-15	2.979431E-17
2.240000E+03	1.045628E-15	3.103407E-17
2.280000E+03	1.071748E-15	3.458974E-17
2.320000E+03	1.153739E-15	4.113886E-17
2.360000E+03	1.300090E-15	5.037637E-17
2.400000E+03	1.523720E-15	6.169494E-17
2.440000E+03	1.841813E-15	7.396150E-17
2.480000E+03	2.273922E-15	8.502570E-17
2.520000E+03	2.836367E-15	9.150825E-17
2.560000E+03	3.533467E-15	9.054362E-17
2.600000E+03	4.344865E-15	8.889567E-17
2.640000E+03	5.219823E-15	1.180232E-16
2.680000E+03	6.105254E-15	1.937826E-16
2.720000E+03	6.965026E-15	3.005030E-16
2.760000E+03	7.772887E-15	4.243535E-16
2.800000E+03	8.511043E-15	5.548526E-16
2.840000E+03	9.169788E-15	6.830390E-16
2.880000E+03	9.747347E-15	8.013541E-16
2.920000E+03	1.024787E-14	9.037878E-16
2.960000E+03	1.068192E-14	9.861553E-16
3.000000E+03	1.106288E-14	1.045846E-15
3.010000E+03	1.115198E-14	1.057091E-15
3.020000E+03	1.123886E-14	1.066819E-15
3.030000E+03	1.132375E-14	1.075024E-15
3.040000E+03	1.140739E-14	1.081750E-15
3.050000E+03	1.148976E-14	1.086975E-15
3.060000E+03	1.157109E-14	1.090700E-15
3.070000E+03	1.165183E-14	1.092954E-15
3.080000E+03	1.173196E-14	1.093720E-15
3.090000E+03	1.181168E-14	1.093004E-15
3.100000E+03	1.189168E-14	1.090861E-15
3.110000E+03	1.197163E-14	1.087254E-15
3.120000E+03	1.205197E-14	1.082216E-15
3.130000E+03	1.213259E-14	1.075734E-15
3.140000E+03	1.221437E-14	1.067882E-15
3.150000E+03	1.229668E-14	1.058607E-15
3.160000E+03	1.237988E-14	1.047938E-15
3.170000E+03	1.246426E-14	1.035905E-15
3.180000E+03	1.254989E-14	1.022516E-15
3.190000E+03	1.263631E-14	1.007740E-15
3.200000E+03	1.272421E-14	9.916443E-16
3.210000E+03	1.281309E-14	9.741981E-16
3.220000E+03	1.290311E-14	9.554285E-16
3.230000E+03	1.299391E-14	9.353278E-16
3.240000E+03	1.308558E-14	9.139235E-16
3.250000E+03	1.317790E-14	8.912271E-16
3.260000E+03	1.327063E-14	8.672524E-16
3.270000E+03	1.336324E-14	8.420021E-16
3.280000E+03	1.345558E-14	8.155127E-16
3.290000E+03	1.354724E-14	7.878106E-16
3.300000E+03	1.363749E-14	7.589169E-16
3.310000E+03	1.372598E-14	7.288873E-16
3.320000E+03	1.381186E-14	6.977641E-16
3.330000E+03	1.389460E-14	6.656276E-16
3.340000E+03	1.397318E-14	6.325541E-16
3.350000E+03	1.404665E-14	5.986550E-16
3.360000E+03	1.411402E-14	5.640718E-16
3.370000E+03	1.417412E-14	5.289849E-16
3.380000E+03	1.422572E-14	4.936250E-16
3.390000E+03	1.426721E-14	4.582815E-16
3.400000E+03	1.429733E-14	4.233439E-16
3.410000E+03	1.431403E-14	3.892923E-16
3.420000E+03	1.431602E-14	3.567697E-16
3.430000E+03	1.430109E-14	3.265621E-16
3.440000E+03	1.426742E-14	2.996425E-16
3.450000E+03	1.421322E-14	2.771206E-16
3.460000E+03	1.413665E-14	2.601069E-16
3.470000E+03	1.403666E-14	2.494584E-16
3.480000E+03	1.391287E-14	2.453786E-16
3.490000E+03	1.376688E-14	2.471736E-16
3.500000E+03	1.360158E-14	2.535224E-16
3.510000E+03	1.341999E-14	2.629179E-16
3.520000E+03	1.322551E-14	2.739912E-16
3.530000E+03	1.302084E-14	2.856373E-16
3.540000E+03	1.280920E-14	2.970646E-16
3.550000E+03	1.259339E-14	3.077372E-16
3.560000E+03	1.237620E-14	3.173303E-16
3.570000E+03	1.216001E-14	3.256673E-16
3.580000E+03	1.194723E-14	3.326885E-16
3.590000E+03	1.174044E-14	3.384234E-16
3.600000E+03	1.154161E-14	3.429425E-16
3.610000E+03	1.135316E-14	3.463706E-16
3.620000E+03	1.117719E-14	3.488507E-16
3.630000E+03	1.101563E-14	3.505373E-16
3.640000E+03	1.087052E-14	3.515977E-16
3.650000E+03	1.074399E-14	3.522061E-16
3.660000E+03	1.063789E-14	3.525283E-16
3.670000E+03	1.055442E-14	3.527378E-16
3.680000E+03	1.049529E-14	3.529871E-16
3.690000E+03	1.046253E-14	3.534330E-16
3.700000E+03	1.045806E-14	3.542200E-16
3.710000E+03	1.048383E-14	3.554873E-16
3.720000E+03	1.054157E-14	3.573577E-16
3.730000E+03	1.063314E-14	3.599511E-16
3.740000E+03	1.076023E-14	3.633738E-16
3.750000E+03	1.092451E-14	3.677251E-16
3.760000E+03	1.112740E-14	3.730889E-16
3.770000E+03	1.137020E-14	3.795399E-16
3.780000E+03	1.165386E-14	3.871352E-16
3.790000E+03	1.197895E-14	3.959150E-16
3.800000E+03	1.234599E-14	4.059129E-16
3.810000E+03	1.275441E-14	4.171216E-16
3.820000E+03	1.320350E-14	4.295255E-16
3.830000E+03	1.369193E-14	4.430825E-16
3.840000E+03	1.421722E-14	4.577088E-16
3.850000E+03	1.477637E-14	4.732978E-16
3.860000E+03	1.536574E-14	4.897153E-16
3.870000E+03	1.598079E-14	5.067913E-16
3.880000E+03	1.661623E-14	5.243254E-16
3.890000E+03	1.726603E-14	5.420849E-16
3.900000E+03	1.792396E-14	5.598246E-16
3.910000E+03	1.858330E-14	5.772778E-16
3.920000E+03	1.923720E-14	5.941684E-16
3.930000E+03	1.987887E-14	6.102190E-16
3.940000E+03	2.050173E-14	6.251587E-16
3.950000E+03	2.109981E-14	6.387370E-16
3.960000E+03	2.166752E-14	6.507200E-16
3.970000E+03	2.219974E-14	6.608956E-16
3.980000E+03	2.269265E-14	6.691025E-16
3.990000E+03	2.314265E-14	6.751982E-16
4.000000E+03	2.354724E-14	6.790907E-16
4.010000E+03	2.390447E-14	6.807221E-16
4.020000E+03	2.421281E-14	6.800680E-16
4.030000E+03	2.447193E-14	6.771624E-16
4.040000E+03	2.468134E-14	6.720601E-16
4.050000E+03	2.484135E-14	6.648661E-16
4.060000E+03	2.495237E-14	6.557167E-16
4.070000E+03	2.501506E-14	6.447842E-16
4.080000E+03	2.503026E-14	6.322744E-16
4.090000E+03	2.499921E-14	6.184290E-16
4.100000E+03	2.492289E-14	6.035022E-16
4.110000E+03	2.480274E-14	5.877643E-16
4.120000E+03	2.464103E-14	5.714766E-16
4.130000E+03	2.443964E-14	5.548371E-16
4.140000E+03	2.420157E-14	5.380270E-16
4.150000E+03	2.393005E-14	5.211983E-16
4.160000E+03	2.362885E-14	5.044739E-16
4.170000E+03	2.330210E-14	4.879579E-16
4.180000E+03	2.295441E-14	4.717334E-16
4.190000E+03	2.259084E-14	4.558528E-16
4.200000E+03	2.221674E-14	4.403504E-16
4.210000E+03	2.183769E-14	4.252399E-16
4.220000E+03	2.145954E-14	4.105045E-16
4.230000E+03	2.108794E-14	3.961115E-16
4.240000E+03	2.072860E-14	3.820260E-16
4.250000E+03	2.038738E-14	3.682040E-16
4.260000E+03	2.006958E-14	3.546042E-16
4.270000E+03	1.977970E-14	3.411937E-16
4.280000E+03	1.952226E-14	3.279622E-16
4.290000E+03	1.930096E-14	3.149328E-16
4.300000E+03	1.911865E-14	3.021850E-16
4.310000E+03	1.897727E-14	2.898640E-16
4.320000E+03	1.887767E-14	2.782017E-16
4.330000E+03	1.882030E-14	2.675416E-16
4.340000E+03	1.880391E-14	2.583166E-16
4.350000E+03	1.882708E-14	2.510515E-16
4.360000E+03	1.888718E-14	2.462781E-16
4.370000E+03	1.898119E-14	2.443640E-16
4.380000E+03	1.910557E-14	2.453503E-16
4.390000E+03	1.925654E-14	2.490183E-16
4.400000E+03	1.942978E-14	2.549236E-16
4.410000E+03	1.962094E-14	2.624863E-16
4.420000E+03	1.982494E-14	2.711004E-16
4.430000E+03	2.003627E-14	2.801998E-16
4.440000E+03	2.024952E-14	2.893012E-16
4.450000E+03	2.045879E-14	2.979948E-16
4.460000E+03	2.065840E-14	3.059338E-16
4.470000E+03	2.084306E-14	3.128523E-16
4.480000E+03	2.100732E-14	3.185554E-16
4.490000E+03	2.114690E-14	3.229190E-16
4.500000E+03	2.125802E-14	3.258895E-16
4.510000E+03	2.133745E-14	3.274732E-16
4.520000E+03	2.138304E-14	3.277143E-16
4.530000E+03	2.139344E-14	3.267081E-16
4.540000E+03	2.136800E-14	3.245932E-16
4.550000E+03	2.130675E-14	3.215224E-16
4.560000E+03	2.121015E-14	3.176722E-16
4.570000E+03	2.107922E-14	3.132345E-16
4.580000E+03	2.091611E-14	3.083935E-16
4.590000E+03	2.072259E-14	3.033154E-16
4.600000E+03	2.050104E-14	2.981424E-16
4.610000E+03	2.025455E-14	2.929579E-16
4.620000E+03	1.998613E-14	2.878147E-16
4.630000E+03	1.969822E-14	2.827394E-16
4.640000E+03	1.939428E-14	2.777354E-16
4.650000E+03	1.907624E-14	2.727775E-16
4.660000E+03	1.874694E-14	2.678503E-16
4.670000E+03	1.840842E-14	2.629012E-16
4.680000E+03	1.806252E-14	2.578785E-16
4.690000E+03	1.771104E-14	2.527383E-16
4.700000E+03	1.735575E-14	2.474289E-16
4.710000E+03	1.699884E-14	2.419295E-16
4.720000E+03	1.664206E-14	2.362525E-16
4.730000E+03	1.628755E-14	2.304445E-16
4.740000E+03	1.593773E-14	2.245989E-16
4.750000E+03	1.559467E-14	2.188433E-16
4.760000E+03	1.526134E-14	2.133364E-16
4.770000E+03	1.493985E-14	2.082461E-16
4.780000E+03	1.463308E-14	2.037615E-16
4.790000E+03	1.434357E-14	2.000469E-16
4.800000E+03	1.407356E-14	1.972110E-16
4.810000E+03	1.382557E-14	1.952510E-16
4.820000E+03	1.360202E-14	1.940620E-16
4.830000E+03	1.340467E-14	1.935092E-16
4.840000E+03	1.323535E-14	1.934594E-16
4.850000E+03	1.309531E-14	1.937701E-16
4.860000E+03	1.298517E-14	1.943137E-16
4.870000E+03	1.290511E-14	1.949887E-16
4.880000E+03	1.285471E-14	1.957102E-16
4.890000E+03	1.283271E-14	1.964109E-16
4.900000E+03	1.283757E-14	1.970495E-16
4.910000E+03	1.286688E-14	1.975899E-16
4.920000E+03	1.291819E-14	1.980168E-16
4.930000E+03	1.298872E-14	1.983260E-16
4.940000E+03	1.307536E-14	1.985178E-16
4.950000E+03	1.317518E-14	1.986061E-16
4.960000E+03	1.328501E-14	1.986040E-16
4.970000E+03	1.340209E-14	1.985203E-16
4.980000E+03	1.352351E-14	1.983641E-16
4.990000E+03	1.364659E-14	1.981534E-16
5.000000E+03	1.376868E-14	1.979021E-16
5.010000E+03	1.388767E-14	1.976372E-16
5.020000E+03	1.400090E-14	1.973796E-16
5.030000E+03	1.410603E-14	1.971389E-16
5.040000E+03	1.420086E-14	1.969232E-16
5.050000E+03	1.428290E-14	1.967339E-16
5.060000E+03	1.434976E-14	1.965607E-16
5.070000E+03	1.439912E-14	1.963958E-16
5.080000E+03	1.442881E-14	1.962381E-16
5.090000E+03	1.443675E-14	1.960810E-16
5.100000E+03	1.442136E-14	1.959249E-16
5.110000E+03	1.438174E-14	1.957589E-16
5.120000E+03	1.431715E-14	1.955256E-16
5.130000E+03	1.422804E-14	1.951647E-16
5.140000E+03	1.411466E-14	1.946104E-16
5.150000E+03	1.397848E-14	1.938032E-16
5.160000E+03	1.382098E-14	1.926966E-16
5.170000E+03	1.364422E-14	1.912760E-16
5.180000E+03	1.345060E-14	1.895480E-16
5.190000E+03	1.324270E-14	1.875415E-16
5.200000E+03	1.302357E-14	1.853026E-16
5.210000E+03	1.279639E-14	1.828731E-16
5.220000E+03	1.256486E-14	1.803065E-16
5.230000E+03	1.233212E-14	1.776469E-16
5.240000E+03	1.210185E-14	1.749308E-16
5.250000E+03	1.187741E-14	1.721897E-16
5.260000E+03	1.166171E-14	1.694513E-16
5.270000E+03	1.145694E-14	1.667236E-16
5.280000E+03	1.126503E-14	1.640133E-16
5.290000E+03	1.108712E-14	1.613205E-16
5.300000E+03	1.092383E-14	1.586378E-16
5.310000E+03	1.077520E-14	1.559518E-16
5.320000E+03	1.064115E-14	1.532512E-16
5.330000E+03	1.052100E-14	1.505176E-16
5.340000E+03	1.041419E-14	1.477430E-16
5.350000E+03	1.031999E-14	1.449256E-16
5.360000E+03	1.023795E-14	1.420716E-16
5.370000E+03	1.016728E-14	1.391961E-16
5.380000E+03	1.010780E-14	1.363306E-16
5.390000E+03	1.005929E-14	1.335024E-16
5.400000E+03	1.002167E-14	1.307456E-16
5.410000E+03	9.994718E-15	1.281016E-16
5.420000E+03	9.978427E-15	1.256185E-16
5.430000E+03	9.972762E-15	1.233514E-16
5.440000E+03	9.977314E-15	1.213499E-16
5.450000E+03	9.992143E-15	1.196543E-16
5.460000E+03	1.001692E-14	1.183161E-16
5.470000E+03	1.005123E-14	1.174229E-16
5.480000E+03	1.009475E-14	1.170919E-16
5.490000E+03	1.014637E-14	1.174385E-16
5.500000E+03	1.020498E-14	1.185289E-16
5.510000E+03	1.026888E-14	1.203225E-16
5.520000E+03	1.033634E-14	1.227100E-16
5.530000E+03	1.040490E-14	1.255337E-16
5.540000E+03	1.047229E-14	1.286116E-16
5.550000E+03	1.053596E-14	1.317607E-16
5.560000E+03	1.059375E-14	1.348209E-16
5.570000E+03	1.064317E-14	1.376485E-16
5.580000E+03	1.068213E-14	1.401389E-16
5.590000E+03	1.070878E-14	1.422212E-16
5.600000E+03	1.072189E-14	1.438503E-16
5.610000E+03	1.072038E-14	1.450070E-16
5.620000E+03	1.070386E-14	1.457027E-16
5.630000E+03	1.067246E-14	1.459625E-16
5.640000E+03	1.062679E-14	1.458283E-16
5.650000E+03	1.056808E-14	1.453592E-16
5.660000E+03	1.049788E-14	1.446177E-16
5.670000E+03	1.041845E-14	1.436823E-16
5.680000E+03	1.033249E-14	1.426450E-16
5.690000E+03	1.024292E-14	1.416005E-16
5.700000E+03	1.015287E-14	1.406448E-16
5.710000E+03	1.006568E-14	1.398556E-16
5.720000E+03	9.984956E-15	1.392729E-16
5.730000E+03	9.913730E-15	1.389027E-16
5.740000E+03	9.855066E-15	1.387321E-16
5.750000E+03	9.811248E-15	1.387128E-16
5.760000E+03	9.783815E-15	1.387827E-16
5.770000E+03	9.773762E-15	1.388851E-16
5.780000E+03	9.781230E-15	1.389666E-16
5.790000E+03	9.805329E-15	1.389849E-16
5.800000E+03	9.844450E-15	1.389153E-16
5.810000E+03	9.896326E-15	1.387464E-16
5.820000E+03	9.957485E-15	1.384756E-16
5.830000E+03	1.002408E-14	1.381149E-16
5.840000E+03	1.009153E-14	1.376754E-16
5.850000E+03	1.015474E-14	1.371719E-16
5.860000E+03	1.020847E-14	1.366164E-16
5.870000E+03	1.024697E-14	1.359980E-16
5.880000E+03	1.026508E-14	1.353080E-16
5.890000E+03	1.025766E-14	1.345301E-16
5.900000E+03	1.022034E-14	1.336336E-16
5.910000E+03	1.014961E-14	1.325846E-16
5.920000E+03	1.004307E-14	1.313380E-16
5.930000E+03	9.899757E-15	1.298229E-16
5.940000E+03	9.719760E-15	1.279677E-16
5.950000E+03	9.504861E-15	1.257324E-16
5.960000E+03	9.258390E-15	1.231091E-16
5.970000E+03	8.984830E-15	1.201291E-16
5.980000E+03	8.689572E-15	1.168534E-16
5.990000E+03	8.379338E-15	1.133623E-16
6.000000E+03	8.060833E-15	1.097452E-16
6.010000E+03	7.741512E-15	1.061034E-16
6.020000E+03	7.428216E-15	1.025158E-16
6.030000E+03	7.127596E-15	9.905829E-17
6.040000E+03	6.845600E-15	9.580379E-17
6.050000E+03	6.587131E-15	9.281204E-17
6.060000E+03	6.356241E-15	9.013688E-17
6.070000E+03	6.155906E-15	8.782127E-17
6.080000E+03	5.988568E-15	8.589771E-17
6.090000E+03	5.855574E-15	8.438151E-17
6.100000E+03	5.757936E-15	8.327436E-17
6.110000E+03	5.695786E-15	8.254686E-17
6.120000E+03	5.668791E-15	8.215535E-17
6.130000E+03	5.676318E-15	8.205295E-17
6.140000E+03	5.717415E-15	8.218954E-17
6.150000E+03	5.790650E-15	8.251469E-17
6.160000E+03	5.894310E-15	8.298552E-17
6.170000E+03	6.026408E-15	8.356956E-17
6.180000E+03	6.184189E-15	8.424332E-17
6.190000E+03	6.364594E-15	8.500288E-17
6.200000E+03	6.563991E-15	8.586272E-17
6.210000E+03	6.778215E-15	8.686052E-17
6.220000E+03	7.002473E-15	8.805104E-17
6.230000E+03	7.231721E-15	8.949754E-17
6.240000E+03	7.460871E-15	9.126313E-17
6.250000E+03	7.684831E-15	9.337203E-17
6.260000E+03	7.899234E-15	9.577086E-17
6.270000E+03	8.100238E-15	9.835334E-17
6.280000E+03	8.284776E-15	1.009953E-16
6.290000E+03	8.450434E-15	1.035646E-16
6.300000E+03	8.595521E-15	1.059455E-16
6.310000E+03	8.719124E-15	1.080538E-16
6.320000E+03	8.820922E-15	1.098341E-16
6.330000E+03	8.900825E-15	1.112612E-16
6.340000E+03	8.959346E-15	1.123356E-16
6.350000E+03	8.997296E-15	1.130625E-16
6.360000E+03	9.015434E-15	1.134514E-16
6.370000E+03	9.015024E-15	1.135195E-16
6.380000E+03	8.997199E-15	1.132699E-16
6.390000E+03	8.963204E-15	1.127039E-16
6.400000E+03	8.914409E-15	1.118264E-16
6.410000E+03	8.852595E-15	1.106449E-16
6.420000E+03	8.779318E-15	1.091696E-16
6.430000E+03	8.696705E-15	1.074189E-16
6.440000E+03	8.606812E-15	1.054045E-16
6.450000E+03	8.511821E-15	1.031501E-16
6.460000E+03	8.414105E-15	1.007014E-16
6.470000E+03	8.315934E-15	9.811861E-17
6.480000E+03	8.219628E-15	9.549077E-17
6.490000E+03	8.126973E-15	9.293057E-17
6.500000E+03	8.040037E-15	9.057335E-17
6.510000E+03	7.960328E-15	8.856300E-17
6.520000E+03	7.888859E-15	8.703604E-17
6.530000E+03	7.826436E-15	8.609390E-17
6.540000E+03	7.773081E-15	8.576438E-17
6.550000E+03	7.728130E-15	8.599438E-17
6.560000E+03	7.690512E-15	8.668370E-17
6.570000E+03	7.658996E-15	8.772179E-17
6.580000E+03	7.631936E-15	8.899950E-17
6.590000E+03	7.607756E-15	9.041597E-17
6.600000E+03	7.585008E-15	9.188919E-17
6.610000E+03	7.562222E-15	9.334727E-17
6.620000E+03	7.538005E-15	9.471450E-17
6.630000E+03	7.511400E-15	9.592775E-17
6.640000E+03	7.481372E-15	9.693637E-17
6.650000E+03	7.447466E-15	9.770508E-17
6.660000E+03	7.408909E-15	9.820920E-17
6.670000E+03	7.365350E-15	9.844597E-17
6.680000E+03	7.316735E-15	9.842765E-17
6.690000E+03	7.263053E-15	9.818027E-17
6.700000E+03	7.204341E-15	9.774136E-17
6.710000E+03	7.140927E-15	9.715668E-17
6.720000E+03	7.073407E-15	9.648102E-17
6.730000E+03	7.002251E-15	9.576886E-17
6.740000E+03	6.928274E-15	9.507344E-17
6.750000E+03	6.851980E-15	9.444000E-17
6.760000E+03	6.774376E-15	9.391444E-17
6.770000E+03	6.695966E-15	9.352243E-17
6.780000E+03	6.617706E-15	9.328494E-17
6.790000E+03	6.540024E-15	9.320063E-17
6.800000E+03	6.463669E-15	9.325062E-17
6.810000E+03	6.389243E-15	9.339998E-17
6.820000E+03	6.317240E-15	9.360200E-17
6.830000E+03	6.248428E-15	9.380251E-17
6.840000E+03	6.183341E-15	9.394303E-17
6.850000E+03	6.122707E-15	9.397447E-17
6.860000E+03	6.066853E-15	9.385013E-17
6.870000E+03	6.016473E-15	9.354620E-17
6.880000E+03	5.971795E-15	9.305548E-17
6.890000E+03	5.933020E-15	9.239465E-17
6.900000E+03	5.900091E-15	9.159993E-17
6.910000E+03	5.873126E-15	9.072814E-17
6.920000E+03	5.851516E-15	8.983470E-17
6.930000E+03	5.835189E-15	8.898871E-17
6.940000E+03	5.823407E-15	8.824203E-17
6.950000E+03	5.815552E-15	8.762846E-17
6.960000E+03	5.811068E-15	8.716824E-17
6.970000E+03	5.809169E-15	8.686434E-17
6.980000E+03	5.809198E-15	8.670235E-17
6.990000E+03	5.810529E-15	8.665795E-17
7.000000E+03	5.812570E-15	8.670275E-17
7.010000E+03	5.814769E-15	8.680283E-17
7.020000E+03	5.816504E-15	8.692215E-17
7.030000E+03	5.817519E-15	8.703157E-17
7.040000E+03	5.817006E-15	8.709407E-17
7.050000E+03	5.814878E-15	8.708893E-17
7.060000E+03	5.810387E-15	8.699548E-17
7.070000E+03	5.803395E-15	8.681275E-17
7.080000E+03	5.793460E-15	8.654677E-17
7.090000E+03	5.780314E-15	8.621590E-17
7.100000E+03	5.763866E-15	8.584736E-17
7.110000E+03	5.743766E-15	8.546863E-17
7.120000E+03	5.720132E-15	8.511115E-17
7.130000E+03	5.692992E-15	8.479394E-17
7.140000E+03	5.662732E-15	8.453260E-17
7.150000E+03	5.629731E-15	8.433080E-17
7.160000E+03	5.594359E-15	8.417431E-17
7.170000E+03	5.557258E-15	8.404503E-17
7.180000E+03	5.518707E-15	8.391805E-17
7.190000E+03	5.479363E-15	8.377303E-17
7.200000E+03	5.439459E-15	8.358895E-17
7.210000E+03	5.399118E-15	8.335158E-17
7.220000E+03	5.358556E-15	8.305399E-17
7.230000E+03	5.317753E-15	8.269358E-17
7.240000E+03	5.276467E-15	8.226929E-17
7.250000E+03	5.234453E-15	8.177918E-17
7.260000E+03	5.191379E-15	8.122166E-17
7.270000E+03	5.146846E-15	8.059533E-17
7.280000E+03	5.100406E-15	7.989529E-17
7.290000E+03	5.051382E-15	7.911397E-17
7.300000E+03	4.999535E-15	7.825342E-17
7.310000E+03	4.944346E-15	7.731233E-17
7.320000E+03	4.885373E-15	7.629343E-17
7.330000E+03	4.822497E-15	7.520614E-17
7.340000E+03	4.755446E-15	7.405609E-17
7.350000E+03	4.684313E-15	7.285567E-17
7.360000E+03	4.609372E-15	7.162057E-17
7.370000E+03	4.531000E-15	7.036532E-17
7.380000E+03	4.449946E-15	6.910922E-17
7.390000E+03	4.366757E-15	6.786582E-17
7.400000E+03	4.282617E-15	6.665259E-17
7.410000E+03	4.198456E-15	6.548091E-17
7.420000E+03	4.115538E-15	6.436754E-17
7.430000E+03	4.034967E-15	6.332608E-17
7.440000E+03	3.957913E-15	6.237236E-17
7.450000E+03	3.885557E-15	6.152401E-17
7.460000E+03	3.818807E-15	6.079450E-17
7.470000E+03	3.758762E-15	6.020107E-17
7.480000E+03	3.705959E-15	5.975180E-17
7.490000E+03	3.661085E-15	5.945494E-17
7.500000E+03	3.624423E-15	5.930961E-17
7.510000E+03	3.596418E-15	5.931387E-17
7.520000E+03	3.577057E-15	5.945284E-17
7.530000E+03	3.566305E-15	5.970630E-17
7.540000E+03	3.564138E-15	6.004970E-17
7.550000E+03	3.570412E-15	6.045288E-17
7.560000E+03	3.585114E-15	6.088851E-17
7.570000E+03	3.607886E-15	6.132887E-17
7.580000E+03	3.638574E-15	6.175864E-17
7.590000E+03	3.676984E-15	6.217432E-17
7.600000E+03	3.722708E-15	6.258348E-17
7.610000E+03	3.775436E-15	6.301021E-17
7.620000E+03	3.834614E-15	6.348754E-17
7.630000E+03	3.899844E-15	6.405896E-17
7.640000E+03	3.970275E-15	6.475360E-17
7.650000E+03	4.045298E-15	6.557822E-17
7.660000E+03	4.123810E-15	6.651208E-17
7.670000E+03	4.204904E-15	6.753107E-17
7.680000E+03	4.287138E-15	6.860151E-17
7.690000E+03	4.369340E-15	6.969487E-17
7.700000E+03	4.449974E-15	7.077797E-17
7.710000E+03	4.527566E-15	7.182252E-17
7.720000E+03	4.600681E-15	7.280405E-17
7.730000E+03	4.667983E-15	7.370054E-17
7.740000E+03	4.728259E-15	7.449600E-17
7.750000E+03	4.780321E-15	7.517980E-17
7.760000E+03	4.823488E-15	7.575153E-17
