#wls	flux	fluxerr
1.600000E+03	6.930158E-15	1.490706E-15
1.640000E+03	6.614946E-15	1.285304E-15
1.680000E+03	6.283698E-15	1.091766E-15
1.720000E+03	5.937176E-15	9.114384E-16
1.760000E+03	5.576907E-15	7.456264E-16
1.800000E+03	5.204105E-15	5.953795E-16
1.840000E+03	4.821179E-15	4.616511E-16
1.880000E+03	4.430374E-15	3.450778E-16
1.920000E+03	4.034270E-15	2.460458E-16
1.960000E+03	3.636679E-15	1.647865E-16
2.000000E+03	3.243282E-15	1.015817E-16
2.040000E+03	2.862693E-15	5.759411E-17
2.080000E+03	2.506438E-15	3.635588E-17
2.120000E+03	2.191871E-15	3.402722E-17
2.160000E+03	1.938592E-15	3.335478E-17
2.200000E+03	1.761589E-15	2.924544E-17
2.240000E+03	1.671179E-15	2.529560E-17
2.280000E+03	1.675654E-15	2.836519E-17
2.320000E+03	1.782499E-15	3.960820E-17
2.360000E+03	2.003273E-15	5.576340E-17
2.400000E+03	2.359101E-15	7.513664E-17
2.440000E+03	2.880553E-15	9.601927E-17
2.480000E+03	3.602781E-15	1.147725E-16
2.520000E+03	4.557223E-15	1.247082E-16
2.560000E+03	5.757034E-15	1.174945E-16
2.600000E+03	7.182284E-15	9.845832E-17
2.640000E+03	8.777932E-15	1.381646E-16
2.680000E+03	1.045311E-14	2.708751E-16
2.720000E+03	1.210241E-14	4.557681E-16
2.760000E+03	1.363309E-14	6.680458E-16
2.800000E+03	1.497697E-14	8.876935E-16
2.840000E+03	1.609400E-14	1.096227E-15
2.880000E+03	1.697355E-14	1.278183E-15
2.920000E+03	1.762825E-14	1.422354E-15
2.960000E+03	1.808878E-14	1.522338E-15
3.000000E+03	1.840009E-14	1.576396E-15
3.010000E+03	1.846066E-14	1.582894E-15
3.020000E+03	1.851577E-14	1.586664E-15
3.030000E+03	1.856622E-14	1.587765E-15
3.040000E+03	1.861320E-14	1.586297E-15
3.050000E+03	1.865751E-14	1.582329E-15
3.060000E+03	1.869990E-14	1.575934E-15
3.070000E+03	1.874116E-14	1.567190E-15
3.080000E+03	1.878206E-14	1.556175E-15
3.090000E+03	1.882334E-14	1.542968E-15
3.100000E+03	1.886616E-14	1.527682E-15
3.110000E+03	1.891123E-14	1.510393E-15
3.120000E+03	1.895891E-14	1.491148E-15
3.130000E+03	1.901066E-14	1.470081E-15
3.140000E+03	1.906642E-14	1.447203E-15
3.150000E+03	1.912726E-14	1.422614E-15
3.160000E+03	1.919421E-14	1.396404E-15
3.170000E+03	1.926758E-14	1.368605E-15
3.180000E+03	1.934836E-14	1.339300E-15
3.190000E+03	1.943684E-14	1.308515E-15
3.200000E+03	1.953398E-14	1.276322E-15
3.210000E+03	1.964041E-14	1.242764E-15
3.220000E+03	1.975637E-14	1.207860E-15
3.230000E+03	1.988280E-14	1.171670E-15
3.240000E+03	2.002029E-14	1.134229E-15
3.250000E+03	2.016939E-14	1.095574E-15
3.260000E+03	2.033069E-14	1.055740E-15
3.270000E+03	2.050473E-14	1.014765E-15
3.280000E+03	2.069207E-14	9.726938E-16
3.290000E+03	2.089295E-14	9.295623E-16
3.300000E+03	2.110858E-14	8.854640E-16
3.310000E+03	2.133886E-14	8.404479E-16
3.320000E+03	2.158470E-14	7.946281E-16
3.330000E+03	2.184635E-14	7.481205E-16
3.340000E+03	2.212474E-14	7.011020E-16
3.350000E+03	2.242050E-14	6.537851E-16
3.360000E+03	2.273358E-14	6.064265E-16
3.370000E+03	2.306530E-14	5.594033E-16
3.380000E+03	2.341560E-14	5.131596E-16
3.390000E+03	2.378545E-14	4.682891E-16
3.400000E+03	2.417559E-14	4.254259E-16
3.410000E+03	2.458660E-14	3.850863E-16
3.420000E+03	2.502048E-14	3.479228E-16
3.430000E+03	2.547797E-14	3.147574E-16
3.440000E+03	2.596130E-14	2.865059E-16
3.450000E+03	2.647236E-14	2.643727E-16
3.460000E+03	2.701209E-14	2.497579E-16
3.470000E+03	2.758226E-14	2.437077E-16
3.480000E+03	2.818026E-14	2.462960E-16
3.490000E+03	2.879835E-14	2.560248E-16
3.500000E+03	2.942597E-14	2.704318E-16
3.510000E+03	3.005081E-14	2.872324E-16
3.520000E+03	3.065760E-14	3.046888E-16
3.530000E+03	3.123198E-14	3.214572E-16
3.540000E+03	3.175978E-14	3.367455E-16
3.550000E+03	3.222456E-14	3.501533E-16
3.560000E+03	3.261111E-14	3.612973E-16
3.570000E+03	3.290443E-14	3.700318E-16
3.580000E+03	3.308873E-14	3.763820E-16
3.590000E+03	3.314863E-14	3.801883E-16
3.600000E+03	3.306920E-14	3.814173E-16
3.610000E+03	3.283874E-14	3.802031E-16
3.620000E+03	3.245017E-14	3.765560E-16
3.630000E+03	3.189959E-14	3.706428E-16
3.640000E+03	3.119132E-14	3.628289E-16
3.650000E+03	3.033984E-14	3.533949E-16
3.660000E+03	2.936572E-14	3.427577E-16
3.670000E+03	2.829682E-14	3.313774E-16
3.680000E+03	2.717646E-14	3.194737E-16
3.690000E+03	2.604932E-14	3.073285E-16
3.700000E+03	2.495643E-14	2.953483E-16
3.710000E+03	2.393781E-14	2.839105E-16
3.720000E+03	2.302839E-14	2.734689E-16
3.730000E+03	2.225603E-14	2.644109E-16
3.740000E+03	2.164205E-14	2.567705E-16
3.750000E+03	2.120353E-14	2.505722E-16
3.760000E+03	2.095633E-14	2.459616E-16
3.770000E+03	2.091328E-14	2.430734E-16
3.780000E+03	2.108776E-14	2.421748E-16
3.790000E+03	2.149490E-14	2.436303E-16
3.800000E+03	2.214393E-14	2.476273E-16
3.810000E+03	2.304538E-14	2.544721E-16
3.820000E+03	2.420852E-14	2.645221E-16
3.830000E+03	2.563056E-14	2.777265E-16
3.840000E+03	2.730094E-14	2.940038E-16
3.850000E+03	2.920137E-14	3.133093E-16
3.860000E+03	3.129994E-14	3.352313E-16
3.870000E+03	3.355016E-14	3.593264E-16
3.880000E+03	3.589119E-14	3.852226E-16
3.890000E+03	3.825447E-14	4.123579E-16
3.900000E+03	4.056066E-14	4.402266E-16
3.910000E+03	4.272900E-14	4.682620E-16
3.920000E+03	4.470054E-14	4.952478E-16
3.930000E+03	4.642943E-14	5.198574E-16
3.940000E+03	4.788360E-14	5.409875E-16
3.950000E+03	4.905413E-14	5.575981E-16
3.960000E+03	4.994763E-14	5.690792E-16
3.970000E+03	5.058612E-14	5.753258E-16
3.980000E+03	5.100423E-14	5.763418E-16
3.990000E+03	5.124550E-14	5.725660E-16
4.000000E+03	5.135614E-14	5.647644E-16
4.010000E+03	5.137819E-14	5.535075E-16
4.020000E+03	5.135231E-14	5.396341E-16
4.030000E+03	5.131190E-14	5.242079E-16
4.040000E+03	5.127661E-14	5.080509E-16
4.050000E+03	5.125793E-14	4.922407E-16
4.060000E+03	5.126029E-14	4.778771E-16
4.070000E+03	5.127168E-14	4.651513E-16
4.080000E+03	5.127262E-14	4.543302E-16
4.090000E+03	5.124193E-14	4.457688E-16
4.100000E+03	5.115895E-14	4.389679E-16
4.110000E+03	5.100375E-14	4.336060E-16
4.120000E+03	5.075863E-14	4.295620E-16
4.130000E+03	5.041519E-14	4.259906E-16
4.140000E+03	4.996885E-14	4.223392E-16
4.150000E+03	4.941813E-14	4.184784E-16
4.160000E+03	4.876670E-14	4.139259E-16
4.170000E+03	4.802136E-14	4.086498E-16
4.180000E+03	4.719170E-14	4.030816E-16
4.190000E+03	4.628937E-14	3.973695E-16
4.200000E+03	4.532910E-14	3.920003E-16
4.210000E+03	4.432776E-14	3.875643E-16
4.220000E+03	4.330465E-14	3.838604E-16
4.230000E+03	4.228116E-14	3.807324E-16
4.240000E+03	4.127833E-14	3.780966E-16
4.250000E+03	4.031961E-14	3.753215E-16
4.260000E+03	3.942692E-14	3.718759E-16
4.270000E+03	3.862011E-14	3.674511E-16
4.280000E+03	3.791773E-14	3.615848E-16
4.290000E+03	3.733417E-14	3.539628E-16
4.300000E+03	3.688072E-14	3.444038E-16
4.310000E+03	3.655949E-14	3.324788E-16
4.320000E+03	3.636885E-14	3.179281E-16
4.330000E+03	3.630282E-14	3.008322E-16
4.340000E+03	3.634805E-14	2.815788E-16
4.350000E+03	3.648748E-14	2.612497E-16
4.360000E+03	3.670134E-14	2.418756E-16
4.370000E+03	3.696811E-14	2.262328E-16
4.380000E+03	3.727006E-14	2.175293E-16
4.390000E+03	3.759337E-14	2.185096E-16
4.400000E+03	3.793236E-14	2.284624E-16
4.410000E+03	3.829626E-14	2.440743E-16
4.420000E+03	3.869508E-14	2.622040E-16
4.430000E+03	3.913533E-14	2.802470E-16
4.440000E+03	3.961910E-14	2.966297E-16
4.450000E+03	4.014442E-14	3.106509E-16
4.460000E+03	4.070315E-14	3.218649E-16
4.470000E+03	4.128135E-14	3.302784E-16
4.480000E+03	4.186129E-14	3.362784E-16
4.490000E+03	4.241960E-14	3.401761E-16
4.500000E+03	4.293067E-14	3.425914E-16
4.510000E+03	4.336951E-14	3.442563E-16
4.520000E+03	4.371540E-14	3.452697E-16
4.530000E+03	4.395095E-14	3.458128E-16
4.540000E+03	4.406377E-14	3.462116E-16
4.550000E+03	4.404995E-14	3.462750E-16
4.560000E+03	4.391170E-14	3.460776E-16
4.570000E+03	4.365417E-14	3.459732E-16
4.580000E+03	4.328484E-14	3.458521E-16
4.590000E+03	4.281480E-14	3.458746E-16
4.600000E+03	4.225438E-14	3.463095E-16
4.610000E+03	4.161633E-14	3.466829E-16
4.620000E+03	4.091364E-14	3.466222E-16
4.630000E+03	4.015976E-14	3.460626E-16
4.640000E+03	3.936958E-14	3.447929E-16
4.650000E+03	3.855732E-14	3.428283E-16
4.660000E+03	3.773763E-14	3.403550E-16
4.670000E+03	3.692134E-14	3.372427E-16
4.680000E+03	3.611876E-14	3.334900E-16
4.690000E+03	3.533639E-14	3.291934E-16
4.700000E+03	3.457579E-14	3.241727E-16
4.710000E+03	3.383517E-14	3.183951E-16
4.720000E+03	3.311197E-14	3.120673E-16
4.730000E+03	3.240144E-14	3.053600E-16
4.740000E+03	3.169942E-14	2.986163E-16
4.750000E+03	3.100146E-14	2.921792E-16
4.760000E+03	3.030611E-14	2.860252E-16
4.770000E+03	2.961298E-14	2.801570E-16
4.780000E+03	2.892258E-14	2.747459E-16
4.790000E+03	2.823763E-14	2.699715E-16
4.800000E+03	2.756170E-14	2.660203E-16
4.810000E+03	2.690113E-14	2.628341E-16
4.820000E+03	2.626486E-14	2.600872E-16
4.830000E+03	2.566270E-14	2.575212E-16
4.840000E+03	2.510492E-14	2.549477E-16
4.850000E+03	2.460406E-14	2.521039E-16
4.860000E+03	2.417120E-14	2.488221E-16
4.870000E+03	2.381695E-14	2.450924E-16
4.880000E+03	2.354852E-14	2.409363E-16
4.890000E+03	2.337131E-14	2.364908E-16
4.900000E+03	2.328678E-14	2.319481E-16
4.910000E+03	2.329165E-14	2.274258E-16
4.920000E+03	2.337934E-14	2.231082E-16
4.930000E+03	2.354051E-14	2.191874E-16
4.940000E+03	2.376259E-14	2.156144E-16
4.950000E+03	2.403065E-14	2.123985E-16
4.960000E+03	2.433069E-14	2.096518E-16
4.970000E+03	2.465085E-14	2.073201E-16
4.980000E+03	2.498173E-14	2.054920E-16
4.990000E+03	2.531529E-14	2.043296E-16
5.000000E+03	2.564949E-14	2.036784E-16
5.010000E+03	2.598425E-14	2.034817E-16
5.020000E+03	2.632082E-14	2.038154E-16
5.030000E+03	2.666115E-14	2.044654E-16
5.040000E+03	2.700633E-14	2.053843E-16
5.050000E+03	2.735629E-14	2.067141E-16
5.060000E+03	2.770709E-14	2.083020E-16
5.070000E+03	2.805186E-14	2.101840E-16
5.080000E+03	2.838041E-14	2.125580E-16
5.090000E+03	2.868014E-14	2.152359E-16
5.100000E+03	2.893564E-14	2.181643E-16
5.110000E+03	2.913048E-14	2.214146E-16
5.120000E+03	2.925272E-14	2.246207E-16
5.130000E+03	2.929065E-14	2.275190E-16
5.140000E+03	2.923569E-14	2.300115E-16
5.150000E+03	2.908452E-14	2.316656E-16
5.160000E+03	2.883684E-14	2.322367E-16
5.170000E+03	2.849517E-14	2.317931E-16
5.180000E+03	2.806357E-14	2.303751E-16
5.190000E+03	2.754843E-14	2.282375E-16
5.200000E+03	2.695877E-14	2.256413E-16
5.210000E+03	2.630651E-14	2.223304E-16
5.220000E+03	2.560664E-14	2.180773E-16
5.230000E+03	2.487542E-14	2.128359E-16
5.240000E+03	2.413271E-14	2.065379E-16
5.250000E+03	2.339920E-14	1.993180E-16
5.260000E+03	2.269482E-14	1.915088E-16
5.270000E+03	2.203888E-14	1.834472E-16
5.280000E+03	2.144923E-14	1.755762E-16
5.290000E+03	2.093896E-14	1.682430E-16
5.300000E+03	2.051520E-14	1.613375E-16
5.310000E+03	2.018087E-14	1.547320E-16
5.320000E+03	1.993576E-14	1.484013E-16
5.330000E+03	1.977262E-14	1.422026E-16
5.340000E+03	1.968106E-14	1.361819E-16
5.350000E+03	1.964839E-14	1.305126E-16
5.360000E+03	1.965800E-14	1.251235E-16
5.370000E+03	1.969216E-14	1.201643E-16
5.380000E+03	1.973391E-14	1.159303E-16
5.390000E+03	1.977111E-14	1.122960E-16
5.400000E+03	1.979399E-14	1.093386E-16
5.410000E+03	1.979760E-14	1.072370E-16
5.420000E+03	1.978423E-14	1.054524E-16
5.430000E+03	1.976157E-14	1.035184E-16
5.440000E+03	1.973985E-14	1.010805E-16
5.450000E+03	1.972991E-14	9.724974E-17
5.460000E+03	1.974380E-14	9.155183E-17
5.470000E+03	1.978913E-14	8.459255E-17
5.480000E+03	1.986149E-14	7.833570E-17
5.490000E+03	1.995247E-14	7.647938E-17
5.500000E+03	2.006141E-14	8.143860E-17
5.510000E+03	2.019664E-14	9.077202E-17
5.520000E+03	2.036753E-14	1.013697E-16
5.530000E+03	2.057852E-14	1.116654E-16
5.540000E+03	2.082409E-14	1.210870E-16
5.550000E+03	2.109135E-14	1.298641E-16
5.560000E+03	2.136576E-14	1.384282E-16
5.570000E+03	2.163542E-14	1.464324E-16
5.580000E+03	2.188798E-14	1.534026E-16
5.590000E+03	2.211158E-14	1.590643E-16
5.600000E+03	2.229649E-14	1.631279E-16
5.610000E+03	2.243434E-14	1.655460E-16
5.620000E+03	2.251834E-14	1.665055E-16
5.630000E+03	2.254335E-14	1.661375E-16
5.640000E+03	2.250604E-14	1.647934E-16
5.650000E+03	2.240483E-14	1.629379E-16
5.660000E+03	2.223878E-14	1.606858E-16
5.670000E+03	2.200948E-14	1.582647E-16
5.680000E+03	2.171977E-14	1.559633E-16
5.690000E+03	2.137686E-14	1.536622E-16
5.700000E+03	2.098972E-14	1.513551E-16
5.710000E+03	2.056958E-14	1.491847E-16
5.720000E+03	2.013259E-14	1.470219E-16
5.730000E+03	1.969557E-14	1.448831E-16
5.740000E+03	1.927585E-14	1.429087E-16
5.750000E+03	1.889095E-14	1.409472E-16
5.760000E+03	1.855759E-14	1.389701E-16
5.770000E+03	1.828928E-14	1.371028E-16
5.780000E+03	1.809519E-14	1.353199E-16
5.790000E+03	1.798104E-14	1.337452E-16
5.800000E+03	1.794976E-14	1.326192E-16
5.810000E+03	1.799771E-14	1.319353E-16
5.820000E+03	1.811783E-14	1.318036E-16
5.830000E+03	1.830095E-14	1.324257E-16
5.840000E+03	1.853559E-14	1.336841E-16
5.850000E+03	1.880842E-14	1.355471E-16
5.860000E+03	1.910523E-14	1.380509E-16
5.870000E+03	1.941417E-14	1.408507E-16
5.880000E+03	1.972378E-14	1.436779E-16
5.890000E+03	2.002207E-14	1.464151E-16
5.900000E+03	2.029913E-14	1.487348E-16
5.910000E+03	2.054496E-14	1.504713E-16
5.920000E+03	2.074862E-14	1.516308E-16
5.930000E+03	2.089898E-14	1.520025E-16
5.940000E+03	2.098442E-14	1.515316E-16
5.950000E+03	2.099170E-14	1.502883E-16
5.960000E+03	2.090656E-14	1.480427E-16
5.970000E+03	2.071469E-14	1.447255E-16
5.980000E+03	2.040292E-14	1.404482E-16
5.990000E+03	1.996002E-14	1.350894E-16
6.000000E+03	1.937905E-14	1.287890E-16
6.010000E+03	1.865958E-14	1.219117E-16
6.020000E+03	1.781007E-14	1.145707E-16
6.030000E+03	1.684629E-14	1.071169E-16
6.040000E+03	1.579469E-14	1.000171E-16
6.050000E+03	1.469551E-14	9.330918E-17
6.060000E+03	1.359153E-14	8.714330E-17
6.070000E+03	1.252218E-14	8.169769E-17
6.080000E+03	1.152665E-14	7.676745E-17
6.090000E+03	1.063537E-14	7.226636E-17
6.100000E+03	9.869218E-15	6.827133E-17
6.110000E+03	9.239738E-15	6.474640E-17
6.120000E+03	8.753804E-15	6.175755E-17
6.130000E+03	8.414134E-15	5.943583E-17
6.140000E+03	8.218665E-15	5.779395E-17
6.150000E+03	8.165979E-15	5.690207E-17
6.160000E+03	8.255557E-15	5.684932E-17
6.170000E+03	8.482873E-15	5.751985E-17
6.180000E+03	8.842921E-15	5.882697E-17
6.190000E+03	9.330664E-15	6.075618E-17
6.200000E+03	9.938641E-15	6.318255E-17
6.210000E+03	1.065492E-14	6.608283E-17
6.220000E+03	1.146198E-14	6.954461E-17
6.230000E+03	1.233836E-14	7.347479E-17
6.240000E+03	1.325561E-14	7.788255E-17
6.250000E+03	1.418131E-14	8.284296E-17
6.260000E+03	1.508762E-14	8.797574E-17
6.270000E+03	1.594838E-14	9.290670E-17
6.280000E+03	1.673960E-14	9.743547E-17
6.290000E+03	1.744348E-14	1.011328E-16
6.300000E+03	1.804747E-14	1.038364E-16
6.310000E+03	1.854592E-14	1.057027E-16
6.320000E+03	1.894134E-14	1.066622E-16
6.330000E+03	1.924301E-14	1.069584E-16
6.340000E+03	1.946192E-14	1.070675E-16
6.350000E+03	1.961044E-14	1.069776E-16
6.360000E+03	1.969980E-14	1.068661E-16
6.370000E+03	1.973934E-14	1.070578E-16
6.380000E+03	1.973283E-14	1.072254E-16
6.390000E+03	1.967978E-14	1.072050E-16
6.400000E+03	1.957893E-14	1.071098E-16
6.410000E+03	1.942751E-14	1.066624E-16
6.420000E+03	1.922178E-14	1.058667E-16
6.430000E+03	1.895975E-14	1.049290E-16
6.440000E+03	1.864500E-14	1.035020E-16
6.450000E+03	1.828306E-14	1.014365E-16
6.460000E+03	1.788130E-14	9.882003E-17
6.470000E+03	1.745277E-14	9.537247E-17
6.480000E+03	1.701179E-14	9.110934E-17
6.490000E+03	1.657392E-14	8.637127E-17
6.500000E+03	1.616318E-14	8.132954E-17
6.510000E+03	1.580150E-14	7.657396E-17
6.520000E+03	1.550798E-14	7.311417E-17
6.530000E+03	1.530174E-14	7.165060E-17
6.540000E+03	1.518055E-14	7.232156E-17
6.550000E+03	1.512012E-14	7.453514E-17
6.560000E+03	1.509860E-14	7.726115E-17
6.570000E+03	1.509446E-14	7.992424E-17
6.580000E+03	1.508694E-14	8.238718E-17
6.590000E+03	1.506530E-14	8.433524E-17
6.600000E+03	1.502273E-14	8.577046E-17
6.610000E+03	1.495386E-14	8.694804E-17
6.620000E+03	1.485851E-14	8.778220E-17
6.630000E+03	1.473837E-14	8.835105E-17
6.640000E+03	1.459573E-14	8.885652E-17
6.650000E+03	1.443432E-14	8.906840E-17
6.660000E+03	1.425783E-14	8.886786E-17
6.670000E+03	1.406977E-14	8.832226E-17
6.680000E+03	1.387210E-14	8.728294E-17
6.690000E+03	1.366649E-14	8.580744E-17
6.700000E+03	1.345372E-14	8.416816E-17
6.710000E+03	1.323382E-14	8.249043E-17
6.720000E+03	1.300651E-14	8.110913E-17
6.730000E+03	1.277229E-14	8.042529E-17
6.740000E+03	1.253327E-14	8.035783E-17
6.750000E+03	1.229280E-14	8.088848E-17
6.760000E+03	1.205335E-14	8.209352E-17
6.770000E+03	1.181801E-14	8.373262E-17
6.780000E+03	1.159000E-14	8.565386E-17
6.790000E+03	1.137172E-14	8.783425E-17
6.800000E+03	1.116503E-14	9.009390E-17
6.810000E+03	1.097173E-14	9.231401E-17
6.820000E+03	1.079285E-14	9.441655E-17
6.830000E+03	1.062982E-14	9.616013E-17
6.840000E+03	1.048323E-14	9.732585E-17
6.850000E+03	1.035384E-14	9.780235E-17
6.860000E+03	1.024054E-14	9.751435E-17
6.870000E+03	1.014251E-14	9.649639E-17
6.880000E+03	1.005787E-14	9.489561E-17
6.890000E+03	9.984767E-15	9.295321E-17
6.900000E+03	9.920715E-15	9.100333E-17
6.910000E+03	9.863883E-15	8.933145E-17
6.920000E+03	9.813085E-15	8.791125E-17
6.930000E+03	9.767753E-15	8.666070E-17
6.940000E+03	9.726708E-15	8.552705E-17
6.950000E+03	9.689666E-15	8.440945E-17
6.960000E+03	9.655741E-15	8.327512E-17
6.970000E+03	9.623959E-15	8.215345E-17
6.980000E+03	9.593928E-15	8.100233E-17
6.990000E+03	9.564432E-15	7.984460E-17
7.000000E+03	9.534769E-15	7.876847E-17
7.010000E+03	9.504010E-15	7.775773E-17
7.020000E+03	9.471524E-15	7.686778E-17
7.030000E+03	9.436255E-15	7.621290E-17
7.040000E+03	9.397724E-15	7.579363E-17
7.050000E+03	9.354817E-15	7.566212E-17
7.060000E+03	9.307241E-15	7.590871E-17
7.070000E+03	9.254594E-15	7.644276E-17
7.080000E+03	9.197308E-15	7.720972E-17
7.090000E+03	9.135104E-15	7.820140E-17
7.100000E+03	9.068706E-15	7.930508E-17
7.110000E+03	8.998536E-15	8.045538E-17
7.120000E+03	8.925461E-15	8.164942E-17
7.130000E+03	8.850612E-15	8.280456E-17
7.140000E+03	8.774840E-15	8.387609E-17
7.150000E+03	8.699604E-15	8.486796E-17
7.160000E+03	8.625916E-15	8.570977E-17
7.170000E+03	8.554314E-15	8.635187E-17
7.180000E+03	8.485664E-15	8.677912E-17
7.190000E+03	8.420334E-15	8.692147E-17
7.200000E+03	8.358306E-15	8.673345E-17
7.210000E+03	8.299816E-15	8.622107E-17
7.220000E+03	8.243964E-15	8.538712E-17
7.230000E+03	8.189942E-15	8.428688E-17
7.240000E+03	8.136910E-15	8.301811E-17
7.250000E+03	8.083236E-15	8.165577E-17
7.260000E+03	8.027797E-15	8.031536E-17
7.270000E+03	7.968889E-15	7.910090E-17
7.280000E+03	7.904963E-15	7.799554E-17
7.290000E+03	7.834299E-15	7.697424E-17
7.300000E+03	7.755346E-15	7.601900E-17
7.310000E+03	7.666724E-15	7.502950E-17
7.320000E+03	7.566857E-15	7.392907E-17
7.330000E+03	7.454408E-15	7.269108E-17
7.340000E+03	7.328510E-15	7.127649E-17
7.350000E+03	7.188671E-15	6.970231E-17
7.360000E+03	7.034894E-15	6.802927E-17
7.370000E+03	6.867697E-15	6.627762E-17
7.380000E+03	6.688150E-15	6.450204E-17
7.390000E+03	6.498151E-15	6.277678E-17
7.400000E+03	6.300315E-15	6.110372E-17
7.410000E+03	6.098277E-15	5.950885E-17
7.420000E+03	5.895355E-15	5.804206E-17
7.430000E+03	5.695822E-15	5.673148E-17
7.440000E+03	5.504059E-15	5.563025E-17
7.450000E+03	5.324206E-15	5.480444E-17
7.460000E+03	5.160010E-15	5.427384E-17
7.470000E+03	5.015114E-15	5.406610E-17
7.480000E+03	4.892188E-15	5.419892E-17
7.490000E+03	4.793147E-15	5.462655E-17
7.500000E+03	4.718948E-15	5.529505E-17
7.510000E+03	4.670359E-15	5.617234E-17
7.520000E+03	4.647380E-15	5.722568E-17
7.530000E+03	4.649606E-15	5.842766E-17
7.540000E+03	4.676431E-15	5.974854E-17
7.550000E+03	4.726771E-15	6.113331E-17
7.560000E+03	4.799579E-15	6.252246E-17
7.570000E+03	4.893199E-15	6.385272E-17
7.580000E+03	5.005753E-15	6.506353E-17
7.590000E+03	5.135148E-15	6.610890E-17
7.600000E+03	5.278840E-15	6.696567E-17
7.610000E+03	5.433942E-15	6.764352E-17
7.620000E+03	5.597111E-15	6.818934E-17
7.630000E+03	5.765114E-15	6.869029E-17
7.640000E+03	5.934133E-15	6.923191E-17
7.650000E+03	6.101180E-15	6.985477E-17
7.660000E+03	6.262997E-15	7.055859E-17
7.670000E+03	6.417195E-15	7.133949E-17
7.680000E+03	6.561000E-15	7.220260E-17
7.690000E+03	6.692762E-15	7.315883E-17
7.700000E+03	6.811697E-15	7.416018E-17
7.710000E+03	6.917876E-15	7.516176E-17
7.720000E+03	7.011582E-15	7.613178E-17
7.730000E+03	7.094002E-15	7.701999E-17
7.740000E+03	7.166050E-15	7.779377E-17
7.750000E+03	7.228808E-15	7.844808E-17
7.760000E+03	7.282998E-15	7.895672E-17
