#wls	flux	fluxerr
1.600000E+03	2.989478E-15	6.611039E-16
1.640000E+03	2.696778E-15	5.432386E-16
1.680000E+03	2.414871E-15	4.395517E-16
1.720000E+03	2.146351E-15	3.497728E-16
1.760000E+03	1.894362E-15	2.734798E-16
1.800000E+03	1.660736E-15	2.098289E-16
1.840000E+03	1.447645E-15	1.578734E-16
1.880000E+03	1.255948E-15	1.164072E-16
1.920000E+03	1.086130E-15	8.417629E-17
1.960000E+03	9.381307E-16	5.992632E-17
2.000000E+03	8.115384E-16	4.247235E-17
2.040000E+03	7.056692E-16	3.069888E-17
2.080000E+03	6.194407E-16	2.344433E-17
2.120000E+03	5.521410E-16	1.938264E-17
2.160000E+03	5.029784E-16	1.719466E-17
2.200000E+03	4.714686E-16	1.610646E-17
2.240000E+03	4.575568E-16	1.597069E-17
2.280000E+03	4.616250E-16	1.693387E-17
2.320000E+03	4.844461E-16	1.904734E-17
2.360000E+03	5.274104E-16	2.218077E-17
2.400000E+03	5.924515E-16	2.610766E-17
2.440000E+03	6.823574E-16	3.055353E-17
2.480000E+03	7.998352E-16	3.519764E-17
2.520000E+03	9.472148E-16	3.985358E-17
2.560000E+03	1.124884E-15	4.490355E-17
2.600000E+03	1.330570E-15	5.199735E-17
2.640000E+03	1.558522E-15	6.399302E-17
2.680000E+03	1.800519E-15	8.309773E-17
2.720000E+03	2.046195E-15	1.092349E-16
2.760000E+03	2.284828E-15	1.405399E-16
2.800000E+03	2.505510E-15	1.742724E-16
2.840000E+03	2.698814E-15	2.074440E-16
2.880000E+03	2.857975E-15	2.372370E-16
2.920000E+03	2.980146E-15	2.613880E-16
2.960000E+03	3.066237E-15	2.784012E-16
3.000000E+03	3.120703E-15	2.876478E-16
3.010000E+03	3.130282E-15	2.887602E-16
3.020000E+03	3.138440E-15	2.894027E-16
3.030000E+03	3.145291E-15	2.895841E-16
3.040000E+03	3.151164E-15	2.893352E-16
3.050000E+03	3.156071E-15	2.886587E-16
3.060000E+03	3.160239E-15	2.875783E-16
3.070000E+03	3.163692E-15	2.860998E-16
3.080000E+03	3.166865E-15	2.842676E-16
3.090000E+03	3.169685E-15	2.820803E-16
3.100000E+03	3.172387E-15	2.795648E-16
3.110000E+03	3.175201E-15	2.767480E-16
3.120000E+03	3.178262E-15	2.736482E-16
3.130000E+03	3.181800E-15	2.702920E-16
3.140000E+03	3.185856E-15	2.666896E-16
3.150000E+03	3.190755E-15	2.628752E-16
3.160000E+03	3.196631E-15	2.588660E-16
3.170000E+03	3.203710E-15	2.546865E-16
3.180000E+03	3.212040E-15	2.503462E-16
3.190000E+03	3.221851E-15	2.458687E-16
3.200000E+03	3.233366E-15	2.412760E-16
3.210000E+03	3.246725E-15	2.365830E-16
3.220000E+03	3.262151E-15	2.318098E-16
3.230000E+03	3.279782E-15	2.269699E-16
3.240000E+03	3.299840E-15	2.220817E-16
3.250000E+03	3.322463E-15	2.171569E-16
3.260000E+03	3.347786E-15	2.122072E-16
3.270000E+03	3.376025E-15	2.072485E-16
3.280000E+03	3.407309E-15	2.022912E-16
3.290000E+03	3.441761E-15	1.973453E-16
3.300000E+03	3.479653E-15	1.924292E-16
3.310000E+03	3.521010E-15	1.875476E-16
3.320000E+03	3.565924E-15	1.827100E-16
3.330000E+03	3.614467E-15	1.779265E-16
3.340000E+03	3.666842E-15	1.732147E-16
3.350000E+03	3.722923E-15	1.685787E-16
3.360000E+03	3.782781E-15	1.640353E-16
3.370000E+03	3.846377E-15	1.595998E-16
3.380000E+03	3.913561E-15	1.552876E-16
3.390000E+03	3.984219E-15	1.511212E-16
3.400000E+03	4.058267E-15	1.471302E-16
3.410000E+03	4.135288E-15	1.433381E-16
3.420000E+03	4.215195E-15	1.397871E-16
3.430000E+03	4.297497E-15	1.365109E-16
3.440000E+03	4.381973E-15	1.335559E-16
3.450000E+03	4.468088E-15	1.309604E-16
3.460000E+03	4.555595E-15	1.287688E-16
3.470000E+03	4.643953E-15	1.270105E-16
3.480000E+03	4.732860E-15	1.257102E-16
3.490000E+03	4.821812E-15	1.248711E-16
3.500000E+03	4.910563E-15	1.244869E-16
3.510000E+03	4.998676E-15	1.245320E-16
3.520000E+03	5.085897E-15	1.249739E-16
3.530000E+03	5.171933E-15	1.257693E-16
3.540000E+03	5.256522E-15	1.268696E-16
3.550000E+03	5.339505E-15	1.282247E-16
3.560000E+03	5.420526E-15	1.297782E-16
3.570000E+03	5.499476E-15	1.314794E-16
3.580000E+03	5.576271E-15	1.332793E-16
3.590000E+03	5.650774E-15	1.351302E-16
3.600000E+03	5.722872E-15	1.369880E-16
3.610000E+03	5.792483E-15	1.388137E-16
3.620000E+03	5.859634E-15	1.405765E-16
3.630000E+03	5.924404E-15	1.422524E-16
3.640000E+03	5.986729E-15	1.438208E-16
3.650000E+03	6.046945E-15	1.452767E-16
3.660000E+03	6.105312E-15	1.466186E-16
3.670000E+03	6.162569E-15	1.478598E-16
3.680000E+03	6.219467E-15	1.490150E-16
3.690000E+03	6.277104E-15	1.501048E-16
3.700000E+03	6.336955E-15	1.511537E-16
3.710000E+03	6.400724E-15	1.521852E-16
3.720000E+03	6.470539E-15	1.532264E-16
3.730000E+03	6.548535E-15	1.542988E-16
3.740000E+03	6.637216E-15	1.554296E-16
3.750000E+03	6.739086E-15	1.566444E-16
3.760000E+03	6.856711E-15	1.579712E-16
3.770000E+03	6.992416E-15	1.594345E-16
3.780000E+03	7.148483E-15	1.610614E-16
3.790000E+03	7.326843E-15	1.628763E-16
3.800000E+03	7.529111E-15	1.649032E-16
3.810000E+03	7.756249E-15	1.671596E-16
3.820000E+03	8.008901E-15	1.696666E-16
3.830000E+03	8.286552E-15	1.724323E-16
3.840000E+03	8.588123E-15	1.754667E-16
3.850000E+03	8.911281E-15	1.787681E-16
3.860000E+03	9.252968E-15	1.823335E-16
3.870000E+03	9.608591E-15	1.861399E-16
3.880000E+03	9.972782E-15	1.901535E-16
3.890000E+03	1.033939E-14	1.943223E-16
3.900000E+03	1.070132E-14	1.985639E-16
3.910000E+03	1.105132E-14	2.027728E-16
3.920000E+03	1.138222E-14	2.068196E-16
3.930000E+03	1.168703E-14	2.105557E-16
3.940000E+03	1.195993E-14	2.138372E-16
3.950000E+03	1.219606E-14	2.165317E-16
3.960000E+03	1.239182E-14	2.185365E-16
3.970000E+03	1.254558E-14	2.197992E-16
3.980000E+03	1.265707E-14	2.203144E-16
3.990000E+03	1.272776E-14	2.201297E-16
4.000000E+03	1.276025E-14	2.193314E-16
4.010000E+03	1.275857E-14	2.180394E-16
4.020000E+03	1.272748E-14	2.163839E-16
4.030000E+03	1.267231E-14	2.144906E-16
4.040000E+03	1.259883E-14	2.124723E-16
4.050000E+03	1.251229E-14	2.104105E-16
4.060000E+03	1.241811E-14	2.083713E-16
4.070000E+03	1.232094E-14	2.063953E-16
4.080000E+03	1.222510E-14	2.045132E-16
4.090000E+03	1.213419E-14	2.027451E-16
4.100000E+03	1.205104E-14	2.011052E-16
4.110000E+03	1.197820E-14	1.996103E-16
4.120000E+03	1.191717E-14	1.982685E-16
4.130000E+03	1.186888E-14	1.970840E-16
4.140000E+03	1.183355E-14	1.960521E-16
4.150000E+03	1.181075E-14	1.951569E-16
4.160000E+03	1.179914E-14	1.943643E-16
4.170000E+03	1.179690E-14	1.936287E-16
4.180000E+03	1.180146E-14	1.928883E-16
4.190000E+03	1.180980E-14	1.920719E-16
4.200000E+03	1.181892E-14	1.911083E-16
4.210000E+03	1.182540E-14	1.899222E-16
4.220000E+03	1.182583E-14	1.884442E-16
4.230000E+03	1.181720E-14	1.866198E-16
4.240000E+03	1.179651E-14	1.844059E-16
4.250000E+03	1.176149E-14	1.817836E-16
4.260000E+03	1.171016E-14	1.787511E-16
4.270000E+03	1.164110E-14	1.753274E-16
4.280000E+03	1.155360E-14	1.715536E-16
4.290000E+03	1.144742E-14	1.674887E-16
4.300000E+03	1.132323E-14	1.632160E-16
4.310000E+03	1.118215E-14	1.588352E-16
4.320000E+03	1.102641E-14	1.544692E-16
4.330000E+03	1.085890E-14	1.502514E-16
4.340000E+03	1.068344E-14	1.463210E-16
4.350000E+03	1.050448E-14	1.428080E-16
4.360000E+03	1.032753E-14	1.398248E-16
4.370000E+03	1.015886E-14	1.374456E-16
4.380000E+03	1.000574E-14	1.357010E-16
4.390000E+03	9.875438E-15	1.345918E-16
4.400000E+03	9.774992E-15	1.341094E-16
4.410000E+03	9.711257E-15	1.342525E-16
4.420000E+03	9.690136E-15	1.350284E-16
4.430000E+03	9.717031E-15	1.364644E-16
4.440000E+03	9.796679E-15	1.386063E-16
4.450000E+03	9.932999E-15	1.415126E-16
4.460000E+03	1.012940E-14	1.452540E-16
4.470000E+03	1.038853E-14	1.499012E-16
4.480000E+03	1.071182E-14	1.555108E-16
4.490000E+03	1.109987E-14	1.621218E-16
4.500000E+03	1.155135E-14	1.697350E-16
4.510000E+03	1.206326E-14	1.783138E-16
4.520000E+03	1.263017E-14	1.877741E-16
4.530000E+03	1.324369E-14	1.979809E-16
4.540000E+03	1.389274E-14	2.087614E-16
4.550000E+03	1.456293E-14	2.199045E-16
4.560000E+03	1.523710E-14	2.311765E-16
4.570000E+03	1.589554E-14	2.423285E-16
4.580000E+03	1.651726E-14	2.531079E-16
4.590000E+03	1.708090E-14	2.632592E-16
4.600000E+03	1.756663E-14	2.725285E-16
4.610000E+03	1.795761E-14	2.806622E-16
4.620000E+03	1.824124E-14	2.874094E-16
4.630000E+03	1.841054E-14	2.925379E-16
4.640000E+03	1.846445E-14	2.958495E-16
4.650000E+03	1.840784E-14	2.972026E-16
4.660000E+03	1.825013E-14	2.965216E-16
4.670000E+03	1.800519E-14	2.938256E-16
4.680000E+03	1.768932E-14	2.892218E-16
4.690000E+03	1.732022E-14	2.829052E-16
4.700000E+03	1.691501E-14	2.751321E-16
4.710000E+03	1.649033E-14	2.662190E-16
4.720000E+03	1.606056E-14	2.565060E-16
4.730000E+03	1.563823E-14	2.463543E-16
4.740000E+03	1.523338E-14	2.361258E-16
4.750000E+03	1.485395E-14	2.261818E-16
4.760000E+03	1.450539E-14	2.168705E-16
4.770000E+03	1.419132E-14	2.085279E-16
4.780000E+03	1.391372E-14	2.014642E-16
4.790000E+03	1.367325E-14	1.959354E-16
4.800000E+03	1.346969E-14	1.920793E-16
4.810000E+03	1.330149E-14	1.897952E-16
4.820000E+03	1.316627E-14	1.887879E-16
4.830000E+03	1.306131E-14	1.887102E-16
4.840000E+03	1.298338E-14	1.892280E-16
4.850000E+03	1.292873E-14	1.900538E-16
4.860000E+03	1.289367E-14	1.909686E-16
4.870000E+03	1.287366E-14	1.918125E-16
4.880000E+03	1.286434E-14	1.924932E-16
4.890000E+03	1.286078E-14	1.929636E-16
4.900000E+03	1.285780E-14	1.932109E-16
4.910000E+03	1.285014E-14	1.932402E-16
4.920000E+03	1.283281E-14	1.930622E-16
4.930000E+03	1.280105E-14	1.926773E-16
4.940000E+03	1.275120E-14	1.920768E-16
4.950000E+03	1.268066E-14	1.912382E-16
4.960000E+03	1.258849E-14	1.901347E-16
4.970000E+03	1.247523E-14	1.887402E-16
4.980000E+03	1.234293E-14	1.870383E-16
4.990000E+03	1.219543E-14	1.850375E-16
5.000000E+03	1.203733E-14	1.827636E-16
5.010000E+03	1.187417E-14	1.802681E-16
5.020000E+03	1.171189E-14	1.776229E-16
5.030000E+03	1.155663E-14	1.749184E-16
5.040000E+03	1.141424E-14	1.722551E-16
5.050000E+03	1.129007E-14	1.697386E-16
5.060000E+03	1.118921E-14	1.674799E-16
5.070000E+03	1.111605E-14	1.655843E-16
5.080000E+03	1.107435E-14	1.641455E-16
5.090000E+03	1.106753E-14	1.632449E-16
5.100000E+03	1.109838E-14	1.629410E-16
5.110000E+03	1.116921E-14	1.632679E-16
5.120000E+03	1.128170E-14	1.642327E-16
5.130000E+03	1.143732E-14	1.658234E-16
5.140000E+03	1.163635E-14	1.680006E-16
5.150000E+03	1.187892E-14	1.707184E-16
5.160000E+03	1.216407E-14	1.739190E-16
5.170000E+03	1.248966E-14	1.775390E-16
5.180000E+03	1.285248E-14	1.815166E-16
5.190000E+03	1.324808E-14	1.857949E-16
5.200000E+03	1.367014E-14	1.903154E-16
5.210000E+03	1.411124E-14	1.950269E-16
5.220000E+03	1.456245E-14	1.998740E-16
5.230000E+03	1.501369E-14	2.047920E-16
5.240000E+03	1.545406E-14	2.096974E-16
5.250000E+03	1.587275E-14	2.144884E-16
5.260000E+03	1.625906E-14	2.190333E-16
5.270000E+03	1.660404E-14	2.231888E-16
5.280000E+03	1.689987E-14	2.267927E-16
5.290000E+03	1.714137E-14	2.296920E-16
5.300000E+03	1.732566E-14	2.317474E-16
5.310000E+03	1.745191E-14	2.328421E-16
5.320000E+03	1.752229E-14	2.329032E-16
5.330000E+03	1.754018E-14	2.318888E-16
5.340000E+03	1.751080E-14	2.298060E-16
5.350000E+03	1.744042E-14	2.267127E-16
5.360000E+03	1.733537E-14	2.227124E-16
5.370000E+03	1.720205E-14	2.179624E-16
5.380000E+03	1.704620E-14	2.126662E-16
5.390000E+03	1.687315E-14	2.070741E-16
5.400000E+03	1.668700E-14	2.014626E-16
5.410000E+03	1.649102E-14	1.961205E-16
5.420000E+03	1.628753E-14	1.913181E-16
5.430000E+03	1.607784E-14	1.872649E-16
5.440000E+03	1.586149E-14	1.840331E-16
5.450000E+03	1.563592E-14	1.815019E-16
5.460000E+03	1.539807E-14	1.794462E-16
5.470000E+03	1.514488E-14	1.776207E-16
5.480000E+03	1.487439E-14	1.758131E-16
5.490000E+03	1.458515E-14	1.738567E-16
5.500000E+03	1.427725E-14	1.716426E-16
5.510000E+03	1.395113E-14	1.690994E-16
5.520000E+03	1.360807E-14	1.661978E-16
5.530000E+03	1.325026E-14	1.629481E-16
5.540000E+03	1.288009E-14	1.593851E-16
5.550000E+03	1.250033E-14	1.555638E-16
5.560000E+03	1.211434E-14	1.515567E-16
5.570000E+03	1.172522E-14	1.474389E-16
5.580000E+03	1.133629E-14	1.432884E-16
5.590000E+03	1.095097E-14	1.391792E-16
5.600000E+03	1.057272E-14	1.351763E-16
5.610000E+03	1.020508E-14	1.313331E-16
5.620000E+03	9.851642E-15	1.276909E-16
5.630000E+03	9.515977E-15	1.242808E-16
5.640000E+03	9.201606E-15	1.211288E-16
5.650000E+03	8.911917E-15	1.182597E-16
5.660000E+03	8.650113E-15	1.157008E-16
5.670000E+03	8.419247E-15	1.134843E-16
5.680000E+03	8.221926E-15	1.116425E-16
5.690000E+03	8.060480E-15	1.102083E-16
5.700000E+03	7.937284E-15	1.092172E-16
5.710000E+03	7.853903E-15	1.086935E-16
5.720000E+03	7.812111E-15	1.086643E-16
5.730000E+03	7.812883E-15	1.091455E-16
5.740000E+03	7.857383E-15	1.101582E-16
5.750000E+03	7.945921E-15	1.117154E-16
5.760000E+03	8.078886E-15	1.138365E-16
5.770000E+03	8.255786E-15	1.165325E-16
5.780000E+03	8.475407E-15	1.198063E-16
5.790000E+03	8.735796E-15	1.236476E-16
5.800000E+03	9.033864E-15	1.280222E-16
5.810000E+03	9.364963E-15	1.328617E-16
5.820000E+03	9.723000E-15	1.380631E-16
5.830000E+03	1.010037E-14	1.434894E-16
5.840000E+03	1.048765E-14	1.489688E-16
5.850000E+03	1.087421E-14	1.543096E-16
5.860000E+03	1.124822E-14	1.593074E-16
5.870000E+03	1.159732E-14	1.637631E-16
5.880000E+03	1.190880E-14	1.674926E-16
5.890000E+03	1.217119E-14	1.703556E-16
5.900000E+03	1.237427E-14	1.722572E-16
5.910000E+03	1.250998E-14	1.731573E-16
5.920000E+03	1.257303E-14	1.730686E-16
5.930000E+03	1.256118E-14	1.720468E-16
5.940000E+03	1.247541E-14	1.701776E-16
5.950000E+03	1.231932E-14	1.675565E-16
5.960000E+03	1.209884E-14	1.642780E-16
5.970000E+03	1.182162E-14	1.604307E-16
5.980000E+03	1.149628E-14	1.560941E-16
5.990000E+03	1.113136E-14	1.513371E-16
6.000000E+03	1.073586E-14	1.462360E-16
6.010000E+03	1.031821E-14	1.408695E-16
6.020000E+03	9.886105E-15	1.353189E-16
6.030000E+03	9.446908E-15	1.296725E-16
6.040000E+03	9.007599E-15	1.240192E-16
6.050000E+03	8.574274E-15	1.184348E-16
6.060000E+03	8.153213E-15	1.129908E-16
6.070000E+03	7.749927E-15	1.077390E-16
6.080000E+03	7.369762E-15	1.027216E-16
6.090000E+03	7.017527E-15	9.797141E-17
6.100000E+03	6.697674E-15	9.352071E-17
6.110000E+03	6.413881E-15	8.940012E-17
6.120000E+03	6.169208E-15	8.564222E-17
6.130000E+03	5.966106E-15	8.228018E-17
6.140000E+03	5.806445E-15	7.934486E-17
6.150000E+03	5.691483E-15	7.686057E-17
6.160000E+03	5.622047E-15	7.484505E-17
6.170000E+03	5.598412E-15	7.330784E-17
6.180000E+03	5.620673E-15	7.225840E-17
6.190000E+03	5.688125E-15	7.170389E-17
6.200000E+03	5.799708E-15	7.166250E-17
6.210000E+03	5.953531E-15	7.216467E-17
6.220000E+03	6.146885E-15	7.325866E-17
6.230000E+03	6.376058E-15	7.500769E-17
6.240000E+03	6.636528E-15	7.747891E-17
6.250000E+03	6.923372E-15	8.070372E-17
6.260000E+03	7.231781E-15	8.462993E-17
6.270000E+03	7.557156E-15	8.914466E-17
6.280000E+03	7.894631E-15	9.410388E-17
6.290000E+03	8.238970E-15	9.934980E-17
6.300000E+03	8.584762E-15	1.047250E-16
6.310000E+03	8.926691E-15	1.100831E-16
6.320000E+03	9.259591E-15	1.152936E-16
6.330000E+03	9.578484E-15	1.202447E-16
6.340000E+03	9.878994E-15	1.248487E-16
6.350000E+03	1.015723E-14	1.290397E-16
6.360000E+03	1.041029E-14	1.327790E-16
6.370000E+03	1.063580E-14	1.360457E-16
6.380000E+03	1.083232E-14	1.388390E-16
6.390000E+03	1.099917E-14	1.411722E-16
6.400000E+03	1.113649E-14	1.430706E-16
6.410000E+03	1.124463E-14	1.445597E-16
6.420000E+03	1.132450E-14	1.456675E-16
6.430000E+03	1.137720E-14	1.464184E-16
6.440000E+03	1.140407E-14	1.468338E-16
6.450000E+03	1.140575E-14	1.469206E-16
6.460000E+03	1.138367E-14	1.466946E-16
6.470000E+03	1.133825E-14	1.461584E-16
6.480000E+03	1.127002E-14	1.453205E-16
6.490000E+03	1.117961E-14	1.441968E-16
6.500000E+03	1.106672E-14	1.427981E-16
6.510000E+03	1.093201E-14	1.411533E-16
6.520000E+03	1.077537E-14	1.392837E-16
6.530000E+03	1.059716E-14	1.372134E-16
6.540000E+03	1.039812E-14	1.349583E-16
6.550000E+03	1.017889E-14	1.325180E-16
6.560000E+03	9.940751E-15	1.298901E-16
6.570000E+03	9.685489E-15	1.270738E-16
6.580000E+03	9.415395E-15	1.240731E-16
6.590000E+03	9.133061E-15	1.208967E-16
6.600000E+03	8.841834E-15	1.175670E-16
6.610000E+03	8.544706E-15	1.141062E-16
6.620000E+03	8.245137E-15	1.105493E-16
6.630000E+03	7.946245E-15	1.069335E-16
6.640000E+03	7.651194E-15	1.033045E-16
6.650000E+03	7.362597E-15	9.970633E-17
6.660000E+03	7.082824E-15	9.618359E-17
6.670000E+03	6.813943E-15	9.277797E-17
6.680000E+03	6.557385E-15	8.952126E-17
6.690000E+03	6.314296E-15	8.643881E-17
6.700000E+03	6.085456E-15	8.354782E-17
6.710000E+03	5.871419E-15	8.085944E-17
6.720000E+03	5.672279E-15	7.837603E-17
6.730000E+03	5.488012E-15	7.609670E-17
6.740000E+03	5.318426E-15	7.401747E-17
6.750000E+03	5.163197E-15	7.213275E-17
6.760000E+03	5.021909E-15	7.043648E-17
6.770000E+03	4.894152E-15	6.892369E-17
6.780000E+03	4.779302E-15	6.758707E-17
6.790000E+03	4.676853E-15	6.642084E-17
6.800000E+03	4.586034E-15	6.541439E-17
6.810000E+03	4.506349E-15	6.455917E-17
6.820000E+03	4.437113E-15	6.384142E-17
6.830000E+03	4.377537E-15	6.324303E-17
6.840000E+03	4.326874E-15	6.274383E-17
6.850000E+03	4.284414E-15	6.232239E-17
6.860000E+03	4.249278E-15	6.195424E-17
6.870000E+03	4.220707E-15	6.161828E-17
6.880000E+03	4.197785E-15	6.129492E-17
6.890000E+03	4.179743E-15	6.097251E-17
6.900000E+03	4.165750E-15	6.064568E-17
6.910000E+03	4.154936E-15	6.031568E-17
6.920000E+03	4.146695E-15	5.999335E-17
6.930000E+03	4.140206E-15	5.968931E-17
6.940000E+03	4.134879E-15	5.941695E-17
6.950000E+03	4.130376E-15	5.918934E-17
6.960000E+03	4.126184E-15	5.901094E-17
6.970000E+03	4.122193E-15	5.888494E-17
6.980000E+03	4.118111E-15	5.880498E-17
6.990000E+03	4.113960E-15	5.876348E-17
7.000000E+03	4.109765E-15	5.874912E-17
7.010000E+03	4.105684E-15	5.875096E-17
7.020000E+03	4.101693E-15	5.875638E-17
7.030000E+03	4.098088E-15	5.876050E-17
7.040000E+03	4.094947E-15	5.875968E-17
7.050000E+03	4.092343E-15	5.875465E-17
7.060000E+03	4.090630E-15	5.875380E-17
7.070000E+03	4.089679E-15	5.876052E-17
7.080000E+03	4.089694E-15	5.878331E-17
7.090000E+03	4.090602E-15	5.882521E-17
7.100000E+03	4.092423E-15	5.888802E-17
7.110000E+03	4.094963E-15	5.896732E-17
7.120000E+03	4.098121E-15	5.905715E-17
7.130000E+03	4.101590E-15	5.914651E-17
7.140000E+03	4.105175E-15	5.922550E-17
7.150000E+03	4.108579E-15	5.928374E-17
7.160000E+03	4.111418E-15	5.931191E-17
7.170000E+03	4.113559E-15	5.930744E-17
7.180000E+03	4.114580E-15	5.926662E-17
7.190000E+03	4.114260E-15	5.919109E-17
7.200000E+03	4.112591E-15	5.908679E-17
7.210000E+03	4.109363E-15	5.895692E-17
7.220000E+03	4.104476E-15	5.880562E-17
7.230000E+03	4.097837E-15	5.863639E-17
7.240000E+03	4.089409E-15	5.845295E-17
7.250000E+03	4.078851E-15	5.825403E-17
7.260000E+03	4.066079E-15	5.804088E-17
7.270000E+03	4.050664E-15	5.780804E-17
7.280000E+03	4.032249E-15	5.754897E-17
7.290000E+03	4.010234E-15	5.725177E-17
7.300000E+03	3.984136E-15	5.690531E-17
7.310000E+03	3.953296E-15	5.649612E-17
7.320000E+03	3.917253E-15	5.601478E-17
7.330000E+03	3.875544E-15	5.545316E-17
7.340000E+03	3.827905E-15	5.480661E-17
7.350000E+03	3.774070E-15	5.406951E-17
7.360000E+03	3.714041E-15	5.323783E-17
7.370000E+03	3.648188E-15	5.231019E-17
7.380000E+03	3.576851E-15	5.128350E-17
7.390000E+03	3.500739E-15	5.016082E-17
7.400000E+03	3.420684E-15	4.894993E-17
7.410000E+03	3.337853E-15	4.766753E-17
7.420000E+03	3.253421E-15	4.633465E-17
7.430000E+03	3.168633E-15	4.497675E-17
7.440000E+03	3.084982E-15	4.362477E-17
7.450000E+03	3.003883E-15	4.230876E-17
7.460000E+03	2.926698E-15	4.105644E-17
7.470000E+03	2.854956E-15	3.989446E-17
7.480000E+03	2.789949E-15	3.884160E-17
7.490000E+03	2.732819E-15	3.790949E-17
7.500000E+03	2.684567E-15	3.710316E-17
7.510000E+03	2.645945E-15	3.642078E-17
7.520000E+03	2.617434E-15	3.585497E-17
7.530000E+03	2.599173E-15	3.539380E-17
7.540000E+03	2.591136E-15	3.502539E-17
7.550000E+03	2.592908E-15	3.473673E-17
7.560000E+03	2.603879E-15	3.451824E-17
7.570000E+03	2.623328E-15	3.436669E-17
7.580000E+03	2.650026E-15	3.428150E-17
7.590000E+03	2.682889E-15	3.427448E-17
7.600000E+03	2.720525E-15	3.436418E-17
7.610000E+03	2.761606E-15	3.457901E-17
7.620000E+03	2.804670E-15	3.495046E-17
7.630000E+03	2.848438E-15	3.550886E-17
7.640000E+03	2.891588E-15	3.626414E-17
7.650000E+03	2.933033E-15	3.719105E-17
7.660000E+03	2.971705E-15	3.823645E-17
7.670000E+03	3.006881E-15	3.934092E-17
7.680000E+03	3.037990E-15	4.044638E-17
7.690000E+03	3.064605E-15	4.150210E-17
7.700000E+03	3.086581E-15	4.247013E-17
7.710000E+03	3.104111E-15	4.332793E-17
7.720000E+03	3.117240E-15	4.406169E-17
7.730000E+03	3.126286E-15	4.467129E-17
7.740000E+03	3.131811E-15	4.516826E-17
7.750000E+03	3.134116E-15	4.556648E-17
7.760000E+03	3.133751E-15	4.588706E-17
