#wls	flux	fluxerr
1.600000E+03	6.639517E-15	1.412146E-15
1.640000E+03	6.183288E-15	1.188862E-15
1.680000E+03	5.713887E-15	9.833611E-16
1.720000E+03	5.236180E-15	7.972128E-16
1.760000E+03	4.756211E-15	6.316445E-16
1.800000E+03	4.280031E-15	4.872998E-16
1.840000E+03	3.814612E-15	3.643419E-16
1.880000E+03	3.367104E-15	2.623471E-16
1.920000E+03	2.944349E-15	1.803244E-16
1.960000E+03	2.553191E-15	1.168703E-16
2.000000E+03	2.199644E-15	7.038716E-17
2.040000E+03	1.888385E-15	3.974294E-17
2.080000E+03	1.622263E-15	2.513581E-17
2.120000E+03	1.404063E-15	2.267557E-17
2.160000E+03	1.238021E-15	2.164950E-17
2.200000E+03	1.126159E-15	1.875198E-17
2.240000E+03	1.068603E-15	1.603650E-17
2.280000E+03	1.065755E-15	1.786275E-17
2.320000E+03	1.119875E-15	2.475924E-17
2.360000E+03	1.235926E-15	3.433068E-17
2.400000E+03	1.422626E-15	4.531406E-17
2.440000E+03	1.692586E-15	5.657343E-17
2.480000E+03	2.061132E-15	6.612690E-17
2.520000E+03	2.544001E-15	7.075545E-17
2.560000E+03	3.153071E-15	6.699248E-17
2.600000E+03	3.890843E-15	5.902436E-17
2.640000E+03	4.743462E-15	8.123652E-17
2.680000E+03	5.682823E-15	1.519410E-16
2.720000E+03	6.669317E-15	2.541797E-16
2.760000E+03	7.650418E-15	3.762720E-16
2.800000E+03	8.568819E-15	5.073713E-16
2.840000E+03	9.372011E-15	6.355488E-16
2.880000E+03	1.002093E-14	7.490542E-16
2.920000E+03	1.049645E-14	8.382389E-16
2.960000E+03	1.080145E-14	8.970411E-16
3.000000E+03	1.095603E-14	9.233059E-16
3.010000E+03	1.097460E-14	9.248685E-16
3.020000E+03	1.098669E-14	9.245481E-16
3.030000E+03	1.099228E-14	9.223520E-16
3.040000E+03	1.099216E-14	9.183613E-16
3.050000E+03	1.098738E-14	9.126831E-16
3.060000E+03	1.097799E-14	9.053479E-16
3.070000E+03	1.096505E-14	8.964726E-16
3.080000E+03	1.094912E-14	8.861370E-16
3.090000E+03	1.093078E-14	8.744241E-16
3.100000E+03	1.091060E-14	8.614195E-16
3.110000E+03	1.088962E-14	8.472454E-16
3.120000E+03	1.086817E-14	8.319701E-16
3.130000E+03	1.084707E-14	8.156968E-16
3.140000E+03	1.082687E-14	7.985108E-16
3.150000E+03	1.080816E-14	7.804965E-16
3.160000E+03	1.079173E-14	7.617515E-16
3.170000E+03	1.077835E-14	7.423696E-16
3.180000E+03	1.076820E-14	7.224003E-16
3.190000E+03	1.076248E-14	7.019592E-16
3.200000E+03	1.076158E-14	6.811039E-16
3.210000E+03	1.076629E-14	6.599151E-16
3.220000E+03	1.077723E-14	6.384571E-16
3.230000E+03	1.079485E-14	6.167811E-16
3.240000E+03	1.082034E-14	5.949769E-16
3.250000E+03	1.085383E-14	5.730683E-16
3.260000E+03	1.089654E-14	5.511354E-16
3.270000E+03	1.094918E-14	5.292228E-16
3.280000E+03	1.101211E-14	5.073554E-16
3.290000E+03	1.108661E-14	4.855943E-16
3.300000E+03	1.117308E-14	4.639546E-16
3.310000E+03	1.127245E-14	4.424686E-16
3.320000E+03	1.138546E-14	4.211537E-16
3.330000E+03	1.151301E-14	4.000257E-16
3.340000E+03	1.165562E-14	3.790800E-16
3.350000E+03	1.181391E-14	3.583118E-16
3.360000E+03	1.198839E-14	3.377112E-16
3.370000E+03	1.217962E-14	3.172722E-16
3.380000E+03	1.238765E-14	2.969874E-16
3.390000E+03	1.261251E-14	2.768756E-16
3.400000E+03	1.285396E-14	2.569992E-16
3.410000E+03	1.311127E-14	2.374936E-16
3.420000E+03	1.338356E-14	2.186239E-16
3.430000E+03	1.366953E-14	2.008493E-16
3.440000E+03	1.396728E-14	1.849063E-16
3.450000E+03	1.427458E-14	1.718842E-16
3.460000E+03	1.458856E-14	1.631914E-16
3.470000E+03	1.490584E-14	1.602769E-16
3.480000E+03	1.522279E-14	1.639008E-16
3.490000E+03	1.553578E-14	1.732890E-16
3.500000E+03	1.584144E-14	1.868155E-16
3.510000E+03	1.613576E-14	2.028124E-16
3.520000E+03	1.641431E-14	2.199121E-16
3.530000E+03	1.667227E-14	2.371074E-16
3.540000E+03	1.690531E-14	2.537060E-16
3.550000E+03	1.710863E-14	2.692374E-16
3.560000E+03	1.727733E-14	2.833886E-16
3.570000E+03	1.740750E-14	2.959687E-16
3.580000E+03	1.749568E-14	3.068647E-16
3.590000E+03	1.753914E-14	3.160178E-16
3.600000E+03	1.753608E-14	3.234077E-16
3.610000E+03	1.748666E-14	3.290592E-16
3.620000E+03	1.739214E-14	3.330188E-16
3.630000E+03	1.725534E-14	3.353596E-16
3.640000E+03	1.708145E-14	3.361966E-16
3.650000E+03	1.687670E-14	3.356641E-16
3.660000E+03	1.664887E-14	3.339286E-16
3.670000E+03	1.640706E-14	3.311887E-16
3.680000E+03	1.616133E-14	3.276692E-16
3.690000E+03	1.592222E-14	3.236134E-16
3.700000E+03	1.570106E-14	3.192882E-16
3.710000E+03	1.550872E-14	3.149564E-16
3.720000E+03	1.535637E-14	3.108892E-16
3.730000E+03	1.525504E-14	3.073532E-16
3.740000E+03	1.521467E-14	3.045909E-16
3.750000E+03	1.524565E-14	3.028478E-16
3.760000E+03	1.535696E-14	3.023349E-16
3.770000E+03	1.555770E-14	3.032606E-16
3.780000E+03	1.585595E-14	3.058062E-16
3.790000E+03	1.625888E-14	3.101320E-16
3.800000E+03	1.677262E-14	3.163752E-16
3.810000E+03	1.740162E-14	3.246404E-16
3.820000E+03	1.814833E-14	3.349968E-16
3.830000E+03	1.901244E-14	3.474665E-16
3.840000E+03	1.998998E-14	3.620109E-16
3.850000E+03	2.107291E-14	3.785240E-16
3.860000E+03	2.224840E-14	3.968185E-16
3.870000E+03	2.349836E-14	4.166125E-16
3.880000E+03	2.479988E-14	4.375307E-16
3.890000E+03	2.612572E-14	4.591029E-16
3.900000E+03	2.744533E-14	4.807725E-16
3.910000E+03	2.872702E-14	5.019270E-16
3.920000E+03	2.993960E-14	5.219267E-16
3.930000E+03	3.105537E-14	5.401619E-16
3.940000E+03	3.205117E-14	5.560870E-16
3.950000E+03	3.291077E-14	5.692786E-16
3.960000E+03	3.362505E-14	5.794588E-16
3.970000E+03	3.419368E-14	5.865411E-16
3.980000E+03	3.462259E-14	5.905950E-16
3.990000E+03	3.492430E-14	5.918537E-16
4.000000E+03	3.511550E-14	5.906664E-16
4.010000E+03	3.521609E-14	5.874682E-16
4.020000E+03	3.524607E-14	5.827110E-16
4.030000E+03	3.522554E-14	5.768464E-16
4.040000E+03	3.517193E-14	5.702645E-16
4.050000E+03	3.510076E-14	5.632977E-16
4.060000E+03	3.502356E-14	5.561852E-16
4.070000E+03	3.494914E-14	5.490977E-16
4.080000E+03	3.488321E-14	5.421418E-16
4.090000E+03	3.482866E-14	5.353794E-16
4.100000E+03	3.478554E-14	5.288391E-16
4.110000E+03	3.475247E-14	5.225514E-16
4.120000E+03	3.472644E-14	5.165388E-16
4.130000E+03	3.470396E-14	5.108060E-16
4.140000E+03	3.468086E-14	5.053700E-16
4.150000E+03	3.465194E-14	5.002472E-16
4.160000E+03	3.461251E-14	4.954221E-16
4.170000E+03	3.455718E-14	4.908742E-16
4.180000E+03	3.448166E-14	4.865647E-16
4.190000E+03	3.438301E-14	4.823056E-16
4.200000E+03	3.425888E-14	4.778821E-16
4.210000E+03	3.410877E-14	4.730867E-16
4.220000E+03	3.393397E-14	4.676226E-16
4.230000E+03	3.373764E-14	4.612205E-16
4.240000E+03	3.352304E-14	4.536213E-16
4.250000E+03	3.329589E-14	4.445066E-16
4.260000E+03	3.306161E-14	4.335953E-16
4.270000E+03	3.282637E-14	4.206704E-16
4.280000E+03	3.259498E-14	4.054505E-16
4.290000E+03	3.237228E-14	3.877733E-16
4.300000E+03	3.216181E-14	3.676479E-16
4.310000E+03	3.196420E-14	3.452320E-16
4.320000E+03	3.177985E-14	3.210204E-16
4.330000E+03	3.160683E-14	2.959455E-16
4.340000E+03	3.144253E-14	2.714867E-16
4.350000E+03	3.128320E-14	2.498121E-16
4.360000E+03	3.112734E-14	2.336511E-16
4.370000E+03	3.097522E-14	2.252310E-16
4.380000E+03	3.083234E-14	2.250959E-16
4.390000E+03	3.070930E-14	2.324792E-16
4.400000E+03	3.062044E-14	2.453821E-16
4.410000E+03	3.058326E-14	2.613740E-16
4.420000E+03	3.061550E-14	2.786078E-16
4.430000E+03	3.072840E-14	2.957888E-16
4.440000E+03	3.092981E-14	3.122733E-16
4.450000E+03	3.122350E-14	3.278903E-16
4.460000E+03	3.160839E-14	3.426083E-16
4.470000E+03	3.207837E-14	3.565867E-16
4.480000E+03	3.262395E-14	3.700803E-16
4.490000E+03	3.323140E-14	3.831016E-16
4.500000E+03	3.388336E-14	3.956660E-16
4.510000E+03	3.455973E-14	4.078097E-16
4.520000E+03	3.523797E-14	4.193411E-16
4.530000E+03	3.589446E-14	4.300940E-16
4.540000E+03	3.650477E-14	4.399538E-16
4.550000E+03	3.704596E-14	4.486664E-16
4.560000E+03	3.749706E-14	4.560734E-16
4.570000E+03	3.783891E-14	4.621142E-16
4.580000E+03	3.805818E-14	4.666316E-16
4.590000E+03	3.814529E-14	4.695872E-16
4.600000E+03	3.809510E-14	4.710272E-16
4.610000E+03	3.790844E-14	4.707492E-16
4.620000E+03	3.759154E-14	4.686594E-16
4.630000E+03	3.715309E-14	4.648020E-16
4.640000E+03	3.660700E-14	4.591864E-16
4.650000E+03	3.596908E-14	4.519564E-16
4.660000E+03	3.525626E-14	4.433420E-16
4.670000E+03	3.448790E-14	4.334125E-16
4.680000E+03	3.368172E-14	4.222947E-16
4.690000E+03	3.285475E-14	4.101867E-16
4.700000E+03	3.202217E-14	3.971088E-16
4.710000E+03	3.119595E-14	3.831583E-16
4.720000E+03	3.038596E-14	3.685483E-16
4.730000E+03	2.959872E-14	3.534196E-16
4.740000E+03	2.883822E-14	3.380544E-16
4.750000E+03	2.810656E-14	3.228901E-16
4.760000E+03	2.740445E-14	3.083606E-16
4.770000E+03	2.673059E-14	2.950450E-16
4.780000E+03	2.608408E-14	2.836416E-16
4.790000E+03	2.546330E-14	2.746974E-16
4.800000E+03	2.486720E-14	2.685720E-16
4.810000E+03	2.429824E-14	2.650647E-16
4.820000E+03	2.376100E-14	2.633342E-16
4.830000E+03	2.326065E-14	2.625398E-16
4.840000E+03	2.280219E-14	2.620446E-16
4.850000E+03	2.239097E-14	2.613687E-16
4.860000E+03	2.203199E-14	2.602885E-16
4.870000E+03	2.172808E-14	2.587773E-16
4.880000E+03	2.148196E-14	2.568819E-16
4.890000E+03	2.129450E-14	2.547720E-16
4.900000E+03	2.116508E-14	2.526756E-16
4.910000E+03	2.108926E-14	2.506380E-16
4.920000E+03	2.106117E-14	2.487426E-16
4.930000E+03	2.107429E-14	2.471256E-16
4.940000E+03	2.112080E-14	2.457937E-16
4.950000E+03	2.119304E-14	2.448158E-16
4.960000E+03	2.128404E-14	2.442983E-16
4.970000E+03	2.139075E-14	2.441737E-16
4.980000E+03	2.151126E-14	2.444094E-16
4.990000E+03	2.164501E-14	2.450307E-16
5.000000E+03	2.179477E-14	2.459439E-16
5.010000E+03	2.196371E-14	2.471124E-16
5.020000E+03	2.215587E-14	2.485795E-16
5.030000E+03	2.237450E-14	2.502656E-16
5.040000E+03	2.262268E-14	2.521741E-16
5.050000E+03	2.290250E-14	2.543934E-16
5.060000E+03	2.321375E-14	2.568918E-16
5.070000E+03	2.355461E-14	2.597241E-16
5.080000E+03	2.392119E-14	2.630140E-16
5.090000E+03	2.430799E-14	2.667101E-16
5.100000E+03	2.470728E-14	2.708029E-16
5.110000E+03	2.510924E-14	2.752776E-16
5.120000E+03	2.550401E-14	2.797755E-16
5.130000E+03	2.588039E-14	2.839182E-16
5.140000E+03	2.622639E-14	2.874092E-16
5.150000E+03	2.653012E-14	2.898936E-16
5.160000E+03	2.678005E-14	2.911521E-16
5.170000E+03	2.696494E-14	2.911278E-16
5.180000E+03	2.707605E-14	2.897985E-16
5.190000E+03	2.710512E-14	2.873230E-16
5.200000E+03	2.704651E-14	2.839891E-16
5.210000E+03	2.689811E-14	2.798735E-16
5.220000E+03	2.666072E-14	2.751787E-16
5.230000E+03	2.633757E-14	2.701971E-16
5.240000E+03	2.593794E-14	2.649453E-16
5.250000E+03	2.547408E-14	2.595384E-16
5.260000E+03	2.495942E-14	2.541298E-16
5.270000E+03	2.441397E-14	2.485125E-16
5.280000E+03	2.385748E-14	2.425630E-16
5.290000E+03	2.330846E-14	2.363240E-16
5.300000E+03	2.278409E-14	2.297520E-16
5.310000E+03	2.229861E-14	2.229465E-16
5.320000E+03	2.186361E-14	2.161083E-16
5.330000E+03	2.148514E-14	2.092176E-16
5.340000E+03	2.116654E-14	2.023335E-16
5.350000E+03	2.090832E-14	1.955349E-16
5.360000E+03	2.070364E-14	1.885172E-16
5.370000E+03	2.054407E-14	1.810598E-16
5.380000E+03	2.042003E-14	1.731106E-16
5.390000E+03	2.031958E-14	1.645609E-16
5.400000E+03	2.023113E-14	1.555776E-16
5.410000E+03	2.014297E-14	1.466173E-16
5.420000E+03	2.004396E-14	1.381336E-16
5.430000E+03	1.992538E-14	1.307752E-16
5.440000E+03	1.978397E-14	1.249574E-16
5.450000E+03	1.962410E-14	1.200609E-16
5.460000E+03	1.945537E-14	1.155310E-16
5.470000E+03	1.928810E-14	1.116197E-16
5.480000E+03	1.913074E-14	1.094131E-16
5.490000E+03	1.899267E-14	1.105876E-16
5.500000E+03	1.888451E-14	1.160383E-16
5.510000E+03	1.881440E-14	1.246432E-16
5.520000E+03	1.879081E-14	1.348385E-16
5.530000E+03	1.881993E-14	1.454605E-16
5.540000E+03	1.889886E-14	1.555856E-16
5.550000E+03	1.902021E-14	1.646917E-16
5.560000E+03	1.917534E-14	1.725798E-16
5.570000E+03	1.935148E-14	1.790660E-16
5.580000E+03	1.953423E-14	1.841405E-16
5.590000E+03	1.970872E-14	1.879517E-16
5.600000E+03	1.986049E-14	1.905990E-16
5.610000E+03	1.997617E-14	1.923198E-16
5.620000E+03	2.004372E-14	1.934211E-16
5.630000E+03	2.005556E-14	1.939495E-16
5.640000E+03	2.000745E-14	1.940128E-16
5.650000E+03	1.989729E-14	1.937853E-16
5.660000E+03	1.972757E-14	1.932311E-16
5.670000E+03	1.950371E-14	1.924039E-16
5.680000E+03	1.923328E-14	1.914413E-16
5.690000E+03	1.892634E-14	1.902780E-16
5.700000E+03	1.859475E-14	1.889463E-16
5.710000E+03	1.825088E-14	1.875754E-16
5.720000E+03	1.790767E-14	1.861453E-16
5.730000E+03	1.757809E-14	1.847229E-16
5.740000E+03	1.727379E-14	1.834494E-16
5.750000E+03	1.700580E-14	1.823452E-16
5.760000E+03	1.678357E-14	1.814886E-16
5.770000E+03	1.661496E-14	1.810133E-16
5.780000E+03	1.650475E-14	1.809225E-16
5.790000E+03	1.645678E-14	1.812710E-16
5.800000E+03	1.647202E-14	1.821477E-16
5.810000E+03	1.654886E-14	1.835398E-16
5.820000E+03	1.668356E-14	1.854646E-16
5.830000E+03	1.687059E-14	1.879621E-16
5.840000E+03	1.710216E-14	1.909316E-16
5.850000E+03	1.736861E-14	1.942855E-16
5.860000E+03	1.765907E-14	1.979460E-16
5.870000E+03	1.796162E-14	2.016579E-16
5.880000E+03	1.826407E-14	2.051965E-16
5.890000E+03	1.855314E-14	2.083909E-16
5.900000E+03	1.881616E-14	2.109965E-16
5.910000E+03	1.904003E-14	2.128525E-16
5.920000E+03	1.921211E-14	2.138988E-16
5.930000E+03	1.932003E-14	2.140010E-16
5.940000E+03	1.935204E-14	2.131178E-16
5.950000E+03	1.929728E-14	2.112849E-16
5.960000E+03	1.914577E-14	2.084082E-16
5.970000E+03	1.888987E-14	2.044725E-16
5.980000E+03	1.852408E-14	1.995342E-16
5.990000E+03	1.804699E-14	1.935442E-16
6.000000E+03	1.746089E-14	1.865485E-16
6.010000E+03	1.677357E-14	1.786945E-16
6.020000E+03	1.599888E-14	1.700416E-16
6.030000E+03	1.515459E-14	1.607551E-16
6.040000E+03	1.426313E-14	1.511130E-16
6.050000E+03	1.335023E-14	1.413353E-16
6.060000E+03	1.244204E-14	1.317083E-16
6.070000E+03	1.156315E-14	1.225271E-16
6.080000E+03	1.073743E-14	1.139497E-16
6.090000E+03	9.984367E-15	1.061357E-16
6.100000E+03	9.318265E-15	9.923036E-17
6.110000E+03	8.749477E-15	9.325829E-17
6.120000E+03	8.284649E-15	8.825384E-17
6.130000E+03	7.927176E-15	8.425540E-17
6.140000E+03	7.677072E-15	8.120706E-17
6.150000E+03	7.533931E-15	7.907940E-17
6.160000E+03	7.497547E-15	7.787241E-17
6.170000E+03	7.566043E-15	7.752259E-17
6.180000E+03	7.738159E-15	7.800097E-17
6.190000E+03	8.012863E-15	7.930771E-17
6.200000E+03	8.386574E-15	8.135788E-17
6.210000E+03	8.853852E-15	8.409911E-17
6.220000E+03	9.406993E-15	8.753990E-17
6.230000E+03	1.003422E-14	9.165303E-17
6.240000E+03	1.071933E-14	9.646842E-17
6.250000E+03	1.144335E-14	1.020231E-16
6.260000E+03	1.218761E-14	1.081186E-16
6.270000E+03	1.293209E-14	1.145017E-16
6.280000E+03	1.365627E-14	1.209502E-16
6.290000E+03	1.434140E-14	1.271210E-16
6.300000E+03	1.496946E-14	1.327847E-16
6.310000E+03	1.552542E-14	1.378842E-16
6.320000E+03	1.599816E-14	1.422915E-16
6.330000E+03	1.637968E-14	1.460497E-16
6.340000E+03	1.666635E-14	1.493423E-16
6.350000E+03	1.685838E-14	1.520871E-16
6.360000E+03	1.695867E-14	1.542837E-16
6.370000E+03	1.697253E-14	1.560300E-16
6.380000E+03	1.690760E-14	1.571793E-16
6.390000E+03	1.677148E-14	1.576552E-16
6.400000E+03	1.657280E-14	1.574788E-16
6.410000E+03	1.632072E-14	1.564804E-16
6.420000E+03	1.602312E-14	1.545566E-16
6.430000E+03	1.568811E-14	1.516908E-16
6.440000E+03	1.532473E-14	1.477292E-16
6.450000E+03	1.494183E-14	1.426152E-16
6.460000E+03	1.454792E-14	1.364210E-16
6.470000E+03	1.415283E-14	1.292265E-16
6.480000E+03	1.376573E-14	1.212785E-16
6.490000E+03	1.339541E-14	1.130362E-16
6.500000E+03	1.305092E-14	1.051093E-16
6.510000E+03	1.274028E-14	9.836403E-17
6.520000E+03	1.246989E-14	9.384900E-17
6.530000E+03	1.224491E-14	9.243099E-17
6.540000E+03	1.206459E-14	9.417723E-17
6.550000E+03	1.192110E-14	9.822698E-17
6.560000E+03	1.180605E-14	1.035040E-16
6.570000E+03	1.171111E-14	1.091523E-16
6.580000E+03	1.162777E-14	1.146006E-16
6.590000E+03	1.154953E-14	1.194689E-16
6.600000E+03	1.147089E-14	1.235722E-16
6.610000E+03	1.138667E-14	1.268575E-16
6.620000E+03	1.129445E-14	1.293186E-16
6.630000E+03	1.119160E-14	1.310082E-16
6.640000E+03	1.107714E-14	1.320363E-16
6.650000E+03	1.095101E-14	1.324703E-16
6.660000E+03	1.081383E-14	1.324020E-16
6.670000E+03	1.066670E-14	1.319419E-16
6.680000E+03	1.051106E-14	1.311493E-16
6.690000E+03	1.034862E-14	1.300969E-16
6.700000E+03	1.018098E-14	1.288693E-16
6.710000E+03	1.001014E-14	1.275118E-16
6.720000E+03	9.837407E-15	1.260755E-16
6.730000E+03	9.664514E-15	1.246308E-16
6.740000E+03	9.492784E-15	1.232026E-16
6.750000E+03	9.323439E-15	1.218285E-16
6.760000E+03	9.157457E-15	1.205542E-16
6.770000E+03	8.995906E-15	1.193878E-16
6.780000E+03	8.839755E-15	1.183456E-16
6.790000E+03	8.689250E-15	1.174414E-16
6.800000E+03	8.545188E-15	1.166588E-16
6.810000E+03	8.407973E-15	1.159811E-16
6.820000E+03	8.277822E-15	1.153929E-16
6.830000E+03	8.155114E-15	1.148462E-16
6.840000E+03	8.040078E-15	1.142978E-16
6.850000E+03	7.932756E-15	1.137159E-16
6.860000E+03	7.833004E-15	1.130607E-16
6.870000E+03	7.740841E-15	1.123123E-16
6.880000E+03	7.656006E-15	1.114680E-16
6.890000E+03	7.578004E-15	1.105329E-16
6.900000E+03	7.506526E-15	1.095327E-16
6.910000E+03	7.441039E-15	1.084996E-16
6.920000E+03	7.380824E-15	1.074480E-16
6.930000E+03	7.325228E-15	1.063986E-16
6.940000E+03	7.273709E-15	1.053766E-16
6.950000E+03	7.225546E-15	1.043838E-16
6.960000E+03	7.180125E-15	1.034276E-16
6.970000E+03	7.136970E-15	1.025217E-16
6.980000E+03	7.095532E-15	1.016588E-16
6.990000E+03	7.055395E-15	1.008417E-16
7.000000E+03	7.016005E-15	1.000803E-16
7.010000E+03	6.977431E-15	9.937399E-17
7.020000E+03	6.939319E-15	9.872579E-17
7.030000E+03	6.901426E-15	9.814879E-17
7.040000E+03	6.863561E-15	9.763665E-17
7.050000E+03	6.825764E-15	9.719311E-17
7.060000E+03	6.787758E-15	9.682355E-17
7.070000E+03	6.749806E-15	9.652027E-17
7.080000E+03	6.711451E-15	9.627114E-17
7.090000E+03	6.672866E-15	9.607830E-17
7.100000E+03	6.633959E-15	9.591847E-17
7.110000E+03	6.594871E-15	9.577705E-17
7.120000E+03	6.555301E-15	9.563819E-17
7.130000E+03	6.515596E-15	9.547508E-17
7.140000E+03	6.475531E-15	9.525834E-17
7.150000E+03	6.435201E-15	9.497386E-17
7.160000E+03	6.394530E-15	9.460198E-17
7.170000E+03	6.353355E-15	9.413275E-17
7.180000E+03	6.311289E-15	9.356265E-17
7.190000E+03	6.267993E-15	9.288296E-17
7.200000E+03	6.223155E-15	9.209543E-17
7.210000E+03	6.176105E-15	9.120539E-17
7.220000E+03	6.126375E-15	9.021206E-17
7.230000E+03	6.073009E-15	8.911652E-17
7.240000E+03	6.015489E-15	8.793371E-17
7.250000E+03	5.952912E-15	8.665881E-17
7.260000E+03	5.884447E-15	8.529507E-17
7.270000E+03	5.809241E-15	8.385039E-17
7.280000E+03	5.726555E-15	8.231534E-17
7.290000E+03	5.635690E-15	8.068663E-17
7.300000E+03	5.536163E-15	7.896843E-17
7.310000E+03	5.427393E-15	7.714271E-17
7.320000E+03	5.309574E-15	7.520983E-17
7.330000E+03	5.182649E-15	7.317475E-17
7.340000E+03	5.047029E-15	7.103439E-17
7.350000E+03	4.903839E-15	6.880628E-17
7.360000E+03	4.753894E-15	6.651379E-17
7.370000E+03	4.598993E-15	6.418261E-17
7.380000E+03	4.440691E-15	6.184346E-17
7.390000E+03	4.280913E-15	5.953715E-17
7.400000E+03	4.121876E-15	5.729068E-17
7.410000E+03	3.965719E-15	5.513384E-17
7.420000E+03	3.814727E-15	5.310123E-17
7.430000E+03	3.671187E-15	5.121165E-17
7.440000E+03	3.537040E-15	4.948385E-17
7.450000E+03	3.414114E-15	4.793942E-17
7.460000E+03	3.304181E-15	4.658709E-17
7.470000E+03	3.208679E-15	4.543772E-17
7.480000E+03	3.128753E-15	4.450536E-17
7.490000E+03	3.065301E-15	4.379368E-17
7.500000E+03	3.019052E-15	4.330990E-17
7.510000E+03	2.990387E-15	4.305969E-17
7.520000E+03	2.979274E-15	4.303070E-17
7.530000E+03	2.985594E-15	4.320980E-17
7.540000E+03	3.008824E-15	4.357725E-17
7.550000E+03	3.048354E-15	4.409672E-17
7.560000E+03	3.103348E-15	4.472741E-17
7.570000E+03	3.172723E-15	4.543038E-17
7.580000E+03	3.255128E-15	4.616935E-17
7.590000E+03	3.348830E-15	4.691559E-17
7.600000E+03	3.451860E-15	4.765564E-17
7.610000E+03	3.562032E-15	4.839530E-17
7.620000E+03	3.676733E-15	4.915805E-17
7.630000E+03	3.793376E-15	4.998523E-17
7.640000E+03	3.909229E-15	5.090757E-17
7.650000E+03	4.022681E-15	5.191778E-17
7.660000E+03	4.132364E-15	5.297586E-17
7.670000E+03	4.237140E-15	5.403303E-17
7.680000E+03	4.336057E-15	5.505228E-17
7.690000E+03	4.428516E-15	5.601572E-17
7.700000E+03	4.514033E-15	5.690711E-17
7.710000E+03	4.592398E-15	5.773587E-17
7.720000E+03	4.663717E-15	5.853010E-17
7.730000E+03	4.728480E-15	5.929444E-17
7.740000E+03	4.787155E-15	6.004277E-17
7.750000E+03	4.840436E-15	6.079975E-17
7.760000E+03	4.889007E-15	6.155256E-17
