#wls	flux	fluxerr
1.600000E+03	2.356617E-15	5.294871E-16
1.640000E+03	2.122546E-15	4.354395E-16
1.680000E+03	1.899392E-15	3.531156E-16
1.720000E+03	1.689113E-15	2.821583E-16
1.760000E+03	1.493544E-15	2.220231E-16
1.800000E+03	1.314039E-15	1.719548E-16
1.840000E+03	1.151318E-15	1.310291E-16
1.880000E+03	1.005973E-15	9.827385E-17
1.920000E+03	8.778731E-16	7.264993E-17
1.960000E+03	7.667877E-16	5.316903E-17
2.000000E+03	6.721637E-16	3.890227E-17
2.040000E+03	5.932562E-16	2.899971E-17
2.080000E+03	5.292138E-16	2.264234E-17
2.120000E+03	4.794730E-16	1.893805E-17
2.160000E+03	4.434727E-16	1.694460E-17
2.200000E+03	4.211640E-16	1.605355E-17
2.240000E+03	4.125996E-16	1.607971E-17
2.280000E+03	4.184169E-16	1.708345E-17
2.320000E+03	4.392944E-16	1.905279E-17
2.360000E+03	4.763002E-16	2.185548E-17
2.400000E+03	5.308670E-16	2.531558E-17
2.440000E+03	6.049184E-16	2.923962E-17
2.480000E+03	7.001834E-16	3.342797E-17
2.520000E+03	8.177300E-16	3.781143E-17
2.560000E+03	9.572405E-16	4.276564E-17
2.600000E+03	1.115910E-15	4.949060E-17
2.640000E+03	1.288637E-15	5.989600E-17
2.680000E+03	1.468668E-15	7.533009E-17
2.720000E+03	1.648901E-15	9.564971E-17
2.760000E+03	1.821820E-15	1.195123E-16
2.800000E+03	1.980658E-15	1.450010E-16
2.840000E+03	2.119837E-15	1.700362E-16
2.880000E+03	2.235468E-15	1.926609E-16
2.920000E+03	2.325960E-15	2.112847E-16
2.960000E+03	2.392634E-15	2.248864E-16
3.000000E+03	2.439132E-15	2.330409E-16
3.010000E+03	2.448200E-15	2.342309E-16
3.020000E+03	2.456488E-15	2.350966E-16
3.030000E+03	2.464070E-15	2.356435E-16
3.040000E+03	2.471028E-15	2.358782E-16
3.050000E+03	2.477444E-15	2.358089E-16
3.060000E+03	2.483501E-15	2.354534E-16
3.070000E+03	2.489283E-15	2.348213E-16
3.080000E+03	2.494973E-15	2.339318E-16
3.090000E+03	2.500565E-15	2.327868E-16
3.100000E+03	2.506243E-15	2.314063E-16
3.110000E+03	2.512185E-15	2.298098E-16
3.120000E+03	2.518394E-15	2.280007E-16
3.130000E+03	2.525049E-15	2.259986E-16
3.140000E+03	2.532326E-15	2.238226E-16
3.150000E+03	2.540230E-15	2.214762E-16
3.160000E+03	2.549020E-15	2.189850E-16
3.170000E+03	2.558783E-15	2.163592E-16
3.180000E+03	2.569526E-15	2.136016E-16
3.190000E+03	2.581500E-15	2.107354E-16
3.200000E+03	2.594791E-15	2.077693E-16
3.210000E+03	2.609485E-15	2.047115E-16
3.220000E+03	2.625666E-15	2.015697E-16
3.230000E+03	2.643573E-15	1.983629E-16
3.240000E+03	2.663286E-15	1.950970E-16
3.250000E+03	2.684808E-15	1.917722E-16
3.260000E+03	2.708365E-15	1.884045E-16
3.270000E+03	2.734032E-15	1.849984E-16
3.280000E+03	2.761876E-15	1.815582E-16
3.290000E+03	2.791965E-15	1.780879E-16
3.300000E+03	2.824505E-15	1.746008E-16
3.310000E+03	2.859479E-15	1.710961E-16
3.320000E+03	2.897006E-15	1.675825E-16
3.330000E+03	2.937130E-15	1.640647E-16
3.340000E+03	2.979955E-15	1.605526E-16
3.350000E+03	3.025434E-15	1.570495E-16
3.360000E+03	3.073658E-15	1.535684E-16
3.370000E+03	3.124561E-15	1.501177E-16
3.380000E+03	3.178285E-15	1.467188E-16
3.390000E+03	3.234748E-15	1.433865E-16
3.400000E+03	3.293931E-15	1.401435E-16
3.410000E+03	3.355737E-15	1.370138E-16
3.420000E+03	3.420201E-15	1.340328E-16
3.430000E+03	3.487212E-15	1.312344E-16
3.440000E+03	3.556653E-15	1.286576E-16
3.450000E+03	3.628470E-15	1.263466E-16
3.460000E+03	3.702590E-15	1.243449E-16
3.470000E+03	3.778706E-15	1.226845E-16
3.480000E+03	3.856699E-15	1.213976E-16
3.490000E+03	3.936363E-15	1.205035E-16
3.500000E+03	4.017399E-15	1.200067E-16
3.510000E+03	4.099570E-15	1.199045E-16
3.520000E+03	4.182491E-15	1.201808E-16
3.530000E+03	4.266002E-15	1.208163E-16
3.540000E+03	4.349736E-15	1.217795E-16
3.550000E+03	4.433487E-15	1.230369E-16
3.560000E+03	4.517005E-15	1.245444E-16
3.570000E+03	4.599997E-15	1.262525E-16
3.580000E+03	4.682343E-15	1.281151E-16
3.590000E+03	4.763891E-15	1.300802E-16
3.600000E+03	4.844444E-15	1.320959E-16
3.610000E+03	4.923951E-15	1.341199E-16
3.620000E+03	5.002273E-15	1.361108E-16
3.630000E+03	5.079334E-15	1.380375E-16
3.640000E+03	5.155127E-15	1.398815E-16
3.650000E+03	5.229563E-15	1.416314E-16
3.660000E+03	5.302562E-15	1.432872E-16
3.670000E+03	5.374241E-15	1.448632E-16
3.680000E+03	5.444745E-15	1.463780E-16
3.690000E+03	5.514268E-15	1.478530E-16
3.700000E+03	5.583390E-15	1.493081E-16
3.710000E+03	5.653212E-15	1.507488E-16
3.720000E+03	5.725243E-15	1.521753E-16
3.730000E+03	5.801001E-15	1.535822E-16
3.740000E+03	5.882205E-15	1.549625E-16
3.750000E+03	5.970703E-15	1.563126E-16
3.760000E+03	6.068218E-15	1.576289E-16
3.770000E+03	6.176271E-15	1.589040E-16
3.780000E+03	6.296409E-15	1.601369E-16
3.790000E+03	6.429898E-15	1.613269E-16
3.800000E+03	6.577754E-15	1.624723E-16
3.810000E+03	6.740462E-15	1.635692E-16
3.820000E+03	6.918418E-15	1.646236E-16
3.830000E+03	7.111266E-15	1.656347E-16
3.840000E+03	7.318022E-15	1.666058E-16
3.850000E+03	7.537349E-15	1.675529E-16
3.860000E+03	7.766862E-15	1.684855E-16
3.870000E+03	8.003468E-15	1.694230E-16
3.880000E+03	8.243848E-15	1.703983E-16
3.890000E+03	8.483671E-15	1.714237E-16
3.900000E+03	8.718546E-15	1.725134E-16
3.910000E+03	8.943630E-15	1.736491E-16
3.920000E+03	9.154747E-15	1.747613E-16
3.930000E+03	9.347740E-15	1.757442E-16
3.940000E+03	9.519212E-15	1.764930E-16
3.950000E+03	9.666151E-15	1.768923E-16
3.960000E+03	9.786577E-15	1.768576E-16
3.970000E+03	9.879324E-15	1.763455E-16
3.980000E+03	9.944143E-15	1.753514E-16
3.990000E+03	9.981547E-15	1.739220E-16
4.000000E+03	9.993079E-15	1.721563E-16
4.010000E+03	9.981184E-15	1.701800E-16
4.020000E+03	9.948723E-15	1.681367E-16
4.030000E+03	9.899009E-15	1.661503E-16
4.040000E+03	9.835689E-15	1.642740E-16
4.050000E+03	9.762361E-15	1.625255E-16
4.060000E+03	9.682420E-15	1.609060E-16
4.070000E+03	9.598880E-15	1.593834E-16
4.080000E+03	9.514542E-15	1.579289E-16
4.090000E+03	9.431776E-15	1.565244E-16
4.100000E+03	9.352793E-15	1.551521E-16
4.110000E+03	9.279654E-15	1.538141E-16
4.120000E+03	9.213941E-15	1.525258E-16
4.130000E+03	9.157032E-15	1.512995E-16
4.140000E+03	9.109767E-15	1.501511E-16
4.150000E+03	9.072566E-15	1.490908E-16
4.160000E+03	9.044787E-15	1.480844E-16
4.170000E+03	9.025302E-15	1.470873E-16
4.180000E+03	9.012583E-15	1.460525E-16
4.190000E+03	9.004614E-15	1.449117E-16
4.200000E+03	8.999130E-15	1.436007E-16
4.210000E+03	8.993676E-15	1.420617E-16
4.220000E+03	8.986112E-15	1.402337E-16
4.230000E+03	8.974168E-15	1.380706E-16
4.240000E+03	8.955970E-15	1.355595E-16
4.250000E+03	8.929876E-15	1.327054E-16
4.260000E+03	8.894621E-15	1.295477E-16
4.270000E+03	8.848962E-15	1.261413E-16
4.280000E+03	8.792105E-15	1.225347E-16
4.290000E+03	8.723569E-15	1.187940E-16
4.300000E+03	8.643228E-15	1.150040E-16
4.310000E+03	8.551130E-15	1.112405E-16
4.320000E+03	8.448100E-15	1.076039E-16
4.330000E+03	8.335389E-15	1.042066E-16
4.340000E+03	8.215253E-15	1.011451E-16
4.350000E+03	8.090488E-15	9.851395E-17
4.360000E+03	7.964746E-15	9.639202E-17
4.370000E+03	7.842715E-15	9.479831E-17
4.380000E+03	7.729964E-15	9.372312E-17
4.390000E+03	7.632004E-15	9.313914E-17
4.400000E+03	7.554446E-15	9.299291E-17
4.410000E+03	7.502397E-15	9.324274E-17
4.420000E+03	7.480614E-15	9.387699E-17
4.430000E+03	7.493069E-15	9.489071E-17
4.440000E+03	7.543399E-15	9.631492E-17
4.450000E+03	7.634816E-15	9.821885E-17
4.460000E+03	7.770333E-15	1.006913E-16
4.470000E+03	7.952650E-15	1.038483E-16
4.480000E+03	8.183844E-15	1.077991E-16
4.490000E+03	8.464975E-15	1.125896E-16
4.500000E+03	8.795992E-15	1.182313E-16
4.510000E+03	9.175534E-15	1.247028E-16
4.520000E+03	9.600224E-15	1.319024E-16
4.530000E+03	1.006451E-14	1.396857E-16
4.540000E+03	1.056067E-14	1.478951E-16
4.550000E+03	1.107851E-14	1.563504E-16
4.560000E+03	1.160521E-14	1.648819E-16
4.570000E+03	1.212590E-14	1.733545E-16
4.580000E+03	1.262380E-14	1.816509E-16
4.590000E+03	1.308144E-14	1.896920E-16
4.600000E+03	1.348162E-14	1.973872E-16
4.610000E+03	1.381074E-14	2.045806E-16
4.620000E+03	1.405772E-14	2.110668E-16
4.630000E+03	1.421646E-14	2.166315E-16
4.640000E+03	1.428621E-14	2.210136E-16
4.650000E+03	1.427142E-14	2.239881E-16
4.660000E+03	1.417948E-14	2.253942E-16
4.670000E+03	1.402149E-14	2.251528E-16
4.680000E+03	1.381016E-14	2.232815E-16
4.690000E+03	1.355866E-14	2.199010E-16
4.700000E+03	1.328032E-14	2.152122E-16
4.710000E+03	1.298768E-14	2.094842E-16
4.720000E+03	1.269193E-14	2.030232E-16
4.730000E+03	1.240276E-14	1.961390E-16
4.740000E+03	1.212794E-14	1.891393E-16
4.750000E+03	1.187370E-14	1.823153E-16
4.760000E+03	1.164336E-14	1.758911E-16
4.770000E+03	1.143917E-14	1.700730E-16
4.780000E+03	1.126227E-14	1.650565E-16
4.790000E+03	1.111268E-14	1.609991E-16
4.800000E+03	1.098997E-14	1.579969E-16
4.810000E+03	1.089298E-14	1.559992E-16
4.820000E+03	1.081989E-14	1.548099E-16
4.830000E+03	1.076816E-14	1.541861E-16
4.840000E+03	1.073522E-14	1.538918E-16
4.850000E+03	1.071816E-14	1.537029E-16
4.860000E+03	1.071411E-14	1.534492E-16
4.870000E+03	1.071960E-14	1.530267E-16
4.880000E+03	1.073146E-14	1.524049E-16
4.890000E+03	1.074575E-14	1.516176E-16
4.900000E+03	1.075841E-14	1.507414E-16
4.910000E+03	1.076435E-14	1.498374E-16
4.920000E+03	1.075845E-14	1.489772E-16
4.930000E+03	1.073547E-14	1.482018E-16
4.940000E+03	1.069148E-14	1.474760E-16
4.950000E+03	1.062285E-14	1.467231E-16
4.960000E+03	1.052830E-14	1.458659E-16
4.970000E+03	1.040876E-14	1.447954E-16
4.980000E+03	1.026706E-14	1.434255E-16
4.990000E+03	1.010699E-14	1.417091E-16
5.000000E+03	9.934020E-15	1.396322E-16
5.010000E+03	9.754045E-15	1.372240E-16
5.020000E+03	9.572892E-15	1.345453E-16
5.030000E+03	9.396505E-15	1.316605E-16
5.040000E+03	9.230339E-15	1.286560E-16
5.050000E+03	9.079434E-15	1.256451E-16
5.060000E+03	8.948031E-15	1.227396E-16
5.070000E+03	8.839861E-15	1.200686E-16
5.080000E+03	8.758123E-15	1.177608E-16
5.090000E+03	8.705710E-15	1.159116E-16
5.100000E+03	8.685182E-15	1.146053E-16
5.110000E+03	8.698762E-15	1.138943E-16
5.120000E+03	8.748432E-15	1.137539E-16
5.130000E+03	8.835762E-15	1.141306E-16
5.140000E+03	8.962506E-15	1.149704E-16
5.150000E+03	9.129300E-15	1.161809E-16
5.160000E+03	9.336850E-15	1.176847E-16
5.170000E+03	9.585055E-15	1.194228E-16
5.180000E+03	9.872661E-15	1.213308E-16
5.190000E+03	1.019774E-14	1.233828E-16
5.200000E+03	1.055683E-14	1.255882E-16
5.210000E+03	1.094485E-14	1.279652E-16
5.220000E+03	1.135522E-14	1.305771E-16
5.230000E+03	1.177978E-14	1.335015E-16
5.240000E+03	1.220911E-14	1.367513E-16
5.250000E+03	1.263269E-14	1.403215E-16
5.260000E+03	1.304000E-14	1.441730E-16
5.270000E+03	1.342156E-14	1.481431E-16
5.280000E+03	1.376919E-14	1.520357E-16
5.290000E+03	1.407596E-14	1.556672E-16
5.300000E+03	1.433748E-14	1.588365E-16
5.310000E+03	1.455130E-14	1.613878E-16
5.320000E+03	1.471727E-14	1.632140E-16
5.330000E+03	1.483757E-14	1.641855E-16
5.340000E+03	1.491586E-14	1.642198E-16
5.350000E+03	1.495706E-14	1.633097E-16
5.360000E+03	1.496652E-14	1.614663E-16
5.370000E+03	1.494954E-14	1.587795E-16
5.380000E+03	1.491119E-14	1.554221E-16
5.390000E+03	1.485500E-14	1.515815E-16
5.400000E+03	1.478395E-14	1.475176E-16
5.410000E+03	1.469964E-14	1.435180E-16
5.420000E+03	1.460249E-14	1.398025E-16
5.430000E+03	1.449123E-14	1.365614E-16
5.440000E+03	1.436396E-14	1.338905E-16
5.450000E+03	1.421680E-14	1.316415E-16
5.460000E+03	1.404565E-14	1.296005E-16
5.470000E+03	1.384684E-14	1.275797E-16
5.480000E+03	1.361863E-14	1.253948E-16
5.490000E+03	1.336040E-14	1.229532E-16
5.500000E+03	1.307285E-14	1.202456E-16
5.510000E+03	1.275841E-14	1.172615E-16
5.520000E+03	1.242008E-14	1.140516E-16
5.530000E+03	1.206181E-14	1.107017E-16
5.540000E+03	1.168803E-14	1.072358E-16
5.550000E+03	1.130336E-14	1.037090E-16
5.560000E+03	1.091229E-14	1.002136E-16
5.570000E+03	1.051920E-14	9.680639E-17
5.580000E+03	1.012799E-14	9.357605E-17
5.590000E+03	9.742356E-15	9.062224E-17
5.600000E+03	9.366277E-15	8.797710E-17
5.610000E+03	9.002915E-15	8.566617E-17
5.620000E+03	8.655909E-15	8.370475E-17
5.630000E+03	8.328507E-15	8.202010E-17
5.640000E+03	8.023968E-15	8.054817E-17
5.650000E+03	7.745307E-15	7.926418E-17
5.660000E+03	7.495196E-15	7.814153E-17
5.670000E+03	7.276051E-15	7.719064E-17
5.680000E+03	7.089999E-15	7.645109E-17
5.690000E+03	6.938916E-15	7.594684E-17
5.700000E+03	6.824543E-15	7.571444E-17
5.710000E+03	6.748316E-15	7.578931E-17
5.720000E+03	6.711147E-15	7.616248E-17
5.730000E+03	6.713870E-15	7.682537E-17
5.740000E+03	6.757077E-15	7.778353E-17
5.750000E+03	6.840773E-15	7.903191E-17
5.760000E+03	6.964812E-15	8.058716E-17
5.770000E+03	7.128924E-15	8.249096E-17
5.780000E+03	7.331791E-15	8.477373E-17
5.790000E+03	7.571710E-15	8.747973E-17
5.800000E+03	7.845670E-15	9.062629E-17
5.810000E+03	8.149309E-15	9.414115E-17
5.820000E+03	8.476417E-15	9.790044E-17
5.830000E+03	8.819597E-15	1.017595E-16
5.840000E+03	9.170000E-15	1.055232E-16
5.850000E+03	9.517335E-15	1.089901E-16
5.860000E+03	9.850653E-15	1.119731E-16
5.870000E+03	1.015885E-14	1.142776E-16
5.880000E+03	1.043051E-14	1.157531E-16
5.890000E+03	1.065558E-14	1.163337E-16
5.900000E+03	1.082536E-14	1.160110E-16
5.910000E+03	1.093343E-14	1.148838E-16
5.920000E+03	1.097639E-14	1.131377E-16
5.930000E+03	1.095422E-14	1.109694E-16
5.940000E+03	1.087001E-14	1.086132E-16
5.950000E+03	1.072928E-14	1.062707E-16
5.960000E+03	1.053950E-14	1.039970E-16
5.970000E+03	1.030947E-14	1.018030E-16
5.980000E+03	1.004771E-14	9.967482E-17
5.990000E+03	9.761243E-15	9.751225E-17
6.000000E+03	9.456651E-15	9.524197E-17
6.010000E+03	9.139181E-15	9.284363E-17
6.020000E+03	8.813137E-15	9.030701E-17
6.030000E+03	8.481532E-15	8.766736E-17
6.040000E+03	8.147679E-15	8.500135E-17
6.050000E+03	7.814243E-15	8.235377E-17
6.060000E+03	7.483974E-15	7.977116E-17
6.070000E+03	7.160240E-15	7.727532E-17
6.080000E+03	6.847420E-15	7.481406E-17
6.090000E+03	6.550213E-15	7.233246E-17
6.100000E+03	6.273124E-15	6.981039E-17
6.110000E+03	6.020775E-15	6.725016E-17
6.120000E+03	5.797304E-15	6.469050E-17
6.130000E+03	5.606556E-15	6.220582E-17
6.140000E+03	5.452005E-15	5.988007E-17
6.150000E+03	5.336690E-15	5.780759E-17
6.160000E+03	5.263023E-15	5.606387E-17
6.170000E+03	5.232140E-15	5.466628E-17
6.180000E+03	5.244315E-15	5.361698E-17
6.190000E+03	5.299460E-15	5.292623E-17
6.200000E+03	5.396169E-15	5.259149E-17
6.210000E+03	5.532447E-15	5.263420E-17
6.220000E+03	5.705649E-15	5.309397E-17
6.230000E+03	5.912009E-15	5.398873E-17
6.240000E+03	6.146570E-15	5.534138E-17
6.250000E+03	6.404423E-15	5.716588E-17
6.260000E+03	6.680911E-15	5.939740E-17
6.270000E+03	6.971625E-15	6.194806E-17
6.280000E+03	7.271872E-15	6.472898E-17
6.290000E+03	7.577023E-15	6.762058E-17
6.300000E+03	7.882377E-15	7.052453E-17
6.310000E+03	8.183360E-15	7.336866E-17
6.320000E+03	8.475573E-15	7.605266E-17
6.330000E+03	8.754749E-15	7.850524E-17
6.340000E+03	9.017211E-15	8.069550E-17
6.350000E+03	9.259810E-15	8.257471E-17
6.360000E+03	9.479991E-15	8.413766E-17
6.370000E+03	9.675866E-15	8.542001E-17
6.380000E+03	9.846558E-15	8.642902E-17
6.390000E+03	9.991643E-15	8.720766E-17
6.400000E+03	1.011137E-14	8.782937E-17
6.410000E+03	1.020653E-14	8.831203E-17
6.420000E+03	1.027840E-14	8.869649E-17
6.430000E+03	1.032795E-14	8.903183E-17
6.440000E+03	1.035646E-14	8.928901E-17
6.450000E+03	1.036499E-14	8.944849E-17
6.460000E+03	1.035434E-14	8.951114E-17
6.470000E+03	1.032452E-14	8.941347E-17
6.480000E+03	1.027586E-14	8.912590E-17
6.490000E+03	1.020782E-14	8.865528E-17
6.500000E+03	1.011988E-14	8.797747E-17
6.510000E+03	1.001152E-14	8.711159E-17
6.520000E+03	9.881900E-15	8.611062E-17
6.530000E+03	9.730846E-15	8.498737E-17
6.540000E+03	9.558214E-15	8.377179E-17
6.550000E+03	9.364012E-15	8.249547E-17
6.560000E+03	9.149609E-15	8.112608E-17
6.570000E+03	8.916410E-15	7.964050E-17
6.580000E+03	8.666943E-15	7.804472E-17
6.590000E+03	8.403961E-15	7.630476E-17
6.600000E+03	8.130959E-15	7.441799E-17
6.610000E+03	7.851447E-15	7.240443E-17
6.620000E+03	7.569104E-15	7.025133E-17
6.630000E+03	7.287485E-15	6.797383E-17
6.640000E+03	7.009694E-15	6.562085E-17
6.650000E+03	6.738684E-15	6.323354E-17
6.660000E+03	6.476965E-15	6.087787E-17
6.670000E+03	6.226244E-15	5.862179E-17
6.680000E+03	5.988010E-15	5.649103E-17
6.690000E+03	5.763237E-15	5.451317E-17
6.700000E+03	5.552525E-15	5.271709E-17
6.710000E+03	5.356187E-15	5.109457E-17
6.720000E+03	5.174048E-15	4.964142E-17
6.730000E+03	5.006106E-15	4.836224E-17
6.740000E+03	4.851978E-15	4.722974E-17
6.750000E+03	4.711363E-15	4.622900E-17
6.760000E+03	4.583759E-15	4.535926E-17
6.770000E+03	4.468700E-15	4.460710E-17
6.780000E+03	4.365771E-15	4.397364E-17
6.790000E+03	4.274476E-15	4.346849E-17
6.800000E+03	4.194228E-15	4.307943E-17
6.810000E+03	4.124571E-15	4.280047E-17
6.820000E+03	4.064878E-15	4.262742E-17
6.830000E+03	4.014647E-15	4.253450E-17
6.840000E+03	3.973074E-15	4.249377E-17
6.850000E+03	3.939515E-15	4.248049E-17
6.860000E+03	3.913116E-15	4.244708E-17
6.870000E+03	3.893181E-15	4.235256E-17
6.880000E+03	3.878805E-15	4.216845E-17
6.890000E+03	3.869059E-15	4.186868E-17
6.900000E+03	3.863196E-15	4.145115E-17
6.910000E+03	3.860232E-15	4.093792E-17
6.920000E+03	3.859481E-15	4.036837E-17
6.930000E+03	3.860038E-15	3.980204E-17
6.940000E+03	3.861373E-15	3.930337E-17
6.950000E+03	3.862949E-15	3.890316E-17
6.960000E+03	3.864361E-15	3.862575E-17
6.970000E+03	3.865603E-15	3.849010E-17
6.980000E+03	3.866453E-15	3.847595E-17
6.990000E+03	3.867071E-15	3.856134E-17
7.000000E+03	3.867670E-15	3.872408E-17
7.010000E+03	3.868310E-15	3.891591E-17
7.020000E+03	3.869347E-15	3.909955E-17
7.030000E+03	3.870941E-15	3.925656E-17
7.040000E+03	3.873387E-15	3.937421E-17
7.050000E+03	3.876834E-15	3.946042E-17
7.060000E+03	3.881475E-15	3.953932E-17
7.070000E+03	3.887459E-15	3.962380E-17
7.080000E+03	3.894897E-15	3.973483E-17
7.090000E+03	3.903904E-15	3.989581E-17
7.100000E+03	3.914424E-15	4.010254E-17
7.110000E+03	3.926251E-15	4.034819E-17
7.120000E+03	3.939171E-15	4.062573E-17
7.130000E+03	3.952858E-15	4.090282E-17
7.140000E+03	3.967065E-15	4.115185E-17
7.150000E+03	3.981147E-15	4.135386E-17
7.160000E+03	3.994816E-15	4.148916E-17
7.170000E+03	4.007643E-15	4.155355E-17
7.180000E+03	4.019270E-15	4.156040E-17
7.190000E+03	4.029394E-15	4.151866E-17
7.200000E+03	4.037964E-15	4.145220E-17
7.210000E+03	4.044958E-15	4.138757E-17
7.220000E+03	4.050506E-15	4.132584E-17
7.230000E+03	4.054734E-15	4.127069E-17
7.240000E+03	4.057971E-15	4.123893E-17
7.250000E+03	4.060217E-15	4.123495E-17
7.260000E+03	4.061539E-15	4.127480E-17
7.270000E+03	4.061658E-15	4.137181E-17
7.280000E+03	4.060098E-15	4.150580E-17
7.290000E+03	4.056366E-15	4.165496E-17
7.300000E+03	4.049557E-15	4.179902E-17
7.310000E+03	4.039012E-15	4.190483E-17
7.320000E+03	4.023799E-15	4.194880E-17
7.330000E+03	4.003206E-15	4.192919E-17
7.340000E+03	3.976620E-15	4.184494E-17
7.350000E+03	3.943381E-15	4.170516E-17
7.360000E+03	3.903266E-15	4.151493E-17
7.370000E+03	3.856085E-15	4.123763E-17
7.380000E+03	3.802015E-15	4.083376E-17
7.390000E+03	3.741417E-15	4.028023E-17
7.400000E+03	3.674799E-15	3.956131E-17
7.410000E+03	3.602915E-15	3.868579E-17
7.420000E+03	3.526672E-15	3.768165E-17
7.430000E+03	3.447379E-15	3.657974E-17
7.440000E+03	3.366303E-15	3.542372E-17
7.450000E+03	3.285054E-15	3.426960E-17
7.460000E+03	3.205534E-15	3.316533E-17
7.470000E+03	3.129647E-15	3.216096E-17
7.480000E+03	3.059263E-15	3.129724E-17
7.490000E+03	2.996235E-15	3.058230E-17
7.500000E+03	2.942333E-15	3.001600E-17
7.510000E+03	2.898922E-15	2.959139E-17
7.520000E+03	2.866799E-15	2.927732E-17
7.530000E+03	2.846263E-15	2.904224E-17
7.540000E+03	2.837419E-15	2.886632E-17
7.550000E+03	2.839750E-15	2.872672E-17
7.560000E+03	2.852333E-15	2.861339E-17
7.570000E+03	2.874056E-15	2.853139E-17
7.580000E+03	2.903454E-15	2.848662E-17
7.590000E+03	2.938888E-15	2.850214E-17
7.600000E+03	2.978431E-15	2.861381E-17
7.610000E+03	3.020327E-15	2.885442E-17
7.620000E+03	3.062671E-15	2.926152E-17
7.630000E+03	3.103922E-15	2.986826E-17
7.640000E+03	3.142608E-15	3.066219E-17
7.650000E+03	3.177685E-15	3.159891E-17
7.660000E+03	3.208166E-15	3.261799E-17
7.670000E+03	3.233554E-15	3.364821E-17
7.680000E+03	3.253526E-15	3.462854E-17
7.690000E+03	3.267968E-15	3.551544E-17
7.700000E+03	3.276955E-15	3.627100E-17
7.710000E+03	3.280899E-15	3.687855E-17
7.720000E+03	3.280253E-15	3.734073E-17
7.730000E+03	3.275592E-15	3.766718E-17
7.740000E+03	3.267560E-15	3.788368E-17
7.750000E+03	3.256728E-15	3.802613E-17
7.760000E+03	3.243882E-15	3.812736E-17
