#wls	flux	fluxerr
1.600000E+03	1.175101E-15	2.757837E-16
1.640000E+03	1.063719E-15	2.291262E-16
1.680000E+03	9.592958E-16	1.883841E-16
1.720000E+03	8.625217E-16	1.532633E-16
1.760000E+03	7.739762E-16	1.233948E-16
1.800000E+03	6.936525E-16	9.828377E-17
1.840000E+03	6.217372E-16	7.746523E-17
1.880000E+03	5.580358E-16	6.043293E-17
1.920000E+03	5.023349E-16	4.671362E-17
1.960000E+03	4.543191E-16	3.587283E-17
2.000000E+03	4.136704E-16	2.754021E-17
2.040000E+03	3.799738E-16	2.140869E-17
2.080000E+03	3.529112E-16	1.721837E-17
2.120000E+03	3.323173E-16	1.465461E-17
2.160000E+03	3.182611E-16	1.329337E-17
2.200000E+03	3.109540E-16	1.279306E-17
2.240000E+03	3.106824E-16	1.302137E-17
2.280000E+03	3.178497E-16	1.398015E-17
2.320000E+03	3.328876E-16	1.559028E-17
2.360000E+03	3.563595E-16	1.767714E-17
2.400000E+03	3.888171E-16	2.006157E-17
2.440000E+03	4.307324E-16	2.258389E-17
2.480000E+03	4.823574E-16	2.513036E-17
2.520000E+03	5.434274E-16	2.771317E-17
2.560000E+03	6.127016E-16	3.061929E-17
2.600000E+03	6.881823E-16	3.456641E-17
2.640000E+03	7.669416E-16	4.048883E-17
2.680000E+03	8.458523E-16	4.888368E-17
2.720000E+03	9.223118E-16	5.948856E-17
2.760000E+03	9.937498E-16	7.152691E-17
2.800000E+03	1.058509E-15	8.409001E-17
2.840000E+03	1.115235E-15	9.627623E-17
2.880000E+03	1.163271E-15	1.073042E-16
2.920000E+03	1.202767E-15	1.165758E-16
2.960000E+03	1.234621E-15	1.237037E-16
3.000000E+03	1.260369E-15	1.285105E-16
3.010000E+03	1.266064E-15	1.293451E-16
3.020000E+03	1.271537E-15	1.300360E-16
3.030000E+03	1.276900E-15	1.305932E-16
3.040000E+03	1.282105E-15	1.310104E-16
3.050000E+03	1.287183E-15	1.312900E-16
3.060000E+03	1.292168E-15	1.314347E-16
3.070000E+03	1.297171E-15	1.314556E-16
3.080000E+03	1.302224E-15	1.313557E-16
3.090000E+03	1.307281E-15	1.311305E-16
3.100000E+03	1.312454E-15	1.307913E-16
3.110000E+03	1.317772E-15	1.303414E-16
3.120000E+03	1.323269E-15	1.297843E-16
3.130000E+03	1.328975E-15	1.291237E-16
3.140000E+03	1.334995E-15	1.283701E-16
3.150000E+03	1.341285E-15	1.275198E-16
3.160000E+03	1.347875E-15	1.265761E-16
3.170000E+03	1.354866E-15	1.255493E-16
3.180000E+03	1.362286E-15	1.244424E-16
3.190000E+03	1.370234E-15	1.232647E-16
3.200000E+03	1.378591E-15	1.220061E-16
3.210000E+03	1.387526E-15	1.206823E-16
3.220000E+03	1.396991E-15	1.192895E-16
3.230000E+03	1.407080E-15	1.178366E-16
3.240000E+03	1.417814E-15	1.163263E-16
3.250000E+03	1.429214E-15	1.147611E-16
3.260000E+03	1.441370E-15	1.131496E-16
3.270000E+03	1.454229E-15	1.114892E-16
3.280000E+03	1.467877E-15	1.097889E-16
3.290000E+03	1.482331E-15	1.080525E-16
3.300000E+03	1.497675E-15	1.062896E-16
3.310000E+03	1.513850E-15	1.045006E-16
3.320000E+03	1.530940E-15	1.026966E-16
3.330000E+03	1.548954E-15	1.008855E-16
3.340000E+03	1.567969E-15	9.908073E-17
3.350000E+03	1.587925E-15	9.728891E-17
3.360000E+03	1.608965E-15	9.553158E-17
3.370000E+03	1.631026E-15	9.381984E-17
3.380000E+03	1.654180E-15	9.217568E-17
3.390000E+03	1.678427E-15	9.061979E-17
3.400000E+03	1.703838E-15	8.917944E-17
3.410000E+03	1.730410E-15	8.788076E-17
3.420000E+03	1.758139E-15	8.675238E-17
3.430000E+03	1.787089E-15	8.582796E-17
3.440000E+03	1.817320E-15	8.514148E-17
3.450000E+03	1.848751E-15	8.471944E-17
3.460000E+03	1.881505E-15	8.459533E-17
3.470000E+03	1.915496E-15	8.478831E-17
3.480000E+03	1.950839E-15	8.532014E-17
3.490000E+03	1.987577E-15	8.620074E-17
3.500000E+03	2.025543E-15	8.742237E-17
3.510000E+03	2.064912E-15	8.898467E-17
3.520000E+03	2.105580E-15	9.086844E-17
3.530000E+03	2.147580E-15	9.305535E-17
3.540000E+03	2.190808E-15	9.551731E-17
3.550000E+03	2.235370E-15	9.823333E-17
3.560000E+03	2.281022E-15	1.011661E-16
3.570000E+03	2.327735E-15	1.042877E-16
3.580000E+03	2.375558E-15	1.075746E-16
3.590000E+03	2.424261E-15	1.109920E-16
3.600000E+03	2.473908E-15	1.145201E-16
3.610000E+03	2.524359E-15	1.181316E-16
3.620000E+03	2.575699E-15	1.218115E-16
3.630000E+03	2.627811E-15	1.255376E-16
3.640000E+03	2.680662E-15	1.292932E-16
3.650000E+03	2.734307E-15	1.330679E-16
3.660000E+03	2.788816E-15	1.368535E-16
3.670000E+03	2.844128E-15	1.406373E-16
3.680000E+03	2.900341E-15	1.444155E-16
3.690000E+03	2.957494E-15	1.481829E-16
3.700000E+03	3.015709E-15	1.519395E-16
3.710000E+03	3.075045E-15	1.556831E-16
3.720000E+03	3.135637E-15	1.594165E-16
3.730000E+03	3.197622E-15	1.631432E-16
3.740000E+03	3.260984E-15	1.668599E-16
3.750000E+03	3.325844E-15	1.705708E-16
3.760000E+03	3.392309E-15	1.742802E-16
3.770000E+03	3.460535E-15	1.779957E-16
3.780000E+03	3.530354E-15	1.817086E-16
3.790000E+03	3.601860E-15	1.854245E-16
3.800000E+03	3.674953E-15	1.891398E-16
3.810000E+03	3.749642E-15	1.928568E-16
3.820000E+03	3.825656E-15	1.965639E-16
3.830000E+03	3.902898E-15	2.002594E-16
3.840000E+03	3.981065E-15	2.039310E-16
3.850000E+03	4.059797E-15	2.075642E-16
3.860000E+03	4.138839E-15	2.111497E-16
3.870000E+03	4.217733E-15	2.146681E-16
3.880000E+03	4.295978E-15	2.180981E-16
3.890000E+03	4.373200E-15	2.214242E-16
3.900000E+03	4.448849E-15	2.246219E-16
3.910000E+03	4.522362E-15	2.276654E-16
3.920000E+03	4.593341E-15	2.305368E-16
3.930000E+03	4.661249E-15	2.332105E-16
3.940000E+03	4.725579E-15	2.356617E-16
3.950000E+03	4.786030E-15	2.378749E-16
3.960000E+03	4.842198E-15	2.398290E-16
3.970000E+03	4.893829E-15	2.415090E-16
3.980000E+03	4.940660E-15	2.428990E-16
3.990000E+03	4.982590E-15	2.439902E-16
4.000000E+03	5.019600E-15	2.447769E-16
4.010000E+03	5.051750E-15	2.452564E-16
4.020000E+03	5.079019E-15	2.454215E-16
4.030000E+03	5.101773E-15	2.452828E-16
4.040000E+03	5.120124E-15	2.448379E-16
4.050000E+03	5.134395E-15	2.440938E-16
4.060000E+03	5.144945E-15	2.430587E-16
4.070000E+03	5.152163E-15	2.417415E-16
4.080000E+03	5.156377E-15	2.401475E-16
4.090000E+03	5.157993E-15	2.382857E-16
4.100000E+03	5.157411E-15	2.361641E-16
4.110000E+03	5.154865E-15	2.337829E-16
4.120000E+03	5.150857E-15	2.311549E-16
4.130000E+03	5.145635E-15	2.282809E-16
4.140000E+03	5.139409E-15	2.251610E-16
4.150000E+03	5.132422E-15	2.217971E-16
4.160000E+03	5.124800E-15	2.181873E-16
4.170000E+03	5.116768E-15	2.143353E-16
4.180000E+03	5.108439E-15	2.102415E-16
4.190000E+03	5.099749E-15	2.059020E-16
4.200000E+03	5.090810E-15	2.013229E-16
4.210000E+03	5.081566E-15	1.965078E-16
4.220000E+03	5.072079E-15	1.914695E-16
4.230000E+03	5.062195E-15	1.862182E-16
4.240000E+03	5.052019E-15	1.807813E-16
4.250000E+03	5.041394E-15	1.751843E-16
4.260000E+03	5.030432E-15	1.694723E-16
4.270000E+03	5.019005E-15	1.636929E-16
4.280000E+03	5.007197E-15	1.579138E-16
4.290000E+03	4.995122E-15	1.522171E-16
4.300000E+03	4.982804E-15	1.466969E-16
4.310000E+03	4.970494E-15	1.414685E-16
4.320000E+03	4.958240E-15	1.366545E-16
4.330000E+03	4.946512E-15	1.323981E-16
4.340000E+03	4.935466E-15	1.288360E-16
4.350000E+03	4.925560E-15	1.261050E-16
4.360000E+03	4.917314E-15	1.243220E-16
4.370000E+03	4.911266E-15	1.235655E-16
4.380000E+03	4.908061E-15	1.238620E-16
4.390000E+03	4.908443E-15	1.251896E-16
4.400000E+03	4.913238E-15	1.274789E-16
4.410000E+03	4.923091E-15	1.306192E-16
4.420000E+03	4.938711E-15	1.344887E-16
4.430000E+03	4.960609E-15	1.389630E-16
4.440000E+03	4.989203E-15	1.439264E-16
4.450000E+03	5.024792E-15	1.492755E-16
4.460000E+03	5.067547E-15	1.549191E-16
4.470000E+03	5.117494E-15	1.607765E-16
4.480000E+03	5.174449E-15	1.667726E-16
4.490000E+03	5.238124E-15	1.728385E-16
4.500000E+03	5.308008E-15	1.789048E-16
4.510000E+03	5.383544E-15	1.849054E-16
4.520000E+03	5.463894E-15	1.907671E-16
4.530000E+03	5.548000E-15	1.964107E-16
4.540000E+03	5.634857E-15	2.017594E-16
4.550000E+03	5.723215E-15	2.067284E-16
4.560000E+03	5.811739E-15	2.112304E-16
4.570000E+03	5.899037E-15	2.151775E-16
4.580000E+03	5.983768E-15	2.184860E-16
4.590000E+03	6.064488E-15	2.210718E-16
4.600000E+03	6.140026E-15	2.228658E-16
4.610000E+03	6.209061E-15	2.237998E-16
4.620000E+03	6.270696E-15	2.238288E-16
4.630000E+03	6.324023E-15	2.229168E-16
4.640000E+03	6.368418E-15	2.210484E-16
4.650000E+03	6.403488E-15	2.182287E-16
4.660000E+03	6.429145E-15	2.144867E-16
4.670000E+03	6.445463E-15	2.098711E-16
4.680000E+03	6.452728E-15	2.044537E-16
4.690000E+03	6.451347E-15	1.983278E-16
4.700000E+03	6.442155E-15	1.916192E-16
4.710000E+03	6.425833E-15	1.844703E-16
4.720000E+03	6.403348E-15	1.770559E-16
4.730000E+03	6.375567E-15	1.695748E-16
4.740000E+03	6.343501E-15	1.622585E-16
4.750000E+03	6.308193E-15	1.553686E-16
4.760000E+03	6.270491E-15	1.491876E-16
4.770000E+03	6.231293E-15	1.440140E-16
4.780000E+03	6.191387E-15	1.401369E-16
4.790000E+03	6.151303E-15	1.377992E-16
4.800000E+03	6.111559E-15	1.371546E-16
4.810000E+03	6.072430E-15	1.381705E-16
4.820000E+03	6.034206E-15	1.406576E-16
4.830000E+03	5.996796E-15	1.443524E-16
4.840000E+03	5.960326E-15	1.489779E-16
4.850000E+03	5.924598E-15	1.542616E-16
4.860000E+03	5.889422E-15	1.599620E-16
4.870000E+03	5.854635E-15	1.658751E-16
4.880000E+03	5.819938E-15	1.718306E-16
4.890000E+03	5.785159E-15	1.776954E-16
4.900000E+03	5.750087E-15	1.833643E-16
4.910000E+03	5.714554E-15	1.887572E-16
4.920000E+03	5.678390E-15	1.938131E-16
4.930000E+03	5.641613E-15	1.984932E-16
4.940000E+03	5.604262E-15	2.027724E-16
4.950000E+03	5.566466E-15	2.066390E-16
4.960000E+03	5.528446E-15	2.100930E-16
4.970000E+03	5.490455E-15	2.131425E-16
4.980000E+03	5.453007E-15	2.158113E-16
4.990000E+03	5.416525E-15	2.181240E-16
5.000000E+03	5.381505E-15	2.201118E-16
5.010000E+03	5.348664E-15	2.218174E-16
5.020000E+03	5.318598E-15	2.232806E-16
5.030000E+03	5.291932E-15	2.245434E-16
5.040000E+03	5.269466E-15	2.256556E-16
5.050000E+03	5.251833E-15	2.266598E-16
5.060000E+03	5.239759E-15	2.276019E-16
5.070000E+03	5.233776E-15	2.285176E-16
5.080000E+03	5.234535E-15	2.294462E-16
5.090000E+03	5.242632E-15	2.304220E-16
5.100000E+03	5.258493E-15	2.314691E-16
5.110000E+03	5.282522E-15	2.326077E-16
5.120000E+03	5.315096E-15	2.338532E-16
5.130000E+03	5.356339E-15	2.352065E-16
5.140000E+03	5.406493E-15	2.366697E-16
5.150000E+03	5.465532E-15	2.382296E-16
5.160000E+03	5.533370E-15	2.398668E-16
5.170000E+03	5.609803E-15	2.415529E-16
5.180000E+03	5.694502E-15	2.432507E-16
5.190000E+03	5.787009E-15	2.449145E-16
5.200000E+03	5.886797E-15	2.464926E-16
5.210000E+03	5.993031E-15	2.479183E-16
5.220000E+03	6.104928E-15	2.491256E-16
5.230000E+03	6.221531E-15	2.500403E-16
5.240000E+03	6.341773E-15	2.505839E-16
5.250000E+03	6.464436E-15	2.506732E-16
5.260000E+03	6.588352E-15	2.502298E-16
5.270000E+03	6.712244E-15	2.491747E-16
5.280000E+03	6.834734E-15	2.474311E-16
5.290000E+03	6.954512E-15	2.449322E-16
5.300000E+03	7.070355E-15	2.416239E-16
5.310000E+03	7.180880E-15	2.374581E-16
5.320000E+03	7.285051E-15	2.324130E-16
5.330000E+03	7.381633E-15	2.264763E-16
5.340000E+03	7.469709E-15	2.196656E-16
5.350000E+03	7.548402E-15	2.120220E-16
5.360000E+03	7.616879E-15	2.036138E-16
5.370000E+03	7.674504E-15	1.945443E-16
5.380000E+03	7.720764E-15	1.849540E-16
5.390000E+03	7.755346E-15	1.750260E-16
5.400000E+03	7.777820E-15	1.649835E-16
5.410000E+03	7.788101E-15	1.551025E-16
5.420000E+03	7.786058E-15	1.457028E-16
5.430000E+03	7.771834E-15	1.371434E-16
5.440000E+03	7.745597E-15	1.297811E-16
5.450000E+03	7.707933E-15	1.239087E-16
5.460000E+03	7.659601E-15	1.197805E-16
5.470000E+03	7.601446E-15	1.176111E-16
5.480000E+03	7.534369E-15	1.175389E-16
5.490000E+03	7.459212E-15	1.195724E-16
5.500000E+03	7.377008E-15	1.235310E-16
5.510000E+03	7.288447E-15	1.290197E-16
5.520000E+03	7.194354E-15	1.355760E-16
5.530000E+03	7.095728E-15	1.427697E-16
5.540000E+03	6.993407E-15	1.502392E-16
5.550000E+03	6.888298E-15	1.577049E-16
5.560000E+03	6.781569E-15	1.649676E-16
5.570000E+03	6.674287E-15	1.718897E-16
5.580000E+03	6.567415E-15	1.783826E-16
5.590000E+03	6.462257E-15	1.844083E-16
5.600000E+03	6.359776E-15	1.899521E-16
5.610000E+03	6.261108E-15	1.950298E-16
5.620000E+03	6.167280E-15	1.996736E-16
5.630000E+03	6.079259E-15	2.039290E-16
5.640000E+03	5.997949E-15	2.078505E-16
5.650000E+03	5.924227E-15	2.114999E-16
5.660000E+03	5.858826E-15	2.149393E-16
5.670000E+03	5.802318E-15	2.182286E-16
5.680000E+03	5.755295E-15	2.214297E-16
5.690000E+03	5.718241E-15	2.246010E-16
5.700000E+03	5.691350E-15	2.277887E-16
5.710000E+03	5.674876E-15	2.310395E-16
5.720000E+03	5.668953E-15	2.343930E-16
5.730000E+03	5.673470E-15	2.378758E-16
5.740000E+03	5.688304E-15	2.415107E-16
5.750000E+03	5.713136E-15	2.453089E-16
5.760000E+03	5.747448E-15	2.492691E-16
5.770000E+03	5.790695E-15	2.533854E-16
5.780000E+03	5.842126E-15	2.576389E-16
5.790000E+03	5.900842E-15	2.620010E-16
5.800000E+03	5.965803E-15	2.664331E-16
5.810000E+03	6.035830E-15	2.708875E-16
5.820000E+03	6.109625E-15	2.753081E-16
5.830000E+03	6.185783E-15	2.796315E-16
5.840000E+03	6.262888E-15	2.837918E-16
5.850000E+03	6.339347E-15	2.877133E-16
5.860000E+03	6.413617E-15	2.913213E-16
5.870000E+03	6.484252E-15	2.945448E-16
5.880000E+03	6.549740E-15	2.973094E-16
5.890000E+03	6.608820E-15	2.995521E-16
5.900000E+03	6.660242E-15	3.012108E-16
5.910000E+03	6.703017E-15	3.022358E-16
5.920000E+03	6.736442E-15	3.025912E-16
5.930000E+03	6.759915E-15	3.022466E-16
5.940000E+03	6.773158E-15	3.011871E-16
5.950000E+03	6.776222E-15	2.994136E-16
5.960000E+03	6.769265E-15	2.969324E-16
5.970000E+03	6.752757E-15	2.937643E-16
5.980000E+03	6.727454E-15	2.899433E-16
5.990000E+03	6.694089E-15	2.855026E-16
6.000000E+03	6.653772E-15	2.804916E-16
6.010000E+03	6.607670E-15	2.749620E-16
6.020000E+03	6.557051E-15	2.689688E-16
6.030000E+03	6.503174E-15	2.625659E-16
6.040000E+03	6.447408E-15	2.558106E-16
6.050000E+03	6.391199E-15	2.487617E-16
6.060000E+03	6.335766E-15	2.414674E-16
6.070000E+03	6.282562E-15	2.339836E-16
6.080000E+03	6.232703E-15	2.263515E-16
6.090000E+03	6.187356E-15	2.186139E-16
6.100000E+03	6.147653E-15	2.108115E-16
6.110000E+03	6.114472E-15	2.029774E-16
6.120000E+03	6.088685E-15	1.951473E-16
6.130000E+03	6.070881E-15	1.873527E-16
6.140000E+03	6.061546E-15	1.796310E-16
6.150000E+03	6.061121E-15	1.720313E-16
6.160000E+03	6.069717E-15	1.646118E-16
6.170000E+03	6.087310E-15	1.574525E-16
6.180000E+03	6.113594E-15	1.506591E-16
6.190000E+03	6.148044E-15	1.443731E-16
6.200000E+03	6.189986E-15	1.387782E-16
6.210000E+03	6.238393E-15	1.340959E-16
6.220000E+03	6.292181E-15	1.305806E-16
6.230000E+03	6.349887E-15	1.284850E-16
6.240000E+03	6.410211E-15	1.280230E-16
6.250000E+03	6.471588E-15	1.292754E-16
6.260000E+03	6.533085E-15	1.321013E-16
6.270000E+03	6.593723E-15	1.362182E-16
6.280000E+03	6.652384E-15	1.412787E-16
6.290000E+03	6.708341E-15	1.469301E-16
6.300000E+03	6.760430E-15	1.528277E-16
6.310000E+03	6.807978E-15	1.586714E-16
6.320000E+03	6.849969E-15	1.641932E-16
6.330000E+03	6.885686E-15	1.691713E-16
6.340000E+03	6.914406E-15	1.734216E-16
6.350000E+03	6.935416E-15	1.767943E-16
6.360000E+03	6.948268E-15	1.791778E-16
6.370000E+03	6.952380E-15	1.804864E-16
6.380000E+03	6.947532E-15	1.806710E-16
6.390000E+03	6.933458E-15	1.797086E-16
6.400000E+03	6.910012E-15	1.776048E-16
6.410000E+03	6.877247E-15	1.743974E-16
6.420000E+03	6.835161E-15	1.701492E-16
6.430000E+03	6.783941E-15	1.649567E-16
6.440000E+03	6.723948E-15	1.589508E-16
6.450000E+03	6.655388E-15	1.522917E-16
6.460000E+03	6.578945E-15	1.451872E-16
6.470000E+03	6.495044E-15	1.378784E-16
6.480000E+03	6.404400E-15	1.306545E-16
6.490000E+03	6.307761E-15	1.238446E-16
6.500000E+03	6.205897E-15	1.178077E-16
6.510000E+03	6.099580E-15	1.129068E-16
6.520000E+03	5.989569E-15	1.094627E-16
6.530000E+03	5.876573E-15	1.076838E-16
6.540000E+03	5.761134E-15	1.075697E-16
6.550000E+03	5.643767E-15	1.089013E-16
6.560000E+03	5.524876E-15	1.113529E-16
6.570000E+03	5.404999E-15	1.145776E-16
6.580000E+03	5.284472E-15	1.182523E-16
6.590000E+03	5.163791E-15	1.221094E-16
6.600000E+03	5.043459E-15	1.259411E-16
6.610000E+03	4.923862E-15	1.295925E-16
6.620000E+03	4.805524E-15	1.329599E-16
6.630000E+03	4.688901E-15	1.359771E-16
6.640000E+03	4.574500E-15	1.386104E-16
6.650000E+03	4.462691E-15	1.408463E-16
6.660000E+03	4.353880E-15	1.426902E-16
6.670000E+03	4.248558E-15	1.441643E-16
6.680000E+03	4.146946E-15	1.452919E-16
6.690000E+03	4.049401E-15	1.461076E-16
6.700000E+03	3.956229E-15	1.466497E-16
6.710000E+03	3.867586E-15	1.469534E-16
6.720000E+03	3.783639E-15	1.470563E-16
6.730000E+03	3.704511E-15	1.469945E-16
6.740000E+03	3.630333E-15	1.468045E-16
6.750000E+03	3.561145E-15	1.465179E-16
6.760000E+03	3.496903E-15	1.461619E-16
6.770000E+03	3.437578E-15	1.457623E-16
6.780000E+03	3.383208E-15	1.453462E-16
6.790000E+03	3.333609E-15	1.449293E-16
6.800000E+03	3.288672E-15	1.445285E-16
6.810000E+03	3.248358E-15	1.441620E-16
6.820000E+03	3.212424E-15	1.438370E-16
6.830000E+03	3.180750E-15	1.435647E-16
6.840000E+03	3.153114E-15	1.433498E-16
6.850000E+03	3.129417E-15	1.432013E-16
6.860000E+03	3.109373E-15	1.431183E-16
6.870000E+03	3.092825E-15	1.431045E-16
6.880000E+03	3.079569E-15	1.431605E-16
6.890000E+03	3.069356E-15	1.432836E-16
6.900000E+03	3.062027E-15	1.434746E-16
6.910000E+03	3.057383E-15	1.437315E-16
6.920000E+03	3.055184E-15	1.440497E-16
6.930000E+03	3.055289E-15	1.444287E-16
6.940000E+03	3.057521E-15	1.448655E-16
6.950000E+03	3.061667E-15	1.453548E-16
6.960000E+03	3.067617E-15	1.458958E-16
6.970000E+03	3.075227E-15	1.464855E-16
6.980000E+03	3.084318E-15	1.471186E-16
6.990000E+03	3.094770E-15	1.477922E-16
7.000000E+03	3.106519E-15	1.485058E-16
7.010000E+03	3.119467E-15	1.492567E-16
7.020000E+03	3.133428E-15	1.500376E-16
7.030000E+03	3.148415E-15	1.508505E-16
7.040000E+03	3.164350E-15	1.516927E-16
7.050000E+03	3.181062E-15	1.525566E-16
7.060000E+03	3.198578E-15	1.534442E-16
7.070000E+03	3.216777E-15	1.543497E-16
7.080000E+03	3.235585E-15	1.552695E-16
7.090000E+03	3.254979E-15	1.562024E-16
7.100000E+03	3.274775E-15	1.571389E-16
7.110000E+03	3.294991E-15	1.580791E-16
7.120000E+03	3.315431E-15	1.590128E-16
7.130000E+03	3.336101E-15	1.599389E-16
7.140000E+03	3.356791E-15	1.608460E-16
7.150000E+03	3.377439E-15	1.617294E-16
7.160000E+03	3.397982E-15	1.625843E-16
7.170000E+03	3.418183E-15	1.633970E-16
7.180000E+03	3.437963E-15	1.641616E-16
7.190000E+03	3.457182E-15	1.648687E-16
7.200000E+03	3.475694E-15	1.655084E-16
7.210000E+03	3.493347E-15	1.660704E-16
7.220000E+03	3.509929E-15	1.665411E-16
7.230000E+03	3.525394E-15	1.669146E-16
7.240000E+03	3.539464E-15	1.671737E-16
7.250000E+03	3.552033E-15	1.673090E-16
7.260000E+03	3.562940E-15	1.673082E-16
7.270000E+03	3.572026E-15	1.671591E-16
7.280000E+03	3.579141E-15	1.668493E-16
7.290000E+03	3.584147E-15	1.663670E-16
7.300000E+03	3.586861E-15	1.656981E-16
7.310000E+03	3.587303E-15	1.648380E-16
7.320000E+03	3.585338E-15	1.637746E-16
7.330000E+03	3.580861E-15	1.624976E-16
7.340000E+03	3.573990E-15	1.610066E-16
7.350000E+03	3.564699E-15	1.592951E-16
7.360000E+03	3.553065E-15	1.573614E-16
7.370000E+03	3.539217E-15	1.552063E-16
7.380000E+03	3.523328E-15	1.528329E-16
7.390000E+03	3.505682E-15	1.502492E-16
7.400000E+03	3.486481E-15	1.474604E-16
7.410000E+03	3.466156E-15	1.444810E-16
7.420000E+03	3.444924E-15	1.413170E-16
7.430000E+03	3.423277E-15	1.379859E-16
7.440000E+03	3.401602E-15	1.345007E-16
7.450000E+03	3.380299E-15	1.308750E-16
7.460000E+03	3.359645E-15	1.271180E-16
7.470000E+03	3.340033E-15	1.232437E-16
7.480000E+03	3.321896E-15	1.192682E-16
7.490000E+03	3.305460E-15	1.152009E-16
7.500000E+03	3.291153E-15	1.110606E-16
7.510000E+03	3.279124E-15	1.068587E-16
7.520000E+03	3.269592E-15	1.026134E-16
7.530000E+03	3.262723E-15	9.834727E-17
7.540000E+03	3.258688E-15	9.409079E-17
7.550000E+03	3.257483E-15	8.988042E-17
7.560000E+03	3.259104E-15	8.576749E-17
7.570000E+03	3.263497E-15	8.182044E-17
7.580000E+03	3.270553E-15	7.812894E-17
7.590000E+03	3.280117E-15	7.480697E-17
7.600000E+03	3.291928E-15	7.199151E-17
7.610000E+03	3.305812E-15	6.984084E-17
7.620000E+03	3.321500E-15	6.851545E-17
7.630000E+03	3.338702E-15	6.815334E-17
7.640000E+03	3.357120E-15	6.882829E-17
7.650000E+03	3.376431E-15	7.048864E-17
7.660000E+03	3.396390E-15	7.300042E-17
7.670000E+03	3.416883E-15	7.619639E-17
7.680000E+03	3.437552E-15	7.989599E-17
7.690000E+03	3.458175E-15	8.393152E-17
7.700000E+03	3.478611E-15	8.815612E-17
7.710000E+03	3.498675E-15	9.244341E-17
7.720000E+03	3.518131E-15	9.668610E-17
7.730000E+03	3.536828E-15	1.007969E-16
7.740000E+03	3.554698E-15	1.047061E-16
7.750000E+03	3.571622E-15	1.083551E-16
7.760000E+03	3.587426E-15	1.116935E-16
