#wls	flux	fluxerr
1.600000E+03	1.162029E-15	2.737921E-16
1.640000E+03	1.053352E-15	2.278800E-16
1.680000E+03	9.515153E-16	1.877544E-16
1.720000E+03	8.571728E-16	1.531244E-16
1.760000E+03	7.708760E-16	1.236284E-16
1.800000E+03	6.926012E-16	9.878275E-17
1.840000E+03	6.225255E-16	7.813589E-17
1.880000E+03	5.604546E-16	6.119665E-17
1.920000E+03	5.061830E-16	4.750759E-17
1.960000E+03	4.594109E-16	3.664997E-17
2.000000E+03	4.198420E-16	2.826872E-17
2.040000E+03	3.870873E-16	2.207182E-17
2.080000E+03	3.608567E-16	1.781661E-17
2.120000E+03	3.410153E-16	1.520555E-17
2.160000E+03	3.276640E-16	1.382091E-17
2.200000E+03	3.210431E-16	1.332200E-17
2.240000E+03	3.214564E-16	1.357677E-17
2.280000E+03	3.293194E-16	1.458895E-17
2.320000E+03	3.450864E-16	1.627302E-17
2.360000E+03	3.693520E-16	1.844322E-17
2.400000E+03	4.026813E-16	2.091248E-17
2.440000E+03	4.455379E-16	2.351614E-17
2.480000E+03	4.981499E-16	2.613899E-17
2.520000E+03	5.602209E-16	2.879663E-17
2.560000E+03	6.304774E-16	3.178523E-17
2.600000E+03	7.069132E-16	3.584109E-17
2.640000E+03	7.866074E-16	4.192420E-17
2.680000E+03	8.664601E-16	5.053124E-17
2.720000E+03	9.439116E-16	6.137854E-17
2.760000E+03	1.016428E-15	7.367706E-17
2.800000E+03	1.082405E-15	8.651378E-17
2.840000E+03	1.140535E-15	9.898433E-17
2.880000E+03	1.190203E-15	1.103049E-16
2.920000E+03	1.231584E-15	1.198739E-16
2.960000E+03	1.265593E-15	1.272986E-16
3.000000E+03	1.293767E-15	1.323937E-16
3.010000E+03	1.300108E-15	1.332978E-16
3.020000E+03	1.306245E-15	1.340569E-16
3.030000E+03	1.312291E-15	1.346809E-16
3.040000E+03	1.318193E-15	1.351632E-16
3.050000E+03	1.323985E-15	1.355059E-16
3.060000E+03	1.329698E-15	1.357117E-16
3.070000E+03	1.335447E-15	1.357915E-16
3.080000E+03	1.341262E-15	1.357481E-16
3.090000E+03	1.347096E-15	1.355767E-16
3.100000E+03	1.353061E-15	1.352884E-16
3.110000E+03	1.359189E-15	1.348866E-16
3.120000E+03	1.365510E-15	1.343746E-16
3.130000E+03	1.372057E-15	1.337556E-16
3.140000E+03	1.378936E-15	1.330406E-16
3.150000E+03	1.386100E-15	1.322251E-16
3.160000E+03	1.393579E-15	1.313125E-16
3.170000E+03	1.401477E-15	1.303131E-16
3.180000E+03	1.409821E-15	1.292298E-16
3.190000E+03	1.418713E-15	1.280722E-16
3.200000E+03	1.428029E-15	1.268294E-16
3.210000E+03	1.437942E-15	1.255175E-16
3.220000E+03	1.448403E-15	1.241326E-16
3.230000E+03	1.459507E-15	1.226838E-16
3.240000E+03	1.471276E-15	1.211736E-16
3.250000E+03	1.483731E-15	1.196047E-16
3.260000E+03	1.496963E-15	1.179860E-16
3.270000E+03	1.510917E-15	1.163148E-16
3.280000E+03	1.525683E-15	1.146004E-16
3.290000E+03	1.541276E-15	1.128468E-16
3.300000E+03	1.557781E-15	1.110642E-16
3.310000E+03	1.575140E-15	1.092528E-16
3.320000E+03	1.593436E-15	1.074246E-16
3.330000E+03	1.612677E-15	1.055878E-16
3.340000E+03	1.632945E-15	1.037567E-16
3.350000E+03	1.654173E-15	1.019382E-16
3.360000E+03	1.676510E-15	1.001551E-16
3.370000E+03	1.699888E-15	9.841917E-17
3.380000E+03	1.724379E-15	9.675368E-17
3.390000E+03	1.749983E-15	9.518055E-17
3.400000E+03	1.776769E-15	9.372870E-17
3.410000E+03	1.804733E-15	9.242597E-17
3.420000E+03	1.833868E-15	9.130299E-17
3.430000E+03	1.864236E-15	9.039589E-17
3.440000E+03	1.895896E-15	8.974136E-17
3.450000E+03	1.928762E-15	8.936837E-17
3.460000E+03	1.962959E-15	8.931325E-17
3.470000E+03	1.998393E-15	8.959704E-17
3.480000E+03	2.035183E-15	9.024295E-17
3.490000E+03	2.073374E-15	9.126093E-17
3.500000E+03	2.112786E-15	9.264162E-17
3.510000E+03	2.153603E-15	9.438318E-17
3.520000E+03	2.195715E-15	9.646382E-17
3.530000E+03	2.239159E-15	9.886289E-17
3.540000E+03	2.283825E-15	1.015497E-16
3.550000E+03	2.329824E-15	1.045015E-16
3.560000E+03	2.376903E-15	1.076784E-16
3.570000E+03	2.425035E-15	1.110510E-16
3.580000E+03	2.474271E-15	1.145944E-16
3.590000E+03	2.524373E-15	1.182720E-16
3.600000E+03	2.575410E-15	1.220631E-16
3.610000E+03	2.627236E-15	1.259392E-16
3.620000E+03	2.679943E-15	1.298849E-16
3.630000E+03	2.733409E-15	1.338768E-16
3.640000E+03	2.787600E-15	1.378977E-16
3.650000E+03	2.842573E-15	1.419367E-16
3.660000E+03	2.898399E-15	1.459855E-16
3.670000E+03	2.955011E-15	1.500307E-16
3.680000E+03	3.012506E-15	1.540683E-16
3.690000E+03	3.070919E-15	1.580930E-16
3.700000E+03	3.130368E-15	1.621046E-16
3.710000E+03	3.190904E-15	1.661008E-16
3.720000E+03	3.252655E-15	1.700845E-16
3.730000E+03	3.315750E-15	1.740591E-16
3.740000E+03	3.380160E-15	1.780210E-16
3.750000E+03	3.445996E-15	1.819743E-16
3.760000E+03	3.513355E-15	1.859235E-16
3.770000E+03	3.582389E-15	1.898762E-16
3.780000E+03	3.652912E-15	1.938230E-16
3.790000E+03	3.725015E-15	1.977697E-16
3.800000E+03	3.798595E-15	2.017122E-16
3.810000E+03	3.873662E-15	2.056530E-16
3.820000E+03	3.949945E-15	2.095801E-16
3.830000E+03	4.027359E-15	2.134916E-16
3.840000E+03	4.105611E-15	2.173751E-16
3.850000E+03	4.184356E-15	2.212155E-16
3.860000E+03	4.263366E-15	2.250039E-16
3.870000E+03	4.342204E-15	2.287207E-16
3.880000E+03	4.420400E-15	2.323442E-16
3.890000E+03	4.497613E-15	2.358593E-16
3.900000E+03	4.573322E-15	2.392410E-16
3.910000E+03	4.646995E-15	2.424636E-16
3.920000E+03	4.718266E-15	2.455090E-16
3.930000E+03	4.786621E-15	2.483513E-16
3.940000E+03	4.851574E-15	2.509647E-16
3.950000E+03	4.912839E-15	2.533335E-16
3.960000E+03	4.970020E-15	2.554353E-16
3.970000E+03	5.022858E-15	2.572539E-16
3.980000E+03	5.071082E-15	2.587717E-16
3.990000E+03	5.114573E-15	2.599781E-16
4.000000E+03	5.153285E-15	2.608653E-16
4.010000E+03	5.187249E-15	2.614286E-16
4.020000E+03	5.216402E-15	2.616579E-16
4.030000E+03	5.241073E-15	2.615620E-16
4.040000E+03	5.261327E-15	2.611358E-16
4.050000E+03	5.277442E-15	2.603841E-16
4.060000E+03	5.289737E-15	2.593132E-16
4.070000E+03	5.298559E-15	2.579302E-16
4.080000E+03	5.304197E-15	2.562390E-16
4.090000E+03	5.307030E-15	2.542473E-16
4.100000E+03	5.307431E-15	2.519626E-16
4.110000E+03	5.305612E-15	2.493842E-16
4.120000E+03	5.302071E-15	2.465255E-16
4.130000E+03	5.297050E-15	2.433876E-16
4.140000E+03	5.290762E-15	2.399710E-16
4.150000E+03	5.283463E-15	2.362788E-16
4.160000E+03	5.275297E-15	2.323105E-16
4.170000E+03	5.266515E-15	2.280715E-16
4.180000E+03	5.257260E-15	2.235644E-16
4.190000E+03	5.247501E-15	2.187868E-16
4.200000E+03	5.237386E-15	2.137475E-16
4.210000E+03	5.226901E-15	2.084521E-16
4.220000E+03	5.216148E-15	2.029161E-16
4.230000E+03	5.205009E-15	1.971520E-16
4.240000E+03	5.193630E-15	1.911898E-16
4.250000E+03	5.181885E-15	1.850575E-16
4.260000E+03	5.169919E-15	1.788032E-16
4.270000E+03	5.157623E-15	1.724776E-16
4.280000E+03	5.145102E-15	1.661522E-16
4.290000E+03	5.132481E-15	1.599140E-16
4.300000E+03	5.119780E-15	1.538630E-16
4.310000E+03	5.107245E-15	1.481228E-16
4.320000E+03	5.094901E-15	1.428261E-16
4.330000E+03	5.083194E-15	1.381296E-16
4.340000E+03	5.072234E-15	1.341851E-16
4.350000E+03	5.062431E-15	1.311465E-16
4.360000E+03	5.054252E-15	1.291467E-16
4.370000E+03	5.048175E-15	1.282763E-16
4.380000E+03	5.044768E-15	1.285678E-16
4.390000E+03	5.044706E-15	1.299988E-16
4.400000E+03	5.048740E-15	1.324863E-16
4.410000E+03	5.057423E-15	1.358955E-16
4.420000E+03	5.071380E-15	1.400803E-16
4.430000E+03	5.091050E-15	1.448946E-16
4.440000E+03	5.116777E-15	1.502031E-16
4.450000E+03	5.148803E-15	1.558860E-16
4.460000E+03	5.187255E-15	1.618387E-16
4.470000E+03	5.232130E-15	1.679695E-16
4.480000E+03	5.283232E-15	1.741952E-16
4.490000E+03	5.340285E-15	1.804407E-16
4.500000E+03	5.402808E-15	1.866327E-16
4.510000E+03	5.470303E-15	1.927030E-16
4.520000E+03	5.542014E-15	1.985780E-16
4.530000E+03	5.616989E-15	2.041800E-16
4.540000E+03	5.694356E-15	2.094352E-16
4.550000E+03	5.773018E-15	2.142633E-16
4.560000E+03	5.851810E-15	2.185825E-16
4.570000E+03	5.929522E-15	2.223114E-16
4.580000E+03	6.005003E-15	2.253735E-16
4.590000E+03	6.076993E-15	2.276923E-16
4.600000E+03	6.144494E-15	2.292058E-16
4.610000E+03	6.206337E-15	2.298525E-16
4.620000E+03	6.261752E-15	2.295935E-16
4.630000E+03	6.309918E-15	2.283976E-16
4.640000E+03	6.350264E-15	2.262532E-16
4.650000E+03	6.382405E-15	2.231676E-16
4.660000E+03	6.406222E-15	2.191712E-16
4.670000E+03	6.421719E-15	2.143129E-16
4.680000E+03	6.429079E-15	2.086641E-16
4.690000E+03	6.428578E-15	2.023171E-16
4.700000E+03	6.420903E-15	1.953974E-16
4.710000E+03	6.406572E-15	1.880470E-16
4.720000E+03	6.386388E-15	1.804414E-16
4.730000E+03	6.361059E-15	1.727811E-16
4.740000E+03	6.331447E-15	1.653007E-16
4.750000E+03	6.298460E-15	1.582664E-16
4.760000E+03	6.262835E-15	1.519657E-16
4.770000E+03	6.225381E-15	1.467034E-16
4.780000E+03	6.186823E-15	1.427760E-16
4.790000E+03	6.147673E-15	1.404344E-16
4.800000E+03	6.108475E-15	1.398346E-16
4.810000E+03	6.069495E-15	1.409440E-16
4.820000E+03	6.030998E-15	1.435677E-16
4.830000E+03	5.992913E-15	1.474338E-16
4.840000E+03	5.955415E-15	1.522577E-16
4.850000E+03	5.918370E-15	1.577607E-16
4.860000E+03	5.881665E-15	1.636952E-16
4.870000E+03	5.845219E-15	1.698524E-16
4.880000E+03	5.808819E-15	1.760581E-16
4.890000E+03	5.772379E-15	1.821764E-16
4.900000E+03	5.735772E-15	1.880998E-16
4.910000E+03	5.698904E-15	1.937472E-16
4.920000E+03	5.661673E-15	1.990572E-16
4.930000E+03	5.624151E-15	2.039908E-16
4.940000E+03	5.586416E-15	2.085229E-16
4.950000E+03	5.548621E-15	2.126419E-16
4.960000E+03	5.510990E-15	2.163479E-16
4.970000E+03	5.473767E-15	2.196486E-16
4.980000E+03	5.437435E-15	2.225671E-16
4.990000E+03	5.402373E-15	2.251270E-16
5.000000E+03	5.369017E-15	2.273576E-16
5.010000E+03	5.338014E-15	2.292999E-16
5.020000E+03	5.309882E-15	2.309912E-16
5.030000E+03	5.285161E-15	2.324707E-16
5.040000E+03	5.264561E-15	2.337857E-16
5.050000E+03	5.248628E-15	2.349756E-16
5.060000E+03	5.237999E-15	2.360834E-16
5.070000E+03	5.233126E-15	2.371418E-16
5.080000E+03	5.234581E-15	2.381876E-16
5.090000E+03	5.242890E-15	2.392525E-16
5.100000E+03	5.258415E-15	2.403585E-16
5.110000E+03	5.281509E-15	2.415239E-16
5.120000E+03	5.312504E-15	2.427626E-16
5.130000E+03	5.351494E-15	2.440741E-16
5.140000E+03	5.398699E-15	2.454603E-16
5.150000E+03	5.454089E-15	2.469076E-16
5.160000E+03	5.517586E-15	2.483968E-16
5.170000E+03	5.589010E-15	2.499002E-16
5.180000E+03	5.668073E-15	2.513822E-16
5.190000E+03	5.754376E-15	2.527987E-16
5.200000E+03	5.847468E-15	2.541008E-16
5.210000E+03	5.946608E-15	2.552245E-16
5.220000E+03	6.051125E-15	2.561073E-16
5.230000E+03	6.160187E-15	2.566787E-16
5.240000E+03	6.272864E-15	2.568645E-16
5.250000E+03	6.388085E-15	2.565854E-16
5.260000E+03	6.504833E-15	2.557671E-16
5.270000E+03	6.621976E-15	2.543342E-16
5.280000E+03	6.738284E-15	2.522129E-16
5.290000E+03	6.852573E-15	2.493388E-16
5.300000E+03	6.963737E-15	2.456589E-16
5.310000E+03	7.070483E-15	2.411250E-16
5.320000E+03	7.171841E-15	2.357135E-16
5.330000E+03	7.266618E-15	2.294091E-16
5.340000E+03	7.353903E-15	2.222244E-16
5.350000E+03	7.432802E-15	2.141936E-16
5.360000E+03	7.502434E-15	2.053760E-16
5.370000E+03	7.562090E-15	1.958647E-16
5.380000E+03	7.611163E-15	1.857876E-16
5.390000E+03	7.649227E-15	1.753145E-16
5.400000E+03	7.675735E-15	1.646552E-16
5.410000E+03	7.690479E-15	1.540752E-16
5.420000E+03	7.693225E-15	1.438908E-16
5.430000E+03	7.684035E-15	1.344729E-16
5.440000E+03	7.663057E-15	1.262058E-16
5.450000E+03	7.630874E-15	1.194381E-16
5.460000E+03	7.588294E-15	1.145050E-16
5.470000E+03	7.536240E-15	1.117247E-16
5.480000E+03	7.475711E-15	1.113435E-16
5.490000E+03	7.407683E-15	1.134571E-16
5.500000E+03	7.333275E-15	1.178979E-16
5.510000E+03	7.253093E-15	1.241807E-16
5.520000E+03	7.167868E-15	1.317350E-16
5.530000E+03	7.078522E-15	1.400463E-16
5.540000E+03	6.985810E-15	1.486930E-16
5.550000E+03	6.890545E-15	1.573549E-16
5.560000E+03	6.793790E-15	1.658065E-16
5.570000E+03	6.696503E-15	1.738935E-16
5.580000E+03	6.599532E-15	1.815163E-16
5.590000E+03	6.504071E-15	1.886297E-16
5.600000E+03	6.410969E-15	1.952139E-16
5.610000E+03	6.321258E-15	2.012809E-16
5.620000E+03	6.235864E-15	2.068602E-16
5.630000E+03	6.155665E-15	2.119952E-16
5.640000E+03	6.081479E-15	2.167385E-16
5.650000E+03	6.014113E-15	2.211507E-16
5.660000E+03	5.954230E-15	2.252928E-16
5.670000E+03	5.902347E-15	2.292239E-16
5.680000E+03	5.859007E-15	2.330055E-16
5.690000E+03	5.824654E-15	2.366957E-16
5.700000E+03	5.799447E-15	2.403406E-16
5.710000E+03	5.783617E-15	2.439871E-16
5.720000E+03	5.777280E-15	2.476751E-16
5.730000E+03	5.780318E-15	2.514317E-16
5.740000E+03	5.792611E-15	2.552806E-16
5.750000E+03	5.813857E-15	2.592340E-16
5.760000E+03	5.843566E-15	2.632922E-16
5.770000E+03	5.881239E-15	2.674513E-16
5.780000E+03	5.926190E-15	2.716951E-16
5.790000E+03	5.977605E-15	2.759984E-16
5.800000E+03	6.034550E-15	2.803265E-16
5.810000E+03	6.095979E-15	2.846368E-16
5.820000E+03	6.160745E-15	2.888789E-16
5.830000E+03	6.227619E-15	2.929961E-16
5.840000E+03	6.295377E-15	2.969296E-16
5.850000E+03	6.362632E-15	3.006113E-16
5.860000E+03	6.428057E-15	3.039744E-16
5.870000E+03	6.490422E-15	3.069557E-16
5.880000E+03	6.548428E-15	3.094882E-16
5.890000E+03	6.601006E-15	3.115157E-16
5.900000E+03	6.647083E-15	3.129816E-16
5.910000E+03	6.685814E-15	3.138405E-16
5.920000E+03	6.716608E-15	3.140599E-16
5.930000E+03	6.738937E-15	3.136105E-16
5.940000E+03	6.752555E-15	3.124772E-16
5.950000E+03	6.757507E-15	3.106593E-16
5.960000E+03	6.753907E-15	3.081600E-16
5.970000E+03	6.742147E-15	3.049958E-16
5.980000E+03	6.722875E-15	3.011956E-16
5.990000E+03	6.696694E-15	2.967864E-16
6.000000E+03	6.664561E-15	2.918114E-16
6.010000E+03	6.627482E-15	2.863153E-16
6.020000E+03	6.586548E-15	2.803462E-16
6.030000E+03	6.542842E-15	2.739514E-16
6.040000E+03	6.497552E-15	2.671815E-16
6.050000E+03	6.451947E-15	2.600892E-16
6.060000E+03	6.407066E-15	2.527167E-16
6.070000E+03	6.364196E-15	2.451152E-16
6.080000E+03	6.324281E-15	2.373212E-16
6.090000E+03	6.288332E-15	2.293739E-16
6.100000E+03	6.257329E-15	2.213120E-16
6.110000E+03	6.232007E-15	2.131669E-16
6.120000E+03	6.213108E-15	2.049747E-16
6.130000E+03	6.201097E-15	1.967685E-16
6.140000E+03	6.196354E-15	1.885892E-16
6.150000E+03	6.199228E-15	1.804915E-16
6.160000E+03	6.209758E-15	1.725412E-16
6.170000E+03	6.227863E-15	1.648279E-16
6.180000E+03	6.253206E-15	1.574694E-16
6.190000E+03	6.285254E-15	1.506210E-16
6.200000E+03	6.323356E-15	1.444817E-16
6.210000E+03	6.366533E-15	1.392891E-16
6.220000E+03	6.413786E-15	1.353135E-16
6.230000E+03	6.463757E-15	1.328222E-16
6.240000E+03	6.515295E-15	1.320406E-16
6.250000E+03	6.567020E-15	1.330459E-16
6.260000E+03	6.618083E-15	1.356875E-16
6.270000E+03	6.667616E-15	1.396609E-16
6.280000E+03	6.714628E-15	1.445968E-16
6.290000E+03	6.758528E-15	1.501244E-16
6.300000E+03	6.798285E-15	1.558840E-16
6.310000E+03	6.833366E-15	1.615645E-16
6.320000E+03	6.862891E-15	1.668898E-16
6.330000E+03	6.886274E-15	1.716333E-16
6.340000E+03	6.902919E-15	1.756084E-16
6.350000E+03	6.912227E-15	1.786642E-16
6.360000E+03	6.913852E-15	1.806897E-16
6.370000E+03	6.907302E-15	1.815999E-16
6.380000E+03	6.892430E-15	1.813478E-16
6.390000E+03	6.869035E-15	1.799115E-16
6.400000E+03	6.837020E-15	1.772989E-16
6.410000E+03	6.796474E-15	1.735490E-16
6.420000E+03	6.747424E-15	1.687267E-16
6.430000E+03	6.690076E-15	1.629301E-16
6.440000E+03	6.624805E-15	1.562929E-16
6.450000E+03	6.551826E-15	1.489793E-16
6.460000E+03	6.471822E-15	1.412041E-16
6.470000E+03	6.385219E-15	1.332208E-16
6.480000E+03	6.292726E-15	1.253384E-16
6.490000E+03	6.195082E-15	1.179184E-16
6.500000E+03	6.093043E-15	1.113659E-16
6.510000E+03	5.987366E-15	1.061041E-16
6.520000E+03	5.878799E-15	1.025208E-16
6.530000E+03	5.768050E-15	1.008811E-16
6.540000E+03	5.655620E-15	1.011832E-16
6.550000E+03	5.541924E-15	1.031419E-16
6.560000E+03	5.427274E-15	1.063527E-16
6.570000E+03	5.312127E-15	1.104014E-16
6.580000E+03	5.196741E-15	1.149153E-16
6.590000E+03	5.081526E-15	1.195954E-16
6.600000E+03	4.966908E-15	1.242158E-16
6.610000E+03	4.853193E-15	1.286132E-16
6.620000E+03	4.740825E-15	1.326806E-16
6.630000E+03	4.630189E-15	1.363517E-16
6.640000E+03	4.521722E-15	1.395941E-16
6.650000E+03	4.415735E-15	1.423957E-16
6.660000E+03	4.312578E-15	1.447639E-16
6.670000E+03	4.212695E-15	1.467227E-16
6.680000E+03	4.116272E-15	1.482968E-16
6.690000E+03	4.023631E-15	1.495227E-16
6.700000E+03	3.935059E-15	1.504400E-16
6.710000E+03	3.850696E-15	1.510858E-16
6.720000E+03	3.770700E-15	1.514991E-16
6.730000E+03	3.695190E-15	1.517179E-16
6.740000E+03	3.624301E-15	1.517802E-16
6.750000E+03	3.558078E-15	1.517198E-16
6.760000E+03	3.496487E-15	1.515655E-16
6.770000E+03	3.439513E-15	1.513450E-16
6.780000E+03	3.387206E-15	1.510875E-16
6.790000E+03	3.339401E-15	1.508104E-16
6.800000E+03	3.296006E-15	1.505325E-16
6.810000E+03	3.257000E-15	1.502738E-16
6.820000E+03	3.222159E-15	1.500434E-16
6.830000E+03	3.191385E-15	1.498540E-16
6.840000E+03	3.164474E-15	1.497120E-16
6.850000E+03	3.141347E-15	1.496280E-16
6.860000E+03	3.121738E-15	1.496024E-16
6.870000E+03	3.105511E-15	1.496404E-16
6.880000E+03	3.092479E-15	1.497436E-16
6.890000E+03	3.082411E-15	1.499105E-16
6.900000E+03	3.075167E-15	1.501428E-16
6.910000E+03	3.070562E-15	1.504394E-16
6.920000E+03	3.068371E-15	1.507963E-16
6.930000E+03	3.068466E-15	1.512136E-16
6.940000E+03	3.070681E-15	1.516888E-16
6.950000E+03	3.074811E-15	1.522170E-16
6.960000E+03	3.080753E-15	1.527975E-16
6.970000E+03	3.088367E-15	1.534275E-16
6.980000E+03	3.097476E-15	1.541017E-16
6.990000E+03	3.107960E-15	1.548172E-16
7.000000E+03	3.119754E-15	1.555735E-16
7.010000E+03	3.132758E-15	1.563677E-16
7.020000E+03	3.146779E-15	1.571921E-16
7.030000E+03	3.161826E-15	1.580486E-16
7.040000E+03	3.177817E-15	1.589343E-16
7.050000E+03	3.194573E-15	1.598411E-16
7.060000E+03	3.212116E-15	1.607707E-16
7.070000E+03	3.230320E-15	1.617171E-16
7.080000E+03	3.249107E-15	1.626764E-16
7.090000E+03	3.268450E-15	1.636469E-16
7.100000E+03	3.288163E-15	1.646189E-16
7.110000E+03	3.308262E-15	1.655924E-16
7.120000E+03	3.328551E-15	1.665566E-16
7.130000E+03	3.349038E-15	1.675105E-16
7.140000E+03	3.369513E-15	1.684422E-16
7.150000E+03	3.389919E-15	1.693469E-16
7.160000E+03	3.410195E-15	1.702196E-16
7.170000E+03	3.430107E-15	1.710462E-16
7.180000E+03	3.449583E-15	1.718206E-16
7.190000E+03	3.468486E-15	1.725331E-16
7.200000E+03	3.486678E-15	1.731735E-16
7.210000E+03	3.504014E-15	1.737311E-16
7.220000E+03	3.520286E-15	1.741920E-16
7.230000E+03	3.535461E-15	1.745503E-16
7.240000E+03	3.549270E-15	1.747882E-16
7.250000E+03	3.561619E-15	1.748965E-16
7.260000E+03	3.572361E-15	1.748629E-16
7.270000E+03	3.581353E-15	1.746750E-16
7.280000E+03	3.588463E-15	1.743208E-16
7.290000E+03	3.593571E-15	1.737886E-16
7.300000E+03	3.596511E-15	1.730645E-16
7.310000E+03	3.597323E-15	1.721444E-16
7.320000E+03	3.595890E-15	1.710165E-16
7.330000E+03	3.592122E-15	1.696705E-16
7.340000E+03	3.586149E-15	1.681065E-16
7.350000E+03	3.577951E-15	1.663177E-16
7.360000E+03	3.567613E-15	1.643025E-16
7.370000E+03	3.555257E-15	1.620612E-16
7.380000E+03	3.541049E-15	1.595963E-16
7.390000E+03	3.525256E-15	1.569151E-16
7.400000E+03	3.508059E-15	1.540216E-16
7.410000E+03	3.489860E-15	1.509293E-16
7.420000E+03	3.470844E-15	1.476426E-16
7.430000E+03	3.451465E-15	1.441778E-16
7.440000E+03	3.432070E-15	1.405465E-16
7.450000E+03	3.413015E-15	1.367609E-16
7.460000E+03	3.394538E-15	1.328290E-16
7.470000E+03	3.376991E-15	1.287638E-16
7.480000E+03	3.360770E-15	1.245811E-16
7.490000E+03	3.346070E-15	1.202903E-16
7.500000E+03	3.333297E-15	1.159107E-16
7.510000E+03	3.322581E-15	1.114549E-16
7.520000E+03	3.314133E-15	1.069430E-16
7.530000E+03	3.308120E-15	1.023999E-16
7.540000E+03	3.304722E-15	9.785950E-17
7.550000E+03	3.303953E-15	9.336215E-17
7.560000E+03	3.305837E-15	8.896404E-17
7.570000E+03	3.310351E-15	8.473938E-17
7.580000E+03	3.317428E-15	8.078465E-17
7.590000E+03	3.326955E-15	7.722174E-17
7.600000E+03	3.338720E-15	7.419669E-17
7.610000E+03	3.352595E-15	7.187793E-17
7.620000E+03	3.368361E-15	7.043683E-17
7.630000E+03	3.385776E-15	7.002188E-17
7.640000E+03	3.404591E-15	7.070997E-17
7.650000E+03	3.424508E-15	7.244928E-17
7.660000E+03	3.445297E-15	7.509774E-17
7.670000E+03	3.466862E-15	7.847833E-17
7.680000E+03	3.488848E-15	8.240097E-17
7.690000E+03	3.511033E-15	8.668926E-17
7.700000E+03	3.533266E-15	9.118855E-17
7.710000E+03	3.555345E-15	9.576538E-17
7.720000E+03	3.577010E-15	1.003059E-16
7.730000E+03	3.598078E-15	1.047167E-16
7.740000E+03	3.618451E-15	1.089225E-16
7.750000E+03	3.637973E-15	1.128590E-16
7.760000E+03	3.656430E-15	1.164704E-16
