#wls	flux	fluxerr
1.600000E+03	2.373506E-15	5.322814E-16
1.640000E+03	2.137268E-15	4.375212E-16
1.680000E+03	1.911878E-15	3.545626E-16
1.720000E+03	1.699347E-15	2.830598E-16
1.760000E+03	1.501568E-15	2.224741E-16
1.800000E+03	1.319946E-15	1.720515E-16
1.840000E+03	1.155243E-15	1.308642E-16
1.880000E+03	1.008087E-15	9.793229E-17
1.920000E+03	8.783692E-16	7.220657E-17
1.960000E+03	7.658708E-16	5.268663E-17
2.000000E+03	6.700406E-16	3.842990E-17
2.040000E+03	5.901278E-16	2.856939E-17
2.080000E+03	5.252700E-16	2.226273E-17
2.120000E+03	4.748796E-16	1.859519E-17
2.160000E+03	4.383528E-16	1.661669E-17
2.200000E+03	4.155925E-16	1.572112E-17
2.240000E+03	4.066070E-16	1.572621E-17
2.280000E+03	4.119885E-16	1.669295E-17
2.320000E+03	4.323909E-16	1.861367E-17
2.360000E+03	4.688750E-16	2.136250E-17
2.400000E+03	5.228775E-16	2.476668E-17
2.440000E+03	5.963352E-16	2.863277E-17
2.480000E+03	6.910083E-16	3.275904E-17
2.520000E+03	8.080128E-16	3.707195E-17
2.560000E+03	9.470930E-16	4.194171E-17
2.600000E+03	1.105526E-15	4.856384E-17
2.640000E+03	1.278295E-15	5.884811E-17
2.680000E+03	1.458655E-15	7.416398E-17
2.720000E+03	1.639408E-15	9.439381E-17
2.760000E+03	1.812906E-15	1.181974E-16
2.800000E+03	1.972229E-15	1.436426E-16
2.840000E+03	2.111647E-15	1.686278E-16
2.880000E+03	2.227145E-15	1.911744E-16
2.920000E+03	2.317043E-15	2.096748E-16
2.960000E+03	2.382621E-15	2.230985E-16
3.000000E+03	2.427527E-15	2.310208E-16
3.010000E+03	2.436124E-15	2.321451E-16
3.020000E+03	2.443912E-15	2.329425E-16
3.030000E+03	2.450968E-15	2.334186E-16
3.040000E+03	2.457374E-15	2.335806E-16
3.050000E+03	2.463214E-15	2.334365E-16
3.060000E+03	2.468671E-15	2.330048E-16
3.070000E+03	2.473831E-15	2.322952E-16
3.080000E+03	2.478876E-15	2.313272E-16
3.090000E+03	2.483805E-15	2.301031E-16
3.100000E+03	2.488800E-15	2.286433E-16
3.110000E+03	2.494043E-15	2.269675E-16
3.120000E+03	2.499535E-15	2.250796E-16
3.130000E+03	2.505459E-15	2.229995E-16
3.140000E+03	2.511990E-15	2.207464E-16
3.150000E+03	2.519136E-15	2.183245E-16
3.160000E+03	2.527157E-15	2.157596E-16
3.170000E+03	2.536140E-15	2.130620E-16
3.180000E+03	2.546095E-15	2.102353E-16
3.190000E+03	2.557273E-15	2.073028E-16
3.200000E+03	2.569763E-15	2.042735E-16
3.210000E+03	2.583651E-15	2.011559E-16
3.220000E+03	2.599024E-15	1.979582E-16
3.230000E+03	2.616121E-15	1.946996E-16
3.240000E+03	2.635024E-15	1.913862E-16
3.250000E+03	2.655738E-15	1.880188E-16
3.260000E+03	2.678491E-15	1.846135E-16
3.270000E+03	2.703359E-15	1.811751E-16
3.280000E+03	2.730411E-15	1.777082E-16
3.290000E+03	2.759716E-15	1.742170E-16
3.300000E+03	2.791481E-15	1.707149E-16
3.310000E+03	2.825688E-15	1.672012E-16
3.320000E+03	2.862459E-15	1.636847E-16
3.330000E+03	2.901835E-15	1.601701E-16
3.340000E+03	2.943920E-15	1.566671E-16
3.350000E+03	2.988666E-15	1.531790E-16
3.360000E+03	3.036157E-15	1.497183E-16
3.370000E+03	3.086326E-15	1.462928E-16
3.380000E+03	3.139308E-15	1.429234E-16
3.390000E+03	3.195012E-15	1.396240E-16
3.400000E+03	3.253413E-15	1.364160E-16
3.410000E+03	3.314401E-15	1.333223E-16
3.420000E+03	3.378001E-15	1.303761E-16
3.430000E+03	3.444090E-15	1.276097E-16
3.440000E+03	3.512538E-15	1.250594E-16
3.450000E+03	3.583278E-15	1.227675E-16
3.460000E+03	3.656230E-15	1.207754E-16
3.470000E+03	3.731072E-15	1.191118E-16
3.480000E+03	3.807672E-15	1.178070E-16
3.490000E+03	3.885820E-15	1.168797E-16
3.500000E+03	3.965214E-15	1.163330E-16
3.510000E+03	4.045612E-15	1.161643E-16
3.520000E+03	4.126631E-15	1.163597E-16
3.530000E+03	4.208115E-15	1.168996E-16
3.540000E+03	4.289701E-15	1.177545E-16
3.550000E+03	4.371184E-15	1.188948E-16
3.560000E+03	4.452327E-15	1.202754E-16
3.570000E+03	4.532844E-15	1.218487E-16
3.580000E+03	4.612619E-15	1.235720E-16
3.590000E+03	4.691517E-15	1.253923E-16
3.600000E+03	4.769364E-15	1.272587E-16
3.610000E+03	4.846128E-15	1.291318E-16
3.620000E+03	4.921679E-15	1.309692E-16
3.630000E+03	4.995958E-15	1.327402E-16
3.640000E+03	5.068977E-15	1.344286E-16
3.650000E+03	5.140664E-15	1.360229E-16
3.660000E+03	5.210948E-15	1.375243E-16
3.670000E+03	5.279950E-15	1.389496E-16
3.680000E+03	5.347847E-15	1.403179E-16
3.690000E+03	5.414802E-15	1.416545E-16
3.700000E+03	5.481322E-15	1.429847E-16
3.710000E+03	5.548640E-15	1.443100E-16
3.720000E+03	5.618361E-15	1.456290E-16
3.730000E+03	5.692030E-15	1.469378E-16
3.740000E+03	5.771430E-15	1.482271E-16
3.750000E+03	5.858476E-15	1.494928E-16
3.760000E+03	5.954952E-15	1.507332E-16
3.770000E+03	6.062401E-15	1.519383E-16
3.780000E+03	6.182426E-15	1.531071E-16
3.790000E+03	6.316386E-15	1.542407E-16
3.800000E+03	6.465291E-15	1.553342E-16
3.810000E+03	6.629686E-15	1.563835E-16
3.820000E+03	6.810082E-15	1.573977E-16
3.830000E+03	7.006081E-15	1.583706E-16
3.840000E+03	7.216718E-15	1.593057E-16
3.850000E+03	7.440738E-15	1.602237E-16
3.860000E+03	7.675661E-15	1.611287E-16
3.870000E+03	7.918304E-15	1.620420E-16
3.880000E+03	8.165285E-15	1.630066E-16
3.890000E+03	8.412141E-15	1.640300E-16
3.900000E+03	8.654260E-15	1.651334E-16
3.910000E+03	8.886539E-15	1.663165E-16
3.920000E+03	9.104726E-15	1.674934E-16
3.930000E+03	9.304506E-15	1.685485E-16
3.940000E+03	9.482230E-15	1.693792E-16
3.950000E+03	9.634860E-15	1.698566E-16
3.960000E+03	9.760326E-15	1.698892E-16
3.970000E+03	9.857296E-15	1.694364E-16
3.980000E+03	9.925596E-15	1.684858E-16
3.990000E+03	9.965756E-15	1.670862E-16
4.000000E+03	9.979269E-15	1.653476E-16
4.010000E+03	9.968762E-15	1.633946E-16
4.020000E+03	9.937246E-15	1.613873E-16
4.030000E+03	9.888127E-15	1.594766E-16
4.040000E+03	9.825198E-15	1.576937E-16
4.050000E+03	9.752220E-15	1.560498E-16
4.060000E+03	9.672736E-15	1.545581E-16
4.070000E+03	9.589775E-15	1.531669E-16
4.080000E+03	9.506164E-15	1.518415E-16
4.090000E+03	9.424324E-15	1.505733E-16
4.100000E+03	9.346481E-15	1.493316E-16
4.110000E+03	9.274738E-15	1.481185E-16
4.120000E+03	9.210737E-15	1.469619E-16
4.130000E+03	9.155822E-15	1.458641E-16
4.140000E+03	9.110914E-15	1.448470E-16
4.150000E+03	9.076578E-15	1.439393E-16
4.160000E+03	9.051961E-15	1.430897E-16
4.170000E+03	9.035826E-15	1.422506E-16
4.180000E+03	9.026663E-15	1.413875E-16
4.190000E+03	9.022272E-15	1.404174E-16
4.200000E+03	9.020235E-15	1.392747E-16
4.210000E+03	9.018008E-15	1.379124E-16
4.220000E+03	9.013364E-15	1.362550E-16
4.230000E+03	9.003939E-15	1.342522E-16
4.240000E+03	8.987765E-15	1.318987E-16
4.250000E+03	8.963184E-15	1.291908E-16
4.260000E+03	8.928914E-15	1.261728E-16
4.270000E+03	8.883690E-15	1.229154E-16
4.280000E+03	8.826717E-15	1.194501E-16
4.290000E+03	8.757512E-15	1.158412E-16
4.300000E+03	8.675961E-15	1.121858E-16
4.310000E+03	8.582151E-15	1.085407E-16
4.320000E+03	8.476896E-15	1.050031E-16
4.330000E+03	8.361421E-15	1.016977E-16
4.340000E+03	8.238176E-15	9.870168E-17
4.350000E+03	8.110065E-15	9.610893E-17
4.360000E+03	7.980765E-15	9.401473E-17
4.370000E+03	7.855202E-15	9.241848E-17
4.380000E+03	7.739224E-15	9.131137E-17
4.390000E+03	7.638521E-15	9.068704E-17
4.400000E+03	7.558736E-15	9.047490E-17
4.410000E+03	7.505154E-15	9.063328E-17
4.420000E+03	7.482805E-15	9.116765E-17
4.430000E+03	7.495509E-15	9.205794E-17
4.440000E+03	7.546949E-15	9.333445E-17
4.450000E+03	7.640595E-15	9.508198E-17
4.460000E+03	7.779357E-15	9.738060E-17
4.470000E+03	7.966117E-15	1.003603E-16
4.480000E+03	8.203405E-15	1.041642E-16
4.490000E+03	8.492078E-15	1.088163E-16
4.500000E+03	8.832158E-15	1.143279E-16
4.510000E+03	9.222689E-15	1.207049E-16
4.520000E+03	9.660015E-15	1.278201E-16
4.530000E+03	1.013839E-14	1.355173E-16
4.540000E+03	1.065006E-14	1.436519E-16
4.550000E+03	1.118448E-14	1.520283E-16
4.560000E+03	1.172835E-14	1.604761E-16
4.570000E+03	1.226620E-14	1.688804E-16
4.580000E+03	1.278073E-14	1.771245E-16
4.590000E+03	1.325343E-14	1.851544E-16
4.600000E+03	1.366575E-14	1.929232E-16
4.610000E+03	1.400408E-14	2.002541E-16
4.620000E+03	1.425679E-14	2.069340E-16
4.630000E+03	1.441682E-14	2.127596E-16
4.640000E+03	1.448421E-14	2.174283E-16
4.650000E+03	1.446394E-14	2.206873E-16
4.660000E+03	1.436355E-14	2.223697E-16
4.670000E+03	1.419497E-14	2.223689E-16
4.680000E+03	1.397163E-14	2.206910E-16
4.690000E+03	1.370724E-14	2.174612E-16
4.700000E+03	1.341563E-14	2.128747E-16
4.710000E+03	1.310990E-14	2.072090E-16
4.720000E+03	1.280173E-14	2.007886E-16
4.730000E+03	1.250095E-14	1.939183E-16
4.740000E+03	1.221567E-14	1.869176E-16
4.750000E+03	1.195257E-14	1.801019E-16
4.760000E+03	1.171463E-14	1.736769E-16
4.770000E+03	1.150393E-14	1.678438E-16
4.780000E+03	1.132169E-14	1.628071E-16
4.790000E+03	1.116775E-14	1.587163E-16
4.800000E+03	1.104160E-14	1.556754E-16
4.810000E+03	1.094219E-14	1.536438E-16
4.820000E+03	1.086752E-14	1.524070E-16
4.830000E+03	1.081494E-14	1.517171E-16
4.840000E+03	1.078185E-14	1.513423E-16
4.850000E+03	1.076526E-14	1.510407E-16
4.860000E+03	1.076224E-14	1.506345E-16
4.870000E+03	1.076932E-14	1.500245E-16
4.880000E+03	1.078325E-14	1.491771E-16
4.890000E+03	1.080014E-14	1.481420E-16
4.900000E+03	1.081600E-14	1.470257E-16
4.910000E+03	1.082549E-14	1.458818E-16
4.920000E+03	1.082315E-14	1.448003E-16
4.930000E+03	1.080347E-14	1.438620E-16
4.940000E+03	1.076245E-14	1.430087E-16
4.950000E+03	1.069610E-14	1.421601E-16
4.960000E+03	1.060260E-14	1.412560E-16
4.970000E+03	1.048331E-14	1.401616E-16
4.980000E+03	1.034128E-14	1.387799E-16
4.990000E+03	1.018012E-14	1.370696E-16
5.000000E+03	1.000569E-14	1.349986E-16
5.010000E+03	9.824127E-15	1.325947E-16
5.020000E+03	9.641321E-15	1.299310E-16
5.030000E+03	9.463386E-15	1.270516E-16
5.040000E+03	9.295951E-15	1.240387E-16
5.050000E+03	9.144198E-15	1.210171E-16
5.060000E+03	9.012335E-15	1.180853E-16
5.070000E+03	8.904130E-15	1.153783E-16
5.080000E+03	8.822888E-15	1.130467E-16
5.090000E+03	8.771433E-15	1.111695E-16
5.100000E+03	8.752371E-15	1.098396E-16
5.110000E+03	8.768075E-15	1.091373E-16
5.120000E+03	8.820401E-15	1.090055E-16
5.130000E+03	8.910969E-15	1.093786E-16
5.140000E+03	9.041740E-15	1.102166E-16
5.150000E+03	9.213157E-15	1.113978E-16
5.160000E+03	9.425949E-15	1.128363E-16
5.170000E+03	9.680257E-15	1.144876E-16
5.180000E+03	9.974535E-15	1.162639E-16
5.190000E+03	1.030678E-14	1.181393E-16
5.200000E+03	1.067367E-14	1.201507E-16
5.210000E+03	1.106975E-14	1.223018E-16
5.220000E+03	1.148805E-14	1.246781E-16
5.230000E+03	1.192024E-14	1.274161E-16
5.240000E+03	1.235651E-14	1.305071E-16
5.250000E+03	1.278575E-14	1.339626E-16
5.260000E+03	1.319676E-14	1.378009E-16
5.270000E+03	1.358015E-14	1.418104E-16
5.280000E+03	1.392762E-14	1.457743E-16
5.290000E+03	1.423181E-14	1.495337E-16
5.300000E+03	1.448876E-14	1.528444E-16
5.310000E+03	1.469622E-14	1.555463E-16
5.320000E+03	1.485393E-14	1.575671E-16
5.330000E+03	1.496475E-14	1.587278E-16
5.340000E+03	1.503285E-14	1.589323E-16
5.350000E+03	1.506351E-14	1.582005E-16
5.360000E+03	1.506245E-14	1.565030E-16
5.370000E+03	1.503540E-14	1.539260E-16
5.380000E+03	1.498783E-14	1.506755E-16
5.390000E+03	1.492331E-14	1.469032E-16
5.400000E+03	1.484494E-14	1.428776E-16
5.410000E+03	1.475450E-14	1.389327E-16
5.420000E+03	1.465222E-14	1.352371E-16
5.430000E+03	1.453644E-14	1.319812E-16
5.440000E+03	1.440501E-14	1.293147E-16
5.450000E+03	1.425414E-14	1.270289E-16
5.460000E+03	1.407962E-14	1.249051E-16
5.470000E+03	1.387735E-14	1.228013E-16
5.480000E+03	1.364596E-14	1.204932E-16
5.490000E+03	1.338481E-14	1.178969E-16
5.500000E+03	1.309422E-14	1.150554E-16
5.510000E+03	1.277695E-14	1.119216E-16
5.520000E+03	1.243610E-14	1.085630E-16
5.530000E+03	1.207539E-14	1.051236E-16
5.540000E+03	1.169943E-14	1.015743E-16
5.550000E+03	1.131285E-14	9.796861E-17
5.560000E+03	1.092001E-14	9.444385E-17
5.570000E+03	1.052530E-14	9.101344E-17
5.580000E+03	1.013252E-14	8.777468E-17
5.590000E+03	9.745234E-15	8.487633E-17
5.600000E+03	9.367447E-15	8.230560E-17
5.610000E+03	9.002254E-15	8.009133E-17
5.620000E+03	8.653171E-15	7.828746E-17
5.630000E+03	8.323591E-15	7.676462E-17
5.640000E+03	8.016855E-15	7.543879E-17
5.650000E+03	7.735977E-15	7.430335E-17
5.660000E+03	7.483691E-15	7.330122E-17
5.670000E+03	7.262483E-15	7.244133E-17
5.680000E+03	7.074539E-15	7.178624E-17
5.690000E+03	6.921742E-15	7.133885E-17
5.700000E+03	6.805961E-15	7.113966E-17
5.710000E+03	6.728836E-15	7.124848E-17
5.720000E+03	6.691131E-15	7.162956E-17
5.730000E+03	6.693734E-15	7.226705E-17
5.740000E+03	6.737480E-15	7.318161E-17
5.750000E+03	6.822219E-15	7.434995E-17
5.760000E+03	6.947846E-15	7.578881E-17
5.770000E+03	7.114348E-15	7.756011E-17
5.780000E+03	7.320310E-15	7.968354E-17
5.790000E+03	7.564118E-15	8.221892E-17
5.800000E+03	7.843049E-15	8.522325E-17
5.810000E+03	8.152568E-15	8.859687E-17
5.820000E+03	8.486290E-15	9.220696E-17
5.830000E+03	8.836727E-15	9.592847E-17
5.840000E+03	9.194914E-15	9.954260E-17
5.850000E+03	9.550275E-15	1.028434E-16
5.860000E+03	9.891420E-15	1.056640E-16
5.870000E+03	1.020714E-14	1.077840E-16
5.880000E+03	1.048563E-14	1.090482E-16
5.890000E+03	1.071617E-14	1.094123E-16
5.900000E+03	1.089006E-14	1.088527E-16
5.910000E+03	1.100054E-14	1.074870E-16
5.920000E+03	1.104357E-14	1.055508E-16
5.930000E+03	1.101954E-14	1.032287E-16
5.940000E+03	1.093175E-14	1.007897E-16
5.950000E+03	1.078565E-14	9.850195E-17
5.960000E+03	1.058922E-14	9.635913E-17
5.970000E+03	1.035184E-14	9.435477E-17
5.980000E+03	1.008252E-14	9.250401E-17
5.990000E+03	9.788240E-15	9.063541E-17
6.000000E+03	9.475765E-15	8.865050E-17
6.010000E+03	9.150676E-15	8.655226E-17
6.020000E+03	8.817161E-15	8.429593E-17
6.030000E+03	8.478213E-15	8.192079E-17
6.040000E+03	8.137250E-15	7.953717E-17
6.050000E+03	7.796969E-15	7.716724E-17
6.060000E+03	7.459975E-15	7.486594E-17
6.070000E+03	7.129439E-15	7.268253E-17
6.080000E+03	6.810174E-15	7.052260E-17
6.090000E+03	6.507036E-15	6.831138E-17
6.100000E+03	6.224421E-15	6.603497E-17
6.110000E+03	5.967155E-15	6.368120E-17
6.120000E+03	5.739441E-15	6.128874E-17
6.130000E+03	5.545052E-15	5.894367E-17
6.140000E+03	5.387448E-15	5.672578E-17
6.150000E+03	5.269846E-15	5.474230E-17
6.160000E+03	5.194900E-15	5.309103E-17
6.170000E+03	5.163349E-15	5.176578E-17
6.180000E+03	5.175460E-15	5.076331E-17
6.190000E+03	5.231501E-15	5.010781E-17
6.200000E+03	5.329693E-15	4.977834E-17
6.210000E+03	5.467983E-15	4.979879E-17
6.220000E+03	5.644042E-15	5.023133E-17
6.230000E+03	5.853852E-15	5.107041E-17
6.240000E+03	6.092293E-15	5.233601E-17
6.250000E+03	6.354394E-15	5.406666E-17
6.260000E+03	6.635508E-15	5.617250E-17
6.270000E+03	6.931115E-15	5.856551E-17
6.280000E+03	7.236397E-15	6.118480E-17
6.290000E+03	7.546736E-15	6.388544E-17
6.300000E+03	7.857367E-15	6.657167E-17
6.310000E+03	8.163562E-15	6.920713E-17
6.320000E+03	8.460928E-15	7.166188E-17
6.330000E+03	8.745119E-15	7.386642E-17
6.340000E+03	9.012291E-15	7.582968E-17
6.350000E+03	9.259307E-15	7.747192E-17
6.360000E+03	9.483554E-15	7.879498E-17
6.370000E+03	9.683001E-15	7.988336E-17
6.380000E+03	9.856844E-15	8.070772E-17
6.390000E+03	1.000470E-14	8.131922E-17
6.400000E+03	1.012680E-14	8.184618E-17
6.410000E+03	1.022400E-14	8.225974E-17
6.420000E+03	1.029766E-14	8.260436E-17
6.430000E+03	1.034885E-14	8.298371E-17
6.440000E+03	1.037885E-14	8.330762E-17
6.450000E+03	1.038876E-14	8.354664E-17
6.460000E+03	1.037950E-14	8.374614E-17
6.470000E+03	1.035101E-14	8.378080E-17
6.480000E+03	1.030358E-14	8.360942E-17
6.490000E+03	1.023674E-14	8.328023E-17
6.500000E+03	1.014986E-14	8.271788E-17
6.510000E+03	1.004234E-14	8.194003E-17
6.520000E+03	9.913263E-15	8.104601E-17
6.530000E+03	9.762460E-15	8.000526E-17
6.540000E+03	9.589686E-15	7.885407E-17
6.550000E+03	9.394792E-15	7.767370E-17
6.560000E+03	9.179301E-15	7.638590E-17
6.570000E+03	8.944629E-15	7.496563E-17
6.580000E+03	8.693187E-15	7.345798E-17
6.590000E+03	8.427941E-15	7.179081E-17
6.600000E+03	8.152476E-15	6.996296E-17
6.610000E+03	7.870268E-15	6.802957E-17
6.620000E+03	7.585165E-15	6.594111E-17
6.630000E+03	7.300826E-15	6.370909E-17
6.640000E+03	7.020387E-15	6.140966E-17
6.650000E+03	6.746854E-15	5.906065E-17
6.660000E+03	6.482795E-15	5.673664E-17
6.670000E+03	6.229959E-15	5.453745E-17
6.680000E+03	5.989808E-15	5.246084E-17
6.690000E+03	5.763317E-15	5.053565E-17
6.700000E+03	5.551111E-15	4.881612E-17
6.710000E+03	5.353451E-15	4.726704E-17
6.720000E+03	5.170134E-15	4.588383E-17
6.730000E+03	5.001159E-15	4.469248E-17
6.740000E+03	4.846115E-15	4.364038E-17
6.750000E+03	4.704684E-15	4.270939E-17
6.760000E+03	4.576364E-15	4.191618E-17
6.770000E+03	4.460667E-15	4.122934E-17
6.780000E+03	4.357172E-15	4.065154E-17
6.790000E+03	4.265385E-15	4.021064E-17
6.800000E+03	4.184703E-15	3.987796E-17
6.810000E+03	4.114671E-15	3.964786E-17
6.820000E+03	4.054683E-15	3.953207E-17
6.830000E+03	4.004203E-15	3.948879E-17
6.840000E+03	3.962424E-15	3.948907E-17
6.850000E+03	3.928715E-15	3.952096E-17
6.860000E+03	3.902194E-15	3.952050E-17
6.870000E+03	3.882148E-15	3.944159E-17
6.880000E+03	3.867673E-15	3.926360E-17
6.890000E+03	3.857826E-15	3.894918E-17
6.900000E+03	3.851842E-15	3.849484E-17
6.910000E+03	3.848727E-15	3.793265E-17
6.920000E+03	3.847789E-15	3.729785E-17
6.930000E+03	3.848096E-15	3.666187E-17
6.940000E+03	3.849075E-15	3.611193E-17
6.950000E+03	3.850221E-15	3.566621E-17
6.960000E+03	3.851131E-15	3.535201E-17
6.970000E+03	3.851764E-15	3.520649E-17
6.980000E+03	3.851940E-15	3.519059E-17
6.990000E+03	3.851839E-15	3.527910E-17
7.000000E+03	3.851672E-15	3.546312E-17
7.010000E+03	3.851512E-15	3.567298E-17
7.020000E+03	3.851723E-15	3.586387E-17
7.030000E+03	3.852466E-15	3.602694E-17
7.040000E+03	3.854038E-15	3.613697E-17
7.050000E+03	3.856595E-15	3.620460E-17
7.060000E+03	3.860339E-15	3.627025E-17
7.070000E+03	3.865414E-15	3.633494E-17
7.080000E+03	3.871940E-15	3.642306E-17
7.090000E+03	3.880053E-15	3.657574E-17
7.100000E+03	3.889680E-15	3.677336E-17
7.110000E+03	3.900616E-15	3.700863E-17
7.120000E+03	3.912666E-15	3.728926E-17
7.130000E+03	3.925484E-15	3.756524E-17
7.140000E+03	3.938806E-15	3.780449E-17
7.150000E+03	3.951985E-15	3.799919E-17
7.160000E+03	3.964727E-15	3.811634E-17
7.170000E+03	3.976580E-15	3.815199E-17
7.180000E+03	3.987155E-15	3.813331E-17
7.190000E+03	3.996173E-15	3.805895E-17
7.200000E+03	4.003581E-15	3.795764E-17
7.210000E+03	4.009328E-15	3.787404E-17
7.220000E+03	4.013580E-15	3.779255E-17
7.230000E+03	4.016501E-15	3.771435E-17
7.240000E+03	4.018442E-15	3.766987E-17
7.250000E+03	4.019396E-15	3.765086E-17
7.260000E+03	4.019458E-15	3.767802E-17
7.270000E+03	4.018407E-15	3.778438E-17
7.280000E+03	4.015708E-15	3.793126E-17
7.290000E+03	4.010842E-15	3.809351E-17
7.300000E+03	4.002920E-15	3.826473E-17
7.310000E+03	3.991262E-15	3.839537E-17
7.320000E+03	3.974928E-15	3.845937E-17
7.330000E+03	3.953199E-15	3.846770E-17
7.340000E+03	3.925483E-15	3.841129E-17
7.350000E+03	3.891113E-15	3.830715E-17
7.360000E+03	3.849843E-15	3.817903E-17
7.370000E+03	3.801544E-15	3.797083E-17
7.380000E+03	3.746420E-15	3.763446E-17
7.390000E+03	3.684818E-15	3.715295E-17
7.400000E+03	3.617293E-15	3.650065E-17
7.410000E+03	3.544585E-15	3.568731E-17
7.420000E+03	3.467542E-15	3.475103E-17
7.430000E+03	3.387543E-15	3.371380E-17
7.440000E+03	3.305844E-15	3.262081E-17
7.450000E+03	3.223967E-15	3.153833E-17
7.460000E+03	3.143897E-15	3.050574E-17
7.470000E+03	3.067557E-15	2.957667E-17
7.480000E+03	2.996763E-15	2.880416E-17
7.490000E+03	2.933404E-15	2.818107E-17
7.500000E+03	2.879321E-15	2.770453E-17
7.510000E+03	2.835953E-15	2.737680E-17
7.520000E+03	2.803983E-15	2.715165E-17
7.530000E+03	2.783710E-15	2.699340E-17
7.540000E+03	2.775337E-15	2.688957E-17
7.550000E+03	2.778231E-15	2.680850E-17
7.560000E+03	2.791436E-15	2.674049E-17
7.570000E+03	2.813909E-15	2.669977E-17
7.580000E+03	2.844133E-15	2.668429E-17
7.590000E+03	2.880424E-15	2.671861E-17
7.600000E+03	2.920845E-15	2.684989E-17
7.610000E+03	2.963659E-15	2.710221E-17
7.620000E+03	3.006915E-15	2.751521E-17
7.630000E+03	3.048974E-15	2.813434E-17
7.640000E+03	3.088449E-15	2.893511E-17
7.650000E+03	3.124310E-15	2.986862E-17
7.660000E+03	3.155505E-15	3.088263E-17
7.670000E+03	3.181596E-15	3.189772E-17
7.680000E+03	3.202266E-15	3.285259E-17
7.690000E+03	3.217350E-15	3.371199E-17
7.700000E+03	3.226961E-15	3.443147E-17
7.710000E+03	3.231515E-15	3.499498E-17
7.720000E+03	3.231445E-15	3.541336E-17
7.730000E+03	3.227336E-15	3.569095E-17
7.740000E+03	3.219842E-15	3.585612E-17
7.750000E+03	3.209536E-15	3.595479E-17
7.760000E+03	3.197196E-15	3.601358E-17
