#wls	flux	fluxerr
1.600000E+03	1.859396E-15	4.240469E-16
1.640000E+03	1.675431E-15	3.495635E-16
1.680000E+03	1.501470E-15	2.845496E-16
1.720000E+03	1.338577E-15	2.285710E-16
1.760000E+03	1.188303E-15	1.811734E-16
1.800000E+03	1.051056E-15	1.416292E-16
1.840000E+03	9.273007E-16	1.091905E-16
1.880000E+03	8.171558E-16	8.305667E-17
1.920000E+03	7.205411E-16	6.242914E-17
1.960000E+03	6.370095E-16	4.653120E-17
2.000000E+03	5.659608E-16	3.466187E-17
2.040000E+03	5.067800E-16	2.621758E-17
2.080000E+03	4.588253E-16	2.066271E-17
2.120000E+03	4.215964E-16	1.739875E-17
2.160000E+03	3.950401E-16	1.567331E-17
2.200000E+03	3.791038E-16	1.495312E-17
2.240000E+03	3.741724E-16	1.507885E-17
2.280000E+03	3.808224E-16	1.610644E-17
2.320000E+03	3.997508E-16	1.799332E-17
2.360000E+03	4.316098E-16	2.056199E-17
2.400000E+03	4.775413E-16	2.363837E-17
2.440000E+03	5.387408E-16	2.704269E-17
2.480000E+03	6.163337E-16	3.061635E-17
2.520000E+03	7.107522E-16	3.431911E-17
2.560000E+03	8.211053E-16	3.847177E-17
2.600000E+03	9.447609E-16	4.407885E-17
2.640000E+03	1.076850E-15	5.273960E-17
2.680000E+03	1.212262E-15	6.539652E-17
2.720000E+03	1.345955E-15	8.168678E-17
2.760000E+03	1.473090E-15	1.005005E-16
2.800000E+03	1.589231E-15	1.203833E-16
2.840000E+03	1.690892E-15	1.398158E-16
2.880000E+03	1.775989E-15	1.574150E-16
2.920000E+03	1.843734E-15	1.720514E-16
2.960000E+03	1.895515E-15	1.830204E-16
3.000000E+03	1.934096E-15	1.900176E-16
3.010000E+03	1.942188E-15	1.911538E-16
3.020000E+03	1.949699E-15	1.920420E-16
3.030000E+03	1.956777E-15	1.926946E-16
3.040000E+03	1.963478E-15	1.931161E-16
3.050000E+03	1.969953E-15	1.933202E-16
3.060000E+03	1.976259E-15	1.933126E-16
3.070000E+03	1.982370E-15	1.930909E-16
3.080000E+03	1.988523E-15	1.926787E-16
3.090000E+03	1.994692E-15	1.920745E-16
3.100000E+03	2.001024E-15	1.912938E-16
3.110000E+03	2.007499E-15	1.903356E-16
3.120000E+03	2.014344E-15	1.892233E-16
3.130000E+03	2.021539E-15	1.879562E-16
3.140000E+03	2.029226E-15	1.865490E-16
3.150000E+03	2.037466E-15	1.850087E-16
3.160000E+03	2.046317E-15	1.833418E-16
3.170000E+03	2.055919E-15	1.815618E-16
3.180000E+03	2.066328E-15	1.796747E-16
3.190000E+03	2.077601E-15	1.776860E-16
3.200000E+03	2.089870E-15	1.756075E-16
3.210000E+03	2.103188E-15	1.734439E-16
3.220000E+03	2.117610E-15	1.711994E-16
3.230000E+03	2.133261E-15	1.688840E-16
3.240000E+03	2.150189E-15	1.665013E-16
3.250000E+03	2.168445E-15	1.640546E-16
3.260000E+03	2.188146E-15	1.615523E-16
3.270000E+03	2.209408E-15	1.590024E-16
3.280000E+03	2.232202E-15	1.564022E-16
3.290000E+03	2.256710E-15	1.537645E-16
3.300000E+03	2.282826E-15	1.510826E-16
3.310000E+03	2.310798E-15	1.483742E-16
3.320000E+03	2.340588E-15	1.456387E-16
3.330000E+03	2.372225E-15	1.428814E-16
3.340000E+03	2.405876E-15	1.401173E-16
3.350000E+03	2.441495E-15	1.373505E-16
3.360000E+03	2.479104E-15	1.345918E-16
3.370000E+03	2.518861E-15	1.318619E-16
3.380000E+03	2.560713E-15	1.291736E-16
3.390000E+03	2.604675E-15	1.265474E-16
3.400000E+03	2.650831E-15	1.240116E-16
3.410000E+03	2.699191E-15	1.215954E-16
3.420000E+03	2.749766E-15	1.193338E-16
3.430000E+03	2.802566E-15	1.172665E-16
3.440000E+03	2.857529E-15	1.154356E-16
3.450000E+03	2.914733E-15	1.138930E-16
3.460000E+03	2.974184E-15	1.126903E-16
3.470000E+03	3.035677E-15	1.118706E-16
3.480000E+03	3.099333E-15	1.114797E-16
3.490000E+03	3.164942E-15	1.115263E-16
3.500000E+03	3.232331E-15	1.120032E-16
3.510000E+03	3.301323E-15	1.128934E-16
3.520000E+03	3.371663E-15	1.141701E-16
3.530000E+03	3.443171E-15	1.158023E-16
3.540000E+03	3.515596E-15	1.177516E-16
3.550000E+03	3.588834E-15	1.199811E-16
3.560000E+03	3.662647E-15	1.224467E-16
3.570000E+03	3.736804E-15	1.251039E-16
3.580000E+03	3.811154E-15	1.279107E-16
3.590000E+03	3.885485E-15	1.308245E-16
3.600000E+03	3.959520E-15	1.338028E-16
3.610000E+03	4.033139E-15	1.368114E-16
3.620000E+03	4.106087E-15	1.398151E-16
3.630000E+03	4.178492E-15	1.427958E-16
3.640000E+03	4.250140E-15	1.457279E-16
3.650000E+03	4.321217E-15	1.486035E-16
3.660000E+03	4.391881E-15	1.514169E-16
3.670000E+03	4.462135E-15	1.541593E-16
3.680000E+03	4.532278E-15	1.568331E-16
3.690000E+03	4.602705E-15	1.594435E-16
3.700000E+03	4.673840E-15	1.619954E-16
3.710000E+03	4.746138E-15	1.644924E-16
3.720000E+03	4.820225E-15	1.669415E-16
3.730000E+03	4.896883E-15	1.693530E-16
3.740000E+03	4.976798E-15	1.717322E-16
3.750000E+03	5.060826E-15	1.740898E-16
3.760000E+03	5.149662E-15	1.764314E-16
3.770000E+03	5.244097E-15	1.787676E-16
3.780000E+03	5.344604E-15	1.811008E-16
3.790000E+03	5.451831E-15	1.834431E-16
3.800000E+03	5.565951E-15	1.857950E-16
3.810000E+03	5.687162E-15	1.881634E-16
3.820000E+03	5.815350E-15	1.905509E-16
3.830000E+03	5.950132E-15	1.929576E-16
3.840000E+03	6.090750E-15	1.953783E-16
3.850000E+03	6.236228E-15	1.978072E-16
3.860000E+03	6.385369E-15	2.002370E-16
3.870000E+03	6.536615E-15	2.026531E-16
3.880000E+03	6.687987E-15	2.050299E-16
3.890000E+03	6.837651E-15	2.073457E-16
3.900000E+03	6.983395E-15	2.095642E-16
3.910000E+03	7.123050E-15	2.116452E-16
3.920000E+03	7.254497E-15	2.135434E-16
3.930000E+03	7.375850E-15	2.152138E-16
3.940000E+03	7.485175E-15	2.166045E-16
3.950000E+03	7.581114E-15	2.176771E-16
3.960000E+03	7.662673E-15	2.184026E-16
3.970000E+03	7.728990E-15	2.187568E-16
3.980000E+03	7.779998E-15	2.187408E-16
3.990000E+03	7.815690E-15	2.183603E-16
4.000000E+03	7.836837E-15	2.176445E-16
4.010000E+03	7.844210E-15	2.166229E-16
4.020000E+03	7.839252E-15	2.153412E-16
4.030000E+03	7.823285E-15	2.138373E-16
4.040000E+03	7.798156E-15	2.121576E-16
4.050000E+03	7.765534E-15	2.103371E-16
4.060000E+03	7.727112E-15	2.084056E-16
4.070000E+03	7.684807E-15	2.063948E-16
4.080000E+03	7.640186E-15	2.043243E-16
4.090000E+03	7.594692E-15	2.022094E-16
4.100000E+03	7.549777E-15	2.000663E-16
4.110000E+03	7.506699E-15	1.979076E-16
4.120000E+03	7.466174E-15	1.957328E-16
4.130000E+03	7.429173E-15	1.935499E-16
4.140000E+03	7.396007E-15	1.913509E-16
4.150000E+03	7.366889E-15	1.891254E-16
4.160000E+03	7.341771E-15	1.868569E-16
4.170000E+03	7.320360E-15	1.845230E-16
4.180000E+03	7.302063E-15	1.820944E-16
4.190000E+03	7.286261E-15	1.795428E-16
4.200000E+03	7.271967E-15	1.768338E-16
4.210000E+03	7.258329E-15	1.739403E-16
4.220000E+03	7.244234E-15	1.708349E-16
4.230000E+03	7.228723E-15	1.675011E-16
4.240000E+03	7.210888E-15	1.639322E-16
4.250000E+03	7.189761E-15	1.601303E-16
4.260000E+03	7.164648E-15	1.561142E-16
4.270000E+03	7.134931E-15	1.519161E-16
4.280000E+03	7.100177E-15	1.475842E-16
4.290000E+03	7.060160E-15	1.431831E-16
4.300000E+03	7.014818E-15	1.387935E-16
4.310000E+03	6.964488E-15	1.345153E-16
4.320000E+03	6.909574E-15	1.304600E-16
4.330000E+03	6.851044E-15	1.267559E-16
4.340000E+03	6.789879E-15	1.235318E-16
4.350000E+03	6.727547E-15	1.209168E-16
4.360000E+03	6.665731E-15	1.190209E-16
4.370000E+03	6.606630E-15	1.179011E-16
4.380000E+03	6.553348E-15	1.175379E-16
4.390000E+03	6.509025E-15	1.178716E-16
4.400000E+03	6.477043E-15	1.188437E-16
4.410000E+03	6.460474E-15	1.204018E-16
4.420000E+03	6.462139E-15	1.225087E-16
4.430000E+03	6.484626E-15	1.251458E-16
4.440000E+03	6.530138E-15	1.283090E-16
4.450000E+03	6.600532E-15	1.320066E-16
4.460000E+03	6.697279E-15	1.362533E-16
4.470000E+03	6.821422E-15	1.410648E-16
4.480000E+03	6.973440E-15	1.464493E-16
4.490000E+03	7.153290E-15	1.524042E-16
4.500000E+03	7.360173E-15	1.589074E-16
4.510000E+03	7.592489E-15	1.659144E-16
4.520000E+03	7.847738E-15	1.733551E-16
4.530000E+03	8.122356E-15	1.811309E-16
4.540000E+03	8.411826E-15	1.891184E-16
4.550000E+03	8.710632E-15	1.971708E-16
4.560000E+03	9.012189E-15	2.051180E-16
4.570000E+03	9.309370E-15	2.127798E-16
4.580000E+03	9.594563E-15	2.199674E-16
4.590000E+03	9.860045E-15	2.264898E-16
4.600000E+03	1.009872E-14	2.321685E-16
4.610000E+03	1.030409E-14	2.368346E-16
4.620000E+03	1.047130E-14	2.403495E-16
4.630000E+03	1.059692E-14	2.426019E-16
4.640000E+03	1.067930E-14	2.435164E-16
4.650000E+03	1.071892E-14	2.430679E-16
4.660000E+03	1.071755E-14	2.412664E-16
4.670000E+03	1.067896E-14	2.381805E-16
4.680000E+03	1.060768E-14	2.339147E-16
4.690000E+03	1.050914E-14	2.286162E-16
4.700000E+03	1.038918E-14	2.224663E-16
4.710000E+03	1.025360E-14	2.156710E-16
4.720000E+03	1.010815E-14	2.084596E-16
4.730000E+03	9.958300E-15	2.010775E-16
4.740000E+03	9.808740E-15	1.937733E-16
4.750000E+03	9.663510E-15	1.867979E-16
4.760000E+03	9.526038E-15	1.803994E-16
4.770000E+03	9.398602E-15	1.748045E-16
4.780000E+03	9.283118E-15	1.702196E-16
4.790000E+03	9.180563E-15	1.668025E-16
4.800000E+03	9.091387E-15	1.646394E-16
4.810000E+03	9.015502E-15	1.636971E-16
4.820000E+03	8.952201E-15	1.638360E-16
4.830000E+03	8.900302E-15	1.648679E-16
4.840000E+03	8.858395E-15	1.665920E-16
4.850000E+03	8.824721E-15	1.688119E-16
4.860000E+03	8.797393E-15	1.713521E-16
4.870000E+03	8.774342E-15	1.740628E-16
4.880000E+03	8.753278E-15	1.768184E-16
4.890000E+03	8.731911E-15	1.795186E-16
4.900000E+03	8.707762E-15	1.820780E-16
4.910000E+03	8.678597E-15	1.844285E-16
4.920000E+03	8.642287E-15	1.865098E-16
4.930000E+03	8.597027E-15	1.882691E-16
4.940000E+03	8.541552E-15	1.896626E-16
4.950000E+03	8.475011E-15	1.906516E-16
4.960000E+03	8.397305E-15	1.912109E-16
4.970000E+03	8.309199E-15	1.913337E-16
4.980000E+03	8.211820E-15	1.910230E-16
4.990000E+03	8.107074E-15	1.903043E-16
5.000000E+03	7.997524E-15	1.892250E-16
5.010000E+03	7.885708E-15	1.878400E-16
5.020000E+03	7.774847E-15	1.862286E-16
5.030000E+03	7.667863E-15	1.844710E-16
5.040000E+03	7.567796E-15	1.826568E-16
5.050000E+03	7.477635E-15	1.808792E-16
5.060000E+03	7.400103E-15	1.792277E-16
5.070000E+03	7.337623E-15	1.777847E-16
5.080000E+03	7.292449E-15	1.766263E-16
5.090000E+03	7.266582E-15	1.758177E-16
5.100000E+03	7.261776E-15	1.754120E-16
5.110000E+03	7.279608E-15	1.754505E-16
5.120000E+03	7.321196E-15	1.759556E-16
5.130000E+03	7.387678E-15	1.769432E-16
5.140000E+03	7.479624E-15	1.784098E-16
5.150000E+03	7.597417E-15	1.803438E-16
5.160000E+03	7.741220E-15	1.827263E-16
5.170000E+03	7.910380E-15	1.855195E-16
5.180000E+03	8.104118E-15	1.886852E-16
5.190000E+03	8.320849E-15	1.921697E-16
5.200000E+03	8.558516E-15	1.959133E-16
5.210000E+03	8.814151E-15	1.998395E-16
5.220000E+03	9.084368E-15	2.038663E-16
5.230000E+03	9.365087E-15	2.078979E-16
5.240000E+03	9.651622E-15	2.118248E-16
5.250000E+03	9.939018E-15	2.155295E-16
5.260000E+03	1.022227E-14	2.188896E-16
5.270000E+03	1.049623E-14	2.217757E-16
5.280000E+03	1.075619E-14	2.240639E-16
5.290000E+03	1.099783E-14	2.256378E-16
5.300000E+03	1.121777E-14	2.264022E-16
5.310000E+03	1.141322E-14	2.262805E-16
5.320000E+03	1.158255E-14	2.252285E-16
5.330000E+03	1.172462E-14	2.232283E-16
5.340000E+03	1.183948E-14	2.203044E-16
5.350000E+03	1.192774E-14	2.165180E-16
5.360000E+03	1.199041E-14	2.119687E-16
5.370000E+03	1.202909E-14	2.068028E-16
5.380000E+03	1.204521E-14	2.012023E-16
5.390000E+03	1.204060E-14	1.953956E-16
5.400000E+03	1.201691E-14	1.896429E-16
5.410000E+03	1.197536E-14	1.842219E-16
5.420000E+03	1.191745E-14	1.794181E-16
5.430000E+03	1.184388E-14	1.754753E-16
5.440000E+03	1.175485E-14	1.725261E-16
5.450000E+03	1.164924E-14	1.705070E-16
5.460000E+03	1.152538E-14	1.692407E-16
5.470000E+03	1.138187E-14	1.685210E-16
5.480000E+03	1.121792E-14	1.681483E-16
5.490000E+03	1.103350E-14	1.679490E-16
5.500000E+03	1.082914E-14	1.677765E-16
5.510000E+03	1.060589E-14	1.675097E-16
5.520000E+03	1.036571E-14	1.670643E-16
5.530000E+03	1.011089E-14	1.663844E-16
5.540000E+03	9.843959E-15	1.654386E-16
5.550000E+03	9.568214E-15	1.642279E-16
5.560000E+03	9.286651E-15	1.627635E-16
5.570000E+03	9.002544E-15	1.610751E-16
5.580000E+03	8.719334E-15	1.592059E-16
5.590000E+03	8.440023E-15	1.571998E-16
5.600000E+03	8.167761E-15	1.551093E-16
5.610000E+03	7.905447E-15	1.529869E-16
5.620000E+03	7.655796E-15	1.508855E-16
5.630000E+03	7.421393E-15	1.488588E-16
5.640000E+03	7.204449E-15	1.469572E-16
5.650000E+03	7.007026E-15	1.452319E-16
5.660000E+03	6.831026E-15	1.437350E-16
5.670000E+03	6.677971E-15	1.425144E-16
5.680000E+03	6.549304E-15	1.416191E-16
5.690000E+03	6.446171E-15	1.410934E-16
5.700000E+03	6.369507E-15	1.409779E-16
5.710000E+03	6.320033E-15	1.413079E-16
5.720000E+03	6.298260E-15	1.421133E-16
5.730000E+03	6.304539E-15	1.434196E-16
5.740000E+03	6.338849E-15	1.452427E-16
5.750000E+03	6.400956E-15	1.475931E-16
5.760000E+03	6.490369E-15	1.504740E-16
5.770000E+03	6.606073E-15	1.538753E-16
5.780000E+03	6.746792E-15	1.577783E-16
5.790000E+03	6.910498E-15	1.621430E-16
5.800000E+03	7.094519E-15	1.669097E-16
5.810000E+03	7.295722E-15	1.720019E-16
5.820000E+03	7.510100E-15	1.773171E-16
5.830000E+03	7.732770E-15	1.827272E-16
5.840000E+03	7.958614E-15	1.880958E-16
5.850000E+03	8.181587E-15	1.932643E-16
5.860000E+03	8.395675E-15	1.980776E-16
5.870000E+03	8.594439E-15	2.023767E-16
5.880000E+03	8.772033E-15	2.060253E-16
5.890000E+03	8.922878E-15	2.089033E-16
5.900000E+03	9.042433E-15	2.109255E-16
5.910000E+03	9.127164E-15	2.120385E-16
5.920000E+03	9.174728E-15	2.122219E-16
5.930000E+03	9.184458E-15	2.114949E-16
5.940000E+03	9.156723E-15	2.098966E-16
5.950000E+03	9.093204E-15	2.074888E-16
5.960000E+03	8.996669E-15	2.043483E-16
5.970000E+03	8.870402E-15	2.005537E-16
5.980000E+03	8.718430E-15	1.961923E-16
5.990000E+03	8.544571E-15	1.913415E-16
6.000000E+03	8.353036E-15	1.860852E-16
6.010000E+03	8.147614E-15	1.804983E-16
6.020000E+03	7.932093E-15	1.746579E-16
6.030000E+03	7.709883E-15	1.686346E-16
6.040000E+03	7.484412E-15	1.625007E-16
6.050000E+03	7.258906E-15	1.563236E-16
6.060000E+03	7.036448E-15	1.501655E-16
6.070000E+03	6.820339E-15	1.440897E-16
6.080000E+03	6.613603E-15	1.381505E-16
6.090000E+03	6.419226E-15	1.323983E-16
6.100000E+03	6.240327E-15	1.268855E-16
6.110000E+03	6.079566E-15	1.216550E-16
6.120000E+03	5.939540E-15	1.167501E-16
6.130000E+03	5.822565E-15	1.122106E-16
6.140000E+03	5.730555E-15	1.080709E-16
6.150000E+03	5.665041E-15	1.043613E-16
6.160000E+03	5.627066E-15	1.011074E-16
6.170000E+03	5.617143E-15	9.833202E-17
6.180000E+03	5.635489E-15	9.606294E-17
6.190000E+03	5.682063E-15	9.433773E-17
6.200000E+03	5.755928E-15	9.319729E-17
6.210000E+03	5.855923E-15	9.269999E-17
6.220000E+03	5.979957E-15	9.290943E-17
6.230000E+03	6.125602E-15	9.389737E-17
6.240000E+03	6.289885E-15	9.572571E-17
6.250000E+03	6.469381E-15	9.841362E-17
6.260000E+03	6.661190E-15	1.019136E-16
6.270000E+03	6.862119E-15	1.061169E-16
6.280000E+03	7.068884E-15	1.108814E-16
6.290000E+03	7.278420E-15	1.160501E-16
6.300000E+03	7.487402E-15	1.214544E-16
6.310000E+03	7.692664E-15	1.269291E-16
6.320000E+03	7.891281E-15	1.323198E-16
6.330000E+03	8.080347E-15	1.374828E-16
6.340000E+03	8.257336E-15	1.422934E-16
6.350000E+03	8.420173E-15	1.466489E-16
6.360000E+03	8.566959E-15	1.504643E-16
6.370000E+03	8.696534E-15	1.536827E-16
6.380000E+03	8.807710E-15	1.562613E-16
6.390000E+03	8.900025E-15	1.581841E-16
6.400000E+03	8.973376E-15	1.594550E-16
6.410000E+03	9.027835E-15	1.600928E-16
6.420000E+03	9.063698E-15	1.601316E-16
6.430000E+03	9.081408E-15	1.596183E-16
6.440000E+03	9.081366E-15	1.586080E-16
6.450000E+03	9.064110E-15	1.571674E-16
6.460000E+03	9.029909E-15	1.553659E-16
6.470000E+03	8.979344E-15	1.532851E-16
6.480000E+03	8.912573E-15	1.510040E-16
6.490000E+03	8.829951E-15	1.486068E-16
6.500000E+03	8.731698E-15	1.461729E-16
6.510000E+03	8.618175E-15	1.437762E-16
6.520000E+03	8.489698E-15	1.414755E-16
6.530000E+03	8.346924E-15	1.393140E-16
6.540000E+03	8.190395E-15	1.373033E-16
6.550000E+03	8.020918E-15	1.354282E-16
6.560000E+03	7.839533E-15	1.336557E-16
6.570000E+03	7.647440E-15	1.319408E-16
6.580000E+03	7.446414E-15	1.302416E-16
6.590000E+03	7.238129E-15	1.285135E-16
6.600000E+03	7.024533E-15	1.267221E-16
6.610000E+03	6.807675E-15	1.248434E-16
6.620000E+03	6.589721E-15	1.228675E-16
6.630000E+03	6.372595E-15	1.207927E-16
6.640000E+03	6.158380E-15	1.186328E-16
6.650000E+03	5.948541E-15	1.164012E-16
6.660000E+03	5.744866E-15	1.141271E-16
6.670000E+03	5.548556E-15	1.118354E-16
6.680000E+03	5.360662E-15	1.095533E-16
6.690000E+03	5.182073E-15	1.073081E-16
6.700000E+03	5.013305E-15	1.051213E-16
6.710000E+03	4.854825E-15	1.030145E-16
6.720000E+03	4.706781E-15	1.010027E-16
6.730000E+03	4.569319E-15	9.910083E-17
6.740000E+03	4.442460E-15	9.732069E-17
6.750000E+03	4.325929E-15	9.566729E-17
6.760000E+03	4.219576E-15	9.414784E-17
6.770000E+03	4.123126E-15	9.276607E-17
6.780000E+03	4.036317E-15	9.152520E-17
6.790000E+03	3.958723E-15	9.042363E-17
6.800000E+03	3.889950E-15	8.945902E-17
6.810000E+03	3.829572E-15	8.862676E-17
6.820000E+03	3.777194E-15	8.792123E-17
6.830000E+03	3.732334E-15	8.733318E-17
6.840000E+03	3.694428E-15	8.685003E-17
6.850000E+03	3.662944E-15	8.645910E-17
6.860000E+03	3.637392E-15	8.614838E-17
6.870000E+03	3.617204E-15	8.590473E-17
6.880000E+03	3.601749E-15	8.571487E-17
6.890000E+03	3.590509E-15	8.557033E-17
6.900000E+03	3.582917E-15	8.546397E-17
6.910000E+03	3.578372E-15	8.539013E-17
6.920000E+03	3.576415E-15	8.534850E-17
6.930000E+03	3.576521E-15	8.533789E-17
6.940000E+03	3.578334E-15	8.536088E-17
6.950000E+03	3.581503E-15	8.541873E-17
6.960000E+03	3.585750E-15	8.551195E-17
6.970000E+03	3.590806E-15	8.563847E-17
6.980000E+03	3.596591E-15	8.579772E-17
6.990000E+03	3.602966E-15	8.598518E-17
7.000000E+03	3.609967E-15	8.619851E-17
7.010000E+03	3.617612E-15	8.643392E-17
7.020000E+03	3.625953E-15	8.668820E-17
7.030000E+03	3.634997E-15	8.695776E-17
7.040000E+03	3.644884E-15	8.724332E-17
7.050000E+03	3.655626E-15	8.754398E-17
7.060000E+03	3.667413E-15	8.786421E-17
7.070000E+03	3.680161E-15	8.820276E-17
7.080000E+03	3.693882E-15	8.856087E-17
7.090000E+03	3.708618E-15	8.894019E-17
7.100000E+03	3.724308E-15	8.933910E-17
7.110000E+03	3.740850E-15	8.975405E-17
7.120000E+03	3.758038E-15	9.017800E-17
7.130000E+03	3.775760E-15	9.060560E-17
7.140000E+03	3.793815E-15	9.102912E-17
7.150000E+03	3.811915E-15	9.143912E-17
7.160000E+03	3.829973E-15	9.183177E-17
7.170000E+03	3.847631E-15	9.219793E-17
7.180000E+03	3.864757E-15	9.253499E-17
7.190000E+03	3.881173E-15	9.284022E-17
7.200000E+03	3.896798E-15	9.311388E-17
7.210000E+03	3.911430E-15	9.335363E-17
7.220000E+03	3.924951E-15	9.355904E-17
7.230000E+03	3.937244E-15	9.372931E-17
7.240000E+03	3.948244E-15	9.386442E-17
7.250000E+03	3.957779E-15	9.396105E-17
7.260000E+03	3.965625E-15	9.401375E-17
7.270000E+03	3.971494E-15	9.401453E-17
7.280000E+03	3.975035E-15	9.395281E-17
7.290000E+03	3.975910E-15	9.381745E-17
7.300000E+03	3.973663E-15	9.359381E-17
7.310000E+03	3.967811E-15	9.326639E-17
7.320000E+03	3.957873E-15	9.281975E-17
7.330000E+03	3.943554E-15	9.224296E-17
7.340000E+03	3.924313E-15	9.151936E-17
7.350000E+03	3.899934E-15	9.063968E-17
7.360000E+03	3.870317E-15	8.959710E-17
7.370000E+03	3.835430E-15	8.838608E-17
7.380000E+03	3.795397E-15	8.700504E-17
7.390000E+03	3.750516E-15	8.545731E-17
7.400000E+03	3.701260E-15	8.375197E-17
7.410000E+03	3.648352E-15	8.190595E-17
7.420000E+03	3.592461E-15	7.993724E-17
7.430000E+03	3.534632E-15	7.787417E-17
7.440000E+03	3.475891E-15	7.574579E-17
7.450000E+03	3.417572E-15	7.358805E-17
7.460000E+03	3.360777E-15	7.143081E-17
7.470000E+03	3.306754E-15	6.930523E-17
7.480000E+03	3.256771E-15	6.724003E-17
7.490000E+03	3.211792E-15	6.525455E-17
7.500000E+03	3.172903E-15	6.336782E-17
7.510000E+03	3.140664E-15	6.158625E-17
7.520000E+03	3.115750E-15	5.991778E-17
7.530000E+03	3.098397E-15	5.836281E-17
7.540000E+03	3.088530E-15	5.691902E-17
7.550000E+03	3.086094E-15	5.558982E-17
7.560000E+03	3.090609E-15	5.437845E-17
7.570000E+03	3.101453E-15	5.329547E-17
7.580000E+03	3.117764E-15	5.235855E-17
7.590000E+03	3.138606E-15	5.159607E-17
7.600000E+03	3.162947E-15	5.104549E-17
7.610000E+03	3.189778E-15	5.075162E-17
7.620000E+03	3.217811E-15	5.075550E-17
7.630000E+03	3.246216E-15	5.109646E-17
7.640000E+03	3.273894E-15	5.178518E-17
7.650000E+03	3.300057E-15	5.279546E-17
7.660000E+03	3.323908E-15	5.406909E-17
7.670000E+03	3.344880E-15	5.553575E-17
7.680000E+03	3.362643E-15	5.712312E-17
7.690000E+03	3.376892E-15	5.876075E-17
7.700000E+03	3.387544E-15	6.038857E-17
7.710000E+03	3.394732E-15	6.195963E-17
7.720000E+03	3.398552E-15	6.343673E-17
7.730000E+03	3.399265E-15	6.479565E-17
7.740000E+03	3.397194E-15	6.602227E-17
7.750000E+03	3.392772E-15	6.711195E-17
7.760000E+03	3.386293E-15	6.806286E-17
