#wls	flux	fluxerr
1.600000E+03	4.343840E-16	1.104875E-16
1.640000E+03	4.023572E-16	9.462200E-17
1.680000E+03	3.727313E-16	8.058392E-17
1.720000E+03	3.453904E-16	6.821947E-17
1.760000E+03	3.204086E-16	5.741756E-17
1.800000E+03	2.978188E-16	4.805659E-17
1.840000E+03	2.775205E-16	3.999691E-17
1.880000E+03	2.596059E-16	3.313642E-17
1.920000E+03	2.439046E-16	2.734690E-17
1.960000E+03	2.304419E-16	2.254292E-17
2.000000E+03	2.191580E-16	1.864771E-17
2.040000E+03	2.100937E-16	1.561407E-17
2.080000E+03	2.032079E-16	1.339916E-17
2.120000E+03	1.985931E-16	1.194961E-17
2.160000E+03	1.964451E-16	1.116911E-17
2.200000E+03	1.968888E-16	1.094943E-17
2.240000E+03	2.002796E-16	1.122846E-17
2.280000E+03	2.068243E-16	1.196189E-17
2.320000E+03	2.167072E-16	1.308371E-17
2.360000E+03	2.300474E-16	1.450172E-17
2.400000E+03	2.467984E-16	1.612402E-17
2.440000E+03	2.669868E-16	1.789199E-17
2.480000E+03	2.903071E-16	1.977100E-17
2.520000E+03	3.164707E-16	2.179778E-17
2.560000E+03	3.447772E-16	2.407616E-17
2.600000E+03	3.744254E-16	2.679641E-17
2.640000E+03	4.044867E-16	3.015689E-17
2.680000E+03	4.339794E-16	3.420706E-17
2.720000E+03	4.623212E-16	3.882438E-17
2.760000E+03	4.889943E-16	4.376342E-17
2.800000E+03	5.137818E-16	4.874473E-17
2.840000E+03	5.365185E-16	5.348028E-17
2.880000E+03	5.572115E-16	5.771289E-17
2.920000E+03	5.760299E-16	6.123293E-17
2.960000E+03	5.934254E-16	6.390006E-17
3.000000E+03	6.101085E-16	6.564292E-17
3.010000E+03	6.142178E-16	6.592580E-17
3.020000E+03	6.182938E-16	6.614359E-17
3.030000E+03	6.224167E-16	6.630358E-17
3.040000E+03	6.265970E-16	6.640561E-17
3.050000E+03	6.308450E-16	6.644960E-17
3.060000E+03	6.351008E-16	6.642819E-17
3.070000E+03	6.394455E-16	6.634893E-17
3.080000E+03	6.438194E-16	6.620475E-17
3.090000E+03	6.483744E-16	6.601047E-17
3.100000E+03	6.529803E-16	6.575194E-17
3.110000E+03	6.577895E-16	6.544382E-17
3.120000E+03	6.626713E-16	6.507237E-17
3.130000E+03	6.677786E-16	6.465205E-17
3.140000E+03	6.729806E-16	6.416957E-17
3.150000E+03	6.784303E-16	6.363914E-17
3.160000E+03	6.841389E-16	6.306110E-17
3.170000E+03	6.899752E-16	6.242295E-17
3.180000E+03	6.960925E-16	6.173851E-17
3.190000E+03	7.025021E-16	6.100834E-17
3.200000E+03	7.091434E-16	6.022701E-17
3.210000E+03	7.160989E-16	5.940167E-17
3.220000E+03	7.233795E-16	5.853330E-17
3.230000E+03	7.309959E-16	5.762306E-17
3.240000E+03	7.389588E-16	5.667238E-17
3.250000E+03	7.473513E-16	5.568838E-17
3.260000E+03	7.560379E-16	5.466213E-17
3.270000E+03	7.651741E-16	5.360682E-17
3.280000E+03	7.747699E-16	5.252498E-17
3.290000E+03	7.848346E-16	5.141971E-17
3.300000E+03	7.953771E-16	5.029476E-17
3.310000E+03	8.063306E-16	4.915008E-17
3.320000E+03	8.178509E-16	4.800025E-17
3.330000E+03	8.299447E-16	4.685108E-17
3.340000E+03	8.425414E-16	4.570523E-17
3.350000E+03	8.557193E-16	4.457489E-17
3.360000E+03	8.695560E-16	4.347266E-17
3.370000E+03	8.838968E-16	4.240042E-17
3.380000E+03	8.988902E-16	4.137614E-17
3.390000E+03	9.145284E-16	4.041038E-17
3.400000E+03	9.307991E-16	3.951392E-17
3.410000E+03	9.476848E-16	3.869737E-17
3.420000E+03	9.652417E-16	3.797387E-17
3.430000E+03	9.833614E-16	3.734898E-17
3.440000E+03	1.002168E-15	3.683592E-17
3.450000E+03	1.021538E-15	3.643660E-17
3.460000E+03	1.041419E-15	3.615353E-17
3.470000E+03	1.061831E-15	3.598907E-17
3.480000E+03	1.082704E-15	3.593945E-17
3.490000E+03	1.104038E-15	3.600029E-17
3.500000E+03	1.125656E-15	3.615876E-17
3.510000E+03	1.147537E-15	3.640492E-17
3.520000E+03	1.169564E-15	3.672431E-17
3.530000E+03	1.191691E-15	3.710393E-17
3.540000E+03	1.213696E-15	3.752499E-17
3.550000E+03	1.235511E-15	3.797394E-17
3.560000E+03	1.256892E-15	3.843250E-17
3.570000E+03	1.277840E-15	3.889091E-17
3.580000E+03	1.298096E-15	3.933276E-17
3.590000E+03	1.317563E-15	3.974804E-17
3.600000E+03	1.335977E-15	4.012314E-17
3.610000E+03	1.353155E-15	4.044870E-17
3.620000E+03	1.369090E-15	4.072224E-17
3.630000E+03	1.383454E-15	4.093355E-17
3.640000E+03	1.396188E-15	4.108229E-17
3.650000E+03	1.407107E-15	4.116597E-17
3.660000E+03	1.416312E-15	4.119195E-17
3.670000E+03	1.423727E-15	4.116324E-17
3.680000E+03	1.429433E-15	4.108785E-17
3.690000E+03	1.433534E-15	4.097401E-17
3.700000E+03	1.436461E-15	4.083856E-17
3.710000E+03	1.438455E-15	4.069147E-17
3.720000E+03	1.440155E-15	4.055253E-17
3.730000E+03	1.442005E-15	4.043437E-17
3.740000E+03	1.444742E-15	4.035640E-17
3.750000E+03	1.449084E-15	4.033629E-17
3.760000E+03	1.455716E-15	4.038973E-17
3.770000E+03	1.465461E-15	4.053569E-17
3.780000E+03	1.478993E-15	4.078852E-17
3.790000E+03	1.497074E-15	4.116499E-17
3.800000E+03	1.520271E-15	4.167659E-17
3.810000E+03	1.549131E-15	4.233455E-17
3.820000E+03	1.584158E-15	4.314928E-17
3.830000E+03	1.625536E-15	4.412299E-17
3.840000E+03	1.673429E-15	4.525789E-17
3.850000E+03	1.727903E-15	4.655410E-17
3.860000E+03	1.788713E-15	4.800393E-17
3.870000E+03	1.855547E-15	4.959864E-17
3.880000E+03	1.927686E-15	5.131911E-17
3.890000E+03	2.004398E-15	5.314653E-17
3.900000E+03	2.084676E-15	5.505530E-17
3.910000E+03	2.167167E-15	5.701141E-17
3.920000E+03	2.250634E-15	5.898461E-17
3.930000E+03	2.333491E-15	6.093645E-17
3.940000E+03	2.414066E-15	6.282737E-17
3.950000E+03	2.490746E-15	6.462068E-17
3.960000E+03	2.561979E-15	6.628247E-17
3.970000E+03	2.626355E-15	6.778335E-17
3.980000E+03	2.682605E-15	6.909771E-17
3.990000E+03	2.729903E-15	7.021064E-17
4.000000E+03	2.767523E-15	7.110789E-17
4.010000E+03	2.795342E-15	7.178772E-17
4.020000E+03	2.813436E-15	7.225000E-17
4.030000E+03	2.822287E-15	7.250123E-17
4.040000E+03	2.822654E-15	7.255156E-17
4.050000E+03	2.815431E-15	7.241192E-17
4.060000E+03	2.801725E-15	7.209723E-17
4.070000E+03	2.782717E-15	7.162392E-17
4.080000E+03	2.759529E-15	7.100781E-17
4.090000E+03	2.733385E-15	7.026927E-17
4.100000E+03	2.705302E-15	6.942574E-17
4.110000E+03	2.676197E-15	6.849505E-17
4.120000E+03	2.647001E-15	6.749799E-17
4.130000E+03	2.618386E-15	6.645108E-17
4.140000E+03	2.590944E-15	6.537076E-17
4.150000E+03	2.565073E-15	6.426973E-17
4.160000E+03	2.541139E-15	6.316088E-17
4.170000E+03	2.519260E-15	6.205136E-17
4.180000E+03	2.499478E-15	6.094704E-17
4.190000E+03	2.481721E-15	5.985139E-17
4.200000E+03	2.465809E-15	5.876604E-17
4.210000E+03	2.451426E-15	5.769020E-17
4.220000E+03	2.438292E-15	5.662484E-17
4.230000E+03	2.425974E-15	5.556832E-17
4.240000E+03	2.414061E-15	5.452032E-17
4.250000E+03	2.402132E-15	5.348090E-17
4.260000E+03	2.389823E-15	5.245165E-17
4.270000E+03	2.376660E-15	5.143195E-17
4.280000E+03	2.362356E-15	5.042539E-17
4.290000E+03	2.346650E-15	4.943606E-17
4.300000E+03	2.329366E-15	4.847011E-17
4.310000E+03	2.310394E-15	4.753522E-17
4.320000E+03	2.289874E-15	4.664429E-17
4.330000E+03	2.267911E-15	4.580922E-17
4.340000E+03	2.244878E-15	4.504617E-17
4.350000E+03	2.221252E-15	4.437110E-17
4.360000E+03	2.197603E-15	4.379832E-17
4.370000E+03	2.174704E-15	4.334135E-17
4.380000E+03	2.153384E-15	4.300977E-17
4.390000E+03	2.134503E-15	4.280964E-17
4.400000E+03	2.118987E-15	4.274558E-17
4.410000E+03	2.107757E-15	4.282107E-17
4.420000E+03	2.101657E-15	4.303891E-17
4.430000E+03	2.101526E-15	4.340385E-17
4.440000E+03	2.108040E-15	4.391984E-17
4.450000E+03	2.121796E-15	4.459187E-17
4.460000E+03	2.143230E-15	4.542409E-17
4.470000E+03	2.172704E-15	4.642121E-17
4.480000E+03	2.210355E-15	4.758499E-17
4.490000E+03	2.256173E-15	4.891538E-17
4.500000E+03	2.310015E-15	5.041028E-17
4.510000E+03	2.371376E-15	5.205996E-17
4.520000E+03	2.439560E-15	5.385041E-17
4.530000E+03	2.513631E-15	5.576167E-17
4.540000E+03	2.592298E-15	5.776496E-17
4.550000E+03	2.674026E-15	5.982477E-17
4.560000E+03	2.757040E-15	6.189855E-17
4.570000E+03	2.839374E-15	6.393769E-17
4.580000E+03	2.918922E-15	6.588832E-17
4.590000E+03	2.993620E-15	6.769534E-17
4.600000E+03	3.061527E-15	6.930441E-17
4.610000E+03	3.120942E-15	7.066514E-17
4.620000E+03	3.170432E-15	7.173240E-17
4.630000E+03	3.209167E-15	7.247505E-17
4.640000E+03	3.236672E-15	7.287173E-17
4.650000E+03	3.252971E-15	7.291518E-17
4.660000E+03	3.258647E-15	7.261461E-17
4.670000E+03	3.254568E-15	7.199026E-17
4.680000E+03	3.242106E-15	7.107831E-17
4.690000E+03	3.222697E-15	6.992109E-17
4.700000E+03	3.197993E-15	6.857002E-17
4.710000E+03	3.169714E-15	6.708202E-17
4.720000E+03	3.139440E-15	6.551490E-17
4.730000E+03	3.108707E-15	6.392939E-17
4.740000E+03	3.078757E-15	6.238419E-17
4.750000E+03	3.050782E-15	6.094105E-17
4.760000E+03	3.025677E-15	5.965906E-17
4.770000E+03	3.004076E-15	5.859386E-17
4.780000E+03	2.986509E-15	5.779761E-17
4.790000E+03	2.973188E-15	5.731009E-17
4.800000E+03	2.964142E-15	5.715349E-17
4.810000E+03	2.959369E-15	5.732298E-17
4.820000E+03	2.958558E-15	5.778399E-17
4.830000E+03	2.961430E-15	5.849183E-17
4.840000E+03	2.967468E-15	5.939401E-17
4.850000E+03	2.976065E-15	6.043825E-17
4.860000E+03	2.986471E-15	6.157460E-17
4.870000E+03	2.997941E-15	6.276019E-17
4.880000E+03	3.009502E-15	6.395477E-17
4.890000E+03	3.020213E-15	6.512524E-17
4.900000E+03	3.029087E-15	6.624250E-17
4.910000E+03	3.035048E-15	6.727866E-17
4.920000E+03	3.037121E-15	6.820907E-17
4.930000E+03	3.034348E-15	6.900881E-17
4.940000E+03	3.025988E-15	6.965590E-17
4.950000E+03	3.011516E-15	7.013067E-17
4.960000E+03	2.990603E-15	7.041542E-17
4.970000E+03	2.963262E-15	7.049835E-17
4.980000E+03	2.929857E-15	7.037486E-17
4.990000E+03	2.891050E-15	7.004782E-17
5.000000E+03	2.847671E-15	6.952566E-17
5.010000E+03	2.800848E-15	6.882692E-17
5.020000E+03	2.751871E-15	6.797791E-17
5.030000E+03	2.701933E-15	6.700695E-17
5.040000E+03	2.652406E-15	6.595100E-17
5.050000E+03	2.604479E-15	6.484632E-17
5.060000E+03	2.559273E-15	6.373027E-17
5.070000E+03	2.517786E-15	6.263874E-17
5.080000E+03	2.480904E-15	6.160533E-17
5.090000E+03	2.449322E-15	6.065821E-17
5.100000E+03	2.423654E-15	5.982227E-17
5.110000E+03	2.404368E-15	5.911687E-17
5.120000E+03	2.391817E-15	5.855662E-17
5.130000E+03	2.386256E-15	5.815171E-17
5.140000E+03	2.387874E-15	5.790880E-17
5.150000E+03	2.396718E-15	5.782958E-17
5.160000E+03	2.412779E-15	5.791284E-17
5.170000E+03	2.435986E-15	5.815474E-17
5.180000E+03	2.466129E-15	5.854713E-17
5.190000E+03	2.502965E-15	5.908004E-17
5.200000E+03	2.546135E-15	5.973995E-17
5.210000E+03	2.595167E-15	6.050981E-17
5.220000E+03	2.649592E-15	6.137172E-17
5.230000E+03	2.708768E-15	6.230277E-17
5.240000E+03	2.772111E-15	6.328052E-17
5.250000E+03	2.838898E-15	6.427842E-17
5.260000E+03	2.908486E-15	6.527120E-17
5.270000E+03	2.980264E-15	6.623385E-17
5.280000E+03	3.053585E-15	6.714067E-17
5.290000E+03	3.128011E-15	6.797125E-17
5.300000E+03	3.203119E-15	6.870681E-17
5.310000E+03	3.278651E-15	6.933406E-17
5.320000E+03	3.354490E-15	6.984533E-17
5.330000E+03	3.430700E-15	7.023977E-17
5.340000E+03	3.507374E-15	7.052065E-17
5.350000E+03	3.584865E-15	7.070025E-17
5.360000E+03	3.663496E-15	7.079446E-17
5.370000E+03	3.743704E-15	7.082601E-17
5.380000E+03	3.825797E-15	7.082054E-17
5.390000E+03	3.910162E-15	7.081144E-17
5.400000E+03	3.996984E-15	7.083531E-17
5.410000E+03	4.086181E-15	7.093137E-17
5.420000E+03	4.177606E-15	7.114453E-17
5.430000E+03	4.270767E-15	7.151847E-17
5.440000E+03	4.364779E-15	7.209030E-17
5.450000E+03	4.458645E-15	7.288977E-17
5.460000E+03	4.550861E-15	7.393363E-17
5.470000E+03	4.639785E-15	7.523259E-17
5.480000E+03	4.723652E-15	7.678907E-17
5.490000E+03	4.800534E-15	7.859083E-17
5.500000E+03	4.868325E-15	8.059972E-17
5.510000E+03	4.924901E-15	8.274624E-17
5.520000E+03	4.968151E-15	8.493915E-17
5.530000E+03	4.996442E-15	8.708347E-17
5.540000E+03	5.008451E-15	8.908537E-17
5.550000E+03	5.003419E-15	9.086240E-17
5.560000E+03	4.981358E-15	9.235187E-17
5.570000E+03	4.942764E-15	9.350870E-17
5.580000E+03	4.888794E-15	9.431015E-17
5.590000E+03	4.821149E-15	9.475429E-17
5.600000E+03	4.742028E-15	9.485906E-17
5.610000E+03	4.653870E-15	9.465641E-17
5.620000E+03	4.559423E-15	9.419255E-17
5.630000E+03	4.461431E-15	9.352049E-17
5.640000E+03	4.362704E-15	9.269998E-17
5.650000E+03	4.265833E-15	9.179048E-17
5.660000E+03	4.173278E-15	9.085187E-17
5.670000E+03	4.087139E-15	8.993836E-17
5.680000E+03	4.009267E-15	8.910026E-17
5.690000E+03	3.941073E-15	8.837902E-17
5.700000E+03	3.883678E-15	8.780988E-17
5.710000E+03	3.837742E-15	8.741780E-17
5.720000E+03	3.803627E-15	8.722068E-17
5.730000E+03	3.781293E-15	8.722675E-17
5.740000E+03	3.770303E-15	8.743466E-17
5.750000E+03	3.769921E-15	8.783538E-17
5.760000E+03	3.779125E-15	8.841247E-17
5.770000E+03	3.796523E-15	8.913993E-17
5.780000E+03	3.820533E-15	8.998630E-17
5.790000E+03	3.849287E-15	9.091215E-17
5.800000E+03	3.880833E-15	9.187490E-17
5.810000E+03	3.913065E-15	9.282701E-17
5.820000E+03	3.943918E-15	9.372058E-17
5.830000E+03	3.971424E-15	9.450868E-17
5.840000E+03	3.993801E-15	9.514748E-17
5.850000E+03	4.009575E-15	9.559926E-17
5.860000E+03	4.017493E-15	9.583039E-17
5.870000E+03	4.016797E-15	9.581818E-17
5.880000E+03	4.007129E-15	9.554884E-17
5.890000E+03	3.988402E-15	9.501485E-17
5.900000E+03	3.960970E-15	9.421930E-17
5.910000E+03	3.925569E-15	9.317495E-17
5.920000E+03	3.882992E-15	9.189669E-17
5.930000E+03	3.834399E-15	9.040934E-17
5.940000E+03	3.780981E-15	8.873982E-17
5.950000E+03	3.723896E-15	8.691607E-17
5.960000E+03	3.664395E-15	8.497018E-17
5.970000E+03	3.603619E-15	8.293390E-17
5.980000E+03	3.542566E-15	8.083787E-17
5.990000E+03	3.482162E-15	7.871317E-17
6.000000E+03	3.423103E-15	7.658721E-17
6.010000E+03	3.365947E-15	7.448505E-17
6.020000E+03	3.311085E-15	7.242745E-17
6.030000E+03	3.258720E-15	7.042908E-17
6.040000E+03	3.208983E-15	6.850000E-17
6.050000E+03	3.161815E-15	6.664223E-17
6.060000E+03	3.117158E-15	6.485415E-17
6.070000E+03	3.074975E-15	6.313123E-17
6.080000E+03	3.035169E-15	6.146565E-17
6.090000E+03	2.997779E-15	5.985139E-17
6.100000E+03	2.962911E-15	5.828410E-17
6.110000E+03	2.930847E-15	5.676398E-17
6.120000E+03	2.901863E-15	5.529295E-17
6.130000E+03	2.876417E-15	5.387858E-17
6.140000E+03	2.854964E-15	5.253081E-17
6.150000E+03	2.838033E-15	5.126337E-17
6.160000E+03	2.826027E-15	5.009047E-17
6.170000E+03	2.819319E-15	4.902886E-17
6.180000E+03	2.818066E-15	4.809511E-17
6.190000E+03	2.822364E-15	4.730899E-17
6.200000E+03	2.832128E-15	4.669148E-17
6.210000E+03	2.847174E-15	4.626590E-17
6.220000E+03	2.867103E-15	4.605464E-17
6.230000E+03	2.891458E-15	4.607905E-17
6.240000E+03	2.919651E-15	4.635361E-17
6.250000E+03	2.951298E-15	4.688065E-17
6.260000E+03	2.986186E-15	4.764016E-17
6.270000E+03	3.024393E-15	4.860145E-17
6.280000E+03	3.066040E-15	4.973028E-17
6.290000E+03	3.111383E-15	5.099554E-17
6.300000E+03	3.160663E-15	5.236948E-17
6.310000E+03	3.214127E-15	5.382897E-17
6.320000E+03	3.271991E-15	5.535454E-17
6.330000E+03	3.334495E-15	5.693051E-17
6.340000E+03	3.401559E-15	5.853809E-17
6.350000E+03	3.473150E-15	6.016051E-17
6.360000E+03	3.548940E-15	6.177674E-17
6.370000E+03	3.628350E-15	6.336167E-17
6.380000E+03	3.710675E-15	6.488860E-17
6.390000E+03	3.794869E-15	6.632581E-17
6.400000E+03	3.879732E-15	6.764092E-17
6.410000E+03	3.963820E-15	6.880050E-17
6.420000E+03	4.045607E-15	6.977435E-17
6.430000E+03	4.123278E-15	7.053374E-17
6.440000E+03	4.195172E-15	7.106069E-17
6.450000E+03	4.259520E-15	7.134493E-17
6.460000E+03	4.314642E-15	7.138862E-17
6.470000E+03	4.359117E-15	7.120978E-17
6.480000E+03	4.391768E-15	7.084160E-17
6.490000E+03	4.411618E-15	7.033015E-17
6.500000E+03	4.418013E-15	6.973272E-17
6.510000E+03	4.410533E-15	6.911052E-17
6.520000E+03	4.389202E-15	6.852361E-17
6.530000E+03	4.354167E-15	6.801467E-17
6.540000E+03	4.305536E-15	6.759172E-17
6.550000E+03	4.243425E-15	6.722601E-17
6.560000E+03	4.168054E-15	6.686821E-17
6.570000E+03	4.080017E-15	6.646483E-17
6.580000E+03	3.980314E-15	6.596740E-17
6.590000E+03	3.870208E-15	6.533653E-17
6.600000E+03	3.751365E-15	6.454822E-17
6.610000E+03	3.625655E-15	6.359264E-17
6.620000E+03	3.495123E-15	6.247396E-17
6.630000E+03	3.361894E-15	6.120827E-17
6.640000E+03	3.228085E-15	5.982080E-17
6.650000E+03	3.095787E-15	5.834415E-17
6.660000E+03	2.966777E-15	5.681138E-17
6.670000E+03	2.842711E-15	5.525804E-17
6.680000E+03	2.724975E-15	5.371804E-17
6.690000E+03	2.614597E-15	5.222086E-17
6.700000E+03	2.512348E-15	5.079246E-17
6.710000E+03	2.418744E-15	4.945468E-17
6.720000E+03	2.334011E-15	4.822395E-17
6.730000E+03	2.258176E-15	4.711255E-17
6.740000E+03	2.190999E-15	4.612679E-17
6.750000E+03	2.132193E-15	4.527129E-17
6.760000E+03	2.081284E-15	4.454563E-17
6.770000E+03	2.037774E-15	4.394768E-17
6.780000E+03	2.001102E-15	4.347242E-17
6.790000E+03	1.970691E-15	4.311307E-17
6.800000E+03	1.945978E-15	4.286145E-17
6.810000E+03	1.926422E-15	4.270837E-17
6.820000E+03	1.911521E-15	4.264392E-17
6.830000E+03	1.900832E-15	4.265825E-17
6.840000E+03	1.893880E-15	4.273977E-17
6.850000E+03	1.890337E-15	4.287958E-17
6.860000E+03	1.889784E-15	4.306661E-17
6.870000E+03	1.891889E-15	4.329209E-17
6.880000E+03	1.896284E-15	4.354714E-17
6.890000E+03	1.902655E-15	4.382489E-17
6.900000E+03	1.910669E-15	4.411884E-17
6.910000E+03	1.920001E-15	4.442307E-17
6.920000E+03	1.930332E-15	4.473207E-17
6.930000E+03	1.941338E-15	4.504005E-17
6.940000E+03	1.952788E-15	4.534325E-17
6.950000E+03	1.964383E-15	4.563626E-17
6.960000E+03	1.975934E-15	4.591622E-17
6.970000E+03	1.987296E-15	4.618146E-17
6.980000E+03	1.998298E-15	4.643003E-17
6.990000E+03	2.008867E-15	4.666256E-17
7.000000E+03	2.019031E-15	4.688232E-17
7.010000E+03	2.028765E-15	4.709160E-17
7.020000E+03	2.038160E-15	4.729563E-17
7.030000E+03	2.047318E-15	4.750005E-17
7.040000E+03	2.056338E-15	4.771059E-17
7.050000E+03	2.065386E-15	4.793463E-17
7.060000E+03	2.074585E-15	4.817833E-17
7.070000E+03	2.084109E-15	4.844869E-17
7.080000E+03	2.094049E-15	4.875006E-17
7.090000E+03	2.104593E-15	4.908799E-17
7.100000E+03	2.115838E-15	4.946464E-17
7.110000E+03	2.127868E-15	4.988026E-17
7.120000E+03	2.140804E-15	5.033425E-17
7.130000E+03	2.154721E-15	5.082310E-17
7.140000E+03	2.169647E-15	5.134032E-17
7.150000E+03	2.185576E-15	5.187712E-17
7.160000E+03	2.202557E-15	5.242472E-17
7.170000E+03	2.220493E-15	5.297042E-17
7.180000E+03	2.239336E-15	5.350302E-17
7.190000E+03	2.258950E-15	5.401058E-17
7.200000E+03	2.279172E-15	5.448278E-17
7.210000E+03	2.299880E-15	5.491328E-17
7.220000E+03	2.320918E-15	5.529837E-17
7.230000E+03	2.342081E-15	5.563652E-17
7.240000E+03	2.363276E-15	5.593175E-17
7.250000E+03	2.384356E-15	5.618887E-17
7.260000E+03	2.405343E-15	5.641743E-17
7.270000E+03	2.426192E-15	5.662498E-17
7.280000E+03	2.446969E-15	5.682016E-17
7.290000E+03	2.467750E-15	5.700970E-17
7.300000E+03	2.488670E-15	5.719922E-17
7.310000E+03	2.509831E-15	5.739136E-17
7.320000E+03	2.531376E-15	5.758795E-17
7.330000E+03	2.553263E-15	5.778552E-17
7.340000E+03	2.575531E-15	5.798201E-17
7.350000E+03	2.597954E-15	5.816943E-17
7.360000E+03	2.620313E-15	5.834052E-17
7.370000E+03	2.642166E-15	5.848371E-17
7.380000E+03	2.663052E-15	5.858780E-17
7.390000E+03	2.682309E-15	5.863788E-17
7.400000E+03	2.699310E-15	5.862050E-17
7.410000E+03	2.713277E-15	5.851925E-17
7.420000E+03	2.723606E-15	5.832181E-17
7.430000E+03	2.729733E-15	5.801652E-17
7.440000E+03	2.731328E-15	5.759645E-17
7.450000E+03	2.728180E-15	5.705670E-17
7.460000E+03	2.720479E-15	5.640036E-17
7.470000E+03	2.708653E-15	5.563532E-17
7.480000E+03	2.693326E-15	5.477362E-17
7.490000E+03	2.675425E-15	5.383394E-17
7.500000E+03	2.656083E-15	5.283969E-17
7.510000E+03	2.636401E-15	5.181402E-17
7.520000E+03	2.617687E-15	5.078411E-17
7.530000E+03	2.601106E-15	4.977387E-17
7.540000E+03	2.587726E-15	4.880453E-17
7.550000E+03	2.578510E-15	4.789463E-17
7.560000E+03	2.574214E-15	4.705890E-17
7.570000E+03	2.575412E-15	4.631033E-17
7.580000E+03	2.582567E-15	4.566360E-17
7.590000E+03	2.595864E-15	4.513477E-17
7.600000E+03	2.615360E-15	4.474634E-17
7.610000E+03	2.641027E-15	4.452919E-17
7.620000E+03	2.672575E-15	4.451884E-17
7.630000E+03	2.709606E-15	4.475398E-17
7.640000E+03	2.751419E-15	4.526173E-17
7.650000E+03	2.796914E-15	4.604053E-17
7.660000E+03	2.844683E-15	4.706489E-17
7.670000E+03	2.893159E-15	4.829532E-17
7.680000E+03	2.940769E-15	4.968355E-17
7.690000E+03	2.985725E-15	5.117090E-17
7.700000E+03	3.026532E-15	5.269865E-17
7.710000E+03	3.061616E-15	5.420362E-17
7.720000E+03	3.089707E-15	5.562678E-17
7.730000E+03	3.109727E-15	5.691332E-17
7.740000E+03	3.120828E-15	5.801487E-17
7.750000E+03	3.122584E-15	5.889466E-17
7.760000E+03	3.114706E-15	5.952300E-17
