#wls	flux	fluxerr
1.600000E+03	3.334328E-16	8.804745E-17
1.640000E+03	3.122683E-16	7.646759E-17
1.680000E+03	2.925957E-16	6.609313E-17
1.720000E+03	2.744844E-16	5.686133E-17
1.760000E+03	2.579292E-16	4.869070E-17
1.800000E+03	2.429618E-16	4.150806E-17
1.840000E+03	2.295102E-16	3.522530E-17
1.880000E+03	2.175925E-16	2.977663E-17
1.920000E+03	2.072191E-16	2.510178E-17
1.960000E+03	1.983617E-16	2.114668E-17
2.000000E+03	1.910049E-16	1.787436E-17
2.040000E+03	1.851862E-16	1.526900E-17
2.080000E+03	1.809321E-16	1.332449E-17
2.120000E+03	1.783825E-16	1.203071E-17
2.160000E+03	1.776240E-16	1.132491E-17
2.200000E+03	1.788893E-16	1.114390E-17
2.240000E+03	1.824359E-16	1.144409E-17
2.280000E+03	1.884565E-16	1.219601E-17
2.320000E+03	1.971289E-16	1.334268E-17
2.360000E+03	2.084753E-16	1.479859E-17
2.400000E+03	2.225313E-16	1.649804E-17
2.440000E+03	2.391897E-16	1.839372E-17
2.480000E+03	2.582821E-16	2.046870E-17
2.520000E+03	2.795165E-16	2.273982E-17
2.560000E+03	3.024601E-16	2.526094E-17
2.600000E+03	3.265417E-16	2.811484E-17
2.640000E+03	3.510963E-16	3.138185E-17
2.680000E+03	3.755552E-16	3.506200E-17
2.720000E+03	3.994412E-16	3.905271E-17
2.760000E+03	4.224938E-16	4.320298E-17
2.800000E+03	4.445120E-16	4.732509E-17
2.840000E+03	4.653484E-16	5.121739E-17
2.880000E+03	4.851006E-16	5.470428E-17
2.920000E+03	5.039145E-16	5.762861E-17
2.960000E+03	5.221037E-16	5.987186E-17
3.000000E+03	5.401390E-16	6.135553E-17
3.010000E+03	5.446940E-16	6.160221E-17
3.020000E+03	5.493019E-16	6.179985E-17
3.030000E+03	5.539004E-16	6.193989E-17
3.040000E+03	5.586366E-16	6.203734E-17
3.050000E+03	5.633781E-16	6.207602E-17
3.060000E+03	5.682029E-16	6.206321E-17
3.070000E+03	5.731190E-16	6.199845E-17
3.080000E+03	5.781345E-16	6.188134E-17
3.090000E+03	5.832580E-16	6.171150E-17
3.100000E+03	5.885690E-16	6.149606E-17
3.110000E+03	5.939341E-16	6.121982E-17
3.120000E+03	5.995046E-16	6.089733E-17
3.130000E+03	6.052184E-16	6.052099E-17
3.140000E+03	6.110845E-16	6.009069E-17
3.150000E+03	6.171843E-16	5.961332E-17
3.160000E+03	6.234555E-16	5.908173E-17
3.170000E+03	6.299801E-16	5.850273E-17
3.180000E+03	6.367686E-16	5.787613E-17
3.190000E+03	6.437584E-16	5.719534E-17
3.200000E+03	6.510328E-16	5.646709E-17
3.210000E+03	6.586762E-16	5.569774E-17
3.220000E+03	6.665528E-16	5.487497E-17
3.230000E+03	6.747471E-16	5.400562E-17
3.240000E+03	6.833451E-16	5.309616E-17
3.250000E+03	6.922843E-16	5.214148E-17
3.260000E+03	7.015766E-16	5.114287E-17
3.270000E+03	7.113092E-16	5.010734E-17
3.280000E+03	7.214192E-16	4.903140E-17
3.290000E+03	7.320712E-16	4.792772E-17
3.300000E+03	7.431261E-16	4.678901E-17
3.310000E+03	7.547500E-16	4.562862E-17
3.320000E+03	7.668019E-16	4.444147E-17
3.330000E+03	7.794491E-16	4.324201E-17
3.340000E+03	7.926263E-16	4.203191E-17
3.350000E+03	8.064237E-16	4.082255E-17
3.360000E+03	8.208523E-16	3.962192E-17
3.370000E+03	8.359218E-16	3.843908E-17
3.380000E+03	8.516391E-16	3.728401E-17
3.390000E+03	8.680084E-16	3.616747E-17
3.400000E+03	8.850300E-16	3.510069E-17
3.410000E+03	9.027821E-16	3.409806E-17
3.420000E+03	9.212565E-16	3.317017E-17
3.430000E+03	9.404388E-16	3.232678E-17
3.440000E+03	9.603065E-16	3.157635E-17
3.450000E+03	9.808285E-16	3.092554E-17
3.460000E+03	1.002049E-15	3.038142E-17
3.470000E+03	1.023830E-15	2.994309E-17
3.480000E+03	1.046191E-15	2.961188E-17
3.490000E+03	1.069050E-15	2.938286E-17
3.500000E+03	1.092306E-15	2.924797E-17
3.510000E+03	1.115931E-15	2.919891E-17
3.520000E+03	1.139700E-15	2.922056E-17
3.530000E+03	1.163547E-15	2.930089E-17
3.540000E+03	1.187299E-15	2.942453E-17
3.550000E+03	1.210764E-15	2.957574E-17
3.560000E+03	1.233733E-15	2.973889E-17
3.570000E+03	1.255982E-15	2.989896E-17
3.580000E+03	1.277363E-15	3.004400E-17
3.590000E+03	1.297626E-15	3.016112E-17
3.600000E+03	1.316515E-15	3.023906E-17
3.610000E+03	1.333771E-15	3.026842E-17
3.620000E+03	1.349139E-15	3.024215E-17
3.630000E+03	1.362378E-15	3.015584E-17
3.640000E+03	1.373364E-15	3.001012E-17
3.650000E+03	1.381836E-15	2.980494E-17
3.660000E+03	1.387771E-15	2.954741E-17
3.670000E+03	1.391058E-15	2.924390E-17
3.680000E+03	1.391941E-15	2.890864E-17
3.690000E+03	1.390535E-15	2.855226E-17
3.700000E+03	1.387177E-15	2.818828E-17
3.710000E+03	1.382345E-15	2.783062E-17
3.720000E+03	1.376648E-15	2.749308E-17
3.730000E+03	1.370889E-15	2.719050E-17
3.740000E+03	1.365807E-15	2.693404E-17
3.750000E+03	1.362350E-15	2.673706E-17
3.760000E+03	1.361353E-15	2.660929E-17
3.770000E+03	1.363791E-15	2.656245E-17
3.780000E+03	1.370472E-15	2.660485E-17
3.790000E+03	1.382291E-15	2.674670E-17
3.800000E+03	1.400001E-15	2.699606E-17
3.810000E+03	1.424198E-15	2.735878E-17
3.820000E+03	1.455494E-15	2.784195E-17
3.830000E+03	1.494308E-15	2.844975E-17
3.840000E+03	1.540901E-15	2.918440E-17
3.850000E+03	1.595295E-15	3.004449E-17
3.860000E+03	1.657371E-15	3.102695E-17
3.870000E+03	1.726919E-15	3.212789E-17
3.880000E+03	1.803128E-15	3.333308E-17
3.890000E+03	1.885256E-15	3.463026E-17
3.900000E+03	1.972132E-15	3.599990E-17
3.910000E+03	2.062220E-15	3.741646E-17
3.920000E+03	2.153788E-15	3.885158E-17
3.930000E+03	2.244876E-15	4.027398E-17
3.940000E+03	2.333372E-15	4.165103E-17
3.950000E+03	2.417096E-15	4.295084E-17
3.960000E+03	2.493919E-15	4.414429E-17
3.970000E+03	2.561802E-15	4.520544E-17
3.980000E+03	2.619088E-15	4.611571E-17
3.990000E+03	2.664615E-15	4.686439E-17
4.000000E+03	2.697548E-15	4.744387E-17
4.010000E+03	2.717670E-15	4.785320E-17
4.020000E+03	2.725292E-15	4.809553E-17
4.030000E+03	2.721118E-15	4.817560E-17
4.040000E+03	2.706328E-15	4.810183E-17
4.050000E+03	2.682457E-15	4.788567E-17
4.060000E+03	2.650980E-15	4.753600E-17
4.070000E+03	2.613664E-15	4.706735E-17
4.080000E+03	2.572106E-15	4.649324E-17
4.090000E+03	2.527950E-15	4.583135E-17
4.100000E+03	2.482494E-15	4.509708E-17
4.110000E+03	2.437065E-15	4.431040E-17
4.120000E+03	2.392726E-15	4.349008E-17
4.130000E+03	2.350226E-15	4.265203E-17
4.140000E+03	2.310347E-15	4.181474E-17
4.150000E+03	2.273391E-15	4.098905E-17
4.160000E+03	2.239752E-15	4.018797E-17
4.170000E+03	2.209483E-15	3.941836E-17
4.180000E+03	2.182484E-15	3.868431E-17
4.190000E+03	2.158616E-15	3.798918E-17
4.200000E+03	2.137521E-15	3.733265E-17
4.210000E+03	2.118748E-15	3.671306E-17
4.220000E+03	2.101868E-15	3.612938E-17
4.230000E+03	2.086264E-15	3.557748E-17
4.240000E+03	2.071430E-15	3.505479E-17
4.250000E+03	2.056812E-15	3.455715E-17
4.260000E+03	2.041799E-15	3.407820E-17
4.270000E+03	2.025950E-15	3.361291E-17
4.280000E+03	2.008816E-15	3.315450E-17
4.290000E+03	1.990081E-15	3.269703E-17
4.300000E+03	1.969511E-15	3.223497E-17
4.310000E+03	1.947082E-15	3.176597E-17
4.320000E+03	1.922812E-15	3.128863E-17
4.330000E+03	1.896992E-15	3.080671E-17
4.340000E+03	1.869970E-15	3.032585E-17
4.350000E+03	1.842388E-15	2.985727E-17
4.360000E+03	1.814891E-15	2.941275E-17
4.370000E+03	1.788323E-15	2.900606E-17
4.380000E+03	1.763623E-15	2.864921E-17
4.390000E+03	1.741868E-15	2.835564E-17
4.400000E+03	1.724017E-15	2.813506E-17
4.410000E+03	1.711166E-15	2.799826E-17
4.420000E+03	1.704262E-15	2.795474E-17
4.430000E+03	1.704176E-15	2.801420E-17
4.440000E+03	1.711761E-15	2.818757E-17
4.450000E+03	1.727663E-15	2.848365E-17
4.460000E+03	1.752497E-15	2.891201E-17
4.470000E+03	1.786728E-15	2.948097E-17
4.480000E+03	1.830626E-15	3.019686E-17
4.490000E+03	1.884345E-15	3.106538E-17
4.500000E+03	1.947858E-15	3.209045E-17
4.510000E+03	2.020795E-15	3.327154E-17
4.520000E+03	2.102554E-15	3.460547E-17
4.530000E+03	2.192110E-15	3.608306E-17
4.540000E+03	2.288053E-15	3.768967E-17
4.550000E+03	2.388515E-15	3.940356E-17
4.560000E+03	2.491278E-15	4.119719E-17
4.570000E+03	2.593706E-15	4.303507E-17
4.580000E+03	2.692950E-15	4.487614E-17
4.590000E+03	2.786106E-15	4.667503E-17
4.600000E+03	2.870255E-15	4.838163E-17
4.610000E+03	2.942846E-15	4.994682E-17
4.620000E+03	3.001855E-15	5.132533E-17
4.630000E+03	3.045859E-15	5.247795E-17
4.640000E+03	3.074096E-15	5.337403E-17
4.650000E+03	3.086695E-15	5.399749E-17
4.660000E+03	3.084525E-15	5.434608E-17
4.670000E+03	3.068938E-15	5.442834E-17
4.680000E+03	3.042025E-15	5.426915E-17
4.690000E+03	3.005974E-15	5.389875E-17
4.700000E+03	2.963291E-15	5.335659E-17
4.710000E+03	2.916444E-15	5.268467E-17
4.720000E+03	2.867770E-15	5.192559E-17
4.730000E+03	2.819341E-15	5.112004E-17
4.740000E+03	2.773011E-15	5.030768E-17
4.750000E+03	2.730247E-15	4.952407E-17
4.760000E+03	2.692230E-15	4.880219E-17
4.770000E+03	2.659798E-15	4.817058E-17
4.780000E+03	2.633597E-15	4.765470E-17
4.790000E+03	2.613940E-15	4.727261E-17
4.800000E+03	2.600834E-15	4.703286E-17
4.810000E+03	2.594210E-15	4.693106E-17
4.820000E+03	2.593743E-15	4.694866E-17
4.830000E+03	2.598933E-15	4.706162E-17
4.840000E+03	2.609114E-15	4.724342E-17
4.850000E+03	2.623503E-15	4.746827E-17
4.860000E+03	2.641142E-15	4.771209E-17
4.870000E+03	2.660975E-15	4.795497E-17
4.880000E+03	2.681787E-15	4.818052E-17
4.890000E+03	2.702252E-15	4.837623E-17
4.900000E+03	2.720986E-15	4.853298E-17
4.910000E+03	2.736528E-15	4.864262E-17
4.920000E+03	2.747403E-15	4.869640E-17
4.930000E+03	2.752352E-15	4.868653E-17
4.940000E+03	2.750149E-15	4.860055E-17
4.950000E+03	2.739944E-15	4.842600E-17
4.960000E+03	2.721253E-15	4.814974E-17
4.970000E+03	2.693987E-15	4.775913E-17
4.980000E+03	2.658502E-15	4.724449E-17
4.990000E+03	2.615578E-15	4.660091E-17
5.000000E+03	2.566362E-15	4.582977E-17
5.010000E+03	2.512306E-15	4.494010E-17
5.020000E+03	2.455028E-15	4.394809E-17
5.030000E+03	2.396130E-15	4.287506E-17
5.040000E+03	2.337294E-15	4.174946E-17
5.050000E+03	2.280044E-15	4.060202E-17
5.060000E+03	2.225728E-15	3.946425E-17
5.070000E+03	2.175559E-15	3.836761E-17
5.080000E+03	2.130558E-15	3.734083E-17
5.090000E+03	2.091487E-15	3.640754E-17
5.100000E+03	2.059030E-15	3.558851E-17
5.110000E+03	2.033650E-15	3.489876E-17
5.120000E+03	2.015728E-15	3.434987E-17
5.130000E+03	2.005509E-15	3.394926E-17
5.140000E+03	2.003122E-15	3.370078E-17
5.150000E+03	2.008654E-15	3.360636E-17
5.160000E+03	2.022109E-15	3.366568E-17
5.170000E+03	2.043345E-15	3.387543E-17
5.180000E+03	2.072198E-15	3.423168E-17
5.190000E+03	2.108396E-15	3.472844E-17
5.200000E+03	2.151571E-15	3.535798E-17
5.210000E+03	2.201286E-15	3.611109E-17
5.220000E+03	2.256938E-15	3.697538E-17
5.230000E+03	2.317936E-15	3.793789E-17
5.240000E+03	2.383549E-15	3.898245E-17
5.250000E+03	2.453022E-15	4.009139E-17
5.260000E+03	2.525609E-15	4.124610E-17
5.270000E+03	2.600505E-15	4.242592E-17
5.280000E+03	2.677064E-15	4.361209E-17
5.290000E+03	2.754655E-15	4.478574E-17
5.300000E+03	2.832830E-15	4.593123E-17
5.310000E+03	2.911215E-15	4.703479E-17
5.320000E+03	2.989732E-15	4.808865E-17
5.330000E+03	3.068399E-15	4.908797E-17
5.340000E+03	3.147447E-15	5.003267E-17
5.350000E+03	3.227262E-15	5.092636E-17
5.360000E+03	3.308349E-15	5.177554E-17
5.370000E+03	3.391282E-15	5.258875E-17
5.380000E+03	3.476671E-15	5.337646E-17
5.390000E+03	3.564951E-15	5.414854E-17
5.400000E+03	3.656565E-15	5.491822E-17
5.410000E+03	3.751606E-15	5.569812E-17
5.420000E+03	3.850062E-15	5.650556E-17
5.430000E+03	3.951516E-15	5.735920E-17
5.440000E+03	4.055154E-15	5.827525E-17
5.450000E+03	4.159707E-15	5.925606E-17
5.460000E+03	4.263411E-15	6.030093E-17
5.470000E+03	4.364285E-15	6.141718E-17
5.480000E+03	4.460381E-15	6.262355E-17
5.490000E+03	4.549638E-15	6.394358E-17
5.500000E+03	4.629569E-15	6.537040E-17
5.510000E+03	4.696619E-15	6.681623E-17
5.520000E+03	4.747277E-15	6.817194E-17
5.530000E+03	4.778540E-15	6.933456E-17
5.540000E+03	4.788301E-15	7.021903E-17
5.550000E+03	4.775260E-15	7.076069E-17
5.560000E+03	4.739337E-15	7.092333E-17
5.570000E+03	4.681340E-15	7.069483E-17
5.580000E+03	4.603088E-15	7.008824E-17
5.590000E+03	4.507267E-15	6.913823E-17
5.600000E+03	4.397113E-15	6.789437E-17
5.610000E+03	4.276379E-15	6.641865E-17
5.620000E+03	4.148938E-15	6.477771E-17
5.630000E+03	4.018710E-15	6.304013E-17
5.640000E+03	3.889481E-15	6.127255E-17
5.650000E+03	3.764640E-15	5.953492E-17
5.660000E+03	3.647200E-15	5.788047E-17
5.670000E+03	3.539701E-15	5.635400E-17
5.680000E+03	3.444183E-15	5.499161E-17
5.690000E+03	3.362220E-15	5.382132E-17
5.700000E+03	3.294809E-15	5.286150E-17
5.710000E+03	3.242629E-15	5.212513E-17
5.720000E+03	3.205809E-15	5.161636E-17
5.730000E+03	3.184186E-15	5.133467E-17
5.740000E+03	3.177189E-15	5.127324E-17
5.750000E+03	3.183854E-15	5.141922E-17
5.760000E+03	3.202925E-15	5.175525E-17
5.770000E+03	3.232731E-15	5.225746E-17
5.780000E+03	3.271326E-15	5.289748E-17
5.790000E+03	3.316360E-15	5.364021E-17
5.800000E+03	3.365348E-15	5.444800E-17
5.810000E+03	3.415523E-15	5.527814E-17
5.820000E+03	3.464036E-15	5.608580E-17
5.830000E+03	3.508143E-15	5.682698E-17
5.840000E+03	3.545247E-15	5.745894E-17
5.850000E+03	3.573035E-15	5.794227E-17
5.860000E+03	3.589665E-15	5.824388E-17
5.870000E+03	3.593833E-15	5.833816E-17
5.880000E+03	3.584790E-15	5.820755E-17
5.890000E+03	3.562491E-15	5.784536E-17
5.900000E+03	3.527323E-15	5.725180E-17
5.910000E+03	3.480240E-15	5.643662E-17
5.920000E+03	3.422598E-15	5.541689E-17
5.930000E+03	3.356042E-15	5.421554E-17
5.940000E+03	3.282391E-15	5.285990E-17
5.950000E+03	3.203489E-15	5.137974E-17
5.960000E+03	3.121176E-15	4.980711E-17
5.970000E+03	3.037198E-15	4.817526E-17
5.980000E+03	2.953031E-15	4.651586E-17
5.990000E+03	2.870012E-15	4.486106E-17
6.000000E+03	2.789198E-15	4.324063E-17
6.010000E+03	2.711338E-15	4.168044E-17
6.020000E+03	2.637042E-15	4.020346E-17
6.030000E+03	2.566614E-15	3.882537E-17
6.040000E+03	2.500193E-15	3.755526E-17
6.050000E+03	2.437774E-15	3.639520E-17
6.060000E+03	2.379231E-15	3.534096E-17
6.070000E+03	2.324468E-15	3.438535E-17
6.080000E+03	2.273328E-15	3.351832E-17
6.090000E+03	2.225706E-15	3.273015E-17
6.100000E+03	2.181648E-15	3.201393E-17
6.110000E+03	2.141257E-15	3.136489E-17
6.120000E+03	2.104713E-15	3.078101E-17
6.130000E+03	2.072348E-15	3.026395E-17
6.140000E+03	2.044511E-15	2.981675E-17
6.150000E+03	2.021555E-15	2.944328E-17
6.160000E+03	2.003879E-15	2.914841E-17
6.170000E+03	1.991765E-15	2.893553E-17
6.180000E+03	1.985413E-15	2.880683E-17
6.190000E+03	1.984911E-15	2.876312E-17
6.200000E+03	1.990283E-15	2.880453E-17
6.210000E+03	2.001362E-15	2.892866E-17
6.220000E+03	2.017958E-15	2.913308E-17
6.230000E+03	2.039756E-15	2.941386E-17
6.240000E+03	2.066427E-15	2.976731E-17
6.250000E+03	2.097675E-15	3.018824E-17
6.260000E+03	2.133515E-15	3.066940E-17
6.270000E+03	2.174017E-15	3.120369E-17
6.280000E+03	2.219410E-15	3.178908E-17
6.290000E+03	2.269987E-15	3.242797E-17
6.300000E+03	2.326087E-15	3.312667E-17
6.310000E+03	2.388106E-15	3.389487E-17
6.320000E+03	2.456491E-15	3.474426E-17
6.330000E+03	2.531568E-15	3.568512E-17
6.340000E+03	2.613590E-15	3.672583E-17
6.350000E+03	2.702682E-15	3.787142E-17
6.360000E+03	2.798744E-15	3.912160E-17
6.370000E+03	2.901425E-15	4.047022E-17
6.380000E+03	3.010114E-15	4.190503E-17
6.390000E+03	3.123812E-15	4.340630E-17
6.400000E+03	3.241273E-15	4.494907E-17
6.410000E+03	3.360835E-15	4.650163E-17
6.420000E+03	3.480466E-15	4.802694E-17
6.430000E+03	3.597902E-15	4.948555E-17
6.440000E+03	3.710655E-15	5.083677E-17
6.450000E+03	3.816023E-15	5.204008E-17
6.460000E+03	3.911322E-15	5.305960E-17
6.470000E+03	3.993989E-15	5.386691E-17
6.480000E+03	4.061768E-15	5.444500E-17
6.490000E+03	4.112728E-15	5.478965E-17
6.500000E+03	4.145511E-15	5.491317E-17
6.510000E+03	4.159474E-15	5.484535E-17
6.520000E+03	4.154571E-15	5.462897E-17
6.530000E+03	4.131384E-15	5.431310E-17
6.540000E+03	4.090122E-15	5.390804E-17
6.550000E+03	4.030084E-15	5.336794E-17
6.560000E+03	3.951143E-15	5.264834E-17
6.570000E+03	3.853964E-15	5.171925E-17
6.580000E+03	3.740004E-15	5.056825E-17
6.590000E+03	3.611369E-15	4.919984E-17
6.600000E+03	3.470613E-15	4.763252E-17
6.610000E+03	3.320697E-15	4.589733E-17
6.620000E+03	3.164844E-15	4.403452E-17
6.630000E+03	3.006187E-15	4.208728E-17
6.640000E+03	2.847794E-15	4.010062E-17
6.650000E+03	2.692428E-15	3.811691E-17
6.660000E+03	2.542459E-15	3.617375E-17
6.670000E+03	2.399920E-15	3.430408E-17
6.680000E+03	2.266302E-15	3.253313E-17
6.690000E+03	2.142702E-15	3.088032E-17
6.700000E+03	2.029778E-15	2.935867E-17
6.710000E+03	1.927815E-15	2.797595E-17
6.720000E+03	1.836793E-15	2.673561E-17
6.730000E+03	1.756444E-15	2.563764E-17
6.740000E+03	1.686317E-15	2.467945E-17
6.750000E+03	1.625847E-15	2.385673E-17
6.760000E+03	1.574372E-15	2.316348E-17
6.770000E+03	1.531193E-15	2.259271E-17
6.780000E+03	1.495589E-15	2.213650E-17
6.790000E+03	1.466914E-15	2.178721E-17
6.800000E+03	1.444490E-15	2.153588E-17
6.810000E+03	1.427757E-15	2.137425E-17
6.820000E+03	1.416140E-15	2.129281E-17
6.830000E+03	1.409180E-15	2.128279E-17
6.840000E+03	1.406432E-15	2.133482E-17
6.850000E+03	1.407449E-15	2.143913E-17
6.860000E+03	1.411878E-15	2.158738E-17
6.870000E+03	1.419329E-15	2.177130E-17
6.880000E+03	1.429454E-15	2.198425E-17
6.890000E+03	1.441874E-15	2.222028E-17
6.900000E+03	1.456224E-15	2.247465E-17
6.910000E+03	1.472157E-15	2.274344E-17
6.920000E+03	1.489294E-15	2.302229E-17
6.930000E+03	1.507302E-15	2.330726E-17
6.940000E+03	1.525830E-15	2.359367E-17
6.950000E+03	1.544572E-15	2.387715E-17
6.960000E+03	1.563276E-15	2.415402E-17
6.970000E+03	1.581701E-15	2.442084E-17
6.980000E+03	1.599674E-15	2.467549E-17
6.990000E+03	1.617079E-15	2.491708E-17
7.000000E+03	1.633859E-15	2.514596E-17
7.010000E+03	1.650012E-15	2.536369E-17
7.020000E+03	1.665590E-15	2.557303E-17
7.030000E+03	1.680683E-15	2.577785E-17
7.040000E+03	1.695415E-15	2.598302E-17
7.050000E+03	1.709912E-15	2.619394E-17
7.060000E+03	1.724348E-15	2.641708E-17
7.070000E+03	1.738860E-15	2.665835E-17
7.080000E+03	1.753598E-15	2.692350E-17
7.090000E+03	1.768725E-15	2.721768E-17
7.100000E+03	1.784326E-15	2.754362E-17
7.110000E+03	1.800533E-15	2.790326E-17
7.120000E+03	1.817441E-15	2.829610E-17
7.130000E+03	1.835098E-15	2.871886E-17
7.140000E+03	1.853547E-15	2.916600E-17
7.150000E+03	1.872797E-15	2.962937E-17
7.160000E+03	1.892821E-15	3.009848E-17
7.170000E+03	1.913526E-15	3.056090E-17
7.180000E+03	1.934825E-15	3.100442E-17
7.190000E+03	1.956525E-15	3.141657E-17
7.200000E+03	1.978494E-15	3.178858E-17
7.210000E+03	2.000461E-15	3.211319E-17
7.220000E+03	2.022273E-15	3.238933E-17
7.230000E+03	2.043714E-15	3.261929E-17
7.240000E+03	2.064622E-15	3.281000E-17
7.250000E+03	2.084859E-15	3.297118E-17
7.260000E+03	2.104344E-15	3.311427E-17
7.270000E+03	2.123146E-15	3.325196E-17
7.280000E+03	2.141295E-15	3.339379E-17
7.290000E+03	2.158906E-15	3.354707E-17
7.300000E+03	2.176211E-15	3.371728E-17
7.310000E+03	2.193318E-15	3.390474E-17
7.320000E+03	2.210451E-15	3.410928E-17
7.330000E+03	2.227671E-15	3.432706E-17
7.340000E+03	2.245038E-15	3.455407E-17
7.350000E+03	2.262445E-15	3.478447E-17
7.360000E+03	2.279659E-15	3.501162E-17
7.370000E+03	2.296393E-15	3.522952E-17
7.380000E+03	2.312086E-15	3.542944E-17
7.390000E+03	2.326213E-15	3.560443E-17
7.400000E+03	2.338056E-15	3.574570E-17
7.410000E+03	2.346991E-15	3.584657E-17
7.420000E+03	2.352344E-15	3.589991E-17
7.430000E+03	2.353579E-15	3.590049E-17
7.440000E+03	2.350331E-15	3.584509E-17
7.450000E+03	2.342475E-15	3.573313E-17
7.460000E+03	2.330184E-15	3.556768E-17
7.470000E+03	2.313838E-15	3.535423E-17
7.480000E+03	2.294210E-15	3.510415E-17
7.490000E+03	2.272192E-15	3.483087E-17
7.500000E+03	2.248967E-15	3.455264E-17
7.510000E+03	2.225697E-15	3.428746E-17
7.520000E+03	2.203678E-15	3.405461E-17
7.530000E+03	2.184057E-15	3.386950E-17
7.540000E+03	2.167916E-15	3.374400E-17
7.550000E+03	2.156112E-15	3.368359E-17
7.560000E+03	2.149384E-15	3.368932E-17
7.570000E+03	2.148154E-15	3.375562E-17
7.580000E+03	2.152744E-15	3.387555E-17
7.590000E+03	2.163223E-15	3.404058E-17
7.600000E+03	2.179449E-15	3.424351E-17
7.610000E+03	2.201163E-15	3.448177E-17
7.620000E+03	2.227931E-15	3.475757E-17
7.630000E+03	2.259092E-15	3.507670E-17
7.640000E+03	2.293802E-15	3.544548E-17
7.650000E+03	2.330897E-15	3.585930E-17
7.660000E+03	2.369056E-15	3.630808E-17
7.670000E+03	2.406713E-15	3.677711E-17
7.680000E+03	2.442333E-15	3.724992E-17
7.690000E+03	2.474351E-15	3.770615E-17
7.700000E+03	2.501312E-15	3.812297E-17
7.710000E+03	2.521804E-15	3.847429E-17
7.720000E+03	2.534753E-15	3.873605E-17
7.730000E+03	2.539244E-15	3.888484E-17
7.740000E+03	2.534683E-15	3.890196E-17
7.750000E+03	2.520827E-15	3.877500E-17
7.760000E+03	2.497680E-15	3.849713E-17
