#wls	flux	fluxerr
1.600000E+03	1.294422E-16	4.142635E-17
1.640000E+03	1.256484E-16	3.784805E-17
1.680000E+03	1.221830E-16	3.452629E-17
1.720000E+03	1.190292E-16	3.144574E-17
1.760000E+03	1.162395E-16	2.861043E-17
1.800000E+03	1.137975E-16	2.600647E-17
1.840000E+03	1.117116E-16	2.362852E-17
1.880000E+03	1.099916E-16	2.147380E-17
1.920000E+03	1.086906E-16	1.955036E-17
1.960000E+03	1.077814E-16	1.785433E-17
2.000000E+03	1.073231E-16	1.640172E-17
2.040000E+03	1.072980E-16	1.519991E-17
2.080000E+03	1.077955E-16	1.427424E-17
2.120000E+03	1.088145E-16	1.363329E-17
2.160000E+03	1.104469E-16	1.328894E-17
2.200000E+03	1.127336E-16	1.323898E-17
2.240000E+03	1.157377E-16	1.347996E-17
2.280000E+03	1.195589E-16	1.400762E-17
2.320000E+03	1.242167E-16	1.479970E-17
2.360000E+03	1.297297E-16	1.582809E-17
2.400000E+03	1.361458E-16	1.707093E-17
2.440000E+03	1.434557E-16	1.850631E-17
2.480000E+03	1.516079E-16	2.011446E-17
2.520000E+03	1.606080E-16	2.188988E-17
2.560000E+03	1.704245E-16	2.382771E-17
2.600000E+03	1.809567E-16	2.591575E-17
2.640000E+03	1.921808E-16	2.814933E-17
2.680000E+03	2.040263E-16	3.050608E-17
2.720000E+03	2.164997E-16	3.296121E-17
2.760000E+03	2.295587E-16	3.547169E-17
2.800000E+03	2.432391E-16	3.799757E-17
2.840000E+03	2.575587E-16	4.048913E-17
2.880000E+03	2.725869E-16	4.289888E-17
2.920000E+03	2.884119E-16	4.517778E-17
2.960000E+03	3.051016E-16	4.727009E-17
3.000000E+03	3.227782E-16	4.912609E-17
3.010000E+03	3.273807E-16	4.954942E-17
3.020000E+03	3.320346E-16	4.995096E-17
3.030000E+03	3.367811E-16	5.033585E-17
3.040000E+03	3.416219E-16	5.070316E-17
3.050000E+03	3.465583E-16	5.105196E-17
3.060000E+03	3.515507E-16	5.137533E-17
3.070000E+03	3.566415E-16	5.167840E-17
3.080000E+03	3.618321E-16	5.196029E-17
3.090000E+03	3.671242E-16	5.222013E-17
3.100000E+03	3.725193E-16	5.245706E-17
3.110000E+03	3.780192E-16	5.267025E-17
3.120000E+03	3.836253E-16	5.285889E-17
3.130000E+03	3.893395E-16	5.302221E-17
3.140000E+03	3.952060E-16	5.316524E-17
3.150000E+03	4.011842E-16	5.328142E-17
3.160000E+03	4.072757E-16	5.337010E-17
3.170000E+03	4.134821E-16	5.343067E-17
3.180000E+03	4.198487E-16	5.346816E-17
3.190000E+03	4.263337E-16	5.347642E-17
3.200000E+03	4.329830E-16	5.346052E-17
3.210000E+03	4.397542E-16	5.341457E-17
3.220000E+03	4.467380E-16	5.334901E-17
3.230000E+03	4.538475E-16	5.325283E-17
3.240000E+03	4.611290E-16	5.313123E-17
3.250000E+03	4.685395E-16	5.297906E-17
3.260000E+03	4.761707E-16	5.280669E-17
3.270000E+03	4.839795E-16	5.260919E-17
3.280000E+03	4.919676E-16	5.238700E-17
3.290000E+03	5.001823E-16	5.214554E-17
3.300000E+03	5.085338E-16	5.187601E-17
3.310000E+03	5.171151E-16	5.158898E-17
3.320000E+03	5.259278E-16	5.128555E-17
3.330000E+03	5.349271E-16	5.096263E-17
3.340000E+03	5.441602E-16	5.062650E-17
3.350000E+03	5.536284E-16	5.027911E-17
3.360000E+03	5.633323E-16	4.992274E-17
3.370000E+03	5.732723E-16	4.955997E-17
3.380000E+03	5.834011E-16	4.918971E-17
3.390000E+03	5.938128E-16	4.882323E-17
3.400000E+03	6.045070E-16	4.846376E-17
3.410000E+03	6.154346E-16	4.811101E-17
3.420000E+03	6.265932E-16	4.776885E-17
3.430000E+03	6.380278E-16	4.744487E-17
3.440000E+03	6.497347E-16	4.714284E-17
3.450000E+03	6.616603E-16	4.686303E-17
3.460000E+03	6.738955E-16	4.661595E-17
3.470000E+03	6.863353E-16	4.639801E-17
3.480000E+03	6.990681E-16	4.621878E-17
3.490000E+03	7.120838E-16	4.608045E-17
3.500000E+03	7.253207E-16	4.598157E-17
3.510000E+03	7.387647E-16	4.592342E-17
3.520000E+03	7.524995E-16	4.591272E-17
3.530000E+03	7.664090E-16	4.594330E-17
3.540000E+03	7.805247E-16	4.601764E-17
3.550000E+03	7.948272E-16	4.613463E-17
3.560000E+03	8.093467E-16	4.629556E-17
3.570000E+03	8.240126E-16	4.649558E-17
3.580000E+03	8.388546E-16	4.673527E-17
3.590000E+03	8.538526E-16	4.701212E-17
3.600000E+03	8.689371E-16	4.732081E-17
3.610000E+03	8.841910E-16	4.766426E-17
3.620000E+03	8.994977E-16	4.803453E-17
3.630000E+03	9.149454E-16	4.843476E-17
3.640000E+03	9.305249E-16	4.886289E-17
3.650000E+03	9.461815E-16	4.931460E-17
3.660000E+03	9.619667E-16	4.979130E-17
3.670000E+03	9.778888E-16	5.029218E-17
3.680000E+03	9.939642E-16	5.081695E-17
3.690000E+03	1.010219E-15	5.136582E-17
3.700000E+03	1.026738E-15	5.194202E-17
3.710000E+03	1.043521E-15	5.254418E-17
3.720000E+03	1.060675E-15	5.317638E-17
3.730000E+03	1.078223E-15	5.383805E-17
3.740000E+03	1.096346E-15	5.453637E-17
3.750000E+03	1.115037E-15	5.526875E-17
3.760000E+03	1.134495E-15	5.604255E-17
3.770000E+03	1.154824E-15	5.686012E-17
3.780000E+03	1.176080E-15	5.772119E-17
3.790000E+03	1.198361E-15	5.862760E-17
3.800000E+03	1.221810E-15	5.958311E-17
3.810000E+03	1.246501E-15	6.058834E-17
3.820000E+03	1.272538E-15	6.164548E-17
3.830000E+03	1.299848E-15	6.274846E-17
3.840000E+03	1.328471E-15	6.389715E-17
3.850000E+03	1.358407E-15	6.508992E-17
3.860000E+03	1.389508E-15	6.631867E-17
3.870000E+03	1.421623E-15	6.757580E-17
3.880000E+03	1.454591E-15	6.885404E-17
3.890000E+03	1.488143E-15	7.014162E-17
3.900000E+03	1.521897E-15	7.142221E-17
3.910000E+03	1.555464E-15	7.267991E-17
3.920000E+03	1.588506E-15	7.390185E-17
3.930000E+03	1.620440E-15	7.506429E-17
3.940000E+03	1.650757E-15	7.614752E-17
3.950000E+03	1.678995E-15	7.713408E-17
3.960000E+03	1.704649E-15	7.800483E-17
3.970000E+03	1.727201E-15	7.873973E-17
3.980000E+03	1.746294E-15	7.932565E-17
3.990000E+03	1.761547E-15	7.974774E-17
4.000000E+03	1.772728E-15	7.999702E-17
4.010000E+03	1.779765E-15	8.007057E-17
4.020000E+03	1.782550E-15	7.996300E-17
4.030000E+03	1.781241E-15	7.967961E-17
4.040000E+03	1.776005E-15	7.922533E-17
4.050000E+03	1.767195E-15	7.861278E-17
4.060000E+03	1.755150E-15	7.785343E-17
4.070000E+03	1.740267E-15	7.696131E-17
4.080000E+03	1.723064E-15	7.595599E-17
4.090000E+03	1.704030E-15	7.485597E-17
4.100000E+03	1.683568E-15	7.367666E-17
4.110000E+03	1.662146E-15	7.243686E-17
4.120000E+03	1.640198E-15	7.115456E-17
4.130000E+03	1.618114E-15	6.984646E-17
4.140000E+03	1.596198E-15	6.852616E-17
4.150000E+03	1.574740E-15	6.720707E-17
4.160000E+03	1.553940E-15	6.589926E-17
4.170000E+03	1.533946E-15	6.461094E-17
4.180000E+03	1.514889E-15	6.334979E-17
4.190000E+03	1.496818E-15	6.212035E-17
4.200000E+03	1.479771E-15	6.092676E-17
4.210000E+03	1.463716E-15	5.977051E-17
4.220000E+03	1.448592E-15	5.865197E-17
4.230000E+03	1.434338E-15	5.757185E-17
4.240000E+03	1.420851E-15	5.652924E-17
4.250000E+03	1.408018E-15	5.552316E-17
4.260000E+03	1.395726E-15	5.455292E-17
4.270000E+03	1.383894E-15	5.361941E-17
4.280000E+03	1.372432E-15	5.272338E-17
4.290000E+03	1.361272E-15	5.186672E-17
4.300000E+03	1.350401E-15	5.105347E-17
4.310000E+03	1.339795E-15	5.028725E-17
4.320000E+03	1.329540E-15	4.957559E-17
4.330000E+03	1.319672E-15	4.892385E-17
4.340000E+03	1.310383E-15	4.834254E-17
4.350000E+03	1.301839E-15	4.784038E-17
4.360000E+03	1.294247E-15	4.742658E-17
4.370000E+03	1.287872E-15	4.711109E-17
4.380000E+03	1.283006E-15	4.690357E-17
4.390000E+03	1.279988E-15	4.681376E-17
4.400000E+03	1.279171E-15	4.685069E-17
4.410000E+03	1.280880E-15	4.702124E-17
4.420000E+03	1.285532E-15	4.733522E-17
4.430000E+03	1.293461E-15	4.779924E-17
4.440000E+03	1.305037E-15	4.842164E-17
4.450000E+03	1.320548E-15	4.920836E-17
4.460000E+03	1.340249E-15	5.016483E-17
4.470000E+03	1.364290E-15	5.129350E-17
4.480000E+03	1.392824E-15	5.259758E-17
4.490000E+03	1.425856E-15	5.407535E-17
4.500000E+03	1.463360E-15	5.572447E-17
4.510000E+03	1.505187E-15	5.753823E-17
4.520000E+03	1.551081E-15	5.950617E-17
4.530000E+03	1.600645E-15	6.161251E-17
4.540000E+03	1.653347E-15	6.383626E-17
4.550000E+03	1.708419E-15	6.614743E-17
4.560000E+03	1.765033E-15	6.851364E-17
4.570000E+03	1.822108E-15	7.089292E-17
4.580000E+03	1.878498E-15	7.324071E-17
4.590000E+03	1.932904E-15	7.550697E-17
4.600000E+03	1.983984E-15	7.764005E-17
4.610000E+03	2.030509E-15	7.959313E-17
4.620000E+03	2.071192E-15	8.131734E-17
4.630000E+03	2.105011E-15	8.277415E-17
4.640000E+03	2.131197E-15	8.393498E-17
4.650000E+03	2.149136E-15	8.477680E-17
4.660000E+03	2.158680E-15	8.529443E-17
4.670000E+03	2.159896E-15	8.549038E-17
4.680000E+03	2.153177E-15	8.537930E-17
4.690000E+03	2.139229E-15	8.498744E-17
4.700000E+03	2.118863E-15	8.434466E-17
4.710000E+03	2.093133E-15	8.349016E-17
4.720000E+03	2.063121E-15	8.246417E-17
4.730000E+03	2.029923E-15	8.130776E-17
4.740000E+03	1.994644E-15	8.006286E-17
4.750000E+03	1.958240E-15	7.876598E-17
4.760000E+03	1.921603E-15	7.745184E-17
4.770000E+03	1.885476E-15	7.614977E-17
4.780000E+03	1.850510E-15	7.488596E-17
4.790000E+03	1.817153E-15	7.367889E-17
4.800000E+03	1.785768E-15	7.254378E-17
4.810000E+03	1.756577E-15	7.149028E-17
4.820000E+03	1.729671E-15	7.052298E-17
4.830000E+03	1.705106E-15	6.964511E-17
4.840000E+03	1.682798E-15	6.885435E-17
4.850000E+03	1.662608E-15	6.814654E-17
4.860000E+03	1.644359E-15	6.751610E-17
4.870000E+03	1.627787E-15	6.695411E-17
4.880000E+03	1.612646E-15	6.645238E-17
4.890000E+03	1.598591E-15	6.599857E-17
4.900000E+03	1.585332E-15	6.558232E-17
4.910000E+03	1.572544E-15	6.519120E-17
4.920000E+03	1.559912E-15	6.481246E-17
4.930000E+03	1.547161E-15	6.443422E-17
4.940000E+03	1.534009E-15	6.404308E-17
4.950000E+03	1.520306E-15	6.363026E-17
4.960000E+03	1.505900E-15	6.318579E-17
4.970000E+03	1.490726E-15	6.270259E-17
4.980000E+03	1.474806E-15	6.217678E-17
4.990000E+03	1.458202E-15	6.160603E-17
5.000000E+03	1.441076E-15	6.099234E-17
5.010000E+03	1.423643E-15	6.034064E-17
5.020000E+03	1.406120E-15	5.965670E-17
5.030000E+03	1.388816E-15	5.895120E-17
5.040000E+03	1.372015E-15	5.823480E-17
5.050000E+03	1.356037E-15	5.752067E-17
5.060000E+03	1.341185E-15	5.682204E-17
5.070000E+03	1.327747E-15	5.615221E-17
5.080000E+03	1.315982E-15	5.552342E-17
5.090000E+03	1.306164E-15	5.494876E-17
5.100000E+03	1.298499E-15	5.443824E-17
5.110000E+03	1.293178E-15	5.400088E-17
5.120000E+03	1.290363E-15	5.364393E-17
5.130000E+03	1.290199E-15	5.337332E-17
5.140000E+03	1.292773E-15	5.319188E-17
5.150000E+03	1.298167E-15	5.310162E-17
5.160000E+03	1.306407E-15	5.310142E-17
5.170000E+03	1.317520E-15	5.318985E-17
5.180000E+03	1.331432E-15	5.336070E-17
5.190000E+03	1.348112E-15	5.360906E-17
5.200000E+03	1.367427E-15	5.392576E-17
5.210000E+03	1.389204E-15	5.429956E-17
5.220000E+03	1.413261E-15	5.471889E-17
5.230000E+03	1.439329E-15	5.516865E-17
5.240000E+03	1.467105E-15	5.563261E-17
5.250000E+03	1.496243E-15	5.609322E-17
5.260000E+03	1.526380E-15	5.653272E-17
5.270000E+03	1.557091E-15	5.693201E-17
5.280000E+03	1.587954E-15	5.727312E-17
5.290000E+03	1.618560E-15	5.754005E-17
5.300000E+03	1.648500E-15	5.771841E-17
5.310000E+03	1.677375E-15	5.779613E-17
5.320000E+03	1.704865E-15	5.776593E-17
5.330000E+03	1.730690E-15	5.762393E-17
5.340000E+03	1.754634E-15	5.737054E-17
5.350000E+03	1.776555E-15	5.701047E-17
5.360000E+03	1.796358E-15	5.655207E-17
5.370000E+03	1.814073E-15	5.600937E-17
5.380000E+03	1.829709E-15	5.539766E-17
5.390000E+03	1.843389E-15	5.473770E-17
5.400000E+03	1.855208E-15	5.405117E-17
5.410000E+03	1.865284E-15	5.336243E-17
5.420000E+03	1.873724E-15	5.269722E-17
5.430000E+03	1.880624E-15	5.208226E-17
5.440000E+03	1.885981E-15	5.154210E-17
5.450000E+03	1.889809E-15	5.110140E-17
5.460000E+03	1.891971E-15	5.077906E-17
5.470000E+03	1.892330E-15	5.059016E-17
5.480000E+03	1.890598E-15	5.053979E-17
5.490000E+03	1.886400E-15	5.062211E-17
5.500000E+03	1.879339E-15	5.082040E-17
5.510000E+03	1.868871E-15	5.110340E-17
5.520000E+03	1.854544E-15	5.143302E-17
5.530000E+03	1.835922E-15	5.176511E-17
5.540000E+03	1.812686E-15	5.205538E-17
5.550000E+03	1.784668E-15	5.226342E-17
5.560000E+03	1.751950E-15	5.235799E-17
5.570000E+03	1.714826E-15	5.231785E-17
5.580000E+03	1.673832E-15	5.213364E-17
5.590000E+03	1.629721E-15	5.180800E-17
5.600000E+03	1.583432E-15	5.135486E-17
5.610000E+03	1.536043E-15	5.079792E-17
5.620000E+03	1.488695E-15	5.016810E-17
5.630000E+03	1.442589E-15	4.950283E-17
5.640000E+03	1.398863E-15	4.884170E-17
5.650000E+03	1.358629E-15	4.822687E-17
5.660000E+03	1.322826E-15	4.769748E-17
5.670000E+03	1.292340E-15	4.729306E-17
5.680000E+03	1.267888E-15	4.704884E-17
5.690000E+03	1.250076E-15	4.699705E-17
5.700000E+03	1.239388E-15	4.716614E-17
5.710000E+03	1.236197E-15	4.758050E-17
5.720000E+03	1.240758E-15	4.825984E-17
5.730000E+03	1.253253E-15	4.922059E-17
5.740000E+03	1.273685E-15	5.047151E-17
5.750000E+03	1.301984E-15	5.201748E-17
5.760000E+03	1.337892E-15	5.385490E-17
5.770000E+03	1.380930E-15	5.597005E-17
5.780000E+03	1.430426E-15	5.834003E-17
5.790000E+03	1.485433E-15	6.092931E-17
5.800000E+03	1.544724E-15	6.368919E-17
5.810000E+03	1.606770E-15	6.655698E-17
5.820000E+03	1.669800E-15	6.945821E-17
5.830000E+03	1.731858E-15	7.230908E-17
5.840000E+03	1.790843E-15	7.501825E-17
5.850000E+03	1.844649E-15	7.749315E-17
5.860000E+03	1.891357E-15	7.964823E-17
5.870000E+03	1.929233E-15	8.140576E-17
5.880000E+03	1.956979E-15	8.270667E-17
5.890000E+03	1.973722E-15	8.351089E-17
5.900000E+03	1.979128E-15	8.380225E-17
5.910000E+03	1.973399E-15	8.358888E-17
5.920000E+03	1.957187E-15	8.289918E-17
5.930000E+03	1.931557E-15	8.178018E-17
5.940000E+03	1.897945E-15	8.029558E-17
5.950000E+03	1.857923E-15	7.851505E-17
5.960000E+03	1.813231E-15	7.651560E-17
5.970000E+03	1.765532E-15	7.437073E-17
5.980000E+03	1.716450E-15	7.215195E-17
5.990000E+03	1.667437E-15	6.992284E-17
6.000000E+03	1.619725E-15	6.773714E-17
6.010000E+03	1.574352E-15	6.563976E-17
6.020000E+03	1.532121E-15	6.366507E-17
6.030000E+03	1.493566E-15	6.183543E-17
6.040000E+03	1.459054E-15	6.016588E-17
6.050000E+03	1.428769E-15	5.866329E-17
6.060000E+03	1.402705E-15	5.732658E-17
6.070000E+03	1.380755E-15	5.615039E-17
6.080000E+03	1.362694E-15	5.512466E-17
6.090000E+03	1.348216E-15	5.423636E-17
6.100000E+03	1.336972E-15	5.347101E-17
6.110000E+03	1.328543E-15	5.281192E-17
6.120000E+03	1.322517E-15	5.224294E-17
6.130000E+03	1.318441E-15	5.174689E-17
6.140000E+03	1.315877E-15	5.130748E-17
6.150000E+03	1.314408E-15	5.090961E-17
6.160000E+03	1.313597E-15	5.053764E-17
6.170000E+03	1.313029E-15	5.017715E-17
6.180000E+03	1.312378E-15	4.981725E-17
6.190000E+03	1.311302E-15	4.944681E-17
6.200000E+03	1.309580E-15	4.905926E-17
6.210000E+03	1.307006E-15	4.864879E-17
6.220000E+03	1.303448E-15	4.821213E-17
6.230000E+03	1.298861E-15	4.774901E-17
6.240000E+03	1.293270E-15	4.726120E-17
6.250000E+03	1.286773E-15	4.675240E-17
6.260000E+03	1.279561E-15	4.622886E-17
6.270000E+03	1.271913E-15	4.569909E-17
6.280000E+03	1.264138E-15	4.517197E-17
6.290000E+03	1.256603E-15	4.465762E-17
6.300000E+03	1.249680E-15	4.416580E-17
6.310000E+03	1.243751E-15	4.370623E-17
6.320000E+03	1.239186E-15	4.328784E-17
6.330000E+03	1.236284E-15	4.291694E-17
6.340000E+03	1.235304E-15	4.259848E-17
6.350000E+03	1.236390E-15	4.233359E-17
6.360000E+03	1.239646E-15	4.212246E-17
6.370000E+03	1.245036E-15	4.196119E-17
6.380000E+03	1.252446E-15	4.184409E-17
6.390000E+03	1.261626E-15	4.176207E-17
6.400000E+03	1.272243E-15	4.170465E-17
6.410000E+03	1.283844E-15	4.165904E-17
6.420000E+03	1.295881E-15	4.161112E-17
6.430000E+03	1.307728E-15	4.154657E-17
6.440000E+03	1.318683E-15	4.145077E-17
6.450000E+03	1.328012E-15	4.131067E-17
6.460000E+03	1.334956E-15	4.111482E-17
6.470000E+03	1.338802E-15	4.085555E-17
6.480000E+03	1.338869E-15	4.052772E-17
6.490000E+03	1.334576E-15	4.013012E-17
6.500000E+03	1.325479E-15	3.966487E-17
6.510000E+03	1.311213E-15	3.913405E-17
6.520000E+03	1.291602E-15	3.854061E-17
6.530000E+03	1.266610E-15	3.788552E-17
6.540000E+03	1.236393E-15	3.716806E-17
6.550000E+03	1.201210E-15	3.638377E-17
6.560000E+03	1.161541E-15	3.552941E-17
6.570000E+03	1.117958E-15	3.460144E-17
6.580000E+03	1.071191E-15	3.360051E-17
6.590000E+03	1.022033E-15	3.253065E-17
6.600000E+03	9.713524E-16	3.140107E-17
6.610000E+03	9.200123E-16	3.022453E-17
6.620000E+03	8.688330E-16	2.901654E-17
6.630000E+03	8.185877E-16	2.779503E-17
6.640000E+03	7.699371E-16	2.657788E-17
6.650000E+03	7.234494E-16	2.538305E-17
6.660000E+03	6.795742E-16	2.422703E-17
6.670000E+03	6.386219E-16	2.312350E-17
6.680000E+03	6.008254E-16	2.208484E-17
6.690000E+03	5.662996E-16	2.112018E-17
6.700000E+03	5.350862E-16	2.023654E-17
6.710000E+03	5.071680E-16	1.943894E-17
6.720000E+03	4.824715E-16	1.873026E-17
6.730000E+03	4.608833E-16	1.811158E-17
6.740000E+03	4.422826E-16	1.758333E-17
6.750000E+03	4.265202E-16	1.714434E-17
6.760000E+03	4.134430E-16	1.679281E-17
6.770000E+03	4.029137E-16	1.652706E-17
6.780000E+03	3.947908E-16	1.634479E-17
6.790000E+03	3.889370E-16	1.624339E-17
6.800000E+03	3.852340E-16	1.622067E-17
6.810000E+03	3.835644E-16	1.627413E-17
6.820000E+03	3.838290E-16	1.640170E-17
6.830000E+03	3.859321E-16	1.660123E-17
6.840000E+03	3.897839E-16	1.687053E-17
6.850000E+03	3.952981E-16	1.720740E-17
6.860000E+03	4.023895E-16	1.760942E-17
6.870000E+03	4.109761E-16	1.807416E-17
6.880000E+03	4.209579E-16	1.859819E-17
6.890000E+03	4.322482E-16	1.917848E-17
6.900000E+03	4.447440E-16	1.981108E-17
6.910000E+03	4.583238E-16	2.049107E-17
6.920000E+03	4.728798E-16	2.121393E-17
6.930000E+03	4.882881E-16	2.197428E-17
6.940000E+03	5.044211E-16	2.276641E-17
6.950000E+03	5.211444E-16	2.358417E-17
6.960000E+03	5.383321E-16	2.442168E-17
6.970000E+03	5.558788E-16	2.527392E-17
6.980000E+03	5.736638E-16	2.613507E-17
6.990000E+03	5.915999E-16	2.700082E-17
7.000000E+03	6.096094E-16	2.786727E-17
7.010000E+03	6.276239E-16	2.873095E-17
7.020000E+03	6.456142E-16	2.959026E-17
7.030000E+03	6.635436E-16	3.044327E-17
7.040000E+03	6.813859E-16	3.128863E-17
7.050000E+03	6.991481E-16	3.212655E-17
7.060000E+03	7.168158E-16	3.295633E-17
7.070000E+03	7.343817E-16	3.377755E-17
7.080000E+03	7.518331E-16	3.458959E-17
7.090000E+03	7.691481E-16	3.539133E-17
7.100000E+03	7.862924E-16	3.618109E-17
7.110000E+03	8.032283E-16	3.695701E-17
7.120000E+03	8.198840E-16	3.771565E-17
7.130000E+03	8.361832E-16	3.845346E-17
7.140000E+03	8.520484E-16	3.916687E-17
7.150000E+03	8.673712E-16	3.985097E-17
7.160000E+03	8.820581E-16	4.050153E-17
7.170000E+03	8.959911E-16	4.111318E-17
7.180000E+03	9.090755E-16	4.168152E-17
7.190000E+03	9.211995E-16	4.220113E-17
7.200000E+03	9.322839E-16	4.266789E-17
7.210000E+03	9.422518E-16	4.307752E-17
7.220000E+03	9.510431E-16	4.342626E-17
7.230000E+03	9.586176E-16	4.371115E-17
7.240000E+03	9.649576E-16	4.393019E-17
7.250000E+03	9.700692E-16	4.408257E-17
7.260000E+03	9.739829E-16	4.416882E-17
7.270000E+03	9.767536E-16	4.419090E-17
7.280000E+03	9.784720E-16	4.415283E-17
7.290000E+03	9.792117E-16	4.405824E-17
7.300000E+03	9.791153E-16	4.391426E-17
7.310000E+03	9.783139E-16	4.372779E-17
7.320000E+03	9.769350E-16	4.350571E-17
7.330000E+03	9.751222E-16	4.325570E-17
7.340000E+03	9.730164E-16	4.298519E-17
7.350000E+03	9.707617E-16	4.270162E-17
7.360000E+03	9.684604E-16	4.241039E-17
7.370000E+03	9.662054E-16	4.211626E-17
7.380000E+03	9.640628E-16	4.182267E-17
7.390000E+03	9.620814E-16	4.153216E-17
7.400000E+03	9.602409E-16	4.124423E-17
7.410000E+03	9.585305E-16	4.095877E-17
7.420000E+03	9.569028E-16	4.067414E-17
7.430000E+03	9.552936E-16	4.038806E-17
7.440000E+03	9.536187E-16	4.009751E-17
7.450000E+03	9.518100E-16	3.980029E-17
7.460000E+03	9.498387E-16	3.949599E-17
7.470000E+03	9.476352E-16	3.918262E-17
7.480000E+03	9.452371E-16	3.886276E-17
7.490000E+03	9.426516E-16	3.853778E-17
7.500000E+03	9.399463E-16	3.821157E-17
7.510000E+03	9.372321E-16	3.788970E-17
7.520000E+03	9.346194E-16	3.757756E-17
7.530000E+03	9.322592E-16	3.728205E-17
7.540000E+03	9.302833E-16	3.700899E-17
7.550000E+03	9.288309E-16	3.676430E-17
7.560000E+03	9.280261E-16	3.655307E-17
7.570000E+03	9.279695E-16	3.637930E-17
7.580000E+03	9.287300E-16	3.624567E-17
7.590000E+03	9.303398E-16	3.615341E-17
7.600000E+03	9.327904E-16	3.610224E-17
7.610000E+03	9.360174E-16	3.608986E-17
7.620000E+03	9.399380E-16	3.611336E-17
7.630000E+03	9.444006E-16	3.616725E-17
7.640000E+03	9.492253E-16	3.624493E-17
7.650000E+03	9.542080E-16	3.633881E-17
7.660000E+03	9.590875E-16	3.643888E-17
7.670000E+03	9.635917E-16	3.653452E-17
7.680000E+03	9.674482E-16	3.661482E-17
7.690000E+03	9.703412E-16	3.666691E-17
7.700000E+03	9.720175E-16	3.667999E-17
7.710000E+03	9.721911E-16	3.664167E-17
7.720000E+03	9.706631E-16	3.654258E-17
7.730000E+03	9.672384E-16	3.637329E-17
7.740000E+03	9.617880E-16	3.612677E-17
7.750000E+03	9.542424E-16	3.579827E-17
7.760000E+03	9.445948E-16	3.538559E-17
