#wls	flux	fluxerr
1.600000E+03	1.125320E-16	3.770254E-17
1.640000E+03	1.097825E-16	3.473155E-17
1.680000E+03	1.072732E-16	3.195289E-17
1.720000E+03	1.050516E-16	2.937361E-17
1.760000E+03	1.030847E-16	2.697738E-17
1.800000E+03	1.014196E-16	2.477127E-17
1.840000E+03	1.000458E-16	2.274797E-17
1.880000E+03	9.899240E-17	2.091178E-17
1.920000E+03	9.827170E-17	1.926487E-17
1.960000E+03	9.788055E-17	1.780944E-17
2.000000E+03	9.787361E-17	1.656116E-17
2.040000E+03	9.827316E-17	1.553093E-17
2.080000E+03	9.908882E-17	1.472847E-17
2.120000E+03	1.003713E-16	1.416772E-17
2.160000E+03	1.021570E-16	1.385445E-17
2.200000E+03	1.045047E-16	1.379217E-17
2.240000E+03	1.074566E-16	1.397767E-17
2.280000E+03	1.110530E-16	1.440368E-17
2.320000E+03	1.153422E-16	1.505772E-17
2.360000E+03	1.203412E-16	1.591987E-17
2.400000E+03	1.260767E-16	1.697354E-17
2.440000E+03	1.325226E-16	1.819925E-17
2.480000E+03	1.397044E-16	1.958946E-17
2.520000E+03	1.475934E-16	2.113396E-17
2.560000E+03	1.561974E-16	2.283082E-17
2.600000E+03	1.654206E-16	2.466353E-17
2.640000E+03	1.753142E-16	2.663397E-17
2.680000E+03	1.857821E-16	2.871453E-17
2.720000E+03	1.968687E-16	3.088922E-17
2.760000E+03	2.085793E-16	3.312686E-17
2.800000E+03	2.209000E-16	3.538450E-17
2.840000E+03	2.339179E-16	3.762784E-17
2.880000E+03	2.476724E-16	3.980872E-17
2.920000E+03	2.622120E-16	4.187499E-17
2.960000E+03	2.776620E-16	4.378207E-17
3.000000E+03	2.941271E-16	4.547774E-17
3.010000E+03	2.984421E-16	4.586641E-17
3.020000E+03	3.028068E-16	4.623406E-17
3.030000E+03	3.072216E-16	4.657966E-17
3.040000E+03	3.117581E-16	4.691289E-17
3.050000E+03	3.163465E-16	4.722195E-17
3.060000E+03	3.210231E-16	4.751115E-17
3.070000E+03	3.257890E-16	4.777941E-17
3.080000E+03	3.306452E-16	4.802564E-17
3.090000E+03	3.355929E-16	4.824877E-17
3.100000E+03	3.406697E-16	4.845293E-17
3.110000E+03	3.458035E-16	4.862656E-17
3.120000E+03	3.510318E-16	4.877385E-17
3.130000E+03	3.563931E-16	4.889886E-17
3.140000E+03	3.618513E-16	4.899533E-17
3.150000E+03	3.674075E-16	4.906223E-17
3.160000E+03	3.731007E-16	4.910353E-17
3.170000E+03	3.788942E-16	4.911316E-17
3.180000E+03	3.847892E-16	4.909016E-17
3.190000E+03	3.908249E-16	4.903844E-17
3.200000E+03	3.970029E-16	4.895693E-17
3.210000E+03	4.033246E-16	4.884463E-17
3.220000E+03	4.097526E-16	4.869596E-17
3.230000E+03	4.163269E-16	4.851476E-17
3.240000E+03	4.230880E-16	4.830470E-17
3.250000E+03	4.299591E-16	4.805600E-17
3.260000E+03	4.369805E-16	4.777257E-17
3.270000E+03	4.441536E-16	4.745387E-17
3.280000E+03	4.515195E-16	4.710367E-17
3.290000E+03	4.590399E-16	4.671741E-17
3.300000E+03	4.667159E-16	4.629499E-17
3.310000E+03	4.745892E-16	4.584044E-17
3.320000E+03	4.826613E-16	4.535385E-17
3.330000E+03	4.908930E-16	4.483182E-17
3.340000E+03	4.992855E-16	4.427524E-17
3.350000E+03	5.079216E-16	4.369239E-17
3.360000E+03	5.167622E-16	4.308086E-17
3.370000E+03	5.257672E-16	4.243901E-17
3.380000E+03	5.350205E-16	4.177577E-17
3.390000E+03	5.444821E-16	4.109041E-17
3.400000E+03	5.541532E-16	4.038614E-17
3.410000E+03	5.640769E-16	3.966977E-17
3.420000E+03	5.742547E-16	3.894555E-17
3.430000E+03	5.846459E-16	3.821565E-17
3.440000E+03	5.952515E-16	3.748604E-17
3.450000E+03	6.061573E-16	3.676861E-17
3.460000E+03	6.173213E-16	3.606708E-17
3.470000E+03	6.286966E-16	3.538351E-17
3.480000E+03	6.403630E-16	3.472705E-17
3.490000E+03	6.523134E-16	3.410144E-17
3.500000E+03	6.644917E-16	3.350586E-17
3.510000E+03	6.768823E-16	3.294141E-17
3.520000E+03	6.895110E-16	3.241106E-17
3.530000E+03	7.023562E-16	3.191396E-17
3.540000E+03	7.153938E-16	3.144914E-17
3.550000E+03	7.285978E-16	3.101564E-17
3.560000E+03	7.419825E-16	3.061325E-17
3.570000E+03	7.554283E-16	3.023645E-17
3.580000E+03	7.690343E-16	2.988873E-17
3.590000E+03	7.826821E-16	2.956297E-17
3.600000E+03	7.963405E-16	2.925589E-17
3.610000E+03	8.100666E-16	2.896778E-17
3.620000E+03	8.237896E-16	2.869275E-17
3.630000E+03	8.374833E-16	2.842735E-17
3.640000E+03	8.511204E-16	2.816934E-17
3.650000E+03	8.647165E-16	2.791771E-17
3.660000E+03	8.781984E-16	2.767019E-17
3.670000E+03	8.915794E-16	2.742919E-17
3.680000E+03	9.048275E-16	2.719589E-17
3.690000E+03	9.179529E-16	2.697476E-17
3.700000E+03	9.308424E-16	2.676808E-17
3.710000E+03	9.435878E-16	2.658206E-17
3.720000E+03	9.561605E-16	2.642033E-17
3.730000E+03	9.686030E-16	2.628861E-17
3.740000E+03	9.811447E-16	2.619167E-17
3.750000E+03	9.938780E-16	2.612987E-17
3.760000E+03	1.007053E-15	2.610685E-17
3.770000E+03	1.021004E-15	2.612095E-17
3.780000E+03	1.035973E-15	2.616714E-17
3.790000E+03	1.052372E-15	2.624447E-17
3.800000E+03	1.070428E-15	2.634183E-17
3.810000E+03	1.090450E-15	2.645038E-17
3.820000E+03	1.112698E-15	2.656190E-17
3.830000E+03	1.137303E-15	2.666492E-17
3.840000E+03	1.164464E-15	2.675233E-17
3.850000E+03	1.194335E-15	2.681928E-17
3.860000E+03	1.226986E-15	2.686163E-17
3.870000E+03	1.262472E-15	2.687955E-17
3.880000E+03	1.300782E-15	2.687558E-17
3.890000E+03	1.341637E-15	2.684445E-17
3.900000E+03	1.384643E-15	2.678400E-17
3.910000E+03	1.429293E-15	2.669466E-17
3.920000E+03	1.474849E-15	2.656609E-17
3.930000E+03	1.520322E-15	2.639044E-17
3.940000E+03	1.564605E-15	2.616961E-17
3.950000E+03	1.606617E-15	2.591185E-17
3.960000E+03	1.645044E-15	2.563650E-17
3.970000E+03	1.678600E-15	2.537458E-17
3.980000E+03	1.706203E-15	2.514864E-17
3.990000E+03	1.726794E-15	2.498639E-17
4.000000E+03	1.739616E-15	2.491718E-17
4.010000E+03	1.744525E-15	2.494164E-17
4.020000E+03	1.741551E-15	2.505331E-17
4.030000E+03	1.731152E-15	2.524065E-17
4.040000E+03	1.714238E-15	2.545465E-17
4.050000E+03	1.691945E-15	2.564856E-17
4.060000E+03	1.665377E-15	2.578883E-17
4.070000E+03	1.635659E-15	2.584692E-17
4.080000E+03	1.603909E-15	2.581043E-17
4.090000E+03	1.571004E-15	2.567737E-17
4.100000E+03	1.537831E-15	2.544730E-17
4.110000E+03	1.505075E-15	2.512672E-17
4.120000E+03	1.473336E-15	2.472886E-17
4.130000E+03	1.443103E-15	2.426207E-17
4.140000E+03	1.414703E-15	2.373773E-17
4.150000E+03	1.388464E-15	2.317244E-17
4.160000E+03	1.364563E-15	2.257658E-17
4.170000E+03	1.343109E-15	2.196395E-17
4.180000E+03	1.324194E-15	2.135203E-17
4.190000E+03	1.307729E-15	2.075069E-17
4.200000E+03	1.293595E-15	2.017345E-17
4.210000E+03	1.281686E-15	1.963501E-17
4.220000E+03	1.271656E-15	1.913191E-17
4.230000E+03	1.263128E-15	1.866252E-17
4.240000E+03	1.255725E-15	1.822858E-17
4.250000E+03	1.249043E-15	1.782094E-17
4.260000E+03	1.242677E-15	1.743574E-17
4.270000E+03	1.236213E-15	1.707602E-17
4.280000E+03	1.229271E-15	1.674034E-17
4.290000E+03	1.221533E-15	1.643585E-17
4.300000E+03	1.212646E-15	1.617525E-17
4.310000E+03	1.202383E-15	1.596213E-17
4.320000E+03	1.190571E-15	1.580432E-17
4.330000E+03	1.177105E-15	1.570825E-17
4.340000E+03	1.162235E-15	1.565680E-17
4.350000E+03	1.146321E-15	1.563330E-17
4.360000E+03	1.129782E-15	1.562696E-17
4.370000E+03	1.113294E-15	1.562338E-17
4.380000E+03	1.097522E-15	1.561481E-17
4.390000E+03	1.083177E-15	1.560219E-17
4.400000E+03	1.071030E-15	1.558604E-17
4.410000E+03	1.061845E-15	1.557291E-17
4.420000E+03	1.056386E-15	1.557354E-17
4.430000E+03	1.055311E-15	1.559043E-17
4.440000E+03	1.059284E-15	1.562876E-17
4.450000E+03	1.068982E-15	1.569580E-17
4.460000E+03	1.084823E-15	1.578612E-17
4.470000E+03	1.107214E-15	1.589545E-17
4.480000E+03	1.136674E-15	1.602440E-17
4.490000E+03	1.173582E-15	1.616886E-17
4.500000E+03	1.218374E-15	1.633061E-17
4.510000E+03	1.271587E-15	1.651938E-17
4.520000E+03	1.333502E-15	1.674120E-17
4.530000E+03	1.404422E-15	1.701302E-17
4.540000E+03	1.484489E-15	1.735363E-17
4.550000E+03	1.572910E-15	1.773927E-17
4.560000E+03	1.668401E-15	1.814271E-17
4.570000E+03	1.769211E-15	1.854622E-17
4.580000E+03	1.872781E-15	1.892135E-17
4.590000E+03	1.975903E-15	1.926314E-17
4.600000E+03	2.074811E-15	1.959530E-17
4.610000E+03	2.165540E-15	1.993166E-17
4.620000E+03	2.243827E-15	2.032132E-17
4.630000E+03	2.305609E-15	2.084023E-17
4.640000E+03	2.348386E-15	2.150966E-17
4.650000E+03	2.370486E-15	2.235148E-17
4.660000E+03	2.371343E-15	2.337624E-17
4.670000E+03	2.352804E-15	2.449906E-17
4.680000E+03	2.317825E-15	2.563466E-17
4.690000E+03	2.269597E-15	2.672047E-17
4.700000E+03	2.211655E-15	2.767930E-17
4.710000E+03	2.147508E-15	2.846495E-17
4.720000E+03	2.080309E-15	2.906408E-17
4.730000E+03	2.012500E-15	2.946523E-17
4.740000E+03	1.946175E-15	2.967704E-17
4.750000E+03	1.883057E-15	2.972400E-17
4.760000E+03	1.824228E-15	2.962631E-17
4.770000E+03	1.770506E-15	2.941036E-17
4.780000E+03	1.722513E-15	2.910531E-17
4.790000E+03	1.680307E-15	2.872412E-17
4.800000E+03	1.643916E-15	2.828137E-17
4.810000E+03	1.613243E-15	2.779055E-17
4.820000E+03	1.587957E-15	2.725211E-17
4.830000E+03	1.567658E-15	2.666702E-17
4.840000E+03	1.551939E-15	2.603985E-17
4.850000E+03	1.540408E-15	2.537389E-17
4.860000E+03	1.532622E-15	2.467737E-17
4.870000E+03	1.528141E-15	2.396366E-17
4.880000E+03	1.526483E-15	2.324084E-17
4.890000E+03	1.527085E-15	2.252454E-17
4.900000E+03	1.529384E-15	2.184057E-17
4.910000E+03	1.532558E-15	2.120998E-17
4.920000E+03	1.535720E-15	2.066593E-17
4.930000E+03	1.537915E-15	2.024960E-17
4.940000E+03	1.537888E-15	1.998273E-17
4.950000E+03	1.534317E-15	1.988477E-17
4.960000E+03	1.526178E-15	1.995693E-17
4.970000E+03	1.513405E-15	2.013454E-17
4.980000E+03	1.496208E-15	2.034031E-17
4.990000E+03	1.474990E-15	2.050869E-17
5.000000E+03	1.450525E-15	2.058192E-17
5.010000E+03	1.423709E-15	2.052249E-17
5.020000E+03	1.395389E-15	2.031309E-17
5.030000E+03	1.366485E-15	1.995163E-17
5.040000E+03	1.337813E-15	1.944978E-17
5.050000E+03	1.310143E-15	1.883001E-17
5.060000E+03	1.284189E-15	1.811749E-17
5.070000E+03	1.260524E-15	1.734283E-17
5.080000E+03	1.239688E-15	1.654109E-17
5.090000E+03	1.222037E-15	1.574041E-17
5.100000E+03	1.207866E-15	1.497312E-17
5.110000E+03	1.197428E-15	1.427102E-17
5.120000E+03	1.190877E-15	1.364432E-17
5.130000E+03	1.188334E-15	1.310514E-17
5.140000E+03	1.189964E-15	1.266658E-17
5.150000E+03	1.195888E-15	1.231514E-17
5.160000E+03	1.206258E-15	1.204173E-17
5.170000E+03	1.221252E-15	1.184581E-17
5.180000E+03	1.240944E-15	1.171119E-17
5.190000E+03	1.265457E-15	1.163537E-17
5.200000E+03	1.294893E-15	1.163109E-17
5.210000E+03	1.329106E-15	1.169736E-17
5.220000E+03	1.367910E-15	1.185033E-17
5.230000E+03	1.411005E-15	1.211539E-17
5.240000E+03	1.457799E-15	1.247250E-17
5.250000E+03	1.507500E-15	1.290376E-17
5.260000E+03	1.559263E-15	1.339667E-17
5.270000E+03	1.612134E-15	1.389005E-17
5.280000E+03	1.665111E-15	1.432751E-17
5.290000E+03	1.717048E-15	1.467417E-17
5.300000E+03	1.766956E-15	1.489627E-17
5.310000E+03	1.813784E-15	1.499217E-17
5.320000E+03	1.856503E-15	1.499574E-17
5.330000E+03	1.894503E-15	1.494283E-17
5.340000E+03	1.927266E-15	1.490540E-17
5.350000E+03	1.954561E-15	1.496477E-17
5.360000E+03	1.976933E-15	1.510748E-17
5.370000E+03	1.995167E-15	1.531693E-17
5.380000E+03	2.010231E-15	1.558871E-17
5.390000E+03	2.023103E-15	1.585726E-17
5.400000E+03	2.034873E-15	1.607736E-17
5.410000E+03	2.046565E-15	1.623828E-17
5.420000E+03	2.058999E-15	1.631452E-17
5.430000E+03	2.072890E-15	1.631168E-17
5.440000E+03	2.088846E-15	1.625780E-17
5.450000E+03	2.106872E-15	1.613362E-17
5.460000E+03	2.126824E-15	1.594030E-17
5.470000E+03	2.148336E-15	1.570392E-17
5.480000E+03	2.170284E-15	1.541354E-17
5.490000E+03	2.191295E-15	1.508609E-17
5.500000E+03	2.209665E-15	1.475383E-17
5.510000E+03	2.222993E-15	1.436821E-17
5.520000E+03	2.228665E-15	1.390208E-17
5.530000E+03	2.224015E-15	1.335715E-17
5.540000E+03	2.206922E-15	1.267542E-17
5.550000E+03	2.175478E-15	1.184881E-17
5.560000E+03	2.128392E-15	1.092273E-17
5.570000E+03	2.065691E-15	9.894606E-18
5.580000E+03	1.988035E-15	8.846575E-18
5.590000E+03	1.896803E-15	7.924251E-18
5.600000E+03	1.794982E-15	7.178732E-18
5.610000E+03	1.685767E-15	6.758191E-18
5.620000E+03	1.572714E-15	6.774613E-18
5.630000E+03	1.460661E-15	6.987792E-18
5.640000E+03	1.353868E-15	7.210082E-18
5.650000E+03	1.255527E-15	7.385971E-18
5.660000E+03	1.167952E-15	7.471682E-18
5.670000E+03	1.092758E-15	7.472177E-18
5.680000E+03	1.030926E-15	7.423080E-18
5.690000E+03	9.828900E-16	7.345373E-18
5.700000E+03	9.490573E-16	7.269555E-18
5.710000E+03	9.298351E-16	7.229037E-18
5.720000E+03	9.252883E-16	7.229767E-18
5.730000E+03	9.358822E-16	7.282012E-18
5.740000E+03	9.624692E-16	7.398773E-18
5.750000E+03	1.005227E-15	7.558408E-18
5.760000E+03	1.064555E-15	7.741353E-18
5.770000E+03	1.141109E-15	7.939113E-18
5.780000E+03	1.234765E-15	8.131098E-18
5.790000E+03	1.344924E-15	8.322993E-18
5.800000E+03	1.470102E-15	8.550106E-18
5.810000E+03	1.606806E-15	8.813900E-18
5.820000E+03	1.749476E-15	9.164784E-18
5.830000E+03	1.890937E-15	9.691384E-18
5.840000E+03	2.024241E-15	1.033858E-17
5.850000E+03	2.141835E-15	1.104918E-17
5.860000E+03	2.236425E-15	1.178610E-17
5.870000E+03	2.304162E-15	1.235640E-17
5.880000E+03	2.343100E-15	1.259775E-17
5.890000E+03	2.352602E-15	1.245225E-17
5.900000E+03	2.334130E-15	1.190335E-17
5.910000E+03	2.290268E-15	1.105093E-17
5.920000E+03	2.224542E-15	1.007614E-17
5.930000E+03	2.141411E-15	9.095723E-18
5.940000E+03	2.045515E-15	8.314525E-18
5.950000E+03	1.941425E-15	7.901933E-18
5.960000E+03	1.833642E-15	7.663522E-18
5.970000E+03	1.726139E-15	7.460308E-18
5.980000E+03	1.622310E-15	7.285218E-18
5.990000E+03	1.525218E-15	7.093413E-18
6.000000E+03	1.437369E-15	6.922718E-18
6.010000E+03	1.360413E-15	6.852757E-18
6.020000E+03	1.295159E-15	6.864827E-18
6.030000E+03	1.242083E-15	6.965011E-18
6.040000E+03	1.201229E-15	7.171699E-18
6.050000E+03	1.171234E-15	7.405980E-18
6.060000E+03	1.150636E-15	7.599483E-18
6.070000E+03	1.138175E-15	7.720400E-18
6.080000E+03	1.132564E-15	7.745662E-18
6.090000E+03	1.132580E-15	7.677687E-18
6.100000E+03	1.137092E-15	7.540247E-18
6.110000E+03	1.144999E-15	7.351123E-18
6.120000E+03	1.155220E-15	7.156639E-18
6.130000E+03	1.166789E-15	7.020858E-18
6.140000E+03	1.179157E-15	6.959488E-18
6.150000E+03	1.191894E-15	7.003949E-18
6.160000E+03	1.204597E-15	7.185448E-18
6.170000E+03	1.216990E-15	7.433055E-18
6.180000E+03	1.228769E-15	7.678141E-18
6.190000E+03	1.239533E-15	7.888299E-18
6.200000E+03	1.248621E-15	8.028659E-18
6.210000E+03	1.255336E-15	8.098912E-18
6.220000E+03	1.258938E-15	8.121559E-18
6.230000E+03	1.258724E-15	8.080502E-18
6.240000E+03	1.253998E-15	7.978687E-18
6.250000E+03	1.244342E-15	7.840917E-18
6.260000E+03	1.230130E-15	7.660519E-18
6.270000E+03	1.211982E-15	7.456881E-18
6.280000E+03	1.190779E-15	7.275553E-18
6.290000E+03	1.168239E-15	7.133503E-18
6.300000E+03	1.146219E-15	7.069947E-18
6.310000E+03	1.126432E-15	7.124657E-18
6.320000E+03	1.110363E-15	7.251563E-18
6.330000E+03	1.099448E-15	7.409945E-18
6.340000E+03	1.094883E-15	7.580462E-18
6.350000E+03	1.097036E-15	7.716332E-18
6.360000E+03	1.106169E-15	7.784790E-18
6.370000E+03	1.122535E-15	7.771385E-18
6.380000E+03	1.145982E-15	7.652528E-18
6.390000E+03	1.176252E-15	7.423395E-18
6.400000E+03	1.213105E-15	7.107214E-18
6.410000E+03	1.255937E-15	6.741643E-18
6.420000E+03	1.303983E-15	6.422827E-18
6.430000E+03	1.356233E-15	6.269033E-18
6.440000E+03	1.410946E-15	6.260782E-18
6.450000E+03	1.465968E-15	6.394663E-18
6.460000E+03	1.518917E-15	6.700328E-18
6.470000E+03	1.567545E-15	7.067794E-18
6.480000E+03	1.609613E-15	7.418760E-18
6.490000E+03	1.642831E-15	7.732536E-18
6.500000E+03	1.665471E-15	7.903809E-18
6.510000E+03	1.676040E-15	7.870662E-18
6.520000E+03	1.673252E-15	7.637675E-18
6.530000E+03	1.656486E-15	7.188075E-18
6.540000E+03	1.625462E-15	6.581254E-18
6.550000E+03	1.580415E-15	5.933618E-18
6.560000E+03	1.522464E-15	5.285178E-18
6.570000E+03	1.453141E-15	4.779561E-18
6.580000E+03	1.374439E-15	4.563640E-18
6.590000E+03	1.289134E-15	4.467999E-18
6.600000E+03	1.200038E-15	4.404818E-18
6.610000E+03	1.109735E-15	4.401995E-18
6.620000E+03	1.020676E-15	4.398690E-18
6.630000E+03	9.348452E-16	4.389665E-18
6.640000E+03	8.537668E-16	4.401347E-18
6.650000E+03	7.784552E-16	4.383573E-18
6.660000E+03	7.095717E-16	4.310156E-18
6.670000E+03	6.474160E-16	4.188510E-18
6.680000E+03	5.920011E-16	4.024845E-18
6.690000E+03	5.431612E-16	3.838115E-18
6.700000E+03	5.006169E-16	3.651255E-18
6.710000E+03	4.639580E-16	3.470641E-18
6.720000E+03	4.327559E-16	3.306095E-18
6.730000E+03	4.066004E-16	3.170001E-18
6.740000E+03	3.850478E-16	3.063809E-18
6.750000E+03	3.677135E-16	2.991955E-18
6.760000E+03	3.542570E-16	2.958531E-18
6.770000E+03	3.442839E-16	2.951490E-18
6.780000E+03	3.374500E-16	2.960425E-18
6.790000E+03	3.334946E-16	2.979915E-18
6.800000E+03	3.321894E-16	3.002367E-18
6.810000E+03	3.333559E-16	3.024027E-18
6.820000E+03	3.368601E-16	3.044866E-18
6.830000E+03	3.425975E-16	3.062863E-18
6.840000E+03	3.504787E-16	3.079635E-18
6.850000E+03	3.604356E-16	3.100098E-18
6.860000E+03	3.723875E-16	3.124251E-18
6.870000E+03	3.862536E-16	3.156210E-18
6.880000E+03	4.019315E-16	3.203808E-18
6.890000E+03	4.192865E-16	3.266041E-18
6.900000E+03	4.381418E-16	3.345711E-18
6.910000E+03	4.582786E-16	3.448807E-18
6.920000E+03	4.794286E-16	3.565411E-18
6.930000E+03	5.012586E-16	3.688145E-18
6.940000E+03	5.234086E-16	3.816840E-18
6.950000E+03	5.455204E-16	3.943671E-18
6.960000E+03	5.672128E-16	4.069396E-18
6.970000E+03	5.881147E-16	4.201574E-18
6.980000E+03	6.080496E-16	4.329022E-18
6.990000E+03	6.268869E-16	4.445107E-18
7.000000E+03	6.445528E-16	4.550531E-18
7.010000E+03	6.611475E-16	4.629596E-18
7.020000E+03	6.768526E-16	4.674612E-18
7.030000E+03	6.918668E-16	4.688432E-18
7.040000E+03	7.064468E-16	4.661799E-18
7.050000E+03	7.208625E-16	4.599877E-18
7.060000E+03	7.353913E-16	4.527764E-18
7.070000E+03	7.502441E-16	4.469851E-18
7.080000E+03	7.656027E-16	4.473464E-18
7.090000E+03	7.816093E-16	4.582534E-18
7.100000E+03	7.981889E-16	4.752536E-18
7.110000E+03	8.151832E-16	4.929853E-18
7.120000E+03	8.323937E-16	5.083837E-18
7.130000E+03	8.496305E-16	5.185892E-18
7.140000E+03	8.666513E-16	5.237480E-18
7.150000E+03	8.832291E-16	5.270912E-18
7.160000E+03	8.991415E-16	5.316286E-18
7.170000E+03	9.141772E-16	5.435645E-18
7.180000E+03	9.281306E-16	5.696429E-18
7.190000E+03	9.407625E-16	6.075724E-18
7.200000E+03	9.518921E-16	6.540578E-18
7.210000E+03	9.612863E-16	7.068645E-18
7.220000E+03	9.688491E-16	7.605876E-18
7.230000E+03	9.744765E-16	8.107000E-18
7.240000E+03	9.781204E-16	8.541944E-18
7.250000E+03	9.797953E-16	8.869310E-18
7.260000E+03	9.795617E-16	9.058424E-18
7.270000E+03	9.775279E-16	9.094991E-18
7.280000E+03	9.737897E-16	8.972095E-18
7.290000E+03	9.685376E-16	8.698909E-18
7.300000E+03	9.619148E-16	8.299971E-18
7.310000E+03	9.541591E-16	7.810106E-18
7.320000E+03	9.454678E-16	7.279644E-18
7.330000E+03	9.361411E-16	6.761592E-18
7.340000E+03	9.266412E-16	6.273415E-18
7.350000E+03	9.174925E-16	5.836838E-18
7.360000E+03	9.091799E-16	5.472055E-18
7.370000E+03	9.021325E-16	5.147412E-18
7.380000E+03	8.967857E-16	4.844912E-18
7.390000E+03	8.934634E-16	4.572267E-18
7.400000E+03	8.921400E-16	4.323945E-18
7.410000E+03	8.927178E-16	4.135440E-18
7.420000E+03	8.949077E-16	4.060634E-18
7.430000E+03	8.979187E-16	4.067942E-18
7.440000E+03	9.007371E-16	4.148179E-18
7.450000E+03	9.024363E-16	4.319609E-18
7.460000E+03	9.023685E-16	4.527132E-18
7.470000E+03	8.999828E-16	4.738384E-18
7.480000E+03	8.948758E-16	4.959298E-18
7.490000E+03	8.872293E-16	5.174487E-18
7.500000E+03	8.774016E-16	5.394254E-18
7.510000E+03	8.658504E-16	5.646726E-18
7.520000E+03	8.533812E-16	5.920993E-18
7.530000E+03	8.408078E-16	6.214257E-18
7.540000E+03	8.289289E-16	6.535025E-18
7.550000E+03	8.183000E-16	6.865087E-18
7.560000E+03	8.094686E-16	7.192628E-18
7.570000E+03	8.028265E-16	7.512665E-18
7.580000E+03	7.984488E-16	7.801768E-18
7.590000E+03	7.963200E-16	8.039667E-18
7.600000E+03	7.963839E-16	8.213511E-18
7.610000E+03	7.984489E-16	8.307977E-18
7.620000E+03	8.022667E-16	8.313242E-18
7.630000E+03	8.075921E-16	8.226852E-18
7.640000E+03	8.140571E-16	8.048209E-18
7.650000E+03	8.213046E-16	7.785905E-18
7.660000E+03	8.289107E-16	7.455033E-18
7.670000E+03	8.362940E-16	7.064491E-18
7.680000E+03	8.428647E-16	6.635589E-18
7.690000E+03	8.479876E-16	6.202034E-18
7.700000E+03	8.510575E-16	5.790405E-18
7.710000E+03	8.514802E-16	5.445258E-18
7.720000E+03	8.487486E-16	5.211254E-18
7.730000E+03	8.425777E-16	5.067558E-18
7.740000E+03	8.327969E-16	4.994336E-18
7.750000E+03	8.193575E-16	4.980969E-18
7.760000E+03	8.024585E-16	4.976034E-18
