#wls	flux	fluxerr
1.600000E+03	6.222909E-17	3.917468E-17
1.640000E+03	6.223893E-17	3.836414E-17
1.680000E+03	6.231369E-17	3.758672E-17
1.720000E+03	6.245512E-17	3.684163E-17
1.760000E+03	6.265436E-17	3.612190E-17
1.800000E+03	6.291333E-17	3.542720E-17
1.840000E+03	6.324461E-17	3.476308E-17
1.880000E+03	6.365019E-17	3.412887E-17
1.920000E+03	6.412141E-17	3.351843E-17
1.960000E+03	6.468178E-17	3.294267E-17
2.000000E+03	6.531197E-17	3.239034E-17
2.040000E+03	6.603575E-17	3.187230E-17
2.080000E+03	6.684464E-17	3.138350E-17
2.120000E+03	6.774094E-17	3.092473E-17
2.160000E+03	6.872702E-17	3.049726E-17
2.200000E+03	6.982759E-17	3.011252E-17
2.240000E+03	7.101198E-17	2.975825E-17
2.280000E+03	7.231655E-17	2.945174E-17
2.320000E+03	7.373323E-17	2.919176E-17
2.360000E+03	7.525372E-17	2.897814E-17
2.400000E+03	7.691641E-17	2.882927E-17
2.440000E+03	7.869042E-17	2.873720E-17
2.480000E+03	8.060379E-17	2.871643E-17
2.520000E+03	8.266201E-17	2.877262E-17
2.560000E+03	8.485893E-17	2.890685E-17
2.600000E+03	8.722635E-17	2.913217E-17
2.640000E+03	8.976001E-17	2.944736E-17
2.680000E+03	9.248148E-17	2.985721E-17
2.720000E+03	9.538744E-17	3.035551E-17
2.760000E+03	9.850198E-17	3.094263E-17
2.800000E+03	1.018380E-16	3.161337E-17
2.840000E+03	1.054104E-16	3.236160E-17
2.880000E+03	1.092505E-16	3.318512E-17
2.920000E+03	1.133784E-16	3.407761E-17
2.960000E+03	1.178172E-16	3.503343E-17
3.000000E+03	1.225774E-16	3.604367E-17
3.010000E+03	1.238242E-16	3.630535E-17
3.020000E+03	1.251041E-16	3.657336E-17
3.030000E+03	1.264021E-16	3.684316E-17
3.040000E+03	1.277185E-16	3.711473E-17
3.050000E+03	1.290697E-16	3.739265E-17
3.060000E+03	1.304564E-16	3.767697E-17
3.070000E+03	1.318472E-16	3.795853E-17
3.080000E+03	1.332746E-16	3.824658E-17
3.090000E+03	1.347394E-16	3.854119E-17
3.100000E+03	1.362261E-16	3.883783E-17
3.110000E+03	1.377352E-16	3.913655E-17
3.120000E+03	1.392837E-16	3.944213E-17
3.130000E+03	1.408559E-16	3.975003E-17
3.140000E+03	1.424691E-16	4.006506E-17
3.150000E+03	1.441073E-16	4.038268E-17
3.160000E+03	1.457882E-16	4.070778E-17
3.170000E+03	1.474955E-16	4.103582E-17
3.180000E+03	1.492300E-16	4.136697E-17
3.190000E+03	1.510095E-16	4.170623E-17
3.200000E+03	1.528351E-16	4.205386E-17
3.210000E+03	1.546727E-16	4.240049E-17
3.220000E+03	1.565758E-16	4.276084E-17
3.230000E+03	1.585100E-16	4.312556E-17
3.240000E+03	1.604763E-16	4.349495E-17
3.250000E+03	1.624933E-16	4.387419E-17
3.260000E+03	1.645440E-16	4.425873E-17
3.270000E+03	1.666475E-16	4.465385E-17
3.280000E+03	1.687866E-16	4.505500E-17
3.290000E+03	1.709807E-16	4.546750E-17
3.300000E+03	1.732121E-16	4.588681E-17
3.310000E+03	1.755008E-16	4.631831E-17
3.320000E+03	1.778287E-16	4.675745E-17
3.330000E+03	1.802162E-16	4.720967E-17
3.340000E+03	1.826449E-16	4.767040E-17
3.350000E+03	1.851354E-16	4.814516E-17
3.360000E+03	1.876692E-16	4.862931E-17
3.370000E+03	1.902672E-16	4.912846E-17
3.380000E+03	1.929105E-16	4.963793E-17
3.390000E+03	1.956204E-16	5.016335E-17
3.400000E+03	1.983777E-16	5.070002E-17
3.410000E+03	2.012039E-16	5.125360E-17
3.420000E+03	2.040796E-16	5.181930E-17
3.430000E+03	2.070266E-16	5.240285E-17
3.440000E+03	2.100252E-16	5.299937E-17
3.450000E+03	2.130976E-16	5.361457E-17
3.460000E+03	2.162450E-16	5.424890E-17
3.470000E+03	2.194472E-16	5.489727E-17
3.480000E+03	2.227050E-16	5.555994E-17
3.490000E+03	2.260412E-16	5.624260E-17
3.500000E+03	2.294573E-16	5.694551E-17
3.510000E+03	2.329320E-16	5.766326E-17
3.520000E+03	2.364660E-16	5.839588E-17
3.530000E+03	2.400830E-16	5.914903E-17
3.540000E+03	2.437842E-16	5.992273E-17
3.550000E+03	2.475476E-16	6.071124E-17
3.560000E+03	2.513974E-16	6.152017E-17
3.570000E+03	2.553108E-16	6.234356E-17
3.580000E+03	2.593126E-16	6.318701E-17
3.590000E+03	2.633795E-16	6.404436E-17
3.600000E+03	2.675365E-16	6.492121E-17
3.610000E+03	2.717598E-16	6.581119E-17
3.620000E+03	2.760750E-16	6.671986E-17
3.630000E+03	2.804575E-16	6.764067E-17
3.640000E+03	2.849333E-16	6.857915E-17
3.650000E+03	2.894773E-16	6.952854E-17
3.660000E+03	2.941158E-16	7.049435E-17
3.670000E+03	2.988496E-16	7.147593E-17
3.680000E+03	3.036528E-16	7.246619E-17
3.690000E+03	3.085252E-16	7.346421E-17
3.700000E+03	3.134939E-16	7.447549E-17
3.710000E+03	3.185319E-16	7.549263E-17
3.720000E+03	3.236667E-16	7.652111E-17
3.730000E+03	3.288987E-16	7.755994E-17
3.740000E+03	3.341715E-16	7.859474E-17
3.750000E+03	3.395697E-16	7.964429E-17
3.760000E+03	3.450363E-16	8.069405E-17
3.770000E+03	3.505708E-16	8.174270E-17
3.780000E+03	3.562017E-16	8.279572E-17
3.790000E+03	3.618991E-16	8.384492E-17
3.800000E+03	3.676921E-16	8.489580E-17
3.810000E+03	3.735501E-16	8.594000E-17
3.820000E+03	3.795025E-16	8.698305E-17
3.830000E+03	3.855178E-16	8.801641E-17
3.840000E+03	3.915945E-16	8.903853E-17
3.850000E+03	3.977628E-16	9.005493E-17
3.860000E+03	4.039899E-16	9.105693E-17
3.870000E+03	4.103061E-16	9.205010E-17
3.880000E+03	4.166781E-16	9.302564E-17
3.890000E+03	4.231364E-16	9.398918E-17
3.900000E+03	4.296468E-16	9.493184E-17
3.910000E+03	4.362070E-16	9.585195E-17
3.920000E+03	4.428482E-16	9.675525E-17
3.930000E+03	4.495347E-16	9.763279E-17
3.940000E+03	4.562638E-16	9.848295E-17
3.950000E+03	4.630674E-16	9.931160E-17
3.960000E+03	4.699085E-16	1.001098E-16
3.970000E+03	4.768191E-16	1.008835E-16
3.980000E+03	4.837258E-16	1.016163E-16
3.990000E+03	4.906960E-16	1.023218E-16
4.000000E+03	4.977271E-16	1.029987E-16
4.010000E+03	5.047434E-16	1.036308E-16
4.020000E+03	5.118137E-16	1.042317E-16
4.030000E+03	5.188978E-16	1.047930E-16
4.040000E+03	5.260291E-16	1.053212E-16
4.050000E+03	5.331664E-16	1.058078E-16
4.060000E+03	5.402675E-16	1.062446E-16
4.070000E+03	5.474034E-16	1.066459E-16
4.080000E+03	5.545703E-16	1.070112E-16
4.090000E+03	5.616868E-16	1.073251E-16
4.100000E+03	5.688251E-16	1.076023E-16
4.110000E+03	5.759418E-16	1.078352E-16
4.120000E+03	5.830318E-16	1.080239E-16
4.130000E+03	5.900897E-16	1.081687E-16
4.140000E+03	5.971102E-16	1.082700E-16
4.150000E+03	6.040880E-16	1.083284E-16
4.160000E+03	6.110580E-16	1.083519E-16
4.170000E+03	6.179337E-16	1.083269E-16
4.180000E+03	6.247910E-16	1.082690E-16
4.190000E+03	6.315421E-16	1.081653E-16
4.200000E+03	6.382638E-16	1.080315E-16
4.210000E+03	6.449091E-16	1.078621E-16
4.220000E+03	6.514304E-16	1.076521E-16
4.230000E+03	6.579056E-16	1.074175E-16
4.240000E+03	6.642871E-16	1.071535E-16
4.250000E+03	6.705271E-16	1.068556E-16
4.260000E+03	6.767043E-16	1.065399E-16
4.270000E+03	6.827285E-16	1.061956E-16
4.280000E+03	6.886793E-16	1.058387E-16
4.290000E+03	6.944662E-16	1.054585E-16
4.300000E+03	7.001265E-16	1.050646E-16
4.310000E+03	7.056555E-16	1.046595E-16
4.320000E+03	7.110485E-16	1.042460E-16
4.330000E+03	7.163010E-16	1.038265E-16
4.340000E+03	7.214088E-16	1.034031E-16
4.350000E+03	7.263246E-16	1.029717E-16
4.360000E+03	7.310882E-16	1.025400E-16
4.370000E+03	7.356968E-16	1.021089E-16
4.380000E+03	7.401477E-16	1.016788E-16
4.390000E+03	7.443948E-16	1.012436E-16
4.400000E+03	7.485241E-16	1.008148E-16
4.410000E+03	7.524464E-16	1.003793E-16
4.420000E+03	7.561606E-16	9.993610E-17
4.430000E+03	7.597540E-16	9.949523E-17
4.440000E+03	7.631384E-16	9.904343E-17
4.450000E+03	7.663138E-16	9.857901E-17
4.460000E+03	7.693683E-16	9.811144E-17
4.470000E+03	7.721711E-16	9.762207E-17
4.480000E+03	7.748544E-16	9.712585E-17
4.490000E+03	7.773320E-16	9.661005E-17
4.500000E+03	7.796489E-16	9.607863E-17
4.510000E+03	7.817633E-16	9.552487E-17
4.520000E+03	7.837207E-16	9.495306E-17
4.530000E+03	7.855231E-16	9.436228E-17
4.540000E+03	7.871295E-16	9.374681E-17
4.550000E+03	7.885424E-16	9.310654E-17
4.560000E+03	7.898079E-16	9.244680E-17
4.570000E+03	7.909287E-16	9.176810E-17
4.580000E+03	7.918648E-16	9.106645E-17
4.590000E+03	7.926193E-16	9.034340E-17
4.600000E+03	7.932384E-16	8.960579E-17
4.610000E+03	7.936828E-16	8.885121E-17
4.620000E+03	7.939983E-16	8.808738E-17
4.630000E+03	7.941883E-16	8.731764E-17
4.640000E+03	7.941721E-16	8.653674E-17
4.650000E+03	7.940376E-16	8.575845E-17
4.660000E+03	7.937883E-16	8.498769E-17
4.670000E+03	7.933862E-16	8.422547E-17
4.680000E+03	7.928350E-16	8.347785E-17
4.690000E+03	7.921801E-16	8.275559E-17
4.700000E+03	7.913839E-16	8.206118E-17
4.710000E+03	7.904504E-16	8.140177E-17
4.720000E+03	7.894241E-16	8.078890E-17
4.730000E+03	7.882682E-16	8.022580E-17
4.740000E+03	7.870266E-16	7.972396E-17
4.750000E+03	7.856629E-16	7.928637E-17
4.760000E+03	7.841808E-16	7.891968E-17
4.770000E+03	7.825843E-16	7.862969E-17
4.780000E+03	7.809165E-16	7.842500E-17
4.790000E+03	7.791415E-16	7.830469E-17
4.800000E+03	7.772628E-16	7.826993E-17
4.810000E+03	7.753230E-16	7.832379E-17
4.820000E+03	7.732863E-16	7.845946E-17
4.830000E+03	7.711564E-16	7.867229E-17
4.840000E+03	7.689747E-16	7.896015E-17
4.850000E+03	7.667060E-16	7.931210E-17
4.860000E+03	7.643537E-16	7.972045E-17
4.870000E+03	7.619210E-16	8.017718E-17
4.880000E+03	7.594481E-16	8.067811E-17
4.890000E+03	7.568635E-16	8.120727E-17
4.900000E+03	7.542812E-16	8.176873E-17
4.910000E+03	7.515930E-16	8.234301E-17
4.920000E+03	7.488751E-16	8.293090E-17
4.930000E+03	7.460934E-16	8.352165E-17
4.940000E+03	7.432505E-16	8.410893E-17
4.950000E+03	7.403490E-16	8.468689E-17
4.960000E+03	7.374268E-16	8.525423E-17
4.970000E+03	7.344503E-16	8.580201E-17
4.980000E+03	7.314220E-16	8.632577E-17
4.990000E+03	7.283438E-16	8.682155E-17
5.000000E+03	7.252526E-16	8.728996E-17
5.010000E+03	7.221153E-16	8.772377E-17
5.020000E+03	7.189339E-16	8.812028E-17
5.030000E+03	7.157440E-16	8.848138E-17
5.040000E+03	7.124796E-16	8.879677E-17
5.050000E+03	7.092098E-16	8.907327E-17
5.060000E+03	7.059355E-16	8.930966E-17
5.070000E+03	7.025915E-16	8.949663E-17
5.080000E+03	6.992457E-16	8.964197E-17
5.090000E+03	6.958660E-16	8.974119E-17
5.100000E+03	6.924538E-16	8.979425E-17
5.110000E+03	6.890102E-16	8.980137E-17
5.120000E+03	6.855683E-16	8.976724E-17
5.130000E+03	6.820967E-16	8.968837E-17
5.140000E+03	6.785966E-16	8.956573E-17
5.150000E+03	6.751000E-16	8.940462E-17
5.160000E+03	6.715760E-16	8.920226E-17
5.170000E+03	6.680256E-16	8.896022E-17
5.180000E+03	6.644493E-16	8.868028E-17
5.190000E+03	6.608783E-16	8.836846E-17
5.200000E+03	6.572824E-16	8.802276E-17
5.210000E+03	6.536620E-16	8.764548E-17
5.220000E+03	6.500178E-16	8.723905E-17
5.230000E+03	6.463797E-16	8.681002E-17
5.240000E+03	6.427182E-16	8.635708E-17
5.250000E+03	6.390337E-16	8.588308E-17
5.260000E+03	6.353555E-16	8.539486E-17
5.270000E+03	6.316547E-16	8.489150E-17
5.280000E+03	6.279315E-16	8.437614E-17
5.290000E+03	6.242146E-16	8.385578E-17
5.300000E+03	6.204755E-16	8.332979E-17
5.310000E+03	6.167146E-16	8.280146E-17
5.320000E+03	6.129599E-16	8.227780E-17
5.330000E+03	6.091836E-16	8.175829E-17
5.340000E+03	6.053861E-16	8.124617E-17
5.350000E+03	6.015677E-16	8.074458E-17
5.360000E+03	5.977558E-16	8.026022E-17
5.370000E+03	5.939502E-16	7.979590E-17
5.380000E+03	5.900977E-16	7.934712E-17
5.390000E+03	5.862523E-16	7.892351E-17
5.400000E+03	5.823877E-16	7.852361E-17
5.410000E+03	5.785308E-16	7.815264E-17
5.420000E+03	5.746559E-16	7.780827E-17
5.430000E+03	5.707896E-16	7.749457E-17
5.440000E+03	5.669071E-16	7.720795E-17
5.450000E+03	5.630095E-16	7.694767E-17
5.460000E+03	5.590983E-16	7.671234E-17
5.470000E+03	5.551998E-16	7.650349E-17
5.480000E+03	5.513149E-16	7.631876E-17
5.490000E+03	5.474203E-16	7.615214E-17
5.500000E+03	5.435176E-16	7.600087E-17
5.510000E+03	5.396085E-16	7.586207E-17
5.520000E+03	5.357425E-16	7.573961E-17
5.530000E+03	5.318491E-16	7.562043E-17
5.540000E+03	5.279775E-16	7.550842E-17
5.550000E+03	5.241057E-16	7.539742E-17
5.560000E+03	5.202583E-16	7.528809E-17
5.570000E+03	5.164365E-16	7.517785E-17
5.580000E+03	5.125958E-16	7.505753E-17
5.590000E+03	5.088061E-16	7.493483E-17
5.600000E+03	5.050006E-16	7.479754E-17
5.610000E+03	5.012259E-16	7.465028E-17
5.620000E+03	4.974828E-16	7.449114E-17
5.630000E+03	4.937504E-16	7.431504E-17
5.640000E+03	4.900517E-16	7.412367E-17
5.650000E+03	4.863660E-16	7.391227E-17
5.660000E+03	4.827159E-16	7.368280E-17
5.670000E+03	4.790809E-16	7.343079E-17
5.680000E+03	4.754832E-16	7.315845E-17
5.690000E+03	4.719025E-16	7.286161E-17
5.700000E+03	4.683607E-16	7.254272E-17
5.710000E+03	4.648375E-16	7.219785E-17
5.720000E+03	4.613546E-16	7.182968E-17
5.730000E+03	4.578918E-16	7.143456E-17
5.740000E+03	4.544704E-16	7.101532E-17
5.750000E+03	4.510705E-16	7.056856E-17
5.760000E+03	4.477327E-16	7.010042E-17
5.770000E+03	4.443976E-16	6.960145E-17
5.780000E+03	4.411055E-16	6.907795E-17
5.790000E+03	4.378566E-16	6.853003E-17
5.800000E+03	4.346511E-16	6.795784E-17
5.810000E+03	4.314698E-16	6.735866E-17
5.820000E+03	4.283133E-16	6.673290E-17
5.830000E+03	4.252010E-16	6.608398E-17
5.840000E+03	4.221328E-16	6.541238E-17
5.850000E+03	4.191088E-16	6.471867E-17
5.860000E+03	4.161104E-16	6.400061E-17
5.870000E+03	4.131564E-16	6.326181E-17
5.880000E+03	4.102284E-16	6.250023E-17
5.890000E+03	4.073448E-16	6.171957E-17
5.900000E+03	4.045054E-16	6.092074E-17
5.910000E+03	4.016923E-16	6.010203E-17
5.920000E+03	3.989234E-16	5.926727E-17
5.930000E+03	3.961986E-16	5.841757E-17
5.940000E+03	3.934999E-16	5.755161E-17
5.950000E+03	3.908452E-16	5.667333E-17
5.960000E+03	3.882340E-16	5.578413E-17
5.970000E+03	3.856489E-16	5.488308E-17
5.980000E+03	3.831071E-16	5.397431E-17
5.990000E+03	3.806084E-16	5.305954E-17
6.000000E+03	3.781354E-16	5.213829E-17
6.010000E+03	3.757219E-16	5.121725E-17
6.020000E+03	3.733338E-16	5.029388E-17
6.030000E+03	3.709711E-16	4.937059E-17
6.040000E+03	3.686667E-16	4.845427E-17
6.050000E+03	3.663873E-16	4.754312E-17
6.060000E+03	3.641489E-16	4.664213E-17
6.070000E+03	3.619352E-16	4.575221E-17
6.080000E+03	3.597782E-16	4.488067E-17
6.090000E+03	3.576451E-16	4.402680E-17
6.100000E+03	3.555520E-16	4.319623E-17
6.110000E+03	3.534983E-16	4.239272E-17
6.120000E+03	3.514678E-16	4.161838E-17
6.130000E+03	3.494761E-16	4.087930E-17
6.140000E+03	3.475229E-16	4.017979E-17
6.150000E+03	3.456077E-16	3.952428E-17
6.160000E+03	3.437301E-16	3.891729E-17
6.170000E+03	3.418741E-16	3.836161E-17
6.180000E+03	3.400551E-16	3.786347E-17
6.190000E+03	3.382725E-16	3.742717E-17
6.200000E+03	3.365258E-16	3.705668E-17
6.210000E+03	3.348147E-16	3.675554E-17
6.220000E+03	3.331235E-16	3.652499E-17
6.230000E+03	3.314820E-16	3.637044E-17
6.240000E+03	3.298594E-16	3.628966E-17
6.250000E+03	3.282704E-16	3.628426E-17
6.260000E+03	3.267142E-16	3.635303E-17
6.270000E+03	3.251754E-16	3.649206E-17
6.280000E+03	3.236830E-16	3.670147E-17
6.290000E+03	3.222067E-16	3.697406E-17
6.300000E+03	3.207753E-16	3.730882E-17
6.310000E+03	3.193586E-16	3.769771E-17
6.320000E+03	3.179706E-16	3.813760E-17
6.330000E+03	3.166106E-16	3.862366E-17
6.340000E+03	3.152779E-16	3.915110E-17
6.350000E+03	3.139573E-16	3.971346E-17
6.360000E+03	3.126769E-16	4.030991E-17
6.370000E+03	3.114073E-16	4.093251E-17
6.380000E+03	3.101763E-16	4.158100E-17
6.390000E+03	3.089548E-16	4.224782E-17
6.400000E+03	3.077563E-16	4.293135E-17
6.410000E+03	3.065801E-16	4.362832E-17
6.420000E+03	3.054256E-16	4.433572E-17
6.430000E+03	3.042919E-16	4.505075E-17
6.440000E+03	3.031785E-16	4.577085E-17
6.450000E+03	3.020846E-16	4.649365E-17
6.460000E+03	3.009957E-16	4.721479E-17
6.470000E+03	2.999390E-16	4.793661E-17
6.480000E+03	2.988998E-16	4.865513E-17
6.490000E+03	2.978637E-16	4.936638E-17
6.500000E+03	2.968577E-16	5.007335E-17
6.510000E+03	2.958535E-16	5.077002E-17
6.520000E+03	2.948781E-16	5.145977E-17
6.530000E+03	2.939033E-16	5.213664E-17
6.540000E+03	2.929423E-16	5.280190E-17
6.550000E+03	2.920080E-16	5.345702E-17
6.560000E+03	2.910726E-16	5.409611E-17
6.570000E+03	2.901491E-16	5.472077E-17
6.580000E+03	2.892369E-16	5.533020E-17
6.590000E+03	2.883489E-16	5.592628E-17
6.600000E+03	2.874574E-16	5.650313E-17
6.610000E+03	2.865755E-16	5.706269E-17
6.620000E+03	2.857025E-16	5.760439E-17
6.630000E+03	2.848378E-16	5.812766E-17
6.640000E+03	2.839942E-16	5.863477E-17
6.650000E+03	2.831444E-16	5.911975E-17
6.660000E+03	2.823012E-16	5.958488E-17
6.670000E+03	2.814640E-16	6.002977E-17
6.680000E+03	2.806324E-16	6.045403E-17
6.690000E+03	2.798189E-16	6.086017E-17
6.700000E+03	2.789965E-16	6.124213E-17
6.710000E+03	2.781780E-16	6.160246E-17
6.720000E+03	2.773627E-16	6.194086E-17
6.730000E+03	2.765502E-16	6.225706E-17
6.740000E+03	2.757530E-16	6.255378E-17
6.750000E+03	2.749443E-16	6.282487E-17
6.760000E+03	2.741368E-16	6.307306E-17
6.770000E+03	2.733429E-16	6.330116E-17
6.780000E+03	2.725361E-16	6.350298E-17
6.790000E+03	2.717289E-16	6.368134E-17
6.800000E+03	2.709336E-16	6.383913E-17
6.810000E+03	2.701240E-16	6.397013E-17
6.820000E+03	2.693254E-16	6.408031E-17
6.830000E+03	2.685114E-16	6.416345E-17
6.840000E+03	2.677073E-16	6.422557E-17
6.850000E+03	2.668869E-16	6.426045E-17
6.860000E+03	2.660754E-16	6.427415E-17
6.870000E+03	2.652467E-16	6.426047E-17
6.880000E+03	2.644259E-16	6.422553E-17
6.890000E+03	2.635870E-16	6.416312E-17
6.900000E+03	2.627550E-16	6.407940E-17
6.910000E+03	2.619168E-16	6.397128E-17
6.920000E+03	2.610592E-16	6.383569E-17
6.930000E+03	2.602070E-16	6.367882E-17
6.940000E+03	2.593472E-16	6.349763E-17
6.950000E+03	2.584669E-16	6.328911E-17
6.960000E+03	2.575906E-16	6.305946E-17
6.970000E+03	2.567055E-16	6.280570E-17
6.980000E+03	2.558112E-16	6.252795E-17
6.990000E+03	2.549071E-16	6.222631E-17
7.000000E+03	2.539808E-16	6.189794E-17
7.010000E+03	2.530564E-16	6.154899E-17
7.020000E+03	2.521212E-16	6.117664E-17
7.030000E+03	2.511750E-16	6.078107E-17
7.040000E+03	2.502173E-16	6.036249E-17
7.050000E+03	2.492358E-16	5.991823E-17
7.060000E+03	2.482544E-16	5.945439E-17
7.070000E+03	2.472606E-16	5.896831E-17
7.080000E+03	2.462542E-16	5.846027E-17
7.090000E+03	2.452350E-16	5.793060E-17
7.100000E+03	2.441907E-16	5.737682E-17
7.110000E+03	2.431450E-16	5.680494E-17
7.120000E+03	2.420858E-16	5.621250E-17
7.130000E+03	2.410129E-16	5.559991E-17
7.140000E+03	2.399142E-16	5.496491E-17
7.150000E+03	2.388133E-16	5.431338E-17
7.160000E+03	2.376981E-16	5.364307E-17
7.170000E+03	2.365570E-16	5.295187E-17
7.180000E+03	2.354131E-16	5.224559E-17
7.190000E+03	2.342431E-16	5.151958E-17
7.200000E+03	2.330702E-16	5.077957E-17
7.210000E+03	2.318712E-16	5.002113E-17
7.220000E+03	2.306577E-16	4.924745E-17
7.230000E+03	2.294296E-16	4.845921E-17
7.240000E+03	2.281983E-16	4.765950E-17
7.250000E+03	2.269413E-16	4.684429E-17
7.260000E+03	2.256698E-16	4.601679E-17
7.270000E+03	2.243841E-16	4.517780E-17
7.280000E+03	2.230843E-16	4.432819E-17
7.290000E+03	2.217593E-16	4.346670E-17
7.300000E+03	2.204317E-16	4.259864E-17
7.310000E+03	2.190794E-16	4.172072E-17
7.320000E+03	2.177246E-16	4.083816E-17
7.330000E+03	2.163458E-16	3.994795E-17
7.340000E+03	2.149541E-16	3.905331E-17
7.350000E+03	2.135606E-16	3.815735E-17
7.360000E+03	2.121440E-16	3.725746E-17
7.370000E+03	2.107048E-16	3.635512E-17
7.380000E+03	2.092647E-16	3.545542E-17
7.390000E+03	2.078133E-16	3.455797E-17
7.400000E+03	2.063406E-16	3.366265E-17
7.410000E+03	2.048576E-16	3.277290E-17
7.420000E+03	2.033749E-16	3.189209E-17
7.430000E+03	2.018724E-16	3.101883E-17
7.440000E+03	2.003507E-16	3.015523E-17
7.450000E+03	1.988306E-16	2.930648E-17
7.460000E+03	1.973024E-16	2.847326E-17
7.470000E+03	1.957568E-16	2.765654E-17
7.480000E+03	1.942042E-16	2.686032E-17
7.490000E+03	1.926452E-16	2.608726E-17
7.500000E+03	1.910804E-16	2.534016E-17
7.510000E+03	1.895007E-16	2.462070E-17
7.520000E+03	1.879260E-16	2.393450E-17
7.530000E+03	1.863377E-16	2.328225E-17
7.540000E+03	1.847459E-16	2.266843E-17
7.550000E+03	1.831514E-16	2.209631E-17
7.560000E+03	1.815454E-16	2.156800E-17
7.570000E+03	1.799473E-16	2.108885E-17
7.580000E+03	1.783390E-16	2.065957E-17
7.590000E+03	1.767306E-16	2.028385E-17
7.600000E+03	1.751136E-16	1.996281E-17
7.610000E+03	1.735070E-16	1.970008E-17
7.620000E+03	1.718932E-16	1.949446E-17
7.630000E+03	1.702821E-16	1.934701E-17
7.640000E+03	1.686743E-16	1.925686E-17
7.650000E+03	1.670620E-16	1.922126E-17
7.660000E+03	1.654547E-16	1.923863E-17
7.670000E+03	1.638530E-16	1.930573E-17
7.680000E+03	1.622579E-16	1.941883E-17
7.690000E+03	1.606615E-16	1.957287E-17
7.700000E+03	1.590816E-16	1.976568E-17
7.710000E+03	1.575022E-16	1.999098E-17
7.720000E+03	1.559241E-16	2.024459E-17
7.730000E+03	1.543646E-16	2.052465E-17
7.740000E+03	1.528079E-16	2.082525E-17
7.750000E+03	1.512630E-16	2.114397E-17
7.760000E+03	1.497225E-16	2.147644E-17
