#wls	flux	fluxerr
1.600000E+03	2.263479E-16	1.749245E-16
1.640000E+03	2.291045E-16	1.749297E-16
1.680000E+03	2.321820E-16	1.750648E-16
1.720000E+03	2.356767E-16	1.753889E-16
1.760000E+03	2.395726E-16	1.758739E-16
1.800000E+03	2.438975E-16	1.765236E-16
1.840000E+03	2.486993E-16	1.773545E-16
1.880000E+03	2.539841E-16	1.783502E-16
1.920000E+03	2.597792E-16	1.795084E-16
1.960000E+03	2.661126E-16	1.808251E-16
2.000000E+03	2.729747E-16	1.822688E-16
2.040000E+03	2.804169E-16	1.838475E-16
2.080000E+03	2.883977E-16	1.855061E-16
2.120000E+03	2.968825E-16	1.871948E-16
2.160000E+03	3.058617E-16	1.888801E-16
2.200000E+03	3.152779E-16	1.904994E-16
2.240000E+03	3.250294E-16	1.919661E-16
2.280000E+03	3.351662E-16	1.932863E-16
2.320000E+03	3.457083E-16	1.944455E-16
2.360000E+03	3.568195E-16	1.955069E-16
2.400000E+03	3.686832E-16	1.965336E-16
2.440000E+03	3.814863E-16	1.975789E-16
2.480000E+03	3.954393E-16	1.986954E-16
2.520000E+03	4.106949E-16	1.998930E-16
2.560000E+03	4.274859E-16	2.012086E-16
2.600000E+03	4.459789E-16	2.026320E-16
2.640000E+03	4.663780E-16	2.041568E-16
2.680000E+03	4.888803E-16	2.057584E-16
2.720000E+03	5.137295E-16	2.074160E-16
2.760000E+03	5.411724E-16	2.090916E-16
2.800000E+03	5.714811E-16	2.107380E-16
2.840000E+03	6.050104E-16	2.123169E-16
2.880000E+03	6.421567E-16	2.137779E-16
2.920000E+03	6.834368E-16	2.150802E-16
2.960000E+03	7.294867E-16	2.161817E-16
3.000000E+03	7.810812E-16	2.170344E-16
3.010000E+03	7.949466E-16	2.172006E-16
3.020000E+03	8.092327E-16	2.173466E-16
3.030000E+03	8.239530E-16	2.174703E-16
3.040000E+03	8.391401E-16	2.175744E-16
3.050000E+03	8.547905E-16	2.176517E-16
3.060000E+03	8.709197E-16	2.177000E-16
3.070000E+03	8.875811E-16	2.177258E-16
3.080000E+03	9.047547E-16	2.177175E-16
3.090000E+03	9.224957E-16	2.176812E-16
3.100000E+03	9.408042E-16	2.176096E-16
3.110000E+03	9.596996E-16	2.174997E-16
3.120000E+03	9.792408E-16	2.173570E-16
3.130000E+03	9.994110E-16	2.171694E-16
3.140000E+03	1.020252E-15	2.169379E-16
3.150000E+03	1.041786E-15	2.166587E-16
3.160000E+03	1.064060E-15	2.163322E-16
3.170000E+03	1.087077E-15	2.159502E-16
3.180000E+03	1.110886E-15	2.155125E-16
3.190000E+03	1.135513E-15	2.150148E-16
3.200000E+03	1.160969E-15	2.144486E-16
3.210000E+03	1.187302E-15	2.138130E-16
3.220000E+03	1.214567E-15	2.131068E-16
3.230000E+03	1.242754E-15	2.123174E-16
3.240000E+03	1.271939E-15	2.114466E-16
3.250000E+03	1.302115E-15	2.104817E-16
3.260000E+03	1.333384E-15	2.094275E-16
3.270000E+03	1.365719E-15	2.082673E-16
3.280000E+03	1.399179E-15	2.069985E-16
3.290000E+03	1.433829E-15	2.056178E-16
3.300000E+03	1.469689E-15	2.041152E-16
3.310000E+03	1.506823E-15	2.024869E-16
3.320000E+03	1.545230E-15	2.007195E-16
3.330000E+03	1.584979E-15	1.988090E-16
3.340000E+03	1.626116E-15	1.967477E-16
3.350000E+03	1.668688E-15	1.945283E-16
3.360000E+03	1.712743E-15	1.921428E-16
3.370000E+03	1.758305E-15	1.895809E-16
3.380000E+03	1.805424E-15	1.868349E-16
3.390000E+03	1.854147E-15	1.838973E-16
3.400000E+03	1.904523E-15	1.807609E-16
3.410000E+03	1.956576E-15	1.774160E-16
3.420000E+03	2.010352E-15	1.738564E-16
3.430000E+03	2.065897E-15	1.700763E-16
3.440000E+03	2.123229E-15	1.660687E-16
3.450000E+03	2.182390E-15	1.618302E-16
3.460000E+03	2.243418E-15	1.573589E-16
3.470000E+03	2.306293E-15	1.526514E-16
3.480000E+03	2.371073E-15	1.477131E-16
3.490000E+03	2.437757E-15	1.425494E-16
3.500000E+03	2.506334E-15	1.371706E-16
3.510000E+03	2.576816E-15	1.315955E-16
3.520000E+03	2.649147E-15	1.258479E-16
3.530000E+03	2.723321E-15	1.199660E-16
3.540000E+03	2.799291E-15	1.140010E-16
3.550000E+03	2.876999E-15	1.080226E-16
3.560000E+03	2.956374E-15	1.021248E-16
3.570000E+03	3.037330E-15	9.643231E-17
3.580000E+03	3.119738E-15	9.110528E-17
3.590000E+03	3.203521E-15	8.634726E-17
3.600000E+03	3.288525E-15	8.239895E-17
3.610000E+03	3.374658E-15	7.952788E-17
3.620000E+03	3.461720E-15	7.799212E-17
3.630000E+03	3.549656E-15	7.799830E-17
3.640000E+03	3.638264E-15	7.963049E-17
3.650000E+03	3.727563E-15	8.281160E-17
3.660000E+03	3.817528E-15	8.735176E-17
3.670000E+03	3.908230E-15	9.300723E-17
3.680000E+03	3.999634E-15	9.952115E-17
3.690000E+03	4.091827E-15	1.066583E-16
3.700000E+03	4.184823E-15	1.142133E-16
3.710000E+03	4.278709E-15	1.220175E-16
3.720000E+03	4.373485E-15	1.299312E-16
3.730000E+03	4.469267E-15	1.378446E-16
3.740000E+03	4.565985E-15	1.456648E-16
3.750000E+03	4.663722E-15	1.533211E-16
3.760000E+03	4.762454E-15	1.607540E-16
3.770000E+03	4.862176E-15	1.679170E-16
3.780000E+03	4.962810E-15	1.747708E-16
3.790000E+03	5.064339E-15	1.812870E-16
3.800000E+03	5.166572E-15	1.874385E-16
3.810000E+03	5.269421E-15	1.932087E-16
3.820000E+03	5.372713E-15	1.985841E-16
3.830000E+03	5.476235E-15	2.035553E-16
3.840000E+03	5.579732E-15	2.081167E-16
3.850000E+03	5.682858E-15	2.122646E-16
3.860000E+03	5.785373E-15	2.160037E-16
3.870000E+03	5.886903E-15	2.193381E-16
3.880000E+03	5.986983E-15	2.222725E-16
3.890000E+03	6.085222E-15	2.248178E-16
3.900000E+03	6.181151E-15	2.269850E-16
3.910000E+03	6.274334E-15	2.287890E-16
3.920000E+03	6.364221E-15	2.302422E-16
3.930000E+03	6.450422E-15	2.313646E-16
3.940000E+03	6.532395E-15	2.321708E-16
3.950000E+03	6.609784E-15	2.326828E-16
3.960000E+03	6.682095E-15	2.329169E-16
3.970000E+03	6.748932E-15	2.328923E-16
3.980000E+03	6.810066E-15	2.326321E-16
3.990000E+03	6.865155E-15	2.321538E-16
4.000000E+03	6.914045E-15	2.314786E-16
4.010000E+03	6.956599E-15	2.306256E-16
4.020000E+03	6.992825E-15	2.296150E-16
4.030000E+03	7.022760E-15	2.284641E-16
4.040000E+03	7.046531E-15	2.271891E-16
4.050000E+03	7.064416E-15	2.258062E-16
4.060000E+03	7.076779E-15	2.243296E-16
4.070000E+03	7.083895E-15	2.227660E-16
4.080000E+03	7.086404E-15	2.211285E-16
4.090000E+03	7.084723E-15	2.194185E-16
4.100000E+03	7.079556E-15	2.176422E-16
4.110000E+03	7.071475E-15	2.157977E-16
4.120000E+03	7.061201E-15	2.138840E-16
4.130000E+03	7.049410E-15	2.118961E-16
4.140000E+03	7.036787E-15	2.098263E-16
4.150000E+03	7.024014E-15	2.076648E-16
4.160000E+03	7.011758E-15	2.053991E-16
4.170000E+03	7.000728E-15	2.030163E-16
4.180000E+03	6.991548E-15	2.004993E-16
4.190000E+03	6.984758E-15	1.978266E-16
4.200000E+03	6.980926E-15	1.949760E-16
4.210000E+03	6.980586E-15	1.919226E-16
4.220000E+03	6.984294E-15	1.886402E-16
4.230000E+03	6.992457E-15	1.850972E-16
4.240000E+03	7.005502E-15	1.812607E-16
4.250000E+03	7.023761E-15	1.770949E-16
4.260000E+03	7.047638E-15	1.725648E-16
4.270000E+03	7.077380E-15	1.676324E-16
4.280000E+03	7.113241E-15	1.622613E-16
4.290000E+03	7.155424E-15	1.564176E-16
4.300000E+03	7.203951E-15	1.500703E-16
4.310000E+03	7.259017E-15	1.432024E-16
4.320000E+03	7.320504E-15	1.358077E-16
4.330000E+03	7.388327E-15	1.279071E-16
4.340000E+03	7.462252E-15	1.195596E-16
4.350000E+03	7.542129E-15	1.108882E-16
4.360000E+03	7.627399E-15	1.021058E-16
4.370000E+03	7.717718E-15	9.357429E-17
4.380000E+03	7.812532E-15	8.586285E-17
4.390000E+03	7.911292E-15	7.980587E-17
4.400000E+03	8.013488E-15	7.646620E-17
4.410000E+03	8.118553E-15	7.685381E-17
4.420000E+03	8.226162E-15	8.113964E-17
4.430000E+03	8.335837E-15	8.850804E-17
4.440000E+03	8.447406E-15	9.794180E-17
4.450000E+03	8.560478E-15	1.085616E-16
4.460000E+03	8.674681E-15	1.197135E-16
4.470000E+03	8.789713E-15	1.309399E-16
4.480000E+03	8.904784E-15	1.419182E-16
4.490000E+03	9.019439E-15	1.524281E-16
4.500000E+03	9.132625E-15	1.623061E-16
4.510000E+03	9.243558E-15	1.714388E-16
4.520000E+03	9.351106E-15	1.797394E-16
4.530000E+03	9.454126E-15	1.871445E-16
4.540000E+03	9.551418E-15	1.936073E-16
4.550000E+03	9.641587E-15	1.990904E-16
4.560000E+03	9.723596E-15	2.035739E-16
4.570000E+03	9.796129E-15	2.070396E-16
4.580000E+03	9.858141E-15	2.094798E-16
4.590000E+03	9.908735E-15	2.108932E-16
4.600000E+03	9.947197E-15	2.112829E-16
4.610000E+03	9.972929E-15	2.106529E-16
4.620000E+03	9.985563E-15	2.090094E-16
4.630000E+03	9.985068E-15	2.063609E-16
4.640000E+03	9.971656E-15	2.027162E-16
4.650000E+03	9.945785E-15	1.980839E-16
4.660000E+03	9.907955E-15	1.924694E-16
4.670000E+03	9.859147E-15	1.858863E-16
4.680000E+03	9.800332E-15	1.783489E-16
4.690000E+03	9.732624E-15	1.698804E-16
4.700000E+03	9.657328E-15	1.605186E-16
4.710000E+03	9.575719E-15	1.503198E-16
4.720000E+03	9.489092E-15	1.393697E-16
4.730000E+03	9.398721E-15	1.277981E-16
4.740000E+03	9.305830E-15	1.158019E-16
4.750000E+03	9.211565E-15	1.036837E-16
4.760000E+03	9.116980E-15	9.191449E-17
4.770000E+03	9.023031E-15	8.122989E-17
4.780000E+03	8.930501E-15	7.273170E-17
4.790000E+03	8.840275E-15	6.785058E-17
4.800000E+03	8.752929E-15	6.780532E-17
4.810000E+03	8.669319E-15	7.229053E-17
4.820000E+03	8.589906E-15	7.979212E-17
4.830000E+03	8.515319E-15	8.887347E-17
4.840000E+03	8.445997E-15	9.853182E-17
4.850000E+03	8.382086E-15	1.081501E-16
4.860000E+03	8.323917E-15	1.173742E-16
4.870000E+03	8.271431E-15	1.260064E-16
4.880000E+03	8.224599E-15	1.339474E-16
4.890000E+03	8.182951E-15	1.411513E-16
4.900000E+03	8.146402E-15	1.476166E-16
4.910000E+03	8.114391E-15	1.533577E-16
4.920000E+03	8.086547E-15	1.584074E-16
4.930000E+03	8.062314E-15	1.628044E-16
4.940000E+03	8.041294E-15	1.665953E-16
4.950000E+03	8.022873E-15	1.698246E-16
4.960000E+03	8.006718E-15	1.725421E-16
4.970000E+03	7.992556E-15	1.747971E-16
4.980000E+03	7.979948E-15	1.766327E-16
4.990000E+03	7.968704E-15	1.780936E-16
5.000000E+03	7.958795E-15	1.792246E-16
5.010000E+03	7.950210E-15	1.800667E-16
5.020000E+03	7.942858E-15	1.806556E-16
5.030000E+03	7.936967E-15	1.810305E-16
5.040000E+03	7.932747E-15	1.812265E-16
5.050000E+03	7.930454E-15	1.812765E-16
5.060000E+03	7.930301E-15	1.812087E-16
5.070000E+03	7.932588E-15	1.810497E-16
5.080000E+03	7.937692E-15	1.808241E-16
5.090000E+03	7.945732E-15	1.805465E-16
5.100000E+03	7.957028E-15	1.802318E-16
5.110000E+03	7.971698E-15	1.798857E-16
5.120000E+03	7.989885E-15	1.795098E-16
5.130000E+03	8.011673E-15	1.790997E-16
5.140000E+03	8.037089E-15	1.786449E-16
5.150000E+03	8.066019E-15	1.781269E-16
5.160000E+03	8.098451E-15	1.775250E-16
5.170000E+03	8.134076E-15	1.768066E-16
5.180000E+03	8.172779E-15	1.759384E-16
5.190000E+03	8.214235E-15	1.748771E-16
5.200000E+03	8.258165E-15	1.735746E-16
5.210000E+03	8.304261E-15	1.719768E-16
5.220000E+03	8.352203E-15	1.700236E-16
5.230000E+03	8.401500E-15	1.676468E-16
5.240000E+03	8.452009E-15	1.647810E-16
5.250000E+03	8.503200E-15	1.613510E-16
5.260000E+03	8.555010E-15	1.572896E-16
5.270000E+03	8.607109E-15	1.525257E-16
5.280000E+03	8.659505E-15	1.469977E-16
5.290000E+03	8.712139E-15	1.406497E-16
5.300000E+03	8.765059E-15	1.334381E-16
5.310000E+03	8.818609E-15	1.253405E-16
5.320000E+03	8.872983E-15	1.163588E-16
5.330000E+03	8.928745E-15	1.065422E-16
5.340000E+03	8.986370E-15	9.601061E-17
5.350000E+03	9.046378E-15	8.501136E-17
5.360000E+03	9.109377E-15	7.402709E-17
5.370000E+03	9.175894E-15	6.397465E-17
5.380000E+03	9.246290E-15	5.649208E-17
5.390000E+03	9.320475E-15	5.391532E-17
5.400000E+03	9.398045E-15	5.763269E-17
5.410000E+03	9.477273E-15	6.612958E-17
5.420000E+03	9.556117E-15	7.716974E-17
5.430000E+03	9.632020E-15	8.918491E-17
5.440000E+03	9.702813E-15	1.012683E-16
5.450000E+03	9.766170E-15	1.129087E-16
5.460000E+03	9.820408E-15	1.238215E-16
5.470000E+03	9.863310E-15	1.338396E-16
5.480000E+03	9.892491E-15	1.428661E-16
5.490000E+03	9.906150E-15	1.508568E-16
5.500000E+03	9.903247E-15	1.578089E-16
5.510000E+03	9.883641E-15	1.637538E-16
5.520000E+03	9.847214E-15	1.687364E-16
5.530000E+03	9.794962E-15	1.728278E-16
5.540000E+03	9.727870E-15	1.761016E-16
5.550000E+03	9.647660E-15	1.786435E-16
5.560000E+03	9.556423E-15	1.805428E-16
5.570000E+03	9.456542E-15	1.818884E-16
5.580000E+03	9.350414E-15	1.827634E-16
5.590000E+03	9.240740E-15	1.832495E-16
5.600000E+03	9.130248E-15	1.834234E-16
5.610000E+03	9.021514E-15	1.833533E-16
5.620000E+03	8.916991E-15	1.831015E-16
5.630000E+03	8.819130E-15	1.827276E-16
5.640000E+03	8.729881E-15	1.822796E-16
5.650000E+03	8.651119E-15	1.818035E-16
5.660000E+03	8.584351E-15	1.813378E-16
5.670000E+03	8.530886E-15	1.809172E-16
5.680000E+03	8.491656E-15	1.805695E-16
5.690000E+03	8.467301E-15	1.803174E-16
5.700000E+03	8.458271E-15	1.801810E-16
5.710000E+03	8.464732E-15	1.801760E-16
5.720000E+03	8.486409E-15	1.803110E-16
5.730000E+03	8.522933E-15	1.805950E-16
5.740000E+03	8.573593E-15	1.810324E-16
5.750000E+03	8.637425E-15	1.816259E-16
5.760000E+03	8.713406E-15	1.823805E-16
5.770000E+03	8.799921E-15	1.832926E-16
5.780000E+03	8.895510E-15	1.843653E-16
5.790000E+03	8.998241E-15	1.855943E-16
5.800000E+03	9.106209E-15	1.869769E-16
5.810000E+03	9.217283E-15	1.885037E-16
5.820000E+03	9.329249E-15	1.901594E-16
5.830000E+03	9.439960E-15	1.919221E-16
5.840000E+03	9.547089E-15	1.937559E-16
5.850000E+03	9.648593E-15	1.956188E-16
5.860000E+03	9.742467E-15	1.974572E-16
5.870000E+03	9.826792E-15	1.992078E-16
5.880000E+03	9.900212E-15	2.008098E-16
5.890000E+03	9.961215E-15	2.021936E-16
5.900000E+03	1.000902E-14	2.033029E-16
5.910000E+03	1.004285E-14	2.040836E-16
5.920000E+03	1.006231E-14	2.044960E-16
5.930000E+03	1.006746E-14	2.045177E-16
5.940000E+03	1.005828E-14	2.041347E-16
5.950000E+03	1.003538E-14	2.033550E-16
5.960000E+03	9.999568E-15	2.021984E-16
5.970000E+03	9.951553E-15	2.006865E-16
5.980000E+03	9.892536E-15	1.988520E-16
5.990000E+03	9.823737E-15	1.967248E-16
6.000000E+03	9.746362E-15	1.943292E-16
6.010000E+03	9.661784E-15	1.916850E-16
6.020000E+03	9.571394E-15	1.888045E-16
6.030000E+03	9.476459E-15	1.856891E-16
6.040000E+03	9.378315E-15	1.823339E-16
6.050000E+03	9.278341E-15	1.787283E-16
6.060000E+03	9.177398E-15	1.748461E-16
6.070000E+03	9.076789E-15	1.706649E-16
6.080000E+03	8.977173E-15	1.661462E-16
6.090000E+03	8.879621E-15	1.612565E-16
6.100000E+03	8.784547E-15	1.559482E-16
6.110000E+03	8.692650E-15	1.501782E-16
6.120000E+03	8.604174E-15	1.438961E-16
6.130000E+03	8.519530E-15	1.370570E-16
6.140000E+03	8.438668E-15	1.296133E-16
6.150000E+03	8.361495E-15	1.215259E-16
6.160000E+03	8.287972E-15	1.127703E-16
6.170000E+03	8.217609E-15	1.033376E-16
6.180000E+03	8.150074E-15	9.325695E-17
6.190000E+03	8.084798E-15	8.261266E-17
6.200000E+03	8.021086E-15	7.159038E-17
6.210000E+03	7.958139E-15	6.056744E-17
6.220000E+03	7.895282E-15	5.030479E-17
6.230000E+03	7.831603E-15	4.229017E-17
6.240000E+03	7.766295E-15	3.890433E-17
6.250000E+03	7.698961E-15	4.167681E-17
6.260000E+03	7.630707E-15	4.882277E-17
6.270000E+03	7.562572E-15	5.788157E-17
6.280000E+03	7.495725E-15	6.738143E-17
6.290000E+03	7.431323E-15	7.661041E-17
6.300000E+03	7.370295E-15	8.524461E-17
6.310000E+03	7.313317E-15	9.314900E-17
6.320000E+03	7.260919E-15	1.002849E-16
6.330000E+03	7.213683E-15	1.066679E-16
6.340000E+03	7.171770E-15	1.123375E-16
6.350000E+03	7.135432E-15	1.173514E-16
6.360000E+03	7.104731E-15	1.217738E-16
6.370000E+03	7.079664E-15	1.256723E-16
6.380000E+03	7.060173E-15	1.291154E-16
6.390000E+03	7.046159E-15	1.321707E-16
6.400000E+03	7.037497E-15	1.349041E-16
6.410000E+03	7.033936E-15	1.373768E-16
6.420000E+03	7.035408E-15	1.396501E-16
6.430000E+03	7.041728E-15	1.417793E-16
6.440000E+03	7.052798E-15	1.438166E-16
6.450000E+03	7.068510E-15	1.458078E-16
6.460000E+03	7.088528E-15	1.477876E-16
6.470000E+03	7.112813E-15	1.497896E-16
6.480000E+03	7.141099E-15	1.518346E-16
6.490000E+03	7.173202E-15	1.539381E-16
6.500000E+03	7.208691E-15	1.561032E-16
6.510000E+03	7.247425E-15	1.583333E-16
6.520000E+03	7.288896E-15	1.606194E-16
6.530000E+03	7.332766E-15	1.629528E-16
6.540000E+03	7.378420E-15	1.653174E-16
6.550000E+03	7.425421E-15	1.677004E-16
6.560000E+03	7.473286E-15	1.700894E-16
6.570000E+03	7.521140E-15	1.724651E-16
6.580000E+03	7.568426E-15	1.748180E-16
6.590000E+03	7.614579E-15	1.771418E-16
6.600000E+03	7.658664E-15	1.794241E-16
6.610000E+03	7.700255E-15	1.816664E-16
6.620000E+03	7.738460E-15	1.838605E-16
6.630000E+03	7.772944E-15	1.860107E-16
6.640000E+03	7.802928E-15	1.881094E-16
6.650000E+03	7.828096E-15	1.901572E-16
6.660000E+03	7.848104E-15	1.921508E-16
6.670000E+03	7.862573E-15	1.940817E-16
6.680000E+03	7.871501E-15	1.959468E-16
6.690000E+03	7.874733E-15	1.977348E-16
6.700000E+03	7.872358E-15	1.994367E-16
6.710000E+03	7.864709E-15	2.010467E-16
6.720000E+03	7.851947E-15	2.025518E-16
6.730000E+03	7.834311E-15	2.039399E-16
6.740000E+03	7.812523E-15	2.052109E-16
6.750000E+03	7.786807E-15	2.063528E-16
6.760000E+03	7.757835E-15	2.073672E-16
6.770000E+03	7.726161E-15	2.082553E-16
6.780000E+03	7.692210E-15	2.090182E-16
6.790000E+03	7.656536E-15	2.096636E-16
6.800000E+03	7.619678E-15	2.102018E-16
6.810000E+03	7.582286E-15	2.106490E-16
6.820000E+03	7.544700E-15	2.110147E-16
6.830000E+03	7.507224E-15	2.113088E-16
6.840000E+03	7.470391E-15	2.115488E-16
6.850000E+03	7.434554E-15	2.117476E-16
6.860000E+03	7.400020E-15	2.119169E-16
6.870000E+03	7.366915E-15	2.120638E-16
6.880000E+03	7.335457E-15	2.121979E-16
6.890000E+03	7.305961E-15	2.123317E-16
6.900000E+03	7.278424E-15	2.124690E-16
6.910000E+03	7.252937E-15	2.126164E-16
6.920000E+03	7.229554E-15	2.127798E-16
6.930000E+03	7.208285E-15	2.129643E-16
6.940000E+03	7.189105E-15	2.131736E-16
6.950000E+03	7.171949E-15	2.134109E-16
6.960000E+03	7.156581E-15	2.136740E-16
6.970000E+03	7.142872E-15	2.139633E-16
6.980000E+03	7.130803E-15	2.142825E-16
6.990000E+03	7.120199E-15	2.146301E-16
7.000000E+03	7.110588E-15	2.149948E-16
7.010000E+03	7.102038E-15	2.153815E-16
7.020000E+03	7.094196E-15	2.157814E-16
7.030000E+03	7.086841E-15	2.161896E-16
7.040000E+03	7.079607E-15	2.165961E-16
7.050000E+03	7.072412E-15	2.169994E-16
7.060000E+03	7.065033E-15	2.173934E-16
7.070000E+03	7.057250E-15	2.177721E-16
7.080000E+03	7.048710E-15	2.181249E-16
7.090000E+03	7.039201E-15	2.184456E-16
7.100000E+03	7.028659E-15	2.187321E-16
7.110000E+03	7.016742E-15	2.189735E-16
7.120000E+03	7.003115E-15	2.191584E-16
7.130000E+03	6.987871E-15	2.192885E-16
7.140000E+03	6.970685E-15	2.193518E-16
7.150000E+03	6.951383E-15	2.193403E-16
7.160000E+03	6.929657E-15	2.192413E-16
7.170000E+03	6.905492E-15	2.190510E-16
7.180000E+03	6.878749E-15	2.187609E-16
7.190000E+03	6.849160E-15	2.183581E-16
7.200000E+03	6.816623E-15	2.178348E-16
7.210000E+03	6.781195E-15	2.171878E-16
7.220000E+03	6.742679E-15	2.164057E-16
7.230000E+03	6.701044E-15	2.154822E-16
7.240000E+03	6.656289E-15	2.144115E-16
7.250000E+03	6.608441E-15	2.131888E-16
7.260000E+03	6.557421E-15	2.118055E-16
7.270000E+03	6.503594E-15	2.102669E-16
7.280000E+03	6.446944E-15	2.085655E-16
7.290000E+03	6.387353E-15	2.066904E-16
7.300000E+03	6.325413E-15	2.046526E-16
7.310000E+03	6.260935E-15	2.024376E-16
7.320000E+03	6.194432E-15	2.000528E-16
7.330000E+03	6.126039E-15	1.974925E-16
7.340000E+03	6.056049E-15	1.947554E-16
7.350000E+03	5.984647E-15	1.918357E-16
7.360000E+03	5.912165E-15	1.887317E-16
7.370000E+03	5.838950E-15	1.854409E-16
7.380000E+03	5.765356E-15	1.819602E-16
7.390000E+03	5.691498E-15	1.782781E-16
7.400000E+03	5.617865E-15	1.743938E-16
7.410000E+03	5.544580E-15	1.702946E-16
7.420000E+03	5.471886E-15	1.659706E-16
7.430000E+03	5.400019E-15	1.614118E-16
7.440000E+03	5.329438E-15	1.566146E-16
7.450000E+03	5.260462E-15	1.515709E-16
7.460000E+03	5.193610E-15	1.462785E-16
7.470000E+03	5.129370E-15	1.407338E-16
7.480000E+03	5.067853E-15	1.349225E-16
7.490000E+03	5.009367E-15	1.288360E-16
7.500000E+03	4.954297E-15	1.224673E-16
7.510000E+03	4.902550E-15	1.157976E-16
7.520000E+03	4.854444E-15	1.088190E-16
7.530000E+03	4.810042E-15	1.015184E-16
7.540000E+03	4.769378E-15	9.388482E-17
7.550000E+03	4.732455E-15	8.591080E-17
7.560000E+03	4.699248E-15	7.759600E-17
7.570000E+03	4.669815E-15	6.895442E-17
7.580000E+03	4.643980E-15	6.002017E-17
7.590000E+03	4.621777E-15	5.087704E-17
7.600000E+03	4.603034E-15	4.170616E-17
7.610000E+03	4.587829E-15	3.293007E-17
7.620000E+03	4.576195E-15	2.558042E-17
7.630000E+03	4.568159E-15	2.193500E-17
7.640000E+03	4.563935E-15	2.428932E-17
7.650000E+03	4.563068E-15	3.124038E-17
7.660000E+03	4.564864E-15	4.027199E-17
7.670000E+03	4.568948E-15	5.009762E-17
7.680000E+03	4.574817E-15	6.018099E-17
7.690000E+03	4.582348E-15	7.028734E-17
7.700000E+03	4.591017E-15	8.029581E-17
7.710000E+03	4.600644E-15	9.014297E-17
7.720000E+03	4.610842E-15	9.978719E-17
7.730000E+03	4.621448E-15	1.092045E-16
7.740000E+03	4.632195E-15	1.183763E-16
7.750000E+03	4.642821E-15	1.272885E-16
7.760000E+03	4.652959E-15	1.359261E-16
