#wls	flux	fluxerr
1.600000E+03	6.737462E-17	5.271624E-17
1.640000E+03	6.747659E-17	5.221177E-17
1.680000E+03	6.761606E-17	5.171878E-17
1.720000E+03	6.781360E-17	5.125154E-17
1.760000E+03	6.804836E-17	5.079258E-17
1.800000E+03	6.835097E-17	5.036308E-17
1.840000E+03	6.871086E-17	4.995304E-17
1.880000E+03	6.914802E-17	4.957469E-17
1.920000E+03	6.967207E-17	4.923207E-17
1.960000E+03	7.029250E-17	4.892859E-17
2.000000E+03	7.101870E-17	4.866713E-17
2.040000E+03	7.186992E-17	4.845663E-17
2.080000E+03	7.286520E-17	4.830492E-17
2.120000E+03	7.401353E-17	4.821223E-17
2.160000E+03	7.533370E-17	4.818449E-17
2.200000E+03	7.684438E-17	4.822645E-17
2.240000E+03	7.855440E-17	4.833565E-17
2.280000E+03	8.047259E-17	4.850904E-17
2.320000E+03	8.260785E-17	4.874289E-17
2.360000E+03	8.496914E-17	4.903283E-17
2.400000E+03	8.756549E-17	4.937386E-17
2.440000E+03	9.040599E-17	4.976035E-17
2.480000E+03	9.348058E-17	5.017569E-17
2.520000E+03	9.679865E-17	5.061385E-17
2.560000E+03	1.003697E-16	5.106824E-17
2.600000E+03	1.042035E-16	5.153175E-17
2.640000E+03	1.082908E-16	5.198759E-17
2.680000E+03	1.126515E-16	5.243307E-17
2.720000E+03	1.172867E-16	5.285603E-17
2.760000E+03	1.222174E-16	5.325299E-17
2.800000E+03	1.274366E-16	5.360781E-17
2.840000E+03	1.329675E-16	5.391719E-17
2.880000E+03	1.387965E-16	5.416271E-17
2.920000E+03	1.449313E-16	5.433534E-17
2.960000E+03	1.514206E-16	5.444107E-17
3.000000E+03	1.582884E-16	5.447529E-17
3.010000E+03	1.600803E-16	5.447654E-17
3.020000E+03	1.618962E-16	5.447232E-17
3.030000E+03	1.637460E-16	5.446574E-17
3.040000E+03	1.656301E-16	5.445665E-17
3.050000E+03	1.675490E-16	5.444491E-17
3.060000E+03	1.694936E-16	5.442730E-17
3.070000E+03	1.714835E-16	5.440987E-17
3.080000E+03	1.735193E-16	5.439240E-17
3.090000E+03	1.755824E-16	5.436875E-17
3.100000E+03	1.776926E-16	5.434479E-17
3.110000E+03	1.798505E-16	5.432033E-17
3.120000E+03	1.820570E-16	5.429519E-17
3.130000E+03	1.843126E-16	5.426921E-17
3.140000E+03	1.866184E-16	5.424224E-17
3.150000E+03	1.889752E-16	5.421415E-17
3.160000E+03	1.913934E-16	5.418753E-17
3.170000E+03	1.938742E-16	5.416217E-17
3.180000E+03	1.964090E-16	5.413524E-17
3.190000E+03	1.990181E-16	5.411187E-17
3.200000E+03	2.016933E-16	5.408924E-17
3.210000E+03	2.044358E-16	5.406718E-17
3.220000E+03	2.072566E-16	5.404810E-17
3.230000E+03	2.101669E-16	5.403426E-17
3.240000E+03	2.131490E-16	5.402047E-17
3.250000E+03	2.162240E-16	5.401149E-17
3.260000E+03	2.193839E-16	5.400468E-17
3.270000E+03	2.226500E-16	5.400461E-17
3.280000E+03	2.260148E-16	5.400867E-17
3.290000E+03	2.294805E-16	5.401664E-17
3.300000E+03	2.330589E-16	5.403064E-17
3.310000E+03	2.367527E-16	5.405040E-17
3.320000E+03	2.405742E-16	5.407792E-17
3.330000E+03	2.445165E-16	5.411073E-17
3.340000E+03	2.486020E-16	5.415295E-17
3.350000E+03	2.528241E-16	5.420212E-17
3.360000E+03	2.571960E-16	5.426011E-17
3.370000E+03	2.617113E-16	5.432457E-17
3.380000E+03	2.664033E-16	5.440143E-17
3.390000E+03	2.712563E-16	5.448627E-17
3.400000E+03	2.762842E-16	5.458084E-17
3.410000E+03	2.815014E-16	5.468683E-17
3.420000E+03	2.869125E-16	5.480388E-17
3.430000E+03	2.925223E-16	5.493170E-17
3.440000E+03	2.983462E-16	5.507187E-17
3.450000E+03	3.043893E-16	5.522403E-17
3.460000E+03	3.106675E-16	5.538968E-17
3.470000E+03	3.171662E-16	5.556485E-17
3.480000E+03	3.239223E-16	5.575463E-17
3.490000E+03	3.309317E-16	5.595686E-17
3.500000E+03	3.382012E-16	5.617121E-17
3.510000E+03	3.457479E-16	5.639906E-17
3.520000E+03	3.535685E-16	5.663835E-17
3.530000E+03	3.616808E-16	5.689043E-17
3.540000E+03	3.700815E-16	5.715331E-17
3.550000E+03	3.787783E-16	5.742667E-17
3.560000E+03	3.877572E-16	5.770702E-17
3.570000E+03	3.970365E-16	5.799576E-17
3.580000E+03	4.066130E-16	5.829105E-17
3.590000E+03	4.164722E-16	5.858961E-17
3.600000E+03	4.266212E-16	5.889130E-17
3.610000E+03	4.370560E-16	5.919448E-17
3.620000E+03	4.477833E-16	5.949902E-17
3.630000E+03	4.587870E-16	5.980181E-17
3.640000E+03	4.700732E-16	6.010275E-17
3.650000E+03	4.816360E-16	6.040027E-17
3.660000E+03	4.934804E-16	6.069422E-17
3.670000E+03	5.055879E-16	6.098161E-17
3.680000E+03	5.179855E-16	6.126504E-17
3.690000E+03	5.306414E-16	6.154013E-17
3.700000E+03	5.435581E-16	6.180665E-17
3.710000E+03	5.567488E-16	6.206564E-17
3.720000E+03	5.701907E-16	6.231409E-17
3.730000E+03	5.838835E-16	6.255166E-17
3.740000E+03	5.978381E-16	6.277922E-17
3.750000E+03	6.120280E-16	6.299374E-17
3.760000E+03	6.264497E-16	6.319475E-17
3.770000E+03	6.410986E-16	6.338176E-17
3.780000E+03	6.559688E-16	6.355423E-17
3.790000E+03	6.710406E-16	6.371041E-17
3.800000E+03	6.863053E-16	6.384976E-17
3.810000E+03	7.017399E-16	6.397059E-17
3.820000E+03	7.173458E-16	6.407357E-17
3.830000E+03	7.330969E-16	6.415708E-17
3.840000E+03	7.489787E-16	6.422072E-17
3.850000E+03	7.649482E-16	6.426190E-17
3.860000E+03	7.810142E-16	6.428268E-17
3.870000E+03	7.971440E-16	6.428183E-17
3.880000E+03	8.133168E-16	6.425938E-17
3.890000E+03	8.294828E-16	6.421337E-17
3.900000E+03	8.456458E-16	6.414633E-17
3.910000E+03	8.617530E-16	6.405672E-17
3.920000E+03	8.777923E-16	6.394638E-17
3.930000E+03	8.937226E-16	6.381527E-17
3.940000E+03	9.095020E-16	6.366363E-17
3.950000E+03	9.251309E-16	6.349488E-17
3.960000E+03	9.405385E-16	6.330765E-17
3.970000E+03	9.557258E-16	6.310568E-17
3.980000E+03	9.706520E-16	6.288988E-17
3.990000E+03	9.852771E-16	6.266128E-17
4.000000E+03	9.995927E-16	6.242281E-17
4.010000E+03	1.013549E-15	6.217459E-17
4.020000E+03	1.027157E-15	6.192032E-17
4.030000E+03	1.040373E-15	6.165997E-17
4.040000E+03	1.053188E-15	6.139512E-17
4.050000E+03	1.065610E-15	6.112799E-17
4.060000E+03	1.077609E-15	6.085797E-17
4.070000E+03	1.089203E-15	6.058673E-17
4.080000E+03	1.100384E-15	6.031402E-17
4.090000E+03	1.111167E-15	6.004011E-17
4.100000E+03	1.121568E-15	5.976505E-17
4.110000E+03	1.131608E-15	5.948865E-17
4.120000E+03	1.141281E-15	5.920901E-17
4.130000E+03	1.150645E-15	5.892728E-17
4.140000E+03	1.159698E-15	5.864144E-17
4.150000E+03	1.168486E-15	5.835187E-17
4.160000E+03	1.177013E-15	5.805679E-17
4.170000E+03	1.185326E-15	5.775687E-17
4.180000E+03	1.193458E-15	5.745228E-17
4.190000E+03	1.201429E-15	5.714277E-17
4.200000E+03	1.209256E-15	5.682846E-17
4.210000E+03	1.217004E-15	5.651197E-17
4.220000E+03	1.224660E-15	5.619280E-17
4.230000E+03	1.232287E-15	5.587434E-17
4.240000E+03	1.239886E-15	5.555760E-17
4.250000E+03	1.247504E-15	5.524604E-17
4.260000E+03	1.255156E-15	5.494211E-17
4.270000E+03	1.262886E-15	5.464987E-17
4.280000E+03	1.270707E-15	5.437231E-17
4.290000E+03	1.278630E-15	5.411259E-17
4.300000E+03	1.286726E-15	5.387649E-17
4.310000E+03	1.294972E-15	5.366589E-17
4.320000E+03	1.303421E-15	5.348565E-17
4.330000E+03	1.312089E-15	5.333908E-17
4.340000E+03	1.321010E-15	5.322966E-17
4.350000E+03	1.330210E-15	5.316033E-17
4.360000E+03	1.339683E-15	5.313219E-17
4.370000E+03	1.349479E-15	5.314807E-17
4.380000E+03	1.359599E-15	5.320816E-17
4.390000E+03	1.370069E-15	5.331300E-17
4.400000E+03	1.380895E-15	5.346157E-17
4.410000E+03	1.392091E-15	5.365231E-17
4.420000E+03	1.403636E-15	5.388118E-17
4.430000E+03	1.415552E-15	5.414467E-17
4.440000E+03	1.427789E-15	5.443585E-17
4.450000E+03	1.440340E-15	5.474889E-17
4.460000E+03	1.453146E-15	5.507562E-17
4.470000E+03	1.466173E-15	5.540879E-17
4.480000E+03	1.479368E-15	5.574038E-17
4.490000E+03	1.492687E-15	5.606303E-17
4.500000E+03	1.506035E-15	5.636772E-17
4.510000E+03	1.519377E-15	5.664819E-17
4.520000E+03	1.532628E-15	5.689683E-17
4.530000E+03	1.545699E-15	5.710662E-17
4.540000E+03	1.558534E-15	5.727252E-17
4.550000E+03	1.571042E-15	5.738909E-17
4.560000E+03	1.583134E-15	5.745193E-17
4.570000E+03	1.594758E-15	5.745896E-17
4.580000E+03	1.605797E-15	5.740689E-17
4.590000E+03	1.616223E-15	5.729685E-17
4.600000E+03	1.625931E-15	5.712836E-17
4.610000E+03	1.634874E-15	5.690423E-17
4.620000E+03	1.642995E-15	5.662822E-17
4.630000E+03	1.650267E-15	5.630614E-17
4.640000E+03	1.656618E-15	5.594349E-17
4.650000E+03	1.662039E-15	5.554883E-17
4.660000E+03	1.666515E-15	5.513126E-17
4.670000E+03	1.670023E-15	5.470014E-17
4.680000E+03	1.672571E-15	5.426595E-17
4.690000E+03	1.674175E-15	5.383928E-17
4.700000E+03	1.674862E-15	5.343045E-17
4.710000E+03	1.674671E-15	5.304901E-17
4.720000E+03	1.673648E-15	5.270343E-17
4.730000E+03	1.671866E-15	5.240128E-17
4.740000E+03	1.669404E-15	5.214851E-17
4.750000E+03	1.666379E-15	5.195037E-17
4.760000E+03	1.662894E-15	5.180982E-17
4.770000E+03	1.659054E-15	5.172813E-17
4.780000E+03	1.654996E-15	5.170602E-17
4.790000E+03	1.650820E-15	5.174165E-17
4.800000E+03	1.646641E-15	5.183220E-17
4.810000E+03	1.642536E-15	5.197236E-17
4.820000E+03	1.638611E-15	5.215669E-17
4.830000E+03	1.634948E-15	5.237860E-17
4.840000E+03	1.631608E-15	5.263073E-17
4.850000E+03	1.628659E-15	5.290638E-17
4.860000E+03	1.626147E-15	5.319864E-17
4.870000E+03	1.624125E-15	5.350162E-17
4.880000E+03	1.622606E-15	5.380899E-17
4.890000E+03	1.621644E-15	5.411672E-17
4.900000E+03	1.621236E-15	5.441992E-17
4.910000E+03	1.621388E-15	5.471496E-17
4.920000E+03	1.622115E-15	5.499953E-17
4.930000E+03	1.623378E-15	5.527038E-17
4.940000E+03	1.625214E-15	5.552773E-17
4.950000E+03	1.627560E-15	5.576905E-17
4.960000E+03	1.630445E-15	5.599578E-17
4.970000E+03	1.633803E-15	5.620645E-17
4.980000E+03	1.637648E-15	5.640283E-17
4.990000E+03	1.641962E-15	5.658591E-17
5.000000E+03	1.646714E-15	5.675638E-17
5.010000E+03	1.651895E-15	5.691565E-17
5.020000E+03	1.657497E-15	5.706525E-17
5.030000E+03	1.663537E-15	5.720729E-17
5.040000E+03	1.670004E-15	5.734265E-17
5.050000E+03	1.676909E-15	5.747265E-17
5.060000E+03	1.684288E-15	5.759894E-17
5.070000E+03	1.692145E-15	5.772179E-17
5.080000E+03	1.700511E-15	5.784174E-17
5.090000E+03	1.709417E-15	5.795904E-17
5.100000E+03	1.718898E-15	5.807368E-17
5.110000E+03	1.728991E-15	5.818543E-17
5.120000E+03	1.739749E-15	5.829445E-17
5.130000E+03	1.751174E-15	5.839898E-17
5.140000E+03	1.763316E-15	5.849891E-17
5.150000E+03	1.776221E-15	5.859398E-17
5.160000E+03	1.789880E-15	5.868209E-17
5.170000E+03	1.804328E-15	5.876277E-17
5.180000E+03	1.819561E-15	5.883428E-17
5.190000E+03	1.835605E-15	5.889600E-17
5.200000E+03	1.852461E-15	5.894671E-17
5.210000E+03	1.870102E-15	5.898462E-17
5.220000E+03	1.888534E-15	5.900928E-17
5.230000E+03	1.907714E-15	5.901925E-17
5.240000E+03	1.927631E-15	5.901457E-17
5.250000E+03	1.948207E-15	5.899390E-17
5.260000E+03	1.969409E-15	5.895815E-17
5.270000E+03	1.991199E-15	5.890877E-17
5.280000E+03	2.013466E-15	5.884613E-17
5.290000E+03	2.036152E-15	5.877311E-17
5.300000E+03	2.059147E-15	5.869230E-17
5.310000E+03	2.082351E-15	5.860776E-17
5.320000E+03	2.105678E-15	5.852516E-17
5.330000E+03	2.128992E-15	5.844992E-17
5.340000E+03	2.152170E-15	5.838897E-17
5.350000E+03	2.175061E-15	5.834934E-17
5.360000E+03	2.197552E-15	5.833965E-17
5.370000E+03	2.219480E-15	5.836738E-17
5.380000E+03	2.240723E-15	5.844060E-17
5.390000E+03	2.261089E-15	5.856420E-17
5.400000E+03	2.280449E-15	5.874217E-17
5.410000E+03	2.298648E-15	5.897455E-17
5.420000E+03	2.315532E-15	5.925856E-17
5.430000E+03	2.330928E-15	5.958902E-17
5.440000E+03	2.344692E-15	5.996027E-17
5.450000E+03	2.356715E-15	6.036675E-17
5.460000E+03	2.366832E-15	6.080107E-17
5.470000E+03	2.374965E-15	6.125794E-17
5.480000E+03	2.381035E-15	6.173212E-17
5.490000E+03	2.384966E-15	6.221847E-17
5.500000E+03	2.386737E-15	6.271320E-17
5.510000E+03	2.386389E-15	6.321381E-17
5.520000E+03	2.383956E-15	6.371704E-17
5.530000E+03	2.379590E-15	6.422187E-17
5.540000E+03	2.373397E-15	6.472493E-17
5.550000E+03	2.365601E-15	6.522488E-17
5.560000E+03	2.356450E-15	6.571995E-17
5.570000E+03	2.346231E-15	6.620865E-17
5.580000E+03	2.335266E-15	6.668994E-17
5.590000E+03	2.323924E-15	6.716403E-17
5.600000E+03	2.312543E-15	6.763052E-17
5.610000E+03	2.301488E-15	6.809044E-17
5.620000E+03	2.291165E-15	6.854693E-17
5.630000E+03	2.281877E-15	6.900107E-17
5.640000E+03	2.273998E-15	6.945733E-17
5.650000E+03	2.267786E-15	6.991782E-17
5.660000E+03	2.263564E-15	7.038783E-17
5.670000E+03	2.261577E-15	7.087144E-17
5.680000E+03	2.262016E-15	7.137204E-17
5.690000E+03	2.265084E-15	7.189437E-17
5.700000E+03	2.270900E-15	7.244138E-17
5.710000E+03	2.279620E-15	7.301780E-17
5.720000E+03	2.291267E-15	7.362471E-17
5.730000E+03	2.305916E-15	7.426533E-17
5.740000E+03	2.323555E-15	7.494036E-17
5.750000E+03	2.344076E-15	7.564776E-17
5.760000E+03	2.367420E-15	7.638722E-17
5.770000E+03	2.393430E-15	7.715545E-17
5.780000E+03	2.421895E-15	7.794768E-17
5.790000E+03	2.452554E-15	7.875760E-17
5.800000E+03	2.485067E-15	7.957653E-17
5.810000E+03	2.519121E-15	8.039677E-17
5.820000E+03	2.554253E-15	8.120585E-17
5.830000E+03	2.590066E-15	8.199326E-17
5.840000E+03	2.626049E-15	8.274476E-17
5.850000E+03	2.661723E-15	8.344674E-17
5.860000E+03	2.696539E-15	8.408311E-17
5.870000E+03	2.730003E-15	8.463912E-17
5.880000E+03	2.761577E-15	8.509832E-17
5.890000E+03	2.790800E-15	8.544674E-17
5.900000E+03	2.817217E-15	8.567081E-17
5.910000E+03	2.840387E-15	8.575816E-17
5.920000E+03	2.859980E-15	8.570098E-17
5.930000E+03	2.875726E-15	8.549483E-17
5.940000E+03	2.887329E-15	8.513628E-17
5.950000E+03	2.894655E-15	8.462848E-17
5.960000E+03	2.897645E-15	8.397830E-17
5.970000E+03	2.896225E-15	8.319305E-17
5.980000E+03	2.890525E-15	8.228615E-17
5.990000E+03	2.880625E-15	8.126902E-17
6.000000E+03	2.866803E-15	8.015732E-17
6.010000E+03	2.849310E-15	7.896390E-17
6.020000E+03	2.828452E-15	7.770080E-17
6.030000E+03	2.804638E-15	7.638053E-17
6.040000E+03	2.778309E-15	7.501404E-17
6.050000E+03	2.749798E-15	7.360751E-17
6.060000E+03	2.719594E-15	7.216994E-17
6.070000E+03	2.688085E-15	7.070690E-17
6.080000E+03	2.655669E-15	6.922415E-17
6.090000E+03	2.622691E-15	6.772652E-17
6.100000E+03	2.589522E-15	6.622060E-17
6.110000E+03	2.556408E-15	6.471146E-17
6.120000E+03	2.523622E-15	6.320666E-17
6.130000E+03	2.491427E-15	6.171575E-17
6.140000E+03	2.459939E-15	6.024688E-17
6.150000E+03	2.429409E-15	5.881376E-17
6.160000E+03	2.399917E-15	5.742797E-17
6.170000E+03	2.371569E-15	5.610356E-17
6.180000E+03	2.344498E-15	5.485661E-17
6.190000E+03	2.318755E-15	5.370232E-17
6.200000E+03	2.294370E-15	5.265592E-17
6.210000E+03	2.271351E-15	5.173222E-17
6.220000E+03	2.249719E-15	5.094554E-17
6.230000E+03	2.229479E-15	5.030825E-17
6.240000E+03	2.210579E-15	4.982833E-17
6.250000E+03	2.193070E-15	4.951093E-17
6.260000E+03	2.176854E-15	4.935160E-17
6.270000E+03	2.161991E-15	4.934444E-17
6.280000E+03	2.148466E-15	4.947887E-17
6.290000E+03	2.136241E-15	4.974205E-17
6.300000E+03	2.125328E-15	5.012147E-17
6.310000E+03	2.115693E-15	5.060311E-17
6.320000E+03	2.107374E-15	5.117489E-17
6.330000E+03	2.100311E-15	5.182278E-17
6.340000E+03	2.094518E-15	5.253530E-17
6.350000E+03	2.089981E-15	5.330133E-17
6.360000E+03	2.086683E-15	5.411084E-17
6.370000E+03	2.084579E-15	5.495440E-17
6.380000E+03	2.083644E-15	5.582444E-17
6.390000E+03	2.083848E-15	5.671463E-17
6.400000E+03	2.085131E-15	5.761910E-17
6.410000E+03	2.087480E-15	5.853434E-17
6.420000E+03	2.090774E-15	5.945484E-17
6.430000E+03	2.095016E-15	6.037928E-17
6.440000E+03	2.100079E-15	6.130313E-17
6.450000E+03	2.105934E-15	6.222501E-17
6.460000E+03	2.112475E-15	6.314130E-17
6.470000E+03	2.119672E-15	6.405057E-17
6.480000E+03	2.127443E-15	6.494961E-17
6.490000E+03	2.135732E-15	6.583568E-17
6.500000E+03	2.144483E-15	6.670577E-17
6.510000E+03	2.153664E-15	6.755749E-17
6.520000E+03	2.163186E-15	6.838665E-17
6.530000E+03	2.173067E-15	6.919259E-17
6.540000E+03	2.183180E-15	6.997060E-17
6.550000E+03	2.193503E-15	7.071994E-17
6.560000E+03	2.203948E-15	7.143883E-17
6.570000E+03	2.214422E-15	7.212632E-17
6.580000E+03	2.224849E-15	7.278335E-17
6.590000E+03	2.235119E-15	7.341094E-17
6.600000E+03	2.245118E-15	7.401100E-17
6.610000E+03	2.254754E-15	7.458714E-17
6.620000E+03	2.263911E-15	7.514246E-17
6.630000E+03	2.272471E-15	7.568016E-17
6.640000E+03	2.280357E-15	7.620421E-17
6.650000E+03	2.287437E-15	7.671602E-17
6.660000E+03	2.293658E-15	7.721829E-17
6.670000E+03	2.298950E-15	7.771174E-17
6.680000E+03	2.303294E-15	7.819727E-17
6.690000E+03	2.306597E-15	7.867168E-17
6.700000E+03	2.308917E-15	7.913534E-17
6.710000E+03	2.310268E-15	7.958601E-17
6.720000E+03	2.310657E-15	8.002012E-17
6.730000E+03	2.310175E-15	8.043637E-17
6.740000E+03	2.308901E-15	8.083275E-17
6.750000E+03	2.306933E-15	8.120785E-17
6.760000E+03	2.304353E-15	8.155998E-17
6.770000E+03	2.301353E-15	8.189183E-17
6.780000E+03	2.298004E-15	8.220251E-17
6.790000E+03	2.294517E-15	8.249674E-17
6.800000E+03	2.290974E-15	8.277539E-17
6.810000E+03	2.287592E-15	8.304468E-17
6.820000E+03	2.284487E-15	8.330773E-17
6.830000E+03	2.281802E-15	8.356903E-17
6.840000E+03	2.279675E-15	8.383309E-17
6.850000E+03	2.278267E-15	8.410548E-17
6.860000E+03	2.277627E-15	8.438777E-17
6.870000E+03	2.277925E-15	8.468613E-17
6.880000E+03	2.279214E-15	8.500258E-17
6.890000E+03	2.281564E-15	8.533992E-17
6.900000E+03	2.285029E-15	8.570050E-17
6.910000E+03	2.289675E-15	8.608754E-17
6.920000E+03	2.295446E-15	8.649988E-17
6.930000E+03	2.302404E-15	8.694109E-17
6.940000E+03	2.310487E-15	8.741036E-17
6.950000E+03	2.319610E-15	8.790627E-17
6.960000E+03	2.329775E-15	8.843093E-17
6.970000E+03	2.340859E-15	8.898182E-17
6.980000E+03	2.352759E-15	8.955716E-17
6.990000E+03	2.365355E-15	9.015457E-17
7.000000E+03	2.378477E-15	9.076962E-17
7.010000E+03	2.392058E-15	9.140153E-17
7.020000E+03	2.405910E-15	9.204467E-17
7.030000E+03	2.419839E-15	9.269284E-17
7.040000E+03	2.433721E-15	9.334227E-17
7.050000E+03	2.447395E-15	9.398735E-17
7.060000E+03	2.460699E-15	9.462225E-17
7.070000E+03	2.473436E-15	9.523944E-17
7.080000E+03	2.485488E-15	9.583445E-17
7.090000E+03	2.496707E-15	9.640143E-17
7.100000E+03	2.506948E-15	9.693479E-17
7.110000E+03	2.516037E-15	9.742769E-17
7.120000E+03	2.523887E-15	9.787688E-17
7.130000E+03	2.530340E-15	9.827634E-17
7.140000E+03	2.535330E-15	9.862375E-17
7.150000E+03	2.538761E-15	9.891561E-17
7.160000E+03	2.540548E-15	9.914882E-17
7.170000E+03	2.540572E-15	9.931895E-17
7.180000E+03	2.538767E-15	9.942354E-17
7.190000E+03	2.535167E-15	9.946371E-17
7.200000E+03	2.529641E-15	9.943410E-17
7.210000E+03	2.522161E-15	9.933284E-17
7.220000E+03	2.512792E-15	9.916151E-17
7.230000E+03	2.501445E-15	9.891499E-17
7.240000E+03	2.488213E-15	9.859496E-17
7.250000E+03	2.473033E-15	9.819628E-17
7.260000E+03	2.455986E-15	9.771887E-17
7.270000E+03	2.437122E-15	9.716091E-17
7.280000E+03	2.416553E-15	9.652222E-17
7.290000E+03	2.394317E-15	9.579920E-17
7.300000E+03	2.370510E-15	9.498990E-17
7.310000E+03	2.345241E-15	9.409237E-17
7.320000E+03	2.318672E-15	9.310631E-17
7.330000E+03	2.290934E-15	9.202973E-17
7.340000E+03	2.262125E-15	9.085908E-17
7.350000E+03	2.232432E-15	8.959410E-17
7.360000E+03	2.202003E-15	8.823298E-17
7.370000E+03	2.170991E-15	8.677397E-17
7.380000E+03	2.139547E-15	8.521548E-17
7.390000E+03	2.107856E-15	8.355765E-17
7.400000E+03	2.076026E-15	8.179775E-17
7.410000E+03	2.044196E-15	7.993505E-17
7.420000E+03	2.012570E-15	7.797213E-17
7.430000E+03	1.981198E-15	7.590640E-17
7.440000E+03	1.950269E-15	7.374178E-17
7.450000E+03	1.919849E-15	7.147893E-17
7.460000E+03	1.890003E-15	6.911982E-17
7.470000E+03	1.860818E-15	6.666921E-17
7.480000E+03	1.832411E-15	6.413464E-17
7.490000E+03	1.804783E-15	6.152184E-17
7.500000E+03	1.778001E-15	5.884122E-17
7.510000E+03	1.752153E-15	5.610675E-17
7.520000E+03	1.727224E-15	5.333223E-17
7.530000E+03	1.703322E-15	5.053937E-17
7.540000E+03	1.680416E-15	4.775045E-17
7.550000E+03	1.658536E-15	4.499562E-17
7.560000E+03	1.637767E-15	4.231377E-17
7.570000E+03	1.618033E-15	3.974827E-17
7.580000E+03	1.599373E-15	3.735600E-17
7.590000E+03	1.581824E-15	3.520430E-17
7.600000E+03	1.565320E-15	3.336803E-17
7.610000E+03	1.549912E-15	3.192970E-17
7.620000E+03	1.535524E-15	3.096517E-17
7.630000E+03	1.522131E-15	3.053412E-17
7.640000E+03	1.509764E-15	3.066564E-17
7.650000E+03	1.498329E-15	3.134683E-17
7.660000E+03	1.487787E-15	3.253022E-17
7.670000E+03	1.478120E-15	3.414601E-17
7.680000E+03	1.469252E-15	3.611432E-17
7.690000E+03	1.461158E-15	3.835882E-17
7.700000E+03	1.453752E-15	4.081018E-17
7.710000E+03	1.446978E-15	4.341046E-17
7.720000E+03	1.440806E-15	4.611319E-17
7.730000E+03	1.435148E-15	4.887952E-17
7.740000E+03	1.429975E-15	5.168012E-17
7.750000E+03	1.425172E-15	5.448878E-17
7.760000E+03	1.420740E-15	5.728822E-17
