#wls	flux	fluxerr
1.600000E+03	6.225257E-17	4.916087E-17
1.640000E+03	6.236833E-17	4.873348E-17
1.680000E+03	6.250980E-17	4.831064E-17
1.720000E+03	6.269928E-17	4.790845E-17
1.760000E+03	6.292641E-17	4.751758E-17
1.800000E+03	6.321360E-17	4.715344E-17
1.840000E+03	6.353969E-17	4.679847E-17
1.880000E+03	6.393822E-17	4.647563E-17
1.920000E+03	6.441009E-17	4.618310E-17
1.960000E+03	6.495631E-17	4.591903E-17
2.000000E+03	6.560007E-17	4.569689E-17
2.040000E+03	6.634278E-17	4.551416E-17
2.080000E+03	6.720820E-17	4.538321E-17
2.120000E+03	6.819833E-17	4.530082E-17
2.160000E+03	6.933769E-17	4.527824E-17
2.200000E+03	7.065142E-17	4.532588E-17
2.240000E+03	7.212033E-17	4.542484E-17
2.280000E+03	7.377041E-17	4.558489E-17
2.320000E+03	7.558301E-17	4.578736E-17
2.360000E+03	7.757373E-17	4.603461E-17
2.400000E+03	7.972441E-17	4.630850E-17
2.440000E+03	8.203998E-17	4.660475E-17
2.480000E+03	8.452591E-17	4.691907E-17
2.520000E+03	8.718829E-17	4.724708E-17
2.560000E+03	9.003391E-17	4.758439E-17
2.600000E+03	9.305851E-17	4.792049E-17
2.640000E+03	9.627038E-17	4.825137E-17
2.680000E+03	9.967887E-17	4.857304E-17
2.720000E+03	1.033189E-16	4.889313E-17
2.760000E+03	1.071910E-16	4.920151E-17
2.800000E+03	1.113342E-16	4.950520E-17
2.840000E+03	1.157529E-16	4.979420E-17
2.880000E+03	1.204536E-16	5.005920E-17
2.920000E+03	1.254322E-16	5.028641E-17
2.960000E+03	1.306994E-16	5.046822E-17
3.000000E+03	1.362819E-16	5.060256E-17
3.010000E+03	1.377390E-16	5.063167E-17
3.020000E+03	1.392124E-16	5.065551E-17
3.030000E+03	1.407159E-16	5.067886E-17
3.040000E+03	1.422369E-16	5.069690E-17
3.050000E+03	1.437892E-16	5.071434E-17
3.060000E+03	1.453735E-16	5.073111E-17
3.070000E+03	1.469770E-16	5.074245E-17
3.080000E+03	1.486137E-16	5.075299E-17
3.090000E+03	1.502845E-16	5.076264E-17
3.100000E+03	1.519764E-16	5.076675E-17
3.110000E+03	1.537175E-16	5.077437E-17
3.120000E+03	1.554811E-16	5.077632E-17
3.130000E+03	1.572956E-16	5.078150E-17
3.140000E+03	1.591343E-16	5.078088E-17
3.150000E+03	1.610257E-16	5.078321E-17
3.160000E+03	1.629569E-16	5.078393E-17
3.170000E+03	1.649288E-16	5.078293E-17
3.180000E+03	1.669564E-16	5.078438E-17
3.190000E+03	1.690269E-16	5.078380E-17
3.200000E+03	1.711554E-16	5.078527E-17
3.210000E+03	1.733287E-16	5.078438E-17
3.220000E+03	1.755769E-16	5.078930E-17
3.230000E+03	1.778724E-16	5.079143E-17
3.240000E+03	1.802308E-16	5.079471E-17
3.250000E+03	1.826682E-16	5.080293E-17
3.260000E+03	1.851714E-16	5.081170E-17
3.270000E+03	1.877420E-16	5.082073E-17
3.280000E+03	1.904109E-16	5.083765E-17
3.290000E+03	1.931503E-16	5.085411E-17
3.300000E+03	1.959768E-16	5.087368E-17
3.310000E+03	1.988922E-16	5.089594E-17
3.320000E+03	2.019133E-16	5.092427E-17
3.330000E+03	2.050425E-16	5.095813E-17
3.340000E+03	2.082664E-16	5.099317E-17
3.350000E+03	2.116179E-16	5.103636E-17
3.360000E+03	2.150995E-16	5.108700E-17
3.370000E+03	2.186982E-16	5.114070E-17
3.380000E+03	2.224320E-16	5.120043E-17
3.390000E+03	2.263193E-16	5.126902E-17
3.400000E+03	2.303631E-16	5.134557E-17
3.410000E+03	2.345504E-16	5.142564E-17
3.420000E+03	2.389324E-16	5.151884E-17
3.430000E+03	2.434802E-16	5.161709E-17
3.440000E+03	2.482297E-16	5.172620E-17
3.450000E+03	2.531847E-16	5.184494E-17
3.460000E+03	2.583655E-16	5.197535E-17
3.470000E+03	2.637596E-16	5.211271E-17
3.480000E+03	2.694044E-16	5.226221E-17
3.490000E+03	2.753044E-16	5.242222E-17
3.500000E+03	2.814642E-16	5.259110E-17
3.510000E+03	2.879054E-16	5.277031E-17
3.520000E+03	2.946501E-16	5.296111E-17
3.530000E+03	3.017034E-16	5.316149E-17
3.540000E+03	3.090704E-16	5.336939E-17
3.550000E+03	3.167737E-16	5.358572E-17
3.560000E+03	3.248006E-16	5.380524E-17
3.570000E+03	3.331916E-16	5.403160E-17
3.580000E+03	3.419158E-16	5.425658E-17
3.590000E+03	3.509772E-16	5.447790E-17
3.600000E+03	3.603982E-16	5.469606E-17
3.610000E+03	3.701825E-16	5.490862E-17
3.620000E+03	3.802964E-16	5.510770E-17
3.630000E+03	3.907797E-16	5.529641E-17
3.640000E+03	4.015970E-16	5.546704E-17
3.650000E+03	4.127687E-16	5.561999E-17
3.660000E+03	4.242763E-16	5.575043E-17
3.670000E+03	4.361392E-16	5.585877E-17
3.680000E+03	4.483176E-16	5.593796E-17
3.690000E+03	4.608293E-16	5.598861E-17
3.700000E+03	4.736715E-16	5.600891E-17
3.710000E+03	4.868406E-16	5.599721E-17
3.720000E+03	5.002918E-16	5.594753E-17
3.730000E+03	5.140590E-16	5.586328E-17
3.740000E+03	5.280948E-16	5.573916E-17
3.750000E+03	5.423900E-16	5.557470E-17
3.760000E+03	5.569555E-16	5.537185E-17
3.770000E+03	5.717384E-16	5.512667E-17
3.780000E+03	5.867466E-16	5.484190E-17
3.790000E+03	6.019449E-16	5.451670E-17
3.800000E+03	6.173171E-16	5.415269E-17
3.810000E+03	6.328242E-16	5.375012E-17
3.820000E+03	6.484676E-16	5.331334E-17
3.830000E+03	6.641824E-16	5.284172E-17
3.840000E+03	6.799656E-16	5.234031E-17
3.850000E+03	6.957905E-16	5.181264E-17
3.860000E+03	7.115847E-16	5.125940E-17
3.870000E+03	7.273385E-16	5.068642E-17
3.880000E+03	7.429970E-16	5.009669E-17
3.890000E+03	7.585033E-16	4.949353E-17
3.900000E+03	7.738433E-16	4.888340E-17
3.910000E+03	7.889581E-16	4.826996E-17
3.920000E+03	8.038103E-16	4.765837E-17
3.930000E+03	8.183408E-16	4.705243E-17
3.940000E+03	8.325132E-16	4.645718E-17
3.950000E+03	8.462701E-16	4.587617E-17
3.960000E+03	8.596001E-16	4.531503E-17
3.970000E+03	8.724281E-16	4.477542E-17
3.980000E+03	8.847258E-16	4.426093E-17
3.990000E+03	8.964899E-16	4.377555E-17
4.000000E+03	9.076337E-16	4.331837E-17
4.010000E+03	9.181837E-16	4.289314E-17
4.020000E+03	9.281057E-16	4.249972E-17
4.030000E+03	9.373707E-16	4.213734E-17
4.040000E+03	9.459555E-16	4.180466E-17
4.050000E+03	9.539063E-16	4.150252E-17
4.060000E+03	9.611688E-16	4.122655E-17
4.070000E+03	9.677796E-16	4.097568E-17
4.080000E+03	9.737598E-16	4.074758E-17
4.090000E+03	9.790946E-16	4.053796E-17
4.100000E+03	9.838574E-16	4.034594E-17
4.110000E+03	9.880234E-16	4.016641E-17
4.120000E+03	9.916743E-16	3.999858E-17
4.130000E+03	9.948337E-16	3.983937E-17
4.140000E+03	9.975287E-16	3.968605E-17
4.150000E+03	9.998274E-16	3.953779E-17
4.160000E+03	1.001760E-15	3.939257E-17
4.170000E+03	1.003358E-15	3.924881E-17
4.180000E+03	1.004709E-15	3.910757E-17
4.190000E+03	1.005826E-15	3.896727E-17
4.200000E+03	1.006759E-15	3.882818E-17
4.210000E+03	1.007574E-15	3.869157E-17
4.220000E+03	1.008320E-15	3.855821E-17
4.230000E+03	1.009023E-15	3.842837E-17
4.240000E+03	1.009747E-15	3.830385E-17
4.250000E+03	1.010516E-15	3.818515E-17
4.260000E+03	1.011391E-15	3.807419E-17
4.270000E+03	1.012428E-15	3.797285E-17
4.280000E+03	1.013628E-15	3.788101E-17
4.290000E+03	1.015079E-15	3.780169E-17
4.300000E+03	1.016778E-15	3.773460E-17
4.310000E+03	1.018788E-15	3.768180E-17
4.320000E+03	1.021117E-15	3.764329E-17
4.330000E+03	1.023822E-15	3.762078E-17
4.340000E+03	1.026905E-15	3.761390E-17
4.350000E+03	1.030415E-15	3.762391E-17
4.360000E+03	1.034365E-15	3.765062E-17
4.370000E+03	1.038760E-15	3.769358E-17
4.380000E+03	1.043638E-15	3.775327E-17
4.390000E+03	1.048980E-15	3.782811E-17
4.400000E+03	1.054795E-15	3.791744E-17
4.410000E+03	1.061088E-15	3.802029E-17
4.420000E+03	1.067842E-15	3.813482E-17
4.430000E+03	1.075034E-15	3.825893E-17
4.440000E+03	1.082653E-15	3.839088E-17
4.450000E+03	1.090650E-15	3.852766E-17
4.460000E+03	1.099001E-15	3.866730E-17
4.470000E+03	1.107648E-15	3.880669E-17
4.480000E+03	1.116540E-15	3.894334E-17
4.490000E+03	1.125623E-15	3.907481E-17
4.500000E+03	1.134807E-15	3.919771E-17
4.510000E+03	1.144045E-15	3.931051E-17
4.520000E+03	1.153255E-15	3.941080E-17
4.530000E+03	1.162353E-15	3.949645E-17
4.540000E+03	1.171269E-15	3.956620E-17
4.550000E+03	1.179917E-15	3.961859E-17
4.560000E+03	1.188213E-15	3.965255E-17
4.570000E+03	1.196106E-15	3.966848E-17
4.580000E+03	1.203502E-15	3.966559E-17
4.590000E+03	1.210343E-15	3.964454E-17
4.600000E+03	1.216579E-15	3.960640E-17
4.610000E+03	1.222137E-15	3.955157E-17
4.620000E+03	1.227014E-15	3.948283E-17
4.630000E+03	1.231156E-15	3.940117E-17
4.640000E+03	1.234548E-15	3.930879E-17
4.650000E+03	1.237189E-15	3.920801E-17
4.660000E+03	1.239084E-15	3.910120E-17
4.670000E+03	1.240236E-15	3.899016E-17
4.680000E+03	1.240705E-15	3.887809E-17
4.690000E+03	1.240481E-15	3.876556E-17
4.700000E+03	1.239657E-15	3.865581E-17
4.710000E+03	1.238259E-15	3.854942E-17
4.720000E+03	1.236349E-15	3.844765E-17
4.730000E+03	1.234012E-15	3.835188E-17
4.740000E+03	1.231305E-15	3.826228E-17
4.750000E+03	1.228321E-15	3.817967E-17
4.760000E+03	1.225125E-15	3.810367E-17
4.770000E+03	1.221783E-15	3.803369E-17
4.780000E+03	1.218387E-15	3.796987E-17
4.790000E+03	1.214988E-15	3.791085E-17
4.800000E+03	1.211676E-15	3.785647E-17
4.810000E+03	1.208507E-15	3.780561E-17
4.820000E+03	1.205578E-15	3.775840E-17
4.830000E+03	1.202952E-15	3.771411E-17
4.840000E+03	1.200672E-15	3.767164E-17
4.850000E+03	1.198802E-15	3.763086E-17
4.860000E+03	1.197399E-15	3.759178E-17
4.870000E+03	1.196487E-15	3.755363E-17
4.880000E+03	1.196107E-15	3.751667E-17
4.890000E+03	1.196280E-15	3.748080E-17
4.900000E+03	1.197004E-15	3.744564E-17
4.910000E+03	1.198300E-15	3.741173E-17
4.920000E+03	1.200166E-15	3.737933E-17
4.930000E+03	1.202594E-15	3.734883E-17
4.940000E+03	1.205558E-15	3.732036E-17
4.950000E+03	1.209071E-15	3.729550E-17
4.960000E+03	1.213101E-15	3.727478E-17
4.970000E+03	1.217631E-15	3.725933E-17
4.980000E+03	1.222643E-15	3.725049E-17
4.990000E+03	1.228122E-15	3.724979E-17
5.000000E+03	1.234069E-15	3.725927E-17
5.010000E+03	1.240464E-15	3.728027E-17
5.020000E+03	1.247316E-15	3.731498E-17
5.030000E+03	1.254615E-15	3.736474E-17
5.040000E+03	1.262382E-15	3.743161E-17
5.050000E+03	1.270630E-15	3.751714E-17
5.060000E+03	1.279365E-15	3.762224E-17
5.070000E+03	1.288637E-15	3.774880E-17
5.080000E+03	1.298462E-15	3.789726E-17
5.090000E+03	1.308857E-15	3.806774E-17
5.100000E+03	1.319897E-15	3.826172E-17
5.110000E+03	1.331574E-15	3.847796E-17
5.120000E+03	1.343951E-15	3.871698E-17
5.130000E+03	1.357061E-15	3.897827E-17
5.140000E+03	1.370934E-15	3.926107E-17
5.150000E+03	1.385581E-15	3.956404E-17
5.160000E+03	1.401040E-15	3.988647E-17
5.170000E+03	1.417327E-15	4.022708E-17
5.180000E+03	1.434452E-15	4.058446E-17
5.190000E+03	1.452417E-15	4.095706E-17
5.200000E+03	1.471219E-15	4.134323E-17
5.210000E+03	1.490857E-15	4.174163E-17
5.220000E+03	1.511278E-15	4.214951E-17
5.230000E+03	1.532480E-15	4.256576E-17
5.240000E+03	1.554419E-15	4.298831E-17
5.250000E+03	1.577022E-15	4.341456E-17
5.260000E+03	1.600223E-15	4.384225E-17
5.270000E+03	1.623939E-15	4.426908E-17
5.280000E+03	1.648094E-15	4.469315E-17
5.290000E+03	1.672583E-15	4.511210E-17
5.300000E+03	1.697269E-15	4.552308E-17
5.310000E+03	1.722020E-15	4.592375E-17
5.320000E+03	1.746710E-15	4.631226E-17
5.330000E+03	1.771185E-15	4.668641E-17
5.340000E+03	1.795263E-15	4.704359E-17
5.350000E+03	1.818771E-15	4.738177E-17
5.360000E+03	1.841545E-15	4.769948E-17
5.370000E+03	1.863382E-15	4.799435E-17
5.380000E+03	1.884109E-15	4.826496E-17
5.390000E+03	1.903517E-15	4.850884E-17
5.400000E+03	1.921412E-15	4.872368E-17
5.410000E+03	1.937625E-15	4.890733E-17
5.420000E+03	1.951954E-15	4.905653E-17
5.430000E+03	1.964227E-15	4.916873E-17
5.440000E+03	1.974307E-15	4.924239E-17
5.450000E+03	1.982039E-15	4.927564E-17
5.460000E+03	1.987332E-15	4.926851E-17
5.470000E+03	1.990085E-15	4.922102E-17
5.480000E+03	1.990249E-15	4.913471E-17
5.490000E+03	1.987838E-15	4.901269E-17
5.500000E+03	1.982866E-15	4.885802E-17
5.510000E+03	1.975413E-15	4.867509E-17
5.520000E+03	1.965607E-15	4.846893E-17
5.530000E+03	1.953643E-15	4.824550E-17
5.540000E+03	1.939743E-15	4.801046E-17
5.550000E+03	1.924174E-15	4.776951E-17
5.560000E+03	1.907260E-15	4.752865E-17
5.570000E+03	1.889320E-15	4.729260E-17
5.580000E+03	1.870736E-15	4.706669E-17
5.590000E+03	1.851889E-15	4.685535E-17
5.600000E+03	1.833166E-15	4.666260E-17
5.610000E+03	1.814938E-15	4.649164E-17
5.620000E+03	1.797605E-15	4.634635E-17
5.630000E+03	1.781531E-15	4.622990E-17
5.640000E+03	1.767064E-15	4.614535E-17
5.650000E+03	1.754541E-15	4.609617E-17
5.660000E+03	1.744222E-15	4.608441E-17
5.670000E+03	1.736389E-15	4.611345E-17
5.680000E+03	1.731295E-15	4.618660E-17
5.690000E+03	1.729124E-15	4.630607E-17
5.700000E+03	1.730047E-15	4.647433E-17
5.710000E+03	1.734204E-15	4.669359E-17
5.720000E+03	1.741716E-15	4.696613E-17
5.730000E+03	1.752638E-15	4.729285E-17
5.740000E+03	1.767022E-15	4.767502E-17
5.750000E+03	1.784846E-15	4.811224E-17
5.760000E+03	1.806081E-15	4.860426E-17
5.770000E+03	1.830616E-15	4.914894E-17
5.780000E+03	1.858326E-15	4.974399E-17
5.790000E+03	1.888996E-15	5.038500E-17
5.800000E+03	1.922395E-15	5.106725E-17
5.810000E+03	1.958192E-15	5.178363E-17
5.820000E+03	1.996040E-15	5.252670E-17
5.830000E+03	2.035494E-15	5.328667E-17
5.840000E+03	2.076081E-15	5.405305E-17
5.850000E+03	2.117301E-15	5.481490E-17
5.860000E+03	2.158576E-15	5.555949E-17
5.870000E+03	2.199325E-15	5.627425E-17
5.880000E+03	2.238953E-15	5.694669E-17
5.890000E+03	2.276865E-15	5.756491E-17
5.900000E+03	2.312485E-15	5.811810E-17
5.910000E+03	2.345265E-15	5.859705E-17
5.920000E+03	2.374684E-15	5.899400E-17
5.930000E+03	2.400303E-15	5.930417E-17
5.940000E+03	2.421785E-15	5.952588E-17
5.950000E+03	2.438830E-15	5.965885E-17
5.960000E+03	2.451232E-15	5.970510E-17
5.970000E+03	2.458959E-15	5.967041E-17
5.980000E+03	2.461958E-15	5.955909E-17
5.990000E+03	2.460399E-15	5.937934E-17
6.000000E+03	2.454468E-15	5.913792E-17
6.010000E+03	2.444438E-15	5.884151E-17
6.020000E+03	2.430698E-15	5.849745E-17
6.030000E+03	2.413647E-15	5.811117E-17
6.040000E+03	2.393746E-15	5.768790E-17
6.050000E+03	2.371458E-15	5.723153E-17
6.060000E+03	2.347301E-15	5.674652E-17
6.070000E+03	2.321715E-15	5.623523E-17
6.080000E+03	2.295197E-15	5.570158E-17
6.090000E+03	2.268141E-15	5.514784E-17
6.100000E+03	2.241003E-15	5.457876E-17
6.110000E+03	2.214103E-15	5.399718E-17
6.120000E+03	2.187765E-15	5.340742E-17
6.130000E+03	2.162266E-15	5.281421E-17
6.140000E+03	2.137817E-15	5.222205E-17
6.150000E+03	2.114606E-15	5.163622E-17
6.160000E+03	2.092778E-15	5.106213E-17
6.170000E+03	2.072439E-15	5.050514E-17
6.180000E+03	2.053616E-15	4.996950E-17
6.190000E+03	2.036387E-15	4.946120E-17
6.200000E+03	2.020739E-15	4.898431E-17
6.210000E+03	2.006671E-15	4.854343E-17
6.220000E+03	1.994124E-15	4.814157E-17
6.230000E+03	1.983082E-15	4.778254E-17
6.240000E+03	1.973455E-15	4.746788E-17
6.250000E+03	1.965167E-15	4.719863E-17
6.260000E+03	1.958175E-15	4.697568E-17
6.270000E+03	1.952357E-15	4.679708E-17
6.280000E+03	1.947673E-15	4.666216E-17
6.290000E+03	1.944028E-15	4.656830E-17
6.300000E+03	1.941375E-15	4.651358E-17
6.310000E+03	1.939675E-15	4.649587E-17
6.320000E+03	1.938835E-15	4.651160E-17
6.330000E+03	1.938853E-15	4.655922E-17
6.340000E+03	1.939692E-15	4.663645E-17
6.350000E+03	1.941322E-15	4.674132E-17
6.360000E+03	1.943736E-15	4.687277E-17
6.370000E+03	1.946891E-15	4.702916E-17
6.380000E+03	1.950782E-15	4.721026E-17
6.390000E+03	1.955408E-15	4.741626E-17
6.400000E+03	1.960739E-15	4.764714E-17
6.410000E+03	1.966744E-15	4.790304E-17
6.420000E+03	1.973407E-15	4.818470E-17
6.430000E+03	1.980684E-15	4.849221E-17
6.440000E+03	1.988569E-15	4.882648E-17
6.450000E+03	1.996982E-15	4.918636E-17
6.460000E+03	2.005885E-15	4.957119E-17
6.470000E+03	2.015209E-15	4.997897E-17
6.480000E+03	2.024903E-15	5.040740E-17
6.490000E+03	2.034890E-15	5.085264E-17
6.500000E+03	2.045089E-15	5.130994E-17
6.510000E+03	2.055413E-15	5.177361E-17
6.520000E+03	2.065770E-15	5.223726E-17
6.530000E+03	2.076061E-15	5.269394E-17
6.540000E+03	2.086180E-15	5.313651E-17
6.550000E+03	2.096014E-15	5.355788E-17
6.560000E+03	2.105464E-15	5.395203E-17
6.570000E+03	2.114374E-15	5.431244E-17
6.580000E+03	2.122656E-15	5.463549E-17
6.590000E+03	2.130121E-15	5.491633E-17
6.600000E+03	2.136677E-15	5.515404E-17
6.610000E+03	2.142163E-15	5.534730E-17
6.620000E+03	2.146479E-15	5.549748E-17
6.630000E+03	2.149510E-15	5.560657E-17
6.640000E+03	2.151162E-15	5.567745E-17
6.650000E+03	2.151362E-15	5.571359E-17
6.660000E+03	2.150088E-15	5.571935E-17
6.670000E+03	2.147318E-15	5.569833E-17
6.680000E+03	2.143061E-15	5.565380E-17
6.690000E+03	2.137328E-15	5.558788E-17
6.700000E+03	2.130240E-15	5.550420E-17
6.710000E+03	2.121895E-15	5.540456E-17
6.720000E+03	2.112392E-15	5.528979E-17
6.730000E+03	2.101911E-15	5.516186E-17
6.740000E+03	2.090604E-15	5.502143E-17
6.750000E+03	2.078720E-15	5.487140E-17
6.760000E+03	2.066450E-15	5.471299E-17
6.770000E+03	2.054049E-15	5.454917E-17
6.780000E+03	2.041704E-15	5.438137E-17
6.790000E+03	2.029731E-15	5.421483E-17
6.800000E+03	2.018323E-15	5.405176E-17
6.810000E+03	2.007741E-15	5.389664E-17
6.820000E+03	1.998188E-15	5.375266E-17
6.830000E+03	1.989930E-15	5.362502E-17
6.840000E+03	1.983117E-15	5.351601E-17
6.850000E+03	1.977982E-15	5.343031E-17
6.860000E+03	1.974660E-15	5.337020E-17
6.870000E+03	1.973267E-15	5.333750E-17
6.880000E+03	1.973967E-15	5.333566E-17
6.890000E+03	1.976851E-15	5.336630E-17
6.900000E+03	1.981930E-15	5.342931E-17
6.910000E+03	1.989292E-15	5.352701E-17
6.920000E+03	1.998915E-15	5.365939E-17
6.930000E+03	2.010776E-15	5.382697E-17
6.940000E+03	2.024846E-15	5.403083E-17
6.950000E+03	2.041015E-15	5.427056E-17
6.960000E+03	2.059167E-15	5.454636E-17
6.970000E+03	2.079187E-15	5.485903E-17
6.980000E+03	2.100880E-15	5.520772E-17
6.990000E+03	2.124053E-15	5.559201E-17
7.000000E+03	2.148521E-15	5.601182E-17
7.010000E+03	2.173997E-15	5.646428E-17
7.020000E+03	2.200295E-15	5.694885E-17
7.030000E+03	2.227133E-15	5.746200E-17
7.040000E+03	2.254253E-15	5.800011E-17
7.050000E+03	2.281395E-15	5.855876E-17
7.060000E+03	2.308298E-15	5.913278E-17
7.070000E+03	2.334677E-15	5.971554E-17
7.080000E+03	2.360347E-15	6.030232E-17
7.090000E+03	2.385011E-15	6.088484E-17
7.100000E+03	2.408444E-15	6.145625E-17
7.110000E+03	2.430470E-15	6.201053E-17
7.120000E+03	2.450896E-15	6.254099E-17
7.130000E+03	2.469480E-15	6.303948E-17
7.140000E+03	2.486125E-15	6.350161E-17
7.150000E+03	2.500650E-15	6.392092E-17
7.160000E+03	2.512883E-15	6.429146E-17
7.170000E+03	2.522731E-15	6.460968E-17
7.180000E+03	2.530043E-15	6.487104E-17
7.190000E+03	2.534705E-15	6.507275E-17
7.200000E+03	2.536616E-15	6.521296E-17
7.210000E+03	2.535680E-15	6.529091E-17
7.220000E+03	2.531813E-15	6.530691E-17
7.230000E+03	2.524872E-15	6.526054E-17
7.240000E+03	2.514875E-15	6.515601E-17
7.250000E+03	2.501717E-15	6.499475E-17
7.260000E+03	2.485394E-15	6.478067E-17
7.270000E+03	2.465927E-15	6.451803E-17
7.280000E+03	2.443373E-15	6.421118E-17
7.290000E+03	2.417794E-15	6.386338E-17
7.300000E+03	2.389320E-15	6.347831E-17
7.310000E+03	2.358090E-15	6.305809E-17
7.320000E+03	2.324279E-15	6.260399E-17
7.330000E+03	2.288195E-15	6.211901E-17
7.340000E+03	2.250011E-15	6.160088E-17
7.350000E+03	2.210023E-15	6.104915E-17
7.360000E+03	2.168571E-15	6.046360E-17
7.370000E+03	2.125913E-15	5.984099E-17
7.380000E+03	2.082369E-15	5.917961E-17
7.390000E+03	2.038225E-15	5.847696E-17
7.400000E+03	1.993812E-15	5.773247E-17
7.410000E+03	1.949360E-15	5.694357E-17
7.420000E+03	1.905133E-15	5.611003E-17
7.430000E+03	1.861400E-15	5.523319E-17
7.440000E+03	1.818349E-15	5.431371E-17
7.450000E+03	1.776144E-15	5.335327E-17
7.460000E+03	1.734998E-15	5.235687E-17
7.470000E+03	1.695021E-15	5.132826E-17
7.480000E+03	1.656373E-15	5.027447E-17
7.490000E+03	1.619094E-15	4.920061E-17
7.500000E+03	1.583321E-15	4.811638E-17
7.510000E+03	1.549078E-15	4.702958E-17
7.520000E+03	1.516420E-15	4.595030E-17
7.530000E+03	1.485362E-15	4.488874E-17
7.540000E+03	1.455931E-15	4.385647E-17
7.550000E+03	1.428120E-15	4.286496E-17
7.560000E+03	1.401914E-15	4.192608E-17
7.570000E+03	1.377310E-15	4.105250E-17
7.580000E+03	1.354296E-15	4.025669E-17
7.590000E+03	1.332815E-15	3.954948E-17
7.600000E+03	1.312863E-15	3.894260E-17
7.610000E+03	1.294352E-15	3.844416E-17
7.620000E+03	1.277266E-15	3.806277E-17
7.630000E+03	1.261528E-15	3.780314E-17
7.640000E+03	1.247112E-15	3.766894E-17
7.650000E+03	1.233911E-15	3.765859E-17
7.660000E+03	1.221891E-15	3.776995E-17
7.670000E+03	1.210937E-15	3.799628E-17
7.680000E+03	1.201027E-15	3.833173E-17
7.690000E+03	1.192026E-15	3.876557E-17
7.700000E+03	1.183888E-15	3.928884E-17
7.710000E+03	1.176530E-15	3.989082E-17
7.720000E+03	1.169854E-15	4.055985E-17
7.730000E+03	1.163778E-15	4.128487E-17
7.740000E+03	1.158238E-15	4.205569E-17
7.750000E+03	1.153159E-15	4.286197E-17
7.760000E+03	1.148429E-15	4.369255E-17
