#wls	flux	fluxerr
1.600000E+03	6.553448E-17	5.143232E-17
1.640000E+03	6.564082E-17	5.095503E-17
1.680000E+03	6.578821E-17	5.049276E-17
1.720000E+03	6.597675E-17	5.004421E-17
1.760000E+03	6.620658E-17	4.960809E-17
1.800000E+03	6.649865E-17	4.919844E-17
1.840000E+03	6.684260E-17	4.880558E-17
1.880000E+03	6.726962E-17	4.845010E-17
1.920000E+03	6.776933E-17	4.812176E-17
1.960000E+03	6.835213E-17	4.782517E-17
2.000000E+03	6.904897E-17	4.757859E-17
2.040000E+03	6.987013E-17	4.738479E-17
2.080000E+03	7.081566E-17	4.723916E-17
2.120000E+03	7.190624E-17	4.715044E-17
2.160000E+03	7.317279E-17	4.713288E-17
2.200000E+03	7.462585E-17	4.718618E-17
2.240000E+03	7.625569E-17	4.729680E-17
2.280000E+03	7.809364E-17	4.747640E-17
2.320000E+03	8.013040E-17	4.771070E-17
2.360000E+03	8.236710E-17	4.799178E-17
2.400000E+03	8.482556E-17	4.832324E-17
2.440000E+03	8.748705E-17	4.868482E-17
2.480000E+03	9.036378E-17	4.907391E-17
2.520000E+03	9.345807E-17	4.948188E-17
2.560000E+03	9.677269E-17	4.990011E-17
2.600000E+03	1.003109E-16	5.032002E-17
2.640000E+03	1.040867E-16	5.073809E-17
2.680000E+03	1.081151E-16	5.115044E-17
2.720000E+03	1.123914E-16	5.154338E-17
2.760000E+03	1.169427E-16	5.191785E-17
2.800000E+03	1.217877E-16	5.226964E-17
2.840000E+03	1.269366E-16	5.259020E-17
2.880000E+03	1.323914E-16	5.286748E-17
2.920000E+03	1.381463E-16	5.308677E-17
2.960000E+03	1.442408E-16	5.325091E-17
3.000000E+03	1.506872E-16	5.335146E-17
3.010000E+03	1.523645E-16	5.336893E-17
3.020000E+03	1.540732E-16	5.338465E-17
3.030000E+03	1.558034E-16	5.339489E-17
3.040000E+03	1.575662E-16	5.340326E-17
3.050000E+03	1.593621E-16	5.340965E-17
3.060000E+03	1.611813E-16	5.341047E-17
3.070000E+03	1.630454E-16	5.341270E-17
3.080000E+03	1.649341E-16	5.340925E-17
3.090000E+03	1.668694E-16	5.340701E-17
3.100000E+03	1.688306E-16	5.339902E-17
3.110000E+03	1.708400E-16	5.339204E-17
3.120000E+03	1.728984E-16	5.338590E-17
3.130000E+03	1.749960E-16	5.337717E-17
3.140000E+03	1.771339E-16	5.336581E-17
3.150000E+03	1.793237E-16	5.335500E-17
3.160000E+03	1.815665E-16	5.334460E-17
3.170000E+03	1.838635E-16	5.333448E-17
3.180000E+03	1.862158E-16	5.332453E-17
3.190000E+03	1.886248E-16	5.331463E-17
3.200000E+03	1.910917E-16	5.330466E-17
3.210000E+03	1.936288E-16	5.329754E-17
3.220000E+03	1.962266E-16	5.329010E-17
3.230000E+03	1.989087E-16	5.328812E-17
3.240000E+03	2.016548E-16	5.328551E-17
3.250000E+03	2.044885E-16	5.328793E-17
3.260000E+03	2.073895E-16	5.328943E-17
3.270000E+03	2.103931E-16	5.329838E-17
3.280000E+03	2.134790E-16	5.330886E-17
3.290000E+03	2.166604E-16	5.332346E-17
3.300000E+03	2.199397E-16	5.334194E-17
3.310000E+03	2.233303E-16	5.336673E-17
3.320000E+03	2.268235E-16	5.339484E-17
3.330000E+03	2.304331E-16	5.342868E-17
3.340000E+03	2.341732E-16	5.347051E-17
3.350000E+03	2.380354E-16	5.351735E-17
3.360000E+03	2.420340E-16	5.357142E-17
3.370000E+03	2.461723E-16	5.363232E-17
3.380000E+03	2.504650E-16	5.370213E-17
3.390000E+03	2.549159E-16	5.378035E-17
3.400000E+03	2.595285E-16	5.386650E-17
3.410000E+03	2.643184E-16	5.396248E-17
3.420000E+03	2.692897E-16	5.406773E-17
3.430000E+03	2.744584E-16	5.418400E-17
3.440000E+03	2.798291E-16	5.431064E-17
3.450000E+03	2.854184E-16	5.444927E-17
3.460000E+03	2.912434E-16	5.460141E-17
3.470000E+03	2.973093E-16	5.476623E-17
3.480000E+03	3.036339E-16	5.494509E-17
3.490000E+03	3.102228E-16	5.513708E-17
3.500000E+03	3.171068E-16	5.534559E-17
3.510000E+03	3.242923E-16	5.556952E-17
3.520000E+03	3.317984E-16	5.580989E-17
3.530000E+03	3.396322E-16	5.606552E-17
3.540000E+03	3.478134E-16	5.633728E-17
3.550000E+03	3.563369E-16	5.662188E-17
3.560000E+03	3.652228E-16	5.692013E-17
3.570000E+03	3.744530E-16	5.722681E-17
3.580000E+03	3.840347E-16	5.754077E-17
3.590000E+03	3.939620E-16	5.785893E-17
3.600000E+03	4.042549E-16	5.818210E-17
3.610000E+03	4.148805E-16	5.850349E-17
3.620000E+03	4.258718E-16	5.882581E-17
3.630000E+03	4.371946E-16	5.914247E-17
3.640000E+03	4.488677E-16	5.945432E-17
3.650000E+03	4.608692E-16	5.975682E-17
3.660000E+03	4.732033E-16	6.004907E-17
3.670000E+03	4.858597E-16	6.032847E-17
3.680000E+03	4.988556E-16	6.059590E-17
3.690000E+03	5.121513E-16	6.084542E-17
3.700000E+03	5.257620E-16	6.107803E-17
3.710000E+03	5.396741E-16	6.129134E-17
3.720000E+03	5.538726E-16	6.148308E-17
3.730000E+03	5.683558E-16	6.165268E-17
3.740000E+03	5.831210E-16	6.179958E-17
3.750000E+03	5.981497E-16	6.192171E-17
3.760000E+03	6.134216E-16	6.201715E-17
3.770000E+03	6.289300E-16	6.208557E-17
3.780000E+03	6.446820E-16	6.212816E-17
3.790000E+03	6.606227E-16	6.214031E-17
3.800000E+03	6.767559E-16	6.212342E-17
3.810000E+03	6.930688E-16	6.207746E-17
3.820000E+03	7.095316E-16	6.200115E-17
3.830000E+03	7.261281E-16	6.189469E-17
3.840000E+03	7.428245E-16	6.175710E-17
3.850000E+03	7.596011E-16	6.158891E-17
3.860000E+03	7.764202E-16	6.138950E-17
3.870000E+03	7.932745E-16	6.116102E-17
3.880000E+03	8.101067E-16	6.090202E-17
3.890000E+03	8.269060E-16	6.061506E-17
3.900000E+03	8.436275E-16	6.030045E-17
3.910000E+03	8.602413E-16	5.996005E-17
3.920000E+03	8.766991E-16	5.959483E-17
3.930000E+03	8.929679E-16	5.920729E-17
3.940000E+03	9.089965E-16	5.879917E-17
3.949340E+03	1.245457E-15	4.264350E-16
3.950810E+03	1.241293E-15	4.035012E-16
3.952280E+03	1.240603E-15	3.891364E-16
3.953750E+03	1.236651E-15	3.933756E-16
3.955220E+03	1.234605E-15	4.001493E-16
3.956690E+03	1.235653E-15	3.949065E-16
3.958160E+03	1.242381E-15	3.929556E-16
3.959630E+03	1.250975E-15	3.914940E-16
3.961100E+03	1.257365E-15	3.940539E-16
3.962570E+03	1.262655E-15	3.935308E-16
3.964040E+03	1.271845E-15	3.948921E-16
3.965510E+03	1.277645E-15	3.783868E-16
3.966980E+03	1.283616E-15	3.713418E-16
3.968450E+03	1.295142E-15	3.796353E-16
3.969920E+03	1.300690E-15	3.755920E-16
3.971390E+03	1.312982E-15	3.637968E-16
3.972860E+03	1.326421E-15	3.716214E-16
3.974330E+03	1.330489E-15	3.726230E-16
3.975800E+03	1.333115E-15	3.739486E-16
3.977270E+03	1.334893E-15	3.688463E-16
3.978740E+03	1.337563E-15	3.690880E-16
3.980210E+03	1.348166E-15	3.700624E-16
3.981680E+03	1.357540E-15	3.718841E-16
3.983150E+03	1.366831E-15	3.666857E-16
3.984620E+03	1.374129E-15	3.670194E-16
3.986090E+03	1.380876E-15	3.746400E-16
3.987560E+03	1.383975E-15	3.742622E-16
3.989030E+03	1.385971E-15	3.533781E-16
3.990500E+03	1.389623E-15	3.384979E-16
3.991970E+03	1.398241E-15	3.385449E-16
3.993440E+03	1.408940E-15	3.206325E-16
3.994910E+03	1.410684E-15	3.232804E-16
3.996380E+03	1.402920E-15	3.231461E-16
3.997850E+03	1.392395E-15	3.014347E-16
3.999320E+03	1.394564E-15	2.880682E-16
4.000790E+03	1.404843E-15	2.869697E-16
4.002260E+03	1.411684E-15	2.855727E-16
4.003730E+03	1.421244E-15	2.862243E-16
4.005200E+03	1.432504E-15	2.920641E-16
4.006670E+03	1.432213E-15	2.815710E-16
4.008140E+03	1.433622E-15	2.779123E-16
4.009610E+03	1.435541E-15	2.754261E-16
4.011080E+03	1.430749E-15	2.777550E-16
4.012550E+03	1.419584E-15	2.792721E-16
4.014020E+03	1.416787E-15	2.756361E-16
4.015490E+03	1.417814E-15	2.751873E-16
4.016960E+03	1.418076E-15	2.675462E-16
4.018430E+03	1.420591E-15	2.785007E-16
4.019900E+03	1.424253E-15	2.696398E-16
4.021370E+03	1.437096E-15	2.578274E-16
4.022840E+03	1.444416E-15	2.650099E-16
4.024310E+03	1.443533E-15	2.676107E-16
4.025780E+03	1.452895E-15	2.575662E-16
4.027250E+03	1.466934E-15	2.558226E-16
4.028720E+03	1.473323E-15	2.554548E-16
4.030190E+03	1.476397E-15	2.615177E-16
4.031660E+03	1.483808E-15	2.714640E-16
4.033130E+03	1.494155E-15	2.908825E-16
4.034600E+03	1.506417E-15	2.798822E-16
4.036070E+03	1.511748E-15	2.840757E-16
4.037540E+03	1.515763E-15	2.835218E-16
4.039010E+03	1.529773E-15	2.832033E-16
4.040480E+03	1.538553E-15	2.867361E-16
4.041950E+03	1.535424E-15	2.887690E-16
4.043420E+03	1.533359E-15	2.870548E-16
4.044890E+03	1.532527E-15	2.825221E-16
4.046360E+03	1.527228E-15	2.832887E-16
4.047830E+03	1.522014E-15	2.792361E-16
4.049300E+03	1.521310E-15	2.842788E-16
4.050770E+03	1.522776E-15	2.832693E-16
4.052240E+03	1.526073E-15	2.794167E-16
4.053710E+03	1.534647E-15	2.725442E-16
4.055180E+03	1.535732E-15	2.727985E-16
4.056650E+03	1.539457E-15	2.734385E-16
4.058120E+03	1.547737E-15	2.737093E-16
4.059590E+03	1.546951E-15	2.739712E-16
4.061060E+03	1.543482E-15	2.731720E-16
4.062530E+03	1.544356E-15	2.692759E-16
4.064000E+03	1.541526E-15	2.673649E-16
4.065470E+03	1.525666E-15	2.633566E-16
4.066940E+03	1.508482E-15	2.448192E-16
4.068410E+03	1.501391E-15	2.428238E-16
4.069880E+03	1.501838E-15	2.442674E-16
4.071350E+03	1.496492E-15	2.327614E-16
4.072820E+03	1.484372E-15	2.295791E-16
4.074290E+03	1.470035E-15	2.341216E-16
4.075760E+03	1.453567E-15	2.339549E-16
4.077230E+03	1.439354E-15	2.396645E-16
4.078700E+03	1.424586E-15	2.361899E-16
4.080170E+03	1.409006E-15	2.277782E-16
4.081640E+03	1.393296E-15	2.029610E-16
4.083110E+03	1.371148E-15	1.951462E-16
4.084580E+03	1.355093E-15	1.882680E-16
4.086050E+03	1.347817E-15	1.886280E-16
4.087520E+03	1.333250E-15	1.882681E-16
4.088990E+03	1.315441E-15	1.902798E-16
4.090460E+03	1.304750E-15	1.840045E-16
4.091930E+03	1.291925E-15	1.766059E-16
4.093400E+03	1.284430E-15	1.769398E-16
4.094870E+03	1.276464E-15	1.803801E-16
4.096340E+03	1.265469E-15	1.822328E-16
4.097810E+03	1.260103E-15	1.821462E-16
4.099280E+03	1.247186E-15	1.833871E-16
4.100750E+03	1.228424E-15	1.826066E-16
4.102220E+03	1.222884E-15	1.830807E-16
4.103690E+03	1.224894E-15	1.837622E-16
4.105160E+03	1.222383E-15	2.073572E-16
4.106630E+03	1.214324E-15	2.206724E-16
4.108100E+03	1.205368E-15	2.173518E-16
4.109570E+03	1.198715E-15	2.229135E-16
4.111040E+03	1.185617E-15	2.245403E-16
4.112510E+03	1.177767E-15	2.211129E-16
4.113980E+03	1.174057E-15	2.211022E-16
4.115450E+03	1.167444E-15	2.225522E-16
4.116920E+03	1.165227E-15	2.174813E-16
4.118390E+03	1.162796E-15	2.080802E-16
4.119860E+03	1.155370E-15	2.078114E-16
4.121330E+03	1.149608E-15	2.141775E-16
4.122800E+03	1.140684E-15	2.134884E-16
4.124270E+03	1.125653E-15	2.144791E-16
4.125740E+03	1.118350E-15	2.059388E-16
4.127210E+03	1.114848E-15	2.030089E-16
4.128680E+03	1.106091E-15	1.994485E-16
4.130150E+03	1.099811E-15	1.930321E-16
4.131620E+03	1.102460E-15	1.912527E-16
4.133090E+03	1.100024E-15	2.052887E-16
4.134560E+03	1.098913E-15	2.296432E-16
4.136030E+03	1.095324E-15	2.523077E-16
4.137500E+03	1.096350E-15	2.494662E-16
4.138970E+03	1.096863E-15	2.496601E-16
4.140440E+03	1.088742E-15	2.607719E-16
4.141910E+03	1.081090E-15	2.610492E-16
4.143380E+03	1.087973E-15	2.581772E-16
4.144850E+03	1.097423E-15	2.581178E-16
4.146320E+03	1.097082E-15	2.528542E-16
4.147790E+03	1.090113E-15	2.524203E-16
4.149260E+03	1.081518E-15	2.518954E-16
4.150730E+03	1.078440E-15	2.596652E-16
4.152200E+03	1.074933E-15	2.656423E-16
4.153670E+03	1.068731E-15	2.482686E-16
4.155140E+03	1.064196E-15	2.370761E-16
4.156610E+03	1.062399E-15	2.491449E-16
4.158080E+03	1.074636E-15	2.491988E-16
4.159550E+03	1.082682E-15	2.490520E-16
4.161020E+03	1.077720E-15	2.483901E-16
4.162490E+03	1.082216E-15	2.535134E-16
4.163960E+03	1.091720E-15	2.534256E-16
4.165430E+03	1.092836E-15	2.566458E-16
4.166900E+03	1.099646E-15	2.569753E-16
4.168370E+03	1.114849E-15	2.590538E-16
4.169840E+03	1.126586E-15	2.472623E-16
4.171310E+03	1.137469E-15	2.401646E-16
4.172780E+03	1.143429E-15	2.558983E-16
4.174250E+03	1.142967E-15	2.584719E-16
4.175720E+03	1.145288E-15	2.570058E-16
4.177190E+03	1.151037E-15	2.900595E-16
4.178660E+03	1.157173E-15	2.997818E-16
4.180130E+03	1.163909E-15	3.038306E-16
4.181600E+03	1.171161E-15	3.023159E-16
4.183070E+03	1.178800E-15	2.873400E-16
4.184540E+03	1.185841E-15	2.715755E-16
4.186010E+03	1.193783E-15	2.738066E-16
4.187480E+03	1.198212E-15	2.737383E-16
4.188950E+03	1.199813E-15	2.638054E-16
4.190420E+03	1.203258E-15	2.638992E-16
4.191890E+03	1.206832E-15	2.646650E-16
4.193360E+03	1.211436E-15	2.657426E-16
4.194830E+03	1.220972E-15	2.657972E-16
4.196300E+03	1.231967E-15	2.682727E-16
4.197770E+03	1.238977E-15	2.749333E-16
4.199240E+03	1.249504E-15	2.666600E-16
4.200710E+03	1.259348E-15	2.667172E-16
4.202180E+03	1.262716E-15	2.649146E-16
4.203650E+03	1.267801E-15	2.653284E-16
4.205120E+03	1.269498E-15	2.596941E-16
4.206590E+03	1.266776E-15	2.569834E-16
4.208060E+03	1.268517E-15	2.672332E-16
4.209530E+03	1.269399E-15	2.667731E-16
4.211000E+03	1.268609E-15	2.575983E-16
4.212470E+03	1.267131E-15	2.629414E-16
4.213940E+03	1.270462E-15	2.649578E-16
4.215410E+03	1.271990E-15	2.649985E-16
4.216880E+03	1.271414E-15	2.643484E-16
4.218350E+03	1.273287E-15	2.640439E-16
4.219820E+03	1.281343E-15	2.655800E-16
4.221290E+03	1.282830E-15	2.728468E-16
4.222760E+03	1.275944E-15	2.805745E-16
4.224230E+03	1.277861E-15	2.794505E-16
4.225700E+03	1.281239E-15	2.435813E-16
4.227170E+03	1.277445E-15	2.284182E-16
4.228640E+03	1.272532E-15	2.263352E-16
4.230110E+03	1.278060E-15	2.260903E-16
4.231580E+03	1.284534E-15	2.505130E-16
4.233050E+03	1.282458E-15	2.754165E-16
4.234520E+03	1.287215E-15	2.721722E-16
4.235990E+03	1.293392E-15	2.729362E-16
4.237460E+03	1.295529E-15	2.870303E-16
4.238930E+03	1.299258E-15	2.873751E-16
4.240400E+03	1.299677E-15	2.914007E-16
4.241870E+03	1.301860E-15	2.901839E-16
4.243340E+03	1.301935E-15	2.915313E-16
4.244810E+03	1.302485E-15	2.968565E-16
4.246280E+03	1.312023E-15	3.032440E-16
4.247750E+03	1.317950E-15	3.062858E-16
4.249220E+03	1.317427E-15	2.958555E-16
4.250690E+03	1.320646E-15	2.907864E-16
4.252160E+03	1.329674E-15	2.908513E-16
4.253630E+03	1.334961E-15	2.891631E-16
4.255100E+03	1.334568E-15	2.892518E-16
4.256570E+03	1.331207E-15	2.821480E-16
4.258040E+03	1.327887E-15	2.835354E-16
4.259510E+03	1.327796E-15	2.822486E-16
4.260980E+03	1.325252E-15	2.789485E-16
4.262450E+03	1.325893E-15	2.773377E-16
4.263920E+03	1.330022E-15	2.780774E-16
4.265390E+03	1.329631E-15	2.807267E-16
4.266860E+03	1.329067E-15	2.838296E-16
4.268330E+03	1.327944E-15	2.912324E-16
4.269800E+03	1.323074E-15	2.710219E-16
4.271270E+03	1.318159E-15	2.705336E-16
4.272740E+03	1.316863E-15	2.782655E-16
4.274210E+03	1.314792E-15	2.783979E-16
4.275680E+03	1.307248E-15	2.782577E-16
4.277150E+03	1.298022E-15	2.803561E-16
4.278620E+03	1.293492E-15	2.793799E-16
4.280090E+03	1.294005E-15	2.647152E-16
4.281560E+03	1.295638E-15	2.386644E-16
4.283030E+03	1.298307E-15	2.420261E-16
4.284500E+03	1.302054E-15	2.414855E-16
4.285970E+03	1.301275E-15	2.237050E-16
4.287440E+03	1.293985E-15	2.226780E-16
4.288910E+03	1.292257E-15	2.192582E-16
4.290380E+03	1.293116E-15	2.202806E-16
4.291850E+03	1.291431E-15	2.177307E-16
4.293320E+03	1.291990E-15	2.120317E-16
4.294790E+03	1.285861E-15	1.935540E-16
4.296260E+03	1.278739E-15	1.950200E-16
4.297730E+03	1.282749E-15	1.936473E-16
4.299200E+03	1.284472E-15	1.953116E-16
4.300670E+03	1.283650E-15	1.945950E-16
4.302140E+03	1.289260E-15	1.997416E-16
4.303610E+03	1.293705E-15	1.998145E-16
4.305080E+03	1.290122E-15	2.071931E-16
4.306550E+03	1.285501E-15	2.054032E-16
4.308020E+03	1.286191E-15	2.055239E-16
4.309490E+03	1.286148E-15	2.061006E-16
4.310960E+03	1.286709E-15	2.045441E-16
4.312430E+03	1.287055E-15	2.059775E-16
4.313900E+03	1.284809E-15	2.019807E-16
4.315370E+03	1.284205E-15	1.970267E-16
4.316840E+03	1.282348E-15	1.807537E-16
4.318310E+03	1.273230E-15	1.804386E-16
4.319780E+03	1.266445E-15	1.625095E-16
4.321250E+03	1.262426E-15	1.469941E-16
4.322720E+03	1.254299E-15	1.538056E-16
4.324190E+03	1.253433E-15	1.547367E-16
4.325660E+03	1.258837E-15	1.530063E-16
4.327130E+03	1.261561E-15	1.523058E-16
4.328600E+03	1.263161E-15	1.569445E-16
4.330070E+03	1.268352E-15	1.632828E-16
4.331540E+03	1.270560E-15	1.615980E-16
4.333010E+03	1.264549E-15	1.848022E-16
4.334480E+03	1.258018E-15	1.893400E-16
4.335950E+03	1.251660E-15	1.937149E-16
4.337420E+03	1.249886E-15	1.948382E-16
4.338890E+03	1.246166E-15	1.936282E-16
4.340360E+03	1.238160E-15	1.965705E-16
4.341830E+03	1.230586E-15	2.007998E-16
4.343300E+03	1.224698E-15	2.009454E-16
4.344770E+03	1.217121E-15	1.944937E-16
4.346240E+03	1.203611E-15	1.982593E-16
4.347710E+03	1.191008E-15	2.009615E-16
4.349180E+03	1.177969E-15	2.023739E-16
4.350650E+03	1.165317E-15	1.992762E-16
4.352120E+03	1.153919E-15	2.010398E-16
4.353590E+03	1.145378E-15	1.978338E-16
4.355060E+03	1.142685E-15	1.973174E-16
4.356530E+03	1.148007E-15	1.973132E-16
4.358000E+03	1.156278E-15	1.977577E-16
4.359470E+03	1.158050E-15	1.984012E-16
4.360940E+03	1.156788E-15	1.966578E-16
4.362410E+03	1.158777E-15	1.976173E-16
4.363880E+03	1.156778E-15	1.976118E-16
4.365350E+03	1.147495E-15	1.982445E-16
4.366820E+03	1.142807E-15	1.975804E-16
4.368290E+03	1.142281E-15	1.981731E-16
4.369760E+03	1.132214E-15	1.995548E-16
4.371230E+03	1.117025E-15	1.945070E-16
4.372700E+03	1.105955E-15	1.968399E-16
4.374170E+03	1.097313E-15	1.975793E-16
4.375640E+03	1.087454E-15	1.989156E-16
4.377110E+03	1.079415E-15	1.915683E-16
4.378580E+03	1.075238E-15	1.872414E-16
4.380050E+03	1.077832E-15	1.859408E-16
4.381520E+03	1.079645E-15	1.656613E-16
4.382990E+03	1.076162E-15	1.608952E-16
4.384460E+03	1.070073E-15	1.616683E-16
4.385930E+03	1.062680E-15	1.575501E-16
4.387400E+03	1.055198E-15	1.581781E-16
4.388870E+03	1.052581E-15	1.533634E-16
4.390340E+03	1.056696E-15	1.362514E-16
4.391810E+03	1.064592E-15	1.375208E-16
4.393280E+03	1.077183E-15	1.391721E-16
4.394750E+03	1.083388E-15	1.496840E-16
4.396220E+03	1.078470E-15	1.551185E-16
4.397690E+03	1.073073E-15	1.538092E-16
4.399160E+03	1.076108E-15	1.532021E-16
4.400630E+03	1.080491E-15	1.515611E-16
4.402100E+03	1.084745E-15	1.468536E-16
4.403570E+03	1.090219E-15	1.468483E-16
4.405040E+03	1.091518E-15	1.465764E-16
4.406510E+03	1.092122E-15	1.488241E-16
4.407980E+03	1.097034E-15	1.574427E-16
4.409450E+03	1.103556E-15	1.585704E-16
4.410920E+03	1.111516E-15	1.604051E-16
4.412390E+03	1.119478E-15	1.616277E-16
4.413860E+03	1.126267E-15	1.757720E-16
4.415330E+03	1.129880E-15	1.830414E-16
4.416800E+03	1.137108E-15	1.853730E-16
4.418270E+03	1.152435E-15	1.905110E-16
4.419740E+03	1.163107E-15	1.913522E-16
4.421210E+03	1.164507E-15	1.885940E-16
4.422680E+03	1.171481E-15	1.882805E-16
4.424150E+03	1.181986E-15	1.868870E-16
4.425620E+03	1.186700E-15	1.900318E-16
4.427090E+03	1.190718E-15	1.994245E-16
4.428560E+03	1.197831E-15	2.050704E-16
4.430030E+03	1.208563E-15	2.076986E-16
4.431500E+03	1.215637E-15	2.079774E-16
4.432970E+03	1.220969E-15	2.095832E-16
4.434440E+03	1.228133E-15	2.213663E-16
4.435910E+03	1.235736E-15	2.441989E-16
4.437380E+03	1.246219E-15	2.511728E-16
4.438850E+03	1.259931E-15	2.522377E-16
4.440320E+03	1.268806E-15	2.534552E-16
4.441790E+03	1.274412E-15	2.533257E-16
4.443260E+03	1.276922E-15	2.436690E-16
4.444730E+03	1.277296E-15	2.366641E-16
4.446200E+03	1.277538E-15	2.367082E-16
4.447670E+03	1.279134E-15	2.369611E-16
4.449140E+03	1.285052E-15	2.364609E-16
4.450610E+03	1.287828E-15	2.363136E-16
4.452080E+03	1.290868E-15	2.418284E-16
4.453550E+03	1.292074E-15	2.510463E-16
4.455020E+03	1.289701E-15	2.494542E-16
4.456490E+03	1.292568E-15	2.577859E-16
4.457960E+03	1.300546E-15	2.656860E-16
4.459430E+03	1.307085E-15	2.643539E-16
4.460900E+03	1.306898E-15	2.679560E-16
4.462370E+03	1.305750E-15	2.642400E-16
4.463840E+03	1.306918E-15	2.653677E-16
4.465310E+03	1.303716E-15	2.692431E-16
4.466780E+03	1.300077E-15	2.647540E-16
4.468250E+03	1.299716E-15	2.645259E-16
4.469720E+03	1.300972E-15	2.675752E-16
4.471190E+03	1.299518E-15	2.672919E-16
4.472660E+03	1.291592E-15	2.695740E-16
4.474130E+03	1.287207E-15	2.715236E-16
4.475600E+03	1.288945E-15	2.638838E-16
4.477070E+03	1.292258E-15	2.571923E-16
4.478540E+03	1.294742E-15	2.534243E-16
4.480010E+03	1.292369E-15	2.541593E-16
4.481480E+03	1.290740E-15	2.505879E-16
4.482950E+03	1.292831E-15	2.492409E-16
4.484420E+03	1.297900E-15	2.334174E-16
4.485890E+03	1.303890E-15	2.249573E-16
4.487360E+03	1.305415E-15	2.254719E-16
4.488830E+03	1.304796E-15	2.235115E-16
4.490300E+03	1.306541E-15	2.232396E-16
4.491770E+03	1.308244E-15	2.302935E-16
4.493240E+03	1.304953E-15	2.245976E-16
4.494710E+03	1.299821E-15	2.319417E-16
4.496180E+03	1.300867E-15	2.365898E-16
4.497650E+03	1.304587E-15	2.364098E-16
4.499120E+03	1.303837E-15	2.355842E-16
4.500590E+03	1.303745E-15	2.330994E-16
4.502060E+03	1.305406E-15	2.267573E-16
4.503530E+03	1.311849E-15	2.268298E-16
4.505000E+03	1.319433E-15	2.079333E-16
4.506470E+03	1.322546E-15	1.919238E-16
4.507940E+03	1.324344E-15	1.919426E-16
4.509410E+03	1.326537E-15	1.888980E-16
