#wls	flux	fluxerr
1.600000E+03	6.859132E-17	5.491450E-17
1.640000E+03	6.905288E-17	5.474028E-17
1.680000E+03	6.957158E-17	5.458963E-17
1.720000E+03	7.014931E-17	5.446215E-17
1.760000E+03	7.078809E-17	5.435739E-17
1.800000E+03	7.147632E-17	5.426444E-17
1.840000E+03	7.225765E-17	5.421416E-17
1.880000E+03	7.310727E-17	5.418505E-17
1.920000E+03	7.405631E-17	5.419734E-17
1.960000E+03	7.509420E-17	5.423988E-17
2.000000E+03	7.623911E-17	5.432230E-17
2.040000E+03	7.751019E-17	5.445408E-17
2.080000E+03	7.889785E-17	5.462388E-17
2.120000E+03	8.042234E-17	5.484099E-17
2.160000E+03	8.208981E-17	5.510421E-17
2.200000E+03	8.390691E-17	5.541224E-17
2.240000E+03	8.589654E-17	5.577391E-17
2.280000E+03	8.805109E-17	5.617735E-17
2.320000E+03	9.039511E-17	5.663101E-17
2.360000E+03	9.293832E-17	5.713289E-17
2.400000E+03	9.567430E-17	5.767062E-17
2.440000E+03	9.863052E-17	5.825193E-17
2.480000E+03	1.018189E-16	5.887407E-17
2.520000E+03	1.052524E-16	5.953398E-17
2.560000E+03	1.089265E-16	6.021822E-17
2.600000E+03	1.128733E-16	6.093306E-17
2.640000E+03	1.171083E-16	6.167423E-17
2.680000E+03	1.216288E-16	6.242705E-17
2.720000E+03	1.264902E-16	6.320594E-17
2.760000E+03	1.316921E-16	6.399493E-17
2.800000E+03	1.372534E-16	6.478721E-17
2.840000E+03	1.432149E-16	6.558471E-17
2.880000E+03	1.495984E-16	6.637856E-17
2.920000E+03	1.564699E-16	6.717763E-17
2.960000E+03	1.638769E-16	6.797937E-17
3.000000E+03	1.718692E-16	6.877929E-17
3.010000E+03	1.739685E-16	6.897976E-17
3.020000E+03	1.761138E-16	6.918172E-17
3.030000E+03	1.783058E-16	6.938487E-17
3.040000E+03	1.805450E-16	6.958889E-17
3.050000E+03	1.828318E-16	6.979346E-17
3.060000E+03	1.851669E-16	6.999826E-17
3.070000E+03	1.875507E-16	7.020294E-17
3.080000E+03	1.899838E-16	7.040715E-17
3.090000E+03	1.924909E-16	7.061947E-17
3.100000E+03	1.950241E-16	7.082160E-17
3.110000E+03	1.976573E-16	7.103989E-17
3.120000E+03	2.003173E-16	7.124722E-17
3.130000E+03	2.030542E-16	7.146087E-17
3.140000E+03	2.058688E-16	7.168032E-17
3.150000E+03	2.087367E-16	7.189630E-17
3.160000E+03	2.116582E-16	7.210836E-17
3.170000E+03	2.146849E-16	7.233331E-17
3.180000E+03	2.177665E-16	7.255325E-17
3.190000E+03	2.209292E-16	7.277624E-17
3.200000E+03	2.241738E-16	7.300164E-17
3.210000E+03	2.275271E-16	7.323727E-17
3.220000E+03	2.309375E-16	7.346550E-17
3.230000E+03	2.344317E-16	7.369415E-17
3.240000E+03	2.380369E-16	7.393083E-17
3.250000E+03	2.417273E-16	7.416642E-17
3.260000E+03	2.455303E-16	7.440838E-17
3.270000E+03	2.494197E-16	7.464765E-17
3.280000E+03	2.534506E-16	7.489966E-17
3.290000E+03	2.575414E-16	7.513915E-17
3.300000E+03	2.617752E-16	7.538946E-17
3.310000E+03	2.661250E-16	7.564147E-17
3.320000E+03	2.705913E-16	7.589418E-17
3.330000E+03	2.751747E-16	7.614654E-17
3.340000E+03	2.799037E-16	7.640526E-17
3.350000E+03	2.847505E-16	7.666136E-17
3.360000E+03	2.897151E-16	7.691375E-17
3.370000E+03	2.948554E-16	7.717645E-17
3.380000E+03	3.001138E-16	7.743293E-17
3.390000E+03	3.055487E-16	7.769690E-17
3.400000E+03	3.111309E-16	7.795942E-17
3.410000E+03	3.168602E-16	7.821908E-17
3.420000E+03	3.227363E-16	7.847449E-17
3.430000E+03	3.287885E-16	7.873137E-17
3.440000E+03	3.350163E-16	7.898808E-17
3.450000E+03	3.414193E-16	7.924294E-17
3.460000E+03	3.479965E-16	7.949426E-17
3.470000E+03	3.547469E-16	7.974034E-17
3.480000E+03	3.616691E-16	7.997950E-17
3.490000E+03	3.687923E-16	8.021673E-17
3.500000E+03	3.761147E-16	8.045008E-17
3.510000E+03	3.836036E-16	8.067108E-17
3.520000E+03	3.913185E-16	8.089094E-17
3.530000E+03	3.991947E-16	8.109475E-17
3.540000E+03	4.073230E-16	8.129971E-17
3.550000E+03	4.156059E-16	8.148482E-17
3.560000E+03	4.241026E-16	8.166069E-17
3.570000E+03	4.328092E-16	8.182524E-17
3.580000E+03	4.417529E-16	8.198233E-17
3.590000E+03	4.508651E-16	8.211801E-17
3.600000E+03	4.601720E-16	8.223634E-17
3.610000E+03	4.696996E-16	8.234108E-17
3.620000E+03	4.794417E-16	8.243010E-17
3.630000E+03	4.893586E-16	8.249592E-17
3.640000E+03	4.995076E-16	8.254760E-17
3.650000E+03	5.098152E-16	8.257245E-17
3.660000E+03	5.203377E-16	8.257934E-17
3.670000E+03	5.310327E-16	8.256126E-17
3.680000E+03	5.418900E-16	8.251668E-17
3.690000E+03	5.529639E-16	8.245394E-17
3.700000E+03	5.641773E-16	8.236164E-17
3.710000E+03	5.755504E-16	8.224334E-17
3.720000E+03	5.870700E-16	8.209775E-17
3.730000E+03	5.987223E-16	8.192378E-17
3.740000E+03	6.104926E-16	8.172049E-17
3.750000E+03	6.223981E-16	8.149138E-17
3.760000E+03	6.344229E-16	8.123556E-17
3.770000E+03	6.465173E-16	8.094824E-17
3.780000E+03	6.586638E-16	8.062916E-17
3.790000E+03	6.709097E-16	8.028608E-17
3.800000E+03	6.831710E-16	7.991093E-17
3.810000E+03	6.954933E-16	7.951144E-17
3.820000E+03	7.077921E-16	7.908029E-17
3.830000E+03	7.201118E-16	7.862517E-17
3.840000E+03	7.323994E-16	7.814292E-17
3.850000E+03	7.446343E-16	7.763424E-17
3.860000E+03	7.567956E-16	7.709999E-17
3.870000E+03	7.688941E-16	7.654431E-17
3.880000E+03	7.808768E-16	7.596500E-17
3.890000E+03	7.927234E-16	7.536333E-17
3.900000E+03	8.044447E-16	7.474354E-17
3.910000E+03	8.159893E-16	7.410403E-17
3.920000E+03	8.273690E-16	7.344910E-17
3.930000E+03	8.385035E-16	7.277482E-17
3.940000E+03	8.494670E-16	7.209086E-17
3.950000E+03	8.601513E-16	7.139100E-17
3.960000E+03	8.705717E-16	7.067971E-17
3.970000E+03	8.807439E-16	6.996114E-17
3.980000E+03	8.906252E-16	6.923466E-17
3.990000E+03	9.001758E-16	6.849990E-17
4.000000E+03	9.094450E-16	6.776312E-17
4.010000E+03	9.183685E-16	6.702171E-17
4.020000E+03	9.269706E-16	6.627947E-17
4.030000E+03	9.352220E-16	6.553586E-17
4.040000E+03	9.431524E-16	6.479413E-17
4.050000E+03	9.507392E-16	6.405338E-17
4.060000E+03	9.579912E-16	6.331443E-17
4.070000E+03	9.648944E-16	6.257608E-17
4.080000E+03	9.714915E-16	6.184042E-17
4.090000E+03	9.778016E-16	6.110746E-17
4.100000E+03	9.837950E-16	6.037389E-17
4.110000E+03	9.895483E-16	5.964274E-17
4.120000E+03	9.950126E-16	5.890916E-17
4.130000E+03	1.000268E-15	5.817600E-17
4.140000E+03	1.005343E-15	5.744299E-17
4.150000E+03	1.010198E-15	5.670586E-17
4.160000E+03	1.014912E-15	5.596749E-17
4.170000E+03	1.019494E-15	5.522676E-17
4.180000E+03	1.023956E-15	5.448290E-17
4.190000E+03	1.028351E-15	5.373786E-17
4.200000E+03	1.032670E-15	5.299022E-17
4.210000E+03	1.036967E-15	5.224244E-17
4.220000E+03	1.041232E-15	5.149387E-17
4.230000E+03	1.045522E-15	5.074758E-17
4.240000E+03	1.049847E-15	5.000472E-17
4.250000E+03	1.054242E-15	4.926792E-17
4.260000E+03	1.058698E-15	4.853815E-17
4.270000E+03	1.063269E-15	4.781978E-17
4.280000E+03	1.067965E-15	4.711556E-17
4.290000E+03	1.072797E-15	4.642877E-17
4.300000E+03	1.077794E-15	4.576406E-17
4.310000E+03	1.082962E-15	4.512571E-17
4.320000E+03	1.088327E-15	4.451942E-17
4.330000E+03	1.093890E-15	4.395065E-17
4.340000E+03	1.099651E-15	4.342550E-17
4.350000E+03	1.105648E-15	4.295209E-17
4.360000E+03	1.111837E-15	4.253594E-17
4.370000E+03	1.118268E-15	4.218651E-17
4.380000E+03	1.124912E-15	4.191029E-17
4.390000E+03	1.131756E-15	4.171417E-17
4.400000E+03	1.138822E-15	4.160567E-17
4.410000E+03	1.146057E-15	4.158827E-17
4.420000E+03	1.153489E-15	4.166247E-17
4.430000E+03	1.161068E-15	4.181879E-17
4.440000E+03	1.168776E-15	4.204721E-17
4.450000E+03	1.176556E-15	4.233530E-17
4.460000E+03	1.184402E-15	4.267187E-17
4.470000E+03	1.192287E-15	4.304474E-17
4.480000E+03	1.200164E-15	4.344109E-17
4.490000E+03	1.208000E-15	4.384905E-17
4.500000E+03	1.215779E-15	4.425784E-17
4.510000E+03	1.223446E-15	4.465604E-17
4.520000E+03	1.230961E-15	4.503362E-17
4.530000E+03	1.238285E-15	4.538133E-17
4.540000E+03	1.245376E-15	4.569084E-17
4.550000E+03	1.252190E-15	4.595477E-17
4.560000E+03	1.258687E-15	4.616678E-17
4.570000E+03	1.264823E-15	4.632156E-17
4.580000E+03	1.270559E-15	4.641497E-17
4.590000E+03	1.275855E-15	4.644405E-17
4.600000E+03	1.280677E-15	4.640705E-17
4.610000E+03	1.284991E-15	4.630349E-17
4.620000E+03	1.288772E-15	4.613412E-17
4.630000E+03	1.292015E-15	4.590150E-17
4.640000E+03	1.294670E-15	4.560754E-17
4.650000E+03	1.296764E-15	4.525765E-17
4.660000E+03	1.298261E-15	4.485595E-17
4.670000E+03	1.299203E-15	4.440993E-17
4.680000E+03	1.299569E-15	4.392586E-17
4.690000E+03	1.299381E-15	4.341230E-17
4.700000E+03	1.298682E-15	4.287949E-17
4.710000E+03	1.297488E-15	4.233775E-17
4.720000E+03	1.295833E-15	4.179904E-17
4.730000E+03	1.293741E-15	4.127585E-17
4.740000E+03	1.291254E-15	4.078194E-17
4.750000E+03	1.288415E-15	4.033154E-17
4.760000E+03	1.285235E-15	3.993792E-17
4.770000E+03	1.281759E-15	3.961476E-17
4.780000E+03	1.278030E-15	3.937449E-17
4.790000E+03	1.274075E-15	3.922718E-17
4.800000E+03	1.269980E-15	3.918173E-17
4.810000E+03	1.265777E-15	3.923566E-17
4.820000E+03	1.261533E-15	3.937965E-17
4.830000E+03	1.257339E-15	3.960314E-17
4.840000E+03	1.253209E-15	3.989201E-17
4.850000E+03	1.249212E-15	4.023350E-17
4.860000E+03	1.245397E-15	4.061457E-17
4.870000E+03	1.241808E-15	4.102288E-17
4.880000E+03	1.238456E-15	4.144630E-17
4.890000E+03	1.235405E-15	4.187595E-17
4.900000E+03	1.232645E-15	4.230214E-17
4.910000E+03	1.230203E-15	4.271820E-17
4.920000E+03	1.228119E-15	4.311950E-17
4.930000E+03	1.226385E-15	4.350140E-17
4.940000E+03	1.225019E-15	4.386151E-17
4.950000E+03	1.224009E-15	4.419760E-17
4.960000E+03	1.223395E-15	4.451035E-17
4.970000E+03	1.223134E-15	4.479817E-17
4.980000E+03	1.223264E-15	4.506300E-17
4.990000E+03	1.223768E-15	4.530509E-17
5.000000E+03	1.224642E-15	4.552527E-17
5.010000E+03	1.225900E-15	4.572486E-17
5.020000E+03	1.227529E-15	4.590395E-17
5.030000E+03	1.229559E-15	4.606383E-17
5.040000E+03	1.231967E-15	4.620341E-17
5.050000E+03	1.234788E-15	4.632317E-17
5.060000E+03	1.238004E-15	4.642116E-17
5.070000E+03	1.241653E-15	4.649708E-17
5.080000E+03	1.245746E-15	4.654931E-17
5.090000E+03	1.250281E-15	4.657554E-17
5.100000E+03	1.255281E-15	4.657436E-17
5.110000E+03	1.260755E-15	4.654376E-17
5.120000E+03	1.266698E-15	4.648125E-17
5.130000E+03	1.273127E-15	4.638531E-17
5.140000E+03	1.280046E-15	4.625398E-17
5.150000E+03	1.287451E-15	4.608530E-17
5.160000E+03	1.295326E-15	4.587692E-17
5.170000E+03	1.303686E-15	4.562802E-17
5.180000E+03	1.312492E-15	4.533599E-17
5.190000E+03	1.321752E-15	4.500035E-17
5.200000E+03	1.331430E-15	4.461940E-17
5.210000E+03	1.341482E-15	4.419183E-17
5.220000E+03	1.351891E-15	4.371770E-17
5.230000E+03	1.362635E-15	4.319763E-17
5.240000E+03	1.373643E-15	4.263153E-17
5.250000E+03	1.384901E-15	4.202195E-17
5.260000E+03	1.396331E-15	4.137059E-17
5.270000E+03	1.407896E-15	4.068159E-17
5.280000E+03	1.419540E-15	3.995997E-17
5.290000E+03	1.431190E-15	3.921197E-17
5.300000E+03	1.442811E-15	3.844705E-17
5.310000E+03	1.454307E-15	3.767542E-17
5.320000E+03	1.465608E-15	3.691092E-17
5.330000E+03	1.476670E-15	3.617125E-17
5.340000E+03	1.487387E-15	3.547588E-17
5.350000E+03	1.497681E-15	3.484814E-17
5.360000E+03	1.507489E-15	3.431430E-17
5.370000E+03	1.516733E-15	3.390172E-17
5.380000E+03	1.525306E-15	3.363687E-17
5.390000E+03	1.533167E-15	3.354520E-17
5.400000E+03	1.540225E-15	3.364026E-17
5.410000E+03	1.546394E-15	3.391021E-17
5.420000E+03	1.551592E-15	3.433364E-17
5.430000E+03	1.555746E-15	3.488546E-17
5.440000E+03	1.558793E-15	3.553898E-17
5.450000E+03	1.560686E-15	3.626763E-17
5.460000E+03	1.561389E-15	3.704624E-17
5.470000E+03	1.560867E-15	3.785141E-17
5.480000E+03	1.559119E-15	3.866279E-17
5.490000E+03	1.556191E-15	3.946372E-17
5.500000E+03	1.552086E-15	4.023895E-17
5.510000E+03	1.546872E-15	4.097738E-17
5.520000E+03	1.540623E-15	4.167031E-17
5.530000E+03	1.533466E-15	4.231252E-17
5.540000E+03	1.525499E-15	4.289993E-17
5.550000E+03	1.516858E-15	4.343103E-17
5.560000E+03	1.507684E-15	4.390568E-17
5.570000E+03	1.498147E-15	4.432575E-17
5.580000E+03	1.488447E-15	4.469479E-17
5.590000E+03	1.478748E-15	4.501589E-17
5.600000E+03	1.469264E-15	4.529401E-17
5.610000E+03	1.460207E-15	4.553440E-17
5.620000E+03	1.451746E-15	4.574093E-17
5.630000E+03	1.444097E-15	4.591910E-17
5.640000E+03	1.437410E-15	4.607239E-17
5.650000E+03	1.431867E-15	4.620538E-17
5.660000E+03	1.427620E-15	4.632198E-17
5.670000E+03	1.424808E-15	4.642587E-17
5.680000E+03	1.423553E-15	4.652054E-17
5.690000E+03	1.423951E-15	4.660879E-17
5.700000E+03	1.426105E-15	4.669408E-17
5.710000E+03	1.430091E-15	4.677916E-17
5.720000E+03	1.435949E-15	4.686607E-17
5.730000E+03	1.443717E-15	4.695706E-17
5.740000E+03	1.453425E-15	4.705468E-17
5.750000E+03	1.465053E-15	4.716041E-17
5.760000E+03	1.478570E-15	4.727616E-17
5.770000E+03	1.493905E-15	4.740331E-17
5.780000E+03	1.510999E-15	4.754462E-17
5.790000E+03	1.529703E-15	4.770092E-17
5.800000E+03	1.549879E-15	4.787424E-17
5.810000E+03	1.571322E-15	4.806529E-17
5.820000E+03	1.593808E-15	4.827462E-17
5.830000E+03	1.617090E-15	4.850228E-17
5.840000E+03	1.640848E-15	4.874567E-17
5.850000E+03	1.664780E-15	4.900197E-17
5.860000E+03	1.688531E-15	4.926573E-17
5.870000E+03	1.711771E-15	4.953065E-17
5.880000E+03	1.734148E-15	4.978851E-17
5.890000E+03	1.755282E-15	5.002905E-17
5.900000E+03	1.774859E-15	5.024301E-17
5.910000E+03	1.792553E-15	5.042032E-17
5.920000E+03	1.808121E-15	5.055304E-17
5.930000E+03	1.821277E-15	5.063193E-17
5.940000E+03	1.831867E-15	5.065143E-17
5.950000E+03	1.839728E-15	5.060537E-17
5.960000E+03	1.844824E-15	5.049079E-17
5.970000E+03	1.847116E-15	5.030390E-17
5.980000E+03	1.846661E-15	5.004294E-17
5.990000E+03	1.843590E-15	4.970748E-17
6.000000E+03	1.838072E-15	4.929730E-17
6.010000E+03	1.830280E-15	4.881181E-17
6.020000E+03	1.820497E-15	4.825280E-17
6.030000E+03	1.808956E-15	4.762060E-17
6.040000E+03	1.795978E-15	4.691782E-17
6.050000E+03	1.781819E-15	4.614569E-17
6.060000E+03	1.766787E-15	4.530719E-17
6.070000E+03	1.751160E-15	4.440522E-17
6.080000E+03	1.735219E-15	4.344349E-17
6.090000E+03	1.719178E-15	4.242485E-17
6.100000E+03	1.703276E-15	4.135398E-17
6.110000E+03	1.687713E-15	4.023595E-17
6.120000E+03	1.672680E-15	3.907722E-17
6.130000E+03	1.658326E-15	3.788532E-17
6.140000E+03	1.644778E-15	3.666959E-17
6.150000E+03	1.632168E-15	3.544244E-17
6.160000E+03	1.620577E-15	3.421841E-17
6.170000E+03	1.610097E-15	3.301618E-17
6.180000E+03	1.600781E-15	3.185812E-17
6.190000E+03	1.592686E-15	3.077145E-17
6.200000E+03	1.585757E-15	2.978646E-17
6.210000E+03	1.579990E-15	2.893928E-17
6.220000E+03	1.575343E-15	2.826887E-17
6.230000E+03	1.571781E-15	2.781540E-17
6.240000E+03	1.569282E-15	2.761641E-17
6.250000E+03	1.567797E-15	2.769378E-17
6.260000E+03	1.567186E-15	2.802746E-17
6.270000E+03	1.567273E-15	2.858113E-17
6.280000E+03	1.567912E-15	2.931461E-17
6.290000E+03	1.568997E-15	3.018786E-17
6.300000E+03	1.570376E-15	3.116199E-17
6.310000E+03	1.571958E-15	3.220291E-17
6.320000E+03	1.573655E-15	3.328087E-17
6.330000E+03	1.575391E-15	3.437085E-17
6.340000E+03	1.577121E-15	3.545261E-17
6.350000E+03	1.578780E-15	3.650924E-17
6.360000E+03	1.580347E-15	3.752810E-17
6.370000E+03	1.581808E-15	3.849976E-17
6.380000E+03	1.583111E-15	3.941634E-17
6.390000E+03	1.584270E-15	4.027398E-17
6.400000E+03	1.585257E-15	4.106968E-17
6.410000E+03	1.586059E-15	4.180260E-17
6.420000E+03	1.586700E-15	4.247417E-17
6.430000E+03	1.587120E-15	4.308472E-17
6.440000E+03	1.587357E-15	4.363799E-17
6.450000E+03	1.587369E-15	4.413600E-17
6.460000E+03	1.587161E-15	4.458237E-17
6.470000E+03	1.586706E-15	4.497989E-17
6.480000E+03	1.586012E-15	4.533220E-17
6.490000E+03	1.585055E-15	4.564179E-17
6.500000E+03	1.583844E-15	4.591178E-17
6.510000E+03	1.582356E-15	4.614393E-17
6.520000E+03	1.580618E-15	4.634105E-17
6.530000E+03	1.578607E-15	4.650409E-17
6.540000E+03	1.576363E-15	4.663572E-17
6.550000E+03	1.573859E-15	4.673657E-17
6.560000E+03	1.571095E-15	4.680848E-17
6.570000E+03	1.568053E-15	4.685336E-17
6.580000E+03	1.564744E-15	4.687499E-17
6.590000E+03	1.561145E-15	4.687725E-17
6.600000E+03	1.557214E-15	4.686453E-17
6.610000E+03	1.552959E-15	4.684356E-17
6.620000E+03	1.548355E-15	4.682041E-17
6.630000E+03	1.543380E-15	4.680088E-17
6.640000E+03	1.538030E-15	4.679042E-17
6.650000E+03	1.532292E-15	4.679261E-17
6.660000E+03	1.526141E-15	4.680881E-17
6.670000E+03	1.519613E-15	4.684024E-17
6.680000E+03	1.512701E-15	4.688496E-17
6.690000E+03	1.505448E-15	4.694070E-17
6.700000E+03	1.497873E-15	4.700312E-17
6.710000E+03	1.490040E-15	4.706827E-17
6.720000E+03	1.482011E-15	4.713145E-17
6.730000E+03	1.473858E-15	4.718806E-17
6.740000E+03	1.465667E-15	4.723403E-17
6.750000E+03	1.457529E-15	4.726615E-17
6.760000E+03	1.449548E-15	4.728226E-17
6.770000E+03	1.441846E-15	4.728199E-17
6.780000E+03	1.434521E-15	4.726520E-17
6.790000E+03	1.427687E-15	4.723342E-17
6.800000E+03	1.421477E-15	4.718976E-17
6.810000E+03	1.415991E-15	4.713704E-17
6.820000E+03	1.411358E-15	4.707964E-17
6.830000E+03	1.407670E-15	4.702106E-17
6.840000E+03	1.405047E-15	4.696589E-17
6.850000E+03	1.403568E-15	4.691736E-17
6.860000E+03	1.403333E-15	4.687932E-17
6.870000E+03	1.404418E-15	4.685446E-17
6.880000E+03	1.406851E-15	4.684362E-17
6.890000E+03	1.410729E-15	4.684959E-17
6.900000E+03	1.416053E-15	4.687172E-17
6.910000E+03	1.422844E-15	4.690988E-17
6.920000E+03	1.431124E-15	4.696412E-17
6.930000E+03	1.440882E-15	4.703381E-17
6.940000E+03	1.452063E-15	4.711721E-17
6.950000E+03	1.464681E-15	4.721557E-17
6.960000E+03	1.478631E-15	4.732710E-17
6.970000E+03	1.493883E-15	4.745319E-17
6.980000E+03	1.510340E-15	4.759395E-17
6.990000E+03	1.527910E-15	4.775042E-17
7.000000E+03	1.546489E-15	4.792404E-17
7.010000E+03	1.565958E-15	4.811653E-17
7.020000E+03	1.586189E-15	4.832987E-17
7.030000E+03	1.607046E-15	4.856621E-17
7.040000E+03	1.628362E-15	4.882719E-17
7.050000E+03	1.650022E-15	4.911623E-17
7.060000E+03	1.671807E-15	4.943376E-17
7.070000E+03	1.693594E-15	4.978294E-17
7.080000E+03	1.715219E-15	5.016543E-17
7.090000E+03	1.736476E-15	5.058113E-17
7.100000E+03	1.757246E-15	5.103152E-17
7.110000E+03	1.777330E-15	5.151456E-17
7.120000E+03	1.796601E-15	5.202873E-17
7.130000E+03	1.814893E-15	5.256979E-17
7.140000E+03	1.832090E-15	5.313333E-17
7.150000E+03	1.848065E-15	5.371305E-17
7.160000E+03	1.862646E-15	5.430025E-17
7.170000E+03	1.875734E-15	5.488745E-17
7.180000E+03	1.887214E-15	5.546602E-17
7.190000E+03	1.896948E-15	5.602639E-17
7.200000E+03	1.904850E-15	5.656039E-17
7.210000E+03	1.910791E-15	5.705863E-17
7.220000E+03	1.914648E-15	5.751211E-17
7.230000E+03	1.916376E-15	5.791441E-17
7.240000E+03	1.915849E-15	5.825699E-17
7.250000E+03	1.913021E-15	5.853425E-17
7.260000E+03	1.907818E-15	5.874013E-17
7.270000E+03	1.900207E-15	5.887039E-17
7.280000E+03	1.890155E-15	5.892120E-17
7.290000E+03	1.877725E-15	5.889199E-17
7.300000E+03	1.862912E-15	5.878019E-17
7.310000E+03	1.845809E-15	5.858609E-17
7.320000E+03	1.826493E-15	5.830888E-17
7.330000E+03	1.805092E-15	5.794863E-17
7.340000E+03	1.781757E-15	5.750531E-17
7.350000E+03	1.756661E-15	5.697869E-17
7.360000E+03	1.729993E-15	5.636825E-17
7.370000E+03	1.701952E-15	5.567313E-17
7.380000E+03	1.672743E-15	5.489208E-17
7.390000E+03	1.642570E-15	5.402343E-17
7.400000E+03	1.611612E-15	5.306448E-17
7.410000E+03	1.580080E-15	5.201356E-17
7.420000E+03	1.548134E-15	5.086764E-17
7.430000E+03	1.515961E-15	4.962524E-17
7.440000E+03	1.483715E-15	4.828489E-17
7.450000E+03	1.451539E-15	4.684617E-17
7.460000E+03	1.419525E-15	4.530896E-17
7.470000E+03	1.387848E-15	4.367770E-17
7.480000E+03	1.356579E-15	4.195573E-17
7.490000E+03	1.325817E-15	4.014940E-17
7.500000E+03	1.295651E-15	3.826702E-17
7.510000E+03	1.266174E-15	3.631934E-17
7.520000E+03	1.237457E-15	3.431878E-17
7.530000E+03	1.209527E-15	3.227948E-17
7.540000E+03	1.182468E-15	3.022037E-17
7.550000E+03	1.156326E-15	2.816337E-17
7.560000E+03	1.131108E-15	2.613481E-17
7.570000E+03	1.106876E-15	2.416920E-17
7.580000E+03	1.083655E-15	2.230905E-17
7.590000E+03	1.061451E-15	2.060758E-17
7.600000E+03	1.040281E-15	1.913055E-17
7.610000E+03	1.020168E-15	1.795459E-17
7.620000E+03	1.001119E-15	1.715913E-17
7.630000E+03	9.831232E-16	1.681119E-17
7.640000E+03	9.661842E-16	1.694169E-17
7.650000E+03	9.502385E-16	1.751112E-17
7.660000E+03	9.352468E-16	1.844226E-17
7.670000E+03	9.211215E-16	1.964912E-17
7.680000E+03	9.078258E-16	2.105390E-17
7.690000E+03	8.952772E-16	2.259172E-17
7.700000E+03	8.834433E-16	2.421349E-17
7.710000E+03	8.722592E-16	2.588187E-17
7.720000E+03	8.616746E-16	2.756967E-17
7.730000E+03	8.516422E-16	2.925704E-17
7.740000E+03	8.421284E-16	3.092996E-17
7.750000E+03	8.330801E-16	3.257752E-17
7.760000E+03	8.244689E-16	3.419247E-17
