#wls	flux	fluxerr
1.600000E+03	7.676004E-17	6.233956E-17
1.640000E+03	7.790503E-17	6.268764E-17
1.680000E+03	7.912113E-17	6.306004E-17
1.720000E+03	8.042715E-17	6.346904E-17
1.760000E+03	8.182727E-17	6.391476E-17
1.800000E+03	8.332588E-17	6.439726E-17
1.840000E+03	8.492765E-17	6.491651E-17
1.880000E+03	8.665419E-17	6.548503E-17
1.920000E+03	8.851161E-17	6.610282E-17
1.960000E+03	9.048903E-17	6.675696E-17
2.000000E+03	9.262761E-17	6.747268E-17
2.040000E+03	9.491752E-17	6.823681E-17
2.080000E+03	9.738470E-17	6.906170E-17
2.120000E+03	1.000194E-16	6.993353E-17
2.160000E+03	1.028491E-16	7.086428E-17
2.200000E+03	1.059034E-16	7.186592E-17
2.240000E+03	1.091737E-16	7.292350E-17
2.280000E+03	1.126913E-16	7.404827E-17
2.320000E+03	1.164475E-16	7.522401E-17
2.360000E+03	1.205183E-16	7.648822E-17
2.400000E+03	1.248535E-16	7.779604E-17
2.440000E+03	1.295325E-16	7.918372E-17
2.480000E+03	1.345486E-16	8.063174E-17
2.520000E+03	1.399402E-16	8.214699E-17
2.560000E+03	1.457234E-16	8.372116E-17
2.600000E+03	1.519387E-16	8.535835E-17
2.640000E+03	1.586280E-16	8.706099E-17
2.680000E+03	1.657819E-16	8.880120E-17
2.720000E+03	1.734673E-16	9.059102E-17
2.760000E+03	1.817541E-16	9.243978E-17
2.800000E+03	1.906287E-16	9.431129E-17
2.840000E+03	2.001577E-16	9.620810E-17
2.880000E+03	2.104077E-16	9.812849E-17
2.920000E+03	2.214130E-16	1.000519E-16
2.960000E+03	2.332015E-16	1.019527E-16
3.000000E+03	2.458887E-16	1.038403E-16
3.010000E+03	2.492062E-16	1.043071E-16
3.020000E+03	2.526007E-16	1.047782E-16
3.030000E+03	2.560394E-16	1.052391E-16
3.040000E+03	2.595217E-16	1.056892E-16
3.050000E+03	2.630796E-16	1.061406E-16
3.060000E+03	2.666796E-16	1.065791E-16
3.070000E+03	2.703872E-16	1.070302E-16
3.080000E+03	2.741355E-16	1.074663E-16
3.090000E+03	2.779233E-16	1.078864E-16
3.100000E+03	2.818169E-16	1.083156E-16
3.110000E+03	2.857480E-16	1.087265E-16
3.120000E+03	2.897832E-16	1.091438E-16
3.130000E+03	2.938535E-16	1.095405E-16
3.140000E+03	2.979915E-16	1.099283E-16
3.150000E+03	3.022304E-16	1.103185E-16
3.160000E+03	3.064998E-16	1.106844E-16
3.170000E+03	3.108671E-16	1.110498E-16
3.180000E+03	3.152962E-16	1.114007E-16
3.190000E+03	3.197851E-16	1.117358E-16
3.200000E+03	3.243669E-16	1.120659E-16
3.210000E+03	3.290397E-16	1.123892E-16
3.220000E+03	3.337307E-16	1.126801E-16
3.230000E+03	3.385435E-16	1.129731E-16
3.240000E+03	3.434047E-16	1.132425E-16
3.250000E+03	3.483473E-16	1.134986E-16
3.260000E+03	3.533683E-16	1.137397E-16
3.270000E+03	3.584649E-16	1.139638E-16
3.280000E+03	3.636338E-16	1.141694E-16
3.290000E+03	3.688714E-16	1.143545E-16
3.300000E+03	3.741743E-16	1.145173E-16
3.310000E+03	3.795385E-16	1.146562E-16
3.320000E+03	3.849962E-16	1.147801E-16
3.330000E+03	3.905432E-16	1.148870E-16
3.340000E+03	3.961387E-16	1.149642E-16
3.350000E+03	4.017778E-16	1.150098E-16
3.360000E+03	4.075286E-16	1.150430E-16
3.370000E+03	4.133126E-16	1.150408E-16
3.380000E+03	4.191610E-16	1.150117E-16
3.390000E+03	4.251044E-16	1.149636E-16
3.400000E+03	4.310637E-16	1.148747E-16
3.410000E+03	4.371057E-16	1.147627E-16
3.420000E+03	4.432236E-16	1.146254E-16
3.430000E+03	4.493740E-16	1.144512E-16
3.440000E+03	4.555496E-16	1.142384E-16
3.450000E+03	4.618158E-16	1.140036E-16
3.460000E+03	4.680919E-16	1.137265E-16
3.470000E+03	4.744424E-16	1.134231E-16
3.480000E+03	4.807861E-16	1.130741E-16
3.490000E+03	4.871869E-16	1.126951E-16
3.500000E+03	4.936354E-16	1.122841E-16
3.510000E+03	5.000861E-16	1.118310E-16
3.520000E+03	5.065652E-16	1.113426E-16
3.530000E+03	5.130625E-16	1.108172E-16
3.540000E+03	5.195677E-16	1.102533E-16
3.550000E+03	5.260700E-16	1.096497E-16
3.560000E+03	5.325585E-16	1.090051E-16
3.570000E+03	5.390573E-16	1.083258E-16
3.580000E+03	5.455197E-16	1.076036E-16
3.590000E+03	5.520039E-16	1.068514E-16
3.600000E+03	5.584278E-16	1.060547E-16
3.610000E+03	5.648143E-16	1.052198E-16
3.620000E+03	5.711852E-16	1.043526E-16
3.630000E+03	5.774934E-16	1.034462E-16
3.640000E+03	5.837602E-16	1.025067E-16
3.650000E+03	5.899391E-16	1.015282E-16
3.660000E+03	5.960840E-16	1.005223E-16
3.670000E+03	6.021151E-16	9.947807E-17
3.680000E+03	6.080858E-16	9.840708E-17
3.690000E+03	6.139824E-16	9.730970E-17
3.700000E+03	6.197272E-16	9.617657E-17
3.710000E+03	6.254043E-16	9.502398E-17
3.720000E+03	6.309684E-16	9.384791E-17
3.730000E+03	6.364070E-16	9.264974E-17
3.740000E+03	6.417079E-16	9.143108E-17
3.750000E+03	6.468594E-16	9.019376E-17
3.760000E+03	6.519111E-16	8.894808E-17
3.770000E+03	6.567905E-16	8.768750E-17
3.780000E+03	6.615175E-16	8.641833E-17
3.790000E+03	6.660820E-16	8.514277E-17
3.800000E+03	6.704746E-16	8.386320E-17
3.810000E+03	6.747153E-16	8.258559E-17
3.820000E+03	6.787675E-16	8.130883E-17
3.830000E+03	6.826800E-16	8.004208E-17
3.840000E+03	6.863906E-16	7.878113E-17
3.850000E+03	6.899218E-16	7.753176E-17
3.860000E+03	6.932695E-16	7.629639E-17
3.870000E+03	6.964306E-16	7.507739E-17
3.880000E+03	6.994290E-16	7.387979E-17
3.890000E+03	7.022380E-16	7.270291E-17
3.900000E+03	7.048834E-16	7.155137E-17
3.910000E+03	7.073666E-16	7.042684E-17
3.920000E+03	7.096662E-16	6.932849E-17
3.930000E+03	7.118114E-16	6.826018E-17
3.940000E+03	7.138310E-16	6.722521E-17
3.950000E+03	7.156857E-16	6.622008E-17
3.960000E+03	7.174078E-16	6.524774E-17
3.970000E+03	7.190076E-16	6.430868E-17
3.980000E+03	7.204971E-16	6.340320E-17
3.990000E+03	7.219108E-16	6.253321E-17
4.000000E+03	7.232207E-16	6.169485E-17
4.010000E+03	7.244851E-16	6.089147E-17
4.020000E+03	7.256802E-16	6.011915E-17
4.030000E+03	7.268458E-16	5.937911E-17
4.040000E+03	7.280213E-16	5.867226E-17
4.050000E+03	7.291887E-16	5.799473E-17
4.060000E+03	7.303713E-16	5.734588E-17
4.070000E+03	7.316119E-16	5.672650E-17
4.080000E+03	7.329344E-16	5.613582E-17
4.090000E+03	7.343280E-16	5.557042E-17
4.100000E+03	7.358552E-16	5.503246E-17
4.110000E+03	7.375075E-16	5.451879E-17
4.120000E+03	7.393301E-16	5.403034E-17
4.130000E+03	7.413339E-16	5.356559E-17
4.140000E+03	7.435312E-16	5.312326E-17
4.150000E+03	7.459837E-16	5.270572E-17
4.160000E+03	7.486717E-16	5.230968E-17
4.170000E+03	7.516409E-16	5.193664E-17
4.180000E+03	7.549203E-16	5.158707E-17
4.190000E+03	7.585234E-16	5.126055E-17
4.200000E+03	7.624639E-16	5.095686E-17
4.210000E+03	7.667708E-16	5.067702E-17
4.220000E+03	7.714576E-16	5.042121E-17
4.230000E+03	7.765520E-16	5.019076E-17
4.240000E+03	7.820667E-16	4.998621E-17
4.250000E+03	7.880279E-16	4.980922E-17
4.260000E+03	7.944324E-16	4.965979E-17
4.270000E+03	8.013044E-16	4.953991E-17
4.280000E+03	8.086525E-16	4.945083E-17
4.290000E+03	8.164980E-16	4.939483E-17
4.300000E+03	8.248321E-16	4.937258E-17
4.310000E+03	8.336580E-16	4.938576E-17
4.320000E+03	8.429766E-16	4.943614E-17
4.330000E+03	8.527857E-16	4.952553E-17
4.340000E+03	8.630666E-16	4.965495E-17
4.350000E+03	8.738102E-16	4.982613E-17
4.360000E+03	8.849903E-16	5.003990E-17
4.370000E+03	8.965758E-16	5.029685E-17
4.380000E+03	9.085447E-16	5.059794E-17
4.390000E+03	9.208152E-16	5.094066E-17
4.400000E+03	9.333677E-16	5.132564E-17
4.410000E+03	9.461224E-16	5.174974E-17
4.420000E+03	9.589934E-16	5.220875E-17
4.430000E+03	9.719158E-16	5.269873E-17
4.440000E+03	9.848045E-16	5.321402E-17
4.450000E+03	9.975537E-16	5.374728E-17
4.460000E+03	1.010120E-15	5.429397E-17
4.470000E+03	1.022425E-15	5.484732E-17
4.480000E+03	1.034443E-15	5.540288E-17
4.490000E+03	1.046099E-15	5.595343E-17
4.500000E+03	1.057360E-15	5.649368E-17
4.510000E+03	1.068158E-15	5.701661E-17
4.520000E+03	1.078441E-15	5.751590E-17
4.530000E+03	1.088127E-15	5.798383E-17
4.540000E+03	1.097190E-15	5.841595E-17
4.550000E+03	1.105540E-15	5.880441E-17
4.560000E+03	1.113113E-15	5.914345E-17
4.570000E+03	1.119884E-15	5.942945E-17
4.580000E+03	1.125789E-15	5.965734E-17
4.590000E+03	1.130786E-15	5.982372E-17
4.600000E+03	1.134843E-15	5.992618E-17
4.610000E+03	1.137937E-15	5.996342E-17
4.620000E+03	1.140042E-15	5.993448E-17
4.630000E+03	1.141173E-15	5.984108E-17
4.640000E+03	1.141339E-15	5.968535E-17
4.650000E+03	1.140562E-15	5.947053E-17
4.660000E+03	1.138864E-15	5.920024E-17
4.670000E+03	1.136288E-15	5.887983E-17
4.680000E+03	1.132902E-15	5.851626E-17
4.690000E+03	1.128743E-15	5.811513E-17
4.700000E+03	1.123909E-15	5.768554E-17
4.710000E+03	1.118465E-15	5.723493E-17
4.720000E+03	1.112493E-15	5.677176E-17
4.730000E+03	1.106082E-15	5.630464E-17
4.740000E+03	1.099308E-15	5.584148E-17
4.750000E+03	1.092263E-15	5.539062E-17
4.760000E+03	1.085026E-15	5.495934E-17
4.770000E+03	1.077700E-15	5.455564E-17
4.780000E+03	1.070349E-15	5.418483E-17
4.790000E+03	1.063072E-15	5.385327E-17
4.800000E+03	1.055927E-15	5.356443E-17
4.810000E+03	1.048982E-15	5.332105E-17
4.820000E+03	1.042326E-15	5.312588E-17
4.830000E+03	1.036005E-15	5.297887E-17
4.840000E+03	1.030085E-15	5.288046E-17
4.850000E+03	1.024590E-15	5.282858E-17
4.860000E+03	1.019576E-15	5.282246E-17
4.870000E+03	1.015079E-15	5.286030E-17
4.880000E+03	1.011118E-15	5.293940E-17
4.890000E+03	1.007732E-15	5.305799E-17
4.900000E+03	1.004919E-15	5.321238E-17
4.910000E+03	1.002705E-15	5.340051E-17
4.920000E+03	1.001091E-15	5.361908E-17
4.930000E+03	1.000095E-15	5.386593E-17
4.940000E+03	9.996981E-16	5.413705E-17
4.950000E+03	9.999107E-16	5.443023E-17
4.960000E+03	1.000730E-15	5.474265E-17
4.970000E+03	1.002139E-15	5.507090E-17
4.980000E+03	1.004141E-15	5.541280E-17
4.990000E+03	1.006705E-15	5.576435E-17
5.000000E+03	1.009840E-15	5.612402E-17
5.010000E+03	1.013513E-15	5.648788E-17
5.020000E+03	1.017722E-15	5.685386E-17
5.030000E+03	1.022451E-15	5.721934E-17
5.040000E+03	1.027687E-15	5.758172E-17
5.050000E+03	1.033414E-15	5.793846E-17
5.060000E+03	1.039605E-15	5.828643E-17
5.070000E+03	1.046254E-15	5.862383E-17
5.080000E+03	1.053332E-15	5.894762E-17
5.090000E+03	1.060844E-15	5.925675E-17
5.100000E+03	1.068747E-15	5.954765E-17
5.110000E+03	1.077020E-15	5.981811E-17
5.120000E+03	1.085664E-15	6.006730E-17
5.130000E+03	1.094632E-15	6.029186E-17
5.140000E+03	1.103896E-15	6.048988E-17
5.150000E+03	1.113453E-15	6.066084E-17
5.160000E+03	1.123258E-15	6.080247E-17
5.170000E+03	1.133266E-15	6.091270E-17
5.180000E+03	1.143453E-15	6.099099E-17
5.190000E+03	1.153792E-15	6.103711E-17
5.200000E+03	1.164216E-15	6.104925E-17
5.210000E+03	1.174691E-15	6.102796E-17
5.220000E+03	1.185183E-15	6.097425E-17
5.230000E+03	1.195616E-15	6.088780E-17
5.240000E+03	1.205962E-15	6.077146E-17
5.250000E+03	1.216154E-15	6.062683E-17
5.260000E+03	1.226134E-15	6.045694E-17
5.270000E+03	1.235844E-15	6.026558E-17
5.280000E+03	1.245224E-15	6.005738E-17
5.290000E+03	1.254228E-15	5.983838E-17
5.300000E+03	1.262783E-15	5.961418E-17
5.310000E+03	1.270828E-15	5.939168E-17
5.320000E+03	1.278306E-15	5.917839E-17
5.330000E+03	1.285173E-15	5.898276E-17
5.340000E+03	1.291363E-15	5.881217E-17
5.350000E+03	1.296824E-15	5.867442E-17
5.360000E+03	1.301509E-15	5.857677E-17
5.370000E+03	1.305388E-15	5.852608E-17
5.380000E+03	1.308395E-15	5.852611E-17
5.390000E+03	1.310526E-15	5.858128E-17
5.400000E+03	1.311739E-15	5.869191E-17
5.410000E+03	1.312011E-15	5.885572E-17
5.420000E+03	1.311327E-15	5.906823E-17
5.430000E+03	1.309679E-15	5.932327E-17
5.440000E+03	1.307054E-15	5.961277E-17
5.450000E+03	1.303487E-15	5.992951E-17
5.460000E+03	1.298971E-15	6.026343E-17
5.470000E+03	1.293533E-15	6.060556E-17
5.480000E+03	1.287237E-15	6.094849E-17
5.490000E+03	1.280090E-15	6.128234E-17
5.500000E+03	1.272176E-15	6.160115E-17
5.510000E+03	1.263558E-15	6.189874E-17
5.520000E+03	1.254299E-15	6.216951E-17
5.530000E+03	1.244480E-15	6.240967E-17
5.540000E+03	1.234201E-15	6.261732E-17
5.550000E+03	1.223544E-15	6.279054E-17
5.560000E+03	1.212633E-15	6.293046E-17
5.570000E+03	1.201546E-15	6.303680E-17
5.580000E+03	1.190400E-15	6.311216E-17
5.590000E+03	1.179300E-15	6.315936E-17
5.600000E+03	1.168350E-15	6.318194E-17
5.610000E+03	1.157654E-15	6.318406E-17
5.620000E+03	1.147313E-15	6.317025E-17
5.630000E+03	1.137432E-15	6.314602E-17
5.640000E+03	1.128091E-15	6.311572E-17
5.650000E+03	1.119385E-15	6.308498E-17
5.660000E+03	1.111379E-15	6.305809E-17
5.670000E+03	1.104143E-15	6.303970E-17
5.680000E+03	1.097748E-15	6.303476E-17
5.690000E+03	1.092234E-15	6.304658E-17
5.700000E+03	1.087644E-15	6.307855E-17
5.710000E+03	1.084021E-15	6.313413E-17
5.720000E+03	1.081377E-15	6.321495E-17
5.730000E+03	1.079726E-15	6.332253E-17
5.740000E+03	1.079069E-15	6.345776E-17
5.750000E+03	1.079411E-15	6.362137E-17
5.760000E+03	1.080724E-15	6.381215E-17
5.770000E+03	1.082971E-15	6.402815E-17
5.780000E+03	1.086139E-15	6.426854E-17
5.790000E+03	1.090171E-15	6.452992E-17
5.800000E+03	1.095003E-15	6.480820E-17
5.810000E+03	1.100585E-15	6.509991E-17
5.820000E+03	1.106848E-15	6.540035E-17
5.830000E+03	1.113717E-15	6.570431E-17
5.840000E+03	1.121101E-15	6.600550E-17
5.850000E+03	1.128915E-15	6.629788E-17
5.860000E+03	1.137081E-15	6.657582E-17
5.870000E+03	1.145499E-15	6.683225E-17
5.880000E+03	1.154078E-15	6.706071E-17
5.890000E+03	1.162741E-15	6.725548E-17
5.900000E+03	1.171379E-15	6.740909E-17
5.910000E+03	1.179922E-15	6.751637E-17
5.920000E+03	1.188283E-15	6.757129E-17
5.930000E+03	1.196414E-15	6.757036E-17
5.940000E+03	1.204223E-15	6.750747E-17
5.950000E+03	1.211681E-15	6.738052E-17
5.960000E+03	1.218737E-15	6.718627E-17
5.970000E+03	1.225360E-15	6.692299E-17
5.980000E+03	1.231534E-15	6.658986E-17
5.990000E+03	1.237250E-15	6.618695E-17
6.000000E+03	1.242501E-15	6.571460E-17
6.010000E+03	1.247301E-15	6.517468E-17
6.020000E+03	1.251685E-15	6.457052E-17
6.030000E+03	1.255659E-15	6.390442E-17
6.040000E+03	1.259275E-15	6.318129E-17
6.050000E+03	1.262576E-15	6.240617E-17
6.060000E+03	1.265586E-15	6.158359E-17
6.070000E+03	1.268377E-15	6.072114E-17
6.080000E+03	1.270976E-15	5.982469E-17
6.090000E+03	1.273433E-15	5.890198E-17
6.100000E+03	1.275780E-15	5.796086E-17
6.110000E+03	1.278073E-15	5.701099E-17
6.120000E+03	1.280325E-15	5.606114E-17
6.130000E+03	1.282565E-15	5.512199E-17
6.140000E+03	1.284805E-15	5.420452E-17
6.150000E+03	1.287036E-15	5.332004E-17
6.160000E+03	1.289263E-15	5.248174E-17
6.170000E+03	1.291448E-15	5.170194E-17
6.180000E+03	1.293567E-15	5.099449E-17
6.190000E+03	1.295613E-15	5.037432E-17
6.200000E+03	1.297558E-15	4.985545E-17
6.210000E+03	1.299417E-15	4.945280E-17
6.220000E+03	1.301149E-15	4.917758E-17
6.230000E+03	1.302744E-15	4.903994E-17
6.240000E+03	1.304137E-15	4.904491E-17
6.250000E+03	1.305310E-15	4.919518E-17
6.260000E+03	1.306198E-15	4.948587E-17
6.270000E+03	1.306737E-15	4.990780E-17
6.280000E+03	1.306898E-15	5.045004E-17
6.290000E+03	1.306593E-15	5.109665E-17
6.300000E+03	1.305777E-15	5.183142E-17
6.310000E+03	1.304420E-15	5.263771E-17
6.320000E+03	1.302461E-15	5.349716E-17
6.330000E+03	1.299859E-15	5.439221E-17
6.340000E+03	1.296595E-15	5.530670E-17
6.350000E+03	1.292655E-15	5.622566E-17
6.360000E+03	1.287997E-15	5.713384E-17
6.370000E+03	1.282639E-15	5.801976E-17
6.380000E+03	1.276580E-15	5.887242E-17
6.390000E+03	1.269815E-15	5.968182E-17
6.400000E+03	1.262359E-15	6.044011E-17
6.410000E+03	1.254246E-15	6.114155E-17
6.420000E+03	1.245490E-15	6.178060E-17
6.430000E+03	1.236113E-15	6.235300E-17
6.440000E+03	1.226165E-15	6.285694E-17
6.450000E+03	1.215673E-15	6.329046E-17
6.460000E+03	1.204683E-15	6.365319E-17
6.470000E+03	1.193215E-15	6.394431E-17
6.480000E+03	1.181332E-15	6.416573E-17
6.490000E+03	1.169082E-15	6.431936E-17
6.500000E+03	1.156492E-15	6.440632E-17
6.510000E+03	1.143637E-15	6.443088E-17
6.520000E+03	1.130565E-15	6.439636E-17
6.530000E+03	1.117339E-15	6.430706E-17
6.540000E+03	1.104006E-15	6.416684E-17
6.550000E+03	1.090624E-15	6.398040E-17
6.560000E+03	1.077250E-15	6.375256E-17
6.570000E+03	1.063938E-15	6.348819E-17
6.580000E+03	1.050717E-15	6.319081E-17
6.590000E+03	1.037651E-15	6.286598E-17
6.600000E+03	1.024777E-15	6.251782E-17
6.610000E+03	1.012131E-15	6.215041E-17
6.620000E+03	9.997465E-16	6.176770E-17
6.630000E+03	9.876675E-16	6.137422E-17
6.640000E+03	9.759250E-16	6.097371E-17
6.650000E+03	9.645482E-16	6.056974E-17
6.660000E+03	9.535757E-16	6.016645E-17
6.670000E+03	9.430131E-16	5.976581E-17
6.680000E+03	9.329069E-16	5.937234E-17
6.690000E+03	9.232706E-16	5.898838E-17
6.700000E+03	9.141275E-16	5.861683E-17
6.710000E+03	9.055096E-16	5.826107E-17
6.720000E+03	8.974276E-16	5.792303E-17
6.730000E+03	8.899113E-16	5.760583E-17
6.740000E+03	8.829596E-16	5.731047E-17
6.750000E+03	8.766103E-16	5.704043E-17
6.760000E+03	8.708800E-16	5.679775E-17
6.770000E+03	8.657747E-16	5.658366E-17
6.780000E+03	8.612993E-16	5.639930E-17
6.790000E+03	8.574969E-16	5.624823E-17
6.800000E+03	8.543504E-16	5.612998E-17
6.810000E+03	8.518809E-16	5.604655E-17
6.820000E+03	8.501083E-16	5.599977E-17
6.830000E+03	8.490310E-16	5.599005E-17
6.840000E+03	8.486562E-16	5.601827E-17
6.850000E+03	8.489889E-16	5.608514E-17
6.860000E+03	8.500327E-16	5.619121E-17
6.870000E+03	8.517989E-16	5.633751E-17
6.880000E+03	8.542668E-16	5.652288E-17
6.890000E+03	8.574432E-16	5.674794E-17
6.900000E+03	8.613325E-16	5.701311E-17
6.910000E+03	8.659058E-16	5.731656E-17
6.920000E+03	8.711717E-16	5.765891E-17
6.930000E+03	8.771051E-16	5.803849E-17
6.940000E+03	8.836768E-16	5.845331E-17
6.950000E+03	8.908853E-16	5.890320E-17
6.960000E+03	8.986934E-16	5.938559E-17
6.970000E+03	9.070592E-16	5.989754E-17
6.980000E+03	9.159688E-16	6.043794E-17
6.990000E+03	9.253708E-16	6.100317E-17
7.000000E+03	9.352084E-16	6.158922E-17
7.010000E+03	9.454533E-16	6.219393E-17
7.020000E+03	9.560383E-16	6.281255E-17
7.030000E+03	9.669019E-16	6.344066E-17
7.040000E+03	9.779653E-16	6.407271E-17
7.050000E+03	9.891802E-16	6.470511E-17
7.060000E+03	1.000458E-15	6.533159E-17
7.070000E+03	1.011716E-15	6.594631E-17
7.080000E+03	1.022868E-15	6.654315E-17
7.090000E+03	1.033824E-15	6.711571E-17
7.100000E+03	1.044490E-15	6.765738E-17
7.110000E+03	1.054783E-15	6.816224E-17
7.120000E+03	1.064580E-15	6.862170E-17
7.130000E+03	1.073793E-15	6.902972E-17
7.140000E+03	1.082340E-15	6.938032E-17
7.150000E+03	1.090110E-15	6.966593E-17
7.160000E+03	1.097008E-15	6.988009E-17
7.170000E+03	1.102947E-15	7.001664E-17
7.180000E+03	1.107843E-15	7.006989E-17
7.190000E+03	1.111633E-15	7.003555E-17
7.200000E+03	1.114221E-15	6.990732E-17
7.210000E+03	1.115592E-15	6.968408E-17
7.220000E+03	1.115657E-15	6.936015E-17
7.230000E+03	1.114410E-15	6.893523E-17
7.240000E+03	1.111815E-15	6.840731E-17
7.250000E+03	1.107881E-15	6.777713E-17
7.260000E+03	1.102601E-15	6.704472E-17
7.270000E+03	1.096010E-15	6.621290E-17
7.280000E+03	1.088145E-15	6.528462E-17
7.290000E+03	1.079044E-15	6.426298E-17
7.300000E+03	1.068784E-15	6.315371E-17
7.310000E+03	1.057442E-15	6.196254E-17
7.320000E+03	1.045091E-15	6.069514E-17
7.330000E+03	1.031858E-15	5.936024E-17
7.340000E+03	1.017832E-15	5.796464E-17
7.350000E+03	1.003126E-15	5.651637E-17
7.360000E+03	9.878663E-16	5.502439E-17
7.370000E+03	9.721581E-16	5.349631E-17
7.380000E+03	9.561311E-16	5.194116E-17
7.390000E+03	9.398879E-16	5.036640E-17
7.400000E+03	9.235406E-16	4.878002E-17
7.410000E+03	9.072086E-16	4.719028E-17
7.420000E+03	8.909921E-16	4.560438E-17
7.430000E+03	8.749603E-16	4.402791E-17
7.440000E+03	8.592101E-16	4.246788E-17
7.450000E+03	8.438174E-16	4.093023E-17
7.460000E+03	8.288483E-16	3.942053E-17
7.470000E+03	8.143702E-16	3.794449E-17
7.480000E+03	8.004184E-16	3.650650E-17
7.490000E+03	7.870301E-16	3.511133E-17
7.500000E+03	7.742328E-16	3.376373E-17
7.510000E+03	7.620454E-16	3.246850E-17
7.520000E+03	7.504680E-16	3.123024E-17
7.530000E+03	7.395235E-16	3.005517E-17
7.540000E+03	7.291772E-16	2.894786E-17
7.550000E+03	7.194381E-16	2.791547E-17
7.560000E+03	7.102793E-16	2.696444E-17
7.570000E+03	7.016885E-16	2.610245E-17
7.580000E+03	6.936203E-16	2.533634E-17
7.590000E+03	6.860543E-16	2.467400E-17
7.600000E+03	6.789486E-16	2.412215E-17
7.610000E+03	6.722869E-16	2.368745E-17
7.620000E+03	6.660149E-16	2.337361E-17
7.630000E+03	6.600960E-16	2.318284E-17
7.640000E+03	6.545037E-16	2.311481E-17
7.650000E+03	6.491983E-16	2.316462E-17
7.660000E+03	6.441601E-16	2.332512E-17
7.670000E+03	6.393524E-16	2.358648E-17
7.680000E+03	6.347569E-16	2.393815E-17
7.690000E+03	6.303382E-16	2.436814E-17
7.700000E+03	6.260709E-16	2.486460E-17
7.710000E+03	6.219301E-16	2.541595E-17
7.720000E+03	6.179002E-16	2.601154E-17
7.730000E+03	6.139498E-16	2.664084E-17
7.740000E+03	6.100651E-16	2.729495E-17
7.750000E+03	6.062168E-16	2.796515E-17
7.760000E+03	6.023857E-16	2.864404E-17
