#wls	flux	fluxerr
1.600000E+03	8.054329E-17	6.577150E-17
1.640000E+03	8.198278E-17	6.634675E-17
1.680000E+03	8.352055E-17	6.696386E-17
1.720000E+03	8.514499E-17	6.761029E-17
1.760000E+03	8.689313E-17	6.831193E-17
1.800000E+03	8.873731E-17	6.904304E-17
1.840000E+03	9.073343E-17	6.984295E-17
1.880000E+03	9.283657E-17	7.067220E-17
1.920000E+03	9.510520E-17	7.157050E-17
1.960000E+03	9.751115E-17	7.251089E-17
2.000000E+03	1.000981E-16	7.352000E-17
2.040000E+03	1.028562E-16	7.458371E-17
2.080000E+03	1.057934E-16	7.570101E-17
2.120000E+03	1.089582E-16	7.689864E-17
2.160000E+03	1.123211E-16	7.814710E-17
2.200000E+03	1.159536E-16	7.948699E-17
2.240000E+03	1.198053E-16	8.087308E-17
2.280000E+03	1.239508E-16	8.234535E-17
2.320000E+03	1.284042E-16	8.390036E-17
2.360000E+03	1.331564E-16	8.551885E-17
2.400000E+03	1.382432E-16	8.720982E-17
2.440000E+03	1.437265E-16	8.899638E-17
2.480000E+03	1.495734E-16	9.084058E-17
2.520000E+03	1.558470E-16	9.276269E-17
2.560000E+03	1.625884E-16	9.476642E-17
2.600000E+03	1.697858E-16	9.682291E-17
2.640000E+03	1.775332E-16	9.896189E-17
2.680000E+03	1.858169E-16	1.011492E-16
2.720000E+03	1.947039E-16	1.033934E-16
2.760000E+03	2.042328E-16	1.056841E-16
2.800000E+03	2.144395E-16	1.080067E-16
2.840000E+03	2.253560E-16	1.103418E-16
2.880000E+03	2.370404E-16	1.126799E-16
2.920000E+03	2.495465E-16	1.150055E-16
2.960000E+03	2.629207E-16	1.172959E-16
3.000000E+03	2.772001E-16	1.195206E-16
3.010000E+03	2.809375E-16	1.200720E-16
3.020000E+03	2.847131E-16	1.206076E-16
3.030000E+03	2.885258E-16	1.211262E-16
3.040000E+03	2.924434E-16	1.216556E-16
3.050000E+03	2.963960E-16	1.221657E-16
3.060000E+03	3.004171E-16	1.226694E-16
3.070000E+03	3.044705E-16	1.231515E-16
3.080000E+03	3.086248E-16	1.236387E-16
3.090000E+03	3.128438E-16	1.241156E-16
3.100000E+03	3.170907E-16	1.245666E-16
3.110000E+03	3.214346E-16	1.250183E-16
3.120000E+03	3.258384E-16	1.254552E-16
3.130000E+03	3.303005E-16	1.258758E-16
3.140000E+03	3.348187E-16	1.262785E-16
3.150000E+03	3.394270E-16	1.266751E-16
3.160000E+03	3.440513E-16	1.270373E-16
3.170000E+03	3.487975E-16	1.274033E-16
3.180000E+03	3.535548E-16	1.277316E-16
3.190000E+03	3.584294E-16	1.280599E-16
3.200000E+03	3.633095E-16	1.283472E-16
3.210000E+03	3.683018E-16	1.286306E-16
3.220000E+03	3.733300E-16	1.288825E-16
3.230000E+03	3.784278E-16	1.291136E-16
3.240000E+03	3.835917E-16	1.293220E-16
3.250000E+03	3.888184E-16	1.295057E-16
3.260000E+03	3.941042E-16	1.296627E-16
3.270000E+03	3.994452E-16	1.297909E-16
3.280000E+03	4.048374E-16	1.298883E-16
3.290000E+03	4.103135E-16	1.299647E-16
3.300000E+03	4.158322E-16	1.300060E-16
3.310000E+03	4.213888E-16	1.300103E-16
3.320000E+03	4.270154E-16	1.299869E-16
3.330000E+03	4.326700E-16	1.299224E-16
3.340000E+03	4.383844E-16	1.298257E-16
3.350000E+03	4.441531E-16	1.296947E-16
3.360000E+03	4.499703E-16	1.295270E-16
3.370000E+03	4.558301E-16	1.293204E-16
3.380000E+03	4.617632E-16	1.290831E-16
3.390000E+03	4.676892E-16	1.287921E-16
3.400000E+03	4.736384E-16	1.284558E-16
3.410000E+03	4.796778E-16	1.280919E-16
3.420000E+03	4.856893E-16	1.276684E-16
3.430000E+03	4.917762E-16	1.272126E-16
3.440000E+03	4.978569E-16	1.267030E-16
3.450000E+03	5.039603E-16	1.261471E-16
3.460000E+03	5.100783E-16	1.255429E-16
3.470000E+03	5.162022E-16	1.248883E-16
3.480000E+03	5.223234E-16	1.241815E-16
3.490000E+03	5.284691E-16	1.234293E-16
3.500000E+03	5.345940E-16	1.226212E-16
3.510000E+03	5.407244E-16	1.217640E-16
3.520000E+03	5.468149E-16	1.208478E-16
3.530000E+03	5.529269E-16	1.198871E-16
3.540000E+03	5.590142E-16	1.188721E-16
3.550000E+03	5.650314E-16	1.177943E-16
3.560000E+03	5.710384E-16	1.166675E-16
3.570000E+03	5.770238E-16	1.154900E-16
3.580000E+03	5.829418E-16	1.142538E-16
3.590000E+03	5.888159E-16	1.129651E-16
3.600000E+03	5.946344E-16	1.116230E-16
3.610000E+03	6.003519E-16	1.102207E-16
3.620000E+03	6.060247E-16	1.087704E-16
3.630000E+03	6.116069E-16	1.072656E-16
3.640000E+03	6.171199E-16	1.057122E-16
3.650000E+03	6.225185E-16	1.041046E-16
3.660000E+03	6.278236E-16	1.024487E-16
3.670000E+03	6.330230E-16	1.007451E-16
3.680000E+03	6.381043E-16	9.899450E-17
3.690000E+03	6.430556E-16	9.719795E-17
3.700000E+03	6.478961E-16	9.536141E-17
3.710000E+03	6.525514E-16	9.347723E-17
3.720000E+03	6.571027E-16	9.156068E-17
3.730000E+03	6.614763E-16	8.960493E-17
3.740000E+03	6.657211E-16	8.762049E-17
3.750000E+03	6.697655E-16	8.560187E-17
3.760000E+03	6.736286E-16	8.355603E-17
3.770000E+03	6.773281E-16	8.148963E-17
3.780000E+03	6.808243E-16	7.940248E-17
3.790000E+03	6.841353E-16	7.730166E-17
3.800000E+03	6.872230E-16	7.518798E-17
3.810000E+03	6.901058E-16	7.306892E-17
3.820000E+03	6.927743E-16	7.094900E-17
3.830000E+03	6.952199E-16	6.883308E-17
3.840000E+03	6.974346E-16	6.672634E-17
3.850000E+03	6.994112E-16	6.463427E-17
3.860000E+03	7.011432E-16	6.256260E-17
3.870000E+03	7.026500E-16	6.051944E-17
3.880000E+03	7.039016E-16	5.850860E-17
3.890000E+03	7.048946E-16	5.653634E-17
3.900000E+03	7.056506E-16	5.461082E-17
3.910000E+03	7.061447E-16	5.273629E-17
3.920000E+03	7.064005E-16	5.092049E-17
3.930000E+03	7.063971E-16	4.916744E-17
3.940000E+03	7.061384E-16	4.748241E-17
3.950000E+03	7.056510E-16	4.587145E-17
3.960000E+03	7.049198E-16	4.433689E-17
3.970000E+03	7.039743E-16	4.288302E-17
3.980000E+03	7.027842E-16	4.150942E-17
3.990000E+03	7.014040E-16	4.021971E-17
4.000000E+03	6.998299E-16	3.901293E-17
4.010000E+03	6.980622E-16	3.788738E-17
4.020000E+03	6.961430E-16	3.684267E-17
4.030000E+03	6.940796E-16	3.587556E-17
4.040000E+03	6.919013E-16	3.498316E-17
4.050000E+03	6.896575E-16	3.416288E-17
4.060000E+03	6.873473E-16	3.340904E-17
4.070000E+03	6.850083E-16	3.271749E-17
4.080000E+03	6.826958E-16	3.208467E-17
4.090000E+03	6.804169E-16	3.150459E-17
4.100000E+03	6.782134E-16	3.097298E-17
4.110000E+03	6.761425E-16	3.048640E-17
4.120000E+03	6.742146E-16	3.003957E-17
4.130000E+03	6.724718E-16	2.962898E-17
4.140000E+03	6.709406E-16	2.925085E-17
4.150000E+03	6.696760E-16	2.890310E-17
4.160000E+03	6.686891E-16	2.858223E-17
4.170000E+03	6.680193E-16	2.828643E-17
4.180000E+03	6.677047E-16	2.801429E-17
4.190000E+03	6.677555E-16	2.776367E-17
4.200000E+03	6.682089E-16	2.753396E-17
4.210000E+03	6.691012E-16	2.732485E-17
4.220000E+03	6.704550E-16	2.713577E-17
4.230000E+03	6.722935E-16	2.696639E-17
4.240000E+03	6.746400E-16	2.681660E-17
4.250000E+03	6.775304E-16	2.668689E-17
4.260000E+03	6.810006E-16	2.657787E-17
4.270000E+03	6.850624E-16	2.648926E-17
4.280000E+03	6.897407E-16	2.642133E-17
4.290000E+03	6.950842E-16	2.637532E-17
4.300000E+03	7.011183E-16	2.635159E-17
4.310000E+03	7.078684E-16	2.635055E-17
4.320000E+03	7.153606E-16	2.637265E-17
4.330000E+03	7.236443E-16	2.641925E-17
4.340000E+03	7.327453E-16	2.649084E-17
4.350000E+03	7.427006E-16	2.658833E-17
4.360000E+03	7.535460E-16	2.671260E-17
4.370000E+03	7.653153E-16	2.686447E-17
4.380000E+03	7.780391E-16	2.704461E-17
4.390000E+03	7.917553E-16	2.725396E-17
4.400000E+03	8.064957E-16	2.749321E-17
4.410000E+03	8.222719E-16	2.776233E-17
4.420000E+03	8.390980E-16	2.806135E-17
4.430000E+03	8.569879E-16	2.839026E-17
4.440000E+03	8.759032E-16	2.874737E-17
4.450000E+03	8.958250E-16	2.913176E-17
4.460000E+03	9.166753E-16	2.954075E-17
4.470000E+03	9.383515E-16	2.997112E-17
4.480000E+03	9.607243E-16	3.041908E-17
4.490000E+03	9.836491E-16	3.088066E-17
4.500000E+03	1.006897E-15	3.134958E-17
4.510000E+03	1.030291E-15	3.182145E-17
4.520000E+03	1.053540E-15	3.228873E-17
4.530000E+03	1.076397E-15	3.274548E-17
4.540000E+03	1.098535E-15	3.318358E-17
4.550000E+03	1.119668E-15	3.359636E-17
4.560000E+03	1.139458E-15	3.397573E-17
4.570000E+03	1.157613E-15	3.431501E-17
4.580000E+03	1.173810E-15	3.460653E-17
4.590000E+03	1.187778E-15	3.484407E-17
4.600000E+03	1.199284E-15	3.502219E-17
4.610000E+03	1.208140E-15	3.513640E-17
4.620000E+03	1.214211E-15	3.518342E-17
4.630000E+03	1.217408E-15	3.516085E-17
4.640000E+03	1.217734E-15	3.506857E-17
4.650000E+03	1.215238E-15	3.490753E-17
4.660000E+03	1.210018E-15	3.467981E-17
4.670000E+03	1.202236E-15	3.438935E-17
4.680000E+03	1.192120E-15	3.404186E-17
4.690000E+03	1.179905E-15	3.364341E-17
4.700000E+03	1.165888E-15	3.320180E-17
4.710000E+03	1.150367E-15	3.272511E-17
4.720000E+03	1.133642E-15	3.222143E-17
4.730000E+03	1.116025E-15	3.169933E-17
4.740000E+03	1.097837E-15	3.116757E-17
4.750000E+03	1.079359E-15	3.063381E-17
4.760000E+03	1.060868E-15	3.010542E-17
4.770000E+03	1.042638E-15	2.958977E-17
4.780000E+03	1.024871E-15	2.909200E-17
4.790000E+03	1.007788E-15	2.861775E-17
4.800000E+03	9.915482E-16	2.817077E-17
4.810000E+03	9.763050E-16	2.775469E-17
4.820000E+03	9.621762E-16	2.737206E-17
4.830000E+03	9.492559E-16	2.702489E-17
4.840000E+03	9.376269E-16	2.671503E-17
4.850000E+03	9.273512E-16	2.644400E-17
4.860000E+03	9.184723E-16	2.621298E-17
4.870000E+03	9.109957E-16	2.602234E-17
4.880000E+03	9.049509E-16	2.587325E-17
4.890000E+03	9.003009E-16	2.576516E-17
4.900000E+03	8.970326E-16	2.569822E-17
4.910000E+03	8.950972E-16	2.567153E-17
4.920000E+03	8.944406E-16	2.568394E-17
4.930000E+03	8.949846E-16	2.573347E-17
4.940000E+03	8.966482E-16	2.581779E-17
4.950000E+03	8.993211E-16	2.593350E-17
4.960000E+03	9.029058E-16	2.607727E-17
4.970000E+03	9.073019E-16	2.624541E-17
4.980000E+03	9.123916E-16	2.643347E-17
4.990000E+03	9.180821E-16	2.663759E-17
5.000000E+03	9.242817E-16	2.685384E-17
5.010000E+03	9.309119E-16	2.707869E-17
5.020000E+03	9.379205E-16	2.730943E-17
5.030000E+03	9.452539E-16	2.754337E-17
5.040000E+03	9.528863E-16	2.777875E-17
5.050000E+03	9.608200E-16	2.801468E-17
5.060000E+03	9.690732E-16	2.825076E-17
5.070000E+03	9.776465E-16	2.848604E-17
5.080000E+03	9.865702E-16	2.872041E-17
5.090000E+03	9.959004E-16	2.895446E-17
5.100000E+03	1.005674E-15	2.918820E-17
5.110000E+03	1.015906E-15	2.942099E-17
5.120000E+03	1.026644E-15	2.965331E-17
5.130000E+03	1.037901E-15	2.988468E-17
5.140000E+03	1.049697E-15	3.011520E-17
5.150000E+03	1.062022E-15	3.034433E-17
5.160000E+03	1.074865E-15	3.057189E-17
5.170000E+03	1.088225E-15	3.079834E-17
5.180000E+03	1.102048E-15	3.102286E-17
5.190000E+03	1.116301E-15	3.124556E-17
5.200000E+03	1.130930E-15	3.146618E-17
5.210000E+03	1.145864E-15	3.168397E-17
5.220000E+03	1.161053E-15	3.189910E-17
5.230000E+03	1.176409E-15	3.211063E-17
5.240000E+03	1.191846E-15	3.231784E-17
5.250000E+03	1.207271E-15	3.251998E-17
5.260000E+03	1.222595E-15	3.271664E-17
5.270000E+03	1.237702E-15	3.290677E-17
5.280000E+03	1.252493E-15	3.309004E-17
5.290000E+03	1.266838E-15	3.326554E-17
5.300000E+03	1.280634E-15	3.343307E-17
5.310000E+03	1.293747E-15	3.359181E-17
5.320000E+03	1.306086E-15	3.374199E-17
5.330000E+03	1.317510E-15	3.388248E-17
5.340000E+03	1.327924E-15	3.401320E-17
5.350000E+03	1.337225E-15	3.413373E-17
5.360000E+03	1.345335E-15	3.424403E-17
5.370000E+03	1.352143E-15	3.434301E-17
5.380000E+03	1.357602E-15	3.443093E-17
5.390000E+03	1.361648E-15	3.450722E-17
5.400000E+03	1.364192E-15	3.457037E-17
5.410000E+03	1.365208E-15	3.461988E-17
5.420000E+03	1.364630E-15	3.465383E-17
5.430000E+03	1.362421E-15	3.467073E-17
5.440000E+03	1.358519E-15	3.466810E-17
5.450000E+03	1.352888E-15	3.464377E-17
5.460000E+03	1.345462E-15	3.459457E-17
5.470000E+03	1.336192E-15	3.451733E-17
5.480000E+03	1.325047E-15	3.440892E-17
5.490000E+03	1.311979E-15	3.426543E-17
5.500000E+03	1.296985E-15	3.408370E-17
5.510000E+03	1.280050E-15	3.385994E-17
5.520000E+03	1.261246E-15	3.359239E-17
5.530000E+03	1.240651E-15	3.327934E-17
5.540000E+03	1.218417E-15	3.292105E-17
5.550000E+03	1.194708E-15	3.251838E-17
5.560000E+03	1.169787E-15	3.207515E-17
5.570000E+03	1.143924E-15	3.159590E-17
5.580000E+03	1.117432E-15	3.108703E-17
5.590000E+03	1.090648E-15	3.055620E-17
5.600000E+03	1.063916E-15	3.001202E-17
5.610000E+03	1.037581E-15	2.946363E-17
5.620000E+03	1.011971E-15	2.892033E-17
5.630000E+03	9.873937E-16	2.839123E-17
5.640000E+03	9.641272E-16	2.788494E-17
5.650000E+03	9.424085E-16	2.740915E-17
5.660000E+03	9.224500E-16	2.697101E-17
5.670000E+03	9.044394E-16	2.657704E-17
5.680000E+03	8.885141E-16	2.623236E-17
5.690000E+03	8.747997E-16	2.594172E-17
5.700000E+03	8.633693E-16	2.570824E-17
5.710000E+03	8.542977E-16	2.553506E-17
5.720000E+03	8.476286E-16	2.542427E-17
5.730000E+03	8.433770E-16	2.537702E-17
5.740000E+03	8.415463E-16	2.539402E-17
5.750000E+03	8.421274E-16	2.547551E-17
5.760000E+03	8.450653E-16	2.562026E-17
5.770000E+03	8.503152E-16	2.582730E-17
5.780000E+03	8.577738E-16	2.609379E-17
5.790000E+03	8.673362E-16	2.641674E-17
5.800000E+03	8.788520E-16	2.679167E-17
5.810000E+03	8.921580E-16	2.721356E-17
5.820000E+03	9.070353E-16	2.767554E-17
5.830000E+03	9.232718E-16	2.817070E-17
5.840000E+03	9.405938E-16	2.869003E-17
5.850000E+03	9.587321E-16	2.922440E-17
5.860000E+03	9.773819E-16	2.976337E-17
5.870000E+03	9.962464E-16	3.029648E-17
5.880000E+03	1.015005E-15	3.081239E-17
5.890000E+03	1.033350E-15	3.130006E-17
5.900000E+03	1.050985E-15	3.174876E-17
5.910000E+03	1.067631E-15	3.214849E-17
5.920000E+03	1.083024E-15	3.249004E-17
5.930000E+03	1.096954E-15	3.276629E-17
5.940000E+03	1.109239E-15	3.297155E-17
5.950000E+03	1.119730E-15	3.310183E-17
5.960000E+03	1.128341E-15	3.315559E-17
5.970000E+03	1.135048E-15	3.313376E-17
5.980000E+03	1.139871E-15	3.303904E-17
5.990000E+03	1.142865E-15	3.287540E-17
6.000000E+03	1.144181E-15	3.264979E-17
6.010000E+03	1.143993E-15	3.236993E-17
6.020000E+03	1.142508E-15	3.204431E-17
6.030000E+03	1.139986E-15	3.168282E-17
6.040000E+03	1.136700E-15	3.129555E-17
6.050000E+03	1.132938E-15	3.089271E-17
6.060000E+03	1.129007E-15	3.048476E-17
6.070000E+03	1.125199E-15	3.008162E-17
6.080000E+03	1.121786E-15	2.969241E-17
6.090000E+03	1.119069E-15	2.932691E-17
6.100000E+03	1.117272E-15	2.899278E-17
6.110000E+03	1.116639E-15	2.869811E-17
6.120000E+03	1.117347E-15	2.844940E-17
6.130000E+03	1.119563E-15	2.825291E-17
6.140000E+03	1.123405E-15	2.811377E-17
6.150000E+03	1.128951E-15	2.803617E-17
6.160000E+03	1.136222E-15	2.802303E-17
6.170000E+03	1.145202E-15	2.807635E-17
6.180000E+03	1.155802E-15	2.819634E-17
6.190000E+03	1.167937E-15	2.838323E-17
6.200000E+03	1.181413E-15	2.863438E-17
6.210000E+03	1.196030E-15	2.894680E-17
6.220000E+03	1.211517E-15	2.931556E-17
6.230000E+03	1.227551E-15	2.973400E-17
6.240000E+03	1.243803E-15	3.019476E-17
6.250000E+03	1.259896E-15	3.068869E-17
6.260000E+03	1.275449E-15	3.120552E-17
6.270000E+03	1.290097E-15	3.173466E-17
6.280000E+03	1.303514E-15	3.226586E-17
6.290000E+03	1.315356E-15	3.278800E-17
6.300000E+03	1.325392E-15	3.329249E-17
6.310000E+03	1.333405E-15	3.377093E-17
6.320000E+03	1.339239E-15	3.421633E-17
6.330000E+03	1.342823E-15	3.462393E-17
6.340000E+03	1.344134E-15	3.499026E-17
6.350000E+03	1.343188E-15	3.531294E-17
6.360000E+03	1.340060E-15	3.559134E-17
6.370000E+03	1.334893E-15	3.582674E-17
6.380000E+03	1.327803E-15	3.601981E-17
6.390000E+03	1.318967E-15	3.617297E-17
6.400000E+03	1.308572E-15	3.628898E-17
6.410000E+03	1.296780E-15	3.636998E-17
6.420000E+03	1.283791E-15	3.641916E-17
6.430000E+03	1.269768E-15	3.643878E-17
6.440000E+03	1.254875E-15	3.643118E-17
6.450000E+03	1.239236E-15	3.639765E-17
6.460000E+03	1.223015E-15	3.634077E-17
6.470000E+03	1.206320E-15	3.626171E-17
6.480000E+03	1.189263E-15	3.616188E-17
6.490000E+03	1.171943E-15	3.604259E-17
6.500000E+03	1.154451E-15	3.590509E-17
6.510000E+03	1.136834E-15	3.574953E-17
6.520000E+03	1.119180E-15	3.557763E-17
6.530000E+03	1.101515E-15	3.538925E-17
6.540000E+03	1.083917E-15	3.518627E-17
6.550000E+03	1.066405E-15	3.496876E-17
6.560000E+03	1.049038E-15	3.473836E-17
6.570000E+03	1.031837E-15	3.449565E-17
6.580000E+03	1.014867E-15	3.424275E-17
6.590000E+03	9.981416E-16	3.398029E-17
6.600000E+03	9.817050E-16	3.371005E-17
6.610000E+03	9.655764E-16	3.343308E-17
6.620000E+03	9.497834E-16	3.315076E-17
6.630000E+03	9.343513E-16	3.286450E-17
6.640000E+03	9.193138E-16	3.257607E-17
6.650000E+03	9.046835E-16	3.228650E-17
6.660000E+03	8.904825E-16	3.199719E-17
6.670000E+03	8.767425E-16	3.170992E-17
6.680000E+03	8.634851E-16	3.142610E-17
6.690000E+03	8.507228E-16	3.114682E-17
6.700000E+03	8.384969E-16	3.087424E-17
6.710000E+03	8.268112E-16	3.060910E-17
6.720000E+03	8.156985E-16	3.035323E-17
6.730000E+03	8.051916E-16	3.010846E-17
6.740000E+03	7.953059E-16	2.987592E-17
6.750000E+03	7.860753E-16	2.965748E-17
6.760000E+03	7.775253E-16	2.945463E-17
6.770000E+03	7.696731E-16	2.926858E-17
6.780000E+03	7.625623E-16	2.910149E-17
6.790000E+03	7.562103E-16	2.895454E-17
6.800000E+03	7.506429E-16	2.882918E-17
6.810000E+03	7.458853E-16	2.872684E-17
6.820000E+03	7.419705E-16	2.864921E-17
6.830000E+03	7.389215E-16	2.859755E-17
6.840000E+03	7.367514E-16	2.857270E-17
6.850000E+03	7.354973E-16	2.857638E-17
6.860000E+03	7.351597E-16	2.860884E-17
6.870000E+03	7.357626E-16	2.867121E-17
6.880000E+03	7.373276E-16	2.876445E-17
6.890000E+03	7.398470E-16	2.888834E-17
6.900000E+03	7.433444E-16	2.904381E-17
6.910000E+03	7.478226E-16	2.923096E-17
6.920000E+03	7.532707E-16	2.944924E-17
6.930000E+03	7.596815E-16	2.969823E-17
6.940000E+03	7.670520E-16	2.997760E-17
6.950000E+03	7.753643E-16	3.028640E-17
6.960000E+03	7.845849E-16	3.062299E-17
6.970000E+03	7.946925E-16	3.098617E-17
6.980000E+03	8.056498E-16	3.137408E-17
6.990000E+03	8.174027E-16	3.178413E-17
7.000000E+03	8.299194E-16	3.221459E-17
7.010000E+03	8.431209E-16	3.266184E-17
7.020000E+03	8.569505E-16	3.312309E-17
7.030000E+03	8.713442E-16	3.359529E-17
7.040000E+03	8.861977E-16	3.407377E-17
7.050000E+03	9.014408E-16	3.455520E-17
7.060000E+03	9.169506E-16	3.503423E-17
7.070000E+03	9.326392E-16	3.550688E-17
7.080000E+03	9.483762E-16	3.596758E-17
7.090000E+03	9.640331E-16	3.641089E-17
7.100000E+03	9.794728E-16	3.683111E-17
7.110000E+03	9.945629E-16	3.722284E-17
7.120000E+03	1.009139E-15	3.757957E-17
7.130000E+03	1.023044E-15	3.789517E-17
7.140000E+03	1.036129E-15	3.816401E-17
7.150000E+03	1.048214E-15	3.837952E-17
7.160000E+03	1.059145E-15	3.853625E-17
7.170000E+03	1.068754E-15	3.862845E-17
7.180000E+03	1.076862E-15	3.865019E-17
7.190000E+03	1.083319E-15	3.859691E-17
7.200000E+03	1.087954E-15	3.846354E-17
7.210000E+03	1.090649E-15	3.824715E-17
7.220000E+03	1.091239E-15	3.794353E-17
7.230000E+03	1.089636E-15	3.755139E-17
7.240000E+03	1.085728E-15	3.706895E-17
7.250000E+03	1.079443E-15	3.649613E-17
7.260000E+03	1.070739E-15	3.583414E-17
7.270000E+03	1.059622E-15	3.508603E-17
7.280000E+03	1.046106E-15	3.425542E-17
7.290000E+03	1.030261E-15	3.334787E-17
7.300000E+03	1.012225E-15	3.237129E-17
7.310000E+03	9.921218E-16	3.133322E-17
7.320000E+03	9.701442E-16	3.024334E-17
7.330000E+03	9.465460E-16	2.911318E-17
7.340000E+03	9.215617E-16	2.795346E-17
7.350000E+03	8.954771E-16	2.677626E-17
7.360000E+03	8.686071E-16	2.559422E-17
7.370000E+03	8.412525E-16	2.441919E-17
7.380000E+03	8.137381E-16	2.326331E-17
7.390000E+03	7.863477E-16	2.213714E-17
7.400000E+03	7.593729E-16	2.105100E-17
7.410000E+03	7.330927E-16	2.001442E-17
7.420000E+03	7.077271E-16	1.903489E-17
7.430000E+03	6.834936E-16	1.811939E-17
7.440000E+03	6.605452E-16	1.727275E-17
7.450000E+03	6.390416E-16	1.649959E-17
7.460000E+03	6.190594E-16	1.580189E-17
7.470000E+03	6.006645E-16	1.518101E-17
7.480000E+03	5.838797E-16	1.463679E-17
7.490000E+03	5.687054E-16	1.416815E-17
7.500000E+03	5.551084E-16	1.377285E-17
7.510000E+03	5.430288E-16	1.344778E-17
7.520000E+03	5.324075E-16	1.318964E-17
7.530000E+03	5.231613E-16	1.299448E-17
7.540000E+03	5.152094E-16	1.285844E-17
7.550000E+03	5.084760E-16	1.277787E-17
7.560000E+03	5.028717E-16	1.274897E-17
7.570000E+03	4.983223E-16	1.276860E-17
7.580000E+03	4.947358E-16	1.283341E-17
7.590000E+03	4.920424E-16	1.294093E-17
7.600000E+03	4.901674E-16	1.308884E-17
7.610000E+03	4.890373E-16	1.327511E-17
7.620000E+03	4.885726E-16	1.349771E-17
7.630000E+03	4.887016E-16	1.375485E-17
7.640000E+03	4.893608E-16	1.404486E-17
7.650000E+03	4.904757E-16	1.436549E-17
7.660000E+03	4.919801E-16	1.471446E-17
7.670000E+03	4.938153E-16	1.508951E-17
7.680000E+03	4.959022E-16	1.548765E-17
7.690000E+03	4.981820E-16	1.590638E-17
7.700000E+03	5.005965E-16	1.634306E-17
7.710000E+03	5.030677E-16	1.679431E-17
7.720000E+03	5.055401E-16	1.725732E-17
7.730000E+03	5.079534E-16	1.772896E-17
7.740000E+03	5.102505E-16	1.820609E-17
7.750000E+03	5.123848E-16	1.868580E-17
7.760000E+03	5.142929E-16	1.916445E-17
