#wls	flux	fluxerr
1.600000E+03	8.308462E-17	6.814518E-17
1.640000E+03	8.472749E-17	6.888209E-17
1.680000E+03	8.647552E-17	6.966389E-17
1.720000E+03	8.831700E-17	7.047765E-17
1.760000E+03	9.027297E-17	7.133657E-17
1.800000E+03	9.236597E-17	7.225418E-17
1.840000E+03	9.458494E-17	7.321716E-17
1.880000E+03	9.695360E-17	7.423896E-17
1.920000E+03	9.947903E-17	7.531949E-17
1.960000E+03	1.021686E-16	7.645836E-17
2.000000E+03	1.050298E-16	7.765490E-17
2.040000E+03	1.080705E-16	7.890808E-17
2.080000E+03	1.113389E-16	8.024538E-17
2.120000E+03	1.148046E-16	8.163650E-17
2.160000E+03	1.185180E-16	8.310845E-17
2.200000E+03	1.224688E-16	8.464404E-17
2.240000E+03	1.266888E-16	8.625481E-17
2.280000E+03	1.312119E-16	8.795201E-17
2.320000E+03	1.360275E-16	8.971579E-17
2.360000E+03	1.411940E-16	9.157090E-17
2.400000E+03	1.467006E-16	9.349512E-17
2.440000E+03	1.525836E-16	9.549553E-17
2.480000E+03	1.588805E-16	9.757793E-17
2.520000E+03	1.656039E-16	9.973067E-17
2.560000E+03	1.727916E-16	1.019558E-16
2.600000E+03	1.804818E-16	1.042531E-16
2.640000E+03	1.887124E-16	1.066196E-16
2.680000E+03	1.974918E-16	1.090335E-16
2.720000E+03	2.068832E-16	1.115012E-16
2.760000E+03	2.169197E-16	1.140093E-16
2.800000E+03	2.276305E-16	1.165397E-16
2.840000E+03	2.390399E-16	1.190696E-16
2.880000E+03	2.511976E-16	1.215860E-16
2.920000E+03	2.641476E-16	1.240700E-16
2.960000E+03	2.779594E-16	1.265106E-16
3.000000E+03	2.925910E-16	1.288431E-16
3.010000E+03	2.963758E-16	1.294035E-16
3.020000E+03	3.002611E-16	1.299749E-16
3.030000E+03	3.041422E-16	1.305112E-16
3.040000E+03	3.081218E-16	1.310559E-16
3.050000E+03	3.121641E-16	1.315927E-16
3.060000E+03	3.162327E-16	1.321055E-16
3.070000E+03	3.203611E-16	1.326078E-16
3.080000E+03	3.245833E-16	1.331126E-16
3.090000E+03	3.288269E-16	1.335894E-16
3.100000E+03	3.331256E-16	1.340513E-16
3.110000E+03	3.375133E-16	1.345111E-16
3.120000E+03	3.419168E-16	1.349387E-16
3.130000E+03	3.464054E-16	1.353608E-16
3.140000E+03	3.509775E-16	1.357758E-16
3.150000E+03	3.555587E-16	1.361540E-16
3.160000E+03	3.602189E-16	1.365216E-16
3.170000E+03	3.649193E-16	1.368632E-16
3.180000E+03	3.696938E-16	1.371906E-16
3.190000E+03	3.745398E-16	1.375018E-16
3.200000E+03	3.794180E-16	1.377818E-16
3.210000E+03	3.843619E-16	1.380420E-16
3.220000E+03	3.893685E-16	1.382804E-16
3.230000E+03	3.944346E-16	1.384951E-16
3.240000E+03	3.995203E-16	1.386713E-16
3.250000E+03	4.046952E-16	1.388328E-16
3.260000E+03	4.098824E-16	1.389521E-16
3.270000E+03	4.151514E-16	1.390524E-16
3.280000E+03	4.204616E-16	1.391192E-16
3.290000E+03	4.258089E-16	1.391505E-16
3.300000E+03	4.312256E-16	1.391562E-16
3.310000E+03	4.366705E-16	1.391225E-16
3.320000E+03	4.421758E-16	1.390589E-16
3.330000E+03	4.477365E-16	1.389631E-16
3.340000E+03	4.533110E-16	1.388218E-16
3.350000E+03	4.589307E-16	1.386442E-16
3.360000E+03	4.645903E-16	1.384282E-16
3.370000E+03	4.702842E-16	1.381717E-16
3.380000E+03	4.760067E-16	1.378726E-16
3.390000E+03	4.817882E-16	1.375393E-16
3.400000E+03	4.875861E-16	1.371591E-16
3.410000E+03	4.933941E-16	1.367302E-16
3.420000E+03	4.992419E-16	1.362607E-16
3.430000E+03	5.050867E-16	1.357387E-16
3.440000E+03	5.109577E-16	1.351720E-16
3.450000E+03	5.168477E-16	1.345586E-16
3.460000E+03	5.227493E-16	1.338967E-16
3.470000E+03	5.286550E-16	1.331843E-16
3.480000E+03	5.345926E-16	1.324286E-16
3.490000E+03	5.404834E-16	1.316102E-16
3.500000E+03	5.463900E-16	1.307450E-16
3.510000E+03	5.523041E-16	1.298312E-16
3.520000E+03	5.581821E-16	1.288591E-16
3.530000E+03	5.640852E-16	1.278432E-16
3.540000E+03	5.699350E-16	1.267663E-16
3.550000E+03	5.757574E-16	1.256352E-16
3.560000E+03	5.815774E-16	1.244562E-16
3.570000E+03	5.873175E-16	1.232136E-16
3.580000E+03	5.930703E-16	1.219280E-16
3.590000E+03	5.987583E-16	1.205843E-16
3.600000E+03	6.044056E-16	1.191889E-16
3.610000E+03	6.099694E-16	1.177347E-16
3.620000E+03	6.155057E-16	1.162342E-16
3.630000E+03	6.209716E-16	1.146809E-16
3.640000E+03	6.263572E-16	1.130747E-16
3.650000E+03	6.316527E-16	1.114159E-16
3.660000E+03	6.369117E-16	1.097162E-16
3.670000E+03	6.420600E-16	1.079646E-16
3.680000E+03	6.470883E-16	1.061624E-16
3.690000E+03	6.520485E-16	1.043206E-16
3.700000E+03	6.568993E-16	1.024353E-16
3.710000E+03	6.616307E-16	1.005079E-16
3.720000E+03	6.662627E-16	9.854447E-17
3.730000E+03	6.707553E-16	9.654235E-17
3.740000E+03	6.751282E-16	9.450797E-17
3.750000E+03	6.793425E-16	9.243957E-17
3.760000E+03	6.834463E-16	9.034768E-17
3.770000E+03	6.874008E-16	8.823104E-17
3.780000E+03	6.911690E-16	8.608935E-17
3.790000E+03	6.947976E-16	8.393317E-17
3.800000E+03	6.982769E-16	8.176591E-17
3.810000E+03	7.015708E-16	7.958824E-17
3.820000E+03	7.046710E-16	7.740466E-17
3.830000E+03	7.076220E-16	7.522550E-17
3.840000E+03	7.103628E-16	7.304980E-17
3.850000E+03	7.128865E-16	7.088296E-17
3.860000E+03	7.152361E-16	6.873541E-17
3.870000E+03	7.173788E-16	6.661003E-17
3.880000E+03	7.193076E-16	6.451255E-17
3.890000E+03	7.210160E-16	6.244879E-17
3.900000E+03	7.224982E-16	6.042465E-17
3.910000E+03	7.237489E-16	5.844597E-17
3.920000E+03	7.247638E-16	5.651844E-17
3.930000E+03	7.255623E-16	5.464920E-17
3.940000E+03	7.260978E-16	5.283989E-17
3.950000E+03	7.264149E-16	5.109843E-17
3.960000E+03	7.264939E-16	4.942722E-17
3.970000E+03	7.263401E-16	4.782970E-17
3.980000E+03	7.259414E-16	4.630729E-17
3.990000E+03	7.253500E-16	4.486460E-17
4.000000E+03	7.245401E-16	4.350025E-17
4.010000E+03	7.235501E-16	4.221588E-17
4.020000E+03	7.223824E-16	4.101000E-17
4.030000E+03	7.210813E-16	3.988258E-17
4.040000E+03	7.196566E-16	3.883074E-17
4.050000E+03	7.181404E-16	3.785209E-17
4.060000E+03	7.165501E-16	3.694278E-17
4.070000E+03	7.149408E-16	3.610038E-17
4.080000E+03	7.133180E-16	3.531950E-17
4.090000E+03	7.117569E-16	3.459796E-17
4.100000E+03	7.102827E-16	3.393093E-17
4.110000E+03	7.089064E-16	3.331299E-17
4.120000E+03	7.076879E-16	3.274117E-17
4.130000E+03	7.066703E-16	3.221189E-17
4.140000E+03	7.058809E-16	3.172117E-17
4.150000E+03	7.053620E-16	3.126609E-17
4.160000E+03	7.051403E-16	3.084340E-17
4.170000E+03	7.052421E-16	3.045031E-17
4.180000E+03	7.057216E-16	3.008566E-17
4.190000E+03	7.066034E-16	2.974739E-17
4.200000E+03	7.079120E-16	2.943389E-17
4.210000E+03	7.096853E-16	2.914445E-17
4.220000E+03	7.119476E-16	2.887808E-17
4.230000E+03	7.147366E-16	2.863460E-17
4.240000E+03	7.180770E-16	2.841348E-17
4.250000E+03	7.220071E-16	2.821484E-17
4.260000E+03	7.265530E-16	2.803842E-17
4.270000E+03	7.317414E-16	2.788404E-17
4.280000E+03	7.376252E-16	2.775262E-17
4.290000E+03	7.442323E-16	2.764418E-17
4.300000E+03	7.515916E-16	2.755886E-17
4.310000E+03	7.597328E-16	2.749698E-17
4.320000E+03	7.687113E-16	2.745986E-17
4.330000E+03	7.785580E-16	2.744808E-17
4.340000E+03	7.893043E-16	2.746236E-17
4.350000E+03	8.010066E-16	2.750436E-17
4.360000E+03	8.136829E-16	2.757454E-17
4.370000E+03	8.273871E-16	2.767462E-17
4.380000E+03	8.421448E-16	2.780536E-17
4.390000E+03	8.579891E-16	2.796775E-17
4.400000E+03	8.749462E-16	2.816248E-17
4.410000E+03	8.930197E-16	2.838945E-17
4.420000E+03	9.122406E-16	2.864914E-17
4.430000E+03	9.325739E-16	2.893967E-17
4.440000E+03	9.539917E-16	2.925942E-17
4.450000E+03	9.764584E-16	2.960657E-17
4.460000E+03	9.998726E-16	2.997750E-17
4.470000E+03	1.024145E-15	3.036918E-17
4.480000E+03	1.049128E-15	3.077714E-17
4.490000E+03	1.074652E-15	3.119666E-17
4.500000E+03	1.100483E-15	3.162154E-17
4.510000E+03	1.126394E-15	3.204618E-17
4.520000E+03	1.152106E-15	3.246397E-17
4.530000E+03	1.177277E-15	3.286701E-17
4.540000E+03	1.201568E-15	3.324787E-17
4.550000E+03	1.224634E-15	3.359945E-17
4.560000E+03	1.246074E-15	3.391343E-17
4.570000E+03	1.265535E-15	3.418307E-17
4.580000E+03	1.282666E-15	3.440171E-17
4.590000E+03	1.297113E-15	3.456254E-17
4.600000E+03	1.308636E-15	3.466130E-17
4.610000E+03	1.316985E-15	3.469301E-17
4.620000E+03	1.322032E-15	3.465513E-17
4.630000E+03	1.323705E-15	3.454596E-17
4.640000E+03	1.322012E-15	3.436521E-17
4.650000E+03	1.317039E-15	3.411414E-17
4.660000E+03	1.308927E-15	3.379523E-17
4.670000E+03	1.297926E-15	3.341383E-17
4.680000E+03	1.284280E-15	3.297525E-17
4.690000E+03	1.268335E-15	3.248777E-17
4.700000E+03	1.250408E-15	3.195924E-17
4.710000E+03	1.230880E-15	3.139943E-17
4.720000E+03	1.210125E-15	3.081811E-17
4.730000E+03	1.188490E-15	3.022440E-17
4.740000E+03	1.166335E-15	2.962780E-17
4.750000E+03	1.143990E-15	2.903684E-17
4.760000E+03	1.121760E-15	2.845922E-17
4.770000E+03	1.099906E-15	2.790130E-17
4.780000E+03	1.078682E-15	2.736894E-17
4.790000E+03	1.058271E-15	2.686591E-17
4.800000E+03	1.038902E-15	2.639691E-17
4.810000E+03	1.020714E-15	2.596393E-17
4.820000E+03	1.003847E-15	2.556883E-17
4.830000E+03	9.884021E-16	2.521264E-17
4.840000E+03	9.744764E-16	2.489657E-17
4.850000E+03	9.620919E-16	2.462034E-17
4.860000E+03	9.513042E-16	2.438499E-17
4.870000E+03	9.421191E-16	2.419073E-17
4.880000E+03	9.345354E-16	2.403801E-17
4.890000E+03	9.285245E-16	2.392686E-17
4.900000E+03	9.240502E-16	2.385730E-17
4.910000E+03	9.210380E-16	2.382841E-17
4.920000E+03	9.194251E-16	2.383946E-17
4.930000E+03	9.191114E-16	2.388855E-17
4.940000E+03	9.199816E-16	2.397303E-17
4.950000E+03	9.219079E-16	2.408948E-17
4.960000E+03	9.247548E-16	2.423373E-17
4.970000E+03	9.283932E-16	2.440132E-17
4.980000E+03	9.326874E-16	2.458717E-17
4.990000E+03	9.375199E-16	2.478642E-17
5.000000E+03	9.427580E-16	2.499370E-17
5.010000E+03	9.483358E-16	2.520547E-17
5.020000E+03	9.541602E-16	2.541764E-17
5.030000E+03	9.601804E-16	2.562750E-17
5.040000E+03	9.663996E-16	2.583394E-17
5.050000E+03	9.727830E-16	2.603503E-17
5.060000E+03	9.793651E-16	2.623069E-17
5.070000E+03	9.861657E-16	2.642041E-17
5.080000E+03	9.932352E-16	2.660427E-17
5.090000E+03	1.000619E-15	2.678206E-17
5.100000E+03	1.008364E-15	2.695333E-17
5.110000E+03	1.016510E-15	2.711748E-17
5.120000E+03	1.025091E-15	2.727374E-17
5.130000E+03	1.034142E-15	2.742158E-17
5.140000E+03	1.043663E-15	2.755998E-17
5.150000E+03	1.053652E-15	2.768840E-17
5.160000E+03	1.064107E-15	2.780677E-17
5.170000E+03	1.075002E-15	2.791499E-17
5.180000E+03	1.086289E-15	2.801283E-17
5.190000E+03	1.097944E-15	2.810100E-17
5.200000E+03	1.109890E-15	2.817904E-17
5.210000E+03	1.122072E-15	2.824727E-17
5.220000E+03	1.134434E-15	2.830587E-17
5.230000E+03	1.146886E-15	2.835437E-17
5.240000E+03	1.159347E-15	2.839254E-17
5.250000E+03	1.171726E-15	2.842025E-17
5.260000E+03	1.183954E-15	2.843815E-17
5.270000E+03	1.195896E-15	2.844574E-17
5.280000E+03	1.207485E-15	2.844459E-17
5.290000E+03	1.218589E-15	2.843519E-17
5.300000E+03	1.229123E-15	2.841945E-17
5.310000E+03	1.238955E-15	2.839840E-17
5.320000E+03	1.248004E-15	2.837438E-17
5.330000E+03	1.256169E-15	2.834925E-17
5.340000E+03	1.263345E-15	2.832463E-17
5.350000E+03	1.269463E-15	2.830266E-17
5.360000E+03	1.274450E-15	2.828511E-17
5.370000E+03	1.278259E-15	2.827384E-17
5.380000E+03	1.280828E-15	2.826986E-17
5.390000E+03	1.282128E-15	2.827443E-17
5.400000E+03	1.282139E-15	2.828818E-17
5.410000E+03	1.280802E-15	2.830972E-17
5.420000E+03	1.278108E-15	2.833815E-17
5.430000E+03	1.274026E-15	2.837145E-17
5.440000E+03	1.268504E-15	2.840669E-17
5.450000E+03	1.261523E-15	2.844119E-17
5.460000E+03	1.253017E-15	2.847069E-17
5.470000E+03	1.242925E-15	2.849062E-17
5.480000E+03	1.231195E-15	2.849606E-17
5.490000E+03	1.217765E-15	2.848141E-17
5.500000E+03	1.202575E-15	2.844062E-17
5.510000E+03	1.185599E-15	2.836807E-17
5.520000E+03	1.166863E-15	2.825901E-17
5.530000E+03	1.146428E-15	2.810945E-17
5.540000E+03	1.124397E-15	2.791655E-17
5.550000E+03	1.100946E-15	2.767957E-17
5.560000E+03	1.076302E-15	2.739977E-17
5.570000E+03	1.050742E-15	2.708048E-17
5.580000E+03	1.024578E-15	2.672692E-17
5.590000E+03	9.981362E-16	2.634569E-17
5.600000E+03	9.717602E-16	2.594488E-17
5.610000E+03	9.457987E-16	2.553359E-17
5.620000E+03	9.205554E-16	2.512044E-17
5.630000E+03	8.963280E-16	2.471444E-17
5.640000E+03	8.733910E-16	2.432438E-17
5.650000E+03	8.519661E-16	2.395788E-17
5.660000E+03	8.322480E-16	2.362195E-17
5.670000E+03	8.143964E-16	2.332271E-17
5.680000E+03	7.985307E-16	2.306515E-17
5.690000E+03	7.847492E-16	2.285359E-17
5.700000E+03	7.731236E-16	2.269154E-17
5.710000E+03	7.637102E-16	2.258191E-17
5.720000E+03	7.565212E-16	2.252622E-17
5.730000E+03	7.515653E-16	2.252576E-17
5.740000E+03	7.488403E-16	2.258135E-17
5.750000E+03	7.483111E-16	2.269274E-17
5.760000E+03	7.499315E-16	2.285923E-17
5.770000E+03	7.536433E-16	2.307966E-17
5.780000E+03	7.593452E-16	2.335141E-17
5.790000E+03	7.669276E-16	2.367143E-17
5.800000E+03	7.762720E-16	2.403621E-17
5.810000E+03	7.871971E-16	2.444003E-17
5.820000E+03	7.995344E-16	2.487727E-17
5.830000E+03	8.130771E-16	2.534080E-17
5.840000E+03	8.275805E-16	2.582197E-17
5.850000E+03	8.428063E-16	2.631196E-17
5.860000E+03	8.585036E-16	2.680124E-17
5.870000E+03	8.743885E-16	2.727897E-17
5.880000E+03	8.901918E-16	2.773451E-17
5.890000E+03	9.056660E-16	2.815782E-17
5.900000E+03	9.205306E-16	2.853786E-17
5.910000E+03	9.345653E-16	2.886570E-17
5.920000E+03	9.475552E-16	2.913294E-17
5.930000E+03	9.592939E-16	2.933210E-17
5.940000E+03	9.696457E-16	2.945853E-17
5.950000E+03	9.784848E-16	2.950872E-17
5.960000E+03	9.857274E-16	2.948121E-17
5.970000E+03	9.913643E-16	2.937751E-17
5.980000E+03	9.954048E-16	2.920029E-17
5.990000E+03	9.979159E-16	2.895432E-17
6.000000E+03	9.990103E-16	2.864600E-17
6.010000E+03	9.988433E-16	2.828303E-17
6.020000E+03	9.976071E-16	2.787410E-17
6.030000E+03	9.955340E-16	2.742883E-17
6.040000E+03	9.928497E-16	2.695642E-17
6.050000E+03	9.898443E-16	2.646752E-17
6.060000E+03	9.867661E-16	2.597130E-17
6.070000E+03	9.839030E-16	2.547770E-17
6.080000E+03	9.814978E-16	2.499522E-17
6.090000E+03	9.798302E-16	2.453313E-17
6.100000E+03	9.791142E-16	2.409897E-17
6.110000E+03	9.795918E-16	2.370097E-17
6.120000E+03	9.814310E-16	2.334571E-17
6.130000E+03	9.848105E-16	2.304025E-17
6.140000E+03	9.898473E-16	2.279055E-17
6.150000E+03	9.966419E-16	2.260255E-17
6.160000E+03	1.005244E-15	2.248142E-17
6.170000E+03	1.015629E-15	2.243097E-17
6.180000E+03	1.027760E-15	2.245503E-17
6.190000E+03	1.041525E-15	2.255586E-17
6.200000E+03	1.056800E-15	2.273531E-17
6.210000E+03	1.073361E-15	2.299283E-17
6.220000E+03	1.090955E-15	2.332674E-17
6.230000E+03	1.109248E-15	2.373304E-17
6.240000E+03	1.127906E-15	2.420681E-17
6.250000E+03	1.146547E-15	2.474088E-17
6.260000E+03	1.164775E-15	2.532560E-17
6.270000E+03	1.182224E-15	2.595049E-17
6.280000E+03	1.198512E-15	2.660366E-17
6.290000E+03	1.213344E-15	2.727418E-17
6.300000E+03	1.226412E-15	2.795015E-17
6.310000E+03	1.237511E-15	2.862159E-17
6.320000E+03	1.246498E-15	2.927983E-17
6.330000E+03	1.253269E-15	2.991710E-17
6.340000E+03	1.257778E-15	3.052730E-17
6.350000E+03	1.260072E-15	3.110696E-17
6.360000E+03	1.260210E-15	3.165322E-17
6.370000E+03	1.258301E-15	3.216493E-17
6.380000E+03	1.254482E-15	3.264199E-17
6.390000E+03	1.248924E-15	3.308542E-17
6.400000E+03	1.241782E-15	3.349599E-17
6.410000E+03	1.233248E-15	3.387568E-17
6.420000E+03	1.223463E-15	3.422504E-17
6.430000E+03	1.212607E-15	3.454581E-17
6.440000E+03	1.200821E-15	3.483880E-17
6.450000E+03	1.188224E-15	3.510416E-17
6.460000E+03	1.174956E-15	3.534295E-17
6.470000E+03	1.161121E-15	3.555529E-17
6.480000E+03	1.146799E-15	3.574089E-17
6.490000E+03	1.132098E-15	3.590053E-17
6.500000E+03	1.117082E-15	3.603393E-17
6.510000E+03	1.101843E-15	3.614209E-17
6.520000E+03	1.086410E-15	3.622419E-17
6.530000E+03	1.070877E-15	3.628192E-17
6.540000E+03	1.055278E-15	3.631521E-17
6.550000E+03	1.039675E-15	3.632530E-17
6.560000E+03	1.024096E-15	3.631243E-17
6.570000E+03	1.008619E-15	3.627892E-17
6.580000E+03	9.932524E-16	3.622486E-17
6.590000E+03	9.780563E-16	3.615236E-17
6.600000E+03	9.630657E-16	3.606284E-17
6.610000E+03	9.483021E-16	3.595736E-17
6.620000E+03	9.337953E-16	3.583743E-17
6.630000E+03	9.195829E-16	3.570498E-17
6.640000E+03	9.056908E-16	3.556157E-17
6.650000E+03	8.921436E-16	3.540884E-17
6.660000E+03	8.789556E-16	3.524803E-17
6.670000E+03	8.661698E-16	3.508162E-17
6.680000E+03	8.538001E-16	3.491096E-17
6.690000E+03	8.418699E-16	3.473781E-17
6.700000E+03	8.304033E-16	3.456399E-17
6.710000E+03	8.194336E-16	3.439172E-17
6.720000E+03	8.089849E-16	3.422285E-17
6.730000E+03	7.990818E-16	3.405928E-17
6.740000E+03	7.897491E-16	3.390289E-17
6.750000E+03	7.810206E-16	3.375596E-17
6.760000E+03	7.729125E-16	3.362001E-17
6.770000E+03	7.654497E-16	3.349692E-17
6.780000E+03	7.586658E-16	3.338890E-17
6.790000E+03	7.525849E-16	3.329777E-17
6.800000E+03	7.472303E-16	3.322528E-17
6.810000E+03	7.426247E-16	3.317308E-17
6.820000E+03	7.387978E-16	3.314314E-17
6.830000E+03	7.357608E-16	3.313652E-17
6.840000E+03	7.335406E-16	3.315494E-17
6.850000E+03	7.321445E-16	3.319919E-17
6.860000E+03	7.315951E-16	3.327067E-17
6.870000E+03	7.319038E-16	3.337021E-17
6.880000E+03	7.330793E-16	3.349843E-17
6.890000E+03	7.351270E-16	3.365574E-17
6.900000E+03	7.380578E-16	3.384270E-17
6.910000E+03	7.418523E-16	3.405840E-17
6.920000E+03	7.465223E-16	3.430329E-17
6.930000E+03	7.520483E-16	3.457629E-17
6.940000E+03	7.584240E-16	3.487681E-17
6.950000E+03	7.656196E-16	3.520313E-17
6.960000E+03	7.736181E-16	3.555401E-17
6.970000E+03	7.823782E-16	3.592703E-17
6.980000E+03	7.918711E-16	3.632023E-17
6.990000E+03	8.020523E-16	3.673091E-17
7.000000E+03	8.128610E-16	3.715551E-17
7.010000E+03	8.242391E-16	3.759055E-17
7.020000E+03	8.361416E-16	3.803313E-17
7.030000E+03	8.484760E-16	3.847813E-17
7.040000E+03	8.611729E-16	3.892144E-17
7.050000E+03	8.741340E-16	3.935767E-17
7.060000E+03	8.872746E-16	3.978206E-17
7.070000E+03	9.004806E-16	4.018855E-17
7.080000E+03	9.136522E-16	4.057179E-17
7.090000E+03	9.266714E-16	4.092571E-17
7.100000E+03	9.394014E-16	4.124351E-17
7.110000E+03	9.517226E-16	4.151930E-17
7.120000E+03	9.634861E-16	4.174610E-17
7.130000E+03	9.745502E-16	4.191746E-17
7.140000E+03	9.847822E-16	4.202754E-17
7.150000E+03	9.940229E-16	4.206966E-17
7.160000E+03	1.002124E-15	4.203794E-17
7.170000E+03	1.008953E-15	4.192743E-17
7.180000E+03	1.014338E-15	4.173208E-17
7.190000E+03	1.018168E-15	4.144858E-17
7.200000E+03	1.020298E-15	4.107278E-17
7.210000E+03	1.020607E-15	4.060191E-17
7.220000E+03	1.018986E-15	4.003422E-17
7.230000E+03	1.015347E-15	3.936909E-17
7.240000E+03	1.009604E-15	3.860666E-17
7.250000E+03	1.001737E-15	3.774992E-17
7.260000E+03	9.917133E-16	3.680184E-17
7.270000E+03	9.795438E-16	3.576736E-17
7.280000E+03	9.652721E-16	3.465294E-17
7.290000E+03	9.489764E-16	3.346654E-17
7.300000E+03	9.307704E-16	3.221747E-17
7.310000E+03	9.108031E-16	3.091631E-17
7.320000E+03	8.892569E-16	2.957468E-17
7.330000E+03	8.663559E-16	2.820534E-17
7.340000E+03	8.423384E-16	2.682117E-17
7.350000E+03	8.174637E-16	2.543526E-17
7.360000E+03	7.920058E-16	2.406061E-17
7.370000E+03	7.662569E-16	2.271015E-17
7.380000E+03	7.404987E-16	2.139580E-17
7.390000E+03	7.150163E-16	2.012888E-17
7.400000E+03	6.900713E-16	1.891936E-17
7.410000E+03	6.659061E-16	1.777604E-17
7.420000E+03	6.427556E-16	1.670688E-17
7.430000E+03	6.207983E-16	1.571781E-17
7.440000E+03	6.001813E-16	1.481341E-17
7.450000E+03	5.810253E-16	1.399711E-17
7.460000E+03	5.634067E-16	1.327067E-17
7.470000E+03	5.473737E-16	1.263460E-17
7.480000E+03	5.329321E-16	1.208779E-17
7.490000E+03	5.200575E-16	1.162783E-17
7.500000E+03	5.087065E-16	1.125131E-17
7.510000E+03	4.988155E-16	1.095394E-17
7.520000E+03	4.902943E-16	1.073055E-17
7.530000E+03	4.830708E-16	1.057633E-17
7.540000E+03	4.770433E-16	1.048595E-17
7.550000E+03	4.721228E-16	1.045468E-17
7.560000E+03	4.682288E-16	1.047849E-17
7.570000E+03	4.652643E-16	1.055353E-17
7.580000E+03	4.631608E-16	1.067722E-17
7.590000E+03	4.618275E-16	1.084705E-17
7.600000E+03	4.612009E-16	1.106162E-17
7.610000E+03	4.611946E-16	1.131932E-17
7.620000E+03	4.617420E-16	1.161921E-17
7.630000E+03	4.627713E-16	1.196025E-17
7.640000E+03	4.642130E-16	1.234115E-17
7.650000E+03	4.660053E-16	1.275984E-17
7.660000E+03	4.680900E-16	1.321378E-17
7.670000E+03	4.704029E-16	1.369991E-17
7.680000E+03	4.729000E-16	1.421542E-17
7.690000E+03	4.755126E-16	1.475654E-17
7.700000E+03	4.781988E-16	1.532001E-17
7.710000E+03	4.808926E-16	1.590168E-17
7.720000E+03	4.835557E-16	1.649809E-17
7.730000E+03	4.861325E-16	1.710513E-17
7.740000E+03	4.885767E-16	1.771893E-17
7.750000E+03	4.908515E-16	1.833587E-17
7.760000E+03	4.929107E-16	1.895200E-17
