#wls	flux	fluxerr
1.600000E+03	8.007156E-17	6.621723E-17
1.640000E+03	8.184268E-17	6.710879E-17
1.680000E+03	8.369783E-17	6.802879E-17
1.720000E+03	8.565554E-17	6.898912E-17
1.760000E+03	8.773557E-17	7.000200E-17
1.800000E+03	8.992706E-17	7.105469E-17
1.840000E+03	9.225058E-17	7.215928E-17
1.880000E+03	9.471146E-17	7.331521E-17
1.920000E+03	9.729807E-17	7.450862E-17
1.960000E+03	1.000495E-16	7.576429E-17
2.000000E+03	1.029546E-16	7.706780E-17
2.040000E+03	1.060368E-16	7.843066E-17
2.080000E+03	1.093026E-16	7.985086E-17
2.120000E+03	1.127774E-16	8.133955E-17
2.160000E+03	1.164298E-16	8.286633E-17
2.200000E+03	1.203239E-16	8.446882E-17
2.240000E+03	1.244476E-16	8.612911E-17
2.280000E+03	1.288280E-16	8.785628E-17
2.320000E+03	1.334510E-16	8.963033E-17
2.360000E+03	1.383867E-16	9.148725E-17
2.400000E+03	1.435990E-16	9.339070E-17
2.440000E+03	1.491376E-16	9.536041E-17
2.480000E+03	1.550081E-16	9.738604E-17
2.520000E+03	1.612145E-16	9.945562E-17
2.560000E+03	1.678316E-16	1.015995E-16
2.600000E+03	1.748138E-16	1.037728E-16
2.640000E+03	1.822349E-16	1.060020E-16
2.680000E+03	1.900683E-16	1.082525E-16
2.720000E+03	1.983863E-16	1.105460E-16
2.760000E+03	2.071824E-16	1.128570E-16
2.800000E+03	2.164713E-16	1.151720E-16
2.840000E+03	2.262917E-16	1.174885E-16
2.880000E+03	2.366217E-16	1.197716E-16
2.920000E+03	2.475460E-16	1.220399E-16
2.960000E+03	2.590305E-16	1.242506E-16
3.000000E+03	2.710890E-16	1.263854E-16
3.010000E+03	2.741845E-16	1.269002E-16
3.020000E+03	2.773281E-16	1.274140E-16
3.030000E+03	2.805191E-16	1.279259E-16
3.040000E+03	2.837267E-16	1.284215E-16
3.050000E+03	2.869796E-16	1.289136E-16
3.060000E+03	2.902765E-16	1.294010E-16
3.070000E+03	2.936165E-16	1.298829E-16
3.080000E+03	2.969684E-16	1.303451E-16
3.090000E+03	3.003908E-16	1.308132E-16
3.100000E+03	3.038223E-16	1.312597E-16
3.110000E+03	3.072917E-16	1.316970E-16
3.120000E+03	3.107975E-16	1.321241E-16
3.130000E+03	3.143684E-16	1.325527E-16
3.140000E+03	3.179424E-16	1.329563E-16
3.150000E+03	3.215785E-16	1.333592E-16
3.160000E+03	3.252143E-16	1.337352E-16
3.170000E+03	3.289088E-16	1.341085E-16
3.180000E+03	3.326602E-16	1.344778E-16
3.190000E+03	3.364058E-16	1.348173E-16
3.200000E+03	3.402046E-16	1.351507E-16
3.210000E+03	3.440546E-16	1.354766E-16
3.220000E+03	3.479232E-16	1.357819E-16
3.230000E+03	3.518082E-16	1.360658E-16
3.240000E+03	3.557380E-16	1.363388E-16
3.250000E+03	3.597103E-16	1.365999E-16
3.260000E+03	3.636922E-16	1.368362E-16
3.270000E+03	3.677423E-16	1.370697E-16
3.280000E+03	3.717971E-16	1.372764E-16
3.290000E+03	3.758845E-16	1.374665E-16
3.300000E+03	3.800018E-16	1.376389E-16
3.310000E+03	3.841463E-16	1.377925E-16
3.320000E+03	3.883151E-16	1.379261E-16
3.330000E+03	3.925055E-16	1.380386E-16
3.340000E+03	3.967447E-16	1.381397E-16
3.350000E+03	4.009691E-16	1.382070E-16
3.360000E+03	4.052362E-16	1.382605E-16
3.370000E+03	4.095427E-16	1.382990E-16
3.380000E+03	4.138551E-16	1.383110E-16
3.390000E+03	4.182002E-16	1.383056E-16
3.400000E+03	4.225445E-16	1.382719E-16
3.410000E+03	4.269145E-16	1.382187E-16
3.420000E+03	4.313066E-16	1.381449E-16
3.430000E+03	4.357172E-16	1.380494E-16
3.440000E+03	4.401424E-16	1.379312E-16
3.450000E+03	4.445784E-16	1.377894E-16
3.460000E+03	4.490215E-16	1.376230E-16
3.470000E+03	4.534678E-16	1.374311E-16
3.480000E+03	4.579425E-16	1.372218E-16
3.490000E+03	4.624123E-16	1.369853E-16
3.500000E+03	4.668733E-16	1.367208E-16
3.510000E+03	4.713792E-16	1.364446E-16
3.520000E+03	4.758391E-16	1.361306E-16
3.530000E+03	4.803352E-16	1.358031E-16
3.540000E+03	4.848344E-16	1.354528E-16
3.550000E+03	4.893037E-16	1.350712E-16
3.560000E+03	4.937959E-16	1.346736E-16
3.570000E+03	4.982780E-16	1.342513E-16
3.580000E+03	5.027457E-16	1.338038E-16
3.590000E+03	5.071947E-16	1.333309E-16
3.600000E+03	5.116485E-16	1.328392E-16
3.610000E+03	5.161024E-16	1.323283E-16
3.620000E+03	5.205246E-16	1.317905E-16
3.630000E+03	5.249380E-16	1.312327E-16
3.640000E+03	5.293384E-16	1.306544E-16
3.650000E+03	5.337213E-16	1.300553E-16
3.660000E+03	5.380826E-16	1.294353E-16
3.670000E+03	5.424181E-16	1.287941E-16
3.680000E+03	5.467501E-16	1.281380E-16
3.690000E+03	5.510481E-16	1.274605E-16
3.700000E+03	5.553343E-16	1.267676E-16
3.710000E+03	5.595791E-16	1.260535E-16
3.720000E+03	5.638045E-16	1.253240E-16
3.730000E+03	5.680320E-16	1.245846E-16
3.740000E+03	5.722076E-16	1.238243E-16
3.750000E+03	5.763536E-16	1.230489E-16
3.760000E+03	5.804669E-16	1.222586E-16
3.770000E+03	5.845690E-16	1.214587E-16
3.780000E+03	5.886330E-16	1.206443E-16
3.790000E+03	5.926805E-16	1.198207E-16
3.800000E+03	5.966854E-16	1.189833E-16
3.810000E+03	6.006697E-16	1.181373E-16
3.820000E+03	6.046316E-16	1.172829E-16
3.830000E+03	6.085697E-16	1.164205E-16
3.840000E+03	6.124829E-16	1.155505E-16
3.850000E+03	6.163707E-16	1.146733E-16
3.860000E+03	6.202550E-16	1.137935E-16
3.870000E+03	6.240912E-16	1.129034E-16
3.880000E+03	6.279244E-16	1.120114E-16
3.890000E+03	6.317548E-16	1.111181E-16
3.900000E+03	6.355618E-16	1.102200E-16
3.910000E+03	6.393687E-16	1.093214E-16
3.920000E+03	6.431561E-16	1.084191E-16
3.930000E+03	6.469685E-16	1.075208E-16
3.940000E+03	6.507668E-16	1.066199E-16
3.950000E+03	6.545750E-16	1.057205E-16
3.960000E+03	6.583768E-16	1.048198E-16
3.970000E+03	6.622166E-16	1.039248E-16
3.980000E+03	6.660785E-16	1.030328E-16
3.990000E+03	6.699482E-16	1.021414E-16
4.000000E+03	6.738702E-16	1.012571E-16
4.010000E+03	6.778305E-16	1.003774E-16
4.020000E+03	6.818167E-16	9.950027E-17
4.030000E+03	6.858732E-16	9.863177E-17
4.040000E+03	6.899695E-16	9.776710E-17
4.050000E+03	6.941317E-16	9.690964E-17
4.060000E+03	6.983676E-16	9.606003E-17
4.070000E+03	7.026849E-16	9.521892E-17
4.080000E+03	7.070741E-16	9.438462E-17
4.090000E+03	7.115441E-16	9.355802E-17
4.100000E+03	7.161213E-16	9.274227E-17
4.110000E+03	7.207972E-16	9.193593E-17
4.120000E+03	7.255979E-16	9.114210E-17
4.130000E+03	7.304818E-16	9.035536E-17
4.140000E+03	7.355090E-16	8.958317E-17
4.150000E+03	7.406553E-16	8.882249E-17
4.160000E+03	7.459300E-16	8.807460E-17
4.170000E+03	7.513424E-16	8.734085E-17
4.180000E+03	7.568854E-16	8.662080E-17
4.190000E+03	7.625682E-16	8.591606E-17
4.200000E+03	7.684154E-16	8.523008E-17
4.210000E+03	7.744033E-16	8.456106E-17
4.220000E+03	7.805243E-16	8.390927E-17
4.230000E+03	7.868175E-16	8.328020E-17
4.240000E+03	7.932431E-16	8.267105E-17
4.250000E+03	7.998231E-16	8.208584E-17
4.260000E+03	8.065479E-16	8.152547E-17
4.270000E+03	8.134226E-16	8.099254E-17
4.280000E+03	8.204362E-16	8.048825E-17
4.290000E+03	8.275769E-16	8.001396E-17
4.300000E+03	8.348322E-16	7.957117E-17
4.310000E+03	8.422186E-16	7.916428E-17
4.320000E+03	8.497211E-16	7.879479E-17
4.330000E+03	8.573091E-16	7.846285E-17
4.340000E+03	8.649806E-16	7.817132E-17
4.350000E+03	8.727172E-16	7.792152E-17
4.360000E+03	8.805142E-16	7.771587E-17
4.370000E+03	8.883504E-16	7.755516E-17
4.380000E+03	8.962180E-16	7.744108E-17
4.390000E+03	9.040786E-16	7.737233E-17
4.400000E+03	9.119067E-16	7.734837E-17
4.410000E+03	9.197190E-16	7.737171E-17
4.420000E+03	9.274437E-16	7.743685E-17
4.430000E+03	9.350942E-16	7.754487E-17
4.440000E+03	9.426250E-16	7.769134E-17
4.450000E+03	9.500183E-16	7.787363E-17
4.460000E+03	9.572553E-16	7.808851E-17
4.470000E+03	9.643021E-16	7.833109E-17
4.480000E+03	9.711386E-16	7.859723E-17
4.490000E+03	9.777304E-16	7.888134E-17
4.500000E+03	9.840572E-16	7.917875E-17
4.510000E+03	9.900848E-16	7.948351E-17
4.520000E+03	9.958218E-16	7.979306E-17
4.530000E+03	1.001221E-15	8.010037E-17
4.540000E+03	1.006266E-15	8.040086E-17
4.550000E+03	1.010953E-15	8.069128E-17
4.560000E+03	1.015240E-15	8.096540E-17
4.570000E+03	1.019142E-15	8.122177E-17
4.580000E+03	1.022633E-15	8.145611E-17
4.590000E+03	1.025692E-15	8.166463E-17
4.600000E+03	1.028339E-15	8.184736E-17
4.610000E+03	1.030556E-15	8.200161E-17
4.620000E+03	1.032342E-15	8.212636E-17
4.630000E+03	1.033684E-15	8.222013E-17
4.640000E+03	1.034613E-15	8.228519E-17
4.650000E+03	1.035122E-15	8.232118E-17
4.660000E+03	1.035206E-15	8.232831E-17
4.670000E+03	1.034903E-15	8.231040E-17
4.680000E+03	1.034212E-15	8.226857E-17
4.690000E+03	1.033149E-15	8.220540E-17
4.700000E+03	1.031732E-15	8.212375E-17
4.710000E+03	1.029980E-15	8.202675E-17
4.720000E+03	1.027925E-15	8.191867E-17
4.730000E+03	1.025578E-15	8.180183E-17
4.740000E+03	1.022960E-15	8.167954E-17
4.750000E+03	1.020096E-15	8.155498E-17
4.760000E+03	1.017034E-15	8.143309E-17
4.770000E+03	1.013773E-15	8.131456E-17
4.780000E+03	1.010350E-15	8.120264E-17
4.790000E+03	1.006799E-15	8.110013E-17
4.800000E+03	1.003121E-15	8.100639E-17
4.810000E+03	9.993727E-16	8.092504E-17
4.820000E+03	9.955634E-16	8.085526E-17
4.830000E+03	9.917130E-16	8.079669E-17
4.840000E+03	9.878519E-16	8.074942E-17
4.850000E+03	9.839975E-16	8.071220E-17
4.860000E+03	9.801770E-16	8.068434E-17
4.870000E+03	9.763933E-16	8.066298E-17
4.880000E+03	9.726821E-16	8.064781E-17
4.890000E+03	9.690544E-16	8.063648E-17
4.900000E+03	9.655089E-16	8.062557E-17
4.910000E+03	9.620871E-16	8.061528E-17
4.920000E+03	9.587734E-16	8.060113E-17
4.930000E+03	9.555949E-16	8.058232E-17
4.940000E+03	9.525444E-16	8.055529E-17
4.950000E+03	9.496351E-16	8.051837E-17
4.960000E+03	9.468787E-16	8.046995E-17
4.970000E+03	9.442749E-16	8.040754E-17
4.980000E+03	9.418220E-16	8.032878E-17
4.990000E+03	9.395280E-16	8.023230E-17
5.000000E+03	9.373784E-16	8.011500E-17
5.010000E+03	9.353791E-16	7.997576E-17
5.020000E+03	9.335351E-16	7.981354E-17
5.030000E+03	9.318290E-16	7.962564E-17
5.040000E+03	9.302640E-16	7.941133E-17
5.050000E+03	9.288321E-16	7.916912E-17
5.060000E+03	9.275349E-16	7.889857E-17
5.070000E+03	9.263524E-16	7.859764E-17
5.080000E+03	9.252747E-16	7.826539E-17
5.090000E+03	9.243019E-16	7.790195E-17
5.100000E+03	9.234230E-16	7.750679E-17
5.110000E+03	9.226268E-16	7.707963E-17
5.120000E+03	9.219118E-16	7.662128E-17
5.130000E+03	9.212457E-16	7.613028E-17
5.140000E+03	9.206369E-16	7.560888E-17
5.150000E+03	9.200628E-16	7.505707E-17
5.160000E+03	9.195213E-16	7.447688E-17
5.170000E+03	9.189896E-16	7.386902E-17
5.180000E+03	9.184553E-16	7.323543E-17
5.190000E+03	9.179162E-16	7.257923E-17
5.200000E+03	9.173496E-16	7.190235E-17
5.210000E+03	9.167536E-16	7.120873E-17
5.220000E+03	9.161060E-16	7.050117E-17
5.230000E+03	9.153952E-16	6.978370E-17
5.240000E+03	9.146099E-16	6.906079E-17
5.250000E+03	9.137491E-16	6.833805E-17
5.260000E+03	9.127824E-16	6.761926E-17
5.270000E+03	9.117099E-16	6.691079E-17
5.280000E+03	9.105123E-16	6.621783E-17
5.290000E+03	9.091910E-16	6.554727E-17
5.300000E+03	9.077183E-16	6.490399E-17
5.310000E+03	9.061069E-16	6.429572E-17
5.320000E+03	9.043211E-16	6.372663E-17
5.330000E+03	9.023754E-16	6.320412E-17
5.340000E+03	9.002557E-16	6.273311E-17
5.350000E+03	8.979489E-16	6.231799E-17
5.360000E+03	8.954531E-16	6.196311E-17
5.370000E+03	8.927673E-16	6.167194E-17
5.380000E+03	8.898821E-16	6.144630E-17
5.390000E+03	8.867988E-16	6.128753E-17
5.400000E+03	8.835010E-16	6.119446E-17
5.410000E+03	8.800117E-16	6.116729E-17
5.420000E+03	8.763263E-16	6.120309E-17
5.430000E+03	8.724324E-16	6.129725E-17
5.440000E+03	8.683471E-16	6.144623E-17
5.450000E+03	8.640700E-16	6.164444E-17
5.460000E+03	8.596206E-16	6.188704E-17
5.470000E+03	8.549917E-16	6.216686E-17
5.480000E+03	8.502052E-16	6.247847E-17
5.490000E+03	8.452745E-16	6.281574E-17
5.500000E+03	8.402142E-16	6.317261E-17
5.510000E+03	8.350396E-16	6.354326E-17
5.520000E+03	8.297757E-16	6.392280E-17
5.530000E+03	8.244304E-16	6.430538E-17
5.540000E+03	8.190296E-16	6.468693E-17
5.550000E+03	8.135909E-16	6.506317E-17
5.560000E+03	8.081407E-16	6.543096E-17
5.570000E+03	8.027053E-16	6.578766E-17
5.580000E+03	7.972936E-16	6.612970E-17
5.590000E+03	7.919402E-16	6.645606E-17
5.600000E+03	7.866620E-16	6.676474E-17
5.610000E+03	7.814753E-16	6.705410E-17
5.620000E+03	7.764127E-16	6.732431E-17
5.630000E+03	7.714809E-16	6.757367E-17
5.640000E+03	7.666941E-16	6.780149E-17
5.650000E+03	7.620820E-16	6.800872E-17
5.660000E+03	7.576569E-16	6.819507E-17
5.670000E+03	7.534298E-16	6.836038E-17
5.680000E+03	7.494189E-16	6.850534E-17
5.690000E+03	7.456248E-16	6.862924E-17
5.700000E+03	7.420633E-16	6.873285E-17
5.710000E+03	7.387408E-16	6.881627E-17
5.720000E+03	7.356704E-16	6.888027E-17
5.730000E+03	7.328560E-16	6.892488E-17
5.740000E+03	7.303003E-16	6.895006E-17
5.750000E+03	7.280049E-16	6.895571E-17
5.760000E+03	7.259624E-16	6.894088E-17
5.770000E+03	7.241958E-16	6.890755E-17
5.780000E+03	7.226797E-16	6.885310E-17
5.790000E+03	7.214273E-16	6.877856E-17
5.800000E+03	7.204350E-16	6.868340E-17
5.810000E+03	7.196907E-16	6.856621E-17
5.820000E+03	7.191894E-16	6.842628E-17
5.830000E+03	7.189410E-16	6.826431E-17
5.840000E+03	7.189158E-16	6.807723E-17
5.850000E+03	7.191229E-16	6.786563E-17
5.860000E+03	7.195551E-16	6.762861E-17
5.870000E+03	7.201895E-16	6.736374E-17
5.880000E+03	7.210344E-16	6.707160E-17
5.890000E+03	7.220820E-16	6.675129E-17
5.900000E+03	7.233092E-16	6.640051E-17
5.910000E+03	7.247163E-16	6.601920E-17
5.920000E+03	7.262958E-16	6.560670E-17
5.930000E+03	7.280327E-16	6.516171E-17
5.940000E+03	7.299279E-16	6.468452E-17
5.950000E+03	7.319669E-16	6.417416E-17
5.960000E+03	7.341433E-16	6.363054E-17
5.970000E+03	7.364511E-16	6.305380E-17
5.980000E+03	7.388847E-16	6.244430E-17
5.990000E+03	7.414307E-16	6.180201E-17
6.000000E+03	7.440841E-16	6.112785E-17
6.010000E+03	7.468319E-16	6.042245E-17
6.020000E+03	7.496862E-16	5.968879E-17
6.030000E+03	7.526263E-16	5.892757E-17
6.040000E+03	7.556480E-16	5.814130E-17
6.050000E+03	7.587391E-16	5.733236E-17
6.060000E+03	7.619122E-16	5.650553E-17
6.070000E+03	7.651380E-16	5.566306E-17
6.080000E+03	7.684293E-16	5.481097E-17
6.090000E+03	7.717730E-16	5.395409E-17
6.100000E+03	7.751559E-16	5.309804E-17
6.110000E+03	7.785728E-16	5.224982E-17
6.120000E+03	7.820266E-16	5.141783E-17
6.130000E+03	7.854939E-16	5.060955E-17
6.140000E+03	7.889766E-16	4.983499E-17
6.150000E+03	7.924672E-16	4.910436E-17
6.160000E+03	7.959579E-16	4.842850E-17
6.170000E+03	7.994310E-16	4.781824E-17
6.180000E+03	8.028772E-16	4.728524E-17
6.190000E+03	8.062863E-16	4.684117E-17
6.200000E+03	8.096477E-16	4.649733E-17
6.210000E+03	8.129590E-16	4.626482E-17
6.220000E+03	8.161904E-16	4.615197E-17
6.230000E+03	8.193478E-16	4.616761E-17
6.240000E+03	8.224001E-16	4.631648E-17
6.250000E+03	8.253529E-16	4.660303E-17
6.260000E+03	8.281837E-16	4.702760E-17
6.270000E+03	8.308887E-16	4.758905E-17
6.280000E+03	8.334359E-16	4.828223E-17
6.290000E+03	8.358312E-16	4.910203E-17
6.300000E+03	8.380523E-16	5.003991E-17
6.310000E+03	8.400966E-16	5.108702E-17
6.320000E+03	8.419525E-16	5.223295E-17
6.330000E+03	8.435995E-16	5.346597E-17
6.340000E+03	8.450371E-16	5.477523E-17
6.350000E+03	8.462560E-16	5.614922E-17
6.360000E+03	8.472383E-16	5.757594E-17
6.370000E+03	8.479964E-16	5.904572E-17
6.380000E+03	8.485147E-16	6.054742E-17
6.390000E+03	8.487883E-16	6.207109E-17
6.400000E+03	8.488138E-16	6.360745E-17
6.410000E+03	8.485892E-16	6.514787E-17
6.420000E+03	8.481233E-16	6.668518E-17
6.430000E+03	8.474069E-16	6.821139E-17
6.440000E+03	8.464417E-16	6.971991E-17
6.450000E+03	8.452408E-16	7.120566E-17
6.460000E+03	8.438083E-16	7.266339E-17
6.470000E+03	8.421498E-16	7.408849E-17
6.480000E+03	8.402619E-16	7.547601E-17
6.490000E+03	8.381721E-16	7.682425E-17
6.500000E+03	8.358791E-16	7.812934E-17
6.510000E+03	8.333923E-16	7.938882E-17
6.520000E+03	8.307319E-16	8.060163E-17
6.530000E+03	8.278988E-16	8.176524E-17
6.540000E+03	8.249144E-16	8.287946E-17
6.550000E+03	8.218007E-16	8.394453E-17
6.560000E+03	8.185601E-16	8.495903E-17
6.570000E+03	8.152152E-16	8.592387E-17
6.580000E+03	8.117787E-16	8.683923E-17
6.590000E+03	8.082636E-16	8.770555E-17
6.600000E+03	8.046829E-16	8.852349E-17
6.610000E+03	8.010692E-16	8.929609E-17
6.620000E+03	7.974156E-16	9.002222E-17
6.630000E+03	7.937542E-16	9.070530E-17
6.640000E+03	7.900972E-16	9.134666E-17
6.650000E+03	7.864467E-16	9.194660E-17
6.660000E+03	7.828339E-16	9.250892E-17
6.670000E+03	7.792599E-16	9.303403E-17
6.680000E+03	7.757353E-16	9.352353E-17
6.690000E+03	7.722895E-16	9.398138E-17
6.700000E+03	7.689221E-16	9.440805E-17
6.710000E+03	7.656516E-16	9.480632E-17
6.720000E+03	7.624764E-16	9.517658E-17
6.730000E+03	7.594135E-16	9.552153E-17
6.740000E+03	7.564696E-16	9.584263E-17
6.750000E+03	7.536603E-16	9.614249E-17
6.760000E+03	7.509715E-16	9.641991E-17
6.770000E+03	7.484365E-16	9.667981E-17
6.780000E+03	7.460492E-16	9.692201E-17
6.790000E+03	7.438029E-16	9.714620E-17
6.800000E+03	7.417090E-16	9.735447E-17
6.810000E+03	7.397784E-16	9.754874E-17
6.820000E+03	7.380017E-16	9.772831E-17
6.830000E+03	7.363879E-16	9.789483E-17
6.840000E+03	7.349259E-16	9.804726E-17
6.850000E+03	7.336231E-16	9.818696E-17
6.860000E+03	7.324763E-16	9.831385E-17
6.870000E+03	7.314814E-16	9.842767E-17
6.880000E+03	7.306238E-16	9.852673E-17
6.890000E+03	7.299170E-16	9.861305E-17
6.900000E+03	7.293350E-16	9.868328E-17
6.910000E+03	7.288897E-16	9.873915E-17
6.920000E+03	7.285630E-16	9.877831E-17
6.930000E+03	7.283458E-16	9.879956E-17
6.940000E+03	7.282280E-16	9.880155E-17
6.950000E+03	7.281989E-16	9.878281E-17
6.960000E+03	7.282471E-16	9.874174E-17
6.970000E+03	7.283703E-16	9.867795E-17
6.980000E+03	7.285459E-16	9.858831E-17
6.990000E+03	7.287507E-16	9.846958E-17
7.000000E+03	7.289906E-16	9.832244E-17
7.010000E+03	7.292414E-16	9.814354E-17
7.020000E+03	7.294885E-16	9.793079E-17
7.030000E+03	7.297171E-16	9.768212E-17
7.040000E+03	7.299119E-16	9.739544E-17
7.050000E+03	7.300580E-16	9.706868E-17
7.060000E+03	7.301302E-16	9.669851E-17
7.070000E+03	7.301235E-16	9.628430E-17
7.080000E+03	7.300232E-16	9.582420E-17
7.090000E+03	7.298051E-16	9.531515E-17
7.100000E+03	7.294654E-16	9.475686E-17
7.110000E+03	7.289711E-16	9.414530E-17
7.120000E+03	7.283296E-16	9.348181E-17
7.130000E+03	7.275198E-16	9.276404E-17
7.140000E+03	7.265212E-16	9.198991E-17
7.150000E+03	7.253346E-16	9.116011E-17
7.160000E+03	7.239520E-16	9.027430E-17
7.170000E+03	7.223470E-16	8.932997E-17
7.180000E+03	7.205344E-16	8.832982E-17
7.190000E+03	7.184908E-16	8.727194E-17
7.200000E+03	7.162340E-16	8.615954E-17
7.210000E+03	7.137341E-16	8.499017E-17
7.220000E+03	7.110122E-16	8.376761E-17
7.230000E+03	7.080518E-16	8.249124E-17
7.240000E+03	7.048676E-16	8.116419E-17
7.250000E+03	7.014562E-16	7.978760E-17
7.260000E+03	6.978354E-16	7.836505E-17
7.270000E+03	6.939955E-16	7.689712E-17
7.280000E+03	6.899478E-16	7.538680E-17
7.290000E+03	6.857142E-16	7.383829E-17
7.300000E+03	6.812896E-16	7.225289E-17
7.310000E+03	6.766889E-16	7.063413E-17
7.320000E+03	6.719373E-16	6.898661E-17
7.330000E+03	6.670420E-16	6.731310E-17
7.340000E+03	6.620111E-16	6.561648E-17
7.350000E+03	6.568624E-16	6.390068E-17
7.360000E+03	6.516141E-16	6.216969E-17
7.370000E+03	6.462843E-16	6.042747E-17
7.380000E+03	6.408822E-16	5.867722E-17
7.390000E+03	6.354345E-16	5.692381E-17
7.400000E+03	6.299411E-16	5.516972E-17
7.410000E+03	6.244280E-16	5.341988E-17
7.420000E+03	6.189114E-16	5.167844E-17
7.430000E+03	6.134067E-16	4.994960E-17
7.440000E+03	6.079201E-16	4.823696E-17
7.450000E+03	6.024737E-16	4.654566E-17
7.460000E+03	5.970799E-16	4.488026E-17
7.470000E+03	5.917418E-16	4.324493E-17
7.480000E+03	5.864780E-16	4.164536E-17
7.490000E+03	5.812974E-16	4.008692E-17
7.500000E+03	5.762077E-16	3.857535E-17
7.510000E+03	5.712237E-16	3.711736E-17
7.520000E+03	5.663427E-16	3.571905E-17
7.530000E+03	5.615689E-16	3.438757E-17
7.540000E+03	5.569213E-16	3.313153E-17
7.550000E+03	5.523940E-16	3.195850E-17
7.560000E+03	5.479883E-16	3.087689E-17
7.570000E+03	5.437119E-16	2.989573E-17
7.580000E+03	5.395566E-16	2.902308E-17
7.590000E+03	5.355285E-16	2.826744E-17
7.600000E+03	5.316329E-16	2.763641E-17
7.610000E+03	5.278595E-16	2.713550E-17
7.620000E+03	5.242121E-16	2.676923E-17
7.630000E+03	5.206869E-16	2.653958E-17
7.640000E+03	5.172719E-16	2.644568E-17
7.650000E+03	5.139768E-16	2.648521E-17
7.660000E+03	5.107819E-16	2.665194E-17
7.670000E+03	5.076960E-16	2.693908E-17
7.680000E+03	5.047135E-16	2.733752E-17
7.690000E+03	5.018215E-16	2.783668E-17
7.700000E+03	4.990145E-16	2.842578E-17
7.710000E+03	4.963010E-16	2.909474E-17
7.720000E+03	4.936545E-16	2.983166E-17
7.730000E+03	4.910910E-16	3.062767E-17
7.740000E+03	4.885915E-16	3.147244E-17
7.750000E+03	4.861586E-16	3.235775E-17
7.760000E+03	4.837879E-16	3.327576E-17
