#wls	flux	fluxerr
1.600000E+03	5.781142E-17	4.817578E-17
1.640000E+03	5.892043E-17	4.868826E-17
1.680000E+03	6.006986E-17	4.920722E-17
1.720000E+03	6.128156E-17	4.974874E-17
1.760000E+03	6.253586E-17	5.029479E-17
1.800000E+03	6.384434E-17	5.085278E-17
1.840000E+03	6.520816E-17	5.142150E-17
1.880000E+03	6.663964E-17	5.200833E-17
1.920000E+03	6.812900E-17	5.260313E-17
1.960000E+03	6.968880E-17	5.321308E-17
2.000000E+03	7.130873E-17	5.382760E-17
2.040000E+03	7.301353E-17	5.446256E-17
2.080000E+03	7.478075E-17	5.509811E-17
2.120000E+03	7.663565E-17	5.574986E-17
2.160000E+03	7.856731E-17	5.640645E-17
2.200000E+03	8.057659E-17	5.706523E-17
2.240000E+03	8.269008E-17	5.774143E-17
2.280000E+03	8.489636E-17	5.842302E-17
2.320000E+03	8.719630E-17	5.910671E-17
2.360000E+03	8.959055E-17	5.978902E-17
2.400000E+03	9.210706E-17	6.048434E-17
2.440000E+03	9.471916E-17	6.117058E-17
2.480000E+03	9.746923E-17	6.187065E-17
2.520000E+03	1.003297E-16	6.256198E-17
2.560000E+03	1.033148E-16	6.324889E-17
2.600000E+03	1.064242E-16	6.392642E-17
2.640000E+03	1.096876E-16	6.460721E-17
2.680000E+03	1.130895E-16	6.527685E-17
2.720000E+03	1.166289E-16	6.592975E-17
2.760000E+03	1.203354E-16	6.657758E-17
2.800000E+03	1.242076E-16	6.721416E-17
2.840000E+03	1.282438E-16	6.783326E-17
2.880000E+03	1.324411E-16	6.842867E-17
2.920000E+03	1.368290E-16	6.901087E-17
2.960000E+03	1.414041E-16	6.957326E-17
3.000000E+03	1.461624E-16	7.010947E-17
3.010000E+03	1.473847E-16	7.024096E-17
3.020000E+03	1.486233E-16	7.037282E-17
3.030000E+03	1.498782E-16	7.050492E-17
3.040000E+03	1.511324E-16	7.062923E-17
3.050000E+03	1.524027E-16	7.075361E-17
3.060000E+03	1.536889E-16	7.087795E-17
3.070000E+03	1.549911E-16	7.100212E-17
3.080000E+03	1.563091E-16	7.112602E-17
3.090000E+03	1.576257E-16	7.124180E-17
3.100000E+03	1.589580E-16	7.135715E-17
3.110000E+03	1.603229E-16	7.147962E-17
3.120000E+03	1.616861E-16	7.159375E-17
3.130000E+03	1.630645E-16	7.170714E-17
3.140000E+03	1.644582E-16	7.181968E-17
3.150000E+03	1.658496E-16	7.192376E-17
3.160000E+03	1.672733E-16	7.203433E-17
3.170000E+03	1.687118E-16	7.214376E-17
3.180000E+03	1.701651E-16	7.225195E-17
3.190000E+03	1.716154E-16	7.235146E-17
3.200000E+03	1.730977E-16	7.245694E-17
3.210000E+03	1.745942E-16	7.256091E-17
3.220000E+03	1.760873E-16	7.265607E-17
3.230000E+03	1.776120E-16	7.275682E-17
3.240000E+03	1.791505E-16	7.285583E-17
3.250000E+03	1.806851E-16	7.294590E-17
3.260000E+03	1.822507E-16	7.304123E-17
3.270000E+03	1.838297E-16	7.313458E-17
3.280000E+03	1.854219E-16	7.322590E-17
3.290000E+03	1.870271E-16	7.331512E-17
3.300000E+03	1.886451E-16	7.340217E-17
3.310000E+03	1.902756E-16	7.348701E-17
3.320000E+03	1.919364E-16	7.357637E-17
3.330000E+03	1.935916E-16	7.365657E-17
3.340000E+03	1.952766E-16	7.374109E-17
3.350000E+03	1.969735E-16	7.382310E-17
3.360000E+03	1.986820E-16	7.390256E-17
3.370000E+03	2.004018E-16	7.397942E-17
3.380000E+03	2.021329E-16	7.405363E-17
3.390000E+03	2.038928E-16	7.413167E-17
3.400000E+03	2.056635E-16	7.420690E-17
3.410000E+03	2.074447E-16	7.427931E-17
3.420000E+03	2.092540E-16	7.435521E-17
3.430000E+03	2.110555E-16	7.442183E-17
3.440000E+03	2.128848E-16	7.449180E-17
3.450000E+03	2.147236E-16	7.455875E-17
3.460000E+03	2.165896E-16	7.462884E-17
3.470000E+03	2.184648E-16	7.469578E-17
3.480000E+03	2.203487E-16	7.475955E-17
3.490000E+03	2.222592E-16	7.482619E-17
3.500000E+03	2.241780E-16	7.488954E-17
3.510000E+03	2.261049E-16	7.494961E-17
3.520000E+03	2.280575E-16	7.501228E-17
3.530000E+03	2.300177E-16	7.507156E-17
3.540000E+03	2.319851E-16	7.512744E-17
3.550000E+03	2.339775E-16	7.518569E-17
3.560000E+03	2.359767E-16	7.524045E-17
3.570000E+03	2.380003E-16	7.529739E-17
3.580000E+03	2.400302E-16	7.535075E-17
3.590000E+03	2.420660E-16	7.540053E-17
3.600000E+03	2.441255E-16	7.545229E-17
3.610000E+03	2.462085E-16	7.550589E-17
3.620000E+03	2.482966E-16	7.555575E-17
3.630000E+03	2.503898E-16	7.560188E-17
3.640000E+03	2.525056E-16	7.564967E-17
3.650000E+03	2.546260E-16	7.569366E-17
3.660000E+03	2.567686E-16	7.573915E-17
3.670000E+03	2.589153E-16	7.578080E-17
3.680000E+03	2.610838E-16	7.582382E-17
3.690000E+03	2.632739E-16	7.586808E-17
3.700000E+03	2.654496E-16	7.590329E-17
3.710000E+03	2.676644E-16	7.594478E-17
3.720000E+03	2.698824E-16	7.598228E-17
3.730000E+03	2.721034E-16	7.601583E-17
3.740000E+03	2.743453E-16	7.605041E-17
3.750000E+03	2.765900E-16	7.608102E-17
3.760000E+03	2.788552E-16	7.611258E-17
3.770000E+03	2.811409E-16	7.614499E-17
3.780000E+03	2.834293E-16	7.617344E-17
3.790000E+03	2.857203E-16	7.619797E-17
3.800000E+03	2.880317E-16	7.622334E-17
3.810000E+03	2.903458E-16	7.624485E-17
3.820000E+03	2.926803E-16	7.626719E-17
3.830000E+03	2.950353E-16	7.629033E-17
3.840000E+03	2.973932E-16	7.630971E-17
3.850000E+03	2.997542E-16	7.632545E-17
3.860000E+03	3.021360E-16	7.634208E-17
3.870000E+03	3.045213E-16	7.635523E-17
3.880000E+03	3.069279E-16	7.636938E-17
3.890000E+03	3.093384E-16	7.638024E-17
3.900000E+03	3.117531E-16	7.638796E-17
3.910000E+03	3.141900E-16	7.639694E-17
3.920000E+03	3.166492E-16	7.640726E-17
3.930000E+03	3.190963E-16	7.641066E-17
3.940000E+03	3.215666E-16	7.641570E-17
3.950000E+03	3.240605E-16	7.642250E-17
3.960000E+03	3.265437E-16	7.642306E-17
3.970000E+03	3.290515E-16	7.642578E-17
3.980000E+03	3.315843E-16	7.643081E-17
3.990000E+03	3.341081E-16	7.643041E-17
4.000000E+03	3.366582E-16	7.643282E-17
4.010000E+03	3.392005E-16	7.643047E-17
4.020000E+03	3.417702E-16	7.643148E-17
4.030000E+03	3.443678E-16	7.643608E-17
4.040000E+03	3.469598E-16	7.643696E-17
4.050000E+03	3.495639E-16	7.643835E-17
4.060000E+03	3.521808E-16	7.644063E-17
4.070000E+03	3.548283E-16	7.644786E-17
4.080000E+03	3.574729E-16	7.645308E-17
4.090000E+03	3.601325E-16	7.646044E-17
4.100000E+03	3.628076E-16	7.647036E-17
4.110000E+03	3.654989E-16	7.648332E-17
4.120000E+03	3.682070E-16	7.649978E-17
4.130000E+03	3.709327E-16	7.652024E-17
4.140000E+03	3.736595E-16	7.654171E-17
4.150000E+03	3.764049E-16	7.656825E-17
4.160000E+03	3.791527E-16	7.659695E-17
4.170000E+03	3.819371E-16	7.663518E-17
4.180000E+03	3.847079E-16	7.667334E-17
4.190000E+03	3.875160E-16	7.672210E-17
4.200000E+03	3.903115E-16	7.677203E-17
4.210000E+03	3.931450E-16	7.683365E-17
4.220000E+03	3.959663E-16	7.689768E-17
4.230000E+03	3.988092E-16	7.697126E-17
4.240000E+03	4.016571E-16	7.705171E-17
4.250000E+03	4.045099E-16	7.713963E-17
4.260000E+03	4.073844E-16	7.723878E-17
4.270000E+03	4.102471E-16	7.734336E-17
4.280000E+03	4.131311E-16	7.746023E-17
4.290000E+03	4.160195E-16	7.758675E-17
4.300000E+03	4.188953E-16	7.772034E-17
4.310000E+03	4.217914E-16	7.786765E-17
4.320000E+03	4.246740E-16	7.802296E-17
4.330000E+03	4.275591E-16	7.818977E-17
4.340000E+03	4.304461E-16	7.836842E-17
4.350000E+03	4.333177E-16	7.855623E-17
4.360000E+03	4.362063E-16	7.875948E-17
4.370000E+03	4.390612E-16	7.896942E-17
4.380000E+03	4.419148E-16	7.919222E-17
4.390000E+03	4.447661E-16	7.942798E-17
4.400000E+03	4.475975E-16	7.967381E-17
4.410000E+03	4.504244E-16	7.993265E-17
4.420000E+03	4.532130E-16	8.019860E-17
4.430000E+03	4.559949E-16	8.047738E-17
4.440000E+03	4.587527E-16	8.076590E-17
4.450000E+03	4.615016E-16	8.106680E-17
4.460000E+03	4.642077E-16	8.137402E-17
4.470000E+03	4.668862E-16	8.169009E-17
4.480000E+03	4.695525E-16	8.201747E-17
4.490000E+03	4.721725E-16	8.234997E-17
4.500000E+03	4.747781E-16	8.269281E-17
4.510000E+03	4.773353E-16	8.303974E-17
4.520000E+03	4.798596E-16	8.339302E-17
4.530000E+03	4.823336E-16	8.374922E-17
4.540000E+03	4.847889E-16	8.411335E-17
4.550000E+03	4.871921E-16	8.447910E-17
4.560000E+03	4.895586E-16	8.484859E-17
4.570000E+03	4.918713E-16	8.521833E-17
4.580000E+03	4.941458E-16	8.559042E-17
4.590000E+03	4.963652E-16	8.596132E-17
4.600000E+03	4.985453E-16	8.633315E-17
4.610000E+03	5.006691E-16	8.670238E-17
4.620000E+03	5.027527E-16	8.707112E-17
4.630000E+03	5.047793E-16	8.743585E-17
4.640000E+03	5.067650E-16	8.779869E-17
4.650000E+03	5.086935E-16	8.815619E-17
4.660000E+03	5.105646E-16	8.850768E-17
4.670000E+03	5.123784E-16	8.885254E-17
4.680000E+03	5.141510E-16	8.919294E-17
4.690000E+03	5.158666E-16	8.952551E-17
4.700000E+03	5.175254E-16	8.984968E-17
4.710000E+03	5.191277E-16	9.016491E-17
4.720000E+03	5.206898E-16	9.047345E-17
4.730000E+03	5.221803E-16	9.076928E-17
4.740000E+03	5.236316E-16	9.105747E-17
4.750000E+03	5.250282E-16	9.133479E-17
4.760000E+03	5.263707E-16	9.160085E-17
4.770000E+03	5.276599E-16	9.185524E-17
4.780000E+03	5.289120E-16	9.210034E-17
4.790000E+03	5.300962E-16	9.233030E-17
4.800000E+03	5.312290E-16	9.254756E-17
4.810000E+03	5.323268E-16	9.275454E-17
4.820000E+03	5.333588E-16	9.294549E-17
4.830000E+03	5.343571E-16	9.312559E-17
4.840000E+03	5.353067E-16	9.329189E-17
4.850000E+03	5.361925E-16	9.344142E-17
4.860000E+03	5.370464E-16	9.357942E-17
4.870000E+03	5.378534E-16	9.370298E-17
4.880000E+03	5.386139E-16	9.381194E-17
4.890000E+03	5.393286E-16	9.390613E-17
4.900000E+03	5.399977E-16	9.398544E-17
4.910000E+03	5.406218E-16	9.404974E-17
4.920000E+03	5.412010E-16	9.409895E-17
4.930000E+03	5.417358E-16	9.413299E-17
4.940000E+03	5.422263E-16	9.415182E-17
4.950000E+03	5.426726E-16	9.415541E-17
4.960000E+03	5.430900E-16	9.414639E-17
4.970000E+03	5.434482E-16	9.411949E-17
4.980000E+03	5.437774E-16	9.408003E-17
4.990000E+03	5.440624E-16	9.402544E-17
5.000000E+03	5.443030E-16	9.395581E-17
5.010000E+03	5.444990E-16	9.387127E-17
5.020000E+03	5.446501E-16	9.377197E-17
5.030000E+03	5.447561E-16	9.365811E-17
5.040000E+03	5.448316E-16	9.353245E-17
5.050000E+03	5.448461E-16	9.339012E-17
5.060000E+03	5.448293E-16	9.323651E-17
5.070000E+03	5.447658E-16	9.306939E-17
5.080000E+03	5.446551E-16	9.288911E-17
5.090000E+03	5.445115E-16	9.269857E-17
5.100000E+03	5.443050E-16	9.249317E-17
5.110000E+03	5.440648E-16	9.227838E-17
5.120000E+03	5.437756E-16	9.205221E-17
5.130000E+03	5.434517E-16	9.181765E-17
5.140000E+03	5.430634E-16	9.157032E-17
5.150000E+03	5.426397E-16	9.131578E-17
5.160000E+03	5.421657E-16	9.105219E-17
5.170000E+03	5.416556E-16	9.078265E-17
5.180000E+03	5.410948E-16	9.050542E-17
5.190000E+03	5.404833E-16	9.022122E-17
5.200000E+03	5.398211E-16	8.993081E-17
5.210000E+03	5.391226E-16	8.963734E-17
5.220000E+03	5.383737E-16	8.933921E-17
5.230000E+03	5.375746E-16	8.903722E-17
5.240000E+03	5.367401E-16	8.873453E-17
5.250000E+03	5.358564E-16	8.842957E-17
5.260000E+03	5.349384E-16	8.812550E-17
5.270000E+03	5.339725E-16	8.782078E-17
5.280000E+03	5.329597E-16	8.751619E-17
5.290000E+03	5.319151E-16	8.721481E-17
5.300000E+03	5.308258E-16	8.691509E-17
5.310000E+03	5.297070E-16	8.662001E-17
5.320000E+03	5.285460E-16	8.632799E-17
5.330000E+03	5.273446E-16	8.603966E-17
5.340000E+03	5.261182E-16	8.575789E-17
5.350000E+03	5.248684E-16	8.548321E-17
5.360000E+03	5.235834E-16	8.521386E-17
5.370000E+03	5.222653E-16	8.495030E-17
5.380000E+03	5.209297E-16	8.469513E-17
5.390000E+03	5.195790E-16	8.444864E-17
5.400000E+03	5.182018E-16	8.420888E-17
5.410000E+03	5.168141E-16	8.397823E-17
5.420000E+03	5.154049E-16	8.375463E-17
5.430000E+03	5.139768E-16	8.353813E-17
5.440000E+03	5.125592E-16	8.333309E-17
5.450000E+03	5.111282E-16	8.313510E-17
5.460000E+03	5.096864E-16	8.294406E-17
5.470000E+03	5.082501E-16	8.276198E-17
5.480000E+03	5.068219E-16	8.258865E-17
5.490000E+03	5.053915E-16	8.242170E-17
5.500000E+03	5.039750E-16	8.226300E-17
5.510000E+03	5.025751E-16	8.211224E-17
5.520000E+03	5.011947E-16	8.196910E-17
5.530000E+03	4.998236E-16	8.183111E-17
5.540000E+03	4.984776E-16	8.170003E-17
5.550000E+03	4.971465E-16	8.157338E-17
5.560000E+03	4.958587E-16	8.145500E-17
5.570000E+03	4.945912E-16	8.134027E-17
5.580000E+03	4.933594E-16	8.123092E-17
5.590000E+03	4.921531E-16	8.112446E-17
5.600000E+03	4.910000E-16	8.102469E-17
5.610000E+03	4.898771E-16	8.092703E-17
5.620000E+03	4.887993E-16	8.083320E-17
5.630000E+03	4.877688E-16	8.074283E-17
5.640000E+03	4.867875E-16	8.065556E-17
5.650000E+03	4.858572E-16	8.057103E-17
5.660000E+03	4.849798E-16	8.048890E-17
5.670000E+03	4.841569E-16	8.040884E-17
5.680000E+03	4.833775E-16	8.032846E-17
5.690000E+03	4.826679E-16	8.025160E-17
5.700000E+03	4.820045E-16	8.017383E-17
5.710000E+03	4.814133E-16	8.009900E-17
5.720000E+03	4.808827E-16	8.002478E-17
5.730000E+03	4.804012E-16	7.994885E-17
5.740000E+03	4.799942E-16	7.987510E-17
5.750000E+03	4.796498E-16	7.980125E-17
5.760000E+03	4.793685E-16	7.972707E-17
5.770000E+03	4.791503E-16	7.965239E-17
5.780000E+03	4.789954E-16	7.957701E-17
5.790000E+03	4.789037E-16	7.950078E-17
5.800000E+03	4.788750E-16	7.942356E-17
5.810000E+03	4.789212E-16	7.934727E-17
5.820000E+03	4.790294E-16	7.926975E-17
5.830000E+03	4.791989E-16	7.919090E-17
5.840000E+03	4.794289E-16	7.911068E-17
5.850000E+03	4.797183E-16	7.902903E-17
5.860000E+03	4.800785E-16	7.894800E-17
5.870000E+03	4.804957E-16	7.886553E-17
5.880000E+03	4.809685E-16	7.878166E-17
5.890000E+03	4.814953E-16	7.869647E-17
5.900000E+03	4.820869E-16	7.861211E-17
5.910000E+03	4.827289E-16	7.852665E-17
5.920000E+03	4.834194E-16	7.844026E-17
5.930000E+03	4.841687E-16	7.835520E-17
5.940000E+03	4.849620E-16	7.826966E-17
5.950000E+03	4.858095E-16	7.818597E-17
5.960000E+03	4.866833E-16	7.810036E-17
5.970000E+03	4.876061E-16	7.801729E-17
5.980000E+03	4.885753E-16	7.793719E-17
5.990000E+03	4.895751E-16	7.785844E-17
6.000000E+03	4.906024E-16	7.778156E-17
6.010000E+03	4.916669E-16	7.770912E-17
6.020000E+03	4.927526E-16	7.763968E-17
6.030000E+03	4.938689E-16	7.757590E-17
6.040000E+03	4.949994E-16	7.751641E-17
6.050000E+03	4.961537E-16	7.746396E-17
6.060000E+03	4.973149E-16	7.741723E-17
6.070000E+03	4.984924E-16	7.737905E-17
6.080000E+03	4.996693E-16	7.734816E-17
6.090000E+03	5.008416E-16	7.732536E-17
6.100000E+03	5.020186E-16	7.731353E-17
6.110000E+03	5.031964E-16	7.731351E-17
6.120000E+03	5.043575E-16	7.732406E-17
6.130000E+03	5.055115E-16	7.734805E-17
6.140000E+03	5.066405E-16	7.738422E-17
6.150000E+03	5.077542E-16	7.743538E-17
6.160000E+03	5.088348E-16	7.750018E-17
6.170000E+03	5.098919E-16	7.758136E-17
6.180000E+03	5.109215E-16	7.767952E-17
6.190000E+03	5.119060E-16	7.779310E-17
6.200000E+03	5.128551E-16	7.792462E-17
6.210000E+03	5.137513E-16	7.807233E-17
6.220000E+03	5.146045E-16	7.823856E-17
6.230000E+03	5.154114E-16	7.842344E-17
6.240000E+03	5.161544E-16	7.862485E-17
6.250000E+03	5.168441E-16	7.884478E-17
6.260000E+03	5.174775E-16	7.908298E-17
6.270000E+03	5.180374E-16	7.933692E-17
6.280000E+03	5.185352E-16	7.960821E-17
6.290000E+03	5.189683E-16	7.989623E-17
6.300000E+03	5.193201E-16	8.019804E-17
6.310000E+03	5.196168E-16	8.051714E-17
6.320000E+03	5.198283E-16	8.084818E-17
6.330000E+03	5.199528E-16	8.119009E-17
6.340000E+03	5.200175E-16	8.154615E-17
6.350000E+03	5.199927E-16	8.191070E-17
6.360000E+03	5.198918E-16	8.228471E-17
6.370000E+03	5.197145E-16	8.266687E-17
6.380000E+03	5.194461E-16	8.305356E-17
6.390000E+03	5.191152E-16	8.344796E-17
6.400000E+03	5.186936E-16	8.384412E-17
6.410000E+03	5.181963E-16	8.424297E-17
6.420000E+03	5.176242E-16	8.464314E-17
6.430000E+03	5.169785E-16	8.504331E-17
6.440000E+03	5.162606E-16	8.544217E-17
6.450000E+03	5.154724E-16	8.583846E-17
6.460000E+03	5.146016E-16	8.622860E-17
6.470000E+03	5.136789E-16	8.661620E-17
6.480000E+03	5.126927E-16	8.699780E-17
6.490000E+03	5.116314E-16	8.736994E-17
6.500000E+03	5.105266E-16	8.773654E-17
6.510000E+03	5.093527E-16	8.809184E-17
6.520000E+03	5.081417E-16	8.843996E-17
6.530000E+03	5.068686E-16	8.877526E-17
6.540000E+03	5.055655E-16	8.910206E-17
6.550000E+03	5.042077E-16	8.941483E-17
6.560000E+03	5.028274E-16	8.971810E-17
6.570000E+03	5.014145E-16	9.000897E-17
6.580000E+03	4.999729E-16	9.028713E-17
6.590000E+03	4.985067E-16	9.055233E-17
6.600000E+03	4.970200E-16	9.080437E-17
6.610000E+03	4.955170E-16	9.104314E-17
6.620000E+03	4.940157E-16	9.127118E-17
6.630000E+03	4.924922E-16	9.148330E-17
6.640000E+03	4.909784E-16	9.168475E-17
6.650000E+03	4.894643E-16	9.187302E-17
6.660000E+03	4.879538E-16	9.204823E-17
6.670000E+03	4.864645E-16	9.221320E-17
6.680000E+03	4.849723E-16	9.236284E-17
6.690000E+03	4.835084E-16	9.250264E-17
6.700000E+03	4.820622E-16	9.263020E-17
6.710000E+03	4.806508E-16	9.274843E-17
6.720000E+03	4.792633E-16	9.285491E-17
6.730000E+03	4.778888E-16	9.294722E-17
6.740000E+03	4.765711E-16	9.303362E-17
6.750000E+03	4.752715E-16	9.310631E-17
6.760000E+03	4.740195E-16	9.317089E-17
6.770000E+03	4.728034E-16	9.322485E-17
6.780000E+03	4.716385E-16	9.327107E-17
6.790000E+03	4.705126E-16	9.330701E-17
6.800000E+03	4.694268E-16	9.333277E-17
6.810000E+03	4.683959E-16	9.335115E-17
6.820000E+03	4.673932E-16	9.335676E-17
6.830000E+03	4.664599E-16	9.335776E-17
6.840000E+03	4.655555E-16	9.334594E-17
6.850000E+03	4.647068E-16	9.332667E-17
6.860000E+03	4.639136E-16	9.329981E-17
6.870000E+03	4.631480E-16	9.325974E-17
6.880000E+03	4.624362E-16	9.321169E-17
6.890000E+03	4.617770E-16	9.315538E-17
6.900000E+03	4.611553E-16	9.308777E-17
6.910000E+03	4.605695E-16	9.300848E-17
6.920000E+03	4.600174E-16	9.291711E-17
6.930000E+03	4.595104E-16	9.281593E-17
6.940000E+03	4.590460E-16	9.270445E-17
6.950000E+03	4.585943E-16	9.257665E-17
6.960000E+03	4.581796E-16	9.243745E-17
6.970000E+03	4.577850E-16	9.228348E-17
6.980000E+03	4.574207E-16	9.211686E-17
6.990000E+03	4.570697E-16	9.193420E-17
7.000000E+03	4.567417E-16	9.173754E-17
7.010000E+03	4.564056E-16	9.152073E-17
7.020000E+03	4.560845E-16	9.128853E-17
7.030000E+03	4.557608E-16	9.103752E-17
7.040000E+03	4.554436E-16	9.076970E-17
7.050000E+03	4.551151E-16	9.048167E-17
7.060000E+03	4.547707E-16	9.017275E-17
7.070000E+03	4.544059E-16	8.984231E-17
7.080000E+03	4.540300E-16	8.949241E-17
7.090000E+03	4.536247E-16	8.911977E-17
7.100000E+03	4.531857E-16	8.872387E-17
7.110000E+03	4.527220E-16	8.830688E-17
7.120000E+03	4.522022E-16	8.786306E-17
7.130000E+03	4.516493E-16	8.739736E-17
7.140000E+03	4.510455E-16	8.690684E-17
7.150000E+03	4.503869E-16	8.639132E-17
7.160000E+03	4.496698E-16	8.585066E-17
7.170000E+03	4.488908E-16	8.528486E-17
7.180000E+03	4.480600E-16	8.469656E-17
7.190000E+03	4.471608E-16	8.408333E-17
7.200000E+03	4.461770E-16	8.344292E-17
7.210000E+03	4.451331E-16	8.278082E-17
7.220000E+03	4.440136E-16	8.209496E-17
7.230000E+03	4.428165E-16	8.138598E-17
7.240000E+03	4.415270E-16	8.065214E-17
7.250000E+03	4.401708E-16	7.989921E-17
7.260000E+03	4.387339E-16	7.912569E-17
7.270000E+03	4.372157E-16	7.833265E-17
7.280000E+03	4.356164E-16	7.752127E-17
7.290000E+03	4.339230E-16	7.669049E-17
7.300000E+03	4.321628E-16	7.584643E-17
7.310000E+03	4.303104E-16	7.498591E-17
7.320000E+03	4.283938E-16	7.411514E-17
7.330000E+03	4.263885E-16	7.323123E-17
7.340000E+03	4.243097E-16	7.233823E-17
7.350000E+03	4.221600E-16	7.143798E-17
7.360000E+03	4.199422E-16	7.053238E-17
7.370000E+03	4.176464E-16	6.962123E-17
7.380000E+03	4.152890E-16	6.870874E-17
7.390000E+03	4.128736E-16	6.779696E-17
7.400000E+03	4.104039E-16	6.688796E-17
7.410000E+03	4.078838E-16	6.598384E-17
7.420000E+03	4.053051E-16	6.508469E-17
7.430000E+03	4.026847E-16	6.419469E-17
7.440000E+03	4.000145E-16	6.331395E-17
7.450000E+03	3.973116E-16	6.244658E-17
7.460000E+03	3.945805E-16	6.159461E-17
7.470000E+03	3.918258E-16	6.076005E-17
7.480000E+03	3.890401E-16	5.994296E-17
7.490000E+03	3.862400E-16	5.914714E-17
7.500000E+03	3.834183E-16	5.837258E-17
7.510000E+03	3.805915E-16	5.762285E-17
7.520000E+03	3.777522E-16	5.689779E-17
7.530000E+03	3.749167E-16	5.620075E-17
7.540000E+03	3.720893E-16	5.553313E-17
7.550000E+03	3.692623E-16	5.489447E-17
7.560000E+03	3.664400E-16	5.428598E-17
7.570000E+03	3.636494E-16	5.371209E-17
7.580000E+03	3.608596E-16	5.316858E-17
7.590000E+03	3.580972E-16	5.265959E-17
7.600000E+03	3.553657E-16	5.218568E-17
7.610000E+03	3.526568E-16	5.174561E-17
7.620000E+03	3.499738E-16	5.133966E-17
7.630000E+03	3.473307E-16	5.096958E-17
7.640000E+03	3.447192E-16	5.063371E-17
7.650000E+03	3.421529E-16	5.033346E-17
7.660000E+03	3.396230E-16	5.006690E-17
7.670000E+03	3.371321E-16	4.983357E-17
7.680000E+03	3.346928E-16	4.963450E-17
7.690000E+03	3.322964E-16	4.946742E-17
7.700000E+03	3.299553E-16	4.933315E-17
7.710000E+03	3.276500E-16	4.922766E-17
7.720000E+03	3.254137E-16	4.915481E-17
7.730000E+03	3.232162E-16	4.910889E-17
7.740000E+03	3.210798E-16	4.909207E-17
7.750000E+03	3.190056E-16	4.910334E-17
7.760000E+03	3.169742E-16	4.913849E-17
