#wls	flux	fluxerr
1.600000E+03	3.940988E-17	3.299167E-17
1.640000E+03	4.001199E-17	3.321086E-17
1.680000E+03	4.063317E-17	3.342879E-17
1.720000E+03	4.127366E-17	3.364470E-17
1.760000E+03	4.193369E-17	3.385777E-17
1.800000E+03	4.262073E-17	3.407291E-17
1.840000E+03	4.333524E-17	3.428925E-17
1.880000E+03	4.407030E-17	3.450002E-17
1.920000E+03	4.482608E-17	3.470419E-17
1.960000E+03	4.561796E-17	3.491231E-17
2.000000E+03	4.643128E-17	3.511162E-17
2.040000E+03	4.727398E-17	3.530674E-17
2.080000E+03	4.814650E-17	3.549640E-17
2.120000E+03	4.905724E-17	3.568509E-17
2.160000E+03	4.999078E-17	3.585980E-17
2.200000E+03	5.096359E-17	3.603068E-17
2.240000E+03	5.196813E-17	3.619043E-17
2.280000E+03	5.300486E-17	3.633747E-17
2.320000E+03	5.409116E-17	3.648164E-17
2.360000E+03	5.521099E-17	3.660974E-17
2.400000E+03	5.636483E-17	3.672006E-17
2.440000E+03	5.757082E-17	3.682211E-17
2.480000E+03	5.882128E-17	3.690832E-17
2.520000E+03	6.011718E-17	3.697677E-17
2.560000E+03	6.146867E-17	3.703102E-17
2.600000E+03	6.286801E-17	3.706352E-17
2.640000E+03	6.432579E-17	3.707770E-17
2.680000E+03	6.584375E-17	3.707143E-17
2.720000E+03	6.741422E-17	3.703738E-17
2.760000E+03	6.905830E-17	3.698402E-17
2.800000E+03	7.076889E-17	3.690405E-17
2.840000E+03	7.255847E-17	3.680054E-17
2.880000E+03	7.442032E-17	3.666650E-17
2.920000E+03	7.636784E-17	3.650508E-17
2.960000E+03	7.840510E-17	3.631452E-17
3.000000E+03	8.054698E-17	3.609787E-17
3.010000E+03	8.109489E-17	3.603742E-17
3.020000E+03	8.164584E-17	3.597352E-17
3.030000E+03	8.221032E-17	3.591074E-17
3.040000E+03	8.277803E-17	3.584446E-17
3.050000E+03	8.334903E-17	3.577472E-17
3.060000E+03	8.393390E-17	3.570599E-17
3.070000E+03	8.452227E-17	3.563376E-17
3.080000E+03	8.512478E-17	3.556247E-17
3.090000E+03	8.573099E-17	3.548766E-17
3.100000E+03	8.634098E-17	3.540935E-17
3.110000E+03	8.695482E-17	3.532756E-17
3.120000E+03	8.758331E-17	3.524664E-17
3.130000E+03	8.821590E-17	3.516223E-17
3.140000E+03	8.886346E-17	3.507864E-17
3.150000E+03	8.951535E-17	3.499157E-17
3.160000E+03	9.017167E-17	3.490105E-17
3.170000E+03	9.084342E-17	3.481131E-17
3.180000E+03	9.151987E-17	3.471814E-17
3.190000E+03	9.220112E-17	3.462160E-17
3.200000E+03	9.289829E-17	3.452581E-17
3.210000E+03	9.360056E-17	3.442668E-17
3.220000E+03	9.431911E-17	3.432828E-17
3.230000E+03	9.504306E-17	3.422660E-17
3.240000E+03	9.577255E-17	3.412168E-17
3.250000E+03	9.651886E-17	3.401753E-17
3.260000E+03	9.727103E-17	3.391022E-17
3.270000E+03	9.802921E-17	3.379982E-17
3.280000E+03	9.880479E-17	3.369025E-17
3.290000E+03	9.959805E-17	3.358151E-17
3.300000E+03	1.003865E-16	3.346601E-17
3.310000E+03	1.011930E-16	3.335144E-17
3.320000E+03	1.020178E-16	3.323782E-17
3.330000E+03	1.028383E-16	3.311775E-17
3.340000E+03	1.036890E-16	3.300244E-17
3.350000E+03	1.045356E-16	3.288090E-17
3.360000E+03	1.054014E-16	3.276054E-17
3.370000E+03	1.062866E-16	3.264141E-17
3.380000E+03	1.071683E-16	3.251645E-17
3.390000E+03	1.080816E-16	3.239642E-17
3.400000E+03	1.089917E-16	3.227084E-17
3.410000E+03	1.099222E-16	3.214685E-17
3.420000E+03	1.108734E-16	3.202451E-17
3.430000E+03	1.118219E-16	3.189712E-17
3.440000E+03	1.128034E-16	3.177501E-17
3.450000E+03	1.137825E-16	3.164820E-17
3.460000E+03	1.147834E-16	3.152355E-17
3.470000E+03	1.158062E-16	3.140117E-17
3.480000E+03	1.168271E-16	3.127468E-17
3.490000E+03	1.178826E-16	3.115403E-17
3.500000E+03	1.189365E-16	3.102969E-17
3.510000E+03	1.200133E-16	3.090828E-17
3.520000E+03	1.211133E-16	3.078997E-17
3.530000E+03	1.222121E-16	3.066868E-17
3.540000E+03	1.233469E-16	3.055398E-17
3.550000E+03	1.244807E-16	3.043680E-17
3.560000E+03	1.256384E-16	3.032353E-17
3.570000E+03	1.268204E-16	3.021435E-17
3.580000E+03	1.280141E-16	3.010649E-17
3.590000E+03	1.292197E-16	3.000021E-17
3.600000E+03	1.304371E-16	2.989579E-17
3.610000E+03	1.316791E-16	2.979641E-17
3.620000E+03	1.329458E-16	2.970228E-17
3.630000E+03	1.342244E-16	2.961076E-17
3.640000E+03	1.355147E-16	2.952213E-17
3.650000E+03	1.368165E-16	2.943668E-17
3.660000E+03	1.381428E-16	2.935746E-17
3.670000E+03	1.394801E-16	2.928193E-17
3.680000E+03	1.408415E-16	2.921307E-17
3.690000E+03	1.422135E-16	2.914837E-17
3.700000E+03	1.436087E-16	2.909078E-17
3.710000E+03	1.450002E-16	2.903510E-17
3.720000E+03	1.464140E-16	2.898692E-17
3.730000E+03	1.478496E-16	2.894640E-17
3.740000E+03	1.492927E-16	2.891101E-17
3.750000E+03	1.507425E-16	2.888093E-17
3.760000E+03	1.522117E-16	2.885886E-17
3.770000E+03	1.536719E-16	2.883970E-17
3.780000E+03	1.551631E-16	2.883125E-17
3.790000E+03	1.566428E-16	2.882582E-17
3.800000E+03	1.581373E-16	2.882852E-17
3.810000E+03	1.596314E-16	2.883676E-17
3.820000E+03	1.611374E-16	2.885297E-17
3.830000E+03	1.626398E-16	2.887453E-17
3.840000E+03	1.641369E-16	2.890129E-17
3.850000E+03	1.656270E-16	2.893307E-17
3.860000E+03	1.671223E-16	2.897215E-17
3.870000E+03	1.686070E-16	2.901579E-17
3.880000E+03	1.700791E-16	2.906373E-17
3.890000E+03	1.715512E-16	2.911812E-17
3.900000E+03	1.730072E-16	2.917619E-17
3.910000E+03	1.744453E-16	2.923761E-17
3.920000E+03	1.758638E-16	2.930205E-17
3.930000E+03	1.772759E-16	2.937158E-17
3.940000E+03	1.786656E-16	2.944344E-17
3.950000E+03	1.800318E-16	2.951731E-17
3.960000E+03	1.813736E-16	2.959287E-17
3.970000E+03	1.827050E-16	2.967223E-17
3.980000E+03	1.840110E-16	2.975274E-17
3.990000E+03	1.852917E-16	2.983418E-17
4.000000E+03	1.865472E-16	2.991638E-17
4.010000E+03	1.877784E-16	2.999924E-17
4.020000E+03	1.890012E-16	3.008504E-17
4.030000E+03	1.902023E-16	3.017141E-17
4.040000E+03	1.913689E-16	3.025609E-17
4.050000E+03	1.925330E-16	3.034391E-17
4.060000E+03	1.936976E-16	3.043504E-17
4.070000E+03	1.948362E-16	3.052510E-17
4.080000E+03	1.959673E-16	3.061677E-17
4.090000E+03	1.971101E-16	3.071278E-17
4.100000E+03	1.982541E-16	3.081130E-17
4.110000E+03	1.993892E-16	3.091054E-17
4.120000E+03	2.005506E-16	3.101575E-17
4.130000E+03	2.017287E-16	3.112527E-17
4.140000E+03	2.029294E-16	3.123981E-17
4.150000E+03	2.041587E-16	3.136012E-17
4.160000E+03	2.054227E-16	3.148701E-17
4.170000E+03	2.067279E-16	3.162128E-17
4.180000E+03	2.080806E-16	3.176379E-17
4.190000E+03	2.094873E-16	3.191540E-17
4.200000E+03	2.109698E-16	3.207928E-17
4.210000E+03	2.125043E-16	3.225173E-17
4.220000E+03	2.141124E-16	3.243590E-17
4.230000E+03	2.158003E-16	3.263266E-17
4.240000E+03	2.175744E-16	3.284287E-17
4.250000E+03	2.194404E-16	3.306733E-17
4.260000E+03	2.214042E-16	3.330683E-17
4.270000E+03	2.234711E-16	3.356211E-17
4.280000E+03	2.256305E-16	3.383154E-17
4.290000E+03	2.279181E-16	3.412039E-17
4.300000E+03	2.303067E-16	3.442457E-17
4.310000E+03	2.328313E-16	3.474923E-17
4.320000E+03	2.354631E-16	3.509006E-17
4.330000E+03	2.382200E-16	3.544970E-17
4.340000E+03	2.411032E-16	3.582832E-17
4.350000E+03	2.441133E-16	3.622596E-17
4.360000E+03	2.472498E-16	3.664255E-17
4.370000E+03	2.504943E-16	3.707536E-17
4.380000E+03	2.538606E-16	3.752643E-17
4.390000E+03	2.573445E-16	3.799515E-17
4.400000E+03	2.609407E-16	3.848076E-17
4.410000E+03	2.646427E-16	3.898229E-17
4.420000E+03	2.684248E-16	3.949599E-17
4.430000E+03	2.722946E-16	4.002301E-17
4.440000E+03	2.762410E-16	4.056174E-17
4.450000E+03	2.802515E-16	4.111037E-17
4.460000E+03	2.842941E-16	4.166423E-17
4.470000E+03	2.883711E-16	4.222374E-17
4.480000E+03	2.924662E-16	4.278652E-17
4.490000E+03	2.965431E-16	4.334730E-17
4.500000E+03	3.006016E-16	4.390611E-17
4.510000E+03	3.046226E-16	4.446019E-17
4.520000E+03	3.085674E-16	4.500394E-17
4.530000E+03	3.124353E-16	4.553729E-17
4.540000E+03	3.162068E-16	4.605745E-17
4.550000E+03	3.198434E-16	4.655885E-17
4.560000E+03	3.233466E-16	4.704173E-17
4.570000E+03	3.266797E-16	4.750078E-17
4.580000E+03	3.298473E-16	4.793669E-17
4.590000E+03	3.328361E-16	4.834756E-17
4.600000E+03	3.356146E-16	4.872883E-17
4.610000E+03	3.381944E-16	4.908217E-17
4.620000E+03	3.405692E-16	4.940667E-17
4.630000E+03	3.427149E-16	4.969885E-17
4.640000E+03	3.446308E-16	4.995856E-17
4.650000E+03	3.463391E-16	5.018904E-17
4.660000E+03	3.478447E-16	5.039095E-17
4.670000E+03	3.491341E-16	5.056230E-17
4.680000E+03	3.502377E-16	5.070745E-17
4.690000E+03	3.511464E-16	5.082508E-17
4.700000E+03	3.518948E-16	5.092010E-17
4.710000E+03	3.524775E-16	5.099172E-17
4.720000E+03	3.529318E-16	5.104526E-17
4.730000E+03	3.532550E-16	5.108028E-17
4.740000E+03	3.534859E-16	5.110234E-17
4.750000E+03	3.536230E-16	5.111116E-17
4.760000E+03	3.537057E-16	5.111235E-17
4.770000E+03	3.537323E-16	5.110565E-17
4.780000E+03	3.537418E-16	5.109659E-17
4.790000E+03	3.537315E-16	5.108475E-17
4.800000E+03	3.537186E-16	5.107256E-17
4.810000E+03	3.537594E-16	5.106806E-17
4.820000E+03	3.538087E-16	5.106469E-17
4.830000E+03	3.539204E-16	5.107016E-17
4.840000E+03	3.540872E-16	5.108336E-17
4.850000E+03	3.543402E-16	5.110874E-17
4.860000E+03	3.546696E-16	5.114482E-17
4.870000E+03	3.551038E-16	5.119566E-17
4.880000E+03	3.556305E-16	5.125942E-17
4.890000E+03	3.562754E-16	5.133979E-17
4.900000E+03	3.570236E-16	5.143455E-17
4.910000E+03	3.578787E-16	5.154420E-17
4.920000E+03	3.588628E-16	5.167187E-17
4.930000E+03	3.599574E-16	5.181488E-17
4.940000E+03	3.611825E-16	5.197606E-17
4.950000E+03	3.625174E-16	5.215241E-17
4.960000E+03	3.639801E-16	5.234649E-17
4.970000E+03	3.655479E-16	5.255501E-17
4.980000E+03	3.672171E-16	5.277742E-17
4.990000E+03	3.690029E-16	5.301591E-17
5.000000E+03	3.708801E-16	5.326681E-17
5.010000E+03	3.728623E-16	5.353210E-17
5.020000E+03	3.749225E-16	5.380787E-17
5.030000E+03	3.770526E-16	5.409298E-17
5.040000E+03	3.792645E-16	5.438911E-17
5.050000E+03	3.815488E-16	5.469496E-17
5.060000E+03	3.838546E-16	5.500321E-17
5.070000E+03	3.862119E-16	5.531820E-17
5.080000E+03	3.886093E-16	5.563834E-17
5.090000E+03	3.910141E-16	5.595895E-17
5.100000E+03	3.934133E-16	5.627820E-17
5.110000E+03	3.958142E-16	5.659722E-17
5.120000E+03	3.981821E-16	5.691105E-17
5.130000E+03	4.005235E-16	5.722070E-17
5.140000E+03	4.028023E-16	5.752107E-17
5.150000E+03	4.050247E-16	5.781311E-17
5.160000E+03	4.071540E-16	5.809162E-17
5.170000E+03	4.091746E-16	5.835448E-17
5.180000E+03	4.110927E-16	5.860263E-17
5.190000E+03	4.128715E-16	5.883091E-17
5.200000E+03	4.145179E-16	5.904037E-17
5.210000E+03	4.159959E-16	5.922598E-17
5.220000E+03	4.172919E-16	5.938588E-17
5.230000E+03	4.184151E-16	5.952145E-17
5.240000E+03	4.193538E-16	5.963111E-17
5.250000E+03	4.200757E-16	5.971034E-17
5.260000E+03	4.205715E-16	5.975790E-17
5.270000E+03	4.208555E-16	5.977588E-17
5.280000E+03	4.208993E-16	5.976035E-17
5.290000E+03	4.207203E-16	5.971381E-17
5.300000E+03	4.202935E-16	5.963278E-17
5.310000E+03	4.196176E-16	5.951715E-17
5.320000E+03	4.187146E-16	5.937008E-17
5.330000E+03	4.175862E-16	5.919187E-17
5.340000E+03	4.162143E-16	5.897997E-17
5.350000E+03	4.146252E-16	5.873816E-17
5.360000E+03	4.127826E-16	5.846132E-17
5.370000E+03	4.107580E-16	5.815962E-17
5.380000E+03	4.085178E-16	5.782827E-17
5.390000E+03	4.060719E-16	5.746871E-17
5.400000E+03	4.034522E-16	5.708545E-17
5.410000E+03	4.006702E-16	5.668011E-17
5.420000E+03	3.977176E-16	5.625149E-17
5.430000E+03	3.946078E-16	5.580147E-17
5.440000E+03	3.913748E-16	5.533482E-17
5.450000E+03	3.880125E-16	5.485065E-17
5.460000E+03	3.845554E-16	5.435380E-17
5.470000E+03	3.810181E-16	5.384627E-17
5.480000E+03	3.773960E-16	5.332739E-17
5.490000E+03	3.737240E-16	5.280201E-17
5.500000E+03	3.699985E-16	5.226958E-17
5.510000E+03	3.662355E-16	5.173231E-17
5.520000E+03	3.624697E-16	5.119505E-17
5.530000E+03	3.587169E-16	5.065994E-17
5.540000E+03	3.549746E-16	5.012662E-17
5.550000E+03	3.512774E-16	4.959987E-17
5.560000E+03	3.476409E-16	4.908187E-17
5.570000E+03	3.440634E-16	4.857230E-17
5.580000E+03	3.405610E-16	4.807340E-17
5.590000E+03	3.371668E-16	4.758978E-17
5.600000E+03	3.338957E-16	4.712351E-17
5.610000E+03	3.307457E-16	4.667423E-17
5.620000E+03	3.277480E-16	4.624632E-17
5.630000E+03	3.248995E-16	4.583929E-17
5.640000E+03	3.222298E-16	4.545730E-17
5.650000E+03	3.197511E-16	4.510199E-17
5.660000E+03	3.174580E-16	4.477260E-17
5.670000E+03	3.153772E-16	4.447281E-17
5.680000E+03	3.135015E-16	4.420161E-17
5.690000E+03	3.118705E-16	4.396455E-17
5.700000E+03	3.104432E-16	4.375579E-17
5.710000E+03	3.092722E-16	4.358272E-17
5.720000E+03	3.083140E-16	4.343917E-17
5.730000E+03	3.076179E-16	4.333206E-17
5.740000E+03	3.071534E-16	4.325704E-17
5.750000E+03	3.069352E-16	4.321618E-17
5.760000E+03	3.069611E-16	4.320912E-17
5.770000E+03	3.072119E-16	4.323310E-17
5.780000E+03	3.076978E-16	4.328956E-17
5.790000E+03	3.083966E-16	4.337533E-17
5.800000E+03	3.093159E-16	4.349146E-17
5.810000E+03	3.104468E-16	4.363666E-17
5.820000E+03	3.117790E-16	4.380948E-17
5.830000E+03	3.132855E-16	4.400610E-17
5.840000E+03	3.149703E-16	4.422707E-17
5.850000E+03	3.168049E-16	4.446838E-17
5.860000E+03	3.188088E-16	4.473277E-17
5.870000E+03	3.209368E-16	4.501391E-17
5.880000E+03	3.231761E-16	4.531002E-17
5.890000E+03	3.255473E-16	4.562401E-17
5.900000E+03	3.280059E-16	4.594967E-17
5.910000E+03	3.305577E-16	4.628789E-17
5.920000E+03	3.331765E-16	4.663502E-17
5.930000E+03	3.358882E-16	4.699475E-17
5.940000E+03	3.386521E-16	4.736149E-17
5.950000E+03	3.414633E-16	4.773460E-17
5.960000E+03	3.443534E-16	4.811862E-17
5.970000E+03	3.472866E-16	4.850862E-17
5.980000E+03	3.502811E-16	4.890726E-17
5.990000E+03	3.533395E-16	4.931503E-17
6.000000E+03	3.564662E-16	4.973264E-17
6.010000E+03	3.596487E-16	5.015849E-17
6.020000E+03	3.629123E-16	5.059622E-17
6.030000E+03	3.662651E-16	5.104711E-17
6.040000E+03	3.696972E-16	5.150991E-17
6.050000E+03	3.732556E-16	5.199130E-17
6.060000E+03	3.769118E-16	5.248743E-17
6.070000E+03	3.806937E-16	5.300234E-17
6.080000E+03	3.846096E-16	5.353733E-17
6.090000E+03	3.886470E-16	5.409077E-17
6.100000E+03	3.928510E-16	5.466910E-17
6.110000E+03	3.971856E-16	5.526743E-17
6.120000E+03	4.016723E-16	5.588889E-17
6.130000E+03	4.063102E-16	5.653347E-17
6.140000E+03	4.110745E-16	5.719785E-17
6.150000E+03	4.160002E-16	5.788704E-17
6.160000E+03	4.210349E-16	5.859386E-17
6.170000E+03	4.261861E-16	5.931947E-17
6.180000E+03	4.314367E-16	6.006161E-17
6.190000E+03	4.367663E-16	6.081752E-17
6.200000E+03	4.421507E-16	6.158396E-17
6.210000E+03	4.475393E-16	6.235397E-17
6.220000E+03	4.529475E-16	6.312977E-17
6.230000E+03	4.582953E-16	6.390026E-17
6.240000E+03	4.635695E-16	6.466370E-17
6.250000E+03	4.687318E-16	6.541478E-17
6.260000E+03	4.737424E-16	6.614795E-17
6.270000E+03	4.785352E-16	6.685403E-17
6.280000E+03	4.831180E-16	6.753407E-17
6.290000E+03	4.873994E-16	6.817528E-17
6.300000E+03	4.913890E-16	6.877895E-17
6.310000E+03	4.949965E-16	6.933240E-17
6.320000E+03	4.982102E-16	6.983386E-17
6.330000E+03	5.009953E-16	7.027838E-17
6.340000E+03	5.033208E-16	7.066145E-17
6.350000E+03	5.051329E-16	7.097539E-17
6.360000E+03	5.064611E-16	7.122413E-17
6.370000E+03	5.072608E-16	7.140121E-17
6.380000E+03	5.074922E-16	7.150078E-17
6.390000E+03	5.071997E-16	7.152888E-17
6.400000E+03	5.063274E-16	7.147732E-17
6.410000E+03	5.049040E-16	7.134984E-17
6.420000E+03	5.029364E-16	7.114712E-17
6.430000E+03	5.004368E-16	7.087053E-17
6.440000E+03	4.974216E-16	7.052204E-17
6.450000E+03	4.939113E-16	7.010421E-17
6.460000E+03	4.899304E-16	6.962012E-17
6.470000E+03	4.855064E-16	6.907329E-17
6.480000E+03	4.806697E-16	6.846767E-17
6.490000E+03	4.754280E-16	6.780395E-17
6.500000E+03	4.698658E-16	6.709382E-17
6.510000E+03	4.639938E-16	6.633841E-17
6.520000E+03	4.578242E-16	6.553914E-17
6.530000E+03	4.514426E-16	6.470789E-17
6.540000E+03	4.448381E-16	6.384278E-17
6.550000E+03	4.380946E-16	6.295556E-17
6.560000E+03	4.312015E-16	6.204445E-17
6.570000E+03	4.242176E-16	6.111761E-17
6.580000E+03	4.171990E-16	6.018294E-17
6.590000E+03	4.101339E-16	5.923856E-17
6.600000E+03	4.030762E-16	5.829208E-17
6.610000E+03	3.960558E-16	5.734771E-17
6.620000E+03	3.891218E-16	5.641246E-17
6.630000E+03	3.822592E-16	5.548411E-17
6.640000E+03	3.755143E-16	5.456931E-17
6.650000E+03	3.689106E-16	5.367149E-17
6.660000E+03	3.624703E-16	5.279388E-17
6.670000E+03	3.562138E-16	5.193948E-17
6.680000E+03	3.501603E-16	5.111116E-17
6.690000E+03	3.443275E-16	5.031156E-17
6.700000E+03	3.387318E-16	4.954317E-17
6.710000E+03	3.333884E-16	4.880831E-17
6.720000E+03	3.283113E-16	4.810914E-17
6.730000E+03	3.235136E-16	4.744767E-17
6.740000E+03	3.190242E-16	4.682830E-17
6.750000E+03	3.148199E-16	4.624772E-17
6.760000E+03	3.109284E-16	4.571012E-17
6.770000E+03	3.073591E-16	4.521701E-17
6.780000E+03	3.041211E-16	4.476984E-17
6.790000E+03	3.012065E-16	4.436756E-17
6.800000E+03	2.986557E-16	4.401624E-17
6.810000E+03	2.964599E-16	4.371468E-17
6.820000E+03	2.946261E-16	4.346401E-17
6.830000E+03	2.931612E-16	4.326532E-17
6.840000E+03	2.920719E-16	4.311968E-17
6.850000E+03	2.913646E-16	4.302808E-17
6.860000E+03	2.910455E-16	4.299150E-17
6.870000E+03	2.911208E-16	4.301089E-17
6.880000E+03	2.915966E-16	4.308716E-17
6.890000E+03	2.924788E-16	4.322120E-17
6.900000E+03	2.937733E-16	4.341387E-17
6.910000E+03	2.954858E-16	4.366597E-17
6.920000E+03	2.976218E-16	4.397828E-17
6.930000E+03	3.001866E-16	4.435153E-17
6.940000E+03	3.031851E-16	4.478635E-17
6.950000E+03	3.066218E-16	4.528333E-17
6.960000E+03	3.105004E-16	4.584290E-17
6.970000E+03	3.148242E-16	4.646540E-17
6.980000E+03	3.195952E-16	4.715099E-17
6.990000E+03	3.248142E-16	4.789964E-17
7.000000E+03	3.304627E-16	4.870841E-17
7.010000E+03	3.365740E-16	4.958205E-17
7.020000E+03	3.431259E-16	5.051706E-17
7.030000E+03	3.501114E-16	5.151218E-17
7.040000E+03	3.575206E-16	5.256574E-17
7.050000E+03	3.653201E-16	5.367258E-17
7.060000E+03	3.735327E-16	5.483580E-17
7.070000E+03	3.821174E-16	5.604915E-17
7.080000E+03	3.910483E-16	5.730857E-17
7.090000E+03	4.002724E-16	5.860603E-17
7.100000E+03	4.097964E-16	5.994234E-17
7.110000E+03	4.195565E-16	6.130788E-17
7.120000E+03	4.294801E-16	6.269189E-17
7.130000E+03	4.395591E-16	6.409301E-17
7.140000E+03	4.496839E-16	6.549513E-17
7.150000E+03	4.598359E-16	6.689546E-17
7.160000E+03	4.698907E-16	6.827586E-17
7.170000E+03	4.797937E-16	6.962844E-17
7.180000E+03	4.894879E-16	7.094499E-17
7.190000E+03	4.988309E-16	7.220502E-17
7.200000E+03	5.077583E-16	7.339946E-17
7.210000E+03	5.161774E-16	7.451523E-17
7.220000E+03	5.239958E-16	7.553938E-17
7.230000E+03	5.311229E-16	7.645934E-17
7.240000E+03	5.374721E-16	7.726321E-17
7.250000E+03	5.429625E-16	7.794001E-17
7.260000E+03	5.475209E-16	7.847996E-17
7.270000E+03	5.510531E-16	7.887036E-17
7.280000E+03	5.535686E-16	7.911346E-17
7.290000E+03	5.549978E-16	7.920019E-17
7.300000E+03	5.552848E-16	7.912352E-17
7.310000E+03	5.544511E-16	7.888751E-17
7.320000E+03	5.525340E-16	7.849842E-17
7.330000E+03	5.494927E-16	7.795143E-17
7.340000E+03	5.453952E-16	7.725712E-17
7.350000E+03	5.402927E-16	7.642363E-17
7.360000E+03	5.342491E-16	7.546086E-17
7.370000E+03	5.273100E-16	7.437602E-17
7.380000E+03	5.196205E-16	7.319027E-17
7.390000E+03	5.112135E-16	7.190887E-17
7.400000E+03	5.022449E-16	7.055429E-17
7.410000E+03	4.927580E-16	6.913298E-17
7.420000E+03	4.828829E-16	6.766359E-17
7.430000E+03	4.727198E-16	6.616041E-17
7.440000E+03	4.623660E-16	6.463719E-17
7.450000E+03	4.519140E-16	6.310696E-17
7.460000E+03	4.414255E-16	6.157834E-17
7.470000E+03	4.310311E-16	6.006950E-17
7.480000E+03	4.207534E-16	5.858347E-17
7.490000E+03	4.106815E-16	5.713253E-17
7.500000E+03	4.008713E-16	5.572423E-17
7.510000E+03	3.913703E-16	5.436496E-17
7.520000E+03	3.822176E-16	5.305993E-17
7.530000E+03	3.734232E-16	5.181028E-17
7.540000E+03	3.650336E-16	5.062219E-17
7.550000E+03	3.570865E-16	4.950065E-17
7.560000E+03	3.495510E-16	4.844113E-17
7.570000E+03	3.424334E-16	4.744427E-17
7.580000E+03	3.357735E-16	4.651539E-17
7.590000E+03	3.295465E-16	4.565082E-17
7.600000E+03	3.237249E-16	4.484660E-17
7.610000E+03	3.183160E-16	4.410356E-17
7.620000E+03	3.133044E-16	4.341944E-17
7.630000E+03	3.086724E-16	4.279165E-17
7.640000E+03	3.043823E-16	4.221485E-17
7.650000E+03	3.004304E-16	4.168845E-17
7.660000E+03	2.968109E-16	4.121156E-17
7.670000E+03	2.934473E-16	4.077348E-17
7.680000E+03	2.903665E-16	4.037787E-17
7.690000E+03	2.875252E-16	4.001868E-17
7.700000E+03	2.848805E-16	3.968989E-17
7.710000E+03	2.824232E-16	3.939014E-17
7.720000E+03	2.801272E-16	3.911576E-17
7.730000E+03	2.779667E-16	3.886309E-17
7.740000E+03	2.759003E-16	3.862627E-17
7.750000E+03	2.739201E-16	3.840415E-17
7.760000E+03	2.720030E-16	3.819338E-17
