#wls	flux	fluxerr
1.600000E+03	4.087140E-17	3.418489E-17
1.640000E+03	4.151997E-17	3.443214E-17
1.680000E+03	4.218204E-17	3.467269E-17
1.720000E+03	4.287230E-17	3.491763E-17
1.760000E+03	4.359126E-17	3.516616E-17
1.800000E+03	4.432441E-17	3.540540E-17
1.840000E+03	4.509454E-17	3.565240E-17
1.880000E+03	4.588701E-17	3.589413E-17
1.920000E+03	4.670982E-17	3.613555E-17
1.960000E+03	4.756343E-17	3.637551E-17
2.000000E+03	4.844831E-17	3.661282E-17
2.040000E+03	4.935678E-17	3.684014E-17
2.080000E+03	5.030539E-17	3.706825E-17
2.120000E+03	5.129486E-17	3.729571E-17
2.160000E+03	5.230906E-17	3.750896E-17
2.200000E+03	5.336512E-17	3.771851E-17
2.240000E+03	5.446374E-17	3.792273E-17
2.280000E+03	5.559686E-17	3.811387E-17
2.320000E+03	5.677373E-17	3.829620E-17
2.360000E+03	5.799505E-17	3.846783E-17
2.400000E+03	5.927060E-17	3.863279E-17
2.440000E+03	6.058308E-17	3.877723E-17
2.480000E+03	6.195154E-17	3.891094E-17
2.520000E+03	6.337711E-17	3.903175E-17
2.560000E+03	6.485147E-17	3.913171E-17
2.600000E+03	6.638521E-17	3.921446E-17
2.640000E+03	6.797969E-17	3.927776E-17
2.680000E+03	6.964627E-17	3.932500E-17
2.720000E+03	7.137692E-17	3.934830E-17
2.760000E+03	7.317344E-17	3.934554E-17
2.800000E+03	7.505826E-17	3.932542E-17
2.840000E+03	7.701363E-17	3.927501E-17
2.880000E+03	7.906297E-17	3.920293E-17
2.920000E+03	8.119925E-17	3.910200E-17
2.960000E+03	8.342602E-17	3.897062E-17
3.000000E+03	8.576893E-17	3.881728E-17
3.010000E+03	8.637239E-17	3.877486E-17
3.020000E+03	8.697874E-17	3.872883E-17
3.030000E+03	8.758804E-17	3.867920E-17
3.040000E+03	8.821129E-17	3.863079E-17
3.050000E+03	8.884865E-17	3.858354E-17
3.060000E+03	8.947821E-17	3.852789E-17
3.070000E+03	9.012204E-17	3.847339E-17
3.080000E+03	9.078030E-17	3.841998E-17
3.090000E+03	9.144204E-17	3.836294E-17
3.100000E+03	9.210731E-17	3.830230E-17
3.110000E+03	9.278736E-17	3.824270E-17
3.120000E+03	9.347115E-17	3.817951E-17
3.130000E+03	9.415874E-17	3.811278E-17
3.140000E+03	9.486150E-17	3.804705E-17
3.150000E+03	9.557960E-17	3.798230E-17
3.160000E+03	9.629052E-17	3.790955E-17
3.170000E+03	9.702838E-17	3.784224E-17
3.180000E+03	9.775924E-17	3.776703E-17
3.190000E+03	9.850598E-17	3.769283E-17
3.200000E+03	9.926878E-17	3.761960E-17
3.210000E+03	1.000363E-16	3.754299E-17
3.220000E+03	1.008087E-16	3.746308E-17
3.230000E+03	1.015977E-16	3.738420E-17
3.240000E+03	1.023917E-16	3.730209E-17
3.250000E+03	1.032026E-16	3.722105E-17
3.260000E+03	1.040189E-16	3.713688E-17
3.270000E+03	1.048407E-16	3.704968E-17
3.280000E+03	1.056799E-16	3.696364E-17
3.290000E+03	1.065368E-16	3.687878E-17
3.300000E+03	1.073996E-16	3.679106E-17
3.310000E+03	1.082685E-16	3.670057E-17
3.320000E+03	1.091555E-16	3.661141E-17
3.330000E+03	1.100490E-16	3.651966E-17
3.340000E+03	1.109611E-16	3.642936E-17
3.350000E+03	1.118799E-16	3.633665E-17
3.360000E+03	1.128176E-16	3.624552E-17
3.370000E+03	1.137624E-16	3.615218E-17
3.380000E+03	1.147266E-16	3.606059E-17
3.390000E+03	1.156982E-16	3.596702E-17
3.400000E+03	1.166896E-16	3.587537E-17
3.410000E+03	1.176887E-16	3.578199E-17
3.420000E+03	1.186957E-16	3.568705E-17
3.430000E+03	1.197231E-16	3.559437E-17
3.440000E+03	1.207710E-16	3.550406E-17
3.450000E+03	1.218273E-16	3.541258E-17
3.460000E+03	1.228921E-16	3.532014E-17
3.470000E+03	1.239780E-16	3.523046E-17
3.480000E+03	1.250853E-16	3.514368E-17
3.490000E+03	1.262015E-16	3.505640E-17
3.500000E+03	1.273267E-16	3.496883E-17
3.510000E+03	1.284738E-16	3.488463E-17
3.520000E+03	1.296301E-16	3.480052E-17
3.530000E+03	1.308085E-16	3.472011E-17
3.540000E+03	1.319963E-16	3.464018E-17
3.550000E+03	1.332064E-16	3.456429E-17
3.560000E+03	1.344260E-16	3.448929E-17
3.570000E+03	1.356681E-16	3.441869E-17
3.580000E+03	1.369197E-16	3.434938E-17
3.590000E+03	1.381938E-16	3.428485E-17
3.600000E+03	1.394774E-16	3.422203E-17
3.610000E+03	1.407834E-16	3.416434E-17
3.620000E+03	1.420987E-16	3.410879E-17
3.630000E+03	1.434363E-16	3.405874E-17
3.640000E+03	1.447829E-16	3.401122E-17
3.650000E+03	1.461380E-16	3.396645E-17
3.660000E+03	1.475149E-16	3.392771E-17
3.670000E+03	1.489133E-16	3.389514E-17
3.680000E+03	1.503194E-16	3.386584E-17
3.690000E+03	1.517328E-16	3.383998E-17
3.700000E+03	1.531666E-16	3.382073E-17
3.710000E+03	1.546067E-16	3.380520E-17
3.720000E+03	1.560661E-16	3.379650E-17
3.730000E+03	1.575306E-16	3.379174E-17
3.740000E+03	1.590133E-16	3.379395E-17
3.750000E+03	1.604996E-16	3.380026E-17
3.760000E+03	1.619887E-16	3.381073E-17
3.770000E+03	1.634936E-16	3.382827E-17
3.780000E+03	1.649996E-16	3.385000E-17
3.790000E+03	1.665195E-16	3.387878E-17
3.800000E+03	1.680385E-16	3.391168E-17
3.810000E+03	1.695695E-16	3.395149E-17
3.820000E+03	1.710975E-16	3.399528E-17
3.830000E+03	1.726211E-16	3.404297E-17
3.840000E+03	1.741535E-16	3.409723E-17
3.850000E+03	1.756793E-16	3.415512E-17
3.860000E+03	1.772118E-16	3.421927E-17
3.870000E+03	1.787210E-16	3.428395E-17
3.880000E+03	1.802490E-16	3.435727E-17
3.890000E+03	1.817516E-16	3.443078E-17
3.900000E+03	1.832567E-16	3.450977E-17
3.910000E+03	1.847489E-16	3.459130E-17
3.920000E+03	1.862420E-16	3.467791E-17
3.930000E+03	1.877208E-16	3.476667E-17
3.940000E+03	1.891848E-16	3.485742E-17
3.950000E+03	1.906482E-16	3.495269E-17
3.960000E+03	1.920816E-16	3.504696E-17
3.970000E+03	1.935291E-16	3.514816E-17
3.980000E+03	1.949468E-16	3.524816E-17
3.990000E+03	1.963646E-16	3.535225E-17
4.000000E+03	1.977686E-16	3.545774E-17
4.010000E+03	1.991598E-16	3.556466E-17
4.020000E+03	2.005394E-16	3.567306E-17
4.030000E+03	2.019239E-16	3.578570E-17
4.040000E+03	2.033001E-16	3.590008E-17
4.050000E+03	2.046704E-16	3.601641E-17
4.060000E+03	2.060370E-16	3.613494E-17
4.070000E+03	2.074027E-16	3.625598E-17
4.080000E+03	2.087853E-16	3.638248E-17
4.090000E+03	2.101733E-16	3.651223E-17
4.100000E+03	2.115549E-16	3.664307E-17
4.110000E+03	2.129790E-16	3.678327E-17
4.120000E+03	2.144044E-16	3.692557E-17
4.130000E+03	2.158502E-16	3.707313E-17
4.140000E+03	2.173207E-16	3.722655E-17
4.150000E+03	2.188354E-16	3.738902E-17
4.160000E+03	2.203686E-16	3.755602E-17
4.170000E+03	2.219551E-16	3.773339E-17
4.180000E+03	2.235844E-16	3.791920E-17
4.190000E+03	2.252460E-16	3.811159E-17
4.200000E+03	2.269748E-16	3.831636E-17
4.210000E+03	2.287602E-16	3.853163E-17
4.220000E+03	2.305913E-16	3.875548E-17
4.230000E+03	2.325031E-16	3.899372E-17
4.240000E+03	2.344843E-16	3.924438E-17
4.250000E+03	2.365234E-16	3.950548E-17
4.260000E+03	2.386549E-16	3.978273E-17
4.270000E+03	2.408512E-16	4.007145E-17
4.280000E+03	2.431462E-16	4.037728E-17
4.290000E+03	2.455114E-16	4.069541E-17
4.300000E+03	2.479644E-16	4.102875E-17
4.310000E+03	2.505068E-16	4.137754E-17
4.320000E+03	2.531398E-16	4.174193E-17
4.330000E+03	2.558636E-16	4.212199E-17
4.340000E+03	2.586782E-16	4.251767E-17
4.350000E+03	2.615665E-16	4.292616E-17
4.360000E+03	2.645428E-16	4.334983E-17
4.370000E+03	2.676049E-16	4.378832E-17
4.380000E+03	2.707495E-16	4.424111E-17
4.390000E+03	2.739559E-16	4.470481E-17
4.400000E+03	2.772526E-16	4.518412E-17
4.410000E+03	2.806002E-16	4.567263E-17
4.420000E+03	2.840088E-16	4.617201E-17
4.430000E+03	2.874538E-16	4.667829E-17
4.440000E+03	2.909438E-16	4.719291E-17
4.450000E+03	2.944696E-16	4.771442E-17
4.460000E+03	2.980215E-16	4.824126E-17
4.470000E+03	3.015712E-16	4.876888E-17
4.480000E+03	3.051250E-16	4.929835E-17
4.490000E+03	3.086534E-16	4.982493E-17
4.500000E+03	3.121621E-16	5.034960E-17
4.510000E+03	3.156392E-16	5.087042E-17
4.520000E+03	3.190540E-16	5.138249E-17
4.530000E+03	3.224125E-16	5.188680E-17
4.540000E+03	3.256843E-16	5.237848E-17
4.550000E+03	3.288765E-16	5.285867E-17
4.560000E+03	3.319782E-16	5.332564E-17
4.570000E+03	3.349605E-16	5.377473E-17
4.580000E+03	3.378331E-16	5.420752E-17
4.590000E+03	3.405690E-16	5.461963E-17
4.600000E+03	3.431803E-16	5.501302E-17
4.610000E+03	3.456425E-16	5.538370E-17
4.620000E+03	3.479514E-16	5.573099E-17
4.630000E+03	3.501237E-16	5.605752E-17
4.640000E+03	3.521585E-16	5.636310E-17
4.650000E+03	3.540369E-16	5.664467E-17
4.660000E+03	3.557805E-16	5.690561E-17
4.670000E+03	3.573734E-16	5.714331E-17
4.680000E+03	3.588205E-16	5.735850E-17
4.690000E+03	3.601477E-16	5.755525E-17
4.700000E+03	3.613428E-16	5.773155E-17
4.710000E+03	3.624341E-16	5.789183E-17
4.720000E+03	3.634115E-16	5.803441E-17
4.730000E+03	3.643047E-16	5.816397E-17
4.740000E+03	3.650859E-16	5.827595E-17
4.750000E+03	3.658246E-16	5.838141E-17
4.760000E+03	3.664742E-16	5.847281E-17
4.770000E+03	3.670854E-16	5.855817E-17
4.780000E+03	3.676699E-16	5.863928E-17
4.790000E+03	3.682199E-16	5.871482E-17
4.800000E+03	3.687469E-16	5.878655E-17
4.810000E+03	3.692618E-16	5.885613E-17
4.820000E+03	3.697943E-16	5.892825E-17
4.830000E+03	3.703351E-16	5.900133E-17
4.840000E+03	3.709127E-16	5.907985E-17
4.850000E+03	3.715162E-16	5.916203E-17
4.860000E+03	3.721534E-16	5.924904E-17
4.870000E+03	3.728312E-16	5.934194E-17
4.880000E+03	3.735749E-16	5.944468E-17
4.890000E+03	3.743704E-16	5.955498E-17
4.900000E+03	3.752412E-16	5.967654E-17
4.910000E+03	3.761717E-16	5.980681E-17
4.920000E+03	3.771643E-16	5.994617E-17
4.930000E+03	3.782207E-16	6.009484E-17
4.940000E+03	3.793610E-16	6.025597E-17
4.950000E+03	3.805659E-16	6.042649E-17
4.960000E+03	3.818538E-16	6.060928E-17
4.970000E+03	3.831847E-16	6.079799E-17
4.980000E+03	3.846137E-16	6.100134E-17
4.990000E+03	3.860800E-16	6.120969E-17
5.000000E+03	3.876182E-16	6.142850E-17
5.010000E+03	3.892043E-16	6.165398E-17
5.020000E+03	3.908329E-16	6.188530E-17
5.030000E+03	3.924981E-16	6.212151E-17
5.040000E+03	3.942126E-16	6.236466E-17
5.050000E+03	3.959692E-16	6.261362E-17
5.060000E+03	3.977211E-16	6.286104E-17
5.070000E+03	3.994989E-16	6.311178E-17
5.080000E+03	4.012743E-16	6.336141E-17
5.090000E+03	4.030576E-16	6.361161E-17
5.100000E+03	4.047996E-16	6.385467E-17
5.110000E+03	4.065297E-16	6.409529E-17
5.120000E+03	4.082375E-16	6.433191E-17
5.130000E+03	4.098926E-16	6.455980E-17
5.140000E+03	4.114843E-16	6.477735E-17
5.150000E+03	4.130016E-16	6.498291E-17
5.160000E+03	4.144535E-16	6.517801E-17
5.170000E+03	4.158094E-16	6.535789E-17
5.180000E+03	4.170585E-16	6.552099E-17
5.190000E+03	4.182107E-16	6.566892E-17
5.200000E+03	4.192358E-16	6.579707E-17
5.210000E+03	4.201242E-16	6.590403E-17
5.220000E+03	4.208872E-16	6.599167E-17
5.230000E+03	4.214963E-16	6.605560E-17
5.240000E+03	4.219640E-16	6.609791E-17
5.250000E+03	4.222432E-16	6.611131E-17
5.260000E+03	4.223886E-16	6.610444E-17
5.270000E+03	4.223347E-16	6.606716E-17
5.280000E+03	4.221178E-16	6.600524E-17
5.290000E+03	4.217151E-16	6.591516E-17
5.300000E+03	4.211446E-16	6.579986E-17
5.310000E+03	4.203857E-16	6.565615E-17
5.320000E+03	4.194389E-16	6.548417E-17
5.330000E+03	4.183255E-16	6.528731E-17
5.340000E+03	4.170282E-16	6.506291E-17
5.350000E+03	4.155508E-16	6.481160E-17
5.360000E+03	4.139176E-16	6.453719E-17
5.370000E+03	4.121145E-16	6.423751E-17
5.380000E+03	4.101675E-16	6.391661E-17
5.390000E+03	4.080647E-16	6.357264E-17
5.400000E+03	4.058334E-16	6.320983E-17
5.410000E+03	4.034633E-16	6.282657E-17
5.420000E+03	4.009642E-16	6.242435E-17
5.430000E+03	3.983652E-16	6.200765E-17
5.440000E+03	3.956580E-16	6.157516E-17
5.450000E+03	3.928726E-16	6.113146E-17
5.460000E+03	3.900018E-16	6.067540E-17
5.470000E+03	3.870578E-16	6.020882E-17
5.480000E+03	3.840710E-16	5.973635E-17
5.490000E+03	3.810357E-16	5.925706E-17
5.500000E+03	3.779823E-16	5.877558E-17
5.510000E+03	3.749233E-16	5.829380E-17
5.520000E+03	3.718364E-16	5.780815E-17
5.530000E+03	3.687867E-16	5.732869E-17
5.540000E+03	3.657349E-16	5.684923E-17
5.550000E+03	3.627451E-16	5.637964E-17
5.560000E+03	3.597787E-16	5.591386E-17
5.570000E+03	3.568984E-16	5.546156E-17
5.580000E+03	3.540661E-16	5.501673E-17
5.590000E+03	3.513268E-16	5.458627E-17
5.600000E+03	3.486914E-16	5.417184E-17
5.610000E+03	3.461544E-16	5.377251E-17
5.620000E+03	3.437423E-16	5.339232E-17
5.630000E+03	3.414487E-16	5.303022E-17
5.640000E+03	3.392988E-16	5.269005E-17
5.650000E+03	3.373008E-16	5.237303E-17
5.660000E+03	3.354468E-16	5.207788E-17
5.670000E+03	3.337438E-16	5.180563E-17
5.680000E+03	3.322136E-16	5.155962E-17
5.690000E+03	3.308461E-16	5.133822E-17
5.700000E+03	3.296765E-16	5.114685E-17
5.710000E+03	3.286623E-16	5.097886E-17
5.720000E+03	3.278521E-16	5.084176E-17
5.730000E+03	3.272018E-16	5.072866E-17
5.740000E+03	3.267580E-16	5.064676E-17
5.750000E+03	3.264902E-16	5.059128E-17
5.760000E+03	3.263975E-16	5.056204E-17
5.770000E+03	3.265083E-16	5.056342E-17
5.780000E+03	3.267898E-16	5.059029E-17
5.790000E+03	3.272383E-16	5.064207E-17
5.800000E+03	3.278649E-16	5.072047E-17
5.810000E+03	3.286650E-16	5.082472E-17
5.820000E+03	3.296177E-16	5.095161E-17
5.830000E+03	3.307326E-16	5.110260E-17
5.840000E+03	3.320034E-16	5.127672E-17
5.850000E+03	3.334081E-16	5.147058E-17
5.860000E+03	3.349555E-16	5.168554E-17
5.870000E+03	3.366232E-16	5.191816E-17
5.880000E+03	3.384359E-16	5.217229E-17
5.890000E+03	3.403554E-16	5.244208E-17
5.900000E+03	3.423755E-16	5.272661E-17
5.910000E+03	3.445060E-16	5.302745E-17
5.920000E+03	3.467415E-16	5.334383E-17
5.930000E+03	3.490772E-16	5.367511E-17
5.940000E+03	3.514926E-16	5.401818E-17
5.950000E+03	3.540003E-16	5.437510E-17
5.960000E+03	3.565976E-16	5.474552E-17
5.970000E+03	3.592653E-16	5.512667E-17
5.980000E+03	3.620358E-16	5.552358E-17
5.990000E+03	3.648743E-16	5.593109E-17
6.000000E+03	3.677804E-16	5.634923E-17
6.010000E+03	3.707885E-16	5.678346E-17
6.020000E+03	3.738649E-16	5.722873E-17
6.030000E+03	3.770100E-16	5.768528E-17
6.040000E+03	3.802602E-16	5.815883E-17
6.050000E+03	3.835808E-16	5.864427E-17
6.060000E+03	3.870085E-16	5.914738E-17
6.070000E+03	3.904894E-16	5.966005E-17
6.080000E+03	3.940776E-16	6.019079E-17
6.090000E+03	3.977354E-16	6.073399E-17
6.100000E+03	4.014980E-16	6.129523E-17
6.110000E+03	4.053250E-16	6.186851E-17
6.120000E+03	4.092113E-16	6.245325E-17
6.130000E+03	4.131895E-16	6.305464E-17
6.140000E+03	4.172135E-16	6.366580E-17
6.150000E+03	4.212936E-16	6.428850E-17
6.160000E+03	4.254189E-16	6.492127E-17
6.170000E+03	4.295769E-16	6.556237E-17
6.180000E+03	4.337530E-16	6.620977E-17
6.190000E+03	4.379103E-16	6.685800E-17
6.200000E+03	4.420512E-16	6.750757E-17
6.210000E+03	4.461559E-16	6.815561E-17
6.220000E+03	4.502032E-16	6.879904E-17
6.230000E+03	4.541707E-16	6.943453E-17
6.240000E+03	4.580345E-16	7.005856E-17
6.250000E+03	4.617482E-16	7.066408E-17
6.260000E+03	4.653080E-16	7.125058E-17
6.270000E+03	4.687106E-16	7.181761E-17
6.280000E+03	4.718861E-16	7.235444E-17
6.290000E+03	4.748086E-16	7.285709E-17
6.300000E+03	4.774987E-16	7.332866E-17
6.310000E+03	4.799101E-16	7.376199E-17
6.320000E+03	4.819978E-16	7.415001E-17
6.330000E+03	4.837870E-16	7.449647E-17
6.340000E+03	4.852131E-16	7.479126E-17
6.350000E+03	4.862829E-16	7.503518E-17
6.360000E+03	4.869827E-16	7.522589E-17
6.370000E+03	4.873014E-16	7.536141E-17
6.380000E+03	4.872309E-16	7.544018E-17
6.390000E+03	4.867663E-16	7.546108E-17
6.400000E+03	4.859054E-16	7.542345E-17
6.410000E+03	4.846261E-16	7.532344E-17
6.420000E+03	4.829792E-16	7.516854E-17
6.430000E+03	4.809252E-16	7.495219E-17
6.440000E+03	4.784974E-16	7.467914E-17
6.450000E+03	4.757316E-16	7.435451E-17
6.460000E+03	4.725968E-16	7.397302E-17
6.470000E+03	4.691337E-16	7.354057E-17
6.480000E+03	4.653616E-16	7.305974E-17
6.490000E+03	4.613020E-16	7.253341E-17
6.500000E+03	4.569775E-16	7.196474E-17
6.510000E+03	4.524121E-16	7.135707E-17
6.520000E+03	4.476309E-16	7.071393E-17
6.530000E+03	4.426594E-16	7.003897E-17
6.540000E+03	4.375239E-16	6.933596E-17
6.550000E+03	4.322505E-16	6.860874E-17
6.560000E+03	4.268658E-16	6.786116E-17
6.570000E+03	4.213753E-16	6.709383E-17
6.580000E+03	4.158462E-16	6.631717E-17
6.590000E+03	4.102828E-16	6.553167E-17
6.600000E+03	4.046900E-16	6.473791E-17
6.610000E+03	3.991315E-16	6.394589E-17
6.620000E+03	3.936103E-16	6.315598E-17
6.630000E+03	3.881293E-16	6.236853E-17
6.640000E+03	3.827479E-16	6.159302E-17
6.650000E+03	3.774669E-16	6.082953E-17
6.660000E+03	3.722870E-16	6.007814E-17
6.670000E+03	3.672631E-16	5.934770E-17
6.680000E+03	3.623757E-16	5.863509E-17
6.690000E+03	3.576766E-16	5.794873E-17
6.700000E+03	3.531626E-16	5.728817E-17
6.710000E+03	3.488306E-16	5.665296E-17
6.720000E+03	3.447281E-16	5.605091E-17
6.730000E+03	3.408330E-16	5.547851E-17
6.740000E+03	3.371905E-16	5.494322E-17
6.750000E+03	3.337941E-16	5.444409E-17
6.760000E+03	3.306371E-16	5.398013E-17
6.770000E+03	3.277614E-16	5.355830E-17
6.780000E+03	3.251591E-16	5.317738E-17
6.790000E+03	3.228217E-16	5.283614E-17
6.800000E+03	3.207888E-16	5.254113E-17
6.810000E+03	3.190509E-16	5.229088E-17
6.820000E+03	3.175985E-16	5.208393E-17
6.830000E+03	3.164690E-16	5.192649E-17
6.840000E+03	3.156519E-16	5.181690E-17
6.850000E+03	3.151521E-16	5.175603E-17
6.860000E+03	3.149585E-16	5.174207E-17
6.870000E+03	3.151066E-16	5.178090E-17
6.880000E+03	3.155845E-16	5.187056E-17
6.890000E+03	3.163955E-16	5.201159E-17
6.900000E+03	3.175423E-16	5.220443E-17
6.910000E+03	3.190113E-16	5.244679E-17
6.920000E+03	3.208361E-16	5.274415E-17
6.930000E+03	3.230021E-16	5.309401E-17
6.940000E+03	3.255095E-16	5.349635E-17
6.950000E+03	3.283580E-16	5.395098E-17
6.960000E+03	3.315463E-16	5.445757E-17
6.970000E+03	3.350719E-16	5.501558E-17
6.980000E+03	3.389141E-16	5.562144E-17
6.990000E+03	3.431018E-16	5.627976E-17
7.000000E+03	3.476118E-16	5.698649E-17
7.010000E+03	3.524357E-16	5.774008E-17
7.020000E+03	3.575634E-16	5.853867E-17
7.030000E+03	3.629825E-16	5.938003E-17
7.040000E+03	3.686785E-16	6.026155E-17
7.050000E+03	3.746342E-16	6.118021E-17
7.060000E+03	3.808299E-16	6.213255E-17
7.070000E+03	3.872230E-16	6.311144E-17
7.080000E+03	3.938269E-16	6.411885E-17
7.090000E+03	4.005933E-16	6.514672E-17
7.100000E+03	4.074900E-16	6.618966E-17
7.110000E+03	4.144816E-16	6.724177E-17
7.120000E+03	4.215079E-16	6.829316E-17
7.130000E+03	4.285697E-16	6.934390E-17
7.140000E+03	4.356009E-16	7.038326E-17
7.150000E+03	4.425313E-16	7.139992E-17
7.160000E+03	4.493558E-16	7.239312E-17
7.170000E+03	4.559766E-16	7.334725E-17
7.180000E+03	4.623868E-16	7.426139E-17
7.190000E+03	4.684850E-16	7.511950E-17
7.200000E+03	4.742646E-16	7.592087E-17
7.210000E+03	4.796232E-16	7.664952E-17
7.220000E+03	4.845329E-16	7.730145E-17
7.230000E+03	4.889436E-16	7.786926E-17
7.240000E+03	4.928343E-16	7.835020E-17
7.250000E+03	4.961118E-16	7.873013E-17
7.260000E+03	4.987639E-16	7.900789E-17
7.270000E+03	5.007330E-16	7.917518E-17
7.280000E+03	5.020458E-16	7.923706E-17
7.290000E+03	5.026585E-16	7.918750E-17
7.300000E+03	5.025606E-16	7.902577E-17
7.310000E+03	5.017234E-16	7.874829E-17
7.320000E+03	5.002045E-16	7.836505E-17
7.330000E+03	4.979651E-16	7.787087E-17
7.340000E+03	4.950522E-16	7.727403E-17
7.350000E+03	4.914939E-16	7.657982E-17
7.360000E+03	4.873253E-16	7.579449E-17
7.370000E+03	4.825869E-16	7.492516E-17
7.380000E+03	4.773248E-16	7.397967E-17
7.390000E+03	4.715643E-16	7.296263E-17
7.400000E+03	4.654084E-16	7.189054E-17
7.410000E+03	4.588636E-16	7.076492E-17
7.420000E+03	4.520114E-16	6.959876E-17
7.430000E+03	4.449089E-16	6.840121E-17
7.440000E+03	4.376126E-16	6.718123E-17
7.450000E+03	4.301774E-16	6.594746E-17
7.460000E+03	4.226340E-16	6.470472E-17
7.470000E+03	4.150773E-16	6.346763E-17
7.480000E+03	4.075099E-16	6.223660E-17
7.490000E+03	3.999972E-16	6.102156E-17
7.500000E+03	3.925780E-16	5.982839E-17
7.510000E+03	3.852874E-16	5.866229E-17
7.520000E+03	3.781358E-16	5.752469E-17
7.530000E+03	3.711900E-16	5.642559E-17
7.540000E+03	3.644322E-16	5.536209E-17
7.550000E+03	3.579003E-16	5.433977E-17
7.560000E+03	3.515898E-16	5.335770E-17
7.570000E+03	3.455486E-16	5.242296E-17
7.580000E+03	3.397464E-16	5.153073E-17
7.590000E+03	3.342055E-16	5.068419E-17
7.600000E+03	3.289265E-16	4.988324E-17
7.610000E+03	3.239074E-16	4.912738E-17
7.620000E+03	3.191438E-16	4.841575E-17
7.630000E+03	3.146122E-16	4.774463E-17
7.640000E+03	3.103217E-16	4.711520E-17
7.650000E+03	3.062621E-16	4.652579E-17
7.660000E+03	3.024057E-16	4.597203E-17
7.670000E+03	2.987729E-16	4.545689E-17
7.680000E+03	2.953176E-16	4.497322E-17
7.690000E+03	2.920422E-16	4.452124E-17
7.700000E+03	2.889162E-16	4.409618E-17
7.710000E+03	2.859561E-16	4.370046E-17
7.720000E+03	2.831157E-16	4.332686E-17
7.730000E+03	2.803956E-16	4.297536E-17
7.740000E+03	2.777657E-16	4.264121E-17
7.750000E+03	2.752419E-16	4.232673E-17
7.760000E+03	2.727800E-16	4.202498E-17
