#wls	flux	fluxerr
1.587256E+03	1.058109E-02	3.480451E-04
1.626937E+03	1.075165E-02	3.528462E-04
1.666619E+03	1.092904E-02	3.578257E-04
1.706300E+03	1.111746E-02	3.631179E-04
1.745982E+03	1.131528E-02	3.686658E-04
1.785663E+03	1.152521E-02	3.745537E-04
1.825344E+03	1.174700E-02	3.807689E-04
1.865026E+03	1.198186E-02	3.873456E-04
1.904707E+03	1.223088E-02	3.943144E-04
1.944389E+03	1.249660E-02	4.017511E-04
1.984070E+03	1.278152E-02	4.097290E-04
2.023751E+03	1.308507E-02	4.182230E-04
2.063433E+03	1.341395E-02	4.274386E-04
2.103114E+03	1.376740E-02	4.373423E-04
2.142795E+03	1.415185E-02	4.481273E-04
2.182477E+03	1.457206E-02	4.599319E-04
2.222158E+03	1.503110E-02	4.728384E-04
2.261840E+03	1.553327E-02	4.869659E-04
2.301521E+03	1.608249E-02	5.024194E-04
2.341202E+03	1.668087E-02	5.192448E-04
2.380884E+03	1.732865E-02	5.374286E-04
2.420565E+03	1.802415E-02	5.568974E-04
2.460247E+03	1.876522E-02	5.775626E-04
2.499928E+03	1.955061E-02	5.993642E-04
2.539609E+03	2.037844E-02	6.222229E-04
2.579291E+03	2.124341E-02	6.459555E-04
2.618972E+03	2.214655E-02	6.705724E-04
2.658654E+03	2.307980E-02	6.958095E-04
2.698335E+03	2.404135E-02	7.215933E-04
2.738016E+03	2.502589E-02	7.477468E-04
2.777698E+03	2.602746E-02	7.740758E-04
2.817379E+03	2.703949E-02	8.003711E-04
2.857061E+03	2.805877E-02	8.265267E-04
2.896742E+03	2.908151E-02	8.524204E-04
2.936423E+03	3.010958E-02	8.780981E-04
2.976105E+03	3.114763E-02	9.036848E-04
2.986025E+03	3.140994E-02	9.101018E-04
2.995946E+03	3.167299E-02	9.165155E-04
3.005866E+03	3.193775E-02	9.229535E-04
3.015786E+03	3.220518E-02	9.294436E-04
3.025707E+03	3.247275E-02	9.359121E-04
3.035627E+03	3.274373E-02	9.424529E-04
3.045547E+03	3.301672E-02	9.490257E-04
3.055468E+03	3.329150E-02	9.556237E-04
3.065388E+03	3.356785E-02	9.622403E-04
3.075308E+03	3.384784E-02	9.689341E-04
3.085229E+03	3.413119E-02	9.756967E-04
3.095149E+03	3.441654E-02	9.824890E-04
3.105069E+03	3.470588E-02	9.893669E-04
3.114990E+03	3.499894E-02	9.963227E-04
3.124910E+03	3.529544E-02	1.003348E-03
3.134830E+03	3.559516E-02	1.010435E-03
3.144751E+03	3.589995E-02	1.017636E-03
3.154671E+03	3.620740E-02	1.024883E-03
3.164591E+03	3.652042E-02	1.032257E-03
3.174512E+03	3.683766E-02	1.039719E-03
3.184432E+03	3.715986E-02	1.047289E-03
3.194353E+03	3.748774E-02	1.054988E-03
3.204273E+03	3.781994E-02	1.062775E-03
3.214193E+03	3.815718E-02	1.070671E-03
3.224114E+03	3.849914E-02	1.078665E-03
3.234034E+03	3.884747E-02	1.086803E-03
3.243954E+03	3.920082E-02	1.095047E-03
3.253875E+03	3.955982E-02	1.103414E-03
3.263795E+03	3.992412E-02	1.111892E-03
3.273715E+03	4.029428E-02	1.120496E-03
3.283636E+03	4.066995E-02	1.129217E-03
3.293556E+03	4.105075E-02	1.138041E-03
3.303476E+03	4.143628E-02	1.146959E-03
3.313397E+03	4.182710E-02	1.155984E-03
3.323317E+03	4.222284E-02	1.165105E-03
3.333237E+03	4.262311E-02	1.174311E-03
3.343158E+03	4.302664E-02	1.183567E-03
3.353078E+03	4.343491E-02	1.192911E-03
3.362998E+03	4.384580E-02	1.202286E-03
3.372919E+03	4.425903E-02	1.211683E-03
3.382839E+03	4.467524E-02	1.221120E-03
3.392760E+03	4.509250E-02	1.230542E-03
3.402680E+03	4.551069E-02	1.239947E-03
3.412600E+03	4.592975E-02	1.249333E-03
3.422521E+03	4.634804E-02	1.258654E-03
3.432441E+03	4.676488E-02	1.267893E-03
3.442361E+03	4.718056E-02	1.277057E-03
3.452282E+03	4.759384E-02	1.286113E-03
3.462202E+03	4.800367E-02	1.295033E-03
3.472122E+03	4.841001E-02	1.303815E-03
3.482043E+03	4.881300E-02	1.312465E-03
3.491963E+03	4.921221E-02	1.320971E-03
3.501883E+03	4.960741E-02	1.329327E-03
3.511804E+03	4.999862E-02	1.337533E-03
3.521724E+03	5.038688E-02	1.345620E-03
3.531644E+03	5.077114E-02	1.353557E-03
3.541565E+03	5.115364E-02	1.361407E-03
3.551485E+03	5.153455E-02	1.369173E-03
3.561405E+03	5.191571E-02	1.376904E-03
3.571326E+03	5.229825E-02	1.384631E-03
3.581246E+03	5.268331E-02	1.392382E-03
3.591167E+03	5.307274E-02	1.400207E-03
3.601087E+03	5.346769E-02	1.408135E-03
3.611007E+03	5.387014E-02	1.416217E-03
3.620928E+03	5.428143E-02	1.424487E-03
3.630848E+03	5.470504E-02	1.433035E-03
3.640768E+03	5.514166E-02	1.441877E-03
3.650689E+03	5.559475E-02	1.451101E-03
3.660609E+03	5.606705E-02	1.460777E-03
3.670529E+03	5.655984E-02	1.470934E-03
3.680450E+03	5.707631E-02	1.481652E-03
3.690370E+03	5.761885E-02	1.492991E-03
3.700290E+03	5.818897E-02	1.504984E-03
3.710211E+03	5.878932E-02	1.517695E-03
3.720131E+03	5.942158E-02	1.531165E-03
3.730051E+03	6.008715E-02	1.545423E-03
3.739972E+03	6.078709E-02	1.560493E-03
3.749892E+03	6.152208E-02	1.576385E-03
3.759812E+03	6.229312E-02	1.593121E-03
3.769733E+03	6.310007E-02	1.610692E-03
3.779653E+03	6.394309E-02	1.629095E-03
3.789574E+03	6.481974E-02	1.648263E-03
3.799494E+03	6.573064E-02	1.668207E-03
3.809414E+03	6.667315E-02	1.688854E-03
3.819335E+03	6.764483E-02	1.710138E-03
3.829255E+03	6.864354E-02	1.732000E-03
3.839175E+03	6.966669E-02	1.754371E-03
3.849096E+03	7.070989E-02	1.777135E-03
3.859016E+03	7.176980E-02	1.800207E-03
3.868936E+03	7.284280E-02	1.823492E-03
3.878857E+03	7.392353E-02	1.846854E-03
3.888777E+03	7.500793E-02	1.870191E-03
3.898697E+03	7.609108E-02	1.893379E-03
3.908618E+03	7.716875E-02	1.916312E-03
3.918538E+03	7.823602E-02	1.938870E-03
3.928458E+03	7.928885E-02	1.960954E-03
3.938379E+03	8.032181E-02	1.982431E-03
3.948299E+03	8.133049E-02	2.003196E-03
3.958219E+03	8.231324E-02	2.023210E-03
3.968140E+03	8.326401E-02	2.042331E-03
3.978060E+03	8.418115E-02	2.060521E-03
3.987981E+03	8.506192E-02	2.077719E-03
3.997901E+03	8.590489E-02	2.093895E-03
4.007821E+03	8.670749E-02	2.108992E-03
4.017742E+03	8.746851E-02	2.122987E-03
4.027662E+03	8.818806E-02	2.135888E-03
4.037582E+03	8.886673E-02	2.147717E-03
4.047503E+03	8.950306E-02	2.158444E-03
4.057423E+03	9.009937E-02	2.168131E-03
4.067343E+03	9.065577E-02	2.176787E-03
4.077264E+03	9.117440E-02	2.184470E-03
4.087184E+03	9.165594E-02	2.191202E-03
4.097104E+03	9.210295E-02	2.197049E-03
4.107025E+03	9.251734E-02	2.202062E-03
4.116945E+03	9.290101E-02	2.206292E-03
4.126865E+03	9.325511E-02	2.209770E-03
4.136786E+03	9.358251E-02	2.212569E-03
4.146706E+03	9.388430E-02	2.214720E-03
4.156626E+03	9.416327E-02	2.216291E-03
4.166547E+03	9.441956E-02	2.217289E-03
4.176467E+03	9.465586E-02	2.217782E-03
4.186387E+03	9.487306E-02	2.217794E-03
4.196308E+03	9.507290E-02	2.217367E-03
4.206228E+03	9.525628E-02	2.216526E-03
4.216149E+03	9.542414E-02	2.215296E-03
4.226069E+03	9.557839E-02	2.213723E-03
4.235989E+03	9.571938E-02	2.211818E-03
4.245910E+03	9.584856E-02	2.209615E-03
4.255830E+03	9.596762E-02	2.207157E-03
4.265750E+03	9.607696E-02	2.204454E-03
4.275671E+03	9.617991E-02	2.201584E-03
4.285591E+03	9.627858E-02	2.198597E-03
4.295511E+03	9.637389E-02	2.195513E-03
4.305432E+03	9.647068E-02	2.192444E-03
4.315352E+03	9.657259E-02	2.189472E-03
4.325272E+03	9.668369E-02	2.186689E-03
4.335193E+03	9.680992E-02	2.184227E-03
4.345113E+03	9.695946E-02	2.182268E-03
4.355033E+03	9.713738E-02	2.180922E-03
4.364954E+03	9.734697E-02	2.180258E-03
4.374874E+03	9.759056E-02	2.180324E-03
4.384794E+03	9.786645E-02	2.181075E-03
4.394715E+03	9.817409E-02	2.182494E-03
4.404635E+03	9.851109E-02	2.184523E-03
4.414556E+03	9.887684E-02	2.187144E-03
4.424476E+03	9.926991E-02	2.190320E-03
4.434396E+03	9.968805E-02	2.193996E-03
4.444317E+03	1.001290E-01	2.198119E-03
4.454237E+03	1.005904E-01	2.202633E-03
4.464157E+03	1.010716E-01	2.207520E-03
4.474078E+03	1.015682E-01	2.212681E-03
4.483998E+03	1.020784E-01	2.218073E-03
4.493918E+03	1.025973E-01	2.223589E-03
4.503839E+03	1.031236E-01	2.229200E-03
4.513759E+03	1.036531E-01	2.234810E-03
4.523679E+03	1.041805E-01	2.240307E-03
4.533600E+03	1.047021E-01	2.245612E-03
4.543520E+03	1.052153E-01	2.250669E-03
4.553440E+03	1.057136E-01	2.255343E-03
4.563361E+03	1.061955E-01	2.259601E-03
4.573281E+03	1.066546E-01	2.263313E-03
4.583201E+03	1.070880E-01	2.266418E-03
4.593122E+03	1.074937E-01	2.268881E-03
4.603042E+03	1.078673E-01	2.270615E-03
4.612963E+03	1.082069E-01	2.271582E-03
4.622883E+03	1.085110E-01	2.271756E-03
4.632803E+03	1.087794E-01	2.271143E-03
4.642724E+03	1.090099E-01	2.269700E-03
4.652644E+03	1.092045E-01	2.267476E-03
4.662564E+03	1.093638E-01	2.264490E-03
4.672485E+03	1.094852E-01	2.260693E-03
4.682405E+03	1.095673E-01	2.256065E-03
4.692325E+03	1.096094E-01	2.250597E-03
4.702246E+03	1.096111E-01	2.244288E-03
4.712166E+03	1.095736E-01	2.237169E-03
4.722086E+03	1.094984E-01	2.229276E-03
4.732007E+03	1.093871E-01	2.220654E-03
4.741927E+03	1.092421E-01	2.211352E-03
4.751847E+03	1.090676E-01	2.201462E-03
4.761768E+03	1.088640E-01	2.191001E-03
4.771688E+03	1.086382E-01	2.180108E-03
4.781608E+03	1.083916E-01	2.168819E-03
4.791529E+03	1.081293E-01	2.157235E-03
4.801449E+03	1.078548E-01	2.145434E-03
4.811370E+03	1.075729E-01	2.133510E-03
4.821290E+03	1.072863E-01	2.121518E-03
4.831210E+03	1.069995E-01	2.109550E-03
4.841131E+03	1.067161E-01	2.097676E-03
4.851051E+03	1.064405E-01	2.085980E-03
4.860971E+03	1.061759E-01	2.074526E-03
4.870892E+03	1.059256E-01	2.063375E-03
4.880812E+03	1.056927E-01	2.052585E-03
4.890732E+03	1.054820E-01	2.042249E-03
4.900653E+03	1.052946E-01	2.032380E-03
4.910573E+03	1.051352E-01	2.023068E-03
4.920493E+03	1.050066E-01	2.014360E-03
4.930414E+03	1.049103E-01	2.006281E-03
4.940334E+03	1.048500E-01	1.998895E-03
4.950254E+03	1.048281E-01	1.992242E-03
4.960175E+03	1.048480E-01	1.986379E-03
4.970095E+03	1.049110E-01	1.981326E-03
4.980015E+03	1.050193E-01	1.977115E-03
4.989936E+03	1.051761E-01	1.973798E-03
4.999856E+03	1.053833E-01	1.971403E-03
5.009777E+03	1.056419E-01	1.969938E-03
5.019697E+03	1.059544E-01	1.969445E-03
5.029617E+03	1.063226E-01	1.969944E-03
5.039538E+03	1.067466E-01	1.971431E-03
5.049458E+03	1.072288E-01	1.973936E-03
5.059378E+03	1.077700E-01	1.977467E-03
5.069299E+03	1.083709E-01	1.982027E-03
5.079219E+03	1.090309E-01	1.987593E-03
5.089139E+03	1.097501E-01	1.994158E-03
5.099060E+03	1.105294E-01	2.001727E-03
5.108980E+03	1.113682E-01	2.010281E-03
5.118900E+03	1.122648E-01	2.019777E-03
5.128821E+03	1.132178E-01	2.030183E-03
5.138741E+03	1.142259E-01	2.041462E-03
5.148661E+03	1.152870E-01	2.053573E-03
5.158582E+03	1.163979E-01	2.066446E-03
5.168502E+03	1.175583E-01	2.080070E-03
5.178422E+03	1.187630E-01	2.094345E-03
5.188343E+03	1.200099E-01	2.109228E-03
5.198263E+03	1.212946E-01	2.124633E-03
5.208183E+03	1.226132E-01	2.140487E-03
5.218104E+03	1.239617E-01	2.156717E-03
5.228024E+03	1.253347E-01	2.173226E-03
5.237945E+03	1.267292E-01	2.189955E-03
5.247865E+03	1.281407E-01	2.206827E-03
5.257785E+03	1.295620E-01	2.223716E-03
5.267706E+03	1.309911E-01	2.240587E-03
5.277626E+03	1.324208E-01	2.257319E-03
5.287546E+03	1.338476E-01	2.273852E-03
5.297467E+03	1.352656E-01	2.290089E-03
5.307387E+03	1.366700E-01	2.305951E-03
5.317307E+03	1.380549E-01	2.321346E-03
5.327228E+03	1.394182E-01	2.336241E-03
5.337148E+03	1.407512E-01	2.350497E-03
5.347068E+03	1.420507E-01	2.364067E-03
5.356989E+03	1.433116E-01	2.376876E-03
5.366909E+03	1.445291E-01	2.388851E-03
5.376829E+03	1.456967E-01	2.399894E-03
5.386750E+03	1.468090E-01	2.409930E-03
5.396670E+03	1.478605E-01	2.418877E-03
5.406590E+03	1.488454E-01	2.426655E-03
5.416511E+03	1.497595E-01	2.433207E-03
5.426431E+03	1.505975E-01	2.438463E-03
5.436352E+03	1.513520E-01	2.442316E-03
5.446272E+03	1.520180E-01	2.444703E-03
5.456192E+03	1.525965E-01	2.445656E-03
5.466113E+03	1.530824E-01	2.445109E-03
5.476033E+03	1.534790E-01	2.443134E-03
5.485953E+03	1.537860E-01	2.439738E-03
5.495874E+03	1.540080E-01	2.435013E-03
5.505794E+03	1.541509E-01	2.429063E-03
5.515714E+03	1.542166E-01	2.421929E-03
5.525635E+03	1.542119E-01	2.413732E-03
5.535555E+03	1.541438E-01	2.404591E-03
5.545475E+03	1.540158E-01	2.394568E-03
5.555396E+03	1.538356E-01	2.383793E-03
5.565316E+03	1.536116E-01	2.372404E-03
5.575236E+03	1.533481E-01	2.360471E-03
5.585157E+03	1.530557E-01	2.348163E-03
5.595077E+03	1.527419E-01	2.335599E-03
5.604997E+03	1.524112E-01	2.322850E-03
5.614918E+03	1.520742E-01	2.310079E-03
5.624838E+03	1.517386E-01	2.297403E-03
5.634759E+03	1.514097E-01	2.284902E-03
5.644679E+03	1.510959E-01	2.272700E-03
5.654599E+03	1.508017E-01	2.260861E-03
5.664520E+03	1.505339E-01	2.249483E-03
5.674440E+03	1.502970E-01	2.238632E-03
5.684360E+03	1.500950E-01	2.228359E-03
5.694281E+03	1.499303E-01	2.218697E-03
5.704201E+03	1.498061E-01	2.209687E-03
5.714121E+03	1.497203E-01	2.201290E-03
5.724042E+03	1.496752E-01	2.193537E-03
5.733962E+03	1.496680E-01	2.186379E-03
5.743882E+03	1.496958E-01	2.179769E-03
5.753803E+03	1.497570E-01	2.173680E-03
5.763723E+03	1.498469E-01	2.168040E-03
5.773643E+03	1.499604E-01	2.162770E-03
5.783564E+03	1.500914E-01	2.157780E-03
5.793484E+03	1.502335E-01	2.152976E-03
5.803404E+03	1.503793E-01	2.148252E-03
5.813325E+03	1.505235E-01	2.143531E-03
5.823245E+03	1.506583E-01	2.138705E-03
5.833166E+03	1.507748E-01	2.133647E-03
5.843086E+03	1.508673E-01	2.128282E-03
5.853006E+03	1.509287E-01	2.122514E-03
5.862927E+03	1.509543E-01	2.116280E-03
5.872847E+03	1.509366E-01	2.109482E-03
5.882767E+03	1.508721E-01	2.102076E-03
5.892688E+03	1.507562E-01	2.094006E-03
5.902608E+03	1.505859E-01	2.085237E-03
5.912528E+03	1.503601E-01	2.075761E-03
5.922449E+03	1.500775E-01	2.065569E-03
5.932369E+03	1.497358E-01	2.054636E-03
5.942289E+03	1.493390E-01	2.043024E-03
5.952210E+03	1.488867E-01	2.030736E-03
5.962130E+03	1.483829E-01	2.017834E-03
5.972050E+03	1.478308E-01	2.004368E-03
5.981971E+03	1.472342E-01	1.990394E-03
5.991891E+03	1.465991E-01	1.976001E-03
6.001811E+03	1.459322E-01	1.961282E-03
6.011732E+03	1.452355E-01	1.946270E-03
6.021652E+03	1.445178E-01	1.931084E-03
6.031573E+03	1.437850E-01	1.915807E-03
6.041493E+03	1.430445E-01	1.900539E-03
6.051413E+03	1.423021E-01	1.885359E-03
6.061334E+03	1.415655E-01	1.870368E-03
6.071254E+03	1.408380E-01	1.855609E-03
6.081174E+03	1.401303E-01	1.841224E-03
6.091095E+03	1.394473E-01	1.827273E-03
6.101015E+03	1.387935E-01	1.813816E-03
6.110935E+03	1.381783E-01	1.800968E-03
6.120856E+03	1.376038E-01	1.788758E-03
6.130776E+03	1.370770E-01	1.777270E-03
6.140696E+03	1.365956E-01	1.766471E-03
6.150617E+03	1.361637E-01	1.756411E-03
6.160537E+03	1.357822E-01	1.747096E-03
6.170457E+03	1.354508E-01	1.738520E-03
6.180378E+03	1.351694E-01	1.730677E-03
6.190298E+03	1.349373E-01	1.723554E-03
6.200218E+03	1.347536E-01	1.717137E-03
6.210139E+03	1.346221E-01	1.711473E-03
6.220059E+03	1.345380E-01	1.706494E-03
6.229979E+03	1.345027E-01	1.702218E-03
6.239900E+03	1.345139E-01	1.698612E-03
6.249820E+03	1.345728E-01	1.695691E-03
6.259741E+03	1.346763E-01	1.693412E-03
6.269661E+03	1.348214E-01	1.691737E-03
6.279581E+03	1.350101E-01	1.690688E-03
6.289502E+03	1.352366E-01	1.690194E-03
6.299422E+03	1.354988E-01	1.690226E-03
6.309342E+03	1.357979E-01	1.690800E-03
6.319263E+03	1.361272E-01	1.691831E-03
6.329183E+03	1.364854E-01	1.693307E-03
6.339103E+03	1.368675E-01	1.695163E-03
6.349024E+03	1.372738E-01	1.697404E-03
6.358944E+03	1.376964E-01	1.699936E-03
6.368864E+03	1.381334E-01	1.702736E-03
6.378785E+03	1.385809E-01	1.705758E-03
6.388705E+03	1.390310E-01	1.708909E-03
6.398625E+03	1.394838E-01	1.712189E-03
6.408546E+03	1.399333E-01	1.715531E-03
6.418466E+03	1.403764E-01	1.718892E-03
6.428386E+03	1.408079E-01	1.722210E-03
6.438307E+03	1.412276E-01	1.725480E-03
6.448227E+03	1.416321E-01	1.728659E-03
6.458148E+03	1.420232E-01	1.731768E-03
6.468068E+03	1.423972E-01	1.734761E-03
6.477988E+03	1.427582E-01	1.737685E-03
6.487909E+03	1.431011E-01	1.740476E-03
6.497829E+03	1.434164E-01	1.743018E-03
6.507749E+03	1.436979E-01	1.745233E-03
6.517670E+03	1.439359E-01	1.747002E-03
6.527590E+03	1.441259E-01	1.748269E-03
6.537510E+03	1.442610E-01	1.748949E-03
6.547431E+03	1.443370E-01	1.748990E-03
6.557351E+03	1.443531E-01	1.748379E-03
6.567271E+03	1.443031E-01	1.747040E-03
6.577192E+03	1.441898E-01	1.745007E-03
6.587112E+03	1.440110E-01	1.742247E-03
6.597032E+03	1.437668E-01	1.738762E-03
6.606953E+03	1.434580E-01	1.734558E-03
6.616873E+03	1.430886E-01	1.729682E-03
6.626793E+03	1.426560E-01	1.724099E-03
6.636714E+03	1.421654E-01	1.717870E-03
6.646634E+03	1.416218E-01	1.711051E-03
6.656555E+03	1.410267E-01	1.703658E-03
6.666475E+03	1.403814E-01	1.695707E-03
6.676395E+03	1.396950E-01	1.687300E-03
6.686316E+03	1.389715E-01	1.678485E-03
6.696236E+03	1.382112E-01	1.669264E-03
6.706156E+03	1.374233E-01	1.659742E-03
6.716077E+03	1.366105E-01	1.649951E-03
6.725997E+03	1.357777E-01	1.639948E-03
6.735917E+03	1.349321E-01	1.629816E-03
6.745838E+03	1.340760E-01	1.619580E-03
6.755758E+03	1.332165E-01	1.609325E-03
6.765678E+03	1.323559E-01	1.599076E-03
6.775599E+03	1.315009E-01	1.588909E-03
6.785519E+03	1.306532E-01	1.578847E-03
6.795439E+03	1.298188E-01	1.568958E-03
6.805360E+03	1.290013E-01	1.559284E-03
6.815280E+03	1.282017E-01	1.549835E-03
6.825200E+03	1.274249E-01	1.540669E-03
6.835121E+03	1.266713E-01	1.531790E-03
6.845041E+03	1.259473E-01	1.523273E-03
6.854962E+03	1.252502E-01	1.515085E-03
6.864882E+03	1.245836E-01	1.507267E-03
6.874802E+03	1.239483E-01	1.499830E-03
6.884723E+03	1.233452E-01	1.492781E-03
6.894643E+03	1.227743E-01	1.486122E-03
6.904563E+03	1.222359E-01	1.479853E-03
6.914484E+03	1.217295E-01	1.473970E-03
6.924404E+03	1.212546E-01	1.468466E-03
6.934324E+03	1.208085E-01	1.463305E-03
6.944245E+03	1.203943E-01	1.458527E-03
6.954165E+03	1.200090E-01	1.454093E-03
6.964085E+03	1.196512E-01	1.449987E-03
6.974006E+03	1.193217E-01	1.446219E-03
6.983926E+03	1.190148E-01	1.442719E-03
6.993846E+03	1.187333E-01	1.439519E-03
7.003767E+03	1.184734E-01	1.436575E-03
7.013687E+03	1.182335E-01	1.433866E-03
7.023607E+03	1.180117E-01	1.431371E-03
7.033528E+03	1.178086E-01	1.429094E-03
7.043448E+03	1.176200E-01	1.426987E-03
7.053369E+03	1.174463E-01	1.425053E-03
7.063289E+03	1.172832E-01	1.423242E-03
7.073209E+03	1.171288E-01	1.421528E-03
7.083130E+03	1.169829E-01	1.419911E-03
7.093050E+03	1.168435E-01	1.418367E-03
7.102970E+03	1.167059E-01	1.416838E-03
7.112891E+03	1.165698E-01	1.415323E-03
7.122811E+03	1.164307E-01	1.413764E-03
7.132731E+03	1.162880E-01	1.412158E-03
7.142652E+03	1.161392E-01	1.410473E-03
7.152572E+03	1.159815E-01	1.408676E-03
7.162492E+03	1.158123E-01	1.406736E-03
7.172413E+03	1.156287E-01	1.404619E-03
7.182333E+03	1.154259E-01	1.402267E-03
7.192253E+03	1.152059E-01	1.399703E-03
7.202174E+03	1.149638E-01	1.396873E-03
7.212094E+03	1.146974E-01	1.393747E-03
7.222014E+03	1.144070E-01	1.390331E-03
7.231935E+03	1.140884E-01	1.386574E-03
7.241855E+03	1.137425E-01	1.382488E-03
7.251775E+03	1.133680E-01	1.378060E-03
7.261696E+03	1.129642E-01	1.373282E-03
7.271616E+03	1.125308E-01	1.368151E-03
7.281537E+03	1.120703E-01	1.362697E-03
7.291457E+03	1.115809E-01	1.356900E-03
7.301377E+03	1.110683E-01	1.350833E-03
7.311298E+03	1.105367E-01	1.344544E-03
7.321218E+03	1.099832E-01	1.338003E-03
7.331138E+03	1.094177E-01	1.331328E-03
7.341059E+03	1.088430E-01	1.324558E-03
7.350979E+03	1.082652E-01	1.317766E-03
7.360899E+03	1.076881E-01	1.311000E-03
7.370820E+03	1.071183E-01	1.304343E-03
7.380740E+03	1.065581E-01	1.297823E-03
7.390660E+03	1.060078E-01	1.291446E-03
7.400581E+03	1.054748E-01	1.285304E-03
7.410501E+03	1.049599E-01	1.279407E-03
7.420421E+03	1.044686E-01	1.273823E-03
7.430342E+03	1.040017E-01	1.268567E-03
7.440262E+03	1.035671E-01	1.263735E-03
7.450182E+03	1.031703E-01	1.259398E-03
7.460103E+03	1.028121E-01	1.255564E-03
7.470023E+03	1.024998E-01	1.252328E-03
7.479944E+03	1.022359E-01	1.249722E-03
7.489864E+03	1.020249E-01	1.247805E-03
7.499784E+03	1.018733E-01	1.246656E-03
7.509705E+03	1.017821E-01	1.246295E-03
7.519625E+03	1.017545E-01	1.246762E-03
7.529545E+03	1.017928E-01	1.248088E-03
7.539466E+03	1.018987E-01	1.250301E-03
7.549386E+03	1.020731E-01	1.253414E-03
7.559306E+03	1.023163E-01	1.257437E-03
7.569227E+03	1.026276E-01	1.262364E-03
7.579147E+03	1.030054E-01	1.268183E-03
7.589067E+03	1.034473E-01	1.274868E-03
7.598988E+03	1.039496E-01	1.282382E-03
7.608908E+03	1.045081E-01	1.290674E-03
7.618828E+03	1.051195E-01	1.299716E-03
7.628749E+03	1.057725E-01	1.309367E-03
7.638669E+03	1.064643E-01	1.319604E-03
7.648589E+03	1.071811E-01	1.330260E-03
7.658510E+03	1.079185E-01	1.341285E-03
7.668430E+03	1.086631E-01	1.352519E-03
7.678351E+03	1.094061E-01	1.363856E-03
7.688271E+03	1.101323E-01	1.375113E-03
7.698191E+03	1.108285E-01	1.386127E-03
