#wls	flux	fluxerr
1.587256E+03	1.353518E-02	1.566884E-04
1.626937E+03	1.377888E-02	1.591590E-04
1.666619E+03	1.403705E-02	1.617753E-04
1.706300E+03	1.431118E-02	1.645531E-04
1.745982E+03	1.460103E-02	1.674874E-04
1.785663E+03	1.490805E-02	1.705930E-04
1.825344E+03	1.523362E-02	1.738835E-04
1.865026E+03	1.558081E-02	1.773913E-04
1.904707E+03	1.594743E-02	1.810890E-04
1.944389E+03	1.633813E-02	1.850265E-04
1.984070E+03	1.675227E-02	1.891936E-04
2.023751E+03	1.719429E-02	1.936369E-04
2.063433E+03	1.766675E-02	1.983816E-04
2.103114E+03	1.817382E-02	2.034701E-04
2.142795E+03	1.872281E-02	2.089794E-04
2.182477E+03	1.931742E-02	2.149450E-04
2.222158E+03	1.996955E-02	2.214927E-04
2.261840E+03	2.068387E-02	2.286663E-04
2.301521E+03	2.146973E-02	2.365604E-04
2.341202E+03	2.232912E-02	2.451872E-04
2.380884E+03	2.325852E-02	2.544975E-04
2.420565E+03	2.425716E-02	2.644728E-04
2.460247E+03	2.532368E-02	2.750874E-04
2.499928E+03	2.645758E-02	2.863254E-04
2.539609E+03	2.765593E-02	2.981442E-04
2.579291E+03	2.891490E-02	3.104916E-04
2.618972E+03	3.023454E-02	3.233574E-04
2.658654E+03	3.160736E-02	3.366507E-04
2.698335E+03	3.302961E-02	3.503215E-04
2.738016E+03	3.449477E-02	3.642908E-04
2.777698E+03	3.599059E-02	3.784206E-04
2.817379E+03	3.751458E-02	3.926768E-04
2.857061E+03	3.905847E-02	4.069658E-04
2.896742E+03	4.062183E-02	4.212767E-04
2.936423E+03	4.221294E-02	4.356885E-04
2.976105E+03	4.383546E-02	4.502311E-04
2.986025E+03	4.424806E-02	4.539075E-04
2.995946E+03	4.466230E-02	4.575879E-04
3.005866E+03	4.508061E-02	4.612973E-04
3.015786E+03	4.550131E-02	4.650182E-04
3.025707E+03	4.592546E-02	4.687612E-04
3.035627E+03	4.635273E-02	4.725231E-04
3.045547E+03	4.678417E-02	4.763139E-04
3.055468E+03	4.722074E-02	4.801437E-04
3.065388E+03	4.766081E-02	4.839951E-04
3.075308E+03	4.810537E-02	4.878784E-04
3.085229E+03	4.855541E-02	4.918033E-04
3.095149E+03	4.901058E-02	4.957658E-04
3.105069E+03	4.947056E-02	4.997626E-04
3.114990E+03	4.993757E-02	5.038157E-04
3.124910E+03	5.040999E-02	5.079086E-04
3.134830E+03	5.088753E-02	5.120380E-04
3.144751E+03	5.137361E-02	5.162380E-04
3.154671E+03	5.186538E-02	5.204798E-04
3.164591E+03	5.236502E-02	5.247846E-04
3.174512E+03	5.287094E-02	5.291363E-04
3.184432E+03	5.338527E-02	5.335560E-04
3.194353E+03	5.390766E-02	5.380396E-04
3.204273E+03	5.443778E-02	5.425835E-04
3.214193E+03	5.497649E-02	5.471958E-04
3.224114E+03	5.552462E-02	5.518846E-04
3.234034E+03	5.608063E-02	5.566337E-04
3.243954E+03	5.664534E-02	5.614514E-04
3.253875E+03	5.721839E-02	5.663332E-04
3.263795E+03	5.780055E-02	5.712866E-04
3.273715E+03	5.839140E-02	5.763070E-04
3.283636E+03	5.899055E-02	5.813900E-04
3.293556E+03	5.959865E-02	5.865416E-04
3.303476E+03	6.021300E-02	5.917350E-04
3.313397E+03	6.083644E-02	5.969975E-04
3.323317E+03	6.146621E-02	6.023018E-04
3.333237E+03	6.210176E-02	6.076421E-04
3.343158E+03	6.274351E-02	6.130222E-04
3.353078E+03	6.338974E-02	6.184249E-04
3.362998E+03	6.403866E-02	6.238327E-04
3.372919E+03	6.468953E-02	6.292381E-04
3.382839E+03	6.534049E-02	6.346229E-04
3.392760E+03	6.599174E-02	6.399890E-04
3.402680E+03	6.663928E-02	6.452977E-04
3.412600E+03	6.728225E-02	6.505406E-04
3.422521E+03	6.791873E-02	6.556994E-04
3.432441E+03	6.854581E-02	6.607464E-04
3.442361E+03	6.916169E-02	6.656644E-04
3.452282E+03	6.976459E-02	6.704369E-04
3.462202E+03	7.035195E-02	6.750399E-04
3.472122E+03	7.092044E-02	6.794420E-04
3.482043E+03	7.146888E-02	6.836329E-04
3.491963E+03	7.199550E-02	6.875964E-04
3.501883E+03	7.249801E-02	6.913118E-04
3.511804E+03	7.297560E-02	6.947722E-04
3.521724E+03	7.342802E-02	6.979765E-04
3.531644E+03	7.385579E-02	7.009307E-04
3.541565E+03	7.425932E-02	7.036398E-04
3.551485E+03	7.464085E-02	7.061261E-04
3.561405E+03	7.500259E-02	7.084115E-04
3.571326E+03	7.535007E-02	7.105489E-04
3.581246E+03	7.568658E-02	7.125699E-04
3.591167E+03	7.601674E-02	7.145187E-04
3.601087E+03	7.634517E-02	7.164387E-04
3.611007E+03	7.667804E-02	7.183880E-04
3.620928E+03	7.702222E-02	7.204304E-04
3.630848E+03	7.738510E-02	7.226347E-04
3.640768E+03	7.777525E-02	7.250795E-04
3.650689E+03	7.820063E-02	7.278379E-04
3.660609E+03	7.867088E-02	7.309977E-04
3.670529E+03	7.919393E-02	7.346302E-04
3.680450E+03	7.977987E-02	7.388266E-04
3.690370E+03	8.043685E-02	7.436591E-04
3.700290E+03	8.117251E-02	7.491948E-04
3.710211E+03	8.199545E-02	7.555094E-04
3.720131E+03	8.291272E-02	7.626634E-04
3.730051E+03	8.393053E-02	7.707094E-04
3.739972E+03	8.505404E-02	7.796898E-04
3.749892E+03	8.628891E-02	7.896514E-04
3.759812E+03	8.763710E-02	8.006066E-04
3.769733E+03	8.910082E-02	8.125703E-04
3.779653E+03	9.068155E-02	8.255504E-04
3.789574E+03	9.237587E-02	8.395098E-04
3.799494E+03	9.418273E-02	8.544337E-04
3.809414E+03	9.609678E-02	8.702681E-04
3.819335E+03	9.811077E-02	8.869420E-04
3.829255E+03	1.002172E-01	9.043834E-04
3.839175E+03	1.024052E-01	9.224883E-04
3.849096E+03	1.046626E-01	9.411453E-04
3.859016E+03	1.069750E-01	9.602198E-04
3.868936E+03	1.093282E-01	9.795821E-04
3.878857E+03	1.117038E-01	9.990670E-04
3.888777E+03	1.140857E-01	1.018527E-03
3.898697E+03	1.164549E-01	1.037795E-03
3.908618E+03	1.187934E-01	1.056709E-03
3.918538E+03	1.210835E-01	1.075114E-03
3.928458E+03	1.233059E-01	1.092841E-03
3.938379E+03	1.254443E-01	1.109750E-03
3.948299E+03	1.274855E-01	1.125728E-03
3.958219E+03	1.294132E-01	1.140635E-03
3.968140E+03	1.312192E-01	1.154405E-03
3.978060E+03	1.328916E-01	1.166939E-03
3.987981E+03	1.344259E-01	1.178204E-03
3.997901E+03	1.358175E-01	1.188168E-03
4.007821E+03	1.370646E-01	1.196821E-03
4.017742E+03	1.381679E-01	1.204175E-03
4.027662E+03	1.391310E-01	1.210271E-03
4.037582E+03	1.399578E-01	1.215148E-03
4.047503E+03	1.406570E-01	1.218889E-03
4.057423E+03	1.412351E-01	1.221556E-03
4.067343E+03	1.417012E-01	1.223234E-03
4.077264E+03	1.420648E-01	1.224010E-03
4.087184E+03	1.423370E-01	1.223984E-03
4.097104E+03	1.425276E-01	1.223247E-03
4.107025E+03	1.426452E-01	1.221875E-03
4.116945E+03	1.426999E-01	1.219959E-03
4.126865E+03	1.427001E-01	1.217573E-03
4.136786E+03	1.426523E-01	1.214775E-03
4.146706E+03	1.425648E-01	1.211640E-03
4.156626E+03	1.424407E-01	1.208194E-03
4.166547E+03	1.422850E-01	1.204483E-03
4.176467E+03	1.421019E-01	1.200542E-03
4.186387E+03	1.418918E-01	1.196379E-03
4.196308E+03	1.416557E-01	1.192001E-03
4.206228E+03	1.413944E-01	1.187418E-03
4.216149E+03	1.411061E-01	1.182615E-03
4.226069E+03	1.407918E-01	1.177603E-03
4.235989E+03	1.404499E-01	1.172369E-03
4.245910E+03	1.400779E-01	1.166894E-03
4.255830E+03	1.396782E-01	1.161200E-03
4.265750E+03	1.392488E-01	1.155272E-03
4.275671E+03	1.387912E-01	1.149123E-03
4.285591E+03	1.383092E-01	1.142787E-03
4.295511E+03	1.378067E-01	1.136298E-03
4.305432E+03	1.372893E-01	1.129702E-03
4.315352E+03	1.367656E-01	1.123071E-03
4.325272E+03	1.362421E-01	1.116458E-03
4.335193E+03	1.357298E-01	1.109955E-03
4.345113E+03	1.352383E-01	1.103637E-03
4.355033E+03	1.347791E-01	1.097599E-03
4.364954E+03	1.343583E-01	1.091889E-03
4.374874E+03	1.339845E-01	1.086574E-03
4.384794E+03	1.336639E-01	1.081701E-03
4.394715E+03	1.334032E-01	1.077324E-03
4.404635E+03	1.332084E-01	1.073486E-03
4.414556E+03	1.330856E-01	1.070233E-03
4.424476E+03	1.330398E-01	1.067602E-03
4.434396E+03	1.330765E-01	1.065633E-03
4.444317E+03	1.331968E-01	1.064329E-03
4.454237E+03	1.334022E-01	1.063701E-03
4.464157E+03	1.336931E-01	1.063744E-03
4.474078E+03	1.340649E-01	1.064419E-03
4.483998E+03	1.345148E-01	1.065701E-03
4.493918E+03	1.350349E-01	1.067520E-03
4.503839E+03	1.356189E-01	1.069826E-03
4.513759E+03	1.362559E-01	1.072528E-03
4.523679E+03	1.369368E-01	1.075552E-03
4.533600E+03	1.376496E-01	1.078803E-03
4.543520E+03	1.383815E-01	1.082178E-03
4.553440E+03	1.391219E-01	1.085593E-03
4.563361E+03	1.398576E-01	1.088945E-03
4.573281E+03	1.405767E-01	1.092143E-03
4.583201E+03	1.412684E-01	1.095102E-03
4.593122E+03	1.419198E-01	1.097725E-03
4.603042E+03	1.425239E-01	1.099960E-03
4.612963E+03	1.430713E-01	1.101738E-03
4.622883E+03	1.435557E-01	1.103010E-03
4.632803E+03	1.439703E-01	1.103731E-03
4.642724E+03	1.443104E-01	1.103867E-03
4.652644E+03	1.445724E-01	1.103394E-03
4.662564E+03	1.447561E-01	1.102315E-03
4.672485E+03	1.448598E-01	1.100621E-03
4.682405E+03	1.448862E-01	1.098337E-03
4.692325E+03	1.448349E-01	1.095463E-03
4.702246E+03	1.447096E-01	1.092033E-03
4.712166E+03	1.445152E-01	1.088085E-03
4.722086E+03	1.442558E-01	1.083655E-03
4.732007E+03	1.439378E-01	1.078795E-03
4.741927E+03	1.435667E-01	1.073547E-03
4.751847E+03	1.431497E-01	1.067970E-03
4.761768E+03	1.426928E-01	1.062110E-03
4.771688E+03	1.422052E-01	1.056036E-03
4.781608E+03	1.416916E-01	1.049787E-03
4.791529E+03	1.411621E-01	1.043438E-03
4.801449E+03	1.406227E-01	1.037033E-03
4.811370E+03	1.400802E-01	1.030625E-03
4.821290E+03	1.395415E-01	1.024263E-03
4.831210E+03	1.390129E-01	1.017994E-03
4.841131E+03	1.385003E-01	1.011859E-03
4.851051E+03	1.380092E-01	1.005900E-03
4.860971E+03	1.375463E-01	1.000163E-03
4.870892E+03	1.371151E-01	9.946730E-04
4.880812E+03	1.367214E-01	9.894697E-04
4.890732E+03	1.363681E-01	9.845722E-04
4.900653E+03	1.360619E-01	9.800263E-04
4.910573E+03	1.358049E-01	9.758466E-04
4.920493E+03	1.355993E-01	9.720446E-04
4.930414E+03	1.354519E-01	9.686677E-04
4.940334E+03	1.353619E-01	9.657064E-04
4.950254E+03	1.353356E-01	9.632029E-04
4.960175E+03	1.353730E-01	9.611550E-04
4.970095E+03	1.354777E-01	9.595841E-04
4.980015E+03	1.356501E-01	9.584898E-04
4.989936E+03	1.358947E-01	9.579014E-04
4.999856E+03	1.362104E-01	9.578064E-04
5.009777E+03	1.366009E-01	9.582284E-04
5.019697E+03	1.370647E-01	9.591527E-04
5.029617E+03	1.376049E-01	9.605974E-04
5.039538E+03	1.382207E-01	9.625533E-04
5.049458E+03	1.389106E-01	9.650069E-04
5.059378E+03	1.396767E-01	9.679694E-04
5.069299E+03	1.405173E-01	9.714244E-04
5.079219E+03	1.414309E-01	9.753585E-04
5.089139E+03	1.424148E-01	9.797498E-04
5.099060E+03	1.434695E-01	9.845988E-04
5.108980E+03	1.445898E-01	9.898664E-04
5.118900E+03	1.457745E-01	9.955415E-04
5.128821E+03	1.470201E-01	1.001598E-03
5.138741E+03	1.483218E-01	1.007999E-03
5.148661E+03	1.496767E-01	1.014725E-03
5.158582E+03	1.510793E-01	1.021734E-03
5.168502E+03	1.525250E-01	1.028995E-03
5.178422E+03	1.540089E-01	1.036473E-03
5.188343E+03	1.555275E-01	1.044142E-03
5.198263E+03	1.570728E-01	1.051948E-03
5.208183E+03	1.586413E-01	1.059868E-03
5.218104E+03	1.602262E-01	1.067855E-03
5.228024E+03	1.618242E-01	1.075886E-03
5.237945E+03	1.634307E-01	1.083932E-03
5.247865E+03	1.650379E-01	1.091942E-03
5.257785E+03	1.666449E-01	1.099908E-03
5.267706E+03	1.682445E-01	1.107787E-03
5.277626E+03	1.698349E-01	1.115566E-03
5.287546E+03	1.714113E-01	1.123215E-03
5.297467E+03	1.729709E-01	1.130717E-03
5.307387E+03	1.745132E-01	1.138071E-03
5.317307E+03	1.760325E-01	1.145240E-03
5.327228E+03	1.775287E-01	1.152228E-03
5.337148E+03	1.789984E-01	1.159012E-03
5.347068E+03	1.804402E-01	1.165587E-03
5.356989E+03	1.818522E-01	1.171942E-03
5.366909E+03	1.832314E-01	1.178060E-03
5.376829E+03	1.845758E-01	1.183931E-03
5.386750E+03	1.858839E-01	1.189547E-03
5.396670E+03	1.871520E-01	1.194888E-03
5.406590E+03	1.883789E-01	1.199947E-03
5.416511E+03	1.895633E-01	1.204722E-03
5.426431E+03	1.907026E-01	1.209196E-03
5.436352E+03	1.917958E-01	1.213368E-03
5.446272E+03	1.928428E-01	1.217237E-03
5.456192E+03	1.938369E-01	1.220768E-03
5.466113E+03	1.947690E-01	1.223904E-03
5.476033E+03	1.956320E-01	1.226605E-03
5.485953E+03	1.964164E-01	1.228814E-03
5.495874E+03	1.971115E-01	1.230469E-03
5.505794E+03	1.977128E-01	1.231544E-03
5.515714E+03	1.982130E-01	1.231999E-03
5.525635E+03	1.986090E-01	1.231818E-03
5.535555E+03	1.989014E-01	1.231009E-03
5.545475E+03	1.990885E-01	1.229565E-03
5.555396E+03	1.991701E-01	1.227489E-03
5.565316E+03	1.991537E-01	1.224832E-03
5.575236E+03	1.990419E-01	1.221612E-03
5.585157E+03	1.988386E-01	1.217857E-03
5.595077E+03	1.985548E-01	1.213638E-03
5.604997E+03	1.981942E-01	1.208978E-03
5.614918E+03	1.977672E-01	1.203946E-03
5.624838E+03	1.972822E-01	1.198594E-03
5.634759E+03	1.967484E-01	1.192979E-03
5.644679E+03	1.961723E-01	1.187141E-03
5.654599E+03	1.955667E-01	1.181161E-03
5.664520E+03	1.949354E-01	1.175061E-03
5.674440E+03	1.942880E-01	1.168899E-03
5.684360E+03	1.936292E-01	1.162705E-03
5.694281E+03	1.929692E-01	1.156538E-03
5.704201E+03	1.923109E-01	1.150417E-03
5.714121E+03	1.916563E-01	1.144353E-03
5.724042E+03	1.910127E-01	1.138389E-03
5.733962E+03	1.903803E-01	1.132525E-03
5.743882E+03	1.897602E-01	1.126768E-03
5.753803E+03	1.891526E-01	1.121118E-03
5.763723E+03	1.885590E-01	1.115584E-03
5.773643E+03	1.879759E-01	1.110143E-03
5.783564E+03	1.874035E-01	1.104797E-03
5.793484E+03	1.868390E-01	1.099528E-03
5.803404E+03	1.862790E-01	1.094317E-03
5.813325E+03	1.857183E-01	1.089132E-03
5.823245E+03	1.851566E-01	1.083972E-03
5.833166E+03	1.845905E-01	1.078816E-03
5.843086E+03	1.840135E-01	1.073627E-03
5.853006E+03	1.834237E-01	1.068394E-03
5.862927E+03	1.828174E-01	1.063095E-03
5.872847E+03	1.821931E-01	1.057723E-03
5.882767E+03	1.815454E-01	1.052246E-03
5.892688E+03	1.808738E-01	1.046661E-03
5.902608E+03	1.801780E-01	1.040969E-03
5.912528E+03	1.794542E-01	1.035147E-03
5.922449E+03	1.787035E-01	1.029203E-03
5.932369E+03	1.779275E-01	1.023146E-03
5.942289E+03	1.771241E-01	1.016965E-03
5.952210E+03	1.762987E-01	1.010691E-03
5.962130E+03	1.754524E-01	1.004332E-03
5.972050E+03	1.745875E-01	9.979004E-04
5.981971E+03	1.737087E-01	9.914239E-04
5.991891E+03	1.728215E-01	9.849340E-04
6.001811E+03	1.719273E-01	9.784388E-04
6.011732E+03	1.710369E-01	9.719993E-04
6.021652E+03	1.701525E-01	9.656290E-04
6.031573E+03	1.692813E-01	9.593673E-04
6.041493E+03	1.684326E-01	9.532669E-04
6.051413E+03	1.676074E-01	9.473336E-04
6.061334E+03	1.668176E-01	9.416327E-04
6.071254E+03	1.660684E-01	9.361937E-04
6.081174E+03	1.653674E-01	9.310581E-04
6.091095E+03	1.647200E-01	9.262551E-04
6.101015E+03	1.641328E-01	9.218214E-04
6.110935E+03	1.636109E-01	9.177832E-04
6.120856E+03	1.631604E-01	9.141748E-04
6.130776E+03	1.627829E-01	9.110031E-04
6.140696E+03	1.624794E-01	9.082729E-04
6.150617E+03	1.622570E-01	9.060218E-04
6.160537E+03	1.621105E-01	9.042208E-04
6.170457E+03	1.620457E-01	9.029000E-04
6.180378E+03	1.620585E-01	9.020359E-04
6.190298E+03	1.621503E-01	9.016356E-04
6.200218E+03	1.623174E-01	9.016775E-04
6.210139E+03	1.625577E-01	9.021492E-04
6.220059E+03	1.628636E-01	9.030071E-04
6.229979E+03	1.632355E-01	9.042544E-04
6.239900E+03	1.636644E-01	9.058398E-04
6.249820E+03	1.641448E-01	9.077326E-04
6.259741E+03	1.646686E-01	9.098886E-04
6.269661E+03	1.652296E-01	9.122739E-04
6.279581E+03	1.658211E-01	9.148509E-04
6.289502E+03	1.664320E-01	9.175596E-04
6.299422E+03	1.670580E-01	9.203763E-04
6.309342E+03	1.676856E-01	9.232273E-04
6.319263E+03	1.683112E-01	9.260938E-04
6.329183E+03	1.689269E-01	9.289332E-04
6.339103E+03	1.695229E-01	9.316924E-04
6.349024E+03	1.700975E-01	9.343629E-04
6.358944E+03	1.706425E-01	9.369008E-04
6.368864E+03	1.711651E-01	9.393471E-04
6.378785E+03	1.716586E-01	9.416653E-04
6.388705E+03	1.721293E-01	9.438918E-04
6.398625E+03	1.725717E-01	9.459956E-04
6.408546E+03	1.729909E-01	9.480051E-04
6.418466E+03	1.733871E-01	9.499214E-04
6.428386E+03	1.737611E-01	9.517474E-04
6.438307E+03	1.741138E-01	9.534887E-04
6.448227E+03	1.744470E-01	9.551539E-04
6.458148E+03	1.747600E-01	9.567390E-04
6.468068E+03	1.750596E-01	9.582807E-04
6.477988E+03	1.753405E-01	9.597497E-04
6.487909E+03	1.756039E-01	9.611515E-04
6.497829E+03	1.758437E-01	9.624523E-04
6.507749E+03	1.760547E-01	9.636236E-04
6.517670E+03	1.762340E-01	9.646478E-04
6.527590E+03	1.763707E-01	9.654654E-04
6.537510E+03	1.764595E-01	9.660463E-04
6.547431E+03	1.764983E-01	9.663792E-04
6.557351E+03	1.764830E-01	9.664392E-04
6.567271E+03	1.764039E-01	9.661741E-04
6.577192E+03	1.762632E-01	9.655940E-04
6.587112E+03	1.760520E-01	9.646495E-04
6.597032E+03	1.757734E-01	9.633566E-04
6.606953E+03	1.754173E-01	9.616585E-04
6.616873E+03	1.749911E-01	9.595956E-04
6.626793E+03	1.744892E-01	9.571355E-04
6.636714E+03	1.739152E-01	9.542970E-04
6.646634E+03	1.732651E-01	9.510573E-04
6.656555E+03	1.725505E-01	9.474779E-04
6.666475E+03	1.717663E-01	9.435302E-04
6.676395E+03	1.709224E-01	9.392676E-04
6.686316E+03	1.700239E-01	9.347167E-04
6.696236E+03	1.690709E-01	9.298769E-04
6.706156E+03	1.680749E-01	9.248104E-04
6.716077E+03	1.670396E-01	9.195366E-04
6.725997E+03	1.659744E-01	9.141065E-04
6.735917E+03	1.648806E-01	9.085254E-04
6.745838E+03	1.637704E-01	9.028607E-04
6.755758E+03	1.626506E-01	8.971480E-04
6.765678E+03	1.615248E-01	8.914075E-04
6.775599E+03	1.603991E-01	8.856718E-04
6.785519E+03	1.592793E-01	8.799722E-04
6.795439E+03	1.581765E-01	8.743696E-04
6.805360E+03	1.570872E-01	8.688444E-04
6.815280E+03	1.560213E-01	8.634507E-04
6.825200E+03	1.549828E-01	8.582104E-04
6.835121E+03	1.539721E-01	8.531260E-04
6.845041E+03	1.529952E-01	8.482299E-04
6.854962E+03	1.520539E-01	8.435327E-04
6.864882E+03	1.511475E-01	8.390299E-04
6.874802E+03	1.502799E-01	8.347433E-04
6.884723E+03	1.494521E-01	8.306788E-04
6.894643E+03	1.486615E-01	8.268220E-04
6.904563E+03	1.479137E-01	8.232038E-04
6.914484E+03	1.472031E-01	8.197932E-04
6.924404E+03	1.465342E-01	8.166159E-04
6.934324E+03	1.459006E-01	8.136363E-04
6.944245E+03	1.453067E-01	8.108787E-04
6.954165E+03	1.447457E-01	8.083062E-04
6.964085E+03	1.442213E-01	8.059387E-04
6.974006E+03	1.437292E-01	8.037532E-04
6.983926E+03	1.432676E-01	8.017394E-04
6.993846E+03	1.428371E-01	7.999010E-04
7.003767E+03	1.424327E-01	7.982106E-04
7.013687E+03	1.420526E-01	7.966579E-04
7.023607E+03	1.416970E-01	7.952444E-04
7.033528E+03	1.413635E-01	7.939570E-04
7.043448E+03	1.410468E-01	7.927659E-04
7.053369E+03	1.407472E-01	7.916727E-04
7.063289E+03	1.404618E-01	7.906621E-04
7.073209E+03	1.401876E-01	7.897169E-04
7.083130E+03	1.399190E-01	7.888054E-04
7.093050E+03	1.396584E-01	7.879418E-04
7.102970E+03	1.393995E-01	7.870906E-04
7.112891E+03	1.391393E-01	7.862348E-04
7.122811E+03	1.388768E-01	7.853685E-04
7.132731E+03	1.386059E-01	7.844570E-04
7.142652E+03	1.383227E-01	7.834796E-04
7.152572E+03	1.380293E-01	7.824467E-04
7.162492E+03	1.377136E-01	7.812900E-04
7.172413E+03	1.373804E-01	7.800364E-04
7.182333E+03	1.370233E-01	7.786502E-04
7.192253E+03	1.366364E-01	7.770966E-04
7.202174E+03	1.362189E-01	7.753719E-04
7.212094E+03	1.357713E-01	7.734775E-04
7.222014E+03	1.352877E-01	7.713800E-04
7.231935E+03	1.347634E-01	7.690526E-04
7.241855E+03	1.342022E-01	7.665154E-04
7.251775E+03	1.336000E-01	7.637461E-04
7.261696E+03	1.329563E-01	7.607400E-04
7.271616E+03	1.322738E-01	7.575128E-04
7.281537E+03	1.315445E-01	7.540183E-04
7.291457E+03	1.307783E-01	7.503123E-04
7.301377E+03	1.299717E-01	7.463738E-04
7.311298E+03	1.291272E-01	7.422182E-04
7.321218E+03	1.282485E-01	7.378651E-04
7.331138E+03	1.273369E-01	7.333220E-04
7.341059E+03	1.263975E-01	7.286172E-04
7.350979E+03	1.254357E-01	7.237827E-04
7.360899E+03	1.244550E-01	7.188375E-04
7.370820E+03	1.234621E-01	7.138205E-04
7.380740E+03	1.224614E-01	7.087567E-04
7.390660E+03	1.214687E-01	7.037382E-04
7.400581E+03	1.204862E-01	6.987776E-04
7.410501E+03	1.195272E-01	6.939527E-04
7.420421E+03	1.185997E-01	6.893097E-04
7.430342E+03	1.177140E-01	6.849101E-04
7.440262E+03	1.168749E-01	6.807824E-04
7.450182E+03	1.160923E-01	6.769859E-04
7.460103E+03	1.153759E-01	6.735777E-04
7.470023E+03	1.147265E-01	6.705641E-04
7.479944E+03	1.141581E-01	6.680289E-04
7.489864E+03	1.136704E-01	6.659721E-04
7.499784E+03	1.132679E-01	6.644220E-04
7.509705E+03	1.129600E-01	6.634353E-04
7.519625E+03	1.127440E-01	6.629995E-04
7.529545E+03	1.126222E-01	6.631301E-04
7.539466E+03	1.126014E-01	6.638697E-04
7.549386E+03	1.126766E-01	6.651914E-04
7.559306E+03	1.128473E-01	6.670949E-04
7.569227E+03	1.131149E-01	6.695912E-04
7.579147E+03	1.134770E-01	6.726693E-04
7.589067E+03	1.139275E-01	6.762952E-04
7.598988E+03	1.144646E-01	6.804625E-04
7.608908E+03	1.150832E-01	6.851421E-04
7.618828E+03	1.157706E-01	6.902628E-04
7.628749E+03	1.165282E-01	6.958345E-04
7.638669E+03	1.173384E-01	7.017545E-04
7.648589E+03	1.182002E-01	7.080201E-04
7.658510E+03	1.190936E-01	7.145135E-04
7.668430E+03	1.200159E-01	7.212197E-04
7.678351E+03	1.209477E-01	7.280246E-04
7.688271E+03	1.218750E-01	7.348444E-04
7.698191E+03	1.227890E-01	7.416274E-04
