#wls	flux	fluxerr
1.587256E+03	1.239746E-02	2.032055E-04
1.626937E+03	1.260559E-02	2.059240E-04
1.666619E+03	1.282561E-02	2.087973E-04
1.706300E+03	1.305730E-02	2.118185E-04
1.745982E+03	1.330367E-02	2.150334E-04
1.785663E+03	1.356445E-02	2.184339E-04
1.825344E+03	1.384093E-02	2.220366E-04
1.865026E+03	1.413436E-02	2.258574E-04
1.904707E+03	1.444430E-02	2.298848E-04
1.944389E+03	1.477670E-02	2.342084E-04
1.984070E+03	1.512776E-02	2.387621E-04
2.023751E+03	1.550483E-02	2.436562E-04
2.063433E+03	1.590872E-02	2.488960E-04
2.103114E+03	1.634326E-02	2.545340E-04
2.142795E+03	1.681376E-02	2.606437E-04
2.182477E+03	1.732684E-02	2.673171E-04
2.222158E+03	1.788882E-02	2.746397E-04
2.261840E+03	1.850570E-02	2.826894E-04
2.301521E+03	1.918460E-02	2.915588E-04
2.341202E+03	1.992426E-02	3.012113E-04
2.380884E+03	2.072767E-02	3.116739E-04
2.420565E+03	2.158943E-02	3.228466E-04
2.460247E+03	2.250982E-02	3.347156E-04
2.499928E+03	2.348690E-02	3.472328E-04
2.539609E+03	2.451799E-02	3.603404E-04
2.579291E+03	2.560114E-02	3.739911E-04
2.618972E+03	2.673051E-02	3.880817E-04
2.658654E+03	2.790538E-02	4.025846E-04
2.698335E+03	2.911659E-02	4.173510E-04
2.738016E+03	3.035997E-02	4.323066E-04
2.777698E+03	3.162895E-02	4.473446E-04
2.817379E+03	3.291462E-02	4.623275E-04
2.857061E+03	3.421428E-02	4.772082E-04
2.896742E+03	3.552693E-02	4.919642E-04
2.936423E+03	3.685585E-02	5.066323E-04
2.976105E+03	3.820695E-02	5.212840E-04
2.986025E+03	3.855043E-02	5.249737E-04
2.995946E+03	3.889452E-02	5.286507E-04
3.005866E+03	3.924024E-02	5.323290E-04
3.015786E+03	3.958985E-02	5.360390E-04
3.025707E+03	3.994182E-02	5.397595E-04
3.035627E+03	4.029585E-02	5.434863E-04
3.045547E+03	4.065415E-02	5.472491E-04
3.055468E+03	4.101398E-02	5.510103E-04
3.065388E+03	4.137874E-02	5.548156E-04
3.075308E+03	4.174689E-02	5.586441E-04
3.085229E+03	4.211817E-02	5.624916E-04
3.095149E+03	4.249467E-02	5.663859E-04
3.105069E+03	4.287490E-02	5.703067E-04
3.114990E+03	4.326092E-02	5.742810E-04
3.124910E+03	4.365126E-02	5.782887E-04
3.134830E+03	4.404561E-02	5.823254E-04
3.144751E+03	4.444715E-02	5.864328E-04
3.154671E+03	4.485325E-02	5.905755E-04
3.164591E+03	4.526590E-02	5.947791E-04
3.174512E+03	4.568474E-02	5.990387E-04
3.184432E+03	4.610949E-02	6.033497E-04
3.194353E+03	4.654091E-02	6.077217E-04
3.204273E+03	4.697870E-02	6.121501E-04
3.214193E+03	4.742468E-02	6.166582E-04
3.224114E+03	4.787634E-02	6.212125E-04
3.234034E+03	4.833550E-02	6.258362E-04
3.243954E+03	4.880179E-02	6.305237E-04
3.253875E+03	4.927590E-02	6.352835E-04
3.263795E+03	4.975638E-02	6.400961E-04
3.273715E+03	5.024389E-02	6.449694E-04
3.283636E+03	5.073804E-02	6.498979E-04
3.293556E+03	5.123939E-02	6.548882E-04
3.303476E+03	5.174752E-02	6.599342E-04
3.313397E+03	5.226094E-02	6.650165E-04
3.323317E+03	5.278018E-02	6.701411E-04
3.333237E+03	5.330374E-02	6.752888E-04
3.343158E+03	5.383210E-02	6.804651E-04
3.353078E+03	5.436374E-02	6.856504E-04
3.362998E+03	5.489811E-02	6.908376E-04
3.372919E+03	5.543369E-02	6.960074E-04
3.382839E+03	5.596995E-02	7.011529E-04
3.392760E+03	5.650535E-02	7.062550E-04
3.402680E+03	5.703939E-02	7.113074E-04
3.412600E+03	5.756878E-02	7.162694E-04
3.422521E+03	5.809401E-02	7.211474E-04
3.432441E+03	5.861285E-02	7.259141E-04
3.442361E+03	5.912324E-02	7.305448E-04
3.452282E+03	5.962502E-02	7.350383E-04
3.462202E+03	6.011555E-02	7.393627E-04
3.472122E+03	6.059331E-02	7.435007E-04
3.482043E+03	6.105878E-02	7.474588E-04
3.491963E+03	6.150927E-02	7.512057E-04
3.501883E+03	6.194589E-02	7.547561E-04
3.511804E+03	6.236681E-02	7.580891E-04
3.521724E+03	6.277399E-02	7.612299E-04
3.531644E+03	6.316658E-02	7.641692E-04
3.541565E+03	6.354673E-02	7.669347E-04
3.551485E+03	6.391634E-02	7.695501E-04
3.561405E+03	6.427854E-02	7.720542E-04
3.571326E+03	6.463603E-02	7.744801E-04
3.581246E+03	6.499086E-02	7.768527E-04
3.591167E+03	6.534770E-02	7.792280E-04
3.601087E+03	6.570844E-02	7.816285E-04
3.611007E+03	6.607770E-02	7.841087E-04
3.620928E+03	6.645896E-02	7.867092E-04
3.630848E+03	6.685825E-02	7.895002E-04
3.640768E+03	6.727957E-02	7.925272E-04
3.650689E+03	6.772855E-02	7.958544E-04
3.660609E+03	6.821158E-02	7.995544E-04
3.670529E+03	6.873352E-02	8.036809E-04
3.680450E+03	6.930121E-02	8.083104E-04
3.690370E+03	6.991908E-02	8.134905E-04
3.700290E+03	7.059337E-02	8.192891E-04
3.710211E+03	7.132914E-02	8.257600E-04
3.720131E+03	7.213018E-02	8.329414E-04
3.730051E+03	7.300109E-02	8.408810E-04
3.739972E+03	7.394506E-02	8.496090E-04
3.749892E+03	7.496519E-02	8.591548E-04
3.759812E+03	7.606299E-02	8.695288E-04
3.769733E+03	7.723972E-02	8.807389E-04
3.779653E+03	7.849416E-02	8.927642E-04
3.789574E+03	7.982699E-02	9.056056E-04
3.799494E+03	8.123398E-02	9.192086E-04
3.809414E+03	8.271357E-02	9.335489E-04
3.819335E+03	8.425990E-02	9.485544E-04
3.829255E+03	8.586829E-02	9.641667E-04
3.839175E+03	8.753053E-02	9.802886E-04
3.849096E+03	8.923973E-02	9.968382E-04
3.859016E+03	9.098638E-02	1.013706E-03
3.868936E+03	9.276006E-02	1.030772E-03
3.878857E+03	9.455134E-02	1.047931E-03
3.888777E+03	9.634854E-02	1.065051E-03
3.898697E+03	9.813960E-02	1.081999E-03
3.908618E+03	9.991324E-02	1.098651E-03
3.918538E+03	1.016583E-01	1.114888E-03
3.928458E+03	1.033631E-01	1.130583E-03
3.938379E+03	1.050166E-01	1.145620E-03
3.948299E+03	1.066084E-01	1.159889E-03
3.958219E+03	1.081311E-01	1.173318E-03
3.968140E+03	1.095767E-01	1.185825E-03
3.978060E+03	1.109384E-01	1.197343E-03
3.987981E+03	1.122109E-01	1.207824E-03
3.997901E+03	1.133904E-01	1.217233E-03
4.007821E+03	1.144766E-01	1.225575E-03
4.017742E+03	1.154664E-01	1.232828E-03
4.027662E+03	1.163635E-01	1.239037E-03
4.037582E+03	1.171664E-01	1.244196E-03
4.047503E+03	1.178811E-01	1.248377E-03
4.057423E+03	1.185103E-01	1.251614E-03
4.067343E+03	1.190584E-01	1.253963E-03
4.077264E+03	1.195307E-01	1.255487E-03
4.087184E+03	1.199323E-01	1.256246E-03
4.097104E+03	1.202700E-01	1.256316E-03
4.107025E+03	1.205492E-01	1.255761E-03
4.116945E+03	1.207745E-01	1.254632E-03
4.126865E+03	1.209508E-01	1.252987E-03
4.136786E+03	1.210840E-01	1.250888E-03
4.146706E+03	1.211781E-01	1.248384E-03
4.156626E+03	1.212368E-01	1.245514E-03
4.166547E+03	1.212621E-01	1.242303E-03
4.176467E+03	1.212565E-01	1.238778E-03
4.186387E+03	1.212230E-01	1.234974E-03
4.196308E+03	1.211630E-01	1.230907E-03
4.206228E+03	1.210754E-01	1.226569E-03
4.216149E+03	1.209641E-01	1.222001E-03
4.226069E+03	1.208269E-01	1.217184E-03
4.235989E+03	1.206652E-01	1.212134E-03
4.245910E+03	1.204809E-01	1.206873E-03
4.255830E+03	1.202736E-01	1.201398E-03
4.265750E+03	1.200457E-01	1.195736E-03
4.275671E+03	1.197990E-01	1.189907E-03
4.285591E+03	1.195372E-01	1.183948E-03
4.295511E+03	1.192650E-01	1.177908E-03
4.305432E+03	1.189862E-01	1.171825E-03
4.315352E+03	1.187071E-01	1.165763E-03
4.325272E+03	1.184362E-01	1.159804E-03
4.335193E+03	1.181847E-01	1.154057E-03
4.345113E+03	1.179619E-01	1.148611E-03
4.355033E+03	1.177771E-01	1.143555E-03
4.364954E+03	1.176377E-01	1.138959E-03
4.374874E+03	1.175455E-01	1.134833E-03
4.384794E+03	1.175035E-01	1.131206E-03
4.394715E+03	1.175125E-01	1.128078E-03
4.404635E+03	1.175727E-01	1.125450E-03
4.414556E+03	1.176868E-01	1.123341E-03
4.424476E+03	1.178539E-01	1.121738E-03
4.434396E+03	1.180761E-01	1.120657E-03
4.444317E+03	1.183517E-01	1.120078E-03
4.454237E+03	1.186806E-01	1.119993E-03
4.464157E+03	1.190626E-01	1.120398E-03
4.474078E+03	1.194937E-01	1.121250E-03
4.483998E+03	1.199720E-01	1.122527E-03
4.493918E+03	1.204916E-01	1.124171E-03
4.503839E+03	1.210476E-01	1.126132E-03
4.513759E+03	1.216344E-01	1.128355E-03
4.523679E+03	1.222457E-01	1.130778E-03
4.533600E+03	1.228735E-01	1.133328E-03
4.543520E+03	1.235104E-01	1.135933E-03
4.553440E+03	1.241477E-01	1.138514E-03
4.563361E+03	1.247780E-01	1.141001E-03
4.573281E+03	1.253946E-01	1.143336E-03
4.583201E+03	1.259893E-01	1.145443E-03
4.593122E+03	1.265542E-01	1.147254E-03
4.603042E+03	1.270844E-01	1.148725E-03
4.612963E+03	1.275733E-01	1.149801E-03
4.622883E+03	1.280177E-01	1.150455E-03
4.632803E+03	1.284118E-01	1.150639E-03
4.642724E+03	1.287541E-01	1.150343E-03
4.652644E+03	1.290421E-01	1.149549E-03
4.662564E+03	1.292744E-01	1.148249E-03
4.672485E+03	1.294478E-01	1.146419E-03
4.682405E+03	1.295655E-01	1.144089E-03
4.692325E+03	1.296261E-01	1.141255E-03
4.702246E+03	1.296311E-01	1.137932E-03
4.712166E+03	1.295811E-01	1.134130E-03
4.722086E+03	1.294819E-01	1.129905E-03
4.732007E+03	1.293335E-01	1.125259E-03
4.741927E+03	1.291416E-01	1.120245E-03
4.751847E+03	1.289101E-01	1.114902E-03
4.761768E+03	1.286446E-01	1.109279E-03
4.771688E+03	1.283494E-01	1.103418E-03
4.781608E+03	1.280303E-01	1.097369E-03
4.791529E+03	1.276931E-01	1.091184E-03
4.801449E+03	1.273422E-01	1.084902E-03
4.811370E+03	1.269844E-01	1.078582E-03
4.821290E+03	1.266262E-01	1.072280E-03
4.831210E+03	1.262707E-01	1.066020E-03
4.841131E+03	1.259240E-01	1.059856E-03
4.851051E+03	1.255922E-01	1.053836E-03
4.860971E+03	1.252786E-01	1.047988E-03
4.870892E+03	1.249875E-01	1.042347E-03
4.880812E+03	1.247256E-01	1.036965E-03
4.890732E+03	1.244953E-01	1.031862E-03
4.900653E+03	1.242993E-01	1.027057E-03
4.910573E+03	1.241445E-01	1.022604E-03
4.920493E+03	1.240318E-01	1.018507E-03
4.930414E+03	1.239653E-01	1.014798E-03
4.940334E+03	1.239480E-01	1.011496E-03
4.950254E+03	1.239823E-01	1.008620E-03
4.960175E+03	1.240721E-01	1.006195E-03
4.970095E+03	1.242182E-01	1.004225E-03
4.980015E+03	1.244241E-01	1.002733E-03
4.989936E+03	1.246903E-01	1.001719E-03
4.999856E+03	1.250198E-01	1.001203E-03
5.009777E+03	1.254138E-01	1.001191E-03
5.019697E+03	1.258724E-01	1.001678E-03
5.029617E+03	1.263978E-01	1.002677E-03
5.039538E+03	1.269918E-01	1.004198E-03
5.049458E+03	1.276523E-01	1.006219E-03
5.059378E+03	1.283807E-01	1.008747E-03
5.069299E+03	1.291767E-01	1.011776E-03
5.079219E+03	1.300385E-01	1.015286E-03
5.089139E+03	1.309677E-01	1.019284E-03
5.099060E+03	1.319606E-01	1.023739E-03
5.108980E+03	1.330168E-01	1.028643E-03
5.118900E+03	1.341329E-01	1.033966E-03
5.128821E+03	1.353081E-01	1.039697E-03
5.138741E+03	1.365385E-01	1.045804E-03
5.148661E+03	1.378222E-01	1.052269E-03
5.158582E+03	1.391546E-01	1.059053E-03
5.168502E+03	1.405312E-01	1.066119E-03
5.178422E+03	1.419505E-01	1.073455E-03
5.188343E+03	1.434074E-01	1.081018E-03
5.198263E+03	1.448961E-01	1.088765E-03
5.208183E+03	1.464141E-01	1.096676E-03
5.218104E+03	1.479552E-01	1.104702E-03
5.228024E+03	1.495168E-01	1.112825E-03
5.237945E+03	1.510915E-01	1.120988E-03
5.247865E+03	1.526764E-01	1.129171E-03
5.257785E+03	1.542675E-01	1.137345E-03
5.267706E+03	1.558604E-01	1.145479E-03
5.277626E+03	1.574484E-01	1.153525E-03
5.287546E+03	1.590307E-01	1.161479E-03
5.297467E+03	1.606020E-01	1.169304E-03
5.307387E+03	1.621575E-01	1.176967E-03
5.317307E+03	1.636953E-01	1.184457E-03
5.327228E+03	1.652089E-01	1.191732E-03
5.337148E+03	1.666985E-01	1.198794E-03
5.347068E+03	1.681578E-01	1.205603E-03
5.356989E+03	1.695835E-01	1.212138E-03
5.366909E+03	1.709746E-01	1.218397E-03
5.376829E+03	1.723243E-01	1.224334E-03
5.386750E+03	1.736299E-01	1.229936E-03
5.396670E+03	1.748895E-01	1.235194E-03
5.406590E+03	1.760984E-01	1.240079E-03
5.416511E+03	1.772549E-01	1.244584E-03
5.426431E+03	1.783532E-01	1.248675E-03
5.436352E+03	1.793875E-01	1.252314E-03
5.446272E+03	1.803530E-01	1.255476E-03
5.456192E+03	1.812440E-01	1.258127E-03
5.466113E+03	1.820606E-01	1.260272E-03
5.476033E+03	1.827958E-01	1.261871E-03
5.485953E+03	1.834469E-01	1.262910E-03
5.495874E+03	1.840131E-01	1.263388E-03
5.505794E+03	1.844889E-01	1.263273E-03
5.515714E+03	1.848786E-01	1.262597E-03
5.525635E+03	1.851766E-01	1.261327E-03
5.535555E+03	1.853854E-01	1.259484E-03
5.545475E+03	1.855070E-01	1.257085E-03
5.555396E+03	1.855447E-01	1.254158E-03
5.565316E+03	1.855025E-01	1.250731E-03
5.575236E+03	1.853874E-01	1.246857E-03
5.585157E+03	1.852015E-01	1.242549E-03
5.595077E+03	1.849529E-01	1.237868E-03
5.604997E+03	1.846489E-01	1.232863E-03
5.614918E+03	1.842949E-01	1.227571E-03
5.624838E+03	1.839022E-01	1.222069E-03
5.634759E+03	1.834762E-01	1.216395E-03
5.644679E+03	1.830244E-01	1.210598E-03
5.654599E+03	1.825539E-01	1.204725E-03
5.664520E+03	1.820710E-01	1.198818E-03
5.674440E+03	1.815821E-01	1.192917E-03
5.684360E+03	1.810920E-01	1.187056E-03
5.694281E+03	1.806056E-01	1.181264E-03
5.704201E+03	1.801284E-01	1.175576E-03
5.714121E+03	1.796612E-01	1.169997E-03
5.724042E+03	1.792061E-01	1.164538E-03
5.733962E+03	1.787660E-01	1.159219E-03
5.743882E+03	1.783392E-01	1.154025E-03
5.753803E+03	1.779288E-01	1.148977E-03
5.763723E+03	1.775296E-01	1.144040E-03
5.773643E+03	1.771392E-01	1.139196E-03
5.783564E+03	1.767589E-01	1.134454E-03
5.793484E+03	1.763834E-01	1.129779E-03
5.803404E+03	1.760107E-01	1.125157E-03
5.813325E+03	1.756351E-01	1.120551E-03
5.823245E+03	1.752519E-01	1.115932E-03
5.833166E+03	1.748607E-01	1.111297E-03
5.843086E+03	1.744532E-01	1.106592E-03
5.853006E+03	1.740290E-01	1.101816E-03
5.862927E+03	1.735841E-01	1.096945E-03
5.872847E+03	1.731130E-01	1.091942E-03
5.882767E+03	1.726138E-01	1.086798E-03
5.892688E+03	1.720861E-01	1.081511E-03
5.902608E+03	1.715254E-01	1.076053E-03
5.912528E+03	1.709341E-01	1.070441E-03
5.922449E+03	1.703092E-01	1.064656E-03
5.932369E+03	1.696503E-01	1.058696E-03
5.942289E+03	1.689618E-01	1.052591E-03
5.952210E+03	1.682445E-01	1.046346E-03
5.962130E+03	1.675000E-01	1.039973E-03
5.972050E+03	1.667328E-01	1.033498E-03
5.981971E+03	1.659474E-01	1.026953E-03
5.991891E+03	1.651474E-01	1.020357E-03
6.001811E+03	1.643365E-01	1.013737E-03
6.011732E+03	1.635229E-01	1.007141E-03
6.021652E+03	1.627112E-01	1.000599E-03
6.031573E+03	1.619081E-01	9.941513E-04
6.041493E+03	1.611187E-01	9.878292E-04
6.051413E+03	1.603518E-01	9.816872E-04
6.061334E+03	1.596107E-01	9.757436E-04
6.071254E+03	1.589003E-01	9.700287E-04
6.081174E+03	1.582295E-01	9.645963E-04
6.091095E+03	1.576010E-01	9.594616E-04
6.101015E+03	1.570151E-01	9.546263E-04
6.110935E+03	1.564760E-01	9.501145E-04
6.120856E+03	1.559894E-01	9.459604E-04
6.130776E+03	1.555564E-01	9.421697E-04
6.140696E+03	1.551883E-01	9.388100E-04
6.150617E+03	1.548830E-01	9.358680E-04
6.160537E+03	1.546442E-01	9.333657E-04
6.170457E+03	1.544754E-01	9.313227E-04
6.180378E+03	1.543751E-01	9.297291E-04
6.190298E+03	1.543429E-01	9.285832E-04
6.200218E+03	1.543784E-01	9.278810E-04
6.210139E+03	1.544760E-01	9.275892E-04
6.220059E+03	1.546337E-01	9.276951E-04
6.229979E+03	1.548490E-01	9.281848E-04
6.239900E+03	1.551190E-01	9.290401E-04
6.249820E+03	1.554336E-01	9.302018E-04
6.259741E+03	1.557934E-01	9.316735E-04
6.269661E+03	1.561896E-01	9.334038E-04
6.279581E+03	1.566156E-01	9.353536E-04
6.289502E+03	1.570689E-01	9.375092E-04
6.299422E+03	1.575403E-01	9.398167E-04
6.309342E+03	1.580251E-01	9.422497E-04
6.319263E+03	1.585164E-01	9.447686E-04
6.329183E+03	1.590118E-01	9.473601E-04
6.339103E+03	1.595051E-01	9.499889E-04
6.349024E+03	1.599948E-01	9.526477E-04
6.358944E+03	1.604751E-01	9.553035E-04
6.368864E+03	1.609432E-01	9.579413E-04
6.378785E+03	1.613964E-01	9.605466E-04
6.388705E+03	1.618355E-01	9.631253E-04
6.398625E+03	1.622564E-01	9.656543E-04
6.408546E+03	1.626608E-01	9.681422E-04
6.418466E+03	1.630484E-01	9.705863E-04
6.428386E+03	1.634192E-01	9.729846E-04
6.438307E+03	1.637761E-01	9.753534E-04
6.448227E+03	1.641145E-01	9.776633E-04
6.458148E+03	1.644389E-01	9.799401E-04
6.468068E+03	1.647433E-01	9.821463E-04
6.477988E+03	1.650305E-01	9.842964E-04
6.487909E+03	1.652954E-01	9.863593E-04
6.497829E+03	1.655331E-01	9.883029E-04
6.507749E+03	1.657423E-01	9.901183E-04
6.517670E+03	1.659184E-01	9.917759E-04
6.527590E+03	1.660541E-01	9.932299E-04
6.537510E+03	1.661463E-01	9.944599E-04
6.547431E+03	1.661851E-01	9.954040E-04
6.557351E+03	1.661710E-01	9.960635E-04
6.567271E+03	1.660953E-01	9.963827E-04
6.577192E+03	1.659596E-01	9.963701E-04
6.587112E+03	1.657567E-01	9.959785E-04
6.597032E+03	1.654874E-01	9.952109E-04
6.606953E+03	1.651484E-01	9.940441E-04
6.616873E+03	1.647420E-01	9.924897E-04
6.626793E+03	1.642666E-01	9.905352E-04
6.636714E+03	1.637235E-01	9.881849E-04
6.646634E+03	1.631177E-01	9.854673E-04
6.656555E+03	1.624493E-01	9.823796E-04
6.666475E+03	1.617221E-01	9.789423E-04
6.676395E+03	1.609426E-01	9.751921E-04
6.686316E+03	1.601131E-01	9.711402E-04
6.696236E+03	1.592383E-01	9.668138E-04
6.706156E+03	1.583237E-01	9.622434E-04
6.716077E+03	1.573750E-01	9.574615E-04
6.725997E+03	1.564006E-01	9.525176E-04
6.735917E+03	1.554036E-01	9.474287E-04
6.745838E+03	1.543925E-01	9.422455E-04
6.755758E+03	1.533677E-01	9.369684E-04
6.765678E+03	1.523401E-01	9.316636E-04
6.775599E+03	1.513152E-01	9.263627E-04
6.785519E+03	1.502925E-01	9.210623E-04
6.795439E+03	1.492846E-01	9.158388E-04
6.805360E+03	1.482881E-01	9.106714E-04
6.815280E+03	1.473145E-01	9.056294E-04
6.825200E+03	1.463599E-01	9.006887E-04
6.835121E+03	1.454346E-01	8.959132E-04
6.845041E+03	1.445364E-01	8.912881E-04
6.854962E+03	1.436673E-01	8.868268E-04
6.864882E+03	1.428317E-01	8.825554E-04
6.874802E+03	1.420308E-01	8.784826E-04
6.884723E+03	1.412654E-01	8.746133E-04
6.894643E+03	1.405360E-01	8.709508E-04
6.904563E+03	1.398405E-01	8.674820E-04
6.914484E+03	1.391836E-01	8.642371E-04
6.924404E+03	1.385599E-01	8.611818E-04
6.934324E+03	1.379711E-01	8.583287E-04
6.944245E+03	1.374163E-01	8.556711E-04
6.954165E+03	1.368970E-01	8.532200E-04
6.964085E+03	1.364066E-01	8.509336E-04
6.974006E+03	1.359487E-01	8.488360E-04
6.983926E+03	1.355191E-01	8.469001E-04
6.993846E+03	1.351161E-01	8.451165E-04
7.003767E+03	1.347378E-01	8.434739E-04
7.013687E+03	1.343845E-01	8.419740E-04
7.023607E+03	1.340518E-01	8.405900E-04
7.033528E+03	1.337397E-01	8.393222E-04
7.043448E+03	1.334435E-01	8.381422E-04
7.053369E+03	1.331632E-01	8.370493E-04
7.063289E+03	1.328964E-01	8.360290E-04
7.073209E+03	1.326375E-01	8.350473E-04
7.083130E+03	1.323868E-01	8.341051E-04
7.093050E+03	1.321410E-01	8.331831E-04
7.102970E+03	1.318971E-01	8.322628E-04
7.112891E+03	1.316551E-01	8.313437E-04
7.122811E+03	1.314062E-01	8.303711E-04
7.132731E+03	1.311499E-01	8.293421E-04
7.142652E+03	1.308857E-01	8.282539E-04
7.152572E+03	1.306079E-01	8.270699E-04
7.162492E+03	1.303129E-01	8.257692E-04
7.172413E+03	1.300007E-01	8.243506E-04
7.182333E+03	1.296651E-01	8.227763E-04
7.192253E+03	1.293063E-01	8.210468E-04
7.202174E+03	1.289188E-01	8.191280E-04
7.212094E+03	1.285029E-01	8.170218E-04
7.222014E+03	1.280565E-01	8.147152E-04
7.231935E+03	1.275777E-01	8.121972E-04
7.241855E+03	1.270627E-01	8.094422E-04
7.251775E+03	1.265157E-01	8.064791E-04
7.261696E+03	1.259311E-01	8.032713E-04
7.271616E+03	1.253116E-01	7.998370E-04
7.281537E+03	1.246580E-01	7.961810E-04
7.291457E+03	1.239714E-01	7.923118E-04
7.301377E+03	1.232539E-01	7.882418E-04
7.311298E+03	1.225079E-01	7.839876E-04
7.321218E+03	1.217364E-01	7.795691E-04
7.331138E+03	1.209459E-01	7.750279E-04
7.341059E+03	1.201353E-01	7.703574E-04
7.350979E+03	1.193146E-01	7.656229E-04
7.360899E+03	1.184890E-01	7.608587E-04
7.370820E+03	1.176643E-01	7.561019E-04
7.380740E+03	1.168438E-01	7.513746E-04
7.390660E+03	1.160336E-01	7.467181E-04
7.400581E+03	1.152404E-01	7.421751E-04
7.410501E+03	1.144707E-01	7.377892E-04
7.420421E+03	1.137311E-01	7.336041E-04
7.430342E+03	1.130281E-01	7.296635E-04
7.440262E+03	1.123683E-01	7.260103E-04
7.450182E+03	1.117577E-01	7.226862E-04
7.460103E+03	1.111997E-01	7.197140E-04
7.470023E+03	1.107051E-01	7.171653E-04
7.479944E+03	1.102736E-01	7.150413E-04
7.489864E+03	1.099126E-01	7.133907E-04
7.499784E+03	1.096260E-01	7.122418E-04
7.509705E+03	1.094197E-01	7.116364E-04
7.519625E+03	1.092915E-01	7.115608E-04
7.529545E+03	1.092457E-01	7.120480E-04
7.539466E+03	1.092864E-01	7.131267E-04
7.549386E+03	1.094088E-01	7.147683E-04
7.559306E+03	1.096177E-01	7.170087E-04
7.569227E+03	1.099067E-01	7.198083E-04
7.579147E+03	1.102789E-01	7.231917E-04
7.589067E+03	1.107285E-01	7.271250E-04
7.598988E+03	1.112516E-01	7.315853E-04
7.608908E+03	1.118429E-01	7.365432E-04
7.618828E+03	1.124937E-01	7.419439E-04
7.628749E+03	1.132053E-01	7.477999E-04
7.638669E+03	1.139609E-01	7.540052E-04
7.648589E+03	1.147542E-01	7.605207E-04
7.658510E+03	1.155778E-01	7.673010E-04
7.668430E+03	1.164144E-01	7.742354E-04
7.678351E+03	1.172577E-01	7.812836E-04
7.688271E+03	1.180943E-01	7.883601E-04
7.698191E+03	1.189040E-01	7.953321E-04
