#wls	flux	fluxerr
1.587256E+03	7.032186E-03	3.625691E-04
1.626937E+03	7.112416E-03	3.658050E-04
1.666619E+03	7.194688E-03	3.691047E-04
1.706300E+03	7.280026E-03	3.725188E-04
1.745982E+03	7.370593E-03	3.761555E-04
1.785663E+03	7.465157E-03	3.799487E-04
1.825344E+03	7.565880E-03	3.840054E-04
1.865026E+03	7.672643E-03	3.883155E-04
1.904707E+03	7.786450E-03	3.929259E-04
1.944389E+03	7.908301E-03	3.978822E-04
1.984070E+03	8.040337E-03	4.032867E-04
2.023751E+03	8.183528E-03	4.091815E-04
2.063433E+03	8.339976E-03	4.156644E-04
2.103114E+03	8.511759E-03	4.228303E-04
2.142795E+03	8.699739E-03	4.307122E-04
2.182477E+03	8.904713E-03	4.393388E-04
2.222158E+03	9.127405E-03	4.487348E-04
2.261840E+03	9.369637E-03	4.589773E-04
2.301521E+03	9.630776E-03	4.700221E-04
2.341202E+03	9.911264E-03	4.818772E-04
2.380884E+03	1.021025E-02	4.944871E-04
2.420565E+03	1.052676E-02	5.077911E-04
2.460247E+03	1.086089E-02	5.217792E-04
2.499928E+03	1.121259E-02	5.364347E-04
2.539609E+03	1.157817E-02	5.515676E-04
2.579291E+03	1.195853E-02	5.672069E-04
2.618972E+03	1.235209E-02	5.832646E-04
2.658654E+03	1.275717E-02	5.996484E-04
2.698335E+03	1.317546E-02	6.164244E-04
2.738016E+03	1.360279E-02	6.333853E-04
2.777698E+03	1.404060E-02	6.505858E-04
2.817379E+03	1.448575E-02	6.678698E-04
2.857061E+03	1.493512E-02	6.850822E-04
2.896742E+03	1.538668E-02	7.021230E-04
2.936423E+03	1.583953E-02	7.189438E-04
2.976105E+03	1.629370E-02	7.355401E-04
2.986025E+03	1.640735E-02	7.396488E-04
2.995946E+03	1.652116E-02	7.437464E-04
3.005866E+03	1.663618E-02	7.478798E-04
3.015786E+03	1.675128E-02	7.519987E-04
3.025707E+03	1.686645E-02	7.561017E-04
3.035627E+03	1.698163E-02	7.601866E-04
3.045547E+03	1.709785E-02	7.642988E-04
3.055468E+03	1.721502E-02	7.684347E-04
3.065388E+03	1.733209E-02	7.725466E-04
3.075308E+03	1.745003E-02	7.766780E-04
3.085229E+03	1.756878E-02	7.808260E-04
3.095149E+03	1.768831E-02	7.849886E-04
3.105069E+03	1.780857E-02	7.891635E-04
3.114990E+03	1.793047E-02	7.933912E-04
3.124910E+03	1.805297E-02	7.976251E-04
3.134830E+03	1.817601E-02	8.018619E-04
3.144751E+03	1.830054E-02	8.061435E-04
3.154671E+03	1.842645E-02	8.104651E-04
3.164591E+03	1.855467E-02	8.148670E-04
3.174512E+03	1.868318E-02	8.192596E-04
3.184432E+03	1.881383E-02	8.237241E-04
3.194353E+03	1.894558E-02	8.282147E-04
3.204273E+03	1.907931E-02	8.327694E-04
3.214193E+03	1.921493E-02	8.373837E-04
3.224114E+03	1.935237E-02	8.420535E-04
3.234034E+03	1.949244E-02	8.468147E-04
3.243954E+03	1.963412E-02	8.516218E-04
3.253875E+03	1.977824E-02	8.565100E-04
3.263795E+03	1.992470E-02	8.614751E-04
3.273715E+03	2.007431E-02	8.665508E-04
3.283636E+03	2.022602E-02	8.716915E-04
3.293556E+03	2.038064E-02	8.769315E-04
3.303476E+03	2.053803E-02	8.822643E-04
3.313397E+03	2.069901E-02	8.877235E-04
3.323317E+03	2.086247E-02	8.932618E-04
3.333237E+03	2.103014E-02	8.989517E-04
3.343158E+03	2.120094E-02	9.047466E-04
3.353078E+03	2.137563E-02	9.106775E-04
3.362998E+03	2.155403E-02	9.167369E-04
3.372919E+03	2.173688E-02	9.229544E-04
3.382839E+03	2.192403E-02	9.293229E-04
3.392760E+03	2.211529E-02	9.358329E-04
3.402680E+03	2.231136E-02	9.425135E-04
3.412600E+03	2.251290E-02	9.493916E-04
3.422521E+03	2.271891E-02	9.564230E-04
3.432441E+03	2.293086E-02	9.636689E-04
3.442361E+03	2.314773E-02	9.710846E-04
3.452282E+03	2.337098E-02	9.787308E-04
3.462202E+03	2.360122E-02	9.866309E-04
3.472122E+03	2.383657E-02	9.947049E-04
3.482043E+03	2.407925E-02	1.003044E-03
3.491963E+03	2.432820E-02	1.011603E-03
3.501883E+03	2.458397E-02	1.020401E-03
3.511804E+03	2.484545E-02	1.029393E-03
3.521724E+03	2.511397E-02	1.038631E-03
3.531644E+03	2.538681E-02	1.048002E-03
3.541565E+03	2.566368E-02	1.057492E-03
3.551485E+03	2.594509E-02	1.067122E-03
3.561405E+03	2.622844E-02	1.076783E-03
3.571326E+03	2.651442E-02	1.086502E-03
3.581246E+03	2.680158E-02	1.096221E-03
3.591167E+03	2.709091E-02	1.105979E-03
3.601087E+03	2.738124E-02	1.115727E-03
3.611007E+03	2.767218E-02	1.125450E-03
3.620928E+03	2.796418E-02	1.135165E-03
3.630848E+03	2.825761E-02	1.144888E-03
3.640768E+03	2.855140E-02	1.154573E-03
3.650689E+03	2.884596E-02	1.164237E-03
3.660609E+03	2.914097E-02	1.173868E-03
3.670529E+03	2.943683E-02	1.183481E-03
3.680450E+03	2.973318E-02	1.193060E-03
3.690370E+03	3.003043E-02	1.202623E-03
3.700290E+03	3.032889E-02	1.212181E-03
3.710211E+03	3.062753E-02	1.221693E-03
3.720131E+03	3.092667E-02	1.231170E-03
3.730051E+03	3.122663E-02	1.240626E-03
3.739972E+03	3.152835E-02	1.250097E-03
3.749892E+03	3.183003E-02	1.259512E-03
3.759812E+03	3.213260E-02	1.268906E-03
3.769733E+03	3.243560E-02	1.278262E-03
3.779653E+03	3.273985E-02	1.287612E-03
3.789574E+03	3.304420E-02	1.296909E-03
3.799494E+03	3.334942E-02	1.306184E-03
3.809414E+03	3.365495E-02	1.315414E-03
3.811908E+03	2.253641E-02	8.803814E-04
3.814743E+03	2.316360E-02	9.043429E-04
3.817579E+03	2.394896E-02	9.344463E-04
3.820414E+03	2.419091E-02	9.433226E-04
3.823250E+03	2.520707E-02	9.823589E-04
3.826085E+03	2.565220E-02	9.991069E-04
3.828921E+03	2.622460E-02	1.020788E-03
3.831756E+03	2.649973E-02	1.030877E-03
3.834592E+03	2.715387E-02	1.055688E-03
3.837427E+03	2.713487E-02	1.054314E-03
3.840263E+03	2.752361E-02	1.068772E-03
3.843098E+03	2.785978E-02	1.081173E-03
3.845933E+03	2.797509E-02	1.084990E-03
3.848769E+03	2.848343E-02	1.104036E-03
3.851604E+03	2.898436E-02	1.122771E-03
3.854440E+03	2.899979E-02	1.122686E-03
3.857275E+03	2.962037E-02	1.146013E-03
3.860110E+03	2.960690E-02	1.144794E-03
3.862945E+03	2.988972E-02	1.155025E-03
3.865782E+03	2.978083E-02	1.150113E-03
3.868617E+03	3.078292E-02	1.188086E-03
3.871452E+03	3.096996E-02	1.194573E-03
3.874287E+03	3.079631E-02	1.187146E-03
3.877124E+03	3.120753E-02	1.202259E-03
3.879959E+03	3.138303E-02	1.208276E-03
3.882794E+03	3.188093E-02	1.226690E-03
3.885629E+03	3.258329E-02	1.252942E-03
3.888465E+03	3.285043E-02	1.262434E-03
3.891301E+03	3.343765E-02	1.284206E-03
3.894136E+03	3.380773E-02	1.297615E-03
3.896971E+03	3.444352E-02	1.321198E-03
3.899806E+03	3.462608E-02	1.327376E-03
3.902642E+03	3.531146E-02	1.352808E-03
3.905478E+03	3.585752E-02	1.372873E-03
3.908313E+03	3.571568E-02	1.366590E-03
3.911148E+03	3.549624E-02	1.357345E-03
3.913984E+03	3.615825E-02	1.381795E-03
3.916819E+03	3.645031E-02	1.392085E-03
3.919655E+03	3.674018E-02	1.402275E-03
3.922490E+03	3.687476E-02	1.406528E-03
3.925326E+03	3.680518E-02	1.402992E-03
3.928161E+03	3.685089E-02	1.403850E-03
3.930997E+03	3.701588E-02	1.409247E-03
3.933832E+03	3.772934E-02	1.435503E-03
3.936667E+03	3.809890E-02	1.448647E-03
3.939503E+03	3.857936E-02	1.465988E-03
3.942338E+03	3.954969E-02	1.501907E-03
3.945173E+03	4.046453E-02	1.535674E-03
3.948009E+03	4.102245E-02	1.555857E-03
3.950845E+03	4.133265E-02	1.566625E-03
3.953680E+03	4.205905E-02	1.593142E-03
3.956515E+03	4.277897E-02	1.619378E-03
3.959351E+03	4.351480E-02	1.646180E-03
3.962187E+03	4.424414E-02	1.672700E-03
3.965022E+03	4.428153E-02	1.673041E-03
3.967857E+03	4.420498E-02	1.669078E-03
3.970692E+03	4.446593E-02	1.677853E-03
3.973529E+03	4.469625E-02	1.685458E-03
3.976364E+03	4.480042E-02	1.688298E-03
3.979199E+03	4.495124E-02	1.692890E-03
3.982034E+03	4.529086E-02	1.704578E-03
3.984869E+03	4.539066E-02	1.707230E-03
3.987706E+03	4.593398E-02	1.726546E-03
3.990541E+03	4.605990E-02	1.730157E-03
3.993376E+03	4.670014E-02	1.753067E-03
3.996211E+03	4.698905E-02	1.762766E-03
3.999047E+03	4.730314E-02	1.773393E-03
4.001883E+03	4.740008E-02	1.775869E-03
4.004718E+03	4.772601E-02	1.786913E-03
4.007553E+03	4.799602E-02	1.795848E-03
4.010389E+03	4.805310E-02	1.796806E-03
4.013225E+03	4.752365E-02	1.775844E-03
4.016060E+03	4.740151E-02	1.770118E-03
4.018895E+03	4.705263E-02	1.755935E-03
4.021731E+03	4.728888E-02	1.763590E-03
4.024566E+03	4.733375E-02	1.764100E-03
4.027402E+03	4.720859E-02	1.758274E-03
4.030237E+03	4.703189E-02	1.750536E-03
4.033072E+03	4.704736E-02	1.749953E-03
4.035908E+03	4.670190E-02	1.735953E-03
4.038743E+03	4.614840E-02	1.714240E-03
4.041579E+03	4.571840E-02	1.697139E-03
4.044414E+03	4.497445E-02	1.668412E-03
4.047250E+03	4.442574E-02	1.646959E-03
4.050085E+03	4.388535E-02	1.625840E-03
4.052920E+03	4.291019E-02	1.588652E-03
4.055756E+03	4.215750E-02	1.559741E-03
4.058592E+03	4.165635E-02	1.540167E-03
4.061427E+03	4.112516E-02	1.519508E-03
4.064262E+03	4.058818E-02	1.498660E-03
4.067097E+03	4.034778E-02	1.488783E-03
4.069934E+03	3.970037E-02	1.463907E-03
4.072769E+03	3.933939E-02	1.449618E-03
4.075604E+03	3.897251E-02	1.435130E-03
4.078439E+03	3.864305E-02	1.422036E-03
4.081274E+03	3.858152E-02	1.418811E-03
4.084111E+03	3.828449E-02	1.406933E-03
4.086946E+03	3.754386E-02	1.378780E-03
4.089781E+03	3.762038E-02	1.380651E-03
4.092616E+03	3.734387E-02	1.369571E-03
4.095452E+03	3.704435E-02	1.357660E-03
4.098288E+03	3.681430E-02	1.348308E-03
4.101123E+03	3.628893E-02	1.328158E-03
4.103958E+03	3.581505E-02	1.309918E-03
4.106794E+03	3.503108E-02	1.280367E-03
4.109630E+03	3.465713E-02	1.265830E-03
4.112465E+03	3.477720E-02	1.269343E-03
4.115300E+03	3.441349E-02	1.255205E-03
4.118135E+03	3.446529E-02	1.256228E-03
4.120971E+03	3.371269E-02	1.227949E-03
4.123807E+03	3.338960E-02	1.215341E-03
4.126642E+03	3.303661E-02	1.201661E-03
4.129477E+03	3.274189E-02	1.190117E-03
4.132313E+03	3.279392E-02	1.191182E-03
4.135148E+03	3.222597E-02	1.169740E-03
4.137984E+03	3.190060E-02	1.157124E-03
4.140819E+03	3.187768E-02	1.155488E-03
4.143655E+03	3.113025E-02	1.127610E-03
4.146490E+03	3.091342E-02	1.118974E-03
4.149325E+03	3.093672E-02	1.119035E-03
4.152161E+03	3.084900E-02	1.115081E-03
4.154997E+03	3.100219E-02	1.119834E-03
4.157832E+03	3.098740E-02	1.118514E-03
4.160667E+03	3.133523E-02	1.130275E-03
4.163502E+03	3.093080E-02	1.114902E-03
4.166338E+03	3.089199E-02	1.112719E-03
4.169174E+03	3.100790E-02	1.116106E-03
4.172009E+03	3.108678E-02	1.118156E-03
4.174844E+03	3.095311E-02	1.112561E-03
4.177679E+03	3.117154E-02	1.119619E-03
4.180516E+03	3.171582E-02	1.138360E-03
4.183351E+03	3.205842E-02	1.149841E-03
4.186186E+03	3.235496E-02	1.159652E-03
4.189021E+03	3.268318E-02	1.170583E-03
4.191858E+03	3.303309E-02	1.182271E-03
4.194693E+03	3.314184E-02	1.185317E-03
4.197528E+03	3.371328E-02	1.204894E-03
4.200363E+03	3.386848E-02	1.209575E-03
4.203199E+03	3.414589E-02	1.218609E-03
4.206035E+03	3.430776E-02	1.223507E-03
4.208870E+03	3.445658E-02	1.227932E-03
4.211705E+03	3.498489E-02	1.245863E-03
4.214540E+03	3.545027E-02	1.261527E-03
4.217376E+03	3.601763E-02	1.280793E-03
4.220212E+03	3.658761E-02	1.300122E-03
4.223047E+03	3.724354E-02	1.322474E-03
4.225882E+03	3.766885E-02	1.336609E-03
4.228718E+03	3.790937E-02	1.344168E-03
4.231553E+03	3.867726E-02	1.370401E-03
4.234389E+03	3.887561E-02	1.376428E-03
4.237224E+03	3.889641E-02	1.376163E-03
4.240060E+03	3.926195E-02	1.388084E-03
4.242895E+03	3.932216E-02	1.389199E-03
4.245730E+03	3.931398E-02	1.387896E-03
4.248566E+03	3.928004E-02	1.385683E-03
4.251401E+03	3.891163E-02	1.371682E-03
4.254237E+03	3.898064E-02	1.373107E-03
4.257072E+03	3.929481E-02	1.383159E-03
4.259907E+03	3.912335E-02	1.376111E-03
4.262743E+03	3.911701E-02	1.374876E-03
4.265579E+03	3.958189E-02	1.390190E-03
4.268414E+03	3.979657E-02	1.396699E-03
4.271249E+03	3.983631E-02	1.397062E-03
4.274084E+03	3.969439E-02	1.391055E-03
4.276921E+03	3.997975E-02	1.400017E-03
4.279756E+03	4.036749E-02	1.412547E-03
4.282591E+03	4.060702E-02	1.419874E-03
4.285426E+03	4.068864E-02	1.421671E-03
4.288263E+03	4.095544E-02	1.429928E-03
4.291098E+03	4.131363E-02	1.441359E-03
4.293933E+03	4.167451E-02	1.452865E-03
4.296768E+03	4.198786E-02	1.462696E-03
4.299603E+03	4.235413E-02	1.474352E-03
4.302440E+03	4.307822E-02	1.498434E-03
4.305275E+03	4.373197E-02	1.520034E-03
4.308110E+03	4.444032E-02	1.543495E-03
4.310945E+03	4.512161E-02	1.565979E-03
4.313781E+03	4.558134E-02	1.580744E-03
4.316617E+03	4.590321E-02	1.590707E-03
4.319452E+03	4.604709E-02	1.594489E-03
4.322287E+03	4.672973E-02	1.616904E-03
4.325123E+03	4.705958E-02	1.627086E-03
4.327958E+03	4.720868E-02	1.631005E-03
4.330794E+03	4.742234E-02	1.637145E-03
4.333629E+03	4.739763E-02	1.635049E-03
4.336465E+03	4.751006E-02	1.637682E-03
4.339300E+03	4.741958E-02	1.633320E-03
4.342135E+03	4.709703E-02	1.620974E-03
4.344971E+03	4.731504E-02	1.627235E-03
4.347806E+03	4.713846E-02	1.619924E-03
4.350642E+03	4.692478E-02	1.611347E-03
4.353477E+03	4.715030E-02	1.617852E-03
4.356312E+03	4.673625E-02	1.602416E-03
4.359148E+03	4.629605E-02	1.586104E-03
4.361984E+03	4.578578E-02	1.567417E-03
4.364819E+03	4.526994E-02	1.548565E-03
4.367654E+03	4.479444E-02	1.531119E-03
4.370490E+03	4.427921E-02	1.512341E-03
4.373326E+03	4.365307E-02	1.489804E-03
4.376161E+03	4.297271E-02	1.465451E-03
4.378996E+03	4.216018E-02	1.436629E-03
4.381831E+03	4.127023E-02	1.405214E-03
4.384668E+03	4.046365E-02	1.376681E-03
4.387503E+03	3.992835E-02	1.357414E-03
4.390338E+03	3.910035E-02	1.328231E-03
4.393173E+03	3.819114E-02	1.296336E-03
4.396008E+03	3.783609E-02	1.283283E-03
4.398845E+03	3.741220E-02	1.267915E-03
4.401680E+03	3.711691E-02	1.256924E-03
4.404515E+03	3.667018E-02	1.240825E-03
4.407350E+03	3.694649E-02	1.249196E-03
4.410186E+03	3.691667E-02	1.247208E-03
4.413022E+03	3.685382E-02	1.244107E-03
4.415857E+03	3.699962E-02	1.248047E-03
4.418692E+03	3.705117E-02	1.248803E-03
4.421528E+03	3.790265E-02	1.276495E-03
4.424363E+03	3.815636E-02	1.284026E-03
4.427199E+03	3.858716E-02	1.297497E-03
4.430034E+03	3.924038E-02	1.318419E-03
4.432869E+03	3.959194E-02	1.329178E-03
4.435705E+03	4.016293E-02	1.347278E-03
4.438540E+03	4.091438E-02	1.371397E-03
4.441376E+03	4.159752E-02	1.393187E-03
4.444211E+03	4.231589E-02	1.416120E-03
4.447047E+03	4.282684E-02	1.432078E-03
4.449882E+03	4.357600E-02	1.455967E-03
4.452717E+03	4.426467E-02	1.477797E-03
4.455553E+03	4.493250E-02	1.498894E-03
4.458389E+03	4.571365E-02	1.523732E-03
4.461224E+03	4.679514E-02	1.558531E-03
4.464059E+03	4.775329E-02	1.589168E-03
4.466895E+03	4.821424E-02	1.603219E-03
4.469731E+03	4.914308E-02	1.632792E-03
4.472566E+03	4.998638E-02	1.659474E-03
4.475401E+03	5.113903E-02	1.696373E-03
4.478236E+03	5.212134E-02	1.727563E-03
4.481072E+03	5.269492E-02	1.745163E-03
4.483908E+03	5.373154E-02	1.778056E-03
4.486743E+03	5.462309E-02	1.806095E-03
4.489578E+03	5.555138E-02	1.835300E-03
4.492413E+03	5.616765E-02	1.854155E-03
4.495250E+03	5.716171E-02	1.885436E-03
4.498085E+03	5.824228E-02	1.919516E-03
4.500920E+03	5.906480E-02	1.945039E-03
4.503755E+03	5.996813E-02	1.973176E-03
4.506592E+03	6.084194E-02	2.000293E-03
4.509427E+03	6.168815E-02	2.026456E-03
4.512262E+03	6.263997E-02	2.056039E-03
4.515097E+03	6.373268E-02	2.090192E-03
4.517933E+03	6.502261E-02	2.130747E-03
4.520768E+03	6.611146E-02	2.164649E-03
4.523604E+03	6.707216E-02	2.194299E-03
4.526439E+03	6.820508E-02	2.229526E-03
4.529274E+03	6.959028E-02	2.272931E-03
4.532110E+03	7.059981E-02	2.304001E-03
4.534945E+03	7.135158E-02	2.326611E-03
4.537781E+03	7.226876E-02	2.354568E-03
4.540616E+03	7.357631E-02	2.395183E-03
4.543452E+03	7.490086E-02	2.436280E-03
4.546287E+03	7.620328E-02	2.476586E-03
4.549123E+03	7.730253E-02	2.510222E-03
4.551958E+03	7.864658E-02	2.551741E-03
4.554794E+03	7.948191E-02	2.576695E-03
4.557629E+03	8.061820E-02	2.611352E-03
4.560464E+03	8.197611E-02	2.653118E-03
4.563300E+03	8.289820E-02	2.680716E-03
4.566135E+03	8.387743E-02	2.710111E-03
4.568971E+03	8.459729E-02	2.731078E-03
4.571806E+03	8.528324E-02	2.750911E-03
4.574641E+03	8.592199E-02	2.769186E-03
4.577477E+03	8.659714E-02	2.788595E-03
4.580313E+03	8.720429E-02	2.805781E-03
4.583148E+03	8.791420E-02	2.826236E-03
4.585983E+03	8.860447E-02	2.846020E-03
4.588819E+03	8.869905E-02	2.846647E-03
4.591655E+03	8.910504E-02	2.857256E-03
4.594490E+03	8.956078E-02	2.869435E-03
4.597325E+03	8.969525E-02	2.871304E-03
4.600160E+03	8.993924E-02	2.876667E-03
4.602996E+03	9.025196E-02	2.884213E-03
4.605832E+03	9.031104E-02	2.883641E-03
4.608667E+03	8.998169E-02	2.870674E-03
4.611502E+03	8.960817E-02	2.856315E-03
4.614337E+03	8.930377E-02	2.844178E-03
4.617173E+03	8.875518E-02	2.824286E-03
4.620009E+03	8.807022E-02	2.800086E-03
4.622844E+03	8.695024E-02	2.762105E-03
4.625679E+03	8.606860E-02	2.731748E-03
4.628515E+03	8.492955E-02	2.693276E-03
4.631351E+03	8.408607E-02	2.664229E-03
4.634186E+03	8.342581E-02	2.641029E-03
4.637021E+03	8.260237E-02	2.612702E-03
4.639857E+03	8.162065E-02	2.579418E-03
4.642692E+03	8.049966E-02	2.541789E-03
4.645528E+03	7.916164E-02	2.497372E-03
4.648363E+03	7.796931E-02	2.457622E-03
4.651199E+03	7.623637E-02	2.400910E-03
4.654034E+03	7.487452E-02	2.355969E-03
4.656869E+03	7.372104E-02	2.317653E-03
4.659705E+03	7.257692E-02	2.279693E-03
4.662540E+03	7.131008E-02	2.237944E-03
4.665376E+03	7.037674E-02	2.206721E-03
4.668211E+03	6.966135E-02	2.182376E-03
4.671047E+03	6.873504E-02	2.151468E-03
4.673882E+03	6.808914E-02	2.129380E-03
4.676718E+03	6.716890E-02	2.098754E-03
4.679553E+03	6.634472E-02	2.071177E-03
4.682388E+03	6.566973E-02	2.048299E-03
4.685224E+03	6.457794E-02	2.012467E-03
4.688060E+03	6.362238E-02	1.980937E-03
4.690895E+03	6.336255E-02	1.971102E-03
4.693730E+03	6.313086E-02	1.962155E-03
4.696565E+03	6.239047E-02	1.937424E-03
4.699401E+03	6.175036E-02	1.915844E-03
4.702237E+03	6.121320E-02	1.897489E-03
4.705072E+03	6.074439E-02	1.881281E-03
4.707907E+03	6.039131E-02	1.868679E-03
4.710742E+03	6.006639E-02	1.856967E-03
4.713579E+03	5.958092E-02	1.840312E-03
4.716414E+03	5.899736E-02	1.820657E-03
4.719249E+03	5.870492E-02	1.810010E-03
4.722084E+03	5.819735E-02	1.792751E-03
4.724920E+03	5.797222E-02	1.784213E-03
4.727756E+03	5.763041E-02	1.772098E-03
4.730591E+03	5.688474E-02	1.747594E-03
4.733426E+03	5.615267E-02	1.723549E-03
4.736262E+03	5.584811E-02	1.712654E-03
4.739097E+03	5.559378E-02	1.703314E-03
4.741933E+03	5.509259E-02	1.686431E-03
4.744768E+03	5.468522E-02	1.672445E-03
4.747603E+03	5.411181E-02	1.653408E-03
4.750439E+03	5.402206E-02	1.649166E-03
4.753275E+03	5.365162E-02	1.636368E-03
4.756110E+03	5.387407E-02	1.641657E-03
4.758945E+03	5.361465E-02	1.632263E-03
4.761781E+03	5.302345E-02	1.612791E-03
4.764616E+03	5.235348E-02	1.590958E-03
4.767452E+03	5.119486E-02	1.554326E-03
4.770287E+03	5.005662E-02	1.518376E-03
4.773123E+03	4.905472E-02	1.486620E-03
4.775958E+03	4.809694E-02	1.456256E-03
4.778793E+03	4.745453E-02	1.435485E-03
4.781628E+03	4.702776E-02	1.421266E-03
4.784465E+03	4.710481E-02	1.422282E-03
4.787300E+03	4.713951E-02	1.422016E-03
4.790135E+03	4.777257E-02	1.439782E-03
4.792970E+03	4.834260E-02	1.455614E-03
4.795806E+03	4.937147E-02	1.485216E-03
4.798642E+03	5.080534E-02	1.526933E-03
4.801477E+03	5.208024E-02	1.563797E-03
4.804312E+03	5.307826E-02	1.592283E-03
4.807147E+03	5.445054E-02	1.631929E-03
4.809984E+03	5.594221E-02	1.675073E-03
4.812819E+03	5.750921E-02	1.720387E-03
4.815654E+03	5.868990E-02	1.754067E-03
4.818489E+03	5.990870E-02	1.788819E-03
4.821325E+03	6.135819E-02	1.830384E-03
4.824161E+03	6.257990E-02	1.865078E-03
4.826996E+03	6.373014E-02	1.897576E-03
4.829831E+03	6.494761E-02	1.932009E-03
4.832667E+03	6.601712E-02	1.961976E-03
4.835502E+03	6.655909E-02	1.976219E-03
4.838338E+03	6.725704E-02	1.995058E-03
4.841173E+03	6.753205E-02	2.001324E-03
4.844008E+03	6.785130E-02	2.008884E-03
4.846844E+03	6.775654E-02	2.004180E-03
4.849680E+03	6.770817E-02	2.000850E-03
4.852515E+03	6.784051E-02	2.002859E-03
4.855350E+03	6.772031E-02	1.997411E-03
4.858186E+03	6.757659E-02	1.991276E-03
4.861021E+03	6.717992E-02	1.977702E-03
4.863856E+03	6.695490E-02	1.969198E-03
4.866692E+03	6.642836E-02	1.951847E-03
4.869528E+03	6.591948E-02	1.935043E-03
4.872363E+03	6.546534E-02	1.919874E-03
4.875198E+03	6.478364E-02	1.898062E-03
4.878033E+03	6.432950E-02	1.882949E-03
4.880869E+03	6.388480E-02	1.868136E-03
4.883705E+03	6.346848E-02	1.854177E-03
4.886540E+03	6.334867E-02	1.848896E-03
4.889375E+03	6.335526E-02	1.847307E-03
4.892211E+03	6.304340E-02	1.836439E-03
4.895047E+03	6.282917E-02	1.828431E-03
4.897882E+03	6.311700E-02	1.835031E-03
4.900717E+03	6.313430E-02	1.833757E-03
4.903552E+03	6.339369E-02	1.839507E-03
4.906389E+03	6.344313E-02	1.839154E-03
4.909224E+03	6.365344E-02	1.843458E-03
4.912059E+03	6.358576E-02	1.839707E-03
4.914894E+03	6.403107E-02	1.850787E-03
4.917730E+03	6.494911E-02	1.875493E-03
4.920566E+03	6.550000E-02	1.889554E-03
