#wls	flux	fluxerr
1.587256E+03	6.820261E-03	1.400675E-04
1.626937E+03	6.894263E-03	1.411390E-04
1.666619E+03	6.971428E-03	1.422550E-04
1.706300E+03	7.051681E-03	1.434126E-04
1.745982E+03	7.134928E-03	1.446089E-04
1.785663E+03	7.223320E-03	1.458861E-04
1.825344E+03	7.315630E-03	1.472178E-04
1.865026E+03	7.415153E-03	1.486686E-04
1.904707E+03	7.520637E-03	1.502112E-04
1.944389E+03	7.633088E-03	1.518635E-04
1.984070E+03	7.755814E-03	1.536889E-04
2.023751E+03	7.889819E-03	1.557038E-04
2.063433E+03	8.034920E-03	1.579010E-04
2.103114E+03	8.193220E-03	1.603180E-04
2.142795E+03	8.367971E-03	1.630138E-04
2.182477E+03	8.560046E-03	1.659999E-04
2.222158E+03	8.767915E-03	1.692411E-04
2.261840E+03	8.994659E-03	1.727910E-04
2.301521E+03	9.238594E-03	1.766107E-04
2.341202E+03	9.499114E-03	1.806824E-04
2.380884E+03	9.777875E-03	1.850311E-04
2.420565E+03	1.007173E-02	1.895906E-04
2.460247E+03	1.038098E-02	1.943599E-04
2.499928E+03	1.070463E-02	1.993143E-04
2.539609E+03	1.104161E-02	2.044274E-04
2.579291E+03	1.139076E-02	2.096717E-04
2.618972E+03	1.175201E-02	2.150398E-04
2.658654E+03	1.212518E-02	2.205225E-04
2.698335E+03	1.250774E-02	2.260676E-04
2.738016E+03	1.290054E-02	2.316852E-04
2.777698E+03	1.330319E-02	2.373626E-04
2.817379E+03	1.371414E-02	2.430665E-04
2.857061E+03	1.413068E-02	2.487442E-04
2.896742E+03	1.454908E-02	2.543258E-04
2.936423E+03	1.496999E-02	2.598200E-04
2.976105E+03	1.539078E-02	2.651783E-04
2.986025E+03	1.549654E-02	2.665064E-04
2.995946E+03	1.560291E-02	2.678364E-04
3.005866E+03	1.570877E-02	2.691490E-04
3.015786E+03	1.581519E-02	2.704626E-04
3.025707E+03	1.592211E-02	2.717761E-04
3.035627E+03	1.602846E-02	2.730710E-04
3.045547E+03	1.613631E-02	2.743827E-04
3.055468E+03	1.624352E-02	2.756747E-04
3.065388E+03	1.635216E-02	2.769821E-04
3.075308E+03	1.646010E-02	2.782685E-04
3.085229E+03	1.656938E-02	2.795687E-04
3.095149E+03	1.667996E-02	2.808817E-04
3.105069E+03	1.679077E-02	2.821893E-04
3.114990E+03	1.690176E-02	2.834906E-04
3.124910E+03	1.701391E-02	2.848023E-04
3.134830E+03	1.712718E-02	2.861231E-04
3.144751E+03	1.724152E-02	2.874523E-04
3.154671E+03	1.735685E-02	2.887883E-04
3.164591E+03	1.747314E-02	2.901306E-04
3.174512E+03	1.759032E-02	2.914778E-04
3.184432E+03	1.770933E-02	2.928455E-04
3.194353E+03	1.782912E-02	2.942160E-04
3.204273E+03	1.795158E-02	2.956203E-04
3.214193E+03	1.807467E-02	2.970248E-04
3.224114E+03	1.820030E-02	2.984604E-04
3.234034E+03	1.832639E-02	2.998930E-04
3.243954E+03	1.845582E-02	3.013696E-04
3.253875E+03	1.858653E-02	3.028561E-04
3.263795E+03	1.871942E-02	3.043669E-04
3.273715E+03	1.885437E-02	3.059001E-04
3.283636E+03	1.899223E-02	3.074690E-04
3.293556E+03	1.913197E-02	3.090566E-04
3.303476E+03	1.927440E-02	3.106759E-04
3.313397E+03	1.942035E-02	3.123397E-04
3.323317E+03	1.956874E-02	3.140307E-04
3.333237E+03	1.972042E-02	3.157616E-04
3.343158E+03	1.987520E-02	3.175295E-04
3.353078E+03	2.003388E-02	3.193467E-04
3.362998E+03	2.019633E-02	3.212104E-04
3.372919E+03	2.036236E-02	3.231174E-04
3.382839E+03	2.053272E-02	3.250792E-04
3.392760E+03	2.070724E-02	3.270925E-04
3.402680E+03	2.088663E-02	3.291681E-04
3.412600E+03	2.107071E-02	3.313024E-04
3.422521E+03	2.126016E-02	3.335058E-04
3.432441E+03	2.145562E-02	3.357875E-04
3.442361E+03	2.165687E-02	3.381436E-04
3.452282E+03	2.186454E-02	3.405830E-04
3.462202E+03	2.207835E-02	3.431009E-04
3.472122E+03	2.229976E-02	3.457188E-04
3.482043E+03	2.252843E-02	3.484310E-04
3.491963E+03	2.276491E-02	3.512449E-04
3.501883E+03	2.300881E-02	3.541537E-04
3.511804E+03	2.326059E-02	3.571638E-04
3.521724E+03	2.351903E-02	3.602551E-04
3.531644E+03	2.378450E-02	3.634329E-04
3.541565E+03	2.405489E-02	3.666640E-04
3.551485E+03	2.432972E-02	3.699407E-04
3.561405E+03	2.460769E-02	3.732427E-04
3.571326E+03	2.488915E-02	3.765749E-04
3.581246E+03	2.517179E-02	3.799019E-04
3.591167E+03	2.545753E-02	3.832525E-04
3.601087E+03	2.574431E-02	3.865955E-04
3.611007E+03	2.603325E-02	3.899474E-04
3.620928E+03	2.632312E-02	3.932898E-04
3.630848E+03	2.661428E-02	3.966275E-04
3.640768E+03	2.690630E-02	3.999542E-04
3.650689E+03	2.720030E-02	4.032863E-04
3.660609E+03	2.749435E-02	4.065948E-04
3.670529E+03	2.778955E-02	4.098960E-04
3.680450E+03	2.808551E-02	4.131839E-04
3.690370E+03	2.838182E-02	4.164524E-04
3.700290E+03	2.867881E-02	4.197061E-04
3.710211E+03	2.897681E-02	4.229497E-04
3.720131E+03	2.927542E-02	4.261773E-04
3.730051E+03	2.957418E-02	4.293820E-04
3.739972E+03	2.987340E-02	4.325681E-04
3.749892E+03	3.017405E-02	4.357497E-04
3.759812E+03	3.047424E-02	4.388991E-04
3.769733E+03	3.077490E-02	4.420299E-04
3.779653E+03	3.107623E-02	4.451447E-04
3.789574E+03	3.137771E-02	4.482360E-04
3.799494E+03	3.167949E-02	4.513056E-04
3.809414E+03	3.198100E-02	4.543456E-04
3.819335E+03	3.228237E-02	4.573577E-04
3.829255E+03	3.258298E-02	4.603332E-04
3.839175E+03	3.288359E-02	4.632825E-04
3.849096E+03	3.318283E-02	4.661867E-04
3.859016E+03	3.348134E-02	4.690547E-04
3.868936E+03	3.377838E-02	4.718760E-04
3.878857E+03	3.407382E-02	4.746492E-04
3.888777E+03	3.436686E-02	4.773632E-04
3.898697E+03	3.465733E-02	4.800159E-04
3.908618E+03	3.494443E-02	4.825964E-04
3.918538E+03	3.522861E-02	4.851115E-04
3.928458E+03	3.550845E-02	4.875417E-04
3.938379E+03	3.578509E-02	4.899034E-04
3.948299E+03	3.605654E-02	4.921694E-04
3.958219E+03	3.632343E-02	4.943492E-04
3.968140E+03	3.658520E-02	4.964356E-04
3.978060E+03	3.684205E-02	4.984319E-04
3.987981E+03	3.709433E-02	5.003433E-04
3.997901E+03	3.734248E-02	5.021763E-04
4.007821E+03	3.758590E-02	5.039234E-04
4.017742E+03	3.782597E-02	5.056034E-04
4.027662E+03	3.806299E-02	5.072209E-04
4.037582E+03	3.829808E-02	5.087912E-04
4.047503E+03	3.853190E-02	5.103230E-04
4.057423E+03	3.876647E-02	5.118433E-04
4.067343E+03	3.900215E-02	5.133566E-04
4.077264E+03	3.924117E-02	5.148921E-04
4.087184E+03	3.948470E-02	5.164646E-04
4.097104E+03	3.973386E-02	5.180884E-04
4.107025E+03	3.999103E-02	5.197935E-04
4.116945E+03	4.025791E-02	5.216010E-04
4.126865E+03	4.053498E-02	5.235159E-04
4.136786E+03	4.082380E-02	5.255570E-04
4.146706E+03	4.112643E-02	5.277494E-04
4.156626E+03	4.144364E-02	5.301011E-04
4.166547E+03	4.177667E-02	5.326261E-04
4.176467E+03	4.212655E-02	5.353358E-04
4.186387E+03	4.249358E-02	5.382314E-04
4.196308E+03	4.287896E-02	5.413264E-04
4.206228E+03	4.328319E-02	5.446246E-04
4.216149E+03	4.370590E-02	5.481189E-04
4.226069E+03	4.414714E-02	5.518079E-04
4.235989E+03	4.460731E-02	5.556942E-04
4.245910E+03	4.508662E-02	5.597780E-04
4.255830E+03	4.558381E-02	5.640413E-04
4.265750E+03	4.609791E-02	5.684701E-04
4.275671E+03	4.662948E-02	5.730689E-04
4.285591E+03	4.717566E-02	5.778008E-04
4.295511E+03	4.773628E-02	5.826618E-04
4.305432E+03	4.830886E-02	5.876201E-04
4.315352E+03	4.889183E-02	5.926550E-04
4.325272E+03	4.948193E-02	5.977260E-04
4.335193E+03	5.007753E-02	6.028128E-04
4.345113E+03	5.067479E-02	6.078684E-04
4.355033E+03	5.127171E-02	6.128690E-04
4.364954E+03	5.186903E-02	6.178235E-04
4.374874E+03	5.247011E-02	6.227720E-04
4.384794E+03	5.307847E-02	6.277555E-04
4.394715E+03	5.369802E-02	6.328195E-04
4.404635E+03	5.432980E-02	6.379746E-04
4.414556E+03	5.497559E-02	6.432408E-04
4.424476E+03	5.563662E-02	6.486302E-04
4.434396E+03	5.631331E-02	6.541464E-04
4.444317E+03	5.700384E-02	6.597660E-04
4.454237E+03	5.770674E-02	6.654704E-04
4.464157E+03	5.841893E-02	6.712224E-04
4.474078E+03	5.913634E-02	6.769745E-04
4.483998E+03	5.985555E-02	6.826868E-04
4.493918E+03	6.056883E-02	6.882712E-04
4.503839E+03	6.127208E-02	6.936820E-04
4.513759E+03	6.195712E-02	6.988281E-04
4.523679E+03	6.261822E-02	7.036475E-04
4.533600E+03	6.324728E-02	7.080524E-04
4.543520E+03	6.383688E-02	7.119641E-04
4.553440E+03	6.437975E-02	7.153067E-04
4.563361E+03	6.486976E-02	7.180184E-04
4.573281E+03	6.530075E-02	7.200379E-04
4.583201E+03	6.566668E-02	7.213061E-04
4.593122E+03	6.596489E-02	7.218023E-04
4.603042E+03	6.619184E-02	7.214965E-04
4.612963E+03	6.634619E-02	7.203829E-04
4.622883E+03	6.642874E-02	7.184797E-04
4.632803E+03	6.644110E-02	7.158131E-04
4.642724E+03	6.638764E-02	7.124390E-04
4.652644E+03	6.627158E-02	7.084002E-04
4.662564E+03	6.609924E-02	7.037718E-04
4.672485E+03	6.587682E-02	6.986268E-04
4.682405E+03	6.561086E-02	6.930408E-04
4.692325E+03	6.530951E-02	6.871049E-04
4.702246E+03	6.497864E-02	6.808854E-04
4.712166E+03	6.462751E-02	6.744824E-04
4.722086E+03	6.426140E-02	6.679538E-04
4.732007E+03	6.388799E-02	6.613807E-04
4.741927E+03	6.351155E-02	6.548086E-04
4.751847E+03	6.313854E-02	6.483038E-04
4.761768E+03	6.277203E-02	6.418978E-04
4.771688E+03	6.241574E-02	6.356276E-04
4.781608E+03	6.207144E-02	6.295098E-04
4.791529E+03	6.174146E-02	6.235668E-04
4.801449E+03	6.142625E-02	6.178014E-04
4.811370E+03	6.112690E-02	6.122227E-04
4.821290E+03	6.084272E-02	6.068220E-04
4.831210E+03	6.057332E-02	6.015937E-04
4.841131E+03	6.031872E-02	5.965362E-04
4.851051E+03	6.007688E-02	5.916277E-04
4.860971E+03	5.984815E-02	5.868704E-04
4.870892E+03	5.963036E-02	5.822414E-04
4.880812E+03	5.942375E-02	5.777420E-04
4.890732E+03	5.922727E-02	5.733608E-04
4.900653E+03	5.903866E-02	5.690749E-04
4.910573E+03	5.885754E-02	5.648800E-04
4.920493E+03	5.868363E-02	5.607724E-04
4.930414E+03	5.851625E-02	5.567454E-04
4.940334E+03	5.835399E-02	5.527847E-04
4.950254E+03	5.819918E-02	5.489120E-04
4.960175E+03	5.805214E-02	5.451297E-04
4.970095E+03	5.791540E-02	5.414608E-04
4.980015E+03	5.779379E-02	5.379490E-04
4.989936E+03	5.769072E-02	5.346246E-04
4.999856E+03	5.761220E-02	5.315407E-04
5.009777E+03	5.756443E-02	5.287520E-04
5.019697E+03	5.755197E-02	5.262965E-04
5.029617E+03	5.758091E-02	5.242257E-04
5.039538E+03	5.765702E-02	5.225873E-04
5.049458E+03	5.778433E-02	5.214124E-04
5.059378E+03	5.796699E-02	5.207324E-04
5.069299E+03	5.820911E-02	5.205779E-04
5.079219E+03	5.851297E-02	5.209627E-04
5.089139E+03	5.888074E-02	5.218991E-04
5.099060E+03	5.931446E-02	5.233981E-04
5.108980E+03	5.981416E-02	5.254529E-04
5.118900E+03	6.038031E-02	5.280605E-04
5.128821E+03	6.101145E-02	5.312013E-04
5.138741E+03	6.170667E-02	5.348605E-04
5.148661E+03	6.246306E-02	5.390066E-04
5.158582E+03	6.327816E-02	5.436125E-04
5.168502E+03	6.414738E-02	5.486330E-04
5.178422E+03	6.506645E-02	5.540269E-04
5.188343E+03	6.602885E-02	5.597346E-04
5.198263E+03	6.702766E-02	5.656940E-04
5.208183E+03	6.805498E-02	5.718361E-04
5.218104E+03	6.910265E-02	5.780911E-04
5.228024E+03	7.016029E-02	5.843715E-04
5.237945E+03	7.121741E-02	5.905912E-04
5.247865E+03	7.226302E-02	5.966609E-04
5.257785E+03	7.328579E-02	6.024906E-04
5.267706E+03	7.427434E-02	6.079914E-04
5.277626E+03	7.521761E-02	6.130782E-04
5.287546E+03	7.610440E-02	6.176671E-04
5.297467E+03	7.692610E-02	6.216960E-04
5.307387E+03	7.767397E-02	6.251029E-04
5.317307E+03	7.834268E-02	6.278544E-04
5.327228E+03	7.892744E-02	6.299219E-04
5.337148E+03	7.942574E-02	6.312955E-04
5.347068E+03	7.984001E-02	6.320044E-04
5.356989E+03	8.017269E-02	6.320775E-04
5.366909E+03	8.042838E-02	6.315600E-04
5.376829E+03	8.061526E-02	6.305247E-04
5.386750E+03	8.074145E-02	6.290422E-04
5.396670E+03	8.081776E-02	6.272033E-04
5.406590E+03	8.085331E-02	6.250841E-04
5.416511E+03	8.086120E-02	6.227901E-04
5.426431E+03	8.085366E-02	6.204185E-04
5.436352E+03	8.084237E-02	6.180610E-04
5.446272E+03	8.084284E-02	6.158370E-04
5.456192E+03	8.085847E-02	6.137722E-04
5.466113E+03	8.086140E-02	6.116558E-04
5.476033E+03	8.081925E-02	6.092456E-04
5.485953E+03	8.070669E-02	6.063555E-04
5.495874E+03	8.050594E-02	6.028576E-04
5.505794E+03	8.020737E-02	5.986852E-04
5.515714E+03	7.980639E-02	5.938100E-04
5.525635E+03	7.930608E-02	5.882606E-04
5.535555E+03	7.871270E-02	5.820884E-04
5.545475E+03	7.803752E-02	5.753812E-04
5.555396E+03	7.729353E-02	5.682378E-04
5.565316E+03	7.649615E-02	5.607739E-04
5.575236E+03	7.565962E-02	5.530948E-04
5.585157E+03	7.480217E-02	5.453339E-04
5.595077E+03	7.394128E-02	5.376173E-04
5.604997E+03	7.309547E-02	5.300778E-04
5.614918E+03	7.228365E-02	5.228492E-04
5.624838E+03	7.152688E-02	5.160797E-04
5.634759E+03	7.084626E-02	5.099166E-04
5.644679E+03	7.026040E-02	5.044878E-04
5.654599E+03	6.978997E-02	4.999349E-04
5.664520E+03	6.945259E-02	4.963768E-04
5.674440E+03	6.926330E-02	4.939132E-04
5.684360E+03	6.923649E-02	4.926384E-04
5.694281E+03	6.938285E-02	4.926200E-04
5.704201E+03	6.971190E-02	4.939170E-04
5.714121E+03	7.023023E-02	4.965676E-04
5.724042E+03	7.093871E-02	5.005696E-04
5.733962E+03	7.183608E-02	5.059061E-04
5.743882E+03	7.291604E-02	5.125252E-04
5.753803E+03	7.416805E-02	5.203462E-04
5.763723E+03	7.557705E-02	5.292573E-04
5.773643E+03	7.712439E-02	5.391229E-04
5.783564E+03	7.878492E-02	5.497629E-04
5.793484E+03	8.053264E-02	5.609932E-04
5.803404E+03	8.233579E-02	5.725906E-04
5.813325E+03	8.416112E-02	5.843232E-04
5.823245E+03	8.597507E-02	5.959588E-04
5.833166E+03	8.774146E-02	6.072482E-04
5.843086E+03	8.942922E-02	6.179792E-04
5.853006E+03	9.100659E-02	6.279360E-04
5.862927E+03	9.244928E-02	6.369555E-04
5.872847E+03	9.373335E-02	6.448774E-04
5.882767E+03	9.484237E-02	6.515943E-04
5.892688E+03	9.576335E-02	6.570225E-04
5.902608E+03	9.648721E-02	6.611053E-04
5.912528E+03	9.700755E-02	6.638045E-04
5.922449E+03	9.732267E-02	6.651140E-04
5.932369E+03	9.743477E-02	6.650540E-04
5.942289E+03	9.735113E-02	6.636793E-04
5.952210E+03	9.707983E-02	6.610494E-04
5.962130E+03	9.663572E-02	6.572694E-04
5.972050E+03	9.603595E-02	6.524596E-04
5.981971E+03	9.529923E-02	6.467499E-04
5.991891E+03	9.444810E-02	6.402957E-04
6.001811E+03	9.350301E-02	6.332372E-04
6.011732E+03	9.248737E-02	6.257343E-04
6.021652E+03	9.142356E-02	6.179390E-04
6.031573E+03	9.032911E-02	6.099700E-04
6.041493E+03	8.922242E-02	6.019513E-04
6.051413E+03	8.811860E-02	5.939846E-04
6.061334E+03	8.703137E-02	5.861615E-04
6.071254E+03	8.597017E-02	5.785447E-04
6.081174E+03	8.494418E-02	5.711951E-04
6.091095E+03	8.395935E-02	5.641516E-04
6.101015E+03	8.302126E-02	5.574505E-04
6.110935E+03	8.213216E-02	5.511061E-04
6.120856E+03	8.129005E-02	5.451039E-04
6.130776E+03	8.049270E-02	5.394279E-04
6.140696E+03	7.973695E-02	5.340563E-04
6.150617E+03	7.901478E-02	5.289347E-04
6.160537E+03	7.832026E-02	5.240229E-04
6.170457E+03	7.764608E-02	5.192716E-04
6.180378E+03	7.698607E-02	5.146392E-04
6.190298E+03	7.633647E-02	5.101005E-04
6.200218E+03	7.569634E-02	5.056488E-04
6.210139E+03	7.506446E-02	5.012760E-04
6.220059E+03	7.444440E-02	4.970059E-04
6.229979E+03	7.384021E-02	4.928651E-04
6.239900E+03	7.325962E-02	4.889054E-04
6.249820E+03	7.271014E-02	4.851766E-04
6.259741E+03	7.220172E-02	4.817451E-04
6.269661E+03	7.174293E-02	4.786681E-04
6.279581E+03	7.134300E-02	4.760071E-04
6.289502E+03	7.101134E-02	4.738251E-04
6.299422E+03	7.075388E-02	4.721620E-04
6.309342E+03	7.057841E-02	4.710702E-04
6.319263E+03	7.048748E-02	4.705674E-04
6.329183E+03	7.048283E-02	4.706661E-04
6.339103E+03	7.056300E-02	4.713573E-04
6.349024E+03	7.072479E-02	4.726212E-04
6.358944E+03	7.096085E-02	4.744099E-04
6.368864E+03	7.126400E-02	4.766768E-04
6.378785E+03	7.162100E-02	4.793350E-04
6.388705E+03	7.202107E-02	4.823138E-04
6.398625E+03	7.244893E-02	4.855125E-04
6.408546E+03	7.289136E-02	4.888439E-04
6.418466E+03	7.333535E-02	4.922215E-04
6.428386E+03	7.376953E-02	4.955685E-04
6.438307E+03	7.418416E-02	4.988184E-04
6.448227E+03	7.457345E-02	5.019312E-04
6.458148E+03	7.493216E-02	5.048706E-04
6.468068E+03	7.525734E-02	5.076149E-04
6.477988E+03	7.554814E-02	5.101570E-04
6.487909E+03	7.580199E-02	5.124776E-04
6.497829E+03	7.601167E-02	5.145262E-04
6.507749E+03	7.617213E-02	5.162664E-04
6.517670E+03	7.627734E-02	5.176548E-04
6.527590E+03	7.632244E-02	5.186560E-04
6.537510E+03	7.630404E-02	5.192439E-04
6.547431E+03	7.622195E-02	5.194145E-04
6.557351E+03	7.607433E-02	5.191520E-04
6.567271E+03	7.586133E-02	5.184545E-04
6.577192E+03	7.558499E-02	5.173325E-04
6.587112E+03	7.524727E-02	5.157964E-04
6.597032E+03	7.485096E-02	5.138622E-04
6.606953E+03	7.440061E-02	5.115581E-04
6.616873E+03	7.389865E-02	5.088979E-04
6.626793E+03	7.335206E-02	5.059269E-04
6.636714E+03	7.276629E-02	5.026802E-04
6.646634E+03	7.214672E-02	4.991925E-04
6.656555E+03	7.149754E-02	4.954907E-04
6.666475E+03	7.082452E-02	4.916128E-04
6.676395E+03	7.013232E-02	4.875894E-04
6.686316E+03	6.942536E-02	4.834499E-04
6.696236E+03	6.870794E-02	4.792227E-04
6.706156E+03	6.798484E-02	4.749401E-04
6.716077E+03	6.725772E-02	4.706127E-04
6.725997E+03	6.653159E-02	4.662748E-04
6.735917E+03	6.580771E-02	4.619346E-04
6.745838E+03	6.509104E-02	4.576263E-04
6.755758E+03	6.438508E-02	4.533745E-04
6.765678E+03	6.369222E-02	4.491956E-04
6.775599E+03	6.301926E-02	4.451378E-04
6.785519E+03	6.237108E-02	4.412355E-04
6.795439E+03	6.175471E-02	4.375393E-04
6.805360E+03	6.117566E-02	4.340888E-04
6.815280E+03	6.064021E-02	4.309295E-04
6.825200E+03	6.015411E-02	4.281033E-04
6.835121E+03	5.972312E-02	4.256526E-04
6.845041E+03	5.935016E-02	4.235996E-04
6.854962E+03	5.903751E-02	4.219622E-04
6.864882E+03	5.878570E-02	4.207456E-04
6.874802E+03	5.859440E-02	4.199491E-04
6.884723E+03	5.845915E-02	4.195421E-04
6.894643E+03	5.837745E-02	4.195080E-04
6.904563E+03	5.834305E-02	4.198032E-04
6.914484E+03	5.834994E-02	4.203853E-04
6.924404E+03	5.839262E-02	4.212155E-04
6.934324E+03	5.846293E-02	4.222356E-04
6.944245E+03	5.855565E-02	4.234082E-04
6.954165E+03	5.866527E-02	4.246937E-04
6.964085E+03	5.878704E-02	4.260580E-04
6.974006E+03	5.891722E-02	4.274739E-04
6.983926E+03	5.905241E-02	4.289166E-04
6.993846E+03	5.919301E-02	4.303891E-04
7.003767E+03	5.933694E-02	4.318760E-04
7.013687E+03	5.948582E-02	4.333891E-04
7.023607E+03	5.964032E-02	4.349330E-04
7.033528E+03	5.980348E-02	4.365301E-04
7.043448E+03	5.997702E-02	4.381929E-04
7.053369E+03	6.016472E-02	4.399490E-04
7.063289E+03	6.036939E-02	4.418193E-04
7.073209E+03	6.059173E-02	4.438090E-04
7.083130E+03	6.083678E-02	4.459553E-04
7.093050E+03	6.110332E-02	4.482494E-04
7.102970E+03	6.139412E-02	4.507122E-04
7.112891E+03	6.170740E-02	4.533306E-04
7.122811E+03	6.204449E-02	4.561149E-04
7.132731E+03	6.240312E-02	4.590485E-04
7.142652E+03	6.278124E-02	4.621168E-04
7.152572E+03	6.317719E-02	4.653075E-04
7.162492E+03	6.358560E-02	4.685815E-04
7.172413E+03	6.400347E-02	4.719167E-04
7.182333E+03	6.442513E-02	4.752713E-04
7.192253E+03	6.484735E-02	4.786217E-04
7.202174E+03	6.526222E-02	4.819096E-04
7.212094E+03	6.566557E-02	4.851040E-04
7.222014E+03	6.604764E-02	4.881330E-04
7.231935E+03	6.640492E-02	4.909707E-04
7.241855E+03	6.672872E-02	4.935525E-04
7.251775E+03	6.701391E-02	4.958408E-04
7.261696E+03	6.725377E-02	4.977856E-04
7.271616E+03	6.744451E-02	4.993590E-04
7.281537E+03	6.758104E-02	5.005233E-04
7.291457E+03	6.766144E-02	5.012645E-04
7.301377E+03	6.768357E-02	5.015667E-04
7.311298E+03	6.764390E-02	5.014040E-04
7.321218E+03	6.754532E-02	5.007982E-04
7.331138E+03	6.738468E-02	4.997262E-04
7.341059E+03	6.716619E-02	4.982195E-04
7.350979E+03	6.688903E-02	4.962724E-04
7.360899E+03	6.655633E-02	4.939087E-04
7.370820E+03	6.616954E-02	4.911395E-04
7.380740E+03	6.573412E-02	4.880060E-04
7.390660E+03	6.525170E-02	4.845207E-04
7.400581E+03	6.472694E-02	4.807190E-04
7.410501E+03	6.416639E-02	4.766499E-04
7.420421E+03	6.357517E-02	4.723522E-04
7.430342E+03	6.296157E-02	4.678881E-04
7.440262E+03	6.233136E-02	4.633012E-04
7.450182E+03	6.169547E-02	4.586733E-04
7.460103E+03	6.106128E-02	4.540601E-04
7.470023E+03	6.044003E-02	4.495458E-04
7.479944E+03	5.984246E-02	4.452112E-04
7.489864E+03	5.927980E-02	4.411407E-04
7.499784E+03	5.876339E-02	4.374195E-04
7.509705E+03	5.830333E-02	4.341239E-04
7.519625E+03	5.791131E-02	4.313420E-04
7.529545E+03	5.759736E-02	4.291496E-04
7.539466E+03	5.737071E-02	4.276172E-04
7.549386E+03	5.723976E-02	4.268086E-04
7.559306E+03	5.721096E-02	4.267739E-04
7.569227E+03	5.729178E-02	4.275706E-04
7.579147E+03	5.748735E-02	4.292392E-04
7.589067E+03	5.779994E-02	4.317992E-04
7.598988E+03	5.823221E-02	4.352730E-04
7.608908E+03	5.877935E-02	4.396276E-04
7.618828E+03	5.943648E-02	4.448295E-04
7.628749E+03	6.019372E-02	4.508084E-04
7.638669E+03	6.104184E-02	4.574982E-04
7.648589E+03	6.196496E-02	4.647837E-04
7.658510E+03	6.294869E-02	4.725603E-04
7.668430E+03	6.397602E-02	4.807037E-04
7.678351E+03	6.502763E-02	4.890722E-04
7.688271E+03	6.608577E-02	4.975352E-04
7.698191E+03	6.713138E-02	5.059520E-04
