#wls	flux	fluxerr
1.587256E+03	5.678220E-03	4.463066E-04
1.626937E+03	5.738285E-03	4.507319E-04
1.666619E+03	5.800650E-03	4.553232E-04
1.706300E+03	5.865284E-03	4.600770E-04
1.745982E+03	5.930992E-03	4.648989E-04
1.785663E+03	6.000024E-03	4.699645E-04
1.825344E+03	6.071177E-03	4.751784E-04
1.865026E+03	6.145573E-03	4.806275E-04
1.904707E+03	6.221956E-03	4.862125E-04
1.944389E+03	6.301444E-03	4.920197E-04
1.984070E+03	6.385184E-03	4.981373E-04
2.023751E+03	6.471872E-03	5.044621E-04
2.063433E+03	6.561384E-03	5.109832E-04
2.103114E+03	6.654837E-03	5.177862E-04
2.142795E+03	6.753366E-03	5.249577E-04
2.182477E+03	6.854259E-03	5.322851E-04
2.222158E+03	6.961164E-03	5.400501E-04
2.261840E+03	7.069981E-03	5.479326E-04
2.301521E+03	7.184328E-03	5.562114E-04
2.341202E+03	7.302599E-03	5.647599E-04
2.380884E+03	7.424422E-03	5.735473E-04
2.420565E+03	7.550705E-03	5.826418E-04
2.460247E+03	7.680969E-03	5.920041E-04
2.499928E+03	7.814655E-03	6.015889E-04
2.539609E+03	7.952474E-03	6.114489E-04
2.579291E+03	8.093703E-03	6.215260E-04
2.618972E+03	8.238874E-03	6.318587E-04
2.658654E+03	8.385702E-03	6.422695E-04
2.698335E+03	8.537193E-03	6.529865E-04
2.738016E+03	8.690809E-03	6.638129E-04
2.777698E+03	8.847915E-03	6.748506E-04
2.817379E+03	9.007015E-03	6.859831E-04
2.857061E+03	9.170449E-03	6.973860E-04
2.896742E+03	9.336327E-03	7.089129E-04
2.936423E+03	9.505202E-03	7.206031E-04
2.976105E+03	9.678657E-03	7.325736E-04
2.986025E+03	9.722475E-03	7.355899E-04
2.995946E+03	9.766133E-03	7.385897E-04
3.005866E+03	9.810875E-03	7.416670E-04
3.015786E+03	9.855367E-03	7.447210E-04
3.025707E+03	9.899567E-03	7.477484E-04
3.035627E+03	9.944704E-03	7.508420E-04
3.045547E+03	9.990718E-03	7.539973E-04
3.055468E+03	1.003630E-02	7.571149E-04
3.065388E+03	1.008265E-02	7.602863E-04
3.075308E+03	1.012846E-02	7.634125E-04
3.085229E+03	1.017619E-02	7.666779E-04
3.095149E+03	1.022327E-02	7.698899E-04
3.105069E+03	1.027090E-02	7.731380E-04
3.114990E+03	1.031902E-02	7.764176E-04
3.124910E+03	1.036633E-02	7.796319E-04
3.134830E+03	1.041523E-02	7.829606E-04
3.144751E+03	1.046443E-02	7.863066E-04
3.154671E+03	1.051386E-02	7.896650E-04
3.164591E+03	1.056466E-02	7.931212E-04
3.174512E+03	1.061556E-02	7.965792E-04
3.184432E+03	1.066650E-02	8.000343E-04
3.194353E+03	1.071740E-02	8.034817E-04
3.204273E+03	1.076939E-02	8.070047E-04
3.214193E+03	1.082237E-02	8.105967E-04
3.224114E+03	1.087511E-02	8.141648E-04
3.234034E+03	1.092869E-02	8.177904E-04
3.243954E+03	1.098304E-02	8.214674E-04
3.253875E+03	1.103807E-02	8.251894E-04
3.263795E+03	1.109370E-02	8.289503E-04
3.273715E+03	1.114984E-02	8.327438E-04
3.283636E+03	1.120643E-02	8.365641E-04
3.293556E+03	1.126337E-02	8.404049E-04
3.303476E+03	1.132170E-02	8.443425E-04
3.313397E+03	1.138022E-02	8.482879E-04
3.323317E+03	1.143993E-02	8.523162E-04
3.333237E+03	1.150074E-02	8.564197E-04
3.343158E+03	1.156256E-02	8.605914E-04
3.353078E+03	1.162424E-02	8.647455E-04
3.362998E+03	1.168675E-02	8.689550E-04
3.372919E+03	1.175105E-02	8.732903E-04
3.382839E+03	1.181599E-02	8.776665E-04
3.392760E+03	1.188149E-02	8.820772E-04
3.402680E+03	1.194849E-02	8.865918E-04
3.412600E+03	1.201589E-02	8.911278E-04
3.422521E+03	1.208459E-02	8.957537E-04
3.432441E+03	1.215452E-02	9.004626E-04
3.442361E+03	1.222558E-02	9.052476E-04
3.452282E+03	1.229769E-02	9.101023E-04
3.462202E+03	1.237173E-02	9.150919E-04
3.472122E+03	1.244666E-02	9.201383E-04
3.482043E+03	1.252239E-02	9.252364E-04
3.491963E+03	1.259981E-02	9.304502E-04
3.501883E+03	1.267975E-02	9.358414E-04
3.511804E+03	1.276027E-02	9.412668E-04
3.521724E+03	1.284223E-02	9.467892E-04
3.531644E+03	1.292645E-02	9.524688E-04
3.541565E+03	1.301194E-02	9.582332E-04
3.551485E+03	1.309954E-02	9.641425E-04
3.561405E+03	1.318829E-02	9.701268E-04
3.571326E+03	1.327987E-02	9.763100E-04
3.581246E+03	1.337254E-02	9.825621E-04
3.591167E+03	1.346797E-02	9.890070E-04
3.601087E+03	1.356615E-02	9.956430E-04
3.611007E+03	1.366626E-02	1.002409E-03
3.620928E+03	1.376913E-02	1.009368E-03
3.630848E+03	1.387485E-02	1.016522E-03
3.640768E+03	1.398343E-02	1.023875E-03
3.650689E+03	1.409497E-02	1.031432E-03
3.660609E+03	1.421032E-02	1.039255E-03
3.670529E+03	1.432955E-02	1.047350E-03
3.680450E+03	1.445199E-02	1.055665E-03
3.690370E+03	1.457925E-02	1.064318E-03
3.700290E+03	1.470987E-02	1.073204E-03
3.710211E+03	1.484549E-02	1.082438E-03
3.720131E+03	1.498615E-02	1.092025E-03
3.730051E+03	1.513118E-02	1.101915E-03
3.739972E+03	1.528140E-02	1.112165E-03
3.749892E+03	1.543755E-02	1.122832E-03
3.759812E+03	1.559823E-02	1.133810E-03
3.769733E+03	1.576487E-02	1.145203E-03
3.779653E+03	1.593746E-02	1.157010E-03
3.789574E+03	1.611523E-02	1.169173E-03
3.799494E+03	1.629875E-02	1.181734E-03
3.809414E+03	1.648790E-02	1.194683E-03
3.819335E+03	1.668314E-02	1.208051E-03
3.829255E+03	1.688355E-02	1.221772E-03
3.839175E+03	1.708880E-02	1.235821E-03
3.849096E+03	1.729922E-02	1.250221E-03
3.859016E+03	1.751374E-02	1.264893E-03
3.868936E+03	1.773258E-02	1.279854E-03
3.878857E+03	1.795590E-02	1.295112E-03
3.888777E+03	1.818192E-02	1.310541E-03
3.898697E+03	1.841140E-02	1.326193E-03
3.908618E+03	1.864256E-02	1.341940E-03
3.918538E+03	1.887617E-02	1.357837E-03
3.928458E+03	1.911171E-02	1.373847E-03
3.938379E+03	1.934749E-02	1.389847E-03
3.948299E+03	1.958431E-02	1.405893E-03
3.958219E+03	1.982179E-02	1.421960E-03
3.968140E+03	2.005899E-02	1.437980E-03
3.978060E+03	2.029564E-02	1.453932E-03
3.987981E+03	2.053214E-02	1.469847E-03
3.997901E+03	2.076779E-02	1.485672E-03
4.007821E+03	2.100312E-02	1.501446E-03
4.017742E+03	2.123701E-02	1.517090E-03
4.027662E+03	2.147076E-02	1.532695E-03
4.037582E+03	2.170343E-02	1.548195E-03
4.047503E+03	2.193589E-02	1.563652E-03
4.057423E+03	2.216851E-02	1.579092E-03
4.067343E+03	2.240119E-02	1.594508E-03
4.077264E+03	2.263447E-02	1.609938E-03
4.087184E+03	2.286892E-02	1.625422E-03
4.097104E+03	2.310462E-02	1.640966E-03
4.107025E+03	2.334227E-02	1.656619E-03
4.116945E+03	2.358259E-02	1.672432E-03
4.126865E+03	2.382580E-02	1.688419E-03
4.136786E+03	2.407267E-02	1.704635E-03
4.146706E+03	2.432343E-02	1.721095E-03
4.156626E+03	2.457839E-02	1.737820E-03
4.166547E+03	2.483881E-02	1.754899E-03
4.176467E+03	2.510445E-02	1.772314E-03
4.186387E+03	2.537557E-02	1.790082E-03
4.196308E+03	2.565292E-02	1.808253E-03
4.206228E+03	2.593667E-02	1.826841E-03
4.216149E+03	2.622703E-02	1.845858E-03
4.226069E+03	2.652368E-02	1.865281E-03
4.235989E+03	2.682770E-02	1.885183E-03
4.245910E+03	2.713822E-02	1.905503E-03
4.255830E+03	2.745578E-02	1.926277E-03
4.265750E+03	2.777994E-02	1.947474E-03
4.275671E+03	2.811071E-02	1.969091E-03
4.285591E+03	2.844804E-02	1.991126E-03
4.295511E+03	2.879095E-02	2.013508E-03
4.305432E+03	2.914032E-02	2.036296E-03
4.315352E+03	2.949507E-02	2.059416E-03
4.325272E+03	2.985513E-02	2.082860E-03
4.335193E+03	3.021984E-02	2.106582E-03
4.345113E+03	3.058907E-02	2.130571E-03
4.355033E+03	3.096263E-02	2.154814E-03
4.364954E+03	3.134040E-02	2.179300E-03
4.374874E+03	3.172214E-02	2.204014E-03
4.384794E+03	3.210816E-02	2.228974E-03
4.394715E+03	3.249763E-02	2.254123E-03
4.404635E+03	3.289152E-02	2.279527E-03
4.414556E+03	3.328874E-02	2.305110E-03
4.424476E+03	3.368895E-02	2.330847E-03
4.434396E+03	3.409060E-02	2.356631E-03
4.444317E+03	3.449238E-02	2.382370E-03
4.454237E+03	3.489221E-02	2.407921E-03
4.464157E+03	3.528965E-02	2.433254E-03
4.474078E+03	3.568156E-02	2.458153E-03
4.483998E+03	3.606651E-02	2.482519E-03
4.493918E+03	3.644286E-02	2.506241E-03
4.503839E+03	3.680779E-02	2.529128E-03
4.513759E+03	3.715937E-02	2.551047E-03
4.523679E+03	3.749556E-02	2.571862E-03
4.533600E+03	3.781434E-02	2.591437E-03
4.543520E+03	3.811371E-02	2.609637E-03
4.553440E+03	3.839131E-02	2.626306E-03
4.563361E+03	3.864543E-02	2.641328E-03
4.573281E+03	3.887556E-02	2.654675E-03
4.583201E+03	3.907951E-02	2.666200E-03
4.593122E+03	3.925688E-02	2.675882E-03
4.603042E+03	3.940714E-02	2.683688E-03
4.612963E+03	3.953064E-02	2.689649E-03
4.622883E+03	3.962715E-02	2.693753E-03
4.632803E+03	3.969734E-02	2.696050E-03
4.642724E+03	3.974325E-02	2.696684E-03
4.652644E+03	3.976531E-02	2.695690E-03
4.662564E+03	3.976628E-02	2.693257E-03
4.672485E+03	3.974771E-02	2.689495E-03
4.682405E+03	3.971185E-02	2.684560E-03
4.692325E+03	3.966166E-02	2.678655E-03
4.702246E+03	3.959921E-02	2.671922E-03
4.712166E+03	3.952715E-02	2.664543E-03
4.722086E+03	3.944812E-02	2.656698E-03
4.732007E+03	3.936428E-02	2.648532E-03
4.741927E+03	3.927769E-02	2.640186E-03
4.751847E+03	3.919123E-02	2.631853E-03
4.761768E+03	3.910670E-02	2.623654E-03
4.771688E+03	3.902522E-02	2.615665E-03
4.781608E+03	3.894865E-02	2.608008E-03
4.791529E+03	3.887764E-02	2.600728E-03
4.801449E+03	3.881407E-02	2.593948E-03
4.811370E+03	3.875769E-02	2.587650E-03
4.821290E+03	3.870896E-02	2.581864E-03
4.831210E+03	3.866903E-02	2.576665E-03
4.841131E+03	3.863667E-02	2.571968E-03
4.851051E+03	3.861267E-02	2.567827E-03
4.860971E+03	3.859642E-02	2.564197E-03
4.870892E+03	3.858762E-02	2.561059E-03
4.880812E+03	3.858545E-02	2.558356E-03
4.890732E+03	3.858992E-02	2.556087E-03
4.900653E+03	3.860015E-02	2.554194E-03
4.910573E+03	3.861613E-02	2.552674E-03
4.920493E+03	3.863668E-02	2.551448E-03
4.930414E+03	3.866244E-02	2.550558E-03
4.940334E+03	3.869255E-02	2.549946E-03
4.950254E+03	3.872769E-02	2.549656E-03
4.960175E+03	3.876844E-02	2.549725E-03
4.970095E+03	3.881574E-02	2.550214E-03
4.980015E+03	3.886997E-02	2.551147E-03
4.989936E+03	3.893403E-02	2.552712E-03
4.999856E+03	3.900848E-02	2.554944E-03
5.009777E+03	3.909625E-02	2.558033E-03
5.019697E+03	3.919951E-02	2.562118E-03
5.029617E+03	3.931956E-02	2.567281E-03
5.039538E+03	3.945933E-02	2.573709E-03
5.049458E+03	3.962031E-02	2.581497E-03
5.059378E+03	3.980458E-02	2.590773E-03
5.069299E+03	4.001262E-02	2.601565E-03
5.079219E+03	4.024628E-02	2.613990E-03
5.089139E+03	4.050574E-02	2.628052E-03
5.099060E+03	4.079170E-02	2.643791E-03
5.108980E+03	4.110310E-02	2.661135E-03
5.118900E+03	4.144030E-02	2.680101E-03
5.128821E+03	4.180198E-02	2.700598E-03
5.138741E+03	4.218690E-02	2.722541E-03
5.148661E+03	4.259392E-02	2.745852E-03
5.158582E+03	4.302067E-02	2.770374E-03
5.168502E+03	4.346490E-02	2.795959E-03
5.178422E+03	4.392452E-02	2.822467E-03
5.188343E+03	4.439617E-02	2.849681E-03
5.198263E+03	4.487666E-02	2.877392E-03
5.208183E+03	4.536248E-02	2.905376E-03
5.218104E+03	4.585037E-02	2.933422E-03
5.228024E+03	4.633586E-02	2.961244E-03
5.237945E+03	4.681526E-02	2.988607E-03
5.247865E+03	4.728379E-02	3.015208E-03
5.257785E+03	4.773711E-02	3.040773E-03
5.267706E+03	4.817090E-02	3.065030E-03
5.277626E+03	4.858096E-02	3.087716E-03
5.287546E+03	4.896376E-02	3.108613E-03
5.297467E+03	4.931506E-02	3.127458E-03
5.307387E+03	4.963146E-02	3.144041E-03
5.317307E+03	4.990940E-02	3.158145E-03
5.327228E+03	5.014734E-02	3.169683E-03
5.337148E+03	5.034263E-02	3.178493E-03
5.347068E+03	5.049360E-02	3.184481E-03
5.356989E+03	5.059904E-02	3.187580E-03
5.366909E+03	5.065761E-02	3.187715E-03
5.376829E+03	5.066938E-02	3.184901E-03
5.386750E+03	5.063417E-02	3.179136E-03
5.396670E+03	5.055148E-02	3.170401E-03
5.406590E+03	5.042200E-02	3.158746E-03
5.416511E+03	5.024596E-02	3.144198E-03
5.426431E+03	5.002316E-02	3.126753E-03
5.436352E+03	4.975396E-02	3.106445E-03
5.446272E+03	4.943879E-02	3.083310E-03
5.456192E+03	4.907873E-02	3.057425E-03
5.466113E+03	4.867409E-02	3.028819E-03
5.476033E+03	4.822608E-02	2.997576E-03
5.485953E+03	4.773714E-02	2.963857E-03
5.495874E+03	4.720994E-02	2.927835E-03
5.505794E+03	4.664755E-02	2.889709E-03
5.515714E+03	4.605525E-02	2.849814E-03
5.525635E+03	4.543767E-02	2.808441E-03
5.535555E+03	4.480050E-02	2.765946E-03
5.545475E+03	4.414986E-02	2.722711E-03
5.555396E+03	4.349254E-02	2.679158E-03
5.565316E+03	4.283412E-02	2.635631E-03
5.575236E+03	4.218181E-02	2.592573E-03
5.585157E+03	4.154136E-02	2.550336E-03
5.595077E+03	4.091863E-02	2.509276E-03
5.604997E+03	4.031913E-02	2.469728E-03
5.614918E+03	3.974800E-02	2.432001E-03
5.624838E+03	3.921032E-02	2.396400E-03
5.634759E+03	3.870991E-02	2.363151E-03
5.644679E+03	3.825051E-02	2.332473E-03
5.654599E+03	3.783535E-02	2.304556E-03
5.664520E+03	3.746712E-02	2.279554E-03
5.674440E+03	3.714835E-02	2.257612E-03
5.684360E+03	3.688035E-02	2.238797E-03
5.694281E+03	3.666381E-02	2.223143E-03
5.704201E+03	3.650003E-02	2.210716E-03
5.714121E+03	3.638824E-02	2.201460E-03
5.724042E+03	3.632855E-02	2.195371E-03
5.733962E+03	3.631901E-02	2.192320E-03
5.743882E+03	3.635808E-02	2.192204E-03
5.753803E+03	3.644323E-02	2.194862E-03
5.763723E+03	3.657090E-02	2.200069E-03
5.773643E+03	3.673760E-02	2.207608E-03
5.783564E+03	3.693891E-02	2.217206E-03
5.793484E+03	3.716922E-02	2.228518E-03
5.803404E+03	3.742392E-02	2.241264E-03
5.813325E+03	3.769712E-02	2.255086E-03
5.823245E+03	3.798278E-02	2.269620E-03
5.833166E+03	3.827607E-02	2.284575E-03
5.843086E+03	3.857088E-02	2.299587E-03
5.853006E+03	3.886221E-02	2.314356E-03
5.862927E+03	3.914587E-02	2.328634E-03
5.872847E+03	3.941713E-02	2.342144E-03
5.882767E+03	3.967337E-02	2.354730E-03
5.892688E+03	3.991108E-02	2.366189E-03
5.902608E+03	4.012827E-02	2.376407E-03
5.912528E+03	4.032398E-02	2.385332E-03
5.922449E+03	4.049691E-02	2.392890E-03
5.932369E+03	4.064761E-02	2.399120E-03
5.942289E+03	4.077668E-02	2.404061E-03
5.952210E+03	4.088576E-02	2.407814E-03
5.962130E+03	4.097681E-02	2.410500E-03
5.972050E+03	4.105312E-02	2.412314E-03
5.981971E+03	4.111768E-02	2.413436E-03
5.991891E+03	4.117384E-02	2.414064E-03
6.001811E+03	4.122555E-02	2.414432E-03
6.011732E+03	4.127643E-02	2.414753E-03
6.021652E+03	4.133086E-02	2.415283E-03
6.031573E+03	4.139185E-02	2.416196E-03
6.041493E+03	4.146327E-02	2.417720E-03
6.051413E+03	4.154744E-02	2.419985E-03
6.061334E+03	4.164732E-02	2.423163E-03
6.071254E+03	4.176451E-02	2.427343E-03
6.081174E+03	4.190034E-02	2.432601E-03
6.091095E+03	4.205540E-02	2.438966E-03
6.101015E+03	4.222944E-02	2.446422E-03
6.110935E+03	4.242180E-02	2.454927E-03
6.120856E+03	4.263087E-02	2.464385E-03
6.130776E+03	4.285423E-02	2.474653E-03
6.140696E+03	4.308853E-02	2.485536E-03
6.150617E+03	4.332932E-02	2.496776E-03
6.160537E+03	4.357058E-02	2.508027E-03
6.170457E+03	4.380628E-02	2.518940E-03
6.180378E+03	4.403098E-02	2.529207E-03
6.190298E+03	4.423880E-02	2.538491E-03
6.200218E+03	4.442369E-02	2.546449E-03
6.210139E+03	4.458098E-02	2.552819E-03
6.220059E+03	4.470674E-02	2.557382E-03
6.229979E+03	4.479711E-02	2.559921E-03
6.239900E+03	4.485050E-02	2.560355E-03
6.249820E+03	4.486557E-02	2.558613E-03
6.259741E+03	4.484197E-02	2.554681E-03
6.269661E+03	4.478075E-02	2.548628E-03
6.279581E+03	4.468330E-02	2.540538E-03
6.289502E+03	4.455254E-02	2.530585E-03
6.299422E+03	4.439045E-02	2.518885E-03
6.309342E+03	4.419972E-02	2.505598E-03
6.319263E+03	4.398438E-02	2.490956E-03
6.329183E+03	4.374616E-02	2.475061E-03
6.339103E+03	4.348778E-02	2.458071E-03
6.349024E+03	4.321167E-02	2.440126E-03
6.358944E+03	4.291929E-02	2.421313E-03
6.368864E+03	4.261212E-02	2.401717E-03
6.378785E+03	4.229073E-02	2.381371E-03
6.388705E+03	4.195569E-02	2.360311E-03
6.398625E+03	4.160678E-02	2.338525E-03
6.408546E+03	4.124439E-02	2.316039E-03
6.418466E+03	4.086702E-02	2.292770E-03
6.428386E+03	4.047534E-02	2.268756E-03
6.438307E+03	4.006874E-02	2.243965E-03
6.448227E+03	3.964718E-02	2.218395E-03
6.458148E+03	3.920999E-02	2.192011E-03
6.468068E+03	3.875673E-02	2.164791E-03
6.477988E+03	3.828762E-02	2.136746E-03
6.487909E+03	3.780340E-02	2.107921E-03
6.497829E+03	3.730329E-02	2.078272E-03
6.507749E+03	3.678872E-02	2.047882E-03
6.517670E+03	3.626055E-02	2.016799E-03
6.527590E+03	3.571907E-02	1.985040E-03
6.537510E+03	3.516644E-02	1.952726E-03
6.547431E+03	3.460348E-02	1.919903E-03
6.557351E+03	3.403246E-02	1.886698E-03
6.567271E+03	3.345589E-02	1.853250E-03
6.577192E+03	3.287537E-02	1.819647E-03
6.587112E+03	3.229376E-02	1.786047E-03
6.597032E+03	3.171362E-02	1.752591E-03
6.606953E+03	3.113789E-02	1.719440E-03
6.616873E+03	3.056843E-02	1.686696E-03
6.626793E+03	3.000833E-02	1.654527E-03
6.636714E+03	2.945959E-02	1.623042E-03
6.646634E+03	2.892460E-02	1.592370E-03
6.656555E+03	2.840466E-02	1.562580E-03
6.666475E+03	2.790210E-02	1.533798E-03
6.676395E+03	2.741840E-02	1.506102E-03
6.686316E+03	2.695456E-02	1.479545E-03
6.696236E+03	2.651201E-02	1.454201E-03
6.706156E+03	2.609139E-02	1.430103E-03
6.716077E+03	2.569415E-02	1.407328E-03
6.725997E+03	2.532011E-02	1.385861E-03
6.735917E+03	2.497078E-02	1.365783E-03
6.745838E+03	2.464644E-02	1.347105E-03
6.755758E+03	2.434730E-02	1.329837E-03
6.765678E+03	2.407412E-02	1.314015E-03
6.775599E+03	2.382735E-02	1.299661E-03
6.785519E+03	2.360734E-02	1.286793E-03
6.795439E+03	2.341472E-02	1.275439E-03
6.805360E+03	2.324924E-02	1.265584E-03
6.815280E+03	2.311136E-02	1.257250E-03
6.825200E+03	2.300122E-02	1.250440E-03
6.835121E+03	2.291882E-02	1.245152E-03
6.845041E+03	2.286407E-02	1.241378E-03
6.854962E+03	2.283701E-02	1.239117E-03
6.864882E+03	2.283672E-02	1.238317E-03
6.874802E+03	2.286328E-02	1.238978E-03
6.884723E+03	2.291579E-02	1.241050E-03
6.894643E+03	2.299324E-02	1.244475E-03
6.904563E+03	2.309535E-02	1.249236E-03
6.914484E+03	2.322094E-02	1.255266E-03
6.924404E+03	2.336909E-02	1.262513E-03
6.934324E+03	2.353913E-02	1.270940E-03
6.944245E+03	2.372959E-02	1.280465E-03
6.954165E+03	2.394017E-02	1.291070E-03
6.964085E+03	2.416954E-02	1.302681E-03
6.974006E+03	2.441759E-02	1.315292E-03
6.983926E+03	2.468350E-02	1.328856E-03
6.993846E+03	2.496678E-02	1.343347E-03
7.003767E+03	2.526707E-02	1.358743E-03
7.013687E+03	2.558409E-02	1.375027E-03
7.023607E+03	2.591756E-02	1.392185E-03
7.033528E+03	2.626722E-02	1.410200E-03
7.043448E+03	2.663306E-02	1.429072E-03
7.053369E+03	2.701401E-02	1.448741E-03
7.063289E+03	2.741018E-02	1.469213E-03
7.073209E+03	2.782044E-02	1.490427E-03
7.083130E+03	2.824376E-02	1.512327E-03
7.093050E+03	2.867846E-02	1.534823E-03
7.102970E+03	2.912399E-02	1.557883E-03
7.112891E+03	2.957723E-02	1.581342E-03
7.122811E+03	3.003617E-02	1.605092E-03
7.132731E+03	3.049803E-02	1.628985E-03
7.142652E+03	3.096010E-02	1.652876E-03
7.152572E+03	3.141848E-02	1.676559E-03
7.162492E+03	3.186938E-02	1.699830E-03
7.172413E+03	3.230867E-02	1.722473E-03
7.182333E+03	3.273200E-02	1.744257E-03
7.192253E+03	3.313527E-02	1.764964E-03
7.202174E+03	3.351346E-02	1.784330E-03
7.212094E+03	3.386194E-02	1.802111E-03
7.222014E+03	3.417622E-02	1.818070E-03
7.231935E+03	3.445253E-02	1.832011E-03
7.241855E+03	3.468662E-02	1.843710E-03
7.251775E+03	3.487568E-02	1.853021E-03
7.261696E+03	3.501664E-02	1.859784E-03
7.271616E+03	3.510768E-02	1.863908E-03
7.281537E+03	3.514834E-02	1.865369E-03
7.291457E+03	3.513809E-02	1.864144E-03
7.301377E+03	3.507828E-02	1.860308E-03
7.311298E+03	3.497024E-02	1.853933E-03
7.321218E+03	3.481700E-02	1.845184E-03
7.331138E+03	3.462145E-02	1.834216E-03
7.341059E+03	3.438804E-02	1.821267E-03
7.350979E+03	3.412126E-02	1.806576E-03
7.360899E+03	3.382558E-02	1.790382E-03
7.370820E+03	3.350673E-02	1.772989E-03
7.380740E+03	3.316969E-02	1.754662E-03
7.390660E+03	3.282053E-02	1.735722E-03
7.400581E+03	3.246445E-02	1.716444E-03
7.410501E+03	3.210710E-02	1.697127E-03
7.420421E+03	3.175449E-02	1.678089E-03
7.430342E+03	3.141208E-02	1.659617E-03
7.440262E+03	3.108432E-02	1.641945E-03
7.450182E+03	3.077715E-02	1.625388E-03
7.460103E+03	3.049504E-02	1.610180E-03
7.470023E+03	3.024258E-02	1.596561E-03
7.479944E+03	3.002370E-02	1.584740E-03
7.489864E+03	2.984322E-02	1.574969E-03
7.499784E+03	2.970442E-02	1.567420E-03
7.509705E+03	2.961017E-02	1.562244E-03
7.519625E+03	2.956381E-02	1.559616E-03
7.529545E+03	2.956778E-02	1.559665E-03
7.539466E+03	2.962364E-02	1.562472E-03
7.549386E+03	2.973318E-02	1.568131E-03
7.559306E+03	2.989717E-02	1.576683E-03
7.569227E+03	3.011522E-02	1.588108E-03
7.579147E+03	3.038655E-02	1.602366E-03
7.589067E+03	3.070986E-02	1.619387E-03
7.598988E+03	3.108207E-02	1.639012E-03
7.608908E+03	3.149985E-02	1.661066E-03
7.618828E+03	3.195800E-02	1.685275E-03
7.628749E+03	3.245109E-02	1.711357E-03
7.638669E+03	3.297138E-02	1.738903E-03
7.648589E+03	3.351197E-02	1.767552E-03
7.658510E+03	3.406429E-02	1.796856E-03
7.668430E+03	3.461870E-02	1.826307E-03
7.678351E+03	3.516558E-02	1.855399E-03
7.688271E+03	3.569563E-02	1.883644E-03
7.698191E+03	3.619863E-02	1.910504E-03
