#wls	flux	fluxerr
1.587256E+03	5.606435E-03	4.025035E-04
1.626937E+03	5.664520E-03	4.064269E-04
1.666619E+03	5.724908E-03	4.105034E-04
1.706300E+03	5.787580E-03	4.147309E-04
1.745982E+03	5.851364E-03	4.190248E-04
1.785663E+03	5.917337E-03	4.234616E-04
1.825344E+03	5.986620E-03	4.281208E-04
1.865026E+03	6.059193E-03	4.329999E-04
1.904707E+03	6.133829E-03	4.380103E-04
1.944389E+03	6.211654E-03	4.432315E-04
1.984070E+03	6.292605E-03	4.486580E-04
2.023751E+03	6.377833E-03	4.543708E-04
2.063433E+03	6.467277E-03	4.603642E-04
2.103114E+03	6.560855E-03	4.666310E-04
2.142795E+03	6.657200E-03	4.730727E-04
2.182477E+03	6.758685E-03	4.798565E-04
2.222158E+03	6.865181E-03	4.869716E-04
2.261840E+03	6.975223E-03	4.943126E-04
2.301521E+03	7.091175E-03	5.020451E-04
2.341202E+03	7.210190E-03	5.099660E-04
2.380884E+03	7.334569E-03	5.182362E-04
2.420565E+03	7.462653E-03	5.267366E-04
2.460247E+03	7.595348E-03	5.355292E-04
2.499928E+03	7.732179E-03	5.445787E-04
2.539609E+03	7.872594E-03	5.538442E-04
2.579291E+03	8.017301E-03	5.633735E-04
2.618972E+03	8.165580E-03	5.731140E-04
2.658654E+03	8.317950E-03	5.831000E-04
2.698335E+03	8.472124E-03	5.931691E-04
2.738016E+03	8.631081E-03	6.035279E-04
2.777698E+03	8.792265E-03	6.139955E-04
2.817379E+03	8.957008E-03	6.246627E-04
2.857061E+03	9.125109E-03	6.355134E-04
2.896742E+03	9.294844E-03	6.464252E-04
2.936423E+03	9.469594E-03	6.576310E-04
2.976105E+03	9.648474E-03	6.690666E-04
2.986025E+03	9.694006E-03	6.719727E-04
2.995946E+03	9.739524E-03	6.748739E-04
3.005866E+03	9.786284E-03	6.778575E-04
3.015786E+03	9.831646E-03	6.807404E-04
3.025707E+03	9.879451E-03	6.837886E-04
3.035627E+03	9.925776E-03	6.867304E-04
3.045547E+03	9.973154E-03	6.897411E-04
3.055468E+03	1.002025E-02	6.927285E-04
3.065388E+03	1.006830E-02	6.957776E-04
3.075308E+03	1.011724E-02	6.988843E-04
3.085229E+03	1.016576E-02	7.019573E-04
3.095149E+03	1.021506E-02	7.050803E-04
3.105069E+03	1.026508E-02	7.082492E-04
3.114990E+03	1.031578E-02	7.114598E-04
3.124910E+03	1.036583E-02	7.146219E-04
3.134830E+03	1.041767E-02	7.179033E-04
3.144751E+03	1.046877E-02	7.211283E-04
3.154671E+03	1.052152E-02	7.244631E-04
3.164591E+03	1.057463E-02	7.278177E-04
3.174512E+03	1.062802E-02	7.311877E-04
3.184432E+03	1.068165E-02	7.345688E-04
3.194353E+03	1.073544E-02	7.379565E-04
3.204273E+03	1.079053E-02	7.414287E-04
3.214193E+03	1.084684E-02	7.449797E-04
3.224114E+03	1.090310E-02	7.485223E-04
3.234034E+03	1.096042E-02	7.521330E-04
3.243954E+03	1.101873E-02	7.558059E-04
3.253875E+03	1.107677E-02	7.594554E-04
3.263795E+03	1.113680E-02	7.632362E-04
3.273715E+03	1.119641E-02	7.669831E-04
3.283636E+03	1.125783E-02	7.708488E-04
3.293556E+03	1.131983E-02	7.747483E-04
3.303476E+03	1.138233E-02	7.786760E-04
3.313397E+03	1.144636E-02	7.827032E-04
3.323317E+03	1.151071E-02	7.867468E-04
3.333237E+03	1.157642E-02	7.908771E-04
3.343158E+03	1.164339E-02	7.950873E-04
3.353078E+03	1.171042E-02	7.992962E-04
3.362998E+03	1.177962E-02	8.036469E-04
3.372919E+03	1.184872E-02	8.079844E-04
3.382839E+03	1.191979E-02	8.124497E-04
3.392760E+03	1.199165E-02	8.169628E-04
3.402680E+03	1.206527E-02	8.215891E-04
3.412600E+03	1.213950E-02	8.262503E-04
3.422521E+03	1.221529E-02	8.310111E-04
3.432441E+03	1.229255E-02	8.358642E-04
3.442361E+03	1.237116E-02	8.408027E-04
3.452282E+03	1.245103E-02	8.458195E-04
3.462202E+03	1.253307E-02	8.509760E-04
3.472122E+03	1.261517E-02	8.561294E-04
3.482043E+03	1.270021E-02	8.614751E-04
3.491963E+03	1.278612E-02	8.668714E-04
3.501883E+03	1.287376E-02	8.723778E-04
3.511804E+03	1.296210E-02	8.779227E-04
3.521724E+03	1.305293E-02	8.836287E-04
3.531644E+03	1.314615E-02	8.894876E-04
3.541565E+03	1.324071E-02	8.954291E-04
3.551485E+03	1.333655E-02	9.014484E-04
3.561405E+03	1.343543E-02	9.076642E-04
3.571326E+03	1.353546E-02	9.139486E-04
3.581246E+03	1.363753E-02	9.203610E-04
3.591167E+03	1.374249E-02	9.269592E-04
3.601087E+03	1.384943E-02	9.336819E-04
3.611007E+03	1.395929E-02	9.405906E-04
3.620928E+03	1.407202E-02	9.476831E-04
3.630848E+03	1.418769E-02	9.549623E-04
3.640768E+03	1.430632E-02	9.624307E-04
3.650689E+03	1.442796E-02	9.700902E-04
3.660609E+03	1.455348E-02	9.779995E-04
3.670529E+03	1.468211E-02	9.861062E-04
3.680450E+03	1.481474E-02	9.944694E-04
3.690370E+03	1.495139E-02	1.003090E-03
3.700290E+03	1.509290E-02	1.012024E-03
3.710211E+03	1.523853E-02	1.021221E-03
3.720131E+03	1.538829E-02	1.030681E-03
3.730051E+03	1.554300E-02	1.040459E-03
3.739972E+03	1.570264E-02	1.050553E-03
3.749892E+03	1.586723E-02	1.060962E-03
3.759812E+03	1.603746E-02	1.071734E-03
3.769733E+03	1.621181E-02	1.082765E-03
3.779653E+03	1.639240E-02	1.094197E-03
3.789574E+03	1.657770E-02	1.105926E-03
3.799494E+03	1.676755E-02	1.117941E-03
3.809414E+03	1.696327E-02	1.130330E-03
3.819335E+03	1.716391E-02	1.143028E-03
3.829255E+03	1.736927E-02	1.156022E-03
3.839175E+03	1.757978E-02	1.169339E-03
3.849096E+03	1.779447E-02	1.182915E-03
3.859016E+03	1.801372E-02	1.196774E-03
3.868936E+03	1.823651E-02	1.210847E-03
3.878857E+03	1.846386E-02	1.225201E-03
3.888777E+03	1.869404E-02	1.239722E-03
3.898697E+03	1.892736E-02	1.254430E-03
3.908618E+03	1.916411E-02	1.269342E-03
3.918538E+03	1.940263E-02	1.284349E-03
3.928458E+03	1.964385E-02	1.299512E-03
3.938379E+03	1.988683E-02	1.314768E-03
3.948299E+03	2.013189E-02	1.330139E-03
3.958219E+03	2.037750E-02	1.345522E-03
3.968140E+03	2.062473E-02	1.360987E-03
3.978060E+03	2.087279E-02	1.376484E-03
3.987981E+03	2.112154E-02	1.392002E-03
3.997901E+03	2.137157E-02	1.407580E-03
4.007821E+03	2.162167E-02	1.423137E-03
4.017742E+03	2.187250E-02	1.438717E-03
4.027662E+03	2.212481E-02	1.454370E-03
4.037582E+03	2.237704E-02	1.469992E-03
4.047503E+03	2.263062E-02	1.485678E-03
4.057423E+03	2.288590E-02	1.501449E-03
4.067343E+03	2.314210E-02	1.517255E-03
4.077264E+03	2.340029E-02	1.533165E-03
4.087184E+03	2.366038E-02	1.549173E-03
4.097104E+03	2.392294E-02	1.565316E-03
4.107025E+03	2.418854E-02	1.581631E-03
4.116945E+03	2.445729E-02	1.598123E-03
4.126865E+03	2.472983E-02	1.614836E-03
4.136786E+03	2.500628E-02	1.631775E-03
4.146706E+03	2.528734E-02	1.648987E-03
4.156626E+03	2.557265E-02	1.666446E-03
4.166547E+03	2.586343E-02	1.684231E-03
4.176467E+03	2.615984E-02	1.702352E-03
4.186387E+03	2.646203E-02	1.720818E-03
4.196308E+03	2.677014E-02	1.739637E-03
4.206228E+03	2.708427E-02	1.758814E-03
4.216149E+03	2.740451E-02	1.778355E-03
4.226069E+03	2.773142E-02	1.798294E-03
4.235989E+03	2.806498E-02	1.818629E-03
4.245910E+03	2.840467E-02	1.839327E-03
4.255830E+03	2.875036E-02	1.860376E-03
4.265750E+03	2.910193E-02	1.881769E-03
4.275671E+03	2.945916E-02	1.903490E-03
4.285591E+03	2.982228E-02	1.925553E-03
4.295511E+03	3.018948E-02	1.947840E-03
4.305432E+03	3.056186E-02	1.970422E-03
4.315352E+03	3.093750E-02	1.993174E-03
4.325272E+03	3.131690E-02	2.016127E-03
4.335193E+03	3.169906E-02	2.039217E-03
4.345113E+03	3.208345E-02	2.062409E-03
4.355033E+03	3.246950E-02	2.085666E-03
4.364954E+03	3.285673E-02	2.108956E-03
4.374874E+03	3.324519E-02	2.132282E-03
4.384794E+03	3.363437E-02	2.155613E-03
4.394715E+03	3.402375E-02	2.178913E-03
4.404635E+03	3.441371E-02	2.202206E-03
4.414556E+03	3.480298E-02	2.225413E-03
4.424476E+03	3.519068E-02	2.248476E-03
4.434396E+03	3.557628E-02	2.271361E-03
4.444317E+03	3.595905E-02	2.294023E-03
4.454237E+03	3.633658E-02	2.316307E-03
4.464157E+03	3.670878E-02	2.338209E-03
4.474078E+03	3.707340E-02	2.359587E-03
4.483998E+03	3.742901E-02	2.380349E-03
4.493918E+03	3.777406E-02	2.400399E-03
4.503839E+03	3.810690E-02	2.419634E-03
4.513759E+03	3.842626E-02	2.437975E-03
4.523679E+03	3.872989E-02	2.455281E-03
4.533600E+03	3.901650E-02	2.471471E-03
4.543520E+03	3.928486E-02	2.486472E-03
4.553440E+03	3.953332E-02	2.500182E-03
4.563361E+03	3.976083E-02	2.512536E-03
4.573281E+03	3.996605E-02	2.523454E-03
4.583201E+03	4.014881E-02	2.532928E-03
4.593122E+03	4.030815E-02	2.540902E-03
4.603042E+03	4.044389E-02	2.547366E-03
4.612963E+03	4.055608E-02	2.552329E-03
4.622883E+03	4.064508E-02	2.555816E-03
4.632803E+03	4.071152E-02	2.557869E-03
4.642724E+03	4.075626E-02	2.558549E-03
4.652644E+03	4.078095E-02	2.557960E-03
4.662564E+03	4.078646E-02	2.556161E-03
4.672485E+03	4.077439E-02	2.553254E-03
4.682405E+03	4.074745E-02	2.549413E-03
4.692325E+03	4.070706E-02	2.544728E-03
4.702246E+03	4.065519E-02	2.539325E-03
4.712166E+03	4.059491E-02	2.533397E-03
4.722086E+03	4.052778E-02	2.527043E-03
4.732007E+03	4.045637E-02	2.520423E-03
4.741927E+03	4.038225E-02	2.513637E-03
4.751847E+03	4.030691E-02	2.506777E-03
4.761768E+03	4.023128E-02	2.499903E-03
4.771688E+03	4.015670E-02	2.493096E-03
4.781608E+03	4.008389E-02	2.486402E-03
4.791529E+03	4.001441E-02	2.479917E-03
4.801449E+03	3.994827E-02	2.473641E-03
4.811370E+03	3.988719E-02	2.467680E-03
4.821290E+03	3.983048E-02	2.461991E-03
4.831210E+03	3.978007E-02	2.456692E-03
4.841131E+03	3.973546E-02	2.451752E-03
4.851051E+03	3.969700E-02	2.447190E-03
4.860971E+03	3.966536E-02	2.443049E-03
4.870892E+03	3.963984E-02	2.439282E-03
4.880812E+03	3.962148E-02	2.435953E-03
4.890732E+03	3.961038E-02	2.433068E-03
4.900653E+03	3.960579E-02	2.430579E-03
4.910573E+03	3.960873E-02	2.428548E-03
4.920493E+03	3.961900E-02	2.426961E-03
4.930414E+03	3.963687E-02	2.425833E-03
4.940334E+03	3.966320E-02	2.425216E-03
4.950254E+03	3.969805E-02	2.425113E-03
4.960175E+03	3.974209E-02	2.425562E-03
4.970095E+03	3.979609E-02	2.426609E-03
4.980015E+03	3.986141E-02	2.428336E-03
4.989936E+03	3.993864E-02	2.430776E-03
4.999856E+03	4.002888E-02	2.433994E-03
5.009777E+03	4.013375E-02	2.438087E-03
5.019697E+03	4.025399E-02	2.443096E-03
5.029617E+03	4.039076E-02	2.449091E-03
5.039538E+03	4.054562E-02	2.456162E-03
5.049458E+03	4.071911E-02	2.464339E-03
5.059378E+03	4.091253E-02	2.473698E-03
5.069299E+03	4.112653E-02	2.484275E-03
5.079219E+03	4.136067E-02	2.496038E-03
5.089139E+03	4.161652E-02	2.509081E-03
5.099060E+03	4.189312E-02	2.523340E-03
5.108980E+03	4.219013E-02	2.538793E-03
5.118900E+03	4.250744E-02	2.555428E-03
5.128821E+03	4.284411E-02	2.573186E-03
5.138741E+03	4.319852E-02	2.591967E-03
5.148661E+03	4.356964E-02	2.611705E-03
5.158582E+03	4.395523E-02	2.632264E-03
5.168502E+03	4.435370E-02	2.653547E-03
5.178422E+03	4.476226E-02	2.675383E-03
5.188343E+03	4.517880E-02	2.697645E-03
5.198263E+03	4.560050E-02	2.720165E-03
5.208183E+03	4.602384E-02	2.742731E-03
5.218104E+03	4.644560E-02	2.765151E-03
5.228024E+03	4.686288E-02	2.787254E-03
5.237945E+03	4.727220E-02	2.808833E-03
5.247865E+03	4.766953E-02	2.829651E-03
5.257785E+03	4.805128E-02	2.849496E-03
5.267706E+03	4.841442E-02	2.868193E-03
5.277626E+03	4.875501E-02	2.885511E-03
5.287546E+03	4.906975E-02	2.901260E-03
5.297467E+03	4.935605E-02	2.915291E-03
5.307387E+03	4.961003E-02	2.927380E-03
5.317307E+03	4.983014E-02	2.937443E-03
5.327228E+03	5.001311E-02	2.945292E-03
5.337148E+03	5.015755E-02	2.950851E-03
5.347068E+03	5.026243E-02	2.954070E-03
5.356989E+03	5.032555E-02	2.954824E-03
5.366909E+03	5.034612E-02	2.953075E-03
5.376829E+03	5.032420E-02	2.948834E-03
5.386750E+03	5.025968E-02	2.942103E-03
5.396670E+03	5.015229E-02	2.932873E-03
5.406590E+03	5.000303E-02	2.921211E-03
5.416511E+03	4.981221E-02	2.907142E-03
5.426431E+03	4.958136E-02	2.890762E-03
5.436352E+03	4.931126E-02	2.872126E-03
5.446272E+03	4.900389E-02	2.851355E-03
5.456192E+03	4.866044E-02	2.828523E-03
5.466113E+03	4.828355E-02	2.803793E-03
5.476033E+03	4.787520E-02	2.777283E-03
5.485953E+03	4.743721E-02	2.749105E-03
5.495874E+03	4.697227E-02	2.719420E-03
5.505794E+03	4.648394E-02	2.688438E-03
5.515714E+03	4.597527E-02	2.656340E-03
5.525635E+03	4.545010E-02	2.623351E-03
5.535555E+03	4.491219E-02	2.589690E-03
5.545475E+03	4.436689E-02	2.555668E-03
5.555396E+03	4.381837E-02	2.521526E-03
5.565316E+03	4.327134E-02	2.487536E-03
5.575236E+03	4.273010E-02	2.453944E-03
5.585157E+03	4.219972E-02	2.421039E-03
5.595077E+03	4.168511E-02	2.389102E-03
5.604997E+03	4.118972E-02	2.358326E-03
5.614918E+03	4.071797E-02	2.328963E-03
5.624838E+03	4.027357E-02	2.301219E-03
5.634759E+03	3.985989E-02	2.275281E-03
5.644679E+03	3.947987E-02	2.251313E-03
5.654599E+03	3.913611E-02	2.229457E-03
5.664520E+03	3.883075E-02	2.209828E-03
5.674440E+03	3.856514E-02	2.192496E-03
5.684360E+03	3.834133E-02	2.177571E-03
5.694281E+03	3.815937E-02	2.165048E-03
5.704201E+03	3.802002E-02	2.154964E-03
5.714121E+03	3.792321E-02	2.147308E-03
5.724042E+03	3.786799E-02	2.142017E-03
5.733962E+03	3.785376E-02	2.139052E-03
5.743882E+03	3.787866E-02	2.138300E-03
5.753803E+03	3.794080E-02	2.139648E-03
5.763723E+03	3.803824E-02	2.142981E-03
5.773643E+03	3.816788E-02	2.148118E-03
5.783564E+03	3.832668E-02	2.154882E-03
5.793484E+03	3.851126E-02	2.163081E-03
5.803404E+03	3.871769E-02	2.172487E-03
5.813325E+03	3.894254E-02	2.182906E-03
5.823245E+03	3.918200E-02	2.194122E-03
5.833166E+03	3.943144E-02	2.205873E-03
5.843086E+03	3.968783E-02	2.217988E-03
5.853006E+03	3.994720E-02	2.230244E-03
5.862927E+03	4.020575E-02	2.242430E-03
5.872847E+03	4.046081E-02	2.254397E-03
5.882767E+03	4.070967E-02	2.265995E-03
5.892688E+03	4.094925E-02	2.277054E-03
5.902608E+03	4.117814E-02	2.287497E-03
5.912528E+03	4.139500E-02	2.297252E-03
5.922449E+03	4.159822E-02	2.306232E-03
5.932369E+03	4.178827E-02	2.314465E-03
5.942289E+03	4.196496E-02	2.321944E-03
5.952210E+03	4.212857E-02	2.328686E-03
5.962130E+03	4.228017E-02	2.334753E-03
5.972050E+03	4.242128E-02	2.340231E-03
5.981971E+03	4.255367E-02	2.345219E-03
5.991891E+03	4.267902E-02	2.349812E-03
6.001811E+03	4.279911E-02	2.354108E-03
6.011732E+03	4.291706E-02	2.358280E-03
6.021652E+03	4.303433E-02	2.362410E-03
6.031573E+03	4.315311E-02	2.366616E-03
6.041493E+03	4.327542E-02	2.371012E-03
6.051413E+03	4.340300E-02	2.375690E-03
6.061334E+03	4.353729E-02	2.380730E-03
6.071254E+03	4.367932E-02	2.386186E-03
6.081174E+03	4.382929E-02	2.392069E-03
6.091095E+03	4.398772E-02	2.398407E-03
6.101015E+03	4.415379E-02	2.405153E-03
6.110935E+03	4.432656E-02	2.412255E-03
6.120856E+03	4.450458E-02	2.419634E-03
6.130776E+03	4.468587E-02	2.427183E-03
6.140696E+03	4.486760E-02	2.434746E-03
6.150617E+03	4.504780E-02	2.442218E-03
6.160537E+03	4.522290E-02	2.449406E-03
6.170457E+03	4.538954E-02	2.456130E-03
6.180378E+03	4.554516E-02	2.462251E-03
6.190298E+03	4.568584E-02	2.467562E-03
6.200218E+03	4.580824E-02	2.471885E-03
6.210139E+03	4.590974E-02	2.475080E-03
6.220059E+03	4.598756E-02	2.477002E-03
6.229979E+03	4.603940E-02	2.477531E-03
6.239900E+03	4.606336E-02	2.476569E-03
6.249820E+03	4.605858E-02	2.474075E-03
6.259741E+03	4.602421E-02	2.470007E-03
6.269661E+03	4.596039E-02	2.464376E-03
6.279581E+03	4.586718E-02	2.457192E-03
6.289502E+03	4.574511E-02	2.448486E-03
6.299422E+03	4.559539E-02	2.438327E-03
6.309342E+03	4.541950E-02	2.426800E-03
6.319263E+03	4.521857E-02	2.413967E-03
6.329183E+03	4.499378E-02	2.399896E-03
6.339103E+03	4.474721E-02	2.384700E-03
6.349024E+03	4.447992E-02	2.368439E-03
6.358944E+03	4.419334E-02	2.351192E-03
6.368864E+03	4.388823E-02	2.333003E-03
6.378785E+03	4.356611E-02	2.313954E-03
6.388705E+03	4.322747E-02	2.294073E-03
6.398625E+03	4.287303E-02	2.273400E-03
6.408546E+03	4.250346E-02	2.251974E-03
6.418466E+03	4.211841E-02	2.229777E-03
6.428386E+03	4.171929E-02	2.206885E-03
6.438307E+03	4.130530E-02	2.183257E-03
6.448227E+03	4.087659E-02	2.158902E-03
6.458148E+03	4.043379E-02	2.133854E-03
6.468068E+03	3.997769E-02	2.108156E-03
6.477988E+03	3.950784E-02	2.081786E-03
6.487909E+03	3.902524E-02	2.054797E-03
6.497829E+03	3.853010E-02	2.027200E-03
6.507749E+03	3.802323E-02	1.999040E-03
6.517670E+03	3.750518E-02	1.970345E-03
6.527590E+03	3.697758E-02	1.941202E-03
6.537510E+03	3.644095E-02	1.911639E-03
6.547431E+03	3.589725E-02	1.881758E-03
6.557351E+03	3.534814E-02	1.851647E-03
6.567271E+03	3.479470E-02	1.821363E-03
6.577192E+03	3.423961E-02	1.791044E-03
6.587112E+03	3.368412E-02	1.760756E-03
6.597032E+03	3.313067E-02	1.730626E-03
6.606953E+03	3.258131E-02	1.700760E-03
6.616873E+03	3.203811E-02	1.671265E-03
6.626793E+03	3.150302E-02	1.642241E-03
6.636714E+03	3.097765E-02	1.613771E-03
6.646634E+03	3.046447E-02	1.585981E-03
6.656555E+03	2.996487E-02	1.558943E-03
6.666475E+03	2.948007E-02	1.532717E-03
6.676395E+03	2.901221E-02	1.507413E-03
6.686316E+03	2.856226E-02	1.483079E-03
6.696236E+03	2.813172E-02	1.459790E-03
6.706156E+03	2.772103E-02	1.437567E-03
6.716077E+03	2.733207E-02	1.416506E-03
6.725997E+03	2.696507E-02	1.396614E-03
6.735917E+03	2.662072E-02	1.377926E-03
6.745838E+03	2.630002E-02	1.360491E-03
6.755758E+03	2.600349E-02	1.344334E-03
6.765678E+03	2.573162E-02	1.329476E-03
6.775599E+03	2.548481E-02	1.315935E-03
6.785519E+03	2.526339E-02	1.303728E-03
6.795439E+03	2.506730E-02	1.292847E-03
6.805360E+03	2.489732E-02	1.283331E-03
6.815280E+03	2.475326E-02	1.275166E-03
6.825200E+03	2.463515E-02	1.268353E-03
6.835121E+03	2.454291E-02	1.262885E-03
6.845041E+03	2.447673E-02	1.258769E-03
6.854962E+03	2.443579E-02	1.255960E-03
6.864882E+03	2.442037E-02	1.254471E-03
6.874802E+03	2.442983E-02	1.254267E-03
6.884723E+03	2.446371E-02	1.255322E-03
6.894643E+03	2.452178E-02	1.257623E-03
6.904563E+03	2.460320E-02	1.261123E-03
6.914484E+03	2.470737E-02	1.265791E-03
6.924404E+03	2.483363E-02	1.271591E-03
6.934324E+03	2.498164E-02	1.278504E-03
6.944245E+03	2.515041E-02	1.286478E-03
6.954165E+03	2.533926E-02	1.295476E-03
6.964085E+03	2.554787E-02	1.305481E-03
6.974006E+03	2.577525E-02	1.316441E-03
6.983926E+03	2.602076E-02	1.328321E-03
6.993846E+03	2.628374E-02	1.341089E-03
7.003767E+03	2.656358E-02	1.354710E-03
7.013687E+03	2.685992E-02	1.369165E-03
7.023607E+03	2.717173E-02	1.384402E-03
7.033528E+03	2.749828E-02	1.400382E-03
7.043448E+03	2.783872E-02	1.417062E-03
7.053369E+03	2.819209E-02	1.434392E-03
7.063289E+03	2.855733E-02	1.452316E-03
7.073209E+03	2.893318E-02	1.470772E-03
7.083130E+03	2.931860E-02	1.489706E-03
7.093050E+03	2.971124E-02	1.508998E-03
7.102970E+03	3.010998E-02	1.528591E-03
7.112891E+03	3.051199E-02	1.548342E-03
7.122811E+03	3.091572E-02	1.568173E-03
7.132731E+03	3.131785E-02	1.587915E-03
7.142652E+03	3.171639E-02	1.607468E-03
7.152572E+03	3.210756E-02	1.626642E-03
7.162492E+03	3.248902E-02	1.645318E-03
7.172413E+03	3.285668E-02	1.663292E-03
7.182333E+03	3.320798E-02	1.680435E-03
7.192253E+03	3.353872E-02	1.696535E-03
7.202174E+03	3.384638E-02	1.711468E-03
7.212094E+03	3.412686E-02	1.725027E-03
7.222014E+03	3.437799E-02	1.737104E-03
7.231935E+03	3.459611E-02	1.747518E-03
7.241855E+03	3.477969E-02	1.756193E-03
7.251775E+03	3.492586E-02	1.762987E-03
7.261696E+03	3.503402E-02	1.767870E-03
7.271616E+03	3.510236E-02	1.770755E-03
7.281537E+03	3.513141E-02	1.771670E-03
7.291457E+03	3.512105E-02	1.770611E-03
7.301377E+03	3.507168E-02	1.767601E-03
7.311298E+03	3.498577E-02	1.762765E-03
7.321218E+03	3.486496E-02	1.756188E-03
7.331138E+03	3.471144E-02	1.747982E-03
7.341059E+03	3.452882E-02	1.738331E-03
7.350979E+03	3.432065E-02	1.727412E-03
7.360899E+03	3.409039E-02	1.715404E-03
7.370820E+03	3.384271E-02	1.702539E-03
7.380740E+03	3.358154E-02	1.689018E-03
7.390660E+03	3.331189E-02	1.675092E-03
7.400581E+03	3.303839E-02	1.660994E-03
7.410501E+03	3.276476E-02	1.646912E-03
7.420421E+03	3.249691E-02	1.633141E-03
7.430342E+03	3.223847E-02	1.619864E-03
7.440262E+03	3.199376E-02	1.607298E-03
7.450182E+03	3.176780E-02	1.595695E-03
7.460103E+03	3.156327E-02	1.585188E-03
7.470023E+03	3.138514E-02	1.576026E-03
7.479944E+03	3.123597E-02	1.568339E-03
7.489864E+03	3.111931E-02	1.562303E-03
7.499784E+03	3.103753E-02	1.558036E-03
7.509705E+03	3.099346E-02	1.555682E-03
7.519625E+03	3.098875E-02	1.555321E-03
7.529545E+03	3.102498E-02	1.557033E-03
7.539466E+03	3.110375E-02	1.560900E-03
7.549386E+03	3.122532E-02	1.566932E-03
7.559306E+03	3.138983E-02	1.575138E-03
7.569227E+03	3.159725E-02	1.585517E-03
7.579147E+03	3.184571E-02	1.597976E-03
7.589067E+03	3.213435E-02	1.612472E-03
7.598988E+03	3.246039E-02	1.628867E-03
7.608908E+03	3.282079E-02	1.647009E-03
7.618828E+03	3.321178E-02	1.666710E-03
7.628749E+03	3.362891E-02	1.687749E-03
7.638669E+03	3.406756E-02	1.709895E-03
7.648589E+03	3.452113E-02	1.732818E-03
7.658510E+03	3.498385E-02	1.756231E-03
7.668430E+03	3.544953E-02	1.779824E-03
7.678351E+03	3.591027E-02	1.803201E-03
7.688271E+03	3.635989E-02	1.826055E-03
7.698191E+03	3.679024E-02	1.847976E-03
