#wls	flux	fluxerr
1.587256E+03	4.280676E-03	1.168187E-04
1.626937E+03	4.352537E-03	1.187711E-04
1.666619E+03	4.426522E-03	1.207810E-04
1.706300E+03	4.502590E-03	1.228472E-04
1.745982E+03	4.580699E-03	1.249684E-04
1.785663E+03	4.661615E-03	1.271657E-04
1.825344E+03	4.744464E-03	1.294150E-04
1.865026E+03	4.830857E-03	1.317603E-04
1.904707E+03	4.919043E-03	1.341539E-04
1.944389E+03	5.009782E-03	1.366163E-04
1.984070E+03	5.103851E-03	1.391688E-04
2.023751E+03	5.201168E-03	1.418091E-04
2.063433E+03	5.300729E-03	1.445096E-04
2.103114E+03	5.404196E-03	1.473158E-04
2.142795E+03	5.511445E-03	1.502241E-04
2.182477E+03	5.621409E-03	1.532054E-04
2.222158E+03	5.735756E-03	1.563051E-04
2.261840E+03	5.853370E-03	1.594928E-04
2.301521E+03	5.974973E-03	1.627880E-04
2.341202E+03	6.101279E-03	1.662102E-04
2.380884E+03	6.231081E-03	1.697263E-04
2.420565E+03	6.366973E-03	1.734070E-04
2.460247E+03	6.506720E-03	1.771912E-04
2.499928E+03	6.651912E-03	1.811222E-04
2.539609E+03	6.803152E-03	1.852164E-04
2.579291E+03	6.959047E-03	1.894356E-04
2.618972E+03	7.122085E-03	1.938475E-04
2.658654E+03	7.291773E-03	1.984386E-04
2.698335E+03	7.467564E-03	2.031938E-04
2.738016E+03	7.651820E-03	2.081773E-04
2.777698E+03	7.842903E-03	2.133444E-04
2.817379E+03	8.043056E-03	2.187559E-04
2.857061E+03	8.252478E-03	2.244171E-04
2.896742E+03	8.471295E-03	2.303311E-04
2.936423E+03	8.701501E-03	2.365521E-04
2.976105E+03	8.942065E-03	2.430518E-04
2.986025E+03	9.004240E-03	2.447315E-04
2.995946E+03	9.066615E-03	2.464165E-04
3.005866E+03	9.130134E-03	2.481323E-04
3.015786E+03	9.194776E-03	2.498785E-04
3.025707E+03	9.259560E-03	2.516284E-04
3.035627E+03	9.326385E-03	2.534335E-04
3.045547E+03	9.392356E-03	2.552151E-04
3.055468E+03	9.460323E-03	2.570508E-04
3.065388E+03	9.529304E-03	2.589139E-04
3.075308E+03	9.598328E-03	2.607778E-04
3.085229E+03	9.669271E-03	2.626937E-04
3.095149E+03	9.740213E-03	2.646093E-04
3.105069E+03	9.812079E-03	2.665498E-04
3.114990E+03	9.885784E-03	2.685400E-04
3.124910E+03	9.959423E-03	2.705282E-04
3.134830E+03	1.003484E-02	2.725646E-04
3.144751E+03	1.011109E-02	2.746230E-04
3.154671E+03	1.018812E-02	2.767026E-04
3.164591E+03	1.026592E-02	2.788029E-04
3.174512E+03	1.034539E-02	2.809481E-04
3.184432E+03	1.042557E-02	2.831123E-04
3.194353E+03	1.050642E-02	2.852948E-04
3.204273E+03	1.058886E-02	2.875197E-04
3.214193E+03	1.067282E-02	2.897860E-04
3.224114E+03	1.075738E-02	2.920680E-04
3.234034E+03	1.084340E-02	2.943896E-04
3.243954E+03	1.092995E-02	2.967251E-04
3.253875E+03	1.101790E-02	2.990983E-04
3.263795E+03	1.110720E-02	3.015082E-04
3.273715E+03	1.119784E-02	3.039537E-04
3.283636E+03	1.128975E-02	3.064337E-04
3.293556E+03	1.138291E-02	3.089471E-04
3.303476E+03	1.147727E-02	3.114929E-04
3.313397E+03	1.157279E-02	3.140699E-04
3.323317E+03	1.167032E-02	3.167009E-04
3.333237E+03	1.176804E-02	3.193369E-04
3.343158E+03	1.186767E-02	3.220244E-04
3.353078E+03	1.196917E-02	3.247620E-04
3.362998E+03	1.207159E-02	3.275246E-04
3.372919E+03	1.217491E-02	3.303110E-04
3.382839E+03	1.227995E-02	3.331436E-04
3.392760E+03	1.238662E-02	3.360203E-04
3.402680E+03	1.249404E-02	3.389170E-04
3.412600E+03	1.260386E-02	3.418781E-04
3.422521E+03	1.271430E-02	3.448559E-04
3.432441E+03	1.282617E-02	3.478719E-04
3.442361E+03	1.294024E-02	3.509474E-04
3.452282E+03	1.305562E-02	3.540577E-04
3.462202E+03	1.317221E-02	3.572006E-04
3.472122E+03	1.328998E-02	3.603751E-04
3.482043E+03	1.340967E-02	3.636013E-04
3.491963E+03	1.353039E-02	3.668548E-04
3.501883E+03	1.365288E-02	3.701561E-04
3.511804E+03	1.377707E-02	3.735028E-04
3.521724E+03	1.390207E-02	3.768711E-04
3.531644E+03	1.402861E-02	3.802805E-04
3.541565E+03	1.415739E-02	3.837503E-04
3.551485E+03	1.428674E-02	3.872350E-04
3.561405E+03	1.441814E-02	3.907751E-04
3.571326E+03	1.455072E-02	3.943464E-04
3.581246E+03	1.468439E-02	3.979468E-04
3.591167E+03	1.481984E-02	4.015949E-04
3.601087E+03	1.495615E-02	4.052659E-04
3.611007E+03	1.509404E-02	4.089789E-04
3.620928E+03	1.523336E-02	4.127303E-04
3.630848E+03	1.537402E-02	4.165175E-04
3.640768E+03	1.551588E-02	4.203368E-04
3.650689E+03	1.565884E-02	4.241852E-04
3.660609E+03	1.580276E-02	4.280591E-04
3.670529E+03	1.594752E-02	4.319550E-04
3.680450E+03	1.609375E-02	4.358904E-04
3.690370E+03	1.624054E-02	4.398405E-04
3.700290E+03	1.638851E-02	4.438217E-04
3.710211E+03	1.653679E-02	4.478107E-04
3.720131E+03	1.668594E-02	4.518229E-04
3.730051E+03	1.683654E-02	4.558736E-04
3.739972E+03	1.698700E-02	4.599200E-04
3.749892E+03	1.713785E-02	4.639765E-04
3.759812E+03	1.728968E-02	4.680586E-04
3.769733E+03	1.744156E-02	4.721417E-04
3.779653E+03	1.759336E-02	4.762219E-04
3.789574E+03	1.774558E-02	4.803129E-04
3.799494E+03	1.789735E-02	4.843911E-04
3.809414E+03	1.804918E-02	4.884702E-04
3.819335E+03	1.820085E-02	4.925445E-04
3.829255E+03	1.835219E-02	4.966093E-04
3.839175E+03	1.850234E-02	5.006411E-04
3.849096E+03	1.865242E-02	5.046704E-04
3.859016E+03	1.880090E-02	5.086558E-04
3.868936E+03	1.894890E-02	5.126277E-04
3.878857E+03	1.909555E-02	5.165624E-04
3.888777E+03	1.924066E-02	5.204547E-04
3.898697E+03	1.938404E-02	5.242996E-04
3.908618E+03	1.952610E-02	5.281084E-04
3.918538E+03	1.966606E-02	5.318595E-04
3.928458E+03	1.980433E-02	5.355646E-04
3.938379E+03	1.994015E-02	5.392026E-04
3.948299E+03	2.007339E-02	5.427702E-04
3.958219E+03	2.020452E-02	5.462804E-04
3.968140E+03	2.033348E-02	5.497311E-04
3.978060E+03	2.045958E-02	5.531042E-04
3.987981E+03	2.058284E-02	5.563995E-04
3.997901E+03	2.070328E-02	5.596183E-04
4.007821E+03	2.082152E-02	5.627773E-04
4.017742E+03	2.093714E-02	5.658646E-04
4.027662E+03	2.105085E-02	5.688998E-04
4.037582E+03	2.116173E-02	5.718581E-04
4.047503E+03	2.127117E-02	5.747769E-04
4.057423E+03	2.137840E-02	5.776353E-04
4.067343E+03	2.148431E-02	5.804575E-04
4.077264E+03	2.158932E-02	5.832552E-04
4.087184E+03	2.169336E-02	5.860259E-04
4.097104E+03	2.179695E-02	5.887840E-04
4.107025E+03	2.190113E-02	5.915576E-04
4.116945E+03	2.200546E-02	5.943348E-04
4.126865E+03	2.211056E-02	5.971321E-04
4.136786E+03	2.221755E-02	5.999799E-04
4.146706E+03	2.232659E-02	6.028826E-04
4.156626E+03	2.243833E-02	6.058578E-04
4.166547E+03	2.255296E-02	6.089103E-04
4.176467E+03	2.267068E-02	6.120457E-04
4.186387E+03	2.279313E-02	6.153082E-04
4.196308E+03	2.291953E-02	6.186767E-04
4.206228E+03	2.305150E-02	6.221950E-04
4.216149E+03	2.318828E-02	6.258425E-04
4.226069E+03	2.333144E-02	6.296616E-04
4.235989E+03	2.348020E-02	6.336311E-04
4.245910E+03	2.363608E-02	6.377919E-04
4.255830E+03	2.379827E-02	6.421221E-04
4.265750E+03	2.396819E-02	6.466606E-04
4.275671E+03	2.414503E-02	6.513846E-04
4.285591E+03	2.432966E-02	6.563181E-04
4.295511E+03	2.452208E-02	6.614606E-04
4.305432E+03	2.472220E-02	6.668101E-04
4.315352E+03	2.493033E-02	6.723749E-04
4.325272E+03	2.514634E-02	6.781509E-04
4.335193E+03	2.536995E-02	6.841312E-04
4.345113E+03	2.560130E-02	6.903190E-04
4.355033E+03	2.584045E-02	6.967160E-04
4.364954E+03	2.608650E-02	7.032979E-04
4.374874E+03	2.633930E-02	7.100608E-04
4.384794E+03	2.659864E-02	7.169990E-04
4.394715E+03	2.686373E-02	7.240907E-04
4.404635E+03	2.713366E-02	7.313121E-04
4.414556E+03	2.740827E-02	7.386581E-04
4.424476E+03	2.768596E-02	7.460857E-04
4.434396E+03	2.796585E-02	7.535716E-04
4.444317E+03	2.824691E-02	7.610875E-04
4.454237E+03	2.852798E-02	7.686028E-04
4.464157E+03	2.880735E-02	7.760709E-04
4.474078E+03	2.908319E-02	7.834424E-04
4.483998E+03	2.935484E-02	7.907000E-04
4.493918E+03	2.961986E-02	7.977776E-04
4.503839E+03	2.987661E-02	8.046313E-04
4.513759E+03	3.012339E-02	8.112154E-04
4.523679E+03	3.035897E-02	8.174968E-04
4.533600E+03	3.058088E-02	8.234087E-04
4.543520E+03	3.078797E-02	8.289209E-04
4.553440E+03	3.097878E-02	8.339937E-04
4.563361E+03	3.115203E-02	8.385929E-04
4.573281E+03	3.130614E-02	8.426760E-04
4.583201E+03	3.144020E-02	8.462187E-04
4.593122E+03	3.155436E-02	8.492249E-04
4.603042E+03	3.164731E-02	8.516599E-04
4.612963E+03	3.171886E-02	8.535187E-04
4.622883E+03	3.176951E-02	8.548144E-04
4.632803E+03	3.179955E-02	8.555553E-04
4.642724E+03	3.180911E-02	8.557452E-04
4.652644E+03	3.179940E-02	8.554164E-04
4.662564E+03	3.177140E-02	8.545955E-04
4.672485E+03	3.172582E-02	8.533020E-04
4.682405E+03	3.166481E-02	8.515932E-04
4.692325E+03	3.158892E-02	8.494846E-04
4.702246E+03	3.150006E-02	8.470274E-04
4.712166E+03	3.139972E-02	8.442620E-04
4.722086E+03	3.128986E-02	8.412408E-04
4.732007E+03	3.117160E-02	8.379940E-04
4.741927E+03	3.104680E-02	8.345720E-04
4.751847E+03	3.091691E-02	8.310135E-04
4.761768E+03	3.078288E-02	8.273442E-04
4.771688E+03	3.064712E-02	8.236288E-04
4.781608E+03	3.050967E-02	8.198687E-04
4.791529E+03	3.037270E-02	8.161218E-04
4.801449E+03	3.023680E-02	8.124040E-04
4.811370E+03	3.010321E-02	8.087490E-04
4.821290E+03	2.997232E-02	8.051669E-04
4.831210E+03	2.984554E-02	8.016956E-04
4.841131E+03	2.972311E-02	7.983418E-04
4.851051E+03	2.960592E-02	7.951290E-04
4.860971E+03	2.949446E-02	7.920706E-04
4.870892E+03	2.938953E-02	7.891879E-04
4.880812E+03	2.929185E-02	7.865003E-04
4.890732E+03	2.920112E-02	7.839998E-04
4.900653E+03	2.911840E-02	7.817145E-04
4.910573E+03	2.904439E-02	7.796630E-04
4.920493E+03	2.897875E-02	7.778368E-04
4.930414E+03	2.892286E-02	7.762724E-04
4.940334E+03	2.887642E-02	7.749616E-04
4.950254E+03	2.884045E-02	7.739322E-04
4.960175E+03	2.881536E-02	7.731947E-04
4.970095E+03	2.880121E-02	7.727505E-04
4.980015E+03	2.879871E-02	7.726192E-04
4.989936E+03	2.880863E-02	7.728209E-04
4.999856E+03	2.883133E-02	7.733654E-04
5.009777E+03	2.886684E-02	7.742533E-04
5.019697E+03	2.891581E-02	7.755019E-04
5.029617E+03	2.897849E-02	7.771178E-04
5.039538E+03	2.905538E-02	7.791145E-04
5.049458E+03	2.914619E-02	7.814842E-04
5.059378E+03	2.925120E-02	7.842338E-04
5.069299E+03	2.937019E-02	7.873580E-04
5.079219E+03	2.950280E-02	7.908465E-04
5.089139E+03	2.964815E-02	7.946760E-04
5.099060E+03	2.980618E-02	7.988445E-04
5.108980E+03	2.997532E-02	8.033101E-04
5.118900E+03	3.015518E-02	8.080621E-04
5.128821E+03	3.034415E-02	8.130573E-04
5.138741E+03	3.054047E-02	8.182486E-04
5.148661E+03	3.074325E-02	8.236121E-04
5.158582E+03	3.095077E-02	8.291015E-04
5.168502E+03	3.116048E-02	8.346489E-04
5.178422E+03	3.137076E-02	8.402104E-04
5.188343E+03	3.157921E-02	8.457219E-04
5.198263E+03	3.178439E-02	8.511449E-04
5.208183E+03	3.198341E-02	8.564019E-04
5.218104E+03	3.217438E-02	8.614429E-04
5.228024E+03	3.235471E-02	8.661978E-04
5.237945E+03	3.252216E-02	8.706073E-04
5.247865E+03	3.267457E-02	8.746132E-04
5.257785E+03	3.280943E-02	8.781488E-04
5.267706E+03	3.292508E-02	8.811699E-04
5.277626E+03	3.301927E-02	8.836161E-04
5.287546E+03	3.309026E-02	8.854411E-04
5.297467E+03	3.313649E-02	8.866033E-04
5.307387E+03	3.315585E-02	8.870466E-04
5.317307E+03	3.314799E-02	8.867614E-04
5.327228E+03	3.311124E-02	8.857037E-04
5.337148E+03	3.304499E-02	8.838572E-04
5.347068E+03	3.294887E-02	8.812123E-04
5.356989E+03	3.282237E-02	8.777552E-04
5.366909E+03	3.266600E-02	8.735000E-04
5.376829E+03	3.247937E-02	8.684365E-04
5.386750E+03	3.226343E-02	8.625904E-04
5.396670E+03	3.201858E-02	8.559724E-04
5.406590E+03	3.174579E-02	8.486088E-04
5.416511E+03	3.144615E-02	8.405285E-04
5.426431E+03	3.112088E-02	8.317649E-04
5.436352E+03	3.077131E-02	8.223536E-04
5.446272E+03	3.039860E-02	8.123252E-04
5.456192E+03	3.000491E-02	8.017382E-04
5.466113E+03	2.959120E-02	7.906181E-04
5.476033E+03	2.915956E-02	7.790208E-04
5.485953E+03	2.871219E-02	7.670053E-04
5.495874E+03	2.825081E-02	7.546179E-04
5.505794E+03	2.777796E-02	7.419260E-04
5.515714E+03	2.729606E-02	7.289946E-04
5.525635E+03	2.680790E-02	7.158984E-04
5.535555E+03	2.631620E-02	7.027096E-04
5.545475E+03	2.582396E-02	6.895090E-04
5.555396E+03	2.533371E-02	6.763636E-04
5.565316E+03	2.484883E-02	6.633636E-04
5.575236E+03	2.437176E-02	6.505746E-04
5.585157E+03	2.390545E-02	6.380749E-04
5.595077E+03	2.345297E-02	6.259462E-04
5.604997E+03	2.301615E-02	6.142377E-04
5.614918E+03	2.259743E-02	6.030142E-04
5.624838E+03	2.219906E-02	5.923353E-04
5.634759E+03	2.182279E-02	5.822482E-04
5.644679E+03	2.147017E-02	5.727935E-04
5.654599E+03	2.114272E-02	5.640120E-04
5.664520E+03	2.084131E-02	5.559265E-04
5.674440E+03	2.056725E-02	5.485722E-04
5.684360E+03	2.032074E-02	5.419536E-04
5.694281E+03	2.010268E-02	5.360947E-04
5.704201E+03	1.991328E-02	5.310012E-04
5.714121E+03	1.975236E-02	5.266681E-04
5.724042E+03	1.962027E-02	5.231044E-04
5.733962E+03	1.951627E-02	5.202901E-04
5.743882E+03	1.944015E-02	5.182196E-04
5.753803E+03	1.939135E-02	5.168776E-04
5.763723E+03	1.936940E-02	5.162517E-04
5.773643E+03	1.937310E-02	5.163094E-04
5.783564E+03	1.940200E-02	5.170388E-04
5.793484E+03	1.945497E-02	5.184096E-04
5.803404E+03	1.953099E-02	5.203946E-04
5.813325E+03	1.962907E-02	5.229670E-04
5.823245E+03	1.974816E-02	5.260986E-04
5.833166E+03	1.988722E-02	5.297619E-04
5.843086E+03	2.004520E-02	5.339288E-04
5.853006E+03	2.022091E-02	5.385672E-04
5.862927E+03	2.041382E-02	5.436632E-04
5.872847E+03	2.062258E-02	5.491805E-04
5.882767E+03	2.084636E-02	5.550970E-04
5.892688E+03	2.108437E-02	5.613917E-04
5.902608E+03	2.133619E-02	5.680534E-04
5.912528E+03	2.160075E-02	5.750530E-04
5.922449E+03	2.187798E-02	5.823893E-04
5.932369E+03	2.216675E-02	5.900316E-04
5.942289E+03	2.246742E-02	5.979896E-04
5.952210E+03	2.277895E-02	6.062355E-04
5.962130E+03	2.310137E-02	6.147702E-04
5.972050E+03	2.343446E-02	6.235879E-04
5.981971E+03	2.377784E-02	6.326779E-04
5.991891E+03	2.413158E-02	6.420425E-04
6.001811E+03	2.449527E-02	6.516707E-04
6.011732E+03	2.486842E-02	6.615492E-04
6.021652E+03	2.525133E-02	6.716859E-04
6.031573E+03	2.564277E-02	6.820484E-04
6.041493E+03	2.604284E-02	6.926392E-04
6.051413E+03	2.645062E-02	7.034335E-04
6.061334E+03	2.686529E-02	7.144097E-04
6.071254E+03	2.728553E-02	7.255327E-04
6.081174E+03	2.771037E-02	7.367766E-04
6.091095E+03	2.813798E-02	7.480928E-04
6.101015E+03	2.856654E-02	7.594331E-04
6.110935E+03	2.899432E-02	7.707510E-04
6.120856E+03	2.941821E-02	7.819645E-04
6.130776E+03	2.983587E-02	7.930107E-04
6.140696E+03	3.024428E-02	8.038101E-04
6.150617E+03	3.064019E-02	8.142759E-04
6.160537E+03	3.102010E-02	8.243155E-04
6.170457E+03	3.137993E-02	8.338206E-04
6.180378E+03	3.171625E-02	8.426998E-04
6.190298E+03	3.202515E-02	8.508498E-04
6.200218E+03	3.230237E-02	8.581574E-04
6.210139E+03	3.254452E-02	8.645327E-04
6.220059E+03	3.274765E-02	8.698712E-04
6.229979E+03	3.290924E-02	8.741059E-04
6.239900E+03	3.302565E-02	8.771403E-04
6.249820E+03	3.309482E-02	8.789204E-04
6.259741E+03	3.311492E-02	8.793972E-04
6.269661E+03	3.308426E-02	8.785268E-04
6.279581E+03	3.300304E-02	8.763141E-04
6.289502E+03	3.287088E-02	8.727500E-04
6.299422E+03	3.268856E-02	8.678548E-04
6.309342E+03	3.245780E-02	8.616747E-04
6.319263E+03	3.217984E-02	8.542426E-04
6.329183E+03	3.185796E-02	8.456462E-04
6.339103E+03	3.149515E-02	8.359652E-04
6.349024E+03	3.109410E-02	8.252705E-04
6.358944E+03	3.065963E-02	8.136907E-04
6.368864E+03	3.019495E-02	8.013109E-04
6.378785E+03	2.970448E-02	7.882488E-04
6.388705E+03	2.919235E-02	7.746137E-04
6.398625E+03	2.866266E-02	7.605147E-04
6.408546E+03	2.811937E-02	7.460572E-04
6.418466E+03	2.756633E-02	7.313428E-04
6.428386E+03	2.700747E-02	7.164760E-04
6.438307E+03	2.644578E-02	7.015363E-04
6.448227E+03	2.588431E-02	6.866047E-04
6.458148E+03	2.532638E-02	6.717688E-04
6.468068E+03	2.477369E-02	6.570736E-04
6.477988E+03	2.422880E-02	6.425874E-04
6.487909E+03	2.369265E-02	6.283350E-04
6.497829E+03	2.316727E-02	6.143698E-04
6.507749E+03	2.265292E-02	6.006988E-04
6.517670E+03	2.215048E-02	5.873455E-04
6.527590E+03	2.166063E-02	5.743277E-04
6.537510E+03	2.118340E-02	5.616460E-04
6.547431E+03	2.071895E-02	5.493047E-04
6.557351E+03	2.026792E-02	5.373206E-04
6.567271E+03	1.983013E-02	5.256889E-04
6.577192E+03	1.940565E-02	5.144115E-04
6.587112E+03	1.899478E-02	5.034962E-04
6.597032E+03	1.859759E-02	4.929448E-04
6.606953E+03	1.821414E-02	4.827587E-04
6.616873E+03	1.784474E-02	4.729463E-04
6.626793E+03	1.748926E-02	4.635037E-04
6.636714E+03	1.714795E-02	4.544379E-04
6.646634E+03	1.682090E-02	4.457510E-04
6.656555E+03	1.650817E-02	4.374445E-04
6.666475E+03	1.620999E-02	4.295242E-04
6.676395E+03	1.592637E-02	4.219909E-04
6.686316E+03	1.565728E-02	4.148434E-04
6.696236E+03	1.540248E-02	4.080752E-04
6.706156E+03	1.516232E-02	4.016958E-04
6.716077E+03	1.493652E-02	3.956973E-04
6.725997E+03	1.472514E-02	3.900815E-04
6.735917E+03	1.452806E-02	3.848453E-04
6.745838E+03	1.434493E-02	3.799791E-04
6.755758E+03	1.417596E-02	3.754885E-04
6.765678E+03	1.402060E-02	3.713590E-04
6.775599E+03	1.387901E-02	3.675946E-04
6.785519E+03	1.375082E-02	3.641855E-04
6.795439E+03	1.363578E-02	3.611253E-04
6.805360E+03	1.353389E-02	3.584135E-04
6.815280E+03	1.344469E-02	3.560382E-04
6.825200E+03	1.336815E-02	3.539985E-04
6.835121E+03	1.330400E-02	3.522872E-04
6.845041E+03	1.325182E-02	3.508932E-04
6.854962E+03	1.321152E-02	3.498137E-04
6.864882E+03	1.318284E-02	3.490424E-04
6.874802E+03	1.316548E-02	3.485709E-04
6.884723E+03	1.315901E-02	3.483880E-04
6.894643E+03	1.316328E-02	3.484895E-04
6.904563E+03	1.317820E-02	3.488734E-04
6.914484E+03	1.320292E-02	3.495165E-04
6.924404E+03	1.323766E-02	3.504250E-04
6.934324E+03	1.328191E-02	3.515853E-04
6.944245E+03	1.333514E-02	3.529837E-04
6.954165E+03	1.339722E-02	3.546161E-04
6.964085E+03	1.346779E-02	3.564735E-04
6.974006E+03	1.354630E-02	3.585409E-04
6.983926E+03	1.363255E-02	3.608135E-04
6.993846E+03	1.372601E-02	3.632765E-04
7.003767E+03	1.382623E-02	3.659189E-04
7.013687E+03	1.393306E-02	3.687361E-04
7.023607E+03	1.404587E-02	3.717114E-04
7.033528E+03	1.416442E-02	3.748390E-04
7.043448E+03	1.428790E-02	3.780966E-04
7.053369E+03	1.441605E-02	3.814780E-04
7.063289E+03	1.454821E-02	3.849657E-04
7.073209E+03	1.468432E-02	3.885576E-04
7.083130E+03	1.482328E-02	3.922251E-04
7.093050E+03	1.496499E-02	3.959655E-04
7.102970E+03	1.510877E-02	3.997605E-04
7.112891E+03	1.525407E-02	4.035959E-04
7.122811E+03	1.540040E-02	4.074584E-04
7.132731E+03	1.554701E-02	4.113283E-04
7.142652E+03	1.569336E-02	4.151915E-04
7.152572E+03	1.583891E-02	4.190336E-04
7.162492E+03	1.598339E-02	4.228475E-04
7.172413E+03	1.612558E-02	4.266008E-04
7.182333E+03	1.626546E-02	4.302929E-04
7.192253E+03	1.640252E-02	4.339107E-04
7.202174E+03	1.653586E-02	4.374301E-04
7.212094E+03	1.666505E-02	4.408399E-04
7.222014E+03	1.678993E-02	4.441357E-04
7.231935E+03	1.690992E-02	4.473024E-04
7.241855E+03	1.702449E-02	4.503257E-04
7.251775E+03	1.713363E-02	4.532058E-04
7.261696E+03	1.723693E-02	4.559313E-04
7.271616E+03	1.733426E-02	4.584991E-04
7.281537E+03	1.742557E-02	4.609080E-04
7.291457E+03	1.751089E-02	4.631585E-04
7.301377E+03	1.758978E-02	4.652395E-04
7.311298E+03	1.766268E-02	4.671619E-04
7.321218E+03	1.773003E-02	4.689380E-04
7.331138E+03	1.779140E-02	4.705560E-04
7.341059E+03	1.784785E-02	4.720443E-04
7.350979E+03	1.789906E-02	4.733940E-04
7.360899E+03	1.794596E-02	4.746303E-04
7.370820E+03	1.798908E-02	4.757667E-04
7.380740E+03	1.802840E-02	4.768030E-04
7.390660E+03	1.806478E-02	4.777615E-04
7.400581E+03	1.809902E-02	4.786641E-04
7.410501E+03	1.813123E-02	4.795131E-04
7.420421E+03	1.816251E-02	4.803379E-04
7.430342E+03	1.819349E-02	4.811550E-04
7.440262E+03	1.822448E-02	4.819728E-04
7.450182E+03	1.825606E-02	4.828065E-04
7.460103E+03	1.828904E-02	4.836776E-04
7.470023E+03	1.832395E-02	4.846000E-04
7.479944E+03	1.836127E-02	4.855863E-04
7.489864E+03	1.840141E-02	4.866477E-04
7.499784E+03	1.844477E-02	4.877947E-04
7.509705E+03	1.849191E-02	4.890421E-04
7.519625E+03	1.854311E-02	4.903970E-04
7.529545E+03	1.859827E-02	4.918571E-04
7.539466E+03	1.865776E-02	4.934320E-04
7.549386E+03	1.872188E-02	4.951298E-04
7.559306E+03	1.879029E-02	4.969416E-04
7.569227E+03	1.886313E-02	4.988707E-04
7.579147E+03	1.893984E-02	5.009027E-04
7.589067E+03	1.902011E-02	5.030294E-04
7.598988E+03	1.910404E-02	5.052533E-04
7.608908E+03	1.919081E-02	5.075526E-04
7.618828E+03	1.927952E-02	5.099040E-04
7.628749E+03	1.936999E-02	5.123021E-04
7.638669E+03	1.946114E-02	5.147187E-04
7.648589E+03	1.955202E-02	5.171288E-04
7.658510E+03	1.964167E-02	5.195067E-04
7.668430E+03	1.972900E-02	5.218240E-04
7.678351E+03	1.981319E-02	5.240588E-04
7.688271E+03	1.989275E-02	5.261715E-04
7.698191E+03	1.996642E-02	5.281288E-04
