#wls	flux	fluxerr
1.587256E+03	4.297057E-03	3.272754E-04
1.626937E+03	4.370867E-03	3.325669E-04
1.666619E+03	4.446947E-03	3.380106E-04
1.706300E+03	4.524491E-03	3.435440E-04
1.745982E+03	4.605047E-03	3.492835E-04
1.785663E+03	4.687804E-03	3.551661E-04
1.825344E+03	4.773546E-03	3.612500E-04
1.865026E+03	4.862254E-03	3.675319E-04
1.904707E+03	4.953059E-03	3.739446E-04
1.944389E+03	5.046744E-03	3.805458E-04
1.984070E+03	5.144123E-03	3.873950E-04
2.023751E+03	5.244290E-03	3.944220E-04
2.063433E+03	5.348053E-03	4.016856E-04
2.103114E+03	5.455352E-03	4.091792E-04
2.142795E+03	5.566113E-03	4.168950E-04
2.182477E+03	5.681153E-03	4.248918E-04
2.222158E+03	5.800392E-03	4.331609E-04
2.261840E+03	5.923727E-03	4.416920E-04
2.301521E+03	6.051041E-03	4.504736E-04
2.341202E+03	6.184077E-03	4.596324E-04
2.380884E+03	6.321768E-03	4.690856E-04
2.420565E+03	6.463949E-03	4.788179E-04
2.460247E+03	6.612359E-03	4.889543E-04
2.499928E+03	6.766821E-03	4.994776E-04
2.539609E+03	6.927128E-03	5.103684E-04
2.579291E+03	7.095002E-03	5.217491E-04
2.618972E+03	7.269214E-03	5.335241E-04
2.658654E+03	7.450458E-03	5.457396E-04
2.698335E+03	7.640401E-03	5.585121E-04
2.738016E+03	7.837703E-03	5.717377E-04
2.777698E+03	8.044962E-03	5.855996E-04
2.817379E+03	8.260751E-03	5.999870E-04
2.857061E+03	8.486584E-03	6.150026E-04
2.896742E+03	8.722922E-03	6.306723E-04
2.936423E+03	8.971162E-03	6.470884E-04
2.976105E+03	9.230623E-03	6.641927E-04
2.986025E+03	9.298092E-03	6.686364E-04
2.995946E+03	9.365077E-03	6.730371E-04
3.005866E+03	9.433563E-03	6.775375E-04
3.015786E+03	9.503538E-03	6.821363E-04
3.025707E+03	9.572990E-03	6.866891E-04
3.035627E+03	9.643900E-03	6.913378E-04
3.045547E+03	9.716253E-03	6.960810E-04
3.055468E+03	9.788039E-03	7.007748E-04
3.065388E+03	9.862235E-03	7.056320E-04
3.075308E+03	9.935831E-03	7.104371E-04
3.085229E+03	1.001180E-02	7.154024E-04
3.095149E+03	1.008714E-02	7.203134E-04
3.105069E+03	1.016481E-02	7.253812E-04
3.114990E+03	1.024281E-02	7.304625E-04
3.124910E+03	1.032112E-02	7.355561E-04
3.134830E+03	1.040071E-02	7.407309E-04
3.144751E+03	1.048156E-02	7.459851E-04
3.154671E+03	1.056365E-02	7.513170E-04
3.164591E+03	1.064596E-02	7.566544E-04
3.174512E+03	1.072947E-02	7.620659E-04
3.184432E+03	1.081414E-02	7.675495E-04
3.194353E+03	1.089996E-02	7.731030E-04
3.204273E+03	1.098689E-02	7.787246E-04
3.214193E+03	1.107394E-02	7.843427E-04
3.224114E+03	1.116302E-02	7.900939E-04
3.234034E+03	1.125217E-02	7.958375E-04
3.243954E+03	1.134330E-02	8.017095E-04
3.253875E+03	1.143443E-02	8.075697E-04
3.263795E+03	1.152749E-02	8.135531E-04
3.273715E+03	1.162048E-02	8.195202E-04
3.283636E+03	1.171533E-02	8.256054E-04
3.293556E+03	1.181103E-02	8.317376E-04
3.303476E+03	1.190851E-02	8.379820E-04
3.313397E+03	1.200580E-02	8.442002E-04
3.323317E+03	1.210479E-02	8.505247E-04
3.333237E+03	1.220449E-02	8.568852E-04
3.343158E+03	1.230580E-02	8.633456E-04
3.353078E+03	1.240774E-02	8.698357E-04
3.362998E+03	1.251121E-02	8.764190E-04
3.372919E+03	1.261521E-02	8.830256E-04
3.382839E+03	1.272066E-02	8.897184E-04
3.392760E+03	1.282655E-02	8.964277E-04
3.402680E+03	1.293378E-02	9.032159E-04
3.412600E+03	1.304230E-02	9.100791E-04
3.422521E+03	1.315112E-02	9.169475E-04
3.432441E+03	1.326112E-02	9.238834E-04
3.442361E+03	1.337224E-02	9.308810E-04
3.452282E+03	1.348444E-02	9.379382E-04
3.462202E+03	1.359763E-02	9.450483E-04
3.472122E+03	1.371177E-02	9.522082E-04
3.482043E+03	1.382588E-02	9.593490E-04
3.491963E+03	1.394171E-02	9.665934E-04
3.501883E+03	1.405830E-02	9.738732E-04
3.511804E+03	1.417556E-02	9.811827E-04
3.521724E+03	1.429433E-02	9.885794E-04
3.531644E+03	1.441272E-02	9.959324E-04
3.541565E+03	1.453249E-02	1.003363E-03
3.551485E+03	1.465263E-02	1.010802E-03
3.561405E+03	1.477396E-02	1.018304E-03
3.571326E+03	1.489551E-02	1.025804E-03
3.581246E+03	1.501806E-02	1.033355E-03
3.591167E+03	1.514066E-02	1.040891E-03
3.601087E+03	1.526410E-02	1.048466E-03
3.611007E+03	1.538741E-02	1.056013E-03
3.620928E+03	1.551134E-02	1.063584E-03
3.630848E+03	1.563583E-02	1.071174E-03
3.640768E+03	1.575988E-02	1.078715E-03
3.650689E+03	1.588513E-02	1.086320E-03
3.660609E+03	1.600973E-02	1.093861E-03
3.670529E+03	1.613446E-02	1.101391E-03
3.680450E+03	1.625920E-02	1.108901E-03
3.690370E+03	1.638381E-02	1.116384E-03
3.700290E+03	1.650819E-02	1.123832E-03
3.710211E+03	1.663222E-02	1.131236E-03
3.720131E+03	1.675577E-02	1.138588E-03
3.730051E+03	1.687955E-02	1.145935E-03
3.739972E+03	1.700178E-02	1.153158E-03
3.749892E+03	1.712397E-02	1.160358E-03
3.759812E+03	1.724517E-02	1.167472E-03
3.769733E+03	1.736524E-02	1.174489E-03
3.779653E+03	1.748486E-02	1.181456E-03
3.789574E+03	1.760229E-02	1.188255E-03
3.799494E+03	1.771977E-02	1.195038E-03
3.809414E+03	1.783478E-02	1.201635E-03
3.819335E+03	1.794876E-02	1.208143E-03
3.829255E+03	1.806155E-02	1.214552E-03
3.839175E+03	1.817145E-02	1.220748E-03
3.849096E+03	1.828064E-02	1.226877E-03
3.859016E+03	1.838667E-02	1.232776E-03
3.868936E+03	1.849092E-02	1.238536E-03
3.878857E+03	1.859323E-02	1.244149E-03
3.888777E+03	1.869273E-02	1.249555E-03
3.898697E+03	1.878927E-02	1.254747E-03
3.908618E+03	1.888348E-02	1.259764E-03
3.918538E+03	1.897450E-02	1.264553E-03
3.928458E+03	1.906295E-02	1.269153E-03
3.938379E+03	1.914732E-02	1.273465E-03
3.948299E+03	1.922967E-02	1.277627E-03
3.958219E+03	1.930784E-02	1.281497E-03
3.968140E+03	1.938324E-02	1.285166E-03
3.978060E+03	1.945516E-02	1.288591E-03
3.987981E+03	1.952368E-02	1.291776E-03
3.997901E+03	1.958888E-02	1.294728E-03
4.007821E+03	1.965091E-02	1.297457E-03
4.017742E+03	1.971058E-02	1.300017E-03
4.027662E+03	1.976680E-02	1.302337E-03
4.037582E+03	1.982048E-02	1.304478E-03
4.047503E+03	1.987130E-02	1.306418E-03
4.057423E+03	1.992023E-02	1.308223E-03
4.067343E+03	1.996766E-02	1.309918E-03
4.077264E+03	2.001338E-02	1.311490E-03
4.087184E+03	2.005848E-02	1.313011E-03
4.097104E+03	2.010283E-02	1.314471E-03
4.107025E+03	2.014695E-02	1.315906E-03
4.116945E+03	2.019079E-02	1.317312E-03
4.126865E+03	2.023612E-02	1.318805E-03
4.136786E+03	2.028230E-02	1.320342E-03
4.146706E+03	2.033052E-02	1.322001E-03
4.156626E+03	2.038078E-02	1.323781E-03
4.166547E+03	2.043367E-02	1.325720E-03
4.176467E+03	2.049032E-02	1.327890E-03
4.186387E+03	2.055017E-02	1.330256E-03
4.196308E+03	2.061435E-02	1.332889E-03
4.206228E+03	2.068282E-02	1.335786E-03
4.216149E+03	2.075664E-02	1.339013E-03
4.226069E+03	2.083577E-02	1.342567E-03
4.235989E+03	2.092012E-02	1.346442E-03
4.245910E+03	2.101120E-02	1.350733E-03
4.255830E+03	2.110835E-02	1.355396E-03
4.265750E+03	2.121191E-02	1.360452E-03
4.275671E+03	2.132222E-02	1.365921E-03
4.285591E+03	2.143958E-02	1.371820E-03
4.295511E+03	2.156423E-02	1.378164E-03
4.305432E+03	2.169582E-02	1.384928E-03
4.315352E+03	2.183502E-02	1.392154E-03
4.325272E+03	2.198091E-02	1.399781E-03
4.335193E+03	2.213403E-02	1.407842E-03
4.345113E+03	2.229436E-02	1.416333E-03
4.355033E+03	2.246132E-02	1.425217E-03
4.364954E+03	2.263479E-02	1.434485E-03
4.374874E+03	2.281469E-02	1.444129E-03
4.384794E+03	2.300081E-02	1.454136E-03
4.394715E+03	2.319237E-02	1.464454E-03
4.404635E+03	2.338951E-02	1.475090E-03
4.414556E+03	2.359124E-02	1.485982E-03
4.424476E+03	2.379649E-02	1.497061E-03
4.434396E+03	2.400554E-02	1.508342E-03
4.444317E+03	2.421611E-02	1.519683E-03
4.454237E+03	2.442826E-02	1.531086E-03
4.464157E+03	2.464098E-02	1.542488E-03
4.474078E+03	2.485213E-02	1.553756E-03
4.483998E+03	2.506104E-02	1.564846E-03
4.493918E+03	2.526644E-02	1.575680E-03
4.503839E+03	2.546651E-02	1.586147E-03
4.513759E+03	2.566042E-02	1.596195E-03
4.523679E+03	2.584633E-02	1.605712E-03
4.533600E+03	2.602346E-02	1.614650E-03
4.543520E+03	2.618954E-02	1.622872E-03
4.553440E+03	2.634391E-02	1.630338E-03
4.563361E+03	2.648556E-02	1.636990E-03
4.573281E+03	2.661354E-02	1.642772E-03
4.583201E+03	2.672712E-02	1.647641E-03
4.593122E+03	2.682524E-02	1.651537E-03
4.603042E+03	2.690752E-02	1.654438E-03
4.612963E+03	2.697480E-02	1.656402E-03
4.622883E+03	2.702562E-02	1.657341E-03
4.632803E+03	2.706121E-02	1.657336E-03
4.642724E+03	2.708198E-02	1.656415E-03
4.652644E+03	2.708760E-02	1.654560E-03
4.662564E+03	2.707979E-02	1.651882E-03
4.672485E+03	2.705945E-02	1.648439E-03
4.682405E+03	2.702667E-02	1.644237E-03
4.692325E+03	2.698398E-02	1.639436E-03
4.702246E+03	2.693115E-02	1.634022E-03
4.712166E+03	2.687035E-02	1.628131E-03
4.722086E+03	2.680232E-02	1.621808E-03
4.732007E+03	2.672879E-02	1.615161E-03
4.741927E+03	2.665046E-02	1.608233E-03
4.751847E+03	2.656898E-02	1.601124E-03
4.761768E+03	2.648498E-02	1.593874E-03
4.771688E+03	2.639997E-02	1.586574E-03
4.781608E+03	2.631487E-02	1.579279E-03
4.791529E+03	2.623060E-02	1.572044E-03
4.801449E+03	2.614748E-02	1.564890E-03
4.811370E+03	2.606713E-02	1.557912E-03
4.821290E+03	2.598935E-02	1.551097E-03
4.831210E+03	2.591555E-02	1.544530E-03
4.841131E+03	2.584583E-02	1.538216E-03
4.851051E+03	2.578067E-02	1.532181E-03
4.860971E+03	2.572051E-02	1.526450E-03
4.870892E+03	2.566655E-02	1.521095E-03
4.880812E+03	2.561794E-02	1.516063E-03
4.890732E+03	2.557625E-02	1.511446E-03
4.900653E+03	2.554101E-02	1.507214E-03
4.910573E+03	2.551296E-02	1.503409E-03
4.920493E+03	2.549244E-02	1.500050E-03
4.930414E+03	2.547978E-02	1.497154E-03
4.940334E+03	2.547534E-02	1.494740E-03
4.950254E+03	2.547988E-02	1.492851E-03
4.960175E+03	2.549337E-02	1.491483E-03
4.970095E+03	2.551618E-02	1.490656E-03
4.980015E+03	2.554909E-02	1.490412E-03
4.989936E+03	2.559211E-02	1.490750E-03
4.999856E+03	2.564598E-02	1.491710E-03
5.009777E+03	2.571104E-02	1.493310E-03
5.019697E+03	2.578762E-02	1.495565E-03
5.029617E+03	2.587554E-02	1.498463E-03
5.039538E+03	2.597579E-02	1.502057E-03
5.049458E+03	2.608764E-02	1.506304E-03
5.059378E+03	2.621184E-02	1.511242E-03
5.069299E+03	2.634744E-02	1.516815E-03
5.079219E+03	2.649493E-02	1.523048E-03
5.089139E+03	2.665345E-02	1.529888E-03
5.099060E+03	2.682237E-02	1.537297E-03
5.108980E+03	2.700131E-02	1.545250E-03
5.118900E+03	2.718892E-02	1.553668E-03
5.128821E+03	2.738409E-02	1.562485E-03
5.138741E+03	2.758553E-02	1.571626E-03
5.148661E+03	2.779184E-02	1.581010E-03
5.158582E+03	2.800187E-02	1.590571E-03
5.168502E+03	2.821356E-02	1.600191E-03
5.178422E+03	2.842553E-02	1.609791E-03
5.188343E+03	2.863506E-02	1.619218E-03
5.198263E+03	2.884103E-02	1.628410E-03
5.208183E+03	2.904101E-02	1.637231E-03
5.218104E+03	2.923339E-02	1.645591E-03
5.228024E+03	2.941520E-02	1.653325E-03
5.237945E+03	2.958527E-02	1.660372E-03
5.247865E+03	2.974109E-02	1.666594E-03
5.257785E+03	2.988070E-02	1.671884E-03
5.267706E+03	3.000217E-02	1.676140E-03
5.277626E+03	3.010415E-02	1.679291E-03
5.287546E+03	3.018407E-02	1.681199E-03
5.297467E+03	3.024086E-02	1.681810E-03
5.307387E+03	3.027319E-02	1.681057E-03
5.317307E+03	3.027989E-02	1.678881E-03
5.327228E+03	3.026006E-02	1.675238E-03
5.337148E+03	3.021296E-02	1.670096E-03
5.347068E+03	3.013812E-02	1.663435E-03
5.356989E+03	3.003485E-02	1.655223E-03
5.366909E+03	2.990352E-02	1.645490E-03
5.376829E+03	2.974436E-02	1.634254E-03
5.386750E+03	2.955770E-02	1.621542E-03
5.396670E+03	2.934415E-02	1.607392E-03
5.406590E+03	2.910401E-02	1.591828E-03
5.416511E+03	2.883906E-02	1.574956E-03
5.426431E+03	2.854950E-02	1.556791E-03
5.436352E+03	2.823698E-02	1.537429E-03
5.446272E+03	2.790245E-02	1.516928E-03
5.456192E+03	2.754819E-02	1.495416E-03
5.466113E+03	2.717483E-02	1.472932E-03
5.476033E+03	2.678480E-02	1.449612E-03
5.485953E+03	2.637910E-02	1.425514E-03
5.495874E+03	2.596047E-02	1.400789E-03
5.505794E+03	2.553029E-02	1.375515E-03
5.515714E+03	2.509162E-02	1.349858E-03
5.525635E+03	2.464652E-02	1.323932E-03
5.535555E+03	2.419758E-02	1.297876E-03
5.545475E+03	2.374740E-02	1.271830E-03
5.555396E+03	2.329902E-02	1.245956E-03
5.565316E+03	2.285508E-02	1.220397E-03
5.575236E+03	2.241750E-02	1.195251E-03
5.585157E+03	2.198982E-02	1.170706E-03
5.595077E+03	2.157375E-02	1.146850E-03
5.604997E+03	2.117218E-02	1.123834E-03
5.614918E+03	2.078653E-02	1.101729E-03
5.624838E+03	2.041900E-02	1.080648E-03
5.634759E+03	2.007123E-02	1.060672E-03
5.644679E+03	1.974469E-02	1.041876E-03
5.654599E+03	1.944091E-02	1.024333E-03
5.664520E+03	1.916033E-02	1.008062E-03
5.674440E+03	1.890463E-02	9.931460E-04
5.684360E+03	1.867356E-02	9.795654E-04
5.694281E+03	1.846813E-02	9.673668E-04
5.704201E+03	1.828854E-02	9.565558E-04
5.714121E+03	1.813487E-02	9.471296E-04
5.724042E+03	1.800676E-02	9.390639E-04
5.733962E+03	1.790420E-02	9.323522E-04
5.743882E+03	1.782684E-02	9.269704E-04
5.753803E+03	1.777415E-02	9.228849E-04
5.763723E+03	1.774553E-02	9.200599E-04
5.773643E+03	1.774001E-02	9.184387E-04
5.783564E+03	1.775733E-02	9.180035E-04
5.793484E+03	1.779638E-02	9.186917E-04
5.803404E+03	1.785628E-02	9.204531E-04
5.813325E+03	1.793610E-02	9.232353E-04
5.823245E+03	1.803491E-02	9.269860E-04
5.833166E+03	1.815205E-02	9.316672E-04
5.843086E+03	1.828631E-02	9.372134E-04
5.853006E+03	1.843651E-02	9.435603E-04
5.862927E+03	1.860237E-02	9.506904E-04
5.872847E+03	1.878306E-02	9.585586E-04
5.882767E+03	1.897731E-02	9.670960E-04
5.892688E+03	1.918497E-02	9.762937E-04
5.902608E+03	1.940519E-02	9.861045E-04
5.912528E+03	1.963741E-02	9.964985E-04
5.922449E+03	1.988119E-02	1.007451E-03
5.932369E+03	2.013616E-02	1.018941E-03
5.942289E+03	2.040200E-02	1.030949E-03
5.952210E+03	2.067877E-02	1.043479E-03
5.962130E+03	2.096601E-02	1.056504E-03
5.972050E+03	2.126321E-02	1.069996E-03
5.981971E+03	2.157090E-02	1.083981E-03
5.991891E+03	2.188867E-02	1.098437E-03
6.001811E+03	2.221603E-02	1.113336E-03
6.011732E+03	2.255352E-02	1.128706E-03
6.021652E+03	2.290060E-02	1.144517E-03
6.031573E+03	2.325660E-02	1.160734E-03
6.041493E+03	2.362151E-02	1.177356E-03
6.051413E+03	2.399517E-02	1.194373E-03
6.061334E+03	2.437614E-02	1.211713E-03
6.071254E+03	2.476355E-02	1.229332E-03
6.081174E+03	2.515708E-02	1.247213E-03
6.091095E+03	2.555464E-02	1.265252E-03
6.101015E+03	2.595504E-02	1.283390E-03
6.110935E+03	2.635646E-02	1.301538E-03
6.120856E+03	2.675637E-02	1.319571E-03
6.130776E+03	2.715278E-02	1.337393E-03
6.140696E+03	2.754304E-02	1.354874E-03
6.150617E+03	2.792381E-02	1.371853E-03
6.160537E+03	2.829236E-02	1.388197E-03
6.170457E+03	2.864536E-02	1.403747E-03
6.180378E+03	2.897888E-02	1.418315E-03
6.190298E+03	2.928982E-02	1.431752E-03
6.200218E+03	2.957413E-02	1.443866E-03
6.210139E+03	2.982922E-02	1.454537E-03
6.220059E+03	3.005034E-02	1.463539E-03
6.229979E+03	3.023577E-02	1.470795E-03
6.239900E+03	3.038172E-02	1.476127E-03
6.249820E+03	3.048576E-02	1.479425E-03
6.259741E+03	3.054690E-02	1.480650E-03
6.269661E+03	3.056273E-02	1.479692E-03
6.279581E+03	3.053236E-02	1.476516E-03
6.289502E+03	3.045646E-02	1.471162E-03
6.299422E+03	3.033434E-02	1.463605E-03
6.309342E+03	3.016787E-02	1.453943E-03
6.319263E+03	2.995748E-02	1.442203E-03
6.329183E+03	2.970562E-02	1.428511E-03
6.339103E+03	2.941420E-02	1.412964E-03
6.349024E+03	2.908693E-02	1.395747E-03
6.358944E+03	2.872643E-02	1.376990E-03
6.368864E+03	2.833602E-02	1.356857E-03
6.378785E+03	2.791918E-02	1.335518E-03
6.388705E+03	2.747993E-02	1.313169E-03
6.398625E+03	2.702095E-02	1.289940E-03
6.408546E+03	2.654668E-02	1.266045E-03
6.418466E+03	2.606011E-02	1.241626E-03
6.428386E+03	2.556496E-02	1.216862E-03
6.438307E+03	2.506390E-02	1.191878E-03
6.448227E+03	2.456022E-02	1.166832E-03
6.458148E+03	2.405616E-02	1.141827E-03
6.468068E+03	2.355447E-02	1.116995E-03
6.477988E+03	2.305727E-02	1.092432E-03
6.487909E+03	2.256614E-02	1.068213E-03
6.497829E+03	2.208216E-02	1.044387E-03
6.507749E+03	2.160586E-02	1.020976E-03
6.517670E+03	2.113864E-02	9.980450E-04
6.527590E+03	2.068073E-02	9.756022E-04
6.537510E+03	2.023261E-02	9.536683E-04
6.547431E+03	1.979500E-02	9.322755E-04
6.557351E+03	1.936791E-02	9.114215E-04
6.567271E+03	1.895165E-02	8.911190E-04
6.577192E+03	1.854681E-02	8.713935E-04
6.587112E+03	1.815364E-02	8.522552E-04
6.597032E+03	1.777208E-02	8.336992E-04
6.606953E+03	1.740270E-02	8.157494E-04
6.616873E+03	1.704571E-02	7.984145E-04
6.626793E+03	1.670133E-02	7.817025E-04
6.636714E+03	1.636945E-02	7.656064E-04
6.646634E+03	1.605085E-02	7.501606E-04
6.656555E+03	1.574535E-02	7.353551E-04
6.666475E+03	1.545338E-02	7.212075E-04
6.676395E+03	1.517445E-02	7.076939E-04
6.686316E+03	1.490917E-02	6.948405E-04
6.696236E+03	1.465753E-02	6.826454E-04
6.706156E+03	1.441903E-02	6.710831E-04
6.716077E+03	1.419437E-02	6.601848E-04
6.725997E+03	1.398297E-02	6.499221E-04
6.735917E+03	1.378473E-02	6.402885E-04
6.745838E+03	1.359978E-02	6.312885E-04
6.755758E+03	1.342797E-02	6.229139E-04
6.765678E+03	1.326911E-02	6.151542E-04
6.775599E+03	1.312281E-02	6.079899E-04
6.785519E+03	1.298908E-02	6.014206E-04
6.795439E+03	1.286794E-02	5.954458E-04
6.805360E+03	1.275872E-02	5.900327E-04
6.815280E+03	1.266140E-02	5.851799E-04
6.825200E+03	1.257552E-02	5.808647E-04
6.835121E+03	1.250127E-02	5.770949E-04
6.845041E+03	1.243817E-02	5.738470E-04
6.854962E+03	1.238595E-02	5.711076E-04
6.864882E+03	1.234433E-02	5.688630E-04
6.874802E+03	1.231280E-02	5.670889E-04
6.884723E+03	1.229152E-02	5.657914E-04
6.894643E+03	1.227996E-02	5.649456E-04
6.904563E+03	1.227782E-02	5.645366E-04
6.914484E+03	1.228455E-02	5.645389E-04
6.924404E+03	1.230028E-02	5.649575E-04
6.934324E+03	1.232424E-02	5.657559E-04
6.944245E+03	1.235652E-02	5.669385E-04
6.954165E+03	1.239634E-02	5.684684E-04
6.964085E+03	1.244357E-02	5.703389E-04
6.974006E+03	1.249784E-02	5.725331E-04
6.983926E+03	1.255878E-02	5.750336E-04
6.993846E+03	1.262580E-02	5.778123E-04
7.003767E+03	1.269896E-02	5.808723E-04
7.013687E+03	1.277718E-02	5.841633E-04
7.023607E+03	1.286076E-02	5.876989E-04
7.033528E+03	1.294881E-02	5.914386E-04
7.043448E+03	1.304092E-02	5.953631E-04
7.053369E+03	1.313690E-02	5.994635E-04
7.063289E+03	1.323607E-02	6.037089E-04
7.073209E+03	1.333800E-02	6.080789E-04
7.083130E+03	1.344246E-02	6.125642E-04
7.093050E+03	1.354878E-02	6.171329E-04
7.102970E+03	1.365646E-02	6.217632E-04
7.112891E+03	1.376505E-02	6.264346E-04
7.122811E+03	1.387382E-02	6.311133E-04
7.132731E+03	1.398281E-02	6.358020E-04
7.142652E+03	1.409128E-02	6.404668E-04
7.152572E+03	1.419851E-02	6.450754E-04
7.162492E+03	1.430431E-02	6.496191E-04
7.172413E+03	1.440797E-02	6.540660E-04
7.182333E+03	1.450930E-02	6.584081E-04
7.192253E+03	1.460763E-02	6.626151E-04
7.202174E+03	1.470257E-02	6.666699E-04
7.212094E+03	1.479404E-02	6.705686E-04
7.222014E+03	1.488144E-02	6.742848E-04
7.231935E+03	1.496449E-02	6.778065E-04
7.241855E+03	1.504295E-02	6.811226E-04
7.251775E+03	1.511636E-02	6.842132E-04
7.261696E+03	1.518513E-02	6.870968E-04
7.271616E+03	1.524861E-02	6.897453E-04
7.281537E+03	1.530737E-02	6.921840E-04
7.291457E+03	1.536058E-02	6.943762E-04
7.301377E+03	1.540918E-02	6.963652E-04
7.311298E+03	1.545249E-02	6.981197E-04
7.321218E+03	1.549155E-02	6.996880E-04
7.331138E+03	1.552577E-02	7.010432E-04
7.341059E+03	1.555606E-02	7.022269E-04
7.350979E+03	1.558245E-02	7.032413E-04
7.360899E+03	1.560565E-02	7.041187E-04
7.370820E+03	1.562551E-02	7.048521E-04
7.380740E+03	1.564308E-02	7.054894E-04
7.390660E+03	1.565854E-02	7.060393E-04
7.400581E+03	1.567242E-02	7.065253E-04
7.410501E+03	1.568520E-02	7.069701E-04
7.420421E+03	1.569740E-02	7.073973E-04
7.430342E+03	1.570956E-02	7.078308E-04
7.440262E+03	1.572214E-02	7.082925E-04
7.450182E+03	1.573568E-02	7.088059E-04
7.460103E+03	1.575061E-02	7.093917E-04
7.470023E+03	1.576739E-02	7.100696E-04
7.479944E+03	1.578609E-02	7.108445E-04
7.489864E+03	1.580771E-02	7.117604E-04
7.499784E+03	1.583194E-02	7.128040E-04
7.509705E+03	1.585965E-02	7.140154E-04
7.519625E+03	1.589046E-02	7.153769E-04
7.529545E+03	1.592483E-02	7.169097E-04
7.539466E+03	1.596283E-02	7.186176E-04
7.549386E+03	1.600449E-02	7.205018E-04
7.559306E+03	1.604944E-02	7.225468E-04
7.569227E+03	1.609817E-02	7.247744E-04
7.579147E+03	1.614987E-02	7.271489E-04
7.589067E+03	1.620455E-02	7.296709E-04
7.598988E+03	1.626185E-02	7.323248E-04
7.608908E+03	1.632134E-02	7.350916E-04
7.618828E+03	1.638218E-02	7.379340E-04
7.628749E+03	1.644440E-02	7.408539E-04
7.638669E+03	1.650669E-02	7.437930E-04
7.648589E+03	1.656866E-02	7.467340E-04
7.658510E+03	1.662947E-02	7.496393E-04
7.668430E+03	1.668797E-02	7.524577E-04
7.678351E+03	1.674387E-02	7.551768E-04
7.688271E+03	1.679560E-02	7.577254E-04
7.698191E+03	1.684245E-02	7.600731E-04
