#wls	flux	fluxerr
1.587256E+03	2.864094E-03	5.617786E-05
1.626937E+03	2.915355E-03	5.718301E-05
1.666619E+03	2.968490E-03	5.822487E-05
1.706300E+03	3.023012E-03	5.929392E-05
1.745982E+03	3.078931E-03	6.039035E-05
1.785663E+03	3.137316E-03	6.153513E-05
1.825344E+03	3.197135E-03	6.270801E-05
1.865026E+03	3.258390E-03	6.390903E-05
1.904707E+03	3.322191E-03	6.515995E-05
1.944389E+03	3.388013E-03	6.645050E-05
1.984070E+03	3.455878E-03	6.778106E-05
2.023751E+03	3.525794E-03	6.915183E-05
2.063433E+03	3.598358E-03	7.057448E-05
2.103114E+03	3.673005E-03	7.203797E-05
2.142795E+03	3.749737E-03	7.354231E-05
2.182477E+03	3.829768E-03	7.511130E-05
2.222158E+03	3.911902E-03	7.672149E-05
2.261840E+03	3.997375E-03	7.839713E-05
2.301521E+03	4.084949E-03	8.011392E-05
2.341202E+03	4.175876E-03	8.189643E-05
2.380884E+03	4.270170E-03	8.374491E-05
2.420565E+03	4.367179E-03	8.564657E-05
2.460247E+03	4.467535E-03	8.761383E-05
2.499928E+03	4.571224E-03	8.964638E-05
2.539609E+03	4.678898E-03	9.175702E-05
2.579291E+03	4.789167E-03	9.391847E-05
2.618972E+03	4.904037E-03	9.617008E-05
2.658654E+03	5.022786E-03	9.849767E-05
2.698335E+03	5.145347E-03	1.008999E-04
2.738016E+03	5.271643E-03	1.033754E-04
2.777698E+03	5.402294E-03	1.059361E-04
2.817379E+03	5.536473E-03	1.085659E-04
2.857061E+03	5.675508E-03	1.112909E-04
2.896742E+03	5.818528E-03	1.140939E-04
2.936423E+03	5.966107E-03	1.169861E-04
2.976105E+03	6.118060E-03	1.199641E-04
2.986025E+03	6.156637E-03	1.207201E-04
2.995946E+03	6.195896E-03	1.214894E-04
3.005866E+03	6.235077E-03	1.222573E-04
3.015786E+03	6.274934E-03	1.230383E-04
3.025707E+03	6.314706E-03	1.238177E-04
3.035627E+03	6.354385E-03	1.245953E-04
3.045547E+03	6.394729E-03	1.253859E-04
3.055468E+03	6.434972E-03	1.261745E-04
3.065388E+03	6.475873E-03	1.269760E-04
3.075308E+03	6.517429E-03	1.277904E-04
3.085229E+03	6.558870E-03	1.286025E-04
3.095149E+03	6.600190E-03	1.294122E-04
3.105069E+03	6.642152E-03	1.302344E-04
3.114990E+03	6.683982E-03	1.310541E-04
3.124910E+03	6.726445E-03	1.318862E-04
3.134830E+03	6.769537E-03	1.327306E-04
3.144751E+03	6.812482E-03	1.335721E-04
3.154671E+03	6.855272E-03	1.344106E-04
3.164591E+03	6.898675E-03	1.352611E-04
3.174512E+03	6.942689E-03	1.361235E-04
3.184432E+03	6.986531E-03	1.369826E-04
3.194353E+03	7.030195E-03	1.378381E-04
3.204273E+03	7.075228E-03	1.387205E-04
3.214193E+03	7.119294E-03	1.395840E-04
3.224114E+03	7.164720E-03	1.404740E-04
3.234034E+03	7.209163E-03	1.413448E-04
3.243954E+03	7.254957E-03	1.422421E-04
3.253875E+03	7.300534E-03	1.431351E-04
3.263795E+03	7.345889E-03	1.440238E-04
3.273715E+03	7.392577E-03	1.449386E-04
3.283636E+03	7.438247E-03	1.458334E-04
3.293556E+03	7.485239E-03	1.467541E-04
3.303476E+03	7.531198E-03	1.476545E-04
3.313397E+03	7.578468E-03	1.485807E-04
3.323317E+03	7.625473E-03	1.495016E-04
3.333237E+03	7.672993E-03	1.504326E-04
3.343158E+03	7.720234E-03	1.513582E-04
3.353078E+03	7.767976E-03	1.522935E-04
3.362998E+03	7.815427E-03	1.532231E-04
3.372919E+03	7.863365E-03	1.541623E-04
3.382839E+03	7.911782E-03	1.551109E-04
3.392760E+03	7.959889E-03	1.560533E-04
3.402680E+03	8.008463E-03	1.570049E-04
3.412600E+03	8.057497E-03	1.579655E-04
3.422521E+03	8.106199E-03	1.589196E-04
3.432441E+03	8.155349E-03	1.598825E-04
3.442361E+03	8.204153E-03	1.608385E-04
3.452282E+03	8.253392E-03	1.618031E-04
3.462202E+03	8.303060E-03	1.627761E-04
3.472122E+03	8.352364E-03	1.637419E-04
3.482043E+03	8.402083E-03	1.647159E-04
3.491963E+03	8.451428E-03	1.656825E-04
3.501883E+03	8.501963E-03	1.666724E-04
3.511804E+03	8.551326E-03	1.676393E-04
3.521724E+03	8.601868E-03	1.686293E-04
3.531644E+03	8.652013E-03	1.696116E-04
3.541565E+03	8.702543E-03	1.706013E-04
3.551485E+03	8.752667E-03	1.715831E-04
3.561405E+03	8.803166E-03	1.725723E-04
3.571326E+03	8.853252E-03	1.735533E-04
3.581246E+03	8.904489E-03	1.745569E-04
3.591167E+03	8.955306E-03	1.755522E-04
3.601087E+03	9.005701E-03	1.765393E-04
3.611007E+03	9.056455E-03	1.775333E-04
3.620928E+03	9.107564E-03	1.785343E-04
3.630848E+03	9.158247E-03	1.795270E-04
3.640768E+03	9.209283E-03	1.805265E-04
3.650689E+03	9.260671E-03	1.815330E-04
3.660609E+03	9.311630E-03	1.825310E-04
3.670529E+03	9.362942E-03	1.835359E-04
3.680450E+03	9.414604E-03	1.845477E-04
3.690370E+03	9.465845E-03	1.855511E-04
3.700290E+03	9.516664E-03	1.865464E-04
3.710211E+03	9.568617E-03	1.875638E-04
3.720131E+03	9.619382E-03	1.885579E-04
3.730051E+03	9.671287E-03	1.895744E-04
3.739972E+03	9.722787E-03	1.905828E-04
3.749892E+03	9.774663E-03	1.915987E-04
3.759812E+03	9.826146E-03	1.926069E-04
3.769733E+03	9.878019E-03	1.936226E-04
3.779653E+03	9.929517E-03	1.946310E-04
3.789574E+03	9.981419E-03	1.956473E-04
3.799494E+03	1.003373E-02	1.966716E-04
3.809414E+03	1.008570E-02	1.976892E-04
3.819335E+03	1.013734E-02	1.987003E-04
3.829255E+03	1.018942E-02	1.997200E-04
3.839175E+03	1.024196E-02	2.007487E-04
3.849096E+03	1.029420E-02	2.017717E-04
3.859016E+03	1.034693E-02	2.028041E-04
3.868936E+03	1.039940E-02	2.038314E-04
3.878857E+03	1.045163E-02	2.048539E-04
3.888777E+03	1.050438E-02	2.058868E-04
3.898697E+03	1.055769E-02	2.069304E-04
3.908618E+03	1.061081E-02	2.079704E-04
3.918538E+03	1.066451E-02	2.090218E-04
3.928458E+03	1.071732E-02	2.100555E-04
3.938379E+03	1.077150E-02	2.111163E-04
3.948299E+03	1.082483E-02	2.121604E-04
3.958219E+03	1.087958E-02	2.132322E-04
3.968140E+03	1.093353E-02	2.142882E-04
3.978060E+03	1.098819E-02	2.153583E-04
3.987981E+03	1.104284E-02	2.164282E-04
3.997901E+03	1.109826E-02	2.175130E-04
4.007821E+03	1.115372E-02	2.185987E-04
4.017742E+03	1.120924E-02	2.196856E-04
4.027662E+03	1.126487E-02	2.207745E-04
4.037582E+03	1.132135E-02	2.218801E-04
4.047503E+03	1.137798E-02	2.229887E-04
4.057423E+03	1.143552E-02	2.241150E-04
4.067343E+03	1.149252E-02	2.252307E-04
4.077264E+03	1.155047E-02	2.263651E-04
4.087184E+03	1.160867E-02	2.275043E-04
4.097104E+03	1.166714E-02	2.286487E-04
4.107025E+03	1.172663E-02	2.298132E-04
4.116945E+03	1.178569E-02	2.309693E-04
4.126865E+03	1.184583E-02	2.321464E-04
4.136786E+03	1.190631E-02	2.333302E-04
4.146706E+03	1.196716E-02	2.345213E-04
4.156626E+03	1.202840E-02	2.357198E-04
4.166547E+03	1.209003E-02	2.369262E-04
4.176467E+03	1.215208E-02	2.381406E-04
4.186387E+03	1.221455E-02	2.393633E-04
4.196308E+03	1.227818E-02	2.406087E-04
4.206228E+03	1.234152E-02	2.418485E-04
4.216149E+03	1.240531E-02	2.430969E-04
4.226069E+03	1.246954E-02	2.443541E-04
4.235989E+03	1.253422E-02	2.456200E-04
4.245910E+03	1.259935E-02	2.468945E-04
4.255830E+03	1.266492E-02	2.481780E-04
4.265750E+03	1.273095E-02	2.494701E-04
4.275671E+03	1.279740E-02	2.507706E-04
4.285591E+03	1.286354E-02	2.520651E-04
4.295511E+03	1.293083E-02	2.533820E-04
4.305432E+03	1.299779E-02	2.546923E-04
4.315352E+03	1.306514E-02	2.560103E-04
4.325272E+03	1.313213E-02	2.573213E-04
4.335193E+03	1.320020E-02	2.586536E-04
4.345113E+03	1.326787E-02	2.599778E-04
4.355033E+03	1.333586E-02	2.613082E-04
4.364954E+03	1.340415E-02	2.626445E-04
4.374874E+03	1.347198E-02	2.639717E-04
4.384794E+03	1.354006E-02	2.653040E-04
4.394715E+03	1.360765E-02	2.666264E-04
4.404635E+03	1.367615E-02	2.679669E-04
4.414556E+03	1.374339E-02	2.692825E-04
4.424476E+03	1.381153E-02	2.706157E-04
4.434396E+03	1.387907E-02	2.719372E-04
4.444317E+03	1.394600E-02	2.732467E-04
4.454237E+03	1.401304E-02	2.745583E-04
4.464157E+03	1.408017E-02	2.758716E-04
4.474078E+03	1.414663E-02	2.771719E-04
4.483998E+03	1.421314E-02	2.784730E-04
4.493918E+03	1.427898E-02	2.797612E-04
4.503839E+03	1.434413E-02	2.810355E-04
4.513759E+03	1.440930E-02	2.823103E-04
4.523679E+03	1.447376E-02	2.835714E-04
4.533600E+03	1.453827E-02	2.848331E-04
4.543520E+03	1.460206E-02	2.860809E-04
4.553440E+03	1.466590E-02	2.873295E-04
4.563361E+03	1.472905E-02	2.885647E-04
4.573281E+03	1.479152E-02	2.897865E-04
4.583201E+03	1.485408E-02	2.910100E-04
4.593122E+03	1.491526E-02	2.922065E-04
4.603042E+03	1.497729E-02	2.934196E-04
4.612963E+03	1.503801E-02	2.946071E-04
4.622883E+03	1.509889E-02	2.957977E-04
4.632803E+03	1.515926E-02	2.969782E-04
4.642724E+03	1.521912E-02	2.981487E-04
4.652644E+03	1.527927E-02	2.993248E-04
4.662564E+03	1.533900E-02	3.004927E-04
4.672485E+03	1.539835E-02	3.016532E-04
4.682405E+03	1.545737E-02	3.028071E-04
4.692325E+03	1.551683E-02	3.039698E-04
4.702246E+03	1.557604E-02	3.051274E-04
4.712166E+03	1.563433E-02	3.062669E-04
4.722086E+03	1.569392E-02	3.074320E-04
4.732007E+03	1.575266E-02	3.085803E-04
4.741927E+03	1.581135E-02	3.097277E-04
4.751847E+03	1.587073E-02	3.108886E-04
4.761768E+03	1.593012E-02	3.120497E-04
4.771688E+03	1.598958E-02	3.132120E-04
4.781608E+03	1.604913E-02	3.143761E-04
4.791529E+03	1.610879E-02	3.155424E-04
4.801449E+03	1.616934E-02	3.167261E-04
4.811370E+03	1.622934E-02	3.178989E-04
4.821290E+03	1.629027E-02	3.190899E-04
4.831210E+03	1.635141E-02	3.202851E-04
4.841131E+03	1.641278E-02	3.214848E-04
4.851051E+03	1.647440E-02	3.226892E-04
4.860971E+03	1.653624E-02	3.238980E-04
4.870892E+03	1.659906E-02	3.251261E-04
4.880812E+03	1.666136E-02	3.263438E-04
4.890732E+03	1.672461E-02	3.275802E-04
4.900653E+03	1.678804E-02	3.288200E-04
4.910573E+03	1.685087E-02	3.300480E-04
4.920493E+03	1.691455E-02	3.312928E-04
4.930414E+03	1.697830E-02	3.325387E-04
4.940334E+03	1.704204E-02	3.337847E-04
4.950254E+03	1.710648E-02	3.350441E-04
4.960175E+03	1.717003E-02	3.362862E-04
4.970095E+03	1.723413E-02	3.375390E-04
4.980015E+03	1.729718E-02	3.387711E-04
4.989936E+03	1.736058E-02	3.400102E-04
4.999856E+03	1.742346E-02	3.412391E-04
5.009777E+03	1.748574E-02	3.424562E-04
5.019697E+03	1.754727E-02	3.436586E-04
5.029617E+03	1.760793E-02	3.448438E-04
5.039538E+03	1.766757E-02	3.460092E-04
5.049458E+03	1.772681E-02	3.471667E-04
5.059378E+03	1.778397E-02	3.482834E-04
5.069299E+03	1.784041E-02	3.493858E-04
5.079219E+03	1.789519E-02	3.504560E-04
5.089139E+03	1.794815E-02	3.514904E-04
5.099060E+03	1.799910E-02	3.524853E-04
5.108980E+03	1.804787E-02	3.534375E-04
5.118900E+03	1.809424E-02	3.543430E-04
5.128821E+03	1.813881E-02	3.552130E-04
5.138741E+03	1.818061E-02	3.560287E-04
5.148661E+03	1.821868E-02	3.567715E-04
5.158582E+03	1.825437E-02	3.574674E-04
5.168502E+03	1.828669E-02	3.580976E-04
5.178422E+03	1.831623E-02	3.586732E-04
5.188343E+03	1.834127E-02	3.591607E-04
5.198263E+03	1.836316E-02	3.595864E-04
5.208183E+03	1.838095E-02	3.599319E-04
5.218104E+03	1.839448E-02	3.601940E-04
5.228024E+03	1.840355E-02	3.603689E-04
5.237945E+03	1.840805E-02	3.604541E-04
5.247865E+03	1.840859E-02	3.604617E-04
5.257785E+03	1.840348E-02	3.603590E-04
5.267706E+03	1.839416E-02	3.601736E-04
5.277626E+03	1.838051E-02	3.599034E-04
5.287546E+03	1.836089E-02	3.595165E-04
5.297467E+03	1.833679E-02	3.590417E-04
5.307387E+03	1.830736E-02	3.584626E-04
5.317307E+03	1.827255E-02	3.577782E-04
5.327228E+03	1.823235E-02	3.569883E-04
5.337148E+03	1.818675E-02	3.560926E-04
5.347068E+03	1.813648E-02	3.551056E-04
5.356989E+03	1.808084E-02	3.540133E-04
5.366909E+03	1.802060E-02	3.528312E-04
5.376829E+03	1.795436E-02	3.515315E-04
5.386750E+03	1.788367E-02	3.501446E-04
5.396670E+03	1.780790E-02	3.486585E-04
5.406590E+03	1.772789E-02	3.470893E-04
5.416511E+03	1.764308E-02	3.454261E-04
5.426431E+03	1.755366E-02	3.436726E-04
5.436352E+03	1.745984E-02	3.418332E-04
5.446272E+03	1.736258E-02	3.399263E-04
5.456192E+03	1.726149E-02	3.379445E-04
5.466113E+03	1.715689E-02	3.358941E-04
5.476033E+03	1.704987E-02	3.337962E-04
5.485953E+03	1.694013E-02	3.316452E-04
5.495874E+03	1.682811E-02	3.294496E-04
5.505794E+03	1.671491E-02	3.272310E-04
5.515714E+03	1.660031E-02	3.249849E-04
5.525635E+03	1.648473E-02	3.227199E-04
5.535555E+03	1.636931E-02	3.204577E-04
5.545475E+03	1.625376E-02	3.181932E-04
5.555396E+03	1.613852E-02	3.159348E-04
5.565316E+03	1.602464E-02	3.137032E-04
5.575236E+03	1.591252E-02	3.115058E-04
5.585157E+03	1.580122E-02	3.093245E-04
5.595077E+03	1.569303E-02	3.072043E-04
5.604997E+03	1.558638E-02	3.051142E-04
5.614918E+03	1.548285E-02	3.030854E-04
5.624838E+03	1.538275E-02	3.011236E-04
5.634759E+03	1.528574E-02	2.992222E-04
5.644679E+03	1.519209E-02	2.973869E-04
5.654599E+03	1.510266E-02	2.956341E-04
5.664520E+03	1.501708E-02	2.939566E-04
5.674440E+03	1.493616E-02	2.923705E-04
5.684360E+03	1.485949E-02	2.908675E-04
5.694281E+03	1.478785E-02	2.894631E-04
5.704201E+03	1.472080E-02	2.881485E-04
5.714121E+03	1.465907E-02	2.869380E-04
5.724042E+03	1.460220E-02	2.858227E-04
5.733962E+03	1.455087E-02	2.848159E-04
5.743882E+03	1.450459E-02	2.839080E-04
5.753803E+03	1.446401E-02	2.831117E-04
5.763723E+03	1.442862E-02	2.824168E-04
5.773643E+03	1.439900E-02	2.818351E-04
5.783564E+03	1.437465E-02	2.813563E-04
5.793484E+03	1.435609E-02	2.809911E-04
5.803404E+03	1.434338E-02	2.807402E-04
5.813325E+03	1.433585E-02	2.805909E-04
5.823245E+03	1.433409E-02	2.805543E-04
5.833166E+03	1.433743E-02	2.806177E-04
5.843086E+03	1.434638E-02	2.807909E-04
5.853006E+03	1.436087E-02	2.810725E-04
5.862927E+03	1.438021E-02	2.814490E-04
5.872847E+03	1.440484E-02	2.819291E-04
5.882767E+03	1.443405E-02	2.824988E-04
5.892688E+03	1.446826E-02	2.831664E-04
5.902608E+03	1.450731E-02	2.839287E-04
5.912528E+03	1.455041E-02	2.847703E-04
5.922449E+03	1.459794E-02	2.856985E-04
5.932369E+03	1.464908E-02	2.866973E-04
5.942289E+03	1.470475E-02	2.877849E-04
5.952210E+03	1.476352E-02	2.889330E-04
5.962130E+03	1.482507E-02	2.901358E-04
5.972050E+03	1.489031E-02	2.914105E-04
5.981971E+03	1.495769E-02	2.927271E-04
5.991891E+03	1.502684E-02	2.940784E-04
6.001811E+03	1.509864E-02	2.954817E-04
6.011732E+03	1.517146E-02	2.969047E-04
6.021652E+03	1.524486E-02	2.983393E-04
6.031573E+03	1.531970E-02	2.998018E-04
6.041493E+03	1.539422E-02	3.012582E-04
6.051413E+03	1.546863E-02	3.027123E-04
6.061334E+03	1.554241E-02	3.041542E-04
6.071254E+03	1.561444E-02	3.055618E-04
6.081174E+03	1.568551E-02	3.069505E-04
6.091095E+03	1.575378E-02	3.082846E-04
6.101015E+03	1.581873E-02	3.095536E-04
6.110935E+03	1.588116E-02	3.107732E-04
6.120856E+03	1.593919E-02	3.119069E-04
6.130776E+03	1.599297E-02	3.129573E-04
6.140696E+03	1.604198E-02	3.139145E-04
6.150617E+03	1.608571E-02	3.147681E-04
6.160537E+03	1.612299E-02	3.154958E-04
6.170457E+03	1.615402E-02	3.161010E-04
6.180378E+03	1.617835E-02	3.165751E-04
6.190298E+03	1.619554E-02	3.169096E-04
6.200218E+03	1.620522E-02	3.170970E-04
6.210139E+03	1.620703E-02	3.171306E-04
6.220059E+03	1.619997E-02	3.169906E-04
6.229979E+03	1.618444E-02	3.166849E-04
6.239900E+03	1.616023E-02	3.162093E-04
6.249820E+03	1.612717E-02	3.155605E-04
6.259741E+03	1.608512E-02	3.147361E-04
6.269661E+03	1.603337E-02	3.137217E-04
6.279581E+03	1.597323E-02	3.125431E-04
6.289502E+03	1.590340E-02	3.111751E-04
6.299422E+03	1.582468E-02	3.096330E-04
6.309342E+03	1.573786E-02	3.079325E-04
6.319263E+03	1.564185E-02	3.060523E-04
6.329183E+03	1.553690E-02	3.039973E-04
6.339103E+03	1.542466E-02	3.017995E-04
6.349024E+03	1.530483E-02	2.994533E-04
6.358944E+03	1.517781E-02	2.969665E-04
6.368864E+03	1.504341E-02	2.943353E-04
6.378785E+03	1.490340E-02	2.915944E-04
6.388705E+03	1.475701E-02	2.887288E-04
6.398625E+03	1.460545E-02	2.857619E-04
6.408546E+03	1.444987E-02	2.827166E-04
6.418466E+03	1.428962E-02	2.795799E-04
6.428386E+03	1.412591E-02	2.763755E-04
6.438307E+03	1.395934E-02	2.731152E-04
6.448227E+03	1.379047E-02	2.698101E-04
6.458148E+03	1.361991E-02	2.664718E-04
6.468068E+03	1.344820E-02	2.631110E-04
6.477988E+03	1.327587E-02	2.597382E-04
6.487909E+03	1.310340E-02	2.563628E-04
6.497829E+03	1.293127E-02	2.529939E-04
6.507749E+03	1.275991E-02	2.496403E-04
6.517670E+03	1.258918E-02	2.462989E-04
6.527590E+03	1.242053E-02	2.429984E-04
6.537510E+03	1.225379E-02	2.397352E-04
6.547431E+03	1.208929E-02	2.365159E-04
6.557351E+03	1.192735E-02	2.333468E-04
6.567271E+03	1.176829E-02	2.302339E-04
6.577192E+03	1.161238E-02	2.271829E-04
6.587112E+03	1.145942E-02	2.241896E-04
6.597032E+03	1.131066E-02	2.212784E-04
6.606953E+03	1.116584E-02	2.184443E-04
6.616873E+03	1.102519E-02	2.156918E-04
6.626793E+03	1.088892E-02	2.130251E-04
6.636714E+03	1.075724E-02	2.104481E-04
6.646634E+03	1.063031E-02	2.079643E-04
6.656555E+03	1.050832E-02	2.055770E-04
6.666475E+03	1.039141E-02	2.032891E-04
6.676395E+03	1.027973E-02	2.011035E-04
6.686316E+03	1.017384E-02	1.990313E-04
6.696236E+03	1.007297E-02	1.970572E-04
6.706156E+03	9.977660E-03	1.951921E-04
6.716077E+03	9.888009E-03	1.934376E-04
6.725997E+03	9.804523E-03	1.918038E-04
6.735917E+03	9.726408E-03	1.902750E-04
6.745838E+03	9.654579E-03	1.888693E-04
6.755758E+03	9.588237E-03	1.875708E-04
6.765678E+03	9.528266E-03	1.863971E-04
6.775599E+03	9.473861E-03	1.853322E-04
6.785519E+03	9.425881E-03	1.843930E-04
6.795439E+03	9.383926E-03	1.835718E-04
6.805360E+03	9.347596E-03	1.828605E-04
6.815280E+03	9.317717E-03	1.822755E-04
6.825200E+03	9.293876E-03	1.818086E-04
6.835121E+03	9.276061E-03	1.814596E-04
6.845041E+03	9.264260E-03	1.812283E-04
6.854962E+03	9.258449E-03	1.811141E-04
6.864882E+03	9.258598E-03	1.811166E-04
6.874802E+03	9.264675E-03	1.812350E-04
6.884723E+03	9.277046E-03	1.814765E-04
6.894643E+03	9.294840E-03	1.818241E-04
6.904563E+03	9.318413E-03	1.822848E-04
6.914484E+03	9.347696E-03	1.828572E-04
6.924404E+03	9.383036E-03	1.835481E-04
6.934324E+03	9.423516E-03	1.843396E-04
6.944245E+03	9.469459E-03	1.852379E-04
6.954165E+03	9.521190E-03	1.862494E-04
6.964085E+03	9.577745E-03	1.873553E-04
6.974006E+03	9.639856E-03	1.885699E-04
6.983926E+03	9.706525E-03	1.898736E-04
6.993846E+03	9.778470E-03	1.912806E-04
7.003767E+03	9.855096E-03	1.927791E-04
7.013687E+03	9.935781E-03	1.943571E-04
7.023607E+03	1.002122E-02	1.960281E-04
7.033528E+03	1.011032E-02	1.977705E-04
7.043448E+03	1.020375E-02	1.995978E-04
7.053369E+03	1.030083E-02	2.014964E-04
7.063289E+03	1.040083E-02	2.034524E-04
7.073209E+03	1.050443E-02	2.054786E-04
7.083130E+03	1.061040E-02	2.075510E-04
7.093050E+03	1.071938E-02	2.096825E-04
7.102970E+03	1.083010E-02	2.118480E-04
7.112891E+03	1.094321E-02	2.140602E-04
7.122811E+03	1.105738E-02	2.162932E-04
7.132731E+03	1.117325E-02	2.185595E-04
7.142652E+03	1.128946E-02	2.208324E-04
7.152572E+03	1.140612E-02	2.231142E-04
7.162492E+03	1.152340E-02	2.254080E-04
7.172413E+03	1.163986E-02	2.276858E-04
7.182333E+03	1.175563E-02	2.299501E-04
7.192253E+03	1.187033E-02	2.321935E-04
7.202174E+03	1.198356E-02	2.344083E-04
7.212094E+03	1.209496E-02	2.365871E-04
7.222014E+03	1.220414E-02	2.387226E-04
7.231935E+03	1.231019E-02	2.407967E-04
7.241855E+03	1.241387E-02	2.428246E-04
7.251775E+03	1.251428E-02	2.447885E-04
7.261696E+03	1.261052E-02	2.466711E-04
7.271616E+03	1.270288E-02	2.484776E-04
7.281537E+03	1.279107E-02	2.502025E-04
7.291457E+03	1.287543E-02	2.518524E-04
7.301377E+03	1.295394E-02	2.533882E-04
7.311298E+03	1.302821E-02	2.548408E-04
7.321218E+03	1.309742E-02	2.561946E-04
7.331138E+03	1.316087E-02	2.574357E-04
7.341059E+03	1.321963E-02	2.585850E-04
7.350979E+03	1.327238E-02	2.596167E-04
7.360899E+03	1.331968E-02	2.605421E-04
7.370820E+03	1.336087E-02	2.613478E-04
7.380740E+03	1.339719E-02	2.620583E-04
7.390660E+03	1.342740E-02	2.626492E-04
7.400581E+03	1.345280E-02	2.631462E-04
7.410501E+03	1.347220E-02	2.635258E-04
7.420421E+03	1.348630E-02	2.638017E-04
7.430342E+03	1.349460E-02	2.639641E-04
7.440262E+03	1.349844E-02	2.640393E-04
7.450182E+03	1.349670E-02	2.640056E-04
7.460103E+03	1.349018E-02	2.638782E-04
7.470023E+03	1.347837E-02	2.636474E-04
7.479944E+03	1.346271E-02	2.633413E-04
7.489864E+03	1.344212E-02	2.629387E-04
7.499784E+03	1.341737E-02	2.624548E-04
7.509705E+03	1.338864E-02	2.618931E-04
7.519625E+03	1.335549E-02	2.612449E-04
7.529545E+03	1.331933E-02	2.605380E-04
7.539466E+03	1.327909E-02	2.597511E-04
7.549386E+03	1.323491E-02	2.588873E-04
7.559306E+03	1.318822E-02	2.579744E-04
7.569227E+03	1.313792E-02	2.569908E-04
7.579147E+03	1.308478E-02	2.559519E-04
7.589067E+03	1.302832E-02	2.548477E-04
7.598988E+03	1.296992E-02	2.537058E-04
7.608908E+03	1.290846E-02	2.525040E-04
7.618828E+03	1.284405E-02	2.512447E-04
7.628749E+03	1.277805E-02	2.499541E-04
7.638669E+03	1.270934E-02	2.486106E-04
7.648589E+03	1.263862E-02	2.472277E-04
7.658510E+03	1.256537E-02	2.457954E-04
7.668430E+03	1.249029E-02	2.443273E-04
7.678351E+03	1.241348E-02	2.428253E-04
7.688271E+03	1.233499E-02	2.412906E-04
7.698191E+03	1.225430E-02	2.397128E-04
