#wls	flux	fluxerr
1.587302E+03	4.176160E-18	2.261483E-19
1.626984E+03	4.201927E-18	2.275041E-19
1.666667E+03	4.231563E-18	2.290675E-19
1.706349E+03	4.265056E-18	2.308377E-19
1.746032E+03	4.302630E-18	2.328266E-19
1.785714E+03	4.344026E-18	2.350199E-19
1.825397E+03	4.386989E-18	2.372955E-19
1.865079E+03	4.430660E-18	2.396067E-19
1.904762E+03	4.472799E-18	2.418324E-19
1.944444E+03	4.511454E-18	2.438670E-19
1.984127E+03	4.545966E-18	2.456748E-19
2.023810E+03	4.579970E-18	2.474523E-19
2.063492E+03	4.623113E-18	2.497206E-19
2.103175E+03	4.691622E-18	2.533554E-19
2.142857E+03	4.804912E-18	2.594036E-19
2.182540E+03	4.974721E-18	2.684967E-19
2.222222E+03	5.200850E-18	2.806211E-19
2.261905E+03	5.473832E-18	2.952629E-19
2.301587E+03	5.782003E-18	3.117907E-19
2.341270E+03	6.117352E-18	3.297701E-19
2.380952E+03	6.476784E-18	3.490324E-19
2.420635E+03	6.861234E-18	3.696259E-19
2.460317E+03	7.275365E-18	3.917997E-19
2.500000E+03	7.724822E-18	4.158551E-19
2.539683E+03	8.217124E-18	4.421937E-19
2.579365E+03	8.759894E-18	4.712220E-19
2.619048E+03	9.362044E-18	5.034149E-19
2.658730E+03	1.003289E-17	5.392683E-19
2.698413E+03	1.078294E-17	5.793399E-19
2.738095E+03	1.162406E-17	6.242602E-19
2.777778E+03	1.256935E-17	6.747244E-19
2.817460E+03	1.363375E-17	7.315244E-19
2.857143E+03	1.483512E-17	7.956054E-19
2.896825E+03	1.619301E-17	8.680029E-19
2.936508E+03	1.773199E-17	9.500167E-19
2.976190E+03	1.947892E-17	1.043067E-18
2.986111E+03	1.995235E-17	1.068276E-18
2.996032E+03	2.044103E-17	1.094294E-18
3.005952E+03	2.094547E-17	1.121147E-18
3.015873E+03	2.146720E-17	1.148918E-18
3.025794E+03	2.200649E-17	1.177619E-18
3.035714E+03	2.256425E-17	1.207299E-18
3.045635E+03	2.314145E-17	1.238010E-18
3.055556E+03	2.373886E-17	1.269792E-18
3.065476E+03	2.435705E-17	1.302675E-18
3.075397E+03	2.499770E-17	1.336748E-18
3.085317E+03	2.566042E-17	1.371990E-18
3.095238E+03	2.634646E-17	1.408467E-18
3.105159E+03	2.705600E-17	1.446188E-18
3.115079E+03	2.779147E-17	1.485282E-18
3.125000E+03	2.855207E-17	1.525705E-18
3.134921E+03	2.933922E-17	1.567533E-18
3.144841E+03	3.015441E-17	1.610846E-18
3.154762E+03	3.099866E-17	1.655695E-18
3.164683E+03	3.187185E-17	1.702074E-18
3.174603E+03	3.277684E-17	1.750135E-18
3.184524E+03	3.371364E-17	1.799877E-18
3.194444E+03	3.468410E-17	1.851399E-18
3.204365E+03	3.568894E-17	1.904737E-18
3.214286E+03	3.673019E-17	1.959998E-18
3.224206E+03	3.780936E-17	2.017263E-18
3.234127E+03	3.892807E-17	2.076617E-18
3.244048E+03	4.008737E-17	2.138114E-18
3.253968E+03	4.128973E-17	2.201884E-18
3.263889E+03	4.253712E-17	2.268032E-18
3.273810E+03	4.383090E-17	2.336627E-18
3.283730E+03	4.517397E-17	2.407825E-18
3.293651E+03	4.656797E-17	2.481710E-18
3.303571E+03	4.801611E-17	2.558451E-18
3.313492E+03	4.952033E-17	2.638151E-18
3.323413E+03	5.108341E-17	2.720955E-18
3.333333E+03	5.270830E-17	2.807018E-18
3.343254E+03	5.439819E-17	2.896509E-18
3.353175E+03	5.615639E-17	2.989602E-18
3.363095E+03	5.798553E-17	3.086433E-18
3.373016E+03	5.989008E-17	3.187240E-18
3.382937E+03	6.187213E-17	3.292129E-18
3.392857E+03	6.393729E-17	3.401398E-18
3.402778E+03	6.608781E-17	3.515162E-18
3.412698E+03	6.832778E-17	3.633637E-18
3.422619E+03	7.066139E-17	3.757042E-18
3.432540E+03	7.309177E-17	3.885540E-18
3.442460E+03	7.562407E-17	4.019401E-18
3.452381E+03	7.826151E-17	4.158794E-18
3.462302E+03	8.100703E-17	4.303870E-18
3.472222E+03	8.386461E-17	4.454836E-18
3.482143E+03	8.683684E-17	4.611827E-18
3.492063E+03	8.992839E-17	4.775086E-18
3.501984E+03	9.313924E-17	4.944608E-18
3.511905E+03	9.647352E-17	5.120607E-18
3.521825E+03	9.993287E-17	5.303165E-18
3.531746E+03	1.035197E-16	5.492406E-18
3.541667E+03	1.072336E-16	5.688303E-18
3.551587E+03	1.110750E-16	5.890877E-18
3.561508E+03	1.150466E-16	6.100260E-18
3.571429E+03	1.191452E-16	6.316281E-18
3.581349E+03	1.233727E-16	6.539030E-18
3.591270E+03	1.277276E-16	6.768434E-18
3.601190E+03	1.322068E-16	7.004312E-18
3.611111E+03	1.368076E-16	7.246522E-18
3.621032E+03	1.415287E-16	7.494985E-18
3.630952E+03	1.463647E-16	7.749419E-18
3.640873E+03	1.513149E-16	8.009769E-18
3.650794E+03	1.563712E-16	8.275610E-18
3.660714E+03	1.615300E-16	8.546742E-18
3.670635E+03	1.667851E-16	8.822839E-18
3.680556E+03	1.721320E-16	9.103646E-18
3.690476E+03	1.775615E-16	9.388685E-18
3.700397E+03	1.830677E-16	9.677636E-18
3.710317E+03	1.886424E-16	9.970051E-18
3.720238E+03	1.942783E-16	1.026556E-17
3.730159E+03	1.999662E-16	1.056365E-17
3.740079E+03	2.056980E-16	1.086391E-17
3.750000E+03	2.114632E-16	1.116577E-17
3.759921E+03	2.172507E-16	1.146865E-17
3.769841E+03	2.230557E-16	1.177228E-17
3.779762E+03	2.288618E-16	1.207582E-17
3.789683E+03	2.346614E-16	1.237883E-17
3.799603E+03	2.404465E-16	1.268091E-17
3.809524E+03	2.462021E-16	1.298127E-17
3.819444E+03	2.519177E-16	1.327935E-17
3.829365E+03	2.575847E-16	1.357469E-17
3.839286E+03	2.631926E-16	1.386675E-17
3.849206E+03	2.687306E-16	1.415495E-17
3.859127E+03	2.741856E-16	1.443861E-17
3.869048E+03	2.795494E-16	1.471730E-17
3.878968E+03	2.848118E-16	1.499048E-17
3.888889E+03	2.899627E-16	1.525762E-17
3.898810E+03	2.949921E-16	1.551820E-17
3.908730E+03	2.998906E-16	1.577173E-17
3.918651E+03	3.046518E-16	1.601788E-17
3.928571E+03	3.092672E-16	1.625620E-17
3.938492E+03	3.137257E-16	1.648612E-17
3.948413E+03	3.180255E-16	1.670754E-17
3.958333E+03	3.221567E-16	1.691995E-17
3.968254E+03	3.261157E-16	1.712318E-17
3.978175E+03	3.298969E-16	1.731692E-17
3.988095E+03	3.334922E-16	1.750077E-17
3.998016E+03	3.369030E-16	1.767479E-17
4.007937E+03	3.401227E-16	1.783866E-17
4.017857E+03	3.431511E-16	1.799237E-17
4.027778E+03	3.459858E-16	1.813580E-17
4.037698E+03	3.486252E-16	1.826888E-17
4.047619E+03	3.510683E-16	1.839156E-17
4.057540E+03	3.533176E-16	1.850397E-17
4.067460E+03	3.553703E-16	1.860599E-17
4.077381E+03	3.572271E-16	1.869766E-17
4.087302E+03	3.588957E-16	1.877938E-17
4.097222E+03	3.603716E-16	1.885094E-17
4.107143E+03	3.616604E-16	1.891262E-17
4.117063E+03	3.627646E-16	1.896457E-17
4.126984E+03	3.636876E-16	1.900698E-17
4.136905E+03	3.644328E-16	1.904004E-17
4.146825E+03	3.650039E-16	1.906394E-17
4.156746E+03	3.654050E-16	1.907890E-17
4.166667E+03	3.656403E-16	1.908516E-17
4.176587E+03	3.657142E-16	1.908294E-17
4.186508E+03	3.656311E-16	1.907250E-17
4.196429E+03	3.653924E-16	1.905390E-17
4.206349E+03	3.650026E-16	1.902740E-17
4.216270E+03	3.644694E-16	1.899340E-17
4.226190E+03	3.637974E-16	1.895214E-17
4.236111E+03	3.629845E-16	1.890352E-17
4.246032E+03	3.620381E-16	1.884795E-17
4.255952E+03	3.609624E-16	1.878563E-17
4.265873E+03	3.597613E-16	1.871679E-17
4.275794E+03	3.584384E-16	1.864162E-17
4.285714E+03	3.569943E-16	1.856015E-17
4.295635E+03	3.554385E-16	1.847289E-17
4.305556E+03	3.537677E-16	1.837967E-17
4.315476E+03	3.519911E-16	1.828097E-17
4.325397E+03	3.501112E-16	1.817693E-17
4.335317E+03	3.481335E-16	1.806785E-17
4.345238E+03	3.460601E-16	1.795383E-17
4.355159E+03	3.438959E-16	1.783513E-17
4.365079E+03	3.416425E-16	1.771186E-17
4.375000E+03	3.393074E-16	1.758439E-17
4.384921E+03	3.368920E-16	1.745281E-17
4.394841E+03	3.343971E-16	1.731717E-17
4.404762E+03	3.318299E-16	1.717784E-17
4.414683E+03	3.291911E-16	1.703486E-17
4.424603E+03	3.264843E-16	1.688843E-17
4.434524E+03	3.237161E-16	1.673889E-17
4.444444E+03	3.208841E-16	1.658611E-17
4.454365E+03	3.179946E-16	1.643045E-17
4.464286E+03	3.150512E-16	1.627206E-17
4.474206E+03	3.120543E-16	1.611100E-17
4.484127E+03	3.090074E-16	1.594744E-17
4.494048E+03	3.059141E-16	1.578157E-17
4.503968E+03	3.027781E-16	1.561359E-17
4.513889E+03	2.996029E-16	1.544367E-17
4.523810E+03	2.963896E-16	1.527189E-17
4.533730E+03	2.931392E-16	1.509829E-17
4.543651E+03	2.898615E-16	1.492338E-17
4.553571E+03	2.865551E-16	1.474710E-17
4.563492E+03	2.832215E-16	1.456952E-17
4.573413E+03	2.798680E-16	1.439102E-17
4.583333E+03	2.764991E-16	1.421184E-17
4.593254E+03	2.731115E-16	1.403180E-17
4.603175E+03	2.697180E-16	1.385157E-17
4.613095E+03	2.663129E-16	1.367086E-17
4.623016E+03	2.629066E-16	1.349021E-17
4.632937E+03	2.595015E-16	1.330972E-17
4.642857E+03	2.561000E-16	1.312954E-17
4.652778E+03	2.527048E-16	1.294981E-17
4.662698E+03	2.493186E-16	1.277065E-17
4.672619E+03	2.459490E-16	1.259246E-17
4.682540E+03	2.425960E-16	1.241524E-17
4.692460E+03	2.392623E-16	1.223913E-17
4.702381E+03	2.359528E-16	1.206437E-17
4.712302E+03	2.326653E-16	1.189086E-17
4.722222E+03	2.294091E-16	1.171907E-17
4.732143E+03	2.261795E-16	1.154876E-17
4.742063E+03	2.229834E-16	1.138028E-17
4.751984E+03	2.198225E-16	1.121372E-17
4.761905E+03	2.166945E-16	1.104895E-17
4.771825E+03	2.136031E-16	1.088617E-17
4.781746E+03	2.105521E-16	1.072557E-17
4.791667E+03	2.075386E-16	1.056699E-17
4.801587E+03	2.045658E-16	1.041060E-17
4.811508E+03	2.016348E-16	1.025646E-17
4.821429E+03	1.987443E-16	1.010449E-17
4.831349E+03	1.958952E-16	9.954739E-18
4.841270E+03	1.930898E-16	9.807326E-18
4.851190E+03	1.903266E-16	9.662166E-18
4.861111E+03	1.876077E-16	9.519365E-18
4.871032E+03	1.849294E-16	9.378733E-18
4.880952E+03	1.822935E-16	9.240363E-18
4.890873E+03	1.796999E-16	9.104246E-18
4.900794E+03	1.771466E-16	8.970271E-18
4.910714E+03	1.746350E-16	8.838520E-18
4.920635E+03	1.721629E-16	8.708872E-18
4.930556E+03	1.697318E-16	8.581398E-18
4.940476E+03	1.673392E-16	8.455979E-18
4.950397E+03	1.649849E-16	8.332589E-18
4.960317E+03	1.626665E-16	8.211118E-18
4.970238E+03	1.603870E-16	8.091706E-18
4.980159E+03	1.581424E-16	7.974157E-18
4.990079E+03	1.559324E-16	7.858450E-18
5.000000E+03	1.537582E-16	7.744640E-18
5.009921E+03	1.516177E-16	7.632626E-18
5.019841E+03	1.495106E-16	7.522390E-18
5.029762E+03	1.474368E-16	7.413916E-18
5.039683E+03	1.453959E-16	7.307197E-18
5.049603E+03	1.433864E-16	7.202143E-18
5.059524E+03	1.414083E-16	7.098757E-18
5.069444E+03	1.394631E-16	6.997114E-18
5.079365E+03	1.375481E-16	6.897073E-18
5.089286E+03	1.356664E-16	6.798788E-18
5.099206E+03	1.338140E-16	6.702061E-18
5.109127E+03	1.319942E-16	6.607056E-18
5.119048E+03	1.302063E-16	6.513727E-18
5.128968E+03	1.284507E-16	6.422102E-18
5.138889E+03	1.267283E-16	6.332215E-18
5.148810E+03	1.250384E-16	6.244039E-18
5.158730E+03	1.233821E-16	6.157613E-18
5.168651E+03	1.217588E-16	6.072921E-18
5.178571E+03	1.201724E-16	5.990140E-18
5.188492E+03	1.186199E-16	5.909131E-18
5.198413E+03	1.171039E-16	5.830012E-18
5.208333E+03	1.156254E-16	5.752836E-18
5.218254E+03	1.141858E-16	5.677661E-18
5.228175E+03	1.127838E-16	5.604430E-18
5.238095E+03	1.114219E-16	5.533258E-18
5.248016E+03	1.101001E-16	5.464148E-18
5.257937E+03	1.088198E-16	5.397156E-18
5.267857E+03	1.075810E-16	5.332287E-18
5.277778E+03	1.063860E-16	5.269648E-18
5.287698E+03	1.052338E-16	5.209186E-18
5.297619E+03	1.041255E-16	5.150950E-18
5.307540E+03	1.030609E-16	5.094936E-18
5.317460E+03	1.020423E-16	5.041243E-18
5.327381E+03	1.010673E-16	4.989751E-18
5.337302E+03	1.001378E-16	4.940555E-18
5.347222E+03	9.925361E-17	4.893633E-18
5.357143E+03	9.841421E-17	4.848962E-18
5.367063E+03	9.761728E-17	4.806423E-18
5.376984E+03	9.686230E-17	4.765984E-18
5.386905E+03	9.614876E-17	4.727618E-18
5.396825E+03	9.547220E-17	4.691101E-18
5.406746E+03	9.483191E-17	4.656395E-18
5.416667E+03	9.422432E-17	4.623321E-18
5.426587E+03	9.364769E-17	4.591791E-18
5.436508E+03	9.310488E-17	4.561943E-18
5.446429E+03	9.259482E-17	4.533720E-18
5.456349E+03	9.212014E-17	4.507248E-18
5.466270E+03	9.168139E-17	4.482550E-18
5.476190E+03	9.128188E-17	4.459785E-18
5.486111E+03	9.092021E-17	4.438880E-18
5.496032E+03	9.059755E-17	4.419889E-18
5.505952E+03	9.031331E-17	4.402778E-18
5.515873E+03	9.006952E-17	4.387643E-18
5.525794E+03	8.986457E-17	4.374401E-18
5.535714E+03	8.969849E-17	4.363049E-18
5.545635E+03	8.957051E-17	4.353545E-18
5.555556E+03	8.948157E-17	4.345932E-18
5.565476E+03	8.942972E-17	4.340109E-18
5.575397E+03	8.941490E-17	4.336072E-18
5.585317E+03	8.943697E-17	4.333807E-18
5.595238E+03	8.949476E-17	4.333255E-18
5.605159E+03	8.958801E-17	4.334399E-18
5.615079E+03	8.971444E-17	4.337125E-18
5.625000E+03	8.987369E-17	4.341411E-18
5.634921E+03	9.006519E-17	4.347226E-18
5.644841E+03	9.028739E-17	4.354493E-18
5.654762E+03	9.053870E-17	4.363129E-18
5.664683E+03	9.081733E-17	4.373046E-18
5.674603E+03	9.112343E-17	4.384248E-18
5.684524E+03	9.145317E-17	4.396546E-18
5.694444E+03	9.180648E-17	4.409935E-18
5.704365E+03	9.218133E-17	4.424316E-18
5.714286E+03	9.257462E-17	4.439535E-18
5.724206E+03	9.298508E-17	4.455530E-18
5.734127E+03	9.341147E-17	4.472239E-18
5.744048E+03	9.385052E-17	4.489504E-18
5.753968E+03	9.429993E-17	4.507213E-18
5.763889E+03	9.475933E-17	4.525347E-18
5.773810E+03	9.522441E-17	4.543699E-18
5.783730E+03	9.569384E-17	4.562205E-18
5.793651E+03	9.616535E-17	4.580755E-18
5.803571E+03	9.663671E-17	4.599244E-18
5.813492E+03	9.710682E-17	4.617618E-18
5.823413E+03	9.757146E-17	4.635677E-18
5.833333E+03	9.803079E-17	4.653430E-18
5.843254E+03	9.848188E-17	4.670737E-18
5.853175E+03	9.892304E-17	4.687520E-18
5.863095E+03	9.935260E-17	4.703700E-18
5.873016E+03	9.976917E-17	4.719213E-18
5.882937E+03	1.001726E-16	4.734056E-18
5.892857E+03	1.005596E-16	4.748067E-18
5.902778E+03	1.009291E-16	4.761210E-18
5.912698E+03	1.012817E-16	4.773501E-18
5.922619E+03	1.016166E-16	4.784918E-18
5.932540E+03	1.019313E-16	4.795336E-18
5.942460E+03	1.022278E-16	4.804858E-18
5.952381E+03	1.025026E-16	4.813315E-18
5.962302E+03	1.027593E-16	4.820886E-18
5.972222E+03	1.029946E-16	4.827414E-18
5.982143E+03	1.032089E-16	4.832922E-18
5.992063E+03	1.034039E-16	4.837494E-18
6.001984E+03	1.035791E-16	4.841104E-18
6.011905E+03	1.037352E-16	4.843793E-18
6.021825E+03	1.038706E-16	4.845482E-18
6.031746E+03	1.039885E-16	4.846332E-18
6.041667E+03	1.040862E-16	4.846214E-18
6.051587E+03	1.041671E-16	4.845292E-18
6.061508E+03	1.042311E-16	4.843556E-18
6.071429E+03	1.042777E-16	4.840998E-18
6.081349E+03	1.043080E-16	4.837660E-18
6.091270E+03	1.043243E-16	4.833654E-18
6.101190E+03	1.043261E-16	4.828964E-18
6.111111E+03	1.043144E-16	4.823631E-18
6.121032E+03	1.042926E-16	4.817818E-18
6.130952E+03	1.042589E-16	4.811444E-18
6.140873E+03	1.042153E-16	4.804600E-18
6.150794E+03	1.041637E-16	4.797381E-18
6.160714E+03	1.041062E-16	4.789879E-18
6.170635E+03	1.040419E-16	4.782052E-18
6.180556E+03	1.039712E-16	4.773925E-18
6.190476E+03	1.038957E-16	4.765574E-18
6.200397E+03	1.038144E-16	4.756949E-18
6.210317E+03	1.037288E-16	4.748120E-18
6.220238E+03	1.036391E-16	4.739095E-18
6.230159E+03	1.035465E-16	4.729936E-18
6.240079E+03	1.034509E-16	4.720638E-18
6.250000E+03	1.033524E-16	4.711200E-18
6.259921E+03	1.032520E-16	4.701673E-18
6.269841E+03	1.031509E-16	4.692109E-18
6.279762E+03	1.030473E-16	4.682433E-18
6.289683E+03	1.029423E-16	4.672691E-18
6.299603E+03	1.028369E-16	4.662926E-18
6.309524E+03	1.027291E-16	4.653051E-18
6.319444E+03	1.026214E-16	4.643177E-18
6.329365E+03	1.025130E-16	4.633275E-18
6.339286E+03	1.024034E-16	4.623318E-18
6.349206E+03	1.022920E-16	4.613276E-18
6.359127E+03	1.021810E-16	4.603255E-18
6.369048E+03	1.020683E-16	4.593155E-18
6.378968E+03	1.019560E-16	4.583076E-18
6.388889E+03	1.018435E-16	4.572986E-18
6.398810E+03	1.017299E-16	4.562853E-18
6.408730E+03	1.016161E-16	4.552708E-18
6.418651E+03	1.015011E-16	4.542515E-18
6.428571E+03	1.013858E-16	4.532308E-18
6.438492E+03	1.012662E-16	4.521910E-18
6.448413E+03	1.011445E-16	4.511423E-18
6.458333E+03	1.010199E-16	4.500810E-18
6.468254E+03	1.008898E-16	4.489962E-18
6.478175E+03	1.007551E-16	4.478909E-18
6.488095E+03	1.006148E-16	4.467615E-18
6.498016E+03	1.004681E-16	4.456042E-18
6.507937E+03	1.003141E-16	4.444153E-18
6.517857E+03	1.001535E-16	4.431984E-18
6.527778E+03	9.998396E-17	4.419427E-18
6.537698E+03	9.980457E-17	4.406446E-18
6.547619E+03	9.961622E-17	4.393083E-18
6.557540E+03	9.941818E-17	4.379307E-18
6.567460E+03	9.920807E-17	4.365014E-18
6.577381E+03	9.898688E-17	4.350250E-18
6.587302E+03	9.875232E-17	4.334918E-18
6.597222E+03	9.850711E-17	4.319138E-18
6.607143E+03	9.824743E-17	4.302745E-18
6.617063E+03	9.797279E-17	4.285721E-18
6.626984E+03	9.768444E-17	4.268122E-18
6.636905E+03	9.738203E-17	4.249936E-18
6.646825E+03	9.706357E-17	4.231079E-18
6.656746E+03	9.672879E-17	4.211541E-18
6.666667E+03	9.637921E-17	4.191392E-18
6.676587E+03	9.601293E-17	4.170552E-18
6.686508E+03	9.563170E-17	4.149099E-18
6.696429E+03	9.523199E-17	4.126883E-18
6.706349E+03	9.481720E-17	4.104055E-18
6.716270E+03	9.438402E-17	4.080475E-18
6.726190E+03	9.393596E-17	4.056296E-18
6.736111E+03	9.346969E-17	4.031379E-18
6.746032E+03	9.298716E-17	4.005809E-18
6.755952E+03	9.248851E-17	3.979597E-18
6.765873E+03	9.197220E-17	3.952678E-18
6.775794E+03	9.144026E-17	3.925143E-18
6.785714E+03	9.089117E-17	3.896930E-18
6.795635E+03	9.032693E-17	3.868126E-18
6.805556E+03	8.974434E-17	3.838599E-18
6.815476E+03	8.914716E-17	3.808511E-18
6.825397E+03	8.853389E-17	3.777802E-18
6.835317E+03	8.790482E-17	3.746486E-18
6.845238E+03	8.725859E-17	3.714508E-18
6.855159E+03	8.659882E-17	3.682025E-18
6.865079E+03	8.592088E-17	3.648843E-18
6.875000E+03	8.522990E-17	3.615182E-18
6.884921E+03	8.452306E-17	3.580925E-18
6.894841E+03	8.380057E-17	3.546084E-18
6.904762E+03	8.306444E-17	3.510747E-18
6.914683E+03	8.231342E-17	3.474862E-18
6.924603E+03	8.154791E-17	3.438450E-18
6.934524E+03	8.076837E-17	3.401531E-18
6.944444E+03	7.997518E-17	3.364124E-18
6.954365E+03	7.916893E-17	3.326257E-18
6.964286E+03	7.834855E-17	3.287886E-18
6.974206E+03	7.751775E-17	3.249170E-18
6.984127E+03	7.667261E-17	3.209945E-18
6.994048E+03	7.581832E-17	3.170431E-18
7.003968E+03	7.495117E-17	3.130475E-18
7.013889E+03	7.407500E-17	3.090239E-18
7.023810E+03	7.318920E-17	3.049698E-18
7.033730E+03	7.229468E-17	3.008892E-18
7.043651E+03	7.139395E-17	2.967927E-18
7.053571E+03	7.048511E-17	2.926724E-18
7.063492E+03	6.957082E-17	2.885396E-18
7.073413E+03	6.865085E-17	2.843932E-18
7.083333E+03	6.772774E-17	2.802440E-18
7.093254E+03	6.680282E-17	2.760975E-18
7.103175E+03	6.587603E-17	2.719533E-18
7.113095E+03	6.494998E-17	2.678223E-18
7.123016E+03	6.402348E-17	2.636997E-18
7.132937E+03	6.310050E-17	2.596016E-18
7.142857E+03	6.218109E-17	2.555282E-18
7.152778E+03	6.126536E-17	2.514799E-18
7.162698E+03	6.035607E-17	2.474680E-18
7.172619E+03	5.945446E-17	2.434973E-18
7.182540E+03	5.856069E-17	2.395685E-18
7.192460E+03	5.767610E-17	2.356869E-18
7.202381E+03	5.680194E-17	2.318574E-18
7.212302E+03	5.593951E-17	2.280852E-18
7.222222E+03	5.508994E-17	2.243746E-18
7.232143E+03	5.425215E-17	2.207211E-18
7.242063E+03	5.342950E-17	2.171381E-18
7.251984E+03	5.262189E-17	2.136250E-18
7.261905E+03	5.182918E-17	2.101810E-18
7.271825E+03	5.105335E-17	2.068139E-18
7.281746E+03	5.029317E-17	2.035184E-18
7.291667E+03	4.954941E-17	2.002974E-18
7.301587E+03	4.882286E-17	1.971540E-18
7.311508E+03	4.811314E-17	1.940861E-18
7.321429E+03	4.742189E-17	1.911004E-18
7.331349E+03	4.674665E-17	1.881865E-18
7.341270E+03	4.608995E-17	1.853544E-18
7.351190E+03	4.545026E-17	1.825977E-18
7.361111E+03	4.482896E-17	1.799216E-18
7.371032E+03	4.422541E-17	1.773235E-18
7.380952E+03	4.363993E-17	1.748042E-18
7.390873E+03	4.307368E-17	1.723682E-18
7.400794E+03	4.252592E-17	1.700124E-18
7.410714E+03	4.199954E-17	1.677478E-18
7.420635E+03	4.149280E-17	1.655675E-18
7.430556E+03	4.100759E-17	1.634785E-18
7.440476E+03	4.054304E-17	1.614773E-18
7.450397E+03	4.010187E-17	1.595742E-18
7.460317E+03	3.968318E-17	1.577656E-18
7.470238E+03	3.928703E-17	1.560514E-18
7.480159E+03	3.891436E-17	1.544349E-18
7.490079E+03	3.856525E-17	1.529164E-18
7.500000E+03	3.824159E-17	1.515030E-18
7.509921E+03	3.794189E-17	1.501884E-18
7.519841E+03	3.766731E-17	1.489770E-18
7.529762E+03	3.741907E-17	1.478732E-18
7.539683E+03	3.719681E-17	1.468755E-18
7.549603E+03	3.700193E-17	1.459889E-18
7.559524E+03	3.683420E-17	1.452123E-18
7.569444E+03	3.669587E-17	1.445542E-18
7.579365E+03	3.658576E-17	1.440098E-18
7.589286E+03	3.650516E-17	1.435838E-18
7.599206E+03	3.645066E-17	1.432624E-18
7.609127E+03	3.642199E-17	1.430445E-18
7.619048E+03	3.641555E-17	1.429156E-18
7.628968E+03	3.643116E-17	1.428748E-18
7.638889E+03	3.646621E-17	1.429116E-18
7.648810E+03	3.651906E-17	1.430196E-18
7.658730E+03	3.658820E-17	1.431927E-18
7.668651E+03	3.667223E-17	1.434252E-18
7.678571E+03	3.676989E-17	1.437120E-18
7.688492E+03	3.687914E-17	1.440452E-18
7.698413E+03	3.700062E-17	1.444271E-18
