#wls	flux	fluxerr
1.587302E+03	4.689065E-18	2.762676E-19
1.626984E+03	4.711970E-18	2.760985E-19
1.666667E+03	4.739990E-18	2.761777E-19
1.706349E+03	4.772753E-18	2.764776E-19
1.746032E+03	4.811565E-18	2.770674E-19
1.785714E+03	4.854961E-18	2.778557E-19
1.825397E+03	4.901815E-18	2.787720E-19
1.865079E+03	4.951332E-18	2.797664E-19
1.904762E+03	5.000693E-18	2.806760E-19
1.944444E+03	5.048601E-18	2.814272E-19
1.984127E+03	5.094708E-18	2.820009E-19
2.023810E+03	5.143802E-18	2.826609E-19
2.063492E+03	5.206657E-18	2.839896E-19
2.103175E+03	5.302625E-18	2.870160E-19
2.142857E+03	5.453683E-18	2.928763E-19
2.182540E+03	5.673242E-18	3.022107E-19
2.222222E+03	5.960889E-18	3.149027E-19
2.261905E+03	6.306412E-18	3.303200E-19
2.301587E+03	6.697706E-18	3.477473E-19
2.341270E+03	7.129706E-18	3.668513E-19
2.380952E+03	7.602249E-18	3.875557E-19
2.420635E+03	8.119876E-18	4.100207E-19
2.460317E+03	8.691716E-18	4.346246E-19
2.500000E+03	9.327498E-18	4.617555E-19
2.539683E+03	1.004002E-17	4.919295E-19
2.579365E+03	1.084359E-17	5.257063E-19
2.619048E+03	1.175539E-17	5.637511E-19
2.658730E+03	1.279428E-17	6.067673E-19
2.698413E+03	1.398256E-17	6.555754E-19
2.738095E+03	1.534629E-17	7.111151E-19
2.777778E+03	1.691608E-17	7.744730E-19
2.817460E+03	1.872872E-17	8.469371E-19
2.857143E+03	2.082953E-17	9.300882E-19
2.896825E+03	2.327439E-17	1.025859E-18
2.936508E+03	2.613339E-17	1.136661E-18
2.976190E+03	2.949354E-17	1.265459E-18
2.986111E+03	3.042479E-17	1.300913E-18
2.996032E+03	3.139518E-17	1.337748E-18
3.005952E+03	3.240793E-17	1.376082E-18
3.015873E+03	3.346434E-17	1.415950E-18
3.025794E+03	3.456743E-17	1.457460E-18
3.035714E+03	3.572058E-17	1.500732E-18
3.045635E+03	3.692436E-17	1.545766E-18
3.055556E+03	3.818442E-17	1.592774E-18
3.065476E+03	3.950164E-17	1.641766E-18
3.075397E+03	4.088013E-17	1.692887E-18
3.085317E+03	4.232178E-17	1.746183E-18
3.095238E+03	4.382941E-17	1.801743E-18
3.105159E+03	4.540764E-17	1.859725E-18
3.115079E+03	4.705796E-17	1.920155E-18
3.125000E+03	4.878623E-17	1.983239E-18
3.134921E+03	5.059328E-17	2.048972E-18
3.144841E+03	5.248545E-17	2.117575E-18
3.154762E+03	5.446471E-17	2.189086E-18
3.164683E+03	5.653694E-17	2.263698E-18
3.174603E+03	5.870533E-17	2.341497E-18
3.184524E+03	6.097534E-17	2.422652E-18
3.194444E+03	6.335152E-17	2.507297E-18
3.204365E+03	6.583875E-17	2.595574E-18
3.214286E+03	6.844082E-17	2.687579E-18
3.224206E+03	7.116531E-17	2.783555E-18
3.234127E+03	7.401657E-17	2.883612E-18
3.244048E+03	7.700153E-17	2.987961E-18
3.253968E+03	8.012505E-17	3.096727E-18
3.263889E+03	8.339342E-17	3.210085E-18
3.273810E+03	8.681464E-17	3.328274E-18
3.283730E+03	9.039436E-17	3.451438E-18
3.293651E+03	9.414138E-17	3.579839E-18
3.303571E+03	9.806373E-17	3.713699E-18
3.313492E+03	1.021669E-16	3.853147E-18
3.323413E+03	1.064630E-16	3.998547E-18
3.333333E+03	1.109602E-16	4.150119E-18
3.343254E+03	1.156692E-16	4.308165E-18
3.353175E+03	1.206016E-16	4.473020E-18
3.363095E+03	1.257670E-16	4.644931E-18
3.373016E+03	1.311829E-16	4.824434E-18
3.382937E+03	1.368636E-16	5.011933E-18
3.392857E+03	1.428251E-16	5.207890E-18
3.402778E+03	1.490874E-16	5.412903E-18
3.412698E+03	1.556732E-16	5.627647E-18
3.422619E+03	1.626036E-16	5.852740E-18
3.432540E+03	1.699086E-16	6.089093E-18
3.442460E+03	1.776140E-16	6.337456E-18
3.452381E+03	1.857503E-16	6.598722E-18
3.462302E+03	1.943392E-16	6.873466E-18
3.472222E+03	2.033948E-16	7.161978E-18
3.482143E+03	2.129280E-16	7.464419E-18
3.492063E+03	2.229477E-16	7.780883E-18
3.501984E+03	2.334591E-16	8.111335E-18
3.511905E+03	2.444665E-16	8.455697E-18
3.521825E+03	2.559758E-16	8.813946E-18
3.531746E+03	2.679895E-16	9.185945E-18
3.541667E+03	2.805119E-16	9.571614E-18
3.551587E+03	2.935407E-16	9.970648E-18
3.561508E+03	3.070781E-16	1.038289E-17
3.571429E+03	3.211220E-16	1.080806E-17
3.581349E+03	3.356756E-16	1.124604E-17
3.591270E+03	3.507307E-16	1.169632E-17
3.601190E+03	3.662842E-16	1.215860E-17
3.611111E+03	3.823200E-16	1.263212E-17
3.621032E+03	3.988300E-16	1.311641E-17
3.630952E+03	4.157995E-16	1.361081E-17
3.640873E+03	4.332115E-16	1.411453E-17
3.650794E+03	4.510495E-16	1.462687E-17
3.660714E+03	4.692947E-16	1.514702E-17
3.670635E+03	4.879209E-16	1.567397E-17
3.680556E+03	5.069075E-16	1.620690E-17
3.690476E+03	5.262219E-16	1.674460E-17
3.700397E+03	5.458423E-16	1.728626E-17
3.710317E+03	5.657347E-16	1.783067E-17
3.720238E+03	5.858616E-16	1.837653E-17
3.730159E+03	6.061867E-16	1.892261E-17
3.740079E+03	6.266780E-16	1.946784E-17
3.750000E+03	6.472876E-16	2.001067E-17
3.759921E+03	6.679782E-16	2.054989E-17
3.769841E+03	6.886959E-16	2.108383E-17
3.779762E+03	7.093914E-16	2.161098E-17
3.789683E+03	7.300184E-16	2.212995E-17
3.799603E+03	7.505282E-16	2.263929E-17
3.809524E+03	7.708591E-16	2.313723E-17
3.819444E+03	7.909653E-16	2.362246E-17
3.829365E+03	8.107737E-16	2.409292E-17
3.839286E+03	8.302435E-16	2.454754E-17
3.849206E+03	8.492998E-16	2.498427E-17
3.859127E+03	8.679007E-16	2.540207E-17
3.869048E+03	8.859772E-16	2.579913E-17
3.878968E+03	9.034754E-16	2.617412E-17
3.888889E+03	9.203341E-16	2.652554E-17
3.898810E+03	9.365022E-16	2.685221E-17
3.908730E+03	9.519226E-16	2.715281E-17
3.918651E+03	9.665557E-16	2.742654E-17
3.928571E+03	9.803436E-16	2.767212E-17
3.938492E+03	9.932461E-16	2.788880E-17
3.948413E+03	1.005221E-15	2.807579E-17
3.958333E+03	1.016245E-15	2.823286E-17
3.968254E+03	1.026287E-15	2.835958E-17
3.978175E+03	1.035321E-15	2.845567E-17
3.988095E+03	1.043330E-15	2.852108E-17
3.998016E+03	1.050320E-15	2.855648E-17
4.007937E+03	1.056290E-15	2.856226E-17
4.017857E+03	1.061271E-15	2.853974E-17
4.027778E+03	1.065281E-15	2.848982E-17
4.037698E+03	1.068365E-15	2.841411E-17
4.047619E+03	1.070574E-15	2.831442E-17
4.057540E+03	1.071960E-15	2.819247E-17
4.067460E+03	1.072580E-15	2.805015E-17
4.077381E+03	1.072499E-15	2.788948E-17
4.087302E+03	1.071802E-15	2.771297E-17
4.097222E+03	1.070554E-15	2.752256E-17
4.107143E+03	1.068841E-15	2.732068E-17
4.117063E+03	1.066732E-15	2.710935E-17
4.126984E+03	1.064319E-15	2.689105E-17
4.136905E+03	1.061691E-15	2.666816E-17
4.146825E+03	1.058925E-15	2.644269E-17
4.156746E+03	1.056111E-15	2.621695E-17
4.166667E+03	1.053322E-15	2.599277E-17
4.176587E+03	1.050647E-15	2.577233E-17
4.186508E+03	1.048154E-15	2.555726E-17
4.196429E+03	1.045927E-15	2.534952E-17
4.206349E+03	1.044032E-15	2.515058E-17
4.216270E+03	1.042537E-15	2.496196E-17
4.226190E+03	1.041500E-15	2.478487E-17
4.236111E+03	1.040992E-15	2.462077E-17
4.246032E+03	1.041063E-15	2.447067E-17
4.255952E+03	1.041768E-15	2.433559E-17
4.265873E+03	1.043151E-15	2.421629E-17
4.275794E+03	1.045250E-15	2.411339E-17
4.285714E+03	1.048110E-15	2.402761E-17
4.295635E+03	1.051769E-15	2.395950E-17
4.305556E+03	1.056252E-15	2.390935E-17
4.315476E+03	1.061589E-15	2.387744E-17
4.325397E+03	1.067792E-15	2.386376E-17
4.335317E+03	1.074890E-15	2.386856E-17
4.345238E+03	1.082890E-15	2.389169E-17
4.355159E+03	1.091828E-15	2.393356E-17
4.365079E+03	1.101701E-15	2.399375E-17
4.375000E+03	1.112520E-15	2.407215E-17
4.384921E+03	1.124278E-15	2.416825E-17
4.394841E+03	1.136980E-15	2.428182E-17
4.404762E+03	1.150593E-15	2.441182E-17
4.414683E+03	1.165089E-15	2.455731E-17
4.424603E+03	1.180435E-15	2.471733E-17
4.434524E+03	1.196584E-15	2.489061E-17
4.444444E+03	1.213476E-15	2.507563E-17
4.454365E+03	1.231023E-15	2.527037E-17
4.464286E+03	1.249147E-15	2.547305E-17
4.474206E+03	1.267733E-15	2.568123E-17
4.484127E+03	1.286661E-15	2.589237E-17
4.494048E+03	1.305796E-15	2.610374E-17
4.503968E+03	1.324966E-15	2.631194E-17
4.513889E+03	1.344016E-15	2.651403E-17
4.523810E+03	1.362753E-15	2.670639E-17
4.533730E+03	1.380990E-15	2.688560E-17
4.543651E+03	1.398505E-15	2.704768E-17
4.553571E+03	1.415106E-15	2.718936E-17
4.563492E+03	1.430570E-15	2.730687E-17
4.573413E+03	1.444720E-15	2.739737E-17
4.583333E+03	1.457354E-15	2.745769E-17
4.593254E+03	1.468313E-15	2.748554E-17
4.603175E+03	1.477450E-15	2.747892E-17
4.613095E+03	1.484671E-15	2.743687E-17
4.623016E+03	1.489877E-15	2.735835E-17
4.632937E+03	1.493044E-15	2.724374E-17
4.642857E+03	1.494160E-15	2.709364E-17
4.652778E+03	1.493254E-15	2.690937E-17
4.662698E+03	1.490426E-15	2.669347E-17
4.672619E+03	1.485775E-15	2.644839E-17
4.682540E+03	1.479469E-15	2.617780E-17
4.692460E+03	1.471697E-15	2.588559E-17
4.702381E+03	1.462705E-15	2.557657E-17
4.712302E+03	1.452721E-15	2.525509E-17
4.722222E+03	1.442028E-15	2.492640E-17
4.732143E+03	1.430886E-15	2.459520E-17
4.742063E+03	1.419576E-15	2.426641E-17
4.751984E+03	1.408332E-15	2.394407E-17
4.761905E+03	1.397384E-15	2.363207E-17
4.771825E+03	1.386932E-15	2.333370E-17
4.781746E+03	1.377142E-15	2.305160E-17
4.791667E+03	1.368138E-15	2.278769E-17
4.801587E+03	1.359950E-15	2.254228E-17
4.811508E+03	1.352511E-15	2.231406E-17
4.821429E+03	1.345689E-15	2.210073E-17
4.831349E+03	1.339390E-15	2.190061E-17
4.841270E+03	1.333559E-15	2.171273E-17
4.851190E+03	1.328168E-15	2.153653E-17
4.861111E+03	1.323172E-15	2.137117E-17
4.871032E+03	1.318602E-15	2.121691E-17
4.880952E+03	1.314462E-15	2.107361E-17
4.890873E+03	1.310761E-15	2.094117E-17
4.900794E+03	1.307532E-15	2.081992E-17
4.910714E+03	1.304786E-15	2.070980E-17
4.920635E+03	1.302508E-15	2.061036E-17
4.930556E+03	1.300678E-15	2.052110E-17
4.940476E+03	1.299226E-15	2.044072E-17
4.950397E+03	1.298127E-15	2.036865E-17
4.960317E+03	1.297322E-15	2.030381E-17
4.970238E+03	1.296758E-15	2.024517E-17
4.980159E+03	1.296424E-15	2.019244E-17
4.990079E+03	1.296311E-15	2.014531E-17
5.000000E+03	1.296443E-15	2.010402E-17
5.009921E+03	1.296854E-15	2.006897E-17
5.019841E+03	1.297595E-15	2.004078E-17
5.029762E+03	1.298710E-15	2.001999E-17
5.039683E+03	1.300277E-15	2.000766E-17
5.049603E+03	1.302353E-15	2.000448E-17
5.059524E+03	1.305010E-15	2.001144E-17
5.069444E+03	1.308299E-15	2.002917E-17
5.079365E+03	1.312289E-15	2.005855E-17
5.089286E+03	1.316996E-15	2.009967E-17
5.099206E+03	1.322465E-15	2.015309E-17
5.109127E+03	1.328668E-15	2.021820E-17
5.119048E+03	1.335593E-15	2.029469E-17
5.128968E+03	1.343191E-15	2.038166E-17
5.138889E+03	1.351402E-15	2.047806E-17
5.148810E+03	1.360181E-15	2.058310E-17
5.158730E+03	1.369455E-15	2.069551E-17
5.168651E+03	1.379154E-15	2.081413E-17
5.178571E+03	1.389202E-15	2.093766E-17
5.188492E+03	1.399503E-15	2.106458E-17
5.198413E+03	1.409964E-15	2.119335E-17
5.208333E+03	1.420471E-15	2.132216E-17
5.218254E+03	1.430933E-15	2.144955E-17
5.228175E+03	1.441227E-15	2.157355E-17
5.238095E+03	1.451237E-15	2.169240E-17
5.248016E+03	1.460855E-15	2.180434E-17
5.257937E+03	1.469957E-15	2.190751E-17
5.267857E+03	1.478448E-15	2.200041E-17
5.277778E+03	1.486243E-15	2.208171E-17
5.287698E+03	1.493276E-15	2.215041E-17
5.297619E+03	1.499485E-15	2.220555E-17
5.307540E+03	1.504856E-15	2.224691E-17
5.317460E+03	1.509381E-15	2.227436E-17
5.327381E+03	1.513066E-15	2.228795E-17
5.337302E+03	1.515907E-15	2.228764E-17
5.347222E+03	1.517946E-15	2.227403E-17
5.357143E+03	1.519164E-15	2.224687E-17
5.367063E+03	1.519567E-15	2.220625E-17
5.376984E+03	1.519082E-15	2.215109E-17
5.386905E+03	1.517601E-15	2.207987E-17
5.396825E+03	1.514979E-15	2.199051E-17
5.406746E+03	1.511103E-15	2.188142E-17
5.416667E+03	1.505820E-15	2.175053E-17
5.426587E+03	1.498999E-15	2.159604E-17
5.436508E+03	1.490520E-15	2.141638E-17
5.446429E+03	1.480323E-15	2.121088E-17
5.456349E+03	1.468352E-15	2.097892E-17
5.466270E+03	1.454595E-15	2.072057E-17
5.476190E+03	1.439074E-15	2.043640E-17
5.486111E+03	1.421849E-15	2.012752E-17
5.496032E+03	1.403017E-15	1.979556E-17
5.505952E+03	1.382724E-15	1.944286E-17
5.515873E+03	1.361142E-15	1.907211E-17
5.525794E+03	1.338518E-15	1.868701E-17
5.535714E+03	1.315090E-15	1.829112E-17
5.545635E+03	1.291184E-15	1.788918E-17
5.555556E+03	1.267110E-15	1.748563E-17
5.565476E+03	1.243233E-15	1.708563E-17
5.575397E+03	1.219931E-15	1.669440E-17
5.585317E+03	1.197546E-15	1.631663E-17
5.595238E+03	1.176477E-15	1.595762E-17
5.605159E+03	1.157048E-15	1.562166E-17
5.615079E+03	1.139562E-15	1.531257E-17
5.625000E+03	1.124337E-15	1.503432E-17
5.634921E+03	1.111597E-15	1.478954E-17
5.644841E+03	1.101559E-15	1.458067E-17
5.654762E+03	1.094409E-15	1.440964E-17
5.664683E+03	1.090280E-15	1.427768E-17
5.674603E+03	1.089269E-15	1.418543E-17
5.684524E+03	1.091436E-15	1.413301E-17
5.694444E+03	1.096805E-15	1.412005E-17
5.704365E+03	1.105340E-15	1.414540E-17
5.714286E+03	1.116917E-15	1.420673E-17
5.724206E+03	1.131418E-15	1.430185E-17
5.734127E+03	1.148593E-15	1.442693E-17
5.744048E+03	1.168184E-15	1.457808E-17
5.753968E+03	1.189836E-15	1.475031E-17
5.763889E+03	1.213162E-15	1.493832E-17
5.773810E+03	1.237711E-15	1.513617E-17
5.783730E+03	1.263010E-15	1.533783E-17
5.793651E+03	1.288547E-15	1.553691E-17
5.803571E+03	1.313810E-15	1.572724E-17
5.813492E+03	1.338311E-15	1.590311E-17
5.823413E+03	1.361593E-15	1.605940E-17
5.833333E+03	1.383189E-15	1.619100E-17
5.843254E+03	1.402739E-15	1.629424E-17
5.853175E+03	1.419895E-15	1.636576E-17
5.863095E+03	1.434405E-15	1.640341E-17
5.873016E+03	1.446072E-15	1.640580E-17
5.882937E+03	1.454763E-15	1.637232E-17
5.892857E+03	1.460457E-15	1.630369E-17
5.902778E+03	1.463197E-15	1.620134E-17
5.912698E+03	1.463093E-15	1.606744E-17
5.922619E+03	1.460377E-15	1.590546E-17
5.932540E+03	1.455270E-15	1.571865E-17
5.942460E+03	1.448092E-15	1.551125E-17
5.952381E+03	1.439175E-15	1.528753E-17
5.962302E+03	1.428850E-15	1.505158E-17
5.972222E+03	1.417470E-15	1.480765E-17
5.982143E+03	1.405330E-15	1.455920E-17
5.992063E+03	1.392754E-15	1.430994E-17
6.001984E+03	1.379956E-15	1.406232E-17
6.011905E+03	1.367151E-15	1.381869E-17
6.021825E+03	1.354478E-15	1.358061E-17
6.031746E+03	1.342030E-15	1.334913E-17
6.041667E+03	1.329848E-15	1.312473E-17
6.051587E+03	1.317933E-15	1.290749E-17
6.061508E+03	1.306289E-15	1.269753E-17
6.071429E+03	1.294839E-15	1.249417E-17
6.081349E+03	1.283561E-15	1.229730E-17
6.091270E+03	1.272393E-15	1.210638E-17
6.101190E+03	1.261318E-15	1.192138E-17
6.111111E+03	1.250285E-15	1.174188E-17
6.121032E+03	1.239362E-15	1.156860E-17
6.130952E+03	1.228587E-15	1.140198E-17
6.140873E+03	1.218051E-15	1.124289E-17
6.150794E+03	1.207829E-15	1.109206E-17
6.160714E+03	1.198080E-15	1.095088E-17
6.170635E+03	1.189002E-15	1.082091E-17
6.180556E+03	1.180787E-15	1.070361E-17
6.190476E+03	1.173619E-15	1.060034E-17
6.200397E+03	1.167598E-15	1.051172E-17
6.210317E+03	1.162826E-15	1.043838E-17
6.220238E+03	1.159262E-15	1.037967E-17
6.230159E+03	1.156891E-15	1.033523E-17
6.240079E+03	1.155642E-15	1.030419E-17
6.250000E+03	1.155370E-15	1.028508E-17
6.259921E+03	1.155972E-15	1.027678E-17
6.269841E+03	1.157314E-15	1.027797E-17
6.279762E+03	1.159268E-15	1.028736E-17
6.289683E+03	1.161674E-15	1.030339E-17
6.299603E+03	1.164414E-15	1.032492E-17
6.309524E+03	1.167364E-15	1.035073E-17
6.319444E+03	1.170421E-15	1.037980E-17
6.329365E+03	1.173488E-15	1.041116E-17
6.339286E+03	1.176495E-15	1.044412E-17
6.349206E+03	1.179397E-15	1.047816E-17
6.359127E+03	1.182204E-15	1.051327E-17
6.369048E+03	1.184938E-15	1.054957E-17
6.378968E+03	1.187621E-15	1.058716E-17
6.388889E+03	1.190418E-15	1.062744E-17
6.398810E+03	1.193472E-15	1.067160E-17
6.408730E+03	1.196958E-15	1.072116E-17
6.418651E+03	1.201080E-15	1.077791E-17
6.428571E+03	1.205992E-15	1.084321E-17
6.438492E+03	1.211893E-15	1.091884E-17
6.448413E+03	1.218931E-15	1.100615E-17
6.458333E+03	1.227254E-15	1.110652E-17
6.468254E+03	1.236927E-15	1.122059E-17
6.478175E+03	1.248080E-15	1.134962E-17
6.488095E+03	1.260708E-15	1.149365E-17
6.498016E+03	1.274807E-15	1.165273E-17
6.507937E+03	1.290265E-15	1.182598E-17
6.517857E+03	1.306888E-15	1.201170E-17
6.527778E+03	1.324477E-15	1.220819E-17
6.537698E+03	1.342782E-15	1.241322E-17
6.547619E+03	1.361498E-15	1.262407E-17
6.557540E+03	1.380314E-15	1.283792E-17
6.567460E+03	1.398901E-15	1.305174E-17
6.577381E+03	1.416932E-15	1.326251E-17
6.587302E+03	1.434004E-15	1.346645E-17
6.597222E+03	1.449787E-15	1.366039E-17
6.607143E+03	1.463941E-15	1.384105E-17
6.617063E+03	1.476148E-15	1.400517E-17
6.626984E+03	1.486210E-15	1.415054E-17
6.636905E+03	1.493935E-15	1.427499E-17
6.646825E+03	1.499233E-15	1.437726E-17
6.656746E+03	1.501993E-15	1.445592E-17
6.666667E+03	1.502230E-15	1.451068E-17
6.676587E+03	1.500001E-15	1.454171E-17
6.686508E+03	1.495344E-15	1.454898E-17
6.696429E+03	1.488411E-15	1.453362E-17
6.706349E+03	1.479341E-15	1.449659E-17
6.716270E+03	1.468359E-15	1.443979E-17
6.726190E+03	1.455661E-15	1.436485E-17
6.736111E+03	1.441495E-15	1.427396E-17
6.746032E+03	1.426154E-15	1.416979E-17
6.755952E+03	1.409857E-15	1.405436E-17
6.765873E+03	1.392920E-15	1.393063E-17
6.775794E+03	1.375526E-15	1.380036E-17
6.785714E+03	1.357936E-15	1.366607E-17
6.795635E+03	1.340266E-15	1.352888E-17
6.805556E+03	1.322635E-15	1.338997E-17
6.815476E+03	1.305144E-15	1.325034E-17
6.825397E+03	1.287962E-15	1.311173E-17
6.835317E+03	1.271350E-15	1.297681E-17
6.845238E+03	1.255613E-15	1.284876E-17
6.855159E+03	1.240923E-15	1.272942E-17
6.865079E+03	1.227430E-15	1.262040E-17
6.875000E+03	1.215158E-15	1.252205E-17
6.884921E+03	1.204148E-15	1.243490E-17
6.894841E+03	1.194372E-15	1.235875E-17
6.904762E+03	1.185740E-15	1.229277E-17
6.914683E+03	1.178175E-15	1.223623E-17
6.924603E+03	1.171552E-15	1.218789E-17
6.934524E+03	1.165700E-15	1.214607E-17
6.944444E+03	1.160464E-15	1.210917E-17
6.954365E+03	1.155684E-15	1.207560E-17
6.964286E+03	1.151224E-15	1.204396E-17
6.974206E+03	1.146883E-15	1.201219E-17
6.984127E+03	1.142569E-15	1.197936E-17
6.994048E+03	1.138109E-15	1.194369E-17
7.003968E+03	1.133414E-15	1.190427E-17
7.013889E+03	1.128376E-15	1.186000E-17
7.023810E+03	1.122949E-15	1.181044E-17
7.033730E+03	1.117082E-15	1.175511E-17
7.043651E+03	1.110731E-15	1.169356E-17
7.053571E+03	1.103859E-15	1.162549E-17
7.063492E+03	1.096513E-15	1.155143E-17
7.073413E+03	1.088678E-15	1.147130E-17
7.083333E+03	1.080365E-15	1.138527E-17
7.093254E+03	1.071585E-15	1.129354E-17
7.103175E+03	1.062325E-15	1.119605E-17
7.113095E+03	1.052613E-15	1.109319E-17
7.123016E+03	1.042432E-15	1.098483E-17
7.132937E+03	1.031781E-15	1.087109E-17
7.142857E+03	1.020685E-15	1.075229E-17
7.152778E+03	1.009119E-15	1.062828E-17
7.162698E+03	9.971141E-16	1.049946E-17
7.172619E+03	9.846329E-16	1.036555E-17
7.182540E+03	9.717104E-16	1.022700E-17
7.192460E+03	9.583648E-16	1.008409E-17
7.202381E+03	9.446202E-16	9.937172E-18
7.212302E+03	9.305068E-16	9.786648E-18
7.222222E+03	9.160617E-16	9.632993E-18
7.232143E+03	9.013099E-16	9.476550E-18
7.242063E+03	8.863232E-16	9.318150E-18
7.251984E+03	8.711605E-16	9.158483E-18
7.261905E+03	8.558877E-16	8.998309E-18
7.271825E+03	8.405570E-16	8.838237E-18
7.281746E+03	8.252622E-16	8.679307E-18
7.291667E+03	8.100987E-16	8.522575E-18
7.301587E+03	7.951106E-16	8.368551E-18
7.311508E+03	7.803990E-16	8.218339E-18
7.321429E+03	7.660462E-16	8.072847E-18
7.331349E+03	7.521502E-16	7.933143E-18
7.341270E+03	7.387733E-16	7.799922E-18
7.351190E+03	7.260084E-16	7.674202E-18
7.361111E+03	7.139439E-16	7.556957E-18
7.371032E+03	7.026322E-16	7.448788E-18
7.380952E+03	6.921681E-16	7.350749E-18
7.390873E+03	6.825752E-16	7.263150E-18
7.400794E+03	6.739151E-16	7.186712E-18
7.410714E+03	6.662076E-16	7.121722E-18
7.420635E+03	6.594895E-16	7.068662E-18
7.430556E+03	6.537354E-16	7.027352E-18
7.440476E+03	6.489496E-16	6.997884E-18
7.450397E+03	6.451044E-16	6.979953E-18
7.460317E+03	6.421377E-16	6.972885E-18
7.470238E+03	6.400145E-16	6.976309E-18
7.480159E+03	6.386234E-16	6.989022E-18
7.490079E+03	6.378783E-16	7.010087E-18
7.500000E+03	6.376462E-16	7.038044E-18
7.509921E+03	6.378060E-16	7.071546E-18
7.519841E+03	6.381866E-16	7.108667E-18
7.529762E+03	6.386351E-16	7.147653E-18
7.539683E+03	6.389649E-16	7.186338E-18
7.549603E+03	6.390075E-16	7.222722E-18
7.559524E+03	6.386186E-16	7.255038E-18
7.569444E+03	6.376392E-16	7.281315E-18
7.579365E+03	6.359484E-16	7.299980E-18
7.589286E+03	6.334912E-16	7.310189E-18
7.599206E+03	6.302462E-16	7.311472E-18
7.609127E+03	6.262526E-16	7.304059E-18
7.619048E+03	6.215244E-16	7.287894E-18
7.628968E+03	6.161511E-16	7.263816E-18
7.638889E+03	6.101980E-16	7.232398E-18
7.648810E+03	6.037203E-16	7.194119E-18
7.658730E+03	5.968068E-16	7.149869E-18
7.668651E+03	5.895144E-16	7.100188E-18
7.678571E+03	5.819139E-16	7.045799E-18
7.688492E+03	5.740870E-16	6.987582E-18
7.698413E+03	5.660957E-16	6.926201E-18
