#wls	flux	fluxerr
1.587302E+03	5.126080E-18	3.402551E-19
1.626984E+03	5.102447E-18	3.374464E-19
1.666667E+03	5.079200E-18	3.346438E-19
1.706349E+03	5.056347E-18	3.318472E-19
1.746032E+03	5.035115E-18	3.291364E-19
1.785714E+03	5.014363E-18	3.264355E-19
1.825397E+03	4.993106E-18	3.236803E-19
1.865079E+03	4.969300E-18	3.207387E-19
1.904762E+03	4.942624E-18	3.175923E-19
1.944444E+03	4.910563E-18	3.140826E-19
1.984127E+03	4.875491E-18	3.103655E-19
2.023810E+03	4.841924E-18	3.067299E-19
2.063492E+03	4.821507E-18	3.039085E-19
2.103175E+03	4.832462E-18	3.030313E-19
2.142857E+03	4.894409E-18	3.052906E-19
2.182540E+03	5.021304E-18	3.114995E-19
2.222222E+03	5.213146E-18	3.215878E-19
2.261905E+03	5.460148E-18	3.348824E-19
2.301587E+03	5.753285E-18	3.507674E-19
2.341270E+03	6.082831E-18	3.685951E-19
2.380952E+03	6.446579E-18	3.881829E-19
2.420635E+03	6.843938E-18	4.094464E-19
2.460317E+03	7.277519E-18	4.324901E-19
2.500000E+03	7.752196E-18	4.575464E-19
2.539683E+03	8.272682E-18	4.848276E-19
2.579365E+03	8.846373E-18	5.146920E-19
2.619048E+03	9.480189E-18	5.474545E-19
2.658730E+03	1.018115E-17	5.834205E-19
2.698413E+03	1.095989E-17	6.230842E-19
2.738095E+03	1.182472E-17	6.667855E-19
2.777778E+03	1.278874E-17	7.151115E-19
2.817460E+03	1.386456E-17	7.685912E-19
2.857143E+03	1.506662E-17	8.278240E-19
2.896825E+03	1.641321E-17	8.935822E-19
2.936508E+03	1.792812E-17	9.668894E-19
2.976190E+03	1.964359E-17	1.049162E-18
2.986111E+03	2.010891E-17	1.071361E-18
2.996032E+03	2.058935E-17	1.094228E-18
3.005952E+03	2.108636E-17	1.117832E-18
3.015873E+03	2.160055E-17	1.142198E-18
3.025794E+03	2.213363E-17	1.167409E-18
3.035714E+03	2.268657E-17	1.193507E-18
3.045635E+03	2.325902E-17	1.220463E-18
3.055556E+03	2.385420E-17	1.248439E-18
3.065476E+03	2.447188E-17	1.277411E-18
3.075397E+03	2.511378E-17	1.307458E-18
3.085317E+03	2.578074E-17	1.338613E-18
3.095238E+03	2.647464E-17	1.370962E-18
3.105159E+03	2.719548E-17	1.404491E-18
3.115079E+03	2.794629E-17	1.439345E-18
3.125000E+03	2.872617E-17	1.475462E-18
3.134921E+03	2.953941E-17	1.513049E-18
3.144841E+03	3.038631E-17	1.552105E-18
3.154762E+03	3.126826E-17	1.592685E-18
3.164683E+03	3.218783E-17	1.634903E-18
3.174603E+03	3.314775E-17	1.678879E-18
3.184524E+03	3.414869E-17	1.724628E-18
3.194444E+03	3.519362E-17	1.772279E-18
3.204365E+03	3.628455E-17	1.821912E-18
3.214286E+03	3.742597E-17	1.873729E-18
3.224206E+03	3.861908E-17	1.927767E-18
3.234127E+03	3.986635E-17	1.984122E-18
3.244048E+03	4.117287E-17	2.043021E-18
3.253968E+03	4.254033E-17	2.104519E-18
3.263889E+03	4.397303E-17	2.168796E-18
3.273810E+03	4.547427E-17	2.235985E-18
3.283730E+03	4.704885E-17	2.306285E-18
3.293651E+03	4.870052E-17	2.379844E-18
3.303571E+03	5.043466E-17	2.456886E-18
3.313492E+03	5.225417E-17	2.537510E-18
3.323413E+03	5.416632E-17	2.622025E-18
3.333333E+03	5.617456E-17	2.710552E-18
3.343254E+03	5.828539E-17	2.803354E-18
3.353175E+03	6.050418E-17	2.900637E-18
3.363095E+03	6.283509E-17	3.002547E-18
3.373016E+03	6.528705E-17	3.109448E-18
3.382937E+03	6.786317E-17	3.221430E-18
3.392857E+03	7.057305E-17	3.338881E-18
3.402778E+03	7.342020E-17	3.461899E-18
3.412698E+03	7.641315E-17	3.590814E-18
3.422619E+03	7.955565E-17	3.725725E-18
3.432540E+03	8.285665E-17	3.866972E-18
3.442460E+03	8.632180E-17	4.014737E-18
3.452381E+03	8.995499E-17	4.169111E-18
3.462302E+03	9.376354E-17	4.330346E-18
3.472222E+03	9.775106E-17	4.498514E-18
3.482143E+03	1.019210E-16	4.673680E-18
3.492063E+03	1.062801E-16	4.856053E-18
3.501984E+03	1.108293E-16	5.045572E-18
3.511905E+03	1.155746E-16	5.242412E-18
3.521825E+03	1.205138E-16	5.446359E-18
3.531746E+03	1.256540E-16	5.657636E-18
3.541667E+03	1.309913E-16	5.875954E-18
3.551587E+03	1.365274E-16	6.101280E-18
3.561508E+03	1.422609E-16	6.333442E-18
3.571429E+03	1.481867E-16	6.572106E-18
3.581349E+03	1.542989E-16	6.816897E-18
3.591270E+03	1.605974E-16	7.067708E-18
3.601190E+03	1.670790E-16	7.324291E-18
3.611111E+03	1.737419E-16	7.586466E-18
3.621032E+03	1.805835E-16	7.854014E-18
3.630952E+03	1.876006E-16	8.126692E-18
3.640873E+03	1.947888E-16	8.404204E-18
3.650794E+03	2.021428E-16	8.686224E-18
3.660714E+03	2.096595E-16	8.972520E-18
3.670635E+03	2.173316E-16	9.262689E-18
3.680556E+03	2.251482E-16	9.556164E-18
3.690476E+03	2.331032E-16	9.852604E-18
3.700397E+03	2.411864E-16	1.015150E-17
3.710317E+03	2.493835E-16	1.045216E-17
3.720238E+03	2.576891E-16	1.075429E-17
3.730159E+03	2.660834E-16	1.105701E-17
3.740079E+03	2.745559E-16	1.135981E-17
3.750000E+03	2.830918E-16	1.166203E-17
3.759921E+03	2.916717E-16	1.196283E-17
3.769841E+03	3.002867E-16	1.226181E-17
3.779762E+03	3.089121E-16	1.255793E-17
3.789683E+03	3.175382E-16	1.285080E-17
3.799603E+03	3.261389E-16	1.313933E-17
3.809524E+03	3.346994E-16	1.342295E-17
3.819444E+03	3.432012E-16	1.370093E-17
3.829365E+03	3.516293E-16	1.397269E-17
3.839286E+03	3.599562E-16	1.423718E-17
3.849206E+03	3.681717E-16	1.449405E-17
3.859127E+03	3.762482E-16	1.474225E-17
3.869048E+03	3.841763E-16	1.498151E-17
3.878968E+03	3.919381E-16	1.521119E-17
3.888889E+03	3.995074E-16	1.543038E-17
3.898810E+03	4.068814E-16	1.563907E-17
3.908730E+03	4.140355E-16	1.583641E-17
3.918651E+03	4.209552E-16	1.602199E-17
3.928571E+03	4.276363E-16	1.619576E-17
3.938492E+03	4.340577E-16	1.635706E-17
3.948413E+03	4.402131E-16	1.650581E-17
3.958333E+03	4.460984E-16	1.664199E-17
3.968254E+03	4.516959E-16	1.676511E-17
3.978175E+03	4.570096E-16	1.687546E-17
3.988095E+03	4.620350E-16	1.697306E-17
3.998016E+03	4.667594E-16	1.705760E-17
4.007937E+03	4.711970E-16	1.712977E-17
4.017857E+03	4.753387E-16	1.718941E-17
4.027778E+03	4.791870E-16	1.723678E-17
4.037698E+03	4.827569E-16	1.727258E-17
4.047619E+03	4.860448E-16	1.729687E-17
4.057540E+03	4.890641E-16	1.731027E-17
4.067460E+03	4.918252E-16	1.731331E-17
4.077381E+03	4.943406E-16	1.730659E-17
4.087302E+03	4.966245E-16	1.729074E-17
4.097222E+03	4.986929E-16	1.726646E-17
4.107143E+03	5.005583E-16	1.723432E-17
4.117063E+03	5.022450E-16	1.719527E-17
4.126984E+03	5.037685E-16	1.714996E-17
4.136905E+03	5.051555E-16	1.709938E-17
4.146825E+03	5.064183E-16	1.704403E-17
4.156746E+03	5.075853E-16	1.698496E-17
4.166667E+03	5.086802E-16	1.692302E-17
4.176587E+03	5.097169E-16	1.685870E-17
4.186508E+03	5.107199E-16	1.679288E-17
4.196429E+03	5.117132E-16	1.672635E-17
4.206349E+03	5.127110E-16	1.665960E-17
4.216270E+03	5.137370E-16	1.659340E-17
4.226190E+03	5.148094E-16	1.652833E-17
4.236111E+03	5.159460E-16	1.646495E-17
4.246032E+03	5.171587E-16	1.640360E-17
4.255952E+03	5.184635E-16	1.634476E-17
4.265873E+03	5.198703E-16	1.628869E-17
4.275794E+03	5.213976E-16	1.623594E-17
4.285714E+03	5.230432E-16	1.618637E-17
4.295635E+03	5.248229E-16	1.614042E-17
4.305556E+03	5.267359E-16	1.609801E-17
4.315476E+03	5.287897E-16	1.605929E-17
4.325397E+03	5.309941E-16	1.602450E-17
4.335317E+03	5.333467E-16	1.599349E-17
4.345238E+03	5.358568E-16	1.596649E-17
4.355159E+03	5.385357E-16	1.594375E-17
4.365079E+03	5.413960E-16	1.592557E-17
4.375000E+03	5.444475E-16	1.591214E-17
4.384921E+03	5.476863E-16	1.590328E-17
4.394841E+03	5.511162E-16	1.589900E-17
4.404762E+03	5.547433E-16	1.589940E-17
4.414683E+03	5.585560E-16	1.590406E-17
4.424603E+03	5.625458E-16	1.591267E-17
4.434524E+03	5.667017E-16	1.592484E-17
4.444444E+03	5.710163E-16	1.594030E-17
4.454365E+03	5.754643E-16	1.595830E-17
4.464286E+03	5.800239E-16	1.597818E-17
4.474206E+03	5.846823E-16	1.599959E-17
4.484127E+03	5.894093E-16	1.602166E-17
4.494048E+03	5.941729E-16	1.604355E-17
4.503968E+03	5.989512E-16	1.606467E-17
4.513889E+03	6.037051E-16	1.608403E-17
4.523810E+03	6.084117E-16	1.610105E-17
4.533730E+03	6.130371E-16	1.611493E-17
4.543651E+03	6.175426E-16	1.612474E-17
4.553571E+03	6.218961E-16	1.612974E-17
4.563492E+03	6.260787E-16	1.612959E-17
4.573413E+03	6.300502E-16	1.612337E-17
4.583333E+03	6.337841E-16	1.611058E-17
4.593254E+03	6.372566E-16	1.609078E-17
4.603175E+03	6.404464E-16	1.606360E-17
4.613095E+03	6.433296E-16	1.602866E-17
4.623016E+03	6.458851E-16	1.598561E-17
4.632937E+03	6.481017E-16	1.593440E-17
4.642857E+03	6.499656E-16	1.587489E-17
4.652778E+03	6.514542E-16	1.580676E-17
4.662698E+03	6.525735E-16	1.573036E-17
4.672619E+03	6.533089E-16	1.564557E-17
4.682540E+03	6.536621E-16	1.555264E-17
4.692460E+03	6.536452E-16	1.545208E-17
4.702381E+03	6.532742E-16	1.534446E-17
4.712302E+03	6.525686E-16	1.523045E-17
4.722222E+03	6.515449E-16	1.511059E-17
4.732143E+03	6.502402E-16	1.498591E-17
4.742063E+03	6.486808E-16	1.485718E-17
4.751984E+03	6.468938E-16	1.472513E-17
4.761905E+03	6.449182E-16	1.459078E-17
4.771825E+03	6.427738E-16	1.445466E-17
4.781746E+03	6.404904E-16	1.431753E-17
4.791667E+03	6.381020E-16	1.418022E-17
4.801587E+03	6.356211E-16	1.404307E-17
4.811508E+03	6.330695E-16	1.390661E-17
4.821429E+03	6.304618E-16	1.377119E-17
4.831349E+03	6.278256E-16	1.363745E-17
4.841270E+03	6.251930E-16	1.350610E-17
4.851190E+03	6.225882E-16	1.337764E-17
4.861111E+03	6.200264E-16	1.325236E-17
4.871032E+03	6.175384E-16	1.313082E-17
4.880952E+03	6.151401E-16	1.301330E-17
4.890873E+03	6.128399E-16	1.289988E-17
4.900794E+03	6.106606E-16	1.279097E-17
4.910714E+03	6.085995E-16	1.268641E-17
4.920635E+03	6.066743E-16	1.258649E-17
4.930556E+03	6.048890E-16	1.249120E-17
4.940476E+03	6.032336E-16	1.240026E-17
4.950397E+03	6.017260E-16	1.231394E-17
4.960317E+03	6.003542E-16	1.223192E-17
4.970238E+03	5.991231E-16	1.215421E-17
4.980159E+03	5.980326E-16	1.208073E-17
4.990079E+03	5.970771E-16	1.201130E-17
5.000000E+03	5.962642E-16	1.194598E-17
5.009921E+03	5.955962E-16	1.188475E-17
5.019841E+03	5.950714E-16	1.182751E-17
5.029762E+03	5.947007E-16	1.177439E-17
5.039683E+03	5.944844E-16	1.172534E-17
5.049603E+03	5.944352E-16	1.168053E-17
5.059524E+03	5.945611E-16	1.164005E-17
5.069444E+03	5.948589E-16	1.160376E-17
5.079365E+03	5.953546E-16	1.157210E-17
5.089286E+03	5.960391E-16	1.154483E-17
5.099206E+03	5.969258E-16	1.152213E-17
5.109127E+03	5.980216E-16	1.150407E-17
5.119048E+03	5.993372E-16	1.149078E-17
5.128968E+03	6.008643E-16	1.148205E-17
5.138889E+03	6.026042E-16	1.147782E-17
5.148810E+03	6.045670E-16	1.147822E-17
5.158730E+03	6.067309E-16	1.148278E-17
5.168651E+03	6.090997E-16	1.149152E-17
5.178571E+03	6.116562E-16	1.150404E-17
5.188492E+03	6.143851E-16	1.152002E-17
5.198413E+03	6.172680E-16	1.153905E-17
5.208333E+03	6.202763E-16	1.156056E-17
5.218254E+03	6.233908E-16	1.158415E-17
5.228175E+03	6.265770E-16	1.160915E-17
5.238095E+03	6.298102E-16	1.163507E-17
5.248016E+03	6.330455E-16	1.166106E-17
5.257937E+03	6.362552E-16	1.168660E-17
5.267857E+03	6.394049E-16	1.171104E-17
5.277778E+03	6.424547E-16	1.173365E-17
5.287698E+03	6.453725E-16	1.175384E-17
5.297619E+03	6.481352E-16	1.177121E-17
5.307540E+03	6.507045E-16	1.178506E-17
5.317460E+03	6.530596E-16	1.179503E-17
5.327381E+03	6.551920E-16	1.180100E-17
5.337302E+03	6.570927E-16	1.180281E-17
5.347222E+03	6.587444E-16	1.180019E-17
5.357143E+03	6.601520E-16	1.179325E-17
5.367063E+03	6.613056E-16	1.178183E-17
5.376984E+03	6.621939E-16	1.176576E-17
5.386905E+03	6.627575E-16	1.174401E-17
5.396825E+03	6.629488E-16	1.171579E-17
5.406746E+03	6.627088E-16	1.168009E-17
5.416667E+03	6.619857E-16	1.163607E-17
5.426587E+03	6.607452E-16	1.158317E-17
5.436508E+03	6.589588E-16	1.152096E-17
5.446429E+03	6.566190E-16	1.144934E-17
5.456349E+03	6.537393E-16	1.136861E-17
5.466270E+03	6.503412E-16	1.127919E-17
5.476190E+03	6.464597E-16	1.118172E-17
5.486111E+03	6.421491E-16	1.107719E-17
5.496032E+03	6.374554E-16	1.096643E-17
5.505952E+03	6.324608E-16	1.085088E-17
5.515873E+03	6.272425E-16	1.073188E-17
5.525794E+03	6.218785E-16	1.061078E-17
5.535714E+03	6.164646E-16	1.048922E-17
5.545635E+03	6.110876E-16	1.036866E-17
5.555556E+03	6.058495E-16	1.025081E-17
5.565476E+03	6.008464E-16	1.013726E-17
5.575397E+03	5.961753E-16	1.002960E-17
5.585317E+03	5.919327E-16	9.929401E-18
5.595238E+03	5.882084E-16	9.838085E-18
5.605159E+03	5.851096E-16	9.757364E-18
5.615079E+03	5.827243E-16	9.688601E-18
5.625000E+03	5.811450E-16	9.633221E-18
5.634921E+03	5.804680E-16	9.592690E-18
5.644841E+03	5.807747E-16	9.568209E-18
5.654762E+03	5.821482E-16	9.560990E-18
5.664683E+03	5.846777E-16	9.572325E-18
5.674603E+03	5.884201E-16	9.602962E-18
5.684524E+03	5.934340E-16	9.653660E-18
5.694444E+03	5.997766E-16	9.725145E-18
5.704365E+03	6.074702E-16	9.817562E-18
5.714286E+03	6.165231E-16	9.930824E-18
5.724206E+03	6.269275E-16	1.006459E-17
5.734127E+03	6.386303E-16	1.021778E-17
5.744048E+03	6.515862E-16	1.038946E-17
5.753968E+03	6.656887E-16	1.057774E-17
5.763889E+03	6.808180E-16	1.078053E-17
5.773810E+03	6.968433E-16	1.099559E-17
5.783730E+03	7.135870E-16	1.122000E-17
5.793651E+03	7.308561E-16	1.145061E-17
5.803571E+03	7.484373E-16	1.168402E-17
5.813492E+03	7.661097E-16	1.191676E-17
5.823413E+03	7.836328E-16	1.214509E-17
5.833333E+03	8.007505E-16	1.236513E-17
5.843254E+03	8.172236E-16	1.257328E-17
5.853175E+03	8.328196E-16	1.276612E-17
5.863095E+03	8.473003E-16	1.294020E-17
5.873016E+03	8.604554E-16	1.309256E-17
5.882937E+03	8.721108E-16	1.322082E-17
5.892857E+03	8.821044E-16	1.332284E-17
5.902778E+03	8.903397E-16	1.339751E-17
5.912698E+03	8.967313E-16	1.344390E-17
5.922619E+03	9.012436E-16	1.346183E-17
5.932540E+03	9.038843E-16	1.345180E-17
5.942460E+03	9.047107E-16	1.341503E-17
5.952381E+03	9.038106E-16	1.335316E-17
5.962302E+03	9.012938E-16	1.326815E-17
5.972222E+03	8.973293E-16	1.316280E-17
5.982143E+03	8.920680E-16	1.303958E-17
5.992063E+03	8.857182E-16	1.290181E-17
6.001984E+03	8.784540E-16	1.275220E-17
6.011905E+03	8.704936E-16	1.259411E-17
6.021825E+03	8.620199E-16	1.243031E-17
6.031746E+03	8.532177E-16	1.226358E-17
6.041667E+03	8.442691E-16	1.209661E-17
6.051587E+03	8.353201E-16	1.193154E-17
6.061508E+03	8.265190E-16	1.177052E-17
6.071429E+03	8.179936E-16	1.161536E-17
6.081349E+03	8.098217E-16	1.146718E-17
6.091270E+03	8.021098E-16	1.132745E-17
6.101190E+03	7.949138E-16	1.119695E-17
6.111111E+03	7.882790E-16	1.107627E-17
6.121032E+03	7.822215E-16	1.096563E-17
6.130952E+03	7.767281E-16	1.086479E-17
6.140873E+03	7.717852E-16	1.077357E-17
6.150794E+03	7.673328E-16	1.069109E-17
6.160714E+03	7.633159E-16	1.061659E-17
6.170635E+03	7.596512E-16	1.054891E-17
6.180556E+03	7.562841E-16	1.048722E-17
6.190476E+03	7.531263E-16	1.043021E-17
6.200397E+03	7.500982E-16	1.037669E-17
6.210317E+03	7.471254E-16	1.032555E-17
6.220238E+03	7.441418E-16	1.027580E-17
6.230159E+03	7.411041E-16	1.022678E-17
6.240079E+03	7.379562E-16	1.017764E-17
6.250000E+03	7.347079E-16	1.012843E-17
6.259921E+03	7.313391E-16	1.007882E-17
6.269841E+03	7.278764E-16	1.002909E-17
6.279762E+03	7.243520E-16	9.979630E-18
6.289683E+03	7.208101E-16	9.930967E-18
6.299603E+03	7.173038E-16	9.883766E-18
6.309524E+03	7.139014E-16	9.838900E-18
6.319444E+03	7.106548E-16	9.797022E-18
6.329365E+03	7.076452E-16	9.759191E-18
6.339286E+03	7.049143E-16	9.725925E-18
6.349206E+03	7.025299E-16	9.698107E-18
6.359127E+03	7.005467E-16	9.676446E-18
6.369048E+03	6.990150E-16	9.661596E-18
6.378968E+03	6.979909E-16	9.654296E-18
6.388889E+03	6.974872E-16	9.654693E-18
6.398810E+03	6.975702E-16	9.663677E-18
6.408730E+03	6.982444E-16	9.681292E-18
6.418651E+03	6.995384E-16	9.707914E-18
6.428571E+03	7.014762E-16	9.743868E-18
6.438492E+03	7.040763E-16	9.789400E-18
6.448413E+03	7.073412E-16	9.844540E-18
6.458333E+03	7.112660E-16	9.909218E-18
6.468254E+03	7.158466E-16	9.983376E-18
6.478175E+03	7.210797E-16	1.006697E-17
6.488095E+03	7.269207E-16	1.015938E-17
6.498016E+03	7.333537E-16	1.026039E-17
6.507937E+03	7.402992E-16	1.036889E-17
6.517857E+03	7.477167E-16	1.048431E-17
6.527778E+03	7.555338E-16	1.060563E-17
6.537698E+03	7.636558E-16	1.073153E-17
6.547619E+03	7.719890E-16	1.086068E-17
6.557540E+03	7.804423E-16	1.099179E-17
6.567460E+03	7.888956E-16	1.112315E-17
6.577381E+03	7.972465E-16	1.125331E-17
6.587302E+03	8.053667E-16	1.138042E-17
6.597222E+03	8.131628E-16	1.150315E-17
6.607143E+03	8.204959E-16	1.161950E-17
6.617063E+03	8.272682E-16	1.172804E-17
6.626984E+03	8.333769E-16	1.182729E-17
6.636905E+03	8.387289E-16	1.191588E-17
6.646825E+03	8.432560E-16	1.199280E-17
6.656746E+03	8.468659E-16	1.205667E-17
6.666667E+03	8.495341E-16	1.210706E-17
6.676587E+03	8.512270E-16	1.214341E-17
6.686508E+03	8.519151E-16	1.216519E-17
6.696429E+03	8.516125E-16	1.217255E-17
6.706349E+03	8.503248E-16	1.216546E-17
6.716270E+03	8.481004E-16	1.214456E-17
6.726190E+03	8.449902E-16	1.211051E-17
6.736111E+03	8.410585E-16	1.206417E-17
6.746032E+03	8.363813E-16	1.200656E-17
6.755952E+03	8.310309E-16	1.193870E-17
6.765873E+03	8.251249E-16	1.186222E-17
6.775794E+03	8.187459E-16	1.177828E-17
6.785714E+03	8.119903E-16	1.168825E-17
6.795635E+03	8.049406E-16	1.159330E-17
6.805556E+03	7.977274E-16	1.149529E-17
6.815476E+03	7.904015E-16	1.139496E-17
6.825397E+03	7.830893E-16	1.129413E-17
6.835317E+03	7.758792E-16	1.119408E-17
6.845238E+03	7.689031E-16	1.109671E-17
6.855159E+03	7.622535E-16	1.100338E-17
6.865079E+03	7.559815E-16	1.091482E-17
6.875000E+03	7.501702E-16	1.083226E-17
6.884921E+03	7.448582E-16	1.075627E-17
6.894841E+03	7.400400E-16	1.068677E-17
6.904762E+03	7.357395E-16	1.062413E-17
6.914683E+03	7.319377E-16	1.056808E-17
6.924603E+03	7.285864E-16	1.051794E-17
6.934524E+03	7.256349E-16	1.047297E-17
6.944444E+03	7.230214E-16	1.043231E-17
6.954365E+03	7.206882E-16	1.039513E-17
6.964286E+03	7.185481E-16	1.036018E-17
6.974206E+03	7.165375E-16	1.032657E-17
6.984127E+03	7.145702E-16	1.029306E-17
6.994048E+03	7.125900E-16	1.025886E-17
7.003968E+03	7.105231E-16	1.022294E-17
7.013889E+03	7.083179E-16	1.018458E-17
7.023810E+03	7.059455E-16	1.014339E-17
7.033730E+03	7.033625E-16	1.009879E-17
7.043651E+03	7.005611E-16	1.005069E-17
7.053571E+03	6.975173E-16	9.998791E-18
7.063492E+03	6.942405E-16	9.943267E-18
7.073413E+03	6.907334E-16	9.884203E-18
7.083333E+03	6.869908E-16	9.821568E-18
7.093254E+03	6.830230E-16	9.755555E-18
7.103175E+03	6.788669E-16	9.686738E-18
7.113095E+03	6.744964E-16	9.614794E-18
7.123016E+03	6.699603E-16	9.540468E-18
7.132937E+03	6.652554E-16	9.463764E-18
7.142857E+03	6.603770E-16	9.384665E-18
7.152778E+03	6.553560E-16	9.303659E-18
7.162698E+03	6.501716E-16	9.220500E-18
7.172619E+03	6.448511E-16	9.135629E-18
7.182540E+03	6.393833E-16	9.048936E-18
7.192460E+03	6.337812E-16	8.960652E-18
7.202381E+03	6.280321E-16	8.870650E-18
7.212302E+03	6.221482E-16	8.779151E-18
7.222222E+03	6.161297E-16	8.686204E-18
7.232143E+03	6.099899E-16	8.592042E-18
7.242063E+03	6.037193E-16	8.496580E-18
7.251984E+03	5.973348E-16	8.400095E-18
7.261905E+03	5.908435E-16	8.302731E-18
7.271825E+03	5.842563E-16	8.204681E-18
7.281746E+03	5.775993E-16	8.106345E-18
7.291667E+03	5.709019E-16	8.008173E-18
7.301587E+03	5.641748E-16	7.910345E-18
7.311508E+03	5.574549E-16	7.813407E-18
7.321429E+03	5.507709E-16	7.717788E-18
7.331349E+03	5.441653E-16	7.624107E-18
7.341270E+03	5.376702E-16	7.532835E-18
7.351190E+03	5.313189E-16	7.444459E-18
7.361111E+03	5.251335E-16	7.359307E-18
7.371032E+03	5.191683E-16	7.278159E-18
7.380952E+03	5.134319E-16	7.201154E-18
7.390873E+03	5.079520E-16	7.128698E-18
7.400794E+03	5.027633E-16	7.061297E-18
7.410714E+03	4.978744E-16	6.999096E-18
7.420635E+03	4.932892E-16	6.942171E-18
7.430556E+03	4.890165E-16	6.890669E-18
7.440476E+03	4.850487E-16	6.844511E-18
7.450397E+03	4.813922E-16	6.803804E-18
7.460317E+03	4.780150E-16	6.768065E-18
7.470238E+03	4.749084E-16	6.737122E-18
7.480159E+03	4.720456E-16	6.710549E-18
7.490079E+03	4.693712E-16	6.687515E-18
7.500000E+03	4.668432E-16	6.667373E-18
7.509921E+03	4.644219E-16	6.649507E-18
7.519841E+03	4.620517E-16	6.633068E-18
7.529762E+03	4.596514E-16	6.616832E-18
7.539683E+03	4.571678E-16	6.599969E-18
7.549603E+03	4.545368E-16	6.581479E-18
7.559524E+03	4.516964E-16	6.560385E-18
7.569444E+03	4.485900E-16	6.535771E-18
7.579365E+03	4.451609E-16	6.506716E-18
7.589286E+03	4.414011E-16	6.472998E-18
7.599206E+03	4.373191E-16	6.434634E-18
7.609127E+03	4.329459E-16	6.391978E-18
7.619048E+03	4.283276E-16	6.345614E-18
7.628968E+03	4.235028E-16	6.296024E-18
7.638889E+03	4.185011E-16	6.243564E-18
7.648810E+03	4.133607E-16	6.188730E-18
7.658730E+03	4.081269E-16	6.132131E-18
7.668651E+03	4.028329E-16	6.074208E-18
7.678571E+03	3.974994E-16	6.015223E-18
7.688492E+03	3.921532E-16	5.955535E-18
7.698413E+03	3.868272E-16	5.895607E-18
