#wls	flux	fluxerr
1.587302E+03	5.657381E-18	3.369531E-19
1.626984E+03	5.642787E-18	3.348489E-19
1.666667E+03	5.628070E-18	3.327132E-19
1.706349E+03	5.615448E-18	3.306765E-19
1.746032E+03	5.603938E-18	3.286791E-19
1.785714E+03	5.593705E-18	3.267295E-19
1.825397E+03	5.582840E-18	3.247153E-19
1.865079E+03	5.569701E-18	3.225414E-19
1.904762E+03	5.552373E-18	3.200987E-19
1.944444E+03	5.530017E-18	3.173420E-19
1.984127E+03	5.503703E-18	3.143364E-19
2.023810E+03	5.477840E-18	3.113352E-19
2.063492E+03	5.467392E-18	3.091844E-19
2.103175E+03	5.491811E-18	3.089646E-19
2.142857E+03	5.575313E-18	3.119994E-19
2.182540E+03	5.733329E-18	3.190923E-19
2.222222E+03	5.966795E-18	3.302230E-19
2.261905E+03	6.266671E-18	3.448175E-19
2.301587E+03	6.621547E-18	3.621811E-19
2.341270E+03	7.023054E-18	3.817963E-19
2.380952E+03	7.467573E-18	4.034110E-19
2.420635E+03	7.955368E-18	4.269845E-19
2.460317E+03	8.489763E-18	4.526363E-19
2.500000E+03	9.076703E-18	4.806180E-19
2.539683E+03	9.723519E-18	5.112426E-19
2.579365E+03	1.043724E-17	5.447932E-19
2.619048E+03	1.122930E-17	5.817679E-19
2.658730E+03	1.210815E-17	6.224884E-19
2.698413E+03	1.308697E-17	6.675000E-19
2.738095E+03	1.417903E-17	7.173271E-19
2.777778E+03	1.539936E-17	7.725528E-19
2.817460E+03	1.676504E-17	8.338315E-19
2.857143E+03	1.829808E-17	9.020226E-19
2.896825E+03	2.002375E-17	9.780970E-19
2.936508E+03	2.197578E-17	1.063380E-18
2.976190E+03	2.419628E-17	1.159525E-18
2.986111E+03	2.479960E-17	1.185505E-18
2.996032E+03	2.542350E-17	1.212311E-18
3.005952E+03	2.606963E-17	1.240010E-18
3.015873E+03	2.673980E-17	1.268680E-18
3.025794E+03	2.743309E-17	1.298269E-18
3.035714E+03	2.815365E-17	1.328962E-18
3.045635E+03	2.890130E-17	1.360738E-18
3.055556E+03	2.967774E-17	1.393668E-18
3.065476E+03	3.048391E-17	1.427784E-18
3.075397E+03	3.132286E-17	1.463214E-18
3.085317E+03	3.219572E-17	1.499999E-18
3.095238E+03	3.310262E-17	1.538130E-18
3.105159E+03	3.404693E-17	1.577750E-18
3.115079E+03	3.503006E-17	1.618907E-18
3.125000E+03	3.605347E-17	1.661653E-18
3.134921E+03	3.711876E-17	1.706043E-18
3.144841E+03	3.822986E-17	1.752241E-18
3.154762E+03	3.938637E-17	1.800209E-18
3.164683E+03	4.059369E-17	1.850173E-18
3.174603E+03	4.185281E-17	1.902156E-18
3.184524E+03	4.316723E-17	1.956296E-18
3.194444E+03	4.454063E-17	2.012734E-18
3.204365E+03	4.597450E-17	2.071512E-18
3.214286E+03	4.747292E-17	2.132787E-18
3.224206E+03	4.903895E-17	2.196668E-18
3.234127E+03	5.067847E-17	2.263389E-18
3.244048E+03	5.239381E-17	2.333020E-18
3.253968E+03	5.419010E-17	2.405757E-18
3.263889E+03	5.607148E-17	2.481746E-18
3.273810E+03	5.804374E-17	2.561207E-18
3.283730E+03	6.011165E-17	2.644308E-18
3.293651E+03	6.228028E-17	2.731229E-18
3.303571E+03	6.455504E-17	2.822162E-18
3.313492E+03	6.694317E-17	2.917376E-18
3.323413E+03	6.945086E-17	3.017087E-18
3.333333E+03	7.208465E-17	3.121526E-18
3.343254E+03	7.484993E-17	3.230869E-18
3.353175E+03	7.775713E-17	3.345503E-18
3.363095E+03	8.081081E-17	3.465562E-18
3.373016E+03	8.401900E-17	3.591321E-18
3.382937E+03	8.739183E-17	3.723140E-18
3.392857E+03	9.093470E-17	3.861174E-18
3.402778E+03	9.465665E-17	4.005727E-18
3.412698E+03	9.856708E-17	4.157113E-18
3.422619E+03	1.026721E-16	4.315500E-18
3.432540E+03	1.069793E-16	4.481115E-18
3.442460E+03	1.114987E-16	4.654286E-18
3.452381E+03	1.162363E-16	4.835157E-18
3.462302E+03	1.211979E-16	5.023866E-18
3.472222E+03	1.263910E-16	5.220621E-18
3.482143E+03	1.318229E-16	5.425609E-18
3.492063E+03	1.374985E-16	5.638917E-18
3.501984E+03	1.434219E-16	5.860597E-18
3.511905E+03	1.495968E-16	6.090675E-18
3.521825E+03	1.560281E-16	6.329235E-18
3.531746E+03	1.627130E-16	6.576034E-18
3.541667E+03	1.696570E-16	6.831167E-18
3.551587E+03	1.768573E-16	7.094398E-18
3.561508E+03	1.843149E-16	7.365634E-18
3.571429E+03	1.920268E-16	7.644636E-18
3.581349E+03	1.999890E-16	7.931106E-18
3.591270E+03	2.081983E-16	8.224800E-18
3.601190E+03	2.166474E-16	8.525304E-18
3.611111E+03	2.253303E-16	8.832253E-18
3.621032E+03	2.342365E-16	9.145117E-18
3.630952E+03	2.433626E-16	9.463652E-18
3.640873E+03	2.526919E-16	9.787090E-18
3.650794E+03	2.622180E-16	1.011508E-17
3.660714E+03	2.719304E-16	1.044711E-17
3.670635E+03	2.818104E-16	1.078236E-17
3.680556E+03	2.918474E-16	1.112034E-17
3.690476E+03	3.020264E-16	1.146038E-17
3.700397E+03	3.123274E-16	1.180166E-17
3.710317E+03	3.227359E-16	1.214355E-17
3.720238E+03	3.332330E-16	1.248528E-17
3.730159E+03	3.437983E-16	1.282603E-17
3.740079E+03	3.544102E-16	1.316495E-17
3.750000E+03	3.650462E-16	1.350118E-17
3.759921E+03	3.756867E-16	1.383396E-17
3.769841E+03	3.863075E-16	1.416240E-17
3.779762E+03	3.968880E-16	1.448574E-17
3.789683E+03	4.073938E-16	1.480274E-17
3.799603E+03	4.178121E-16	1.511296E-17
3.809524E+03	4.281121E-16	1.541532E-17
3.819444E+03	4.382677E-16	1.570892E-17
3.829365E+03	4.482570E-16	1.599306E-17
3.839286E+03	4.580588E-16	1.626706E-17
3.849206E+03	4.676429E-16	1.652992E-17
3.859127E+03	4.769891E-16	1.678103E-17
3.869048E+03	4.860783E-16	1.701984E-17
3.878968E+03	4.948825E-16	1.724550E-17
3.888889E+03	5.033846E-16	1.745754E-17
3.898810E+03	5.115641E-16	1.765540E-17
3.908730E+03	5.194073E-16	1.783877E-17
3.918651E+03	5.268966E-16	1.800722E-17
3.928571E+03	5.340222E-16	1.816058E-17
3.938492E+03	5.407649E-16	1.829839E-17
3.948413E+03	5.471135E-16	1.842046E-17
3.958333E+03	5.530749E-16	1.852722E-17
3.968254E+03	5.586259E-16	1.861809E-17
3.978175E+03	5.637730E-16	1.869351E-17
3.988095E+03	5.685139E-16	1.875360E-17
3.998016E+03	5.728545E-16	1.879876E-17
4.007937E+03	5.767922E-16	1.882912E-17
4.017857E+03	5.803320E-16	1.884505E-17
4.027778E+03	5.834874E-16	1.884719E-17
4.037698E+03	5.862739E-16	1.883625E-17
4.047619E+03	5.886930E-16	1.881246E-17
4.057540E+03	5.907705E-16	1.877686E-17
4.067460E+03	5.925181E-16	1.872997E-17
4.077381E+03	5.939604E-16	1.867277E-17
4.087302E+03	5.951131E-16	1.860590E-17
4.097222E+03	5.960049E-16	1.853041E-17
4.107143E+03	5.966607E-16	1.844721E-17
4.117063E+03	5.971064E-16	1.835725E-17
4.126984E+03	5.973647E-16	1.826131E-17
4.136905E+03	5.974694E-16	1.816055E-17
4.146825E+03	5.974449E-16	1.805579E-17
4.156746E+03	5.973267E-16	1.794816E-17
4.166667E+03	5.971345E-16	1.783833E-17
4.176587E+03	5.969048E-16	1.772741E-17
4.186508E+03	5.966626E-16	1.761618E-17
4.196429E+03	5.964384E-16	1.750555E-17
4.206349E+03	5.962567E-16	1.739623E-17
4.216270E+03	5.961414E-16	1.728891E-17
4.226190E+03	5.961207E-16	1.718438E-17
4.236111E+03	5.962113E-16	1.708308E-17
4.246032E+03	5.964337E-16	1.698554E-17
4.255952E+03	5.968073E-16	1.689226E-17
4.265873E+03	5.973390E-16	1.680336E-17
4.275794E+03	5.980501E-16	1.671937E-17
4.285714E+03	5.989495E-16	1.664046E-17
4.295635E+03	6.000328E-16	1.656642E-17
4.305556E+03	6.013149E-16	1.649758E-17
4.315476E+03	6.027973E-16	1.643389E-17
4.325397E+03	6.044786E-16	1.637522E-17
4.335317E+03	6.063649E-16	1.632166E-17
4.345238E+03	6.084750E-16	1.627361E-17
4.355159E+03	6.108139E-16	1.623111E-17
4.365079E+03	6.133884E-16	1.619424E-17
4.375000E+03	6.162130E-16	1.616328E-17
4.384921E+03	6.192827E-16	1.613798E-17
4.394841E+03	6.226001E-16	1.611832E-17
4.404762E+03	6.261541E-16	1.610390E-17
4.414683E+03	6.299412E-16	1.609453E-17
4.424603E+03	6.339499E-16	1.608983E-17
4.434524E+03	6.381601E-16	1.608921E-17
4.444444E+03	6.425495E-16	1.609203E-17
4.454365E+03	6.470924E-16	1.609760E-17
4.464286E+03	6.517729E-16	1.610546E-17
4.474206E+03	6.565496E-16	1.611457E-17
4.484127E+03	6.613965E-16	1.612428E-17
4.494048E+03	6.662684E-16	1.613350E-17
4.503968E+03	6.711426E-16	1.614168E-17
4.513889E+03	6.759777E-16	1.614790E-17
4.523810E+03	6.807260E-16	1.615106E-17
4.533730E+03	6.853519E-16	1.615041E-17
4.543651E+03	6.898270E-16	1.614538E-17
4.553571E+03	6.940998E-16	1.613489E-17
4.563492E+03	6.981515E-16	1.611865E-17
4.573413E+03	7.019352E-16	1.609570E-17
4.583333E+03	7.054251E-16	1.606565E-17
4.593254E+03	7.086059E-16	1.602833E-17
4.603175E+03	7.114471E-16	1.598322E-17
4.613095E+03	7.139351E-16	1.593022E-17
4.623016E+03	7.160609E-16	1.586935E-17
4.632937E+03	7.178269E-16	1.580084E-17
4.642857E+03	7.192209E-16	1.572464E-17
4.652778E+03	7.202615E-16	1.564136E-17
4.662698E+03	7.209593E-16	1.555142E-17
4.672619E+03	7.213030E-16	1.545476E-17
4.682540E+03	7.212925E-16	1.535156E-17
4.692460E+03	7.209314E-16	1.524209E-17
4.702381E+03	7.202275E-16	1.512670E-17
4.712302E+03	7.191980E-16	1.500591E-17
4.722222E+03	7.178629E-16	1.488031E-17
4.732143E+03	7.162443E-16	1.475049E-17
4.742063E+03	7.143651E-16	1.461708E-17
4.751984E+03	7.122620E-16	1.448095E-17
4.761905E+03	7.099450E-16	1.434240E-17
4.771825E+03	7.074626E-16	1.420252E-17
4.781746E+03	7.048292E-16	1.406167E-17
4.791667E+03	7.020777E-16	1.392058E-17
4.801587E+03	6.992330E-16	1.377980E-17
4.811508E+03	6.963270E-16	1.364001E-17
4.821429E+03	6.933793E-16	1.350162E-17
4.831349E+03	6.904209E-16	1.336526E-17
4.841270E+03	6.874754E-16	1.323138E-17
4.851190E+03	6.845733E-16	1.310054E-17
4.861111E+03	6.817378E-16	1.297311E-17
4.871032E+03	6.789897E-16	1.284941E-17
4.880952E+03	6.763467E-16	1.272970E-17
4.890873E+03	6.738359E-16	1.261442E-17
4.900794E+03	6.714557E-16	1.250344E-17
4.910714E+03	6.692267E-16	1.239707E-17
4.920635E+03	6.671539E-16	1.229531E-17
4.930556E+03	6.652333E-16	1.219801E-17
4.940476E+03	6.634720E-16	1.210520E-17
4.950397E+03	6.618692E-16	1.201679E-17
4.960317E+03	6.604293E-16	1.193278E-17
4.970238E+03	6.591446E-16	1.185295E-17
4.980159E+03	6.580135E-16	1.177720E-17
4.990079E+03	6.570419E-16	1.170556E-17
5.000000E+03	6.562304E-16	1.163796E-17
5.009921E+03	6.555750E-16	1.157425E-17
5.019841E+03	6.550852E-16	1.151456E-17
5.029762E+03	6.547662E-16	1.145888E-17
5.039683E+03	6.546183E-16	1.140716E-17
5.049603E+03	6.546551E-16	1.135957E-17
5.059524E+03	6.548852E-16	1.131618E-17
5.069444E+03	6.553175E-16	1.127709E-17
5.079365E+03	6.559550E-16	1.124227E-17
5.089286E+03	6.568065E-16	1.121182E-17
5.099206E+03	6.578865E-16	1.118590E-17
5.109127E+03	6.592020E-16	1.116458E-17
5.119048E+03	6.607521E-16	1.114776E-17
5.128968E+03	6.625400E-16	1.113543E-17
5.138889E+03	6.645663E-16	1.112756E-17
5.148810E+03	6.668289E-16	1.112402E-17
5.158730E+03	6.693157E-16	1.112458E-17
5.168651E+03	6.720308E-16	1.112923E-17
5.178571E+03	6.749482E-16	1.113749E-17
5.188492E+03	6.780579E-16	1.114915E-17
5.198413E+03	6.813326E-16	1.116372E-17
5.208333E+03	6.847480E-16	1.118077E-17
5.218254E+03	6.882762E-16	1.119979E-17
5.228175E+03	6.918796E-16	1.122016E-17
5.238095E+03	6.955313E-16	1.124142E-17
5.248016E+03	6.991961E-16	1.126298E-17
5.257937E+03	7.028238E-16	1.128403E-17
5.267857E+03	7.063917E-16	1.130421E-17
5.277778E+03	7.098508E-16	1.132274E-17
5.287698E+03	7.131748E-16	1.133920E-17
5.297619E+03	7.163267E-16	1.135303E-17
5.307540E+03	7.192814E-16	1.136385E-17
5.317460E+03	7.220119E-16	1.137126E-17
5.327381E+03	7.245191E-16	1.137531E-17
5.337302E+03	7.267744E-16	1.137557E-17
5.347222E+03	7.287847E-16	1.137218E-17
5.357143E+03	7.305539E-16	1.136524E-17
5.367063E+03	7.320883E-16	1.135487E-17
5.376984E+03	7.333661E-16	1.134077E-17
5.386905E+03	7.343225E-16	1.132197E-17
5.396825E+03	7.348840E-16	1.129739E-17
5.406746E+03	7.349831E-16	1.126603E-17
5.416667E+03	7.345695E-16	1.122720E-17
5.426587E+03	7.335983E-16	1.118026E-17
5.436508E+03	7.320243E-16	1.112457E-17
5.446429E+03	7.298253E-16	1.105984E-17
5.456349E+03	7.270177E-16	1.098636E-17
5.466270E+03	7.235975E-16	1.090411E-17
5.476190E+03	7.196133E-16	1.081387E-17
5.486111E+03	7.150989E-16	1.071618E-17
5.496032E+03	7.101244E-16	1.061212E-17
5.505952E+03	7.047717E-16	1.050294E-17
5.515873E+03	6.991117E-16	1.038972E-17
5.525794E+03	6.932462E-16	1.027398E-17
5.535714E+03	6.872839E-16	1.015731E-17
5.545635E+03	6.813180E-16	1.004109E-17
5.555556E+03	6.754670E-16	9.927030E-18
5.565476E+03	6.698519E-16	9.816877E-18
5.575397E+03	6.645740E-16	9.712061E-18
5.585317E+03	6.597623E-16	9.614408E-18
5.595238E+03	6.555311E-16	9.525503E-18
5.605159E+03	6.519788E-16	9.446689E-18
5.615079E+03	6.492282E-16	9.379643E-18
5.625000E+03	6.473844E-16	9.325767E-18
5.634921E+03	6.465406E-16	9.286277E-18
5.644841E+03	6.467970E-16	9.262472E-18
5.654762E+03	6.482329E-16	9.255335E-18
5.664683E+03	6.509314E-16	9.265892E-18
5.674603E+03	6.549582E-16	9.294904E-18
5.684524E+03	6.603657E-16	9.342933E-18
5.694444E+03	6.671911E-16	9.410319E-18
5.704365E+03	6.754612E-16	9.497245E-18
5.714286E+03	6.851614E-16	9.603309E-18
5.724206E+03	6.962837E-16	9.728205E-18
5.734127E+03	7.087742E-16	9.870987E-18
5.744048E+03	7.225603E-16	1.003046E-17
5.753968E+03	7.375503E-16	1.020517E-17
5.763889E+03	7.536173E-16	1.039322E-17
5.773810E+03	7.706074E-16	1.059233E-17
5.783730E+03	7.883400E-16	1.079990E-17
5.793651E+03	8.066102E-16	1.101305E-17
5.803571E+03	8.251924E-16	1.122864E-17
5.813492E+03	8.438528E-16	1.144346E-17
5.823413E+03	8.623371E-16	1.165408E-17
5.833333E+03	8.803750E-16	1.185691E-17
5.843254E+03	8.977159E-16	1.204866E-17
5.853175E+03	9.141080E-16	1.222609E-17
5.863095E+03	9.293237E-16	1.238635E-17
5.873016E+03	9.431367E-16	1.252661E-17
5.882937E+03	9.553715E-16	1.264479E-17
5.892857E+03	9.658747E-16	1.273914E-17
5.902778E+03	9.745312E-16	1.280842E-17
5.912698E+03	9.812780E-16	1.285213E-17
5.922619E+03	9.860862E-16	1.287019E-17
5.932540E+03	9.889565E-16	1.286293E-17
5.942460E+03	9.899642E-16	1.283166E-17
5.952381E+03	9.891886E-16	1.277769E-17
5.962302E+03	9.867662E-16	1.270309E-17
5.972222E+03	9.828481E-16	1.261005E-17
5.982143E+03	9.776055E-16	1.250102E-17
5.992063E+03	9.712364E-16	1.237874E-17
6.001984E+03	9.639460E-16	1.224600E-17
6.011905E+03	9.559042E-16	1.210512E-17
6.021825E+03	9.473244E-16	1.195894E-17
6.031746E+03	9.383855E-16	1.180980E-17
6.041667E+03	9.292631E-16	1.165998E-17
6.051587E+03	9.201059E-16	1.151142E-17
6.061508E+03	9.110531E-16	1.136589E-17
6.071429E+03	9.022023E-16	1.122461E-17
6.081349E+03	8.936737E-16	1.108910E-17
6.091270E+03	8.855341E-16	1.096018E-17
6.101190E+03	8.778299E-16	1.083842E-17
6.111111E+03	8.706224E-16	1.072457E-17
6.121032E+03	8.639111E-16	1.061860E-17
6.130952E+03	8.577133E-16	1.052072E-17
6.140873E+03	8.519785E-16	1.043031E-17
6.150794E+03	8.466901E-16	1.034715E-17
6.160714E+03	8.417992E-16	1.027066E-17
6.170635E+03	8.372458E-16	1.020010E-17
6.180556E+03	8.329671E-16	1.013464E-17
6.190476E+03	8.288998E-16	1.007345E-17
6.200397E+03	8.249832E-16	1.001568E-17
6.210317E+03	8.211940E-16	9.960984E-18
6.220238E+03	8.174605E-16	9.908418E-18
6.230159E+03	8.137635E-16	9.857676E-18
6.240079E+03	8.100720E-16	9.808309E-18
6.250000E+03	8.063870E-16	9.760263E-18
6.259921E+03	8.026990E-16	9.713353E-18
6.269841E+03	7.990089E-16	9.667525E-18
6.279762E+03	7.953603E-16	9.623240E-18
6.289683E+03	7.917615E-16	9.580535E-18
6.299603E+03	7.882507E-16	9.539810E-18
6.309524E+03	7.848934E-16	9.501797E-18
6.319444E+03	7.817161E-16	9.466761E-18
6.329365E+03	7.787816E-16	9.435411E-18
6.339286E+03	7.761330E-16	9.408219E-18
6.349206E+03	7.738471E-16	9.386069E-18
6.359127E+03	7.719576E-16	9.369333E-18
6.369048E+03	7.705301E-16	9.358769E-18
6.378968E+03	7.696180E-16	9.354998E-18
6.388889E+03	7.692511E-16	9.358355E-18
6.398810E+03	7.694999E-16	9.369678E-18
6.408730E+03	7.703980E-16	9.389363E-18
6.418651E+03	7.719859E-16	9.417892E-18
6.428571E+03	7.742871E-16	9.455549E-18
6.438492E+03	7.773406E-16	9.502807E-18
6.448413E+03	7.811544E-16	9.559769E-18
6.458333E+03	7.857501E-16	9.626707E-18
6.468254E+03	7.911039E-16	9.703338E-18
6.478175E+03	7.972254E-16	9.789793E-18
6.488095E+03	8.040765E-16	9.885618E-18
6.498016E+03	8.116040E-16	9.990174E-18
6.507937E+03	8.197636E-16	1.010293E-17
6.517857E+03	8.284716E-16	1.022287E-17
6.527778E+03	8.376539E-16	1.034909E-17
6.537698E+03	8.471977E-16	1.048020E-17
6.547619E+03	8.569894E-16	1.061480E-17
6.557540E+03	8.669175E-16	1.075152E-17
6.567460E+03	8.768223E-16	1.088837E-17
6.577381E+03	8.865904E-16	1.102393E-17
6.587302E+03	8.960657E-16	1.115625E-17
6.597222E+03	9.051047E-16	1.128351E-17
6.607143E+03	9.135673E-16	1.140395E-17
6.617063E+03	9.213342E-16	1.151604E-17
6.626984E+03	9.282535E-16	1.161786E-17
6.636905E+03	9.342286E-16	1.170813E-17
6.646825E+03	9.391801E-16	1.178582E-17
6.656746E+03	9.430196E-16	1.184973E-17
6.666667E+03	9.456789E-16	1.189889E-17
6.676587E+03	9.471560E-16	1.193317E-17
6.686508E+03	9.474411E-16	1.195235E-17
6.696429E+03	9.465168E-16	1.195611E-17
6.706349E+03	9.444472E-16	1.194515E-17
6.716270E+03	9.412712E-16	1.191988E-17
6.726190E+03	9.370614E-16	1.188113E-17
6.736111E+03	9.319213E-16	1.183014E-17
6.746032E+03	9.259368E-16	1.176792E-17
6.755952E+03	9.192337E-16	1.169601E-17
6.765873E+03	9.119144E-16	1.161567E-17
6.775794E+03	9.041143E-16	1.152858E-17
6.785714E+03	8.959392E-16	1.143605E-17
6.795635E+03	8.875240E-16	1.133978E-17
6.805556E+03	8.789856E-16	1.124125E-17
6.815476E+03	8.704243E-16	1.114173E-17
6.825397E+03	8.619687E-16	1.104287E-17
6.835317E+03	8.537155E-16	1.094590E-17
6.845238E+03	8.457959E-16	1.085253E-17
6.855159E+03	8.382688E-16	1.076351E-17
6.865079E+03	8.312194E-16	1.067996E-17
6.875000E+03	8.246990E-16	1.060255E-17
6.884921E+03	8.187388E-16	1.053170E-17
6.894841E+03	8.133500E-16	1.046759E-17
6.904762E+03	8.085254E-16	1.041012E-17
6.914683E+03	8.042399E-16	1.035901E-17
6.924603E+03	8.004536E-16	1.031375E-17
6.934524E+03	7.970993E-16	1.027348E-17
6.944444E+03	7.941423E-16	1.023779E-17
6.954365E+03	7.914983E-16	1.020560E-17
6.964286E+03	7.890928E-16	1.017596E-17
6.974206E+03	7.868646E-16	1.014810E-17
6.984127E+03	7.847108E-16	1.012070E-17
6.994048E+03	7.825897E-16	1.009326E-17
7.003968E+03	7.804221E-16	1.006476E-17
7.013889E+03	7.781511E-16	1.003449E-17
7.023810E+03	7.757274E-16	1.000183E-17
7.033730E+03	7.731253E-16	9.966490E-18
7.043651E+03	7.702991E-16	9.927896E-18
7.053571E+03	7.672404E-16	9.885972E-18
7.063492E+03	7.639190E-16	9.840359E-18
7.073413E+03	7.603260E-16	9.790978E-18
7.083333E+03	7.564719E-16	9.737999E-18
7.093254E+03	7.523571E-16	9.681464E-18
7.103175E+03	7.479702E-16	9.621264E-18
7.113095E+03	7.433300E-16	9.557684E-18
7.123016E+03	7.384277E-16	9.490652E-18
7.132937E+03	7.332834E-16	9.420465E-18
7.142857E+03	7.279019E-16	9.347231E-18
7.152778E+03	7.222875E-16	9.271047E-18
7.162698E+03	7.164436E-16	9.192002E-18
7.172619E+03	7.103732E-16	9.110177E-18
7.182540E+03	7.040644E-16	9.025465E-18
7.192460E+03	6.975481E-16	8.938303E-18
7.202381E+03	6.908132E-16	8.848594E-18
7.212302E+03	6.838638E-16	8.756433E-18
7.222222E+03	6.767202E-16	8.662120E-18
7.232143E+03	6.693772E-16	8.565626E-18
7.242063E+03	6.618600E-16	8.467316E-18
7.251984E+03	6.541842E-16	8.367423E-18
7.261905E+03	6.463688E-16	8.266225E-18
7.271825E+03	6.384374E-16	8.164056E-18
7.281746E+03	6.304309E-16	8.061469E-18
7.291667E+03	6.223674E-16	7.958723E-18
7.301587E+03	6.143082E-16	7.856626E-18
7.311508E+03	6.063037E-16	7.755849E-18
7.321429E+03	5.983677E-16	7.656588E-18
7.331349E+03	5.905796E-16	7.559880E-18
7.341270E+03	5.829803E-16	7.466270E-18
7.351190E+03	5.756225E-16	7.376451E-18
7.361111E+03	5.685445E-16	7.290935E-18
7.371032E+03	5.617947E-16	7.210364E-18
7.380952E+03	5.553932E-16	7.135019E-18
7.390873E+03	5.493439E-16	7.064973E-18
7.400794E+03	5.436828E-16	7.000715E-18
7.410714E+03	5.384035E-16	6.942193E-18
7.420635E+03	5.335177E-16	6.889585E-18
7.430556E+03	5.290061E-16	6.842676E-18
7.440476E+03	5.248775E-16	6.801612E-18
7.450397E+03	5.211203E-16	6.766246E-18
7.460317E+03	5.176901E-16	6.735967E-18
7.470238E+03	5.145692E-16	6.710511E-18
7.480159E+03	5.117075E-16	6.689191E-18
7.490079E+03	5.090578E-16	6.671355E-18
7.500000E+03	5.065774E-16	6.656406E-18
7.509921E+03	5.041928E-16	6.643338E-18
7.519841E+03	5.018364E-16	6.631213E-18
7.529762E+03	4.994375E-16	6.619045E-18
7.539683E+03	4.969235E-16	6.605810E-18
7.549603E+03	4.942236E-16	6.590495E-18
7.559524E+03	4.912723E-16	6.572150E-18
7.569444E+03	4.880137E-16	6.549939E-18
7.579365E+03	4.844065E-16	6.523212E-18
7.589286E+03	4.804304E-16	6.491597E-18
7.599206E+03	4.760880E-16	6.455027E-18
7.609127E+03	4.713980E-16	6.413655E-18
7.619048E+03	4.664014E-16	6.367944E-18
7.628968E+03	4.611129E-16	6.318001E-18
7.638889E+03	4.555952E-16	6.264603E-18
7.648810E+03	4.498684E-16	6.207947E-18
7.658730E+03	4.439961E-16	6.148844E-18
7.668651E+03	4.380077E-16	6.087640E-18
7.678571E+03	4.319514E-16	6.024953E-18
7.688492E+03	4.258516E-16	5.961080E-18
7.698413E+03	4.197400E-16	5.896429E-18
