#wls	flux	fluxerr
1.587302E+03	4.761677E-18	3.369857E-19
1.626984E+03	4.727719E-18	3.333075E-19
1.666667E+03	4.693327E-18	3.295850E-19
1.706349E+03	4.659951E-18	3.259203E-19
1.746032E+03	4.626769E-18	3.222551E-19
1.785714E+03	4.594161E-18	3.186158E-19
1.825397E+03	4.560653E-18	3.149001E-19
1.865079E+03	4.525736E-18	3.110740E-19
1.904762E+03	4.486774E-18	3.069583E-19
1.944444E+03	4.444068E-18	3.025780E-19
1.984127E+03	4.398207E-18	2.979769E-19
2.023810E+03	4.354021E-18	2.934841E-19
2.063492E+03	4.322102E-18	2.898086E-19
2.103175E+03	4.317669E-18	2.879525E-19
2.142857E+03	4.359243E-18	2.891138E-19
2.182540E+03	4.456949E-18	2.939076E-19
2.222222E+03	4.609878E-18	3.022072E-19
2.261905E+03	4.810041E-18	3.134230E-19
2.301587E+03	5.046083E-18	3.267575E-19
2.341270E+03	5.310687E-18	3.416888E-19
2.380952E+03	5.599574E-18	3.578997E-19
2.420635E+03	5.913068E-18	3.753707E-19
2.460317E+03	6.253207E-18	3.941882E-19
2.500000E+03	6.622160E-18	4.144416E-19
2.539683E+03	7.024121E-18	4.363399E-19
2.579365E+03	7.463879E-18	4.601194E-19
2.619048E+03	7.947404E-18	4.860767E-19
2.658730E+03	8.479242E-18	5.144079E-19
2.698413E+03	9.066536E-18	5.454526E-19
2.738095E+03	9.716537E-18	5.795395E-19
2.777778E+03	1.043743E-17	6.170327E-19
2.817460E+03	1.123702E-17	6.582523E-19
2.857143E+03	1.212511E-17	7.036119E-19
2.896825E+03	1.311463E-17	7.536774E-19
2.936508E+03	1.422074E-17	8.091063E-19
2.976190E+03	1.546476E-17	8.708589E-19
2.986111E+03	1.580056E-17	8.874339E-19
2.996032E+03	1.614679E-17	9.044824E-19
3.005952E+03	1.650382E-17	9.220200E-19
3.015873E+03	1.687300E-17	9.401154E-19
3.025794E+03	1.725398E-17	9.587431E-19
3.035714E+03	1.764928E-17	9.780365E-19
3.045635E+03	1.805744E-17	9.979081E-19
3.055556E+03	1.848037E-17	1.018456E-18
3.065476E+03	1.891949E-17	1.039750E-18
3.075397E+03	1.937436E-17	1.061759E-18
3.085317E+03	1.984652E-17	1.084557E-18
3.095238E+03	2.033657E-17	1.108168E-18
3.105159E+03	2.084516E-17	1.132620E-18
3.115079E+03	2.137200E-17	1.157884E-18
3.125000E+03	2.192084E-17	1.184156E-18
3.134921E+03	2.249048E-17	1.211357E-18
3.144841E+03	2.308282E-17	1.239580E-18
3.154762E+03	2.369879E-17	1.268861E-18
3.164683E+03	2.434045E-17	1.299298E-18
3.174603E+03	2.500783E-17	1.330879E-18
3.184524E+03	2.570315E-17	1.363707E-18
3.194444E+03	2.642764E-17	1.397833E-18
3.204365E+03	2.718262E-17	1.433309E-18
3.214286E+03	2.797063E-17	1.470254E-18
3.224206E+03	2.879320E-17	1.508729E-18
3.234127E+03	2.965313E-17	1.548860E-18
3.244048E+03	3.055097E-17	1.590657E-18
3.253968E+03	3.148977E-17	1.634257E-18
3.263889E+03	3.247148E-17	1.679737E-18
3.273810E+03	3.349946E-17	1.727247E-18
3.283730E+03	3.457467E-17	1.776811E-18
3.293651E+03	3.570205E-17	1.828655E-18
3.303571E+03	3.688416E-17	1.882881E-18
3.313492E+03	3.812236E-17	1.939527E-18
3.323413E+03	3.942216E-17	1.998841E-18
3.333333E+03	4.078521E-17	2.060871E-18
3.343254E+03	4.221750E-17	2.125883E-18
3.353175E+03	4.372100E-17	2.193936E-18
3.363095E+03	4.529921E-17	2.265165E-18
3.373016E+03	4.695880E-17	2.339860E-18
3.382937E+03	4.870220E-17	2.418093E-18
3.392857E+03	5.053502E-17	2.500095E-18
3.402778E+03	5.246155E-17	2.586025E-18
3.412698E+03	5.448622E-17	2.676045E-18
3.422619E+03	5.661359E-17	2.770323E-18
3.432540E+03	5.885010E-17	2.869110E-18
3.442460E+03	6.119891E-17	2.972499E-18
3.452381E+03	6.366678E-17	3.080748E-18
3.462302E+03	6.625702E-17	3.193947E-18
3.472222E+03	6.897476E-17	3.312269E-18
3.482143E+03	7.182326E-17	3.435795E-18
3.492063E+03	7.480958E-17	3.564782E-18
3.501984E+03	7.793494E-17	3.699205E-18
3.511905E+03	8.120430E-17	3.839215E-18
3.521825E+03	8.462043E-17	3.984854E-18
3.531746E+03	8.818588E-17	4.136152E-18
3.541667E+03	9.190725E-17	4.293325E-18
3.551587E+03	9.577990E-17	4.456063E-18
3.561508E+03	9.980964E-17	4.624539E-18
3.571429E+03	1.039976E-16	4.798711E-18
3.581349E+03	1.083421E-16	4.978394E-18
3.591270E+03	1.128427E-16	5.163481E-18
3.601190E+03	1.174989E-16	5.353839E-18
3.611111E+03	1.223144E-16	5.549544E-18
3.621032E+03	1.272848E-16	5.750288E-18
3.630952E+03	1.324100E-16	5.955977E-18
3.640873E+03	1.376896E-16	6.166483E-18
3.650794E+03	1.431197E-16	6.381536E-18
3.660714E+03	1.487014E-16	6.601081E-18
3.670635E+03	1.544264E-16	6.824656E-18
3.680556E+03	1.602943E-16	7.052144E-18
3.690476E+03	1.662983E-16	7.283155E-18
3.700397E+03	1.724337E-16	7.517389E-18
3.710317E+03	1.786951E-16	7.754518E-18
3.720238E+03	1.850729E-16	7.994052E-18
3.730159E+03	1.915638E-16	8.235755E-18
3.740079E+03	1.981566E-16	8.479079E-18
3.750000E+03	2.048396E-16	8.723442E-18
3.759921E+03	2.116070E-16	8.968542E-18
3.769841E+03	2.184493E-16	9.213908E-18
3.779762E+03	2.253487E-16	9.458742E-18
3.789683E+03	2.322980E-16	9.702689E-18
3.799603E+03	2.392855E-16	9.945232E-18
3.809524E+03	2.462954E-16	1.018567E-17
3.819444E+03	2.533153E-16	1.042349E-17
3.829365E+03	2.603323E-16	1.065812E-17
3.839286E+03	2.673293E-16	1.088888E-17
3.849206E+03	2.742929E-16	1.111522E-17
3.859127E+03	2.812140E-16	1.133678E-17
3.869048E+03	2.880752E-16	1.155288E-17
3.878968E+03	2.948587E-16	1.176285E-17
3.888889E+03	3.015558E-16	1.196639E-17
3.898810E+03	3.081496E-16	1.216286E-17
3.908730E+03	3.146274E-16	1.235183E-17
3.918651E+03	3.209775E-16	1.253292E-17
3.928571E+03	3.271886E-16	1.270575E-17
3.938492E+03	3.332454E-16	1.286983E-17
3.948413E+03	3.391381E-16	1.302487E-17
3.958333E+03	3.448626E-16	1.317081E-17
3.968254E+03	3.504061E-16	1.330728E-17
3.978175E+03	3.557566E-16	1.343393E-17
3.988095E+03	3.609133E-16	1.355086E-17
3.998016E+03	3.658710E-16	1.365799E-17
4.007937E+03	3.706214E-16	1.375516E-17
4.017857E+03	3.751571E-16	1.384221E-17
4.027778E+03	3.794867E-16	1.391961E-17
4.037698E+03	3.836053E-16	1.398731E-17
4.047619E+03	3.875095E-16	1.404532E-17
4.057540E+03	3.912021E-16	1.409390E-17
4.067460E+03	3.946880E-16	1.413335E-17
4.077381E+03	3.979783E-16	1.416423E-17
4.087302E+03	4.010711E-16	1.418657E-17
4.097222E+03	4.039763E-16	1.420088E-17
4.107143E+03	4.067054E-16	1.420768E-17
4.117063E+03	4.092764E-16	1.420771E-17
4.126984E+03	4.116935E-16	1.420124E-17
4.136905E+03	4.139721E-16	1.418890E-17
4.146825E+03	4.161332E-16	1.417150E-17
4.156746E+03	4.181837E-16	1.414936E-17
4.166667E+03	4.201406E-16	1.412314E-17
4.176587E+03	4.220267E-16	1.409367E-17
4.186508E+03	4.238500E-16	1.406126E-17
4.196429E+03	4.256285E-16	1.402657E-17
4.206349E+03	4.273805E-16	1.399023E-17
4.216270E+03	4.291240E-16	1.395286E-17
4.226190E+03	4.308724E-16	1.391490E-17
4.236111E+03	4.326381E-16	1.387677E-17
4.246032E+03	4.344433E-16	1.383916E-17
4.255952E+03	4.362996E-16	1.380244E-17
4.265873E+03	4.382228E-16	1.376708E-17
4.275794E+03	4.402228E-16	1.373335E-17
4.285714E+03	4.423189E-16	1.370182E-17
4.295635E+03	4.445193E-16	1.367270E-17
4.305556E+03	4.468367E-16	1.364632E-17
4.315476E+03	4.492880E-16	1.362313E-17
4.325397E+03	4.518842E-16	1.360340E-17
4.335317E+03	4.546357E-16	1.358735E-17
4.345238E+03	4.575562E-16	1.357531E-17
4.355159E+03	4.606559E-16	1.356750E-17
4.365079E+03	4.639385E-16	1.356392E-17
4.375000E+03	4.674131E-16	1.356475E-17
4.384921E+03	4.710778E-16	1.356982E-17
4.394841E+03	4.749282E-16	1.357893E-17
4.404762E+03	4.789642E-16	1.359196E-17
4.414683E+03	4.831785E-16	1.360863E-17
4.424603E+03	4.875574E-16	1.362847E-17
4.434524E+03	4.921010E-16	1.365141E-17
4.444444E+03	4.967872E-16	1.367677E-17
4.454365E+03	5.016072E-16	1.370425E-17
4.464286E+03	5.065351E-16	1.373310E-17
4.474206E+03	5.115593E-16	1.376298E-17
4.484127E+03	5.166466E-16	1.379299E-17
4.494048E+03	5.217835E-16	1.382277E-17
4.503968E+03	5.269444E-16	1.385167E-17
4.513889E+03	5.320902E-16	1.387869E-17
4.523810E+03	5.372021E-16	1.390341E-17
4.533730E+03	5.422398E-16	1.392485E-17
4.543651E+03	5.471823E-16	1.394258E-17
4.553571E+03	5.519927E-16	1.395578E-17
4.563492E+03	5.566517E-16	1.396409E-17
4.573413E+03	5.611246E-16	1.396680E-17
4.583333E+03	5.653831E-16	1.396336E-17
4.593254E+03	5.694001E-16	1.395330E-17
4.603175E+03	5.731568E-16	1.393636E-17
4.613095E+03	5.766187E-16	1.391189E-17
4.623016E+03	5.797707E-16	1.387978E-17
4.632937E+03	5.825840E-16	1.383956E-17
4.642857E+03	5.850436E-16	1.379113E-17
4.652778E+03	5.871305E-16	1.373428E-17
4.662698E+03	5.888335E-16	1.366902E-17
4.672619E+03	5.901316E-16	1.359511E-17
4.682540E+03	5.910254E-16	1.351284E-17
4.692460E+03	5.915227E-16	1.342265E-17
4.702381E+03	5.916233E-16	1.332477E-17
4.712302E+03	5.913719E-16	1.322046E-17
4.722222E+03	5.907812E-16	1.311021E-17
4.732143E+03	5.898962E-16	1.299522E-17
4.742063E+03	5.887400E-16	1.287618E-17
4.751984E+03	5.873553E-16	1.275418E-17
4.761905E+03	5.857801E-16	1.263016E-17
4.771825E+03	5.840390E-16	1.250479E-17
4.781746E+03	5.821637E-16	1.237884E-17
4.791667E+03	5.801789E-16	1.225290E-17
4.801587E+03	5.781089E-16	1.212757E-17
4.811508E+03	5.759703E-16	1.200325E-17
4.821429E+03	5.737862E-16	1.188046E-17
4.831349E+03	5.715732E-16	1.175958E-17
4.841270E+03	5.693495E-16	1.164101E-17
4.851190E+03	5.671333E-16	1.152515E-17
4.861111E+03	5.649278E-16	1.141203E-17
4.871032E+03	5.627597E-16	1.130214E-17
4.880952E+03	5.606454E-16	1.119574E-17
4.890873E+03	5.585953E-16	1.109293E-17
4.900794E+03	5.566292E-16	1.099404E-17
4.910714E+03	5.547547E-16	1.089912E-17
4.920635E+03	5.529875E-16	1.080839E-17
4.930556E+03	5.513313E-16	1.072182E-17
4.940476E+03	5.497814E-16	1.063924E-17
4.950397E+03	5.483434E-16	1.056067E-17
4.960317E+03	5.470107E-16	1.048589E-17
4.970238E+03	5.457877E-16	1.041489E-17
4.980159E+03	5.446743E-16	1.034760E-17
4.990079E+03	5.436620E-16	1.028377E-17
5.000000E+03	5.427651E-16	1.022360E-17
5.009921E+03	5.419827E-16	1.016698E-17
5.019841E+03	5.413258E-16	1.011405E-17
5.029762E+03	5.407898E-16	1.006463E-17
5.039683E+03	5.403919E-16	1.001899E-17
5.049603E+03	5.401341E-16	9.977074E-18
5.059524E+03	5.400185E-16	9.938847E-18
5.069444E+03	5.400642E-16	9.904591E-18
5.079365E+03	5.402708E-16	9.874222E-18
5.089286E+03	5.406542E-16	9.847960E-18
5.099206E+03	5.412237E-16	9.825899E-18
5.109127E+03	5.419797E-16	9.807976E-18
5.119048E+03	5.429320E-16	9.794296E-18
5.128968E+03	5.440786E-16	9.784755E-18
5.138889E+03	5.454281E-16	9.779441E-18
5.148810E+03	5.469775E-16	9.778234E-18
5.158730E+03	5.487261E-16	9.781057E-18
5.168651E+03	5.506674E-16	9.787734E-18
5.178571E+03	5.527915E-16	9.798030E-18
5.188492E+03	5.550800E-16	9.811565E-18
5.198413E+03	5.575267E-16	9.828179E-18
5.208333E+03	5.601006E-16	9.847277E-18
5.218254E+03	5.627792E-16	9.868421E-18
5.228175E+03	5.655425E-16	9.891222E-18
5.238095E+03	5.683569E-16	9.915059E-18
5.248016E+03	5.711926E-16	9.939384E-18
5.257937E+03	5.740175E-16	9.963617E-18
5.267857E+03	5.767923E-16	9.987052E-18
5.277778E+03	5.794887E-16	1.000919E-17
5.287698E+03	5.820728E-16	1.002944E-17
5.297619E+03	5.844993E-16	1.004700E-17
5.307540E+03	5.867411E-16	1.006143E-17
5.317460E+03	5.887688E-16	1.007222E-17
5.327381E+03	5.905543E-16	1.007890E-17
5.337302E+03	5.920620E-16	1.008088E-17
5.347222E+03	5.932898E-16	1.007814E-17
5.357143E+03	5.942205E-16	1.007040E-17
5.367063E+03	5.948350E-16	1.005738E-17
5.376984E+03	5.951165E-16	1.003879E-17
5.386905E+03	5.950407E-16	1.001428E-17
5.396825E+03	5.945675E-16	9.983189E-18
5.406746E+03	5.936638E-16	9.945003E-18
5.416667E+03	5.923180E-16	9.899571E-18
5.426587E+03	5.905014E-16	9.846457E-18
5.436508E+03	5.882225E-16	9.785835E-18
5.446429E+03	5.854748E-16	9.717617E-18
5.456349E+03	5.822788E-16	9.642165E-18
5.466270E+03	5.786655E-16	9.560008E-18
5.476190E+03	5.746636E-16	9.471642E-18
5.486111E+03	5.703316E-16	9.378045E-18
5.496032E+03	5.657250E-16	9.280144E-18
5.505952E+03	5.608991E-16	9.178853E-18
5.515873E+03	5.559257E-16	9.075350E-18
5.525794E+03	5.508740E-16	8.970762E-18
5.535714E+03	5.458277E-16	8.866444E-18
5.545635E+03	5.408706E-16	8.763740E-18
5.555556E+03	5.360750E-16	8.663797E-18
5.565476E+03	5.315180E-16	8.567826E-18
5.575397E+03	5.272748E-16	8.477000E-18
5.585317E+03	5.234243E-16	8.392536E-18
5.595238E+03	5.200386E-16	8.315535E-18
5.605159E+03	5.171907E-16	8.247093E-18
5.615079E+03	5.149576E-16	8.188359E-18
5.625000E+03	5.134176E-16	8.140490E-18
5.634921E+03	5.126546E-16	8.104715E-18
5.644841E+03	5.127376E-16	8.082010E-18
5.654762E+03	5.137631E-16	8.073771E-18
5.664683E+03	5.157993E-16	8.080930E-18
5.674603E+03	5.189254E-16	8.104574E-18
5.684524E+03	5.232133E-16	8.145657E-18
5.694444E+03	5.287253E-16	8.204970E-18
5.704365E+03	5.354979E-16	8.282890E-18
5.714286E+03	5.435602E-16	8.379667E-18
5.724206E+03	5.529084E-16	8.495036E-18
5.734127E+03	5.635009E-16	8.628156E-18
5.744048E+03	5.752564E-16	8.777586E-18
5.753968E+03	5.880876E-16	8.941806E-18
5.763889E+03	6.018757E-16	9.118843E-18
5.773810E+03	6.164812E-16	9.306434E-18
5.783730E+03	6.317448E-16	9.502050E-18
5.793651E+03	6.474856E-16	9.702881E-18
5.803571E+03	6.635090E-16	9.905950E-18
5.813492E+03	6.795944E-16	1.010794E-17
5.823413E+03	6.955328E-16	1.030578E-17
5.833333E+03	7.110941E-16	1.049610E-17
5.843254E+03	7.260666E-16	1.067590E-17
5.853175E+03	7.402179E-16	1.084191E-17
5.863095E+03	7.533435E-16	1.099134E-17
5.873016E+03	7.652534E-16	1.112164E-17
5.882937E+03	7.757754E-16	1.123059E-17
5.892857E+03	7.847691E-16	1.131646E-17
5.902778E+03	7.921309E-16	1.137809E-17
5.912698E+03	7.977859E-16	1.141475E-17
5.922619E+03	8.017093E-16	1.142645E-17
5.932540E+03	8.039010E-16	1.141355E-17
5.942460E+03	8.044074E-16	1.137707E-17
5.952381E+03	8.033068E-16	1.131846E-17
5.962302E+03	8.007079E-16	1.123958E-17
5.972222E+03	7.967603E-16	1.114284E-17
5.982143E+03	7.916365E-16	1.103091E-17
5.992063E+03	7.855184E-16	1.090657E-17
6.001984E+03	7.785961E-16	1.077266E-17
6.011905E+03	7.710607E-16	1.063199E-17
6.021825E+03	7.630983E-16	1.048725E-17
6.031746E+03	7.548771E-16	1.034087E-17
6.041667E+03	7.465644E-16	1.019520E-17
6.051587E+03	7.383060E-16	1.005229E-17
6.061508E+03	7.302363E-16	9.913987E-18
6.071429E+03	7.224671E-16	9.781832E-18
6.081349E+03	7.150923E-16	9.657091E-18
6.091270E+03	7.081773E-16	9.540639E-18
6.101190E+03	7.017632E-16	9.433020E-18
6.111111E+03	6.959028E-16	9.334928E-18
6.121032E+03	6.906042E-16	9.246462E-18
6.130952E+03	6.858792E-16	9.167772E-18
6.140873E+03	6.817363E-16	9.098967E-18
6.150794E+03	6.781395E-16	9.039573E-18
6.160714E+03	6.750275E-16	8.988780E-18
6.170635E+03	6.723205E-16	8.945532E-18
6.180556E+03	6.699347E-16	8.908632E-18
6.190476E+03	6.677737E-16	8.876702E-18
6.200397E+03	6.657262E-16	8.848165E-18
6.210317E+03	6.637068E-16	8.821799E-18
6.220238E+03	6.616188E-16	8.796225E-18
6.230159E+03	6.593892E-16	8.770381E-18
6.240079E+03	6.569622E-16	8.743428E-18
6.250000E+03	6.543166E-16	8.714986E-18
6.259921E+03	6.514460E-16	8.684869E-18
6.269841E+03	6.483866E-16	8.653459E-18
6.279762E+03	6.451866E-16	8.621295E-18
6.289683E+03	6.419233E-16	8.589314E-18
6.299603E+03	6.386479E-16	8.558107E-18
6.309524E+03	6.354296E-16	8.528513E-18
6.319444E+03	6.323514E-16	8.501566E-18
6.329365E+03	6.294619E-16	8.477844E-18
6.339286E+03	6.268225E-16	8.458113E-18
6.349206E+03	6.244972E-16	8.443180E-18
6.359127E+03	6.225328E-16	8.433628E-18
6.369048E+03	6.209702E-16	8.429977E-18
6.378968E+03	6.198377E-16	8.432577E-18
6.388889E+03	6.191549E-16	8.441670E-18
6.398810E+03	6.189521E-16	8.457652E-18
6.408730E+03	6.192345E-16	8.480578E-18
6.418651E+03	6.200130E-16	8.510592E-18
6.428571E+03	6.212967E-16	8.547813E-18
6.438492E+03	6.231077E-16	8.592542E-18
6.448413E+03	6.254388E-16	8.644682E-18
6.458333E+03	6.283027E-16	8.704415E-18
6.468254E+03	6.316990E-16	8.771741E-18
6.478175E+03	6.356180E-16	8.846533E-18
6.488095E+03	6.400351E-16	8.928453E-18
6.498016E+03	6.449404E-16	9.017372E-18
6.507937E+03	6.502804E-16	9.112545E-18
6.517857E+03	6.560167E-16	9.213433E-18
6.527778E+03	6.620689E-16	9.318901E-18
6.537698E+03	6.683744E-16	9.428057E-18
6.547619E+03	6.748741E-16	9.540049E-18
6.557540E+03	6.814677E-16	9.653437E-18
6.567460E+03	6.880786E-16	9.767103E-18
6.577381E+03	6.946266E-16	9.879874E-18
6.587302E+03	7.010101E-16	9.990259E-18
6.597222E+03	7.071444E-16	1.009700E-17
6.607143E+03	7.129349E-16	1.019870E-17
6.617063E+03	7.183021E-16	1.029414E-17
6.626984E+03	7.231483E-16	1.038188E-17
6.636905E+03	7.274339E-16	1.046128E-17
6.646825E+03	7.310748E-16	1.053106E-17
6.656746E+03	7.340157E-16	1.059035E-17
6.666667E+03	7.362311E-16	1.063869E-17
6.676587E+03	7.376649E-16	1.067519E-17
6.686508E+03	7.383196E-16	1.069979E-17
6.696429E+03	7.381775E-16	1.071213E-17
6.706349E+03	7.372441E-16	1.071224E-17
6.716270E+03	7.355434E-16	1.070037E-17
6.726190E+03	7.331217E-16	1.067715E-17
6.736111E+03	7.300124E-16	1.064300E-17
6.746032E+03	7.262814E-16	1.059883E-17
6.755952E+03	7.219799E-16	1.054536E-17
6.765873E+03	7.171771E-16	1.048358E-17
6.775794E+03	7.119751E-16	1.041494E-17
6.785714E+03	7.064275E-16	1.034023E-17
6.795635E+03	7.006493E-16	1.026113E-17
6.805556E+03	6.946953E-16	1.017845E-17
6.815476E+03	6.886430E-16	1.009331E-17
6.825397E+03	6.825875E-16	1.000715E-17
6.835317E+03	6.766193E-16	9.921286E-18
6.845238E+03	6.708189E-16	9.836927E-18
6.855159E+03	6.652820E-16	9.755498E-18
6.865079E+03	6.600821E-16	9.678094E-18
6.875000E+03	6.552724E-16	9.605512E-18
6.884921E+03	6.509005E-16	9.538468E-18
6.894841E+03	6.470076E-16	9.477581E-18
6.904762E+03	6.435678E-16	9.422482E-18
6.914683E+03	6.405995E-16	9.373451E-18
6.924603E+03	6.380429E-16	9.329621E-18
6.934524E+03	6.358437E-16	9.290204E-18
6.944444E+03	6.339390E-16	9.254294E-18
6.954365E+03	6.322755E-16	9.221120E-18
6.964286E+03	6.307434E-16	9.189094E-18
6.974206E+03	6.292848E-16	9.157390E-18
6.984127E+03	6.278180E-16	9.124843E-18
6.994048E+03	6.262858E-16	9.090647E-18
7.003968E+03	6.246191E-16	9.053832E-18
7.013889E+03	6.227787E-16	9.013870E-18
7.023810E+03	6.207457E-16	8.970532E-18
7.033730E+03	6.184901E-16	8.923432E-18
7.043651E+03	6.160096E-16	8.872590E-18
7.053571E+03	6.133209E-16	8.818302E-18
7.063492E+03	6.104240E-16	8.760625E-18
7.073413E+03	6.073363E-16	8.699868E-18
7.083333E+03	6.040784E-16	8.636388E-18
7.093254E+03	6.006802E-16	8.570671E-18
7.103175E+03	5.971503E-16	8.502900E-18
7.113095E+03	5.935163E-16	8.433528E-18
7.123016E+03	5.897722E-16	8.362533E-18
7.132937E+03	5.859579E-16	8.290539E-18
7.142857E+03	5.820594E-16	8.217408E-18
7.152778E+03	5.780807E-16	8.143260E-18
7.162698E+03	5.740438E-16	8.068463E-18
7.172619E+03	5.699279E-16	7.992790E-18
7.182540E+03	5.657420E-16	7.916426E-18
7.192460E+03	5.614723E-16	7.839243E-18
7.202381E+03	5.571445E-16	7.761661E-18
7.212302E+03	5.527235E-16	7.683256E-18
7.222222E+03	5.482132E-16	7.604144E-18
7.232143E+03	5.436268E-16	7.524572E-18
7.242063E+03	5.389385E-16	7.444244E-18
7.251984E+03	5.341519E-16	7.363273E-18
7.261905E+03	5.292518E-16	7.281511E-18
7.271825E+03	5.242643E-16	7.199376E-18
7.281746E+03	5.191625E-16	7.116555E-18
7.291667E+03	5.139702E-16	7.033431E-18
7.301587E+03	5.086971E-16	6.950189E-18
7.311508E+03	5.033527E-16	6.867006E-18
7.321429E+03	4.979783E-16	6.784492E-18
7.331349E+03	4.925884E-16	6.702882E-18
7.341270E+03	4.871991E-16	6.622432E-18
7.351190E+03	4.818547E-16	6.543776E-18
7.361111E+03	4.765729E-16	6.467184E-18
7.371032E+03	4.713856E-16	6.393115E-18
7.380952E+03	4.663162E-16	6.321906E-18
7.390873E+03	4.614027E-16	6.254094E-18
7.400794E+03	4.566699E-16	6.190034E-18
7.410714E+03	4.521385E-16	6.130027E-18
7.420635E+03	4.478173E-16	6.074207E-18
7.430556E+03	4.437273E-16	6.022879E-18
7.440476E+03	4.398599E-16	5.975947E-18
7.450397E+03	4.362368E-16	5.933725E-18
7.460317E+03	4.328397E-16	5.895975E-18
7.470238E+03	4.296713E-16	5.862684E-18
7.480159E+03	4.267110E-16	5.833502E-18
7.490079E+03	4.239277E-16	5.807938E-18
7.500000E+03	4.213099E-16	5.785768E-18
7.509921E+03	4.188048E-16	5.766205E-18
7.519841E+03	4.163639E-16	5.748510E-18
7.529762E+03	4.139415E-16	5.731982E-18
7.539683E+03	4.114746E-16	5.715673E-18
7.549603E+03	4.089009E-16	5.698630E-18
7.559524E+03	4.061857E-16	5.680283E-18
7.569444E+03	4.032689E-16	5.659686E-18
7.579365E+03	4.001159E-16	5.636251E-18
7.589286E+03	3.967321E-16	5.609942E-18
7.599206E+03	3.931087E-16	5.580522E-18
7.609127E+03	3.892880E-16	5.548481E-18
7.619048E+03	3.853021E-16	5.514175E-18
7.628968E+03	3.811703E-16	5.477782E-18
7.638889E+03	3.769418E-16	5.439921E-18
7.648810E+03	3.726415E-16	5.400869E-18
7.658730E+03	3.682995E-16	5.360990E-18
7.668651E+03	3.639472E-16	5.320678E-18
7.678571E+03	3.595903E-16	5.279957E-18
7.688492E+03	3.552617E-16	5.239264E-18
7.698413E+03	3.509686E-16	5.198657E-18
