#wls	flux	fluxerr
1.587302E+03	3.145130E-18	2.344157E-19
1.626984E+03	3.115333E-18	2.316728E-19
1.666667E+03	3.085294E-18	2.289096E-19
1.706349E+03	3.054524E-18	2.260901E-19
1.746032E+03	3.024087E-18	2.232933E-19
1.785714E+03	2.993375E-18	2.204744E-19
1.825397E+03	2.960966E-18	2.175293E-19
1.865079E+03	2.927350E-18	2.144949E-19
1.904762E+03	2.890813E-18	2.112471E-19
1.944444E+03	2.850965E-18	2.077592E-19
1.984127E+03	2.808459E-18	2.040812E-19
2.023810E+03	2.765793E-18	2.003958E-19
2.063492E+03	2.730067E-18	1.972167E-19
2.103175E+03	2.711362E-18	1.952655E-19
2.142857E+03	2.719717E-18	1.952517E-19
2.182540E+03	2.761178E-18	1.975892E-19
2.222222E+03	2.834296E-18	2.021509E-19
2.261905E+03	2.932566E-18	2.084504E-19
2.301587E+03	3.048552E-18	2.159409E-19
2.341270E+03	3.176759E-18	2.242194E-19
2.380952E+03	3.313829E-18	2.330380E-19
2.420635E+03	3.458476E-18	2.422973E-19
2.460317E+03	3.611776E-18	2.520633E-19
2.500000E+03	3.774523E-18	2.623817E-19
2.539683E+03	3.947878E-18	2.733216E-19
2.579365E+03	4.134891E-18	2.850810E-19
2.619048E+03	4.336581E-18	2.977144E-19
2.658730E+03	4.555830E-18	3.114019E-19
2.698413E+03	4.795190E-18	3.262969E-19
2.738095E+03	5.058128E-18	3.426110E-19
2.777778E+03	5.347257E-18	3.604928E-19
2.817460E+03	5.665569E-18	3.801123E-19
2.857143E+03	6.017212E-18	4.017114E-19
2.896825E+03	6.406292E-18	4.255222E-19
2.936508E+03	6.837621E-18	4.518168E-19
2.976190E+03	7.318411E-18	4.810165E-19
2.986111E+03	7.447654E-18	4.888495E-19
2.996032E+03	7.581101E-18	4.969320E-19
3.005952E+03	7.717301E-18	5.051676E-19
3.015873E+03	7.858820E-18	5.137231E-19
3.025794E+03	8.004272E-18	5.225064E-19
3.035714E+03	8.153910E-18	5.315328E-19
3.045635E+03	8.308686E-18	5.408628E-19
3.055556E+03	8.468997E-18	5.505208E-19
3.065476E+03	8.635021E-18	5.605164E-19
3.075397E+03	8.806922E-18	5.708586E-19
3.085317E+03	8.984012E-18	5.815010E-19
3.095238E+03	9.168244E-18	5.925679E-19
3.105159E+03	9.358048E-18	6.039561E-19
3.115079E+03	9.555464E-18	6.157949E-19
3.125000E+03	9.758872E-18	6.279779E-19
3.134921E+03	9.970405E-18	6.406399E-19
3.144841E+03	1.018938E-17	6.537350E-19
3.154762E+03	1.041709E-17	6.673426E-19
3.164683E+03	1.065283E-17	6.814161E-19
3.174603E+03	1.089693E-17	6.959725E-19
3.184524E+03	1.115175E-17	7.111612E-19
3.194444E+03	1.141565E-17	7.268727E-19
3.204365E+03	1.169003E-17	7.431943E-19
3.214286E+03	1.197531E-17	7.601482E-19
3.224206E+03	1.227194E-17	7.777599E-19
3.234127E+03	1.258148E-17	7.961238E-19
3.244048E+03	1.290333E-17	8.151980E-19
3.253968E+03	1.323798E-17	8.350097E-19
3.263889E+03	1.358831E-17	8.557358E-19
3.273810E+03	1.395380E-17	8.773375E-19
3.283730E+03	1.433383E-17	8.997721E-19
3.293651E+03	1.473148E-17	9.232269E-19
3.303571E+03	1.514750E-17	9.477431E-19
3.313492E+03	1.558137E-17	9.732816E-19
3.323413E+03	1.603645E-17	1.000046E-18
3.333333E+03	1.651231E-17	1.028003E-18
3.343254E+03	1.700983E-17	1.057200E-18
3.353175E+03	1.753127E-17	1.087769E-18
3.363095E+03	1.807908E-17	1.119854E-18
3.373016E+03	1.865149E-17	1.153336E-18
3.382937E+03	1.925392E-17	1.188543E-18
3.392857E+03	1.988466E-17	1.225356E-18
3.402778E+03	2.054796E-17	1.264029E-18
3.412698E+03	2.124518E-17	1.304634E-18
3.422619E+03	2.197615E-17	1.347147E-18
3.432540E+03	2.274716E-17	1.391943E-18
3.442460E+03	2.355490E-17	1.438805E-18
3.452381E+03	2.440596E-17	1.488122E-18
3.462302E+03	2.530215E-17	1.539987E-18
3.472222E+03	2.624355E-17	1.594392E-18
3.482143E+03	2.723560E-17	1.651648E-18
3.492063E+03	2.827852E-17	1.711752E-18
3.501984E+03	2.937620E-17	1.774919E-18
3.511905E+03	3.053080E-17	1.841261E-18
3.521825E+03	3.174452E-17	1.910889E-18
3.531746E+03	3.302162E-17	1.984038E-18
3.541667E+03	3.436242E-17	2.060704E-18
3.551587E+03	3.577347E-17	2.141254E-18
3.561508E+03	3.725298E-17	2.225558E-18
3.571429E+03	3.880326E-17	2.313726E-18
3.581349E+03	4.043117E-17	2.406142E-18
3.591270E+03	4.213700E-17	2.502793E-18
3.601190E+03	4.392077E-17	2.603651E-18
3.611111E+03	4.578718E-17	2.708965E-18
3.621032E+03	4.773860E-17	2.818844E-18
3.630952E+03	4.977733E-17	2.933391E-18
3.640873E+03	5.190304E-17	3.052553E-18
3.650794E+03	5.412038E-17	3.176569E-18
3.660714E+03	5.643143E-17	3.305528E-18
3.670635E+03	5.883541E-17	3.439345E-18
3.680556E+03	6.133399E-17	3.578083E-18
3.690476E+03	6.392870E-17	3.721795E-18
3.700397E+03	6.662095E-17	3.870523E-18
3.710317E+03	6.941495E-17	4.024474E-18
3.720238E+03	7.230580E-17	4.183324E-18
3.730159E+03	7.529413E-17	4.347070E-18
3.740079E+03	7.838359E-17	4.515884E-18
3.750000E+03	8.157133E-17	4.689561E-18
3.759921E+03	8.485732E-17	4.868059E-18
3.769841E+03	8.824128E-17	5.051323E-18
3.779762E+03	9.171927E-17	5.239086E-18
3.789683E+03	9.529021E-17	5.431249E-18
3.799603E+03	9.895653E-17	5.627911E-18
3.809524E+03	1.027132E-16	5.828746E-18
3.819444E+03	1.065509E-16	6.033191E-18
3.829365E+03	1.104787E-16	6.241719E-18
3.839286E+03	1.144827E-16	6.453506E-18
3.849206E+03	1.185638E-16	6.668580E-18
3.859127E+03	1.227149E-16	6.886502E-18
3.869048E+03	1.269367E-16	7.107275E-18
3.878968E+03	1.312172E-16	7.330204E-18
3.888889E+03	1.355564E-16	7.555259E-18
3.898810E+03	1.399459E-16	7.781949E-18
3.908730E+03	1.443811E-16	8.009994E-18
3.918651E+03	1.488530E-16	8.238870E-18
3.928571E+03	1.533609E-16	8.468520E-18
3.938492E+03	1.578911E-16	8.698173E-18
3.948413E+03	1.624426E-16	8.927754E-18
3.958333E+03	1.670057E-16	9.156731E-18
3.968254E+03	1.715707E-16	9.384554E-18
3.978175E+03	1.761367E-16	9.611169E-18
3.988095E+03	1.806987E-16	9.836306E-18
3.998016E+03	1.852378E-16	1.005893E-17
4.007937E+03	1.897634E-16	1.027955E-17
4.017857E+03	1.942566E-16	1.049717E-17
4.027778E+03	1.987185E-16	1.071182E-17
4.037698E+03	2.031452E-16	1.092333E-17
4.047619E+03	2.075240E-16	1.113102E-17
4.057540E+03	2.118619E-16	1.133527E-17
4.067460E+03	2.161423E-16	1.153522E-17
4.077381E+03	2.203735E-16	1.173133E-17
4.087302E+03	2.245497E-16	1.192330E-17
4.097222E+03	2.286659E-16	1.211089E-17
4.107143E+03	2.327273E-16	1.229440E-17
4.117063E+03	2.367300E-16	1.247364E-17
4.126984E+03	2.406756E-16	1.264871E-17
4.136905E+03	2.445663E-16	1.281975E-17
4.146825E+03	2.483998E-16	1.298667E-17
4.156746E+03	2.521845E-16	1.314992E-17
4.166667E+03	2.559191E-16	1.330944E-17
4.176587E+03	2.596080E-16	1.346549E-17
4.186508E+03	2.632609E-16	1.361859E-17
4.196429E+03	2.668732E-16	1.376851E-17
4.206349E+03	2.704604E-16	1.391606E-17
4.216270E+03	2.740234E-16	1.406131E-17
4.226190E+03	2.775737E-16	1.420484E-17
4.236111E+03	2.811123E-16	1.434671E-17
4.246032E+03	2.846460E-16	1.448727E-17
4.255952E+03	2.881863E-16	1.462711E-17
4.265873E+03	2.917395E-16	1.476654E-17
4.275794E+03	2.953072E-16	1.490564E-17
4.285714E+03	2.989055E-16	1.504520E-17
4.295635E+03	3.025353E-16	1.518527E-17
4.305556E+03	3.062070E-16	1.532634E-17
4.315476E+03	3.099206E-16	1.546840E-17
4.325397E+03	3.136860E-16	1.561193E-17
4.335317E+03	3.175121E-16	1.575734E-17
4.345238E+03	3.213926E-16	1.590428E-17
4.355159E+03	3.253403E-16	1.605339E-17
4.365079E+03	3.293529E-16	1.620451E-17
4.375000E+03	3.334373E-16	1.635795E-17
4.384921E+03	3.375894E-16	1.651348E-17
4.394841E+03	3.418045E-16	1.667084E-17
4.404762E+03	3.460931E-16	1.683052E-17
4.414683E+03	3.504547E-16	1.699246E-17
4.424603E+03	3.548769E-16	1.715604E-17
4.434524E+03	3.593577E-16	1.732112E-17
4.444444E+03	3.639047E-16	1.748805E-17
4.454365E+03	3.685035E-16	1.765612E-17
4.464286E+03	3.731493E-16	1.782507E-17
4.474206E+03	3.778423E-16	1.799490E-17
4.484127E+03	3.825763E-16	1.816528E-17
4.494048E+03	3.873332E-16	1.833535E-17
4.503968E+03	3.921109E-16	1.850500E-17
4.513889E+03	3.968955E-16	1.867358E-17
4.523810E+03	4.016835E-16	1.884090E-17
4.533730E+03	4.064541E-16	1.900602E-17
4.543651E+03	4.112031E-16	1.916873E-17
4.553571E+03	4.159203E-16	1.932857E-17
4.563492E+03	4.205893E-16	1.948481E-17
4.573413E+03	4.251939E-16	1.963672E-17
4.583333E+03	4.297290E-16	1.978410E-17
4.593254E+03	4.341785E-16	1.992623E-17
4.603175E+03	4.385318E-16	2.006269E-17
4.613095E+03	4.427732E-16	2.019278E-17
4.623016E+03	4.469045E-16	2.031667E-17
4.632937E+03	4.508992E-16	2.043318E-17
4.642857E+03	4.547601E-16	2.054252E-17
4.652778E+03	4.584735E-16	2.064413E-17
4.662698E+03	4.620318E-16	2.073774E-17
4.672619E+03	4.654281E-16	2.082310E-17
4.682540E+03	4.686503E-16	2.089976E-17
4.692460E+03	4.716981E-16	2.096779E-17
4.702381E+03	4.745544E-16	2.102651E-17
4.712302E+03	4.772202E-16	2.107604E-17
4.722222E+03	4.796906E-16	2.111627E-17
4.732143E+03	4.819495E-16	2.114657E-17
4.742063E+03	4.839932E-16	2.116689E-17
4.751984E+03	4.858179E-16	2.117714E-17
4.761905E+03	4.874149E-16	2.117707E-17
4.771825E+03	4.887875E-16	2.116690E-17
4.781746E+03	4.899344E-16	2.114670E-17
4.791667E+03	4.908609E-16	2.111678E-17
4.801587E+03	4.915623E-16	2.107705E-17
4.811508E+03	4.920534E-16	2.102824E-17
4.821429E+03	4.923291E-16	2.097022E-17
4.831349E+03	4.924164E-16	2.090426E-17
4.841270E+03	4.923176E-16	2.083051E-17
4.851190E+03	4.920603E-16	2.075024E-17
4.861111E+03	4.916561E-16	2.066401E-17
4.871032E+03	4.911234E-16	2.057264E-17
4.880952E+03	4.904865E-16	2.047721E-17
4.890873E+03	4.897579E-16	2.037831E-17
4.900794E+03	4.889614E-16	2.027693E-17
4.910714E+03	4.881140E-16	2.017382E-17
4.920635E+03	4.872320E-16	2.006966E-17
4.930556E+03	4.863311E-16	1.996510E-17
4.940476E+03	4.854256E-16	1.986071E-17
4.950397E+03	4.845291E-16	1.975706E-17
4.960317E+03	4.836594E-16	1.965485E-17
4.970238E+03	4.828232E-16	1.955433E-17
4.980159E+03	4.820367E-16	1.945614E-17
4.990079E+03	4.813055E-16	1.936046E-17
5.000000E+03	4.806446E-16	1.926789E-17
5.009921E+03	4.800639E-16	1.917876E-17
5.019841E+03	4.795723E-16	1.909340E-17
5.029762E+03	4.791788E-16	1.901211E-17
5.039683E+03	4.788918E-16	1.893519E-17
5.049603E+03	4.787191E-16	1.886289E-17
5.059524E+03	4.786734E-16	1.879565E-17
5.069444E+03	4.787612E-16	1.873367E-17
5.079365E+03	4.789831E-16	1.867691E-17
5.089286E+03	4.793489E-16	1.862569E-17
5.099206E+03	4.798621E-16	1.858008E-17
5.109127E+03	4.805244E-16	1.854007E-17
5.119048E+03	4.813310E-16	1.850542E-17
5.128968E+03	4.822904E-16	1.847639E-17
5.138889E+03	4.833943E-16	1.845258E-17
5.148810E+03	4.846372E-16	1.843373E-17
5.158730E+03	4.860168E-16	1.841968E-17
5.168651E+03	4.875186E-16	1.840982E-17
5.178571E+03	4.891309E-16	1.840365E-17
5.188492E+03	4.908452E-16	1.840081E-17
5.198413E+03	4.926407E-16	1.840046E-17
5.208333E+03	4.945049E-16	1.840211E-17
5.218254E+03	4.964135E-16	1.840481E-17
5.228175E+03	4.983504E-16	1.840796E-17
5.238095E+03	5.002937E-16	1.841071E-17
5.248016E+03	5.022200E-16	1.841221E-17
5.257937E+03	5.041000E-16	1.841138E-17
5.267857E+03	5.059144E-16	1.840754E-17
5.277778E+03	5.076334E-16	1.839962E-17
5.287698E+03	5.092376E-16	1.838697E-17
5.297619E+03	5.107035E-16	1.836877E-17
5.307540E+03	5.120078E-16	1.834424E-17
5.317460E+03	5.131236E-16	1.831249E-17
5.327381E+03	5.140359E-16	1.827305E-17
5.337302E+03	5.147263E-16	1.822535E-17
5.347222E+03	5.151783E-16	1.816891E-17
5.357143E+03	5.153731E-16	1.810315E-17
5.367063E+03	5.153045E-16	1.802796E-17
5.376984E+03	5.149592E-16	1.794299E-17
5.386905E+03	5.143369E-16	1.784835E-17
5.396825E+03	5.134359E-16	1.774408E-17
5.406746E+03	5.122584E-16	1.763039E-17
5.416667E+03	5.108048E-16	1.750739E-17
5.426587E+03	5.090956E-16	1.737591E-17
5.436508E+03	5.071345E-16	1.723618E-17
5.446429E+03	5.049501E-16	1.708928E-17
5.456349E+03	5.025595E-16	1.693588E-17
5.466270E+03	4.999936E-16	1.677711E-17
5.476190E+03	4.972822E-16	1.661404E-17
5.486111E+03	4.944578E-16	1.644781E-17
5.496032E+03	4.915564E-16	1.627967E-17
5.505952E+03	4.886210E-16	1.611107E-17
5.515873E+03	4.856871E-16	1.594319E-17
5.525794E+03	4.827966E-16	1.577742E-17
5.535714E+03	4.799881E-16	1.561497E-17
5.545635E+03	4.773147E-16	1.545755E-17
5.555556E+03	4.748157E-16	1.530636E-17
5.565476E+03	4.725301E-16	1.516257E-17
5.575397E+03	4.705099E-16	1.502777E-17
5.585317E+03	4.687922E-16	1.490300E-17
5.595238E+03	4.674166E-16	1.478940E-17
5.605159E+03	4.664255E-16	1.468814E-17
5.615079E+03	4.658448E-16	1.459987E-17
5.625000E+03	4.657164E-16	1.452571E-17
5.634921E+03	4.660695E-16	1.446637E-17
5.644841E+03	4.669252E-16	1.442228E-17
5.654762E+03	4.683053E-16	1.439388E-17
5.664683E+03	4.702318E-16	1.438162E-17
5.674603E+03	4.727126E-16	1.438547E-17
5.684524E+03	4.757594E-16	1.440555E-17
5.694444E+03	4.793687E-16	1.444150E-17
5.704365E+03	4.835400E-16	1.449303E-17
5.714286E+03	4.882609E-16	1.455952E-17
5.724206E+03	4.935067E-16	1.463999E-17
5.734127E+03	4.992545E-16	1.473352E-17
5.744048E+03	5.054640E-16	1.483869E-17
5.753968E+03	5.120959E-16	1.495415E-17
5.763889E+03	5.190984E-16	1.507819E-17
5.773810E+03	5.264066E-16	1.520877E-17
5.783730E+03	5.339532E-16	1.534382E-17
5.793651E+03	5.416694E-16	1.548126E-17
5.803571E+03	5.494756E-16	1.561875E-17
5.813492E+03	5.572818E-16	1.575371E-17
5.823413E+03	5.649999E-16	1.588368E-17
5.833333E+03	5.725400E-16	1.600619E-17
5.843254E+03	5.798178E-16	1.611898E-17
5.853175E+03	5.867341E-16	1.621945E-17
5.863095E+03	5.932159E-16	1.630577E-17
5.873016E+03	5.991736E-16	1.637571E-17
5.882937E+03	6.045426E-16	1.642778E-17
5.892857E+03	6.092624E-16	1.646062E-17
5.902778E+03	6.132774E-16	1.647307E-17
5.912698E+03	6.165570E-16	1.646465E-17
5.922619E+03	6.190655E-16	1.643479E-17
5.932540E+03	6.207997E-16	1.638378E-17
5.942460E+03	6.217642E-16	1.631212E-17
5.952381E+03	6.219774E-16	1.622067E-17
5.962302E+03	6.214586E-16	1.611031E-17
5.972222E+03	6.202632E-16	1.598281E-17
5.982143E+03	6.184260E-16	1.583942E-17
5.992063E+03	6.160207E-16	1.568233E-17
6.001984E+03	6.131088E-16	1.551337E-17
6.011905E+03	6.097500E-16	1.533431E-17
6.021825E+03	6.060240E-16	1.514736E-17
6.031746E+03	6.019983E-16	1.495439E-17
6.041667E+03	5.977390E-16	1.475719E-17
6.051587E+03	5.933089E-16	1.455743E-17
6.061508E+03	5.887722E-16	1.435676E-17
6.071429E+03	5.841820E-16	1.415655E-17
6.081349E+03	5.795798E-16	1.395783E-17
6.091270E+03	5.750180E-16	1.376188E-17
6.101190E+03	5.705194E-16	1.356925E-17
6.111111E+03	5.661228E-16	1.338084E-17
6.121032E+03	5.618491E-16	1.319711E-17
6.130952E+03	5.577114E-16	1.301835E-17
6.140873E+03	5.537275E-16	1.284490E-17
6.150794E+03	5.499011E-16	1.267681E-17
6.160714E+03	5.462279E-16	1.251392E-17
6.170635E+03	5.426953E-16	1.235587E-17
6.180556E+03	5.392899E-16	1.220232E-17
6.190476E+03	5.359896E-16	1.205272E-17
6.200397E+03	5.327803E-16	1.190673E-17
6.210317E+03	5.296370E-16	1.176376E-17
6.220238E+03	5.265404E-16	1.162337E-17
6.230159E+03	5.234733E-16	1.148518E-17
6.240079E+03	5.204213E-16	1.134888E-17
6.250000E+03	5.173679E-16	1.121411E-17
6.259921E+03	5.143064E-16	1.108074E-17
6.269841E+03	5.112341E-16	1.094873E-17
6.279762E+03	5.081476E-16	1.081803E-17
6.289683E+03	5.050582E-16	1.068890E-17
6.299603E+03	5.019602E-16	1.056122E-17
6.309524E+03	4.988775E-16	1.043553E-17
6.319444E+03	4.958213E-16	1.031205E-17
6.329365E+03	4.928002E-16	1.019097E-17
6.339286E+03	4.898401E-16	1.007283E-17
6.349206E+03	4.869577E-16	9.957960E-18
6.359127E+03	4.841759E-16	9.846815E-18
6.369048E+03	4.815071E-16	9.739631E-18
6.378968E+03	4.789744E-16	9.636850E-18
6.388889E+03	4.765996E-16	9.538882E-18
6.398810E+03	4.743937E-16	9.445915E-18
6.408730E+03	4.723714E-16	9.358208E-18
6.418651E+03	4.705404E-16	9.275880E-18
6.428571E+03	4.689168E-16	9.199211E-18
6.438492E+03	4.675091E-16	9.128334E-18
6.448413E+03	4.663178E-16	9.063226E-18
6.458333E+03	4.653664E-16	9.004307E-18
6.468254E+03	4.646436E-16	8.951329E-18
6.478175E+03	4.641551E-16	8.904378E-18
6.488095E+03	4.638870E-16	8.863161E-18
6.498016E+03	4.638362E-16	8.827608E-18
6.507937E+03	4.639851E-16	8.797373E-18
6.517857E+03	4.643015E-16	8.771844E-18
6.527778E+03	4.647701E-16	8.750741E-18
6.537698E+03	4.653625E-16	8.733546E-18
6.547619E+03	4.660424E-16	8.719600E-18
6.557540E+03	4.667825E-16	8.708426E-18
6.567460E+03	4.675439E-16	8.699335E-18
6.577381E+03	4.682983E-16	8.691845E-18
6.587302E+03	4.690126E-16	8.685388E-18
6.597222E+03	4.696493E-16	8.679319E-18
6.607143E+03	4.701886E-16	8.673325E-18
6.617063E+03	4.705970E-16	8.666838E-18
6.626984E+03	4.708488E-16	8.659435E-18
6.636905E+03	4.709269E-16	8.650850E-18
6.646825E+03	4.708064E-16	8.640662E-18
6.656746E+03	4.704774E-16	8.628685E-18
6.666667E+03	4.699280E-16	8.614669E-18
6.676587E+03	4.691450E-16	8.598326E-18
6.686508E+03	4.681364E-16	8.579753E-18
6.696429E+03	4.668973E-16	8.558811E-18
6.706349E+03	4.654390E-16	8.535640E-18
6.716270E+03	4.637657E-16	8.510252E-18
6.726190E+03	4.618973E-16	8.482940E-18
6.736111E+03	4.598462E-16	8.453861E-18
6.746032E+03	4.576457E-16	8.423546E-18
6.755952E+03	4.553098E-16	8.392175E-18
6.765873E+03	4.528773E-16	8.360385E-18
6.775794E+03	4.503721E-16	8.328537E-18
6.785714E+03	4.478246E-16	8.297120E-18
6.795635E+03	4.452655E-16	8.266631E-18
6.805556E+03	4.427301E-16	8.237657E-18
6.815476E+03	4.402411E-16	8.210554E-18
6.825397E+03	4.378295E-16	8.185848E-18
6.835317E+03	4.355181E-16	8.163912E-18
6.845238E+03	4.333205E-16	8.144955E-18
6.855159E+03	4.312575E-16	8.129327E-18
6.865079E+03	4.293347E-16	8.117102E-18
6.875000E+03	4.275705E-16	8.108597E-18
6.884921E+03	4.259576E-16	8.103648E-18
6.894841E+03	4.244960E-16	8.102235E-18
6.904762E+03	4.231934E-16	8.104486E-18
6.914683E+03	4.220330E-16	8.110063E-18
6.924603E+03	4.210119E-16	8.118897E-18
6.934524E+03	4.201197E-16	8.130771E-18
6.944444E+03	4.193392E-16	8.145342E-18
6.954365E+03	4.186682E-16	8.162550E-18
6.964286E+03	4.180776E-16	8.181814E-18
6.974206E+03	4.175704E-16	8.203177E-18
6.984127E+03	4.171184E-16	8.226068E-18
6.994048E+03	4.167270E-16	8.250575E-18
7.003968E+03	4.163711E-16	8.276181E-18
7.013889E+03	4.160547E-16	8.302947E-18
7.023810E+03	4.157678E-16	8.330653E-18
7.033730E+03	4.155078E-16	8.359226E-18
7.043651E+03	4.152742E-16	8.388636E-18
7.053571E+03	4.150676E-16	8.418879E-18
7.063492E+03	4.148900E-16	8.449973E-18
7.073413E+03	4.147377E-16	8.481832E-18
7.083333E+03	4.146129E-16	8.514485E-18
7.093254E+03	4.145221E-16	8.548050E-18
7.103175E+03	4.144545E-16	8.582293E-18
7.113095E+03	4.144194E-16	8.617393E-18
7.123016E+03	4.143970E-16	8.652926E-18
7.132937E+03	4.143977E-16	8.689100E-18
7.142857E+03	4.143974E-16	8.725394E-18
7.152778E+03	4.143916E-16	8.761698E-18
7.162698E+03	4.143627E-16	8.797622E-18
7.172619E+03	4.143027E-16	8.832974E-18
7.182540E+03	4.141907E-16	8.867287E-18
7.192460E+03	4.139994E-16	8.899947E-18
7.202381E+03	4.137229E-16	8.930792E-18
7.212302E+03	4.133379E-16	8.959286E-18
7.222222E+03	4.128219E-16	8.984899E-18
7.232143E+03	4.121524E-16	9.007094E-18
7.242063E+03	4.113192E-16	9.025596E-18
7.251984E+03	4.103022E-16	9.039912E-18
7.261905E+03	4.090838E-16	9.049594E-18
7.271825E+03	4.076487E-16	9.054244E-18
7.281746E+03	4.059955E-16	9.053765E-18
7.291667E+03	4.041099E-16	9.047773E-18
7.301587E+03	4.019869E-16	9.036088E-18
7.311508E+03	3.996358E-16	9.018854E-18
7.321429E+03	3.970593E-16	8.996066E-18
7.331349E+03	3.942582E-16	8.967680E-18
7.341270E+03	3.912526E-16	8.934095E-18
7.351190E+03	3.880496E-16	8.895413E-18
7.361111E+03	3.846742E-16	8.852159E-18
7.371032E+03	3.811326E-16	8.804430E-18
7.380952E+03	3.774625E-16	8.753057E-18
7.390873E+03	3.736770E-16	8.698307E-18
7.400794E+03	3.697988E-16	8.640682E-18
7.410714E+03	3.658648E-16	8.581028E-18
7.420635E+03	3.618860E-16	8.519589E-18
7.430556E+03	3.578967E-16	8.457166E-18
7.440476E+03	3.539051E-16	8.393949E-18
7.450397E+03	3.499414E-16	8.330664E-18
7.460317E+03	3.460152E-16	8.267549E-18
7.470238E+03	3.421481E-16	8.205136E-18
7.480159E+03	3.383465E-16	8.143593E-18
7.490079E+03	3.346239E-16	8.083269E-18
7.500000E+03	3.309970E-16	8.024591E-18
7.509921E+03	3.274626E-16	7.967499E-18
7.519841E+03	3.240340E-16	7.912334E-18
7.529762E+03	3.207190E-16	7.859304E-18
7.539683E+03	3.175098E-16	7.808241E-18
7.549603E+03	3.144196E-16	7.759490E-18
7.559524E+03	3.114377E-16	7.712813E-18
7.569444E+03	3.085699E-16	7.668374E-18
7.579365E+03	3.058115E-16	7.626079E-18
7.589286E+03	3.031530E-16	7.585716E-18
7.599206E+03	3.005935E-16	7.547279E-18
7.609127E+03	2.981271E-16	7.510642E-18
7.619048E+03	2.957485E-16	7.475692E-18
7.628968E+03	2.934562E-16	7.442407E-18
7.638889E+03	2.912413E-16	7.410579E-18
7.648810E+03	2.890990E-16	7.380103E-18
7.658730E+03	2.870292E-16	7.350990E-18
7.668651E+03	2.850242E-16	7.323059E-18
7.678571E+03	2.830806E-16	7.296235E-18
7.688492E+03	2.811998E-16	7.270566E-18
7.698413E+03	2.793790E-16	7.245997E-18
