#wls	flux	fluxerr
1.587302E+03	3.704304E-18	2.435209E-19
1.626984E+03	3.670154E-18	2.405184E-19
1.666667E+03	3.635537E-18	2.374806E-19
1.706349E+03	3.601119E-18	2.344512E-19
1.746032E+03	3.566835E-18	2.314262E-19
1.785714E+03	3.532548E-18	2.283967E-19
1.825397E+03	3.497173E-18	2.252930E-19
1.865079E+03	3.459397E-18	2.220318E-19
1.904762E+03	3.419462E-18	2.186307E-19
1.944444E+03	3.376211E-18	2.150177E-19
1.984127E+03	3.329756E-18	2.112030E-19
2.023810E+03	3.284035E-18	2.074383E-19
2.063492E+03	3.246769E-18	2.042090E-19
2.103175E+03	3.230851E-18	2.023160E-19
2.142857E+03	3.247777E-18	2.024583E-19
2.182540E+03	3.306295E-18	2.051500E-19
2.222222E+03	3.404416E-18	2.102307E-19
2.261905E+03	3.534596E-18	2.171994E-19
2.301587E+03	3.688613E-18	2.255210E-19
2.341270E+03	3.858979E-18	2.347144E-19
2.380952E+03	4.042820E-18	2.445860E-19
2.420635E+03	4.239291E-18	2.550675E-19
2.460317E+03	4.448628E-18	2.661557E-19
2.500000E+03	4.672512E-18	2.779323E-19
2.539683E+03	4.913149E-18	2.905072E-19
2.579365E+03	5.173647E-18	3.040390E-19
2.619048E+03	5.455638E-18	3.185951E-19
2.658730E+03	5.763346E-18	3.343894E-19
2.698413E+03	6.100169E-18	3.515809E-19
2.738095E+03	6.470540E-18	3.703809E-19
2.777778E+03	6.880113E-18	3.910616E-19
2.817460E+03	7.333971E-18	4.138520E-19
2.857143E+03	7.837303E-18	4.389762E-19
2.896825E+03	8.394025E-18	4.665767E-19
2.936508E+03	9.013340E-18	4.970780E-19
2.976190E+03	9.703004E-18	5.308062E-19
2.986111E+03	9.887040E-18	5.397638E-19
2.996032E+03	1.007726E-17	5.490113E-19
3.005952E+03	1.027310E-17	5.585163E-19
3.015873E+03	1.047479E-17	5.682883E-19
3.025794E+03	1.068264E-17	5.783424E-19
3.035714E+03	1.089703E-17	5.886960E-19
3.045635E+03	1.111815E-17	5.993569E-19
3.055556E+03	1.134652E-17	6.103512E-19
3.065476E+03	1.158326E-17	6.217349E-19
3.075397E+03	1.182774E-17	6.334719E-19
3.085317E+03	1.208024E-17	6.455734E-19
3.095238E+03	1.234193E-17	6.580984E-19
3.105159E+03	1.261220E-17	6.710118E-19
3.115079E+03	1.289232E-17	6.843765E-19
3.125000E+03	1.318263E-17	6.982068E-19
3.134921E+03	1.348259E-17	7.124702E-19
3.144841E+03	1.379353E-17	7.272329E-19
3.154762E+03	1.411684E-17	7.425630E-19
3.164683E+03	1.445105E-17	7.583792E-19
3.174603E+03	1.479862E-17	7.748048E-19
3.184524E+03	1.515806E-17	7.917566E-19
3.194444E+03	1.553293E-17	8.094162E-19
3.204365E+03	1.592181E-17	8.277023E-19
3.214286E+03	1.632530E-17	8.466404E-19
3.224206E+03	1.674616E-17	8.663675E-19
3.234127E+03	1.718296E-17	8.868019E-19
3.244048E+03	1.763859E-17	9.080867E-19
3.253968E+03	1.811277E-17	9.301986E-19
3.263889E+03	1.860742E-17	9.532292E-19
3.273810E+03	1.912231E-17	9.771567E-19
3.283730E+03	1.965948E-17	1.002078E-18
3.293651E+03	2.022113E-17	1.028094E-18
3.303571E+03	2.080711E-17	1.055188E-18
3.313492E+03	2.141973E-17	1.083466E-18
3.323413E+03	2.206019E-17	1.112977E-18
3.333333E+03	2.272970E-17	1.143770E-18
3.343254E+03	2.343085E-17	1.175962E-18
3.353175E+03	2.416504E-17	1.209611E-18
3.363095E+03	2.493372E-17	1.244773E-18
3.373016E+03	2.573980E-17	1.281579E-18
3.382937E+03	2.658490E-17	1.320093E-18
3.392857E+03	2.747366E-17	1.360529E-18
3.402778E+03	2.840498E-17	1.402812E-18
3.412698E+03	2.938375E-17	1.447164E-18
3.422619E+03	3.041355E-17	1.493741E-18
3.432540E+03	3.149661E-17	1.542629E-18
3.442460E+03	3.263680E-17	1.593995E-18
3.452381E+03	3.383824E-17	1.648013E-18
3.462302E+03	3.510183E-17	1.704699E-18
3.472222E+03	3.643709E-17	1.764488E-18
3.482143E+03	3.784355E-17	1.827325E-18
3.492063E+03	3.932775E-17	1.893492E-18
3.501984E+03	4.089291E-17	1.963109E-18
3.511905E+03	4.254612E-17	2.036480E-18
3.521825E+03	4.428903E-17	2.113643E-18
3.531746E+03	4.612514E-17	2.194725E-18
3.541667E+03	4.805596E-17	2.279753E-18
3.551587E+03	5.008703E-17	2.368949E-18
3.561508E+03	5.221765E-17	2.462231E-18
3.571429E+03	5.445331E-17	2.559813E-18
3.581349E+03	5.679518E-17	2.661701E-18
3.591270E+03	5.924647E-17	2.767995E-18
3.601190E+03	6.180565E-17	2.878573E-18
3.611111E+03	6.448026E-17	2.993735E-18
3.621032E+03	6.726591E-17	3.113223E-18
3.630952E+03	7.016741E-17	3.237206E-18
3.640873E+03	7.318454E-17	3.365620E-18
3.650794E+03	7.631929E-17	3.498499E-18
3.660714E+03	7.956808E-17	3.635626E-18
3.670635E+03	8.293757E-17	3.777247E-18
3.680556E+03	8.642347E-17	3.923109E-18
3.690476E+03	9.002646E-17	4.073188E-18
3.700397E+03	9.374397E-17	4.227309E-18
3.710317E+03	9.757596E-17	4.385415E-18
3.720238E+03	1.015188E-16	4.547287E-18
3.730159E+03	1.055747E-16	4.712966E-18
3.740079E+03	1.097362E-16	4.882068E-18
3.750000E+03	1.140014E-16	5.054453E-18
3.759921E+03	1.183679E-16	5.229964E-18
3.769841E+03	1.228332E-16	5.408439E-18
3.779762E+03	1.273874E-16	5.589392E-18
3.789683E+03	1.320337E-16	5.772918E-18
3.799603E+03	1.367575E-16	5.958333E-18
3.809524E+03	1.415579E-16	6.145560E-18
3.819444E+03	1.464264E-16	6.334186E-18
3.829365E+03	1.513575E-16	6.523939E-18
3.839286E+03	1.563455E-16	6.714543E-18
3.849206E+03	1.613808E-16	6.905548E-18
3.859127E+03	1.664529E-16	7.096489E-18
3.869048E+03	1.715591E-16	7.287225E-18
3.878968E+03	1.766885E-16	7.477274E-18
3.888889E+03	1.818301E-16	7.666158E-18
3.898810E+03	1.869766E-16	7.853559E-18
3.908730E+03	1.921205E-16	8.039159E-18
3.918651E+03	1.972503E-16	8.222477E-18
3.928571E+03	2.023544E-16	8.403032E-18
3.938492E+03	2.074298E-16	8.580708E-18
3.948413E+03	2.124648E-16	8.755040E-18
3.958333E+03	2.174528E-16	8.925763E-18
3.968254E+03	2.223824E-16	9.092442E-18
3.978175E+03	2.272431E-16	9.254666E-18
3.988095E+03	2.320286E-16	9.412220E-18
3.998016E+03	2.367382E-16	9.565100E-18
4.007937E+03	2.413577E-16	9.712781E-18
4.017857E+03	2.458785E-16	9.854951E-18
4.027778E+03	2.503059E-16	9.991873E-18
4.037698E+03	2.546278E-16	1.012311E-17
4.047619E+03	2.588376E-16	1.024846E-17
4.057540E+03	2.629386E-16	1.036809E-17
4.067460E+03	2.669257E-16	1.048187E-17
4.077381E+03	2.707996E-16	1.058987E-17
4.087302E+03	2.745617E-16	1.069222E-17
4.097222E+03	2.782049E-16	1.078868E-17
4.107143E+03	2.817375E-16	1.087964E-17
4.117063E+03	2.851635E-16	1.096531E-17
4.126984E+03	2.884834E-16	1.104577E-17
4.136905E+03	2.916981E-16	1.112109E-17
4.146825E+03	2.948241E-16	1.119198E-17
4.156746E+03	2.978590E-16	1.125836E-17
4.166667E+03	3.008155E-16	1.132079E-17
4.176587E+03	3.036972E-16	1.137943E-17
4.186508E+03	3.065181E-16	1.143484E-17
4.196429E+03	3.092775E-16	1.148703E-17
4.206349E+03	3.119995E-16	1.153694E-17
4.216270E+03	3.146844E-16	1.158459E-17
4.226190E+03	3.173465E-16	1.163053E-17
4.236111E+03	3.199912E-16	1.167497E-17
4.246032E+03	3.226425E-16	1.171881E-17
4.255952E+03	3.253006E-16	1.176204E-17
4.265873E+03	3.279846E-16	1.180537E-17
4.275794E+03	3.307035E-16	1.184910E-17
4.285714E+03	3.334759E-16	1.189389E-17
4.295635E+03	3.363002E-16	1.193967E-17
4.305556E+03	3.392037E-16	1.198737E-17
4.315476E+03	3.421933E-16	1.203722E-17
4.325397E+03	3.452751E-16	1.208939E-17
4.335317E+03	3.484693E-16	1.214455E-17
4.345238E+03	3.517853E-16	1.220298E-17
4.355159E+03	3.552262E-16	1.226473E-17
4.365079E+03	3.588091E-16	1.233035E-17
4.375000E+03	3.625351E-16	1.239981E-17
4.384921E+03	3.664089E-16	1.247322E-17
4.394841E+03	3.704443E-16	1.255098E-17
4.404762E+03	3.746338E-16	1.263277E-17
4.414683E+03	3.789789E-16	1.271858E-17
4.424603E+03	3.834695E-16	1.280803E-17
4.434524E+03	3.880946E-16	1.290067E-17
4.444444E+03	3.928415E-16	1.299605E-17
4.454365E+03	3.976968E-16	1.309367E-17
4.464286E+03	4.026453E-16	1.319302E-17
4.474206E+03	4.076710E-16	1.329354E-17
4.484127E+03	4.127568E-16	1.339465E-17
4.494048E+03	4.178792E-16	1.349559E-17
4.503968E+03	4.230188E-16	1.359574E-17
4.513889E+03	4.281613E-16	1.369466E-17
4.523810E+03	4.332806E-16	1.379152E-17
4.533730E+03	4.383610E-16	1.388588E-17
4.543651E+03	4.433814E-16	1.397710E-17
4.553571E+03	4.483148E-16	1.406438E-17
4.563492E+03	4.531507E-16	1.414746E-17
4.573413E+03	4.578571E-16	1.422543E-17
4.583333E+03	4.624298E-16	1.429822E-17
4.593254E+03	4.668378E-16	1.436497E-17
4.603175E+03	4.710671E-16	1.442536E-17
4.613095E+03	4.751108E-16	1.447926E-17
4.623016E+03	4.789457E-16	1.452610E-17
4.632937E+03	4.825670E-16	1.456584E-17
4.642857E+03	4.859656E-16	1.459833E-17
4.652778E+03	4.891282E-16	1.462328E-17
4.662698E+03	4.920540E-16	1.464081E-17
4.672619E+03	4.947444E-16	1.465108E-17
4.682540E+03	4.971960E-16	1.465412E-17
4.692460E+03	4.994074E-16	1.465000E-17
4.702381E+03	5.013958E-16	1.463936E-17
4.712302E+03	5.031624E-16	1.462235E-17
4.722222E+03	5.047211E-16	1.459947E-17
4.732143E+03	5.060808E-16	1.457109E-17
4.742063E+03	5.072511E-16	1.453760E-17
4.751984E+03	5.082477E-16	1.449953E-17
4.761905E+03	5.090690E-16	1.445692E-17
4.771825E+03	5.097078E-16	1.440967E-17
4.781746E+03	5.101679E-16	1.435797E-17
4.791667E+03	5.104528E-16	1.430200E-17
4.801587E+03	5.105543E-16	1.424162E-17
4.811508E+03	5.104757E-16	1.417701E-17
4.821429E+03	5.102226E-16	1.410839E-17
4.831349E+03	5.098035E-16	1.403610E-17
4.841270E+03	5.092397E-16	1.396077E-17
4.851190E+03	5.085530E-16	1.388308E-17
4.861111E+03	5.077651E-16	1.380367E-17
4.871032E+03	5.068913E-16	1.372299E-17
4.880952E+03	5.059622E-16	1.364191E-17
4.890873E+03	5.049850E-16	1.356065E-17
4.900794E+03	5.039877E-16	1.347994E-17
4.910714E+03	5.029749E-16	1.339989E-17
4.920635E+03	5.019717E-16	1.332114E-17
4.930556E+03	5.009854E-16	1.324386E-17
4.940476E+03	5.000279E-16	1.316834E-17
4.950397E+03	4.991149E-16	1.309494E-17
4.960317E+03	4.982561E-16	1.302389E-17
4.970238E+03	4.974604E-16	1.295538E-17
4.980159E+03	4.967312E-16	1.288945E-17
4.990079E+03	4.960867E-16	1.282654E-17
5.000000E+03	4.955246E-16	1.276653E-17
5.009921E+03	4.950628E-16	1.270984E-17
5.019841E+03	4.947086E-16	1.265662E-17
5.029762E+03	4.944644E-16	1.260686E-17
5.039683E+03	4.943426E-16	1.256083E-17
5.049603E+03	4.943502E-16	1.251866E-17
5.059524E+03	4.944937E-16	1.248046E-17
5.069444E+03	4.947797E-16	1.244634E-17
5.079365E+03	4.952085E-16	1.241625E-17
5.089286E+03	4.958003E-16	1.239065E-17
5.099206E+03	4.965440E-16	1.236920E-17
5.109127E+03	4.974524E-16	1.235216E-17
5.119048E+03	4.985218E-16	1.233938E-17
5.128968E+03	4.997571E-16	1.233093E-17
5.138889E+03	5.011513E-16	1.232659E-17
5.148810E+03	5.027056E-16	1.232633E-17
5.158730E+03	5.044087E-16	1.232982E-17
5.168651E+03	5.062575E-16	1.233693E-17
5.178571E+03	5.082414E-16	1.234737E-17
5.188492E+03	5.103417E-16	1.236063E-17
5.198413E+03	5.125483E-16	1.237643E-17
5.208333E+03	5.148430E-16	1.239429E-17
5.218254E+03	5.172002E-16	1.241357E-17
5.228175E+03	5.196024E-16	1.243382E-17
5.238095E+03	5.220251E-16	1.245443E-17
5.248016E+03	5.244418E-16	1.247475E-17
5.257937E+03	5.268191E-16	1.249398E-17
5.267857E+03	5.291281E-16	1.251143E-17
5.277778E+03	5.313442E-16	1.252652E-17
5.287698E+03	5.334315E-16	1.253841E-17
5.297619E+03	5.353655E-16	1.254655E-17
5.307540E+03	5.371112E-16	1.255012E-17
5.317460E+03	5.386455E-16	1.254863E-17
5.327381E+03	5.399360E-16	1.254135E-17
5.337302E+03	5.409524E-16	1.252761E-17
5.347222E+03	5.416829E-16	1.250719E-17
5.357143E+03	5.421023E-16	1.247955E-17
5.367063E+03	5.421884E-16	1.244424E-17
5.376984E+03	5.419384E-16	1.240125E-17
5.386905E+03	5.413316E-16	1.235017E-17
5.396825E+03	5.403673E-16	1.229104E-17
5.406746E+03	5.390387E-16	1.222377E-17
5.416667E+03	5.373549E-16	1.214864E-17
5.426587E+03	5.353199E-16	1.206579E-17
5.436508E+03	5.329536E-16	1.197575E-17
5.446429E+03	5.302712E-16	1.187892E-17
5.456349E+03	5.272988E-16	1.177592E-17
5.466270E+03	5.240730E-16	1.166765E-17
5.476190E+03	5.206306E-16	1.155495E-17
5.486111E+03	5.170022E-16	1.143854E-17
5.496032E+03	5.132487E-16	1.131982E-17
5.505952E+03	5.094137E-16	1.119974E-17
5.515873E+03	5.055436E-16	1.107936E-17
5.525794E+03	5.017023E-16	1.096007E-17
5.535714E+03	4.979352E-16	1.084285E-17
5.545635E+03	4.943132E-16	1.072923E-17
5.555556E+03	4.908834E-16	1.062020E-17
5.565476E+03	4.877070E-16	1.051703E-17
5.575397E+03	4.848402E-16	1.042088E-17
5.585317E+03	4.823382E-16	1.033287E-17
5.595238E+03	4.802552E-16	1.025409E-17
5.605159E+03	4.786442E-16	1.018556E-17
5.615079E+03	4.775605E-16	1.012838E-17
5.625000E+03	4.770487E-16	1.008337E-17
5.634921E+03	4.771642E-16	1.005158E-17
5.644841E+03	4.779360E-16	1.003348E-17
5.654762E+03	4.794171E-16	1.003006E-17
5.664683E+03	4.816371E-16	1.004177E-17
5.674603E+03	4.846194E-16	1.006895E-17
5.684524E+03	4.883946E-16	1.011207E-17
5.694444E+03	4.929658E-16	1.017104E-17
5.704365E+03	4.983461E-16	1.024595E-17
5.714286E+03	5.045229E-16	1.033638E-17
5.724206E+03	5.114765E-16	1.044177E-17
5.734127E+03	5.191744E-16	1.056129E-17
5.744048E+03	5.275706E-16	1.069386E-17
5.753968E+03	5.366103E-16	1.083823E-17
5.763889E+03	5.462143E-16	1.099269E-17
5.773810E+03	5.562950E-16	1.115537E-17
5.783730E+03	5.667516E-16	1.132417E-17
5.793651E+03	5.774718E-16	1.149680E-17
5.803571E+03	5.883328E-16	1.167079E-17
5.813492E+03	5.992036E-16	1.184353E-17
5.823413E+03	6.099473E-16	1.201236E-17
5.833333E+03	6.204243E-16	1.217460E-17
5.843254E+03	6.304882E-16	1.232746E-17
5.853175E+03	6.400086E-16	1.246853E-17
5.863095E+03	6.488559E-16	1.259544E-17
5.873016E+03	6.568975E-16	1.270580E-17
5.882937E+03	6.640407E-16	1.279804E-17
5.892857E+03	6.701894E-16	1.287052E-17
5.902778E+03	6.752666E-16	1.292202E-17
5.912698E+03	6.792298E-16	1.295198E-17
5.922619E+03	6.820453E-16	1.296003E-17
5.932540E+03	6.837160E-16	1.294648E-17
5.942460E+03	6.842463E-16	1.291169E-17
5.952381E+03	6.836830E-16	1.285678E-17
5.962302E+03	6.820857E-16	1.278313E-17
5.972222E+03	6.795313E-16	1.269239E-17
5.982143E+03	6.760966E-16	1.258620E-17
5.992063E+03	6.718983E-16	1.246691E-17
6.001984E+03	6.670323E-16	1.233647E-17
6.011905E+03	6.616269E-16	1.219738E-17
6.021825E+03	6.557840E-16	1.205162E-17
6.031746E+03	6.496315E-16	1.190162E-17
6.041667E+03	6.432652E-16	1.174920E-17
6.051587E+03	6.367953E-16	1.159642E-17
6.061508E+03	6.303233E-16	1.144515E-17
6.071429E+03	6.239349E-16	1.129693E-17
6.081349E+03	6.177047E-16	1.115313E-17
6.091270E+03	6.116968E-16	1.101486E-17
6.101190E+03	6.059700E-16	1.088316E-17
6.111111E+03	6.005714E-16	1.075885E-17
6.121032E+03	5.955365E-16	1.064251E-17
6.130952E+03	5.908832E-16	1.053443E-17
6.140873E+03	5.866241E-16	1.043478E-17
6.150794E+03	5.827478E-16	1.034332E-17
6.160714E+03	5.792396E-16	1.025973E-17
6.170635E+03	5.760498E-16	1.018303E-17
6.180556E+03	5.731332E-16	1.011235E-17
6.190476E+03	5.704348E-16	1.004666E-17
6.200397E+03	5.679053E-16	9.985034E-18
6.210317E+03	5.654910E-16	9.926476E-18
6.220238E+03	5.631552E-16	9.870292E-18
6.230159E+03	5.608542E-16	9.815680E-18
6.240079E+03	5.585525E-16	9.761979E-18
6.250000E+03	5.562346E-16	9.708884E-18
6.259921E+03	5.538817E-16	9.656034E-18
6.269841E+03	5.514961E-16	9.603435E-18
6.279762E+03	5.490755E-16	9.551017E-18
6.289683E+03	5.466254E-16	9.498845E-18
6.299603E+03	5.441754E-16	9.447399E-18
6.309524E+03	5.417357E-16	9.396826E-18
6.319444E+03	5.393323E-16	9.347544E-18
6.329365E+03	5.369931E-16	9.300005E-18
6.339286E+03	5.347474E-16	9.254683E-18
6.349206E+03	5.326245E-16	9.212054E-18
6.359127E+03	5.306469E-16	9.172474E-18
6.369048E+03	5.288413E-16	9.136377E-18
6.378968E+03	5.272327E-16	9.104163E-18
6.388889E+03	5.258434E-16	9.076188E-18
6.398810E+03	5.246929E-16	9.052764E-18
6.408730E+03	5.237978E-16	9.034148E-18
6.418651E+03	5.231712E-16	9.020543E-18
6.428571E+03	5.228349E-16	9.012302E-18
6.438492E+03	5.227947E-16	9.009505E-18
6.448413E+03	5.230587E-16	9.012270E-18
6.458333E+03	5.236308E-16	9.020647E-18
6.468254E+03	5.245107E-16	9.034615E-18
6.478175E+03	5.256808E-16	9.053857E-18
6.488095E+03	5.271376E-16	9.078298E-18
6.498016E+03	5.288603E-16	9.107569E-18
6.507937E+03	5.308233E-16	9.141218E-18
6.517857E+03	5.329961E-16	9.178713E-18
6.527778E+03	5.353571E-16	9.219673E-18
6.537698E+03	5.378549E-16	9.263203E-18
6.547619E+03	5.404668E-16	9.308909E-18
6.557540E+03	5.431418E-16	9.355906E-18
6.567460E+03	5.458332E-16	9.403383E-18
6.577381E+03	5.484926E-16	9.450503E-18
6.587302E+03	5.510781E-16	9.496539E-18
6.597222E+03	5.535484E-16	9.540774E-18
6.607143E+03	5.558498E-16	9.582277E-18
6.617063E+03	5.579373E-16	9.620268E-18
6.626984E+03	5.597833E-16	9.654267E-18
6.636905E+03	5.613357E-16	9.683366E-18
6.646825E+03	5.625680E-16	9.707106E-18
6.656746E+03	5.634593E-16	9.725105E-18
6.666667E+03	5.639735E-16	9.736711E-18
6.676587E+03	5.641164E-16	9.741999E-18
6.686508E+03	5.638647E-16	9.740536E-18
6.696429E+03	5.632158E-16	9.732253E-18
6.706349E+03	5.621883E-16	9.717444E-18
6.716270E+03	5.607782E-16	9.696011E-18
6.726190E+03	5.590089E-16	9.668337E-18
6.736111E+03	5.569023E-16	9.634776E-18
6.746032E+03	5.544850E-16	9.595766E-18
6.755952E+03	5.517873E-16	9.551812E-18
6.765873E+03	5.488503E-16	9.503605E-18
6.775794E+03	5.456951E-16	9.451494E-18
6.785714E+03	5.423733E-16	9.396358E-18
6.795635E+03	5.389157E-16	9.338718E-18
6.805556E+03	5.353602E-16	9.279218E-18
6.815476E+03	5.317455E-16	9.218519E-18
6.825397E+03	5.281139E-16	9.157348E-18
6.835317E+03	5.245187E-16	9.096622E-18
6.845238E+03	5.209970E-16	9.036979E-18
6.855159E+03	5.175884E-16	8.979100E-18
6.865079E+03	5.143333E-16	8.923686E-18
6.875000E+03	5.112444E-16	8.870954E-18
6.884921E+03	5.083552E-16	8.821486E-18
6.894841E+03	5.056707E-16	8.775365E-18
6.904762E+03	5.031953E-16	8.732670E-18
6.914683E+03	5.009266E-16	8.693357E-18
6.924603E+03	4.988555E-16	8.657271E-18
6.934524E+03	4.969749E-16	8.624287E-18
6.944444E+03	4.952515E-16	8.593832E-18
6.954365E+03	4.936701E-16	8.565641E-18
6.964286E+03	4.922135E-16	8.539418E-18
6.974206E+03	4.908421E-16	8.514480E-18
6.984127E+03	4.895312E-16	8.490401E-18
6.994048E+03	4.882711E-16	8.467019E-18
7.003968E+03	4.870264E-16	8.443721E-18
7.013889E+03	4.857854E-16	8.420315E-18
7.023810E+03	4.845333E-16	8.396548E-18
7.033730E+03	4.832510E-16	8.372099E-18
7.043651E+03	4.819304E-16	8.346834E-18
7.053571E+03	4.805733E-16	8.320796E-18
7.063492E+03	4.791703E-16	8.293832E-18
7.073413E+03	4.777212E-16	8.265949E-18
7.083333E+03	4.762272E-16	8.237181E-18
7.093254E+03	4.746977E-16	8.207702E-18
7.103175E+03	4.731211E-16	8.177324E-18
7.113095E+03	4.715067E-16	8.146224E-18
7.123016E+03	4.698491E-16	8.114321E-18
7.132937E+03	4.681629E-16	8.081883E-18
7.142857E+03	4.664263E-16	8.048547E-18
7.152778E+03	4.646511E-16	8.014534E-18
7.162698E+03	4.628265E-16	7.979675E-18
7.172619E+03	4.609544E-16	7.944019E-18
7.182540E+03	4.590145E-16	7.907235E-18
7.192460E+03	4.570063E-16	7.869330E-18
7.202381E+03	4.549145E-16	7.830061E-18
7.212302E+03	4.527374E-16	7.789417E-18
7.222222E+03	4.504593E-16	7.747148E-18
7.232143E+03	4.480784E-16	7.703240E-18
7.242063E+03	4.455733E-16	7.657349E-18
7.251984E+03	4.429442E-16	7.609496E-18
7.261905E+03	4.401862E-16	7.559617E-18
7.271825E+03	4.372894E-16	7.507562E-18
7.281746E+03	4.342534E-16	7.453341E-18
7.291667E+03	4.310865E-16	7.397119E-18
7.301587E+03	4.277803E-16	7.338768E-18
7.311508E+03	4.243488E-16	7.278543E-18
7.321429E+03	4.207957E-16	7.216528E-18
7.331349E+03	4.171400E-16	7.153062E-18
7.341270E+03	4.133839E-16	7.088197E-18
7.351190E+03	4.095506E-16	7.022345E-18
7.361111E+03	4.056521E-16	6.955722E-18
7.371032E+03	4.017074E-16	6.888667E-18
7.380952E+03	3.977363E-16	6.821530E-18
7.390873E+03	3.937647E-16	6.754761E-18
7.400794E+03	3.897985E-16	6.688475E-18
7.410714E+03	3.858742E-16	6.623303E-18
7.420635E+03	3.819952E-16	6.559311E-18
7.430556E+03	3.781815E-16	6.496850E-18
7.440476E+03	3.744446E-16	6.436126E-18
7.450397E+03	3.707992E-16	6.377398E-18
7.460317E+03	3.672450E-16	6.320669E-18
7.470238E+03	3.637911E-16	6.266098E-18
7.480159E+03	3.604367E-16	6.213682E-18
7.490079E+03	3.571783E-16	6.163333E-18
7.500000E+03	3.540092E-16	6.114910E-18
7.509921E+03	3.509200E-16	6.068219E-18
7.519841E+03	3.479050E-16	6.023133E-18
7.529762E+03	3.449455E-16	5.979299E-18
7.539683E+03	3.420331E-16	5.936543E-18
7.549603E+03	3.391484E-16	5.894499E-18
7.559524E+03	3.362837E-16	5.853008E-18
7.569444E+03	3.334280E-16	5.811847E-18
7.579365E+03	3.305730E-16	5.770843E-18
7.589286E+03	3.277140E-16	5.729889E-18
7.599206E+03	3.248501E-16	5.688937E-18
7.609127E+03	3.219831E-16	5.647994E-18
7.619048E+03	3.191177E-16	5.607118E-18
7.628968E+03	3.162653E-16	5.566481E-18
7.638889E+03	3.134224E-16	5.526001E-18
7.648810E+03	3.106067E-16	5.485967E-18
7.658730E+03	3.078199E-16	5.446392E-18
7.668651E+03	3.050689E-16	5.407377E-18
7.678571E+03	3.023597E-16	5.369013E-18
7.688492E+03	2.996978E-16	5.331381E-18
7.698413E+03	2.970879E-16	5.294554E-18
