#wls	flux	fluxerr
1.587302E+03	3.206949E-18	2.832895E-19
1.626984E+03	3.178447E-18	2.799221E-19
1.666667E+03	3.149128E-18	2.764779E-19
1.706349E+03	3.120220E-18	2.730655E-19
1.746032E+03	3.090522E-18	2.695799E-19
1.785714E+03	3.060582E-18	2.660696E-19
1.825397E+03	3.029481E-18	2.624553E-19
1.865079E+03	2.996104E-18	2.586423E-19
1.904762E+03	2.960347E-18	2.546239E-19
1.944444E+03	2.920203E-18	2.502309E-19
1.984127E+03	2.877462E-18	2.456207E-19
2.023810E+03	2.834681E-18	2.410140E-19
2.063492E+03	2.797677E-18	2.369039E-19
2.103175E+03	2.777882E-18	2.342490E-19
2.142857E+03	2.785103E-18	2.338548E-19
2.182540E+03	2.825552E-18	2.362107E-19
2.222222E+03	2.897700E-18	2.411515E-19
2.261905E+03	2.994316E-18	2.480402E-19
2.301587E+03	3.108749E-18	2.562976E-19
2.341270E+03	3.234307E-18	2.653502E-19
2.380952E+03	3.368562E-18	2.749830E-19
2.420635E+03	3.510189E-18	2.850735E-19
2.460317E+03	3.659763E-18	2.956550E-19
2.500000E+03	3.818040E-18	3.067735E-19
2.539683E+03	3.987344E-18	3.185985E-19
2.579365E+03	4.169679E-18	3.312695E-19
2.619048E+03	4.366603E-18	3.448862E-19
2.658730E+03	4.581102E-18	3.596568E-19
2.698413E+03	4.815117E-18	3.757011E-19
2.738095E+03	5.071491E-18	3.932041E-19
2.777778E+03	5.353419E-18	4.123711E-19
2.817460E+03	5.664542E-18	4.334333E-19
2.857143E+03	6.007503E-18	4.565372E-19
2.896825E+03	6.387754E-18	4.820336E-19
2.936508E+03	6.810800E-18	5.102637E-19
2.976190E+03	7.284799E-18	5.417514E-19
2.986111E+03	7.412279E-18	5.501964E-19
2.996032E+03	7.544060E-18	5.589197E-19
3.005952E+03	7.680297E-18	5.679307E-19
3.015873E+03	7.820262E-18	5.771735E-19
3.025794E+03	7.964156E-18	5.866610E-19
3.035714E+03	8.114090E-18	5.965465E-19
3.045635E+03	8.268348E-18	6.067013E-19
3.055556E+03	8.429211E-18	6.172902E-19
3.065476E+03	8.594945E-18	6.281831E-19
3.075397E+03	8.766667E-18	6.394594E-19
3.085317E+03	8.944566E-18	6.511297E-19
3.095238E+03	9.128838E-18	6.632052E-19
3.105159E+03	9.319689E-18	6.756978E-19
3.115079E+03	9.518381E-18	6.886955E-19
3.125000E+03	9.723092E-18	7.020627E-19
3.134921E+03	9.936143E-18	7.159638E-19
3.144841E+03	1.015786E-17	7.304179E-19
3.154762E+03	1.038744E-17	7.453633E-19
3.164683E+03	1.062629E-17	7.608970E-19
3.174603E+03	1.087364E-17	7.769585E-19
3.184524E+03	1.113211E-17	7.937303E-19
3.194444E+03	1.139976E-17	8.110704E-19
3.204365E+03	1.167816E-17	8.290832E-19
3.214286E+03	1.196770E-17	8.477929E-19
3.224206E+03	1.227008E-17	8.673122E-19
3.234127E+03	1.258453E-17	8.875816E-19
3.244048E+03	1.291153E-17	9.086287E-19
3.253968E+03	1.325288E-17	9.305725E-19
3.263889E+03	1.360915E-17	9.534458E-19
3.273810E+03	1.398095E-17	9.772836E-19
3.283730E+03	1.436890E-17	1.002121E-18
3.293651E+03	1.477505E-17	1.028093E-18
3.303571E+03	1.519873E-17	1.055143E-18
3.313492E+03	1.564064E-17	1.083310E-18
3.323413E+03	1.610299E-17	1.112737E-18
3.333333E+03	1.658812E-17	1.143576E-18
3.343254E+03	1.709392E-17	1.175668E-18
3.353175E+03	1.762432E-17	1.209273E-18
3.363095E+03	1.817875E-17	1.244339E-18
3.373016E+03	1.876144E-17	1.281141E-18
3.382937E+03	1.937025E-17	1.319519E-18
3.392857E+03	2.000958E-17	1.359758E-18
3.402778E+03	2.067898E-17	1.401811E-18
3.412698E+03	2.138141E-17	1.445862E-18
3.422619E+03	2.211821E-17	1.491983E-18
3.432540E+03	2.289076E-17	1.540250E-18
3.442460E+03	2.370237E-17	1.590864E-18
3.452381E+03	2.455265E-17	1.643779E-18
3.462302E+03	2.544510E-17	1.699206E-18
3.472222E+03	2.638135E-17	1.757232E-18
3.482143E+03	2.736513E-17	1.818080E-18
3.492063E+03	2.839620E-17	1.881708E-18
3.501984E+03	2.947846E-17	1.948349E-18
3.511905E+03	3.061382E-17	2.018099E-18
3.521825E+03	3.180424E-17	2.091058E-18
3.531746E+03	3.305397E-17	2.167475E-18
3.541667E+03	3.436282E-17	2.247302E-18
3.551587E+03	3.573521E-17	2.330797E-18
3.561508E+03	3.717088E-17	2.417906E-18
3.571429E+03	3.867683E-17	2.509047E-18
3.581349E+03	4.025287E-17	2.604169E-18
3.591270E+03	4.190121E-17	2.703374E-18
3.601190E+03	4.362398E-17	2.806759E-18
3.611111E+03	4.542609E-17	2.914596E-18
3.621032E+03	4.730703E-17	3.026806E-18
3.630952E+03	4.926888E-17	3.143479E-18
3.640873E+03	5.131947E-17	3.265064E-18
3.650794E+03	5.345518E-17	3.391281E-18
3.660714E+03	5.567790E-17	3.522200E-18
3.670635E+03	5.799560E-17	3.658275E-18
3.680556E+03	6.040404E-17	3.799181E-18
3.690476E+03	6.290800E-17	3.945167E-18
3.700397E+03	6.550584E-17	4.096074E-18
3.710317E+03	6.820222E-17	4.252136E-18
3.720238E+03	7.099846E-17	4.413378E-18
3.730159E+03	7.389573E-17	4.579813E-18
3.740079E+03	7.689147E-17	4.751223E-18
3.750000E+03	7.998987E-17	4.927806E-18
3.759921E+03	8.318782E-17	5.109312E-18
3.769841E+03	8.648921E-17	5.295918E-18
3.779762E+03	8.989032E-17	5.487335E-18
3.789683E+03	9.339084E-17	5.683483E-18
3.799603E+03	9.699008E-17	5.884261E-18
3.809524E+03	1.006873E-16	6.089564E-18
3.819444E+03	1.044812E-16	6.299254E-18
3.829365E+03	1.083663E-16	6.512938E-18
3.839286E+03	1.123491E-16	6.730956E-18
3.849206E+03	1.164148E-16	6.952365E-18
3.859127E+03	1.205697E-16	7.177479E-18
3.869048E+03	1.248066E-16	7.405821E-18
3.878968E+03	1.291179E-16	7.636892E-18
3.888889E+03	1.335093E-16	7.870981E-18
3.898810E+03	1.379637E-16	8.107025E-18
3.908730E+03	1.424859E-16	8.345278E-18
3.918651E+03	1.470674E-16	8.585190E-18
3.928571E+03	1.517036E-16	8.826456E-18
3.938492E+03	1.563849E-16	9.068491E-18
3.948413E+03	1.611065E-16	9.310979E-18
3.958333E+03	1.658680E-16	9.553877E-18
3.968254E+03	1.706545E-16	9.796296E-18
3.978175E+03	1.754601E-16	1.003789E-17
3.988095E+03	1.802846E-16	1.027863E-17
3.998016E+03	1.851175E-16	1.051790E-17
4.007937E+03	1.899535E-16	1.075541E-17
4.017857E+03	1.947825E-16	1.099056E-17
4.027778E+03	1.995996E-16	1.122309E-17
4.037698E+03	2.044004E-16	1.145276E-17
4.047619E+03	2.091809E-16	1.167936E-17
4.057540E+03	2.139322E-16	1.190240E-17
4.067460E+03	2.186516E-16	1.212174E-17
4.077381E+03	2.233366E-16	1.233728E-17
4.087302E+03	2.279803E-16	1.254864E-17
4.097222E+03	2.325870E-16	1.275608E-17
4.107143E+03	2.371507E-16	1.295932E-17
4.117063E+03	2.416661E-16	1.315807E-17
4.126984E+03	2.461390E-16	1.335269E-17
4.136905E+03	2.505645E-16	1.354293E-17
4.146825E+03	2.549495E-16	1.372920E-17
4.156746E+03	2.592843E-16	1.391102E-17
4.166667E+03	2.635767E-16	1.408881E-17
4.176587E+03	2.678236E-16	1.426245E-17
4.186508E+03	2.720340E-16	1.443245E-17
4.196429E+03	2.762007E-16	1.459845E-17
4.206349E+03	2.803394E-16	1.476130E-17
4.216270E+03	2.844438E-16	1.492070E-17
4.226190E+03	2.885249E-16	1.507724E-17
4.236111E+03	2.925881E-16	1.523124E-17
4.246032E+03	2.966282E-16	1.538242E-17
4.255952E+03	3.006624E-16	1.553171E-17
4.265873E+03	3.046969E-16	1.567943E-17
4.275794E+03	3.087264E-16	1.582531E-17
4.285714E+03	3.127621E-16	1.596993E-17
4.295635E+03	3.168095E-16	1.611358E-17
4.305556E+03	3.208679E-16	1.625623E-17
4.315476E+03	3.249477E-16	1.639840E-17
4.325397E+03	3.290530E-16	1.654028E-17
4.335317E+03	3.331817E-16	1.668178E-17
4.345238E+03	3.373369E-16	1.682304E-17
4.355159E+03	3.415157E-16	1.696391E-17
4.365079E+03	3.457318E-16	1.710505E-17
4.375000E+03	3.499758E-16	1.724601E-17
4.384921E+03	3.542492E-16	1.738684E-17
4.394841E+03	3.585539E-16	1.752764E-17
4.404762E+03	3.628913E-16	1.766846E-17
4.414683E+03	3.672622E-16	1.780934E-17
4.424603E+03	3.716559E-16	1.794975E-17
4.434524E+03	3.760781E-16	1.808997E-17
4.444444E+03	3.805338E-16	1.823023E-17
4.454365E+03	3.850100E-16	1.836992E-17
4.464286E+03	3.895160E-16	1.850947E-17
4.474206E+03	3.940370E-16	1.864819E-17
4.484127E+03	3.985746E-16	1.878615E-17
4.494048E+03	4.031235E-16	1.892312E-17
4.503968E+03	4.076719E-16	1.905855E-17
4.513889E+03	4.122132E-16	1.919216E-17
4.523810E+03	4.167398E-16	1.932362E-17
4.533730E+03	4.212438E-16	1.945258E-17
4.543651E+03	4.257110E-16	1.957844E-17
4.553571E+03	4.301386E-16	1.970110E-17
4.563492E+03	4.345056E-16	1.981965E-17
4.573413E+03	4.388143E-16	1.993425E-17
4.583333E+03	4.430373E-16	2.004371E-17
4.593254E+03	4.471824E-16	2.014845E-17
4.603175E+03	4.512220E-16	2.024731E-17
4.613095E+03	4.551466E-16	2.033993E-17
4.623016E+03	4.589589E-16	2.042653E-17
4.632937E+03	4.626323E-16	2.050601E-17
4.642857E+03	4.661649E-16	2.057839E-17
4.652778E+03	4.695549E-16	2.064369E-17
4.662698E+03	4.727842E-16	2.070121E-17
4.672619E+03	4.758468E-16	2.075080E-17
4.682540E+03	4.787430E-16	2.079260E-17
4.692460E+03	4.814619E-16	2.082623E-17
4.702381E+03	4.840044E-16	2.085186E-17
4.712302E+03	4.863657E-16	2.086939E-17
4.722222E+03	4.885407E-16	2.087873E-17
4.732143E+03	4.905244E-16	2.087977E-17
4.742063E+03	4.923243E-16	2.087296E-17
4.751984E+03	4.939362E-16	2.085824E-17
4.761905E+03	4.953565E-16	2.083556E-17
4.771825E+03	4.965758E-16	2.080465E-17
4.781746E+03	4.975920E-16	2.076555E-17
4.791667E+03	4.983914E-16	2.071780E-17
4.801587E+03	4.989855E-16	2.066200E-17
4.811508E+03	4.993637E-16	2.059783E-17
4.821429E+03	4.995296E-16	2.052557E-17
4.831349E+03	4.995041E-16	2.044618E-17
4.841270E+03	4.992889E-16	2.035983E-17
4.851190E+03	4.988993E-16	2.026726E-17
4.861111E+03	4.983636E-16	2.016969E-17
4.871032E+03	4.976930E-16	2.006766E-17
4.880952E+03	4.969048E-16	1.996193E-17
4.890873E+03	4.960218E-16	1.985348E-17
4.900794E+03	4.950607E-16	1.974299E-17
4.910714E+03	4.940319E-16	1.963088E-17
4.920635E+03	4.929617E-16	1.951821E-17
4.930556E+03	4.918640E-16	1.940549E-17
4.940476E+03	4.907460E-16	1.929301E-17
4.950397E+03	4.896245E-16	1.918141E-17
4.960317E+03	4.885106E-16	1.907109E-17
4.970238E+03	4.874189E-16	1.896260E-17
4.980159E+03	4.863589E-16	1.885626E-17
4.990079E+03	4.853347E-16	1.875219E-17
5.000000E+03	4.843664E-16	1.865114E-17
5.009921E+03	4.834524E-16	1.855298E-17
5.019841E+03	4.826127E-16	1.845844E-17
5.029762E+03	4.818564E-16	1.836782E-17
5.039683E+03	4.811872E-16	1.828120E-17
5.049603E+03	4.806192E-16	1.819905E-17
5.059524E+03	4.801661E-16	1.812183E-17
5.069444E+03	4.798265E-16	1.804942E-17
5.079365E+03	4.796197E-16	1.798249E-17
5.089286E+03	4.795490E-16	1.792108E-17
5.099206E+03	4.796260E-16	1.786555E-17
5.109127E+03	4.798483E-16	1.781575E-17
5.119048E+03	4.802213E-16	1.777179E-17
5.128968E+03	4.807433E-16	1.773354E-17
5.138889E+03	4.814109E-16	1.770081E-17
5.148810E+03	4.822192E-16	1.767333E-17
5.158730E+03	4.831614E-16	1.765081E-17
5.168651E+03	4.842285E-16	1.763283E-17
5.178571E+03	4.854096E-16	1.761894E-17
5.188492E+03	4.866965E-16	1.760879E-17
5.198413E+03	4.880633E-16	1.760139E-17
5.208333E+03	4.895021E-16	1.759640E-17
5.218254E+03	4.909934E-16	1.759310E-17
5.228175E+03	4.925057E-16	1.759030E-17
5.238095E+03	4.940271E-16	1.758757E-17
5.248016E+03	4.955345E-16	1.758407E-17
5.257937E+03	4.969997E-16	1.757877E-17
5.267857E+03	4.983992E-16	1.757086E-17
5.277778E+03	4.997155E-16	1.755973E-17
5.287698E+03	5.009216E-16	1.754442E-17
5.297619E+03	5.020019E-16	1.752444E-17
5.307540E+03	5.029314E-16	1.749892E-17
5.317460E+03	5.036969E-16	1.746745E-17
5.327381E+03	5.042757E-16	1.742929E-17
5.337302E+03	5.046579E-16	1.738412E-17
5.347222E+03	5.048243E-16	1.733137E-17
5.357143E+03	5.047687E-16	1.727086E-17
5.367063E+03	5.044811E-16	1.720233E-17
5.376984E+03	5.039491E-16	1.712541E-17
5.386905E+03	5.031722E-16	1.704016E-17
5.396825E+03	5.021425E-16	1.694638E-17
5.406746E+03	5.008706E-16	1.684452E-17
5.416667E+03	4.993500E-16	1.673442E-17
5.426587E+03	4.975880E-16	1.661640E-17
5.436508E+03	4.956063E-16	1.649127E-17
5.446429E+03	4.934101E-16	1.635927E-17
5.456349E+03	4.910232E-16	1.622124E-17
5.466270E+03	4.884673E-16	1.607797E-17
5.476190E+03	4.857675E-16	1.593033E-17
5.486111E+03	4.829460E-16	1.577910E-17
5.496032E+03	4.800380E-16	1.562545E-17
5.505952E+03	4.770713E-16	1.547033E-17
5.515873E+03	4.740943E-16	1.531530E-17
5.525794E+03	4.711302E-16	1.516113E-17
5.535714E+03	4.682263E-16	1.500931E-17
5.545635E+03	4.654170E-16	1.486092E-17
5.555556E+03	4.627463E-16	1.471733E-17
5.565476E+03	4.602487E-16	1.457957E-17
5.575397E+03	4.579667E-16	1.444892E-17
5.585317E+03	4.559323E-16	1.432631E-17
5.595238E+03	4.541848E-16	1.421286E-17
5.605159E+03	4.527521E-16	1.410933E-17
5.615079E+03	4.516685E-16	1.401667E-17
5.625000E+03	4.509564E-16	1.393543E-17
5.634921E+03	4.506449E-16	1.386636E-17
5.644841E+03	4.507551E-16	1.380994E-17
5.654762E+03	4.512966E-16	1.376630E-17
5.664683E+03	4.522981E-16	1.373613E-17
5.674603E+03	4.537574E-16	1.371918E-17
5.684524E+03	4.556910E-16	1.371575E-17
5.694444E+03	4.581018E-16	1.372573E-17
5.704365E+03	4.609811E-16	1.374867E-17
5.714286E+03	4.643195E-16	1.378408E-17
5.724206E+03	4.681002E-16	1.383128E-17
5.734127E+03	4.723014E-16	1.388943E-17
5.744048E+03	4.768800E-16	1.395708E-17
5.753968E+03	4.818059E-16	1.403319E-17
5.763889E+03	4.870284E-16	1.411614E-17
5.773810E+03	4.924913E-16	1.420418E-17
5.783730E+03	4.981483E-16	1.429586E-17
5.793651E+03	5.039288E-16	1.438908E-17
5.803571E+03	5.097727E-16	1.448208E-17
5.813492E+03	5.156118E-16	1.457288E-17
5.823413E+03	5.213698E-16	1.465935E-17
5.833333E+03	5.269732E-16	1.473946E-17
5.843254E+03	5.323542E-16	1.481140E-17
5.853175E+03	5.374373E-16	1.487317E-17
5.863095E+03	5.421545E-16	1.492304E-17
5.873016E+03	5.464435E-16	1.495945E-17
5.882937E+03	5.502494E-16	1.498114E-17
5.892857E+03	5.535255E-16	1.498704E-17
5.902778E+03	5.562221E-16	1.497608E-17
5.912698E+03	5.583277E-16	1.494821E-17
5.922619E+03	5.598082E-16	1.490281E-17
5.932540E+03	5.606611E-16	1.484013E-17
5.942460E+03	5.608916E-16	1.476059E-17
5.952381E+03	5.605150E-16	1.466492E-17
5.962302E+03	5.595478E-16	1.455382E-17
5.972222E+03	5.580414E-16	1.442893E-17
5.982143E+03	5.560407E-16	1.429167E-17
5.992063E+03	5.535959E-16	1.414358E-17
6.001984E+03	5.507675E-16	1.398642E-17
6.011905E+03	5.476180E-16	1.382198E-17
6.021825E+03	5.442050E-16	1.365188E-17
6.031746E+03	5.405956E-16	1.347794E-17
6.041667E+03	5.368382E-16	1.330147E-17
6.051587E+03	5.329870E-16	1.312391E-17
6.061508E+03	5.290869E-16	1.294642E-17
6.071429E+03	5.251722E-16	1.276990E-17
6.081349E+03	5.212724E-16	1.259508E-17
6.091270E+03	5.174174E-16	1.242272E-17
6.101190E+03	5.136281E-16	1.225330E-17
6.111111E+03	5.099208E-16	1.208723E-17
6.121032E+03	5.063028E-16	1.192466E-17
6.130952E+03	5.027816E-16	1.176573E-17
6.140873E+03	4.993605E-16	1.161049E-17
6.150794E+03	4.960469E-16	1.145909E-17
6.160714E+03	4.928367E-16	1.131138E-17
6.170635E+03	4.897272E-16	1.116728E-17
6.180556E+03	4.867048E-16	1.102644E-17
6.190476E+03	4.837470E-16	1.088833E-17
6.200397E+03	4.808334E-16	1.075249E-17
6.210317E+03	4.779419E-16	1.061842E-17
6.220238E+03	4.750500E-16	1.048563E-17
6.230159E+03	4.721284E-16	1.035349E-17
6.240079E+03	4.691722E-16	1.022194E-17
6.250000E+03	4.661617E-16	1.009058E-17
6.259921E+03	4.630859E-16	9.959206E-18
6.269841E+03	4.599479E-16	9.827943E-18
6.279762E+03	4.567414E-16	9.696696E-18
6.289683E+03	4.534774E-16	9.565752E-18
6.299603E+03	4.501589E-16	9.435212E-18
6.309524E+03	4.468012E-16	9.305440E-18
6.319444E+03	4.434211E-16	9.176820E-18
6.329365E+03	4.400281E-16	9.049575E-18
6.339286E+03	4.366415E-16	8.924126E-18
6.349206E+03	4.332809E-16	8.800894E-18
6.359127E+03	4.299626E-16	8.680214E-18
6.369048E+03	4.267028E-16	8.562421E-18
6.378968E+03	4.235222E-16	8.447927E-18
6.388889E+03	4.204369E-16	8.337046E-18
6.398810E+03	4.174715E-16	8.230250E-18
6.408730E+03	4.146403E-16	8.127806E-18
6.418651E+03	4.119611E-16	8.030041E-18
6.428571E+03	4.094503E-16	7.937244E-18
6.438492E+03	4.071277E-16	7.849771E-18
6.448413E+03	4.050026E-16	7.767772E-18
6.458333E+03	4.030747E-16	7.691211E-18
6.468254E+03	4.013481E-16	7.620135E-18
6.478175E+03	3.998339E-16	7.554734E-18
6.488095E+03	3.985327E-16	7.494995E-18
6.498016E+03	3.974363E-16	7.440744E-18
6.507937E+03	3.965341E-16	7.391769E-18
6.517857E+03	3.957940E-16	7.347469E-18
6.527778E+03	3.951866E-16	7.307306E-18
6.537698E+03	3.946825E-16	7.270750E-18
6.547619E+03	3.942566E-16	7.237364E-18
6.557540E+03	3.938804E-16	7.206655E-18
6.567460E+03	3.935261E-16	7.178152E-18
6.577381E+03	3.931708E-16	7.151478E-18
6.587302E+03	3.927798E-16	7.126044E-18
6.597222E+03	3.923415E-16	7.101686E-18
6.607143E+03	3.918238E-16	7.077869E-18
6.617063E+03	3.912113E-16	7.054359E-18
6.626984E+03	3.904937E-16	7.031012E-18
6.636905E+03	3.896552E-16	7.007577E-18
6.646825E+03	3.886905E-16	6.983955E-18
6.656746E+03	3.875866E-16	6.959860E-18
6.666667E+03	3.863453E-16	6.935259E-18
6.676587E+03	3.849575E-16	6.909924E-18
6.686508E+03	3.834214E-16	6.883749E-18
6.696429E+03	3.817384E-16	6.856678E-18
6.706349E+03	3.799172E-16	6.828790E-18
6.716270E+03	3.779664E-16	6.800152E-18
6.726190E+03	3.758933E-16	6.770808E-18
6.736111E+03	3.737228E-16	6.741119E-18
6.746032E+03	3.714717E-16	6.711295E-18
6.755952E+03	3.691602E-16	6.681618E-18
6.765873E+03	3.668289E-16	6.652733E-18
6.775794E+03	3.644951E-16	6.624871E-18
6.785714E+03	3.621991E-16	6.598690E-18
6.795635E+03	3.599677E-16	6.574608E-18
6.805556E+03	3.578389E-16	6.553253E-18
6.815476E+03	3.558269E-16	6.534833E-18
6.825397E+03	3.539677E-16	6.519958E-18
6.835317E+03	3.522693E-16	6.508739E-18
6.845238E+03	3.507492E-16	6.501464E-18
6.855159E+03	3.494154E-16	6.498254E-18
6.865079E+03	3.482626E-16	6.498990E-18
6.875000E+03	3.472939E-16	6.503711E-18
6.884921E+03	3.464936E-16	6.512107E-18
6.894841E+03	3.458571E-16	6.524082E-18
6.904762E+03	3.453751E-16	6.539445E-18
6.914683E+03	3.450376E-16	6.557997E-18
6.924603E+03	3.448330E-16	6.579508E-18
6.934524E+03	3.447450E-16	6.603656E-18
6.944444E+03	3.447643E-16	6.630251E-18
6.954365E+03	3.448755E-16	6.658987E-18
6.964286E+03	3.450623E-16	6.689534E-18
6.974206E+03	3.453043E-16	6.721483E-18
6.984127E+03	3.455867E-16	6.754526E-18
6.994048E+03	3.459003E-16	6.788461E-18
7.003968E+03	3.462310E-16	6.822996E-18
7.013889E+03	3.465762E-16	6.858050E-18
7.023810E+03	3.469370E-16	6.893630E-18
7.033730E+03	3.473175E-16	6.929793E-18
7.043651E+03	3.477245E-16	6.966659E-18
7.053571E+03	3.481664E-16	7.004383E-18
7.063492E+03	3.486478E-16	7.043045E-18
7.073413E+03	3.491772E-16	7.082811E-18
7.083333E+03	3.497628E-16	7.123842E-18
7.093254E+03	3.504155E-16	7.166356E-18
7.103175E+03	3.511251E-16	7.210147E-18
7.113095E+03	3.519054E-16	7.255499E-18
7.123016E+03	3.527407E-16	7.302089E-18
7.132937E+03	3.536272E-16	7.349845E-18
7.142857E+03	3.545541E-16	7.398537E-18
7.152778E+03	3.555033E-16	7.447792E-18
7.162698E+03	3.564578E-16	7.497245E-18
7.172619E+03	3.573987E-16	7.546489E-18
7.182540E+03	3.583016E-16	7.595000E-18
7.192460E+03	3.591454E-16	7.642312E-18
7.202381E+03	3.599042E-16	7.687851E-18
7.212302E+03	3.605608E-16	7.731222E-18
7.222222E+03	3.610838E-16	7.771727E-18
7.232143E+03	3.614516E-16	7.808857E-18
7.242063E+03	3.616426E-16	7.842112E-18
7.251984E+03	3.616362E-16	7.870997E-18
7.261905E+03	3.614038E-16	7.894842E-18
7.271825E+03	3.609281E-16	7.913214E-18
7.281746E+03	3.601948E-16	7.925745E-18
7.291667E+03	3.591882E-16	7.932030E-18
7.301587E+03	3.579028E-16	7.931889E-18
7.311508E+03	3.563364E-16	7.925210E-18
7.321429E+03	3.544926E-16	7.912015E-18
7.331349E+03	3.523835E-16	7.892520E-18
7.341270E+03	3.500265E-16	7.867057E-18
7.351190E+03	3.474328E-16	7.835834E-18
7.361111E+03	3.446303E-16	7.799430E-18
7.371032E+03	3.416354E-16	7.758184E-18
7.380952E+03	3.384796E-16	7.712775E-18
7.390873E+03	3.351895E-16	7.663787E-18
7.400794E+03	3.317953E-16	7.611887E-18
7.410714E+03	3.283173E-16	7.557532E-18
7.420635E+03	3.247832E-16	7.501351E-18
7.430556E+03	3.212187E-16	7.443938E-18
7.440476E+03	3.176437E-16	7.385755E-18
7.450397E+03	3.140799E-16	7.327317E-18
7.460317E+03	3.105418E-16	7.268976E-18
7.470238E+03	3.070422E-16	7.211045E-18
7.480159E+03	3.036008E-16	7.154010E-18
7.490079E+03	3.002287E-16	7.098155E-18
7.500000E+03	2.969328E-16	7.043666E-18
7.509921E+03	2.937316E-16	6.991008E-18
7.519841E+03	2.906313E-16	6.940356E-18
7.529762E+03	2.876497E-16	6.892144E-18
7.539683E+03	2.847926E-16	6.846521E-18
7.549603E+03	2.820720E-16	6.803792E-18
7.559524E+03	2.794910E-16	6.764044E-18
7.569444E+03	2.770577E-16	6.727497E-18
7.579365E+03	2.747618E-16	6.693919E-18
7.589286E+03	2.725862E-16	6.662913E-18
7.599206E+03	2.705198E-16	6.634218E-18
7.609127E+03	2.685600E-16	6.607787E-18
7.619048E+03	2.666950E-16	6.583340E-18
7.628968E+03	2.649176E-16	6.560713E-18
7.638889E+03	2.632217E-16	6.539762E-18
7.648810E+03	2.616053E-16	6.520448E-18
7.658730E+03	2.600599E-16	6.502562E-18
7.668651E+03	2.585798E-16	6.485972E-18
7.678571E+03	2.571632E-16	6.470641E-18
7.688492E+03	2.558021E-16	6.456368E-18
7.698413E+03	2.544921E-16	6.443049E-18
