#wls	flux	fluxerr
1.587302E+03	3.108692E-18	2.924880E-19
1.626984E+03	3.082186E-18	2.888689E-19
1.666667E+03	3.056043E-18	2.852761E-19
1.706349E+03	3.028591E-18	2.815540E-19
1.746032E+03	3.001517E-18	2.778604E-19
1.785714E+03	2.974218E-18	2.741395E-19
1.825397E+03	2.945248E-18	2.702593E-19
1.865079E+03	2.914085E-18	2.661742E-19
1.904762E+03	2.880108E-18	2.618312E-19
1.944444E+03	2.842423E-18	2.571534E-19
1.984127E+03	2.801734E-18	2.522096E-19
2.023810E+03	2.760557E-18	2.472302E-19
2.063492E+03	2.725079E-18	2.427677E-19
2.103175E+03	2.705980E-18	2.397610E-19
2.142857E+03	2.712835E-18	2.390300E-19
2.182540E+03	2.751716E-18	2.410678E-19
2.222222E+03	2.820626E-18	2.456502E-19
2.261905E+03	2.913991E-18	2.522452E-19
2.301587E+03	3.023316E-18	2.600797E-19
2.341270E+03	3.143577E-18	2.686940E-19
2.380952E+03	3.271905E-18	2.778217E-19
2.420635E+03	3.406989E-18	2.873334E-19
2.460317E+03	3.549960E-18	2.973065E-19
2.500000E+03	3.701569E-18	3.077838E-19
2.539683E+03	3.863523E-18	3.188843E-19
2.579365E+03	4.037764E-18	3.307412E-19
2.619048E+03	4.226414E-18	3.434966E-19
2.658730E+03	4.431780E-18	3.573008E-19
2.698413E+03	4.656388E-18	3.723144E-19
2.738095E+03	4.903042E-18	3.887118E-19
2.777778E+03	5.174174E-18	4.066284E-19
2.817460E+03	5.474038E-18	4.263332E-19
2.857143E+03	5.805183E-18	4.479490E-19
2.896825E+03	6.173778E-18	4.718655E-19
2.936508E+03	6.586151E-18	4.984632E-19
2.976190E+03	7.049690E-18	5.281795E-19
2.986111E+03	7.173998E-18	5.361119E-19
2.996032E+03	7.303463E-18	5.443744E-19
3.005952E+03	7.436436E-18	5.528410E-19
3.015873E+03	7.573991E-18	5.615890E-19
3.025794E+03	7.716355E-18	5.706320E-19
3.035714E+03	7.862851E-18	5.799169E-19
3.045635E+03	8.015511E-18	5.895904E-19
3.055556E+03	8.172807E-18	5.995363E-19
3.065476E+03	8.336851E-18	6.099059E-19
3.075397E+03	8.506850E-18	6.206369E-19
3.085317E+03	8.681968E-18	6.316643E-19
3.095238E+03	8.864416E-18	6.431451E-19
3.105159E+03	9.053411E-18	6.550177E-19
3.115079E+03	9.250226E-18	6.673693E-19
3.125000E+03	9.454061E-18	6.801372E-19
3.134921E+03	9.665147E-18	6.933331E-19
3.144841E+03	9.884862E-18	7.070503E-19
3.154762E+03	1.011239E-17	7.212252E-19
3.164683E+03	1.035030E-17	7.360340E-19
3.174603E+03	1.059667E-17	7.513341E-19
3.184524E+03	1.085298E-17	7.672240E-19
3.194444E+03	1.111961E-17	7.837238E-19
3.204365E+03	1.139696E-17	8.008537E-19
3.214286E+03	1.168544E-17	8.186351E-19
3.224206E+03	1.198547E-17	8.370901E-19
3.234127E+03	1.229880E-17	8.563310E-19
3.244048E+03	1.262596E-17	8.763861E-19
3.253968E+03	1.296615E-17	8.971906E-19
3.263889E+03	1.332126E-17	9.188644E-19
3.273810E+03	1.369186E-17	9.414370E-19
3.283730E+03	1.407858E-17	9.649401E-19
3.293651E+03	1.448207E-17	9.894062E-19
3.303571E+03	1.490446E-17	1.014968E-18
3.313492E+03	1.534502E-17	1.041564E-18
3.323413E+03	1.580601E-17	1.069332E-18
3.333333E+03	1.628824E-17	1.098313E-18
3.343254E+03	1.679100E-17	1.128442E-18
3.353175E+03	1.731830E-17	1.159974E-18
3.363095E+03	1.786952E-17	1.192850E-18
3.373016E+03	1.844729E-17	1.227226E-18
3.382937E+03	1.905268E-17	1.263154E-18
3.392857E+03	1.968504E-17	1.300571E-18
3.402778E+03	2.034902E-17	1.339762E-18
3.412698E+03	2.104223E-17	1.380548E-18
3.422619E+03	2.176950E-17	1.423222E-18
3.432540E+03	2.253220E-17	1.467848E-18
3.442460E+03	2.333172E-17	1.514489E-18
3.452381E+03	2.416950E-17	1.563211E-18
3.462302E+03	2.504700E-17	1.614079E-18
3.472222E+03	2.596777E-17	1.667291E-18
3.482143E+03	2.693140E-17	1.722788E-18
3.492063E+03	2.794157E-17	1.780771E-18
3.501984E+03	2.900003E-17	1.841316E-18
3.511905E+03	3.010852E-17	1.904497E-18
3.521825E+03	3.126882E-17	1.970386E-18
3.531746E+03	3.248508E-17	2.039205E-18
3.541667E+03	3.375928E-17	2.111032E-18
3.551587E+03	3.509338E-17	2.185947E-18
3.561508E+03	3.648689E-17	2.263872E-18
3.571429E+03	3.794676E-17	2.345189E-18
3.581349E+03	3.947254E-17	2.429820E-18
3.591270E+03	4.106891E-17	2.517999E-18
3.601190E+03	4.273529E-17	2.609635E-18
3.611111E+03	4.447641E-17	2.704961E-18
3.621032E+03	4.629439E-17	2.804046E-18
3.630952E+03	4.818838E-17	2.906777E-18
3.640873E+03	5.016616E-17	3.013561E-18
3.650794E+03	5.222685E-17	3.124278E-18
3.660714E+03	5.437233E-17	3.238975E-18
3.670635E+03	5.660440E-17	3.357689E-18
3.680556E+03	5.892803E-17	3.480644E-18
3.690476E+03	6.134172E-17	3.607678E-18
3.700397E+03	6.384697E-17	3.738806E-18
3.710317E+03	6.645199E-17	3.874432E-18
3.720238E+03	6.914790E-17	4.013958E-18
3.730159E+03	7.194625E-17	4.157979E-18
3.740079E+03	7.483742E-17	4.305857E-18
3.750000E+03	7.783301E-17	4.458179E-18
3.759921E+03	8.092639E-17	4.614481E-18
3.769841E+03	8.411781E-17	4.774698E-18
3.779762E+03	8.741514E-17	4.939192E-18
3.789683E+03	9.080666E-17	5.107216E-18
3.799603E+03	9.430389E-17	5.279336E-18
3.809524E+03	9.789412E-17	5.454757E-18
3.819444E+03	1.015888E-16	5.634033E-18
3.829365E+03	1.053743E-16	5.816327E-18
3.839286E+03	1.092574E-16	6.001939E-18
3.849206E+03	1.132322E-16	6.190455E-18
3.859127E+03	1.172966E-16	6.381686E-18
3.869048E+03	1.214435E-16	6.575176E-18
3.878968E+03	1.256794E-16	6.771199E-18
3.888889E+03	1.299966E-16	6.969270E-18
3.898810E+03	1.343873E-16	7.168903E-18
3.908730E+03	1.388475E-16	7.369825E-18
3.918651E+03	1.433783E-16	7.572032E-18
3.928571E+03	1.479705E-16	7.774985E-18
3.938492E+03	1.526198E-16	7.978395E-18
3.948413E+03	1.573165E-16	8.181718E-18
3.958333E+03	1.620655E-16	8.385166E-18
3.968254E+03	1.668466E-16	8.587652E-18
3.978175E+03	1.716648E-16	8.789402E-18
3.988095E+03	1.765095E-16	8.989852E-18
3.998016E+03	1.813702E-16	9.188439E-18
4.007937E+03	1.862467E-16	9.385141E-18
4.017857E+03	1.911288E-16	9.579438E-18
4.027778E+03	1.960170E-16	9.771342E-18
4.037698E+03	2.008958E-16	9.960094E-18
4.047619E+03	2.057612E-16	1.014549E-17
4.057540E+03	2.106147E-16	1.032763E-17
4.067460E+03	2.154476E-16	1.050609E-17
4.077381E+03	2.202574E-16	1.068078E-17
4.087302E+03	2.250363E-16	1.085134E-17
4.097222E+03	2.297883E-16	1.101799E-17
4.107143E+03	2.345014E-16	1.118018E-17
4.117063E+03	2.391804E-16	1.133819E-17
4.126984E+03	2.438195E-16	1.149177E-17
4.136905E+03	2.484246E-16	1.164123E-17
4.146825E+03	2.529849E-16	1.178612E-17
4.156746E+03	2.575073E-16	1.192679E-17
4.166667E+03	2.619874E-16	1.206309E-17
4.176587E+03	2.664275E-16	1.219516E-17
4.186508E+03	2.708301E-16	1.232315E-17
4.196429E+03	2.751930E-16	1.244702E-17
4.206349E+03	2.795201E-16	1.256698E-17
4.216270E+03	2.838158E-16	1.268327E-17
4.226190E+03	2.880850E-16	1.279614E-17
4.236111E+03	2.923268E-16	1.290560E-17
4.246032E+03	2.965412E-16	1.301169E-17
4.255952E+03	3.007454E-16	1.311517E-17
4.265873E+03	3.049334E-16	1.321584E-17
4.275794E+03	3.091054E-16	1.331372E-17
4.285714E+03	3.132781E-16	1.340957E-17
4.295635E+03	3.174456E-16	1.350314E-17
4.305556E+03	3.216186E-16	1.359492E-17
4.315476E+03	3.257901E-16	1.368464E-17
4.325397E+03	3.299702E-16	1.377274E-17
4.335317E+03	3.341627E-16	1.385939E-17
4.345238E+03	3.383651E-16	1.394451E-17
4.355159E+03	3.425806E-16	1.402824E-17
4.365079E+03	3.468119E-16	1.411072E-17
4.375000E+03	3.510556E-16	1.419183E-17
4.384921E+03	3.553194E-16	1.427189E-17
4.394841E+03	3.596057E-16	1.435102E-17
4.404762E+03	3.639106E-16	1.442908E-17
4.414683E+03	3.682355E-16	1.450614E-17
4.424603E+03	3.725872E-16	1.458250E-17
4.434524E+03	3.769550E-16	1.465775E-17
4.444444E+03	3.813386E-16	1.473191E-17
4.454365E+03	3.857431E-16	1.480520E-17
4.464286E+03	3.901611E-16	1.487737E-17
4.474206E+03	3.945842E-16	1.494814E-17
4.484127E+03	3.990090E-16	1.501742E-17
4.494048E+03	4.034312E-16	1.508510E-17
4.503968E+03	4.078455E-16	1.515102E-17
4.513889E+03	4.122401E-16	1.521482E-17
4.523810E+03	4.166144E-16	1.527653E-17
4.533730E+03	4.209553E-16	1.533576E-17
4.543651E+03	4.252495E-16	1.539209E-17
4.553571E+03	4.294949E-16	1.544554E-17
4.563492E+03	4.336830E-16	1.549590E-17
4.573413E+03	4.377995E-16	1.554276E-17
4.583333E+03	4.418352E-16	1.558592E-17
4.593254E+03	4.457752E-16	1.562496E-17
4.603175E+03	4.496164E-16	1.565990E-17
4.613095E+03	4.533502E-16	1.569058E-17
4.623016E+03	4.569621E-16	1.571663E-17
4.632937E+03	4.604442E-16	1.573793E-17
4.642857E+03	4.637890E-16	1.575438E-17
4.652778E+03	4.669897E-16	1.576589E-17
4.662698E+03	4.700404E-16	1.577244E-17
4.672619E+03	4.729299E-16	1.577379E-17
4.682540E+03	4.756588E-16	1.577014E-17
4.692460E+03	4.782168E-16	1.576131E-17
4.702381E+03	4.806052E-16	1.574752E-17
4.712302E+03	4.828139E-16	1.572859E-17
4.722222E+03	4.848387E-16	1.570455E-17
4.732143E+03	4.866755E-16	1.567543E-17
4.742063E+03	4.883146E-16	1.564110E-17
4.751984E+03	4.897588E-16	1.560180E-17
4.761905E+03	4.910111E-16	1.555780E-17
4.771825E+03	4.920634E-16	1.550898E-17
4.781746E+03	4.929255E-16	1.545582E-17
4.791667E+03	4.935846E-16	1.539805E-17
4.801587E+03	4.940519E-16	1.533617E-17
4.811508E+03	4.943276E-16	1.527033E-17
4.821429E+03	4.944082E-16	1.520053E-17
4.831349E+03	4.943079E-16	1.512736E-17
4.841270E+03	4.940399E-16	1.505131E-17
4.851190E+03	4.936183E-16	1.497292E-17
4.861111E+03	4.930579E-16	1.489273E-17
4.871032E+03	4.923797E-16	1.481145E-17
4.880952E+03	4.915987E-16	1.472960E-17
4.890873E+03	4.907298E-16	1.464765E-17
4.900794E+03	4.897877E-16	1.456604E-17
4.910714E+03	4.887919E-16	1.448529E-17
4.920635E+03	4.877558E-16	1.440576E-17
4.930556E+03	4.866915E-16	1.432774E-17
4.940476E+03	4.856160E-16	1.425168E-17
4.950397E+03	4.845344E-16	1.417766E-17
4.960317E+03	4.834617E-16	1.410606E-17
4.970238E+03	4.824122E-16	1.403722E-17
4.980159E+03	4.813843E-16	1.397102E-17
4.990079E+03	4.804027E-16	1.390810E-17
5.000000E+03	4.794654E-16	1.384833E-17
5.009921E+03	4.785869E-16	1.379204E-17
5.019841E+03	4.777811E-16	1.373957E-17
5.029762E+03	4.770517E-16	1.369094E-17
5.039683E+03	4.764074E-16	1.364633E-17
5.049603E+03	4.758622E-16	1.360604E-17
5.059524E+03	4.754245E-16	1.357026E-17
5.069444E+03	4.751028E-16	1.353913E-17
5.079365E+03	4.749058E-16	1.351284E-17
5.089286E+03	4.748461E-16	1.349167E-17
5.099206E+03	4.749196E-16	1.347543E-17
5.109127E+03	4.751445E-16	1.346456E-17
5.119048E+03	4.755062E-16	1.345857E-17
5.128968E+03	4.760136E-16	1.345766E-17
5.138889E+03	4.766636E-16	1.346167E-17
5.148810E+03	4.774515E-16	1.347041E-17
5.158730E+03	4.783657E-16	1.348348E-17
5.168651E+03	4.794028E-16	1.350072E-17
5.178571E+03	4.805522E-16	1.352180E-17
5.188492E+03	4.817961E-16	1.354614E-17
5.198413E+03	4.831297E-16	1.357356E-17
5.208333E+03	4.845309E-16	1.360340E-17
5.218254E+03	4.859760E-16	1.363493E-17
5.228175E+03	4.874551E-16	1.366783E-17
5.238095E+03	4.889369E-16	1.370118E-17
5.248016E+03	4.904046E-16	1.373446E-17
5.257937E+03	4.918413E-16	1.376715E-17
5.267857E+03	4.932146E-16	1.379832E-17
5.277778E+03	4.945079E-16	1.382745E-17
5.287698E+03	4.957004E-16	1.385392E-17
5.297619E+03	4.967773E-16	1.387729E-17
5.307540E+03	4.977091E-16	1.389669E-17
5.317460E+03	4.984835E-16	1.391174E-17
5.327381E+03	4.990837E-16	1.392194E-17
5.337302E+03	4.994947E-16	1.392685E-17
5.347222E+03	4.997032E-16	1.392606E-17
5.357143E+03	4.996979E-16	1.391922E-17
5.367063E+03	4.994637E-16	1.390589E-17
5.376984E+03	4.990036E-16	1.388613E-17
5.386905E+03	4.983015E-16	1.385946E-17
5.396825E+03	4.973644E-16	1.382606E-17
5.406746E+03	4.961824E-16	1.378564E-17
5.416667E+03	4.947682E-16	1.373852E-17
5.426587E+03	4.931183E-16	1.368461E-17
5.436508E+03	4.912480E-16	1.362430E-17
5.446429E+03	4.891710E-16	1.355797E-17
5.456349E+03	4.869092E-16	1.348621E-17
5.466270E+03	4.844730E-16	1.340931E-17
5.476190E+03	4.818901E-16	1.332802E-17
5.486111E+03	4.791907E-16	1.324317E-17
5.496032E+03	4.763937E-16	1.315528E-17
5.505952E+03	4.735340E-16	1.306531E-17
5.515873E+03	4.706490E-16	1.297428E-17
5.525794E+03	4.677729E-16	1.288313E-17
5.535714E+03	4.649325E-16	1.279258E-17
5.545635E+03	4.621737E-16	1.270389E-17
5.555556E+03	4.595335E-16	1.261807E-17
5.565476E+03	4.570440E-16	1.253599E-17
5.575397E+03	4.547411E-16	1.245860E-17
5.585317E+03	4.526639E-16	1.238696E-17
5.595238E+03	4.508403E-16	1.232181E-17
5.605159E+03	4.493014E-16	1.226397E-17
5.615079E+03	4.480791E-16	1.221427E-17
5.625000E+03	4.471949E-16	1.217327E-17
5.634921E+03	4.466714E-16	1.214154E-17
5.644841E+03	4.465333E-16	1.211970E-17
5.654762E+03	4.467931E-16	1.210804E-17
5.664683E+03	4.474603E-16	1.210676E-17
5.674603E+03	4.485543E-16	1.211633E-17
5.684524E+03	4.500771E-16	1.213673E-17
5.694444E+03	4.520303E-16	1.216795E-17
5.704365E+03	4.544102E-16	1.220981E-17
5.714286E+03	4.572024E-16	1.226187E-17
5.724206E+03	4.603997E-16	1.232383E-17
5.734127E+03	4.639642E-16	1.239464E-17
5.744048E+03	4.678784E-16	1.247374E-17
5.753968E+03	4.720922E-16	1.255974E-17
5.763889E+03	4.765721E-16	1.265168E-17
5.773810E+03	4.812666E-16	1.274814E-17
5.783730E+03	4.861240E-16	1.284770E-17
5.793651E+03	4.910891E-16	1.294887E-17
5.803571E+03	4.961028E-16	1.305006E-17
5.813492E+03	5.010982E-16	1.314950E-17
5.823413E+03	5.060159E-16	1.324563E-17
5.833333E+03	5.107857E-16	1.333662E-17
5.843254E+03	5.153425E-16	1.342079E-17
5.853175E+03	5.196284E-16	1.349670E-17
5.863095E+03	5.235734E-16	1.356257E-17
5.873016E+03	5.271227E-16	1.361707E-17
5.882937E+03	5.302332E-16	1.365918E-17
5.892857E+03	5.328636E-16	1.368793E-17
5.902778E+03	5.349709E-16	1.370234E-17
5.912698E+03	5.365361E-16	1.370206E-17
5.922619E+03	5.375447E-16	1.368685E-17
5.932540E+03	5.379866E-16	1.365660E-17
5.942460E+03	5.378674E-16	1.361161E-17
5.952381E+03	5.372028E-16	1.355243E-17
5.962302E+03	5.360192E-16	1.347988E-17
5.972222E+03	5.343483E-16	1.339490E-17
5.982143E+03	5.322404E-16	1.329890E-17
5.992063E+03	5.297413E-16	1.319315E-17
6.001984E+03	5.269000E-16	1.307901E-17
6.011905E+03	5.237785E-16	1.295811E-17
6.021825E+03	5.204329E-16	1.283195E-17
6.031746E+03	5.169133E-16	1.270185E-17
6.041667E+03	5.132670E-16	1.256905E-17
6.051587E+03	5.095510E-16	1.243499E-17
6.061508E+03	5.058009E-16	1.230061E-17
6.071429E+03	5.020464E-16	1.216665E-17
6.081349E+03	4.983223E-16	1.203400E-17
6.091270E+03	4.946589E-16	1.190341E-17
6.101190E+03	4.910725E-16	1.177530E-17
6.111111E+03	4.875848E-16	1.165018E-17
6.121032E+03	4.842229E-16	1.152869E-17
6.130952E+03	4.809951E-16	1.141101E-17
6.140873E+03	4.779148E-16	1.129740E-17
6.150794E+03	4.749674E-16	1.118749E-17
6.160714E+03	4.721417E-16	1.108098E-17
6.170635E+03	4.694108E-16	1.097723E-17
6.180556E+03	4.667565E-16	1.087577E-17
6.190476E+03	4.641574E-16	1.077610E-17
6.200397E+03	4.615891E-16	1.067764E-17
6.210317E+03	4.590261E-16	1.057980E-17
6.220238E+03	4.564383E-16	1.048190E-17
6.230159E+03	4.538073E-16	1.038352E-17
6.240079E+03	4.511183E-16	1.028434E-17
6.250000E+03	4.483563E-16	1.018406E-17
6.259921E+03	4.455101E-16	1.008242E-17
6.269841E+03	4.425733E-16	9.979336E-18
6.279762E+03	4.395476E-16	9.874861E-18
6.289683E+03	4.364395E-16	9.769174E-18
6.299603E+03	4.332507E-16	9.662342E-18
6.309524E+03	4.299992E-16	9.554797E-18
6.319444E+03	4.266926E-16	9.446731E-18
6.329365E+03	4.233524E-16	9.338646E-18
6.339286E+03	4.199932E-16	9.230880E-18
6.349206E+03	4.166260E-16	9.123688E-18
6.359127E+03	4.132752E-16	9.017620E-18
6.369048E+03	4.099570E-16	8.913036E-18
6.378968E+03	4.066922E-16	8.810390E-18
6.388889E+03	4.034887E-16	8.709853E-18
6.398810E+03	4.003708E-16	8.611948E-18
6.408730E+03	3.973537E-16	8.516992E-18
6.418651E+03	3.944389E-16	8.425014E-18
6.428571E+03	3.916478E-16	8.336455E-18
6.438492E+03	3.889839E-16	8.251380E-18
6.448413E+03	3.864621E-16	8.170091E-18
6.458333E+03	3.840998E-16	8.092941E-18
6.468254E+03	3.819056E-16	8.020089E-18
6.478175E+03	3.798941E-16	7.951827E-18
6.488095E+03	3.780685E-16	7.888200E-18
6.498016E+03	3.764321E-16	7.829258E-18
6.507937E+03	3.749623E-16	7.774512E-18
6.517857E+03	3.736449E-16	7.723661E-18
6.527778E+03	3.724515E-16	7.676106E-18
6.537698E+03	3.713643E-16	7.631484E-18
6.547619E+03	3.703500E-16	7.589114E-18
6.557540E+03	3.693922E-16	7.548668E-18
6.567460E+03	3.684626E-16	7.509585E-18
6.577381E+03	3.675424E-16	7.471497E-18
6.587302E+03	3.666055E-16	7.433898E-18
6.597222E+03	3.656353E-16	7.396477E-18
6.607143E+03	3.646175E-16	7.358966E-18
6.617063E+03	3.635323E-16	7.320994E-18
6.626984E+03	3.623675E-16	7.282348E-18
6.636905E+03	3.611181E-16	7.242948E-18
6.646825E+03	3.597767E-16	7.202638E-18
6.656746E+03	3.583372E-16	7.161263E-18
6.666667E+03	3.567949E-16	7.118694E-18
6.676587E+03	3.551471E-16	7.074843E-18
6.686508E+03	3.533976E-16	7.029749E-18
6.696429E+03	3.515448E-16	6.983343E-18
6.706349E+03	3.495978E-16	6.935771E-18
6.716270E+03	3.475650E-16	6.887160E-18
6.726190E+03	3.454582E-16	6.837704E-18
6.736111E+03	3.432885E-16	6.787587E-18
6.746032E+03	3.410830E-16	6.737304E-18
6.755952E+03	3.388600E-16	6.687176E-18
6.765873E+03	3.366442E-16	6.637651E-18
6.775794E+03	3.344661E-16	6.589291E-18
6.785714E+03	3.323495E-16	6.542524E-18
6.795635E+03	3.303214E-16	6.497844E-18
6.805556E+03	3.284112E-16	6.455790E-18
6.815476E+03	3.266384E-16	6.416708E-18
6.825397E+03	3.250257E-16	6.381008E-18
6.835317E+03	3.235834E-16	6.348858E-18
6.845238E+03	3.223253E-16	6.320493E-18
6.855159E+03	3.212561E-16	6.295975E-18
6.865079E+03	3.203712E-16	6.275182E-18
6.875000E+03	3.196690E-16	6.258055E-18
6.884921E+03	3.191385E-16	6.244351E-18
6.894841E+03	3.187748E-16	6.233948E-18
6.904762E+03	3.185683E-16	6.226636E-18
6.914683E+03	3.185050E-16	6.222118E-18
6.924603E+03	3.185738E-16	6.220157E-18
6.934524E+03	3.187667E-16	6.220576E-18
6.944444E+03	3.190668E-16	6.223029E-18
6.954365E+03	3.194640E-16	6.227299E-18
6.964286E+03	3.199394E-16	6.233007E-18
6.974206E+03	3.204749E-16	6.239785E-18
6.984127E+03	3.210646E-16	6.247505E-18
6.994048E+03	3.216928E-16	6.255854E-18
7.003968E+03	3.223477E-16	6.264590E-18
7.013889E+03	3.230331E-16	6.273784E-18
7.023810E+03	3.237377E-16	6.283207E-18
7.033730E+03	3.244722E-16	6.293062E-18
7.043651E+03	3.252418E-16	6.303449E-18
7.053571E+03	3.260454E-16	6.314341E-18
7.063492E+03	3.268943E-16	6.325955E-18
7.073413E+03	3.277953E-16	6.338426E-18
7.083333E+03	3.287550E-16	6.351878E-18
7.093254E+03	3.297739E-16	6.366324E-18
7.103175E+03	3.308499E-16	6.381724E-18
7.113095E+03	3.319905E-16	6.398229E-18
7.123016E+03	3.331835E-16	6.415607E-18
7.132937E+03	3.344250E-16	6.433793E-18
7.142857E+03	3.356956E-16	6.452421E-18
7.152778E+03	3.369854E-16	6.471309E-18
7.162698E+03	3.382772E-16	6.490148E-18
7.172619E+03	3.395441E-16	6.508431E-18
7.182540E+03	3.407738E-16	6.525946E-18
7.192460E+03	3.419368E-16	6.542148E-18
7.202381E+03	3.430110E-16	6.556640E-18
7.212302E+03	3.439699E-16	6.568943E-18
7.222222E+03	3.447952E-16	6.578737E-18
7.232143E+03	3.454601E-16	6.585544E-18
7.242063E+03	3.459429E-16	6.588987E-18
7.251984E+03	3.462140E-16	6.588540E-18
7.261905E+03	3.462624E-16	6.584032E-18
7.271825E+03	3.460621E-16	6.575011E-18
7.281746E+03	3.455947E-16	6.561167E-18
7.291667E+03	3.448581E-16	6.542506E-18
7.301587E+03	3.438384E-16	6.518808E-18
7.311508E+03	3.425326E-16	6.490055E-18
7.321429E+03	3.409519E-16	6.456502E-18
7.331349E+03	3.391036E-16	6.418325E-18
7.341270E+03	3.370079E-16	6.375945E-18
7.351190E+03	3.346760E-16	6.329607E-18
7.361111E+03	3.321345E-16	6.279846E-18
7.371032E+03	3.294078E-16	6.227153E-18
7.380952E+03	3.265218E-16	6.172044E-18
7.390873E+03	3.234987E-16	6.114961E-18
7.400794E+03	3.203721E-16	6.056559E-18
7.410714E+03	3.171584E-16	5.997170E-18
7.420635E+03	3.138852E-16	5.937327E-18
7.430556E+03	3.105743E-16	5.877461E-18
7.440476E+03	3.072498E-16	5.818038E-18
7.450397E+03	3.039256E-16	5.759332E-18
7.460317E+03	3.006213E-16	5.701728E-18
7.470238E+03	2.973470E-16	5.645422E-18
7.480159E+03	2.941228E-16	5.590806E-18
7.490079E+03	2.909606E-16	5.538115E-18
7.500000E+03	2.878680E-16	5.487500E-18
7.509921E+03	2.848595E-16	5.439249E-18
7.519841E+03	2.819489E-16	5.393629E-18
7.529762E+03	2.791422E-16	5.350741E-18
7.539683E+03	2.764554E-16	5.310843E-18
7.549603E+03	2.738880E-16	5.273878E-18
7.559524E+03	2.714477E-16	5.239952E-18
7.569444E+03	2.691362E-16	5.209060E-18
7.579365E+03	2.669447E-16	5.180995E-18
7.589286E+03	2.648589E-16	5.155443E-18
7.599206E+03	2.628785E-16	5.132365E-18
7.609127E+03	2.609898E-16	5.111460E-18
7.619048E+03	2.591936E-16	5.092714E-18
7.628968E+03	2.574813E-16	5.075926E-18
7.638889E+03	2.558480E-16	5.060970E-18
7.648810E+03	2.542923E-16	5.047794E-18
7.658730E+03	2.528067E-16	5.036217E-18
7.668651E+03	2.513892E-16	5.026178E-18
7.678571E+03	2.500322E-16	5.017496E-18
7.688492E+03	2.487342E-16	5.010119E-18
7.698413E+03	2.474879E-16	5.003876E-18
