#wls	flux	fluxerr
1.587302E+03	2.660681E-18	2.406698E-19
1.626984E+03	2.646266E-18	2.384719E-19
1.666667E+03	2.631674E-18	2.362468E-19
1.706349E+03	2.616435E-18	2.339526E-19
1.746032E+03	2.601025E-18	2.316323E-19
1.785714E+03	2.584928E-18	2.292404E-19
1.825397E+03	2.567873E-18	2.267537E-19
1.865079E+03	2.548400E-18	2.240449E-19
1.904762E+03	2.525974E-18	2.210703E-19
1.944444E+03	2.499803E-18	2.177645E-19
1.984127E+03	2.470516E-18	2.141868E-19
2.023810E+03	2.440335E-18	2.105335E-19
2.063492E+03	2.414302E-18	2.072387E-19
2.103175E+03	2.402014E-18	2.051172E-19
2.142857E+03	2.412088E-18	2.048824E-19
2.182540E+03	2.450094E-18	2.069737E-19
2.222222E+03	2.514361E-18	2.112103E-19
2.261905E+03	2.600055E-18	2.171489E-19
2.301587E+03	2.699602E-18	2.241263E-19
2.341270E+03	2.809075E-18	2.317944E-19
2.380952E+03	2.925455E-18	2.398866E-19
2.420635E+03	3.048094E-18	2.483352E-19
2.460317E+03	3.178107E-18	2.572161E-19
2.500000E+03	3.316782E-18	2.666160E-19
2.539683E+03	3.465778E-18	2.766481E-19
2.579365E+03	3.626984E-18	2.874389E-19
2.619048E+03	3.802463E-18	2.991238E-19
2.658730E+03	3.995114E-18	3.118974E-19
2.698413E+03	4.207468E-18	3.259178E-19
2.738095E+03	4.442337E-18	3.413569E-19
2.777778E+03	4.704314E-18	3.585141E-19
2.817460E+03	4.997145E-18	3.776109E-19
2.857143E+03	5.325104E-18	3.988966E-19
2.896825E+03	5.695547E-18	4.228356E-19
2.936508E+03	6.115327E-18	4.498324E-19
2.976190E+03	6.593305E-18	4.804157E-19
2.986111E+03	6.723227E-18	4.887026E-19
2.996032E+03	6.857522E-18	4.972556E-19
3.005952E+03	6.996340E-18	5.060829E-19
3.015873E+03	7.139857E-18	5.151946E-19
3.025794E+03	7.288295E-18	5.246036E-19
3.035714E+03	7.442894E-18	5.343961E-19
3.045635E+03	7.602851E-18	5.445109E-19
3.055556E+03	7.768530E-18	5.549706E-19
3.065476E+03	7.941123E-18	5.658567E-19
3.075397E+03	8.119807E-18	5.771066E-19
3.085317E+03	8.305819E-18	5.888041E-19
3.095238E+03	8.498317E-18	6.008853E-19
3.105159E+03	8.698591E-18	6.134371E-19
3.115079E+03	8.906901E-18	6.264730E-19
3.125000E+03	9.122407E-18	6.399291E-19
3.134921E+03	9.347590E-18	6.539743E-19
3.144841E+03	9.580518E-18	6.684681E-19
3.154762E+03	9.822599E-18	6.835033E-19
3.164683E+03	1.007416E-17	6.990968E-19
3.174603E+03	1.033553E-17	7.152661E-19
3.184524E+03	1.060829E-17	7.321127E-19
3.194444E+03	1.089161E-17	7.495738E-19
3.204365E+03	1.118588E-17	7.676681E-19
3.214286E+03	1.149146E-17	7.864145E-19
3.224206E+03	1.181010E-17	8.059242E-19
3.234127E+03	1.214228E-17	8.262215E-19
3.244048E+03	1.248713E-17	8.472391E-19
3.253968E+03	1.284651E-17	8.690946E-19
3.263889E+03	1.322095E-17	8.918135E-19
3.273810E+03	1.361100E-17	9.154242E-19
3.283730E+03	1.401725E-17	9.399557E-19
3.293651E+03	1.444031E-17	9.654373E-19
3.303571E+03	1.488229E-17	9.919999E-19
3.313492E+03	1.534083E-17	1.019474E-18
3.323413E+03	1.582124E-17	1.048199E-18
3.333333E+03	1.632114E-17	1.078005E-18
3.343254E+03	1.684125E-17	1.108925E-18
3.353175E+03	1.738560E-17	1.141212E-18
3.363095E+03	1.795174E-17	1.174688E-18
3.373016E+03	1.854388E-17	1.209612E-18
3.382937E+03	1.915947E-17	1.245803E-18
3.392857E+03	1.980290E-17	1.283529E-18
3.402778E+03	2.047520E-17	1.322837E-18
3.412698E+03	2.117555E-17	1.363656E-18
3.422619E+03	2.190683E-17	1.406150E-18
3.432540E+03	2.267013E-17	1.450368E-18
3.442460E+03	2.346457E-17	1.496234E-18
3.452381E+03	2.429524E-17	1.544048E-18
3.462302E+03	2.516342E-17	1.593867E-18
3.472222E+03	2.606618E-17	1.645479E-18
3.482143E+03	2.701104E-17	1.699335E-18
3.492063E+03	2.799508E-17	1.755222E-18
3.501984E+03	2.902176E-17	1.813329E-18
3.511905E+03	3.009243E-17	1.873709E-18
3.521825E+03	3.120847E-17	1.936419E-18
3.531746E+03	3.237125E-17	2.001511E-18
3.541667E+03	3.358459E-17	2.069187E-18
3.551587E+03	3.485000E-17	2.139504E-18
3.561508E+03	3.616899E-17	2.212519E-18
3.571429E+03	3.754309E-17	2.288286E-18
3.581349E+03	3.897380E-17	2.366857E-18
3.591270E+03	4.046260E-17	2.448281E-18
3.601190E+03	4.201367E-17	2.532769E-18
3.611111E+03	4.362583E-17	2.620206E-18
3.621032E+03	4.530329E-17	2.710799E-18
3.630952E+03	4.705046E-17	2.804764E-18
3.640873E+03	4.886305E-17	2.901797E-18
3.650794E+03	5.074833E-17	3.002280E-18
3.660714E+03	5.270470E-17	3.106065E-18
3.670635E+03	5.473655E-17	3.213360E-18
3.680556E+03	5.684521E-17	3.324186E-18
3.690476E+03	5.903190E-17	3.438559E-18
3.700397E+03	6.129776E-17	3.556487E-18
3.710317E+03	6.364378E-17	3.677970E-18
3.720238E+03	6.607423E-17	3.803195E-18
3.730159E+03	6.858654E-17	3.931952E-18
3.740079E+03	7.118836E-17	4.064616E-18
3.750000E+03	7.387320E-17	4.200754E-18
3.759921E+03	7.664494E-17	4.340522E-18
3.769841E+03	7.950372E-17	4.483865E-18
3.779762E+03	8.245331E-17	4.630929E-18
3.789683E+03	8.549361E-17	4.781639E-18
3.799603E+03	8.861638E-17	4.935472E-18
3.809524E+03	9.183268E-17	5.092976E-18
3.819444E+03	9.513763E-17	5.253812E-18
3.829365E+03	9.852608E-17	5.417631E-18
3.839286E+03	1.020047E-16	5.584737E-18
3.849206E+03	1.055633E-16	5.754503E-18
3.859127E+03	1.092084E-16	5.927221E-18
3.869048E+03	1.129374E-16	6.102689E-18
3.878968E+03	1.167392E-16	6.280245E-18
3.888889E+03	1.206193E-16	6.460125E-18
3.898810E+03	1.245744E-16	6.642098E-18
3.908730E+03	1.285962E-16	6.825668E-18
3.918651E+03	1.326855E-16	7.010819E-18
3.928571E+03	1.368378E-16	7.197265E-18
3.938492E+03	1.410438E-16	7.384475E-18
3.948413E+03	1.452987E-16	7.572159E-18
3.958333E+03	1.496070E-16	7.760503E-18
3.968254E+03	1.539489E-16	7.948457E-18
3.978175E+03	1.583288E-16	8.136209E-18
3.988095E+03	1.627412E-16	8.323459E-18
3.998016E+03	1.671760E-16	8.509662E-18
4.007937E+03	1.716278E-16	8.694528E-18
4.017857E+03	1.760914E-16	8.877786E-18
4.027778E+03	1.805617E-16	9.059171E-18
4.037698E+03	1.850342E-16	9.238447E-18
4.047619E+03	1.894993E-16	9.415146E-18
4.057540E+03	1.939578E-16	9.589311E-18
4.067460E+03	1.984011E-16	9.760524E-18
4.077381E+03	2.028204E-16	9.928375E-18
4.087302E+03	2.072181E-16	1.009299E-17
4.097222E+03	2.115863E-16	1.025401E-17
4.107143E+03	2.159229E-16	1.041136E-17
4.117063E+03	2.202262E-16	1.056499E-17
4.126984E+03	2.244846E-16	1.071437E-17
4.136905E+03	2.287026E-16	1.085976E-17
4.146825E+03	2.328746E-16	1.100092E-17
4.156746E+03	2.370009E-16	1.113791E-17
4.166667E+03	2.410771E-16	1.127056E-17
4.176587E+03	2.450993E-16	1.139874E-17
4.186508E+03	2.490694E-16	1.152258E-17
4.196429E+03	2.529894E-16	1.164223E-17
4.206349E+03	2.568523E-16	1.175740E-17
4.216270E+03	2.606613E-16	1.186830E-17
4.226190E+03	2.644152E-16	1.197491E-17
4.236111E+03	2.681184E-16	1.207750E-17
4.246032E+03	2.717655E-16	1.217586E-17
4.255952E+03	2.753668E-16	1.227051E-17
4.265873E+03	2.789127E-16	1.236106E-17
4.275794E+03	2.824090E-16	1.244784E-17
4.285714E+03	2.858620E-16	1.253116E-17
4.295635E+03	2.892678E-16	1.261089E-17
4.305556E+03	2.926330E-16	1.268738E-17
4.315476E+03	2.959539E-16	1.276051E-17
4.325397E+03	2.992322E-16	1.283040E-17
4.335317E+03	3.024741E-16	1.289737E-17
4.345238E+03	3.056809E-16	1.296150E-17
4.355159E+03	3.088438E-16	1.302248E-17
4.365079E+03	3.119731E-16	1.308079E-17
4.375000E+03	3.150641E-16	1.313626E-17
4.384921E+03	3.181165E-16	1.318895E-17
4.394841E+03	3.211294E-16	1.323886E-17
4.404762E+03	3.241013E-16	1.328597E-17
4.414683E+03	3.270250E-16	1.333005E-17
4.424603E+03	3.299072E-16	1.337142E-17
4.434524E+03	3.327438E-16	1.340997E-17
4.444444E+03	3.355400E-16	1.344596E-17
4.454365E+03	3.382949E-16	1.347941E-17
4.464286E+03	3.409978E-16	1.350995E-17
4.474206E+03	3.436606E-16	1.353811E-17
4.484127E+03	3.462713E-16	1.356348E-17
4.494048E+03	3.488360E-16	1.358635E-17
4.503968E+03	3.513415E-16	1.360627E-17
4.513889E+03	3.537884E-16	1.362334E-17
4.523810E+03	3.561772E-16	1.363763E-17
4.533730E+03	3.585031E-16	1.364904E-17
4.543651E+03	3.607615E-16	1.365747E-17
4.553571E+03	3.629477E-16	1.366280E-17
4.563492E+03	3.650616E-16	1.366511E-17
4.573413E+03	3.670985E-16	1.366431E-17
4.583333E+03	3.690539E-16	1.366031E-17
4.593254E+03	3.709283E-16	1.365320E-17
4.603175E+03	3.727173E-16	1.364292E-17
4.613095E+03	3.744217E-16	1.362958E-17
4.623016E+03	3.760427E-16	1.361329E-17
4.632937E+03	3.775722E-16	1.359386E-17
4.642857E+03	3.790117E-16	1.357142E-17
4.652778E+03	3.803633E-16	1.354614E-17
4.662698E+03	3.816296E-16	1.351819E-17
4.672619E+03	3.828039E-16	1.348742E-17
4.682540E+03	3.838944E-16	1.345419E-17
4.692460E+03	3.848953E-16	1.341839E-17
4.702381E+03	3.858156E-16	1.338041E-17
4.712302E+03	3.866506E-16	1.334016E-17
4.722222E+03	3.874052E-16	1.329788E-17
4.732143E+03	3.880801E-16	1.325368E-17
4.742063E+03	3.886761E-16	1.320765E-17
4.751984E+03	3.892034E-16	1.316021E-17
4.761905E+03	3.896538E-16	1.311115E-17
4.771825E+03	3.900377E-16	1.306088E-17
4.781746E+03	3.903562E-16	1.300950E-17
4.791667E+03	3.906105E-16	1.295710E-17
4.801587E+03	3.908020E-16	1.290379E-17
4.811508E+03	3.909320E-16	1.284967E-17
4.821429E+03	3.910071E-16	1.279500E-17
4.831349E+03	3.910288E-16	1.273988E-17
4.841270E+03	3.909993E-16	1.268443E-17
4.851190E+03	3.909255E-16	1.262892E-17
4.861111E+03	3.908017E-16	1.257320E-17
4.871032E+03	3.906410E-16	1.251774E-17
4.880952E+03	3.904478E-16	1.246269E-17
4.890873E+03	3.902274E-16	1.240823E-17
4.900794E+03	3.899898E-16	1.235465E-17
4.910714E+03	3.897321E-16	1.230184E-17
4.920635E+03	3.894694E-16	1.225023E-17
4.930556E+03	3.892077E-16	1.220001E-17
4.940476E+03	3.889492E-16	1.215119E-17
4.950397E+03	3.887089E-16	1.210422E-17
4.960317E+03	3.884843E-16	1.205898E-17
4.970238E+03	3.882903E-16	1.201588E-17
4.980159E+03	3.881287E-16	1.197496E-17
4.990079E+03	3.880056E-16	1.193635E-17
5.000000E+03	3.879314E-16	1.190032E-17
5.009921E+03	3.879077E-16	1.186690E-17
5.019841E+03	3.879448E-16	1.183633E-17
5.029762E+03	3.880485E-16	1.180876E-17
5.039683E+03	3.882201E-16	1.178418E-17
5.049603E+03	3.884693E-16	1.176284E-17
5.059524E+03	3.888008E-16	1.174483E-17
5.069444E+03	3.892194E-16	1.173025E-17
5.079365E+03	3.897288E-16	1.171916E-17
5.089286E+03	3.903323E-16	1.171162E-17
5.099206E+03	3.910322E-16	1.170765E-17
5.109127E+03	3.918299E-16	1.170725E-17
5.119048E+03	3.927257E-16	1.171038E-17
5.128968E+03	3.937190E-16	1.171698E-17
5.138889E+03	3.948080E-16	1.172695E-17
5.148810E+03	3.959894E-16	1.174017E-17
5.158730E+03	3.972594E-16	1.175646E-17
5.168651E+03	3.986124E-16	1.177564E-17
5.178571E+03	4.000419E-16	1.179747E-17
5.188492E+03	4.015404E-16	1.182171E-17
5.198413E+03	4.031032E-16	1.184817E-17
5.208333E+03	4.047122E-16	1.187629E-17
5.218254E+03	4.063606E-16	1.190585E-17
5.228175E+03	4.080366E-16	1.193647E-17
5.238095E+03	4.097276E-16	1.196777E-17
5.248016E+03	4.114155E-16	1.199919E-17
5.257937E+03	4.130949E-16	1.203054E-17
5.267857E+03	4.147422E-16	1.206113E-17
5.277778E+03	4.163464E-16	1.209063E-17
5.287698E+03	4.178876E-16	1.211842E-17
5.297619E+03	4.193545E-16	1.214419E-17
5.307540E+03	4.207310E-16	1.216744E-17
5.317460E+03	4.219977E-16	1.218761E-17
5.327381E+03	4.231438E-16	1.220438E-17
5.337302E+03	4.241506E-16	1.221721E-17
5.347222E+03	4.250048E-16	1.222571E-17
5.357143E+03	4.256988E-16	1.222966E-17
5.367063E+03	4.262172E-16	1.222861E-17
5.376984E+03	4.265464E-16	1.222219E-17
5.386905E+03	4.266876E-16	1.221042E-17
5.396825E+03	4.266305E-16	1.219302E-17
5.406746E+03	4.263671E-16	1.216977E-17
5.416667E+03	4.259047E-16	1.214088E-17
5.426587E+03	4.252358E-16	1.210613E-17
5.436508E+03	4.243636E-16	1.206565E-17
5.446429E+03	4.232986E-16	1.201972E-17
5.456349E+03	4.220493E-16	1.196861E-17
5.466270E+03	4.206226E-16	1.191251E-17
5.476190E+03	4.190323E-16	1.185183E-17
5.486111E+03	4.172989E-16	1.178715E-17
5.496032E+03	4.154329E-16	1.171878E-17
5.505952E+03	4.134678E-16	1.164766E-17
5.515873E+03	4.114187E-16	1.157424E-17
5.525794E+03	4.093149E-16	1.149934E-17
5.535714E+03	4.071791E-16	1.142358E-17
5.545635E+03	4.050473E-16	1.134799E-17
5.555556E+03	4.029403E-16	1.127315E-17
5.565476E+03	4.008912E-16	1.119996E-17
5.575397E+03	3.989325E-16	1.112934E-17
5.585317E+03	3.970847E-16	1.106183E-17
5.595238E+03	3.953825E-16	1.099840E-17
5.605159E+03	3.938434E-16	1.093950E-17
5.615079E+03	3.924984E-16	1.088600E-17
5.625000E+03	3.913611E-16	1.083822E-17
5.634921E+03	3.904573E-16	1.079687E-17
5.644841E+03	3.897953E-16	1.076215E-17
5.654762E+03	3.893916E-16	1.073448E-17
5.664683E+03	3.892564E-16	1.071412E-17
5.674603E+03	3.893967E-16	1.070122E-17
5.684524E+03	3.898125E-16	1.069577E-17
5.694444E+03	3.905090E-16	1.069786E-17
5.704365E+03	3.914804E-16	1.070731E-17
5.714286E+03	3.927251E-16	1.072405E-17
5.724206E+03	3.942271E-16	1.074760E-17
5.734127E+03	3.959816E-16	1.077781E-17
5.744048E+03	3.979689E-16	1.081412E-17
5.753968E+03	4.001690E-16	1.085596E-17
5.763889E+03	4.025578E-16	1.090265E-17
5.773810E+03	4.051033E-16	1.095333E-17
5.783730E+03	4.077773E-16	1.100721E-17
5.793651E+03	4.105401E-16	1.106323E-17
5.803571E+03	4.133528E-16	1.112032E-17
5.813492E+03	4.161781E-16	1.117751E-17
5.823413E+03	4.189647E-16	1.123342E-17
5.833333E+03	4.216730E-16	1.128701E-17
5.843254E+03	4.242591E-16	1.133714E-17
5.853175E+03	4.266767E-16	1.138262E-17
5.863095E+03	4.288863E-16	1.142241E-17
5.873016E+03	4.308556E-16	1.145572E-17
5.882937E+03	4.325447E-16	1.148154E-17
5.892857E+03	4.339360E-16	1.149945E-17
5.902778E+03	4.349970E-16	1.150865E-17
5.912698E+03	4.357271E-16	1.150920E-17
5.922619E+03	4.361079E-16	1.150068E-17
5.932540E+03	4.361492E-16	1.148340E-17
5.942460E+03	4.358552E-16	1.145755E-17
5.952381E+03	4.352415E-16	1.142358E-17
5.962302E+03	4.343256E-16	1.138203E-17
5.972222E+03	4.331395E-16	1.133379E-17
5.982143E+03	4.317157E-16	1.127975E-17
5.992063E+03	4.300868E-16	1.122082E-17
6.001984E+03	4.282883E-16	1.115797E-17
6.011905E+03	4.263702E-16	1.109252E-17
6.021825E+03	4.243666E-16	1.102540E-17
6.031746E+03	4.223236E-16	1.095783E-17
6.041667E+03	4.202775E-16	1.089078E-17
6.051587E+03	4.182662E-16	1.082523E-17
6.061508E+03	4.163238E-16	1.076209E-17
6.071429E+03	4.144763E-16	1.070204E-17
6.081349E+03	4.127486E-16	1.064572E-17
6.091270E+03	4.111602E-16	1.059365E-17
6.101190E+03	4.097249E-16	1.054618E-17
6.111111E+03	4.084471E-16	1.050343E-17
6.121032E+03	4.073372E-16	1.046565E-17
6.130952E+03	4.063923E-16	1.043273E-17
6.140873E+03	4.056040E-16	1.040442E-17
6.150794E+03	4.049505E-16	1.038011E-17
6.160714E+03	4.044199E-16	1.035948E-17
6.170635E+03	4.039831E-16	1.034175E-17
6.180556E+03	4.036104E-16	1.032613E-17
6.190476E+03	4.032725E-16	1.031185E-17
6.200397E+03	4.029300E-16	1.029787E-17
6.210317E+03	4.025535E-16	1.028343E-17
6.220238E+03	4.021021E-16	1.026744E-17
6.230159E+03	4.015433E-16	1.024907E-17
6.240079E+03	4.008473E-16	1.022754E-17
6.250000E+03	3.999833E-16	1.020204E-17
6.259921E+03	3.989252E-16	1.017188E-17
6.269841E+03	3.976518E-16	1.013651E-17
6.279762E+03	3.961561E-16	1.009574E-17
6.289683E+03	3.944214E-16	1.004912E-17
6.299603E+03	3.924531E-16	9.996758E-18
6.309524E+03	3.902550E-16	9.938747E-18
6.319444E+03	3.878327E-16	9.875209E-18
6.329365E+03	3.852122E-16	9.806790E-18
6.339286E+03	3.824046E-16	9.733749E-18
6.349206E+03	3.794353E-16	9.656721E-18
6.359127E+03	3.763322E-16	9.576397E-18
6.369048E+03	3.731203E-16	9.493395E-18
6.378968E+03	3.698248E-16	9.408344E-18
6.388889E+03	3.664743E-16	9.321951E-18
6.398810E+03	3.630957E-16	9.234892E-18
6.408730E+03	3.597145E-16	9.147795E-18
6.418651E+03	3.563496E-16	9.061132E-18
6.428571E+03	3.530215E-16	8.975409E-18
6.438492E+03	3.497515E-16	8.891159E-18
6.448413E+03	3.465472E-16	8.808560E-18
6.458333E+03	3.434244E-16	8.728008E-18
6.468254E+03	3.403782E-16	8.649362E-18
6.478175E+03	3.374122E-16	8.572712E-18
6.488095E+03	3.345318E-16	8.498181E-18
6.498016E+03	3.317257E-16	8.425476E-18
6.507937E+03	3.289991E-16	8.354722E-18
6.517857E+03	3.263449E-16	8.285735E-18
6.527778E+03	3.237549E-16	8.218299E-18
6.537698E+03	3.212307E-16	8.152448E-18
6.547619E+03	3.187624E-16	8.087927E-18
6.557540E+03	3.163436E-16	8.024569E-18
6.567460E+03	3.139674E-16	7.962196E-18
6.577381E+03	3.116273E-16	7.900642E-18
6.587302E+03	3.093204E-16	7.839830E-18
6.597222E+03	3.070377E-16	7.779527E-18
6.607143E+03	3.047743E-16	7.719612E-18
6.617063E+03	3.025295E-16	7.660067E-18
6.626984E+03	3.003004E-16	7.600814E-18
6.636905E+03	2.980818E-16	7.541724E-18
6.646825E+03	2.958794E-16	7.482942E-18
6.656746E+03	2.936871E-16	7.424304E-18
6.666667E+03	2.915095E-16	7.365925E-18
6.676587E+03	2.893493E-16	7.307860E-18
6.686508E+03	2.872099E-16	7.250194E-18
6.696429E+03	2.850963E-16	7.193044E-18
6.706349E+03	2.830174E-16	7.136631E-18
6.716270E+03	2.809765E-16	7.081036E-18
6.726190E+03	2.789845E-16	7.026524E-18
6.736111E+03	2.770466E-16	6.973222E-18
6.746032E+03	2.751714E-16	6.921344E-18
6.755952E+03	2.733747E-16	6.871282E-18
6.765873E+03	2.716597E-16	6.823110E-18
6.775794E+03	2.700360E-16	6.777063E-18
6.785714E+03	2.685193E-16	6.733529E-18
6.795635E+03	2.671124E-16	6.692573E-18
6.805556E+03	2.658273E-16	6.654485E-18
6.815476E+03	2.646717E-16	6.619451E-18
6.825397E+03	2.636530E-16	6.587646E-18
6.835317E+03	2.627777E-16	6.559227E-18
6.845238E+03	2.620515E-16	6.534320E-18
6.855159E+03	2.614758E-16	6.512953E-18
6.865079E+03	2.610601E-16	6.495348E-18
6.875000E+03	2.608002E-16	6.481388E-18
6.884921E+03	2.607030E-16	6.471233E-18
6.894841E+03	2.607618E-16	6.464701E-18
6.904762E+03	2.609811E-16	6.461888E-18
6.914683E+03	2.613513E-16	6.462546E-18
6.924603E+03	2.618713E-16	6.466629E-18
6.934524E+03	2.625356E-16	6.473988E-18
6.944444E+03	2.633377E-16	6.484453E-18
6.954365E+03	2.642672E-16	6.497749E-18
6.964286E+03	2.653228E-16	6.513830E-18
6.974206E+03	2.664901E-16	6.532334E-18
6.984127E+03	2.677608E-16	6.553046E-18
6.994048E+03	2.691338E-16	6.575925E-18
7.003968E+03	2.705917E-16	6.600538E-18
7.013889E+03	2.721371E-16	6.626944E-18
7.023810E+03	2.737538E-16	6.654734E-18
7.033730E+03	2.754421E-16	6.683916E-18
7.043651E+03	2.771964E-16	6.714343E-18
7.053571E+03	2.790043E-16	6.745714E-18
7.063492E+03	2.808670E-16	6.778056E-18
7.073413E+03	2.827753E-16	6.811144E-18
7.083333E+03	2.847230E-16	6.844830E-18
7.093254E+03	2.866996E-16	6.878864E-18
7.103175E+03	2.887046E-16	6.913234E-18
7.113095E+03	2.907218E-16	6.947564E-18
7.123016E+03	2.927484E-16	6.981788E-18
7.132937E+03	2.947619E-16	7.015383E-18
7.142857E+03	2.967598E-16	7.048303E-18
7.152778E+03	2.987203E-16	7.080044E-18
7.162698E+03	3.006265E-16	7.110227E-18
7.172619E+03	3.024641E-16	7.138535E-18
7.182540E+03	3.042098E-16	7.164444E-18
7.192460E+03	3.058425E-16	7.187489E-18
7.202381E+03	3.073439E-16	7.207278E-18
7.212302E+03	3.086841E-16	7.223144E-18
7.222222E+03	3.098481E-16	7.234783E-18
7.232143E+03	3.108101E-16	7.241637E-18
7.242063E+03	3.115452E-16	7.243183E-18
7.251984E+03	3.120424E-16	7.239217E-18
7.261905E+03	3.122776E-16	7.229237E-18
7.271825E+03	3.122415E-16	7.213090E-18
7.281746E+03	3.119251E-16	7.190631E-18
7.291667E+03	3.113234E-16	7.161805E-18
7.301587E+03	3.104360E-16	7.126668E-18
7.311508E+03	3.092629E-16	7.085283E-18
7.321429E+03	3.078169E-16	7.037997E-18
7.331349E+03	3.061107E-16	6.985163E-18
7.341270E+03	3.041606E-16	6.927206E-18
7.351190E+03	3.019861E-16	6.864618E-18
7.361111E+03	2.996055E-16	6.797860E-18
7.371032E+03	2.970500E-16	6.727682E-18
7.380952E+03	2.943444E-16	6.654680E-18
7.390873E+03	2.915101E-16	6.579369E-18
7.400794E+03	2.885756E-16	6.502418E-18
7.410714E+03	2.855580E-16	6.424233E-18
7.420635E+03	2.824841E-16	6.345435E-18
7.430556E+03	2.793756E-16	6.266522E-18
7.440476E+03	2.762487E-16	6.187872E-18
7.450397E+03	2.731249E-16	6.109971E-18
7.460317E+03	2.700165E-16	6.033096E-18
7.470238E+03	2.669405E-16	5.957630E-18
7.480159E+03	2.639045E-16	5.883746E-18
7.490079E+03	2.609178E-16	5.811643E-18
7.500000E+03	2.579871E-16	5.741473E-18
7.509921E+03	2.551171E-16	5.673333E-18
7.519841E+03	2.523139E-16	5.607357E-18
7.529762E+03	2.495719E-16	5.543383E-18
7.539683E+03	2.468973E-16	5.481507E-18
7.549603E+03	2.442853E-16	5.421578E-18
7.559524E+03	2.417335E-16	5.363504E-18
7.569444E+03	2.392396E-16	5.307192E-18
7.579365E+03	2.368042E-16	5.252620E-18
7.589286E+03	2.344215E-16	5.199617E-18
7.599206E+03	2.320978E-16	5.148288E-18
7.609127E+03	2.298396E-16	5.098747E-18
7.619048E+03	2.276477E-16	5.050974E-18
7.628968E+03	2.255221E-16	5.004941E-18
7.638889E+03	2.234712E-16	4.960804E-18
7.648810E+03	2.214967E-16	4.918571E-18
7.658730E+03	2.195935E-16	4.878101E-18
7.668651E+03	2.177679E-16	4.839510E-18
7.678571E+03	2.160136E-16	4.802635E-18
7.688492E+03	2.143358E-16	4.767563E-18
7.698413E+03	2.127330E-16	4.734244E-18
