#wls	flux	fluxerr
1.587302E+03	7.455398E-18	1.631246E-18
1.626984E+03	7.624499E-18	1.661872E-18
1.666667E+03	7.798938E-18	1.693214E-18
1.706349E+03	7.976059E-18	1.724672E-18
1.746032E+03	8.158393E-18	1.756770E-18
1.785714E+03	8.342778E-18	1.788799E-18
1.825397E+03	8.526353E-18	1.820129E-18
1.865079E+03	8.706765E-18	1.850246E-18
1.904762E+03	8.878061E-18	1.877884E-18
1.944444E+03	9.039169E-18	1.902830E-18
1.984127E+03	9.186109E-18	1.924265E-18
2.023810E+03	9.328958E-18	1.944320E-18
2.063492E+03	9.486970E-18	1.966985E-18
2.103175E+03	9.697565E-18	1.999913E-18
2.142857E+03	1.000217E-17	2.051405E-18
2.182540E+03	1.042935E-17	2.126941E-18
2.222222E+03	1.098235E-17	2.226717E-18
2.261905E+03	1.164696E-17	2.347373E-18
2.301587E+03	1.239539E-17	2.482881E-18
2.341270E+03	1.321199E-17	2.629747E-18
2.380952E+03	1.408438E-17	2.785196E-18
2.420635E+03	1.501419E-17	2.949251E-18
2.460317E+03	1.600220E-17	3.121755E-18
2.500000E+03	1.705675E-17	3.303997E-18
2.539683E+03	1.818839E-17	3.497633E-18
2.579365E+03	1.940373E-17	3.703499E-18
2.619048E+03	2.071798E-17	3.923998E-18
2.658730E+03	2.214195E-17	4.160602E-18
2.698413E+03	2.368994E-17	4.415354E-18
2.738095E+03	2.537409E-17	4.689779E-18
2.777778E+03	2.721373E-17	4.986624E-18
2.817460E+03	2.921567E-17	5.306209E-18
2.857143E+03	3.140826E-17	5.652657E-18
2.896825E+03	3.380340E-17	6.026933E-18
2.936508E+03	3.642073E-17	6.431254E-18
2.976190E+03	3.928515E-17	6.868582E-18
2.986111E+03	4.004409E-17	6.983625E-18
2.996032E+03	4.081544E-17	7.100076E-18
3.005952E+03	4.160830E-17	7.219494E-18
3.015873E+03	4.241407E-17	7.340356E-18
3.025794E+03	4.324241E-17	7.464311E-18
3.035714E+03	4.408967E-17	7.590689E-18
3.045635E+03	4.495583E-17	7.719461E-18
3.055556E+03	4.584231E-17	7.850837E-18
3.065476E+03	4.674915E-17	7.984791E-18
3.075397E+03	4.768131E-17	8.122137E-18
3.085317E+03	4.862913E-17	8.261190E-18
3.095238E+03	4.960254E-17	8.403606E-18
3.105159E+03	5.060178E-17	8.549385E-18
3.115079E+03	5.161683E-17	8.696796E-18
3.125000E+03	5.265797E-17	8.847542E-18
3.134921E+03	5.372022E-17	9.000739E-18
3.144841E+03	5.480362E-17	9.156362E-18
3.154762E+03	5.591364E-17	9.315287E-18
3.164683E+03	5.704509E-17	9.476603E-18
3.174603E+03	5.819800E-17	9.640282E-18
3.184524E+03	5.937803E-17	9.807219E-18
3.194444E+03	6.057974E-17	9.976473E-18
3.204365E+03	6.180890E-17	1.014895E-17
3.214286E+03	6.305994E-17	1.032370E-17
3.224206E+03	6.433873E-17	1.050163E-17
3.234127E+03	6.563954E-17	1.068177E-17
3.244048E+03	6.696834E-17	1.086505E-17
3.253968E+03	6.832533E-17	1.105144E-17
3.263889E+03	6.970452E-17	1.123993E-17
3.273810E+03	7.110583E-17	1.143047E-17
3.283730E+03	7.254175E-17	1.162503E-17
3.293651E+03	7.399356E-17	1.182054E-17
3.303571E+03	7.548016E-17	1.201998E-17
3.313492E+03	7.698886E-17	1.222129E-17
3.323413E+03	7.853260E-17	1.242647E-17
3.333333E+03	8.009173E-17	1.263235E-17
3.343254E+03	8.168590E-17	1.284200E-17
3.353175E+03	8.330854E-17	1.305432E-17
3.363095E+03	8.495273E-17	1.326818E-17
3.373016E+03	8.662509E-17	1.348456E-17
3.382937E+03	8.832547E-17	1.370340E-17
3.392857E+03	9.005372E-17	1.392461E-17
3.402778E+03	9.180967E-17	1.414812E-17
3.412698E+03	9.359311E-17	1.437384E-17
3.422619E+03	9.540368E-17	1.460167E-17
3.432540E+03	9.724121E-17	1.483152E-17
3.442460E+03	9.910520E-17	1.506328E-17
3.452381E+03	1.010029E-16	1.529797E-17
3.462302E+03	1.029190E-16	1.553324E-17
3.472222E+03	1.048604E-16	1.577008E-17
3.482143E+03	1.068342E-16	1.600952E-17
3.492063E+03	1.088325E-16	1.625027E-17
3.501984E+03	1.108545E-16	1.649223E-17
3.511905E+03	1.128997E-16	1.673523E-17
3.521825E+03	1.149674E-16	1.697913E-17
3.531746E+03	1.170647E-16	1.722495E-17
3.541667E+03	1.191832E-16	1.747138E-17
3.551587E+03	1.213302E-16	1.771943E-17
3.561508E+03	1.234966E-16	1.796775E-17
3.571429E+03	1.256817E-16	1.821618E-17
3.581349E+03	1.278927E-16	1.846572E-17
3.591270E+03	1.301205E-16	1.871501E-17
3.601190E+03	1.323640E-16	1.896387E-17
3.611111E+03	1.346306E-16	1.921330E-17
3.621032E+03	1.369193E-16	1.946313E-17
3.630952E+03	1.392204E-16	1.971192E-17
3.640873E+03	1.415414E-16	1.996071E-17
3.650794E+03	1.438724E-16	2.020809E-17
3.660714E+03	1.462123E-16	2.045384E-17
3.670635E+03	1.485770E-16	2.070018E-17
3.680556E+03	1.509478E-16	2.094446E-17
3.690476E+03	1.533322E-16	2.118769E-17
3.700397E+03	1.557200E-16	2.142845E-17
3.710317E+03	1.581186E-16	2.166773E-17
3.720238E+03	1.605264E-16	2.190530E-17
3.730159E+03	1.629331E-16	2.213973E-17
3.740079E+03	1.653462E-16	2.237203E-17
3.750000E+03	1.677641E-16	2.260198E-17
3.759921E+03	1.701762E-16	2.282812E-17
3.769841E+03	1.725990E-16	2.305269E-17
3.779762E+03	1.750128E-16	2.327303E-17
3.789683E+03	1.774161E-16	2.348896E-17
3.799603E+03	1.798252E-16	2.370263E-17
3.809524E+03	1.822205E-16	2.391147E-17
3.819444E+03	1.846093E-16	2.411646E-17
3.829365E+03	1.869902E-16	2.431741E-17
3.839286E+03	1.893521E-16	2.451292E-17
3.849206E+03	1.917028E-16	2.470400E-17
3.859127E+03	1.940406E-16	2.489047E-17
3.869048E+03	1.963639E-16	2.507215E-17
3.878968E+03	1.986620E-16	2.524769E-17
3.888889E+03	2.009424E-16	2.541810E-17
3.898810E+03	2.032038E-16	2.558325E-17
3.908730E+03	2.054352E-16	2.574180E-17
3.918651E+03	2.076447E-16	2.589480E-17
3.928571E+03	2.098307E-16	2.604212E-17
3.938492E+03	2.119827E-16	2.618249E-17
3.948413E+03	2.140994E-16	2.631583E-17
3.958333E+03	2.161888E-16	2.644318E-17
3.968254E+03	2.182497E-16	2.656445E-17
3.978175E+03	2.202719E-16	2.667847E-17
3.988095E+03	2.222545E-16	2.678520E-17
3.998016E+03	2.242058E-16	2.688572E-17
4.007937E+03	2.261159E-16	2.697892E-17
4.017857E+03	2.279845E-16	2.706483E-17
4.027778E+03	2.298203E-16	2.714458E-17
4.037698E+03	2.316049E-16	2.721609E-17
4.047619E+03	2.333569E-16	2.728161E-17
4.057540E+03	2.350673E-16	2.734019E-17
4.067460E+03	2.367282E-16	2.739099E-17
4.077381E+03	2.383582E-16	2.743625E-17
4.087302E+03	2.399409E-16	2.747418E-17
4.097222E+03	2.414865E-16	2.750604E-17
4.107143E+03	2.429966E-16	2.753209E-17
4.117063E+03	2.444648E-16	2.755169E-17
4.126984E+03	2.459018E-16	2.756613E-17
4.136905E+03	2.473014E-16	2.757481E-17
4.146825E+03	2.486753E-16	2.757910E-17
4.156746E+03	2.500178E-16	2.757843E-17
4.166667E+03	2.513324E-16	2.757328E-17
4.176587E+03	2.526141E-16	2.756316E-17
4.186508E+03	2.538836E-16	2.755042E-17
4.196429E+03	2.551363E-16	2.753458E-17
4.206349E+03	2.563680E-16	2.751526E-17
4.216270E+03	2.575992E-16	2.749472E-17
4.226190E+03	2.588096E-16	2.747081E-17
4.236111E+03	2.600198E-16	2.744579E-17
4.246032E+03	2.612341E-16	2.742012E-17
4.255952E+03	2.624405E-16	2.739258E-17
4.265873E+03	2.636595E-16	2.736533E-17
4.275794E+03	2.648790E-16	2.733715E-17
4.285714E+03	2.661194E-16	2.731014E-17
4.295635E+03	2.673683E-16	2.728305E-17
4.305556E+03	2.686379E-16	2.725712E-17
4.315476E+03	2.699236E-16	2.723190E-17
4.325397E+03	2.712370E-16	2.720856E-17
4.335317E+03	2.725733E-16	2.718660E-17
4.345238E+03	2.739435E-16	2.716711E-17
4.355159E+03	2.753351E-16	2.714884E-17
4.365079E+03	2.767584E-16	2.713282E-17
4.375000E+03	2.782160E-16	2.711927E-17
4.384921E+03	2.797103E-16	2.710843E-17
4.394841E+03	2.812354E-16	2.709969E-17
4.404762E+03	2.828006E-16	2.709397E-17
4.414683E+03	2.844076E-16	2.709137E-17
4.424603E+03	2.860417E-16	2.709052E-17
4.434524E+03	2.877189E-16	2.709291E-17
4.444444E+03	2.894314E-16	2.709781E-17
4.454365E+03	2.911789E-16	2.710517E-17
4.464286E+03	2.929526E-16	2.711420E-17
4.474206E+03	2.947660E-16	2.712614E-17
4.484127E+03	2.966018E-16	2.713941E-17
4.494048E+03	2.984645E-16	2.715445E-17
4.503968E+03	3.003433E-16	2.717031E-17
4.513889E+03	3.022417E-16	2.718734E-17
4.523810E+03	3.041477E-16	2.720450E-17
4.533730E+03	3.060638E-16	2.722208E-17
4.543651E+03	3.079773E-16	2.723901E-17
4.553571E+03	3.098751E-16	2.725422E-17
4.563492E+03	3.117668E-16	2.726864E-17
4.573413E+03	3.136392E-16	2.728120E-17
4.583333E+03	3.154867E-16	2.729153E-17
4.593254E+03	3.173041E-16	2.729930E-17
4.603175E+03	3.190864E-16	2.730419E-17
4.613095E+03	3.208291E-16	2.730596E-17
4.623016E+03	3.225203E-16	2.730372E-17
4.632937E+03	3.241636E-16	2.729795E-17
4.642857E+03	3.257554E-16	2.728847E-17
4.652778E+03	3.272849E-16	2.727452E-17
4.662698E+03	3.287562E-16	2.725663E-17
4.672619E+03	3.301662E-16	2.723468E-17
4.682540E+03	3.315115E-16	2.720855E-17
4.692460E+03	3.327812E-16	2.717752E-17
4.702381E+03	3.339719E-16	2.714147E-17
4.712302E+03	3.350946E-16	2.710147E-17
4.722222E+03	3.361231E-16	2.705555E-17
4.732143E+03	3.370754E-16	2.700534E-17
4.742063E+03	3.379324E-16	2.694949E-17
4.751984E+03	3.386897E-16	2.688781E-17
4.761905E+03	3.393503E-16	2.682071E-17
4.771825E+03	3.399101E-16	2.674803E-17
4.781746E+03	3.403575E-16	2.666904E-17
4.791667E+03	3.406962E-16	2.658419E-17
4.801587E+03	3.409231E-16	2.649339E-17
4.811508E+03	3.410281E-16	2.639602E-17
4.821429E+03	3.410169E-16	2.629268E-17
4.831349E+03	3.408884E-16	2.618334E-17
4.841270E+03	3.406354E-16	2.606751E-17
4.851190E+03	3.402733E-16	2.594638E-17
4.861111E+03	3.397899E-16	2.581903E-17
4.871032E+03	3.391881E-16	2.568570E-17
4.880952E+03	3.384860E-16	2.554776E-17
4.890873E+03	3.376810E-16	2.540500E-17
4.900794E+03	3.367713E-16	2.525726E-17
4.910714E+03	3.357693E-16	2.510547E-17
4.920635E+03	3.346878E-16	2.495052E-17
4.930556E+03	3.335186E-16	2.479178E-17
4.940476E+03	3.322812E-16	2.463064E-17
4.950397E+03	3.309680E-16	2.446649E-17
4.960317E+03	3.295980E-16	2.430068E-17
4.970238E+03	3.281700E-16	2.413305E-17
4.980159E+03	3.266901E-16	2.396397E-17
4.990079E+03	3.251639E-16	2.379380E-17
5.000000E+03	3.235976E-16	2.362291E-17
5.009921E+03	3.220038E-16	2.345213E-17
5.019841E+03	3.203822E-16	2.328137E-17
5.029762E+03	3.187456E-16	2.311148E-17
5.039683E+03	3.170878E-16	2.294191E-17
5.049603E+03	3.154338E-16	2.277439E-17
5.059524E+03	3.137710E-16	2.260792E-17
5.069444E+03	3.121177E-16	2.244374E-17
5.079365E+03	3.104791E-16	2.228212E-17
5.089286E+03	3.088538E-16	2.212287E-17
5.099206E+03	3.072462E-16	2.196623E-17
5.109127E+03	3.056654E-16	2.181275E-17
5.119048E+03	3.041140E-16	2.166253E-17
5.128968E+03	3.025878E-16	2.151520E-17
5.138889E+03	3.010880E-16	2.137074E-17
5.148810E+03	2.996267E-16	2.122994E-17
5.158730E+03	2.981861E-16	2.109145E-17
5.168651E+03	2.967829E-16	2.095639E-17
5.178571E+03	2.954043E-16	2.082377E-17
5.188492E+03	2.940539E-16	2.069377E-17
5.198413E+03	2.927237E-16	2.056577E-17
5.208333E+03	2.914166E-16	2.043990E-17
5.218254E+03	2.901293E-16	2.031586E-17
5.228175E+03	2.888525E-16	2.019295E-17
5.238095E+03	2.875934E-16	2.007161E-17
5.248016E+03	2.863314E-16	1.995035E-17
5.257937E+03	2.850787E-16	1.982998E-17
5.267857E+03	2.838198E-16	1.970936E-17
5.277778E+03	2.825558E-16	1.958853E-17
5.287698E+03	2.812768E-16	1.946678E-17
5.297619E+03	2.799891E-16	1.934448E-17
5.307540E+03	2.786776E-16	1.922056E-17
5.317460E+03	2.773377E-16	1.909470E-17
5.327381E+03	2.759759E-16	1.896729E-17
5.337302E+03	2.745773E-16	1.883729E-17
5.347222E+03	2.731428E-16	1.870475E-17
5.357143E+03	2.716681E-16	1.856935E-17
5.367063E+03	2.701438E-16	1.843046E-17
5.376984E+03	2.685761E-16	1.828847E-17
5.386905E+03	2.669507E-16	1.814241E-17
5.396825E+03	2.652688E-16	1.799236E-17
5.406746E+03	2.635218E-16	1.783774E-17
5.416667E+03	2.617165E-16	1.767903E-17
5.426587E+03	2.598402E-16	1.751538E-17
5.436508E+03	2.578954E-16	1.734697E-17
5.446429E+03	2.558804E-16	1.717369E-17
5.456349E+03	2.537989E-16	1.699584E-17
5.466270E+03	2.516361E-16	1.681244E-17
5.476190E+03	2.494068E-16	1.662451E-17
5.486111E+03	2.471078E-16	1.643186E-17
5.496032E+03	2.447416E-16	1.623471E-17
5.505952E+03	2.423124E-16	1.603335E-17
5.515873E+03	2.398257E-16	1.582820E-17
5.525794E+03	2.372882E-16	1.561973E-17
5.535714E+03	2.347089E-16	1.540855E-17
5.545635E+03	2.321017E-16	1.519564E-17
5.555556E+03	2.294695E-16	1.498118E-17
5.565476E+03	2.268333E-16	1.476659E-17
5.575397E+03	2.242021E-16	1.455247E-17
5.585317E+03	2.215942E-16	1.434000E-17
5.595238E+03	2.190153E-16	1.412957E-17
5.605159E+03	2.164880E-16	1.392264E-17
5.615079E+03	2.140262E-16	1.372007E-17
5.625000E+03	2.116393E-16	1.352246E-17
5.634921E+03	2.093403E-16	1.333059E-17
5.644841E+03	2.071450E-16	1.314545E-17
5.654762E+03	2.050606E-16	1.296743E-17
5.664683E+03	2.031008E-16	1.279735E-17
5.674603E+03	2.012743E-16	1.263568E-17
5.684524E+03	1.995845E-16	1.248256E-17
5.694444E+03	1.980412E-16	1.233852E-17
5.704365E+03	1.966446E-16	1.220350E-17
5.714286E+03	1.954053E-16	1.207803E-17
5.724206E+03	1.943167E-16	1.196163E-17
5.734127E+03	1.933818E-16	1.185437E-17
5.744048E+03	1.925950E-16	1.175579E-17
5.753968E+03	1.919595E-16	1.166599E-17
5.763889E+03	1.914666E-16	1.158433E-17
5.773810E+03	1.911057E-16	1.151007E-17
5.783730E+03	1.908762E-16	1.144305E-17
5.793651E+03	1.907613E-16	1.138218E-17
5.803571E+03	1.907543E-16	1.132695E-17
5.813492E+03	1.908475E-16	1.127684E-17
5.823413E+03	1.910216E-16	1.123061E-17
5.833333E+03	1.912719E-16	1.118792E-17
5.843254E+03	1.915823E-16	1.114777E-17
5.853175E+03	1.919370E-16	1.110919E-17
5.863095E+03	1.923323E-16	1.107192E-17
5.873016E+03	1.927538E-16	1.103510E-17
5.882937E+03	1.931924E-16	1.099819E-17
5.892857E+03	1.936401E-16	1.096073E-17
5.902778E+03	1.940944E-16	1.092256E-17
5.912698E+03	1.945432E-16	1.088302E-17
5.922619E+03	1.949915E-16	1.084237E-17
5.932540E+03	1.954345E-16	1.080037E-17
5.942460E+03	1.958731E-16	1.075707E-17
5.952381E+03	1.963139E-16	1.071284E-17
5.962302E+03	1.967536E-16	1.066752E-17
5.972222E+03	1.972058E-16	1.062183E-17
5.982143E+03	1.976734E-16	1.057595E-17
5.992063E+03	1.981688E-16	1.053049E-17
6.001984E+03	1.986927E-16	1.048551E-17
6.011905E+03	1.992620E-16	1.044184E-17
6.021825E+03	1.998820E-16	1.039974E-17
6.031746E+03	2.005615E-16	1.035960E-17
6.041667E+03	2.013127E-16	1.032200E-17
6.051587E+03	2.021350E-16	1.028685E-17
6.061508E+03	2.030423E-16	1.025476E-17
6.071429E+03	2.040356E-16	1.022572E-17
6.081349E+03	2.051221E-16	1.019998E-17
6.091270E+03	2.062997E-16	1.017735E-17
6.101190E+03	2.075683E-16	1.015774E-17
6.111111E+03	2.089262E-16	1.014096E-17
6.121032E+03	2.103695E-16	1.012674E-17
6.130952E+03	2.118963E-16	1.011491E-17
6.140873E+03	2.134944E-16	1.010475E-17
6.150794E+03	2.151574E-16	1.009588E-17
6.160714E+03	2.168644E-16	1.008722E-17
6.170635E+03	2.186093E-16	1.007843E-17
6.180556E+03	2.203751E-16	1.006868E-17
6.190476E+03	2.221327E-16	1.005659E-17
6.200397E+03	2.238678E-16	1.004155E-17
6.210317E+03	2.255506E-16	1.002223E-17
6.220238E+03	2.271583E-16	9.997702E-18
6.230159E+03	2.286580E-16	9.966628E-18
6.240079E+03	2.300214E-16	9.927920E-18
6.250000E+03	2.312255E-16	9.880782E-18
6.259921E+03	2.322403E-16	9.824153E-18
6.269841E+03	2.330476E-16	9.757540E-18
6.279762E+03	2.336240E-16	9.680257E-18
6.289683E+03	2.339595E-16	9.592221E-18
6.299603E+03	2.340397E-16	9.493194E-18
6.309524E+03	2.338597E-16	9.383346E-18
6.319444E+03	2.334246E-16	9.263261E-18
6.329365E+03	2.327389E-16	9.133503E-18
6.339286E+03	2.318070E-16	8.994621E-18
6.349206E+03	2.306459E-16	8.847653E-18
6.359127E+03	2.292663E-16	8.693359E-18
6.369048E+03	2.276946E-16	8.533089E-18
6.378968E+03	2.259350E-16	8.367319E-18
6.388889E+03	2.240200E-16	8.197558E-18
6.398810E+03	2.219584E-16	8.024410E-18
6.408730E+03	2.197724E-16	7.848931E-18
6.418651E+03	2.174781E-16	7.671938E-18
6.428571E+03	2.150905E-16	7.494184E-18
6.438492E+03	2.126237E-16	7.316353E-18
6.448413E+03	2.100857E-16	7.138912E-18
6.458333E+03	2.074969E-16	6.962727E-18
6.468254E+03	2.048589E-16	6.788003E-18
6.478175E+03	2.021853E-16	6.615340E-18
6.488095E+03	1.994882E-16	6.445271E-18
6.498016E+03	1.967706E-16	6.278009E-18
6.507937E+03	1.940346E-16	6.113739E-18
6.517857E+03	1.912937E-16	5.952994E-18
6.527778E+03	1.885484E-16	5.795892E-18
6.537698E+03	1.858031E-16	5.642655E-18
6.547619E+03	1.830652E-16	5.493600E-18
6.557540E+03	1.803344E-16	5.348791E-18
6.567460E+03	1.776140E-16	5.208404E-18
6.577381E+03	1.749111E-16	5.072707E-18
6.587302E+03	1.722250E-16	4.941738E-18
6.597222E+03	1.695589E-16	4.815639E-18
6.607143E+03	1.669197E-16	4.694645E-18
6.617063E+03	1.643069E-16	4.578771E-18
6.626984E+03	1.617273E-16	4.468229E-18
6.636905E+03	1.591840E-16	4.363113E-18
6.646825E+03	1.566770E-16	4.263414E-18
6.656746E+03	1.542127E-16	4.169301E-18
6.666667E+03	1.517910E-16	4.080741E-18
6.676587E+03	1.494184E-16	3.997868E-18
6.686508E+03	1.470977E-16	3.920712E-18
6.696429E+03	1.448287E-16	3.849201E-18
6.706349E+03	1.426204E-16	3.783501E-18
6.716270E+03	1.404693E-16	3.723429E-18
6.726190E+03	1.383816E-16	3.668965E-18
6.736111E+03	1.363604E-16	3.619935E-18
6.746032E+03	1.344068E-16	3.576104E-18
6.755952E+03	1.325311E-16	3.537501E-18
6.765873E+03	1.307325E-16	3.503861E-18
6.775794E+03	1.290199E-16	3.475188E-18
6.785714E+03	1.273992E-16	3.451432E-18
6.795635E+03	1.258801E-16	3.432655E-18
6.805556E+03	1.244639E-16	3.418713E-18
6.815476E+03	1.231603E-16	3.409716E-18
6.825397E+03	1.219757E-16	3.405707E-18
6.835317E+03	1.209158E-16	3.406730E-18
6.845238E+03	1.199857E-16	3.412843E-18
6.855159E+03	1.191876E-16	3.424037E-18
6.865079E+03	1.185311E-16	3.440544E-18
6.875000E+03	1.180170E-16	3.462371E-18
6.884921E+03	1.176483E-16	3.489596E-18
6.894841E+03	1.174267E-16	3.522295E-18
6.904762E+03	1.173508E-16	3.560451E-18
6.914683E+03	1.174263E-16	3.604287E-18
6.924603E+03	1.176504E-16	3.653786E-18
6.934524E+03	1.180203E-16	3.708928E-18
6.944444E+03	1.185381E-16	3.769864E-18
6.954365E+03	1.192058E-16	3.836756E-18
6.964286E+03	1.200178E-16	3.909521E-18
6.974206E+03	1.209762E-16	3.988343E-18
6.984127E+03	1.220806E-16	4.073320E-18
6.994048E+03	1.233279E-16	4.164475E-18
7.003968E+03	1.247235E-16	4.262111E-18
7.013889E+03	1.262615E-16	4.366164E-18
7.023810E+03	1.279441E-16	4.476845E-18
7.033730E+03	1.297707E-16	4.594272E-18
7.043651E+03	1.317374E-16	4.718447E-18
7.053571E+03	1.338454E-16	4.849559E-18
7.063492E+03	1.360928E-16	4.987676E-18
7.073413E+03	1.384732E-16	5.132716E-18
7.083333E+03	1.409859E-16	5.284788E-18
7.093254E+03	1.436226E-16	5.443718E-18
7.103175E+03	1.463801E-16	5.609515E-18
7.113095E+03	1.492507E-16	5.782014E-18
7.123016E+03	1.522181E-16	5.960697E-18
7.132937E+03	1.552779E-16	6.145498E-18
7.142857E+03	1.584172E-16	6.335997E-18
7.152778E+03	1.616172E-16	6.531524E-18
7.162698E+03	1.648608E-16	6.731441E-18
7.172619E+03	1.681283E-16	6.934985E-18
7.182540E+03	1.714019E-16	7.141439E-18
7.192460E+03	1.746500E-16	7.349474E-18
7.202381E+03	1.778548E-16	7.558303E-18
7.212302E+03	1.809850E-16	7.766532E-18
7.222222E+03	1.840121E-16	7.972839E-18
7.232143E+03	1.869070E-16	8.175829E-18
7.242063E+03	1.896407E-16	8.374071E-18
7.251984E+03	1.921807E-16	8.565934E-18
7.261905E+03	1.945094E-16	8.750397E-18
7.271825E+03	1.965986E-16	8.925944E-18
7.281746E+03	1.984231E-16	9.091145E-18
7.291667E+03	1.999708E-16	9.245141E-18
7.301587E+03	2.012296E-16	9.387045E-18
7.311508E+03	2.021875E-16	9.515975E-18
7.321429E+03	2.028516E-16	9.631916E-18
7.331349E+03	2.032151E-16	9.734214E-18
7.341270E+03	2.032853E-16	9.822882E-18
7.351190E+03	2.030785E-16	9.898379E-18
7.361111E+03	2.026102E-16	9.961151E-18
7.371032E+03	2.018943E-16	1.001160E-17
7.380952E+03	2.009568E-16	1.005074E-17
7.390873E+03	1.998159E-16	1.007924E-17
7.400794E+03	1.984957E-16	1.009811E-17
7.410714E+03	1.970257E-16	1.010865E-17
7.420635E+03	1.954304E-16	1.011197E-17
7.430556E+03	1.937248E-16	1.010872E-17
7.440476E+03	1.919409E-16	1.010046E-17
7.450397E+03	1.901004E-16	1.008827E-17
7.460317E+03	1.882140E-16	1.007266E-17
7.470238E+03	1.863088E-16	1.005506E-17
7.480159E+03	1.843959E-16	1.003607E-17
7.490079E+03	1.824937E-16	1.001671E-17
7.500000E+03	1.806088E-16	9.997366E-18
7.509921E+03	1.787464E-16	9.978373E-18
7.519841E+03	1.769218E-16	9.960640E-18
7.529762E+03	1.751401E-16	9.944521E-18
7.539683E+03	1.733958E-16	9.929770E-18
7.549603E+03	1.716947E-16	9.916798E-18
7.559524E+03	1.700412E-16	9.905903E-18
7.569444E+03	1.684308E-16	9.896845E-18
7.579365E+03	1.668630E-16	9.889612E-18
7.589286E+03	1.653382E-16	9.884242E-18
7.599206E+03	1.638586E-16	9.880889E-18
7.609127E+03	1.624267E-16	9.879726E-18
7.619048E+03	1.610446E-16	9.880908E-18
7.628968E+03	1.597139E-16	9.884579E-18
7.638889E+03	1.584353E-16	9.890827E-18
7.648810E+03	1.572093E-16	9.899715E-18
7.658730E+03	1.560350E-16	9.911243E-18
7.668651E+03	1.549113E-16	9.925381E-18
7.678571E+03	1.538362E-16	9.942056E-18
7.688492E+03	1.528111E-16	9.961399E-18
7.698413E+03	1.518259E-16	9.982806E-18
