#wls	flux	fluxerr
1.587302E+03	7.052259E-18	1.874773E-18
1.626984E+03	7.279989E-18	1.925506E-18
1.666667E+03	7.515297E-18	1.977411E-18
1.706349E+03	7.756998E-18	2.030120E-18
1.746032E+03	8.006238E-18	2.083884E-18
1.785714E+03	8.259918E-18	2.137840E-18
1.825397E+03	8.516515E-18	2.191552E-18
1.865079E+03	8.773582E-18	2.244353E-18
1.904762E+03	9.023422E-18	2.294257E-18
1.944444E+03	9.264501E-18	2.340883E-18
1.984127E+03	9.493855E-18	2.383501E-18
2.023810E+03	9.718287E-18	2.423839E-18
2.063492E+03	9.960874E-18	2.467610E-18
2.103175E+03	1.025980E-17	2.524091E-18
2.142857E+03	1.066021E-17	2.603984E-18
2.182540E+03	1.119462E-17	2.714595E-18
2.222222E+03	1.186886E-17	2.856557E-18
2.261905E+03	1.266575E-17	3.024924E-18
2.301587E+03	1.356210E-17	3.213436E-18
2.341270E+03	1.453748E-17	3.416627E-18
2.380952E+03	1.557820E-17	3.630739E-18
2.420635E+03	1.668571E-17	3.855606E-18
2.460317E+03	1.786295E-17	4.091371E-18
2.500000E+03	1.911071E-17	4.337649E-18
2.539683E+03	2.044510E-17	4.597480E-18
2.579365E+03	2.187269E-17	4.871619E-18
2.619048E+03	2.340328E-17	5.161458E-18
2.658730E+03	2.505046E-17	5.469103E-18
2.698413E+03	2.682515E-17	5.795936E-18
2.738095E+03	2.874237E-17	6.144083E-18
2.777778E+03	3.080596E-17	6.513140E-18
2.817460E+03	3.303959E-17	6.906769E-18
2.857143E+03	3.545160E-17	7.325205E-18
2.896825E+03	3.805896E-17	7.770314E-18
2.936508E+03	4.086942E-17	8.241893E-18
2.976190E+03	4.390519E-17	8.742491E-18
2.986111E+03	4.470134E-17	8.872328E-18
2.996032E+03	4.550954E-17	9.003409E-18
3.005952E+03	4.633533E-17	9.136800E-18
3.015873E+03	4.717910E-17	9.272533E-18
3.025794E+03	4.803588E-17	9.409595E-18
3.035714E+03	4.890636E-17	9.548088E-18
3.045635E+03	4.979608E-17	9.689055E-18
3.055556E+03	5.070655E-17	9.832749E-18
3.065476E+03	5.163784E-17	9.979130E-18
3.075397E+03	5.258399E-17	1.012700E-17
3.085317E+03	5.354482E-17	1.027630E-17
3.095238E+03	5.452634E-17	1.042813E-17
3.105159E+03	5.552858E-17	1.058245E-17
3.115079E+03	5.655164E-17	1.073922E-17
3.125000E+03	5.758919E-17	1.089721E-17
3.134921E+03	5.864107E-17	1.105635E-17
3.144841E+03	5.972022E-17	1.121902E-17
3.154762E+03	6.081370E-17	1.138274E-17
3.164683E+03	6.192133E-17	1.154745E-17
3.174603E+03	6.305654E-17	1.171559E-17
3.184524E+03	6.420590E-17	1.188461E-17
3.194444E+03	6.536920E-17	1.205445E-17
3.204365E+03	6.656038E-17	1.222762E-17
3.214286E+03	6.776548E-17	1.240150E-17
3.224206E+03	6.898430E-17	1.257601E-17
3.234127E+03	7.023126E-17	1.275374E-17
3.244048E+03	7.149184E-17	1.293199E-17
3.253968E+03	7.277332E-17	1.311204E-17
3.263889E+03	7.406816E-17	1.329247E-17
3.273810E+03	7.538377E-17	1.347457E-17
3.283730E+03	7.672014E-17	1.365829E-17
3.293651E+03	7.807730E-17	1.384358E-17
3.303571E+03	7.945520E-17	1.403037E-17
3.313492E+03	8.084582E-17	1.421720E-17
3.323413E+03	8.225696E-17	1.440540E-17
3.333333E+03	8.368037E-17	1.459347E-17
3.343254E+03	8.513226E-17	1.478419E-17
3.353175E+03	8.659609E-17	1.497463E-17
3.363095E+03	8.807997E-17	1.516614E-17
3.373016E+03	8.958374E-17	1.535865E-17
3.382937E+03	9.109868E-17	1.555062E-17
3.392857E+03	9.264180E-17	1.574489E-17
3.402778E+03	9.419557E-17	1.593843E-17
3.412698E+03	9.576846E-17	1.613262E-17
3.422619E+03	9.735127E-17	1.632588E-17
3.432540E+03	9.896166E-17	1.652113E-17
3.442460E+03	1.005813E-16	1.671523E-17
3.452381E+03	1.022190E-16	1.690961E-17
3.462302E+03	1.038744E-16	1.710416E-17
3.472222E+03	1.055473E-16	1.729881E-17
3.482143E+03	1.072372E-16	1.749343E-17
3.492063E+03	1.089343E-16	1.768634E-17
3.501984E+03	1.106477E-16	1.787902E-17
3.511905E+03	1.123769E-16	1.807134E-17
3.521825E+03	1.141215E-16	1.826317E-17
3.531746E+03	1.158812E-16	1.845444E-17
3.541667E+03	1.176555E-16	1.864499E-17
3.551587E+03	1.194337E-16	1.883312E-17
3.561508E+03	1.212254E-16	1.902031E-17
3.571429E+03	1.230302E-16	1.920644E-17
3.581349E+03	1.248473E-16	1.939137E-17
3.591270E+03	1.266764E-16	1.957498E-17
3.601190E+03	1.285168E-16	1.975717E-17
3.611111E+03	1.303574E-16	1.993616E-17
3.621032E+03	1.322080E-16	2.011348E-17
3.630952E+03	1.340681E-16	2.028897E-17
3.640873E+03	1.359370E-16	2.046252E-17
3.650794E+03	1.378139E-16	2.063399E-17
3.660714E+03	1.396985E-16	2.080328E-17
3.670635E+03	1.415789E-16	2.096863E-17
3.680556E+03	1.434764E-16	2.113315E-17
3.690476E+03	1.453683E-16	2.129349E-17
3.700397E+03	1.472649E-16	2.145115E-17
3.710317E+03	1.491543E-16	2.160438E-17
3.720238E+03	1.510582E-16	2.175631E-17
3.730159E+03	1.529647E-16	2.190523E-17
3.740079E+03	1.548618E-16	2.204937E-17
3.750000E+03	1.567599E-16	2.219026E-17
3.759921E+03	1.586587E-16	2.232783E-17
3.769841E+03	1.605456E-16	2.246031E-17
3.779762E+03	1.624431E-16	2.259087E-17
3.789683E+03	1.643275E-16	2.271620E-17
3.799603E+03	1.662097E-16	2.283781E-17
3.809524E+03	1.680891E-16	2.295562E-17
3.819444E+03	1.699532E-16	2.306796E-17
3.829365E+03	1.718134E-16	2.317638E-17
3.839286E+03	1.736690E-16	2.328083E-17
3.849206E+03	1.755195E-16	2.338123E-17
3.859127E+03	1.773526E-16	2.347595E-17
3.869048E+03	1.791918E-16	2.356816E-17
3.878968E+03	1.810007E-16	2.365305E-17
3.888889E+03	1.828149E-16	2.373536E-17
3.898810E+03	1.846102E-16	2.381194E-17
3.908730E+03	1.863986E-16	2.388437E-17
3.918651E+03	1.881675E-16	2.395107E-17
3.928571E+03	1.899414E-16	2.401521E-17
3.938492E+03	1.916836E-16	2.407217E-17
3.948413E+03	1.934309E-16	2.412660E-17
3.958333E+03	1.951589E-16	2.417551E-17
3.968254E+03	1.968680E-16	2.421898E-17
3.978175E+03	1.985707E-16	2.425860E-17
3.988095E+03	2.002676E-16	2.429447E-17
3.998016E+03	2.019467E-16	2.432517E-17
4.007937E+03	2.036089E-16	2.435087E-17
4.017857E+03	2.052671E-16	2.437314E-17
4.027778E+03	2.069223E-16	2.439214E-17
4.037698E+03	2.085630E-16	2.440654E-17
4.047619E+03	2.101903E-16	2.441653E-17
4.057540E+03	2.118178E-16	2.442371E-17
4.067460E+03	2.134343E-16	2.442684E-17
4.077381E+03	2.150538E-16	2.442752E-17
4.087302E+03	2.166653E-16	2.442456E-17
4.097222E+03	2.182704E-16	2.441817E-17
4.107143E+03	2.198833E-16	2.440995E-17
4.117063E+03	2.214808E-16	2.439737E-17
4.126984E+03	2.230900E-16	2.438344E-17
4.136905E+03	2.247127E-16	2.436836E-17
4.146825E+03	2.263261E-16	2.434967E-17
4.156746E+03	2.279574E-16	2.433032E-17
4.166667E+03	2.295963E-16	2.430921E-17
4.176587E+03	2.312328E-16	2.428529E-17
4.186508E+03	2.328940E-16	2.426146E-17
4.196429E+03	2.345826E-16	2.423792E-17
4.206349E+03	2.362759E-16	2.421236E-17
4.216270E+03	2.379891E-16	2.418633E-17
4.226190E+03	2.397245E-16	2.416005E-17
4.236111E+03	2.414849E-16	2.413381E-17
4.246032E+03	2.432726E-16	2.410780E-17
4.255952E+03	2.450906E-16	2.408229E-17
4.265873E+03	2.469409E-16	2.405748E-17
4.275794E+03	2.488265E-16	2.403360E-17
4.285714E+03	2.507370E-16	2.400965E-17
4.295635E+03	2.527000E-16	2.398823E-17
4.305556E+03	2.546927E-16	2.396714E-17
4.315476E+03	2.567302E-16	2.394776E-17
4.325397E+03	2.588143E-16	2.393025E-17
4.335317E+03	2.609347E-16	2.391360E-17
4.345238E+03	2.631058E-16	2.389912E-17
4.355159E+03	2.653296E-16	2.388693E-17
4.365079E+03	2.675948E-16	2.387600E-17
4.375000E+03	2.699159E-16	2.386759E-17
4.384921E+03	2.722942E-16	2.386179E-17
4.394841E+03	2.747179E-16	2.385753E-17
4.404762E+03	2.771879E-16	2.385488E-17
4.414683E+03	2.797179E-16	2.385501E-17
4.424603E+03	2.823084E-16	2.385795E-17
4.434524E+03	2.849467E-16	2.386260E-17
4.444444E+03	2.876325E-16	2.386897E-17
4.454365E+03	2.903791E-16	2.387817E-17
4.464286E+03	2.931723E-16	2.388904E-17
4.474206E+03	2.960246E-16	2.390265E-17
4.484127E+03	2.989218E-16	2.391787E-17
4.494048E+03	3.018620E-16	2.393461E-17
4.503968E+03	3.048436E-16	2.395284E-17
4.513889E+03	3.078778E-16	2.397349E-17
4.523810E+03	3.109486E-16	2.399542E-17
4.533730E+03	3.140530E-16	2.401851E-17
4.543651E+03	3.172014E-16	2.404367E-17
4.553571E+03	3.203626E-16	2.406866E-17
4.563492E+03	3.235601E-16	2.409545E-17
4.573413E+03	3.267752E-16	2.412279E-17
4.583333E+03	3.300030E-16	2.415052E-17
4.593254E+03	3.332377E-16	2.417842E-17
4.603175E+03	3.364876E-16	2.420734E-17
4.613095E+03	3.397173E-16	2.423497E-17
4.623016E+03	3.429339E-16	2.426210E-17
4.632937E+03	3.461438E-16	2.428948E-17
4.642857E+03	3.493096E-16	2.431477E-17
4.652778E+03	3.524511E-16	2.433971E-17
4.662698E+03	3.555291E-16	2.436191E-17
4.672619E+03	3.585623E-16	2.438305E-17
4.682540E+03	3.615095E-16	2.440070E-17
4.692460E+03	3.643732E-16	2.441543E-17
4.702381E+03	3.671553E-16	2.442779E-17
4.712302E+03	3.698119E-16	2.443529E-17
4.722222E+03	3.723432E-16	2.443839E-17
4.732143E+03	3.747489E-16	2.443751E-17
4.742063E+03	3.769824E-16	2.443008E-17
4.751984E+03	3.790420E-16	2.441645E-17
4.761905E+03	3.809104E-16	2.439600E-17
4.771825E+03	3.825699E-16	2.436802E-17
4.781746E+03	3.839876E-16	2.433091E-17
4.791667E+03	3.851769E-16	2.428596E-17
4.801587E+03	3.860914E-16	2.423066E-17
4.811508E+03	3.867475E-16	2.416645E-17
4.821429E+03	3.871045E-16	2.409116E-17
4.831349E+03	3.871786E-16	2.400615E-17
4.841270E+03	3.869799E-16	2.391219E-17
4.851190E+03	3.865215E-16	2.381009E-17
4.861111E+03	3.858038E-16	2.369979E-17
4.871032E+03	3.848731E-16	2.358404E-17
4.880952E+03	3.837164E-16	2.346190E-17
4.890873E+03	3.823801E-16	2.333602E-17
4.900794E+03	3.808518E-16	2.320542E-17
4.910714E+03	3.791622E-16	2.307174E-17
4.920635E+03	3.773273E-16	2.293567E-17
4.930556E+03	3.753477E-16	2.279700E-17
4.940476E+03	3.732668E-16	2.265806E-17
4.950397E+03	3.710697E-16	2.251762E-17
4.960317E+03	3.687835E-16	2.237704E-17
4.970238E+03	3.664205E-16	2.223673E-17
4.980159E+03	3.639918E-16	2.209706E-17
4.990079E+03	3.615080E-16	2.195834E-17
5.000000E+03	3.589788E-16	2.182085E-17
5.009921E+03	3.563999E-16	2.168403E-17
5.019841E+03	3.538059E-16	2.154966E-17
5.029762E+03	3.511779E-16	2.141631E-17
5.039683E+03	3.485361E-16	2.128491E-17
5.049603E+03	3.458859E-16	2.115552E-17
5.059524E+03	3.432330E-16	2.102821E-17
5.069444E+03	3.405818E-16	2.090298E-17
5.079365E+03	3.379239E-16	2.077908E-17
5.089286E+03	3.352876E-16	2.065801E-17
5.099206E+03	3.326508E-16	2.053818E-17
5.109127E+03	3.300404E-16	2.042101E-17
5.119048E+03	3.274335E-16	2.030490E-17
5.128968E+03	3.248437E-16	2.019049E-17
5.138889E+03	3.222714E-16	2.007762E-17
5.148810E+03	3.197171E-16	1.996613E-17
5.158730E+03	3.171804E-16	1.985582E-17
5.168651E+03	3.146609E-16	1.974653E-17
5.178571E+03	3.121576E-16	1.963803E-17
5.188492E+03	3.096693E-16	1.953010E-17
5.198413E+03	3.071947E-16	1.942253E-17
5.208333E+03	3.047208E-16	1.931436E-17
5.218254E+03	3.022680E-16	1.920677E-17
5.228175E+03	2.998231E-16	1.909880E-17
5.238095E+03	2.973734E-16	1.898953E-17
5.248016E+03	2.949382E-16	1.888009E-17
5.257937E+03	2.924936E-16	1.876887E-17
5.267857E+03	2.900587E-16	1.865698E-17
5.277778E+03	2.876208E-16	1.854354E-17
5.287698E+03	2.851673E-16	1.842765E-17
5.297619E+03	2.827170E-16	1.831045E-17
5.307540E+03	2.802474E-16	1.819042E-17
5.317460E+03	2.777770E-16	1.806869E-17
5.327381E+03	2.752943E-16	1.794446E-17
5.337302E+03	2.727981E-16	1.781760E-17
5.347222E+03	2.702778E-16	1.768737E-17
5.357143E+03	2.677519E-16	1.755493E-17
5.367063E+03	2.652105E-16	1.741962E-17
5.376984E+03	2.626535E-16	1.728136E-17
5.386905E+03	2.600903E-16	1.714079E-17
5.396825E+03	2.575032E-16	1.699669E-17
5.406746E+03	2.549024E-16	1.684972E-17
5.416667E+03	2.522983E-16	1.670057E-17
5.426587E+03	2.496747E-16	1.654816E-17
5.436508E+03	2.470512E-16	1.639378E-17
5.446429E+03	2.444216E-16	1.623703E-17
5.456349E+03	2.417888E-16	1.607810E-17
5.466270E+03	2.391556E-16	1.591721E-17
5.476190E+03	2.365256E-16	1.575460E-17
5.486111E+03	2.339028E-16	1.559055E-17
5.496032E+03	2.312991E-16	1.542588E-17
5.505952E+03	2.287103E-16	1.526036E-17
5.515873E+03	2.261410E-16	1.509430E-17
5.525794E+03	2.235958E-16	1.492805E-17
5.535714E+03	2.210872E-16	1.476247E-17
5.545635E+03	2.186044E-16	1.459688E-17
5.555556E+03	2.161676E-16	1.443265E-17
5.565476E+03	2.137739E-16	1.426965E-17
5.575397E+03	2.114356E-16	1.410871E-17
5.585317E+03	2.091498E-16	1.394969E-17
5.595238E+03	2.069213E-16	1.379293E-17
5.605159E+03	2.047545E-16	1.363876E-17
5.615079E+03	2.026536E-16	1.348749E-17
5.625000E+03	2.006299E-16	1.333990E-17
5.634921E+03	1.986801E-16	1.319580E-17
5.644841E+03	1.968145E-16	1.305589E-17
5.654762E+03	1.950296E-16	1.291995E-17
5.664683E+03	1.933284E-16	1.278821E-17
5.674603E+03	1.917135E-16	1.266084E-17
5.684524E+03	1.901941E-16	1.253845E-17
5.694444E+03	1.887654E-16	1.242075E-17
5.704365E+03	1.874357E-16	1.230825E-17
5.714286E+03	1.862000E-16	1.220064E-17
5.724206E+03	1.850594E-16	1.209796E-17
5.734127E+03	1.840212E-16	1.200069E-17
5.744048E+03	1.830794E-16	1.190841E-17
5.753968E+03	1.822408E-16	1.182152E-17
5.763889E+03	1.814990E-16	1.173961E-17
5.773810E+03	1.808541E-16	1.166261E-17
5.783730E+03	1.803120E-16	1.159090E-17
5.793651E+03	1.798723E-16	1.152438E-17
5.803571E+03	1.795280E-16	1.146256E-17
5.813492E+03	1.792784E-16	1.140536E-17
5.823413E+03	1.791293E-16	1.135308E-17
5.833333E+03	1.790734E-16	1.130520E-17
5.843254E+03	1.791163E-16	1.126202E-17
5.853175E+03	1.792508E-16	1.122300E-17
5.863095E+03	1.794825E-16	1.118844E-17
5.873016E+03	1.798107E-16	1.115821E-17
5.882937E+03	1.802283E-16	1.113180E-17
5.892857E+03	1.807346E-16	1.110908E-17
5.902778E+03	1.813354E-16	1.109034E-17
5.912698E+03	1.820301E-16	1.107544E-17
5.922619E+03	1.828120E-16	1.106389E-17
5.932540E+03	1.836868E-16	1.105595E-17
5.942460E+03	1.846476E-16	1.105110E-17
5.952381E+03	1.857003E-16	1.104961E-17
5.962302E+03	1.868446E-16	1.105135E-17
5.972222E+03	1.880729E-16	1.105577E-17
5.982143E+03	1.893911E-16	1.106313E-17
5.992063E+03	1.907913E-16	1.107286E-17
6.001984E+03	1.922859E-16	1.108557E-17
6.011905E+03	1.938524E-16	1.109987E-17
6.021825E+03	1.955096E-16	1.111672E-17
6.031746E+03	1.972408E-16	1.113508E-17
6.041667E+03	1.990499E-16	1.115507E-17
6.051587E+03	2.009261E-16	1.117599E-17
6.061508E+03	2.028720E-16	1.119791E-17
6.071429E+03	2.048824E-16	1.122043E-17
6.081349E+03	2.069438E-16	1.124278E-17
6.091270E+03	2.090645E-16	1.126531E-17
6.101190E+03	2.112142E-16	1.128635E-17
6.111111E+03	2.134069E-16	1.130660E-17
6.121032E+03	2.156180E-16	1.132475E-17
6.130952E+03	2.178528E-16	1.134107E-17
6.140873E+03	2.200766E-16	1.135374E-17
6.150794E+03	2.223014E-16	1.136344E-17
6.160714E+03	2.244989E-16	1.136876E-17
6.170635E+03	2.266645E-16	1.136951E-17
6.180556E+03	2.287854E-16	1.136513E-17
6.190476E+03	2.308482E-16	1.135505E-17
6.200397E+03	2.328394E-16	1.133875E-17
6.210317E+03	2.347371E-16	1.131530E-17
6.220238E+03	2.365361E-16	1.128466E-17
6.230159E+03	2.382231E-16	1.124640E-17
6.240079E+03	2.397768E-16	1.119975E-17
6.250000E+03	2.412024E-16	1.114523E-17
6.259921E+03	2.424709E-16	1.108180E-17
6.269841E+03	2.435807E-16	1.100972E-17
6.279762E+03	2.445227E-16	1.092891E-17
6.289683E+03	2.452886E-16	1.083938E-17
6.299603E+03	2.458723E-16	1.074124E-17
6.309524E+03	2.462682E-16	1.063468E-17
6.319444E+03	2.464641E-16	1.051958E-17
6.329365E+03	2.464670E-16	1.039670E-17
6.339286E+03	2.462858E-16	1.026685E-17
6.349206E+03	2.459037E-16	1.012978E-17
6.359127E+03	2.453328E-16	9.986451E-18
6.369048E+03	2.445776E-16	9.837506E-18
6.378968E+03	2.436434E-16	9.683617E-18
6.388889E+03	2.425289E-16	9.525173E-18
6.398810E+03	2.412596E-16	9.363627E-18
6.408730E+03	2.398360E-16	9.199411E-18
6.418651E+03	2.382589E-16	9.032976E-18
6.428571E+03	2.365566E-16	8.865793E-18
6.438492E+03	2.347310E-16	8.698312E-18
6.448413E+03	2.327849E-16	8.530994E-18
6.458333E+03	2.307470E-16	8.365237E-18
6.468254E+03	2.286113E-16	8.201143E-18
6.478175E+03	2.263980E-16	8.039736E-18
6.488095E+03	2.241265E-16	7.881980E-18
6.498016E+03	2.217907E-16	7.727910E-18
6.507937E+03	2.194180E-16	7.578703E-18
6.517857E+03	2.170015E-16	7.434331E-18
6.527778E+03	2.145672E-16	7.295863E-18
6.537698E+03	2.121080E-16	7.163204E-18
6.547619E+03	2.096479E-16	7.037303E-18
6.557540E+03	2.071791E-16	6.917994E-18
6.567460E+03	2.047245E-16	6.806120E-18
6.577381E+03	2.022750E-16	6.701431E-18
6.587302E+03	1.998520E-16	6.604664E-18
6.597222E+03	1.974530E-16	6.515735E-18
6.607143E+03	1.950757E-16	6.434536E-18
6.617063E+03	1.927388E-16	6.361640E-18
6.626984E+03	1.904385E-16	6.296841E-18
6.636905E+03	1.881778E-16	6.240078E-18
6.646825E+03	1.859590E-16	6.191088E-18
6.656746E+03	1.837910E-16	6.149792E-18
6.666667E+03	1.816608E-16	6.115390E-18
6.676587E+03	1.795761E-16	6.087761E-18
6.686508E+03	1.775437E-16	6.066771E-18
6.696429E+03	1.755492E-16	6.051567E-18
6.706349E+03	1.736051E-16	6.042216E-18
6.716270E+03	1.716959E-16	6.037841E-18
6.726190E+03	1.698327E-16	6.038483E-18
6.736111E+03	1.680054E-16	6.043467E-18
6.746032E+03	1.662105E-16	6.052351E-18
6.755952E+03	1.644499E-16	6.064894E-18
6.765873E+03	1.627060E-16	6.080159E-18
6.775794E+03	1.609800E-16	6.097891E-18
6.785714E+03	1.592725E-16	6.117840E-18
6.795635E+03	1.575664E-16	6.139070E-18
6.805556E+03	1.558701E-16	6.161641E-18
6.815476E+03	1.541756E-16	6.184989E-18
6.825397E+03	1.524877E-16	6.209060E-18
6.835317E+03	1.508188E-16	6.234144E-18
6.845238E+03	1.491828E-16	6.260643E-18
6.855159E+03	1.476001E-16	6.289276E-18
6.865079E+03	1.460729E-16	6.320056E-18
6.875000E+03	1.446195E-16	6.353715E-18
6.884921E+03	1.432569E-16	6.391001E-18
6.894841E+03	1.419893E-16	6.432138E-18
6.904762E+03	1.408251E-16	6.477568E-18
6.914683E+03	1.397713E-16	6.527715E-18
6.924603E+03	1.388337E-16	6.582969E-18
6.934524E+03	1.380170E-16	6.643706E-18
6.944444E+03	1.373245E-16	6.710255E-18
6.954365E+03	1.367590E-16	6.782938E-18
6.964286E+03	1.363272E-16	6.862297E-18
6.974206E+03	1.360194E-16	6.948060E-18
6.984127E+03	1.358460E-16	7.040987E-18
6.994048E+03	1.358011E-16	7.141014E-18
7.003968E+03	1.358778E-16	7.248010E-18
7.013889E+03	1.360847E-16	7.362669E-18
7.023810E+03	1.364137E-16	7.484807E-18
7.033730E+03	1.368614E-16	7.614478E-18
7.043651E+03	1.374237E-16	7.751690E-18
7.053571E+03	1.380959E-16	7.896407E-18
7.063492E+03	1.388727E-16	8.048550E-18
7.073413E+03	1.397481E-16	8.207988E-18
7.083333E+03	1.407152E-16	8.374518E-18
7.093254E+03	1.417669E-16	8.547902E-18
7.103175E+03	1.428949E-16	8.727822E-18
7.113095E+03	1.440905E-16	8.913894E-18
7.123016E+03	1.453444E-16	9.105681E-18
7.132937E+03	1.466464E-16	9.302660E-18
7.142857E+03	1.479857E-16	9.504243E-18
7.152778E+03	1.493511E-16	9.709777E-18
7.162698E+03	1.507307E-16	9.918529E-18
7.172619E+03	1.521121E-16	1.012970E-17
7.182540E+03	1.534827E-16	1.034244E-17
7.192460E+03	1.548235E-16	1.055542E-17
7.202381E+03	1.561335E-16	1.076849E-17
7.212302E+03	1.573935E-16	1.098024E-17
7.222222E+03	1.585842E-16	1.118919E-17
7.232143E+03	1.597057E-16	1.139516E-17
7.242063E+03	1.607328E-16	1.159619E-17
7.251984E+03	1.616604E-16	1.179166E-17
7.261905E+03	1.624776E-16	1.198055E-17
7.271825E+03	1.631746E-16	1.216185E-17
7.281746E+03	1.637425E-16	1.233462E-17
7.291667E+03	1.641739E-16	1.249797E-17
7.301587E+03	1.644556E-16	1.265058E-17
7.311508E+03	1.645963E-16	1.279276E-17
7.321429E+03	1.645790E-16	1.292285E-17
7.331349E+03	1.644086E-16	1.304086E-17
7.341270E+03	1.640847E-16	1.314640E-17
7.351190E+03	1.636085E-16	1.323920E-17
7.361111E+03	1.629756E-16	1.331854E-17
7.371032E+03	1.621967E-16	1.338494E-17
7.380952E+03	1.612766E-16	1.343845E-17
7.390873E+03	1.602218E-16	1.347928E-17
7.400794E+03	1.590393E-16	1.350771E-17
7.410714E+03	1.577306E-16	1.352356E-17
7.420635E+03	1.563108E-16	1.352784E-17
7.430556E+03	1.547892E-16	1.352111E-17
7.440476E+03	1.531752E-16	1.350393E-17
7.450397E+03	1.514721E-16	1.347641E-17
7.460317E+03	1.496963E-16	1.343978E-17
7.470238E+03	1.478573E-16	1.339474E-17
7.480159E+03	1.459585E-16	1.334144E-17
7.490079E+03	1.440157E-16	1.328115E-17
7.500000E+03	1.420377E-16	1.321458E-17
7.509921E+03	1.400272E-16	1.314188E-17
7.519841E+03	1.380040E-16	1.306482E-17
7.529762E+03	1.359641E-16	1.298299E-17
7.539683E+03	1.339147E-16	1.289700E-17
7.549603E+03	1.318682E-16	1.280804E-17
7.559524E+03	1.298304E-16	1.271666E-17
7.569444E+03	1.278014E-16	1.262287E-17
7.579365E+03	1.257968E-16	1.252825E-17
7.589286E+03	1.238051E-16	1.243169E-17
7.599206E+03	1.218461E-16	1.233522E-17
7.609127E+03	1.199127E-16	1.223816E-17
7.619048E+03	1.180081E-16	1.214093E-17
7.628968E+03	1.161446E-16	1.204484E-17
7.638889E+03	1.143099E-16	1.194870E-17
7.648810E+03	1.125200E-16	1.185429E-17
7.658730E+03	1.107670E-16	1.176084E-17
7.668651E+03	1.090569E-16	1.166908E-17
7.678571E+03	1.073854E-16	1.157867E-17
7.688492E+03	1.057582E-16	1.149029E-17
7.698413E+03	1.041708E-16	1.140357E-17
