#wls	flux	fluxerr
1.587302E+03	6.706005E-18	1.859828E-18
1.626984E+03	6.929638E-18	1.912946E-18
1.666667E+03	7.159667E-18	1.967059E-18
1.706349E+03	7.397391E-18	2.022475E-18
1.746032E+03	7.641408E-18	2.078761E-18
1.785714E+03	7.891320E-18	2.135758E-18
1.825397E+03	8.143006E-18	2.192311E-18
1.865079E+03	8.395410E-18	2.248102E-18
1.904762E+03	8.641141E-18	2.301137E-18
1.944444E+03	8.877185E-18	2.350621E-18
1.984127E+03	9.102073E-18	2.396187E-18
2.023810E+03	9.323796E-18	2.439955E-18
2.063492E+03	9.559877E-18	2.486472E-18
2.103175E+03	9.851543E-18	2.546300E-18
2.142857E+03	1.023738E-17	2.629045E-18
2.182540E+03	1.075341E-17	2.743391E-18
2.222222E+03	1.140187E-17	2.889190E-18
2.261905E+03	1.216785E-17	3.061935E-18
2.301587E+03	1.302692E-17	3.254831E-18
2.341270E+03	1.395900E-17	3.462302E-18
2.380952E+03	1.495490E-17	3.681594E-18
2.420635E+03	1.600901E-17	3.910871E-18
2.460317E+03	1.712566E-17	4.150745E-18
2.500000E+03	1.831024E-17	4.402030E-18
2.539683E+03	1.956988E-17	4.665895E-18
2.579365E+03	2.091560E-17	4.944363E-18
2.619048E+03	2.234999E-17	5.237367E-18
2.658730E+03	2.389133E-17	5.548447E-18
2.698413E+03	2.554243E-17	5.877406E-18
2.738095E+03	2.731970E-17	6.227096E-18
2.777778E+03	2.922933E-17	6.597897E-18
2.817460E+03	3.128089E-17	6.990858E-18
2.857143E+03	3.349263E-17	7.408833E-18
2.896825E+03	3.586604E-17	7.850808E-18
2.936508E+03	3.841993E-17	8.319464E-18
2.976190E+03	4.115933E-17	8.814325E-18
2.986111E+03	4.187713E-17	8.942790E-18
2.996032E+03	4.260533E-17	9.072505E-18
3.005952E+03	4.334396E-17	9.203455E-18
3.015873E+03	4.409856E-17	9.336787E-18
3.025794E+03	4.486972E-17	9.472593E-18
3.035714E+03	4.565278E-17	9.609852E-18
3.045635E+03	4.644748E-17	9.748488E-18
3.055556E+03	4.725505E-17	9.888727E-18
3.065476E+03	4.808677E-17	1.003289E-17
3.075397E+03	4.892546E-17	1.017736E-17
3.085317E+03	4.978249E-17	1.032448E-17
3.095238E+03	5.065792E-17	1.047421E-17
3.105159E+03	5.154577E-17	1.062528E-17
3.115079E+03	5.245198E-17	1.077889E-17
3.125000E+03	5.337044E-17	1.093374E-17
3.134921E+03	5.430098E-17	1.108976E-17
3.144841E+03	5.524980E-17	1.124820E-17
3.154762E+03	5.621053E-17	1.140771E-17
3.164683E+03	5.718952E-17	1.156955E-17
3.174603E+03	5.818684E-17	1.173370E-17
3.184524E+03	5.919593E-17	1.189878E-17
3.194444E+03	6.021660E-17	1.206475E-17
3.204365E+03	6.125549E-17	1.223288E-17
3.214286E+03	6.231270E-17	1.240317E-17
3.224206E+03	6.338132E-17	1.257419E-17
3.234127E+03	6.446113E-17	1.274587E-17
3.244048E+03	6.555912E-17	1.291957E-17
3.253968E+03	6.667533E-17	1.309525E-17
3.263889E+03	6.780251E-17	1.327143E-17
3.273810E+03	6.894785E-17	1.344951E-17
3.283730E+03	7.010390E-17	1.362798E-17
3.293651E+03	7.127800E-17	1.380824E-17
3.303571E+03	7.246254E-17	1.398878E-17
3.313492E+03	7.366499E-17	1.417100E-17
3.323413E+03	7.487757E-17	1.435337E-17
3.333333E+03	7.610790E-17	1.453733E-17
3.343254E+03	7.734799E-17	1.472129E-17
3.353175E+03	7.860563E-17	1.490672E-17
3.363095E+03	7.988080E-17	1.509357E-17
3.373016E+03	8.116519E-17	1.528022E-17
3.382937E+03	8.246684E-17	1.546817E-17
3.392857E+03	8.377726E-17	1.565578E-17
3.402778E+03	8.510462E-17	1.584454E-17
3.412698E+03	8.644024E-17	1.603281E-17
3.422619E+03	8.779244E-17	1.622209E-17
3.432540E+03	8.915233E-17	1.641071E-17
3.442460E+03	9.053722E-17	1.660182E-17
3.452381E+03	9.192047E-17	1.679049E-17
3.462302E+03	9.331940E-17	1.697988E-17
3.472222E+03	9.473386E-17	1.716990E-17
3.482143E+03	9.616361E-17	1.736049E-17
3.492063E+03	9.759937E-17	1.754993E-17
3.501984E+03	9.904042E-17	1.773807E-17
3.511905E+03	1.004960E-16	1.792653E-17
3.521825E+03	1.019656E-16	1.811522E-17
3.531746E+03	1.034396E-16	1.830235E-17
3.541667E+03	1.049269E-16	1.848953E-17
3.551587E+03	1.064179E-16	1.867498E-17
3.561508E+03	1.079215E-16	1.886028E-17
3.571429E+03	1.094376E-16	1.904536E-17
3.581349E+03	1.109558E-16	1.922839E-17
3.591270E+03	1.124856E-16	1.941101E-17
3.601190E+03	1.140166E-16	1.959140E-17
3.611111E+03	1.155585E-16	1.977119E-17
3.621032E+03	1.171108E-16	1.995029E-17
3.630952E+03	1.186629E-16	2.012685E-17
3.640873E+03	1.202140E-16	2.030077E-17
3.650794E+03	1.217742E-16	2.047370E-17
3.660714E+03	1.233431E-16	2.064557E-17
3.670635E+03	1.249096E-16	2.081451E-17
3.680556E+03	1.264839E-16	2.098219E-17
3.690476E+03	1.280545E-16	2.114674E-17
3.700397E+03	1.296321E-16	2.130987E-17
3.710317E+03	1.312160E-16	2.147147E-17
3.720238E+03	1.327948E-16	2.162968E-17
3.730159E+03	1.343682E-16	2.178443E-17
3.740079E+03	1.359464E-16	2.193740E-17
3.750000E+03	1.375290E-16	2.208851E-17
3.759921E+03	1.391046E-16	2.223591E-17
3.769841E+03	1.406727E-16	2.237954E-17
3.779762E+03	1.422550E-16	2.252287E-17
3.789683E+03	1.438176E-16	2.266051E-17
3.799603E+03	1.453824E-16	2.279594E-17
3.809524E+03	1.469493E-16	2.292914E-17
3.819444E+03	1.485063E-16	2.305825E-17
3.829365E+03	1.500531E-16	2.318324E-17
3.839286E+03	1.516008E-16	2.330585E-17
3.849206E+03	1.531492E-16	2.342604E-17
3.859127E+03	1.546864E-16	2.354200E-17
3.869048E+03	1.562121E-16	2.365372E-17
3.878968E+03	1.577378E-16	2.376296E-17
3.888889E+03	1.592516E-16	2.386795E-17
3.898810E+03	1.607653E-16	2.397046E-17
3.908730E+03	1.622668E-16	2.406872E-17
3.918651E+03	1.637563E-16	2.416277E-17
3.928571E+03	1.652455E-16	2.425438E-17
3.938492E+03	1.667227E-16	2.434186E-17
3.948413E+03	1.682000E-16	2.442699E-17
3.958333E+03	1.696537E-16	2.450634E-17
3.968254E+03	1.711201E-16	2.458522E-17
3.978175E+03	1.725635E-16	2.465847E-17
3.988095E+03	1.740084E-16	2.472966E-17
3.998016E+03	1.754432E-16	2.479717E-17
4.007937E+03	1.768809E-16	2.486282E-17
4.017857E+03	1.782976E-16	2.492332E-17
4.027778E+03	1.797185E-16	2.498220E-17
4.037698E+03	1.811322E-16	2.503791E-17
4.047619E+03	1.825520E-16	2.509229E-17
4.057540E+03	1.839665E-16	2.514381E-17
4.067460E+03	1.853647E-16	2.519097E-17
4.077381E+03	1.867845E-16	2.523896E-17
4.087302E+03	1.881902E-16	2.528297E-17
4.097222E+03	1.895955E-16	2.532484E-17
4.107143E+03	1.910141E-16	2.536644E-17
4.117063E+03	1.924225E-16	2.540466E-17
4.126984E+03	1.938474E-16	2.544302E-17
4.136905E+03	1.952776E-16	2.548006E-17
4.146825E+03	1.967149E-16	2.551602E-17
4.156746E+03	1.981609E-16	2.555112E-17
4.166667E+03	1.996173E-16	2.558558E-17
4.176587E+03	2.010858E-16	2.561961E-17
4.186508E+03	2.025810E-16	2.565507E-17
4.196429E+03	2.040794E-16	2.568895E-17
4.206349E+03	2.055953E-16	2.572308E-17
4.216270E+03	2.071307E-16	2.575770E-17
4.226190E+03	2.086875E-16	2.579302E-17
4.236111E+03	2.102677E-16	2.582927E-17
4.246032E+03	2.118728E-16	2.586663E-17
4.255952E+03	2.135050E-16	2.590532E-17
4.265873E+03	2.151660E-16	2.594555E-17
4.275794E+03	2.168447E-16	2.598596E-17
4.285714E+03	2.185686E-16	2.602980E-17
4.295635E+03	2.203138E-16	2.607421E-17
4.305556E+03	2.220945E-16	2.612085E-17
4.315476E+03	2.239126E-16	2.616990E-17
4.325397E+03	2.257692E-16	2.622148E-17
4.335317E+03	2.276529E-16	2.627422E-17
4.345238E+03	2.295780E-16	2.632974E-17
4.355159E+03	2.315453E-16	2.638813E-17
4.365079E+03	2.335561E-16	2.644947E-17
4.375000E+03	2.355978E-16	2.651233E-17
4.384921E+03	2.376844E-16	2.657827E-17
4.394841E+03	2.398164E-16	2.664730E-17
4.404762E+03	2.419806E-16	2.671796E-17
4.414683E+03	2.441906E-16	2.679172E-17
4.424603E+03	2.464463E-16	2.686856E-17
4.434524E+03	2.487338E-16	2.694694E-17
4.444444E+03	2.510660E-16	2.702828E-17
4.454365E+03	2.534285E-16	2.711103E-17
4.464286E+03	2.558340E-16	2.719655E-17
4.474206E+03	2.582673E-16	2.728325E-17
4.484127E+03	2.607408E-16	2.737245E-17
4.494048E+03	2.632526E-16	2.746399E-17
4.503968E+03	2.657866E-16	2.755622E-17
4.513889E+03	2.683405E-16	2.764895E-17
4.523810E+03	2.709257E-16	2.774341E-17
4.533730E+03	2.735394E-16	2.783938E-17
4.543651E+03	2.761500E-16	2.793371E-17
4.553571E+03	2.787967E-16	2.803048E-17
4.563492E+03	2.814329E-16	2.812506E-17
4.573413E+03	2.840833E-16	2.822007E-17
4.583333E+03	2.867438E-16	2.831519E-17
4.593254E+03	2.893953E-16	2.840865E-17
4.603175E+03	2.920326E-16	2.850010E-17
4.613095E+03	2.946656E-16	2.859065E-17
4.623016E+03	2.972739E-16	2.867848E-17
4.632937E+03	2.998513E-16	2.876318E-17
4.642857E+03	3.024068E-16	2.884578E-17
4.652778E+03	3.049035E-16	2.892298E-17
4.662698E+03	3.073798E-16	2.899862E-17
4.672619E+03	3.097827E-16	2.906790E-17
4.682540E+03	3.121346E-16	2.913319E-17
4.692460E+03	3.144117E-16	2.919249E-17
4.702381E+03	3.166208E-16	2.924667E-17
4.712302E+03	3.187214E-16	2.929226E-17
4.722222E+03	3.207345E-16	2.933147E-17
4.732143E+03	3.226343E-16	2.936221E-17
4.742063E+03	3.244257E-16	2.938522E-17
4.751984E+03	3.260820E-16	2.939836E-17
4.761905E+03	3.275915E-16	2.940088E-17
4.771825E+03	3.289432E-16	2.939210E-17
4.781746E+03	3.301255E-16	2.937129E-17
4.791667E+03	3.311433E-16	2.933921E-17
4.801587E+03	3.319557E-16	2.929252E-17
4.811508E+03	3.326016E-16	2.923496E-17
4.821429E+03	3.330283E-16	2.916217E-17
4.831349E+03	3.332513E-16	2.907580E-17
4.841270E+03	3.332909E-16	2.897785E-17
4.851190E+03	3.331380E-16	2.886762E-17
4.861111E+03	3.328014E-16	2.874593E-17
4.871032E+03	3.322906E-16	2.861364E-17
4.880952E+03	3.316161E-16	2.847168E-17
4.890873E+03	3.308038E-16	2.832224E-17
4.900794E+03	3.298486E-16	2.816486E-17
4.910714E+03	3.287614E-16	2.800044E-17
4.920635E+03	3.275525E-16	2.782978E-17
4.930556E+03	3.262320E-16	2.765367E-17
4.940476E+03	3.248246E-16	2.747411E-17
4.950397E+03	3.233249E-16	2.729054E-17
4.960317E+03	3.217417E-16	2.710361E-17
4.970238E+03	3.200839E-16	2.691393E-17
4.980159E+03	3.183596E-16	2.672207E-17
4.990079E+03	3.165909E-16	2.652976E-17
5.000000E+03	3.147563E-16	2.633506E-17
5.009921E+03	3.128912E-16	2.614080E-17
5.019841E+03	3.109878E-16	2.594618E-17
5.029762E+03	3.090518E-16	2.575156E-17
5.039683E+03	3.071024E-16	2.555837E-17
5.049603E+03	3.051169E-16	2.536461E-17
5.059524E+03	3.031272E-16	2.517278E-17
5.069444E+03	3.011233E-16	2.498191E-17
5.079365E+03	2.991090E-16	2.479219E-17
5.089286E+03	2.971004E-16	2.460483E-17
5.099206E+03	2.950734E-16	2.441769E-17
5.109127E+03	2.930566E-16	2.423301E-17
5.119048E+03	2.910383E-16	2.404972E-17
5.128968E+03	2.890198E-16	2.386779E-17
5.138889E+03	2.870146E-16	2.368823E-17
5.148810E+03	2.849977E-16	2.350886E-17
5.158730E+03	2.829945E-16	2.333166E-17
5.168651E+03	2.809918E-16	2.315546E-17
5.178571E+03	2.790017E-16	2.298113E-17
5.188492E+03	2.769984E-16	2.280647E-17
5.198413E+03	2.750054E-16	2.263331E-17
5.208333E+03	2.730093E-16	2.246046E-17
5.218254E+03	2.710086E-16	2.228772E-17
5.228175E+03	2.690133E-16	2.211582E-17
5.238095E+03	2.670100E-16	2.194359E-17
5.248016E+03	2.649970E-16	2.177081E-17
5.257937E+03	2.629724E-16	2.159726E-17
5.267857E+03	2.609461E-16	2.142368E-17
5.277778E+03	2.588934E-16	2.124799E-17
5.287698E+03	2.568467E-16	2.107278E-17
5.297619E+03	2.547707E-16	2.089511E-17
5.307540E+03	2.526863E-16	2.071663E-17
5.317460E+03	2.505813E-16	2.053629E-17
5.327381E+03	2.484548E-16	2.035398E-17
5.337302E+03	2.463061E-16	2.016960E-17
5.347222E+03	2.441452E-16	1.998393E-17
5.357143E+03	2.419718E-16	1.979691E-17
5.367063E+03	2.397650E-16	1.960680E-17
5.376984E+03	2.375458E-16	1.941529E-17
5.386905E+03	2.353046E-16	1.922157E-17
5.396825E+03	2.330524E-16	1.902652E-17
5.406746E+03	2.307703E-16	1.882857E-17
5.416667E+03	2.284897E-16	1.863027E-17
5.426587E+03	2.261826E-16	1.842933E-17
5.436508E+03	2.238710E-16	1.822753E-17
5.446429E+03	2.215472E-16	1.802424E-17
5.456349E+03	2.192237E-16	1.782046E-17
5.466270E+03	2.168937E-16	1.761564E-17
5.476190E+03	2.145607E-16	1.741006E-17
5.486111E+03	2.122370E-16	1.720474E-17
5.496032E+03	2.099174E-16	1.699923E-17
5.505952E+03	2.076144E-16	1.679455E-17
5.515873E+03	2.053233E-16	1.659034E-17
5.525794E+03	2.030482E-16	1.638693E-17
5.535714E+03	2.008021E-16	1.618537E-17
5.545635E+03	1.985806E-16	1.598531E-17
5.555556E+03	1.963968E-16	1.578781E-17
5.565476E+03	1.942465E-16	1.559253E-17
5.575397E+03	1.921342E-16	1.539984E-17
5.585317E+03	1.900726E-16	1.521077E-17
5.595238E+03	1.880656E-16	1.502562E-17
5.605159E+03	1.861017E-16	1.484347E-17
5.615079E+03	1.842086E-16	1.466653E-17
5.625000E+03	1.823741E-16	1.449383E-17
5.634921E+03	1.806023E-16	1.432568E-17
5.644841E+03	1.789041E-16	1.416292E-17
5.654762E+03	1.772750E-16	1.400522E-17
5.664683E+03	1.757256E-16	1.385336E-17
5.674603E+03	1.742508E-16	1.370695E-17
5.684524E+03	1.728606E-16	1.356674E-17
5.694444E+03	1.715567E-16	1.343285E-17
5.704365E+03	1.703264E-16	1.330425E-17
5.714286E+03	1.691929E-16	1.318273E-17
5.724206E+03	1.681429E-16	1.306721E-17
5.734127E+03	1.671771E-16	1.295773E-17
5.744048E+03	1.663035E-16	1.285486E-17
5.753968E+03	1.655222E-16	1.275857E-17
5.763889E+03	1.648265E-16	1.266829E-17
5.773810E+03	1.642231E-16	1.258452E-17
5.783730E+03	1.637120E-16	1.250718E-17
5.793651E+03	1.632856E-16	1.243567E-17
5.803571E+03	1.629437E-16	1.236990E-17
5.813492E+03	1.626925E-16	1.231031E-17
5.823413E+03	1.625315E-16	1.225681E-17
5.833333E+03	1.624532E-16	1.220876E-17
5.843254E+03	1.624637E-16	1.216658E-17
5.853175E+03	1.625627E-16	1.213019E-17
5.863095E+03	1.627427E-16	1.209896E-17
5.873016E+03	1.630103E-16	1.207333E-17
5.882937E+03	1.633652E-16	1.205322E-17
5.892857E+03	1.638003E-16	1.203804E-17
5.902778E+03	1.643225E-16	1.202824E-17
5.912698E+03	1.649321E-16	1.202377E-17
5.922619E+03	1.656221E-16	1.202406E-17
5.932540E+03	1.664001E-16	1.202959E-17
5.942460E+03	1.672592E-16	1.203981E-17
5.952381E+03	1.682143E-16	1.205571E-17
5.962302E+03	1.692515E-16	1.207624E-17
5.972222E+03	1.703713E-16	1.210135E-17
5.982143E+03	1.715886E-16	1.213203E-17
5.992063E+03	1.728889E-16	1.216720E-17
6.001984E+03	1.742796E-16	1.220730E-17
6.011905E+03	1.757529E-16	1.225172E-17
6.021825E+03	1.773156E-16	1.230087E-17
6.031746E+03	1.789665E-16	1.235459E-17
6.041667E+03	1.807040E-16	1.241271E-17
6.051587E+03	1.825256E-16	1.247502E-17
6.061508E+03	1.844205E-16	1.254069E-17
6.071429E+03	1.863925E-16	1.260996E-17
6.081349E+03	1.884367E-16	1.268244E-17
6.091270E+03	1.905391E-16	1.275718E-17
6.101190E+03	1.927092E-16	1.283477E-17
6.111111E+03	1.949224E-16	1.291357E-17
6.121032E+03	1.971779E-16	1.299353E-17
6.130952E+03	1.994654E-16	1.307397E-17
6.140873E+03	2.017647E-16	1.315363E-17
6.150794E+03	2.040719E-16	1.323228E-17
6.160714E+03	2.063824E-16	1.330969E-17
6.170635E+03	2.086549E-16	1.338324E-17
6.180556E+03	2.109014E-16	1.345379E-17
6.190476E+03	2.130967E-16	1.351984E-17
6.200397E+03	2.152154E-16	1.357989E-17
6.210317E+03	2.172592E-16	1.363418E-17
6.220238E+03	2.191927E-16	1.368067E-17
6.230159E+03	2.210086E-16	1.371908E-17
6.240079E+03	2.226808E-16	1.374800E-17
6.250000E+03	2.242135E-16	1.376790E-17
6.259921E+03	2.255826E-16	1.377756E-17
6.269841E+03	2.267651E-16	1.377580E-17
6.279762E+03	2.277591E-16	1.376281E-17
6.289683E+03	2.285550E-16	1.373826E-17
6.299603E+03	2.291451E-16	1.370199E-17
6.309524E+03	2.295237E-16	1.365394E-17
6.319444E+03	2.296874E-16	1.359421E-17
6.329365E+03	2.296352E-16	1.352303E-17
6.339286E+03	2.293682E-16	1.344075E-17
6.349206E+03	2.288794E-16	1.334724E-17
6.359127E+03	2.281846E-16	1.324370E-17
6.369048E+03	2.273008E-16	1.313138E-17
6.378968E+03	2.262168E-16	1.300987E-17
6.388889E+03	2.249530E-16	1.288057E-17
6.398810E+03	2.235207E-16	1.274436E-17
6.408730E+03	2.219422E-16	1.260267E-17
6.418651E+03	2.202108E-16	1.245532E-17
6.428571E+03	2.183399E-16	1.230322E-17
6.438492E+03	2.163628E-16	1.214838E-17
6.448413E+03	2.142829E-16	1.199111E-17
6.458333E+03	2.121136E-16	1.183227E-17
6.468254E+03	2.098679E-16	1.167264E-17
6.478175E+03	2.075579E-16	1.151298E-17
6.488095E+03	2.051866E-16	1.135350E-17
6.498016E+03	2.027832E-16	1.119585E-17
6.507937E+03	2.003492E-16	1.104013E-17
6.517857E+03	1.978850E-16	1.088639E-17
6.527778E+03	1.954176E-16	1.073609E-17
6.537698E+03	1.929373E-16	1.058869E-17
6.547619E+03	1.904692E-16	1.044555E-17
6.557540E+03	1.880109E-16	1.030651E-17
6.567460E+03	1.855602E-16	1.017141E-17
6.577381E+03	1.831391E-16	1.004141E-17
6.587302E+03	1.807357E-16	9.915812E-18
6.597222E+03	1.783704E-16	9.795685E-18
6.607143E+03	1.760386E-16	9.680707E-18
6.617063E+03	1.737351E-16	9.570543E-18
6.626984E+03	1.714781E-16	9.466109E-18
6.636905E+03	1.692615E-16	9.366908E-18
6.646825E+03	1.670791E-16	9.272407E-18
6.656746E+03	1.649470E-16	9.183327E-18
6.666667E+03	1.628578E-16	9.099085E-18
6.676587E+03	1.608116E-16	9.019524E-18
6.686508E+03	1.588004E-16	8.944038E-18
6.696429E+03	1.568382E-16	8.873253E-18
6.706349E+03	1.549162E-16	8.806533E-18
6.716270E+03	1.530329E-16	8.743641E-18
6.726190E+03	1.511864E-16	8.684344E-18
6.736111E+03	1.493747E-16	8.628385E-18
6.746032E+03	1.475956E-16	8.575510E-18
6.755952E+03	1.458466E-16	8.525449E-18
6.765873E+03	1.441256E-16	8.477965E-18
6.775794E+03	1.424306E-16	8.432818E-18
6.785714E+03	1.407600E-16	8.389804E-18
6.795635E+03	1.391131E-16	8.348769E-18
6.805556E+03	1.374900E-16	8.309617E-18
6.815476E+03	1.358988E-16	8.272746E-18
6.825397E+03	1.343312E-16	8.237565E-18
6.835317E+03	1.328012E-16	8.204854E-18
6.845238E+03	1.313235E-16	8.175468E-18
6.855159E+03	1.298950E-16	8.149182E-18
6.865079E+03	1.285310E-16	8.126936E-18
6.875000E+03	1.272464E-16	8.109671E-18
6.884921E+03	1.260372E-16	8.097172E-18
6.894841E+03	1.249230E-16	8.090735E-18
6.904762E+03	1.238987E-16	8.090091E-18
6.914683E+03	1.229817E-16	8.096469E-18
6.924603E+03	1.221712E-16	8.109915E-18
6.934524E+03	1.214657E-16	8.130446E-18
6.944444E+03	1.208798E-16	8.159164E-18
6.954365E+03	1.204103E-16	8.196001E-18
6.964286E+03	1.200534E-16	8.240856E-18
6.974206E+03	1.198216E-16	8.294735E-18
6.984127E+03	1.197093E-16	8.357440E-18
6.994048E+03	1.197112E-16	8.428758E-18
7.003968E+03	1.198372E-16	8.509583E-18
7.013889E+03	1.200806E-16	8.599620E-18
7.023810E+03	1.204392E-16	8.698904E-18
7.033730E+03	1.209049E-16	8.807037E-18
7.043651E+03	1.214856E-16	8.924780E-18
7.053571E+03	1.221720E-16	9.051633E-18
7.063492E+03	1.229540E-16	9.187031E-18
7.073413E+03	1.238377E-16	9.331609E-18
7.083333E+03	1.248119E-16	9.484690E-18
7.093254E+03	1.258642E-16	9.645491E-18
7.103175E+03	1.269990E-16	9.814501E-18
7.113095E+03	1.281965E-16	9.990328E-18
7.123016E+03	1.294602E-16	1.017337E-17
7.132937E+03	1.307682E-16	1.036202E-17
7.142857E+03	1.321229E-16	1.055654E-17
7.152778E+03	1.335009E-16	1.075515E-17
7.162698E+03	1.348966E-16	1.095744E-17
7.172619E+03	1.363043E-16	1.116297E-17
7.182540E+03	1.376982E-16	1.136966E-17
7.192460E+03	1.390717E-16	1.157691E-17
7.202381E+03	1.404111E-16	1.178353E-17
7.212302E+03	1.417026E-16	1.198830E-17
7.222222E+03	1.429325E-16	1.218995E-17
7.232143E+03	1.440871E-16	1.238718E-17
7.242063E+03	1.451461E-16	1.257808E-17
7.251984E+03	1.461108E-16	1.276257E-17
7.261905E+03	1.469551E-16	1.293815E-17
7.271825E+03	1.476822E-16	1.310487E-17
7.281746E+03	1.482681E-16	1.326032E-17
7.291667E+03	1.487114E-16	1.340410E-17
7.301587E+03	1.490050E-16	1.353527E-17
7.311508E+03	1.491436E-16	1.365302E-17
7.321429E+03	1.491165E-16	1.375602E-17
7.331349E+03	1.489359E-16	1.384509E-17
7.341270E+03	1.485876E-16	1.391854E-17
7.351190E+03	1.480801E-16	1.397683E-17
7.361111E+03	1.474241E-16	1.402063E-17
7.371032E+03	1.466030E-16	1.404803E-17
7.380952E+03	1.456444E-16	1.406133E-17
7.390873E+03	1.445489E-16	1.406029E-17
7.400794E+03	1.433181E-16	1.404476E-17
7.410714E+03	1.419687E-16	1.401609E-17
7.420635E+03	1.405109E-16	1.397504E-17
7.430556E+03	1.389554E-16	1.392243E-17
7.440476E+03	1.373133E-16	1.385915E-17
7.450397E+03	1.355891E-16	1.378547E-17
7.460317E+03	1.338006E-16	1.370302E-17
7.470238E+03	1.319587E-16	1.361275E-17
7.480159E+03	1.300739E-16	1.351563E-17
7.490079E+03	1.281562E-16	1.341257E-17
7.500000E+03	1.262091E-16	1.330384E-17
7.509921E+03	1.242479E-16	1.319097E-17
7.519841E+03	1.222809E-16	1.307477E-17
7.529762E+03	1.203096E-16	1.295540E-17
7.539683E+03	1.183529E-16	1.283485E-17
7.549603E+03	1.164051E-16	1.271252E-17
7.559524E+03	1.144778E-16	1.258968E-17
7.569444E+03	1.125701E-16	1.246625E-17
7.579365E+03	1.106973E-16	1.234396E-17
7.589286E+03	1.088517E-16	1.222203E-17
7.599206E+03	1.070364E-16	1.210083E-17
7.609127E+03	1.052643E-16	1.198189E-17
7.619048E+03	1.035264E-16	1.186426E-17
7.628968E+03	1.018294E-16	1.174878E-17
7.638889E+03	1.001743E-16	1.163565E-17
7.648810E+03	9.855650E-17	1.152442E-17
7.658730E+03	9.698163E-17	1.141581E-17
7.668651E+03	9.544965E-17	1.130992E-17
7.678571E+03	9.396025E-17	1.120680E-17
7.688492E+03	9.250869E-17	1.110596E-17
7.698413E+03	9.109903E-17	1.100797E-17
