#wls	flux	fluxerr
1.587302E+03	5.641334E-18	1.856884E-18
1.626984E+03	5.848447E-18	1.915409E-18
1.666667E+03	6.062031E-18	1.975116E-18
1.706349E+03	6.281010E-18	2.035595E-18
1.746032E+03	6.506191E-18	2.097044E-18
1.785714E+03	6.736045E-18	2.158908E-18
1.825397E+03	6.966864E-18	2.219946E-18
1.865079E+03	7.196352E-18	2.279390E-18
1.904762E+03	7.419065E-18	2.335498E-18
1.944444E+03	7.632193E-18	2.387394E-18
1.984127E+03	7.834227E-18	2.434633E-18
2.023810E+03	8.030505E-18	2.478896E-18
2.063492E+03	8.237123E-18	2.525119E-18
2.103175E+03	8.486708E-18	2.583132E-18
2.142857E+03	8.816259E-18	2.663789E-18
2.182540E+03	9.252114E-18	2.774400E-18
2.222222E+03	9.796592E-18	2.914854E-18
2.261905E+03	1.043753E-17	3.080713E-18
2.301587E+03	1.114933E-17	3.263691E-18
2.341270E+03	1.191507E-17	3.458233E-18
2.380952E+03	1.272567E-17	3.661206E-18
2.420635E+03	1.357263E-17	3.869696E-18
2.460317E+03	1.445798E-17	4.083853E-18
2.500000E+03	1.538441E-17	4.303965E-18
2.539683E+03	1.635591E-17	4.530645E-18
2.579365E+03	1.737706E-17	4.764601E-18
2.619048E+03	1.845267E-17	5.006536E-18
2.658730E+03	1.958756E-17	5.257076E-18
2.698413E+03	2.078976E-17	5.517630E-18
2.738095E+03	2.205754E-17	5.786916E-18
2.777778E+03	2.339856E-17	6.066087E-18
2.817460E+03	2.482111E-17	6.356337E-18
2.857143E+03	2.632194E-17	6.655805E-18
2.896825E+03	2.791314E-17	6.966474E-18
2.936508E+03	2.959480E-17	7.287178E-18
2.976190E+03	3.137066E-17	7.617605E-18
2.986111E+03	3.182779E-17	7.701204E-18
2.996032E+03	3.229563E-17	7.786475E-18
3.005952E+03	3.276447E-17	7.871050E-18
3.015873E+03	3.324428E-17	7.957312E-18
3.025794E+03	3.373048E-17	8.044129E-18
3.035714E+03	3.421836E-17	8.130365E-18
3.045635E+03	3.471801E-17	8.218396E-18
3.055556E+03	3.522525E-17	8.307198E-18
3.065476E+03	3.573994E-17	8.396713E-18
3.075397E+03	3.626195E-17	8.486885E-18
3.085317E+03	3.679116E-17	8.577659E-18
3.095238E+03	3.732745E-17	8.668983E-18
3.105159E+03	3.787072E-17	8.760809E-18
3.115079E+03	3.842659E-17	8.854405E-18
3.125000E+03	3.898360E-17	8.947103E-18
3.134921E+03	3.955318E-17	9.041503E-18
3.144841E+03	4.012358E-17	9.134890E-18
3.154762E+03	4.070654E-17	9.229919E-18
3.164683E+03	4.129004E-17	9.323831E-18
3.174603E+03	4.188610E-17	9.419325E-18
3.184524E+03	4.248867E-17	9.514999E-18
3.194444E+03	4.309767E-17	9.610814E-18
3.204365E+03	4.370664E-17	9.705310E-18
3.214286E+03	4.432827E-17	9.801285E-18
3.224206E+03	4.495618E-17	9.897292E-18
3.234127E+03	4.559696E-17	9.994752E-18
3.244048E+03	4.623736E-17	1.009073E-17
3.253968E+03	4.688390E-17	1.018663E-17
3.263889E+03	4.753654E-17	1.028242E-17
3.273810E+03	4.819524E-17	1.037808E-17
3.283730E+03	4.886699E-17	1.047507E-17
3.293651E+03	4.953778E-17	1.057035E-17
3.303571E+03	5.022172E-17	1.066693E-17
3.313492E+03	5.090442E-17	1.076171E-17
3.323413E+03	5.160037E-17	1.085774E-17
3.333333E+03	5.230230E-17	1.095344E-17
3.343254E+03	5.301023E-17	1.104881E-17
3.353175E+03	5.371640E-17	1.114219E-17
3.363095E+03	5.443602E-17	1.123674E-17
3.373016E+03	5.516150E-17	1.133084E-17
3.382937E+03	5.589275E-17	1.142445E-17
3.392857E+03	5.662982E-17	1.151755E-17
3.402778E+03	5.737256E-17	1.161010E-17
3.412698E+03	5.812102E-17	1.170206E-17
3.422619E+03	5.888341E-17	1.179507E-17
3.432540E+03	5.964315E-17	1.188577E-17
3.442460E+03	6.040849E-17	1.197580E-17
3.452381E+03	6.118788E-17	1.206679E-17
3.462302E+03	6.196423E-17	1.215535E-17
3.472222E+03	6.275470E-17	1.224482E-17
3.482143E+03	6.354190E-17	1.233177E-17
3.492063E+03	6.434334E-17	1.241960E-17
3.501984E+03	6.514116E-17	1.250481E-17
3.511905E+03	6.595334E-17	1.259085E-17
3.521825E+03	6.677078E-17	1.267593E-17
3.531746E+03	6.758416E-17	1.275828E-17
3.541667E+03	6.841193E-17	1.284135E-17
3.551587E+03	6.924490E-17	1.292339E-17
3.561508E+03	7.008285E-17	1.300432E-17
3.571429E+03	7.092587E-17	1.308415E-17
3.581349E+03	7.177377E-17	1.316280E-17
3.591270E+03	7.262658E-17	1.324027E-17
3.601190E+03	7.348414E-17	1.331650E-17
3.611111E+03	7.434645E-17	1.339148E-17
3.621032E+03	7.521335E-17	1.346514E-17
3.630952E+03	7.609516E-17	1.353931E-17
3.640873E+03	7.697128E-17	1.361028E-17
3.650794E+03	7.785180E-17	1.367984E-17
3.660714E+03	7.873668E-17	1.374797E-17
3.670635E+03	7.963649E-17	1.381647E-17
3.680556E+03	8.052992E-17	1.388162E-17
3.690476E+03	8.142740E-17	1.394521E-17
3.700397E+03	8.233998E-17	1.400912E-17
3.710317E+03	8.324558E-17	1.406954E-17
3.720238E+03	8.416628E-17	1.413021E-17
3.730159E+03	8.507968E-17	1.418734E-17
3.740079E+03	8.600817E-17	1.424465E-17
3.750000E+03	8.692903E-17	1.429834E-17
3.759921E+03	8.786507E-17	1.435217E-17
3.769841E+03	8.880478E-17	1.440421E-17
3.779762E+03	8.973638E-17	1.445255E-17
3.789683E+03	9.068323E-17	1.450095E-17
3.799603E+03	9.162155E-17	1.454557E-17
3.809524E+03	9.257521E-17	1.459020E-17
3.819444E+03	9.353227E-17	1.463292E-17
3.829365E+03	9.449271E-17	1.467371E-17
3.839286E+03	9.544393E-17	1.471062E-17
3.849206E+03	9.641075E-17	1.474746E-17
3.859127E+03	9.738078E-17	1.478230E-17
3.869048E+03	9.835393E-17	1.481512E-17
3.878968E+03	9.931738E-17	1.484398E-17
3.888889E+03	1.002967E-16	1.487271E-17
3.898810E+03	1.012791E-16	1.489936E-17
3.908730E+03	1.022645E-16	1.492394E-17
3.918651E+03	1.032531E-16	1.494643E-17
3.928571E+03	1.042313E-16	1.496489E-17
3.938492E+03	1.052260E-16	1.498317E-17
3.948413E+03	1.062237E-16	1.499932E-17
3.958333E+03	1.072246E-16	1.501335E-17
3.968254E+03	1.082287E-16	1.502524E-17
3.978175E+03	1.092222E-16	1.503311E-17
3.988095E+03	1.102327E-16	1.504075E-17
3.998016E+03	1.112466E-16	1.504626E-17
4.007937E+03	1.122639E-16	1.504963E-17
4.017857E+03	1.132848E-16	1.505087E-17
4.027778E+03	1.142950E-16	1.504811E-17
4.037698E+03	1.153231E-16	1.504512E-17
4.047619E+03	1.163551E-16	1.504002E-17
4.057540E+03	1.173910E-16	1.503282E-17
4.067460E+03	1.184163E-16	1.502165E-17
4.077381E+03	1.194605E-16	1.501028E-17
4.087302E+03	1.205090E-16	1.499682E-17
4.097222E+03	1.215471E-16	1.497946E-17
4.107143E+03	1.226048E-16	1.496191E-17
4.117063E+03	1.236674E-16	1.494232E-17
4.126984E+03	1.247196E-16	1.491888E-17
4.136905E+03	1.257923E-16	1.489527E-17
4.146825E+03	1.268548E-16	1.486784E-17
4.156746E+03	1.279384E-16	1.484027E-17
4.166667E+03	1.290119E-16	1.480893E-17
4.176587E+03	1.301070E-16	1.477746E-17
4.186508E+03	1.311922E-16	1.474226E-17
4.196429E+03	1.322996E-16	1.470695E-17
4.206349E+03	1.333973E-16	1.466796E-17
4.216270E+03	1.345013E-16	1.462710E-17
4.226190E+03	1.356284E-16	1.458615E-17
4.236111E+03	1.367459E-16	1.454159E-17
4.246032E+03	1.378703E-16	1.449521E-17
4.255952E+03	1.390017E-16	1.444702E-17
4.265873E+03	1.401403E-16	1.439704E-17
4.275794E+03	1.412862E-16	1.434529E-17
4.285714E+03	1.424394E-16	1.429176E-17
4.295635E+03	1.436002E-16	1.423649E-17
4.305556E+03	1.447685E-16	1.417948E-17
4.315476E+03	1.459444E-16	1.412075E-17
4.325397E+03	1.471280E-16	1.406032E-17
4.335317E+03	1.483193E-16	1.399820E-17
4.345238E+03	1.495184E-16	1.393440E-17
4.355159E+03	1.507073E-16	1.386729E-17
4.365079E+03	1.519216E-16	1.380019E-17
4.375000E+03	1.531255E-16	1.372984E-17
4.384921E+03	1.543550E-16	1.365953E-17
4.394841E+03	1.555736E-16	1.358601E-17
4.404762E+03	1.568178E-16	1.351255E-17
4.414683E+03	1.580506E-16	1.343596E-17
4.424603E+03	1.592904E-16	1.335787E-17
4.434524E+03	1.605557E-16	1.327988E-17
4.444444E+03	1.618089E-16	1.319888E-17
4.454365E+03	1.630685E-16	1.311649E-17
4.464286E+03	1.643341E-16	1.303274E-17
4.474206E+03	1.656058E-16	1.294767E-17
4.484127E+03	1.668831E-16	1.286134E-17
4.494048E+03	1.681464E-16	1.277230E-17
4.503968E+03	1.694343E-16	1.268360E-17
4.513889E+03	1.707271E-16	1.259380E-17
4.523810E+03	1.720047E-16	1.250152E-17
4.533730E+03	1.733065E-16	1.240975E-17
4.543651E+03	1.745923E-16	1.231569E-17
4.553571E+03	1.759019E-16	1.222228E-17
4.563492E+03	1.771947E-16	1.212678E-17
4.573413E+03	1.784905E-16	1.203071E-17
4.583333E+03	1.797892E-16	1.193420E-17
4.593254E+03	1.810901E-16	1.183735E-17
4.603175E+03	1.823932E-16	1.174029E-17
4.613095E+03	1.836981E-16	1.164314E-17
4.623016E+03	1.850044E-16	1.154606E-17
4.632937E+03	1.862907E-16	1.144788E-17
4.642857E+03	1.875988E-16	1.135139E-17
4.652778E+03	1.889072E-16	1.125542E-17
4.662698E+03	1.901941E-16	1.115889E-17
4.672619E+03	1.914802E-16	1.106327E-17
4.682540E+03	1.927870E-16	1.096999E-17
4.692460E+03	1.940705E-16	1.087674E-17
4.702381E+03	1.953518E-16	1.078498E-17
4.712302E+03	1.966302E-16	1.069491E-17
4.722222E+03	1.979054E-16	1.060677E-17
4.732143E+03	1.991763E-16	1.052075E-17
4.742063E+03	2.004200E-16	1.043592E-17
4.751984E+03	2.016804E-16	1.035486E-17
4.761905E+03	2.029344E-16	1.027662E-17
4.771825E+03	2.041582E-16	1.020031E-17
4.781746E+03	2.053735E-16	1.012731E-17
4.791667E+03	2.066024E-16	1.005900E-17
4.801587E+03	2.077978E-16	9.993354E-18
4.811508E+03	2.089817E-16	9.931752E-18
4.821429E+03	2.101530E-16	9.874430E-18
4.831349E+03	2.113117E-16	9.821667E-18
4.841270E+03	2.124585E-16	9.773775E-18
4.851190E+03	2.135703E-16	9.729965E-18
4.861111E+03	2.146948E-16	9.692673E-18
4.871032E+03	2.157851E-16	9.660007E-18
4.880952E+03	2.168889E-16	9.634341E-18
4.890873E+03	2.179590E-16	9.613725E-18
4.900794E+03	2.190192E-16	9.599183E-18
4.910714E+03	2.200697E-16	9.590606E-18
4.920635E+03	2.211104E-16	9.587858E-18
4.930556E+03	2.221413E-16	9.590786E-18
4.940476E+03	2.231624E-16	9.599215E-18
4.950397E+03	2.241736E-16	9.612950E-18
4.960317E+03	2.251502E-16	9.630727E-18
4.970238E+03	2.261412E-16	9.654429E-18
4.980159E+03	2.270969E-16	9.681695E-18
4.990079E+03	2.280418E-16	9.713337E-18
5.000000E+03	2.290005E-16	9.750148E-18
5.009921E+03	2.299228E-16	9.789735E-18
5.019841E+03	2.308331E-16	9.832880E-18
5.029762E+03	2.317058E-16	9.878221E-18
5.039683E+03	2.325908E-16	9.927623E-18
5.049603E+03	2.334623E-16	9.979716E-18
5.059524E+03	2.342943E-16	1.003313E-17
5.069444E+03	2.351369E-16	1.008973E-17
5.079365E+03	2.359386E-16	1.014706E-17
5.089286E+03	2.367496E-16	1.020702E-17
5.099206E+03	2.375179E-16	1.026711E-17
5.109127E+03	2.382683E-16	1.032815E-17
5.119048E+03	2.390000E-16	1.038987E-17
5.128968E+03	2.397118E-16	1.045198E-17
5.138889E+03	2.403771E-16	1.051309E-17
5.148810E+03	2.410466E-16	1.057519E-17
5.158730E+03	2.416673E-16	1.063575E-17
5.168651E+03	2.422903E-16	1.069680E-17
5.178571E+03	2.428623E-16	1.075579E-17
5.188492E+03	2.434082E-16	1.081364E-17
5.198413E+03	2.439531E-16	1.087129E-17
5.208333E+03	2.444437E-16	1.092617E-17
5.218254E+03	2.449049E-16	1.097923E-17
5.228175E+03	2.453093E-16	1.102908E-17
5.238095E+03	2.457083E-16	1.107789E-17
5.248016E+03	2.460747E-16	1.112429E-17
5.257937E+03	2.463812E-16	1.116689E-17
5.267857E+03	2.466793E-16	1.120792E-17
5.277778E+03	2.469154E-16	1.124482E-17
5.287698E+03	2.471149E-16	1.127863E-17
5.297619E+03	2.472771E-16	1.130921E-17
5.307540E+03	2.474277E-16	1.133766E-17
5.317460E+03	2.474868E-16	1.136021E-17
5.327381E+03	2.475330E-16	1.138040E-17
5.337302E+03	2.475395E-16	1.139693E-17
5.347222E+03	2.475059E-16	1.140970E-17
5.357143E+03	2.474056E-16	1.141744E-17
5.367063E+03	2.472912E-16	1.142252E-17
5.376984E+03	2.471100E-16	1.142246E-17
5.386905E+03	2.468886E-16	1.141847E-17
5.396825E+03	2.466534E-16	1.141172E-17
5.406746E+03	2.463523E-16	1.139979E-17
5.416667E+03	2.460121E-16	1.138390E-17
5.426587E+03	2.456334E-16	1.136408E-17
5.436508E+03	2.451911E-16	1.133915E-17
5.446429E+03	2.447382E-16	1.131157E-17
5.456349E+03	2.442496E-16	1.128018E-17
5.466270E+03	2.437006E-16	1.124388E-17
5.476190E+03	2.431445E-16	1.120511E-17
5.486111E+03	2.425308E-16	1.116160E-17
5.496032E+03	2.418872E-16	1.111464E-17
5.505952E+03	2.412152E-16	1.106434E-17
5.515873E+03	2.405418E-16	1.101196E-17
5.525794E+03	2.398181E-16	1.095532E-17
5.535714E+03	2.390461E-16	1.089455E-17
5.545635E+03	2.382783E-16	1.083210E-17
5.555556E+03	2.374913E-16	1.076695E-17
5.565476E+03	2.366873E-16	1.069925E-17
5.575397E+03	2.358434E-16	1.062803E-17
5.585317E+03	2.350112E-16	1.055568E-17
5.595238E+03	2.341433E-16	1.048013E-17
5.605159E+03	2.332664E-16	1.040264E-17
5.615079E+03	2.324072E-16	1.032446E-17
5.625000E+03	2.315181E-16	1.024355E-17
5.634921E+03	2.306260E-16	1.016117E-17
5.644841E+03	2.297322E-16	1.007744E-17
5.654762E+03	2.288384E-16	9.992528E-18
5.664683E+03	2.279463E-16	9.906556E-18
5.674603E+03	2.270334E-16	9.818639E-18
5.684524E+03	2.261488E-16	9.730977E-18
5.694444E+03	2.252697E-16	9.642654E-18
5.704365E+03	2.243734E-16	9.552781E-18
5.714286E+03	2.235083E-16	9.463504E-18
5.724206E+03	2.226278E-16	9.372923E-18
5.734127E+03	2.217562E-16	9.282157E-18
5.744048E+03	2.208939E-16	9.191299E-18
5.753968E+03	2.200642E-16	9.101409E-18
5.763889E+03	2.192210E-16	9.010652E-18
5.773810E+03	2.183872E-16	8.920075E-18
5.783730E+03	2.175627E-16	8.829767E-18
5.793651E+03	2.167244E-16	8.738885E-18
5.803571E+03	2.159175E-16	8.649356E-18
5.813492E+03	2.151182E-16	8.560319E-18
5.823413E+03	2.143258E-16	8.471842E-18
5.833333E+03	2.135171E-16	8.383122E-18
5.843254E+03	2.127358E-16	8.295985E-18
5.853175E+03	2.119356E-16	8.208743E-18
5.863095E+03	2.111380E-16	8.122342E-18
5.873016E+03	2.103635E-16	8.037689E-18
5.882937E+03	2.095658E-16	7.953134E-18
5.892857E+03	2.087658E-16	7.869598E-18
5.902778E+03	2.079612E-16	7.787129E-18
5.912698E+03	2.071502E-16	7.705785E-18
5.922619E+03	2.063305E-16	7.625616E-18
5.932540E+03	2.054996E-16	7.546665E-18
5.942460E+03	2.046552E-16	7.468984E-18
5.952381E+03	2.037947E-16	7.392613E-18
5.962302E+03	2.029150E-16	7.317585E-18
5.972222E+03	2.019921E-16	7.243172E-18
5.982143E+03	2.010654E-16	7.170934E-18
5.992063E+03	2.001104E-16	7.100119E-18
6.001984E+03	1.991024E-16	7.029992E-18
6.011905E+03	1.980800E-16	6.962050E-18
6.021825E+03	1.969977E-16	6.894808E-18
6.031746E+03	1.958727E-16	6.828888E-18
6.041667E+03	1.947218E-16	6.764761E-18
6.051587E+03	1.935010E-16	6.700764E-18
6.061508E+03	1.922276E-16	6.637367E-18
6.071429E+03	1.908988E-16	6.574347E-18
6.081349E+03	1.895119E-16	6.511469E-18
6.091270E+03	1.880645E-16	6.448525E-18
6.101190E+03	1.865546E-16	6.385303E-18
6.111111E+03	1.849801E-16	6.321604E-18
6.121032E+03	1.833397E-16	6.257244E-18
6.130952E+03	1.816318E-16	6.192045E-18
6.140873E+03	1.798558E-16	6.125856E-18
6.150794E+03	1.779921E-16	6.057885E-18
6.160714E+03	1.760784E-16	5.989297E-18
6.170635E+03	1.740969E-16	5.919364E-18
6.180556E+03	1.720307E-16	5.847408E-18
6.190476E+03	1.699178E-16	5.774613E-18
6.200397E+03	1.677239E-16	5.699714E-18
6.210317E+03	1.654867E-16	5.623896E-18
6.220238E+03	1.631731E-16	5.545958E-18
6.230159E+03	1.608037E-16	5.466512E-18
6.240079E+03	1.583978E-16	5.386153E-18
6.250000E+03	1.559251E-16	5.303780E-18
6.259921E+03	1.534061E-16	5.220037E-18
6.269841E+03	1.508445E-16	5.135003E-18
6.279762E+03	1.482601E-16	5.049312E-18
6.289683E+03	1.456257E-16	4.962004E-18
6.299603E+03	1.429619E-16	4.873756E-18
6.309524E+03	1.402737E-16	4.784714E-18
6.319444E+03	1.375659E-16	4.695036E-18
6.329365E+03	1.348439E-16	4.604899E-18
6.339286E+03	1.321130E-16	4.514478E-18
6.349206E+03	1.293785E-16	4.423965E-18
6.359127E+03	1.266326E-16	4.333098E-18
6.369048E+03	1.239076E-16	4.242999E-18
6.378968E+03	1.211952E-16	4.153401E-18
6.388889E+03	1.185007E-16	4.064501E-18
6.398810E+03	1.158169E-16	3.976083E-18
6.408730E+03	1.131736E-16	3.889186E-18
6.418651E+03	1.105628E-16	3.803571E-18
6.428571E+03	1.079776E-16	3.719027E-18
6.438492E+03	1.054454E-16	3.636522E-18
6.448413E+03	1.029475E-16	3.555443E-18
6.458333E+03	1.005095E-16	3.476707E-18
6.468254E+03	9.811331E-17	3.399712E-18
6.478175E+03	9.578287E-17	3.325319E-18
6.488095E+03	9.350038E-17	3.252938E-18
6.498016E+03	9.127864E-17	3.183039E-18
6.507937E+03	8.912923E-17	3.116053E-18
6.517857E+03	8.703473E-17	3.051396E-18
6.527778E+03	8.500645E-17	2.989485E-18
6.537698E+03	8.304555E-17	2.930383E-18
6.547619E+03	8.116177E-17	2.874455E-18
6.557540E+03	7.933849E-17	2.821132E-18
6.567460E+03	7.758504E-17	2.770762E-18
6.577381E+03	7.590197E-17	2.723380E-18
6.587302E+03	7.428940E-17	2.679007E-18
6.597222E+03	7.274753E-17	2.637663E-18
6.607143E+03	7.127627E-17	2.599335E-18
6.617063E+03	6.987517E-17	2.563934E-18
6.626984E+03	6.854339E-17	2.531357E-18
6.636905E+03	6.727933E-17	2.501478E-18
6.646825E+03	6.608118E-17	2.474169E-18
6.656746E+03	6.494701E-17	2.449307E-18
6.666667E+03	6.387519E-17	2.426781E-18
6.676587E+03	6.285727E-17	2.406228E-18
6.686508E+03	6.190539E-17	2.388076E-18
6.696429E+03	6.101116E-17	2.371974E-18
6.706349E+03	6.017337E-17	2.357852E-18
6.716270E+03	5.938445E-17	2.345390E-18
6.726190E+03	5.865609E-17	2.335032E-18
6.736111E+03	5.798101E-17	2.326483E-18
6.746032E+03	5.735231E-17	2.319455E-18
6.755952E+03	5.678160E-17	2.314413E-18
6.765873E+03	5.625621E-17	2.310841E-18
6.775794E+03	5.578791E-17	2.309225E-18
6.785714E+03	5.536450E-17	2.309065E-18
6.795635E+03	5.499782E-17	2.310863E-18
6.805556E+03	5.467612E-17	2.314135E-18
6.815476E+03	5.441130E-17	2.319396E-18
6.825397E+03	5.419148E-17	2.326154E-18
6.835317E+03	5.402165E-17	2.334633E-18
6.845238E+03	5.390683E-17	2.345067E-18
6.855159E+03	5.383495E-17	2.356944E-18
6.865079E+03	5.381123E-17	2.370503E-18
6.875000E+03	5.384104E-17	2.385995E-18
6.884921E+03	5.391269E-17	2.402915E-18
6.894841E+03	5.403172E-17	2.421518E-18
6.904762E+03	5.419815E-17	2.441814E-18
6.914683E+03	5.441201E-17	2.463814E-18
6.924603E+03	5.467347E-17	2.487532E-18
6.934524E+03	5.498853E-17	2.513251E-18
6.944444E+03	5.534568E-17	2.540449E-18
6.954365E+03	5.575096E-17	2.569404E-18
6.964286E+03	5.620469E-17	2.600133E-18
6.974206E+03	5.670704E-17	2.632644E-18
6.984127E+03	5.725827E-17	2.666946E-18
6.994048E+03	5.785849E-17	2.703041E-18
7.003968E+03	5.850160E-17	2.740636E-18
7.013889E+03	5.920014E-17	2.780312E-18
7.023810E+03	5.994792E-17	2.821768E-18
7.033730E+03	6.074478E-17	2.864985E-18
7.043651E+03	6.159049E-17	2.909939E-18
7.053571E+03	6.247795E-17	2.956277E-18
7.063492E+03	6.342015E-17	3.004598E-18
7.073413E+03	6.440981E-17	3.054538E-18
7.083333E+03	6.543898E-17	3.105699E-18
7.093254E+03	6.652085E-17	3.158687E-18
7.103175E+03	6.764725E-17	3.213089E-18
7.113095E+03	6.880939E-17	3.268468E-18
7.123016E+03	7.002046E-17	3.325426E-18
7.132937E+03	7.126366E-17	3.383141E-18
7.142857E+03	7.255236E-17	3.442228E-18
7.152778E+03	7.386862E-17	3.501813E-18
7.162698E+03	7.522605E-17	3.562522E-18
7.172619E+03	7.660561E-17	3.623435E-18
7.182540E+03	7.801253E-17	3.684787E-18
7.192460E+03	7.945227E-17	3.746821E-18
7.202381E+03	8.090449E-17	3.808572E-18
7.212302E+03	8.237408E-17	3.870267E-18
7.222222E+03	8.385736E-17	3.931735E-18
7.232143E+03	8.535991E-17	3.993243E-18
7.242063E+03	8.685929E-17	4.053755E-18
7.251984E+03	8.836062E-17	4.113531E-18
7.261905E+03	8.985978E-17	4.172408E-18
7.271825E+03	9.135255E-17	4.230224E-18
7.281746E+03	9.283489E-17	4.286836E-18
7.291667E+03	9.430268E-17	4.342105E-18
7.301587E+03	9.575182E-17	4.395902E-18
7.311508E+03	9.717830E-17	4.448113E-18
7.321429E+03	9.857845E-17	4.498647E-18
7.331349E+03	9.993740E-17	4.546916E-18
7.341270E+03	1.012737E-16	4.593859E-18
7.351190E+03	1.025731E-16	4.638935E-18
7.361111E+03	1.038326E-16	4.682118E-18
7.371032E+03	1.050379E-16	4.722889E-18
7.380952E+03	1.062093E-16	4.762292E-18
7.390873E+03	1.073334E-16	4.799854E-18
7.400794E+03	1.083961E-16	4.835094E-18
7.410714E+03	1.094196E-16	4.869152E-18
7.420635E+03	1.103783E-16	4.901040E-18
7.430556E+03	1.112957E-16	4.931955E-18
7.440476E+03	1.121461E-16	4.960924E-18
7.450397E+03	1.129538E-16	4.989185E-18
7.460317E+03	1.136934E-16	5.015777E-18
7.470238E+03	1.143772E-16	5.041416E-18
7.480159E+03	1.150180E-16	5.066819E-18
7.490079E+03	1.155906E-16	5.091046E-18
7.500000E+03	1.161080E-16	5.114822E-18
7.509921E+03	1.165709E-16	5.138338E-18
7.519841E+03	1.169799E-16	5.161771E-18
7.529762E+03	1.173362E-16	5.185309E-18
7.539683E+03	1.176407E-16	5.209136E-18
7.549603E+03	1.178948E-16	5.233440E-18
7.559524E+03	1.180996E-16	5.258388E-18
7.569444E+03	1.182567E-16	5.284157E-18
7.579365E+03	1.183674E-16	5.310912E-18
7.589286E+03	1.184337E-16	5.338821E-18
7.599206E+03	1.184579E-16	5.368066E-18
7.609127E+03	1.184290E-16	5.398214E-18
7.619048E+03	1.183761E-16	5.430583E-18
7.628968E+03	1.182881E-16	5.464581E-18
7.638889E+03	1.181544E-16	5.499591E-18
7.648810E+03	1.180036E-16	5.536828E-18
7.658730E+03	1.178114E-16	5.575026E-18
7.668651E+03	1.176063E-16	5.615398E-18
7.678571E+03	1.173639E-16	5.656650E-18
7.688492E+03	1.171125E-16	5.700003E-18
7.698413E+03	1.168274E-16	5.744126E-18
