#wls	flux	fluxerr
1.587302E+03	1.142599E-17	3.732264E-18
1.626984E+03	1.183803E-17	3.853465E-18
1.666667E+03	1.226161E-17	3.977161E-18
1.706349E+03	1.269437E-17	4.102511E-18
1.746032E+03	1.313773E-17	4.229904E-18
1.785714E+03	1.358605E-17	4.357452E-18
1.825397E+03	1.403631E-17	4.484125E-18
1.865079E+03	1.447891E-17	4.606817E-18
1.904762E+03	1.490765E-17	4.723551E-18
1.944444E+03	1.531433E-17	4.831753E-18
1.984127E+03	1.569312E-17	4.929638E-18
2.023810E+03	1.605721E-17	5.021404E-18
2.063492E+03	1.643856E-17	5.117021E-18
2.103175E+03	1.690186E-17	5.236418E-18
2.142857E+03	1.751987E-17	5.401614E-18
2.182540E+03	1.834345E-17	5.627452E-18
2.222222E+03	1.937534E-17	5.913737E-18
2.261905E+03	2.058604E-17	6.250427E-18
2.301587E+03	2.192982E-17	6.622732E-18
2.341270E+03	2.336453E-17	7.017197E-18
2.380952E+03	2.487018E-17	7.427249E-18
2.420635E+03	2.644093E-17	7.850630E-18
2.460317E+03	2.806689E-17	8.283915E-18
2.500000E+03	2.975087E-17	8.727457E-18
2.539683E+03	3.150836E-17	9.185272E-18
2.579365E+03	3.333619E-17	9.655840E-18
2.619048E+03	3.525198E-17	1.014364E-17
2.658730E+03	3.725143E-17	1.064671E-17
2.698413E+03	3.934638E-17	1.116771E-17
2.738095E+03	4.154279E-17	1.170750E-17
2.777778E+03	4.384611E-17	1.226676E-17
2.817460E+03	4.626127E-17	1.284593E-17
2.857143E+03	4.879261E-17	1.344523E-17
2.896825E+03	5.143581E-17	1.406245E-17
2.936508E+03	5.420968E-17	1.470166E-17
2.976190E+03	5.710004E-17	1.535788E-17
2.986111E+03	5.784312E-17	1.552508E-17
2.996032E+03	5.859355E-17	1.569327E-17
3.005952E+03	5.936048E-17	1.586488E-17
3.015873E+03	6.012583E-17	1.603505E-17
3.025794E+03	6.089910E-17	1.620632E-17
3.035714E+03	6.168107E-17	1.637886E-17
3.045635E+03	6.248092E-17	1.655509E-17
3.055556E+03	6.328112E-17	1.673035E-17
3.065476E+03	6.409083E-17	1.690703E-17
3.075397E+03	6.491961E-17	1.708763E-17
3.085317E+03	6.575746E-17	1.726950E-17
3.095238E+03	6.659394E-17	1.744986E-17
3.105159E+03	6.744894E-17	1.763392E-17
3.115079E+03	6.831217E-17	1.781896E-17
3.125000E+03	6.917287E-17	1.800215E-17
3.134921E+03	7.005166E-17	1.818884E-17
3.144841E+03	7.093792E-17	1.837626E-17
3.154762E+03	7.183143E-17	1.856431E-17
3.164683E+03	7.273197E-17	1.875293E-17
3.174603E+03	7.363932E-17	1.894204E-17
3.184524E+03	7.455327E-17	1.913157E-17
3.194444E+03	7.547364E-17	1.932145E-17
3.204365E+03	7.641165E-17	1.951453E-17
3.214286E+03	7.734437E-17	1.970493E-17
3.224206E+03	7.828292E-17	1.989548E-17
3.234127E+03	7.922712E-17	2.008612E-17
3.244048E+03	8.018875E-17	2.027981E-17
3.253968E+03	8.114385E-17	2.047047E-17
3.263889E+03	8.211629E-17	2.066411E-17
3.273810E+03	8.308161E-17	2.085455E-17
3.283730E+03	8.406416E-17	2.104790E-17
3.293651E+03	8.505157E-17	2.124103E-17
3.303571E+03	8.603102E-17	2.143073E-17
3.313492E+03	8.702760E-17	2.162324E-17
3.323413E+03	8.802849E-17	2.181534E-17
3.333333E+03	8.903369E-17	2.200703E-17
3.343254E+03	9.004285E-17	2.219820E-17
3.353175E+03	9.105597E-17	2.238885E-17
3.363095E+03	9.207271E-17	2.257886E-17
3.373016E+03	9.309308E-17	2.276824E-17
3.382937E+03	9.411683E-17	2.295690E-17
3.392857E+03	9.514372E-17	2.314478E-17
3.402778E+03	9.617367E-17	2.333185E-17
3.412698E+03	9.720644E-17	2.351804E-17
3.422619E+03	9.824189E-17	2.370330E-17
3.432540E+03	9.929424E-17	2.389104E-17
3.442460E+03	1.003347E-16	2.407431E-17
3.452381E+03	1.013772E-16	2.425648E-17
3.462302E+03	1.024364E-16	2.444103E-17
3.472222E+03	1.034828E-16	2.462088E-17
3.482143E+03	1.045456E-16	2.480302E-17
3.492063E+03	1.055951E-16	2.498035E-17
3.501984E+03	1.066609E-16	2.515988E-17
3.511905E+03	1.077279E-16	2.533805E-17
3.521825E+03	1.087805E-16	2.551116E-17
3.531746E+03	1.098492E-16	2.568639E-17
3.541667E+03	1.109186E-16	2.586010E-17
3.551587E+03	1.119725E-16	2.602851E-17
3.561508E+03	1.130423E-16	2.619894E-17
3.571429E+03	1.141121E-16	2.636769E-17
3.581349E+03	1.151816E-16	2.653467E-17
3.591270E+03	1.162507E-16	2.669985E-17
3.601190E+03	1.173026E-16	2.685939E-17
3.611111E+03	1.183700E-16	2.702079E-17
3.621032E+03	1.194362E-16	2.718020E-17
3.630952E+03	1.205011E-16	2.733760E-17
3.640873E+03	1.215644E-16	2.749293E-17
3.650794E+03	1.226259E-16	2.764617E-17
3.660714E+03	1.236854E-16	2.779722E-17
3.670635E+03	1.247600E-16	2.794995E-17
3.680556E+03	1.258148E-16	2.809653E-17
3.690476E+03	1.268669E-16	2.824081E-17
3.700397E+03	1.279162E-16	2.838274E-17
3.710317E+03	1.289622E-16	2.852227E-17
3.720238E+03	1.300050E-16	2.865936E-17
3.730159E+03	1.310621E-16	2.879792E-17
3.740079E+03	1.320974E-16	2.892999E-17
3.750000E+03	1.331287E-16	2.905951E-17
3.759921E+03	1.341559E-16	2.918643E-17
3.769841E+03	1.351970E-16	2.931471E-17
3.779762E+03	1.362151E-16	2.943632E-17
3.789683E+03	1.372284E-16	2.955524E-17
3.799603E+03	1.382554E-16	2.967543E-17
3.809524E+03	1.392585E-16	2.978885E-17
3.819444E+03	1.402561E-16	2.989946E-17
3.829365E+03	1.412671E-16	3.001130E-17
3.839286E+03	1.422535E-16	3.011627E-17
3.849206E+03	1.432338E-16	3.021837E-17
3.859127E+03	1.442274E-16	3.032166E-17
3.869048E+03	1.451955E-16	3.041800E-17
3.878968E+03	1.461767E-16	3.051549E-17
3.888889E+03	1.471318E-16	3.060599E-17
3.898810E+03	1.480803E-16	3.069356E-17
3.908730E+03	1.490418E-16	3.078229E-17
3.918651E+03	1.499767E-16	3.086399E-17
3.928571E+03	1.509245E-16	3.094685E-17
3.938492E+03	1.518453E-16	3.102265E-17
3.948413E+03	1.527588E-16	3.109553E-17
3.958333E+03	1.536854E-16	3.116959E-17
3.968254E+03	1.545844E-16	3.123660E-17
3.978175E+03	1.554965E-16	3.130484E-17
3.988095E+03	1.563808E-16	3.136606E-17
3.998016E+03	1.572575E-16	3.142437E-17
4.007937E+03	1.581474E-16	3.148397E-17
4.017857E+03	1.590092E-16	3.153659E-17
4.027778E+03	1.598633E-16	3.158638E-17
4.037698E+03	1.607309E-16	3.163750E-17
4.047619E+03	1.615701E-16	3.168173E-17
4.057540E+03	1.624017E-16	3.172323E-17
4.067460E+03	1.632471E-16	3.176614E-17
4.077381E+03	1.640637E-16	3.180223E-17
4.087302E+03	1.648729E-16	3.183567E-17
4.097222E+03	1.656747E-16	3.186652E-17
4.107143E+03	1.664906E-16	3.189889E-17
4.117063E+03	1.672777E-16	3.192461E-17
4.126984E+03	1.680575E-16	3.194782E-17
4.136905E+03	1.688301E-16	3.196857E-17
4.146825E+03	1.695954E-16	3.198688E-17
4.156746E+03	1.703537E-16	3.200281E-17
4.166667E+03	1.711266E-16	3.202048E-17
4.176587E+03	1.718707E-16	3.203174E-17
4.186508E+03	1.726078E-16	3.204071E-17
4.196429E+03	1.733379E-16	3.204746E-17
4.206349E+03	1.740610E-16	3.205200E-17
4.216270E+03	1.747772E-16	3.205438E-17
4.226190E+03	1.754642E-16	3.205055E-17
4.236111E+03	1.761665E-16	3.204871E-17
4.246032E+03	1.768620E-16	3.204481E-17
4.255952E+03	1.775506E-16	3.203886E-17
4.265873E+03	1.782322E-16	3.203092E-17
4.275794E+03	1.788844E-16	3.201696E-17
4.285714E+03	1.795520E-16	3.200511E-17
4.295635E+03	1.802126E-16	3.199131E-17
4.305556E+03	1.808434E-16	3.197163E-17
4.315476E+03	1.814897E-16	3.195407E-17
4.325397E+03	1.821059E-16	3.193066E-17
4.335317E+03	1.827373E-16	3.190941E-17
4.345238E+03	1.833384E-16	3.188235E-17
4.355159E+03	1.839547E-16	3.185746E-17
4.365079E+03	1.845402E-16	3.182682E-17
4.375000E+03	1.851176E-16	3.179440E-17
4.384921E+03	1.857096E-16	3.176414E-17
4.394841E+03	1.862703E-16	3.172818E-17
4.404762E+03	1.868223E-16	3.169047E-17
4.414683E+03	1.873654E-16	3.165101E-17
4.424603E+03	1.878993E-16	3.160980E-17
4.434524E+03	1.884238E-16	3.156684E-17
4.444444E+03	1.889387E-16	3.152215E-17
4.454365E+03	1.894435E-16	3.147569E-17
4.464286E+03	1.899381E-16	3.142749E-17
4.474206E+03	1.904222E-16	3.137754E-17
4.484127E+03	1.908720E-16	3.132201E-17
4.494048E+03	1.913341E-16	3.126857E-17
4.503968E+03	1.917612E-16	3.120956E-17
4.513889E+03	1.921999E-16	3.115260E-17
4.523810E+03	1.926029E-16	3.109010E-17
4.533730E+03	1.930169E-16	3.102961E-17
4.543651E+03	1.933945E-16	3.096361E-17
4.553571E+03	1.937823E-16	3.089959E-17
4.563492E+03	1.941330E-16	3.083005E-17
4.573413E+03	1.944698E-16	3.075877E-17
4.583333E+03	1.947922E-16	3.068572E-17
4.593254E+03	1.950998E-16	3.061090E-17
4.603175E+03	1.953923E-16	3.053431E-17
4.613095E+03	1.956692E-16	3.045593E-17
4.623016E+03	1.959301E-16	3.037577E-17
4.632937E+03	1.961512E-16	3.029020E-17
4.642857E+03	1.963789E-16	3.020646E-17
4.652778E+03	1.965894E-16	3.012091E-17
4.662698E+03	1.967586E-16	3.002995E-17
4.672619E+03	1.969332E-16	2.994076E-17
4.682540E+03	1.970655E-16	2.984616E-17
4.692460E+03	1.972022E-16	2.975326E-17
4.702381E+03	1.972957E-16	2.965496E-17
4.712302E+03	1.973690E-16	2.955478E-17
4.722222E+03	1.974215E-16	2.945271E-17
4.732143E+03	1.974528E-16	2.934872E-17
4.742063E+03	1.974621E-16	2.924279E-17
4.751984E+03	1.974490E-16	2.913490E-17
4.761905E+03	1.974130E-16	2.902502E-17
4.771825E+03	1.973536E-16	2.891315E-17
4.781746E+03	1.972470E-16	2.879587E-17
4.791667E+03	1.971393E-16	2.868000E-17
4.801587E+03	1.969839E-16	2.855878E-17
4.811508E+03	1.968269E-16	2.843895E-17
4.821429E+03	1.966221E-16	2.831383E-17
4.831349E+03	1.963928E-16	2.818678E-17
4.841270E+03	1.961396E-16	2.805787E-17
4.851190E+03	1.958856E-16	2.793042E-17
4.861111E+03	1.955859E-16	2.779797E-17
4.871032E+03	1.952640E-16	2.766389E-17
4.880952E+03	1.948980E-16	2.752506E-17
4.890873E+03	1.945342E-16	2.738801E-17
4.900794E+03	1.941508E-16	2.724963E-17
4.910714E+03	1.937258E-16	2.710686E-17
4.920635E+03	1.933055E-16	2.696611E-17
4.930556E+03	1.928453E-16	2.682117E-17
4.940476E+03	1.923912E-16	2.667840E-17
4.950397E+03	1.918989E-16	2.653163E-17
4.960317E+03	1.913917E-16	2.638406E-17
4.970238E+03	1.908703E-16	2.623578E-17
4.980159E+03	1.903573E-16	2.608984E-17
4.990079E+03	1.897871E-16	2.593724E-17
5.000000E+03	1.892266E-16	2.578710E-17
5.009921E+03	1.886542E-16	2.563644E-17
5.019841E+03	1.880703E-16	2.548528E-17
5.029762E+03	1.874539E-16	2.533075E-17
5.039683E+03	1.868487E-16	2.517875E-17
5.049603E+03	1.862119E-16	2.502345E-17
5.059524E+03	1.855869E-16	2.487067E-17
5.069444E+03	1.849312E-16	2.471469E-17
5.079365E+03	1.842666E-16	2.455838E-17
5.089286E+03	1.835932E-16	2.440175E-17
5.099206E+03	1.829325E-16	2.424760E-17
5.109127E+03	1.822216E-16	2.408759E-17
5.119048E+03	1.815238E-16	2.393004E-17
5.128968E+03	1.808182E-16	2.377219E-17
5.138889E+03	1.801050E-16	2.361403E-17
5.148810E+03	1.793638E-16	2.345284E-17
5.158730E+03	1.786358E-16	2.329403E-17
5.168651E+03	1.778803E-16	2.313223E-17
5.178571E+03	1.771382E-16	2.297275E-17
5.188492E+03	1.763690E-16	2.281030E-17
5.198413E+03	1.755931E-16	2.264753E-17
5.208333E+03	1.748305E-16	2.248696E-17
5.218254E+03	1.740415E-16	2.232348E-17
5.228175E+03	1.732462E-16	2.215965E-17
5.238095E+03	1.724251E-16	2.199296E-17
5.248016E+03	1.716177E-16	2.182843E-17
5.257937E+03	1.708044E-16	2.166356E-17
5.267857E+03	1.699854E-16	2.149833E-17
5.277778E+03	1.691416E-16	2.133033E-17
5.287698E+03	1.683119E-16	2.116445E-17
5.297619E+03	1.674582E-16	2.099588E-17
5.307540E+03	1.665999E-16	2.082705E-17
5.317460E+03	1.657562E-16	2.066033E-17
5.327381E+03	1.648896E-16	2.049104E-17
5.337302E+03	1.640196E-16	2.032160E-17
5.347222E+03	1.631463E-16	2.015202E-17
5.357143E+03	1.622705E-16	1.998236E-17
5.367063E+03	1.613924E-16	1.981265E-17
5.376984E+03	1.604946E-16	1.964074E-17
5.386905E+03	1.596139E-16	1.947114E-17
5.396825E+03	1.587327E-16	1.930168E-17
5.406746E+03	1.578338E-16	1.913026E-17
5.416667E+03	1.569535E-16	1.896128E-17
5.426587E+03	1.560572E-16	1.879054E-17
5.436508E+03	1.551634E-16	1.862027E-17
5.446429E+03	1.542728E-16	1.845053E-17
5.456349E+03	1.534035E-16	1.828350E-17
5.466270E+03	1.525217E-16	1.811510E-17
5.476190E+03	1.516456E-16	1.794752E-17
5.486111E+03	1.507762E-16	1.778085E-17
5.496032E+03	1.498974E-16	1.761319E-17
5.505952E+03	1.490440E-16	1.744863E-17
5.515873E+03	1.482000E-16	1.728526E-17
5.525794E+03	1.473663E-16	1.712318E-17
5.535714E+03	1.465274E-16	1.696057E-17
5.545635E+03	1.457173E-16	1.680137E-17
5.555556E+03	1.449040E-16	1.664187E-17
5.565476E+03	1.441050E-16	1.648405E-17
5.575397E+03	1.433373E-16	1.632986E-17
5.585317E+03	1.425695E-16	1.617568E-17
5.595238E+03	1.418188E-16	1.602345E-17
5.605159E+03	1.410858E-16	1.587323E-17
5.615079E+03	1.403717E-16	1.572512E-17
5.625000E+03	1.396769E-16	1.557916E-17
5.634921E+03	1.390025E-16	1.543542E-17
5.644841E+03	1.383491E-16	1.529396E-17
5.654762E+03	1.377019E-16	1.515312E-17
5.664683E+03	1.370925E-16	1.501637E-17
5.674603E+03	1.365062E-16	1.488202E-17
5.684524E+03	1.359280E-16	1.474845E-17
5.694444E+03	1.353892E-16	1.461901E-17
5.704365E+03	1.348597E-16	1.449041E-17
5.714286E+03	1.343551E-16	1.436432E-17
5.724206E+03	1.338908E-16	1.424234E-17
5.734127E+03	1.334369E-16	1.412124E-17
5.744048E+03	1.330088E-16	1.400264E-17
5.753968E+03	1.326066E-16	1.388651E-17
5.763889E+03	1.322303E-16	1.377282E-17
5.773810E+03	1.318800E-16	1.366153E-17
5.783730E+03	1.315557E-16	1.355260E-17
5.793651E+03	1.312572E-16	1.344599E-17
5.803571E+03	1.309843E-16	1.334164E-17
5.813492E+03	1.307223E-16	1.323801E-17
5.823413E+03	1.305001E-16	1.313800E-17
5.833333E+03	1.303026E-16	1.304005E-17
5.843254E+03	1.301149E-16	1.294264E-17
5.853175E+03	1.299656E-16	1.284857E-17
5.863095E+03	1.298251E-16	1.275488E-17
5.873016E+03	1.297072E-16	1.266291E-17
5.882937E+03	1.296257E-16	1.257398E-17
5.892857E+03	1.295507E-16	1.248513E-17
5.902778E+03	1.294961E-16	1.239768E-17
5.912698E+03	1.294606E-16	1.231151E-17
5.922619E+03	1.294579E-16	1.222786E-17
5.932540E+03	1.294576E-16	1.214386E-17
5.942460E+03	1.294733E-16	1.206074E-17
5.952381E+03	1.295033E-16	1.197835E-17
5.962302E+03	1.295464E-16	1.189656E-17
5.972222E+03	1.295865E-16	1.181390E-17
5.982143E+03	1.296509E-16	1.173285E-17
5.992063E+03	1.297234E-16	1.165193E-17
6.001984E+03	1.298022E-16	1.157097E-17
6.011905E+03	1.298707E-16	1.148851E-17
6.021825E+03	1.299558E-16	1.140696E-17
6.031746E+03	1.300410E-16	1.132485E-17
6.041667E+03	1.301093E-16	1.124076E-17
6.051587E+03	1.301874E-16	1.115701E-17
6.061508E+03	1.302437E-16	1.107093E-17
6.071429E+03	1.302901E-16	1.098360E-17
6.081349E+03	1.303386E-16	1.089607E-17
6.091270E+03	1.303573E-16	1.080570E-17
6.101190E+03	1.303580E-16	1.071356E-17
6.111111E+03	1.303526E-16	1.062069E-17
6.121032E+03	1.303094E-16	1.052453E-17
6.130952E+03	1.302405E-16	1.042616E-17
6.140873E+03	1.301436E-16	1.032547E-17
6.150794E+03	1.300164E-16	1.022236E-17
6.160714E+03	1.298568E-16	1.011677E-17
6.170635E+03	1.296627E-16	1.000861E-17
6.180556E+03	1.294324E-16	9.897876E-18
6.190476E+03	1.291644E-16	9.784546E-18
6.200397E+03	1.288571E-16	9.668624E-18
6.210317E+03	1.284949E-16	9.549070E-18
6.220238E+03	1.281057E-16	9.428085E-18
6.230159E+03	1.276739E-16	9.304650E-18
6.240079E+03	1.271990E-16	9.178848E-18
6.250000E+03	1.266663E-16	9.049765E-18
6.259921E+03	1.261038E-16	8.919574E-18
6.269841E+03	1.254834E-16	8.786397E-18
6.279762E+03	1.248331E-16	8.652372E-18
6.289683E+03	1.241255E-16	8.515722E-18
6.299603E+03	1.233890E-16	8.378564E-18
6.309524E+03	1.225967E-16	8.239204E-18
6.319444E+03	1.217773E-16	8.099731E-18
6.329365E+03	1.209045E-16	7.958535E-18
6.339286E+03	1.199937E-16	7.816788E-18
6.349206E+03	1.190599E-16	7.675603E-18
6.359127E+03	1.180781E-16	7.533502E-18
6.369048E+03	1.170638E-16	7.391618E-18
6.378968E+03	1.160192E-16	7.250231E-18
6.388889E+03	1.149595E-16	7.110408E-18
6.398810E+03	1.138611E-16	6.970801E-18
6.408730E+03	1.127398E-16	6.832505E-18
6.418651E+03	1.115979E-16	6.695778E-18
6.428571E+03	1.104383E-16	6.560891E-18
6.438492E+03	1.092636E-16	6.428099E-18
6.448413E+03	1.080765E-16	6.297650E-18
6.458333E+03	1.068798E-16	6.169788E-18
6.468254E+03	1.056762E-16	6.044747E-18
6.478175E+03	1.044682E-16	5.922744E-18
6.488095E+03	1.032470E-16	5.803339E-18
6.498016E+03	1.020384E-16	5.688051E-18
6.507937E+03	1.008334E-16	5.576401E-18
6.517857E+03	9.963407E-17	5.468560E-18
6.527778E+03	9.844295E-17	5.364687E-18
6.537698E+03	9.725129E-17	5.264340E-18
6.547619E+03	9.608330E-17	5.168848E-18
6.557540E+03	9.492985E-17	5.077725E-18
6.567460E+03	9.378242E-17	4.990521E-18
6.577381E+03	9.266403E-17	4.908459E-18
6.587302E+03	9.155540E-17	4.830505E-18
6.597222E+03	9.047899E-17	4.757828E-18
6.607143E+03	8.942580E-17	4.689929E-18
6.617063E+03	8.838731E-17	4.626331E-18
6.626984E+03	8.738491E-17	4.568119E-18
6.636905E+03	8.639986E-17	4.514271E-18
6.646825E+03	8.544308E-17	4.465311E-18
6.656746E+03	8.452483E-17	4.421682E-18
6.666667E+03	8.362661E-17	4.382261E-18
6.676587E+03	8.275872E-17	4.347426E-18
6.686508E+03	8.193107E-17	4.317543E-18
6.696429E+03	8.112561E-17	4.291507E-18
6.706349E+03	8.035228E-17	4.269694E-18
6.716270E+03	7.962070E-17	4.252473E-18
6.726190E+03	7.891337E-17	4.238776E-18
6.736111E+03	7.823996E-17	4.228986E-18
6.746032E+03	7.760104E-17	4.223013E-18
6.755952E+03	7.699740E-17	4.220785E-18
6.765873E+03	7.642966E-17	4.222233E-18
6.775794E+03	7.589863E-17	4.227304E-18
6.785714E+03	7.540498E-17	4.235950E-18
6.795635E+03	7.494957E-17	4.248142E-18
6.805556E+03	7.453322E-17	4.263862E-18
6.815476E+03	7.415671E-17	4.283098E-18
6.825397E+03	7.382036E-17	4.305821E-18
6.835317E+03	7.352372E-17	4.331969E-18
6.845238E+03	7.326625E-17	4.361479E-18
6.855159E+03	7.304760E-17	4.394308E-18
6.865079E+03	7.286728E-17	4.430410E-18
6.875000E+03	7.272494E-17	4.469755E-18
6.884921E+03	7.262021E-17	4.512316E-18
6.894841E+03	7.254467E-17	4.557568E-18
6.904762E+03	7.251449E-17	4.606529E-18
6.914683E+03	7.252117E-17	4.658685E-18
6.924603E+03	7.256450E-17	4.714041E-18
6.934524E+03	7.263596E-17	4.772060E-18
6.944444E+03	7.275181E-17	4.833833E-18
6.954365E+03	7.290349E-17	4.898836E-18
6.964286E+03	7.308234E-17	4.966514E-18
6.974206E+03	7.330468E-17	5.038010E-18
6.984127E+03	7.355316E-17	5.112178E-18
6.994048E+03	7.384431E-17	5.190203E-18
7.003968E+03	7.416038E-17	5.270891E-18
7.013889E+03	7.451785E-17	5.355453E-18
7.023810E+03	7.489879E-17	5.442654E-18
7.033730E+03	7.531936E-17	5.533710E-18
7.043651E+03	7.576155E-17	5.627352E-18
7.053571E+03	7.624139E-17	5.724813E-18
7.063492E+03	7.674030E-17	5.824751E-18
7.073413E+03	7.726570E-17	5.927761E-18
7.083333E+03	7.781597E-17	6.033762E-18
7.093254E+03	7.839860E-17	6.143386E-18
7.103175E+03	7.899405E-17	6.255145E-18
7.113095E+03	7.960926E-17	6.369613E-18
7.123016E+03	8.024242E-17	6.486677E-18
7.132937E+03	8.090077E-17	6.606959E-18
7.142857E+03	8.156349E-17	6.728792E-18
7.152778E+03	8.223763E-17	6.852763E-18
7.162698E+03	8.292084E-17	6.978692E-18
7.172619E+03	8.361069E-17	7.106385E-18
7.182540E+03	8.430460E-17	7.235629E-18
7.192460E+03	8.499994E-17	7.366201E-18
7.202381E+03	8.569414E-17	7.497869E-18
7.212302E+03	8.638457E-17	7.630395E-18
7.222222E+03	8.706839E-17	7.763510E-18
7.232143E+03	8.774303E-17	7.896964E-18
7.242063E+03	8.839546E-17	8.029545E-18
7.251984E+03	8.904352E-17	8.162833E-18
7.261905E+03	8.967445E-17	8.295633E-18
7.271825E+03	9.028558E-17	8.427654E-18
7.281746E+03	9.087461E-17	8.558629E-18
7.291667E+03	9.142854E-17	8.687270E-18
7.301587E+03	9.196627E-17	8.815302E-18
7.311508E+03	9.247518E-17	8.941468E-18
7.321429E+03	9.294254E-17	9.064456E-18
7.331349E+03	9.338807E-17	9.186106E-18
7.341270E+03	9.378847E-17	9.304060E-18
7.351190E+03	9.416420E-17	9.420253E-18
7.361111E+03	9.449199E-17	9.532284E-18
7.371032E+03	9.479293E-17	9.642187E-18
7.380952E+03	9.504392E-17	9.747529E-18
7.390873E+03	9.526654E-17	9.850427E-18
7.400794E+03	9.543800E-17	9.948441E-18
7.410714E+03	9.556916E-17	1.004259E-17
7.420635E+03	9.567113E-17	1.013397E-17
7.430556E+03	9.572155E-17	1.022011E-17
7.440476E+03	9.573188E-17	1.030214E-17
7.450397E+03	9.570238E-17	1.038000E-17
7.460317E+03	9.563369E-17	1.045365E-17
7.470238E+03	9.553750E-17	1.052430E-17
7.480159E+03	9.539232E-17	1.058951E-17
7.490079E+03	9.521019E-17	1.065051E-17
7.500000E+03	9.499202E-17	1.070731E-17
7.509921E+03	9.473888E-17	1.075996E-17
7.519841E+03	9.445198E-17	1.080852E-17
7.529762E+03	9.413260E-17	1.085306E-17
7.539683E+03	9.377109E-17	1.089237E-17
7.549603E+03	9.339109E-17	1.092912E-17
7.559524E+03	9.298297E-17	1.096211E-17
7.569444E+03	9.254832E-17	1.099144E-17
7.579365E+03	9.208877E-17	1.101722E-17
7.589286E+03	9.159518E-17	1.103827E-17
7.599206E+03	9.109086E-17	1.105732E-17
7.609127E+03	9.056663E-17	1.107322E-17
7.619048E+03	9.001353E-17	1.108478E-17
7.628968E+03	8.945458E-17	1.109479E-17
7.638889E+03	8.887018E-17	1.110076E-17
7.648810E+03	8.828303E-17	1.110547E-17
7.658730E+03	8.767366E-17	1.110644E-17
7.668651E+03	8.706441E-17	1.110644E-17
7.678571E+03	8.643595E-17	1.110299E-17
7.688492E+03	8.580000E-17	1.109754E-17
7.698413E+03	8.516794E-17	1.109154E-17
