#wls	flux	fluxerr
1.587302E+03	1.114094E-17	3.495160E-18
1.626984E+03	1.152835E-17	3.609267E-18
1.666667E+03	1.192580E-17	3.725829E-18
1.706349E+03	1.233092E-17	3.844066E-18
1.746032E+03	1.274283E-17	3.963665E-18
1.785714E+03	1.316266E-17	4.084945E-18
1.825397E+03	1.357842E-17	4.204146E-18
1.865079E+03	1.398768E-17	4.320501E-18
1.904762E+03	1.438216E-17	4.431453E-18
1.944444E+03	1.475148E-17	4.533816E-18
1.984127E+03	1.509251E-17	4.626669E-18
2.023810E+03	1.542069E-17	4.714774E-18
2.063492E+03	1.576147E-17	4.805899E-18
2.103175E+03	1.618205E-17	4.920423E-18
2.142857E+03	1.674326E-17	5.076557E-18
2.182540E+03	1.750119E-17	5.290858E-18
2.222222E+03	1.845466E-17	5.562392E-18
2.261905E+03	1.957461E-17	5.881837E-18
2.301587E+03	2.081323E-17	6.234334E-18
2.341270E+03	2.213668E-17	6.609362E-18
2.380952E+03	2.352231E-17	6.999841E-18
2.420635E+03	2.496011E-17	7.402526E-18
2.460317E+03	2.644408E-17	7.815381E-18
2.500000E+03	2.798120E-17	8.240218E-18
2.539683E+03	2.957187E-17	8.676874E-18
2.579365E+03	3.122661E-17	9.128134E-18
2.619048E+03	3.295163E-17	9.595476E-18
2.658730E+03	3.475293E-17	1.008027E-17
2.698413E+03	3.663609E-17	1.058373E-17
2.738095E+03	3.860002E-17	1.110511E-17
2.777778E+03	4.065502E-17	1.164692E-17
2.817460E+03	4.280520E-17	1.220984E-17
2.857143E+03	4.504699E-17	1.279233E-17
2.896825E+03	4.738993E-17	1.339655E-17
2.936508E+03	4.983645E-17	1.402262E-17
2.976190E+03	5.238831E-17	1.467041E-17
2.986111E+03	5.304367E-17	1.483594E-17
2.996032E+03	5.370517E-17	1.500265E-17
3.005952E+03	5.437283E-17	1.517055E-17
3.015873E+03	5.504674E-17	1.533963E-17
3.025794E+03	5.572731E-17	1.551002E-17
3.035714E+03	5.641526E-17	1.568190E-17
3.045635E+03	5.711021E-17	1.585514E-17
3.055556E+03	5.781356E-17	1.603014E-17
3.065476E+03	5.852500E-17	1.620679E-17
3.075397E+03	5.924421E-17	1.638498E-17
3.085317E+03	5.997090E-17	1.656464E-17
3.095238E+03	6.071421E-17	1.674826E-17
3.105159E+03	6.145517E-17	1.693060E-17
3.115079E+03	6.220282E-17	1.711414E-17
3.125000E+03	6.296664E-17	1.730149E-17
3.134921E+03	6.372707E-17	1.748725E-17
3.144841E+03	6.450345E-17	1.767671E-17
3.154762E+03	6.527579E-17	1.786439E-17
3.164683E+03	6.606388E-17	1.805570E-17
3.174603E+03	6.685759E-17	1.824784E-17
3.184524E+03	6.764636E-17	1.843794E-17
3.194444E+03	6.845063E-17	1.863156E-17
3.204365E+03	6.925999E-17	1.882583E-17
3.214286E+03	7.006355E-17	1.901781E-17
3.224206E+03	7.088244E-17	1.921322E-17
3.234127E+03	7.170591E-17	1.940912E-17
3.244048E+03	7.253381E-17	1.960547E-17
3.253968E+03	7.336597E-17	1.980221E-17
3.263889E+03	7.420226E-17	1.999930E-17
3.273810E+03	7.504251E-17	2.019668E-17
3.283730E+03	7.588660E-17	2.039431E-17
3.293651E+03	7.673436E-17	2.059213E-17
3.303571E+03	7.759735E-17	2.079324E-17
3.313492E+03	7.845216E-17	2.099135E-17
3.323413E+03	7.931020E-17	2.118951E-17
3.333333E+03	8.017135E-17	2.138768E-17
3.343254E+03	8.104764E-17	2.158906E-17
3.353175E+03	8.191474E-17	2.178715E-17
3.363095E+03	8.278446E-17	2.198510E-17
3.373016E+03	8.366930E-17	2.218622E-17
3.382937E+03	8.454408E-17	2.238380E-17
3.392857E+03	8.543387E-17	2.258450E-17
3.402778E+03	8.631314E-17	2.278154E-17
3.412698E+03	8.720732E-17	2.298164E-17
3.422619E+03	8.809053E-17	2.317796E-17
3.432540E+03	8.898847E-17	2.337727E-17
3.442460E+03	8.988826E-17	2.357616E-17
3.452381E+03	9.077616E-17	2.377102E-17
3.462302E+03	9.167875E-17	2.396883E-17
3.472222E+03	9.258271E-17	2.416607E-17
3.482143E+03	9.347396E-17	2.435907E-17
3.492063E+03	9.437985E-17	2.455496E-17
3.501984E+03	9.528647E-17	2.475011E-17
3.511905E+03	9.619371E-17	2.494447E-17
3.521825E+03	9.710150E-17	2.513802E-17
3.531746E+03	9.800947E-17	2.533067E-17
3.541667E+03	9.891758E-17	2.552239E-17
3.551587E+03	9.982569E-17	2.571316E-17
3.561508E+03	1.007335E-16	2.590288E-17
3.571429E+03	1.016410E-16	2.609154E-17
3.581349E+03	1.025478E-16	2.627906E-17
3.591270E+03	1.034540E-16	2.646542E-17
3.601190E+03	1.043592E-16	2.665055E-17
3.611111E+03	1.052632E-16	2.683440E-17
3.621032E+03	1.061660E-16	2.701695E-17
3.630952E+03	1.070673E-16	2.719809E-17
3.640873E+03	1.079669E-16	2.737784E-17
3.650794E+03	1.088803E-16	2.756006E-17
3.660714E+03	1.097762E-16	2.773685E-17
3.670635E+03	1.106698E-16	2.791205E-17
3.680556E+03	1.115612E-16	2.808567E-17
3.690476E+03	1.124499E-16	2.825761E-17
3.700397E+03	1.133519E-16	2.843189E-17
3.710317E+03	1.142351E-16	2.860041E-17
3.720238E+03	1.151151E-16	2.876713E-17
3.730159E+03	1.160083E-16	2.893610E-17
3.740079E+03	1.168818E-16	2.909913E-17
3.750000E+03	1.177516E-16	2.926023E-17
3.759921E+03	1.186343E-16	2.942350E-17
3.769841E+03	1.194964E-16	2.958064E-17
3.779762E+03	1.203545E-16	2.973577E-17
3.789683E+03	1.212252E-16	2.989297E-17
3.799603E+03	1.220746E-16	3.004391E-17
3.809524E+03	1.229366E-16	3.019691E-17
3.819444E+03	1.237768E-16	3.034353E-17
3.829365E+03	1.246121E-16	3.048792E-17
3.839286E+03	1.254598E-16	3.063433E-17
3.849206E+03	1.262850E-16	3.077422E-17
3.859127E+03	1.271227E-16	3.091611E-17
3.869048E+03	1.279373E-16	3.105138E-17
3.878968E+03	1.287642E-16	3.118862E-17
3.888889E+03	1.295679E-16	3.131919E-17
3.898810E+03	1.303658E-16	3.144738E-17
3.908730E+03	1.311759E-16	3.157749E-17
3.918651E+03	1.319622E-16	3.170085E-17
3.928571E+03	1.327607E-16	3.182614E-17
3.938492E+03	1.335349E-16	3.194462E-17
3.948413E+03	1.343031E-16	3.206063E-17
3.958333E+03	1.350835E-16	3.217857E-17
3.968254E+03	1.358393E-16	3.228965E-17
3.978175E+03	1.366074E-16	3.240268E-17
3.988095E+03	1.373506E-16	3.250880E-17
3.998016E+03	1.380875E-16	3.261243E-17
4.007937E+03	1.388368E-16	3.271803E-17
4.017857E+03	1.395608E-16	3.281671E-17
4.027778E+03	1.402975E-16	3.291737E-17
4.037698E+03	1.410088E-16	3.301112E-17
4.047619E+03	1.417137E-16	3.310239E-17
4.057540E+03	1.424313E-16	3.319569E-17
4.067460E+03	1.431233E-16	3.328207E-17
4.077381E+03	1.438089E-16	3.336600E-17
4.087302E+03	1.444881E-16	3.344753E-17
4.097222E+03	1.451804E-16	3.353113E-17
4.107143E+03	1.458469E-16	3.360785E-17
4.117063E+03	1.465071E-16	3.368218E-17
4.126984E+03	1.471609E-16	3.375415E-17
4.136905E+03	1.478281E-16	3.382826E-17
4.146825E+03	1.484695E-16	3.389553E-17
4.156746E+03	1.491046E-16	3.396049E-17
4.166667E+03	1.497335E-16	3.402313E-17
4.176587E+03	1.503562E-16	3.408348E-17
4.186508E+03	1.509728E-16	3.414155E-17
4.196429E+03	1.515832E-16	3.419736E-17
4.206349E+03	1.521876E-16	3.425092E-17
4.216270E+03	1.527858E-16	3.430224E-17
4.226190E+03	1.533780E-16	3.435133E-17
4.236111E+03	1.539641E-16	3.439821E-17
4.246032E+03	1.545441E-16	3.444289E-17
4.255952E+03	1.551180E-16	3.448538E-17
4.265873E+03	1.556858E-16	3.452566E-17
4.275794E+03	1.562271E-16	3.455923E-17
4.285714E+03	1.567826E-16	3.459515E-17
4.295635E+03	1.573319E-16	3.462888E-17
4.305556E+03	1.578750E-16	3.466044E-17
4.315476E+03	1.583912E-16	3.468530E-17
4.325397E+03	1.589215E-16	3.471249E-17
4.335317E+03	1.594248E-16	3.473298E-17
4.345238E+03	1.599423E-16	3.475581E-17
4.355159E+03	1.604531E-16	3.477642E-17
4.365079E+03	1.609363E-16	3.479029E-17
4.375000E+03	1.614127E-16	3.480194E-17
4.384921E+03	1.619030E-16	3.481588E-17
4.394841E+03	1.623651E-16	3.482303E-17
4.404762E+03	1.628410E-16	3.483241E-17
4.414683E+03	1.632884E-16	3.483500E-17
4.424603E+03	1.637282E-16	3.483528E-17
4.434524E+03	1.641602E-16	3.483324E-17
4.444444E+03	1.645842E-16	3.482883E-17
4.454365E+03	1.650000E-16	3.482201E-17
4.464286E+03	1.654286E-16	3.481726E-17
4.474206E+03	1.658274E-16	3.480560E-17
4.484127E+03	1.661961E-16	3.478700E-17
4.494048E+03	1.665770E-16	3.477037E-17
4.503968E+03	1.669485E-16	3.475119E-17
4.513889E+03	1.673104E-16	3.472944E-17
4.523810E+03	1.676627E-16	3.470510E-17
4.533730E+03	1.680047E-16	3.467810E-17
4.543651E+03	1.683151E-16	3.464404E-17
4.553571E+03	1.686361E-16	3.461166E-17
4.563492E+03	1.689248E-16	3.457215E-17
4.573413E+03	1.692237E-16	3.453424E-17
4.583333E+03	1.694896E-16	3.448914E-17
4.593254E+03	1.697651E-16	3.444554E-17
4.603175E+03	1.700070E-16	3.439469E-17
4.613095E+03	1.702363E-16	3.434089E-17
4.623016E+03	1.704528E-16	3.428413E-17
4.632937E+03	1.706776E-16	3.422866E-17
4.642857E+03	1.708673E-16	3.416579E-17
4.652778E+03	1.710431E-16	3.409982E-17
4.662698E+03	1.712047E-16	3.403070E-17
4.672619E+03	1.713516E-16	3.395839E-17
4.682540E+03	1.714836E-16	3.388285E-17
4.692460E+03	1.715787E-16	3.379979E-17
4.702381E+03	1.716795E-16	3.371764E-17
4.712302E+03	1.717642E-16	3.363213E-17
4.722222E+03	1.718109E-16	3.353903E-17
4.732143E+03	1.718623E-16	3.344668E-17
4.742063E+03	1.718964E-16	3.335086E-17
4.751984E+03	1.718917E-16	3.324741E-17
4.761905E+03	1.718693E-16	3.314047E-17
4.771825E+03	1.718503E-16	3.303415E-17
4.781746E+03	1.717917E-16	3.292022E-17
4.791667E+03	1.717148E-16	3.280278E-17
4.801587E+03	1.716196E-16	3.268190E-17
4.811508E+03	1.715059E-16	3.255758E-17
4.821429E+03	1.713739E-16	3.242987E-17
4.831349E+03	1.712238E-16	3.229884E-17
4.841270E+03	1.710558E-16	3.216452E-17
4.851190E+03	1.708702E-16	3.202703E-17
4.861111E+03	1.706674E-16	3.188643E-17
4.871032E+03	1.704267E-16	3.173892E-17
4.880952E+03	1.701907E-16	3.159245E-17
4.890873E+03	1.699389E-16	3.144320E-17
4.900794E+03	1.696509E-16	3.128744E-17
4.910714E+03	1.693482E-16	3.112917E-17
4.920635E+03	1.690522E-16	3.097231E-17
4.930556E+03	1.687219E-16	3.080939E-17
4.940476E+03	1.683787E-16	3.064432E-17
4.950397E+03	1.680230E-16	3.047722E-17
4.960317E+03	1.676555E-16	3.030821E-17
4.970238E+03	1.672972E-16	3.014109E-17
4.980159E+03	1.668873E-16	2.996493E-17
4.990079E+03	1.664875E-16	2.979083E-17
5.000000E+03	1.660780E-16	2.961526E-17
5.009921E+03	1.656593E-16	2.943829E-17
5.019841E+03	1.652317E-16	2.926000E-17
5.029762E+03	1.647756E-16	2.907696E-17
5.039683E+03	1.643317E-16	2.889633E-17
5.049603E+03	1.638602E-16	2.871113E-17
5.059524E+03	1.633817E-16	2.852499E-17
5.069444E+03	1.629162E-16	2.834141E-17
5.079365E+03	1.624243E-16	2.815353E-17
5.089286E+03	1.619263E-16	2.796488E-17
5.099206E+03	1.614225E-16	2.777554E-17
5.109127E+03	1.609131E-16	2.758554E-17
5.119048E+03	1.603984E-16	2.739492E-17
5.128968E+03	1.598786E-16	2.720374E-17
5.138889E+03	1.593538E-16	2.701203E-17
5.148810E+03	1.588245E-16	2.681985E-17
5.158730E+03	1.582907E-16	2.662721E-17
5.168651E+03	1.577337E-16	2.643100E-17
5.178571E+03	1.571917E-16	2.623761E-17
5.188492E+03	1.566269E-16	2.604076E-17
5.198413E+03	1.560774E-16	2.584677E-17
5.208333E+03	1.555057E-16	2.564944E-17
5.218254E+03	1.549308E-16	2.545191E-17
5.228175E+03	1.543715E-16	2.525727E-17
5.238095E+03	1.537908E-16	2.505945E-17
5.248016E+03	1.532076E-16	2.486157E-17
5.257937E+03	1.526219E-16	2.466364E-17
5.267857E+03	1.520341E-16	2.446570E-17
5.277778E+03	1.514443E-16	2.426780E-17
5.287698E+03	1.508530E-16	2.407000E-17
5.297619E+03	1.502422E-16	2.386944E-17
5.307540E+03	1.496484E-16	2.367195E-17
5.317460E+03	1.490537E-16	2.347467E-17
5.327381E+03	1.484407E-16	2.327488E-17
5.337302E+03	1.478455E-16	2.307822E-17
5.347222E+03	1.472328E-16	2.287921E-17
5.357143E+03	1.466384E-16	2.268340E-17
5.367063E+03	1.460274E-16	2.248539E-17
5.376984E+03	1.454181E-16	2.228800E-17
5.386905E+03	1.448107E-16	2.209128E-17
5.396825E+03	1.442231E-16	2.189793E-17
5.406746E+03	1.436211E-16	2.170276E-17
5.416667E+03	1.430225E-16	2.150848E-17
5.426587E+03	1.424110E-16	2.131261E-17
5.436508E+03	1.418211E-16	2.112037E-17
5.446429E+03	1.412364E-16	2.092922E-17
5.456349E+03	1.406574E-16	2.073929E-17
5.466270E+03	1.400848E-16	2.055063E-17
5.476190E+03	1.395025E-16	2.036090E-17
5.486111E+03	1.389446E-16	2.017506E-17
5.496032E+03	1.383785E-16	1.998837E-17
5.505952E+03	1.378378E-16	1.980568E-17
5.515873E+03	1.372906E-16	1.962234E-17
5.525794E+03	1.367538E-16	1.944080E-17
5.535714E+03	1.362442E-16	1.926343E-17
5.545635E+03	1.357303E-16	1.908570E-17
5.555556E+03	1.352287E-16	1.891000E-17
5.565476E+03	1.347405E-16	1.873640E-17
5.575397E+03	1.342660E-16	1.856495E-17
5.585317E+03	1.338061E-16	1.839573E-17
5.595238E+03	1.333612E-16	1.822879E-17
5.605159E+03	1.329322E-16	1.806419E-17
5.615079E+03	1.325038E-16	1.789986E-17
5.625000E+03	1.321082E-16	1.774009E-17
5.634921E+03	1.317300E-16	1.758279E-17
5.644841E+03	1.313545E-16	1.742595E-17
5.654762E+03	1.310131E-16	1.727370E-17
5.664683E+03	1.306753E-16	1.712199E-17
5.674603E+03	1.303725E-16	1.697490E-17
5.684524E+03	1.300742E-16	1.682839E-17
5.694444E+03	1.298117E-16	1.668648E-17
5.704365E+03	1.295544E-16	1.654518E-17
5.714286E+03	1.293181E-16	1.640651E-17
5.724206E+03	1.291031E-16	1.627042E-17
5.734127E+03	1.289094E-16	1.613689E-17
5.744048E+03	1.287373E-16	1.600590E-17
5.753968E+03	1.286020E-16	1.587929E-17
5.763889E+03	1.284581E-16	1.575138E-17
5.773810E+03	1.283510E-16	1.562774E-17
5.783730E+03	1.282655E-16	1.550647E-17
5.793651E+03	1.282017E-16	1.538748E-17
5.803571E+03	1.281590E-16	1.527070E-17
5.813492E+03	1.281375E-16	1.515606E-17
5.823413E+03	1.281216E-16	1.504171E-17
5.833333E+03	1.281413E-16	1.493111E-17
5.843254E+03	1.281659E-16	1.482063E-17
5.853175E+03	1.282252E-16	1.471370E-17
5.863095E+03	1.282882E-16	1.460670E-17
5.873016E+03	1.283847E-16	1.450299E-17
5.882937E+03	1.284836E-16	1.439902E-17
5.892857E+03	1.286145E-16	1.429808E-17
5.902778E+03	1.287462E-16	1.419664E-17
5.912698E+03	1.288930E-16	1.409629E-17
5.922619E+03	1.290536E-16	1.399686E-17
5.932540E+03	1.292271E-16	1.389822E-17
5.942460E+03	1.294276E-16	1.380186E-17
5.952381E+03	1.296232E-16	1.370435E-17
5.962302E+03	1.298278E-16	1.360717E-17
5.972222E+03	1.300399E-16	1.351018E-17
5.982143E+03	1.302580E-16	1.341320E-17
5.992063E+03	1.304805E-16	1.331606E-17
6.001984E+03	1.306902E-16	1.321706E-17
6.011905E+03	1.309160E-16	1.311914E-17
6.021825E+03	1.311408E-16	1.302058E-17
6.031746E+03	1.313625E-16	1.292121E-17
6.041667E+03	1.315635E-16	1.281933E-17
6.051587E+03	1.317728E-16	1.271784E-17
6.061508E+03	1.319727E-16	1.261505E-17
6.071429E+03	1.321453E-16	1.250934E-17
6.081349E+03	1.323196E-16	1.240352E-17
6.091270E+03	1.324619E-16	1.229450E-17
6.101190E+03	1.326015E-16	1.218509E-17
6.111111E+03	1.327045E-16	1.207226E-17
6.121032E+03	1.328002E-16	1.195879E-17
6.130952E+03	1.328548E-16	1.184173E-17
6.140873E+03	1.328822E-16	1.172244E-17
6.150794E+03	1.328960E-16	1.160224E-17
6.160714E+03	1.328627E-16	1.147832E-17
6.170635E+03	1.327964E-16	1.135206E-17
6.180556E+03	1.326952E-16	1.122345E-17
6.190476E+03	1.325578E-16	1.109250E-17
6.200397E+03	1.323827E-16	1.095926E-17
6.210317E+03	1.321686E-16	1.082376E-17
6.220238E+03	1.319301E-16	1.068738E-17
6.230159E+03	1.316350E-16	1.054764E-17
6.240079E+03	1.312827E-16	1.040470E-17
6.250000E+03	1.309038E-16	1.026119E-17
6.259921E+03	1.304822E-16	1.011600E-17
6.269841E+03	1.300179E-16	9.969283E-18
6.279762E+03	1.295107E-16	9.821229E-18
6.289683E+03	1.289609E-16	9.672036E-18
6.299603E+03	1.283689E-16	9.521905E-18
6.309524E+03	1.277202E-16	9.369948E-18
6.319444E+03	1.270457E-16	9.218641E-18
6.329365E+03	1.263314E-16	9.067093E-18
6.339286E+03	1.255633E-16	8.914494E-18
6.349206E+03	1.247725E-16	8.763236E-18
6.359127E+03	1.239457E-16	8.612511E-18
6.369048E+03	1.230699E-16	8.461581E-18
6.378968E+03	1.221758E-16	8.312735E-18
6.388889E+03	1.212365E-16	8.164260E-18
6.398810E+03	1.202827E-16	8.018375E-18
6.408730E+03	1.192879E-16	7.873431E-18
6.418651E+03	1.182826E-16	7.731571E-18
6.428571E+03	1.172408E-16	7.591206E-18
6.438492E+03	1.161791E-16	7.453522E-18
6.448413E+03	1.151134E-16	7.319628E-18
6.458333E+03	1.140186E-16	7.187997E-18
6.468254E+03	1.129108E-16	7.059751E-18
6.478175E+03	1.118058E-16	6.935916E-18
6.488095E+03	1.106791E-16	6.815032E-18
6.498016E+03	1.095466E-16	6.698127E-18
6.507937E+03	1.084105E-16	6.585373E-18
6.517857E+03	1.072731E-16	6.476926E-18
6.527778E+03	1.061492E-16	6.373693E-18
6.537698E+03	1.050156E-16	6.274279E-18
6.547619E+03	1.038871E-16	6.179567E-18
6.557540E+03	1.027658E-16	6.089657E-18
6.567460E+03	1.016536E-16	6.004637E-18
6.577381E+03	1.005523E-16	5.924578E-18
6.587302E+03	9.946369E-17	5.849536E-18
6.597222E+03	9.838954E-17	5.779558E-18
6.607143E+03	9.733144E-17	5.714674E-18
6.617063E+03	9.629084E-17	5.654896E-18
6.626984E+03	9.526921E-17	5.600201E-18
6.636905E+03	9.425661E-17	5.549828E-18
6.646825E+03	9.327666E-17	5.504988E-18
6.656746E+03	9.231927E-17	5.464907E-18
6.666667E+03	9.138535E-17	5.429461E-18
6.676587E+03	9.047587E-17	5.398534E-18
6.686508E+03	8.958108E-17	5.371369E-18
6.696429E+03	8.872325E-17	5.349133E-18
6.706349E+03	8.789239E-17	5.331072E-18
6.716270E+03	8.708905E-17	5.317064E-18
6.726190E+03	8.630371E-17	5.306378E-18
6.736111E+03	8.555747E-17	5.300170E-18
6.746032E+03	8.483034E-17	5.297074E-18
6.755952E+03	8.414314E-17	5.298267E-18
6.765873E+03	8.348613E-17	5.303032E-18
6.775794E+03	8.284949E-17	5.310637E-18
6.785714E+03	8.225361E-17	5.322289E-18
6.795635E+03	8.167897E-17	5.336646E-18
6.805556E+03	8.114521E-17	5.354910E-18
6.815476E+03	8.063310E-17	5.375750E-18
6.825397E+03	8.015258E-17	5.399759E-18
6.835317E+03	7.971342E-17	5.427550E-18
6.845238E+03	7.929664E-17	5.457798E-18
6.855159E+03	7.892139E-17	5.491781E-18
6.865079E+03	7.856883E-17	5.528170E-18
6.875000E+03	7.824849E-17	5.567602E-18
6.884921E+03	7.796971E-17	5.610740E-18
6.894841E+03	7.771365E-17	5.656231E-18
6.904762E+03	7.748956E-17	5.704736E-18
6.914683E+03	7.729726E-17	5.756248E-18
6.924603E+03	7.714578E-17	5.811460E-18
6.934524E+03	7.701622E-17	5.868975E-18
6.944444E+03	7.691751E-17	5.929478E-18
6.954365E+03	7.684921E-17	5.992961E-18
6.964286E+03	7.681080E-17	6.059412E-18
6.974206E+03	7.680173E-17	6.128819E-18
6.984127E+03	7.682134E-17	6.201162E-18
6.994048E+03	7.686893E-17	6.276421E-18
7.003968E+03	7.694372E-17	6.354567E-18
7.013889E+03	7.704487E-17	6.435568E-18
7.023810E+03	7.717143E-17	6.519384E-18
7.033730E+03	7.732242E-17	6.605969E-18
7.043651E+03	7.749675E-17	6.695266E-18
7.053571E+03	7.769328E-17	6.787212E-18
7.063492E+03	7.791076E-17	6.881735E-18
7.073413E+03	7.814790E-17	6.978751E-18
7.083333E+03	7.840332E-17	7.078169E-18
7.093254E+03	7.866605E-17	7.179016E-18
7.103175E+03	7.895356E-17	7.282903E-18
7.113095E+03	7.925477E-17	7.388848E-18
7.123016E+03	7.956803E-17	7.496714E-18
7.132937E+03	7.988192E-17	7.605432E-18
7.142857E+03	8.021401E-17	7.716674E-18
7.152778E+03	8.055283E-17	7.829361E-18
7.162698E+03	8.088669E-17	7.942348E-18
7.172619E+03	8.123328E-17	8.057359E-18
7.182540E+03	8.158086E-17	8.173240E-18
7.192460E+03	8.191760E-17	8.288781E-18
7.202381E+03	8.226141E-17	8.405767E-18
7.212302E+03	8.259025E-17	8.521930E-18
7.222222E+03	8.292234E-17	8.639110E-18
7.232143E+03	8.323555E-17	8.754978E-18
7.242063E+03	8.354821E-17	8.871410E-18
7.251984E+03	8.383822E-17	8.986026E-18
7.261905E+03	8.412411E-17	9.100749E-18
7.271825E+03	8.438370E-17	9.213137E-18
7.281746E+03	8.462550E-17	9.324040E-18
7.291667E+03	8.485831E-17	9.434373E-18
7.301587E+03	8.506005E-17	9.541621E-18
7.311508E+03	8.523955E-17	9.646687E-18
7.321429E+03	8.539555E-17	9.749350E-18
7.331349E+03	8.553745E-17	9.850616E-18
7.341270E+03	8.564312E-17	9.947865E-18
7.351190E+03	8.572227E-17	1.004212E-17
7.361111E+03	8.577410E-17	1.013321E-17
7.371032E+03	8.579781E-17	1.022094E-17
7.380952E+03	8.579295E-17	1.030518E-17
7.390873E+03	8.575922E-17	1.038580E-17
7.400794E+03	8.569623E-17	1.046266E-17
7.410714E+03	8.560384E-17	1.053567E-17
7.420635E+03	8.548202E-17	1.060471E-17
7.430556E+03	8.533097E-17	1.066974E-17
7.440476E+03	8.515090E-17	1.073069E-17
7.450397E+03	8.494201E-17	1.078749E-17
7.460317E+03	8.470478E-17	1.084013E-17
7.470238E+03	8.443975E-17	1.088860E-17
7.480159E+03	8.413714E-17	1.093153E-17
7.490079E+03	8.381845E-17	1.097164E-17
7.500000E+03	8.347398E-17	1.100760E-17
7.509921E+03	8.310458E-17	1.103945E-17
7.519841E+03	8.270098E-17	1.106587E-17
7.529762E+03	8.228464E-17	1.108966E-17
7.539683E+03	8.184633E-17	1.110952E-17
7.549603E+03	8.137708E-17	1.112416E-17
7.559524E+03	8.089817E-17	1.113642E-17
7.569444E+03	8.039070E-17	1.114365E-17
7.579365E+03	7.987582E-17	1.114872E-17
7.589286E+03	7.933485E-17	1.114897E-17
7.599206E+03	7.878873E-17	1.114731E-17
7.609127E+03	7.821910E-17	1.114109E-17
7.619048E+03	7.763697E-17	1.113183E-17
7.628968E+03	7.705314E-17	1.112105E-17
7.638889E+03	7.644958E-17	1.110613E-17
7.648810E+03	7.583709E-17	1.108859E-17
7.658730E+03	7.522617E-17	1.106996E-17
7.668651E+03	7.459912E-17	1.104761E-17
7.678571E+03	7.396642E-17	1.102307E-17
7.688492E+03	7.332912E-17	1.099648E-17
7.698413E+03	7.268819E-17	1.096797E-17
