#wls	flux	fluxerr
1.587302E+03	1.605697E-17	4.088540E-18
1.626984E+03	1.657974E-17	4.217648E-18
1.666667E+03	1.711020E-17	4.348323E-18
1.706349E+03	1.765066E-17	4.481128E-18
1.746032E+03	1.819669E-17	4.614913E-18
1.785714E+03	1.874314E-17	4.748354E-18
1.825397E+03	1.928560E-17	4.880316E-18
1.865079E+03	1.980722E-17	5.006519E-18
1.904762E+03	2.030285E-17	5.125670E-18
1.944444E+03	2.076152E-17	5.234999E-18
1.984127E+03	2.117185E-17	5.331661E-18
2.023810E+03	2.155555E-17	5.421145E-18
2.063492E+03	2.195547E-17	5.514221E-18
2.103175E+03	2.245718E-17	5.632312E-18
2.142857E+03	2.315098E-17	5.797906E-18
2.182540E+03	2.409986E-17	6.026515E-18
2.222222E+03	2.530631E-17	6.318433E-18
2.261905E+03	2.672711E-17	6.662537E-18
2.301587E+03	2.829883E-17	7.042732E-18
2.341270E+03	2.995873E-17	7.443173E-18
2.380952E+03	3.168367E-17	7.857937E-18
2.420635E+03	3.345309E-17	8.281774E-18
2.460317E+03	3.526874E-17	8.714976E-18
2.500000E+03	3.712721E-17	9.156551E-18
2.539683E+03	3.903335E-17	9.607543E-18
2.579365E+03	4.099996E-17	1.007093E-17
2.619048E+03	4.302654E-17	1.054640E-17
2.658730E+03	4.511839E-17	1.103504E-17
2.698413E+03	4.728817E-17	1.153973E-17
2.738095E+03	4.953252E-17	1.205941E-17
2.777778E+03	5.186332E-17	1.259670E-17
2.817460E+03	5.427506E-17	1.314999E-17
2.857143E+03	5.676942E-17	1.371939E-17
2.896825E+03	5.934728E-17	1.430481E-17
2.936508E+03	6.201906E-17	1.490844E-17
2.976190E+03	6.478532E-17	1.553005E-17
2.986111E+03	6.548454E-17	1.568652E-17
2.996032E+03	6.618880E-17	1.584388E-17
3.005952E+03	6.690914E-17	1.600476E-17
3.015873E+03	6.762365E-17	1.616393E-17
3.025794E+03	6.834379E-17	1.632410E-17
3.035714E+03	6.908177E-17	1.648820E-17
3.045635E+03	6.981443E-17	1.665069E-17
3.055556E+03	7.056636E-17	1.681742E-17
3.065476E+03	7.131402E-17	1.698278E-17
3.075397E+03	7.208034E-17	1.715223E-17
3.085317E+03	7.285333E-17	1.732289E-17
3.095238E+03	7.362056E-17	1.749181E-17
3.105159E+03	7.440570E-17	1.766461E-17
3.115079E+03	7.518417E-17	1.783544E-17
3.125000E+03	7.598018E-17	1.801004E-17
3.134921E+03	7.678122E-17	1.818544E-17
3.144841E+03	7.757433E-17	1.835856E-17
3.154762E+03	7.838448E-17	1.853531E-17
3.164683E+03	7.919886E-17	1.871265E-17
3.174603E+03	8.000418E-17	1.888743E-17
3.184524E+03	8.082617E-17	1.906573E-17
3.194444E+03	8.165168E-17	1.924442E-17
3.204365E+03	8.248049E-17	1.942346E-17
3.214286E+03	8.329884E-17	1.959961E-17
3.224206E+03	8.413351E-17	1.977915E-17
3.234127E+03	8.497086E-17	1.995887E-17
3.244048E+03	8.581071E-17	2.013872E-17
3.253968E+03	8.665286E-17	2.031866E-17
3.263889E+03	8.749714E-17	2.049863E-17
3.273810E+03	8.834338E-17	2.067859E-17
3.283730E+03	8.917696E-17	2.085512E-17
3.293651E+03	9.002647E-17	2.103490E-17
3.303571E+03	9.087735E-17	2.121452E-17
3.313492E+03	9.172950E-17	2.139394E-17
3.323413E+03	9.258281E-17	2.157315E-17
3.333333E+03	9.343701E-17	2.175206E-17
3.343254E+03	9.429200E-17	2.193065E-17
3.353175E+03	9.514751E-17	2.210886E-17
3.363095E+03	9.600357E-17	2.228668E-17
3.373016E+03	9.685990E-17	2.246405E-17
3.382937E+03	9.771625E-17	2.264091E-17
3.392857E+03	9.857265E-17	2.281725E-17
3.402778E+03	9.942885E-17	2.299302E-17
3.412698E+03	1.003007E-16	2.317185E-17
3.422619E+03	1.011561E-16	2.334636E-17
3.432540E+03	1.020107E-16	2.352016E-17
3.442460E+03	1.028645E-16	2.369320E-17
3.452381E+03	1.037173E-16	2.386545E-17
3.462302E+03	1.045687E-16	2.403686E-17
3.472222E+03	1.054189E-16	2.420740E-17
3.482143E+03	1.062675E-16	2.437703E-17
3.492063E+03	1.071314E-16	2.454959E-17
3.501984E+03	1.079764E-16	2.471724E-17
3.511905E+03	1.088193E-16	2.488386E-17
3.521825E+03	1.096600E-16	2.504937E-17
3.531746E+03	1.104982E-16	2.521375E-17
3.541667E+03	1.113514E-16	2.538094E-17
3.551587E+03	1.121843E-16	2.554292E-17
3.561508E+03	1.130141E-16	2.570361E-17
3.571429E+03	1.138408E-16	2.586299E-17
3.581349E+03	1.146821E-16	2.602509E-17
3.591270E+03	1.155019E-16	2.618169E-17
3.601190E+03	1.163178E-16	2.633682E-17
3.611111E+03	1.171483E-16	2.649463E-17
3.621032E+03	1.179563E-16	2.664674E-17
3.630952E+03	1.187599E-16	2.679724E-17
3.640873E+03	1.195589E-16	2.694610E-17
3.650794E+03	1.203722E-16	2.709753E-17
3.660714E+03	1.211616E-16	2.724299E-17
3.670635E+03	1.219460E-16	2.738667E-17
3.680556E+03	1.227442E-16	2.753284E-17
3.690476E+03	1.235178E-16	2.767285E-17
3.700397E+03	1.242856E-16	2.781095E-17
3.710317E+03	1.250671E-16	2.795147E-17
3.720238E+03	1.258231E-16	2.808565E-17
3.730159E+03	1.265728E-16	2.821778E-17
3.740079E+03	1.273358E-16	2.835224E-17
3.750000E+03	1.280725E-16	2.848021E-17
3.759921E+03	1.288022E-16	2.860599E-17
3.769841E+03	1.295451E-16	2.873405E-17
3.779762E+03	1.302608E-16	2.885543E-17
3.789683E+03	1.309691E-16	2.897453E-17
3.799603E+03	1.316902E-16	2.909582E-17
3.809524E+03	1.323834E-16	2.921029E-17
3.819444E+03	1.330686E-16	2.932237E-17
3.829365E+03	1.337666E-16	2.943660E-17
3.839286E+03	1.344356E-16	2.954383E-17
3.849206E+03	1.350964E-16	2.964861E-17
3.859127E+03	1.357696E-16	2.975545E-17
3.869048E+03	1.364133E-16	2.985519E-17
3.878968E+03	1.370483E-16	2.995239E-17
3.888889E+03	1.376956E-16	3.005161E-17
3.898810E+03	1.383127E-16	3.014362E-17
3.908730E+03	1.389206E-16	3.023299E-17
3.918651E+03	1.395408E-16	3.032438E-17
3.928571E+03	1.401302E-16	3.040844E-17
3.938492E+03	1.407102E-16	3.048982E-17
3.948413E+03	1.413023E-16	3.057319E-17
3.958333E+03	1.418631E-16	3.064916E-17
3.968254E+03	1.424142E-16	3.072240E-17
3.978175E+03	1.429772E-16	3.079757E-17
3.988095E+03	1.435087E-16	3.086533E-17
3.998016E+03	1.440301E-16	3.093031E-17
4.007937E+03	1.445416E-16	3.099252E-17
4.017857E+03	1.450651E-16	3.105668E-17
4.027778E+03	1.455563E-16	3.111334E-17
4.037698E+03	1.460374E-16	3.116720E-17
4.047619E+03	1.465083E-16	3.121829E-17
4.057540E+03	1.469913E-16	3.127132E-17
4.067460E+03	1.474418E-16	3.131684E-17
4.077381E+03	1.478819E-16	3.135957E-17
4.087302E+03	1.483117E-16	3.139951E-17
4.097222E+03	1.487312E-16	3.143666E-17
4.107143E+03	1.491629E-16	3.147580E-17
4.117063E+03	1.495618E-16	3.150743E-17
4.126984E+03	1.499502E-16	3.153627E-17
4.136905E+03	1.503284E-16	3.156238E-17
4.146825E+03	1.506962E-16	3.158573E-17
4.156746E+03	1.510535E-16	3.160633E-17
4.166667E+03	1.514006E-16	3.162421E-17
4.176587E+03	1.517602E-16	3.164413E-17
4.186508E+03	1.520866E-16	3.165657E-17
4.196429E+03	1.524027E-16	3.166630E-17
4.206349E+03	1.527084E-16	3.167335E-17
4.216270E+03	1.530039E-16	3.167771E-17
4.226190E+03	1.532891E-16	3.167942E-17
4.236111E+03	1.535640E-16	3.167846E-17
4.246032E+03	1.538286E-16	3.167484E-17
4.255952E+03	1.540829E-16	3.166857E-17
4.265873E+03	1.543270E-16	3.165970E-17
4.275794E+03	1.545607E-16	3.164817E-17
4.285714E+03	1.547842E-16	3.163405E-17
4.295635E+03	1.549743E-16	3.161260E-17
4.305556E+03	1.551773E-16	3.159328E-17
4.315476E+03	1.553698E-16	3.157136E-17
4.325397E+03	1.555521E-16	3.154685E-17
4.335317E+03	1.557240E-16	3.151977E-17
4.345238E+03	1.558855E-16	3.149011E-17
4.355159E+03	1.560135E-16	3.145321E-17
4.365079E+03	1.561542E-16	3.141842E-17
4.375000E+03	1.562844E-16	3.138107E-17
4.384921E+03	1.564042E-16	3.134117E-17
4.394841E+03	1.564902E-16	3.129406E-17
4.404762E+03	1.565886E-16	3.124904E-17
4.414683E+03	1.566764E-16	3.120144E-17
4.424603E+03	1.567304E-16	3.114669E-17
4.434524E+03	1.567967E-16	3.109400E-17
4.444444E+03	1.568521E-16	3.103873E-17
4.454365E+03	1.568733E-16	3.097632E-17
4.464286E+03	1.569068E-16	3.091593E-17
4.474206E+03	1.569059E-16	3.084843E-17
4.484127E+03	1.569170E-16	3.078289E-17
4.494048E+03	1.568937E-16	3.071025E-17
4.503968E+03	1.568821E-16	3.063957E-17
4.513889E+03	1.568360E-16	3.056180E-17
4.523810E+03	1.568014E-16	3.048594E-17
4.533730E+03	1.567321E-16	3.040303E-17
4.543651E+03	1.566512E-16	3.031756E-17
4.553571E+03	1.565813E-16	3.023392E-17
4.563492E+03	1.564767E-16	3.014329E-17
4.573413E+03	1.563601E-16	3.005007E-17
4.583333E+03	1.562542E-16	2.995866E-17
4.593254E+03	1.561134E-16	2.986029E-17
4.603175E+03	1.559605E-16	2.975937E-17
4.613095E+03	1.557952E-16	2.965586E-17
4.623016E+03	1.556177E-16	2.954981E-17
4.632937E+03	1.554504E-16	2.944550E-17
4.642857E+03	1.552481E-16	2.933435E-17
4.652778E+03	1.550334E-16	2.922069E-17
4.662698E+03	1.548062E-16	2.910450E-17
4.672619E+03	1.545666E-16	2.898582E-17
4.682540E+03	1.543145E-16	2.886467E-17
4.692460E+03	1.540500E-16	2.874108E-17
4.702381E+03	1.537731E-16	2.861505E-17
4.712302E+03	1.534839E-16	2.848663E-17
4.722222E+03	1.531602E-16	2.835174E-17
4.732143E+03	1.528465E-16	2.821863E-17
4.742063E+03	1.525207E-16	2.808324E-17
4.751984E+03	1.521829E-16	2.794559E-17
4.761905E+03	1.518333E-16	2.780574E-17
4.771825E+03	1.514500E-16	2.765971E-17
4.781746E+03	1.510771E-16	2.751557E-17
4.791667E+03	1.506928E-16	2.736938E-17
4.801587E+03	1.502757E-16	2.721725E-17
4.811508E+03	1.498694E-16	2.706711E-17
4.821429E+03	1.494522E-16	2.691506E-17
4.831349E+03	1.490032E-16	2.675733E-17
4.841270E+03	1.485655E-16	2.660171E-17
4.851190E+03	1.480966E-16	2.644058E-17
4.861111E+03	1.476393E-16	2.628161E-17
4.871032E+03	1.471516E-16	2.611735E-17
4.880952E+03	1.466760E-16	2.595535E-17
4.890873E+03	1.461707E-16	2.578822E-17
4.900794E+03	1.456572E-16	2.561980E-17
4.910714E+03	1.451567E-16	2.545380E-17
4.920635E+03	1.446278E-16	2.528298E-17
4.930556E+03	1.440918E-16	2.511108E-17
4.940476E+03	1.435491E-16	2.493822E-17
4.950397E+03	1.430001E-16	2.476445E-17
4.960317E+03	1.424655E-16	2.459336E-17
4.970238E+03	1.419050E-16	2.441801E-17
4.980159E+03	1.413392E-16	2.424197E-17
4.990079E+03	1.407688E-16	2.406537E-17
5.000000E+03	1.401942E-16	2.388828E-17
5.009921E+03	1.396156E-16	2.371075E-17
5.019841E+03	1.390336E-16	2.353290E-17
5.029762E+03	1.384486E-16	2.335480E-17
5.039683E+03	1.378610E-16	2.317650E-17
5.049603E+03	1.372712E-16	2.299812E-17
5.059524E+03	1.366602E-16	2.281646E-17
5.069444E+03	1.360673E-16	2.263813E-17
5.079365E+03	1.354735E-16	2.245992E-17
5.089286E+03	1.348792E-16	2.228191E-17
5.099206E+03	1.342657E-16	2.210103E-17
5.109127E+03	1.336715E-16	2.192365E-17
5.119048E+03	1.330780E-16	2.174666E-17
5.128968E+03	1.324668E-16	2.156709E-17
5.138889E+03	1.318759E-16	2.139115E-17
5.148810E+03	1.312681E-16	2.121278E-17
5.158730E+03	1.306813E-16	2.103811E-17
5.168651E+03	1.300786E-16	2.086119E-17
5.178571E+03	1.294972E-16	2.068803E-17
5.188492E+03	1.289009E-16	2.051278E-17
5.198413E+03	1.283265E-16	2.034135E-17
5.208333E+03	1.277379E-16	2.016798E-17
5.218254E+03	1.271538E-16	1.999565E-17
5.228175E+03	1.265923E-16	1.982719E-17
5.238095E+03	1.260180E-16	1.965702E-17
5.248016E+03	1.254490E-16	1.948802E-17
5.257937E+03	1.248858E-16	1.932023E-17
5.267857E+03	1.243285E-16	1.915368E-17
5.277778E+03	1.237776E-16	1.898841E-17
5.287698E+03	1.232507E-16	1.882711E-17
5.297619E+03	1.227131E-16	1.866449E-17
5.307540E+03	1.221826E-16	1.850325E-17
5.317460E+03	1.216595E-16	1.834341E-17
5.327381E+03	1.211442E-16	1.818503E-17
5.337302E+03	1.206367E-16	1.802812E-17
5.347222E+03	1.201204E-16	1.787017E-17
5.357143E+03	1.196295E-16	1.771630E-17
5.367063E+03	1.191472E-16	1.756395E-17
5.376984E+03	1.186739E-16	1.741318E-17
5.386905E+03	1.182095E-16	1.726397E-17
5.396825E+03	1.177544E-16	1.711636E-17
5.406746E+03	1.172923E-16	1.696796E-17
5.416667E+03	1.168564E-16	1.682360E-17
5.426587E+03	1.164304E-16	1.668087E-17
5.436508E+03	1.159981E-16	1.653746E-17
5.446429E+03	1.155924E-16	1.639804E-17
5.456349E+03	1.151809E-16	1.625799E-17
5.466270E+03	1.147962E-16	1.612192E-17
5.476190E+03	1.144060E-16	1.598526E-17
5.486111E+03	1.140431E-16	1.585255E-17
5.496032E+03	1.136750E-16	1.571930E-17
5.505952E+03	1.133342E-16	1.558994E-17
5.515873E+03	1.129888E-16	1.546009E-17
5.525794E+03	1.126549E-16	1.533195E-17
5.535714E+03	1.123485E-16	1.520764E-17
5.545635E+03	1.120381E-16	1.508289E-17
5.555556E+03	1.117394E-16	1.495980E-17
5.565476E+03	1.114684E-16	1.484049E-17
5.575397E+03	1.111937E-16	1.472075E-17
5.585317E+03	1.109311E-16	1.460266E-17
5.595238E+03	1.106807E-16	1.448620E-17
5.605159E+03	1.104426E-16	1.437139E-17
5.615079E+03	1.102167E-16	1.425817E-17
5.625000E+03	1.100031E-16	1.414654E-17
5.634921E+03	1.098018E-16	1.403648E-17
5.644841E+03	1.096128E-16	1.392796E-17
5.654762E+03	1.094361E-16	1.382096E-17
5.664683E+03	1.092716E-16	1.371544E-17
5.674603E+03	1.091193E-16	1.361138E-17
5.684524E+03	1.089791E-16	1.350875E-17
5.694444E+03	1.088510E-16	1.340751E-17
5.704365E+03	1.087348E-16	1.330762E-17
5.714286E+03	1.086302E-16	1.320904E-17
5.724206E+03	1.085373E-16	1.311173E-17
5.734127E+03	1.084405E-16	1.301383E-17
5.744048E+03	1.083702E-16	1.291894E-17
5.753968E+03	1.083108E-16	1.282519E-17
5.763889E+03	1.082468E-16	1.273072E-17
5.773810E+03	1.082084E-16	1.263908E-17
5.783730E+03	1.081799E-16	1.254840E-17
5.793651E+03	1.081460E-16	1.245689E-17
5.803571E+03	1.081364E-16	1.236796E-17
5.813492E+03	1.081205E-16	1.227811E-17
5.823413E+03	1.081281E-16	1.219069E-17
5.833333E+03	1.081282E-16	1.210222E-17
5.843254E+03	1.081509E-16	1.201603E-17
5.853175E+03	1.081650E-16	1.192868E-17
5.863095E+03	1.082004E-16	1.184342E-17
5.873016E+03	1.082259E-16	1.175687E-17
5.882937E+03	1.082713E-16	1.167224E-17
5.892857E+03	1.083056E-16	1.158618E-17
5.902778E+03	1.083429E-16	1.150025E-17
5.912698E+03	1.083979E-16	1.141597E-17
5.922619E+03	1.084391E-16	1.133005E-17
5.932540E+03	1.084810E-16	1.124402E-17
5.942460E+03	1.085226E-16	1.115779E-17
5.952381E+03	1.085782E-16	1.107284E-17
5.962302E+03	1.086163E-16	1.098596E-17
5.972222E+03	1.086513E-16	1.089865E-17
5.982143E+03	1.086819E-16	1.081083E-17
5.992063E+03	1.087073E-16	1.072241E-17
6.001984E+03	1.087262E-16	1.063332E-17
6.011905E+03	1.087377E-16	1.054351E-17
6.021825E+03	1.087558E-16	1.045435E-17
6.031746E+03	1.087490E-16	1.036284E-17
6.041667E+03	1.087314E-16	1.027042E-17
6.051587E+03	1.087018E-16	1.017701E-17
6.061508E+03	1.086593E-16	1.008258E-17
6.071429E+03	1.085875E-16	9.985673E-18
6.081349E+03	1.085156E-16	9.889067E-18
6.091270E+03	1.084276E-16	9.791331E-18
6.101190E+03	1.083224E-16	9.692440E-18
6.111111E+03	1.081990E-16	9.592365E-18
6.121032E+03	1.080566E-16	9.491116E-18
6.130952E+03	1.078942E-16	9.388687E-18
6.140873E+03	1.077110E-16	9.285088E-18
6.150794E+03	1.074913E-16	9.179054E-18
6.160714E+03	1.072645E-16	9.073202E-18
6.170635E+03	1.070149E-16	8.966262E-18
6.180556E+03	1.067420E-16	8.858280E-18
6.190476E+03	1.064305E-16	8.748094E-18
6.200397E+03	1.061099E-16	8.638230E-18
6.210317E+03	1.057649E-16	8.527510E-18
6.220238E+03	1.053805E-16	8.414845E-18
6.230159E+03	1.049864E-16	8.302699E-18
6.240079E+03	1.045529E-16	8.188814E-18
6.250000E+03	1.041095E-16	8.075607E-18
6.259921E+03	1.036417E-16	7.962029E-18
6.269841E+03	1.031352E-16	7.847089E-18
6.279762E+03	1.026194E-16	7.733123E-18
6.289683E+03	1.020660E-16	7.618082E-18
6.299603E+03	1.015040E-16	7.504236E-18
6.309524E+03	1.009056E-16	7.389602E-18
6.319444E+03	1.002997E-16	7.276405E-18
6.329365E+03	9.965908E-17	7.162737E-18
6.339286E+03	9.899855E-17	7.049764E-18
6.349206E+03	9.833286E-17	6.938607E-18
6.359127E+03	9.763532E-17	6.827450E-18
6.369048E+03	9.693435E-17	6.718362E-18
6.378968E+03	9.620379E-17	6.609589E-18
6.388889E+03	9.545851E-17	6.502235E-18
6.398810E+03	9.471291E-17	6.397332E-18
6.408730E+03	9.394152E-17	6.293209E-18
6.418651E+03	9.315893E-17	6.190909E-18
6.428571E+03	9.236656E-17	6.090573E-18
6.438492E+03	9.157841E-17	5.993161E-18
6.448413E+03	9.077002E-17	5.897103E-18
6.458333E+03	8.995569E-17	5.803371E-18
6.468254E+03	8.913682E-17	5.712083E-18
6.478175E+03	8.832696E-17	5.624125E-18
6.488095E+03	8.750267E-17	5.538016E-18
6.498016E+03	8.667770E-17	5.454648E-18
6.507937E+03	8.585333E-17	5.374108E-18
6.517857E+03	8.503088E-17	5.296480E-18
6.527778E+03	8.421154E-17	5.221836E-18
6.537698E+03	8.339657E-17	5.150245E-18
6.547619E+03	8.258716E-17	5.081768E-18
6.557540E+03	8.178436E-17	5.016452E-18
6.567460E+03	8.100077E-17	4.955046E-18
6.577381E+03	8.021444E-17	4.896180E-18
6.587302E+03	7.943792E-17	4.840592E-18
6.597222E+03	7.867219E-17	4.788309E-18
6.607143E+03	7.791814E-17	4.739348E-18
6.617063E+03	7.716575E-17	4.693059E-18
6.626984E+03	7.643763E-17	4.650759E-18
6.636905E+03	7.572349E-17	4.611733E-18
6.646825E+03	7.502398E-17	4.575918E-18
6.656746E+03	7.433970E-17	4.543251E-18
6.666667E+03	7.367122E-17	4.513670E-18
6.676587E+03	7.301900E-17	4.487103E-18
6.686508E+03	7.238348E-17	4.463485E-18
6.696429E+03	7.176519E-17	4.442753E-18
6.706349E+03	7.115444E-17	4.424215E-18
6.716270E+03	7.057176E-17	4.409058E-18
6.726190E+03	7.000741E-17	4.396593E-18
6.736111E+03	6.946178E-17	4.386766E-18
6.746032E+03	6.893527E-17	4.379525E-18
6.755952E+03	6.841867E-17	4.374208E-18
6.765873E+03	6.793176E-17	4.372009E-18
6.775794E+03	6.746536E-17	4.372280E-18
6.785714E+03	6.701999E-17	4.374998E-18
6.795635E+03	6.658688E-17	4.379531E-18
6.805556E+03	6.618547E-17	4.387105E-18
6.815476E+03	6.580692E-17	4.397102E-18
6.825397E+03	6.544215E-17	4.408871E-18
6.835317E+03	6.510906E-17	4.423580E-18
6.845238E+03	6.479778E-17	4.440539E-18
6.855159E+03	6.449866E-17	4.459054E-18
6.865079E+03	6.422947E-17	4.480323E-18
6.875000E+03	6.397161E-17	4.503035E-18
6.884921E+03	6.374281E-17	4.528413E-18
6.894841E+03	6.352473E-17	4.555146E-18
6.904762E+03	6.333507E-17	4.584483E-18
6.914683E+03	6.316457E-17	4.615759E-18
6.924603E+03	6.300410E-17	4.648292E-18
6.934524E+03	6.287126E-17	4.683369E-18
6.944444E+03	6.274801E-17	4.719653E-18
6.954365E+03	6.265186E-17	4.758451E-18
6.964286E+03	6.256479E-17	4.798407E-18
6.974206E+03	6.249536E-17	4.840165E-18
6.984127E+03	6.245207E-17	4.884397E-18
6.994048E+03	6.241686E-17	4.929705E-18
7.003968E+03	6.240701E-17	4.977452E-18
7.013889E+03	6.240440E-17	5.026211E-18
7.023810E+03	6.241739E-17	5.076650E-18
7.033730E+03	6.245428E-17	5.129462E-18
7.043651E+03	6.249686E-17	5.183168E-18
7.053571E+03	6.255335E-17	5.238446E-18
7.063492E+03	6.263201E-17	5.296007E-18
7.073413E+03	6.271445E-17	5.354312E-18
7.083333E+03	6.280884E-17	5.414052E-18
7.093254E+03	6.292336E-17	5.475953E-18
7.103175E+03	6.303946E-17	5.538412E-18
7.113095E+03	6.316524E-17	5.602135E-18
7.123016E+03	6.329991E-17	5.667057E-18
7.132937E+03	6.345164E-17	5.733923E-18
7.142857E+03	6.360160E-17	5.801042E-18
7.152778E+03	6.375791E-17	5.869142E-18
7.162698E+03	6.391967E-17	5.938140E-18
7.172619E+03	6.408600E-17	6.007953E-18
7.182540E+03	6.425597E-17	6.078492E-18
7.192460E+03	6.443785E-17	6.150540E-18
7.202381E+03	6.461240E-17	6.222265E-18
7.212302E+03	6.478784E-17	6.294431E-18
7.222222E+03	6.496322E-17	6.366938E-18
7.232143E+03	6.513764E-17	6.439684E-18
7.242063E+03	6.531016E-17	6.512561E-18
7.251984E+03	6.547987E-17	6.585464E-18
7.261905E+03	6.564588E-17	6.658283E-18
7.271825E+03	6.580729E-17	6.730908E-18
7.281746E+03	6.596325E-17	6.803228E-18
7.291667E+03	6.611288E-17	6.875131E-18
7.301587E+03	6.625539E-17	6.946505E-18
7.311508E+03	6.638996E-17	7.017240E-18
7.321429E+03	6.651583E-17	7.087224E-18
7.331349E+03	6.663227E-17	7.156349E-18
7.341270E+03	6.673855E-17	7.224506E-18
7.351190E+03	6.683403E-17	7.291588E-18
7.361111E+03	6.691808E-17	7.357495E-18
7.371032E+03	6.698053E-17	7.421063E-18
7.380952E+03	6.703998E-17	7.484306E-18
7.390873E+03	6.708638E-17	7.546081E-18
7.400794E+03	6.711927E-17	7.606296E-18
7.410714E+03	6.713824E-17	7.664867E-18
7.420635E+03	6.714294E-17	7.721711E-18
7.430556E+03	6.712345E-17	7.775638E-18
7.440476E+03	6.709873E-17	7.828798E-18
7.450397E+03	6.705897E-17	7.880018E-18
7.460317E+03	6.700401E-17	7.929238E-18
7.470238E+03	6.692414E-17	7.975259E-18
7.480159E+03	6.683848E-17	8.020312E-18
7.490079E+03	6.673744E-17	8.063220E-18
7.500000E+03	6.661149E-17	8.102782E-18
7.509921E+03	6.647982E-17	8.141286E-18
7.519841E+03	6.633300E-17	8.177551E-18
7.529762E+03	6.616167E-17	8.210380E-18
7.539683E+03	6.598511E-17	8.242115E-18
7.549603E+03	6.578456E-17	8.270386E-18
7.559524E+03	6.557928E-17	8.297568E-18
7.569444E+03	6.536008E-17	8.322480E-18
7.579365E+03	6.511797E-17	8.343933E-18
7.589286E+03	6.487210E-17	8.364342E-18
7.599206E+03	6.460419E-17	8.381325E-18
7.609127E+03	6.433333E-17	8.397320E-18
7.619048E+03	6.404141E-17	8.409944E-18
7.628968E+03	6.374742E-17	8.421653E-18
7.638889E+03	6.343344E-17	8.430063E-18
7.648810E+03	6.310921E-17	8.436429E-18
7.658730E+03	6.278434E-17	8.442020E-18
7.668651E+03	6.244120E-17	8.444450E-18
7.678571E+03	6.209839E-17	8.446209E-18
7.688492E+03	6.173848E-17	8.444916E-18
7.698413E+03	6.137103E-17	8.441846E-18
