#wls	flux	fluxerr
1.600000E+03	5.540582E-16	1.887165E-18
1.640000E+03	5.707761E-16	1.944096E-18
1.680000E+03	5.884994E-16	2.004450E-18
1.720000E+03	6.072395E-16	2.068267E-18
1.760000E+03	6.270572E-16	2.135753E-18
1.800000E+03	6.480610E-16	2.207277E-18
1.840000E+03	6.701345E-16	2.282444E-18
1.880000E+03	6.934257E-16	2.361756E-18
1.920000E+03	7.179109E-16	2.445133E-18
1.960000E+03	7.435584E-16	2.532468E-18
2.000000E+03	7.702743E-16	2.623439E-18
2.040000E+03	7.980104E-16	2.717883E-18
2.080000E+03	8.266044E-16	2.815247E-18
2.120000E+03	8.557847E-16	2.914605E-18
2.160000E+03	8.854311E-16	3.015549E-18
2.200000E+03	9.152148E-16	3.116958E-18
2.240000E+03	9.448587E-16	3.217888E-18
2.280000E+03	9.741875E-16	3.317743E-18
2.320000E+03	1.003122E-15	3.416254E-18
2.360000E+03	1.031726E-15	3.513632E-18
2.400000E+03	1.060092E-15	3.610202E-18
2.440000E+03	1.088304E-15	3.706242E-18
2.480000E+03	1.116561E-15	3.802431E-18
2.520000E+03	1.144897E-15	3.898890E-18
2.560000E+03	1.173421E-15	3.995982E-18
2.600000E+03	1.202077E-15	4.093525E-18
2.640000E+03	1.230839E-15	4.191421E-18
2.680000E+03	1.259571E-15	4.289214E-18
2.720000E+03	1.288126E-15	4.386402E-18
2.760000E+03	1.316346E-15	4.482441E-18
2.800000E+03	1.344019E-15	4.576617E-18
2.840000E+03	1.370927E-15	4.668183E-18
2.880000E+03	1.396925E-15	4.756648E-18
2.920000E+03	1.421782E-15	4.841225E-18
2.960000E+03	1.445445E-15	4.921731E-18
3.000000E+03	1.467735E-15	4.997556E-18
3.010000E+03	1.473121E-15	5.015877E-18
3.020000E+03	1.478392E-15	5.033808E-18
3.030000E+03	1.483543E-15	5.051327E-18
3.040000E+03	1.488634E-15	5.068644E-18
3.050000E+03	1.493629E-15	5.085632E-18
3.060000E+03	1.498519E-15	5.102267E-18
3.070000E+03	1.503335E-15	5.118644E-18
3.080000E+03	1.508037E-15	5.134633E-18
3.090000E+03	1.512619E-15	5.150217E-18
3.100000E+03	1.517140E-15	5.165592E-18
3.110000E+03	1.521532E-15	5.180525E-18
3.120000E+03	1.525820E-15	5.195104E-18
3.130000E+03	1.529966E-15	5.209203E-18
3.140000E+03	1.534060E-15	5.223122E-18
3.150000E+03	1.538003E-15	5.236525E-18
3.160000E+03	1.541820E-15	5.249500E-18
3.170000E+03	1.545535E-15	5.262129E-18
3.180000E+03	1.549142E-15	5.274390E-18
3.190000E+03	1.552579E-15	5.286072E-18
3.200000E+03	1.555926E-15	5.297445E-18
3.210000E+03	1.559121E-15	5.308302E-18
3.220000E+03	1.562186E-15	5.318716E-18
3.230000E+03	1.565088E-15	5.328577E-18
3.240000E+03	1.567853E-15	5.337967E-18
3.250000E+03	1.570471E-15	5.346860E-18
3.260000E+03	1.572940E-15	5.355245E-18
3.270000E+03	1.575229E-15	5.363014E-18
3.280000E+03	1.577358E-15	5.370241E-18
3.290000E+03	1.579324E-15	5.376911E-18
3.300000E+03	1.581096E-15	5.382922E-18
3.310000E+03	1.582697E-15	5.388351E-18
3.320000E+03	1.584096E-15	5.393092E-18
3.330000E+03	1.585316E-15	5.397223E-18
3.340000E+03	1.586328E-15	5.400646E-18
3.350000E+03	1.587129E-15	5.403350E-18
3.360000E+03	1.587718E-15	5.405329E-18
3.370000E+03	1.588089E-15	5.406569E-18
3.380000E+03	1.588242E-15	5.407068E-18
3.390000E+03	1.588151E-15	5.406733E-18
3.400000E+03	1.587837E-15	5.405643E-18
3.410000E+03	1.587254E-15	5.403633E-18
3.420000E+03	1.586446E-15	5.400859E-18
3.430000E+03	1.585368E-15	5.397164E-18
3.440000E+03	1.584020E-15	5.392550E-18
3.450000E+03	1.582401E-15	5.387014E-18
3.460000E+03	1.580492E-15	5.380492E-18
3.470000E+03	1.578315E-15	5.373056E-18
3.480000E+03	1.575850E-15	5.364640E-18
3.490000E+03	1.573080E-15	5.355185E-18
3.500000E+03	1.570005E-15	5.344694E-18
3.510000E+03	1.566612E-15	5.333117E-18
3.520000E+03	1.562922E-15	5.320532E-18
3.530000E+03	1.558882E-15	5.306753E-18
3.540000E+03	1.554516E-15	5.291864E-18
3.550000E+03	1.549810E-15	5.275819E-18
3.560000E+03	1.544772E-15	5.258646E-18
3.570000E+03	1.539371E-15	5.240234E-18
3.580000E+03	1.533598E-15	5.220556E-18
3.590000E+03	1.527478E-15	5.199700E-18
3.600000E+03	1.520969E-15	5.177517E-18
3.610000E+03	1.514098E-15	5.154103E-18
3.620000E+03	1.506858E-15	5.129431E-18
3.630000E+03	1.499228E-15	5.103432E-18
3.640000E+03	1.491202E-15	5.076088E-18
3.650000E+03	1.482795E-15	5.047443E-18
3.660000E+03	1.473988E-15	5.017440E-18
3.670000E+03	1.464812E-15	4.986180E-18
3.680000E+03	1.455235E-15	4.953554E-18
3.690000E+03	1.445273E-15	4.919619E-18
3.700000E+03	1.434928E-15	4.884380E-18
3.710000E+03	1.424216E-15	4.847893E-18
3.720000E+03	1.413127E-15	4.810122E-18
3.730000E+03	1.401679E-15	4.771131E-18
3.740000E+03	1.389875E-15	4.730928E-18
3.750000E+03	1.377736E-15	4.689585E-18
3.760000E+03	1.365267E-15	4.647118E-18
3.770000E+03	1.352487E-15	4.603593E-18
3.780000E+03	1.339403E-15	4.559033E-18
3.790000E+03	1.326022E-15	4.513464E-18
3.800000E+03	1.312389E-15	4.467037E-18
3.810000E+03	1.298487E-15	4.419692E-18
3.820000E+03	1.284348E-15	4.371544E-18
3.830000E+03	1.270003E-15	4.322696E-18
3.840000E+03	1.255450E-15	4.273139E-18
3.850000E+03	1.240708E-15	4.222938E-18
3.860000E+03	1.225808E-15	4.172202E-18
3.870000E+03	1.210770E-15	4.120995E-18
3.880000E+03	1.195611E-15	4.069378E-18
3.890000E+03	1.180340E-15	4.017379E-18
3.900000E+03	1.164987E-15	3.965101E-18
3.910000E+03	1.149569E-15	3.912602E-18
3.920000E+03	1.134102E-15	3.859940E-18
3.930000E+03	1.118607E-15	3.807179E-18
3.940000E+03	1.103098E-15	3.754373E-18
3.950000E+03	1.087601E-15	3.701610E-18
3.960000E+03	1.072134E-15	3.648947E-18
3.970000E+03	1.056700E-15	3.596399E-18
3.980000E+03	1.041336E-15	3.544086E-18
3.990000E+03	1.026044E-15	3.492023E-18
4.000000E+03	1.010849E-15	3.440287E-18
4.010000E+03	9.957629E-16	3.388924E-18
4.020000E+03	9.807893E-16	3.337945E-18
4.030000E+03	9.659590E-16	3.287453E-18
4.040000E+03	9.512745E-16	3.237458E-18
4.050000E+03	9.367542E-16	3.188023E-18
4.060000E+03	9.224107E-16	3.139189E-18
4.070000E+03	9.082516E-16	3.090984E-18
4.080000E+03	8.942869E-16	3.043441E-18
4.090000E+03	8.805341E-16	2.996619E-18
4.100000E+03	8.669934E-16	2.950520E-18
4.110000E+03	8.536713E-16	2.905165E-18
4.120000E+03	8.405914E-16	2.860635E-18
4.130000E+03	8.277456E-16	2.816902E-18
4.140000E+03	8.151465E-16	2.774009E-18
4.150000E+03	8.028003E-16	2.731977E-18
4.160000E+03	7.907123E-16	2.690824E-18
4.170000E+03	7.788873E-16	2.650567E-18
4.180000E+03	7.673295E-16	2.611220E-18
4.190000E+03	7.560432E-16	2.572796E-18
4.200000E+03	7.450318E-16	2.535309E-18
4.210000E+03	7.342987E-16	2.498769E-18
4.220000E+03	7.238468E-16	2.463186E-18
4.230000E+03	7.136723E-16	2.428548E-18
4.240000E+03	7.037779E-16	2.394863E-18
4.250000E+03	6.941719E-16	2.362160E-18
4.260000E+03	6.848559E-16	2.330445E-18
4.270000E+03	6.758196E-16	2.299681E-18
4.280000E+03	6.670704E-16	2.269895E-18
4.290000E+03	6.586097E-16	2.241090E-18
4.300000E+03	6.504384E-16	2.213271E-18
4.310000E+03	6.425572E-16	2.186439E-18
4.320000E+03	6.349611E-16	2.160578E-18
4.330000E+03	6.276614E-16	2.135725E-18
4.340000E+03	6.206469E-16	2.111843E-18
4.350000E+03	6.139282E-16	2.088968E-18
4.360000E+03	6.075041E-16	2.067096E-18
4.370000E+03	6.013780E-16	2.046238E-18
4.380000E+03	5.955476E-16	2.026386E-18
4.390000E+03	5.900144E-16	2.007545E-18
4.400000E+03	5.847736E-16	1.989700E-18
4.410000E+03	5.798293E-16	1.972864E-18
4.420000E+03	5.751734E-16	1.957009E-18
4.430000E+03	5.707961E-16	1.942102E-18
4.440000E+03	5.666959E-16	1.928138E-18
4.450000E+03	5.628597E-16	1.915073E-18
4.460000E+03	5.592784E-16	1.902875E-18
4.470000E+03	5.559471E-16	1.891528E-18
4.480000E+03	5.528458E-16	1.880963E-18
4.490000E+03	5.499692E-16	1.871163E-18
4.500000E+03	5.473077E-16	1.862096E-18
4.510000E+03	5.448471E-16	1.853711E-18
4.520000E+03	5.425787E-16	1.845981E-18
4.530000E+03	5.404951E-16	1.838879E-18
4.540000E+03	5.385894E-16	1.832383E-18
4.550000E+03	5.368559E-16	1.826472E-18
4.560000E+03	5.352849E-16	1.821115E-18
4.570000E+03	5.338675E-16	1.816280E-18
4.580000E+03	5.326113E-16	1.811993E-18
4.590000E+03	5.315045E-16	1.808215E-18
4.600000E+03	5.305414E-16	1.804926E-18
4.610000E+03	5.297273E-16	1.802144E-18
4.620000E+03	5.290637E-16	1.799874E-18
4.630000E+03	5.285372E-16	1.798070E-18
4.640000E+03	5.281662E-16	1.796795E-18
4.650000E+03	5.279337E-16	1.795991E-18
4.660000E+03	5.278546E-16	1.795709E-18
4.670000E+03	5.279283E-16	1.795947E-18
4.680000E+03	5.281554E-16	1.796707E-18
4.690000E+03	5.285366E-16	1.797991E-18
4.700000E+03	5.290731E-16	1.799803E-18
4.710000E+03	5.297769E-16	1.802184E-18
4.720000E+03	5.306443E-16	1.805122E-18
4.730000E+03	5.316775E-16	1.808623E-18
4.740000E+03	5.328838E-16	1.812714E-18
4.750000E+03	5.342546E-16	1.817364E-18
4.760000E+03	5.358082E-16	1.822635E-18
4.770000E+03	5.375308E-16	1.828482E-18
4.780000E+03	5.394350E-16	1.834946E-18
4.790000E+03	5.415231E-16	1.842035E-18
4.800000E+03	5.437860E-16	1.849719E-18
4.810000E+03	5.462309E-16	1.858022E-18
4.820000E+03	5.488649E-16	1.866968E-18
4.830000E+03	5.516784E-16	1.876524E-18
4.840000E+03	5.546781E-16	1.886714E-18
4.850000E+03	5.578653E-16	1.897541E-18
4.860000E+03	5.612351E-16	1.908989E-18
4.870000E+03	5.647885E-16	1.921061E-18
4.880000E+03	5.685317E-16	1.933779E-18
4.890000E+03	5.724597E-16	1.947125E-18
4.900000E+03	5.765784E-16	1.961120E-18
4.910000E+03	5.808764E-16	1.975724E-18
4.920000E+03	5.853593E-16	1.990957E-18
4.930000E+03	5.900266E-16	2.006817E-18
4.940000E+03	5.948718E-16	2.023282E-18
4.950000E+03	5.998998E-16	2.040368E-18
4.960000E+03	6.051031E-16	2.058050E-18
4.970000E+03	6.104864E-16	2.076344E-18
4.980000E+03	6.160413E-16	2.095221E-18
4.990000E+03	6.217655E-16	2.114674E-18
5.000000E+03	6.276496E-16	2.134670E-18
5.010000E+03	6.337033E-16	2.155243E-18
5.020000E+03	6.399101E-16	2.176337E-18
5.030000E+03	6.462657E-16	2.197936E-18
5.040000E+03	6.527719E-16	2.220047E-18
5.050000E+03	6.594172E-16	2.242630E-18
5.060000E+03	6.661959E-16	2.265667E-18
5.070000E+03	6.731015E-16	2.289135E-18
5.080000E+03	6.801277E-16	2.313013E-18
5.090000E+03	6.872601E-16	2.337252E-18
5.100000E+03	6.944908E-16	2.361825E-18
5.110000E+03	7.018185E-16	2.386727E-18
5.120000E+03	7.092200E-16	2.411880E-18
5.130000E+03	7.167004E-16	2.437301E-18
5.140000E+03	7.242277E-16	2.462880E-18
5.150000E+03	7.318061E-16	2.488634E-18
5.160000E+03	7.394174E-16	2.514499E-18
5.170000E+03	7.470502E-16	2.540436E-18
5.180000E+03	7.546929E-16	2.566407E-18
5.190000E+03	7.623258E-16	2.592344E-18
5.200000E+03	7.699364E-16	2.618205E-18
5.210000E+03	7.775044E-16	2.643921E-18
5.220000E+03	7.850327E-16	2.669501E-18
5.230000E+03	7.924849E-16	2.694823E-18
5.240000E+03	7.998559E-16	2.719867E-18
5.250000E+03	8.071330E-16	2.744592E-18
5.260000E+03	8.143035E-16	2.768955E-18
5.270000E+03	8.213387E-16	2.792857E-18
5.280000E+03	8.282342E-16	2.816283E-18
5.290000E+03	8.349700E-16	2.839167E-18
5.300000E+03	8.415341E-16	2.861466E-18
5.310000E+03	8.479082E-16	2.883118E-18
5.320000E+03	8.540886E-16	2.904112E-18
5.330000E+03	8.600496E-16	2.924360E-18
5.340000E+03	8.657809E-16	2.943826E-18
5.350000E+03	8.712668E-16	2.962458E-18
5.360000E+03	8.765071E-16	2.980254E-18
5.370000E+03	8.814684E-16	2.997102E-18
5.380000E+03	8.861549E-16	3.013014E-18
5.390000E+03	8.905531E-16	3.027947E-18
5.400000E+03	8.946505E-16	3.041857E-18
5.410000E+03	8.984178E-16	3.054644E-18
5.420000E+03	9.018457E-16	3.066277E-18
5.430000E+03	9.049267E-16	3.076731E-18
5.440000E+03	9.076164E-16	3.085854E-18
5.450000E+03	9.099090E-16	3.093626E-18
5.460000E+03	9.117717E-16	3.099938E-18
5.470000E+03	9.131903E-16	3.104739E-18
5.480000E+03	9.141983E-16	3.108144E-18
5.490000E+03	9.147932E-16	3.110145E-18
5.500000E+03	9.150094E-16	3.110859E-18
5.510000E+03	9.148628E-16	3.110339E-18
5.520000E+03	9.143994E-16	3.108742E-18
5.530000E+03	9.136177E-16	3.106063E-18
5.540000E+03	9.125451E-16	3.102395E-18
5.550000E+03	9.111902E-16	3.097768E-18
5.560000E+03	9.095882E-16	3.092300E-18
5.570000E+03	9.077397E-16	3.085995E-18
5.580000E+03	9.056617E-16	3.078910E-18
5.590000E+03	9.033616E-16	3.071070E-18
5.600000E+03	9.008663E-16	3.062567E-18
5.610000E+03	8.981741E-16	3.053394E-18
5.620000E+03	8.953017E-16	3.043609E-18
5.630000E+03	8.922626E-16	3.033258E-18
5.640000E+03	8.890660E-16	3.022371E-18
5.650000E+03	8.857236E-16	3.010989E-18
5.660000E+03	8.822337E-16	2.999106E-18
5.670000E+03	8.786088E-16	2.986765E-18
5.680000E+03	8.748625E-16	2.974011E-18
5.690000E+03	8.709981E-16	2.960855E-18
5.700000E+03	8.670180E-16	2.947307E-18
5.710000E+03	8.629256E-16	2.933377E-18
5.720000E+03	8.587411E-16	2.919134E-18
5.730000E+03	8.544476E-16	2.904522E-18
5.740000E+03	8.500636E-16	2.889602E-18
5.750000E+03	8.455909E-16	2.874380E-18
5.760000E+03	8.410200E-16	2.858826E-18
5.770000E+03	8.363603E-16	2.842969E-18
5.780000E+03	8.316202E-16	2.826840E-18
5.790000E+03	8.267903E-16	2.810406E-18
5.800000E+03	8.218698E-16	2.793664E-18
5.810000E+03	8.168757E-16	2.776672E-18
5.820000E+03	8.117892E-16	2.759367E-18
5.830000E+03	8.066181E-16	2.741774E-18
5.840000E+03	8.013614E-16	2.723891E-18
5.850000E+03	7.960182E-16	2.705714E-18
5.860000E+03	7.905964E-16	2.687270E-18
5.870000E+03	7.850778E-16	2.668498E-18
5.880000E+03	7.794794E-16	2.649455E-18
5.890000E+03	7.737921E-16	2.630110E-18
5.900000E+03	7.680161E-16	2.610464E-18
5.910000E+03	7.621518E-16	2.590518E-18
5.920000E+03	7.561999E-16	2.570274E-18
5.930000E+03	7.501700E-16	2.549766E-18
5.940000E+03	7.440466E-16	2.528941E-18
5.950000E+03	7.378319E-16	2.507805E-18
5.960000E+03	7.315368E-16	2.486397E-18
5.970000E+03	7.251643E-16	2.464726E-18
5.980000E+03	7.187011E-16	2.442747E-18
5.990000E+03	7.121680E-16	2.420531E-18
6.000000E+03	7.055447E-16	2.398009E-18
6.010000E+03	6.988610E-16	2.375281E-18
6.020000E+03	6.920981E-16	2.352285E-18
6.030000E+03	6.852624E-16	2.329042E-18
6.040000E+03	6.783686E-16	2.305602E-18
6.050000E+03	6.714163E-16	2.281963E-18
6.060000E+03	6.644132E-16	2.258153E-18
6.070000E+03	6.573521E-16	2.234145E-18
6.080000E+03	6.502579E-16	2.210025E-18
6.090000E+03	6.431170E-16	2.185747E-18
6.100000E+03	6.359551E-16	2.161398E-18
6.110000E+03	6.287756E-16	2.136989E-18
6.120000E+03	6.215825E-16	2.112535E-18
6.130000E+03	6.143885E-16	2.088078E-18
6.140000E+03	6.072143E-16	2.063688E-18
6.150000E+03	6.000667E-16	2.039389E-18
6.160000E+03	5.929611E-16	2.015233E-18
6.170000E+03	5.859283E-16	1.991325E-18
6.180000E+03	5.789711E-16	1.967675E-18
6.190000E+03	5.721149E-16	1.944367E-18
6.200000E+03	5.653834E-16	1.921484E-18
6.210000E+03	5.587933E-16	1.899082E-18
6.220000E+03	5.523378E-16	1.877137E-18
6.230000E+03	5.460142E-16	1.855641E-18
6.240000E+03	5.398278E-16	1.834612E-18
6.250000E+03	5.337703E-16	1.814020E-18
6.260000E+03	5.278490E-16	1.793892E-18
6.270000E+03	5.220642E-16	1.774228E-18
6.280000E+03	5.164237E-16	1.755054E-18
6.290000E+03	5.109280E-16	1.736374E-18
6.300000E+03	5.055778E-16	1.718187E-18
6.310000E+03	5.003797E-16	1.700518E-18
6.320000E+03	4.953398E-16	1.683386E-18
6.330000E+03	4.904498E-16	1.666764E-18
6.340000E+03	4.857145E-16	1.650668E-18
6.350000E+03	4.811375E-16	1.635110E-18
6.360000E+03	4.767082E-16	1.620055E-18
6.370000E+03	4.724354E-16	1.605531E-18
6.380000E+03	4.683138E-16	1.591521E-18
6.390000E+03	4.643370E-16	1.578004E-18
6.400000E+03	4.604985E-16	1.564956E-18
6.410000E+03	4.568041E-16	1.552399E-18
6.420000E+03	4.532392E-16	1.540281E-18
6.430000E+03	4.498086E-16	1.528621E-18
6.440000E+03	4.465036E-16	1.517387E-18
6.450000E+03	4.433150E-16	1.506549E-18
6.460000E+03	4.402402E-16	1.496098E-18
6.470000E+03	4.372697E-16	1.486001E-18
6.480000E+03	4.344005E-16	1.476249E-18
6.490000E+03	4.316098E-16	1.466763E-18
6.500000E+03	4.289014E-16	1.457558E-18
6.510000E+03	4.262659E-16	1.448600E-18
6.520000E+03	4.236874E-16	1.439836E-18
6.530000E+03	4.211636E-16	1.431258E-18
6.540000E+03	4.186859E-16	1.422836E-18
6.550000E+03	4.162459E-16	1.414544E-18
6.560000E+03	4.138358E-16	1.406352E-18
6.570000E+03	4.114545E-16	1.398259E-18
6.580000E+03	4.090886E-16	1.390218E-18
6.590000E+03	4.067314E-16	1.382206E-18
6.600000E+03	4.043836E-16	1.374227E-18
6.610000E+03	4.020395E-16	1.366260E-18
6.620000E+03	3.996877E-16	1.358268E-18
6.630000E+03	3.973303E-16	1.350256E-18
6.640000E+03	3.949570E-16	1.342190E-18
6.650000E+03	3.925776E-16	1.334104E-18
6.660000E+03	3.901762E-16	1.325943E-18
6.670000E+03	3.877505E-16	1.317699E-18
6.680000E+03	3.853056E-16	1.309391E-18
6.690000E+03	3.828402E-16	1.301012E-18
6.700000E+03	3.803471E-16	1.292540E-18
6.710000E+03	3.778263E-16	1.283974E-18
6.720000E+03	3.752844E-16	1.275336E-18
6.730000E+03	3.727157E-16	1.266606E-18
6.740000E+03	3.701277E-16	1.257812E-18
6.750000E+03	3.675088E-16	1.248912E-18
6.760000E+03	3.648740E-16	1.239959E-18
6.770000E+03	3.622121E-16	1.230913E-18
6.780000E+03	3.595386E-16	1.221828E-18
6.790000E+03	3.568432E-16	1.212669E-18
6.800000E+03	3.541351E-16	1.203467E-18
6.810000E+03	3.514172E-16	1.194231E-18
6.820000E+03	3.486864E-16	1.184951E-18
6.830000E+03	3.459523E-16	1.175661E-18
6.840000E+03	3.432119E-16	1.166349E-18
6.850000E+03	3.404748E-16	1.157048E-18
6.860000E+03	3.377321E-16	1.147728E-18
6.870000E+03	3.349997E-16	1.138444E-18
6.880000E+03	3.322750E-16	1.129185E-18
6.890000E+03	3.295613E-16	1.119964E-18
6.900000E+03	3.268560E-16	1.110771E-18
6.910000E+03	3.241748E-16	1.101661E-18
6.920000E+03	3.215026E-16	1.092581E-18
6.930000E+03	3.188612E-16	1.083606E-18
6.940000E+03	3.162413E-16	1.074703E-18
6.950000E+03	3.136462E-16	1.065886E-18
6.960000E+03	3.110849E-16	1.057183E-18
6.970000E+03	3.085543E-16	1.048584E-18
6.980000E+03	3.060572E-16	1.040100E-18
6.990000E+03	3.035963E-16	1.031738E-18
7.000000E+03	3.011741E-16	1.023508E-18
7.010000E+03	2.987931E-16	1.015418E-18
7.020000E+03	2.964497E-16	1.007455E-18
7.030000E+03	2.941579E-16	9.996685E-19
7.040000E+03	2.919023E-16	9.920047E-19
7.050000E+03	2.897023E-16	9.845297E-19
7.060000E+03	2.875425E-16	9.771914E-19
7.070000E+03	2.854361E-16	9.700346E-19
7.080000E+03	2.833791E-16	9.630457E-19
7.090000E+03	2.813731E-16	9.562303E-19
7.100000E+03	2.794251E-16	9.496120E-19
7.110000E+03	2.775254E-16	9.431577E-19
7.120000E+03	2.756807E-16	9.368905E-19
7.130000E+03	2.738868E-16	9.307960E-19
7.140000E+03	2.721503E-16	9.248965E-19
7.150000E+03	2.704723E-16	9.191955E-19
7.160000E+03	2.688480E-16	9.136776E-19
7.170000E+03	2.672840E-16	9.083642E-19
7.180000E+03	2.657701E-16	9.032214E-19
7.190000E+03	2.643179E-16	8.982882E-19
7.200000E+03	2.629226E-16	8.935484E-19
7.210000E+03	2.615795E-16	8.889857E-19
7.220000E+03	2.602944E-16	8.846204E-19
7.230000E+03	2.590677E-16	8.804539E-19
7.240000E+03	2.578946E-16	8.764691E-19
7.250000E+03	2.567753E-16	8.726675E-19
7.260000E+03	2.557101E-16	8.690498E-19
7.270000E+03	2.546993E-16	8.656167E-19
7.280000E+03	2.537428E-16	8.623684E-19
7.290000E+03	2.528303E-16	8.592697E-19
7.300000E+03	2.519722E-16	8.563558E-19
7.310000E+03	2.511633E-16	8.536091E-19
7.320000E+03	2.503981E-16	8.510108E-19
7.330000E+03	2.496815E-16	8.485780E-19
7.340000E+03	2.490029E-16	8.462745E-19
7.350000E+03	2.483619E-16	8.440983E-19
7.360000E+03	2.477580E-16	8.420486E-19
7.370000E+03	2.471854E-16	8.401052E-19
7.380000E+03	2.466486E-16	8.382837E-19
7.390000E+03	2.461314E-16	8.365288E-19
7.400000E+03	2.456433E-16	8.348726E-19
7.410000E+03	2.451729E-16	8.332767E-19
7.420000E+03	2.447243E-16	8.317552E-19
7.430000E+03	2.442913E-16	8.302864E-19
7.440000E+03	2.438726E-16	8.288664E-19
7.450000E+03	2.434721E-16	8.275082E-19
7.460000E+03	2.430832E-16	8.261896E-19
7.470000E+03	2.427201E-16	8.249585E-19
7.480000E+03	2.423709E-16	8.237750E-19
7.490000E+03	2.420446E-16	8.226690E-19
7.500000E+03	2.417342E-16	8.216174E-19
7.510000E+03	2.414542E-16	8.206690E-19
7.520000E+03	2.411978E-16	8.198009E-19
7.530000E+03	2.409636E-16	8.190084E-19
7.540000E+03	2.407556E-16	8.183047E-19
7.550000E+03	2.405725E-16	8.176859E-19
7.560000E+03	2.404240E-16	8.171849E-19
7.570000E+03	2.402988E-16	8.167627E-19
7.580000E+03	2.402015E-16	8.164358E-19
7.590000E+03	2.401374E-16	8.162216E-19
7.600000E+03	2.401014E-16	8.161030E-19
7.610000E+03	2.400994E-16	8.161000E-19
7.620000E+03	2.401273E-16	8.161987E-19
7.630000E+03	2.401973E-16	8.164405E-19
7.640000E+03	2.402998E-16	8.167929E-19
7.650000E+03	2.404445E-16	8.172888E-19
7.660000E+03	2.406169E-16	8.178791E-19
7.670000E+03	2.408234E-16	8.185850E-19
7.680000E+03	2.410487E-16	8.193551E-19
7.690000E+03	2.412999E-16	8.202133E-19
7.700000E+03	2.415681E-16	8.211291E-19
7.710000E+03	2.418504E-16	8.220930E-19
7.720000E+03	2.421441E-16	8.230958E-19
7.730000E+03	2.424471E-16	8.241302E-19
7.740000E+03	2.427576E-16	8.251900E-19
7.750000E+03	2.430681E-16	8.262502E-19
7.760000E+03	2.433887E-16	8.273446E-19
