#wls	flux	fluxerr
1.600000E+03	5.369136E-16	2.347315E-16
1.640000E+03	5.370209E-16	2.343895E-16
1.680000E+03	5.373936E-16	2.341413E-16
1.720000E+03	5.379892E-16	2.339670E-16
1.760000E+03	5.388092E-16	2.338659E-16
1.800000E+03	5.398918E-16	2.338532E-16
1.840000E+03	5.410863E-16	2.338621E-16
1.880000E+03	5.424644E-16	2.339223E-16
1.920000E+03	5.439567E-16	2.340024E-16
1.960000E+03	5.454942E-16	2.340714E-16
2.000000E+03	5.469714E-16	2.340829E-16
2.040000E+03	5.483257E-16	2.340093E-16
2.080000E+03	5.494273E-16	2.337948E-16
2.120000E+03	5.500942E-16	2.333622E-16
2.160000E+03	5.502633E-16	2.326852E-16
2.200000E+03	5.497597E-16	2.316914E-16
2.240000E+03	5.484646E-16	2.303330E-16
2.280000E+03	5.463405E-16	2.285970E-16
2.320000E+03	5.434143E-16	2.264982E-16
2.360000E+03	5.397910E-16	2.240834E-16
2.400000E+03	5.355861E-16	2.214040E-16
2.440000E+03	5.309003E-16	2.185042E-16
2.480000E+03	5.258843E-16	2.154486E-16
2.520000E+03	5.206003E-16	2.122645E-16
2.560000E+03	5.151381E-16	2.089903E-16
2.600000E+03	5.095134E-16	2.056339E-16
2.640000E+03	5.037571E-16	2.022089E-16
2.680000E+03	4.978582E-16	1.987126E-16
2.720000E+03	4.918091E-16	1.951435E-16
2.760000E+03	4.856041E-16	1.915011E-16
2.800000E+03	4.792266E-16	1.877809E-16
2.840000E+03	4.726662E-16	1.839811E-16
2.880000E+03	4.659440E-16	1.801123E-16
2.920000E+03	4.590573E-16	1.761760E-16
2.960000E+03	4.520648E-16	1.721972E-16
3.000000E+03	4.449858E-16	1.681854E-16
3.010000E+03	4.432199E-16	1.671841E-16
3.020000E+03	4.414454E-16	1.661798E-16
3.030000E+03	4.396623E-16	1.651723E-16
3.040000E+03	4.378897E-16	1.641690E-16
3.050000E+03	4.361175E-16	1.631661E-16
3.060000E+03	4.343451E-16	1.621633E-16
3.070000E+03	4.325813E-16	1.611640E-16
3.080000E+03	4.308164E-16	1.601645E-16
3.090000E+03	4.290502E-16	1.591649E-16
3.100000E+03	4.273000E-16	1.581716E-16
3.110000E+03	4.255473E-16	1.571776E-16
3.120000E+03	4.238007E-16	1.561863E-16
3.130000E+03	4.220512E-16	1.551942E-16
3.140000E+03	4.203234E-16	1.542106E-16
3.150000E+03	4.185921E-16	1.532261E-16
3.160000E+03	4.168649E-16	1.522435E-16
3.170000E+03	4.151496E-16	1.512658E-16
3.180000E+03	4.134454E-16	1.502925E-16
3.190000E+03	4.117364E-16	1.493180E-16
3.200000E+03	4.100453E-16	1.483504E-16
3.210000E+03	4.083565E-16	1.473843E-16
3.220000E+03	4.066771E-16	1.464220E-16
3.230000E+03	4.049993E-16	1.454609E-16
3.240000E+03	4.033304E-16	1.445036E-16
3.250000E+03	4.016699E-16	1.435498E-16
3.260000E+03	4.000173E-16	1.425996E-16
3.270000E+03	3.983657E-16	1.416502E-16
3.280000E+03	3.967216E-16	1.407042E-16
3.290000E+03	3.950851E-16	1.397616E-16
3.300000E+03	3.934492E-16	1.388199E-16
3.310000E+03	3.918205E-16	1.378814E-16
3.320000E+03	3.901927E-16	1.369441E-16
3.330000E+03	3.885720E-16	1.360099E-16
3.340000E+03	3.869521E-16	1.350769E-16
3.350000E+03	3.853335E-16	1.341451E-16
3.360000E+03	3.837161E-16	1.332146E-16
3.370000E+03	3.821005E-16	1.322857E-16
3.380000E+03	3.804866E-16	1.313582E-16
3.390000E+03	3.788692E-16	1.304305E-16
3.400000E+03	3.772542E-16	1.295046E-16
3.410000E+03	3.756313E-16	1.285770E-16
3.420000E+03	3.740116E-16	1.276516E-16
3.430000E+03	3.723851E-16	1.267250E-16
3.440000E+03	3.707526E-16	1.257975E-16
3.450000E+03	3.691149E-16	1.248694E-16
3.460000E+03	3.674677E-16	1.239394E-16
3.470000E+03	3.658167E-16	1.230095E-16
3.480000E+03	3.641578E-16	1.220782E-16
3.490000E+03	3.624876E-16	1.211446E-16
3.500000E+03	3.608068E-16	1.202089E-16
3.510000E+03	3.591120E-16	1.192702E-16
3.520000E+03	3.574092E-16	1.183303E-16
3.530000E+03	3.556858E-16	1.173854E-16
3.540000E+03	3.539483E-16	1.164376E-16
3.550000E+03	3.521933E-16	1.154858E-16
3.560000E+03	3.504227E-16	1.145308E-16
3.570000E+03	3.486295E-16	1.135705E-16
3.580000E+03	3.468115E-16	1.126042E-16
3.590000E+03	3.449748E-16	1.116340E-16
3.600000E+03	3.431090E-16	1.106567E-16
3.610000E+03	3.412205E-16	1.096744E-16
3.620000E+03	3.393074E-16	1.086867E-16
3.630000E+03	3.373643E-16	1.076920E-16
3.640000E+03	3.353898E-16	1.066900E-16
3.650000E+03	3.333862E-16	1.056816E-16
3.660000E+03	3.313490E-16	1.046655E-16
3.670000E+03	3.292842E-16	1.036437E-16
3.680000E+03	3.271841E-16	1.026140E-16
3.690000E+03	3.250511E-16	1.015773E-16
3.700000E+03	3.228848E-16	1.005337E-16
3.710000E+03	3.206879E-16	9.948404E-17
3.720000E+03	3.184567E-16	9.842745E-17
3.730000E+03	3.161943E-16	9.736505E-17
3.740000E+03	3.139000E-16	9.629680E-17
3.750000E+03	3.115770E-16	9.522380E-17
3.760000E+03	3.092252E-16	9.414620E-17
3.770000E+03	3.068473E-16	9.306495E-17
3.780000E+03	3.044431E-16	9.198018E-17
3.790000E+03	3.020129E-16	9.089210E-17
3.800000E+03	2.995654E-16	8.980345E-17
3.810000E+03	2.970946E-16	8.871256E-17
3.820000E+03	2.946062E-16	8.762130E-17
3.830000E+03	2.921058E-16	8.653143E-17
3.840000E+03	2.895909E-16	8.544228E-17
3.850000E+03	2.870639E-16	8.435470E-17
3.860000E+03	2.845306E-16	8.327045E-17
3.870000E+03	2.819933E-16	8.219034E-17
3.880000E+03	2.794548E-16	8.111516E-17
3.890000E+03	2.769148E-16	8.004496E-17
3.900000E+03	2.743788E-16	7.898135E-17
3.910000E+03	2.718491E-16	7.792504E-17
3.920000E+03	2.693282E-16	7.687675E-17
3.930000E+03	2.668184E-16	7.583719E-17
3.940000E+03	2.643222E-16	7.480705E-17
3.950000E+03	2.618444E-16	7.378768E-17
3.960000E+03	2.593873E-16	7.277973E-17
3.970000E+03	2.569507E-16	7.178313E-17
3.980000E+03	2.545416E-16	7.079977E-17
3.990000E+03	2.521601E-16	6.982962E-17
4.000000E+03	2.498101E-16	6.887372E-17
4.010000E+03	2.474943E-16	6.793275E-17
4.020000E+03	2.452122E-16	6.700647E-17
4.030000E+03	2.429704E-16	6.609664E-17
4.040000E+03	2.407690E-16	6.520313E-17
4.050000E+03	2.386118E-16	6.432689E-17
4.060000E+03	2.365010E-16	6.346837E-17
4.070000E+03	2.344385E-16	6.262796E-17
4.080000E+03	2.324261E-16	6.180600E-17
4.090000E+03	2.304679E-16	6.100346E-17
4.100000E+03	2.285638E-16	6.022012E-17
4.110000E+03	2.267153E-16	5.945625E-17
4.120000E+03	2.249286E-16	5.871325E-17
4.130000E+03	2.232013E-16	5.799034E-17
4.140000E+03	2.215371E-16	5.728827E-17
4.150000E+03	2.199377E-16	5.660735E-17
4.160000E+03	2.184049E-16	5.594779E-17
4.170000E+03	2.169404E-16	5.530981E-17
4.180000E+03	2.155458E-16	5.469363E-17
4.190000E+03	2.142227E-16	5.409942E-17
4.200000E+03	2.129726E-16	5.352734E-17
4.210000E+03	2.117974E-16	5.297765E-17
4.220000E+03	2.106987E-16	5.245050E-17
4.230000E+03	2.096759E-16	5.194548E-17
4.240000E+03	2.087311E-16	5.146293E-17
4.250000E+03	2.078675E-16	5.100335E-17
4.260000E+03	2.070868E-16	5.056693E-17
4.270000E+03	2.063872E-16	5.015294E-17
4.280000E+03	2.057721E-16	4.976200E-17
4.290000E+03	2.052435E-16	4.939428E-17
4.300000E+03	2.048031E-16	4.904999E-17
4.310000E+03	2.044530E-16	4.872931E-17
4.320000E+03	2.041934E-16	4.843204E-17
4.330000E+03	2.040300E-16	4.815926E-17
4.340000E+03	2.039616E-16	4.791039E-17
4.350000E+03	2.039942E-16	4.768655E-17
4.360000E+03	2.041301E-16	4.748801E-17
4.370000E+03	2.043731E-16	4.731535E-17
4.380000E+03	2.047251E-16	4.716866E-17
4.390000E+03	2.051895E-16	4.704846E-17
4.400000E+03	2.057679E-16	4.695478E-17
4.410000E+03	2.064650E-16	4.688837E-17
4.420000E+03	2.072812E-16	4.684899E-17
4.430000E+03	2.082151E-16	4.683602E-17
4.440000E+03	2.092671E-16	4.684925E-17
4.450000E+03	2.104328E-16	4.688737E-17
4.460000E+03	2.117089E-16	4.694938E-17
4.470000E+03	2.130939E-16	4.703469E-17
4.480000E+03	2.145804E-16	4.714142E-17
4.490000E+03	2.161670E-16	4.726901E-17
4.500000E+03	2.178503E-16	4.741654E-17
4.510000E+03	2.196252E-16	4.758269E-17
4.520000E+03	2.214890E-16	4.776657E-17
4.530000E+03	2.234391E-16	4.796738E-17
4.540000E+03	2.254737E-16	4.818447E-17
4.550000E+03	2.275914E-16	4.841730E-17
4.560000E+03	2.297895E-16	4.866502E-17
4.570000E+03	2.320657E-16	4.892691E-17
4.580000E+03	2.344247E-16	4.920374E-17
4.590000E+03	2.368633E-16	4.949459E-17
4.600000E+03	2.393811E-16	4.979911E-17
4.610000E+03	2.419825E-16	5.011802E-17
4.620000E+03	2.446708E-16	5.045171E-17
4.630000E+03	2.474424E-16	5.079920E-17
4.640000E+03	2.503088E-16	5.116258E-17
4.650000E+03	2.532651E-16	5.154058E-17
4.660000E+03	2.563214E-16	5.193498E-17
4.670000E+03	2.594813E-16	5.234619E-17
4.680000E+03	2.627485E-16	5.277466E-17
4.690000E+03	2.661272E-16	5.322091E-17
4.700000E+03	2.696220E-16	5.368552E-17
4.710000E+03	2.732430E-16	5.417015E-17
4.720000E+03	2.769928E-16	5.467492E-17
4.730000E+03	2.808766E-16	5.520051E-17
4.740000E+03	2.849027E-16	5.574813E-17
4.750000E+03	2.890712E-16	5.631738E-17
4.760000E+03	2.933963E-16	5.691058E-17
4.770000E+03	2.978750E-16	5.752671E-17
4.780000E+03	3.025190E-16	5.816755E-17
4.790000E+03	3.073340E-16	5.883370E-17
4.800000E+03	3.123196E-16	5.952457E-17
4.810000E+03	3.174841E-16	6.024126E-17
4.820000E+03	3.228363E-16	6.098487E-17
4.830000E+03	3.283750E-16	6.175461E-17
4.840000E+03	3.341087E-16	6.255149E-17
4.850000E+03	3.400422E-16	6.337586E-17
4.860000E+03	3.461771E-16	6.422738E-17
4.870000E+03	3.525183E-16	6.510633E-17
4.880000E+03	3.590742E-16	6.601363E-17
4.890000E+03	3.658461E-16	6.694884E-17
4.900000E+03	3.728424E-16	6.791282E-17
4.910000E+03	3.800603E-16	6.890434E-17
4.920000E+03	3.875078E-16	6.992415E-17
4.930000E+03	3.951892E-16	7.097229E-17
4.940000E+03	4.031043E-16	7.204794E-17
4.950000E+03	4.112609E-16	7.315176E-17
4.960000E+03	4.196583E-16	7.428278E-17
4.970000E+03	4.283037E-16	7.544149E-17
4.980000E+03	4.371956E-16	7.662677E-17
4.990000E+03	4.463361E-16	7.783819E-17
5.000000E+03	4.557224E-16	7.907435E-17
5.010000E+03	4.653651E-16	8.033624E-17
5.020000E+03	4.752556E-16	8.162147E-17
5.030000E+03	4.853938E-16	8.292912E-17
5.040000E+03	4.957841E-16	8.425905E-17
5.050000E+03	5.064202E-16	8.560923E-17
5.060000E+03	5.173001E-16	8.697842E-17
5.070000E+03	5.284209E-16	8.836518E-17
5.080000E+03	5.397790E-16	8.976799E-17
5.090000E+03	5.513645E-16	9.118424E-17
5.100000E+03	5.631717E-16	9.261205E-17
5.110000E+03	5.752001E-16	9.405037E-17
5.120000E+03	5.874307E-16	9.549513E-17
5.130000E+03	5.998668E-16	9.694598E-17
5.140000E+03	6.124805E-16	9.839745E-17
5.150000E+03	6.252735E-16	9.984891E-17
5.160000E+03	6.382277E-16	1.012966E-16
5.170000E+03	6.513302E-16	1.027377E-16
5.180000E+03	6.645671E-16	1.041691E-16
5.190000E+03	6.779173E-16	1.055866E-16
5.200000E+03	6.913646E-16	1.069872E-16
5.210000E+03	7.048846E-16	1.083663E-16
5.220000E+03	7.184746E-16	1.097228E-16
5.230000E+03	7.320943E-16	1.110500E-16
5.240000E+03	7.457320E-16	1.123456E-16
5.250000E+03	7.593681E-16	1.136062E-16
5.260000E+03	7.729833E-16	1.148284E-16
5.270000E+03	7.865408E-16	1.160065E-16
5.280000E+03	8.000288E-16	1.171385E-16
5.290000E+03	8.134186E-16	1.182201E-16
5.300000E+03	8.266882E-16	1.192478E-16
5.310000E+03	8.398104E-16	1.202179E-16
5.320000E+03	8.527721E-16	1.211284E-16
5.330000E+03	8.655379E-16	1.219746E-16
5.340000E+03	8.780868E-16	1.227537E-16
5.350000E+03	8.903919E-16	1.234623E-16
5.360000E+03	9.024433E-16	1.240996E-16
5.370000E+03	9.141966E-16	1.246600E-16
5.380000E+03	9.256458E-16	1.251433E-16
5.390000E+03	9.367644E-16	1.255467E-16
5.400000E+03	9.475294E-16	1.258680E-16
5.410000E+03	9.579011E-16	1.261030E-16
5.420000E+03	9.678597E-16	1.262500E-16
5.430000E+03	9.773905E-16	1.263085E-16
5.440000E+03	9.864368E-16	1.262725E-16
5.450000E+03	9.949858E-16	1.261420E-16
5.460000E+03	1.002992E-15	1.259128E-16
5.470000E+03	1.010434E-15	1.255842E-16
5.480000E+03	1.017339E-15	1.251614E-16
5.490000E+03	1.023699E-15	1.246454E-16
5.500000E+03	1.029549E-15	1.240422E-16
5.510000E+03	1.034905E-15	1.233555E-16
5.520000E+03	1.039811E-15	1.225924E-16
5.530000E+03	1.044266E-15	1.217543E-16
5.540000E+03	1.048298E-15	1.208463E-16
5.550000E+03	1.051916E-15	1.198709E-16
5.560000E+03	1.055158E-15	1.188342E-16
5.570000E+03	1.058025E-15	1.177376E-16
5.580000E+03	1.060535E-15	1.165849E-16
5.590000E+03	1.062696E-15	1.153784E-16
5.600000E+03	1.064540E-15	1.141232E-16
5.610000E+03	1.066063E-15	1.128202E-16
5.620000E+03	1.067285E-15	1.114731E-16
5.630000E+03	1.068223E-15	1.100851E-16
5.640000E+03	1.068885E-15	1.086585E-16
5.650000E+03	1.069289E-15	1.071966E-16
5.660000E+03	1.069428E-15	1.057002E-16
5.670000E+03	1.069319E-15	1.041724E-16
5.680000E+03	1.068978E-15	1.026162E-16
5.690000E+03	1.068407E-15	1.010335E-16
5.700000E+03	1.067610E-15	9.942593E-17
5.710000E+03	1.066588E-15	9.779535E-17
5.720000E+03	1.065366E-15	9.614551E-17
5.730000E+03	1.063921E-15	9.447596E-17
5.740000E+03	1.062276E-15	9.279048E-17
5.750000E+03	1.060429E-15	9.109066E-17
5.760000E+03	1.058368E-15	8.937712E-17
5.770000E+03	1.056103E-15	8.765267E-17
5.780000E+03	1.053642E-15	8.591988E-17
5.790000E+03	1.050972E-15	8.417959E-17
5.800000E+03	1.048088E-15	8.243366E-17
5.810000E+03	1.045010E-15	8.068574E-17
5.820000E+03	1.041712E-15	7.893619E-17
5.830000E+03	1.038202E-15	7.718789E-17
5.840000E+03	1.034476E-15	7.544314E-17
5.850000E+03	1.030531E-15	7.370424E-17
5.860000E+03	1.026374E-15	7.197453E-17
5.870000E+03	1.021982E-15	7.025510E-17
5.880000E+03	1.017372E-15	6.855019E-17
5.890000E+03	1.012533E-15	6.686216E-17
5.900000E+03	1.007462E-15	6.519397E-17
5.910000E+03	1.002160E-15	6.354904E-17
5.920000E+03	9.966265E-16	6.193077E-17
5.930000E+03	9.908734E-16	6.034349E-17
5.940000E+03	9.848789E-16	5.878951E-17
5.950000E+03	9.786471E-16	5.727284E-17
5.960000E+03	9.721916E-16	5.579810E-17
5.970000E+03	9.655172E-16	5.436940E-17
5.980000E+03	9.586070E-16	5.298967E-17
5.990000E+03	9.514897E-16	5.166435E-17
6.000000E+03	9.441396E-16	5.039584E-17
6.010000E+03	9.365983E-16	4.919005E-17
6.020000E+03	9.288422E-16	4.804922E-17
6.030000E+03	9.208819E-16	4.697720E-17
6.040000E+03	9.127400E-16	4.597811E-17
6.050000E+03	9.044180E-16	4.505460E-17
6.060000E+03	8.959289E-16	4.420947E-17
6.070000E+03	8.872657E-16	4.344399E-17
6.080000E+03	8.784648E-16	4.276095E-17
6.090000E+03	8.695103E-16	4.215996E-17
6.100000E+03	8.604401E-16	4.164254E-17
6.110000E+03	8.512614E-16	4.120694E-17
6.120000E+03	8.419810E-16	4.084861E-17
6.130000E+03	8.326169E-16	4.056277E-17
6.140000E+03	8.231971E-16	4.034482E-17
6.150000E+03	8.137291E-16	4.018892E-17
6.160000E+03	8.042310E-16	4.008961E-17
6.170000E+03	7.947403E-16	4.004245E-17
6.180000E+03	7.852554E-16	4.004110E-17
6.190000E+03	7.758044E-16	4.008091E-17
6.200000E+03	7.664163E-16	4.015758E-17
6.210000E+03	7.571209E-16	4.026716E-17
6.220000E+03	7.479295E-16	4.040514E-17
6.230000E+03	7.388633E-16	4.056791E-17
6.240000E+03	7.299524E-16	4.075278E-17
6.250000E+03	7.212067E-16	4.095640E-17
6.260000E+03	7.126527E-16	4.117676E-17
6.270000E+03	7.043057E-16	4.141166E-17
6.280000E+03	6.961874E-16	4.165967E-17
6.290000E+03	6.883080E-16	4.191906E-17
6.300000E+03	6.806748E-16	4.218831E-17
6.310000E+03	6.733023E-16	4.246661E-17
6.320000E+03	6.662017E-16	4.275329E-17
6.330000E+03	6.593643E-16	4.304665E-17
6.340000E+03	6.527968E-16	4.334620E-17
6.350000E+03	6.465039E-16	4.365154E-17
6.360000E+03	6.404701E-16	4.396105E-17
6.370000E+03	6.347050E-16	4.427497E-17
6.380000E+03	6.291986E-16	4.459233E-17
6.390000E+03	6.239390E-16	4.491209E-17
6.400000E+03	6.189132E-16	4.523319E-17
6.410000E+03	6.141247E-16	4.555582E-17
6.420000E+03	6.095491E-16	4.587819E-17
6.430000E+03	6.051881E-16	4.620044E-17
6.440000E+03	6.010246E-16	4.652134E-17
6.450000E+03	5.970409E-16	4.683962E-17
6.460000E+03	5.932282E-16	4.715466E-17
6.470000E+03	5.895683E-16	4.746509E-17
6.480000E+03	5.860522E-16	4.777028E-17
6.490000E+03	5.826437E-16	4.806732E-17
6.500000E+03	5.793430E-16	4.835625E-17
6.510000E+03	5.761325E-16	4.863564E-17
6.520000E+03	5.729863E-16	4.890330E-17
6.530000E+03	5.698970E-16	4.915857E-17
6.540000E+03	5.668488E-16	4.940006E-17
6.550000E+03	5.638268E-16	4.962640E-17
6.560000E+03	5.608169E-16	4.983631E-17
6.570000E+03	5.578148E-16	5.002932E-17
6.580000E+03	5.547997E-16	5.020350E-17
6.590000E+03	5.517600E-16	5.035771E-17
6.600000E+03	5.486950E-16	5.049179E-17
6.610000E+03	5.455957E-16	5.060484E-17
6.620000E+03	5.424451E-16	5.069522E-17
6.630000E+03	5.392457E-16	5.076307E-17
6.640000E+03	5.359827E-16	5.080696E-17
6.650000E+03	5.326698E-16	5.082812E-17
6.660000E+03	5.292854E-16	5.082449E-17
6.670000E+03	5.258271E-16	5.079582E-17
6.680000E+03	5.223026E-16	5.074285E-17
6.690000E+03	5.187115E-16	5.066558E-17
6.700000E+03	5.150453E-16	5.056323E-17
6.710000E+03	5.113055E-16	5.043601E-17
6.720000E+03	5.075030E-16	5.028511E-17
6.730000E+03	5.036318E-16	5.011005E-17
6.740000E+03	4.997044E-16	4.991222E-17
6.750000E+03	4.957072E-16	4.969043E-17
6.760000E+03	4.916626E-16	4.944711E-17
6.770000E+03	4.875582E-16	4.918124E-17
6.780000E+03	4.834170E-16	4.889537E-17
6.790000E+03	4.792274E-16	4.858859E-17
6.800000E+03	4.750044E-16	4.826268E-17
6.810000E+03	4.707542E-16	4.791858E-17
6.820000E+03	4.664750E-16	4.755639E-17
6.830000E+03	4.621817E-16	4.717797E-17
6.840000E+03	4.578727E-16	4.678348E-17
6.850000E+03	4.535631E-16	4.637481E-17
6.860000E+03	4.492427E-16	4.595126E-17
6.870000E+03	4.449349E-16	4.551560E-17
6.880000E+03	4.406377E-16	4.506798E-17
6.890000E+03	4.363576E-16	4.460941E-17
6.900000E+03	4.320926E-16	4.414009E-17
6.910000E+03	4.278648E-16	4.366263E-17
6.920000E+03	4.236560E-16	4.317553E-17
6.930000E+03	4.194959E-16	4.268220E-17
6.940000E+03	4.153736E-16	4.218187E-17
6.950000E+03	4.112944E-16	4.167546E-17
6.960000E+03	4.072711E-16	4.116459E-17
6.970000E+03	4.033004E-16	4.064927E-17
6.980000E+03	3.993867E-16	4.013028E-17
6.990000E+03	3.955343E-16	3.960837E-17
7.000000E+03	3.917469E-16	3.908424E-17
7.010000E+03	3.880282E-16	3.855853E-17
7.020000E+03	3.843742E-16	3.803116E-17
7.030000E+03	3.808032E-16	3.750421E-17
7.040000E+03	3.772955E-16	3.697601E-17
7.050000E+03	3.738765E-16	3.644929E-17
7.060000E+03	3.705264E-16	3.592238E-17
7.070000E+03	3.672627E-16	3.539719E-17
7.080000E+03	3.640799E-16	3.487343E-17
7.090000E+03	3.609802E-16	3.435152E-17
7.100000E+03	3.579730E-16	3.383252E-17
7.110000E+03	3.550452E-16	3.331540E-17
7.120000E+03	3.522061E-16	3.280120E-17
7.130000E+03	3.494498E-16	3.228953E-17
7.140000E+03	3.467850E-16	3.178137E-17
7.150000E+03	3.442126E-16	3.127693E-17
7.160000E+03	3.417271E-16	3.077585E-17
7.170000E+03	3.393363E-16	3.027896E-17
7.180000E+03	3.370274E-16	2.978526E-17
7.190000E+03	3.348150E-16	2.929614E-17
7.200000E+03	3.326931E-16	2.881120E-17
7.210000E+03	3.306556E-16	2.833002E-17
7.220000E+03	3.287098E-16	2.785336E-17
7.230000E+03	3.268564E-16	2.738138E-17
7.240000E+03	3.250890E-16	2.691368E-17
7.250000E+03	3.234081E-16	2.645043E-17
7.260000E+03	3.218141E-16	2.599180E-17
7.270000E+03	3.203072E-16	2.553794E-17
7.280000E+03	3.188875E-16	2.508904E-17
7.290000E+03	3.175420E-16	2.464425E-17
7.300000E+03	3.162840E-16	2.420482E-17
7.310000E+03	3.151068E-16	2.377046E-17
7.320000E+03	3.140038E-16	2.334093E-17
7.330000E+03	3.129811E-16	2.291698E-17
7.340000E+03	3.120255E-16	2.249798E-17
7.350000E+03	3.111364E-16	2.208429E-17
7.360000E+03	3.103134E-16	2.167630E-17
7.370000E+03	3.095494E-16	2.127402E-17
7.380000E+03	3.088499E-16	2.087838E-17
7.390000E+03	3.081945E-16	2.048864E-17
7.400000E+03	3.075951E-16	2.010630E-17
7.410000E+03	3.070376E-16	1.973121E-17
7.420000E+03	3.065269E-16	1.936455E-17
7.430000E+03	3.060551E-16	1.900678E-17
7.440000E+03	3.056201E-16	1.865882E-17
7.450000E+03	3.052270E-16	1.832210E-17
7.460000E+03	3.048668E-16	1.799731E-17
7.470000E+03	3.045571E-16	1.768681E-17
7.480000E+03	3.042825E-16	1.739109E-17
7.490000E+03	3.040536E-16	1.711224E-17
7.500000E+03	3.038614E-16	1.685134E-17
7.510000E+03	3.037230E-16	1.661097E-17
7.520000E+03	3.036292E-16	1.639235E-17
7.530000E+03	3.035773E-16	1.619709E-17
7.540000E+03	3.035712E-16	1.602722E-17
7.550000E+03	3.036079E-16	1.588441E-17
7.560000E+03	3.036983E-16	1.577101E-17
7.570000E+03	3.038260E-16	1.568796E-17
7.580000E+03	3.039950E-16	1.563714E-17
7.590000E+03	3.042093E-16	1.562035E-17
7.600000E+03	3.044594E-16	1.563853E-17
7.610000E+03	3.047493E-16	1.569315E-17
7.620000E+03	3.050694E-16	1.578470E-17
7.630000E+03	3.054306E-16	1.591378E-17
7.640000E+03	3.058167E-16	1.607895E-17
7.650000E+03	3.062391E-16	1.628002E-17
7.660000E+03	3.066814E-16	1.651516E-17
7.670000E+03	3.071550E-16	1.678387E-17
7.680000E+03	3.076441E-16	1.708405E-17
7.690000E+03	3.081608E-16	1.741509E-17
7.700000E+03	3.086963E-16	1.777513E-17
7.710000E+03	3.092494E-16	1.816270E-17
7.720000E+03	3.098183E-16	1.857631E-17
7.730000E+03	3.104019E-16	1.901449E-17
7.740000E+03	3.109990E-16	1.947583E-17
7.750000E+03	3.116011E-16	1.995847E-17
7.760000E+03	3.122220E-16	2.046202E-17
