#wls	flux	fluxerr
1.600000E+03	8.704019E-16	6.337967E-17
1.640000E+03	9.002115E-16	6.525257E-17
1.680000E+03	9.319239E-16	6.723555E-17
1.720000E+03	9.655895E-16	6.932941E-17
1.760000E+03	1.001339E-15	7.154047E-17
1.800000E+03	1.039381E-15	7.388041E-17
1.840000E+03	1.079571E-15	7.633523E-17
1.880000E+03	1.122188E-15	7.892105E-17
1.920000E+03	1.167238E-15	8.163423E-17
1.960000E+03	1.214716E-15	8.447028E-17
2.000000E+03	1.264518E-15	8.741760E-17
2.040000E+03	1.316614E-15	9.046971E-17
2.080000E+03	1.370782E-15	9.360707E-17
2.120000E+03	1.426620E-15	9.679801E-17
2.160000E+03	1.483972E-15	1.000280E-16
2.200000E+03	1.542324E-15	1.032589E-16
2.240000E+03	1.601243E-15	1.064586E-16
2.280000E+03	1.660460E-15	1.096067E-16
2.320000E+03	1.719867E-15	1.126937E-16
2.360000E+03	1.779594E-15	1.157259E-16
2.400000E+03	1.839837E-15	1.187134E-16
2.440000E+03	1.900769E-15	1.216647E-16
2.480000E+03	1.962780E-15	1.246013E-16
2.520000E+03	2.025984E-15	1.275268E-16
2.560000E+03	2.090620E-15	1.304520E-16
2.600000E+03	2.156654E-15	1.333704E-16
2.640000E+03	2.224099E-15	1.362784E-16
2.680000E+03	2.292776E-15	1.391606E-16
2.720000E+03	2.362486E-15	1.420008E-16
2.760000E+03	2.433000E-15	1.447813E-16
2.800000E+03	2.503991E-15	1.474795E-16
2.840000E+03	2.575116E-15	1.500724E-16
2.880000E+03	2.646159E-15	1.525455E-16
2.920000E+03	2.716740E-15	1.548752E-16
2.960000E+03	2.786811E-15	1.570582E-16
3.000000E+03	2.856088E-15	1.590779E-16
3.010000E+03	2.873344E-15	1.595608E-16
3.020000E+03	2.890498E-15	1.600305E-16
3.030000E+03	2.907540E-15	1.604866E-16
3.040000E+03	2.924591E-15	1.609358E-16
3.050000E+03	2.941578E-15	1.613740E-16
3.060000E+03	2.958490E-15	1.618007E-16
3.070000E+03	2.975380E-15	1.622187E-16
3.080000E+03	2.992177E-15	1.626242E-16
3.090000E+03	3.008870E-15	1.630167E-16
3.100000E+03	3.025575E-15	1.634025E-16
3.110000E+03	3.042156E-15	1.637741E-16
3.120000E+03	3.058667E-15	1.641346E-16
3.130000E+03	3.075034E-15	1.644800E-16
3.140000E+03	3.091434E-15	1.648198E-16
3.150000E+03	3.107671E-15	1.651437E-16
3.160000E+03	3.123797E-15	1.654543E-16
3.170000E+03	3.139861E-15	1.657544E-16
3.180000E+03	3.155854E-15	1.660435E-16
3.190000E+03	3.171645E-15	1.663148E-16
3.200000E+03	3.187404E-15	1.665772E-16
3.210000E+03	3.203000E-15	1.668240E-16
3.220000E+03	3.218484E-15	1.670578E-16
3.230000E+03	3.233786E-15	1.672752E-16
3.240000E+03	3.248956E-15	1.674788E-16
3.250000E+03	3.263983E-15	1.676681E-16
3.260000E+03	3.278857E-15	1.678427E-16
3.270000E+03	3.293513E-15	1.679993E-16
3.280000E+03	3.307997E-15	1.681405E-16
3.290000E+03	3.322300E-15	1.682659E-16
3.300000E+03	3.336359E-15	1.683723E-16
3.310000E+03	3.350219E-15	1.684622E-16
3.320000E+03	3.363817E-15	1.685327E-16
3.330000E+03	3.377200E-15	1.685860E-16
3.340000E+03	3.390307E-15	1.686195E-16
3.350000E+03	3.403129E-15	1.686328E-16
3.360000E+03	3.415660E-15	1.686258E-16
3.370000E+03	3.427893E-15	1.685983E-16
3.380000E+03	3.439821E-15	1.685502E-16
3.390000E+03	3.451388E-15	1.684789E-16
3.400000E+03	3.462639E-15	1.683869E-16
3.410000E+03	3.473468E-15	1.682692E-16
3.420000E+03	3.483972E-15	1.681308E-16
3.430000E+03	3.494045E-15	1.679667E-16
3.440000E+03	3.503685E-15	1.677773E-16
3.450000E+03	3.512892E-15	1.675627E-16
3.460000E+03	3.521612E-15	1.673207E-16
3.470000E+03	3.529894E-15	1.670540E-16
3.480000E+03	3.537689E-15	1.667603E-16
3.490000E+03	3.544949E-15	1.664380E-16
3.500000E+03	3.551676E-15	1.660874E-16
3.510000E+03	3.557826E-15	1.657067E-16
3.520000E+03	3.563444E-15	1.652986E-16
3.530000E+03	3.568401E-15	1.648573E-16
3.540000E+03	3.572746E-15	1.643855E-16
3.550000E+03	3.576438E-15	1.638819E-16
3.560000E+03	3.579485E-15	1.633471E-16
3.570000E+03	3.581807E-15	1.627779E-16
3.580000E+03	3.583369E-15	1.621734E-16
3.590000E+03	3.584224E-15	1.615363E-16
3.600000E+03	3.584257E-15	1.608619E-16
3.610000E+03	3.583521E-15	1.601532E-16
3.620000E+03	3.581987E-15	1.594093E-16
3.630000E+03	3.579588E-15	1.586279E-16
3.640000E+03	3.576301E-15	1.578084E-16
3.650000E+03	3.572140E-15	1.569521E-16
3.660000E+03	3.567047E-15	1.560570E-16
3.670000E+03	3.561078E-15	1.551262E-16
3.680000E+03	3.554139E-15	1.541560E-16
3.690000E+03	3.546250E-15	1.531481E-16
3.700000E+03	3.537397E-15	1.521025E-16
3.710000E+03	3.527603E-15	1.510207E-16
3.720000E+03	3.516818E-15	1.499012E-16
3.730000E+03	3.505067E-15	1.487458E-16
3.740000E+03	3.492342E-15	1.475546E-16
3.750000E+03	3.478667E-15	1.463294E-16
3.760000E+03	3.464037E-15	1.450706E-16
3.770000E+03	3.448478E-15	1.437798E-16
3.780000E+03	3.431985E-15	1.424574E-16
3.790000E+03	3.414552E-15	1.411038E-16
3.800000E+03	3.396278E-15	1.397236E-16
3.810000E+03	3.377091E-15	1.383145E-16
3.820000E+03	3.357056E-15	1.368797E-16
3.830000E+03	3.336236E-15	1.354221E-16
3.840000E+03	3.314595E-15	1.339411E-16
3.850000E+03	3.292168E-15	1.324383E-16
3.860000E+03	3.269017E-15	1.309169E-16
3.870000E+03	3.245173E-15	1.293784E-16
3.880000E+03	3.220670E-15	1.278247E-16
3.890000E+03	3.195509E-15	1.262562E-16
3.900000E+03	3.169754E-15	1.246759E-16
3.910000E+03	3.143440E-15	1.230855E-16
3.920000E+03	3.116598E-15	1.214866E-16
3.930000E+03	3.089269E-15	1.198809E-16
3.940000E+03	3.061485E-15	1.182702E-16
3.950000E+03	3.033314E-15	1.166573E-16
3.960000E+03	3.004795E-15	1.150439E-16
3.970000E+03	2.975939E-15	1.134306E-16
3.980000E+03	2.946845E-15	1.118214E-16
3.990000E+03	2.917530E-15	1.102171E-16
4.000000E+03	2.888064E-15	1.086204E-16
4.010000E+03	2.858497E-15	1.070334E-16
4.020000E+03	2.828853E-15	1.054569E-16
4.030000E+03	2.799238E-15	1.038949E-16
4.040000E+03	2.769679E-15	1.023485E-16
4.050000E+03	2.740260E-15	1.008207E-16
4.060000E+03	2.711042E-15	9.931369E-17
4.070000E+03	2.682083E-15	9.782941E-17
4.080000E+03	2.653448E-15	9.637016E-17
4.090000E+03	2.625221E-15	9.493880E-17
4.100000E+03	2.597446E-15	9.353670E-17
4.110000E+03	2.570185E-15	9.216584E-17
4.120000E+03	2.543544E-15	9.082982E-17
4.130000E+03	2.517542E-15	8.952897E-17
4.140000E+03	2.492259E-15	8.826581E-17
4.150000E+03	2.467750E-15	8.704201E-17
4.160000E+03	2.444068E-15	8.585903E-17
4.170000E+03	2.421262E-15	8.471821E-17
4.180000E+03	2.399376E-15	8.362074E-17
4.190000E+03	2.378449E-15	8.256755E-17
4.200000E+03	2.358517E-15	8.155947E-17
4.210000E+03	2.339610E-15	8.059713E-17
4.220000E+03	2.321751E-15	7.968093E-17
4.230000E+03	2.304942E-15	7.881053E-17
4.240000E+03	2.289199E-15	7.798603E-17
4.250000E+03	2.274553E-15	7.720813E-17
4.260000E+03	2.261014E-15	7.647675E-17
4.270000E+03	2.248546E-15	7.579030E-17
4.280000E+03	2.237171E-15	7.514917E-17
4.290000E+03	2.226887E-15	7.455290E-17
4.300000E+03	2.217689E-15	7.400102E-17
4.310000E+03	2.209566E-15	7.349287E-17
4.320000E+03	2.202486E-15	7.302700E-17
4.330000E+03	2.196466E-15	7.260377E-17
4.340000E+03	2.191440E-15	7.222070E-17
4.350000E+03	2.187409E-15	7.187758E-17
4.360000E+03	2.184323E-15	7.157255E-17
4.370000E+03	2.182137E-15	7.130399E-17
4.380000E+03	2.180774E-15	7.106911E-17
4.390000E+03	2.180155E-15	7.086504E-17
4.400000E+03	2.180159E-15	7.068758E-17
4.410000E+03	2.180685E-15	7.053323E-17
4.420000E+03	2.181570E-15	7.039646E-17
4.430000E+03	2.182639E-15	7.027152E-17
4.440000E+03	2.183764E-15	7.015413E-17
4.450000E+03	2.184762E-15	7.003830E-17
4.460000E+03	2.185448E-15	6.991809E-17
4.470000E+03	2.185646E-15	6.978778E-17
4.480000E+03	2.185109E-15	6.963952E-17
4.490000E+03	2.183649E-15	6.946733E-17
4.500000E+03	2.181060E-15	6.926473E-17
4.510000E+03	2.177128E-15	6.902497E-17
4.520000E+03	2.171680E-15	6.874264E-17
4.530000E+03	2.164566E-15	6.841311E-17
4.540000E+03	2.155672E-15	6.803286E-17
4.550000E+03	2.144923E-15	6.759960E-17
4.560000E+03	2.132268E-15	6.711176E-17
4.570000E+03	2.117705E-15	6.656937E-17
4.580000E+03	2.101338E-15	6.597571E-17
4.590000E+03	2.083245E-15	6.533319E-17
4.600000E+03	2.063565E-15	6.464619E-17
4.610000E+03	2.042520E-15	6.392158E-17
4.620000E+03	2.020352E-15	6.316684E-17
4.630000E+03	1.997269E-15	6.238835E-17
4.640000E+03	1.973621E-15	6.159687E-17
4.650000E+03	1.949633E-15	6.079928E-17
4.660000E+03	1.925651E-15	6.000615E-17
4.670000E+03	1.901960E-15	5.922617E-17
4.680000E+03	1.878838E-15	5.846773E-17
4.690000E+03	1.856540E-15	5.773858E-17
4.700000E+03	1.835303E-15	5.704582E-17
4.710000E+03	1.815372E-15	5.639683E-17
4.720000E+03	1.796905E-15	5.579630E-17
4.730000E+03	1.780049E-15	5.524858E-17
4.740000E+03	1.764932E-15	5.475743E-17
4.750000E+03	1.751598E-15	5.432401E-17
4.760000E+03	1.740146E-15	5.395119E-17
4.770000E+03	1.730537E-15	5.363762E-17
4.780000E+03	1.722792E-15	5.338376E-17
4.790000E+03	1.716869E-15	5.318820E-17
4.800000E+03	1.712670E-15	5.304776E-17
4.810000E+03	1.710126E-15	5.296022E-17
4.820000E+03	1.709154E-15	5.292286E-17
4.830000E+03	1.709604E-15	5.293099E-17
4.840000E+03	1.711371E-15	5.298125E-17
4.850000E+03	1.714326E-15	5.306960E-17
4.860000E+03	1.718321E-15	5.319139E-17
4.870000E+03	1.723242E-15	5.334302E-17
4.880000E+03	1.729006E-15	5.352185E-17
4.890000E+03	1.735506E-15	5.372448E-17
4.900000E+03	1.742680E-15	5.394899E-17
4.910000E+03	1.750429E-15	5.419221E-17
4.920000E+03	1.758724E-15	5.445319E-17
4.930000E+03	1.767533E-15	5.473091E-17
4.940000E+03	1.776828E-15	5.502439E-17
4.950000E+03	1.786632E-15	5.533434E-17
4.960000E+03	1.796948E-15	5.566079E-17
4.970000E+03	1.807829E-15	5.600534E-17
4.980000E+03	1.819304E-15	5.636882E-17
4.990000E+03	1.831430E-15	5.675295E-17
5.000000E+03	1.844247E-15	5.715892E-17
5.010000E+03	1.857855E-15	5.758981E-17
5.020000E+03	1.872276E-15	5.804623E-17
5.030000E+03	1.887561E-15	5.852975E-17
5.040000E+03	1.903775E-15	5.904233E-17
5.050000E+03	1.920933E-15	5.958436E-17
5.060000E+03	1.939053E-15	6.015643E-17
5.070000E+03	1.958140E-15	6.075861E-17
5.080000E+03	1.978181E-15	6.139045E-17
5.090000E+03	1.999124E-15	6.205037E-17
5.100000E+03	2.020923E-15	6.273681E-17
5.110000E+03	2.043534E-15	6.344839E-17
5.120000E+03	2.066832E-15	6.418122E-17
5.130000E+03	2.090762E-15	6.493350E-17
5.140000E+03	2.115148E-15	6.569972E-17
5.150000E+03	2.139902E-15	6.647715E-17
5.160000E+03	2.164869E-15	6.726087E-17
5.170000E+03	2.189897E-15	6.804613E-17
5.180000E+03	2.214832E-15	6.882806E-17
5.190000E+03	2.239490E-15	6.960094E-17
5.200000E+03	2.263706E-15	7.035953E-17
5.210000E+03	2.287293E-15	7.109798E-17
5.220000E+03	2.310137E-15	7.181269E-17
5.230000E+03	2.332010E-15	7.249654E-17
5.240000E+03	2.352788E-15	7.314560E-17
5.250000E+03	2.372335E-15	7.375562E-17
5.260000E+03	2.390527E-15	7.432266E-17
5.270000E+03	2.407209E-15	7.484190E-17
5.280000E+03	2.422314E-15	7.531118E-17
5.290000E+03	2.435745E-15	7.572749E-17
5.300000E+03	2.447451E-15	7.608920E-17
5.310000E+03	2.457374E-15	7.639449E-17
5.320000E+03	2.465527E-15	7.664379E-17
5.330000E+03	2.471867E-15	7.683567E-17
5.340000E+03	2.476418E-15	7.697098E-17
5.350000E+03	2.479198E-15	7.705023E-17
5.360000E+03	2.480289E-15	7.707597E-17
5.370000E+03	2.479684E-15	7.704802E-17
5.380000E+03	2.477489E-15	7.696972E-17
5.390000E+03	2.473768E-15	7.684305E-17
5.400000E+03	2.468590E-15	7.667021E-17
5.410000E+03	2.461986E-15	7.645216E-17
5.420000E+03	2.454039E-15	7.619154E-17
5.430000E+03	2.444837E-15	7.589112E-17
5.440000E+03	2.434371E-15	7.555062E-17
5.450000E+03	2.422727E-15	7.517274E-17
5.460000E+03	2.409918E-15	7.475796E-17
5.470000E+03	2.396002E-15	7.430812E-17
5.480000E+03	2.381154E-15	7.382872E-17
5.490000E+03	2.365452E-15	7.332216E-17
5.500000E+03	2.349060E-15	7.279364E-17
5.510000E+03	2.332091E-15	7.224669E-17
5.520000E+03	2.314724E-15	7.168692E-17
5.530000E+03	2.297015E-15	7.111608E-17
5.540000E+03	2.279086E-15	7.053800E-17
5.550000E+03	2.261008E-15	6.995497E-17
5.560000E+03	2.242917E-15	6.937120E-17
5.570000E+03	2.224854E-15	6.878802E-17
5.580000E+03	2.206904E-15	6.820806E-17
5.590000E+03	2.189122E-15	6.763312E-17
5.600000E+03	2.171607E-15	6.706626E-17
5.610000E+03	2.154388E-15	6.650845E-17
5.620000E+03	2.137534E-15	6.596179E-17
5.630000E+03	2.121108E-15	6.542833E-17
5.640000E+03	2.105149E-15	6.490923E-17
5.650000E+03	2.089709E-15	6.440620E-17
5.660000E+03	2.074797E-15	6.391948E-17
5.670000E+03	2.060453E-15	6.345034E-17
5.680000E+03	2.046712E-15	6.299991E-17
5.690000E+03	2.033579E-15	6.256839E-17
5.700000E+03	2.021053E-15	6.215569E-17
5.710000E+03	2.009121E-15	6.176150E-17
5.720000E+03	1.997804E-15	6.138646E-17
5.730000E+03	1.987028E-15	6.102835E-17
5.740000E+03	1.976795E-15	6.068725E-17
5.750000E+03	1.967053E-15	6.036155E-17
5.760000E+03	1.957721E-15	6.004885E-17
5.770000E+03	1.948750E-15	5.974765E-17
5.780000E+03	1.940084E-15	5.945630E-17
5.790000E+03	1.931618E-15	5.917162E-17
5.800000E+03	1.923264E-15	5.889092E-17
5.810000E+03	1.914971E-15	5.861271E-17
5.820000E+03	1.906604E-15	5.833289E-17
5.830000E+03	1.898086E-15	5.804920E-17
5.840000E+03	1.889326E-15	5.775892E-17
5.850000E+03	1.880235E-15	5.745932E-17
5.860000E+03	1.870745E-15	5.714846E-17
5.870000E+03	1.860735E-15	5.682269E-17
5.880000E+03	1.850176E-15	5.648115E-17
5.890000E+03	1.838977E-15	5.612119E-17
5.900000E+03	1.827080E-15	5.574106E-17
5.910000E+03	1.814438E-15	5.533939E-17
5.920000E+03	1.801003E-15	5.491483E-17
5.930000E+03	1.786764E-15	5.446703E-17
5.940000E+03	1.771651E-15	5.399400E-17
5.950000E+03	1.755644E-15	5.349510E-17
5.960000E+03	1.738751E-15	5.297065E-17
5.970000E+03	1.720963E-15	5.242045E-17
5.980000E+03	1.702239E-15	5.184323E-17
5.990000E+03	1.682622E-15	5.124037E-17
6.000000E+03	1.662063E-15	5.061038E-17
6.010000E+03	1.640636E-15	4.995555E-17
6.020000E+03	1.618301E-15	4.927465E-17
6.030000E+03	1.595088E-15	4.856859E-17
6.040000E+03	1.571046E-15	4.783886E-17
6.050000E+03	1.546198E-15	4.708611E-17
6.060000E+03	1.520590E-15	4.631174E-17
6.070000E+03	1.494240E-15	4.551628E-17
6.080000E+03	1.467252E-15	4.470282E-17
6.090000E+03	1.439646E-15	4.387194E-17
6.100000E+03	1.411542E-15	4.302713E-17
6.110000E+03	1.383019E-15	4.217065E-17
6.120000E+03	1.354163E-15	4.130496E-17
6.130000E+03	1.325090E-15	4.043348E-17
6.140000E+03	1.295937E-15	3.956020E-17
6.150000E+03	1.266814E-15	3.868839E-17
6.160000E+03	1.237852E-15	3.782187E-17
6.170000E+03	1.209210E-15	3.696543E-17
6.180000E+03	1.180985E-15	3.612190E-17
6.190000E+03	1.153310E-15	3.529526E-17
6.200000E+03	1.126307E-15	3.448918E-17
6.210000E+03	1.100150E-15	3.370891E-17
6.220000E+03	1.075068E-15	3.296141E-17
6.230000E+03	1.051286E-15	3.225358E-17
6.240000E+03	1.029003E-15	3.159149E-17
6.250000E+03	1.008356E-15	3.097936E-17
6.260000E+03	9.894728E-16	3.042120E-17
6.270000E+03	9.724375E-16	2.991962E-17
6.280000E+03	9.573161E-16	2.947671E-17
6.290000E+03	9.441343E-16	2.909334E-17
6.300000E+03	9.328936E-16	2.876966E-17
6.310000E+03	9.235862E-16	2.850551E-17
6.320000E+03	9.161857E-16	2.830019E-17
6.330000E+03	9.106236E-16	2.815168E-17
6.340000E+03	9.068424E-16	2.805831E-17
6.350000E+03	9.047721E-16	2.801803E-17
6.360000E+03	9.043068E-16	2.802765E-17
6.370000E+03	9.053693E-16	2.808488E-17
6.380000E+03	9.078492E-16	2.818639E-17
6.390000E+03	9.116291E-16	2.832863E-17
6.400000E+03	9.165859E-16	2.850786E-17
6.410000E+03	9.226181E-16	2.872098E-17
6.420000E+03	9.295808E-16	2.896356E-17
6.430000E+03	9.373669E-16	2.923231E-17
6.440000E+03	9.458402E-16	2.952302E-17
6.450000E+03	9.548640E-16	2.983147E-17
6.460000E+03	9.643156E-16	3.015384E-17
6.470000E+03	9.740593E-16	3.048591E-17
6.480000E+03	9.839766E-16	3.082397E-17
6.490000E+03	9.939071E-16	3.116297E-17
6.500000E+03	1.003754E-15	3.149988E-17
6.510000E+03	1.013398E-15	3.183090E-17
6.520000E+03	1.022708E-15	3.215187E-17
6.530000E+03	1.031591E-15	3.245985E-17
6.540000E+03	1.039950E-15	3.275167E-17
6.550000E+03	1.047692E-15	3.302440E-17
6.560000E+03	1.054736E-15	3.327540E-17
6.570000E+03	1.061028E-15	3.350287E-17
6.580000E+03	1.066491E-15	3.370428E-17
6.590000E+03	1.071073E-15	3.387797E-17
6.600000E+03	1.074754E-15	3.402314E-17
6.610000E+03	1.077501E-15	3.413872E-17
6.620000E+03	1.079282E-15	3.422357E-17
6.630000E+03	1.080103E-15	3.427782E-17
6.640000E+03	1.079948E-15	3.430086E-17
6.650000E+03	1.078863E-15	3.429410E-17
6.660000E+03	1.076830E-15	3.425684E-17
6.670000E+03	1.073874E-15	3.418986E-17
6.680000E+03	1.070049E-15	3.409475E-17
6.690000E+03	1.065392E-15	3.397262E-17
6.700000E+03	1.059928E-15	3.382427E-17
6.710000E+03	1.053706E-15	3.365118E-17
6.720000E+03	1.046797E-15	3.345554E-17
6.730000E+03	1.039236E-15	3.323846E-17
6.740000E+03	1.031099E-15	3.300230E-17
6.750000E+03	1.022406E-15	3.274768E-17
6.760000E+03	1.013250E-15	3.247761E-17
6.770000E+03	1.003655E-15	3.219274E-17
6.780000E+03	9.937118E-16	3.189604E-17
6.790000E+03	9.834406E-16	3.158811E-17
6.800000E+03	9.729132E-16	3.127127E-17
6.810000E+03	9.621808E-16	3.094716E-17
6.820000E+03	9.512751E-16	3.061679E-17
6.830000E+03	9.402601E-16	3.028224E-17
6.840000E+03	9.291619E-16	2.994436E-17
6.850000E+03	9.180385E-16	2.960502E-17
6.860000E+03	9.068931E-16	2.926435E-17
6.870000E+03	8.957944E-16	2.892458E-17
6.880000E+03	8.847566E-16	2.858618E-17
6.890000E+03	8.738082E-16	2.825011E-17
6.900000E+03	8.629581E-16	2.791668E-17
6.910000E+03	8.522615E-16	2.758769E-17
6.920000E+03	8.416897E-16	2.726224E-17
6.930000E+03	8.313084E-16	2.694248E-17
6.940000E+03	8.211003E-16	2.662789E-17
6.950000E+03	8.110782E-16	2.631891E-17
6.960000E+03	8.012685E-16	2.601643E-17
6.970000E+03	7.916647E-16	2.572025E-17
6.980000E+03	7.822737E-16	2.543065E-17
6.990000E+03	7.731018E-16	2.514784E-17
7.000000E+03	7.641534E-16	2.487201E-17
7.010000E+03	7.554321E-16	2.460331E-17
7.020000E+03	7.469258E-16	2.434136E-17
7.030000E+03	7.386655E-16	2.408721E-17
7.040000E+03	7.306090E-16	2.383952E-17
7.050000E+03	7.228003E-16	2.359975E-17
7.060000E+03	7.151967E-16	2.336653E-17
7.070000E+03	7.078269E-16	2.314084E-17
7.080000E+03	7.006765E-16	2.292223E-17
7.090000E+03	6.937454E-16	2.271073E-17
7.100000E+03	6.870467E-16	2.250680E-17
7.110000E+03	6.805525E-16	2.230955E-17
7.120000E+03	6.742761E-16	2.211946E-17
7.130000E+03	6.682033E-16	2.193609E-17
7.140000E+03	6.623474E-16	2.175989E-17
7.150000E+03	6.567078E-16	2.159089E-17
7.160000E+03	6.512706E-16	2.142866E-17
7.170000E+03	6.460488E-16	2.127366E-17
7.180000E+03	6.410155E-16	2.112503E-17
7.190000E+03	6.361969E-16	2.098366E-17
7.200000E+03	6.315795E-16	2.084915E-17
7.210000E+03	6.271501E-16	2.072109E-17
7.220000E+03	6.229218E-16	2.059995E-17
7.230000E+03	6.188943E-16	2.048575E-17
7.240000E+03	6.150551E-16	2.037811E-17
7.250000E+03	6.114043E-16	2.027707E-17
7.260000E+03	6.079425E-16	2.018268E-17
7.270000E+03	6.046704E-16	2.009500E-17
7.280000E+03	6.015885E-16	2.001408E-17
7.290000E+03	5.986731E-16	1.993918E-17
7.300000E+03	5.959503E-16	1.987120E-17
7.310000E+03	5.934093E-16	1.980982E-17
7.320000E+03	5.910395E-16	1.975473E-17
7.330000E+03	5.888551E-16	1.970643E-17
7.340000E+03	5.868338E-16	1.966423E-17
7.350000E+03	5.849777E-16	1.962824E-17
7.360000E+03	5.832895E-16	1.959859E-17
7.370000E+03	5.817589E-16	1.957498E-17
7.380000E+03	5.804002E-16	1.955793E-17
7.390000E+03	5.791782E-16	1.954630E-17
7.400000E+03	5.781184E-16	1.954101E-17
7.410000E+03	5.771966E-16	1.954127E-17
7.420000E+03	5.764242E-16	1.954753E-17
7.430000E+03	5.757867E-16	1.955933E-17
7.440000E+03	5.752808E-16	1.957662E-17
7.450000E+03	5.749136E-16	1.959968E-17
7.460000E+03	5.746661E-16	1.962792E-17
7.470000E+03	5.745665E-16	1.966235E-17
7.480000E+03	5.745799E-16	1.970184E-17
7.490000E+03	5.747189E-16	1.974686E-17
7.500000E+03	5.749569E-16	1.979657E-17
7.510000E+03	5.753158E-16	1.985175E-17
7.520000E+03	5.757662E-16	1.991146E-17
7.530000E+03	5.762896E-16	1.997510E-17
7.540000E+03	5.768790E-16	2.004247E-17
7.550000E+03	5.775141E-16	2.011293E-17
7.560000E+03	5.781992E-16	2.018665E-17
7.570000E+03	5.788873E-16	2.026204E-17
7.580000E+03	5.795693E-16	2.033882E-17
7.590000E+03	5.802363E-16	2.041666E-17
7.600000E+03	5.808535E-16	2.049434E-17
7.610000E+03	5.814129E-16	2.057152E-17
7.620000E+03	5.818806E-16	2.064698E-17
7.630000E+03	5.822631E-16	2.072090E-17
7.640000E+03	5.825149E-16	2.079160E-17
7.650000E+03	5.826497E-16	2.085952E-17
7.660000E+03	5.826371E-16	2.092350E-17
7.670000E+03	5.825018E-16	2.098436E-17
7.680000E+03	5.822164E-16	2.104105E-17
7.690000E+03	5.818080E-16	2.109446E-17
7.700000E+03	5.812648E-16	2.114410E-17
7.710000E+03	5.805896E-16	2.118999E-17
7.720000E+03	5.797856E-16	2.123218E-17
7.730000E+03	5.788574E-16	2.127076E-17
7.740000E+03	5.778101E-16	2.130584E-17
7.750000E+03	5.766360E-16	2.133706E-17
7.760000E+03	5.753680E-16	2.136556E-17
