#wls	flux	fluxerr
1.600000E+03	1.014567E-15	1.815035E-17
1.640000E+03	1.054578E-15	1.881643E-17
1.680000E+03	1.097073E-15	1.952163E-17
1.720000E+03	1.142577E-15	2.027475E-17
1.760000E+03	1.191098E-15	2.107528E-17
1.800000E+03	1.242844E-15	2.192619E-17
1.840000E+03	1.298126E-15	2.283225E-17
1.880000E+03	1.357032E-15	2.379421E-17
1.920000E+03	1.419752E-15	2.481449E-17
1.960000E+03	1.486462E-15	2.589525E-17
2.000000E+03	1.557104E-15	2.703448E-17
2.040000E+03	1.631933E-15	2.823558E-17
2.080000E+03	1.710632E-15	2.949198E-17
2.120000E+03	1.792861E-15	3.079672E-17
2.160000E+03	1.878361E-15	3.214431E-17
2.200000E+03	1.966512E-15	3.352313E-17
2.240000E+03	2.056329E-15	3.491548E-17
2.280000E+03	2.147700E-15	3.631869E-17
2.320000E+03	2.240266E-15	3.772588E-17
2.360000E+03	2.334540E-15	3.914496E-17
2.400000E+03	2.431129E-15	4.058514E-17
2.440000E+03	2.530599E-15	4.205484E-17
2.480000E+03	2.633593E-15	4.356347E-17
2.520000E+03	2.740256E-15	4.511206E-17
2.560000E+03	2.851126E-15	4.670797E-17
2.600000E+03	2.966128E-15	4.834832E-17
2.640000E+03	3.085235E-15	5.003102E-17
2.680000E+03	3.208137E-15	5.174940E-17
2.720000E+03	3.334572E-15	5.349755E-17
2.760000E+03	3.463994E-15	5.526515E-17
2.800000E+03	3.595698E-15	5.703946E-17
2.840000E+03	3.729130E-15	5.881040E-17
2.880000E+03	3.863577E-15	6.056554E-17
2.920000E+03	3.998577E-15	6.229663E-17
2.960000E+03	4.133801E-15	6.399771E-17
3.000000E+03	4.269043E-15	6.566474E-17
3.010000E+03	4.302811E-15	6.607541E-17
3.020000E+03	4.336573E-15	6.648377E-17
3.030000E+03	4.370310E-15	6.688955E-17
3.040000E+03	4.404099E-15	6.729388E-17
3.050000E+03	4.437820E-15	6.769496E-17
3.060000E+03	4.471456E-15	6.809250E-17
3.070000E+03	4.505175E-15	6.848904E-17
3.080000E+03	4.538766E-15	6.888139E-17
3.090000E+03	4.572396E-15	6.927205E-17
3.100000E+03	4.605949E-15	6.965927E-17
3.110000E+03	4.639404E-15	7.004271E-17
3.120000E+03	4.672923E-15	7.042482E-17
3.130000E+03	4.706298E-15	7.080246E-17
3.140000E+03	4.739598E-15	7.117666E-17
3.150000E+03	4.772800E-15	7.154708E-17
3.160000E+03	4.805971E-15	7.191470E-17
3.170000E+03	4.838998E-15	7.227783E-17
3.180000E+03	4.871944E-15	7.263744E-17
3.190000E+03	4.904786E-15	7.299315E-17
3.200000E+03	4.937411E-15	7.334329E-17
3.210000E+03	4.969884E-15	7.368884E-17
3.220000E+03	5.002266E-15	7.403069E-17
3.230000E+03	5.034360E-15	7.436594E-17
3.240000E+03	5.066313E-15	7.469677E-17
3.250000E+03	5.097930E-15	7.502032E-17
3.260000E+03	5.129442E-15	7.533999E-17
3.270000E+03	5.160570E-15	7.565169E-17
3.280000E+03	5.191375E-15	7.595634E-17
3.290000E+03	5.221916E-15	7.625483E-17
3.300000E+03	5.252087E-15	7.654563E-17
3.310000E+03	5.281947E-15	7.682959E-17
3.320000E+03	5.311309E-15	7.710406E-17
3.330000E+03	5.340232E-15	7.736990E-17
3.340000E+03	5.368695E-15	7.762684E-17
3.350000E+03	5.396676E-15	7.787461E-17
3.360000E+03	5.424155E-15	7.811294E-17
3.370000E+03	5.451031E-15	7.834044E-17
3.380000E+03	5.477288E-15	7.855691E-17
3.390000E+03	5.502905E-15	7.876211E-17
3.400000E+03	5.527869E-15	7.895587E-17
3.410000E+03	5.552083E-15	7.913691E-17
3.420000E+03	5.575534E-15	7.930509E-17
3.430000E+03	5.598208E-15	7.946027E-17
3.440000E+03	5.620018E-15	7.960129E-17
3.450000E+03	5.640954E-15	7.972807E-17
3.460000E+03	5.661004E-15	7.984054E-17
3.470000E+03	5.680016E-15	7.993662E-17
3.480000E+03	5.698056E-15	8.001734E-17
3.490000E+03	5.715047E-15	8.008170E-17
3.500000E+03	5.730914E-15	8.012877E-17
3.510000E+03	5.745658E-15	8.015862E-17
3.520000E+03	5.759142E-15	8.016949E-17
3.530000E+03	5.771369E-15	8.016154E-17
3.540000E+03	5.782279E-15	8.013402E-17
3.550000E+03	5.791812E-15	8.008625E-17
3.560000E+03	5.799912E-15	8.001759E-17
3.570000E+03	5.806530E-15	7.992749E-17
3.580000E+03	5.811550E-15	7.981452E-17
3.590000E+03	5.814996E-15	7.967914E-17
3.600000E+03	5.816761E-15	7.952006E-17
3.610000E+03	5.816873E-15	7.933780E-17
3.620000E+03	5.815172E-15	7.913038E-17
3.630000E+03	5.811753E-15	7.889925E-17
3.640000E+03	5.806407E-15	7.864176E-17
3.650000E+03	5.799175E-15	7.835864E-17
3.660000E+03	5.789980E-15	7.804907E-17
3.670000E+03	5.778868E-15	7.771382E-17
3.680000E+03	5.765711E-15	7.735141E-17
3.690000E+03	5.750563E-15	7.696276E-17
3.700000E+03	5.733363E-15	7.654725E-17
3.710000E+03	5.714169E-15	7.610587E-17
3.720000E+03	5.692927E-15	7.563810E-17
3.730000E+03	5.669753E-15	7.514570E-17
3.740000E+03	5.644546E-15	7.462755E-17
3.750000E+03	5.617425E-15	7.408540E-17
3.760000E+03	5.588402E-15	7.351962E-17
3.770000E+03	5.557540E-15	7.293126E-17
3.780000E+03	5.524856E-15	7.232072E-17
3.790000E+03	5.490467E-15	7.168972E-17
3.800000E+03	5.454340E-15	7.103802E-17
3.810000E+03	5.416595E-15	7.036737E-17
3.820000E+03	5.377298E-15	6.967880E-17
3.830000E+03	5.336516E-15	6.897335E-17
3.840000E+03	5.294321E-15	6.825210E-17
3.850000E+03	5.250731E-15	6.751545E-17
3.860000E+03	5.205909E-15	6.676565E-17
3.870000E+03	5.159922E-15	6.600368E-17
3.880000E+03	5.112792E-15	6.522996E-17
3.890000E+03	5.064632E-15	6.444608E-17
3.900000E+03	5.015511E-15	6.365301E-17
3.910000E+03	4.965539E-15	6.285228E-17
3.920000E+03	4.914742E-15	6.204429E-17
3.930000E+03	4.863273E-15	6.123109E-17
3.940000E+03	4.811158E-15	6.041308E-17
3.950000E+03	4.758550E-15	5.959227E-17
3.960000E+03	4.705478E-15	5.876907E-17
3.970000E+03	4.652013E-15	5.794445E-17
3.980000E+03	4.598310E-15	5.712037E-17
3.990000E+03	4.544406E-15	5.629732E-17
4.000000E+03	4.490419E-15	5.547682E-17
4.010000E+03	4.436434E-15	5.465993E-17
4.020000E+03	4.382587E-15	5.384832E-17
4.030000E+03	4.328986E-15	5.304335E-17
4.040000E+03	4.275761E-15	5.224655E-17
4.050000E+03	4.223088E-15	5.146007E-17
4.060000E+03	4.171159E-15	5.068620E-17
4.070000E+03	4.120070E-15	4.992603E-17
4.080000E+03	4.070095E-15	4.918279E-17
4.090000E+03	4.021336E-15	4.845763E-17
4.100000E+03	3.974030E-15	4.775326E-17
4.110000E+03	3.928306E-15	4.707112E-17
4.120000E+03	3.884354E-15	4.641331E-17
4.130000E+03	3.842324E-15	4.578144E-17
4.140000E+03	3.802354E-15	4.517698E-17
4.150000E+03	3.764575E-15	4.460129E-17
4.160000E+03	3.729110E-15	4.405560E-17
4.170000E+03	3.696097E-15	4.354130E-17
4.180000E+03	3.665632E-15	4.305931E-17
4.190000E+03	3.637771E-15	4.261002E-17
4.200000E+03	3.612585E-15	4.219401E-17
4.210000E+03	3.590128E-15	4.181165E-17
4.220000E+03	3.570474E-15	4.146353E-17
4.230000E+03	3.553621E-15	4.114937E-17
4.240000E+03	3.539586E-15	4.086909E-17
4.250000E+03	3.528343E-15	4.062212E-17
4.260000E+03	3.519914E-15	4.040845E-17
4.270000E+03	3.514254E-15	4.022729E-17
4.280000E+03	3.511335E-15	4.007807E-17
4.290000E+03	3.511124E-15	3.996015E-17
4.300000E+03	3.513517E-15	3.987211E-17
4.310000E+03	3.518521E-15	3.981377E-17
4.320000E+03	3.526020E-15	3.978361E-17
4.330000E+03	3.535951E-15	3.978066E-17
4.340000E+03	3.548212E-15	3.980359E-17
4.350000E+03	3.562786E-15	3.985198E-17
4.360000E+03	3.579496E-15	3.992367E-17
4.370000E+03	3.598304E-15	4.001804E-17
4.380000E+03	3.619092E-15	4.013362E-17
4.390000E+03	3.641752E-15	4.026903E-17
4.400000E+03	3.666172E-15	4.042291E-17
4.410000E+03	3.692173E-15	4.059313E-17
4.420000E+03	3.719585E-15	4.077771E-17
4.430000E+03	3.748053E-15	4.097265E-17
4.440000E+03	3.777290E-15	4.117475E-17
4.450000E+03	3.806859E-15	4.137923E-17
4.460000E+03	3.836297E-15	4.158105E-17
4.470000E+03	3.865160E-15	4.177546E-17
4.480000E+03	3.892791E-15	4.195546E-17
4.490000E+03	3.918691E-15	4.211585E-17
4.500000E+03	3.942135E-15	4.224900E-17
4.510000E+03	3.962551E-15	4.234908E-17
4.520000E+03	3.979274E-15	4.240930E-17
4.530000E+03	3.991702E-15	4.242361E-17
4.540000E+03	3.999296E-15	4.238670E-17
4.550000E+03	4.001538E-15	4.229355E-17
4.560000E+03	3.998178E-15	4.214201E-17
4.570000E+03	3.988983E-15	4.193014E-17
4.580000E+03	3.973973E-15	4.165867E-17
4.590000E+03	3.953346E-15	4.133015E-17
4.600000E+03	3.927460E-15	4.094883E-17
4.610000E+03	3.896784E-15	4.052002E-17
4.620000E+03	3.861913E-15	4.005028E-17
4.630000E+03	3.823577E-15	3.954753E-17
4.640000E+03	3.782590E-15	3.902043E-17
4.650000E+03	3.739824E-15	3.847815E-17
4.660000E+03	3.696107E-15	3.792933E-17
4.670000E+03	3.652373E-15	3.738358E-17
4.680000E+03	3.609457E-15	3.684944E-17
4.690000E+03	3.568129E-15	3.633465E-17
4.700000E+03	3.529109E-15	3.584639E-17
4.710000E+03	3.492974E-15	3.539031E-17
4.720000E+03	3.460191E-15	3.497091E-17
4.730000E+03	3.431107E-15	3.459141E-17
4.740000E+03	3.405947E-15	3.425381E-17
4.750000E+03	3.384829E-15	3.395900E-17
4.760000E+03	3.367763E-15	3.370676E-17
4.770000E+03	3.354647E-15	3.349581E-17
4.780000E+03	3.345244E-15	3.332350E-17
4.790000E+03	3.339266E-15	3.318673E-17
4.800000E+03	3.336227E-15	3.308043E-17
4.810000E+03	3.335666E-15	3.299989E-17
4.820000E+03	3.336896E-15	3.293815E-17
4.830000E+03	3.339254E-15	3.288860E-17
4.840000E+03	3.341992E-15	3.284382E-17
4.850000E+03	3.344257E-15	3.279547E-17
4.860000E+03	3.345352E-15	3.273676E-17
4.870000E+03	3.344972E-15	3.266480E-17
4.880000E+03	3.343239E-15	3.258086E-17
4.890000E+03	3.340167E-15	3.248516E-17
4.900000E+03	3.335991E-15	3.238004E-17
4.910000E+03	3.330808E-15	3.226651E-17
4.920000E+03	3.324826E-15	3.214662E-17
4.930000E+03	3.318201E-15	3.202192E-17
4.940000E+03	3.311163E-15	3.189464E-17
4.950000E+03	3.303855E-15	3.176618E-17
4.960000E+03	3.296557E-15	3.163922E-17
4.970000E+03	3.289590E-15	3.151682E-17
4.980000E+03	3.283227E-15	3.140157E-17
4.990000E+03	3.277858E-15	3.129715E-17
5.000000E+03	3.273956E-15	3.120803E-17
5.010000E+03	3.271999E-15	3.113866E-17
5.020000E+03	3.272421E-15	3.109308E-17
5.030000E+03	3.275750E-15	3.107619E-17
5.040000E+03	3.282445E-15	3.109221E-17
5.050000E+03	3.292873E-15	3.114446E-17
5.060000E+03	3.307255E-15	3.123489E-17
5.070000E+03	3.325728E-15	3.136464E-17
5.080000E+03	3.348364E-15	3.153422E-17
5.090000E+03	3.375047E-15	3.174243E-17
5.100000E+03	3.405688E-15	3.198827E-17
5.110000E+03	3.440061E-15	3.226954E-17
5.120000E+03	3.477910E-15	3.258372E-17
5.130000E+03	3.518919E-15	3.292776E-17
5.140000E+03	3.562709E-15	3.329807E-17
5.150000E+03	3.608808E-15	3.369017E-17
5.160000E+03	3.656771E-15	3.409991E-17
5.170000E+03	3.706015E-15	3.452183E-17
5.180000E+03	3.756045E-15	3.495135E-17
5.190000E+03	3.806268E-15	3.538297E-17
5.200000E+03	3.856088E-15	3.581122E-17
5.210000E+03	3.904864E-15	3.623020E-17
5.220000E+03	3.951894E-15	3.663349E-17
5.230000E+03	3.996346E-15	3.701346E-17
5.240000E+03	4.037495E-15	3.736353E-17
5.250000E+03	4.074399E-15	3.767510E-17
5.260000E+03	4.106350E-15	3.794176E-17
5.270000E+03	4.132550E-15	3.815629E-17
5.280000E+03	4.152459E-15	3.831383E-17
5.290000E+03	4.165635E-15	3.841047E-17
5.300000E+03	4.171865E-15	3.844438E-17
5.310000E+03	4.171250E-15	3.841660E-17
5.320000E+03	4.163987E-15	3.832909E-17
5.330000E+03	4.150609E-15	3.818681E-17
5.340000E+03	4.131746E-15	3.799564E-17
5.350000E+03	4.108185E-15	3.776288E-17
5.360000E+03	4.080896E-15	3.749748E-17
5.370000E+03	4.050959E-15	3.720936E-17
5.380000E+03	4.019549E-15	3.690930E-17
5.390000E+03	3.987832E-15	3.660800E-17
5.400000E+03	3.957129E-15	3.631751E-17
5.410000E+03	3.928133E-15	3.604415E-17
5.420000E+03	3.900528E-15	3.578495E-17
5.430000E+03	3.873773E-15	3.553489E-17
5.440000E+03	3.847539E-15	3.529093E-17
5.450000E+03	3.821439E-15	3.504945E-17
5.460000E+03	3.795303E-15	3.480885E-17
5.470000E+03	3.768683E-15	3.456499E-17
5.480000E+03	3.740994E-15	3.431246E-17
5.490000E+03	3.711779E-15	3.404703E-17
5.500000E+03	3.680756E-15	3.376606E-17
5.510000E+03	3.647850E-15	3.346881E-17
5.520000E+03	3.612861E-15	3.315340E-17
5.530000E+03	3.575868E-15	3.282049E-17
5.540000E+03	3.536826E-15	3.246962E-17
5.550000E+03	3.495850E-15	3.210179E-17
5.560000E+03	3.453107E-15	3.171847E-17
5.570000E+03	3.408806E-15	3.132150E-17
5.580000E+03	3.363125E-15	3.091248E-17
5.590000E+03	3.316345E-15	3.049393E-17
5.600000E+03	3.268776E-15	3.006862E-17
5.610000E+03	3.220719E-15	2.963928E-17
5.620000E+03	3.172510E-15	2.920895E-17
5.630000E+03	3.124573E-15	2.878149E-17
5.640000E+03	3.077269E-15	2.836017E-17
5.650000E+03	3.031049E-15	2.794914E-17
5.660000E+03	2.986363E-15	2.755250E-17
5.670000E+03	2.943709E-15	2.717484E-17
5.680000E+03	2.903574E-15	2.682066E-17
5.690000E+03	2.866452E-15	2.649452E-17
5.700000E+03	2.832854E-15	2.620118E-17
5.710000E+03	2.803266E-15	2.594516E-17
5.720000E+03	2.778063E-15	2.572999E-17
5.730000E+03	2.757619E-15	2.555920E-17
5.740000E+03	2.742186E-15	2.543521E-17
5.750000E+03	2.731915E-15	2.535949E-17
5.760000E+03	2.726883E-15	2.533286E-17
5.770000E+03	2.726903E-15	2.535371E-17
5.780000E+03	2.731736E-15	2.541989E-17
5.790000E+03	2.740903E-15	2.552708E-17
5.800000E+03	2.753857E-15	2.567028E-17
5.810000E+03	2.769917E-15	2.584322E-17
5.820000E+03	2.788328E-15	2.603896E-17
5.830000E+03	2.808331E-15	2.625043E-17
5.840000E+03	2.829096E-15	2.646995E-17
5.850000E+03	2.849875E-15	2.669054E-17
5.860000E+03	2.869937E-15	2.690533E-17
5.870000E+03	2.888579E-15	2.710774E-17
5.880000E+03	2.905272E-15	2.729276E-17
5.890000E+03	2.919443E-15	2.745495E-17
5.900000E+03	2.930735E-15	2.759088E-17
5.910000E+03	2.938791E-15	2.769711E-17
5.920000E+03	2.943390E-15	2.777144E-17
5.930000E+03	2.944447E-15	2.781297E-17
5.940000E+03	2.941886E-15	2.782087E-17
5.950000E+03	2.935824E-15	2.779612E-17
5.960000E+03	2.926472E-15	2.774061E-17
5.970000E+03	2.914013E-15	2.765595E-17
5.980000E+03	2.898785E-15	2.754523E-17
5.990000E+03	2.881125E-15	2.741157E-17
6.000000E+03	2.861352E-15	2.725790E-17
6.010000E+03	2.839816E-15	2.708748E-17
6.020000E+03	2.816836E-15	2.690327E-17
6.030000E+03	2.792657E-15	2.670756E-17
6.040000E+03	2.767483E-15	2.650224E-17
6.050000E+03	2.741471E-15	2.628875E-17
6.060000E+03	2.714543E-15	2.606632E-17
6.070000E+03	2.686676E-15	2.583466E-17
6.080000E+03	2.657570E-15	2.559084E-17
6.090000E+03	2.626977E-15	2.533240E-17
6.100000E+03	2.594405E-15	2.505451E-17
6.110000E+03	2.559416E-15	2.475283E-17
6.120000E+03	2.521459E-15	2.442191E-17
6.130000E+03	2.480099E-15	2.405738E-17
6.140000E+03	2.434883E-15	2.365467E-17
6.150000E+03	2.385501E-15	2.321056E-17
6.160000E+03	2.331850E-15	2.272383E-17
6.170000E+03	2.273911E-15	2.219403E-17
6.180000E+03	2.211931E-15	2.162337E-17
6.190000E+03	2.146307E-15	2.101549E-17
6.200000E+03	2.077601E-15	2.037567E-17
6.210000E+03	2.006809E-15	1.971353E-17
6.220000E+03	1.935572E-15	1.904504E-17
6.230000E+03	1.865438E-15	1.838542E-17
6.240000E+03	1.797830E-15	1.774872E-17
6.250000E+03	1.733975E-15	1.714716E-17
6.260000E+03	1.674933E-15	1.659139E-17
6.270000E+03	1.621469E-15	1.608921E-17
6.280000E+03	1.574209E-15	1.564711E-17
6.290000E+03	1.533641E-15	1.527021E-17
6.300000E+03	1.500097E-15	1.496216E-17
6.310000E+03	1.473788E-15	1.472543E-17
6.320000E+03	1.454841E-15	1.456163E-17
6.330000E+03	1.443358E-15	1.447217E-17
6.340000E+03	1.439324E-15	1.445728E-17
6.350000E+03	1.442703E-15	1.451700E-17
6.360000E+03	1.453381E-15	1.465054E-17
6.370000E+03	1.471173E-15	1.485646E-17
6.380000E+03	1.495811E-15	1.513242E-17
6.390000E+03	1.526941E-15	1.547519E-17
6.400000E+03	1.564122E-15	1.588068E-17
6.410000E+03	1.606807E-15	1.634364E-17
6.420000E+03	1.654401E-15	1.685833E-17
6.430000E+03	1.706211E-15	1.741794E-17
6.440000E+03	1.761494E-15	1.801513E-17
6.450000E+03	1.819453E-15	1.864191E-17
6.460000E+03	1.879200E-15	1.928934E-17
6.470000E+03	1.939914E-15	1.994907E-17
6.480000E+03	2.000726E-15	2.061223E-17
6.490000E+03	2.060819E-15	2.127038E-17
6.500000E+03	2.119365E-15	2.191492E-17
6.510000E+03	2.175691E-15	2.253880E-17
6.520000E+03	2.229098E-15	2.313464E-17
6.530000E+03	2.279036E-15	2.369655E-17
6.540000E+03	2.324970E-15	2.421878E-17
6.550000E+03	2.366523E-15	2.469713E-17
6.560000E+03	2.403396E-15	2.512826E-17
6.570000E+03	2.435261E-15	2.550843E-17
6.580000E+03	2.461975E-15	2.583587E-17
6.590000E+03	2.483468E-15	2.610953E-17
6.600000E+03	2.499618E-15	2.632782E-17
6.610000E+03	2.510524E-15	2.649148E-17
6.620000E+03	2.516184E-15	2.660016E-17
6.630000E+03	2.516814E-15	2.665585E-17
6.640000E+03	2.512515E-15	2.665933E-17
6.650000E+03	2.503564E-15	2.661325E-17
6.660000E+03	2.490236E-15	2.652026E-17
6.670000E+03	2.472804E-15	2.638300E-17
6.680000E+03	2.451649E-15	2.620531E-17
6.690000E+03	2.427097E-15	2.599044E-17
6.700000E+03	2.399527E-15	2.574228E-17
6.710000E+03	2.369369E-15	2.546525E-17
6.720000E+03	2.336975E-15	2.516300E-17
6.730000E+03	2.302686E-15	2.483906E-17
6.740000E+03	2.266960E-15	2.449826E-17
6.750000E+03	2.230071E-15	2.414349E-17
6.760000E+03	2.192399E-15	2.377880E-17
6.770000E+03	2.154262E-15	2.340758E-17
6.780000E+03	2.115917E-15	2.303263E-17
6.790000E+03	2.077641E-15	2.265692E-17
6.800000E+03	2.039686E-15	2.228324E-17
6.810000E+03	2.002322E-15	2.191453E-17
6.820000E+03	1.965723E-15	2.155275E-17
6.830000E+03	1.930041E-15	2.119962E-17
6.840000E+03	1.895480E-15	2.085742E-17
6.850000E+03	1.862184E-15	2.052781E-17
6.860000E+03	1.830271E-15	2.021217E-17
6.870000E+03	1.799806E-15	1.991130E-17
6.880000E+03	1.770866E-15	1.962614E-17
6.890000E+03	1.743534E-15	1.935769E-17
6.900000E+03	1.717808E-15	1.910604E-17
6.910000E+03	1.693694E-15	1.887135E-17
6.920000E+03	1.671177E-15	1.865354E-17
6.930000E+03	1.650216E-15	1.845225E-17
6.940000E+03	1.630753E-15	1.826692E-17
6.950000E+03	1.612708E-15	1.809674E-17
6.960000E+03	1.595956E-15	1.794040E-17
6.970000E+03	1.580386E-15	1.779673E-17
6.980000E+03	1.565909E-15	1.766478E-17
6.990000E+03	1.552396E-15	1.754317E-17
7.000000E+03	1.539655E-15	1.742978E-17
7.010000E+03	1.527615E-15	1.732386E-17
7.020000E+03	1.516121E-15	1.722367E-17
7.030000E+03	1.505053E-15	1.712791E-17
7.040000E+03	1.494279E-15	1.703507E-17
7.050000E+03	1.483738E-15	1.694450E-17
7.060000E+03	1.473354E-15	1.685533E-17
7.070000E+03	1.463069E-15	1.676691E-17
7.080000E+03	1.452811E-15	1.667842E-17
7.090000E+03	1.442552E-15	1.658954E-17
7.100000E+03	1.432306E-15	1.650044E-17
7.110000E+03	1.422047E-15	1.641080E-17
7.120000E+03	1.411753E-15	1.632039E-17
7.130000E+03	1.401504E-15	1.623013E-17
7.140000E+03	1.391303E-15	1.614005E-17
7.150000E+03	1.381182E-15	1.605054E-17
7.160000E+03	1.371153E-15	1.596173E-17
7.170000E+03	1.361283E-15	1.587442E-17
7.180000E+03	1.351609E-15	1.578905E-17
7.190000E+03	1.342141E-15	1.570575E-17
7.200000E+03	1.332909E-15	1.562488E-17
7.210000E+03	1.323962E-15	1.554705E-17
7.220000E+03	1.315295E-15	1.547219E-17
7.230000E+03	1.306919E-15	1.540049E-17
7.240000E+03	1.298841E-15	1.533200E-17
7.250000E+03	1.291062E-15	1.526679E-17
7.260000E+03	1.283552E-15	1.520451E-17
7.270000E+03	1.276356E-15	1.514573E-17
7.280000E+03	1.269437E-15	1.509001E-17
7.290000E+03	1.262731E-15	1.503660E-17
7.300000E+03	1.256302E-15	1.498630E-17
7.310000E+03	1.250057E-15	1.493802E-17
7.320000E+03	1.244037E-15	1.489225E-17
7.330000E+03	1.238204E-15	1.484855E-17
7.340000E+03	1.232550E-15	1.480684E-17
7.350000E+03	1.227037E-15	1.476669E-17
7.360000E+03	1.221658E-15	1.472800E-17
7.370000E+03	1.216402E-15	1.469066E-17
7.380000E+03	1.211259E-15	1.465457E-17
7.390000E+03	1.206165E-15	1.461895E-17
7.400000E+03	1.201137E-15	1.458401E-17
7.410000E+03	1.196112E-15	1.454900E-17
7.420000E+03	1.191056E-15	1.451349E-17
7.430000E+03	1.185928E-15	1.447701E-17
7.440000E+03	1.180744E-15	1.443971E-17
7.450000E+03	1.175488E-15	1.440144E-17
7.460000E+03	1.170200E-15	1.436265E-17
7.470000E+03	1.164919E-15	1.432383E-17
7.480000E+03	1.159607E-15	1.428452E-17
7.490000E+03	1.154277E-15	1.424487E-17
7.500000E+03	1.148966E-15	1.420535E-17
7.510000E+03	1.143612E-15	1.416518E-17
7.520000E+03	1.138257E-15	1.412488E-17
7.530000E+03	1.132885E-15	1.408428E-17
7.540000E+03	1.127489E-15	1.404325E-17
7.550000E+03	1.122052E-15	1.400158E-17
7.560000E+03	1.116554E-15	1.395903E-17
7.570000E+03	1.110995E-15	1.391559E-17
7.580000E+03	1.105318E-15	1.387051E-17
7.590000E+03	1.099510E-15	1.382364E-17
7.600000E+03	1.093504E-15	1.377411E-17
7.610000E+03	1.087286E-15	1.372172E-17
7.620000E+03	1.080809E-15	1.366586E-17
7.630000E+03	1.074004E-15	1.360565E-17
7.640000E+03	1.066848E-15	1.354073E-17
7.650000E+03	1.059327E-15	1.347094E-17
7.660000E+03	1.051457E-15	1.339641E-17
7.670000E+03	1.043303E-15	1.331796E-17
7.680000E+03	1.034881E-15	1.323577E-17
7.690000E+03	1.026280E-15	1.315096E-17
7.700000E+03	1.017492E-15	1.306339E-17
7.710000E+03	1.008578E-15	1.297385E-17
7.720000E+03	9.995531E-16	1.288251E-17
7.730000E+03	9.904759E-16	1.279011E-17
7.740000E+03	9.813795E-16	1.269707E-17
7.750000E+03	9.722942E-16	1.260379E-17
7.760000E+03	9.632244E-16	1.251031E-17
