#wls	flux	fluxerr
1.600000E+03	3.363413E-16	9.319818E-18
1.640000E+03	3.452898E-16	9.526768E-18
1.680000E+03	3.546437E-16	9.741690E-18
1.720000E+03	3.643995E-16	9.964236E-18
1.760000E+03	3.746430E-16	1.019649E-17
1.800000E+03	3.853690E-16	1.043800E-17
1.840000E+03	3.966167E-16	1.068951E-17
1.880000E+03	4.084239E-16	1.095171E-17
1.920000E+03	4.207797E-16	1.122393E-17
1.960000E+03	4.338599E-16	1.151046E-17
2.000000E+03	4.475549E-16	1.180794E-17
2.040000E+03	4.620849E-16	1.212172E-17
2.080000E+03	4.774773E-16	1.245195E-17
2.120000E+03	4.938521E-16	1.280117E-17
2.160000E+03	5.113743E-16	1.317295E-17
2.200000E+03	5.302528E-16	1.357187E-17
2.240000E+03	5.506913E-16	1.400222E-17
2.280000E+03	5.728848E-16	1.446786E-17
2.320000E+03	5.970668E-16	1.497347E-17
2.360000E+03	6.232113E-16	1.551705E-17
2.400000E+03	6.514230E-16	1.609980E-17
2.440000E+03	6.815423E-16	1.671630E-17
2.480000E+03	7.135858E-16	1.736550E-17
2.520000E+03	7.474999E-16	1.804460E-17
2.560000E+03	7.832055E-16	1.875015E-17
2.600000E+03	8.206466E-16	1.947931E-17
2.640000E+03	8.596440E-16	2.022630E-17
2.680000E+03	9.001800E-16	2.098924E-17
2.720000E+03	9.419664E-16	2.175996E-17
2.760000E+03	9.848739E-16	2.253415E-17
2.800000E+03	1.028691E-15	2.330572E-17
2.840000E+03	1.073125E-15	2.406696E-17
2.880000E+03	1.118077E-15	2.481464E-17
2.920000E+03	1.163488E-15	2.554655E-17
2.960000E+03	1.209418E-15	2.626309E-17
3.000000E+03	1.255981E-15	2.696578E-17
3.010000E+03	1.267782E-15	2.714047E-17
3.020000E+03	1.279586E-15	2.731345E-17
3.030000E+03	1.291426E-15	2.748537E-17
3.040000E+03	1.303373E-15	2.765774E-17
3.050000E+03	1.315372E-15	2.782938E-17
3.060000E+03	1.327411E-15	2.799999E-17
3.070000E+03	1.339559E-15	2.817104E-17
3.080000E+03	1.351722E-15	2.834048E-17
3.090000E+03	1.364006E-15	2.851057E-17
3.100000E+03	1.376356E-15	2.868010E-17
3.110000E+03	1.388758E-15	2.884877E-17
3.120000E+03	1.401277E-15	2.901788E-17
3.130000E+03	1.413856E-15	2.918626E-17
3.140000E+03	1.426556E-15	2.935514E-17
3.150000E+03	1.439324E-15	2.952337E-17
3.160000E+03	1.452140E-15	2.969055E-17
3.170000E+03	1.465102E-15	2.985865E-17
3.180000E+03	1.478116E-15	3.002571E-17
3.190000E+03	1.491237E-15	3.019285E-17
3.200000E+03	1.504447E-15	3.035965E-17
3.210000E+03	1.517724E-15	3.052567E-17
3.220000E+03	1.531087E-15	3.069124E-17
3.230000E+03	1.544512E-15	3.085588E-17
3.240000E+03	1.558052E-15	3.102060E-17
3.250000E+03	1.571612E-15	3.118351E-17
3.260000E+03	1.585240E-15	3.134555E-17
3.270000E+03	1.598916E-15	3.150627E-17
3.280000E+03	1.612649E-15	3.166586E-17
3.290000E+03	1.626382E-15	3.182317E-17
3.300000E+03	1.640126E-15	3.197841E-17
3.310000E+03	1.653857E-15	3.213109E-17
3.320000E+03	1.667584E-15	3.228143E-17
3.330000E+03	1.681284E-15	3.242892E-17
3.340000E+03	1.694898E-15	3.257246E-17
3.350000E+03	1.708436E-15	3.271227E-17
3.360000E+03	1.721843E-15	3.284727E-17
3.370000E+03	1.735127E-15	3.297765E-17
3.380000E+03	1.748234E-15	3.310241E-17
3.390000E+03	1.761142E-15	3.322117E-17
3.400000E+03	1.773799E-15	3.333299E-17
3.410000E+03	1.786184E-15	3.343752E-17
3.420000E+03	1.798248E-15	3.353392E-17
3.430000E+03	1.809975E-15	3.362192E-17
3.440000E+03	1.821256E-15	3.369964E-17
3.450000E+03	1.832111E-15	3.376746E-17
3.460000E+03	1.842465E-15	3.382416E-17
3.470000E+03	1.852253E-15	3.386863E-17
3.480000E+03	1.861465E-15	3.390083E-17
3.490000E+03	1.870014E-15	3.391928E-17
3.500000E+03	1.877840E-15	3.392307E-17
3.510000E+03	1.884943E-15	3.391234E-17
3.520000E+03	1.891218E-15	3.388539E-17
3.530000E+03	1.896671E-15	3.384249E-17
3.540000E+03	1.901205E-15	3.378213E-17
3.550000E+03	1.904831E-15	3.370469E-17
3.560000E+03	1.907463E-15	3.360889E-17
3.570000E+03	1.909093E-15	3.349479E-17
3.580000E+03	1.909692E-15	3.336212E-17
3.590000E+03	1.909258E-15	3.321109E-17
3.600000E+03	1.907767E-15	3.304153E-17
3.610000E+03	1.905178E-15	3.285298E-17
3.620000E+03	1.901521E-15	3.264619E-17
3.630000E+03	1.896738E-15	3.242045E-17
3.640000E+03	1.890842E-15	3.217624E-17
3.650000E+03	1.883808E-15	3.191338E-17
3.660000E+03	1.875676E-15	3.163284E-17
3.670000E+03	1.866424E-15	3.133451E-17
3.680000E+03	1.856079E-15	3.101909E-17
3.690000E+03	1.844685E-15	3.068759E-17
3.700000E+03	1.832249E-15	3.034039E-17
3.710000E+03	1.818840E-15	2.997886E-17
3.720000E+03	1.804466E-15	2.960338E-17
3.730000E+03	1.789195E-15	2.921531E-17
3.740000E+03	1.773076E-15	2.881564E-17
3.750000E+03	1.756140E-15	2.840510E-17
3.760000E+03	1.738453E-15	2.798494E-17
3.770000E+03	1.720063E-15	2.755613E-17
3.780000E+03	1.701034E-15	2.711986E-17
3.790000E+03	1.681413E-15	2.667707E-17
3.800000E+03	1.661262E-15	2.622885E-17
3.810000E+03	1.640611E-15	2.577580E-17
3.820000E+03	1.619551E-15	2.531951E-17
3.830000E+03	1.598093E-15	2.486025E-17
3.840000E+03	1.576326E-15	2.439948E-17
3.850000E+03	1.554276E-15	2.393772E-17
3.860000E+03	1.532011E-15	2.347607E-17
3.870000E+03	1.509556E-15	2.301497E-17
3.880000E+03	1.486977E-15	2.255549E-17
3.890000E+03	1.464311E-15	2.209821E-17
3.900000E+03	1.441592E-15	2.164369E-17
3.910000E+03	1.418881E-15	2.119286E-17
3.920000E+03	1.396211E-15	2.074622E-17
3.930000E+03	1.373614E-15	2.030422E-17
3.940000E+03	1.351134E-15	1.986752E-17
3.950000E+03	1.328812E-15	1.943671E-17
3.960000E+03	1.306676E-15	1.901215E-17
3.970000E+03	1.284755E-15	1.859422E-17
3.980000E+03	1.263074E-15	1.818325E-17
3.990000E+03	1.241684E-15	1.777992E-17
4.000000E+03	1.220607E-15	1.738448E-17
4.010000E+03	1.199868E-15	1.699721E-17
4.020000E+03	1.179488E-15	1.661835E-17
4.030000E+03	1.159491E-15	1.624814E-17
4.040000E+03	1.139918E-15	1.588708E-17
4.050000E+03	1.120771E-15	1.553510E-17
4.060000E+03	1.102099E-15	1.519278E-17
4.070000E+03	1.083894E-15	1.485989E-17
4.080000E+03	1.066203E-15	1.453700E-17
4.090000E+03	1.049035E-15	1.422410E-17
4.100000E+03	1.032408E-15	1.392130E-17
4.110000E+03	1.016338E-15	1.362873E-17
4.120000E+03	1.000839E-15	1.334642E-17
4.130000E+03	9.859352E-16	1.307459E-17
4.140000E+03	9.716378E-16	1.281323E-17
4.150000E+03	9.579503E-16	1.256228E-17
4.160000E+03	9.448813E-16	1.232170E-17
4.170000E+03	9.324470E-16	1.209157E-17
4.180000E+03	9.206550E-16	1.187185E-17
4.190000E+03	9.095075E-16	1.166243E-17
4.200000E+03	8.990008E-16	1.146313E-17
4.210000E+03	8.891364E-16	1.127382E-17
4.220000E+03	8.799218E-16	1.109448E-17
4.230000E+03	8.713557E-16	1.092493E-17
4.240000E+03	8.634212E-16	1.076485E-17
4.250000E+03	8.561385E-16	1.061435E-17
4.260000E+03	8.494812E-16	1.047297E-17
4.270000E+03	8.434546E-16	1.034065E-17
4.280000E+03	8.380603E-16	1.021729E-17
4.290000E+03	8.332805E-16	1.010255E-17
4.300000E+03	8.291161E-16	9.996316E-18
4.310000E+03	8.255566E-16	9.898353E-18
4.320000E+03	8.225980E-16	9.808498E-18
4.330000E+03	8.202355E-16	9.726585E-18
4.340000E+03	8.184514E-16	9.652299E-18
4.350000E+03	8.172346E-16	9.585407E-18
4.360000E+03	8.165777E-16	9.525727E-18
4.370000E+03	8.164710E-16	9.473054E-18
4.380000E+03	8.168869E-16	9.426980E-18
4.390000E+03	8.178050E-16	9.387188E-18
4.400000E+03	8.192060E-16	9.353383E-18
4.410000E+03	8.210479E-16	9.325019E-18
4.420000E+03	8.233048E-16	9.301741E-18
4.430000E+03	8.259493E-16	9.283189E-18
4.440000E+03	8.289728E-16	9.269203E-18
4.450000E+03	8.323841E-16	9.259821E-18
4.460000E+03	8.361645E-16	9.254775E-18
4.470000E+03	8.403127E-16	9.253996E-18
4.480000E+03	8.448041E-16	9.257158E-18
4.490000E+03	8.496255E-16	9.264070E-18
4.500000E+03	8.547678E-16	9.274588E-18
4.510000E+03	8.602015E-16	9.288352E-18
4.520000E+03	8.659145E-16	9.305198E-18
4.530000E+03	8.718703E-16	9.324700E-18
4.540000E+03	8.780485E-16	9.346619E-18
4.550000E+03	8.844246E-16	9.370670E-18
4.560000E+03	8.909752E-16	9.396594E-18
4.570000E+03	8.976683E-16	9.424039E-18
4.580000E+03	9.044851E-16	9.452804E-18
4.590000E+03	9.114007E-16	9.482624E-18
4.600000E+03	9.184036E-16	9.513383E-18
4.610000E+03	9.255029E-16	9.545176E-18
4.620000E+03	9.326992E-16	9.578013E-18
4.630000E+03	9.399993E-16	9.611964E-18
4.640000E+03	9.474536E-16	9.647546E-18
4.650000E+03	9.551019E-16	9.685160E-18
4.660000E+03	9.630054E-16	9.725414E-18
4.670000E+03	9.712021E-16	9.768681E-18
4.680000E+03	9.797582E-16	9.815603E-18
4.690000E+03	9.887215E-16	9.866638E-18
4.700000E+03	9.981328E-16	9.922161E-18
4.710000E+03	1.008014E-15	9.982366E-18
4.720000E+03	1.018419E-15	1.004774E-17
4.730000E+03	1.029356E-15	1.011835E-17
4.740000E+03	1.040837E-15	1.019429E-17
4.750000E+03	1.052860E-15	1.027547E-17
4.760000E+03	1.065443E-15	1.036208E-17
4.770000E+03	1.078544E-15	1.045368E-17
4.780000E+03	1.092156E-15	1.055016E-17
4.790000E+03	1.106231E-15	1.065108E-17
4.800000E+03	1.120720E-15	1.075594E-17
4.810000E+03	1.135558E-15	1.086412E-17
4.820000E+03	1.150678E-15	1.097500E-17
4.830000E+03	1.166006E-15	1.108788E-17
4.840000E+03	1.181450E-15	1.120192E-17
4.850000E+03	1.196928E-15	1.131637E-17
4.860000E+03	1.212361E-15	1.143054E-17
4.870000E+03	1.227683E-15	1.154385E-17
4.880000E+03	1.242893E-15	1.165634E-17
4.890000E+03	1.257986E-15	1.176802E-17
4.900000E+03	1.272931E-15	1.187866E-17
4.910000E+03	1.287685E-15	1.198791E-17
4.920000E+03	1.302231E-15	1.209567E-17
4.930000E+03	1.316503E-15	1.220140E-17
4.940000E+03	1.330432E-15	1.230450E-17
4.950000E+03	1.343993E-15	1.240483E-17
4.960000E+03	1.357094E-15	1.250160E-17
4.970000E+03	1.369653E-15	1.259410E-17
4.980000E+03	1.381570E-15	1.268147E-17
4.990000E+03	1.392751E-15	1.276290E-17
5.000000E+03	1.403122E-15	1.283774E-17
5.010000E+03	1.412589E-15	1.290519E-17
5.020000E+03	1.421103E-15	1.296485E-17
5.030000E+03	1.428625E-15	1.301640E-17
5.040000E+03	1.435165E-15	1.305997E-17
5.050000E+03	1.440745E-15	1.309580E-17
5.060000E+03	1.445433E-15	1.312453E-17
5.070000E+03	1.449353E-15	1.314731E-17
5.080000E+03	1.452643E-15	1.316541E-17
5.090000E+03	1.455435E-15	1.318003E-17
5.100000E+03	1.457914E-15	1.319285E-17
5.110000E+03	1.460249E-15	1.320540E-17
5.120000E+03	1.462568E-15	1.321884E-17
5.130000E+03	1.465034E-15	1.323462E-17
5.140000E+03	1.467745E-15	1.325362E-17
5.150000E+03	1.470814E-15	1.327687E-17
5.160000E+03	1.474316E-15	1.330501E-17
5.170000E+03	1.478337E-15	1.333885E-17
5.180000E+03	1.482897E-15	1.337854E-17
5.190000E+03	1.488027E-15	1.342437E-17
5.200000E+03	1.493728E-15	1.347634E-17
5.210000E+03	1.500010E-15	1.353456E-17
5.220000E+03	1.506925E-15	1.359949E-17
5.230000E+03	1.514472E-15	1.367115E-17
5.240000E+03	1.522643E-15	1.374947E-17
5.250000E+03	1.531450E-15	1.383457E-17
5.260000E+03	1.540871E-15	1.392629E-17
5.270000E+03	1.550906E-15	1.402464E-17
5.280000E+03	1.561507E-15	1.412921E-17
5.290000E+03	1.572670E-15	1.423999E-17
5.300000E+03	1.584374E-15	1.435683E-17
5.310000E+03	1.596601E-15	1.447958E-17
5.320000E+03	1.609303E-15	1.460785E-17
5.330000E+03	1.622519E-15	1.474203E-17
5.340000E+03	1.636238E-15	1.488206E-17
5.350000E+03	1.650455E-15	1.502792E-17
5.360000E+03	1.665226E-15	1.518019E-17
5.370000E+03	1.680544E-15	1.533882E-17
5.380000E+03	1.696439E-15	1.550417E-17
5.390000E+03	1.712861E-15	1.567580E-17
5.400000E+03	1.729719E-15	1.585295E-17
5.410000E+03	1.746833E-15	1.603402E-17
5.420000E+03	1.763953E-15	1.621676E-17
5.430000E+03	1.780778E-15	1.639839E-17
5.440000E+03	1.796971E-15	1.657580E-17
5.450000E+03	1.812199E-15	1.674588E-17
5.460000E+03	1.826159E-15	1.690576E-17
5.470000E+03	1.838486E-15	1.705199E-17
5.480000E+03	1.848827E-15	1.718119E-17
5.490000E+03	1.856854E-15	1.729018E-17
5.500000E+03	1.862234E-15	1.737569E-17
5.510000E+03	1.864711E-15	1.743518E-17
5.520000E+03	1.863989E-15	1.746566E-17
5.530000E+03	1.859879E-15	1.746512E-17
5.540000E+03	1.852378E-15	1.743332E-17
5.550000E+03	1.841507E-15	1.737019E-17
5.560000E+03	1.827437E-15	1.727708E-17
5.570000E+03	1.810292E-15	1.715493E-17
5.580000E+03	1.790324E-15	1.700588E-17
5.590000E+03	1.767810E-15	1.683231E-17
5.600000E+03	1.743068E-15	1.663707E-17
5.610000E+03	1.716446E-15	1.642326E-17
5.620000E+03	1.688344E-15	1.619454E-17
5.630000E+03	1.659157E-15	1.595456E-17
5.640000E+03	1.629346E-15	1.570763E-17
5.650000E+03	1.599363E-15	1.545804E-17
5.660000E+03	1.569700E-15	1.521050E-17
5.670000E+03	1.540890E-15	1.497016E-17
5.680000E+03	1.513393E-15	1.474154E-17
5.690000E+03	1.487695E-15	1.452945E-17
5.700000E+03	1.464256E-15	1.433849E-17
5.710000E+03	1.443493E-15	1.417291E-17
5.720000E+03	1.425783E-15	1.403662E-17
5.730000E+03	1.411476E-15	1.393327E-17
5.740000E+03	1.400886E-15	1.386622E-17
5.750000E+03	1.394290E-15	1.383852E-17
5.760000E+03	1.391923E-15	1.385279E-17
5.770000E+03	1.393983E-15	1.391137E-17
5.780000E+03	1.400512E-15	1.401503E-17
5.790000E+03	1.411480E-15	1.416382E-17
5.800000E+03	1.426852E-15	1.435776E-17
5.810000E+03	1.446294E-15	1.459385E-17
5.820000E+03	1.469423E-15	1.486857E-17
5.830000E+03	1.495851E-15	1.517828E-17
5.840000E+03	1.525027E-15	1.551766E-17
5.850000E+03	1.556367E-15	1.588102E-17
5.860000E+03	1.589210E-15	1.626175E-17
5.870000E+03	1.622878E-15	1.665307E-17
5.880000E+03	1.656690E-15	1.704803E-17
5.890000E+03	1.689865E-15	1.743861E-17
5.900000E+03	1.721761E-15	1.781811E-17
5.910000E+03	1.751700E-15	1.817941E-17
5.920000E+03	1.779020E-15	1.851544E-17
5.930000E+03	1.803254E-15	1.882111E-17
5.940000E+03	1.824009E-15	1.909205E-17
5.950000E+03	1.840913E-15	1.932404E-17
5.960000E+03	1.853816E-15	1.951518E-17
5.970000E+03	1.862586E-15	1.966371E-17
5.980000E+03	1.867177E-15	1.976878E-17
5.990000E+03	1.867689E-15	1.983108E-17
6.000000E+03	1.864234E-15	1.985142E-17
6.010000E+03	1.856970E-15	1.983115E-17
6.020000E+03	1.846122E-15	1.977232E-17
6.030000E+03	1.831942E-15	1.967729E-17
6.040000E+03	1.814671E-15	1.954837E-17
6.050000E+03	1.794528E-15	1.938763E-17
6.060000E+03	1.771778E-15	1.919765E-17
6.070000E+03	1.746628E-15	1.898044E-17
6.080000E+03	1.719239E-15	1.873753E-17
6.090000E+03	1.689741E-15	1.847010E-17
6.100000E+03	1.658286E-15	1.817963E-17
6.110000E+03	1.624869E-15	1.786585E-17
6.120000E+03	1.589502E-15	1.752869E-17
6.130000E+03	1.552236E-15	1.716853E-17
6.140000E+03	1.512940E-15	1.678370E-17
6.150000E+03	1.471499E-15	1.637271E-17
6.160000E+03	1.427911E-15	1.593531E-17
6.170000E+03	1.382246E-15	1.547202E-17
6.180000E+03	1.334635E-15	1.498406E-17
6.190000E+03	1.285419E-15	1.447504E-17
6.200000E+03	1.234961E-15	1.394886E-17
6.210000E+03	1.183882E-15	1.341238E-17
6.220000E+03	1.133008E-15	1.287491E-17
6.230000E+03	1.083187E-15	1.234608E-17
6.240000E+03	1.035231E-15	1.183526E-17
6.250000E+03	9.898609E-16	1.135089E-17
6.260000E+03	9.476622E-16	1.089995E-17
6.270000E+03	9.091438E-16	1.048861E-17
6.280000E+03	8.746946E-16	1.012174E-17
6.290000E+03	8.445122E-16	9.802048E-18
6.300000E+03	8.186955E-16	9.531117E-18
6.310000E+03	7.973457E-16	9.310576E-18
6.320000E+03	7.803595E-16	9.139678E-18
6.330000E+03	7.676334E-16	9.017657E-18
6.340000E+03	7.590887E-16	8.944027E-18
6.350000E+03	7.545353E-16	8.916979E-18
6.360000E+03	7.538148E-16	8.935051E-18
6.370000E+03	7.567779E-16	8.996866E-18
6.380000E+03	7.632691E-16	9.100956E-18
6.390000E+03	7.731179E-16	9.245649E-18
6.400000E+03	7.861804E-16	9.429568E-18
6.410000E+03	8.022627E-16	9.650716E-18
6.420000E+03	8.211676E-16	9.907024E-18
6.430000E+03	8.426836E-16	1.019623E-17
6.440000E+03	8.665925E-16	1.051594E-17
6.450000E+03	8.926227E-16	1.086311E-17
6.460000E+03	9.205046E-16	1.123465E-17
6.470000E+03	9.499662E-16	1.162742E-17
6.480000E+03	9.807115E-16	1.203794E-17
6.490000E+03	1.012444E-15	1.246269E-17
6.500000E+03	1.044868E-15	1.289811E-17
6.510000E+03	1.077747E-15	1.334134E-17
6.520000E+03	1.110777E-15	1.378861E-17
6.530000E+03	1.143752E-15	1.423741E-17
6.540000E+03	1.176427E-15	1.468461E-17
6.550000E+03	1.208551E-15	1.512706E-17
6.560000E+03	1.239917E-15	1.556208E-17
6.570000E+03	1.270304E-15	1.598680E-17
6.580000E+03	1.299475E-15	1.639811E-17
6.590000E+03	1.327216E-15	1.679318E-17
6.600000E+03	1.353255E-15	1.716839E-17
6.610000E+03	1.377413E-15	1.752128E-17
6.620000E+03	1.399420E-15	1.784821E-17
6.630000E+03	1.419108E-15	1.814681E-17
6.640000E+03	1.436239E-15	1.841378E-17
6.650000E+03	1.450670E-15	1.864703E-17
6.660000E+03	1.462240E-15	1.884419E-17
6.670000E+03	1.470870E-15	1.900395E-17
6.680000E+03	1.476492E-15	1.912517E-17
6.690000E+03	1.479102E-15	1.920746E-17
6.700000E+03	1.478755E-15	1.925126E-17
6.710000E+03	1.475526E-15	1.925725E-17
6.720000E+03	1.469543E-15	1.922684E-17
6.730000E+03	1.460992E-15	1.916219E-17
6.740000E+03	1.450054E-15	1.906544E-17
6.750000E+03	1.436957E-15	1.893936E-17
6.760000E+03	1.421939E-15	1.878690E-17
6.770000E+03	1.405267E-15	1.861143E-17
6.780000E+03	1.387231E-15	1.841664E-17
6.790000E+03	1.368078E-15	1.820570E-17
6.800000E+03	1.348105E-15	1.798247E-17
6.810000E+03	1.327536E-15	1.774987E-17
6.820000E+03	1.306669E-15	1.751187E-17
6.830000E+03	1.285749E-15	1.727172E-17
6.840000E+03	1.264958E-15	1.703189E-17
6.850000E+03	1.244572E-15	1.679611E-17
6.860000E+03	1.224716E-15	1.656614E-17
6.870000E+03	1.205631E-15	1.634529E-17
6.880000E+03	1.187406E-15	1.613485E-17
6.890000E+03	1.170233E-15	1.593755E-17
6.900000E+03	1.154185E-15	1.575445E-17
6.910000E+03	1.139352E-15	1.558693E-17
6.920000E+03	1.125816E-15	1.543622E-17
6.930000E+03	1.113622E-15	1.530306E-17
6.940000E+03	1.102794E-15	1.518791E-17
6.950000E+03	1.093299E-15	1.509046E-17
6.960000E+03	1.085070E-15	1.500991E-17
6.970000E+03	1.078081E-15	1.494601E-17
6.980000E+03	1.072190E-15	1.489693E-17
6.990000E+03	1.067302E-15	1.486142E-17
7.000000E+03	1.063293E-15	1.483787E-17
7.010000E+03	1.060047E-15	1.482475E-17
7.020000E+03	1.057383E-15	1.481960E-17
7.030000E+03	1.055204E-15	1.482109E-17
7.040000E+03	1.053366E-15	1.482728E-17
7.050000E+03	1.051752E-15	1.483654E-17
7.060000E+03	1.050250E-15	1.484732E-17
7.070000E+03	1.048796E-15	1.485872E-17
7.080000E+03	1.047293E-15	1.486938E-17
7.090000E+03	1.045692E-15	1.487863E-17
7.100000E+03	1.043939E-15	1.488566E-17
7.110000E+03	1.042025E-15	1.489037E-17
7.120000E+03	1.039934E-15	1.489250E-17
7.130000E+03	1.037661E-15	1.489198E-17
7.140000E+03	1.035249E-15	1.488943E-17
7.150000E+03	1.032729E-15	1.488527E-17
7.160000E+03	1.030144E-15	1.488013E-17
7.170000E+03	1.027562E-15	1.487499E-17
7.180000E+03	1.024985E-15	1.486991E-17
7.190000E+03	1.022468E-15	1.486568E-17
7.200000E+03	1.020061E-15	1.486305E-17
7.210000E+03	1.017769E-15	1.486209E-17
7.220000E+03	1.015596E-15	1.486291E-17
7.230000E+03	1.013564E-15	1.486584E-17
7.240000E+03	1.011648E-15	1.487054E-17
7.250000E+03	1.009854E-15	1.487711E-17
7.260000E+03	1.008143E-15	1.488498E-17
7.270000E+03	1.006513E-15	1.489417E-17
7.280000E+03	1.004935E-15	1.490427E-17
7.290000E+03	1.003380E-15	1.491482E-17
7.300000E+03	1.001794E-15	1.492506E-17
7.310000E+03	1.000188E-15	1.493514E-17
7.320000E+03	9.984858E-16	1.494396E-17
7.330000E+03	9.966794E-16	1.495137E-17
7.340000E+03	9.947473E-16	1.495706E-17
7.350000E+03	9.926704E-16	1.496072E-17
7.360000E+03	9.904314E-16	1.496210E-17
7.370000E+03	9.880222E-16	1.496106E-17
7.380000E+03	9.854355E-16	1.495748E-17
7.390000E+03	9.826901E-16	1.495163E-17
7.400000E+03	9.797586E-16	1.494310E-17
7.410000E+03	9.767033E-16	1.493281E-17
7.420000E+03	9.735433E-16	1.492105E-17
7.430000E+03	9.703098E-16	1.490830E-17
7.440000E+03	9.670111E-16	1.489469E-17
7.450000E+03	9.636705E-16	1.488057E-17
7.460000E+03	9.602987E-16	1.486610E-17
7.470000E+03	9.568992E-16	1.485135E-17
7.480000E+03	9.534690E-16	1.483628E-17
7.490000E+03	9.499929E-16	1.482064E-17
7.500000E+03	9.464502E-16	1.480411E-17
7.510000E+03	9.428160E-16	1.478629E-17
7.520000E+03	9.390418E-16	1.476643E-17
7.530000E+03	9.351426E-16	1.474472E-17
7.540000E+03	9.310430E-16	1.471996E-17
7.550000E+03	9.267327E-16	1.469193E-17
7.560000E+03	9.221787E-16	1.466007E-17
7.570000E+03	9.173701E-16	1.462415E-17
7.580000E+03	9.122298E-16	1.458291E-17
7.590000E+03	9.067489E-16	1.453614E-17
7.600000E+03	9.009218E-16	1.448368E-17
7.610000E+03	8.946791E-16	1.442437E-17
7.620000E+03	8.880444E-16	1.435849E-17
7.630000E+03	8.809619E-16	1.428509E-17
7.640000E+03	8.734647E-16	1.420462E-17
7.650000E+03	8.655434E-16	1.411686E-17
7.660000E+03	8.572368E-16	1.402235E-17
7.670000E+03	8.485825E-16	1.392166E-17
7.680000E+03	8.396018E-16	1.381505E-17
7.690000E+03	8.304020E-16	1.370424E-17
7.700000E+03	8.209568E-16	1.358875E-17
7.710000E+03	8.113236E-16	1.346947E-17
7.720000E+03	8.015585E-16	1.334729E-17
7.730000E+03	7.916521E-16	1.322202E-17
7.740000E+03	7.816743E-16	1.309480E-17
7.750000E+03	7.716521E-16	1.296606E-17
7.760000E+03	7.615690E-16	1.283549E-17
