#wls	flux	fluxerr
1.600000E+03	2.499259E-16	1.286937E-17
1.640000E+03	2.555277E-16	1.311492E-17
1.680000E+03	2.612789E-16	1.336513E-17
1.720000E+03	2.672538E-16	1.362362E-17
1.760000E+03	2.734086E-16	1.388793E-17
1.800000E+03	2.798188E-16	1.416168E-17
1.840000E+03	2.864796E-16	1.444438E-17
1.880000E+03	2.934681E-16	1.473964E-17
1.920000E+03	3.007370E-16	1.504478E-17
1.960000E+03	3.084056E-16	1.536544E-17
2.000000E+03	3.165095E-16	1.570300E-17
2.040000E+03	3.251273E-16	1.606092E-17
2.080000E+03	3.343370E-16	1.644255E-17
2.120000E+03	3.441275E-16	1.684677E-17
2.160000E+03	3.546616E-16	1.728094E-17
2.200000E+03	3.659672E-16	1.774571E-17
2.240000E+03	3.780673E-16	1.824141E-17
2.280000E+03	3.910699E-16	1.877241E-17
2.320000E+03	4.049407E-16	1.933617E-17
2.360000E+03	4.197285E-16	1.993406E-17
2.400000E+03	4.353812E-16	2.056261E-17
2.440000E+03	4.519284E-16	2.122221E-17
2.480000E+03	4.693427E-16	2.191052E-17
2.520000E+03	4.874922E-16	2.262034E-17
2.560000E+03	5.063244E-16	2.334824E-17
2.600000E+03	5.257733E-16	2.409022E-17
2.640000E+03	5.458041E-16	2.484372E-17
2.680000E+03	5.662306E-16	2.559936E-17
2.720000E+03	5.869887E-16	2.635346E-17
2.760000E+03	6.079530E-16	2.709965E-17
2.800000E+03	6.289835E-16	2.783107E-17
2.840000E+03	6.498381E-16	2.853654E-17
2.880000E+03	6.703087E-16	2.920670E-17
2.920000E+03	6.902624E-16	2.983573E-17
2.960000E+03	7.095536E-16	3.041745E-17
3.000000E+03	7.281871E-16	3.095233E-17
3.010000E+03	7.327580E-16	3.107942E-17
3.020000E+03	7.372772E-16	3.120314E-17
3.030000E+03	7.417404E-16	3.132333E-17
3.040000E+03	7.461832E-16	3.144150E-17
3.050000E+03	7.505610E-16	3.155577E-17
3.060000E+03	7.549480E-16	3.166927E-17
3.070000E+03	7.592606E-16	3.177849E-17
3.080000E+03	7.635333E-16	3.188488E-17
3.090000E+03	7.677995E-16	3.198984E-17
3.100000E+03	7.720153E-16	3.209154E-17
3.110000E+03	7.762135E-16	3.219135E-17
3.120000E+03	7.803883E-16	3.228903E-17
3.130000E+03	7.845342E-16	3.238435E-17
3.140000E+03	7.886080E-16	3.247553E-17
3.150000E+03	7.927154E-16	3.256694E-17
3.160000E+03	7.967757E-16	3.265525E-17
3.170000E+03	8.008195E-16	3.274171E-17
3.180000E+03	8.048402E-16	3.282607E-17
3.190000E+03	8.088671E-16	3.290950E-17
3.200000E+03	8.128571E-16	3.299026E-17
3.210000E+03	8.168388E-16	3.306951E-17
3.220000E+03	8.208049E-16	3.314694E-17
3.230000E+03	8.247479E-16	3.322226E-17
3.240000E+03	8.286949E-16	3.329656E-17
3.250000E+03	8.326375E-16	3.336949E-17
3.260000E+03	8.366011E-16	3.344207E-17
3.270000E+03	8.405435E-16	3.351259E-17
3.280000E+03	8.444894E-16	3.358205E-17
3.290000E+03	8.484301E-16	3.365009E-17
3.300000E+03	8.523887E-16	3.371762E-17
3.310000E+03	8.563237E-16	3.378299E-17
3.320000E+03	8.602893E-16	3.384834E-17
3.330000E+03	8.642762E-16	3.391329E-17
3.340000E+03	8.682413E-16	3.397614E-17
3.350000E+03	8.722371E-16	3.403893E-17
3.360000E+03	8.762224E-16	3.410006E-17
3.370000E+03	8.802464E-16	3.416142E-17
3.380000E+03	8.842686E-16	3.422143E-17
3.390000E+03	8.882770E-16	3.427963E-17
3.400000E+03	8.923191E-16	3.433784E-17
3.410000E+03	8.963553E-16	3.439453E-17
3.420000E+03	9.004003E-16	3.445026E-17
3.430000E+03	9.044439E-16	3.450462E-17
3.440000E+03	9.084732E-16	3.455712E-17
3.450000E+03	9.124768E-16	3.460734E-17
3.460000E+03	9.164714E-16	3.465590E-17
3.470000E+03	9.204172E-16	3.470130E-17
3.480000E+03	9.243297E-16	3.474414E-17
3.490000E+03	9.281726E-16	3.478307E-17
3.500000E+03	9.319347E-16	3.481768E-17
3.510000E+03	9.355820E-16	3.484674E-17
3.520000E+03	9.391319E-16	3.487091E-17
3.530000E+03	9.425244E-16	3.488802E-17
3.540000E+03	9.457550E-16	3.489795E-17
3.550000E+03	9.487932E-16	3.489963E-17
3.560000E+03	9.516111E-16	3.489210E-17
3.570000E+03	9.542291E-16	3.487618E-17
3.580000E+03	9.565524E-16	3.484849E-17
3.590000E+03	9.586041E-16	3.480996E-17
3.600000E+03	9.603629E-16	3.475992E-17
3.610000E+03	9.617876E-16	3.469699E-17
3.620000E+03	9.628594E-16	3.462061E-17
3.630000E+03	9.635649E-16	3.453043E-17
3.640000E+03	9.639295E-16	3.442749E-17
3.650000E+03	9.639207E-16	3.431075E-17
3.660000E+03	9.635474E-16	3.418067E-17
3.670000E+03	9.628171E-16	3.403765E-17
3.680000E+03	9.617204E-16	3.388149E-17
3.690000E+03	9.602874E-16	3.371338E-17
3.700000E+03	9.584904E-16	3.353249E-17
3.710000E+03	9.563596E-16	3.334000E-17
3.720000E+03	9.538882E-16	3.313581E-17
3.730000E+03	9.510898E-16	3.292052E-17
3.740000E+03	9.479761E-16	3.269466E-17
3.750000E+03	9.445439E-16	3.245825E-17
3.760000E+03	9.408226E-16	3.221241E-17
3.770000E+03	9.368107E-16	3.195722E-17
3.780000E+03	9.325042E-16	3.169266E-17
3.790000E+03	9.279360E-16	3.141995E-17
3.800000E+03	9.231197E-16	3.113968E-17
3.810000E+03	9.180390E-16	3.085138E-17
3.820000E+03	9.127252E-16	3.055622E-17
3.830000E+03	9.071935E-16	3.025480E-17
3.840000E+03	9.014444E-16	2.994725E-17
3.850000E+03	8.954944E-16	2.963418E-17
3.860000E+03	8.893588E-16	2.931620E-17
3.870000E+03	8.830398E-16	2.899347E-17
3.880000E+03	8.765538E-16	2.866659E-17
3.890000E+03	8.699297E-16	2.833660E-17
3.900000E+03	8.631702E-16	2.800363E-17
3.910000E+03	8.562779E-16	2.766785E-17
3.920000E+03	8.492817E-16	2.733023E-17
3.930000E+03	8.421844E-16	2.699093E-17
3.940000E+03	8.350016E-16	2.665049E-17
3.950000E+03	8.277485E-16	2.630944E-17
3.960000E+03	8.204400E-16	2.596829E-17
3.970000E+03	8.130795E-16	2.562719E-17
3.980000E+03	8.056816E-16	2.528663E-17
3.990000E+03	7.982722E-16	2.494743E-17
4.000000E+03	7.908539E-16	2.460970E-17
4.010000E+03	7.834302E-16	2.427356E-17
4.020000E+03	7.760258E-16	2.393979E-17
4.030000E+03	7.686541E-16	2.360880E-17
4.040000E+03	7.613185E-16	2.328069E-17
4.050000E+03	7.540231E-16	2.295559E-17
4.060000E+03	7.468017E-16	2.263451E-17
4.070000E+03	7.396579E-16	2.231755E-17
4.080000E+03	7.325966E-16	2.200483E-17
4.090000E+03	7.256322E-16	2.169675E-17
4.100000E+03	7.187790E-16	2.139372E-17
4.110000E+03	7.120604E-16	2.109639E-17
4.120000E+03	7.054726E-16	2.080460E-17
4.130000E+03	6.990300E-16	2.051875E-17
4.140000E+03	6.927467E-16	2.023918E-17
4.150000E+03	6.866444E-16	1.996646E-17
4.160000E+03	6.807195E-16	1.970045E-17
4.170000E+03	6.749846E-16	1.944142E-17
4.180000E+03	6.694595E-16	1.918989E-17
4.190000E+03	6.641396E-16	1.894563E-17
4.200000E+03	6.590354E-16	1.870888E-17
4.210000E+03	6.541641E-16	1.848004E-17
4.220000E+03	6.495191E-16	1.825883E-17
4.230000E+03	6.451087E-16	1.804540E-17
4.240000E+03	6.409397E-16	1.783986E-17
4.250000E+03	6.370186E-16	1.764229E-17
4.260000E+03	6.333432E-16	1.745253E-17
4.270000E+03	6.299115E-16	1.727043E-17
4.280000E+03	6.267344E-16	1.709621E-17
4.290000E+03	6.238082E-16	1.692966E-17
4.300000E+03	6.211355E-16	1.677075E-17
4.310000E+03	6.187117E-16	1.661927E-17
4.320000E+03	6.165452E-16	1.647534E-17
4.330000E+03	6.146305E-16	1.633872E-17
4.340000E+03	6.129682E-16	1.620932E-17
4.350000E+03	6.115658E-16	1.608726E-17
4.360000E+03	6.104231E-16	1.597241E-17
4.370000E+03	6.095398E-16	1.586469E-17
4.380000E+03	6.089221E-16	1.576414E-17
4.390000E+03	6.085754E-16	1.567081E-17
4.400000E+03	6.085051E-16	1.558473E-17
4.410000E+03	6.087287E-16	1.550624E-17
4.420000E+03	6.092507E-16	1.543534E-17
4.430000E+03	6.100745E-16	1.537201E-17
4.440000E+03	6.112085E-16	1.531635E-17
4.450000E+03	6.126541E-16	1.526827E-17
4.460000E+03	6.144057E-16	1.522750E-17
4.470000E+03	6.164771E-16	1.519429E-17
4.480000E+03	6.188552E-16	1.516817E-17
4.490000E+03	6.215465E-16	1.514921E-17
4.500000E+03	6.245375E-16	1.513694E-17
4.510000E+03	6.278339E-16	1.513141E-17
4.520000E+03	6.314150E-16	1.513199E-17
4.530000E+03	6.352863E-16	1.513873E-17
4.540000E+03	6.394401E-16	1.515133E-17
4.550000E+03	6.438558E-16	1.516921E-17
4.560000E+03	6.485397E-16	1.519243E-17
4.570000E+03	6.534722E-16	1.522044E-17
4.580000E+03	6.586545E-16	1.525319E-17
4.590000E+03	6.640685E-16	1.529017E-17
4.600000E+03	6.697180E-16	1.533141E-17
4.610000E+03	6.755872E-16	1.537648E-17
4.620000E+03	6.816685E-16	1.542513E-17
4.630000E+03	6.879556E-16	1.547716E-17
4.640000E+03	6.944502E-16	1.553255E-17
4.650000E+03	7.011334E-16	1.559084E-17
4.660000E+03	7.080082E-16	1.565204E-17
4.670000E+03	7.150552E-16	1.571568E-17
4.680000E+03	7.222690E-16	1.578160E-17
4.690000E+03	7.296349E-16	1.584945E-17
4.700000E+03	7.371437E-16	1.591902E-17
4.710000E+03	7.447683E-16	1.598969E-17
4.720000E+03	7.525007E-16	1.606129E-17
4.730000E+03	7.603293E-16	1.613357E-17
4.740000E+03	7.682237E-16	1.620589E-17
4.750000E+03	7.762030E-16	1.627867E-17
4.760000E+03	7.842367E-16	1.635128E-17
4.770000E+03	7.923302E-16	1.642387E-17
4.780000E+03	8.004546E-16	1.649585E-17
4.790000E+03	8.086025E-16	1.656711E-17
4.800000E+03	8.167575E-16	1.663736E-17
4.810000E+03	8.248861E-16	1.670597E-17
4.820000E+03	8.329716E-16	1.677267E-17
4.830000E+03	8.409901E-16	1.683703E-17
4.840000E+03	8.489215E-16	1.689874E-17
4.850000E+03	8.567423E-16	1.695743E-17
4.860000E+03	8.644483E-16	1.701310E-17
4.870000E+03	8.720446E-16	1.706594E-17
4.880000E+03	8.795605E-16	1.711663E-17
4.890000E+03	8.870318E-16	1.716595E-17
4.900000E+03	8.944686E-16	1.721416E-17
4.910000E+03	9.019123E-16	1.726214E-17
4.920000E+03	9.093803E-16	1.731027E-17
4.930000E+03	9.168715E-16	1.735860E-17
4.940000E+03	9.243929E-16	1.740732E-17
4.950000E+03	9.319218E-16	1.745606E-17
4.960000E+03	9.394434E-16	1.750461E-17
4.970000E+03	9.469231E-16	1.755238E-17
4.980000E+03	9.543084E-16	1.759845E-17
4.990000E+03	9.615593E-16	1.764217E-17
5.000000E+03	9.686131E-16	1.768248E-17
5.010000E+03	9.754253E-16	1.771867E-17
5.020000E+03	9.819466E-16	1.774996E-17
5.030000E+03	9.881109E-16	1.777528E-17
5.040000E+03	9.939053E-16	1.779455E-17
5.050000E+03	9.992948E-16	1.780728E-17
5.060000E+03	1.004283E-15	1.781367E-17
5.070000E+03	1.008855E-15	1.781361E-17
5.080000E+03	1.013051E-15	1.780793E-17
5.090000E+03	1.016897E-15	1.779723E-17
5.100000E+03	1.020425E-15	1.778218E-17
5.110000E+03	1.023709E-15	1.776418E-17
5.120000E+03	1.026785E-15	1.774393E-17
5.130000E+03	1.029720E-15	1.772267E-17
5.140000E+03	1.032572E-15	1.770144E-17
5.150000E+03	1.035380E-15	1.768100E-17
5.160000E+03	1.038205E-15	1.766240E-17
5.170000E+03	1.041078E-15	1.764620E-17
5.180000E+03	1.044047E-15	1.763326E-17
5.190000E+03	1.047138E-15	1.762402E-17
5.200000E+03	1.050383E-15	1.761904E-17
5.210000E+03	1.053814E-15	1.761887E-17
5.220000E+03	1.057461E-15	1.762402E-17
5.230000E+03	1.061346E-15	1.763489E-17
5.240000E+03	1.065521E-15	1.765232E-17
5.250000E+03	1.069996E-15	1.767649E-17
5.260000E+03	1.074800E-15	1.770790E-17
5.270000E+03	1.079975E-15	1.774723E-17
5.280000E+03	1.085536E-15	1.779476E-17
5.290000E+03	1.091513E-15	1.785096E-17
5.300000E+03	1.097927E-15	1.791622E-17
5.310000E+03	1.104791E-15	1.799076E-17
5.320000E+03	1.112137E-15	1.807512E-17
5.330000E+03	1.119986E-15	1.816968E-17
5.340000E+03	1.128334E-15	1.827438E-17
5.350000E+03	1.137211E-15	1.838978E-17
5.360000E+03	1.146637E-15	1.851621E-17
5.370000E+03	1.156629E-15	1.865403E-17
5.380000E+03	1.167183E-15	1.880322E-17
5.390000E+03	1.178332E-15	1.896437E-17
5.400000E+03	1.190050E-15	1.913715E-17
5.410000E+03	1.202216E-15	1.931968E-17
5.420000E+03	1.214554E-15	1.950764E-17
5.430000E+03	1.226755E-15	1.969610E-17
5.440000E+03	1.238474E-15	1.987957E-17
5.450000E+03	1.249368E-15	2.005259E-17
5.460000E+03	1.259151E-15	2.021056E-17
5.470000E+03	1.267507E-15	2.034843E-17
5.480000E+03	1.274198E-15	2.046237E-17
5.490000E+03	1.278969E-15	2.054819E-17
5.500000E+03	1.281634E-15	2.060289E-17
5.510000E+03	1.282044E-15	2.062394E-17
5.520000E+03	1.280065E-15	2.060903E-17
5.530000E+03	1.275666E-15	2.055753E-17
5.540000E+03	1.268848E-15	2.046924E-17
5.550000E+03	1.259650E-15	2.034456E-17
5.560000E+03	1.248191E-15	2.018520E-17
5.570000E+03	1.234618E-15	1.999325E-17
5.580000E+03	1.219151E-15	1.977202E-17
5.590000E+03	1.202049E-15	1.952546E-17
5.600000E+03	1.183583E-15	1.925771E-17
5.610000E+03	1.164064E-15	1.897358E-17
5.620000E+03	1.143825E-15	1.867828E-17
5.630000E+03	1.123220E-15	1.837740E-17
5.640000E+03	1.102599E-15	1.807649E-17
5.650000E+03	1.082304E-15	1.778106E-17
5.660000E+03	1.062673E-15	1.749657E-17
5.670000E+03	1.044024E-15	1.722822E-17
5.680000E+03	1.026669E-15	1.698115E-17
5.690000E+03	1.010863E-15	1.675966E-17
5.700000E+03	9.968891E-16	1.656852E-17
5.710000E+03	9.849508E-16	1.641127E-17
5.720000E+03	9.752553E-16	1.629155E-17
5.730000E+03	9.679721E-16	1.621242E-17
5.740000E+03	9.632419E-16	1.617650E-17
5.750000E+03	9.611759E-16	1.618597E-17
5.760000E+03	9.618636E-16	1.624266E-17
5.770000E+03	9.653417E-16	1.634756E-17
5.780000E+03	9.716307E-16	1.650139E-17
5.790000E+03	9.806935E-16	1.670393E-17
5.800000E+03	9.924727E-16	1.695459E-17
5.810000E+03	1.006860E-15	1.725193E-17
5.820000E+03	1.023701E-15	1.759371E-17
5.830000E+03	1.042798E-15	1.797692E-17
5.840000E+03	1.063908E-15	1.839774E-17
5.850000E+03	1.086751E-15	1.885162E-17
5.860000E+03	1.110984E-15	1.933293E-17
5.870000E+03	1.136245E-15	1.983558E-17
5.880000E+03	1.162111E-15	2.035238E-17
5.890000E+03	1.188171E-15	2.087623E-17
5.900000E+03	1.213941E-15	2.139867E-17
5.910000E+03	1.238968E-15	2.191162E-17
5.920000E+03	1.262799E-15	2.240697E-17
5.930000E+03	1.284968E-15	2.287624E-17
5.940000E+03	1.305054E-15	2.331161E-17
5.950000E+03	1.322687E-15	2.370609E-17
5.960000E+03	1.337521E-15	2.405303E-17
5.970000E+03	1.349300E-15	2.434731E-17
5.980000E+03	1.357818E-15	2.458465E-17
5.990000E+03	1.362938E-15	2.476194E-17
6.000000E+03	1.364591E-15	2.487728E-17
6.010000E+03	1.362771E-15	2.492989E-17
6.020000E+03	1.357528E-15	2.492006E-17
6.030000E+03	1.348965E-15	2.484899E-17
6.040000E+03	1.337226E-15	2.471867E-17
6.050000E+03	1.322487E-15	2.453176E-17
6.060000E+03	1.304953E-15	2.429144E-17
6.070000E+03	1.284843E-15	2.400124E-17
6.080000E+03	1.262378E-15	2.366478E-17
6.090000E+03	1.237801E-15	2.328610E-17
6.100000E+03	1.211340E-15	2.286909E-17
6.110000E+03	1.183244E-15	2.241802E-17
6.120000E+03	1.153742E-15	2.193690E-17
6.130000E+03	1.123064E-15	2.142979E-17
6.140000E+03	1.091437E-15	2.090076E-17
6.150000E+03	1.059075E-15	2.035370E-17
6.160000E+03	1.026227E-15	1.979320E-17
6.170000E+03	9.931062E-16	1.922325E-17
6.180000E+03	9.599486E-16	1.864830E-17
6.190000E+03	9.270134E-16	1.807335E-17
6.200000E+03	8.945481E-16	1.750323E-17
6.210000E+03	8.628053E-16	1.694297E-17
6.220000E+03	8.320429E-16	1.639774E-17
6.230000E+03	8.025163E-16	1.587278E-17
6.240000E+03	7.744498E-16	1.537275E-17
6.250000E+03	7.480246E-16	1.490155E-17
6.260000E+03	7.234219E-16	1.446313E-17
6.270000E+03	7.007751E-16	1.406053E-17
6.280000E+03	6.801972E-16	1.369641E-17
6.290000E+03	6.617568E-16	1.337260E-17
6.300000E+03	6.455135E-16	1.309075E-17
6.310000E+03	6.314957E-16	1.285188E-17
6.320000E+03	6.197117E-16	1.265664E-17
6.330000E+03	6.101453E-16	1.250517E-17
6.340000E+03	6.027880E-16	1.239775E-17
6.350000E+03	5.975886E-16	1.233381E-17
6.360000E+03	5.945003E-16	1.231282E-17
6.370000E+03	5.934806E-16	1.233435E-17
6.380000E+03	5.944484E-16	1.239715E-17
6.390000E+03	5.973286E-16	1.250007E-17
6.400000E+03	6.020447E-16	1.264189E-17
6.410000E+03	6.085045E-16	1.282107E-17
6.420000E+03	6.166080E-16	1.303585E-17
6.430000E+03	6.262398E-16	1.328413E-17
6.440000E+03	6.372765E-16	1.356360E-17
6.450000E+03	6.496046E-16	1.387212E-17
6.460000E+03	6.630811E-16	1.420689E-17
6.470000E+03	6.775660E-16	1.456514E-17
6.480000E+03	6.929157E-16	1.494396E-17
6.490000E+03	7.090034E-16	1.534078E-17
6.500000E+03	7.256741E-16	1.575237E-17
6.510000E+03	7.428013E-16	1.617609E-17
6.520000E+03	7.602506E-16	1.660909E-17
6.530000E+03	7.778889E-16	1.704849E-17
6.540000E+03	7.955738E-16	1.749118E-17
6.550000E+03	8.131945E-16	1.793472E-17
6.560000E+03	8.306088E-16	1.837593E-17
6.570000E+03	8.477066E-16	1.881231E-17
6.580000E+03	8.643313E-16	1.924028E-17
6.590000E+03	8.803582E-16	1.965696E-17
6.600000E+03	8.956743E-16	2.005967E-17
6.610000E+03	9.101191E-16	2.044465E-17
6.620000E+03	9.235688E-16	2.080892E-17
6.630000E+03	9.359053E-16	2.114959E-17
6.640000E+03	9.469923E-16	2.146334E-17
6.650000E+03	9.567294E-16	2.174763E-17
6.660000E+03	9.650176E-16	2.199993E-17
6.670000E+03	9.717889E-16	2.221837E-17
6.680000E+03	9.769549E-16	2.240064E-17
6.690000E+03	9.805175E-16	2.254645E-17
6.700000E+03	9.824344E-16	2.265451E-17
6.710000E+03	9.827156E-16	2.272473E-17
6.720000E+03	9.814232E-16	2.275824E-17
6.730000E+03	9.785881E-16	2.275544E-17
6.740000E+03	9.743184E-16	2.271857E-17
6.750000E+03	9.687008E-16	2.264938E-17
6.760000E+03	9.618531E-16	2.255039E-17
6.770000E+03	9.539073E-16	2.242447E-17
6.780000E+03	9.450202E-16	2.227512E-17
6.790000E+03	9.353285E-16	2.210540E-17
6.800000E+03	9.250013E-16	2.191918E-17
6.810000E+03	9.141816E-16	2.171974E-17
6.820000E+03	9.030252E-16	2.151073E-17
6.830000E+03	8.917108E-16	2.129636E-17
6.840000E+03	8.803444E-16	2.107914E-17
6.850000E+03	8.691040E-16	2.086336E-17
6.860000E+03	8.580924E-16	2.065153E-17
6.870000E+03	8.474280E-16	2.044656E-17
6.880000E+03	8.372298E-16	2.025140E-17
6.890000E+03	8.275911E-16	2.006841E-17
6.900000E+03	8.185788E-16	1.989934E-17
6.910000E+03	8.102703E-16	1.974619E-17
6.920000E+03	8.027162E-16	1.961034E-17
6.930000E+03	7.959390E-16	1.949248E-17
6.940000E+03	7.899590E-16	1.939327E-17
6.950000E+03	7.848059E-16	1.931359E-17
6.960000E+03	7.804334E-16	1.925246E-17
6.970000E+03	7.768555E-16	1.921036E-17
6.980000E+03	7.740115E-16	1.918595E-17
6.990000E+03	7.718540E-16	1.917820E-17
7.000000E+03	7.703262E-16	1.918580E-17
7.010000E+03	7.693874E-16	1.920788E-17
7.020000E+03	7.689299E-16	1.924185E-17
7.030000E+03	7.689042E-16	1.928656E-17
7.040000E+03	7.692219E-16	1.933987E-17
7.050000E+03	7.698208E-16	1.940029E-17
7.060000E+03	7.706164E-16	1.946575E-17
7.070000E+03	7.715414E-16	1.953458E-17
7.080000E+03	7.725475E-16	1.960559E-17
7.090000E+03	7.735684E-16	1.967713E-17
7.100000E+03	7.745585E-16	1.974803E-17
7.110000E+03	7.754942E-16	1.981771E-17
7.120000E+03	7.763344E-16	1.988512E-17
7.130000E+03	7.770590E-16	1.994973E-17
7.140000E+03	7.776556E-16	2.001121E-17
7.150000E+03	7.781312E-16	2.006973E-17
7.160000E+03	7.784709E-16	2.012490E-17
7.170000E+03	7.786897E-16	2.017711E-17
7.180000E+03	7.787640E-16	2.022571E-17
7.190000E+03	7.787370E-16	2.027183E-17
7.200000E+03	7.785832E-16	2.031479E-17
7.210000E+03	7.783008E-16	2.035455E-17
7.220000E+03	7.779125E-16	2.039166E-17
7.230000E+03	7.773814E-16	2.042518E-17
7.240000E+03	7.767087E-16	2.045511E-17
7.250000E+03	7.758641E-16	2.048064E-17
7.260000E+03	7.748696E-16	2.050234E-17
7.270000E+03	7.736624E-16	2.051851E-17
7.280000E+03	7.722345E-16	2.052893E-17
7.290000E+03	7.705918E-16	2.053372E-17
7.300000E+03	7.686860E-16	2.053156E-17
7.310000E+03	7.665132E-16	2.052231E-17
7.320000E+03	7.640454E-16	2.050518E-17
7.330000E+03	7.613147E-16	2.048098E-17
7.340000E+03	7.582745E-16	2.044842E-17
7.350000E+03	7.549535E-16	2.040823E-17
7.360000E+03	7.513587E-16	2.036054E-17
7.370000E+03	7.474881E-16	2.030526E-17
7.380000E+03	7.433873E-16	2.024358E-17
7.390000E+03	7.390644E-16	2.017568E-17
7.400000E+03	7.345311E-16	2.010185E-17
7.410000E+03	7.298434E-16	2.002359E-17
7.420000E+03	7.250167E-16	1.994129E-17
7.430000E+03	7.200800E-16	1.985573E-17
7.440000E+03	7.150472E-16	1.976727E-17
7.450000E+03	7.099571E-16	1.967698E-17
7.460000E+03	7.048312E-16	1.958543E-17
7.470000E+03	6.996869E-16	1.949312E-17
7.480000E+03	6.945244E-16	1.940004E-17
7.490000E+03	6.893666E-16	1.930684E-17
7.500000E+03	6.841930E-16	1.921293E-17
7.510000E+03	6.790331E-16	1.911916E-17
7.520000E+03	6.738610E-16	1.902478E-17
7.530000E+03	6.686881E-16	1.893011E-17
7.540000E+03	6.634984E-16	1.883466E-17
7.550000E+03	6.582746E-16	1.873793E-17
7.560000E+03	6.530374E-16	1.864047E-17
7.570000E+03	6.477553E-16	1.854136E-17
7.580000E+03	6.424220E-16	1.844039E-17
7.590000E+03	6.370442E-16	1.833771E-17
7.600000E+03	6.316025E-16	1.823275E-17
7.610000E+03	6.260783E-16	1.812492E-17
7.620000E+03	6.204915E-16	1.801476E-17
7.630000E+03	6.148126E-16	1.790138E-17
7.640000E+03	6.090395E-16	1.778467E-17
7.650000E+03	6.031995E-16	1.766539E-17
7.660000E+03	5.972647E-16	1.754269E-17
7.670000E+03	5.912706E-16	1.741757E-17
7.680000E+03	5.852287E-16	1.729034E-17
7.690000E+03	5.791267E-16	1.716059E-17
7.700000E+03	5.729995E-16	1.702935E-17
7.710000E+03	5.668459E-16	1.689653E-17
7.720000E+03	5.606755E-16	1.676241E-17
7.730000E+03	5.545088E-16	1.662758E-17
7.740000E+03	5.483306E-16	1.649157E-17
7.750000E+03	5.421705E-16	1.635525E-17
7.760000E+03	5.360229E-16	1.621844E-17
