#wls	flux	fluxerr
1.600000E+03	1.580836E-16	4.073038E-18
1.640000E+03	1.605158E-16	4.130971E-18
1.680000E+03	1.629579E-16	4.188896E-18
1.720000E+03	1.654368E-16	4.247491E-18
1.760000E+03	1.679478E-16	4.306625E-18
1.800000E+03	1.704860E-16	4.366162E-18
1.840000E+03	1.730795E-16	4.426809E-18
1.880000E+03	1.756551E-16	4.486681E-18
1.920000E+03	1.783083E-16	4.548210E-18
1.960000E+03	1.809993E-16	4.610363E-18
2.000000E+03	1.837211E-16	4.672945E-18
2.040000E+03	1.864659E-16	4.735750E-18
2.080000E+03	1.892614E-16	4.799463E-18
2.120000E+03	1.920990E-16	4.863855E-18
2.160000E+03	1.949696E-16	4.928676E-18
2.200000E+03	1.978626E-16	4.993648E-18
2.240000E+03	2.008041E-16	5.059411E-18
2.280000E+03	2.037446E-16	5.124706E-18
2.320000E+03	2.067464E-16	5.191083E-18
2.360000E+03	2.097198E-16	5.256274E-18
2.400000E+03	2.127251E-16	5.321781E-18
2.440000E+03	2.157080E-16	5.386233E-18
2.480000E+03	2.187271E-16	5.451081E-18
2.520000E+03	2.216872E-16	5.513939E-18
2.560000E+03	2.246447E-16	5.576204E-18
2.600000E+03	2.275782E-16	5.637334E-18
2.640000E+03	2.304650E-16	5.696759E-18
2.680000E+03	2.333189E-16	5.754817E-18
2.720000E+03	2.361146E-16	5.810880E-18
2.760000E+03	2.389001E-16	5.866120E-18
2.800000E+03	2.416459E-16	5.919810E-18
2.840000E+03	2.443579E-16	5.972088E-18
2.880000E+03	2.470756E-16	6.023913E-18
2.920000E+03	2.497626E-16	6.074385E-18
2.960000E+03	2.524861E-16	6.125133E-18
3.000000E+03	2.552374E-16	6.175928E-18
3.010000E+03	2.559615E-16	6.189405E-18
3.020000E+03	2.566814E-16	6.202739E-18
3.030000E+03	2.573960E-16	6.215905E-18
3.040000E+03	2.581049E-16	6.228891E-18
3.050000E+03	2.588409E-16	6.242489E-18
3.060000E+03	2.595693E-16	6.255861E-18
3.070000E+03	2.603227E-16	6.269794E-18
3.080000E+03	2.610667E-16	6.283459E-18
3.090000E+03	2.618336E-16	6.297629E-18
3.100000E+03	2.626220E-16	6.312273E-18
3.110000E+03	2.633981E-16	6.326578E-18
3.120000E+03	2.641937E-16	6.341305E-18
3.130000E+03	2.650074E-16	6.356421E-18
3.140000E+03	2.658058E-16	6.371126E-18
3.150000E+03	2.666519E-16	6.386927E-18
3.160000E+03	2.675123E-16	6.403022E-18
3.170000E+03	2.683541E-16	6.418625E-18
3.180000E+03	2.692392E-16	6.435213E-18
3.190000E+03	2.701345E-16	6.451999E-18
3.200000E+03	2.710695E-16	6.469679E-18
3.210000E+03	2.719812E-16	6.486755E-18
3.220000E+03	2.729295E-16	6.504652E-18
3.230000E+03	2.739125E-16	6.523323E-18
3.240000E+03	2.748985E-16	6.542011E-18
3.250000E+03	2.759156E-16	6.561385E-18
3.260000E+03	2.769325E-16	6.580700E-18
3.270000E+03	2.779772E-16	6.600618E-18
3.280000E+03	2.790767E-16	6.621782E-18
3.290000E+03	2.801707E-16	6.642755E-18
3.300000E+03	2.812865E-16	6.664190E-18
3.310000E+03	2.824223E-16	6.686034E-18
3.320000E+03	2.836041E-16	6.708908E-18
3.330000E+03	2.848013E-16	6.732085E-18
3.340000E+03	2.860400E-16	6.756177E-18
3.350000E+03	2.872897E-16	6.780467E-18
3.360000E+03	2.885486E-16	6.804906E-18
3.370000E+03	2.898689E-16	6.830727E-18
3.380000E+03	2.911936E-16	6.856583E-18
3.390000E+03	2.925740E-16	6.883682E-18
3.400000E+03	2.939541E-16	6.910700E-18
3.410000E+03	2.953841E-16	6.938822E-18
3.420000E+03	2.968350E-16	6.967361E-18
3.430000E+03	2.983299E-16	6.996856E-18
3.440000E+03	2.998400E-16	7.026634E-18
3.450000E+03	3.013881E-16	7.057222E-18
3.460000E+03	3.029708E-16	7.088544E-18
3.470000E+03	3.045850E-16	7.120522E-18
3.480000E+03	3.062276E-16	7.153079E-18
3.490000E+03	3.079195E-16	7.186707E-18
3.500000E+03	3.096090E-16	7.220193E-18
3.510000E+03	3.113648E-16	7.255141E-18
3.520000E+03	3.131355E-16	7.290345E-18
3.530000E+03	3.149413E-16	7.326278E-18
3.540000E+03	3.167785E-16	7.362851E-18
3.550000E+03	3.186432E-16	7.399972E-18
3.560000E+03	3.205320E-16	7.437558E-18
3.570000E+03	3.224635E-16	7.476039E-18
3.580000E+03	3.244332E-16	7.515312E-18
3.590000E+03	3.264153E-16	7.554771E-18
3.600000E+03	3.284492E-16	7.595332E-18
3.610000E+03	3.304875E-16	7.635894E-18
3.620000E+03	3.325691E-16	7.677352E-18
3.630000E+03	3.346681E-16	7.719111E-18
3.640000E+03	3.368013E-16	7.761553E-18
3.650000E+03	3.389641E-16	7.804571E-18
3.660000E+03	3.411516E-16	7.848052E-18
3.670000E+03	3.433398E-16	7.891439E-18
3.680000E+03	3.455836E-16	7.935996E-18
3.690000E+03	3.478191E-16	7.980251E-18
3.700000E+03	3.501001E-16	8.025439E-18
3.710000E+03	3.523833E-16	8.070564E-18
3.720000E+03	3.546830E-16	8.115955E-18
3.730000E+03	3.570131E-16	8.161927E-18
3.740000E+03	3.593499E-16	8.207936E-18
3.750000E+03	3.616889E-16	8.253880E-18
3.760000E+03	3.640611E-16	8.300466E-18
3.770000E+03	3.664256E-16	8.346759E-18
3.780000E+03	3.687956E-16	8.393059E-18
3.790000E+03	3.711662E-16	8.439256E-18
3.800000E+03	3.735493E-16	8.485620E-18
3.810000E+03	3.759399E-16	8.532037E-18
3.820000E+03	3.783164E-16	8.578012E-18
3.830000E+03	3.806904E-16	8.623816E-18
3.840000E+03	3.830573E-16	8.669340E-18
3.850000E+03	3.854121E-16	8.714474E-18
3.860000E+03	3.877503E-16	8.759116E-18
3.870000E+03	3.900829E-16	8.803514E-18
3.880000E+03	3.924049E-16	8.847556E-18
3.890000E+03	3.946967E-16	8.890804E-18
3.900000E+03	3.969690E-16	8.933499E-18
3.910000E+03	3.992320E-16	8.975869E-18
3.920000E+03	4.014523E-16	9.017170E-18
3.930000E+03	4.036411E-16	9.057650E-18
3.940000E+03	4.057942E-16	9.097223E-18
3.950000E+03	4.079222E-16	9.136124E-18
3.960000E+03	4.100078E-16	9.173971E-18
3.970000E+03	4.120482E-16	9.210701E-18
3.980000E+03	4.140537E-16	9.246552E-18
3.990000E+03	4.160091E-16	9.281181E-18
4.000000E+03	4.179121E-16	9.314547E-18
4.010000E+03	4.197739E-16	9.346898E-18
4.020000E+03	4.215805E-16	9.377928E-18
4.030000E+03	4.233312E-16	9.407626E-18
4.040000E+03	4.250375E-16	9.436246E-18
4.050000E+03	4.266757E-16	9.463273E-18
4.060000E+03	4.282698E-16	9.489239E-18
4.070000E+03	4.297977E-16	9.513660E-18
4.080000E+03	4.312723E-16	9.536825E-18
4.090000E+03	4.326848E-16	9.558543E-18
4.100000E+03	4.340485E-16	9.579114E-18
4.110000E+03	4.353452E-16	9.598140E-18
4.120000E+03	4.365894E-16	9.615941E-18
4.130000E+03	4.377749E-16	9.632391E-18
4.140000E+03	4.389067E-16	9.647602E-18
4.150000E+03	4.399904E-16	9.661698E-18
4.160000E+03	4.410120E-16	9.674381E-18
4.170000E+03	4.419884E-16	9.686020E-18
4.180000E+03	4.429075E-16	9.696359E-18
4.190000E+03	4.437867E-16	9.705780E-18
4.200000E+03	4.446250E-16	9.714264E-18
4.210000E+03	4.454217E-16	9.721802E-18
4.220000E+03	4.461690E-16	9.728223E-18
4.230000E+03	4.468852E-16	9.733936E-18
4.240000E+03	4.475721E-16	9.738975E-18
4.250000E+03	4.482233E-16	9.743208E-18
4.260000E+03	4.488418E-16	9.746703E-18
4.270000E+03	4.494391E-16	9.749714E-18
4.280000E+03	4.500108E-16	9.752144E-18
4.290000E+03	4.505613E-16	9.754092E-18
4.300000E+03	4.510949E-16	9.755655E-18
4.310000E+03	4.516166E-16	9.756941E-18
4.320000E+03	4.521313E-16	9.758057E-18
4.330000E+03	4.526290E-16	9.758790E-18
4.340000E+03	4.531226E-16	9.759419E-18
4.350000E+03	4.536100E-16	9.759900E-18
4.360000E+03	4.540963E-16	9.760344E-18
4.370000E+03	4.545935E-16	9.761010E-18
4.380000E+03	4.550918E-16	9.761688E-18
4.390000E+03	4.556022E-16	9.762613E-18
4.400000E+03	4.561283E-16	9.763863E-18
4.410000E+03	4.566793E-16	9.765636E-18
4.420000E+03	4.572507E-16	9.767831E-18
4.430000E+03	4.578636E-16	9.770903E-18
4.440000E+03	4.585185E-16	9.774857E-18
4.450000E+03	4.592213E-16	9.779818E-18
4.460000E+03	4.599645E-16	9.785627E-18
4.470000E+03	4.607528E-16	9.792379E-18
4.480000E+03	4.615777E-16	9.799890E-18
4.490000E+03	4.624299E-16	9.807965E-18
4.500000E+03	4.633192E-16	9.816807E-18
4.510000E+03	4.642417E-16	9.826334E-18
4.520000E+03	4.651933E-16	9.836458E-18
4.530000E+03	4.661822E-16	9.847351E-18
4.540000E+03	4.672036E-16	9.858909E-18
4.550000E+03	4.682649E-16	9.871287E-18
4.560000E+03	4.693729E-16	9.884626E-18
4.570000E+03	4.705220E-16	9.898810E-18
4.580000E+03	4.717250E-16	9.914101E-18
4.590000E+03	4.729879E-16	9.930628E-18
4.600000E+03	4.743108E-16	9.948384E-18
4.610000E+03	4.756994E-16	9.967490E-18
4.620000E+03	4.771593E-16	9.988059E-18
4.630000E+03	4.786957E-16	1.001020E-17
4.640000E+03	4.803195E-16	1.003413E-17
4.650000E+03	4.820295E-16	1.005982E-17
4.660000E+03	4.838355E-16	1.008748E-17
4.670000E+03	4.857353E-16	1.011704E-17
4.680000E+03	4.877380E-16	1.014871E-17
4.690000E+03	4.898461E-16	1.018252E-17
4.700000E+03	4.920609E-16	1.021850E-17
4.710000E+03	4.943896E-16	1.025678E-17
4.720000E+03	4.968320E-16	1.029737E-17
4.730000E+03	4.993812E-16	1.034011E-17
4.740000E+03	5.020473E-16	1.038521E-17
4.750000E+03	5.048215E-16	1.043248E-17
4.760000E+03	5.077058E-16	1.048195E-17
4.770000E+03	5.106893E-16	1.053341E-17
4.780000E+03	5.137662E-16	1.058671E-17
4.790000E+03	5.169172E-16	1.064146E-17
4.800000E+03	5.201409E-16	1.069764E-17
4.810000E+03	5.234047E-16	1.075457E-17
4.820000E+03	5.267122E-16	1.081231E-17
4.830000E+03	5.300311E-16	1.087022E-17
4.840000E+03	5.333542E-16	1.092814E-17
4.850000E+03	5.366704E-16	1.098585E-17
4.860000E+03	5.399714E-16	1.104318E-17
4.870000E+03	5.432465E-16	1.109992E-17
4.880000E+03	5.465016E-16	1.115619E-17
4.890000E+03	5.497325E-16	1.121190E-17
4.900000E+03	5.529427E-16	1.126714E-17
4.910000E+03	5.561425E-16	1.132212E-17
4.920000E+03	5.593235E-16	1.137666E-17
4.930000E+03	5.624947E-16	1.143096E-17
4.940000E+03	5.656578E-16	1.148505E-17
4.950000E+03	5.688128E-16	1.153893E-17
4.960000E+03	5.719512E-16	1.159244E-17
4.970000E+03	5.750756E-16	1.164562E-17
4.980000E+03	5.781808E-16	1.169838E-17
4.990000E+03	5.812529E-16	1.175044E-17
5.000000E+03	5.842902E-16	1.180177E-17
5.010000E+03	5.872768E-16	1.185204E-17
5.020000E+03	5.902028E-16	1.190107E-17
5.030000E+03	5.930644E-16	1.194879E-17
5.040000E+03	5.958518E-16	1.199499E-17
5.050000E+03	5.985422E-16	1.203923E-17
5.060000E+03	6.011402E-16	1.208161E-17
5.070000E+03	6.036382E-16	1.212198E-17
5.080000E+03	6.060168E-16	1.215996E-17
5.090000E+03	6.082843E-16	1.219572E-17
5.100000E+03	6.104377E-16	1.222920E-17
5.110000E+03	6.124619E-16	1.226013E-17
5.120000E+03	6.143765E-16	1.228888E-17
5.130000E+03	6.161629E-16	1.231511E-17
5.140000E+03	6.178364E-16	1.233912E-17
5.150000E+03	6.193939E-16	1.236085E-17
5.160000E+03	6.208462E-16	1.238053E-17
5.170000E+03	6.221914E-16	1.239814E-17
5.180000E+03	6.234413E-16	1.241390E-17
5.190000E+03	6.245948E-16	1.242780E-17
5.200000E+03	6.256573E-16	1.243996E-17
5.210000E+03	6.266410E-16	1.245062E-17
5.220000E+03	6.275445E-16	1.245977E-17
5.230000E+03	6.283792E-16	1.246762E-17
5.240000E+03	6.291430E-16	1.247415E-17
5.250000E+03	6.298399E-16	1.247944E-17
5.260000E+03	6.304801E-16	1.248370E-17
5.270000E+03	6.310662E-16	1.248697E-17
5.280000E+03	6.315877E-16	1.248906E-17
5.290000E+03	6.320593E-16	1.249025E-17
5.300000E+03	6.324756E-16	1.249046E-17
5.310000E+03	6.328439E-16	1.248982E-17
5.320000E+03	6.331573E-16	1.248820E-17
5.330000E+03	6.334154E-16	1.248559E-17
5.340000E+03	6.336168E-16	1.248198E-17
5.350000E+03	6.337593E-16	1.247732E-17
5.360000E+03	6.338399E-16	1.247156E-17
5.370000E+03	6.338540E-16	1.246460E-17
5.380000E+03	6.337957E-16	1.245635E-17
5.390000E+03	6.336501E-16	1.244650E-17
5.400000E+03	6.334197E-16	1.243511E-17
5.410000E+03	6.330772E-16	1.242165E-17
5.420000E+03	6.326043E-16	1.240576E-17
5.430000E+03	6.319870E-16	1.238716E-17
5.440000E+03	6.311971E-16	1.236532E-17
5.450000E+03	6.302128E-16	1.233980E-17
5.460000E+03	6.290194E-16	1.231032E-17
5.470000E+03	6.275909E-16	1.227638E-17
5.480000E+03	6.259102E-16	1.223766E-17
5.490000E+03	6.239698E-16	1.219400E-17
5.500000E+03	6.217527E-16	1.214508E-17
5.510000E+03	6.192654E-16	1.209103E-17
5.520000E+03	6.164995E-16	1.203170E-17
5.530000E+03	6.134703E-16	1.196739E-17
5.540000E+03	6.101793E-16	1.189813E-17
5.550000E+03	6.066334E-16	1.182405E-17
5.560000E+03	6.028504E-16	1.174552E-17
5.570000E+03	5.988538E-16	1.166299E-17
5.580000E+03	5.946714E-16	1.157701E-17
5.590000E+03	5.903352E-16	1.148819E-17
5.600000E+03	5.858760E-16	1.139715E-17
5.610000E+03	5.813453E-16	1.130487E-17
5.620000E+03	5.767739E-16	1.121196E-17
5.630000E+03	5.722125E-16	1.111940E-17
5.640000E+03	5.677125E-16	1.102818E-17
5.650000E+03	5.633093E-16	1.093900E-17
5.660000E+03	5.590545E-16	1.085284E-17
5.670000E+03	5.549932E-16	1.077058E-17
5.680000E+03	5.511683E-16	1.069304E-17
5.690000E+03	5.476196E-16	1.062099E-17
5.700000E+03	5.443892E-16	1.055524E-17
5.710000E+03	5.414985E-16	1.049620E-17
5.720000E+03	5.389802E-16	1.044448E-17
5.730000E+03	5.368562E-16	1.040051E-17
5.740000E+03	5.351424E-16	1.036459E-17
5.750000E+03	5.338488E-16	1.033691E-17
5.760000E+03	5.329782E-16	1.031751E-17
5.770000E+03	5.325223E-16	1.030622E-17
5.780000E+03	5.324756E-16	1.030293E-17
5.790000E+03	5.328212E-16	1.030731E-17
5.800000E+03	5.335302E-16	1.031880E-17
5.810000E+03	5.345775E-16	1.033690E-17
5.820000E+03	5.359220E-16	1.036082E-17
5.830000E+03	5.375221E-16	1.038974E-17
5.840000E+03	5.393314E-16	1.042278E-17
5.850000E+03	5.412994E-16	1.045895E-17
5.860000E+03	5.433724E-16	1.049722E-17
5.870000E+03	5.454943E-16	1.053649E-17
5.880000E+03	5.476029E-16	1.057558E-17
5.890000E+03	5.496461E-16	1.061347E-17
5.900000E+03	5.515571E-16	1.064887E-17
5.910000E+03	5.532924E-16	1.068096E-17
5.920000E+03	5.547906E-16	1.070853E-17
5.930000E+03	5.560102E-16	1.073081E-17
5.940000E+03	5.569047E-16	1.074689E-17
5.950000E+03	5.574383E-16	1.075608E-17
5.960000E+03	5.575820E-16	1.075783E-17
5.970000E+03	5.573078E-16	1.075159E-17
5.980000E+03	5.566005E-16	1.073709E-17
5.990000E+03	5.554571E-16	1.071425E-17
6.000000E+03	5.538598E-16	1.068274E-17
6.010000E+03	5.518242E-16	1.064287E-17
6.020000E+03	5.493559E-16	1.059473E-17
6.030000E+03	5.464710E-16	1.053865E-17
6.040000E+03	5.431799E-16	1.047481E-17
6.050000E+03	5.395126E-16	1.040381E-17
6.060000E+03	5.354970E-16	1.032617E-17
6.070000E+03	5.311587E-16	1.024239E-17
6.080000E+03	5.265244E-16	1.015298E-17
6.090000E+03	5.216324E-16	1.005869E-17
6.100000E+03	5.165111E-16	9.960043E-18
6.110000E+03	5.111937E-16	9.857693E-18
6.120000E+03	5.057131E-16	9.752267E-18
6.130000E+03	5.001007E-16	9.644368E-18
6.140000E+03	4.943820E-16	9.534486E-18
6.150000E+03	4.885958E-16	9.423365E-18
6.160000E+03	4.827690E-16	9.311523E-18
6.170000E+03	4.769232E-16	9.199367E-18
6.180000E+03	4.710876E-16	9.087460E-18
6.190000E+03	4.652904E-16	8.976345E-18
6.200000E+03	4.595458E-16	8.866287E-18
6.210000E+03	4.538859E-16	8.757907E-18
6.220000E+03	4.483351E-16	8.651672E-18
6.230000E+03	4.429087E-16	8.547873E-18
6.240000E+03	4.376333E-16	8.447023E-18
6.250000E+03	4.325298E-16	8.349521E-18
6.260000E+03	4.276166E-16	8.255726E-18
6.270000E+03	4.229147E-16	8.166036E-18
6.280000E+03	4.184376E-16	8.080714E-18
6.290000E+03	4.141927E-16	7.999901E-18
6.300000E+03	4.102007E-16	7.923999E-18
6.310000E+03	4.064595E-16	7.852966E-18
6.320000E+03	4.029804E-16	7.787019E-18
6.330000E+03	3.997598E-16	7.726090E-18
6.340000E+03	3.968074E-16	7.670370E-18
6.350000E+03	3.941107E-16	7.619615E-18
6.360000E+03	3.916703E-16	7.573839E-18
6.370000E+03	3.894767E-16	7.532859E-18
6.380000E+03	3.875223E-16	7.496530E-18
6.390000E+03	3.857895E-16	7.464514E-18
6.400000E+03	3.842750E-16	7.436747E-18
6.410000E+03	3.829621E-16	7.412909E-18
6.420000E+03	3.818293E-16	7.392581E-18
6.430000E+03	3.808654E-16	7.375555E-18
6.440000E+03	3.800554E-16	7.361534E-18
6.450000E+03	3.793797E-16	7.350144E-18
6.460000E+03	3.788227E-16	7.341084E-18
6.470000E+03	3.783652E-16	7.333980E-18
6.480000E+03	3.779962E-16	7.328623E-18
6.490000E+03	3.776977E-16	7.324664E-18
6.500000E+03	3.774526E-16	7.321768E-18
6.510000E+03	3.772448E-16	7.319627E-18
6.520000E+03	3.770592E-16	7.317946E-18
6.530000E+03	3.768781E-16	7.316383E-18
6.540000E+03	3.766891E-16	7.314696E-18
6.550000E+03	3.764768E-16	7.312585E-18
6.560000E+03	3.762353E-16	7.309935E-18
6.570000E+03	3.759480E-16	7.306423E-18
6.580000E+03	3.756113E-16	7.301977E-18
6.590000E+03	3.752189E-16	7.296474E-18
6.600000E+03	3.747617E-16	7.289735E-18
6.610000E+03	3.742355E-16	7.281676E-18
6.620000E+03	3.736371E-16	7.272236E-18
6.630000E+03	3.729605E-16	7.261294E-18
6.640000E+03	3.722129E-16	7.248991E-18
6.650000E+03	3.713902E-16	7.235241E-18
6.660000E+03	3.704933E-16	7.220065E-18
6.670000E+03	3.695203E-16	7.203422E-18
6.680000E+03	3.684822E-16	7.185523E-18
6.690000E+03	3.673750E-16	7.166292E-18
6.700000E+03	3.662118E-16	7.145979E-18
6.710000E+03	3.649904E-16	7.124544E-18
6.720000E+03	3.637259E-16	7.102276E-18
6.730000E+03	3.624218E-16	7.079244E-18
6.740000E+03	3.610906E-16	7.055693E-18
6.750000E+03	3.597376E-16	7.031723E-18
6.760000E+03	3.583725E-16	7.007524E-18
6.770000E+03	3.570097E-16	6.983376E-18
6.780000E+03	3.556555E-16	6.959405E-18
6.790000E+03	3.543250E-16	6.935903E-18
6.800000E+03	3.530292E-16	6.913089E-18
6.810000E+03	3.517791E-16	6.891175E-18
6.820000E+03	3.505813E-16	6.870295E-18
6.830000E+03	3.494506E-16	6.850739E-18
6.840000E+03	3.483971E-16	6.832705E-18
6.850000E+03	3.474347E-16	6.816469E-18
6.860000E+03	3.465644E-16	6.802052E-18
6.870000E+03	3.457985E-16	6.789698E-18
6.880000E+03	3.451448E-16	6.779561E-18
6.890000E+03	3.446098E-16	6.771774E-18
6.900000E+03	3.441995E-16	6.766455E-18
6.910000E+03	3.439226E-16	6.763780E-18
6.920000E+03	3.437784E-16	6.763739E-18
6.930000E+03	3.437657E-16	6.766311E-18
6.940000E+03	3.438937E-16	6.771680E-18
6.950000E+03	3.441586E-16	6.779775E-18
6.960000E+03	3.445632E-16	6.790655E-18
6.970000E+03	3.450969E-16	6.804118E-18
6.980000E+03	3.457648E-16	6.820265E-18
6.990000E+03	3.465536E-16	6.838838E-18
7.000000E+03	3.474661E-16	6.859895E-18
7.010000E+03	3.484953E-16	6.883305E-18
7.020000E+03	3.496254E-16	6.908754E-18
7.030000E+03	3.508559E-16	6.936242E-18
7.040000E+03	3.521691E-16	6.965419E-18
7.050000E+03	3.535636E-16	6.996259E-18
7.060000E+03	3.550245E-16	7.028472E-18
7.070000E+03	3.565409E-16	7.061844E-18
7.080000E+03	3.581015E-16	7.096155E-18
7.090000E+03	3.596993E-16	7.131267E-18
7.100000E+03	3.613139E-16	7.166777E-18
7.110000E+03	3.629425E-16	7.202631E-18
7.120000E+03	3.645647E-16	7.238426E-18
7.130000E+03	3.661782E-16	7.274116E-18
7.140000E+03	3.677671E-16	7.309388E-18
7.150000E+03	3.693205E-16	7.344024E-18
7.160000E+03	3.708276E-16	7.377808E-18
7.170000E+03	3.722778E-16	7.410531E-18
7.180000E+03	3.736611E-16	7.441991E-18
7.190000E+03	3.749671E-16	7.471980E-18
7.200000E+03	3.761909E-16	7.500401E-18
7.210000E+03	3.773135E-16	7.526871E-18
7.220000E+03	3.783350E-16	7.551391E-18
7.230000E+03	3.792367E-16	7.573585E-18
7.240000E+03	3.800195E-16	7.593466E-18
7.250000E+03	3.806697E-16	7.610761E-18
7.260000E+03	3.811794E-16	7.625303E-18
7.270000E+03	3.815402E-16	7.636927E-18
7.280000E+03	3.817498E-16	7.645576E-18
7.290000E+03	3.817915E-16	7.650914E-18
7.300000E+03	3.816686E-16	7.653001E-18
7.310000E+03	3.813706E-16	7.651620E-18
7.320000E+03	3.808927E-16	7.646674E-18
7.330000E+03	3.802363E-16	7.638178E-18
7.340000E+03	3.793934E-16	7.625971E-18
7.350000E+03	3.783627E-16	7.610017E-18
7.360000E+03	3.771437E-16	7.590300E-18
7.370000E+03	3.757424E-16	7.566935E-18
7.380000E+03	3.741512E-16	7.539759E-18
7.390000E+03	3.723836E-16	7.509040E-18
7.400000E+03	3.704444E-16	7.474866E-18
7.410000E+03	3.683299E-16	7.437156E-18
7.420000E+03	3.660521E-16	7.396145E-18
7.430000E+03	3.636193E-16	7.351996E-18
7.440000E+03	3.610451E-16	7.304973E-18
7.450000E+03	3.583295E-16	7.255074E-18
7.460000E+03	3.554875E-16	7.202594E-18
7.470000E+03	3.525295E-16	7.147736E-18
7.480000E+03	3.494658E-16	7.090709E-18
7.490000E+03	3.463070E-16	7.031718E-18
7.500000E+03	3.430634E-16	6.970969E-18
7.510000E+03	3.397450E-16	6.908660E-18
7.520000E+03	3.363615E-16	6.844985E-18
7.530000E+03	3.329177E-16	6.780036E-18
7.540000E+03	3.294310E-16	6.714164E-18
7.550000E+03	3.259007E-16	6.647350E-18
7.560000E+03	3.223387E-16	6.579832E-18
7.570000E+03	3.187520E-16	6.511748E-18
7.580000E+03	3.151427E-16	6.443138E-18
7.590000E+03	3.115167E-16	6.374118E-18
7.600000E+03	3.078875E-16	6.304963E-18
7.610000E+03	3.042519E-16	6.235601E-18
7.620000E+03	3.006143E-16	6.166123E-18
7.630000E+03	2.969791E-16	6.096616E-18
7.640000E+03	2.933543E-16	6.027240E-18
7.650000E+03	2.897440E-16	5.958081E-18
7.660000E+03	2.861450E-16	5.889067E-18
7.670000E+03	2.825694E-16	5.820451E-18
7.680000E+03	2.790178E-16	5.752238E-18
7.690000E+03	2.754938E-16	5.684507E-18
7.700000E+03	2.720050E-16	5.617412E-18
7.710000E+03	2.685509E-16	5.550942E-18
7.720000E+03	2.651347E-16	5.485164E-18
7.730000E+03	2.617591E-16	5.420133E-18
7.740000E+03	2.584300E-16	5.355973E-18
7.750000E+03	2.551462E-16	5.292659E-18
7.760000E+03	2.519095E-16	5.230229E-18
