#wls	flux	fluxerr
1.600000E+03	1.808104E-16	6.145892E-18
1.640000E+03	1.833994E-16	6.218307E-18
1.680000E+03	1.859941E-16	6.290071E-18
1.720000E+03	1.885881E-16	6.360942E-18
1.760000E+03	1.912494E-16	6.433177E-18
1.800000E+03	1.939359E-16	6.505320E-18
1.840000E+03	1.966797E-16	6.578411E-18
1.880000E+03	1.994362E-16	6.650917E-18
1.920000E+03	2.022371E-16	6.723860E-18
1.960000E+03	2.050752E-16	6.796955E-18
2.000000E+03	2.079827E-16	6.871230E-18
2.040000E+03	2.109521E-16	6.946376E-18
2.080000E+03	2.139749E-16	7.022062E-18
2.120000E+03	2.170413E-16	7.097920E-18
2.160000E+03	2.201406E-16	7.173551E-18
2.200000E+03	2.233447E-16	7.251236E-18
2.240000E+03	2.265577E-16	7.327807E-18
2.280000E+03	2.298077E-16	7.404122E-18
2.320000E+03	2.331222E-16	7.481012E-18
2.360000E+03	2.364424E-16	7.556536E-18
2.400000E+03	2.397503E-16	7.630078E-18
2.440000E+03	2.430698E-16	7.702357E-18
2.480000E+03	2.463374E-16	7.771326E-18
2.520000E+03	2.495741E-16	7.837625E-18
2.560000E+03	2.527568E-16	7.900508E-18
2.600000E+03	2.558187E-16	7.957874E-18
2.640000E+03	2.588198E-16	8.011598E-18
2.680000E+03	2.617332E-16	8.060845E-18
2.720000E+03	2.644896E-16	8.103488E-18
2.760000E+03	2.671031E-16	8.139996E-18
2.800000E+03	2.695862E-16	8.170787E-18
2.840000E+03	2.719088E-16	8.194981E-18
2.880000E+03	2.741212E-16	8.214138E-18
2.920000E+03	2.761899E-16	8.227289E-18
2.960000E+03	2.781984E-16	8.236951E-18
3.000000E+03	2.801076E-16	8.241982E-18
3.010000E+03	2.806016E-16	8.243468E-18
3.020000E+03	2.810553E-16	8.243662E-18
3.030000E+03	2.815438E-16	8.244770E-18
3.040000E+03	2.820283E-16	8.245656E-18
3.050000E+03	2.825083E-16	8.246298E-18
3.060000E+03	2.829828E-16	8.246674E-18
3.070000E+03	2.834881E-16	8.247836E-18
3.080000E+03	2.839863E-16	8.248682E-18
3.090000E+03	2.844765E-16	8.249186E-18
3.100000E+03	2.849582E-16	8.249332E-18
3.110000E+03	2.855026E-16	8.251180E-18
3.120000E+03	2.860003E-16	8.251566E-18
3.130000E+03	2.865581E-16	8.253569E-18
3.140000E+03	2.870678E-16	8.254070E-18
3.150000E+03	2.876348E-16	8.256103E-18
3.160000E+03	2.881874E-16	8.257601E-18
3.170000E+03	2.887942E-16	8.260530E-18
3.180000E+03	2.893841E-16	8.262853E-18
3.190000E+03	2.899908E-16	8.265531E-18
3.200000E+03	2.906129E-16	8.268522E-18
3.210000E+03	2.912828E-16	8.272743E-18
3.220000E+03	2.919314E-16	8.276226E-18
3.230000E+03	2.926247E-16	8.280842E-18
3.240000E+03	2.933604E-16	8.286522E-18
3.250000E+03	2.941038E-16	8.292277E-18
3.260000E+03	2.948534E-16	8.298063E-18
3.270000E+03	2.956402E-16	8.304754E-18
3.280000E+03	2.964623E-16	8.312286E-18
3.290000E+03	2.972856E-16	8.319698E-18
3.300000E+03	2.981719E-16	8.328720E-18
3.310000E+03	2.990872E-16	8.338391E-18
3.320000E+03	2.999982E-16	8.347778E-18
3.330000E+03	3.009962E-16	8.359419E-18
3.340000E+03	3.019858E-16	8.370654E-18
3.350000E+03	3.030264E-16	8.383127E-18
3.360000E+03	3.040851E-16	8.395922E-18
3.370000E+03	3.052195E-16	8.410622E-18
3.380000E+03	3.063668E-16	8.425489E-18
3.390000E+03	3.075546E-16	8.441274E-18
3.400000E+03	3.087799E-16	8.457890E-18
3.410000E+03	3.100399E-16	8.475253E-18
3.420000E+03	3.113605E-16	8.494064E-18
3.430000E+03	3.127099E-16	8.513447E-18
3.440000E+03	3.141136E-16	8.534085E-18
3.450000E+03	3.155677E-16	8.555869E-18
3.460000E+03	3.170416E-16	8.577958E-18
3.470000E+03	3.185870E-16	8.601746E-18
3.480000E+03	3.201728E-16	8.626378E-18
3.490000E+03	3.217957E-16	8.651762E-18
3.500000E+03	3.234522E-16	8.677797E-18
3.510000E+03	3.251653E-16	8.705089E-18
3.520000E+03	3.269310E-16	8.733522E-18
3.530000E+03	3.287451E-16	8.762975E-18
3.540000E+03	3.306037E-16	8.793337E-18
3.550000E+03	3.325280E-16	8.825160E-18
3.560000E+03	3.344637E-16	8.856992E-18
3.570000E+03	3.364569E-16	8.890050E-18
3.580000E+03	3.385028E-16	8.924199E-18
3.590000E+03	3.405972E-16	8.959315E-18
3.600000E+03	3.427354E-16	8.995267E-18
3.610000E+03	3.449131E-16	9.031933E-18
3.620000E+03	3.471492E-16	9.069799E-18
3.630000E+03	3.494157E-16	9.108126E-18
3.640000E+03	3.517310E-16	9.147383E-18
3.650000E+03	3.540903E-16	9.187440E-18
3.660000E+03	3.564666E-16	9.227584E-18
3.670000E+03	3.588996E-16	9.268842E-18
3.680000E+03	3.613841E-16	9.311064E-18
3.690000E+03	3.638718E-16	9.353003E-18
3.700000E+03	3.664224E-16	9.396186E-18
3.710000E+03	3.689881E-16	9.439377E-18
3.720000E+03	3.716059E-16	9.483521E-18
3.730000E+03	3.742295E-16	9.527425E-18
3.740000E+03	3.768947E-16	9.571997E-18
3.750000E+03	3.795762E-16	9.616591E-18
3.760000E+03	3.822891E-16	9.661581E-18
3.770000E+03	3.850279E-16	9.706823E-18
3.780000E+03	3.877683E-16	9.751704E-18
3.790000E+03	3.905437E-16	9.797055E-18
3.800000E+03	3.933112E-16	9.841802E-18
3.810000E+03	3.961034E-16	9.886754E-18
3.820000E+03	3.988967E-16	9.931323E-18
3.830000E+03	4.017043E-16	9.975835E-18
3.840000E+03	4.045211E-16	1.002016E-17
3.850000E+03	4.073246E-16	1.006374E-17
3.860000E+03	4.101279E-16	1.010690E-17
3.870000E+03	4.129259E-16	1.014952E-17
3.880000E+03	4.156976E-16	1.019108E-17
3.890000E+03	4.184719E-16	1.023229E-17
3.900000E+03	4.212275E-16	1.027264E-17
3.910000E+03	4.239764E-16	1.031241E-17
3.920000E+03	4.266822E-16	1.035074E-17
3.930000E+03	4.293727E-16	1.038829E-17
3.940000E+03	4.320283E-16	1.042460E-17
3.950000E+03	4.346453E-16	1.045960E-17
3.960000E+03	4.372353E-16	1.049355E-17
3.970000E+03	4.397797E-16	1.052604E-17
3.980000E+03	4.422753E-16	1.055698E-17
3.990000E+03	4.447336E-16	1.058666E-17
4.000000E+03	4.471228E-16	1.061434E-17
4.010000E+03	4.494691E-16	1.064066E-17
4.020000E+03	1.149117E-15	2.712876E-17
4.029200E+03	9.414938E-16	2.217035E-17
4.047600E+03	7.421572E-16	1.738670E-17
4.056800E+03	5.925879E-16	1.384686E-17
4.066000E+03	5.353426E-16	1.247680E-17
4.075200E+03	4.821961E-16	1.120893E-17
4.084400E+03	4.622280E-16	1.071673E-17
4.093600E+03	5.189011E-16	1.199919E-17
4.102800E+03	6.179756E-16	1.425267E-17
4.112000E+03	7.389725E-16	1.699836E-17
4.121200E+03	8.825776E-16	2.024798E-17
4.130400E+03	9.672222E-16	2.213103E-17
4.139600E+03	9.614865E-16	2.194126E-17
4.148800E+03	8.340632E-16	1.898264E-17
4.158000E+03	7.524075E-16	1.707838E-17
4.167200E+03	6.304657E-16	1.427209E-17
4.176400E+03	5.288740E-16	1.194008E-17
4.185600E+03	4.442116E-16	1.000163E-17
4.194800E+03	4.336470E-16	9.737333E-18
4.204000E+03	3.942582E-16	8.828844E-18
4.213200E+03	3.382914E-16	7.554929E-18
4.222400E+03	3.270063E-16	7.282978E-18
4.231600E+03	4.197934E-16	9.323928E-18
4.240800E+03	4.193408E-16	9.288336E-18
4.250000E+03	4.362524E-16	9.636370E-18
4.259200E+03	4.667974E-16	1.028268E-17
4.268400E+03	5.354104E-16	1.176154E-17
4.277600E+03	4.925642E-16	1.079039E-17
4.286800E+03	4.277852E-16	9.345329E-18
4.296000E+03	3.946492E-16	8.597503E-18
4.305200E+03	3.561093E-16	7.736318E-18
4.314400E+03	3.458413E-16	7.492311E-18
4.323600E+03	3.651545E-16	7.888627E-18
4.332800E+03	3.938943E-16	8.485715E-18
4.342000E+03	4.289146E-16	9.214284E-18
4.351200E+03	4.044920E-16	8.665250E-18
4.360400E+03	3.833310E-16	8.188868E-18
4.369600E+03	3.874954E-16	8.254558E-18
4.378800E+03	3.666050E-16	7.787564E-18
4.388000E+03	3.351608E-16	7.099556E-18
4.397200E+03	3.278340E-16	6.924773E-18
4.406400E+03	3.219450E-16	6.781191E-18
4.415600E+03	2.443178E-16	5.131581E-18
4.434000E+03	2.408187E-16	5.029536E-18
4.443200E+03	2.470039E-16	5.144125E-18
4.452400E+03	2.631726E-16	5.465349E-18
4.461600E+03	2.840731E-16	5.882697E-18
4.470800E+03	3.465199E-16	7.155556E-18
4.480000E+03	4.054166E-16	8.348058E-18
4.489200E+03	3.879262E-16	7.965292E-18
4.498400E+03	3.740240E-16	7.658092E-18
4.507600E+03	3.879311E-16	7.920352E-18
4.516800E+03	4.205682E-16	8.562393E-18
4.526000E+03	4.545114E-16	9.227261E-18
4.535200E+03	4.963163E-16	1.004746E-17
4.544400E+03	5.464537E-16	1.103116E-17
4.553600E+03	5.700376E-16	1.147472E-17
4.562800E+03	5.669820E-16	1.138097E-17
4.572000E+03	5.720363E-16	1.145001E-17
4.581200E+03	6.113506E-16	1.220242E-17
4.590400E+03	6.028955E-16	1.199975E-17
4.599600E+03	5.923101E-16	1.175588E-17
4.608800E+03	6.094548E-16	1.206215E-17
4.618000E+03	6.273396E-16	1.238126E-17
4.627200E+03	5.718468E-16	1.125439E-17
4.636400E+03	5.590801E-16	1.097232E-17
4.645600E+03	5.300117E-16	1.037276E-17
4.654800E+03	4.959575E-16	9.679205E-18
4.664000E+03	4.564544E-16	8.883443E-18
4.673200E+03	4.680991E-16	9.084747E-18
4.682400E+03	4.710061E-16	9.115812E-18
4.691600E+03	4.258064E-16	8.218217E-18
4.700800E+03	3.329816E-16	6.408926E-18
4.710000E+03	2.999979E-16	5.758190E-18
4.719200E+03	3.036666E-16	5.812606E-18
4.728400E+03	3.352240E-16	6.399098E-18
4.737600E+03	4.036676E-16	7.684593E-18
4.746800E+03	4.691774E-16	8.907411E-18
4.756000E+03	5.335791E-16	1.010264E-17
4.765200E+03	6.005957E-16	1.134081E-17
4.774400E+03	6.437293E-16	1.212260E-17
4.783600E+03	6.830571E-16	1.282876E-17
4.792800E+03	7.097346E-16	1.329425E-17
4.802000E+03	7.254062E-16	1.355173E-17
4.811200E+03	7.132295E-16	1.328905E-17
4.820400E+03	6.850354E-16	1.273018E-17
4.829600E+03	6.345832E-16	1.176177E-17
4.838800E+03	5.790741E-16	1.070502E-17
4.848000E+03	5.180172E-16	9.551528E-18
4.857200E+03	4.528768E-16	8.328965E-18
4.866400E+03	4.098818E-16	7.518976E-18
4.875600E+03	3.949205E-16	7.226138E-18
4.884800E+03	4.022717E-16	7.342096E-18
4.894000E+03	3.813048E-16	6.942001E-18
4.903200E+03	3.220983E-16	5.849526E-18
4.912400E+03	3.061201E-16	5.545649E-18
4.921600E+03	2.991563E-16	5.406243E-18
4.930800E+03	3.145373E-16	5.670423E-18
4.940000E+03	3.301539E-16	5.937651E-18
4.949200E+03	3.466607E-16	6.219666E-18
4.958400E+03	3.876796E-16	6.939192E-18
4.967600E+03	4.297268E-16	7.673819E-18
4.976800E+03	4.576597E-16	8.153700E-18
4.986000E+03	4.931146E-16	8.765216E-18
4.995200E+03	5.455967E-16	9.676076E-18
5.004400E+03	6.100506E-16	1.079484E-17
5.013600E+03	6.663852E-16	1.176547E-17
5.022800E+03	7.198455E-16	1.268139E-17
5.032000E+03	7.594538E-16	1.335007E-17
5.041200E+03	7.829366E-16	1.373328E-17
5.050400E+03	8.160926E-16	1.428445E-17
5.059600E+03	8.331263E-16	1.455200E-17
5.068800E+03	8.230095E-16	1.434550E-17
5.078000E+03	8.058045E-16	1.401688E-17
5.087200E+03	7.732040E-16	1.342265E-17
5.096400E+03	7.257124E-16	1.257312E-17
5.105600E+03	6.718546E-16	1.161718E-17
5.114800E+03	6.252783E-16	1.079090E-17
5.124000E+03	5.994312E-16	1.032513E-17
5.133200E+03	5.872616E-16	1.009653E-17
5.142400E+03	5.688395E-16	9.761749E-18
5.151600E+03	5.662193E-16	9.699139E-18
5.160800E+03	5.896568E-16	1.008258E-17
5.170000E+03	6.168477E-16	1.052903E-17
5.179200E+03	6.300109E-16	1.073519E-17
5.188400E+03	6.434937E-16	1.094641E-17
5.197600E+03	6.526197E-16	1.108325E-17
5.206800E+03	6.596549E-16	1.118455E-17
5.216000E+03	6.780605E-16	1.147834E-17
5.225200E+03	6.798594E-16	1.149089E-17
5.234400E+03	6.821801E-16	1.151259E-17
5.243600E+03	6.792077E-16	1.144541E-17
5.252800E+03	6.878704E-16	1.157459E-17
5.262000E+03	6.903940E-16	1.160065E-17
5.271200E+03	6.832128E-16	1.146419E-17
5.280400E+03	6.907199E-16	1.157466E-17
5.289600E+03	6.958975E-16	1.164627E-17
5.298800E+03	7.058027E-16	1.179715E-17
5.308000E+03	7.048826E-16	1.176738E-17
5.317200E+03	7.091548E-16	1.182472E-17
5.326400E+03	7.287279E-16	1.213722E-17
5.335600E+03	7.461755E-16	1.241414E-17
5.344800E+03	7.426770E-16	1.234286E-17
5.354000E+03	7.511385E-16	1.247080E-17
5.363200E+03	7.551504E-16	1.252519E-17
5.372400E+03	7.692370E-16	1.274696E-17
5.381600E+03	7.721794E-16	1.278437E-17
5.390800E+03	7.764534E-16	1.284430E-17
5.400000E+03	7.845042E-16	1.296713E-17
5.409200E+03	7.932988E-16	1.310263E-17
5.418400E+03	8.061836E-16	1.330602E-17
5.427600E+03	7.994794E-16	1.318663E-17
5.436800E+03	8.072059E-16	1.330584E-17
5.446000E+03	8.080132E-16	1.331152E-17
5.455200E+03	7.873108E-16	1.296360E-17
5.464400E+03	7.793544E-16	1.282636E-17
5.473600E+03	7.556195E-16	1.243025E-17
5.482800E+03	7.344037E-16	1.207643E-17
5.492000E+03	7.200927E-16	1.183690E-17
5.501200E+03	7.294985E-16	1.198777E-17
5.510400E+03	7.479479E-16	1.228763E-17
5.519600E+03	7.703893E-16	1.265344E-17
5.528800E+03	8.105152E-16	1.331003E-17
5.538000E+03	8.531882E-16	1.400878E-17
5.547200E+03	8.953347E-16	1.469929E-17
5.556400E+03	9.329060E-16	1.531519E-17
5.565600E+03	9.453154E-16	1.551860E-17
5.574800E+03	9.508701E-16	1.561011E-17
5.584000E+03	9.424943E-16	1.547354E-17
5.593200E+03	9.122789E-16	1.497899E-17
5.602400E+03	8.818585E-16	1.448154E-17
5.611600E+03	8.412695E-16	1.381749E-17
5.620800E+03	7.919446E-16	1.301020E-17
5.630000E+03	7.380550E-16	1.212802E-17
5.639200E+03	6.978916E-16	1.147144E-17
5.648400E+03	6.635023E-16	1.090982E-17
5.657600E+03	6.324707E-16	1.040345E-17
5.666800E+03	6.119156E-16	1.006948E-17
5.676000E+03	5.746822E-16	9.461020E-18
5.685200E+03	5.388145E-16	8.874835E-18
5.694400E+03	4.975282E-16	8.199089E-18
5.703600E+03	4.612507E-16	7.605499E-18
5.712800E+03	4.178237E-16	6.893543E-18
5.722000E+03	3.635483E-16	6.001861E-18
5.731200E+03	3.167619E-16	5.232953E-18
5.740400E+03	2.770661E-16	4.580394E-18
5.749600E+03	2.489786E-16	4.119100E-18
5.758800E+03	2.161771E-16	3.579204E-18
5.768000E+03	2.039834E-16	3.380050E-18
5.777200E+03	2.068449E-16	3.430361E-18
5.786400E+03	2.217029E-16	3.680003E-18
5.795600E+03	2.507931E-16	4.166669E-18
5.804800E+03	2.976031E-16	4.949055E-18
5.814000E+03	3.557986E-16	5.922640E-18
5.823200E+03	4.155378E-16	6.924087E-18
5.832400E+03	4.792466E-16	7.994046E-18
5.841600E+03	5.485017E-16	9.159159E-18
5.850800E+03	6.079674E-16	1.016348E-17
5.860000E+03	6.722235E-16	1.125057E-17
5.869200E+03	7.186717E-16	1.204216E-17
5.878400E+03	7.613430E-16	1.277267E-17
5.887600E+03	7.956053E-16	1.336412E-17
5.896800E+03	8.303792E-16	1.396608E-17
5.906000E+03	8.500359E-16	1.431544E-17
5.915200E+03	8.620913E-16	1.453798E-17
5.924400E+03	8.650792E-16	1.460844E-17
5.933600E+03	8.730463E-16	1.476374E-17
5.942800E+03	8.704608E-16	1.474120E-17
5.952000E+03	8.650661E-16	1.467139E-17
5.961200E+03	8.467757E-16	1.438277E-17
5.970400E+03	8.362897E-16	1.422644E-17
5.979600E+03	8.153553E-16	1.389202E-17
5.988800E+03	7.809354E-16	1.332680E-17
5.998000E+03	7.551398E-16	1.290756E-17
6.007200E+03	7.280284E-16	1.246476E-17
6.016400E+03	7.029486E-16	1.205568E-17
6.025600E+03	6.732679E-16	1.156649E-17
6.034800E+03	6.531008E-16	1.123964E-17
6.044000E+03	6.307603E-16	1.087448E-17
6.053200E+03	6.123075E-16	1.057544E-17
6.062400E+03	6.024690E-16	1.042465E-17
6.071600E+03	5.841760E-16	1.012701E-17
6.080800E+03	5.686913E-16	9.877289E-18
6.090000E+03	5.496764E-16	9.565438E-18
6.099200E+03	5.445931E-16	9.495531E-18
6.108400E+03	5.323150E-16	9.299893E-18
6.117600E+03	5.244337E-16	9.180675E-18
6.126800E+03	5.212257E-16	9.143181E-18
6.136000E+03	5.186352E-16	9.116615E-18
6.145200E+03	5.104740E-16	8.992028E-18
6.154400E+03	5.082905E-16	8.972647E-18
6.163600E+03	5.073905E-16	8.976086E-18
6.172800E+03	5.044491E-16	8.943541E-18
6.182000E+03	5.052032E-16	8.976699E-18
6.191200E+03	5.004161E-16	8.911501E-18
6.200400E+03	4.978732E-16	8.886232E-18
6.209600E+03	4.926936E-16	8.813836E-18
6.218800E+03	4.916770E-16	8.815899E-18
6.228000E+03	4.884139E-16	8.777738E-18
6.237200E+03	4.899011E-16	8.825104E-18
6.246400E+03	4.876529E-16	8.805368E-18
6.255600E+03	4.873203E-16	8.820328E-18
6.264800E+03	4.733449E-16	8.587947E-18
6.274000E+03	4.534383E-16	8.246674E-18
6.283200E+03	4.259941E-16	7.766411E-18
6.292400E+03	3.898196E-16	7.124324E-18
6.301600E+03	3.488730E-16	6.391712E-18
6.310800E+03	2.987655E-16	5.487272E-18
6.320000E+03	2.515176E-16	4.631020E-18
6.329200E+03	2.147188E-16	3.963384E-18
6.338400E+03	1.897085E-16	3.510560E-18
6.347600E+03	1.748915E-16	3.244568E-18
6.356800E+03	1.699900E-16	3.161659E-18
6.366000E+03	1.766504E-16	3.293932E-18
6.375200E+03	1.959720E-16	3.663589E-18
6.384400E+03	2.276211E-16	4.266205E-18
6.393600E+03	2.649725E-16	4.979098E-18
6.402800E+03	3.018171E-16	5.686145E-18
6.412000E+03	3.365755E-16	6.357468E-18
6.421200E+03	3.755486E-16	7.112111E-18
6.430400E+03	4.084533E-16	7.755476E-18
6.439600E+03	4.395672E-16	8.368116E-18
6.448800E+03	4.694176E-16	8.959845E-18
6.458000E+03	4.926324E-16	9.427686E-18
6.467200E+03	5.101703E-16	9.789046E-18
6.476400E+03	5.316501E-16	1.022812E-17
6.485600E+03	5.509726E-16	1.062788E-17
6.494800E+03	5.654662E-16	1.093632E-17
6.504000E+03	5.739970E-16	1.113072E-17
6.513200E+03	5.677418E-16	1.103862E-17
6.522400E+03	5.516065E-16	1.075336E-17
6.531600E+03	5.292552E-16	1.034503E-17
6.540800E+03	5.037704E-16	9.873054E-18
6.550000E+03	4.681410E-16	9.199159E-18
6.559200E+03	4.299622E-16	8.471384E-18
6.568400E+03	3.929584E-16	7.762891E-18
6.577600E+03	3.667250E-16	7.263903E-18
6.586800E+03	3.433602E-16	6.819174E-18
6.596000E+03	3.355982E-16	6.682722E-18
6.605200E+03	3.335729E-16	6.660026E-18
6.614400E+03	3.457237E-16	6.920937E-18
6.623600E+03	3.735950E-16	7.498710E-18
6.632800E+03	4.025701E-16	8.101694E-18
6.642000E+03	4.367334E-16	8.812484E-18
6.651200E+03	4.701473E-16	9.511791E-18
6.660400E+03	4.982223E-16	1.010640E-17
6.669600E+03	5.212150E-16	1.060069E-17
6.678800E+03	5.340446E-16	1.089022E-17
6.688000E+03	5.380532E-16	1.100082E-17
6.697200E+03	5.351055E-16	1.096927E-17
6.706400E+03	5.318616E-16	1.093135E-17
6.715600E+03	5.200125E-16	1.071578E-17
6.724800E+03	5.048506E-16	1.043051E-17
6.734000E+03	4.944092E-16	1.024141E-17
6.743200E+03	4.815628E-16	1.000126E-17
6.752400E+03	4.698952E-16	9.784281E-18
6.761600E+03	4.618692E-16	9.642077E-18
6.770800E+03	4.489451E-16	9.396500E-18
6.780000E+03	4.390813E-16	9.213751E-18
6.789200E+03	4.324151E-16	9.097216E-18
6.798400E+03	4.260178E-16	8.985636E-18
6.807600E+03	4.096543E-16	8.662619E-18
6.816800E+03	3.958796E-16	8.392720E-18
6.826000E+03	3.825635E-16	8.131080E-18
6.835200E+03	3.652784E-16	7.783425E-18
6.844400E+03	3.507283E-16	7.492328E-18
6.853600E+03	3.378029E-16	7.234450E-18
6.862800E+03	3.227860E-16	6.930268E-18
6.872000E+03	3.086919E-16	6.644318E-18
6.881200E+03	2.955297E-16	6.376953E-18
6.890400E+03	2.877326E-16	6.224219E-18
6.899600E+03	2.777382E-16	6.022987E-18
6.908800E+03	2.704044E-16	5.878511E-18
6.918000E+03	2.559253E-16	5.577513E-18
6.927200E+03	2.409802E-16	5.264769E-18
6.936400E+03	2.246248E-16	4.919523E-18
6.945600E+03	2.095926E-16	4.601560E-18
6.954800E+03	2.027582E-16	4.462396E-18
6.964000E+03	2.019522E-16	4.455487E-18
6.973200E+03	2.014530E-16	4.455271E-18
6.982400E+03	2.125620E-16	4.712334E-18
6.991600E+03	2.366186E-16	5.258308E-18
7.000800E+03	2.668001E-16	5.943282E-18
7.010000E+03	2.989696E-16	6.675859E-18
7.019200E+03	3.381941E-16	7.569763E-18
7.028400E+03	3.796008E-16	8.516791E-18
7.037600E+03	4.212144E-16	9.472862E-18
7.046800E+03	4.563233E-16	1.028670E-17
7.056000E+03	4.838214E-16	1.093228E-17
7.065200E+03	5.016061E-16	1.136075E-17
7.074400E+03	5.096383E-16	1.156967E-17
7.083600E+03	5.113213E-16	1.163494E-17
7.092800E+03	5.137664E-16	1.171774E-17
7.102000E+03	5.089018E-16	1.163366E-17
7.111200E+03	5.041169E-16	1.155086E-17
7.120400E+03	4.994112E-16	1.146934E-17
7.129600E+03	4.971944E-16	1.144458E-17
7.138800E+03	4.915908E-16	1.134142E-17
7.148000E+03	4.816717E-16	1.113785E-17
7.157200E+03	4.720391E-16	1.093985E-17
7.166400E+03	4.693020E-16	1.090098E-17
7.175600E+03	4.578671E-16	1.065929E-17
7.184800E+03	4.427589E-16	1.033068E-17
7.194000E+03	4.271017E-16	9.987616E-18
7.203200E+03	4.135371E-16	9.691936E-18
7.212400E+03	3.957808E-16	9.296361E-18
7.221600E+03	3.824405E-16	9.002867E-18
7.230800E+03	3.780450E-16	8.918994E-18
7.240000E+03	3.766710E-16	8.906077E-18
7.249200E+03	3.759871E-16	8.909345E-18
7.258400E+03	3.848751E-16	9.139823E-18
7.267600E+03	3.965465E-16	9.437435E-18
7.276800E+03	4.097042E-16	9.771670E-18
7.286000E+03	4.171436E-16	9.970553E-18
7.295200E+03	4.286190E-16	1.026685E-17
7.304400E+03	4.394383E-16	1.054854E-17
7.313600E+03	4.508568E-16	1.084573E-17
7.322800E+03	4.610922E-16	1.111552E-17
7.332000E+03	4.743973E-16	1.146050E-17
7.341200E+03	4.883634E-16	1.182280E-17
7.350400E+03	4.948420E-16	1.200485E-17
7.359600E+03	5.006374E-16	1.217092E-17
7.368800E+03	5.140674E-16	1.252353E-17
7.378000E+03	5.150125E-16	1.257269E-17
7.387200E+03	5.088773E-16	1.244870E-17
7.396400E+03	5.027326E-16	1.232383E-17
7.405600E+03	4.931236E-16	1.211321E-17
7.414800E+03	4.749476E-16	1.169071E-17
7.424000E+03	4.541092E-16	1.120068E-17
7.433200E+03	4.381563E-16	1.082926E-17
7.442400E+03	4.188525E-16	1.037323E-17
7.451600E+03	3.994671E-16	9.913213E-18
7.460800E+03	3.895222E-16	9.685971E-18
7.470000E+03	3.801076E-16	9.470924E-18
7.479200E+03	3.748205E-16	9.357960E-18
