#wls	flux	fluxerr
1.600000E+03	1.403322E-16	3.685507E-18
1.640000E+03	1.429989E-16	3.755310E-18
1.680000E+03	1.456906E-16	3.825757E-18
1.720000E+03	1.484302E-16	3.897445E-18
1.760000E+03	1.512414E-16	3.970997E-18
1.800000E+03	1.540636E-16	4.044824E-18
1.840000E+03	1.569771E-16	4.121030E-18
1.880000E+03	1.599196E-16	4.197980E-18
1.920000E+03	1.628841E-16	4.275488E-18
1.960000E+03	1.659237E-16	4.354947E-18
2.000000E+03	1.690322E-16	4.436200E-18
2.040000E+03	1.721410E-16	4.517436E-18
2.080000E+03	1.753339E-16	4.600859E-18
2.120000E+03	1.785713E-16	4.685431E-18
2.160000E+03	1.818435E-16	4.770890E-18
2.200000E+03	1.851716E-16	4.857792E-18
2.240000E+03	1.885441E-16	4.945836E-18
2.280000E+03	1.919482E-16	5.034683E-18
2.320000E+03	1.954029E-16	5.124833E-18
2.360000E+03	1.989263E-16	5.216759E-18
2.400000E+03	2.024694E-16	5.309171E-18
2.440000E+03	2.060806E-16	5.403342E-18
2.480000E+03	2.097074E-16	5.497892E-18
2.520000E+03	2.133956E-16	5.594023E-18
2.560000E+03	2.171222E-16	5.691129E-18
2.600000E+03	2.209291E-16	5.790308E-18
2.640000E+03	2.247556E-16	5.889967E-18
2.680000E+03	2.286386E-16	5.991073E-18
2.720000E+03	2.325785E-16	6.093635E-18
2.760000E+03	2.365727E-16	6.197583E-18
2.800000E+03	2.406471E-16	6.303597E-18
2.840000E+03	2.447594E-16	6.410565E-18
2.880000E+03	2.489591E-16	6.519782E-18
2.920000E+03	2.532263E-16	6.630726E-18
2.960000E+03	2.575985E-16	6.744379E-18
3.000000E+03	2.620445E-16	6.859920E-18
3.010000E+03	2.631599E-16	6.888902E-18
3.020000E+03	2.642898E-16	6.918259E-18
3.030000E+03	2.654329E-16	6.947959E-18
3.040000E+03	2.665879E-16	6.977969E-18
3.050000E+03	2.677240E-16	7.007482E-18
3.060000E+03	2.688699E-16	7.037247E-18
3.070000E+03	2.700534E-16	7.067993E-18
3.080000E+03	2.712146E-16	7.098153E-18
3.090000E+03	2.724105E-16	7.129217E-18
3.100000E+03	2.735818E-16	7.159638E-18
3.110000E+03	2.747848E-16	7.190882E-18
3.120000E+03	2.759610E-16	7.221423E-18
3.130000E+03	2.771660E-16	7.252713E-18
3.140000E+03	2.783977E-16	7.284700E-18
3.150000E+03	2.796267E-16	7.316615E-18
3.160000E+03	2.808516E-16	7.348417E-18
3.170000E+03	2.820711E-16	7.380076E-18
3.180000E+03	2.833111E-16	7.412267E-18
3.190000E+03	2.845698E-16	7.444946E-18
3.200000E+03	2.858454E-16	7.478062E-18
3.210000E+03	2.871091E-16	7.510866E-18
3.220000E+03	2.883865E-16	7.544021E-18
3.230000E+03	2.896754E-16	7.577477E-18
3.240000E+03	2.909479E-16	7.610501E-18
3.250000E+03	2.922548E-16	7.644420E-18
3.260000E+03	2.935677E-16	7.678494E-18
3.270000E+03	2.948851E-16	7.712681E-18
3.280000E+03	2.962048E-16	7.746926E-18
3.290000E+03	2.975504E-16	7.781844E-18
3.300000E+03	2.988945E-16	7.816719E-18
3.310000E+03	3.002354E-16	7.851507E-18
3.320000E+03	3.015957E-16	7.886799E-18
3.330000E+03	3.029732E-16	7.922539E-18
3.340000E+03	3.043415E-16	7.958034E-18
3.350000E+03	3.057227E-16	7.993861E-18
3.360000E+03	3.071145E-16	8.029963E-18
3.370000E+03	3.085383E-16	8.066899E-18
3.380000E+03	3.099445E-16	8.103370E-18
3.390000E+03	3.113546E-16	8.139940E-18
3.400000E+03	3.127894E-16	8.177153E-18
3.410000E+03	3.142235E-16	8.214341E-18
3.420000E+03	3.156771E-16	8.252037E-18
3.430000E+03	3.171252E-16	8.289586E-18
3.440000E+03	3.185880E-16	8.327514E-18
3.450000E+03	3.200626E-16	8.365750E-18
3.460000E+03	3.215467E-16	8.404226E-18
3.470000E+03	3.230161E-16	8.442318E-18
3.480000E+03	3.245116E-16	8.481085E-18
3.490000E+03	3.260088E-16	8.519894E-18
3.500000E+03	3.275263E-16	8.559230E-18
3.510000E+03	3.290404E-16	8.598474E-18
3.520000E+03	3.305693E-16	8.638101E-18
3.530000E+03	3.321101E-16	8.678032E-18
3.540000E+03	3.336400E-16	8.717678E-18
3.550000E+03	3.351964E-16	8.758009E-18
3.560000E+03	3.367370E-16	8.797926E-18
3.570000E+03	3.382984E-16	8.838381E-18
3.580000E+03	3.398584E-16	8.878795E-18
3.590000E+03	3.414334E-16	8.919596E-18
3.600000E+03	3.430203E-16	8.960707E-18
3.610000E+03	3.445981E-16	9.001573E-18
3.620000E+03	3.461825E-16	9.042610E-18
3.630000E+03	3.477889E-16	9.084216E-18
3.640000E+03	3.493786E-16	9.125382E-18
3.650000E+03	3.509846E-16	9.166969E-18
3.660000E+03	3.526040E-16	9.208905E-18
3.670000E+03	3.542168E-16	9.250662E-18
3.680000E+03	3.558208E-16	9.292185E-18
3.690000E+03	3.574473E-16	9.334290E-18
3.700000E+03	3.590765E-16	9.376465E-18
3.710000E+03	3.607061E-16	9.418643E-18
3.720000E+03	3.623336E-16	9.460764E-18
3.730000E+03	3.639728E-16	9.503187E-18
3.740000E+03	3.656054E-16	9.545431E-18
3.750000E+03	3.672449E-16	9.587851E-18
3.760000E+03	3.688887E-16	9.630380E-18
3.770000E+03	3.705346E-16	9.672962E-18
3.780000E+03	3.721659E-16	9.715156E-18
3.790000E+03	3.738248E-16	9.758067E-18
3.800000E+03	3.754652E-16	9.800489E-18
3.810000E+03	3.771145E-16	9.843141E-18
3.820000E+03	3.787563E-16	9.885593E-18
3.830000E+03	3.804033E-16	9.928178E-18
3.840000E+03	3.820538E-16	9.970848E-18
3.850000E+03	3.836925E-16	1.001321E-17
3.860000E+03	3.853452E-16	1.005593E-17
3.870000E+03	3.869837E-16	1.009827E-17
3.880000E+03	3.886332E-16	1.014090E-17
3.890000E+03	3.902670E-16	1.018312E-17
3.900000E+03	3.919097E-16	1.022556E-17
3.910000E+03	3.935477E-16	1.026787E-17
3.920000E+03	3.951804E-16	1.031005E-17
3.930000E+03	3.968197E-16	1.035239E-17
3.940000E+03	3.984528E-16	1.039457E-17
3.950000E+03	4.000797E-16	1.043658E-17
3.960000E+03	4.017005E-16	1.047842E-17
3.970000E+03	4.033267E-16	1.052041E-17
3.980000E+03	4.049469E-16	1.056223E-17
3.990000E+03	4.065618E-16	1.060391E-17
4.000000E+03	4.081716E-16	1.064546E-17
4.010000E+03	4.097773E-16	1.068689E-17
4.020000E+03	4.113797E-16	1.072824E-17
4.030000E+03	4.129796E-16	1.076951E-17
4.040000E+03	4.145781E-16	1.081075E-17
4.050000E+03	4.161660E-16	1.085170E-17
4.060000E+03	4.177451E-16	1.089242E-17
4.070000E+03	4.193267E-16	1.093321E-17
4.080000E+03	4.208926E-16	1.097358E-17
4.090000E+03	4.224546E-16	1.101384E-17
4.100000E+03	4.240145E-16	1.105405E-17
4.110000E+03	4.255647E-16	1.109400E-17
4.120000E+03	4.271071E-16	1.113374E-17
4.130000E+03	4.286348E-16	1.117310E-17
4.140000E+03	4.301594E-16	1.121237E-17
4.150000E+03	4.316737E-16	1.125137E-17
4.160000E+03	4.331712E-16	1.128993E-17
4.170000E+03	4.346632E-16	1.132835E-17
4.180000E+03	4.361345E-16	1.136622E-17
4.190000E+03	4.375961E-16	1.140383E-17
4.200000E+03	4.390332E-16	1.144081E-17
4.210000E+03	4.404568E-16	1.147742E-17
4.220000E+03	4.418605E-16	1.151352E-17
4.230000E+03	4.432385E-16	1.154895E-17
4.240000E+03	4.445926E-16	1.158375E-17
4.250000E+03	4.459171E-16	1.161777E-17
4.260000E+03	4.472137E-16	1.165106E-17
4.270000E+03	4.484763E-16	1.168347E-17
4.280000E+03	4.497067E-16	1.171504E-17
4.290000E+03	4.508911E-16	1.174541E-17
4.300000E+03	4.520386E-16	1.177481E-17
4.310000E+03	4.531356E-16	1.180289E-17
4.320000E+03	4.541837E-16	1.182970E-17
4.330000E+03	4.551844E-16	1.185528E-17
4.340000E+03	4.561174E-16	1.187909E-17
4.350000E+03	4.569987E-16	1.190155E-17
4.360000E+03	4.578088E-16	1.192215E-17
4.370000E+03	4.585570E-16	1.194115E-17
4.380000E+03	4.592386E-16	1.195840E-17
4.390000E+03	4.598491E-16	1.197381E-17
4.400000E+03	4.603851E-16	1.198728E-17
4.410000E+03	4.608566E-16	1.199906E-17
4.420000E+03	4.612475E-16	1.200875E-17
4.430000E+03	4.615754E-16	1.201680E-17
4.440000E+03	4.618320E-16	1.202299E-17
4.450000E+03	4.620223E-16	1.202745E-17
4.460000E+03	4.621456E-16	1.203018E-17
4.470000E+03	4.622140E-16	1.203147E-17
4.480000E+03	4.622213E-16	1.203117E-17
4.490000E+03	4.621737E-16	1.202945E-17
4.500000E+03	4.620719E-16	1.202632E-17
4.510000E+03	4.619285E-16	1.202211E-17
4.520000E+03	4.617439E-16	1.201682E-17
4.530000E+03	4.615189E-16	1.201049E-17
4.540000E+03	4.612657E-16	1.200342E-17
4.550000E+03	4.609845E-16	1.199563E-17
4.560000E+03	4.606872E-16	1.198742E-17
4.570000E+03	4.603677E-16	1.197863E-17
4.580000E+03	4.600371E-16	1.196956E-17
4.590000E+03	4.596948E-16	1.196019E-17
4.600000E+03	4.593509E-16	1.195077E-17
4.610000E+03	4.590095E-16	1.194143E-17
4.620000E+03	4.586690E-16	1.193210E-17
4.630000E+03	4.583381E-16	1.192304E-17
4.640000E+03	4.580201E-16	1.191430E-17
4.650000E+03	4.577119E-16	1.190583E-17
4.660000E+03	4.574214E-16	1.189782E-17
4.670000E+03	4.571556E-16	1.189045E-17
4.680000E+03	4.569108E-16	1.188363E-17
4.690000E+03	4.566935E-16	1.187753E-17
4.700000E+03	4.565150E-16	1.187244E-17
4.710000E+03	4.563703E-16	1.186823E-17
4.720000E+03	4.562702E-16	1.186518E-17
4.730000E+03	4.562247E-16	1.186356E-17
4.740000E+03	4.562333E-16	1.186334E-17
4.750000E+03	4.563105E-16	1.186491E-17
4.760000E+03	4.564605E-16	1.186838E-17
4.770000E+03	4.566870E-16	1.187383E-17
4.780000E+03	4.569837E-16	1.188111E-17
4.790000E+03	4.573588E-16	1.189043E-17
4.800000E+03	4.578010E-16	1.190150E-17
4.810000E+03	4.583082E-16	1.191426E-17
4.820000E+03	4.588689E-16	1.192841E-17
4.830000E+03	4.594714E-16	1.194365E-17
4.840000E+03	4.601188E-16	1.196005E-17
4.850000E+03	4.607943E-16	1.197719E-17
4.860000E+03	4.614962E-16	1.199502E-17
4.870000E+03	4.622227E-16	1.201348E-17
4.880000E+03	4.629667E-16	1.203240E-17
4.890000E+03	4.637264E-16	1.205173E-17
4.900000E+03	4.645045E-16	1.207154E-17
4.910000E+03	4.652943E-16	1.209166E-17
4.920000E+03	4.660933E-16	1.211202E-17
4.930000E+03	4.669092E-16	1.213281E-17
4.940000E+03	4.677297E-16	1.215373E-17
4.950000E+03	4.685621E-16	1.217495E-17
4.960000E+03	4.694041E-16	1.219643E-17
4.970000E+03	4.702527E-16	1.221808E-17
4.980000E+03	4.711102E-16	1.223996E-17
4.990000E+03	4.719737E-16	1.226200E-17
5.000000E+03	4.728401E-16	1.228412E-17
5.010000E+03	4.737114E-16	1.230637E-17
5.020000E+03	4.745843E-16	1.232865E-17
5.030000E+03	4.754605E-16	1.235103E-17
5.040000E+03	4.763314E-16	1.237327E-17
5.050000E+03	4.771987E-16	1.239541E-17
5.060000E+03	4.780586E-16	1.241737E-17
5.070000E+03	4.789124E-16	1.243917E-17
5.080000E+03	4.797514E-16	1.246058E-17
5.090000E+03	4.805766E-16	1.248164E-17
5.100000E+03	4.813891E-16	1.250237E-17
5.110000E+03	4.821798E-16	1.252254E-17
5.120000E+03	4.829447E-16	1.254204E-17
5.130000E+03	4.836847E-16	1.256090E-17
5.140000E+03	4.843956E-16	1.257899E-17
5.150000E+03	4.850732E-16	1.259623E-17
5.160000E+03	4.857084E-16	1.261237E-17
5.170000E+03	4.863068E-16	1.262756E-17
5.180000E+03	4.868644E-16	1.264169E-17
5.190000E+03	4.873671E-16	1.265439E-17
5.200000E+03	4.878254E-16	1.266595E-17
5.210000E+03	4.882207E-16	1.267587E-17
5.220000E+03	4.885638E-16	1.268444E-17
5.230000E+03	4.888408E-16	1.269129E-17
5.240000E+03	4.890478E-16	1.269634E-17
5.250000E+03	4.891913E-16	1.269973E-17
5.260000E+03	4.892577E-16	1.270113E-17
5.270000E+03	4.892536E-16	1.270070E-17
5.280000E+03	4.891659E-16	1.269811E-17
5.290000E+03	4.890016E-16	1.269353E-17
5.300000E+03	4.887527E-16	1.268676E-17
5.310000E+03	4.884170E-16	1.267774E-17
5.320000E+03	4.879970E-16	1.266653E-17
5.330000E+03	4.874857E-16	1.265296E-17
5.340000E+03	4.868864E-16	1.263711E-17
5.350000E+03	4.862025E-16	1.261907E-17
5.360000E+03	4.854231E-16	1.259856E-17
5.370000E+03	4.845572E-16	1.257580E-17
5.380000E+03	4.836043E-16	1.255079E-17
5.390000E+03	4.825691E-16	1.252365E-17
5.400000E+03	4.814470E-16	1.249426E-17
5.410000E+03	4.802435E-16	1.246277E-17
5.420000E+03	4.789597E-16	1.242919E-17
5.430000E+03	4.776016E-16	1.239369E-17
5.440000E+03	4.761758E-16	1.235644E-17
5.450000E+03	4.746793E-16	1.231736E-17
5.460000E+03	4.731193E-16	1.227664E-17
5.470000E+03	4.715028E-16	1.223446E-17
5.480000E+03	4.698278E-16	1.219076E-17
5.490000E+03	4.681019E-16	1.214575E-17
5.500000E+03	4.663281E-16	1.209950E-17
5.510000E+03	4.645050E-16	1.205198E-17
5.520000E+03	4.626452E-16	1.200351E-17
5.530000E+03	4.607428E-16	1.195394E-17
5.540000E+03	4.588016E-16	1.190337E-17
5.550000E+03	4.568251E-16	1.185189E-17
5.560000E+03	4.548173E-16	1.179960E-17
5.570000E+03	4.527818E-16	1.174659E-17
5.580000E+03	4.507136E-16	1.169275E-17
5.590000E+03	4.486211E-16	1.163827E-17
5.600000E+03	4.465082E-16	1.158328E-17
5.610000E+03	4.443700E-16	1.152763E-17
5.620000E+03	4.422148E-16	1.147155E-17
5.630000E+03	4.400464E-16	1.141512E-17
5.640000E+03	4.378644E-16	1.135835E-17
5.650000E+03	4.356722E-16	1.130133E-17
5.660000E+03	4.334696E-16	1.124403E-17
5.670000E+03	4.312641E-16	1.118667E-17
5.680000E+03	4.290592E-16	1.112932E-17
5.690000E+03	4.268496E-16	1.107186E-17
5.700000E+03	4.246472E-16	1.101458E-17
5.710000E+03	4.224502E-16	1.095746E-17
5.720000E+03	4.202619E-16	1.090056E-17
5.730000E+03	4.180845E-16	1.084395E-17
5.740000E+03	4.159164E-16	1.078759E-17
5.750000E+03	4.137642E-16	1.073164E-17
5.760000E+03	4.116297E-16	1.067615E-17
5.770000E+03	4.095146E-16	1.062118E-17
5.780000E+03	4.074167E-16	1.056665E-17
5.790000E+03	4.053375E-16	1.051261E-17
5.800000E+03	4.032821E-16	1.045919E-17
5.810000E+03	4.012477E-16	1.040632E-17
5.820000E+03	3.992392E-16	1.035413E-17
5.830000E+03	3.972534E-16	1.030252E-17
5.840000E+03	3.952909E-16	1.025153E-17
5.850000E+03	3.933560E-16	1.020126E-17
5.860000E+03	3.914413E-16	1.015151E-17
5.870000E+03	3.895549E-16	1.010250E-17
5.880000E+03	3.876929E-16	1.005412E-17
5.890000E+03	3.858554E-16	1.000639E-17
5.900000E+03	3.840384E-16	9.959188E-18
5.910000E+03	3.822494E-16	9.912718E-18
5.920000E+03	3.804844E-16	9.866874E-18
5.930000E+03	3.787396E-16	9.821555E-18
5.940000E+03	3.770181E-16	9.776846E-18
5.950000E+03	3.753198E-16	9.732741E-18
5.960000E+03	3.736407E-16	9.689134E-18
5.970000E+03	3.719837E-16	9.646107E-18
5.980000E+03	3.703489E-16	9.603656E-18
5.990000E+03	3.687318E-16	9.561667E-18
6.000000E+03	3.671358E-16	9.520230E-18
6.010000E+03	3.655567E-16	9.479233E-18
6.020000E+03	3.639976E-16	9.438757E-18
6.030000E+03	3.624579E-16	9.398789E-18
6.040000E+03	3.609337E-16	9.359223E-18
6.050000E+03	3.594241E-16	9.320041E-18
6.060000E+03	3.579358E-16	9.281412E-18
6.070000E+03	3.564574E-16	9.243044E-18
6.080000E+03	3.549989E-16	9.205192E-18
6.090000E+03	3.535524E-16	9.167657E-18
6.100000E+03	3.521173E-16	9.130420E-18
6.110000E+03	3.506961E-16	9.093545E-18
6.120000E+03	3.492847E-16	9.056928E-18
6.130000E+03	3.478787E-16	9.020452E-18
6.140000E+03	3.464808E-16	8.984188E-18
6.150000E+03	3.450832E-16	8.947938E-18
6.160000E+03	3.436852E-16	8.911676E-18
6.170000E+03	3.422826E-16	8.875300E-18
6.180000E+03	3.408746E-16	8.838785E-18
6.190000E+03	3.394574E-16	8.802033E-18
6.200000E+03	3.380335E-16	8.765110E-18
6.210000E+03	3.366090E-16	8.728175E-18
6.220000E+03	3.351837E-16	8.691222E-18
6.230000E+03	3.337569E-16	8.654230E-18
6.240000E+03	3.323316E-16	8.617280E-18
6.250000E+03	3.309074E-16	8.580359E-18
6.260000E+03	3.294838E-16	8.543459E-18
6.270000E+03	3.280639E-16	8.506653E-18
6.280000E+03	3.266440E-16	8.469851E-18
6.290000E+03	3.252270E-16	8.433126E-18
6.300000E+03	3.238093E-16	8.396384E-18
6.310000E+03	3.223907E-16	8.359620E-18
6.320000E+03	3.209739E-16	8.322905E-18
6.330000E+03	3.195522E-16	8.286064E-18
6.340000E+03	3.181317E-16	8.249256E-18
6.350000E+03	3.167088E-16	8.212388E-18
6.360000E+03	3.152865E-16	8.175538E-18
6.370000E+03	3.138579E-16	8.138524E-18
6.380000E+03	3.124294E-16	8.101514E-18
6.390000E+03	3.109940E-16	8.064327E-18
6.400000E+03	3.095579E-16	8.027125E-18
6.410000E+03	3.081211E-16	7.989903E-18
6.420000E+03	3.066768E-16	7.952491E-18
6.430000E+03	3.052314E-16	7.915050E-18
6.440000E+03	3.037785E-16	7.877414E-18
6.450000E+03	3.023242E-16	7.839747E-18
6.460000E+03	3.008657E-16	7.801968E-18
6.470000E+03	2.994028E-16	7.764079E-18
6.480000E+03	2.979360E-16	7.726087E-18
6.490000E+03	2.964622E-16	7.687918E-18
6.500000E+03	2.949851E-16	7.649662E-18
6.510000E+03	2.935019E-16	7.611249E-18
6.520000E+03	2.920162E-16	7.572773E-18
6.530000E+03	2.905255E-16	7.534168E-18
6.540000E+03	2.890367E-16	7.495614E-18
6.550000E+03	2.875506E-16	7.457130E-18
6.560000E+03	2.860678E-16	7.418731E-18
6.570000E+03	2.845924E-16	7.380525E-18
6.580000E+03	2.831221E-16	7.342453E-18
6.590000E+03	2.816640E-16	7.304698E-18
6.600000E+03	2.802159E-16	7.267205E-18
6.610000E+03	2.787791E-16	7.230002E-18
6.620000E+03	2.773605E-16	7.193274E-18
6.630000E+03	2.759582E-16	7.156970E-18
6.640000E+03	2.745733E-16	7.121116E-18
6.650000E+03	2.732099E-16	7.085822E-18
6.660000E+03	2.718693E-16	7.051116E-18
6.670000E+03	2.705522E-16	7.017024E-18
6.680000E+03	2.692599E-16	6.983576E-18
6.690000E+03	2.679935E-16	6.950799E-18
6.700000E+03	2.667600E-16	6.918876E-18
6.710000E+03	2.655544E-16	6.887676E-18
6.720000E+03	2.643806E-16	6.857303E-18
6.730000E+03	2.632395E-16	6.827779E-18
6.740000E+03	2.621350E-16	6.799204E-18
6.750000E+03	2.610650E-16	6.771524E-18
6.760000E+03	2.600360E-16	6.744910E-18
6.770000E+03	2.590429E-16	6.719225E-18
6.780000E+03	2.580862E-16	6.694486E-18
6.790000E+03	2.571753E-16	6.670935E-18
6.800000E+03	2.563017E-16	6.648354E-18
6.810000E+03	2.554716E-16	6.626903E-18
6.820000E+03	2.546825E-16	6.606512E-18
6.830000E+03	2.539373E-16	6.587264E-18
6.840000E+03	2.532361E-16	6.569156E-18
6.850000E+03	2.525758E-16	6.552112E-18
6.860000E+03	2.519622E-16	6.536277E-18
6.870000E+03	2.513888E-16	6.521490E-18
6.880000E+03	2.508615E-16	6.507896E-18
6.890000E+03	2.503765E-16	6.495400E-18
6.900000E+03	2.499331E-16	6.483987E-18
6.910000E+03	2.495307E-16	6.473636E-18
6.920000E+03	2.491710E-16	6.464395E-18
6.930000E+03	2.488502E-16	6.456163E-18
6.940000E+03	2.485668E-16	6.448905E-18
6.950000E+03	2.483228E-16	6.442668E-18
6.960000E+03	2.481134E-16	6.437329E-18
6.970000E+03	2.479402E-16	6.432931E-18
6.980000E+03	2.477982E-16	6.429344E-18
6.990000E+03	2.476887E-16	6.426603E-18
7.000000E+03	2.476065E-16	6.424571E-18
7.010000E+03	2.475527E-16	6.423275E-18
7.020000E+03	2.475219E-16	6.422578E-18
7.030000E+03	2.475145E-16	6.422491E-18
7.040000E+03	2.475254E-16	6.422877E-18
7.050000E+03	2.475517E-16	6.423666E-18
7.060000E+03	2.475938E-16	6.424867E-18
7.070000E+03	2.476459E-16	6.426328E-18
7.080000E+03	2.477050E-16	6.427971E-18
7.090000E+03	2.477683E-16	6.429724E-18
7.100000E+03	2.478356E-16	6.431585E-18
7.110000E+03	2.478980E-16	6.433318E-18
7.120000E+03	2.479553E-16	6.434920E-18
7.130000E+03	2.480042E-16	6.436309E-18
7.140000E+03	2.480418E-16	6.437403E-18
7.150000E+03	2.480648E-16	6.438120E-18
7.160000E+03	2.480670E-16	6.438297E-18
7.170000E+03	2.480452E-16	6.437856E-18
7.180000E+03	2.479995E-16	6.436794E-18
7.190000E+03	2.479268E-16	6.435033E-18
7.200000E+03	2.478179E-16	6.432336E-18
7.210000E+03	2.476763E-16	6.428789E-18
7.220000E+03	2.474930E-16	6.424160E-18
7.230000E+03	2.472683E-16	6.418460E-18
7.240000E+03	2.469999E-16	6.411627E-18
7.250000E+03	2.466853E-16	6.403595E-18
7.260000E+03	2.463194E-16	6.394232E-18
7.270000E+03	2.459031E-16	6.383564E-18
7.280000E+03	2.454316E-16	6.371464E-18
7.290000E+03	2.449034E-16	6.357890E-18
7.300000E+03	2.443202E-16	6.342892E-18
7.310000E+03	2.436777E-16	6.326354E-18
7.320000E+03	2.429782E-16	6.308338E-18
7.330000E+03	2.422180E-16	6.288747E-18
7.340000E+03	2.413997E-16	6.267648E-18
7.350000E+03	2.405201E-16	6.244959E-18
7.360000E+03	2.395856E-16	6.220844E-18
7.370000E+03	2.385966E-16	6.195314E-18
7.380000E+03	2.375534E-16	6.168380E-18
7.390000E+03	2.364602E-16	6.140145E-18
7.400000E+03	2.353179E-16	6.110636E-18
7.410000E+03	2.341339E-16	6.080045E-18
7.420000E+03	2.329094E-16	6.048403E-18
7.430000E+03	2.316462E-16	6.015754E-18
7.440000E+03	2.303427E-16	5.982060E-18
7.450000E+03	2.290038E-16	5.947449E-18
7.460000E+03	2.276228E-16	5.911742E-18
7.470000E+03	2.262017E-16	5.874992E-18
7.480000E+03	2.247371E-16	5.837114E-18
7.490000E+03	2.232343E-16	5.798244E-18
7.500000E+03	2.216902E-16	5.758301E-18
7.510000E+03	2.201106E-16	5.717435E-18
7.520000E+03	2.184923E-16	5.675564E-18
7.530000E+03	2.168442E-16	5.632915E-18
7.540000E+03	2.151604E-16	5.589341E-18
7.550000E+03	2.134524E-16	5.545137E-18
7.560000E+03	2.117146E-16	5.500158E-18
7.570000E+03	2.099555E-16	5.454626E-18
7.580000E+03	2.081780E-16	5.408613E-18
7.590000E+03	2.063818E-16	5.362113E-18
7.600000E+03	2.045699E-16	5.315204E-18
7.610000E+03	2.027446E-16	5.267947E-18
7.620000E+03	2.009140E-16	5.220550E-18
7.630000E+03	1.990748E-16	5.172930E-18
7.640000E+03	1.972296E-16	5.125148E-18
7.650000E+03	1.953828E-16	5.077326E-18
7.660000E+03	1.935393E-16	5.029586E-18
7.670000E+03	1.916954E-16	4.981836E-18
7.680000E+03	1.898557E-16	4.934191E-18
7.690000E+03	1.880215E-16	4.886688E-18
7.700000E+03	1.861945E-16	4.839373E-18
7.710000E+03	1.843786E-16	4.792341E-18
7.720000E+03	1.825723E-16	4.745558E-18
7.730000E+03	1.807771E-16	4.699061E-18
7.740000E+03	1.789963E-16	4.652935E-18
7.750000E+03	1.772284E-16	4.607143E-18
7.760000E+03	1.754769E-16	4.561774E-18
