#wls	flux	fluxerr
1.600000E+03	1.408376E-16	3.638065E-18
1.640000E+03	1.435121E-16	3.706928E-18
1.680000E+03	1.462118E-16	3.776424E-18
1.720000E+03	1.489593E-16	3.847143E-18
1.760000E+03	1.517785E-16	3.919699E-18
1.800000E+03	1.546088E-16	3.992525E-18
1.840000E+03	1.575304E-16	4.067692E-18
1.880000E+03	1.604809E-16	4.143590E-18
1.920000E+03	1.634536E-16	4.220040E-18
1.960000E+03	1.665012E-16	4.298409E-18
2.000000E+03	1.696180E-16	4.378543E-18
2.040000E+03	1.727348E-16	4.458660E-18
2.080000E+03	1.759360E-16	4.540931E-18
2.120000E+03	1.791816E-16	4.624331E-18
2.160000E+03	1.824619E-16	4.708601E-18
2.200000E+03	1.857981E-16	4.794292E-18
2.240000E+03	1.891786E-16	4.881104E-18
2.280000E+03	1.925907E-16	4.968707E-18
2.320000E+03	1.960534E-16	5.057588E-18
2.360000E+03	1.995849E-16	5.148219E-18
2.400000E+03	2.031358E-16	5.239325E-18
2.440000E+03	2.067550E-16	5.332163E-18
2.480000E+03	2.103897E-16	5.425373E-18
2.520000E+03	2.140856E-16	5.520133E-18
2.560000E+03	2.178200E-16	5.615856E-18
2.600000E+03	2.216349E-16	5.713620E-18
2.640000E+03	2.254692E-16	5.811853E-18
2.680000E+03	2.293600E-16	5.911511E-18
2.720000E+03	2.333078E-16	6.012604E-18
2.760000E+03	2.373099E-16	6.115061E-18
2.800000E+03	2.413925E-16	6.219557E-18
2.840000E+03	2.455129E-16	6.324989E-18
2.880000E+03	2.497208E-16	6.432639E-18
2.920000E+03	2.539966E-16	6.541997E-18
2.960000E+03	2.583777E-16	6.654026E-18
3.000000E+03	2.628327E-16	6.767917E-18
3.010000E+03	2.639503E-16	6.796484E-18
3.020000E+03	2.650826E-16	6.825425E-18
3.030000E+03	2.662280E-16	6.854700E-18
3.040000E+03	2.673854E-16	6.884283E-18
3.050000E+03	2.685240E-16	6.913378E-18
3.060000E+03	2.696722E-16	6.942720E-18
3.070000E+03	2.708582E-16	6.973029E-18
3.080000E+03	2.720219E-16	7.002761E-18
3.090000E+03	2.732203E-16	7.033385E-18
3.100000E+03	2.743941E-16	7.063374E-18
3.110000E+03	2.755997E-16	7.094177E-18
3.120000E+03	2.767784E-16	7.124285E-18
3.130000E+03	2.779859E-16	7.155129E-18
3.140000E+03	2.792204E-16	7.186668E-18
3.150000E+03	2.804520E-16	7.218131E-18
3.160000E+03	2.816796E-16	7.249484E-18
3.170000E+03	2.829018E-16	7.280697E-18
3.180000E+03	2.841445E-16	7.312434E-18
3.190000E+03	2.854060E-16	7.344654E-18
3.200000E+03	2.866845E-16	7.377305E-18
3.210000E+03	2.879511E-16	7.409648E-18
3.220000E+03	2.892312E-16	7.442336E-18
3.230000E+03	2.905231E-16	7.475323E-18
3.240000E+03	2.917985E-16	7.507883E-18
3.250000E+03	2.931084E-16	7.541328E-18
3.260000E+03	2.944244E-16	7.574926E-18
3.270000E+03	2.957446E-16	7.608630E-18
3.280000E+03	2.970674E-16	7.642397E-18
3.290000E+03	2.984162E-16	7.676829E-18
3.300000E+03	2.997634E-16	7.711218E-18
3.310000E+03	3.011073E-16	7.745518E-18
3.320000E+03	3.024709E-16	7.780320E-18
3.330000E+03	3.038517E-16	7.815563E-18
3.340000E+03	3.052231E-16	7.850559E-18
3.350000E+03	3.066075E-16	7.885888E-18
3.360000E+03	3.080027E-16	7.921490E-18
3.370000E+03	3.094298E-16	7.957909E-18
3.380000E+03	3.108394E-16	7.993875E-18
3.390000E+03	3.122528E-16	8.029936E-18
3.400000E+03	3.136911E-16	8.066632E-18
3.410000E+03	3.151286E-16	8.103303E-18
3.420000E+03	3.165856E-16	8.140474E-18
3.430000E+03	3.180372E-16	8.177501E-18
3.440000E+03	3.195034E-16	8.214901E-18
3.450000E+03	3.209817E-16	8.252608E-18
3.460000E+03	3.224692E-16	8.290549E-18
3.470000E+03	3.239421E-16	8.328111E-18
3.480000E+03	3.254412E-16	8.366339E-18
3.490000E+03	3.269419E-16	8.404609E-18
3.500000E+03	3.284630E-16	8.443397E-18
3.510000E+03	3.299807E-16	8.482094E-18
3.520000E+03	3.315131E-16	8.521166E-18
3.530000E+03	3.330575E-16	8.560542E-18
3.540000E+03	3.345910E-16	8.599636E-18
3.550000E+03	3.361510E-16	8.639404E-18
3.560000E+03	3.376952E-16	8.678764E-18
3.570000E+03	3.392601E-16	8.718652E-18
3.580000E+03	3.408237E-16	8.758502E-18
3.590000E+03	3.424022E-16	8.798732E-18
3.600000E+03	3.439927E-16	8.839266E-18
3.610000E+03	3.455739E-16	8.879558E-18
3.620000E+03	3.471619E-16	8.920018E-18
3.630000E+03	3.487718E-16	8.961038E-18
3.640000E+03	3.503648E-16	9.001620E-18
3.650000E+03	3.519743E-16	9.042622E-18
3.660000E+03	3.535972E-16	9.083965E-18
3.670000E+03	3.552133E-16	9.125129E-18
3.680000E+03	3.568205E-16	9.166062E-18
3.690000E+03	3.584503E-16	9.207568E-18
3.700000E+03	3.600827E-16	9.249139E-18
3.710000E+03	3.617154E-16	9.290714E-18
3.720000E+03	3.633462E-16	9.332235E-18
3.730000E+03	3.649885E-16	9.374046E-18
3.740000E+03	3.666241E-16	9.415684E-18
3.750000E+03	3.682665E-16	9.457490E-18
3.760000E+03	3.699132E-16	9.499404E-18
3.770000E+03	3.715621E-16	9.541369E-18
3.780000E+03	3.731962E-16	9.582950E-18
3.790000E+03	3.748578E-16	9.625235E-18
3.800000E+03	3.765009E-16	9.667039E-18
3.810000E+03	3.781528E-16	9.709066E-18
3.820000E+03	3.797972E-16	9.750896E-18
3.830000E+03	3.814469E-16	9.792858E-18
3.840000E+03	3.830998E-16	9.834898E-18
3.850000E+03	3.847409E-16	9.876632E-18
3.860000E+03	3.863960E-16	9.918720E-18
3.870000E+03	3.880368E-16	9.960439E-18
3.880000E+03	3.896888E-16	1.000244E-17
3.890000E+03	3.913248E-16	1.004403E-17
3.900000E+03	3.929697E-16	1.008584E-17
3.910000E+03	3.946100E-16	1.012753E-17
3.920000E+03	3.962451E-16	1.016908E-17
3.930000E+03	3.978866E-16	1.021079E-17
3.940000E+03	3.995220E-16	1.025234E-17
3.950000E+03	4.011513E-16	1.029373E-17
3.960000E+03	4.027744E-16	1.033496E-17
3.970000E+03	4.044031E-16	1.037633E-17
3.980000E+03	4.060259E-16	1.041754E-17
3.990000E+03	4.076433E-16	1.045861E-17
4.000000E+03	4.092560E-16	1.049956E-17
4.010000E+03	4.108646E-16	1.054040E-17
4.020000E+03	4.124700E-16	1.058115E-17
4.030000E+03	4.140732E-16	1.062184E-17
4.040000E+03	4.156751E-16	1.066249E-17
4.050000E+03	4.172668E-16	1.070288E-17
4.060000E+03	4.188498E-16	1.074304E-17
4.070000E+03	4.204357E-16	1.078328E-17
4.080000E+03	4.220061E-16	1.082311E-17
4.090000E+03	4.235732E-16	1.086285E-17
4.100000E+03	4.251384E-16	1.090255E-17
4.110000E+03	4.266944E-16	1.094200E-17
4.120000E+03	4.282432E-16	1.098126E-17
4.130000E+03	4.297777E-16	1.102016E-17
4.140000E+03	4.313095E-16	1.105898E-17
4.150000E+03	4.328316E-16	1.109755E-17
4.160000E+03	4.343377E-16	1.113571E-17
4.170000E+03	4.358387E-16	1.117373E-17
4.180000E+03	4.373197E-16	1.121124E-17
4.190000E+03	4.387917E-16	1.124851E-17
4.200000E+03	4.402399E-16	1.128517E-17
4.210000E+03	4.416752E-16	1.132150E-17
4.220000E+03	4.430914E-16	1.135733E-17
4.230000E+03	4.444824E-16	1.139251E-17
4.240000E+03	4.458503E-16	1.142711E-17
4.250000E+03	4.471892E-16	1.146095E-17
4.260000E+03	4.485008E-16	1.149409E-17
4.270000E+03	4.497789E-16	1.152638E-17
4.280000E+03	4.510252E-16	1.155784E-17
4.290000E+03	4.522260E-16	1.158814E-17
4.300000E+03	4.533901E-16	1.161749E-17
4.310000E+03	4.545041E-16	1.164556E-17
4.320000E+03	4.555691E-16	1.167237E-17
4.330000E+03	4.565865E-16	1.169796E-17
4.340000E+03	4.575360E-16	1.172181E-17
4.350000E+03	4.584335E-16	1.174432E-17
4.360000E+03	4.592593E-16	1.176500E-17
4.370000E+03	4.600224E-16	1.178407E-17
4.380000E+03	4.607180E-16	1.180141E-17
4.390000E+03	4.613417E-16	1.181691E-17
4.400000E+03	4.618897E-16	1.183047E-17
4.410000E+03	4.623720E-16	1.184235E-17
4.420000E+03	4.627726E-16	1.185213E-17
4.430000E+03	4.631091E-16	1.186027E-17
4.440000E+03	4.633730E-16	1.186655E-17
4.450000E+03	4.635696E-16	1.187111E-17
4.460000E+03	4.636982E-16	1.187393E-17
4.470000E+03	4.637711E-16	1.187532E-17
4.480000E+03	4.637819E-16	1.187513E-17
4.490000E+03	4.637374E-16	1.187352E-17
4.500000E+03	4.636381E-16	1.187051E-17
4.510000E+03	4.634968E-16	1.186642E-17
4.520000E+03	4.633143E-16	1.186128E-17
4.530000E+03	4.630912E-16	1.185510E-17
4.540000E+03	4.628403E-16	1.184822E-17
4.550000E+03	4.625615E-16	1.184062E-17
4.560000E+03	4.622669E-16	1.183262E-17
4.570000E+03	4.619506E-16	1.182406E-17
4.580000E+03	4.616237E-16	1.181524E-17
4.590000E+03	4.612857E-16	1.180613E-17
4.600000E+03	4.609468E-16	1.179700E-17
4.610000E+03	4.606110E-16	1.178795E-17
4.620000E+03	4.602768E-16	1.177895E-17
4.630000E+03	4.599530E-16	1.177021E-17
4.640000E+03	4.596426E-16	1.176182E-17
4.650000E+03	4.593428E-16	1.175371E-17
4.660000E+03	4.590613E-16	1.174606E-17
4.670000E+03	4.588052E-16	1.173907E-17
4.680000E+03	4.585707E-16	1.173263E-17
4.690000E+03	4.583642E-16	1.172691E-17
4.700000E+03	4.581971E-16	1.172220E-17
4.710000E+03	4.580644E-16	1.171837E-17
4.720000E+03	4.579767E-16	1.171569E-17
4.730000E+03	4.579441E-16	1.171443E-17
4.740000E+03	4.579660E-16	1.171456E-17
4.750000E+03	4.580570E-16	1.171646E-17
4.760000E+03	4.582212E-16	1.172023E-17
4.770000E+03	4.584621E-16	1.172597E-17
4.780000E+03	4.587733E-16	1.173351E-17
4.790000E+03	4.591634E-16	1.174307E-17
4.800000E+03	4.596205E-16	1.175434E-17
4.810000E+03	4.601428E-16	1.176728E-17
4.820000E+03	4.607186E-16	1.178159E-17
4.830000E+03	4.613359E-16	1.179697E-17
4.840000E+03	4.619979E-16	1.181348E-17
4.850000E+03	4.626879E-16	1.183072E-17
4.860000E+03	4.634038E-16	1.184861E-17
4.870000E+03	4.641440E-16	1.186713E-17
4.880000E+03	4.649013E-16	1.188609E-17
4.890000E+03	4.656737E-16	1.190544E-17
4.900000E+03	4.664644E-16	1.192525E-17
4.910000E+03	4.672659E-16	1.194534E-17
4.920000E+03	4.680763E-16	1.196566E-17
4.930000E+03	4.689030E-16	1.198640E-17
4.940000E+03	4.697337E-16	1.200724E-17
4.950000E+03	4.705760E-16	1.202838E-17
4.960000E+03	4.714272E-16	1.204974E-17
4.970000E+03	4.722845E-16	1.207127E-17
4.980000E+03	4.731503E-16	1.209301E-17
4.990000E+03	4.740215E-16	1.211489E-17
5.000000E+03	4.748952E-16	1.213684E-17
5.010000E+03	4.757733E-16	1.215890E-17
5.020000E+03	4.766524E-16	1.218099E-17
5.030000E+03	4.775342E-16	1.220315E-17
5.040000E+03	4.784104E-16	1.222516E-17
5.050000E+03	4.792825E-16	1.224708E-17
5.060000E+03	4.801468E-16	1.226879E-17
5.070000E+03	4.810044E-16	1.229034E-17
5.080000E+03	4.818468E-16	1.231149E-17
5.090000E+03	4.826749E-16	1.233229E-17
5.100000E+03	4.834899E-16	1.235275E-17
5.110000E+03	4.842826E-16	1.237264E-17
5.120000E+03	4.850492E-16	1.239187E-17
5.130000E+03	4.857904E-16	1.241046E-17
5.140000E+03	4.865020E-16	1.242828E-17
5.150000E+03	4.871801E-16	1.244525E-17
5.160000E+03	4.878153E-16	1.246114E-17
5.170000E+03	4.884134E-16	1.247607E-17
5.180000E+03	4.889703E-16	1.248995E-17
5.190000E+03	4.894718E-16	1.250243E-17
5.200000E+03	4.899288E-16	1.251376E-17
5.210000E+03	4.903222E-16	1.252348E-17
5.220000E+03	4.906631E-16	1.253186E-17
5.230000E+03	4.909377E-16	1.253854E-17
5.240000E+03	4.911419E-16	1.254344E-17
5.250000E+03	4.912822E-16	1.254670E-17
5.260000E+03	4.913453E-16	1.254799E-17
5.270000E+03	4.913373E-16	1.254748E-17
5.280000E+03	4.912455E-16	1.254482E-17
5.290000E+03	4.910766E-16	1.254020E-17
5.300000E+03	4.908229E-16	1.253342E-17
5.310000E+03	4.904820E-16	1.252442E-17
5.320000E+03	4.900564E-16	1.251326E-17
5.330000E+03	4.895391E-16	1.249976E-17
5.340000E+03	4.889335E-16	1.248400E-17
5.350000E+03	4.882428E-16	1.246609E-17
5.360000E+03	4.874562E-16	1.244573E-17
5.370000E+03	4.865829E-16	1.242315E-17
5.380000E+03	4.856220E-16	1.239835E-17
5.390000E+03	4.845785E-16	1.237144E-17
5.400000E+03	4.834478E-16	1.234231E-17
5.410000E+03	4.822354E-16	1.231111E-17
5.420000E+03	4.809423E-16	1.227784E-17
5.430000E+03	4.795748E-16	1.224268E-17
5.440000E+03	4.781392E-16	1.220579E-17
5.450000E+03	4.766328E-16	1.216709E-17
5.460000E+03	4.750626E-16	1.212678E-17
5.470000E+03	4.734360E-16	1.208502E-17
5.480000E+03	4.717509E-16	1.204178E-17
5.490000E+03	4.700148E-16	1.199724E-17
5.500000E+03	4.682308E-16	1.195149E-17
5.510000E+03	4.663977E-16	1.190448E-17
5.520000E+03	4.645280E-16	1.185655E-17
5.530000E+03	4.626159E-16	1.180754E-17
5.540000E+03	4.606650E-16	1.175754E-17
5.550000E+03	4.586793E-16	1.170666E-17
5.560000E+03	4.566623E-16	1.165499E-17
5.570000E+03	4.546181E-16	1.160263E-17
5.580000E+03	4.525413E-16	1.154944E-17
5.590000E+03	4.504406E-16	1.149565E-17
5.600000E+03	4.483197E-16	1.144134E-17
5.610000E+03	4.461739E-16	1.138641E-17
5.620000E+03	4.440113E-16	1.133105E-17
5.630000E+03	4.418360E-16	1.127537E-17
5.640000E+03	4.396472E-16	1.121935E-17
5.650000E+03	4.374488E-16	1.116309E-17
5.660000E+03	4.352401E-16	1.110657E-17
5.670000E+03	4.330287E-16	1.104999E-17
5.680000E+03	4.308183E-16	1.099344E-17
5.690000E+03	4.286034E-16	1.093677E-17
5.700000E+03	4.263958E-16	1.088030E-17
5.710000E+03	4.241940E-16	1.082398E-17
5.720000E+03	4.220010E-16	1.076789E-17
5.730000E+03	4.198191E-16	1.071208E-17
5.740000E+03	4.176467E-16	1.065653E-17
5.750000E+03	4.154902E-16	1.060138E-17
5.760000E+03	4.133515E-16	1.054669E-17
5.770000E+03	4.112323E-16	1.049250E-17
5.780000E+03	4.091304E-16	1.043876E-17
5.790000E+03	4.070471E-16	1.038549E-17
5.800000E+03	4.049878E-16	1.033284E-17
5.810000E+03	4.029494E-16	1.028073E-17
5.820000E+03	4.009368E-16	1.022928E-17
5.830000E+03	3.989468E-16	1.017841E-17
5.840000E+03	3.969802E-16	1.012814E-17
5.850000E+03	3.950411E-16	1.007858E-17
5.860000E+03	3.931221E-16	1.002953E-17
5.870000E+03	3.912313E-16	9.981203E-18
5.880000E+03	3.893647E-16	9.933500E-18
5.890000E+03	3.875223E-16	9.886417E-18
5.900000E+03	3.857005E-16	9.839860E-18
5.910000E+03	3.839065E-16	9.794019E-18
5.920000E+03	3.821363E-16	9.748786E-18
5.930000E+03	3.803859E-16	9.704063E-18
5.940000E+03	3.786589E-16	9.659937E-18
5.950000E+03	3.769548E-16	9.616401E-18
5.960000E+03	3.752694E-16	9.573345E-18
5.970000E+03	3.736061E-16	9.530855E-18
5.980000E+03	3.719646E-16	9.488923E-18
5.990000E+03	3.703405E-16	9.447440E-18
6.000000E+03	3.687372E-16	9.406488E-18
6.010000E+03	3.671504E-16	9.365962E-18
6.020000E+03	3.655832E-16	9.325939E-18
6.030000E+03	3.640352E-16	9.286407E-18
6.040000E+03	3.625022E-16	9.247259E-18
6.050000E+03	3.609834E-16	9.208479E-18
6.060000E+03	3.594855E-16	9.170232E-18
6.070000E+03	3.579969E-16	9.132228E-18
6.080000E+03	3.565278E-16	9.094723E-18
6.090000E+03	3.550701E-16	9.057512E-18
6.100000E+03	3.536233E-16	9.020579E-18
6.110000E+03	3.521899E-16	8.983994E-18
6.120000E+03	3.507658E-16	8.947645E-18
6.130000E+03	3.493463E-16	8.911419E-18
6.140000E+03	3.479344E-16	8.875388E-18
6.150000E+03	3.465222E-16	8.839351E-18
6.160000E+03	3.451088E-16	8.803288E-18
6.170000E+03	3.436903E-16	8.767095E-18
6.180000E+03	3.422658E-16	8.730752E-18
6.190000E+03	3.408312E-16	8.694156E-18
6.200000E+03	3.393895E-16	8.657379E-18
6.210000E+03	3.379469E-16	8.620582E-18
6.220000E+03	3.365028E-16	8.583748E-18
6.230000E+03	3.350571E-16	8.546874E-18
6.240000E+03	3.336125E-16	8.510033E-18
6.250000E+03	3.321688E-16	8.473215E-18
6.260000E+03	3.307257E-16	8.436414E-18
6.270000E+03	3.292862E-16	8.399708E-18
6.280000E+03	3.278469E-16	8.363008E-18
6.290000E+03	3.264107E-16	8.326389E-18
6.300000E+03	3.249740E-16	8.289758E-18
6.310000E+03	3.235366E-16	8.253113E-18
6.320000E+03	3.221016E-16	8.216530E-18
6.330000E+03	3.206622E-16	8.179836E-18
6.340000E+03	3.192245E-16	8.143187E-18
6.350000E+03	3.177851E-16	8.106496E-18
6.360000E+03	3.163468E-16	8.069834E-18
6.370000E+03	3.149031E-16	8.033037E-18
6.380000E+03	3.134600E-16	7.996255E-18
6.390000E+03	3.120109E-16	7.959324E-18
6.400000E+03	3.105620E-16	7.922396E-18
6.410000E+03	3.091131E-16	7.885470E-18
6.420000E+03	3.076575E-16	7.848377E-18
6.430000E+03	3.062017E-16	7.811277E-18
6.440000E+03	3.047391E-16	7.774007E-18
6.450000E+03	3.032760E-16	7.736725E-18
6.460000E+03	3.018095E-16	7.699357E-18
6.470000E+03	3.003396E-16	7.661903E-18
6.480000E+03	2.988664E-16	7.624367E-18
6.490000E+03	2.973870E-16	7.586673E-18
6.500000E+03	2.959052E-16	7.548917E-18
6.510000E+03	2.944178E-16	7.511022E-18
6.520000E+03	2.929288E-16	7.473086E-18
6.530000E+03	2.914355E-16	7.435040E-18
6.540000E+03	2.899448E-16	7.397061E-18
6.550000E+03	2.884573E-16	7.359167E-18
6.560000E+03	2.869739E-16	7.321375E-18
6.570000E+03	2.854983E-16	7.283785E-18
6.580000E+03	2.840282E-16	7.246336E-18
6.590000E+03	2.825710E-16	7.209218E-18
6.600000E+03	2.811243E-16	7.172365E-18
6.610000E+03	2.796892E-16	7.135813E-18
6.620000E+03	2.782728E-16	7.099734E-18
6.630000E+03	2.768731E-16	7.064085E-18
6.640000E+03	2.754910E-16	7.028885E-18
6.650000E+03	2.741308E-16	6.994244E-18
6.660000E+03	2.727935E-16	6.960187E-18
6.670000E+03	2.714801E-16	6.926744E-18
6.680000E+03	2.701918E-16	6.893937E-18
6.690000E+03	2.689293E-16	6.861793E-18
6.700000E+03	2.677001E-16	6.830497E-18
6.710000E+03	2.664988E-16	6.799914E-18
6.720000E+03	2.653294E-16	6.770146E-18
6.730000E+03	2.641928E-16	6.741215E-18
6.740000E+03	2.630930E-16	6.713224E-18
6.750000E+03	2.620276E-16	6.686109E-18
6.760000E+03	2.610033E-16	6.660046E-18
6.770000E+03	2.600149E-16	6.634899E-18
6.780000E+03	2.590628E-16	6.610679E-18
6.790000E+03	2.581566E-16	6.587629E-18
6.800000E+03	2.572876E-16	6.565532E-18
6.810000E+03	2.564623E-16	6.544548E-18
6.820000E+03	2.556776E-16	6.524604E-18
6.830000E+03	2.549369E-16	6.505781E-18
6.840000E+03	2.542402E-16	6.488081E-18
6.850000E+03	2.535842E-16	6.471421E-18
6.860000E+03	2.529748E-16	6.455953E-18
6.870000E+03	2.524057E-16	6.441512E-18
6.880000E+03	2.518824E-16	6.428242E-18
6.890000E+03	2.514014E-16	6.416051E-18
6.900000E+03	2.509619E-16	6.404921E-18
6.910000E+03	2.505632E-16	6.394831E-18
6.920000E+03	2.502072E-16	6.385834E-18
6.930000E+03	2.498898E-16	6.377824E-18
6.940000E+03	2.496100E-16	6.370772E-18
6.950000E+03	2.493692E-16	6.364718E-18
6.960000E+03	2.491631E-16	6.359549E-18
6.970000E+03	2.489929E-16	6.355299E-18
6.980000E+03	2.488539E-16	6.351847E-18
6.990000E+03	2.487473E-16	6.349223E-18
7.000000E+03	2.486680E-16	6.347294E-18
7.010000E+03	2.486168E-16	6.346087E-18
7.020000E+03	2.485885E-16	6.345465E-18
7.030000E+03	2.485838E-16	6.345444E-18
7.040000E+03	2.485969E-16	6.345882E-18
7.050000E+03	2.486255E-16	6.346716E-18
7.060000E+03	2.486699E-16	6.347953E-18
7.070000E+03	2.487241E-16	6.349442E-18
7.080000E+03	2.487854E-16	6.351114E-18
7.090000E+03	2.488506E-16	6.352890E-18
7.100000E+03	2.489200E-16	6.354769E-18
7.110000E+03	2.489842E-16	6.356521E-18
7.120000E+03	2.490434E-16	6.358145E-18
7.130000E+03	2.490941E-16	6.359555E-18
7.140000E+03	2.491335E-16	6.360676E-18
7.150000E+03	2.491583E-16	6.361426E-18
7.160000E+03	2.491622E-16	6.361644E-18
7.170000E+03	2.491421E-16	6.361251E-18
7.180000E+03	2.490981E-16	6.360249E-18
7.190000E+03	2.490272E-16	6.358561E-18
7.200000E+03	2.489200E-16	6.355948E-18
7.210000E+03	2.487801E-16	6.352502E-18
7.220000E+03	2.485984E-16	6.347991E-18
7.230000E+03	2.483755E-16	6.342426E-18
7.240000E+03	2.481088E-16	6.335746E-18
7.250000E+03	2.477959E-16	6.327888E-18
7.260000E+03	2.474316E-16	6.318717E-18
7.270000E+03	2.470171E-16	6.308266E-18
7.280000E+03	2.465474E-16	6.296407E-18
7.290000E+03	2.460209E-16	6.283096E-18
7.300000E+03	2.454394E-16	6.268383E-18
7.310000E+03	2.447987E-16	6.252160E-18
7.320000E+03	2.441009E-16	6.234479E-18
7.330000E+03	2.433423E-16	6.215246E-18
7.340000E+03	2.425258E-16	6.194534E-18
7.350000E+03	2.416478E-16	6.172253E-18
7.360000E+03	2.407149E-16	6.148569E-18
7.370000E+03	2.397274E-16	6.123493E-18
7.380000E+03	2.386858E-16	6.097033E-18
7.390000E+03	2.375940E-16	6.069293E-18
7.400000E+03	2.364529E-16	6.040295E-18
7.410000E+03	2.352702E-16	6.010230E-18
7.420000E+03	2.340467E-16	5.979129E-18
7.430000E+03	2.327844E-16	5.947032E-18
7.440000E+03	2.314816E-16	5.913902E-18
7.450000E+03	2.301433E-16	5.879867E-18
7.460000E+03	2.287625E-16	5.844744E-18
7.470000E+03	2.273414E-16	5.808591E-18
7.480000E+03	2.258762E-16	5.771314E-18
7.490000E+03	2.243727E-16	5.733056E-18
7.500000E+03	2.228274E-16	5.693728E-18
7.510000E+03	2.212460E-16	5.653479E-18
7.520000E+03	2.196255E-16	5.612230E-18
7.530000E+03	2.179746E-16	5.570204E-18
7.540000E+03	2.162873E-16	5.527248E-18
7.550000E+03	2.145754E-16	5.483661E-18
7.560000E+03	2.128330E-16	5.439296E-18
7.570000E+03	2.110688E-16	5.394372E-18
7.580000E+03	2.092855E-16	5.348956E-18
7.590000E+03	2.074829E-16	5.303050E-18
7.600000E+03	2.056639E-16	5.256720E-18
7.610000E+03	2.038309E-16	5.210034E-18
7.620000E+03	2.019919E-16	5.163191E-18
7.630000E+03	2.001439E-16	5.116117E-18
7.640000E+03	1.982891E-16	5.068867E-18
7.650000E+03	1.964322E-16	5.021563E-18
7.660000E+03	1.945780E-16	4.974326E-18
7.670000E+03	1.927230E-16	4.927067E-18
7.680000E+03	1.908716E-16	4.879897E-18
7.690000E+03	1.890255E-16	4.832860E-18
7.700000E+03	1.871861E-16	4.785995E-18
7.710000E+03	1.853574E-16	4.739400E-18
7.720000E+03	1.835380E-16	4.693042E-18
7.730000E+03	1.817295E-16	4.646959E-18
7.740000E+03	1.799351E-16	4.601235E-18
7.750000E+03	1.781536E-16	4.555838E-18
7.760000E+03	1.763882E-16	4.510853E-18
