#wls	flux	fluxerr
1.600000E+03	1.144374E-16	4.708484E-18
1.640000E+03	1.170031E-16	4.809707E-18
1.680000E+03	1.196115E-16	4.912380E-18
1.720000E+03	1.223026E-16	5.018137E-18
1.760000E+03	1.250529E-16	5.125996E-18
1.800000E+03	1.278596E-16	5.235819E-18
1.840000E+03	1.307419E-16	5.348374E-18
1.880000E+03	1.336967E-16	5.463522E-18
1.920000E+03	1.367204E-16	5.581092E-18
1.960000E+03	1.398090E-16	5.700895E-18
2.000000E+03	1.429814E-16	5.823689E-18
2.040000E+03	1.462084E-16	5.948255E-18
2.080000E+03	1.495082E-16	6.075321E-18
2.120000E+03	1.528745E-16	6.204596E-18
2.160000E+03	1.563253E-16	6.336796E-18
2.200000E+03	1.598271E-16	6.470532E-18
2.240000E+03	1.634226E-16	6.607514E-18
2.280000E+03	1.670762E-16	6.746270E-18
2.320000E+03	1.708033E-16	6.887398E-18
2.360000E+03	1.746188E-16	7.031473E-18
2.400000E+03	1.784827E-16	7.176855E-18
2.440000E+03	1.824347E-16	7.325110E-18
2.480000E+03	1.864315E-16	7.474475E-18
2.520000E+03	1.905104E-16	7.626417E-18
2.560000E+03	1.946802E-16	7.781253E-18
2.600000E+03	1.988918E-16	7.936992E-18
2.640000E+03	2.031498E-16	8.093792E-18
2.680000E+03	2.075123E-16	8.253935E-18
2.720000E+03	2.118957E-16	8.414065E-18
2.760000E+03	2.163530E-16	8.576263E-18
2.800000E+03	2.208512E-16	8.739183E-18
2.840000E+03	2.254363E-16	8.904622E-18
2.880000E+03	2.300144E-16	9.068837E-18
2.920000E+03	2.346788E-16	9.235483E-18
2.960000E+03	2.393554E-16	9.401616E-18
3.000000E+03	2.440480E-16	9.567364E-18
3.010000E+03	2.452429E-16	9.609490E-18
3.020000E+03	2.464263E-16	9.651101E-18
3.030000E+03	2.475973E-16	9.692165E-18
3.040000E+03	2.487814E-16	9.733670E-18
3.050000E+03	2.499771E-16	9.775567E-18
3.060000E+03	2.511579E-16	9.816813E-18
3.070000E+03	2.523484E-16	9.858375E-18
3.080000E+03	2.535477E-16	9.900212E-18
3.090000E+03	2.547293E-16	9.941287E-18
3.100000E+03	2.559175E-16	9.982557E-18
3.110000E+03	2.571113E-16	1.002397E-17
3.120000E+03	2.582845E-16	1.006452E-17
3.130000E+03	2.594861E-16	1.010611E-17
3.140000E+03	2.606651E-16	1.014675E-17
3.150000E+03	2.618453E-16	1.018736E-17
3.160000E+03	2.630502E-16	1.022887E-17
3.170000E+03	2.642292E-16	1.026930E-17
3.180000E+03	2.654061E-16	1.030958E-17
3.190000E+03	2.666036E-16	1.035060E-17
3.200000E+03	2.677723E-16	1.039042E-17
3.210000E+03	2.689592E-16	1.043088E-17
3.220000E+03	2.701387E-16	1.047098E-17
3.230000E+03	2.713101E-16	1.051070E-17
3.240000E+03	2.724954E-16	1.055089E-17
3.250000E+03	2.736697E-16	1.059058E-17
3.260000E+03	2.748319E-16	1.062974E-17
3.270000E+03	2.760039E-16	1.066920E-17
3.280000E+03	2.771842E-16	1.070891E-17
3.290000E+03	2.783483E-16	1.074793E-17
3.300000E+03	2.794952E-16	1.078621E-17
3.310000E+03	2.806462E-16	1.082458E-17
3.320000E+03	2.817997E-16	1.086298E-17
3.330000E+03	2.829542E-16	1.090134E-17
3.340000E+03	2.841082E-16	1.093961E-17
3.350000E+03	2.852382E-16	1.097689E-17
3.360000E+03	2.863866E-16	1.101480E-17
3.370000E+03	2.875083E-16	1.105162E-17
3.380000E+03	2.886450E-16	1.108895E-17
3.390000E+03	2.897525E-16	1.112508E-17
3.400000E+03	2.908716E-16	1.116159E-17
3.410000E+03	2.919797E-16	1.119761E-17
3.420000E+03	2.930961E-16	1.123387E-17
3.430000E+03	2.941983E-16	1.126952E-17
3.440000E+03	2.952849E-16	1.130450E-17
3.450000E+03	2.963747E-16	1.133954E-17
3.460000E+03	2.974459E-16	1.137380E-17
3.470000E+03	2.985170E-16	1.140798E-17
3.480000E+03	2.995862E-16	1.144202E-17
3.490000E+03	3.006519E-16	1.147586E-17
3.500000E+03	3.016928E-16	1.150869E-17
3.510000E+03	3.027271E-16	1.154120E-17
3.520000E+03	3.037718E-16	1.157403E-17
3.530000E+03	3.047875E-16	1.160570E-17
3.540000E+03	3.058103E-16	1.163756E-17
3.550000E+03	3.068194E-16	1.166885E-17
3.560000E+03	3.078136E-16	1.169949E-17
3.570000E+03	3.088093E-16	1.173013E-17
3.580000E+03	3.097869E-16	1.176002E-17
3.590000E+03	3.107449E-16	1.178910E-17
3.600000E+03	3.116993E-16	1.181798E-17
3.610000E+03	3.126484E-16	1.184659E-17
3.620000E+03	3.135906E-16	1.187488E-17
3.630000E+03	3.145071E-16	1.190214E-17
3.640000E+03	3.154301E-16	1.192958E-17
3.650000E+03	3.163248E-16	1.195589E-17
3.660000E+03	3.172225E-16	1.198225E-17
3.670000E+03	3.180891E-16	1.200738E-17
3.680000E+03	3.189557E-16	1.203245E-17
3.690000E+03	3.198201E-16	1.205738E-17
3.700000E+03	3.206652E-16	1.208152E-17
3.710000E+03	3.214896E-16	1.210483E-17
3.720000E+03	3.223074E-16	1.212783E-17
3.730000E+03	3.231019E-16	1.214990E-17
3.740000E+03	3.238872E-16	1.217157E-17
3.750000E+03	3.246615E-16	1.219278E-17
3.760000E+03	3.254235E-16	1.221347E-17
3.770000E+03	3.261720E-16	1.223360E-17
3.780000E+03	3.269056E-16	1.225312E-17
3.790000E+03	3.276231E-16	1.227199E-17
3.800000E+03	3.283237E-16	1.229018E-17
3.810000E+03	3.290060E-16	1.230764E-17
3.820000E+03	3.296827E-16	1.232484E-17
3.830000E+03	3.303392E-16	1.234123E-17
3.840000E+03	3.309877E-16	1.235729E-17
3.850000E+03	3.316014E-16	1.237200E-17
3.860000E+03	3.322182E-16	1.238678E-17
3.870000E+03	3.328115E-16	1.240065E-17
3.880000E+03	3.333933E-16	1.241405E-17
3.890000E+03	3.339505E-16	1.242649E-17
3.900000E+03	3.344949E-16	1.243842E-17
3.910000E+03	3.350258E-16	1.244981E-17
3.920000E+03	3.355427E-16	1.246065E-17
3.930000E+03	3.360335E-16	1.247047E-17
3.940000E+03	3.365095E-16	1.247973E-17
3.950000E+03	3.369707E-16	1.248839E-17
3.960000E+03	3.374166E-16	1.249646E-17
3.970000E+03	3.378472E-16	1.250394E-17
3.980000E+03	3.382516E-16	1.251041E-17
3.990000E+03	3.386410E-16	1.251630E-17
4.000000E+03	3.390153E-16	1.252162E-17
4.010000E+03	3.393749E-16	1.252636E-17
4.020000E+03	3.397200E-16	1.253055E-17
4.030000E+03	3.400408E-16	1.253381E-17
4.040000E+03	3.403482E-16	1.253657E-17
4.050000E+03	3.406329E-16	1.253847E-17
4.060000E+03	3.408961E-16	1.253956E-17
4.070000E+03	3.411482E-16	1.254022E-17
4.080000E+03	3.413898E-16	1.254049E-17
4.090000E+03	3.416035E-16	1.253972E-17
4.100000E+03	3.418002E-16	1.253831E-17
4.110000E+03	3.419810E-16	1.253631E-17
4.120000E+03	3.421473E-16	1.253377E-17
4.130000E+03	3.422923E-16	1.253044E-17
4.140000E+03	3.424261E-16	1.252670E-17
4.150000E+03	3.425419E-16	1.252230E-17
4.160000E+03	3.426337E-16	1.251701E-17
4.170000E+03	3.427202E-16	1.251153E-17
4.180000E+03	3.427869E-16	1.250532E-17
4.190000E+03	3.428367E-16	1.249850E-17
4.200000E+03	3.428639E-16	1.249086E-17
4.210000E+03	3.428872E-16	1.248308E-17
4.220000E+03	3.428936E-16	1.247469E-17
4.230000E+03	3.428860E-16	1.246580E-17
4.240000E+03	3.428675E-16	1.245652E-17
4.250000E+03	3.428338E-16	1.244669E-17
4.260000E+03	3.427881E-16	1.243645E-17
4.270000E+03	3.427264E-16	1.242563E-17
4.280000E+03	3.426594E-16	1.241464E-17
4.290000E+03	3.425832E-16	1.240332E-17
4.300000E+03	3.425012E-16	1.239181E-17
4.310000E+03	3.424029E-16	1.237973E-17
4.320000E+03	3.423057E-16	1.236771E-17
4.330000E+03	3.421922E-16	1.235512E-17
4.340000E+03	3.420794E-16	1.234257E-17
4.350000E+03	3.419571E-16	1.232970E-17
4.360000E+03	3.418287E-16	1.231663E-17
4.370000E+03	3.416971E-16	1.230347E-17
4.380000E+03	3.415587E-16	1.229009E-17
4.390000E+03	3.414168E-16	1.227661E-17
4.400000E+03	3.412675E-16	1.226289E-17
4.410000E+03	3.411138E-16	1.224904E-17
4.420000E+03	3.409582E-16	1.223514E-17
4.430000E+03	3.407971E-16	1.222108E-17
4.440000E+03	3.406389E-16	1.220716E-17
4.450000E+03	3.404683E-16	1.219281E-17
4.460000E+03	3.402994E-16	1.217856E-17
4.470000E+03	3.401287E-16	1.216428E-17
4.480000E+03	3.399583E-16	1.215004E-17
4.490000E+03	3.397791E-16	1.213552E-17
4.500000E+03	3.396047E-16	1.212120E-17
4.510000E+03	3.394314E-16	1.210695E-17
4.520000E+03	3.392557E-16	1.209265E-17
4.530000E+03	3.390799E-16	1.207839E-17
4.540000E+03	3.389112E-16	1.206441E-17
4.550000E+03	3.387407E-16	1.205040E-17
4.560000E+03	3.385758E-16	1.203662E-17
4.570000E+03	3.384180E-16	1.202314E-17
4.580000E+03	3.382639E-16	1.200982E-17
4.590000E+03	3.381152E-16	1.199672E-17
4.600000E+03	3.379733E-16	1.198391E-17
4.610000E+03	3.378449E-16	1.197162E-17
4.620000E+03	3.377262E-16	1.195970E-17
4.630000E+03	3.376136E-16	1.194803E-17
4.640000E+03	3.375181E-16	1.193701E-17
4.650000E+03	3.374311E-16	1.192632E-17
4.660000E+03	3.373585E-16	1.191618E-17
4.670000E+03	3.373013E-16	1.190662E-17
4.680000E+03	3.372602E-16	1.189767E-17
4.690000E+03	3.372312E-16	1.188917E-17
4.700000E+03	3.372247E-16	1.188151E-17
4.710000E+03	3.372314E-16	1.187435E-17
4.720000E+03	3.372614E-16	1.186805E-17
4.730000E+03	3.373055E-16	1.186228E-17
4.740000E+03	3.373736E-16	1.185739E-17
4.750000E+03	3.374608E-16	1.185321E-17
4.760000E+03	3.375674E-16	1.184974E-17
4.770000E+03	3.376931E-16	1.184698E-17
4.780000E+03	3.378473E-16	1.184526E-17
4.790000E+03	3.380202E-16	1.184423E-17
4.800000E+03	3.382163E-16	1.184404E-17
4.810000E+03	3.384351E-16	1.184468E-17
4.820000E+03	3.386761E-16	1.184614E-17
4.830000E+03	3.389433E-16	1.184855E-17
4.840000E+03	3.392317E-16	1.185173E-17
4.850000E+03	3.395452E-16	1.185583E-17
4.860000E+03	3.398875E-16	1.186096E-17
4.870000E+03	3.402490E-16	1.186680E-17
4.880000E+03	3.406381E-16	1.187364E-17
4.890000E+03	3.410540E-16	1.188144E-17
4.900000E+03	3.414958E-16	1.189018E-17
4.910000E+03	3.419629E-16	1.189984E-17
4.920000E+03	3.424586E-16	1.191052E-17
4.930000E+03	3.429776E-16	1.192204E-17
4.940000E+03	3.435230E-16	1.193451E-17
4.950000E+03	3.440983E-16	1.194805E-17
4.960000E+03	3.446928E-16	1.196228E-17
4.970000E+03	3.453186E-16	1.197763E-17
4.980000E+03	3.459650E-16	1.199372E-17
4.990000E+03	3.466346E-16	1.201065E-17
5.000000E+03	3.473253E-16	1.202834E-17
5.010000E+03	3.480397E-16	1.204687E-17
5.020000E+03	3.487709E-16	1.206602E-17
5.030000E+03	3.495254E-16	1.208600E-17
5.040000E+03	3.502919E-16	1.210642E-17
5.050000E+03	3.510720E-16	1.212734E-17
5.060000E+03	3.518630E-16	1.214866E-17
5.070000E+03	3.526665E-16	1.217045E-17
5.080000E+03	3.534795E-16	1.219259E-17
5.090000E+03	3.542943E-16	1.221483E-17
5.100000E+03	3.551078E-16	1.223705E-17
5.110000E+03	3.559254E-16	1.225945E-17
5.120000E+03	3.567349E-16	1.228160E-17
5.130000E+03	3.575416E-16	1.230369E-17
5.140000E+03	3.583328E-16	1.232527E-17
5.150000E+03	3.591091E-16	1.234639E-17
5.160000E+03	3.598711E-16	1.236704E-17
5.170000E+03	3.606059E-16	1.238680E-17
5.180000E+03	3.613183E-16	1.240584E-17
5.190000E+03	3.619998E-16	1.242385E-17
5.200000E+03	3.626418E-16	1.244056E-17
5.210000E+03	3.632491E-16	1.245612E-17
5.220000E+03	3.638089E-16	1.247009E-17
5.230000E+03	3.643261E-16	1.248266E-17
5.240000E+03	3.647881E-16	1.249339E-17
5.250000E+03	3.651910E-16	1.250215E-17
5.260000E+03	3.655405E-16	1.250914E-17
5.270000E+03	3.658200E-16	1.251380E-17
5.280000E+03	3.660354E-16	1.251632E-17
5.290000E+03	3.661795E-16	1.251647E-17
5.300000E+03	3.662545E-16	1.251433E-17
5.310000E+03	3.662492E-16	1.250951E-17
5.320000E+03	3.661618E-16	1.250196E-17
5.330000E+03	3.659996E-16	1.249193E-17
5.340000E+03	3.657481E-16	1.247893E-17
5.350000E+03	3.654149E-16	1.246323E-17
5.360000E+03	3.649953E-16	1.244466E-17
5.370000E+03	3.644885E-16	1.242320E-17
5.380000E+03	3.638900E-16	1.239871E-17
5.390000E+03	3.632088E-16	1.237148E-17
5.400000E+03	3.624321E-16	1.234110E-17
5.410000E+03	3.615693E-16	1.230787E-17
5.420000E+03	3.606171E-16	1.227169E-17
5.430000E+03	3.595768E-16	1.223260E-17
5.440000E+03	3.584500E-16	1.219067E-17
5.450000E+03	3.572383E-16	1.214594E-17
5.460000E+03	3.559437E-16	1.209848E-17
5.470000E+03	3.545638E-16	1.204822E-17
5.480000E+03	3.531095E-16	1.199553E-17
5.490000E+03	3.515745E-16	1.194019E-17
5.500000E+03	3.499656E-16	1.188243E-17
5.510000E+03	3.482852E-16	1.182234E-17
5.520000E+03	3.465361E-16	1.176000E-17
5.530000E+03	3.447212E-16	1.169553E-17
5.540000E+03	3.428474E-16	1.162916E-17
5.550000E+03	3.409138E-16	1.156085E-17
5.560000E+03	3.389237E-16	1.149071E-17
5.570000E+03	3.368847E-16	1.141901E-17
5.580000E+03	3.348002E-16	1.134585E-17
5.590000E+03	3.326780E-16	1.127151E-17
5.600000E+03	3.305139E-16	1.119584E-17
5.610000E+03	3.283239E-16	1.111937E-17
5.620000E+03	3.261040E-16	1.104198E-17
5.630000E+03	3.238626E-16	1.096395E-17
5.640000E+03	3.216038E-16	1.088541E-17
5.650000E+03	3.193359E-16	1.080664E-17
5.660000E+03	3.170592E-16	1.072766E-17
5.670000E+03	3.147820E-16	1.064874E-17
5.680000E+03	3.125122E-16	1.057016E-17
5.690000E+03	3.102504E-16	1.049191E-17
5.700000E+03	3.080002E-16	1.041414E-17
5.710000E+03	3.057693E-16	1.033709E-17
5.720000E+03	3.035613E-16	1.026089E-17
5.730000E+03	3.013796E-16	1.018564E-17
5.740000E+03	2.992268E-16	1.011145E-17
5.750000E+03	2.971096E-16	1.003852E-17
5.760000E+03	2.950265E-16	9.966814E-18
5.770000E+03	2.929796E-16	9.896392E-18
5.780000E+03	2.909740E-16	9.827431E-18
5.790000E+03	2.890146E-16	9.760090E-18
5.800000E+03	2.870918E-16	9.694044E-18
5.810000E+03	2.852167E-16	9.629671E-18
5.820000E+03	2.833862E-16	9.566859E-18
5.830000E+03	2.816003E-16	9.505607E-18
5.840000E+03	2.798588E-16	9.445914E-18
5.850000E+03	2.781614E-16	9.387757E-18
5.860000E+03	2.765074E-16	9.331121E-18
5.870000E+03	2.748962E-16	9.275981E-18
5.880000E+03	2.733270E-16	9.222306E-18
5.890000E+03	2.718021E-16	9.170179E-18
5.900000E+03	2.703141E-16	9.119341E-18
5.910000E+03	2.688652E-16	9.069874E-18
5.920000E+03	2.674546E-16	9.021743E-18
5.930000E+03	2.660817E-16	8.974929E-18
5.940000E+03	2.647421E-16	8.929286E-18
5.950000E+03	2.634388E-16	8.884911E-18
5.960000E+03	2.621713E-16	8.841785E-18
5.970000E+03	2.609359E-16	8.799788E-18
5.980000E+03	2.597326E-16	8.758910E-18
5.990000E+03	2.585646E-16	8.719270E-18
6.000000E+03	2.574287E-16	8.680753E-18
6.010000E+03	2.563254E-16	8.643375E-18
6.020000E+03	2.552549E-16	8.607142E-18
6.030000E+03	2.542145E-16	8.571966E-18
6.040000E+03	2.532112E-16	8.538079E-18
6.050000E+03	2.522358E-16	8.505172E-18
6.060000E+03	2.512983E-16	8.473581E-18
6.070000E+03	2.503897E-16	8.443006E-18
6.080000E+03	2.495169E-16	8.413672E-18
6.090000E+03	2.486765E-16	8.385471E-18
6.100000E+03	2.478689E-16	8.358413E-18
6.110000E+03	2.470938E-16	8.332487E-18
6.120000E+03	2.463509E-16	8.307684E-18
6.130000E+03	2.456364E-16	8.283879E-18
6.140000E+03	2.449527E-16	8.261147E-18
6.150000E+03	2.442957E-16	8.239351E-18
6.160000E+03	2.436669E-16	8.218544E-18
6.170000E+03	2.430617E-16	8.198567E-18
6.180000E+03	2.424814E-16	8.179460E-18
6.190000E+03	2.419205E-16	8.161047E-18
6.200000E+03	2.413770E-16	8.143248E-18
6.210000E+03	2.408481E-16	8.125978E-18
6.220000E+03	2.403312E-16	8.109142E-18
6.230000E+03	2.398263E-16	8.092741E-18
6.240000E+03	2.393245E-16	8.076475E-18
6.250000E+03	2.388285E-16	8.060435E-18
6.260000E+03	2.383325E-16	8.044423E-18
6.270000E+03	2.378301E-16	8.028222E-18
6.280000E+03	2.373242E-16	8.011932E-18
6.290000E+03	2.368091E-16	7.995356E-18
6.300000E+03	2.362815E-16	7.978386E-18
6.310000E+03	2.357388E-16	7.960931E-18
6.320000E+03	2.351813E-16	7.942999E-18
6.330000E+03	2.346004E-16	7.924300E-18
6.340000E+03	2.339998E-16	7.904960E-18
6.350000E+03	2.333741E-16	7.884797E-18
6.360000E+03	2.327244E-16	7.863842E-18
6.370000E+03	2.320458E-16	7.841929E-18
6.380000E+03	2.313364E-16	7.818997E-18
6.390000E+03	2.305977E-16	7.795094E-18
6.400000E+03	2.298251E-16	7.770063E-18
6.410000E+03	2.290235E-16	7.744070E-18
6.420000E+03	2.281859E-16	7.716872E-18
6.430000E+03	2.273141E-16	7.688537E-18
6.440000E+03	2.264076E-16	7.659042E-18
6.450000E+03	2.254629E-16	7.628267E-18
6.460000E+03	2.244887E-16	7.596506E-18
6.470000E+03	2.234760E-16	7.563456E-18
6.480000E+03	2.224311E-16	7.529325E-18
6.490000E+03	2.213515E-16	7.494030E-18
6.500000E+03	2.202409E-16	7.457694E-18
6.510000E+03	2.191002E-16	7.420350E-18
6.520000E+03	2.179280E-16	7.381943E-18
6.530000E+03	2.167315E-16	7.342720E-18
6.540000E+03	2.155067E-16	7.302545E-18
6.550000E+03	2.142646E-16	7.261784E-18
6.560000E+03	2.129982E-16	7.220208E-18
6.570000E+03	2.117159E-16	7.178096E-18
6.580000E+03	2.104202E-16	7.135531E-18
6.590000E+03	2.091137E-16	7.092601E-18
6.600000E+03	2.077990E-16	7.049393E-18
6.610000E+03	2.064817E-16	7.006100E-18
6.620000E+03	2.051587E-16	6.962614E-18
6.630000E+03	2.038413E-16	6.919318E-18
6.640000E+03	2.025264E-16	6.876106E-18
6.650000E+03	2.012195E-16	6.833163E-18
6.660000E+03	1.999230E-16	6.790573E-18
6.670000E+03	1.986394E-16	6.748419E-18
6.680000E+03	1.973736E-16	6.706870E-18
6.690000E+03	1.961252E-16	6.665909E-18
6.700000E+03	1.948991E-16	6.625703E-18
6.710000E+03	1.936973E-16	6.586324E-18
6.720000E+03	1.925218E-16	6.547834E-18
6.730000E+03	1.913743E-16	6.510298E-18
6.740000E+03	1.902567E-16	6.473776E-18
6.750000E+03	1.891734E-16	6.438420E-18
6.760000E+03	1.881232E-16	6.404191E-18
6.770000E+03	1.871103E-16	6.371232E-18
6.780000E+03	1.861336E-16	6.339502E-18
6.790000E+03	1.851967E-16	6.309130E-18
6.800000E+03	1.843038E-16	6.280256E-18
6.810000E+03	1.834503E-16	6.252727E-18
6.820000E+03	1.826399E-16	6.226670E-18
6.830000E+03	1.818761E-16	6.202204E-18
6.840000E+03	1.811570E-16	6.179263E-18
6.850000E+03	1.804829E-16	6.157862E-18
6.860000E+03	1.798571E-16	6.138111E-18
6.870000E+03	1.792769E-16	6.119926E-18
6.880000E+03	1.787454E-16	6.103407E-18
6.890000E+03	1.782597E-16	6.088457E-18
6.900000E+03	1.778223E-16	6.075167E-18
6.910000E+03	1.774328E-16	6.063522E-18
6.920000E+03	1.770881E-16	6.053417E-18
6.930000E+03	1.767877E-16	6.044834E-18
6.940000E+03	1.765357E-16	6.037920E-18
6.950000E+03	1.763261E-16	6.032467E-18
6.960000E+03	1.761601E-16	6.028522E-18
6.970000E+03	1.760341E-16	6.025956E-18
6.980000E+03	1.759487E-16	6.024800E-18
6.990000E+03	1.759027E-16	6.025004E-18
7.000000E+03	1.758913E-16	6.026414E-18
7.010000E+03	1.759153E-16	6.029051E-18
7.020000E+03	1.759695E-16	6.032745E-18
7.030000E+03	1.760547E-16	6.037519E-18
7.040000E+03	1.761627E-16	6.043096E-18
7.050000E+03	1.762990E-16	6.049665E-18
7.060000E+03	1.764528E-16	6.056857E-18
7.070000E+03	1.766267E-16	6.064761E-18
7.080000E+03	1.768150E-16	6.073183E-18
7.090000E+03	1.770119E-16	6.081926E-18
7.100000E+03	1.772199E-16	6.091072E-18
7.110000E+03	1.774302E-16	6.100326E-18
7.120000E+03	1.776427E-16	6.109676E-18
7.130000E+03	1.778510E-16	6.118912E-18
7.140000E+03	1.780550E-16	6.128022E-18
7.150000E+03	1.782486E-16	6.136803E-18
7.160000E+03	1.784313E-16	6.145232E-18
7.170000E+03	1.785944E-16	6.153015E-18
7.180000E+03	1.787377E-16	6.160140E-18
7.190000E+03	1.788577E-16	6.166489E-18
7.200000E+03	1.789489E-16	6.171868E-18
7.210000E+03	1.790108E-16	6.176264E-18
7.220000E+03	1.790350E-16	6.179386E-18
7.230000E+03	1.790242E-16	6.181322E-18
7.240000E+03	1.789730E-16	6.181887E-18
7.250000E+03	1.788758E-16	6.180886E-18
7.260000E+03	1.787331E-16	6.178333E-18
7.270000E+03	1.785424E-16	6.174144E-18
7.280000E+03	1.782962E-16	6.168054E-18
7.290000E+03	1.779980E-16	6.160184E-18
7.300000E+03	1.776408E-16	6.150289E-18
7.310000E+03	1.772258E-16	6.138408E-18
7.320000E+03	1.767519E-16	6.124502E-18
7.330000E+03	1.762155E-16	6.108443E-18
7.340000E+03	1.756161E-16	6.090212E-18
7.350000E+03	1.749538E-16	6.069807E-18
7.360000E+03	1.742286E-16	6.047228E-18
7.370000E+03	1.734413E-16	6.022501E-18
7.380000E+03	1.725929E-16	5.995655E-18
7.390000E+03	1.716821E-16	5.966645E-18
7.400000E+03	1.707135E-16	5.935624E-18
7.410000E+03	1.696865E-16	5.902571E-18
7.420000E+03	1.686063E-16	5.867665E-18
7.430000E+03	1.674731E-16	5.830911E-18
7.440000E+03	1.662901E-16	5.792411E-18
7.450000E+03	1.650633E-16	5.752377E-18
7.460000E+03	1.637908E-16	5.710741E-18
7.470000E+03	1.624817E-16	5.667816E-18
7.480000E+03	1.611371E-16	5.623640E-18
7.490000E+03	1.597634E-16	5.578429E-18
7.500000E+03	1.583593E-16	5.532143E-18
7.510000E+03	1.569337E-16	5.485088E-18
7.520000E+03	1.554880E-16	5.437306E-18
7.530000E+03	1.540255E-16	5.388920E-18
7.540000E+03	1.525524E-16	5.340139E-18
7.550000E+03	1.510694E-16	5.290989E-18
7.560000E+03	1.495822E-16	5.241666E-18
7.570000E+03	1.480912E-16	5.192181E-18
7.580000E+03	1.466016E-16	5.142720E-18
7.590000E+03	1.451159E-16	5.093363E-18
7.600000E+03	1.436340E-16	5.044108E-18
7.610000E+03	1.421602E-16	4.995110E-18
7.620000E+03	1.406964E-16	4.946428E-18
7.630000E+03	1.392443E-16	4.898123E-18
7.640000E+03	1.378050E-16	4.850237E-18
7.650000E+03	1.363798E-16	4.802809E-18
7.660000E+03	1.349696E-16	4.755878E-18
7.670000E+03	1.335751E-16	4.709462E-18
7.680000E+03	1.321971E-16	4.663590E-18
7.690000E+03	1.308378E-16	4.618345E-18
7.700000E+03	1.294935E-16	4.573592E-18
7.710000E+03	1.281685E-16	4.529481E-18
7.720000E+03	1.268608E-16	4.485946E-18
7.730000E+03	1.255724E-16	4.443057E-18
7.740000E+03	1.242992E-16	4.400668E-18
7.750000E+03	1.230451E-16	4.358917E-18
7.760000E+03	1.218080E-16	4.317729E-18
