#wls	flux	fluxerr
1.600000E+03	8.181975E-17	5.150248E-18
1.640000E+03	8.391121E-17	5.281417E-18
1.680000E+03	8.607517E-17	5.417113E-18
1.720000E+03	8.831248E-17	5.557388E-18
1.760000E+03	9.060840E-17	5.701310E-18
1.800000E+03	9.297821E-17	5.849841E-18
1.840000E+03	9.542222E-17	6.002996E-18
1.880000E+03	9.795686E-17	6.161806E-18
1.920000E+03	1.005495E-16	6.324212E-18
1.960000E+03	1.032326E-16	6.492267E-18
2.000000E+03	1.059891E-16	6.664876E-18
2.040000E+03	1.088356E-16	6.843086E-18
2.080000E+03	1.117712E-16	7.026849E-18
2.120000E+03	1.147769E-16	7.214951E-18
2.160000E+03	1.178877E-16	7.409593E-18
2.200000E+03	1.210836E-16	7.609516E-18
2.240000E+03	1.243619E-16	7.814553E-18
2.280000E+03	1.277397E-16	8.025758E-18
2.320000E+03	1.312140E-16	8.242957E-18
2.360000E+03	1.347817E-16	8.465938E-18
2.400000E+03	1.384384E-16	8.694429E-18
2.440000E+03	1.421794E-16	8.928119E-18
2.480000E+03	1.460417E-16	9.169336E-18
2.520000E+03	1.499768E-16	9.415029E-18
2.560000E+03	1.539991E-16	9.666100E-18
2.600000E+03	1.581454E-16	9.924844E-18
2.640000E+03	1.623630E-16	1.018796E-17
2.680000E+03	1.666646E-16	1.045623E-17
2.720000E+03	1.710626E-16	1.073044E-17
2.760000E+03	1.755454E-16	1.100984E-17
2.800000E+03	1.801002E-16	1.129364E-17
2.840000E+03	1.847127E-16	1.158092E-17
2.880000E+03	1.894143E-16	1.187366E-17
2.920000E+03	1.941647E-16	1.216932E-17
2.960000E+03	1.989689E-16	1.246822E-17
3.000000E+03	2.038307E-16	1.277059E-17
3.010000E+03	2.050452E-16	1.284610E-17
3.020000E+03	2.062464E-16	1.292076E-17
3.030000E+03	2.074823E-16	1.299760E-17
3.040000E+03	2.087044E-16	1.307355E-17
3.050000E+03	2.099121E-16	1.314860E-17
3.060000E+03	2.111534E-16	1.322574E-17
3.070000E+03	2.123795E-16	1.330192E-17
3.080000E+03	2.135901E-16	1.337712E-17
3.090000E+03	2.148089E-16	1.345283E-17
3.100000E+03	2.160356E-16	1.352902E-17
3.110000E+03	2.172697E-16	1.360566E-17
3.120000E+03	2.184866E-16	1.368121E-17
3.130000E+03	2.197100E-16	1.375717E-17
3.140000E+03	2.209395E-16	1.383350E-17
3.150000E+03	2.221745E-16	1.391016E-17
3.160000E+03	2.233905E-16	1.398563E-17
3.170000E+03	2.246113E-16	1.406138E-17
3.180000E+03	2.258122E-16	1.413587E-17
3.190000E+03	2.270409E-16	1.421211E-17
3.200000E+03	2.282487E-16	1.428702E-17
3.210000E+03	2.294592E-16	1.436209E-17
3.220000E+03	2.306719E-16	1.443729E-17
3.230000E+03	2.318623E-16	1.451108E-17
3.240000E+03	2.330539E-16	1.458494E-17
3.250000E+03	2.342461E-16	1.465883E-17
3.260000E+03	2.354384E-16	1.473271E-17
3.270000E+03	2.366303E-16	1.480656E-17
3.280000E+03	2.378211E-16	1.488033E-17
3.290000E+03	2.389865E-16	1.495250E-17
3.300000E+03	2.401497E-16	1.502453E-17
3.310000E+03	2.413104E-16	1.509638E-17
3.320000E+03	2.424676E-16	1.516801E-17
3.330000E+03	2.436210E-16	1.523939E-17
3.340000E+03	2.447463E-16	1.530901E-17
3.350000E+03	2.458902E-16	1.537978E-17
3.360000E+03	2.470047E-16	1.544870E-17
3.370000E+03	2.481130E-16	1.551723E-17
3.380000E+03	2.492145E-16	1.558531E-17
3.390000E+03	2.503084E-16	1.565292E-17
3.400000E+03	2.513941E-16	1.572001E-17
3.410000E+03	2.524711E-16	1.578653E-17
3.420000E+03	2.535386E-16	1.585246E-17
3.430000E+03	2.545960E-16	1.591775E-17
3.440000E+03	2.556197E-16	1.598092E-17
3.450000E+03	2.566551E-16	1.604481E-17
3.460000E+03	2.576555E-16	1.610651E-17
3.470000E+03	2.586661E-16	1.616883E-17
3.480000E+03	2.596407E-16	1.622890E-17
3.490000E+03	2.606240E-16	1.628950E-17
3.500000E+03	2.615699E-16	1.634776E-17
3.510000E+03	2.625007E-16	1.640506E-17
3.520000E+03	2.634380E-16	1.646276E-17
3.530000E+03	2.643362E-16	1.651801E-17
3.540000E+03	2.652172E-16	1.657218E-17
3.550000E+03	2.661025E-16	1.662661E-17
3.560000E+03	2.669470E-16	1.667848E-17
3.570000E+03	2.677723E-16	1.672914E-17
3.580000E+03	2.685778E-16	1.677856E-17
3.590000E+03	2.693844E-16	1.682805E-17
3.600000E+03	2.701482E-16	1.687485E-17
3.610000E+03	2.708902E-16	1.692028E-17
3.620000E+03	2.716311E-16	1.696563E-17
3.630000E+03	2.723275E-16	1.700820E-17
3.640000E+03	2.730002E-16	1.704929E-17
3.650000E+03	2.736696E-16	1.709016E-17
3.660000E+03	2.742929E-16	1.712815E-17
3.670000E+03	2.749116E-16	1.716584E-17
3.680000E+03	2.754832E-16	1.720059E-17
3.690000E+03	2.760487E-16	1.723495E-17
3.700000E+03	2.765662E-16	1.726631E-17
3.710000E+03	2.770763E-16	1.729720E-17
3.720000E+03	2.775375E-16	1.732504E-17
3.730000E+03	2.779900E-16	1.735232E-17
3.740000E+03	2.783928E-16	1.737650E-17
3.750000E+03	2.787855E-16	1.740005E-17
3.760000E+03	2.791476E-16	1.742168E-17
3.770000E+03	2.794589E-16	1.744014E-17
3.780000E+03	2.797584E-16	1.745786E-17
3.790000E+03	2.800065E-16	1.747236E-17
3.800000E+03	2.802417E-16	1.748606E-17
3.810000E+03	2.804250E-16	1.749652E-17
3.820000E+03	2.805944E-16	1.750611E-17
3.830000E+03	2.807115E-16	1.751244E-17
3.840000E+03	2.808136E-16	1.751783E-17
3.850000E+03	2.808633E-16	1.751994E-17
3.860000E+03	2.808790E-16	1.751993E-17
3.870000E+03	2.808786E-16	1.751892E-17
3.880000E+03	2.808255E-16	1.751463E-17
3.890000E+03	2.807381E-16	1.750819E-17
3.900000E+03	2.806160E-16	1.749959E-17
3.910000E+03	2.804594E-16	1.748884E-17
3.920000E+03	2.802507E-16	1.747484E-17
3.930000E+03	2.800254E-16	1.745980E-17
3.940000E+03	2.797485E-16	1.744155E-17
3.950000E+03	2.794378E-16	1.742120E-17
3.960000E+03	2.790936E-16	1.739875E-17
3.970000E+03	2.787162E-16	1.737425E-17
3.980000E+03	2.783060E-16	1.734770E-17
3.990000E+03	2.778472E-16	1.731812E-17
4.000000E+03	2.773570E-16	1.728658E-17
4.010000E+03	2.768360E-16	1.725314E-17
4.020000E+03	2.762690E-16	1.721683E-17
4.030000E+03	2.756890E-16	1.717970E-17
4.040000E+03	2.750493E-16	1.713887E-17
4.050000E+03	2.743984E-16	1.709735E-17
4.060000E+03	2.737063E-16	1.705326E-17
4.070000E+03	2.729898E-16	1.700766E-17
4.080000E+03	2.722351E-16	1.695968E-17
4.090000E+03	2.714440E-16	1.690944E-17
4.100000E+03	2.706477E-16	1.685888E-17
4.110000E+03	2.698039E-16	1.680538E-17
4.120000E+03	2.689579E-16	1.675174E-17
4.130000E+03	2.680686E-16	1.669540E-17
4.140000E+03	2.671665E-16	1.663829E-17
4.150000E+03	2.662535E-16	1.658050E-17
4.160000E+03	2.653038E-16	1.652043E-17
4.170000E+03	2.643475E-16	1.645995E-17
4.180000E+03	2.633864E-16	1.639919E-17
4.190000E+03	2.623960E-16	1.633661E-17
4.200000E+03	2.614054E-16	1.627402E-17
4.210000E+03	2.604036E-16	1.621075E-17
4.220000E+03	2.593930E-16	1.614694E-17
4.230000E+03	2.583890E-16	1.608354E-17
4.240000E+03	2.573681E-16	1.601911E-17
4.250000E+03	2.563584E-16	1.595537E-17
4.260000E+03	2.553371E-16	1.589093E-17
4.270000E+03	2.543313E-16	1.582745E-17
4.280000E+03	2.533191E-16	1.576359E-17
4.290000E+03	2.523270E-16	1.570099E-17
4.300000E+03	2.513332E-16	1.563829E-17
4.310000E+03	2.503521E-16	1.557639E-17
4.320000E+03	2.493859E-16	1.551542E-17
4.330000E+03	2.484368E-16	1.545553E-17
4.340000E+03	2.475069E-16	1.539684E-17
4.350000E+03	2.465870E-16	1.533878E-17
4.360000E+03	2.456905E-16	1.528218E-17
4.370000E+03	2.448193E-16	1.522717E-17
4.380000E+03	2.439646E-16	1.517320E-17
4.390000E+03	2.431391E-16	1.512104E-17
4.400000E+03	2.423447E-16	1.507082E-17
4.410000E+03	2.415723E-16	1.502199E-17
4.420000E+03	2.408345E-16	1.497531E-17
4.430000E+03	2.401223E-16	1.493023E-17
4.440000E+03	2.394375E-16	1.488686E-17
4.450000E+03	2.387920E-16	1.484595E-17
4.460000E+03	2.381769E-16	1.480693E-17
4.470000E+03	2.376038E-16	1.477053E-17
4.480000E+03	2.370638E-16	1.473619E-17
4.490000E+03	2.365585E-16	1.470401E-17
4.500000E+03	2.360889E-16	1.467406E-17
4.510000E+03	2.356660E-16	1.464702E-17
4.520000E+03	2.352809E-16	1.462233E-17
4.530000E+03	2.349346E-16	1.460006E-17
4.540000E+03	2.346280E-16	1.458027E-17
4.550000E+03	2.343618E-16	1.456299E-17
4.560000E+03	2.341462E-16	1.454885E-17
4.570000E+03	2.339627E-16	1.453672E-17
4.580000E+03	2.338306E-16	1.452778E-17
4.590000E+03	2.337315E-16	1.452090E-17
4.600000E+03	2.336844E-16	1.451725E-17
4.610000E+03	2.336707E-16	1.451568E-17
4.620000E+03	2.336996E-16	1.451676E-17
4.630000E+03	2.337803E-16	1.452106E-17
4.640000E+03	2.338941E-16	1.452742E-17
4.650000E+03	2.340501E-16	1.453641E-17
4.660000E+03	2.342475E-16	1.454797E-17
4.670000E+03	2.344860E-16	1.456208E-17
4.680000E+03	2.347561E-16	1.457816E-17
4.690000E+03	2.350747E-16	1.459726E-17
4.700000E+03	2.354232E-16	1.461821E-17
4.710000E+03	2.358098E-16	1.464152E-17
4.720000E+03	2.362332E-16	1.466713E-17
4.730000E+03	2.366838E-16	1.469443E-17
4.740000E+03	2.371778E-16	1.472442E-17
4.750000E+03	2.376965E-16	1.475594E-17
4.760000E+03	2.382387E-16	1.478893E-17
4.770000E+03	2.388205E-16	1.482438E-17
4.780000E+03	2.394230E-16	1.486112E-17
4.790000E+03	2.400534E-16	1.489958E-17
4.800000E+03	2.407017E-16	1.493916E-17
4.810000E+03	2.413749E-16	1.498029E-17
4.820000E+03	2.420715E-16	1.502286E-17
4.830000E+03	2.427897E-16	1.506678E-17
4.840000E+03	2.435192E-16	1.511141E-17
4.850000E+03	2.442671E-16	1.515717E-17
4.860000E+03	2.450227E-16	1.520342E-17
4.870000E+03	2.457930E-16	1.525058E-17
4.880000E+03	2.465760E-16	1.529853E-17
4.890000E+03	2.473611E-16	1.534661E-17
4.900000E+03	2.481551E-16	1.539524E-17
4.910000E+03	2.489558E-16	1.544429E-17
4.920000E+03	2.497524E-16	1.549309E-17
4.930000E+03	2.505514E-16	1.554204E-17
4.940000E+03	2.513503E-16	1.559098E-17
4.950000E+03	2.521383E-16	1.563925E-17
4.960000E+03	2.529214E-16	1.568722E-17
4.970000E+03	2.536885E-16	1.573420E-17
4.980000E+03	2.544456E-16	1.578056E-17
4.990000E+03	2.551899E-16	1.582613E-17
5.000000E+03	2.559188E-16	1.587074E-17
5.010000E+03	2.566207E-16	1.591368E-17
5.020000E+03	2.572926E-16	1.595477E-17
5.030000E+03	2.579489E-16	1.599489E-17
5.040000E+03	2.585693E-16	1.603279E-17
5.050000E+03	2.591506E-16	1.606827E-17
5.060000E+03	2.597074E-16	1.610223E-17
5.070000E+03	2.602191E-16	1.613340E-17
5.080000E+03	2.606826E-16	1.616159E-17
5.090000E+03	2.611124E-16	1.618769E-17
5.100000E+03	2.614882E-16	1.621045E-17
5.110000E+03	2.618072E-16	1.622968E-17
5.120000E+03	2.620837E-16	1.624630E-17
5.130000E+03	2.622981E-16	1.625906E-17
5.140000E+03	2.624561E-16	1.626835E-17
5.150000E+03	2.625471E-16	1.627347E-17
5.160000E+03	2.625861E-16	1.627539E-17
5.170000E+03	2.625536E-16	1.627288E-17
5.180000E+03	2.624567E-16	1.626638E-17
5.190000E+03	2.622852E-16	1.625527E-17
5.200000E+03	2.620463E-16	1.623999E-17
5.210000E+03	2.617390E-16	1.622048E-17
5.220000E+03	2.613625E-16	1.619669E-17
5.230000E+03	2.609162E-16	1.616858E-17
5.240000E+03	2.603913E-16	1.613561E-17
5.250000E+03	2.597965E-16	1.609831E-17
5.260000E+03	2.591318E-16	1.605670E-17
5.270000E+03	2.583978E-16	1.601080E-17
5.280000E+03	2.575869E-16	1.596014E-17
5.290000E+03	2.567168E-16	1.590582E-17
5.300000E+03	2.557720E-16	1.584689E-17
5.310000E+03	2.547622E-16	1.578394E-17
5.320000E+03	2.536888E-16	1.571706E-17
5.330000E+03	2.525537E-16	1.564637E-17
5.340000E+03	2.513505E-16	1.557147E-17
5.350000E+03	2.500973E-16	1.549348E-17
5.360000E+03	2.487800E-16	1.541153E-17
5.370000E+03	2.474087E-16	1.532625E-17
5.380000E+03	2.459857E-16	1.523778E-17
5.390000E+03	2.445128E-16	1.514622E-17
5.400000E+03	2.429923E-16	1.505174E-17
5.410000E+03	2.414265E-16	1.495445E-17
5.420000E+03	2.398097E-16	1.485401E-17
5.430000E+03	2.381596E-16	1.475152E-17
5.440000E+03	2.364706E-16	1.464664E-17
5.450000E+03	2.347372E-16	1.453901E-17
5.460000E+03	2.329768E-16	1.442972E-17
5.470000E+03	2.311766E-16	1.431798E-17
5.480000E+03	2.293535E-16	1.420483E-17
5.490000E+03	2.274951E-16	1.408950E-17
5.500000E+03	2.256180E-16	1.397303E-17
5.510000E+03	2.237102E-16	1.385466E-17
5.520000E+03	2.217883E-16	1.373543E-17
5.530000E+03	2.198475E-16	1.361503E-17
5.540000E+03	2.178832E-16	1.349319E-17
5.550000E+03	2.159120E-16	1.337094E-17
5.560000E+03	2.139295E-16	1.324798E-17
5.570000E+03	2.119383E-16	1.312451E-17
5.580000E+03	2.099412E-16	1.300067E-17
5.590000E+03	2.079412E-16	1.287667E-17
5.600000E+03	2.059412E-16	1.275266E-17
5.610000E+03	2.039441E-16	1.262885E-17
5.620000E+03	2.019595E-16	1.250582E-17
5.630000E+03	1.999777E-16	1.238298E-17
5.640000E+03	1.980146E-16	1.226129E-17
5.650000E+03	1.960671E-16	1.214058E-17
5.660000E+03	1.941382E-16	1.202103E-17
5.670000E+03	1.922314E-16	1.190285E-17
5.680000E+03	1.903556E-16	1.178660E-17
5.690000E+03	1.885019E-16	1.167173E-17
5.700000E+03	1.866856E-16	1.155917E-17
5.710000E+03	1.849033E-16	1.144872E-17
5.720000E+03	1.831637E-16	1.134093E-17
5.730000E+03	1.814581E-16	1.123525E-17
5.740000E+03	1.798004E-16	1.113254E-17
5.750000E+03	1.781931E-16	1.103296E-17
5.760000E+03	1.766271E-16	1.093593E-17
5.770000E+03	1.751158E-16	1.084230E-17
5.780000E+03	1.736554E-16	1.075182E-17
5.790000E+03	1.722533E-16	1.066496E-17
5.800000E+03	1.709054E-16	1.058146E-17
5.810000E+03	1.696133E-16	1.050142E-17
5.820000E+03	1.683781E-16	1.042491E-17
5.830000E+03	1.672063E-16	1.035233E-17
5.840000E+03	1.660989E-16	1.028373E-17
5.850000E+03	1.650458E-16	1.021851E-17
5.860000E+03	1.640636E-16	1.015767E-17
5.870000E+03	1.631368E-16	1.010027E-17
5.880000E+03	1.622765E-16	1.004699E-17
5.890000E+03	1.614777E-16	9.997523E-18
5.900000E+03	1.607454E-16	9.952179E-18
5.910000E+03	1.600799E-16	9.910972E-18
5.920000E+03	1.594709E-16	9.873267E-18
5.930000E+03	1.589335E-16	9.839996E-18
5.940000E+03	1.584523E-16	9.810210E-18
5.950000E+03	1.580424E-16	9.784838E-18
5.960000E+03	1.576880E-16	9.762908E-18
5.970000E+03	1.574041E-16	9.745351E-18
5.980000E+03	1.571801E-16	9.731502E-18
5.990000E+03	1.570155E-16	9.721330E-18
6.000000E+03	1.569147E-16	9.715114E-18
6.010000E+03	1.568719E-16	9.712496E-18
6.020000E+03	1.568915E-16	9.713738E-18
6.030000E+03	1.569723E-16	9.718778E-18
6.040000E+03	1.571083E-16	9.727241E-18
6.050000E+03	1.573032E-16	9.739345E-18
6.060000E+03	1.575505E-16	9.754704E-18
6.070000E+03	1.578533E-16	9.773505E-18
6.080000E+03	1.582049E-16	9.795324E-18
6.090000E+03	1.586130E-16	9.820652E-18
6.100000E+03	1.590597E-16	9.848370E-18
6.110000E+03	1.595576E-16	9.879258E-18
6.120000E+03	1.600930E-16	9.912476E-18
6.130000E+03	1.606673E-16	9.948108E-18
6.140000E+03	1.612714E-16	9.985587E-18
6.150000E+03	1.619058E-16	1.002495E-17
6.160000E+03	1.625657E-16	1.006589E-17
6.170000E+03	1.632404E-16	1.010775E-17
6.180000E+03	1.639348E-16	1.015084E-17
6.190000E+03	1.646266E-16	1.019377E-17
6.200000E+03	1.653252E-16	1.023712E-17
6.210000E+03	1.660128E-16	1.027981E-17
6.220000E+03	1.666876E-16	1.032170E-17
6.230000E+03	1.673418E-16	1.036232E-17
6.240000E+03	1.679678E-16	1.040119E-17
6.250000E+03	1.685521E-16	1.043749E-17
6.260000E+03	1.690921E-16	1.047105E-17
6.270000E+03	1.695800E-16	1.050139E-17
6.280000E+03	1.700023E-16	1.052767E-17
6.290000E+03	1.703629E-16	1.055012E-17
6.300000E+03	1.706432E-16	1.056762E-17
6.310000E+03	1.708423E-16	1.058009E-17
6.320000E+03	1.709539E-16	1.058714E-17
6.330000E+03	1.709669E-16	1.058809E-17
6.340000E+03	1.708878E-16	1.058334E-17
6.350000E+03	1.707012E-16	1.057193E-17
6.360000E+03	1.704098E-16	1.055404E-17
6.370000E+03	1.700112E-16	1.052950E-17
6.380000E+03	1.695039E-16	1.049824E-17
6.390000E+03	1.688878E-16	1.046024E-17
6.400000E+03	1.681631E-16	1.041552E-17
6.410000E+03	1.673259E-16	1.036382E-17
6.420000E+03	1.663896E-16	1.030600E-17
6.430000E+03	1.653460E-16	1.024153E-17
6.440000E+03	1.642049E-16	1.017101E-17
6.450000E+03	1.629763E-16	1.009508E-17
6.460000E+03	1.616544E-16	1.001337E-17
6.470000E+03	1.602506E-16	9.926589E-18
6.480000E+03	1.587714E-16	9.835131E-18
6.490000E+03	1.572232E-16	9.739399E-18
6.500000E+03	1.556132E-16	9.639841E-18
6.510000E+03	1.539488E-16	9.536904E-18
6.520000E+03	1.522370E-16	9.431040E-18
6.530000E+03	1.504857E-16	9.322715E-18
6.540000E+03	1.487022E-16	9.212401E-18
6.550000E+03	1.468940E-16	9.100557E-18
6.560000E+03	1.450684E-16	8.987630E-18
6.570000E+03	1.432327E-16	8.874073E-18
6.580000E+03	1.413937E-16	8.760310E-18
6.590000E+03	1.395582E-16	8.646757E-18
6.600000E+03	1.377325E-16	8.533814E-18
6.610000E+03	1.359276E-16	8.422158E-18
6.620000E+03	1.341397E-16	8.311552E-18
6.630000E+03	1.323791E-16	8.202632E-18
6.640000E+03	1.306554E-16	8.095997E-18
6.650000E+03	1.289642E-16	7.991373E-18
6.660000E+03	1.273189E-16	7.889591E-18
6.670000E+03	1.257190E-16	7.790618E-18
6.680000E+03	1.241682E-16	7.694686E-18
6.690000E+03	1.226697E-16	7.601994E-18
6.700000E+03	1.212266E-16	7.512729E-18
6.710000E+03	1.198416E-16	7.427061E-18
6.720000E+03	1.185209E-16	7.345383E-18
6.730000E+03	1.172586E-16	7.267320E-18
6.740000E+03	1.160646E-16	7.193483E-18
6.750000E+03	1.149361E-16	7.123709E-18
6.760000E+03	1.138746E-16	7.058083E-18
6.770000E+03	1.128809E-16	6.996659E-18
6.780000E+03	1.119560E-16	6.939498E-18
6.790000E+03	1.111043E-16	6.886872E-18
6.800000E+03	1.103183E-16	6.838322E-18
6.810000E+03	1.096061E-16	6.794338E-18
6.820000E+03	1.089638E-16	6.754690E-18
6.830000E+03	1.083913E-16	6.719372E-18
6.840000E+03	1.078922E-16	6.688596E-18
6.850000E+03	1.074584E-16	6.661874E-18
6.860000E+03	1.070970E-16	6.639639E-18
6.870000E+03	1.068035E-16	6.621615E-18
6.880000E+03	1.065771E-16	6.607752E-18
6.890000E+03	1.064169E-16	6.597992E-18
6.900000E+03	1.063219E-16	6.592279E-18
6.910000E+03	1.062947E-16	6.590765E-18
6.920000E+03	1.063301E-16	6.593142E-18
6.930000E+03	1.064232E-16	6.599089E-18
6.940000E+03	1.065835E-16	6.609212E-18
6.950000E+03	1.067982E-16	6.622705E-18
6.960000E+03	1.070691E-16	6.639692E-18
6.970000E+03	1.073983E-16	6.660291E-18
6.980000E+03	1.077758E-16	6.683894E-18
6.990000E+03	1.082074E-16	6.710851E-18
7.000000E+03	1.086866E-16	6.740762E-18
7.010000E+03	1.092110E-16	6.773477E-18
7.020000E+03	1.097815E-16	6.809063E-18
7.030000E+03	1.103878E-16	6.846866E-18
7.040000E+03	1.110345E-16	6.887183E-18
7.050000E+03	1.117104E-16	6.929312E-18
7.060000E+03	1.124201E-16	6.973544E-18
7.070000E+03	1.131560E-16	7.019401E-18
7.080000E+03	1.139141E-16	7.066648E-18
7.090000E+03	1.146905E-16	7.115029E-18
7.100000E+03	1.154812E-16	7.164298E-18
7.110000E+03	1.162856E-16	7.214430E-18
7.120000E+03	1.170911E-16	7.264632E-18
7.130000E+03	1.178970E-16	7.314863E-18
7.140000E+03	1.187026E-16	7.365080E-18
7.150000E+03	1.194944E-16	7.414447E-18
7.160000E+03	1.202758E-16	7.463171E-18
7.170000E+03	1.210371E-16	7.510658E-18
7.180000E+03	1.217687E-16	7.556304E-18
7.190000E+03	1.224740E-16	7.600319E-18
7.200000E+03	1.231384E-16	7.641809E-18
7.210000E+03	1.237657E-16	7.680996E-18
7.220000E+03	1.243459E-16	7.717264E-18
7.230000E+03	1.248693E-16	7.750013E-18
7.240000E+03	1.253399E-16	7.779485E-18
7.250000E+03	1.257436E-16	7.804814E-18
7.260000E+03	1.260802E-16	7.825981E-18
7.270000E+03	1.263503E-16	7.843023E-18
7.280000E+03	1.265405E-16	7.855110E-18
7.290000E+03	1.266520E-16	7.862308E-18
7.300000E+03	1.266815E-16	7.864424E-18
7.310000E+03	1.266266E-16	7.861304E-18
7.320000E+03	1.264853E-16	7.852817E-18
7.330000E+03	1.262560E-16	7.838876E-18
7.340000E+03	1.259333E-16	7.819130E-18
7.350000E+03	1.255264E-16	7.794159E-18
7.360000E+03	1.250262E-16	7.763395E-18
7.370000E+03	1.244385E-16	7.727194E-18
7.380000E+03	1.237649E-16	7.685664E-18
7.390000E+03	1.230076E-16	7.638932E-18
7.400000E+03	1.221648E-16	7.586888E-18
7.410000E+03	1.212444E-16	7.530030E-18
7.420000E+03	1.202501E-16	7.468573E-18
7.430000E+03	1.191862E-16	7.402791E-18
7.440000E+03	1.180570E-16	7.332949E-18
7.450000E+03	1.168628E-16	7.259071E-18
7.460000E+03	1.156133E-16	7.181751E-18
7.470000E+03	1.143135E-16	7.101303E-18
7.480000E+03	1.129643E-16	7.017786E-18
7.490000E+03	1.115755E-16	6.931801E-18
7.500000E+03	1.101524E-16	6.843675E-18
7.510000E+03	1.086999E-16	6.753721E-18
7.520000E+03	1.072192E-16	6.662013E-18
7.530000E+03	1.057193E-16	6.569101E-18
7.540000E+03	1.042008E-16	6.475033E-18
7.550000E+03	1.026725E-16	6.380343E-18
7.560000E+03	1.011385E-16	6.285297E-18
7.570000E+03	9.960268E-17	6.190131E-18
7.580000E+03	9.806505E-17	6.094845E-18
7.590000E+03	9.653282E-17	5.999888E-18
7.600000E+03	9.500550E-17	5.905229E-18
7.610000E+03	9.348961E-17	5.811274E-18
7.620000E+03	9.198413E-17	5.717959E-18
7.630000E+03	9.049493E-17	5.625648E-18
7.640000E+03	8.902396E-17	5.534464E-18
7.650000E+03	8.756956E-17	5.444303E-18
7.660000E+03	8.613657E-17	5.355466E-18
7.670000E+03	8.472292E-17	5.267824E-18
7.680000E+03	8.333292E-17	5.181646E-18
7.690000E+03	8.196736E-17	5.096981E-18
7.700000E+03	8.062371E-17	5.013671E-18
7.710000E+03	7.930255E-17	4.931753E-18
7.720000E+03	7.800735E-17	4.851443E-18
7.730000E+03	7.673828E-17	4.772750E-18
7.740000E+03	7.549247E-17	4.695498E-18
7.750000E+03	7.427291E-17	4.619873E-18
7.760000E+03	7.307664E-17	4.545689E-18
