#wls	flux	fluxerr
1.600000E+03	7.145385E-17	2.368267E-18
1.640000E+03	7.332601E-17	2.429340E-18
1.680000E+03	7.525530E-17	2.492232E-18
1.720000E+03	7.725549E-17	2.557392E-18
1.760000E+03	7.931446E-17	2.624415E-18
1.800000E+03	8.144635E-17	2.693763E-18
1.840000E+03	8.363815E-17	2.765001E-18
1.880000E+03	8.591875E-17	2.839077E-18
1.920000E+03	8.826040E-17	2.915067E-18
1.960000E+03	9.067783E-17	2.993454E-18
2.000000E+03	9.317145E-17	3.074242E-18
2.040000E+03	9.575713E-17	3.157949E-18
2.080000E+03	9.840371E-17	3.243539E-18
2.120000E+03	1.011590E-16	3.332580E-18
2.160000E+03	1.039741E-16	3.423456E-18
2.200000E+03	1.068981E-16	3.517773E-18
2.240000E+03	1.098972E-16	3.614406E-18
2.280000E+03	1.129871E-16	3.713866E-18
2.320000E+03	1.161666E-16	3.816106E-18
2.360000E+03	1.194340E-16	3.921061E-18
2.400000E+03	1.228060E-16	4.029263E-18
2.440000E+03	1.262617E-16	4.140021E-18
2.480000E+03	1.298171E-16	4.253850E-18
2.520000E+03	1.334692E-16	4.370638E-18
2.560000E+03	1.372144E-16	4.490254E-18
2.600000E+03	1.410684E-16	4.613204E-18
2.640000E+03	1.449855E-16	4.737983E-18
2.680000E+03	1.490216E-16	4.866401E-18
2.720000E+03	1.531289E-16	4.996889E-18
2.760000E+03	1.573422E-16	5.130573E-18
2.800000E+03	1.616324E-16	5.266486E-18
2.840000E+03	1.659900E-16	5.404311E-18
2.880000E+03	1.704490E-16	5.545144E-18
2.920000E+03	1.749540E-16	5.687167E-18
2.960000E+03	1.795374E-16	5.831427E-18
3.000000E+03	1.841630E-16	5.976737E-18
3.010000E+03	1.853372E-16	6.013589E-18
3.020000E+03	1.865043E-16	6.050192E-18
3.030000E+03	1.876638E-16	6.086530E-18
3.040000E+03	1.888388E-16	6.123345E-18
3.050000E+03	1.900289E-16	6.160631E-18
3.060000E+03	1.912107E-16	6.197625E-18
3.070000E+03	1.923840E-16	6.234325E-18
3.080000E+03	1.935485E-16	6.270718E-18
3.090000E+03	1.947502E-16	6.308293E-18
3.100000E+03	1.959194E-16	6.344794E-18
3.110000E+03	1.971020E-16	6.381709E-18
3.120000E+03	1.982978E-16	6.419028E-18
3.130000E+03	1.994834E-16	6.455994E-18
3.140000E+03	2.006815E-16	6.493346E-18
3.150000E+03	2.018687E-16	6.530318E-18
3.160000E+03	2.030445E-16	6.566903E-18
3.170000E+03	2.042319E-16	6.603842E-18
3.180000E+03	2.054074E-16	6.640371E-18
3.190000E+03	2.065938E-16	6.677232E-18
3.200000E+03	2.077910E-16	6.714419E-18
3.210000E+03	2.089750E-16	6.751157E-18
3.220000E+03	2.101456E-16	6.787438E-18
3.230000E+03	2.113258E-16	6.824010E-18
3.240000E+03	2.125153E-16	6.860858E-18
3.250000E+03	2.136901E-16	6.897209E-18
3.260000E+03	2.148499E-16	6.933052E-18
3.270000E+03	2.160178E-16	6.969137E-18
3.280000E+03	2.171934E-16	7.005446E-18
3.290000E+03	2.183528E-16	7.041210E-18
3.300000E+03	2.195191E-16	7.077174E-18
3.310000E+03	2.206684E-16	7.112565E-18
3.320000E+03	2.218236E-16	7.148127E-18
3.330000E+03	2.229609E-16	7.183090E-18
3.340000E+03	2.241035E-16	7.218199E-18
3.350000E+03	2.252273E-16	7.252680E-18
3.360000E+03	2.263553E-16	7.287274E-18
3.370000E+03	2.274636E-16	7.321213E-18
3.380000E+03	2.285753E-16	7.355239E-18
3.390000E+03	2.296899E-16	7.389335E-18
3.400000E+03	2.307834E-16	7.422730E-18
3.410000E+03	2.318788E-16	7.456163E-18
3.420000E+03	2.329522E-16	7.488869E-18
3.430000E+03	2.340264E-16	7.521579E-18
3.440000E+03	2.350778E-16	7.553533E-18
3.450000E+03	2.361290E-16	7.585459E-18
3.460000E+03	2.371563E-16	7.616598E-18
3.470000E+03	2.382058E-16	7.648425E-18
3.480000E+03	2.392069E-16	7.678682E-18
3.490000E+03	2.402059E-16	7.708847E-18
3.500000E+03	2.412022E-16	7.738904E-18
3.510000E+03	2.421951E-16	7.768833E-18
3.520000E+03	2.431610E-16	7.797875E-18
3.530000E+03	2.440994E-16	7.826018E-18
3.540000E+03	2.450330E-16	7.853982E-18
3.550000E+03	2.459609E-16	7.881747E-18
3.560000E+03	2.468597E-16	7.908562E-18
3.570000E+03	2.477519E-16	7.935142E-18
3.580000E+03	2.486140E-16	7.960741E-18
3.590000E+03	2.494681E-16	7.986068E-18
3.600000E+03	2.503139E-16	8.011107E-18
3.610000E+03	2.511279E-16	8.035115E-18
3.620000E+03	2.519323E-16	8.058794E-18
3.630000E+03	2.527039E-16	8.081408E-18
3.640000E+03	2.534647E-16	8.103659E-18
3.650000E+03	2.542139E-16	8.125524E-18
3.660000E+03	2.549287E-16	8.146275E-18
3.670000E+03	2.556088E-16	8.165897E-18
3.680000E+03	2.562756E-16	8.185083E-18
3.690000E+03	2.569284E-16	8.203806E-18
3.700000E+03	2.575449E-16	8.221354E-18
3.710000E+03	2.581461E-16	8.238400E-18
3.720000E+03	2.587099E-16	8.254241E-18
3.730000E+03	2.592573E-16	8.269544E-18
3.740000E+03	2.597877E-16	8.284293E-18
3.750000E+03	2.602790E-16	8.297785E-18
3.760000E+03	2.607307E-16	8.309999E-18
3.770000E+03	2.611636E-16	8.321609E-18
3.780000E+03	2.615772E-16	8.332587E-18
3.790000E+03	2.619495E-16	8.342244E-18
3.800000E+03	2.622803E-16	8.350570E-18
3.810000E+03	2.626108E-16	8.358877E-18
3.820000E+03	2.628778E-16	8.365157E-18
3.830000E+03	2.631226E-16	8.370720E-18
3.840000E+03	2.633443E-16	8.375546E-18
3.850000E+03	2.635221E-16	8.378966E-18
3.860000E+03	2.636554E-16	8.380969E-18
3.870000E+03	2.637642E-16	8.382186E-18
3.880000E+03	2.638476E-16	8.382595E-18
3.890000E+03	2.638852E-16	8.381544E-18
3.900000E+03	2.638767E-16	8.379026E-18
3.910000E+03	2.638414E-16	8.375655E-18
3.920000E+03	2.637591E-16	8.370794E-18
3.930000E+03	2.636489E-16	8.365046E-18
3.940000E+03	2.634911E-16	8.357787E-18
3.950000E+03	2.632851E-16	8.349006E-18
3.960000E+03	2.630501E-16	8.339303E-18
3.970000E+03	2.627663E-16	8.328058E-18
3.980000E+03	2.624525E-16	8.315868E-18
3.990000E+03	2.620710E-16	8.301535E-18
4.000000E+03	2.616773E-16	8.286823E-18
4.010000E+03	2.612159E-16	8.269974E-18
4.020000E+03	2.607236E-16	8.252153E-18
4.030000E+03	2.601821E-16	8.232783E-18
4.040000E+03	2.596098E-16	8.212450E-18
4.050000E+03	2.589712E-16	8.190031E-18
4.060000E+03	2.583029E-16	8.166682E-18
4.070000E+03	2.575880E-16	8.141872E-18
4.080000E+03	2.568450E-16	8.116187E-18
4.090000E+03	2.560578E-16	8.089119E-18
4.100000E+03	2.552114E-16	8.060194E-18
4.110000E+03	2.543586E-16	8.031084E-18
4.120000E+03	2.534508E-16	8.000252E-18
4.130000E+03	2.525073E-16	7.968313E-18
4.140000E+03	2.515472E-16	7.935865E-18
4.150000E+03	2.505401E-16	7.901955E-18
4.160000E+03	2.495215E-16	7.867698E-18
4.170000E+03	2.484776E-16	7.832663E-18
4.180000E+03	2.474111E-16	7.796936E-18
4.190000E+03	2.463246E-16	7.760599E-18
4.200000E+03	2.452209E-16	7.723742E-18
4.210000E+03	2.441024E-16	7.686439E-18
4.220000E+03	2.429869E-16	7.649252E-18
4.230000E+03	2.418468E-16	7.611314E-18
4.240000E+03	2.407000E-16	7.573186E-18
4.250000E+03	2.395492E-16	7.534955E-18
4.260000E+03	2.383975E-16	7.496716E-18
4.270000E+03	2.372475E-16	7.458555E-18
4.280000E+03	2.361024E-16	7.420569E-18
4.290000E+03	2.349650E-16	7.382850E-18
4.300000E+03	2.338384E-16	7.345493E-18
4.310000E+03	2.327117E-16	7.308153E-18
4.320000E+03	2.316154E-16	7.271791E-18
4.330000E+03	2.305247E-16	7.235629E-18
4.340000E+03	2.294559E-16	7.200174E-18
4.350000E+03	2.284109E-16	7.165491E-18
4.360000E+03	2.273917E-16	7.131637E-18
4.370000E+03	2.263868E-16	7.098253E-18
4.380000E+03	2.254103E-16	7.065781E-18
4.390000E+03	2.244633E-16	7.034253E-18
4.400000E+03	2.235463E-16	7.003687E-18
4.410000E+03	2.226477E-16	6.973719E-18
4.420000E+03	2.217811E-16	6.944770E-18
4.430000E+03	2.209476E-16	6.916877E-18
4.440000E+03	2.201365E-16	6.889708E-18
4.450000E+03	2.193623E-16	6.863708E-18
4.460000E+03	2.186269E-16	6.838943E-18
4.470000E+03	2.179206E-16	6.815104E-18
4.480000E+03	2.172580E-16	6.792647E-18
4.490000E+03	2.166294E-16	6.771271E-18
4.500000E+03	2.160490E-16	6.751418E-18
4.510000E+03	2.155071E-16	6.732784E-18
4.520000E+03	2.150175E-16	6.715797E-18
4.530000E+03	2.145819E-16	6.700509E-18
4.540000E+03	2.141902E-16	6.686606E-18
4.550000E+03	2.138439E-16	6.674135E-18
4.560000E+03	2.135554E-16	6.663476E-18
4.570000E+03	2.133253E-16	6.654653E-18
4.580000E+03	2.131319E-16	6.646983E-18
4.590000E+03	2.130087E-16	6.641514E-18
4.600000E+03	2.129226E-16	6.637208E-18
4.610000E+03	2.128954E-16	6.634748E-18
4.620000E+03	2.129267E-16	6.634120E-18
4.630000E+03	2.130051E-16	6.634962E-18
4.640000E+03	2.131297E-16	6.637252E-18
4.650000E+03	2.133105E-16	6.641300E-18
4.660000E+03	2.135359E-16	6.646738E-18
4.670000E+03	2.138047E-16	6.653532E-18
4.680000E+03	2.141263E-16	6.661977E-18
4.690000E+03	2.144782E-16	6.671364E-18
4.700000E+03	2.148908E-16	6.682645E-18
4.710000E+03	2.153306E-16	6.694772E-18
4.720000E+03	2.158172E-16	6.708358E-18
4.730000E+03	2.163381E-16	6.723012E-18
4.740000E+03	2.169019E-16	6.739002E-18
4.750000E+03	2.174852E-16	6.755599E-18
4.760000E+03	2.181070E-16	6.773391E-18
4.770000E+03	2.187542E-16	6.791975E-18
4.780000E+03	2.194350E-16	6.811603E-18
4.790000E+03	2.201362E-16	6.831867E-18
4.800000E+03	2.208551E-16	6.852678E-18
4.810000E+03	2.215890E-16	6.873956E-18
4.820000E+03	2.223354E-16	6.895624E-18
4.830000E+03	2.231023E-16	6.917929E-18
4.840000E+03	2.238663E-16	6.940144E-18
4.850000E+03	2.246574E-16	6.963203E-18
4.860000E+03	2.254424E-16	6.986072E-18
4.870000E+03	2.262311E-16	7.009059E-18
4.880000E+03	2.270338E-16	7.032480E-18
4.890000E+03	2.278400E-16	7.056012E-18
4.900000E+03	2.286498E-16	7.079657E-18
4.910000E+03	2.294633E-16	7.103421E-18
4.920000E+03	2.302806E-16	7.127303E-18
4.930000E+03	2.311119E-16	7.151622E-18
4.940000E+03	2.319457E-16	7.176019E-18
4.950000E+03	2.327810E-16	7.200466E-18
4.960000E+03	2.336159E-16	7.224902E-18
4.970000E+03	2.344485E-16	7.249271E-18
4.980000E+03	2.352866E-16	7.273814E-18
4.990000E+03	2.361166E-16	7.298108E-18
5.000000E+03	2.369347E-16	7.322040E-18
5.010000E+03	2.377370E-16	7.345488E-18
5.020000E+03	2.385194E-16	7.368325E-18
5.030000E+03	2.392882E-16	7.390744E-18
5.040000E+03	2.400173E-16	7.411946E-18
5.050000E+03	2.407241E-16	7.432465E-18
5.060000E+03	2.413935E-16	7.451833E-18
5.070000E+03	2.420214E-16	7.469929E-18
5.080000E+03	2.426147E-16	7.486963E-18
5.090000E+03	2.431477E-16	7.502146E-18
5.100000E+03	2.436383E-16	7.516029E-18
5.110000E+03	2.440718E-16	7.528162E-18
5.120000E+03	2.444443E-16	7.538422E-18
5.130000E+03	2.447626E-16	7.547021E-18
5.140000E+03	2.450008E-16	7.553166E-18
5.150000E+03	2.451766E-16	7.557397E-18
5.160000E+03	2.452748E-16	7.559250E-18
5.170000E+03	2.452910E-16	7.558590E-18
5.180000E+03	2.452320E-16	7.555631E-18
5.190000E+03	2.450725E-16	7.549588E-18
5.200000E+03	2.448305E-16	7.541024E-18
5.210000E+03	2.444928E-16	7.529530E-18
5.220000E+03	2.440683E-16	7.515378E-18
5.230000E+03	2.435346E-16	7.497889E-18
5.240000E+03	2.429137E-16	7.477732E-18
5.250000E+03	2.421958E-16	7.454613E-18
5.260000E+03	2.413834E-16	7.428606E-18
5.270000E+03	2.404897E-16	7.400122E-18
5.280000E+03	2.395078E-16	7.368946E-18
5.290000E+03	2.384417E-16	7.335204E-18
5.300000E+03	2.372959E-16	7.299035E-18
5.310000E+03	2.360853E-16	7.260900E-18
5.320000E+03	2.347946E-16	7.220325E-18
5.330000E+03	2.334595E-16	7.178410E-18
5.340000E+03	2.320551E-16	7.134390E-18
5.350000E+03	2.306071E-16	7.089059E-18
5.360000E+03	2.291114E-16	7.042286E-18
5.370000E+03	2.275735E-16	6.994245E-18
5.380000E+03	2.259990E-16	6.945102E-18
5.390000E+03	2.244025E-16	6.895312E-18
5.400000E+03	2.227879E-16	6.844990E-18
5.410000E+03	2.211390E-16	6.793639E-18
5.420000E+03	2.194765E-16	6.741895E-18
5.430000E+03	2.177917E-16	6.689491E-18
5.440000E+03	2.160937E-16	6.636707E-18
5.450000E+03	2.143637E-16	6.582962E-18
5.460000E+03	2.126283E-16	6.529079E-18
5.470000E+03	2.108594E-16	6.474186E-18
5.480000E+03	2.090742E-16	6.418819E-18
5.490000E+03	2.072631E-16	6.362680E-18
5.500000E+03	2.054343E-16	6.306017E-18
5.510000E+03	2.035783E-16	6.248541E-18
5.520000E+03	2.016948E-16	6.190244E-18
5.530000E+03	1.997917E-16	6.131368E-18
5.540000E+03	1.978603E-16	6.071644E-18
5.550000E+03	1.959088E-16	6.011324E-18
5.560000E+03	1.939288E-16	5.950149E-18
5.570000E+03	1.919210E-16	5.888140E-18
5.580000E+03	1.898944E-16	5.825575E-18
5.590000E+03	1.878424E-16	5.762253E-18
5.600000E+03	1.857755E-16	5.698489E-18
5.610000E+03	1.836885E-16	5.634130E-18
5.620000E+03	1.815857E-16	5.569301E-18
5.630000E+03	1.794791E-16	5.504377E-18
5.640000E+03	1.773742E-16	5.439520E-18
5.650000E+03	1.752613E-16	5.374438E-18
5.660000E+03	1.731692E-16	5.310008E-18
5.670000E+03	1.710891E-16	5.245961E-18
5.680000E+03	1.690271E-16	5.182488E-18
5.690000E+03	1.669968E-16	5.120000E-18
5.700000E+03	1.649968E-16	5.058455E-18
5.710000E+03	1.630399E-16	4.998247E-18
5.720000E+03	1.611244E-16	4.939324E-18
5.730000E+03	1.592626E-16	4.882058E-18
5.740000E+03	1.574589E-16	4.826586E-18
5.750000E+03	1.557044E-16	4.772634E-18
5.760000E+03	1.540229E-16	4.720932E-18
5.770000E+03	1.524048E-16	4.671185E-18
5.780000E+03	1.508534E-16	4.623494E-18
5.790000E+03	1.493777E-16	4.578133E-18
5.800000E+03	1.479800E-16	4.535173E-18
5.810000E+03	1.466554E-16	4.494466E-18
5.820000E+03	1.454118E-16	4.456249E-18
5.830000E+03	1.442497E-16	4.420537E-18
5.840000E+03	1.431631E-16	4.387148E-18
5.850000E+03	1.421517E-16	4.356072E-18
5.860000E+03	1.412207E-16	4.327471E-18
5.870000E+03	1.403687E-16	4.301296E-18
5.880000E+03	1.395880E-16	4.277315E-18
5.890000E+03	1.388827E-16	4.255653E-18
5.900000E+03	1.382505E-16	4.236238E-18
5.910000E+03	1.376838E-16	4.218837E-18
5.920000E+03	1.371864E-16	4.203567E-18
5.930000E+03	1.367567E-16	4.190379E-18
5.940000E+03	1.363876E-16	4.179052E-18
5.950000E+03	1.360837E-16	4.169732E-18
5.960000E+03	1.358444E-16	4.162399E-18
5.970000E+03	1.356635E-16	4.156862E-18
5.980000E+03	1.355472E-16	4.153312E-18
5.990000E+03	1.354900E-16	4.151577E-18
6.000000E+03	1.355045E-16	4.152049E-18
6.010000E+03	1.355805E-16	4.154410E-18
6.020000E+03	1.357195E-16	4.158709E-18
6.030000E+03	1.359354E-16	4.165371E-18
6.040000E+03	1.362189E-16	4.174113E-18
6.050000E+03	1.365785E-16	4.185193E-18
6.060000E+03	1.370112E-16	4.198521E-18
6.070000E+03	1.375257E-16	4.214362E-18
6.080000E+03	1.381248E-16	4.232806E-18
6.090000E+03	1.388112E-16	4.253929E-18
6.100000E+03	1.395872E-16	4.277808E-18
6.110000E+03	1.404484E-16	4.304307E-18
6.120000E+03	1.414019E-16	4.333645E-18
6.130000E+03	1.424478E-16	4.365820E-18
6.140000E+03	1.435787E-16	4.400612E-18
6.150000E+03	1.448052E-16	4.438342E-18
6.160000E+03	1.461111E-16	4.478518E-18
6.170000E+03	1.474982E-16	4.521193E-18
6.180000E+03	1.489606E-16	4.566185E-18
6.190000E+03	1.504843E-16	4.613069E-18
6.200000E+03	1.520665E-16	4.661758E-18
6.210000E+03	1.537026E-16	4.712110E-18
6.220000E+03	1.553592E-16	4.763099E-18
6.230000E+03	1.570406E-16	4.814863E-18
6.240000E+03	1.587227E-16	4.866661E-18
6.250000E+03	1.603794E-16	4.917694E-18
6.260000E+03	1.620045E-16	4.967767E-18
6.270000E+03	1.635623E-16	5.015791E-18
6.280000E+03	1.650376E-16	5.061295E-18
6.290000E+03	1.664008E-16	5.103374E-18
6.300000E+03	1.676440E-16	5.141785E-18
6.310000E+03	1.687386E-16	5.175649E-18
6.320000E+03	1.696568E-16	5.204115E-18
6.330000E+03	1.703883E-16	5.226862E-18
6.340000E+03	1.709177E-16	5.243419E-18
6.350000E+03	1.712333E-16	5.253427E-18
6.360000E+03	1.713271E-16	5.256638E-18
6.370000E+03	1.711948E-16	5.252915E-18
6.380000E+03	1.708358E-16	5.242247E-18
6.390000E+03	1.702532E-16	5.224719E-18
6.400000E+03	1.694453E-16	5.200282E-18
6.410000E+03	1.684279E-16	5.169418E-18
6.420000E+03	1.672191E-16	5.132679E-18
6.430000E+03	1.658158E-16	5.089973E-18
6.440000E+03	1.642388E-16	5.041934E-18
6.450000E+03	1.625021E-16	4.988992E-18
6.460000E+03	1.606277E-16	4.931820E-18
6.470000E+03	1.586161E-16	4.870430E-18
6.480000E+03	1.564826E-16	4.805296E-18
6.490000E+03	1.542564E-16	4.737308E-18
6.500000E+03	1.519451E-16	4.666700E-18
6.510000E+03	1.495632E-16	4.593918E-18
6.520000E+03	1.471248E-16	4.519395E-18
6.530000E+03	1.446432E-16	4.443538E-18
6.540000E+03	1.421254E-16	4.366559E-18
6.550000E+03	1.395960E-16	4.289218E-18
6.560000E+03	1.370607E-16	4.211683E-18
6.570000E+03	1.345243E-16	4.134109E-18
6.580000E+03	1.320092E-16	4.057177E-18
6.590000E+03	1.295133E-16	3.980825E-18
6.600000E+03	1.270570E-16	3.905683E-18
6.610000E+03	1.246426E-16	3.831819E-18
6.620000E+03	1.222722E-16	3.759299E-18
6.630000E+03	1.199636E-16	3.688668E-18
6.640000E+03	1.177119E-16	3.619778E-18
6.650000E+03	1.155333E-16	3.553126E-18
6.660000E+03	1.134272E-16	3.488694E-18
6.670000E+03	1.113926E-16	3.426454E-18
6.680000E+03	1.094435E-16	3.366832E-18
6.690000E+03	1.075777E-16	3.309767E-18
6.700000E+03	1.057931E-16	3.255192E-18
6.710000E+03	1.041016E-16	3.203475E-18
6.720000E+03	1.025002E-16	3.154522E-18
6.730000E+03	1.009902E-16	3.108375E-18
6.740000E+03	9.956815E-17	3.064929E-18
6.750000E+03	9.824377E-17	3.024484E-18
6.760000E+03	9.701291E-17	2.986912E-18
6.770000E+03	9.587564E-17	2.952217E-18
6.780000E+03	9.483177E-17	2.920394E-18
6.790000E+03	9.388089E-17	2.891430E-18
6.800000E+03	9.302239E-17	2.865308E-18
6.810000E+03	9.225548E-17	2.842005E-18
6.820000E+03	9.157931E-17	2.821496E-18
6.830000E+03	9.099295E-17	2.803751E-18
6.840000E+03	9.049543E-17	2.788743E-18
6.850000E+03	9.008574E-17	2.776441E-18
6.860000E+03	8.976288E-17	2.766815E-18
6.870000E+03	8.952993E-17	2.759962E-18
6.880000E+03	8.937754E-17	2.755593E-18
6.890000E+03	8.930873E-17	2.753803E-18
6.900000E+03	8.932643E-17	2.754684E-18
6.910000E+03	8.942111E-17	2.757942E-18
6.920000E+03	8.959552E-17	2.763662E-18
6.930000E+03	8.985232E-17	2.771929E-18
6.940000E+03	9.018161E-17	2.782437E-18
6.950000E+03	9.058995E-17	2.795389E-18
6.960000E+03	9.106708E-17	2.810471E-18
6.970000E+03	9.161941E-17	2.827882E-18
6.980000E+03	9.224060E-17	2.847424E-18
6.990000E+03	9.292404E-17	2.868898E-18
7.000000E+03	9.367594E-17	2.892493E-18
7.010000E+03	9.448948E-17	2.918002E-18
7.020000E+03	9.535750E-17	2.945203E-18
7.030000E+03	9.628598E-17	2.974282E-18
7.040000E+03	9.726746E-17	3.005010E-18
7.050000E+03	9.829406E-17	3.037144E-18
7.060000E+03	9.937144E-17	3.070859E-18
7.070000E+03	1.004913E-16	3.105900E-18
7.080000E+03	1.016497E-16	3.142147E-18
7.090000E+03	1.028376E-16	3.179319E-18
7.100000E+03	1.040604E-16	3.217581E-18
7.110000E+03	1.053083E-16	3.256638E-18
7.120000E+03	1.065715E-16	3.296184E-18
7.130000E+03	1.078550E-16	3.336369E-18
7.140000E+03	1.091481E-16	3.376870E-18
7.150000E+03	1.104399E-16	3.417349E-18
7.160000E+03	1.117346E-16	3.457931E-18
7.170000E+03	1.130150E-16	3.498088E-18
7.180000E+03	1.142850E-16	3.537939E-18
7.190000E+03	1.155262E-16	3.576916E-18
7.200000E+03	1.167419E-16	3.615118E-18
7.210000E+03	1.179124E-16	3.651938E-18
7.220000E+03	1.190347E-16	3.687282E-18
7.230000E+03	1.201054E-16	3.721041E-18
7.240000E+03	1.211035E-16	3.752569E-18
7.250000E+03	1.220249E-16	3.781733E-18
7.260000E+03	1.228596E-16	3.808227E-18
7.270000E+03	1.235975E-16	3.831733E-18
7.280000E+03	1.242286E-16	3.851940E-18
7.290000E+03	1.247430E-16	3.868540E-18
7.300000E+03	1.251251E-16	3.881048E-18
7.310000E+03	1.253782E-16	3.889563E-18
7.320000E+03	1.254824E-16	3.893466E-18
7.330000E+03	1.254432E-16	3.892927E-18
7.340000E+03	1.252437E-16	3.887418E-18
7.350000E+03	1.248871E-16	3.877036E-18
7.360000E+03	1.243728E-16	3.861759E-18
7.370000E+03	1.237028E-16	3.841646E-18
7.380000E+03	1.228750E-16	3.816633E-18
7.390000E+03	1.219080E-16	3.787292E-18
7.400000E+03	1.207979E-16	3.753498E-18
7.410000E+03	1.195605E-16	3.715741E-18
7.420000E+03	1.182122E-16	3.674530E-18
7.430000E+03	1.167479E-16	3.629704E-18
7.440000E+03	1.151970E-16	3.582172E-18
7.450000E+03	1.135665E-16	3.532151E-18
7.460000E+03	1.118632E-16	3.479856E-18
7.470000E+03	1.101053E-16	3.425843E-18
7.480000E+03	1.083042E-16	3.370473E-18
7.490000E+03	1.064710E-16	3.314087E-18
7.500000E+03	1.046162E-16	3.257012E-18
7.510000E+03	1.027440E-16	3.199378E-18
7.520000E+03	1.008686E-16	3.141623E-18
7.530000E+03	9.899741E-17	3.083983E-18
7.540000E+03	9.713754E-17	3.026677E-18
7.550000E+03	9.529503E-17	2.969892E-18
7.560000E+03	9.347047E-17	2.913647E-18
7.570000E+03	9.167297E-17	2.858226E-18
7.580000E+03	8.990609E-17	2.803741E-18
7.590000E+03	8.816824E-17	2.750142E-18
7.600000E+03	8.647036E-17	2.697770E-18
7.610000E+03	8.480541E-17	2.646407E-18
7.620000E+03	8.317886E-17	2.596223E-18
7.630000E+03	8.158737E-17	2.547115E-18
7.640000E+03	8.003952E-17	2.499351E-18
7.650000E+03	7.852734E-17	2.452683E-18
7.660000E+03	7.705081E-17	2.407110E-18
7.670000E+03	7.561729E-17	2.362864E-18
7.680000E+03	7.421858E-17	2.319689E-18
7.690000E+03	7.285781E-17	2.277682E-18
7.700000E+03	7.153419E-17	2.236820E-18
7.710000E+03	7.024330E-17	2.196965E-18
7.720000E+03	6.898782E-17	2.158202E-18
7.730000E+03	6.776677E-17	2.120500E-18
7.740000E+03	6.657907E-17	2.083827E-18
7.750000E+03	6.542037E-17	2.048046E-18
7.760000E+03	6.429303E-17	2.013231E-18
