#wls	flux	fluxerr
1.600000E+03	4.621443E-17	2.563747E-18
1.640000E+03	4.744835E-17	2.628204E-18
1.680000E+03	4.872590E-17	2.694751E-18
1.720000E+03	5.004818E-17	2.763427E-18
1.760000E+03	5.141635E-17	2.834269E-18
1.800000E+03	5.282243E-17	2.906815E-18
1.840000E+03	5.428537E-17	2.982079E-18
1.880000E+03	5.579735E-17	3.059601E-18
1.920000E+03	5.735938E-17	3.139407E-18
1.960000E+03	5.898230E-17	3.222056E-18
2.000000E+03	6.064737E-17	3.306490E-18
2.040000E+03	6.237549E-17	3.393813E-18
2.080000E+03	6.415744E-17	3.483486E-18
2.120000E+03	6.600477E-17	3.576094E-18
2.160000E+03	6.790759E-17	3.671057E-18
2.200000E+03	6.987772E-17	3.768971E-18
2.240000E+03	7.190454E-17	3.869215E-18
2.280000E+03	7.398815E-17	3.971746E-18
2.320000E+03	7.615295E-17	4.077822E-18
2.360000E+03	7.837531E-17	4.186121E-18
2.400000E+03	8.066755E-17	4.297244E-18
2.440000E+03	8.302984E-17	4.411140E-18
2.480000E+03	8.546204E-17	4.527738E-18
2.520000E+03	8.795014E-17	4.646232E-18
2.560000E+03	9.052044E-17	4.767945E-18
2.600000E+03	9.315854E-17	4.892045E-18
2.640000E+03	9.586303E-17	5.018383E-18
2.680000E+03	9.864696E-17	5.147567E-18
2.720000E+03	1.014786E-16	5.277863E-18
2.760000E+03	1.043853E-16	5.410616E-18
2.800000E+03	1.073488E-16	5.544794E-18
2.840000E+03	1.103812E-16	5.680940E-18
2.880000E+03	1.134790E-16	5.818786E-18
2.920000E+03	1.166213E-16	5.957168E-18
2.960000E+03	1.198020E-16	6.095699E-18
3.000000E+03	1.230319E-16	6.234834E-18
3.010000E+03	1.238596E-16	6.270341E-18
3.020000E+03	1.246695E-16	6.304821E-18
3.030000E+03	1.254960E-16	6.340010E-18
3.040000E+03	1.263040E-16	6.374143E-18
3.050000E+03	1.271284E-16	6.408973E-18
3.060000E+03	1.279515E-16	6.443607E-18
3.070000E+03	1.287732E-16	6.478044E-18
3.080000E+03	1.296110E-16	6.513158E-18
3.090000E+03	1.304296E-16	6.547169E-18
3.100000E+03	1.312639E-16	6.581840E-18
3.110000E+03	1.320962E-16	6.616276E-18
3.120000E+03	1.329264E-16	6.650471E-18
3.130000E+03	1.337723E-16	6.685309E-18
3.140000E+03	1.345976E-16	6.718982E-18
3.150000E+03	1.354384E-16	6.753285E-18
3.160000E+03	1.362581E-16	6.786399E-18
3.170000E+03	1.370930E-16	6.820126E-18
3.180000E+03	1.379428E-16	6.854454E-18
3.190000E+03	1.387710E-16	6.887563E-18
3.200000E+03	1.395955E-16	6.920344E-18
3.210000E+03	1.404346E-16	6.953702E-18
3.220000E+03	1.412698E-16	6.986719E-18
3.230000E+03	1.421006E-16	7.019371E-18
3.240000E+03	1.429270E-16	7.051658E-18
3.250000E+03	1.437675E-16	7.084485E-18
3.260000E+03	1.445843E-16	7.115997E-18
3.270000E+03	1.454148E-16	7.148032E-18
3.280000E+03	1.462399E-16	7.179647E-18
3.290000E+03	1.470595E-16	7.210837E-18
3.300000E+03	1.478732E-16	7.241586E-18
3.310000E+03	1.486998E-16	7.272811E-18
3.320000E+03	1.495012E-16	7.302646E-18
3.330000E+03	1.503150E-16	7.332931E-18
3.340000E+03	1.511219E-16	7.362721E-18
3.350000E+03	1.519219E-16	7.392013E-18
3.360000E+03	1.527336E-16	7.421721E-18
3.370000E+03	1.535186E-16	7.449968E-18
3.380000E+03	1.543150E-16	7.478606E-18
3.390000E+03	1.551032E-16	7.506688E-18
3.400000E+03	1.558829E-16	7.534199E-18
3.410000E+03	1.566540E-16	7.561127E-18
3.420000E+03	1.574161E-16	7.587463E-18
3.430000E+03	1.581882E-16	7.614118E-18
3.440000E+03	1.589313E-16	7.639218E-18
3.450000E+03	1.596839E-16	7.664609E-18
3.460000E+03	1.604264E-16	7.689351E-18
3.470000E+03	1.611584E-16	7.713428E-18
3.480000E+03	1.618991E-16	7.737755E-18
3.490000E+03	1.626091E-16	7.760450E-18
3.500000E+03	1.633273E-16	7.783377E-18
3.510000E+03	1.640337E-16	7.805574E-18
3.520000E+03	1.647280E-16	7.827035E-18
3.530000E+03	1.654099E-16	7.847741E-18
3.540000E+03	1.660791E-16	7.867685E-18
3.550000E+03	1.667549E-16	7.887774E-18
3.560000E+03	1.673977E-16	7.906142E-18
3.570000E+03	1.680463E-16	7.924624E-18
3.580000E+03	1.686810E-16	7.942288E-18
3.590000E+03	1.693013E-16	7.959112E-18
3.600000E+03	1.699069E-16	7.975086E-18
3.610000E+03	1.705171E-16	7.991114E-18
3.620000E+03	1.710923E-16	8.005344E-18
3.630000E+03	1.716715E-16	8.019604E-18
3.640000E+03	1.722346E-16	8.032954E-18
3.650000E+03	1.727813E-16	8.045384E-18
3.660000E+03	1.733114E-16	8.056887E-18
3.670000E+03	1.738245E-16	8.067444E-18
3.680000E+03	1.743399E-16	8.077955E-18
3.690000E+03	1.748180E-16	8.086588E-18
3.700000E+03	1.752977E-16	8.095147E-18
3.710000E+03	1.757396E-16	8.101813E-18
3.720000E+03	1.761826E-16	8.108383E-18
3.730000E+03	1.766066E-16	8.113934E-18
3.740000E+03	1.770312E-16	8.119367E-18
3.750000E+03	1.774168E-16	8.122869E-18
3.760000E+03	1.777826E-16	8.125332E-18
3.770000E+03	1.781481E-16	8.127638E-18
3.780000E+03	1.784738E-16	8.127997E-18
3.790000E+03	1.787986E-16	8.128185E-18
3.800000E+03	1.791027E-16	8.127297E-18
3.810000E+03	1.793860E-16	8.125338E-18
3.820000E+03	1.796483E-16	8.122301E-18
3.830000E+03	1.798893E-16	8.118184E-18
3.840000E+03	1.801090E-16	8.112980E-18
3.850000E+03	1.803072E-16	8.106694E-18
3.860000E+03	1.805030E-16	8.100183E-18
3.870000E+03	1.806578E-16	8.091723E-18
3.880000E+03	1.808100E-16	8.083036E-18
3.890000E+03	1.809214E-16	8.072421E-18
3.900000E+03	1.810298E-16	8.061571E-18
3.910000E+03	1.811164E-16	8.049646E-18
3.920000E+03	1.811812E-16	8.036655E-18
3.930000E+03	1.812241E-16	8.022604E-18
3.940000E+03	1.812453E-16	8.007500E-18
3.950000E+03	1.812450E-16	7.991359E-18
3.960000E+03	1.812233E-16	7.974192E-18
3.970000E+03	1.811804E-16	7.956014E-18
3.980000E+03	1.811165E-16	7.936839E-18
3.990000E+03	1.810502E-16	7.917486E-18
4.000000E+03	1.809451E-16	7.896363E-18
4.010000E+03	1.808200E-16	7.874304E-18
4.020000E+03	1.806932E-16	7.852107E-18
4.030000E+03	1.805289E-16	7.828223E-18
4.040000E+03	1.803458E-16	7.803469E-18
4.050000E+03	1.801622E-16	7.778642E-18
4.060000E+03	1.799427E-16	7.752219E-18
4.070000E+03	1.797236E-16	7.725763E-18
4.080000E+03	1.794701E-16	7.697786E-18
4.090000E+03	1.792179E-16	7.669829E-18
4.100000E+03	1.789326E-16	7.640421E-18
4.110000E+03	1.786500E-16	7.611092E-18
4.120000E+03	1.783358E-16	7.580391E-18
4.130000E+03	1.780256E-16	7.549832E-18
4.140000E+03	1.776855E-16	7.517982E-18
4.150000E+03	1.773506E-16	7.486333E-18
4.160000E+03	1.769878E-16	7.453485E-18
4.170000E+03	1.766317E-16	7.420908E-18
4.180000E+03	1.762495E-16	7.387216E-18
4.190000E+03	1.758589E-16	7.353166E-18
4.200000E+03	1.754777E-16	7.319494E-18
4.210000E+03	1.750730E-16	7.284842E-18
4.220000E+03	1.746630E-16	7.249958E-18
4.230000E+03	1.742482E-16	7.214876E-18
4.240000E+03	1.738459E-16	7.180309E-18
4.250000E+03	1.734246E-16	7.144954E-18
4.260000E+03	1.730014E-16	7.109523E-18
4.270000E+03	1.725774E-16	7.074059E-18
4.280000E+03	1.721535E-16	7.038601E-18
4.290000E+03	1.717147E-16	7.002540E-18
4.300000E+03	1.712938E-16	6.967214E-18
4.310000E+03	1.708757E-16	6.932004E-18
4.320000E+03	1.704459E-16	6.896323E-18
4.330000E+03	1.700364E-16	6.861466E-18
4.340000E+03	1.696171E-16	6.826216E-18
4.350000E+03	1.692042E-16	6.791232E-18
4.360000E+03	1.688141E-16	6.757163E-18
4.370000E+03	1.684169E-16	6.722811E-18
4.380000E+03	1.680287E-16	6.688818E-18
4.390000E+03	1.676354E-16	6.654623E-18
4.400000E+03	1.672679E-16	6.621448E-18
4.410000E+03	1.669114E-16	6.588711E-18
4.420000E+03	1.665524E-16	6.555865E-18
4.430000E+03	1.662062E-16	6.523520E-18
4.440000E+03	1.658881E-16	6.492265E-18
4.450000E+03	1.655693E-16	6.460973E-18
4.460000E+03	1.652652E-16	6.430242E-18
4.470000E+03	1.649619E-16	6.399526E-18
4.480000E+03	1.646888E-16	6.369963E-18
4.490000E+03	1.644176E-16	6.340453E-18
4.500000E+03	1.641772E-16	6.312109E-18
4.510000E+03	1.639398E-16	6.283851E-18
4.520000E+03	1.637198E-16	6.256229E-18
4.530000E+03	1.635176E-16	6.229252E-18
4.540000E+03	1.633195E-16	6.202397E-18
4.550000E+03	1.631536E-16	6.176727E-18
4.560000E+03	1.629923E-16	6.151186E-18
4.570000E+03	1.628498E-16	6.126304E-18
4.580000E+03	1.627260E-16	6.102080E-18
4.590000E+03	1.626210E-16	6.078504E-18
4.600000E+03	1.625212E-16	6.055065E-18
4.610000E+03	1.624539E-16	6.032775E-18
4.620000E+03	1.623917E-16	6.010610E-18
4.630000E+03	1.623482E-16	5.989067E-18
4.640000E+03	1.623231E-16	5.968131E-18
4.650000E+03	1.623027E-16	5.947292E-18
4.660000E+03	1.623139E-16	5.927532E-18
4.670000E+03	1.623293E-16	5.907840E-18
4.680000E+03	1.623622E-16	5.888697E-18
4.690000E+03	1.623986E-16	5.869594E-18
4.700000E+03	1.624652E-16	5.851485E-18
4.710000E+03	1.625344E-16	5.833376E-18
4.720000E+03	1.626194E-16	5.815732E-18
4.730000E+03	1.627194E-16	5.798526E-18
4.740000E+03	1.628341E-16	5.781731E-18
4.750000E+03	1.629493E-16	5.764851E-18
4.760000E+03	1.630779E-16	5.748329E-18
4.770000E+03	1.632192E-16	5.732145E-18
4.780000E+03	1.633724E-16	5.716261E-18
4.790000E+03	1.635235E-16	5.700186E-18
4.800000E+03	1.636852E-16	5.684359E-18
4.810000E+03	1.638565E-16	5.668749E-18
4.820000E+03	1.640367E-16	5.653320E-18
4.830000E+03	1.642117E-16	5.637590E-18
4.840000E+03	1.644070E-16	5.622430E-18
4.850000E+03	1.645822E-16	5.606457E-18
4.860000E+03	1.647760E-16	5.590993E-18
4.870000E+03	1.649741E-16	5.575547E-18
4.880000E+03	1.651625E-16	5.559647E-18
4.890000E+03	1.653532E-16	5.543698E-18
4.900000E+03	1.655453E-16	5.527673E-18
4.910000E+03	1.657247E-16	5.511098E-18
4.920000E+03	1.659033E-16	5.494374E-18
4.930000E+03	1.660803E-16	5.477477E-18
4.940000E+03	1.662543E-16	5.460363E-18
4.950000E+03	1.664113E-16	5.442571E-18
4.960000E+03	1.665634E-16	5.424505E-18
4.970000E+03	1.667092E-16	5.406126E-18
4.980000E+03	1.668478E-16	5.387404E-18
4.990000E+03	1.669650E-16	5.367889E-18
5.000000E+03	1.670858E-16	5.348387E-18
5.010000E+03	1.671699E-16	5.327614E-18
5.020000E+03	1.672555E-16	5.306800E-18
5.030000E+03	1.673153E-16	5.285082E-18
5.040000E+03	1.673613E-16	5.262850E-18
5.050000E+03	1.673925E-16	5.240078E-18
5.060000E+03	1.674080E-16	5.216745E-18
5.070000E+03	1.673935E-16	5.192417E-18
5.080000E+03	1.673613E-16	5.167488E-18
5.090000E+03	1.673105E-16	5.141936E-18
5.100000E+03	1.672272E-16	5.115349E-18
5.110000E+03	1.671365E-16	5.088501E-18
5.120000E+03	1.670118E-16	5.060595E-18
5.130000E+03	1.668524E-16	5.031627E-18
5.140000E+03	1.666834E-16	5.002361E-18
5.150000E+03	1.664784E-16	4.972022E-18
5.160000E+03	1.662500E-16	4.940994E-18
5.170000E+03	1.659975E-16	4.909275E-18
5.180000E+03	1.657079E-16	4.876488E-18
5.190000E+03	1.653936E-16	4.843020E-18
5.200000E+03	1.650544E-16	4.808874E-18
5.210000E+03	1.646900E-16	4.774057E-18
5.220000E+03	1.642881E-16	4.738224E-18
5.230000E+03	1.638609E-16	4.701749E-18
5.240000E+03	1.634088E-16	4.664648E-18
5.250000E+03	1.629317E-16	4.626939E-18
5.260000E+03	1.624176E-16	4.588294E-18
5.270000E+03	1.618792E-16	4.549088E-18
5.280000E+03	1.613169E-16	4.509345E-18
5.290000E+03	1.607311E-16	4.469088E-18
5.300000E+03	1.601101E-16	4.428006E-18
5.310000E+03	1.594667E-16	4.386475E-18
5.320000E+03	1.588016E-16	4.344519E-18
5.330000E+03	1.581152E-16	4.302167E-18
5.340000E+03	1.573967E-16	4.259132E-18
5.350000E+03	1.566586E-16	4.215774E-18
5.360000E+03	1.559017E-16	4.172124E-18
5.370000E+03	1.551270E-16	4.128214E-18
5.380000E+03	1.543235E-16	4.083771E-18
5.390000E+03	1.535040E-16	4.039146E-18
5.400000E+03	1.526694E-16	3.994368E-18
5.410000E+03	1.518206E-16	3.949473E-18
5.420000E+03	1.509473E-16	3.904202E-18
5.430000E+03	1.500618E-16	3.858887E-18
5.440000E+03	1.491653E-16	3.813565E-18
5.450000E+03	1.482588E-16	3.768271E-18
5.460000E+03	1.473433E-16	3.723034E-18
5.470000E+03	1.464088E-16	3.677613E-18
5.480000E+03	1.454675E-16	3.632324E-18
5.490000E+03	1.445207E-16	3.587201E-18
5.500000E+03	1.435586E-16	3.542009E-18
5.510000E+03	1.426037E-16	3.497313E-18
5.520000E+03	1.416360E-16	3.452620E-18
5.530000E+03	1.406672E-16	3.408226E-18
5.540000E+03	1.396984E-16	3.364157E-18
5.550000E+03	1.387206E-16	3.320201E-18
5.560000E+03	1.377555E-16	3.276884E-18
5.570000E+03	1.367838E-16	3.233743E-18
5.580000E+03	1.358170E-16	3.191054E-18
5.590000E+03	1.348462E-16	3.148611E-18
5.600000E+03	1.338927E-16	3.106915E-18
5.610000E+03	1.329377E-16	3.065523E-18
5.620000E+03	1.319925E-16	3.024699E-18
5.630000E+03	1.310582E-16	2.984468E-18
5.640000E+03	1.301360E-16	2.944851E-18
5.650000E+03	1.292173E-16	2.905657E-18
5.660000E+03	1.283131E-16	2.867132E-18
5.670000E+03	1.274247E-16	2.829298E-18
5.680000E+03	1.265529E-16	2.792172E-18
5.690000E+03	1.256990E-16	2.755775E-18
5.700000E+03	1.248638E-16	2.720124E-18
5.710000E+03	1.240394E-16	2.685038E-18
5.720000E+03	1.232360E-16	2.650738E-18
5.730000E+03	1.224545E-16	2.617237E-18
5.740000E+03	1.216958E-16	2.584548E-18
5.750000E+03	1.209519E-16	2.552493E-18
5.760000E+03	1.202415E-16	2.521466E-18
5.770000E+03	1.195477E-16	2.491098E-18
5.780000E+03	1.188799E-16	2.461586E-18
5.790000E+03	1.182389E-16	2.432936E-18
5.800000E+03	1.176253E-16	2.405155E-18
5.810000E+03	1.170396E-16	2.378245E-18
5.820000E+03	1.164739E-16	2.352037E-18
5.830000E+03	1.159371E-16	2.326708E-18
5.840000E+03	1.154296E-16	2.302259E-18
5.850000E+03	1.149519E-16	2.278691E-18
5.860000E+03	1.145042E-16	2.256000E-18
5.870000E+03	1.140867E-16	2.234186E-18
5.880000E+03	1.136911E-16	2.213078E-18
5.890000E+03	1.133343E-16	2.193001E-18
5.900000E+03	1.129996E-16	2.173625E-18
5.910000E+03	1.126954E-16	2.155105E-18
5.920000E+03	1.124215E-16	2.137434E-18
5.930000E+03	1.121779E-16	2.120605E-18
5.940000E+03	1.119559E-16	2.104451E-18
5.950000E+03	1.117719E-16	2.089274E-18
5.960000E+03	1.116089E-16	2.074756E-18
5.970000E+03	1.114748E-16	2.061037E-18
5.980000E+03	1.113690E-16	2.048108E-18
5.990000E+03	1.112910E-16	2.035952E-18
6.000000E+03	1.112401E-16	2.024556E-18
6.010000E+03	1.112155E-16	2.013907E-18
6.020000E+03	1.112164E-16	2.003985E-18
6.030000E+03	1.112336E-16	1.994628E-18
6.040000E+03	1.112743E-16	1.985965E-18
6.050000E+03	1.113456E-16	1.978126E-18
6.060000E+03	1.114298E-16	1.970794E-18
6.070000E+03	1.115339E-16	1.964096E-18
6.080000E+03	1.116480E-16	1.957862E-18
6.090000E+03	1.117872E-16	1.952362E-18
6.100000E+03	1.119417E-16	1.947424E-18
6.110000E+03	1.121011E-16	1.942877E-18
6.120000E+03	1.122805E-16	1.938983E-18
6.130000E+03	1.124609E-16	1.935423E-18
6.140000E+03	1.126489E-16	1.932312E-18
6.150000E+03	1.128504E-16	1.929762E-18
6.160000E+03	1.130465E-16	1.927453E-18
6.170000E+03	1.132432E-16	1.925488E-18
6.180000E+03	1.134295E-16	1.923679E-18
6.190000E+03	1.136198E-16	1.922264E-18
6.200000E+03	1.138031E-16	1.921056E-18
6.210000E+03	1.139685E-16	1.919866E-18
6.220000E+03	1.141302E-16	1.918930E-18
6.230000E+03	1.142687E-16	1.917917E-18
6.240000E+03	1.143987E-16	1.917069E-18
6.250000E+03	1.145004E-16	1.916050E-18
6.260000E+03	1.145800E-16	1.914961E-18
6.270000E+03	1.146352E-16	1.913759E-18
6.280000E+03	1.146636E-16	1.912397E-18
6.290000E+03	1.146632E-16	1.910838E-18
6.300000E+03	1.146319E-16	1.909040E-18
6.310000E+03	1.145593E-16	1.906823E-18
6.320000E+03	1.144607E-16	1.904439E-18
6.330000E+03	1.143262E-16	1.901711E-18
6.340000E+03	1.141460E-16	1.898470E-18
6.350000E+03	1.139361E-16	1.894976E-18
6.360000E+03	1.136785E-16	1.890920E-18
6.370000E+03	1.133813E-16	1.886427E-18
6.380000E+03	1.130526E-16	1.881625E-18
6.390000E+03	1.126755E-16	1.876221E-18
6.400000E+03	1.122585E-16	1.870347E-18
6.410000E+03	1.118022E-16	1.864002E-18
6.420000E+03	1.113072E-16	1.857189E-18
6.430000E+03	1.107745E-16	1.849912E-18
6.440000E+03	1.102053E-16	1.842178E-18
6.450000E+03	1.096010E-16	1.834005E-18
6.460000E+03	1.089550E-16	1.825268E-18
6.470000E+03	1.082856E-16	1.816262E-18
6.480000E+03	1.075864E-16	1.806873E-18
6.490000E+03	1.068518E-16	1.796993E-18
6.500000E+03	1.060999E-16	1.786917E-18
6.510000E+03	1.053252E-16	1.776544E-18
6.520000E+03	1.045222E-16	1.765770E-18
6.530000E+03	1.037015E-16	1.754766E-18
6.540000E+03	1.028736E-16	1.743697E-18
6.550000E+03	1.020254E-16	1.732338E-18
6.560000E+03	1.011676E-16	1.720857E-18
6.570000E+03	1.003103E-16	1.709421E-18
6.580000E+03	9.944097E-17	1.697811E-18
6.590000E+03	9.856993E-17	1.686194E-18
6.600000E+03	9.769974E-17	1.674608E-18
6.610000E+03	9.683293E-17	1.663090E-18
6.620000E+03	9.597191E-17	1.651679E-18
6.630000E+03	9.511908E-17	1.640409E-18
6.640000E+03	9.427668E-17	1.629316E-18
6.650000E+03	9.344689E-17	1.618433E-18
6.660000E+03	9.263177E-17	1.607795E-18
6.670000E+03	9.183323E-17	1.597431E-18
6.680000E+03	9.105314E-17	1.587371E-18
6.690000E+03	9.028632E-17	1.577525E-18
6.700000E+03	8.954813E-17	1.568159E-18
6.710000E+03	8.883314E-17	1.559178E-18
6.720000E+03	8.814268E-17	1.550605E-18
6.730000E+03	8.747129E-17	1.542344E-18
6.740000E+03	8.683345E-17	1.534651E-18
6.750000E+03	8.621684E-17	1.527310E-18
6.760000E+03	8.563553E-17	1.520570E-18
6.770000E+03	8.507714E-17	1.514213E-18
6.780000E+03	8.455533E-17	1.508486E-18
6.790000E+03	8.405765E-17	1.503167E-18
6.800000E+03	8.359743E-17	1.498497E-18
6.810000E+03	8.316210E-17	1.494254E-18
6.820000E+03	8.275832E-17	1.490561E-18
6.830000E+03	8.239250E-17	1.487534E-18
6.840000E+03	8.205199E-17	1.484951E-18
6.850000E+03	8.174303E-17	1.482927E-18
6.860000E+03	8.146545E-17	1.481461E-18
6.870000E+03	8.121898E-17	1.480553E-18
6.880000E+03	8.100948E-17	1.480313E-18
6.890000E+03	8.082403E-17	1.480510E-18
6.900000E+03	8.066834E-17	1.481250E-18
6.910000E+03	8.054180E-17	1.482528E-18
6.920000E+03	8.044372E-17	1.484334E-18
6.930000E+03	8.037330E-17	1.486657E-18
6.940000E+03	8.032968E-17	1.489486E-18
6.950000E+03	8.031193E-17	1.492806E-18
6.960000E+03	8.031280E-17	1.496488E-18
6.970000E+03	8.034362E-17	1.500745E-18
6.980000E+03	8.039700E-17	1.505444E-18
6.990000E+03	8.047167E-17	1.510565E-18
7.000000E+03	8.056629E-17	1.516087E-18
7.010000E+03	8.067319E-17	1.521868E-18
7.020000E+03	8.080339E-17	1.528120E-18
7.030000E+03	8.094279E-17	1.534580E-18
7.040000E+03	8.110231E-17	1.541458E-18
7.050000E+03	8.127397E-17	1.548605E-18
7.060000E+03	8.144965E-17	1.555871E-18
7.070000E+03	8.164019E-17	1.563464E-18
7.080000E+03	8.183098E-17	1.571108E-18
7.090000E+03	8.202639E-17	1.578889E-18
7.100000E+03	8.223086E-17	1.586894E-18
7.110000E+03	8.242949E-17	1.594839E-18
7.120000E+03	8.262661E-17	1.602809E-18
7.130000E+03	8.282009E-17	1.610764E-18
7.140000E+03	8.301431E-17	1.618790E-18
7.150000E+03	8.319410E-17	1.626594E-18
7.160000E+03	8.336380E-17	1.634261E-18
7.170000E+03	8.352125E-17	1.641748E-18
7.180000E+03	8.366433E-17	1.649015E-18
7.190000E+03	8.379092E-17	1.656018E-18
7.200000E+03	8.389237E-17	1.662588E-18
7.210000E+03	8.397986E-17	1.668943E-18
7.220000E+03	8.404484E-17	1.674914E-18
7.230000E+03	8.408549E-17	1.680463E-18
7.240000E+03	8.409338E-17	1.685420E-18
7.250000E+03	8.408014E-17	1.690014E-18
7.260000E+03	8.403096E-17	1.693946E-18
7.270000E+03	8.395770E-17	1.697452E-18
7.280000E+03	8.384583E-17	1.700235E-18
7.290000E+03	8.370753E-17	1.702538E-18
7.300000E+03	8.352857E-17	1.704068E-18
7.310000E+03	8.331482E-17	1.704940E-18
7.320000E+03	8.307228E-17	1.705271E-18
7.330000E+03	8.278734E-17	1.704779E-18
7.340000E+03	8.246635E-17	1.703588E-18
7.350000E+03	8.210930E-17	1.701691E-18
7.360000E+03	8.171629E-17	1.699087E-18
7.370000E+03	8.128118E-17	1.695639E-18
7.380000E+03	8.081745E-17	1.691623E-18
7.390000E+03	8.031925E-17	1.686911E-18
7.400000E+03	7.978741E-17	1.681514E-18
7.410000E+03	7.921659E-17	1.675311E-18
7.420000E+03	7.862060E-17	1.668589E-18
7.430000E+03	7.798810E-17	1.661099E-18
7.440000E+03	7.732679E-17	1.652999E-18
7.450000E+03	7.664427E-17	1.644444E-18
7.460000E+03	7.592981E-17	1.635198E-18
7.470000E+03	7.519122E-17	1.625420E-18
7.480000E+03	7.443022E-17	1.615143E-18
7.490000E+03	7.364854E-17	1.604396E-18
7.500000E+03	7.284797E-17	1.593210E-18
7.510000E+03	7.203029E-17	1.581615E-18
7.520000E+03	7.119158E-17	1.569514E-18
7.530000E+03	7.034517E-17	1.557191E-18
7.540000E+03	6.948700E-17	1.544548E-18
7.550000E+03	6.861328E-17	1.531493E-18
7.560000E+03	6.773134E-17	1.518179E-18
7.570000E+03	6.684827E-17	1.504760E-18
7.580000E+03	6.595471E-17	1.491018E-18
7.590000E+03	6.505767E-17	1.477104E-18
7.600000E+03	6.415857E-17	1.463044E-18
7.610000E+03	6.325879E-17	1.448865E-18
7.620000E+03	6.235958E-17	1.434590E-18
7.630000E+03	6.146215E-17	1.420242E-18
7.640000E+03	6.056267E-17	1.405729E-18
7.650000E+03	5.967216E-17	1.391302E-18
7.660000E+03	5.878191E-17	1.376756E-18
7.670000E+03	5.789783E-17	1.362226E-18
7.680000E+03	5.702550E-17	1.347841E-18
7.690000E+03	5.615635E-17	1.333397E-18
7.700000E+03	5.529584E-17	1.319022E-18
7.710000E+03	5.444463E-17	1.304731E-18
7.720000E+03	5.360331E-17	1.290538E-18
7.730000E+03	5.276805E-17	1.276348E-18
7.740000E+03	5.194806E-17	1.262386E-18
7.750000E+03	5.113931E-17	1.248553E-18
7.760000E+03	5.033795E-17	1.234757E-18
