#wls	flux	fluxerr
1.600000E+03	3.947760E-16	8.986780E-17
1.640000E+03	3.792232E-16	8.035173E-17
1.680000E+03	3.633932E-16	7.126851E-17
1.720000E+03	3.472990E-16	6.265638E-17
1.760000E+03	3.309916E-16	5.456020E-17
1.800000E+03	3.145503E-16	4.702731E-17
1.840000E+03	2.979526E-16	4.008859E-17
1.880000E+03	2.813187E-16	3.379625E-17
1.920000E+03	2.647020E-16	2.819244E-17
1.960000E+03	2.481781E-16	2.332353E-17
2.000000E+03	2.318342E-16	1.923716E-17
2.040000E+03	2.158163E-16	1.597872E-17
2.080000E+03	2.003204E-16	1.355559E-17
2.120000E+03	1.858589E-16	1.186372E-17
2.160000E+03	1.732626E-16	1.077079E-17
2.200000E+03	1.632281E-16	1.016071E-17
2.240000E+03	1.563264E-16	9.959303E-18
2.280000E+03	1.529697E-16	1.012926E-17
2.320000E+03	1.529998E-16	1.059547E-17
2.360000E+03	1.560674E-16	1.128645E-17
2.400000E+03	1.618903E-16	1.215868E-17
2.440000E+03	1.702259E-16	1.318668E-17
2.480000E+03	1.808541E-16	1.435919E-17
2.520000E+03	1.934874E-16	1.567439E-17
2.560000E+03	2.077655E-16	1.714441E-17
2.600000E+03	2.231836E-16	1.879498E-17
2.640000E+03	2.391158E-16	2.066911E-17
2.680000E+03	2.548386E-16	2.282254E-17
2.720000E+03	2.697802E-16	2.528465E-17
2.760000E+03	2.837632E-16	2.801387E-17
2.800000E+03	2.967007E-16	3.094403E-17
2.840000E+03	3.085488E-16	3.400100E-17
2.880000E+03	3.193182E-16	3.711316E-17
2.920000E+03	3.290335E-16	4.021331E-17
2.960000E+03	3.377873E-16	4.324917E-17
3.000000E+03	3.456667E-16	4.617729E-17
3.010000E+03	3.475234E-16	4.689015E-17
3.020000E+03	3.493301E-16	4.759348E-17
3.030000E+03	3.510879E-16	4.828688E-17
3.040000E+03	3.528140E-16	4.897217E-17
3.050000E+03	3.545019E-16	4.964803E-17
3.060000E+03	3.561528E-16	5.031422E-17
3.070000E+03	3.577758E-16	5.097163E-17
3.080000E+03	3.593646E-16	5.161907E-17
3.090000E+03	3.609207E-16	5.225644E-17
3.100000E+03	3.624605E-16	5.288589E-17
3.110000E+03	3.639705E-16	5.350525E-17
3.120000E+03	3.654595E-16	5.411565E-17
3.130000E+03	3.669217E-16	5.471611E-17
3.140000E+03	3.683805E-16	5.531005E-17
3.150000E+03	3.698156E-16	5.589438E-17
3.160000E+03	3.712357E-16	5.647044E-17
3.170000E+03	3.726495E-16	5.703957E-17
3.180000E+03	3.740583E-16	5.760210E-17
3.190000E+03	3.754498E-16	5.815622E-17
3.200000E+03	3.768463E-16	5.870559E-17
3.210000E+03	3.782355E-16	5.924847E-17
3.220000E+03	3.796258E-16	5.978644E-17
3.230000E+03	3.810119E-16	6.031895E-17
3.240000E+03	3.824022E-16	6.084762E-17
3.250000E+03	3.837983E-16	6.137309E-17
3.260000E+03	3.852016E-16	6.189596E-17
3.270000E+03	3.866071E-16	6.241587E-17
3.280000E+03	3.880230E-16	6.293459E-17
3.290000E+03	3.894508E-16	6.345289E-17
3.300000E+03	3.908858E-16	6.397049E-17
3.310000E+03	3.923357E-16	6.448925E-17
3.320000E+03	3.937959E-16	6.500900E-17
3.330000E+03	3.952742E-16	6.553165E-17
3.340000E+03	3.967658E-16	6.605705E-17
3.350000E+03	3.982724E-16	6.658616E-17
3.360000E+03	3.997952E-16	6.711989E-17
3.370000E+03	4.013357E-16	6.765921E-17
3.380000E+03	4.028951E-16	6.820508E-17
3.390000E+03	4.044685E-16	6.875743E-17
3.400000E+03	4.060628E-16	6.931821E-17
3.410000E+03	4.076668E-16	6.988631E-17
3.420000E+03	4.092926E-16	7.046460E-17
3.430000E+03	4.109285E-16	7.105184E-17
3.440000E+03	4.125737E-16	7.164871E-17
3.450000E+03	4.142267E-16	7.225576E-17
3.460000E+03	4.158796E-16	7.287235E-17
3.470000E+03	4.175343E-16	7.349961E-17
3.480000E+03	4.191774E-16	7.413537E-17
3.490000E+03	4.207864E-16	7.477546E-17
3.500000E+03	4.223432E-16	7.541625E-17
3.510000E+03	4.238251E-16	7.605324E-17
3.520000E+03	4.252223E-16	7.668416E-17
3.530000E+03	4.265093E-16	7.730356E-17
3.540000E+03	4.276870E-16	7.791053E-17
3.550000E+03	4.287498E-16	7.850303E-17
3.560000E+03	4.297017E-16	7.908070E-17
3.570000E+03	4.305402E-16	7.964200E-17
3.580000E+03	4.312710E-16	8.018686E-17
3.590000E+03	4.319125E-16	8.071764E-17
3.600000E+03	4.324648E-16	8.123330E-17
3.610000E+03	4.329494E-16	8.173689E-17
3.620000E+03	4.333787E-16	8.222981E-17
3.630000E+03	4.337609E-16	8.271271E-17
3.640000E+03	4.341097E-16	8.318730E-17
3.650000E+03	4.344431E-16	8.365626E-17
3.660000E+03	4.347692E-16	8.412040E-17
3.670000E+03	4.351099E-16	8.458327E-17
3.680000E+03	4.354672E-16	8.504460E-17
3.690000E+03	4.358562E-16	8.550675E-17
3.700000E+03	4.362858E-16	8.597094E-17
3.710000E+03	4.367687E-16	8.643912E-17
3.720000E+03	4.373063E-16	8.691113E-17
3.730000E+03	4.379080E-16	8.738837E-17
3.740000E+03	4.385771E-16	8.787112E-17
3.750000E+03	4.393198E-16	8.836020E-17
3.760000E+03	4.401362E-16	8.885526E-17
3.770000E+03	4.410296E-16	8.935658E-17
3.776700E+03	1.127404E-16	2.289564E-17
3.802300E+03	1.666368E-16	3.412465E-17
3.827900E+03	2.565850E-16	5.293446E-17
3.853400E+03	3.273273E-16	6.796046E-17
3.879000E+03	3.222331E-16	6.726282E-17
3.904600E+03	2.457532E-16	5.151998E-17
3.930100E+03	1.610121E-16	3.386364E-17
3.955700E+03	1.535621E-16	3.236600E-17
3.981300E+03	1.729215E-16	3.648416E-17
4.006800E+03	1.852868E-16	3.909027E-17
4.032400E+03	1.437330E-16	3.028776E-17
4.058000E+03	1.104996E-16	2.323140E-17
4.083600E+03	8.449984E-17	1.770493E-17
4.109100E+03	1.445852E-16	3.015909E-17
4.134700E+03	1.731963E-16	3.592627E-17
4.160300E+03	2.273435E-16	4.684606E-17
4.185800E+03	2.598984E-16	5.314639E-17
4.211400E+03	2.499403E-16	5.066828E-17
4.237000E+03	2.001355E-16	4.018216E-17
4.262600E+03	2.130820E-16	4.233177E-17
4.288100E+03	2.348452E-16	4.612756E-17
4.313700E+03	2.857489E-16	5.544542E-17
4.339300E+03	2.442102E-16	4.677889E-17
4.364800E+03	1.806352E-16	3.413954E-17
4.390400E+03	2.065215E-16	3.848991E-17
4.416000E+03	2.306273E-16	4.236913E-17
4.441600E+03	2.586318E-16	4.682480E-17
4.467100E+03	2.392051E-16	4.268026E-17
4.492700E+03	2.187965E-16	3.847884E-17
4.518300E+03	2.032402E-16	3.524765E-17
4.543800E+03	2.026206E-16	3.468398E-17
4.569400E+03	1.729129E-16	2.924899E-17
4.595000E+03	1.511575E-16	2.530944E-17
4.620500E+03	1.319855E-16	2.192308E-17
4.646100E+03	1.549241E-16	2.559535E-17
4.671700E+03	1.391112E-16	2.293229E-17
4.697300E+03	1.453361E-16	2.399275E-17
4.722800E+03	1.134788E-16	1.883546E-17
4.748400E+03	9.424571E-17	1.579581E-17
4.774000E+03	1.020466E-16	1.734141E-17
4.799500E+03	9.404565E-17	1.626244E-17
4.825100E+03	1.134363E-16	2.002385E-17
4.850700E+03	1.373724E-16	2.481789E-17
4.876300E+03	1.333438E-16	2.470543E-17
4.901800E+03	1.283963E-16	2.443105E-17
4.927400E+03	1.230004E-16	2.406417E-17
4.953000E+03	1.341853E-16	2.701010E-17
4.978500E+03	1.626548E-16	3.369193E-17
5.004100E+03	1.606454E-16	3.424648E-17
5.029700E+03	1.525261E-16	3.345628E-17
5.055300E+03	1.521935E-16	3.433426E-17
5.080800E+03	1.471483E-16	3.411808E-17
5.106400E+03	1.439307E-16	3.427849E-17
5.132000E+03	1.489638E-16	3.641188E-17
5.157500E+03	1.540427E-16	3.860839E-17
5.183100E+03	1.659408E-16	4.261102E-17
5.208700E+03	1.600239E-16	4.206056E-17
5.234200E+03	1.571547E-16	4.223649E-17
5.259800E+03	1.602133E-16	4.398968E-17
5.285400E+03	1.547432E-16	4.336495E-17
5.311000E+03	1.496800E-16	4.277138E-17
5.336500E+03	1.256735E-16	3.658109E-17
5.362100E+03	1.098332E-16	3.253884E-17
5.387700E+03	1.074483E-16	3.236910E-17
5.413200E+03	1.024844E-16	3.136483E-17
5.438800E+03	1.104983E-16	3.432806E-17
5.464400E+03	1.184784E-16	3.733168E-17
5.490000E+03	1.064289E-16	3.398504E-17
5.515500E+03	1.051377E-16	3.399464E-17
5.541100E+03	1.174119E-16	3.841262E-17
5.566700E+03	1.443814E-16	4.775925E-17
5.592200E+03	1.457314E-16	4.870249E-17
5.617800E+03	1.398261E-16	4.717917E-17
5.643400E+03	1.141185E-16	3.884959E-17
5.668900E+03	1.167790E-16	4.008338E-17
5.694500E+03	1.301328E-16	4.500853E-17
5.720100E+03	1.376235E-16	4.793406E-17
5.745700E+03	1.247742E-16	4.373861E-17
5.771200E+03	1.348737E-16	4.755564E-17
5.796800E+03	1.350981E-16	4.788887E-17
5.822400E+03	1.566887E-16	5.580975E-17
5.847900E+03	1.480599E-16	5.296352E-17
5.873500E+03	1.342888E-16	4.822271E-17
5.899100E+03	1.141914E-16	4.114582E-17
5.924700E+03	1.173361E-16	4.240572E-17
5.950200E+03	1.042747E-16	3.778315E-17
5.975800E+03	1.052171E-16	3.821020E-17
6.001400E+03	1.089340E-16	3.963547E-17
6.026900E+03	1.196679E-16	4.361027E-17
6.052500E+03	1.172012E-16	4.276756E-17
6.078100E+03	1.000514E-16	3.654832E-17
6.103700E+03	8.444434E-17	3.087305E-17
6.129200E+03	8.230411E-17	3.010997E-17
6.154800E+03	7.953821E-17	2.911218E-17
6.180400E+03	9.040526E-17	3.310132E-17
6.205900E+03	1.031079E-16	3.776173E-17
6.231500E+03	1.096941E-16	4.018115E-17
6.257100E+03	9.860743E-17	3.612526E-17
6.282600E+03	7.309226E-17	2.678136E-17
6.308200E+03	6.868553E-17	2.517085E-17
6.333800E+03	8.519795E-17	3.122900E-17
6.359400E+03	1.002822E-16	3.676947E-17
6.384900E+03	1.071577E-16	3.930609E-17
6.410500E+03	1.060876E-16	3.893151E-17
6.436100E+03	1.022804E-16	3.755273E-17
6.461600E+03	1.072402E-16	3.939279E-17
6.487200E+03	1.126985E-16	4.141634E-17
6.512800E+03	1.081436E-16	3.975747E-17
6.538400E+03	1.039052E-16	3.820981E-17
6.563900E+03	1.086737E-16	3.996902E-17
6.589500E+03	1.026396E-16	3.774888E-17
6.615100E+03	1.078334E-16	3.965041E-17
6.640600E+03	1.109343E-16	4.077258E-17
6.666200E+03	1.005253E-16	3.692110E-17
6.691800E+03	9.439724E-17	3.463634E-17
6.717400E+03	9.751704E-17	3.573480E-17
6.742900E+03	9.620415E-17	3.519645E-17
6.768500E+03	9.688623E-17	3.537529E-17
6.794100E+03	8.201844E-17	2.987531E-17
6.819600E+03	6.371155E-17	2.314229E-17
6.845200E+03	6.012310E-17	2.176811E-17
6.870800E+03	6.413999E-17	2.313648E-17
6.896300E+03	5.890479E-17	2.115939E-17
6.921900E+03	6.345427E-17	2.268654E-17
6.947500E+03	7.062896E-17	2.511959E-17
6.973100E+03	7.032040E-17	2.486515E-17
6.998600E+03	7.276450E-17	2.556637E-17
7.024200E+03	7.552750E-17	2.635256E-17
7.049800E+03	7.542876E-17	2.611876E-17
7.075300E+03	7.616225E-17	2.615704E-17
7.100900E+03	6.813114E-17	2.319137E-17
7.126500E+03	6.338941E-17	2.137141E-17
7.152100E+03	6.143829E-17	2.050157E-17
7.177600E+03	6.040512E-17	1.993706E-17
7.203200E+03	6.960996E-17	2.270710E-17
7.228800E+03	7.634747E-17	2.459594E-17
7.254300E+03	7.508935E-17	2.387368E-17
7.279900E+03	7.369544E-17	2.310463E-17
7.305500E+03	6.657816E-17	2.056705E-17
7.331100E+03	6.310573E-17	1.919355E-17
7.356600E+03	5.517666E-17	1.651137E-17
7.382200E+03	4.550159E-17	1.338567E-17
7.407800E+03	4.366251E-17	1.261795E-17
7.433300E+03	4.711801E-17	1.336779E-17
7.458900E+03	4.457580E-17	1.240643E-17
7.484500E+03	4.161727E-17	1.135626E-17
7.510000E+03	4.179880E-17	1.117758E-17
7.535600E+03	4.716985E-17	1.235530E-17
7.561200E+03	4.666775E-17	1.196968E-17
7.586800E+03	4.211914E-17	1.057700E-17
7.612300E+03	3.970204E-17	9.762797E-18
7.637900E+03	4.070942E-17	9.804485E-18
7.663500E+03	4.306174E-17	1.016333E-17
7.689000E+03	4.494476E-17	1.040533E-17
7.714600E+03	4.263422E-17	9.693456E-18
7.740200E+03	3.902437E-17	8.728157E-18
7.765800E+03	3.817251E-17	8.416254E-18
7.791300E+03	3.687872E-17	8.036354E-18
7.816900E+03	3.609446E-17	7.797106E-18
7.842500E+03	3.633258E-17	7.807408E-18
7.868000E+03	3.593330E-17	7.710830E-18
7.893600E+03	3.568673E-17	7.679062E-18
7.919200E+03	3.545971E-17	7.684601E-18
7.944700E+03	3.525135E-17	7.725876E-18
7.970300E+03	3.511047E-17	7.812270E-18
7.995900E+03	3.495188E-17	7.922433E-18
8.021500E+03	3.422955E-17	7.927027E-18
8.047000E+03	3.454037E-17	8.191780E-18
8.072600E+03	3.748405E-17	9.123012E-18
8.098200E+03	4.061344E-17	1.015945E-17
8.123700E+03	4.192691E-17	1.079065E-17
8.149300E+03	4.004858E-17	1.061415E-17
8.174900E+03	3.619884E-17	9.884293E-18
8.200500E+03	3.525731E-17	9.920887E-18
8.226000E+03	3.716717E-17	1.077618E-17
8.251600E+03	3.925669E-17	1.172741E-17
8.277200E+03	4.071638E-17	1.252877E-17
8.302700E+03	4.042193E-17	1.280490E-17
8.328300E+03	3.951121E-17	1.288043E-17
8.353900E+03	3.934663E-17	1.319231E-17
8.379500E+03	3.901341E-17	1.344502E-17
8.405000E+03	3.868220E-17	1.369192E-17
8.430600E+03	3.835465E-17	1.393570E-17
8.456200E+03	3.803519E-17	1.417602E-17
8.481700E+03	3.762045E-17	1.437164E-17
8.507300E+03	3.754389E-17	1.469181E-17
8.532900E+03	3.731962E-17	1.494947E-17
8.558400E+03	3.604946E-17	1.477082E-17
8.584000E+03	3.473945E-17	1.455098E-17
8.609600E+03	3.624240E-17	1.550824E-17
8.635200E+03	3.882165E-17	1.695957E-17
8.660700E+03	4.322235E-17	1.926357E-17
8.686300E+03	5.112120E-17	2.323189E-17
8.711900E+03	5.492699E-17	2.543693E-17
8.737400E+03	4.330594E-17	2.042391E-17
8.763000E+03	3.388228E-17	1.626534E-17
8.788600E+03	2.891025E-17	1.411900E-17
8.814200E+03	3.120092E-17	1.549356E-17
8.839700E+03	3.465757E-17	1.748895E-17
8.865300E+03	3.358596E-17	1.721541E-17
8.890900E+03	3.333298E-17	1.734677E-17
8.916400E+03	4.553125E-17	2.404433E-17
8.942000E+03	4.769915E-17	2.555066E-17
8.967600E+03	4.259295E-17	2.313282E-17
8.993200E+03	3.645999E-17	2.006892E-17
9.018700E+03	3.574635E-17	1.993228E-17
9.044300E+03	3.748296E-17	2.116549E-17
9.069900E+03	3.820340E-17	2.183736E-17
9.095400E+03	3.447985E-17	1.994285E-17
9.121000E+03	4.159227E-17	2.433457E-17
9.146600E+03	6.629707E-17	3.922336E-17
9.172100E+03	8.335253E-17	4.984774E-17
9.197700E+03	8.049482E-17	4.864622E-17
9.223300E+03	6.227440E-17	3.801975E-17
9.240000E+03	1.005177E-16	6.176661E-17
9.280000E+03	1.007974E-16	6.287436E-17
9.320000E+03	1.012938E-16	6.409450E-17
9.360000E+03	1.020597E-16	6.546684E-17
9.400000E+03	1.031513E-16	6.703483E-17
9.440000E+03	1.046197E-16	6.883988E-17
9.480000E+03	1.064932E-16	7.090936E-17
9.520000E+03	1.087912E-16	7.326504E-17
9.560000E+03	1.115254E-16	7.592334E-17
9.600000E+03	1.146657E-16	7.887157E-17
9.640000E+03	1.181872E-16	8.209940E-17
9.680000E+03	1.220556E-16	8.558869E-17
9.720000E+03	1.262144E-16	8.930413E-17
9.760000E+03	1.306224E-16	9.321979E-17
9.800000E+03	1.352238E-16	9.729772E-17
9.840000E+03	1.399870E-16	1.015162E-16
9.880000E+03	1.448775E-16	1.058504E-16
9.920000E+03	1.498666E-16	1.102791E-16
9.960000E+03	1.549179E-16	1.147746E-16
1.000000E+04	1.600095E-16	1.193194E-16
1.004000E+04	1.651507E-16	1.239191E-16
1.008000E+04	1.703109E-16	1.285492E-16
1.012000E+04	1.754729E-16	1.331950E-16
1.016000E+04	1.806191E-16	1.378413E-16
1.020000E+04	1.857506E-16	1.424871E-16
1.024000E+04	1.908520E-16	1.471187E-16
1.028000E+04	1.959077E-16	1.517222E-16
1.032000E+04	2.009225E-16	1.562995E-16
