#wls	flux	fluxerr
1.600000E+03	3.115118E-16	6.144034E-18
1.640000E+03	3.085998E-16	6.082092E-18
1.680000E+03	3.051553E-16	6.009629E-18
1.720000E+03	3.011390E-16	5.925899E-18
1.760000E+03	2.965431E-16	5.830778E-18
1.800000E+03	2.913866E-16	5.724667E-18
1.840000E+03	2.855962E-16	5.606161E-18
1.880000E+03	2.792331E-16	5.476495E-18
1.920000E+03	2.723011E-16	5.335783E-18
1.960000E+03	2.648317E-16	5.184672E-18
2.000000E+03	2.568770E-16	5.024221E-18
2.040000E+03	2.485662E-16	4.856990E-18
2.080000E+03	2.400810E-16	4.686556E-18
2.120000E+03	2.316985E-16	4.518341E-18
2.160000E+03	2.238569E-16	4.360885E-18
2.200000E+03	2.169763E-16	4.222345E-18
2.240000E+03	2.114391E-16	4.110097E-18
2.280000E+03	2.075245E-16	4.029485E-18
2.320000E+03	2.053655E-16	3.982988E-18
2.360000E+03	2.049795E-16	3.970828E-18
2.400000E+03	2.063036E-16	3.991663E-18
2.440000E+03	2.092293E-16	4.043273E-18
2.480000E+03	2.136520E-16	4.123521E-18
2.520000E+03	2.194277E-16	4.229511E-18
2.560000E+03	2.264254E-16	4.358607E-18
2.600000E+03	2.344945E-16	4.507810E-18
2.640000E+03	2.435184E-16	4.674780E-18
2.680000E+03	2.534085E-16	4.857725E-18
2.720000E+03	2.641276E-16	5.055845E-18
2.760000E+03	2.756814E-16	5.269156E-18
2.800000E+03	2.880966E-16	5.498075E-18
2.840000E+03	3.014204E-16	5.743402E-18
2.880000E+03	3.157314E-16	6.006525E-18
2.920000E+03	3.311018E-16	6.288699E-18
2.960000E+03	3.476530E-16	6.592100E-18
3.000000E+03	3.654859E-16	6.918489E-18
3.010000E+03	3.701689E-16	7.004123E-18
3.020000E+03	3.749363E-16	7.091262E-18
3.030000E+03	3.797890E-16	7.179923E-18
3.040000E+03	3.847452E-16	7.270444E-18
3.050000E+03	3.897973E-16	7.362678E-18
3.060000E+03	3.949465E-16	7.456646E-18
3.070000E+03	4.002019E-16	7.552518E-18
3.080000E+03	4.055563E-16	7.650152E-18
3.090000E+03	4.110102E-16	7.749555E-18
3.100000E+03	4.165815E-16	7.851064E-18
3.110000E+03	4.222541E-16	7.954368E-18
3.120000E+03	4.280370E-16	8.059637E-18
3.130000E+03	4.339221E-16	8.166712E-18
3.140000E+03	4.399361E-16	8.276091E-18
3.150000E+03	4.460531E-16	8.387287E-18
3.160000E+03	4.522820E-16	8.500462E-18
3.170000E+03	4.586317E-16	8.615779E-18
3.180000E+03	4.651022E-16	8.733235E-18
3.190000E+03	4.716759E-16	8.852494E-18
3.200000E+03	4.783785E-16	8.974036E-18
3.210000E+03	4.851918E-16	9.097516E-18
3.220000E+03	4.921242E-16	9.223084E-18
3.230000E+03	4.991653E-16	9.350546E-18
3.240000E+03	5.063230E-16	9.480044E-18
3.250000E+03	5.135954E-16	9.611539E-18
3.260000E+03	5.209809E-16	9.744996E-18
3.270000E+03	5.284681E-16	9.880198E-18
3.280000E+03	5.360634E-16	1.001726E-17
3.290000E+03	5.437637E-16	1.015613E-17
3.300000E+03	5.515564E-16	1.029655E-17
3.310000E+03	5.594469E-16	1.043863E-17
3.320000E+03	5.674214E-16	1.058211E-17
3.330000E+03	5.754840E-16	1.072706E-17
3.340000E+03	5.836199E-16	1.087320E-17
3.350000E+03	5.918232E-16	1.102042E-17
3.360000E+03	6.000867E-16	1.116858E-17
3.370000E+03	6.084030E-16	1.131754E-17
3.380000E+03	6.167638E-16	1.146714E-17
3.390000E+03	6.251509E-16	1.161705E-17
3.400000E+03	6.335636E-16	1.176724E-17
3.410000E+03	6.419733E-16	1.191719E-17
3.420000E+03	6.503867E-16	1.206702E-17
3.430000E+03	6.587737E-16	1.221618E-17
3.440000E+03	6.671219E-16	1.236442E-17
3.450000E+03	6.754180E-16	1.251151E-17
3.460000E+03	6.836396E-16	1.265702E-17
3.470000E+03	6.917822E-16	1.280089E-17
3.480000E+03	6.998233E-16	1.294269E-17
3.490000E+03	7.077408E-16	1.308202E-17
3.500000E+03	7.155229E-16	1.321866E-17
3.510000E+03	7.231492E-16	1.335224E-17
3.520000E+03	7.306202E-16	1.348276E-17
3.530000E+03	7.379011E-16	1.360961E-17
3.540000E+03	7.449966E-16	1.373286E-17
3.550000E+03	7.518954E-16	1.385231E-17
3.560000E+03	7.585982E-16	1.396799E-17
3.570000E+03	7.650903E-16	1.407962E-17
3.580000E+03	7.713690E-16	1.418716E-17
3.590000E+03	7.774524E-16	1.429095E-17
3.600000E+03	7.833244E-16	1.439070E-17
3.610000E+03	7.890081E-16	1.448685E-17
3.620000E+03	7.945095E-16	1.457950E-17
3.630000E+03	7.998278E-16	1.466864E-17
3.640000E+03	8.049723E-16	1.475446E-17
3.650000E+03	8.099623E-16	1.483732E-17
3.660000E+03	8.147997E-16	1.491724E-17
3.670000E+03	8.195137E-16	1.499477E-17
3.680000E+03	8.240980E-16	1.506980E-17
3.690000E+03	8.285725E-16	1.514270E-17
3.700000E+03	8.329481E-16	1.521366E-17
3.710000E+03	8.372435E-16	1.528303E-17
3.720000E+03	8.414596E-16	1.535084E-17
3.730000E+03	8.456134E-16	1.541739E-17
3.740000E+03	8.497123E-16	1.548282E-17
3.750000E+03	8.537711E-16	1.554740E-17
3.760000E+03	8.577947E-16	1.561122E-17
3.770000E+03	8.617955E-16	1.567451E-17
3.780000E+03	8.657756E-16	1.573730E-17
3.790000E+03	8.697360E-16	1.579963E-17
3.800000E+03	8.737023E-16	1.586194E-17
3.810000E+03	8.776556E-16	1.592389E-17
3.820000E+03	8.816100E-16	1.598576E-17
3.830000E+03	8.855790E-16	1.604776E-17
3.840000E+03	8.895485E-16	1.610966E-17
3.850000E+03	8.935212E-16	1.617151E-17
3.860000E+03	8.975071E-16	1.623347E-17
3.870000E+03	9.015066E-16	1.629556E-17
3.880000E+03	9.055198E-16	1.635777E-17
3.890000E+03	9.095374E-16	1.641995E-17
3.900000E+03	9.135669E-16	1.648223E-17
3.910000E+03	9.176064E-16	1.654456E-17
3.920000E+03	9.216541E-16	1.660692E-17
3.930000E+03	9.257078E-16	1.666928E-17
3.940000E+03	9.297656E-16	1.673158E-17
3.950000E+03	9.338333E-16	1.679394E-17
3.960000E+03	9.379091E-16	1.685633E-17
3.970000E+03	9.419825E-16	1.691856E-17
3.980000E+03	9.460690E-16	1.698090E-17
3.990000E+03	9.501588E-16	1.704317E-17
4.000000E+03	9.542597E-16	1.710553E-17
4.010000E+03	9.583716E-16	1.716796E-17
4.020000E+03	9.624865E-16	1.723033E-17
4.030000E+03	9.666229E-16	1.729296E-17
4.040000E+03	9.707745E-16	1.735573E-17
4.050000E+03	9.749530E-16	1.741887E-17
4.060000E+03	9.791628E-16	1.748245E-17
4.070000E+03	9.834089E-16	1.754655E-17
4.080000E+03	9.876978E-16	1.761128E-17
4.090000E+03	9.920456E-16	1.767695E-17
4.100000E+03	9.964521E-16	1.774353E-17
4.110000E+03	1.000927E-15	1.781120E-17
4.120000E+03	1.005497E-15	1.788045E-17
4.130000E+03	1.010157E-15	1.795115E-17
4.140000E+03	1.014926E-15	1.802367E-17
4.150000E+03	1.019818E-15	1.809821E-17
4.160000E+03	1.024843E-15	1.817499E-17
4.170000E+03	1.030014E-15	1.825422E-17
4.180000E+03	1.035342E-15	1.833610E-17
4.190000E+03	1.040841E-15	1.842084E-17
4.200000E+03	1.046520E-15	1.850861E-17
4.210000E+03	1.052388E-15	1.859959E-17
4.220000E+03	1.058456E-15	1.869392E-17
4.230000E+03	1.064721E-15	1.879158E-17
4.240000E+03	1.071190E-15	1.889264E-17
4.250000E+03	1.077874E-15	1.899735E-17
4.260000E+03	1.084778E-15	1.910574E-17
4.270000E+03	1.091881E-15	1.921747E-17
4.280000E+03	1.099191E-15	1.933263E-17
4.290000E+03	1.106702E-15	1.945114E-17
4.300000E+03	1.114409E-15	1.957289E-17
4.310000E+03	1.122299E-15	1.969767E-17
4.320000E+03	1.130351E-15	1.982506E-17
4.330000E+03	1.138568E-15	1.995516E-17
4.340000E+03	1.146912E-15	2.008727E-17
4.350000E+03	1.155382E-15	2.022137E-17
4.360000E+03	1.163956E-15	2.035706E-17
4.370000E+03	1.172616E-15	2.049406E-17
4.380000E+03	1.181335E-15	2.063185E-17
4.390000E+03	1.190092E-15	2.077009E-17
4.400000E+03	1.198853E-15	2.090819E-17
4.410000E+03	1.207606E-15	2.104592E-17
4.420000E+03	1.216309E-15	2.118256E-17
4.430000E+03	1.224924E-15	2.131747E-17
4.440000E+03	1.233428E-15	2.145022E-17
4.450000E+03	1.241776E-15	2.158006E-17
4.460000E+03	1.249932E-15	2.170635E-17
4.470000E+03	1.257868E-15	2.182864E-17
4.480000E+03	1.265525E-15	2.194588E-17
4.490000E+03	1.272869E-15	2.205754E-17
4.500000E+03	1.279864E-15	2.216297E-17
4.510000E+03	1.286456E-15	2.226126E-17
4.520000E+03	1.292605E-15	2.235173E-17
4.530000E+03	1.298273E-15	2.243375E-17
4.540000E+03	1.303424E-15	2.250672E-17
4.550000E+03	1.308026E-15	2.257009E-17
4.560000E+03	1.312033E-15	2.262312E-17
4.570000E+03	1.315411E-15	2.266523E-17
4.580000E+03	1.318162E-15	2.269646E-17
4.590000E+03	1.320244E-15	2.271615E-17
4.600000E+03	1.321636E-15	2.272394E-17
4.610000E+03	1.322345E-15	2.271997E-17
4.620000E+03	1.322373E-15	2.270432E-17
4.630000E+03	1.321690E-15	2.267649E-17
4.640000E+03	1.320349E-15	2.263742E-17
4.650000E+03	1.318318E-15	2.258659E-17
4.660000E+03	1.315650E-15	2.252493E-17
4.670000E+03	1.312361E-15	2.245273E-17
4.680000E+03	1.308475E-15	2.237046E-17
4.690000E+03	1.304021E-15	2.227859E-17
4.700000E+03	1.299028E-15	2.217765E-17
4.710000E+03	1.293555E-15	2.206869E-17
4.720000E+03	1.287627E-15	2.195213E-17
4.730000E+03	1.281280E-15	2.182863E-17
4.740000E+03	1.274568E-15	2.169908E-17
4.750000E+03	1.267502E-15	2.156371E-17
4.760000E+03	1.260159E-15	2.142385E-17
4.770000E+03	1.252542E-15	2.127955E-17
4.780000E+03	1.244715E-15	2.113189E-17
4.790000E+03	1.236716E-15	2.098156E-17
4.800000E+03	1.228562E-15	2.082883E-17
4.810000E+03	1.220308E-15	2.067464E-17
4.820000E+03	1.212020E-15	2.052011E-17
4.830000E+03	1.203737E-15	2.036590E-17
4.840000E+03	1.195532E-15	2.021326E-17
4.850000E+03	1.187470E-15	2.006325E-17
4.860000E+03	1.179598E-15	1.991669E-17
4.870000E+03	1.171969E-15	1.977446E-17
4.880000E+03	1.164650E-15	1.963766E-17
4.890000E+03	1.157674E-15	1.950685E-17
4.900000E+03	1.151094E-15	1.938292E-17
4.910000E+03	1.144925E-15	1.926609E-17
4.920000E+03	1.139209E-15	1.915705E-17
4.930000E+03	1.133974E-15	1.905629E-17
4.940000E+03	1.129230E-15	1.896391E-17
4.950000E+03	1.125007E-15	1.888042E-17
4.960000E+03	1.121308E-15	1.880585E-17
4.970000E+03	1.118151E-15	1.874049E-17
4.980000E+03	1.115532E-15	1.868425E-17
4.990000E+03	1.113453E-15	1.863714E-17
5.000000E+03	1.111898E-15	1.859888E-17
5.010000E+03	1.110886E-15	1.856978E-17
5.020000E+03	1.110385E-15	1.854927E-17
5.030000E+03	1.110386E-15	1.853718E-17
5.040000E+03	1.110884E-15	1.853342E-17
5.050000E+03	1.111851E-15	1.853752E-17
5.060000E+03	1.113269E-15	1.854914E-17
5.070000E+03	1.115116E-15	1.856791E-17
5.080000E+03	1.117368E-15	1.859343E-17
5.090000E+03	1.119989E-15	1.862507E-17
5.100000E+03	1.122953E-15	1.866238E-17
5.110000E+03	1.126241E-15	1.870507E-17
5.120000E+03	1.129803E-15	1.875225E-17
5.130000E+03	1.133627E-15	1.880375E-17
5.140000E+03	1.137649E-15	1.885850E-17
5.150000E+03	1.141857E-15	1.891628E-17
5.160000E+03	1.146208E-15	1.897637E-17
5.170000E+03	1.150664E-15	1.903815E-17
5.180000E+03	1.155191E-15	1.910107E-17
5.190000E+03	1.159744E-15	1.916434E-17
5.200000E+03	1.164287E-15	1.922740E-17
5.210000E+03	1.168771E-15	1.928944E-17
5.220000E+03	1.173188E-15	1.935032E-17
5.230000E+03	1.177467E-15	1.940889E-17
5.240000E+03	1.181590E-15	1.946483E-17
5.250000E+03	1.185523E-15	1.951761E-17
5.260000E+03	1.189239E-15	1.956677E-17
5.270000E+03	1.192683E-15	1.961143E-17
5.280000E+03	1.195842E-15	1.965139E-17
5.290000E+03	1.198678E-15	1.968603E-17
5.300000E+03	1.201169E-15	1.971499E-17
5.310000E+03	1.203283E-15	1.973776E-17
5.320000E+03	1.205013E-15	1.975425E-17
5.330000E+03	1.206318E-15	1.976379E-17
5.340000E+03	1.207186E-15	1.976619E-17
5.350000E+03	1.207592E-15	1.976107E-17
5.360000E+03	1.207541E-15	1.974851E-17
5.370000E+03	1.206989E-15	1.972782E-17
5.380000E+03	1.205946E-15	1.969918E-17
5.390000E+03	1.204400E-15	1.966237E-17
5.400000E+03	1.202340E-15	1.961728E-17
5.410000E+03	1.199738E-15	1.956343E-17
5.420000E+03	1.196588E-15	1.950077E-17
5.430000E+03	1.192892E-15	1.942932E-17
5.440000E+03	1.188605E-15	1.934838E-17
5.450000E+03	1.183732E-15	1.925804E-17
5.460000E+03	1.178251E-15	1.915795E-17
5.470000E+03	1.172160E-15	1.904811E-17
5.480000E+03	1.165522E-15	1.892956E-17
5.490000E+03	1.158354E-15	1.880259E-17
5.500000E+03	1.150724E-15	1.866831E-17
5.510000E+03	1.142672E-15	1.852739E-17
5.520000E+03	1.134278E-15	1.838112E-17
5.530000E+03	1.125563E-15	1.822987E-17
5.540000E+03	1.116579E-15	1.807448E-17
5.550000E+03	1.107362E-15	1.791553E-17
5.560000E+03	1.097973E-15	1.775404E-17
5.570000E+03	1.088434E-15	1.759034E-17
5.580000E+03	1.078783E-15	1.742506E-17
5.590000E+03	1.069049E-15	1.725868E-17
5.600000E+03	1.059281E-15	1.709198E-17
5.610000E+03	1.049492E-15	1.692517E-17
5.620000E+03	1.039717E-15	1.675881E-17
5.630000E+03	1.029987E-15	1.659341E-17
5.640000E+03	1.020322E-15	1.642928E-17
5.650000E+03	1.010750E-15	1.626687E-17
5.660000E+03	1.001275E-15	1.610626E-17
5.670000E+03	9.919217E-16	1.594781E-17
5.680000E+03	9.827110E-16	1.579188E-17
5.690000E+03	9.736519E-16	1.563860E-17
5.700000E+03	9.647515E-16	1.548808E-17
5.710000E+03	9.560148E-16	1.534039E-17
5.720000E+03	9.474649E-16	1.519591E-17
5.730000E+03	9.390832E-16	1.505433E-17
5.740000E+03	9.308892E-16	1.491596E-17
5.750000E+03	9.228811E-16	1.478075E-17
5.760000E+03	9.150458E-16	1.464851E-17
5.770000E+03	9.073888E-16	1.451931E-17
5.780000E+03	8.999143E-16	1.439321E-17
5.790000E+03	8.926066E-16	1.426997E-17
5.800000E+03	8.854589E-16	1.414946E-17
5.810000E+03	8.784832E-16	1.403188E-17
5.820000E+03	8.716529E-16	1.391679E-17
5.830000E+03	8.649700E-16	1.380423E-17
5.840000E+03	8.584271E-16	1.369407E-17
5.850000E+03	8.520173E-16	1.358620E-17
5.860000E+03	8.457432E-16	1.348066E-17
5.870000E+03	8.395799E-16	1.337705E-17
5.880000E+03	8.335407E-16	1.327557E-17
5.890000E+03	8.276117E-16	1.317601E-17
5.900000E+03	8.217891E-16	1.307830E-17
5.910000E+03	8.160697E-16	1.298239E-17
5.920000E+03	8.104516E-16	1.288824E-17
5.930000E+03	8.049427E-16	1.279598E-17
5.940000E+03	7.995248E-16	1.270532E-17
5.950000E+03	7.941985E-16	1.261626E-17
5.960000E+03	7.889746E-16	1.252898E-17
5.970000E+03	7.838558E-16	1.244352E-17
5.980000E+03	7.788274E-16	1.235963E-17
5.990000E+03	7.739118E-16	1.227767E-17
6.000000E+03	7.690870E-16	1.219730E-17
6.010000E+03	7.643857E-16	1.211903E-17
6.020000E+03	7.597877E-16	1.204254E-17
6.030000E+03	7.552996E-16	1.196793E-17
6.040000E+03	7.509381E-16	1.189546E-17
6.050000E+03	7.467019E-16	1.182511E-17
6.060000E+03	7.425992E-16	1.175701E-17
6.070000E+03	7.386204E-16	1.169100E-17
6.080000E+03	7.347914E-16	1.162750E-17
6.090000E+03	7.310937E-16	1.156620E-17
6.100000E+03	7.275531E-16	1.150752E-17
6.110000E+03	7.241682E-16	1.145143E-17
6.120000E+03	7.209374E-16	1.139791E-17
6.130000E+03	7.178674E-16	1.134706E-17
6.140000E+03	7.149729E-16	1.129910E-17
6.150000E+03	7.122504E-16	1.125399E-17
6.160000E+03	7.097043E-16	1.121179E-17
6.170000E+03	7.073559E-16	1.117283E-17
6.180000E+03	7.051901E-16	1.113688E-17
6.190000E+03	7.032172E-16	1.110411E-17
6.200000E+03	7.014465E-16	1.107464E-17
6.210000E+03	6.998863E-16	1.104862E-17
6.220000E+03	6.985256E-16	1.102588E-17
6.230000E+03	6.973613E-16	1.100635E-17
6.240000E+03	6.963973E-16	1.099011E-17
6.250000E+03	6.956187E-16	1.097692E-17
6.260000E+03	6.950267E-16	1.096679E-17
6.270000E+03	6.946120E-16	1.095959E-17
6.280000E+03	6.943730E-16	1.095528E-17
6.290000E+03	6.942971E-16	1.095368E-17
6.300000E+03	6.943697E-16	1.095454E-17
6.310000E+03	6.945841E-16	1.095777E-17
6.320000E+03	6.949319E-16	1.096324E-17
6.330000E+03	6.953837E-16	1.097048E-17
6.340000E+03	6.959274E-16	1.097930E-17
6.350000E+03	6.965492E-16	1.098949E-17
6.360000E+03	6.972141E-16	1.100050E-17
6.370000E+03	6.979148E-16	1.101221E-17
6.380000E+03	6.986231E-16	1.102417E-17
6.390000E+03	6.993090E-16	1.103592E-17
6.400000E+03	6.999419E-16	1.104696E-17
6.410000E+03	7.005104E-16	1.105712E-17
6.420000E+03	7.009727E-16	1.106573E-17
6.430000E+03	7.013181E-16	1.107262E-17
6.440000E+03	7.015168E-16	1.107733E-17
6.450000E+03	7.015440E-16	1.107945E-17
6.460000E+03	7.013926E-16	1.107887E-17
6.470000E+03	7.010479E-16	1.107535E-17
6.480000E+03	7.005076E-16	1.106887E-17
6.490000E+03	6.997392E-16	1.105889E-17
6.500000E+03	6.987542E-16	1.104559E-17
6.510000E+03	6.975444E-16	1.102886E-17
6.520000E+03	6.960923E-16	1.100839E-17
6.530000E+03	6.944035E-16	1.098427E-17
6.540000E+03	6.924744E-16	1.095645E-17
6.550000E+03	6.903031E-16	1.092489E-17
6.560000E+03	6.878893E-16	1.088957E-17
6.570000E+03	6.852455E-16	1.085070E-17
6.580000E+03	6.823637E-16	1.080813E-17
6.590000E+03	6.792483E-16	1.076193E-17
6.600000E+03	6.759168E-16	1.071237E-17
6.610000E+03	6.723764E-16	1.065957E-17
6.620000E+03	6.686250E-16	1.060348E-17
6.630000E+03	6.646840E-16	1.054443E-17
6.640000E+03	6.605534E-16	1.048242E-17
6.650000E+03	6.562677E-16	1.041799E-17
6.660000E+03	6.518181E-16	1.035099E-17
6.670000E+03	6.472186E-16	1.028165E-17
6.680000E+03	6.424952E-16	1.021037E-17
6.690000E+03	6.376635E-16	1.013738E-17
6.700000E+03	6.327280E-16	1.006277E-17
6.710000E+03	6.277054E-16	9.986782E-18
6.720000E+03	6.226233E-16	9.909859E-18
6.730000E+03	6.174870E-16	9.832081E-18
6.740000E+03	6.123245E-16	9.753888E-18
6.750000E+03	6.071303E-16	9.675190E-18
6.760000E+03	6.019423E-16	9.596587E-18
6.770000E+03	5.967549E-16	9.517988E-18
6.780000E+03	5.916047E-16	9.439973E-18
6.790000E+03	5.864850E-16	9.362436E-18
6.800000E+03	5.814205E-16	9.285764E-18
6.810000E+03	5.764240E-16	9.210166E-18
6.820000E+03	5.714972E-16	9.135663E-18
6.830000E+03	5.666615E-16	9.062600E-18
6.840000E+03	5.619162E-16	8.990965E-18
6.850000E+03	5.572806E-16	8.921065E-18
6.860000E+03	5.527412E-16	8.852684E-18
6.870000E+03	5.483250E-16	8.786257E-18
6.880000E+03	5.440262E-16	8.721689E-18
6.890000E+03	5.398482E-16	8.659040E-18
6.900000E+03	5.357833E-16	8.598181E-18
6.910000E+03	5.318524E-16	8.539453E-18
6.920000E+03	5.280249E-16	8.482363E-18
6.930000E+03	5.243294E-16	8.427374E-18
6.940000E+03	5.207431E-16	8.374119E-18
6.950000E+03	5.172625E-16	8.322545E-18
6.960000E+03	5.138931E-16	8.272739E-18
6.970000E+03	5.106197E-16	8.224459E-18
6.980000E+03	5.074363E-16	8.177610E-18
6.990000E+03	5.043368E-16	8.132093E-18
7.000000E+03	5.013141E-16	8.087796E-18
7.010000E+03	4.983616E-16	8.044611E-18
7.020000E+03	4.954620E-16	8.002261E-18
7.030000E+03	4.926278E-16	7.960947E-18
7.040000E+03	4.898226E-16	7.920083E-18
7.050000E+03	4.870687E-16	7.880027E-18
7.060000E+03	4.843304E-16	7.840202E-18
7.070000E+03	4.816208E-16	7.800821E-18
7.080000E+03	4.789247E-16	7.761634E-18
7.090000E+03	4.762365E-16	7.722554E-18
7.100000E+03	4.735615E-16	7.683663E-18
7.110000E+03	4.708765E-16	7.644585E-18
7.120000E+03	4.681879E-16	7.605423E-18
7.130000E+03	4.654836E-16	7.565977E-18
7.140000E+03	4.627714E-16	7.526374E-18
7.150000E+03	4.600503E-16	7.486597E-18
7.160000E+03	4.573104E-16	7.446485E-18
7.170000E+03	4.545617E-16	7.406196E-18
7.180000E+03	4.517870E-16	7.365450E-18
7.190000E+03	4.490066E-16	7.324576E-18
7.200000E+03	4.462138E-16	7.283466E-18
7.210000E+03	4.434028E-16	7.242023E-18
7.220000E+03	4.405865E-16	7.200456E-18
7.230000E+03	4.377696E-16	7.158839E-18
7.240000E+03	4.349478E-16	7.117103E-18
7.250000E+03	4.321266E-16	7.075338E-18
7.260000E+03	4.293122E-16	7.033644E-18
7.270000E+03	4.265107E-16	6.992119E-18
7.280000E+03	4.237291E-16	6.950881E-18
7.290000E+03	4.209568E-16	6.909752E-18
7.300000E+03	4.182189E-16	6.869146E-18
7.310000E+03	4.155141E-16	6.829042E-18
7.320000E+03	4.128418E-16	6.789431E-18
7.330000E+03	4.102185E-16	6.750584E-18
7.340000E+03	4.076353E-16	6.712357E-18
7.350000E+03	4.051003E-16	6.674881E-18
7.360000E+03	4.026217E-16	6.638295E-18
7.370000E+03	4.001990E-16	6.602593E-18
7.380000E+03	3.978488E-16	6.568046E-18
7.390000E+03	3.955535E-16	6.534370E-18
7.400000E+03	3.933374E-16	6.501964E-18
7.410000E+03	3.911909E-16	6.470675E-18
7.420000E+03	3.891293E-16	6.440755E-18
7.430000E+03	3.871506E-16	6.412174E-18
7.440000E+03	3.852606E-16	6.385033E-18
7.450000E+03	3.834731E-16	6.359560E-18
7.460000E+03	3.817844E-16	6.335698E-18
7.470000E+03	3.802235E-16	6.313930E-18
7.480000E+03	3.787772E-16	6.294043E-18
7.490000E+03	3.774648E-16	6.276361E-18
7.500000E+03	3.762805E-16	6.260790E-18
7.510000E+03	3.752501E-16	6.247765E-18
7.520000E+03	3.743662E-16	6.237168E-18
7.530000E+03	3.736293E-16	6.229009E-18
7.540000E+03	3.730468E-16	6.223420E-18
7.550000E+03	3.726175E-16	6.220384E-18
7.560000E+03	3.723560E-16	6.220150E-18
7.570000E+03	3.722431E-16	6.222402E-18
7.580000E+03	3.722837E-16	6.227227E-18
7.590000E+03	3.724818E-16	6.234697E-18
7.600000E+03	3.728241E-16	6.244597E-18
7.610000E+03	3.733132E-16	6.256971E-18
7.620000E+03	3.739342E-16	6.271577E-18
7.630000E+03	3.746962E-16	6.288571E-18
7.640000E+03	3.755743E-16	6.307541E-18
7.650000E+03	3.765763E-16	6.328619E-18
7.660000E+03	3.776752E-16	6.351359E-18
7.670000E+03	3.788776E-16	6.375872E-18
7.680000E+03	3.801550E-16	6.401683E-18
7.690000E+03	3.815123E-16	6.428878E-18
7.700000E+03	3.829285E-16	6.457103E-18
7.710000E+03	3.843901E-16	6.486137E-18
7.720000E+03	3.858836E-16	6.515749E-18
7.730000E+03	3.873947E-16	6.545701E-18
7.740000E+03	3.889090E-16	6.575749E-18
7.750000E+03	3.904026E-16	6.605491E-18
7.760000E+03	3.918789E-16	6.634981E-18
