#wls	flux	fluxerr
1.600000E+03	1.996516E-16	6.519035E-18
1.640000E+03	1.962179E-16	6.399945E-18
1.680000E+03	1.926230E-16	6.275659E-18
1.720000E+03	1.889178E-16	6.147853E-18
1.760000E+03	1.850801E-16	6.015833E-18
1.800000E+03	1.811992E-16	5.882510E-18
1.840000E+03	1.772605E-16	5.747432E-18
1.880000E+03	1.733360E-16	5.612943E-18
1.920000E+03	1.694647E-16	5.480314E-18
1.960000E+03	1.656615E-16	5.350021E-18
2.000000E+03	1.619981E-16	5.224382E-18
2.040000E+03	1.585057E-16	5.104393E-18
2.080000E+03	1.552189E-16	4.991147E-18
2.120000E+03	1.521727E-16	4.885748E-18
2.160000E+03	1.493826E-16	4.788663E-18
2.200000E+03	1.468301E-16	4.699270E-18
2.240000E+03	1.444792E-16	4.616387E-18
2.280000E+03	1.423273E-16	4.539909E-18
2.320000E+03	1.404324E-16	4.471646E-18
2.360000E+03	1.389159E-16	4.415427E-18
2.400000E+03	1.378508E-16	4.373499E-18
2.440000E+03	1.372905E-16	4.347478E-18
2.480000E+03	1.372434E-16	4.337536E-18
2.520000E+03	1.377240E-16	4.344033E-18
2.560000E+03	1.387247E-16	4.366619E-18
2.600000E+03	1.402483E-16	4.405277E-18
2.640000E+03	1.422819E-16	4.459483E-18
2.680000E+03	1.448159E-16	4.528820E-18
2.720000E+03	1.478452E-16	4.613008E-18
2.760000E+03	1.513561E-16	4.711490E-18
2.800000E+03	1.553423E-16	4.823948E-18
2.840000E+03	1.598016E-16	4.950174E-18
2.880000E+03	1.647500E-16	5.090533E-18
2.920000E+03	1.702306E-16	5.246196E-18
2.960000E+03	1.763122E-16	5.419120E-18
3.000000E+03	1.830989E-16	5.612307E-18
3.010000E+03	1.849203E-16	5.664189E-18
3.020000E+03	1.867925E-16	5.717523E-18
3.030000E+03	1.887246E-16	5.772588E-18
3.040000E+03	1.907092E-16	5.829152E-18
3.050000E+03	1.927558E-16	5.887499E-18
3.060000E+03	1.948656E-16	5.947659E-18
3.070000E+03	1.970436E-16	6.009783E-18
3.080000E+03	1.992830E-16	6.073658E-18
3.090000E+03	2.015975E-16	6.139693E-18
3.100000E+03	2.039801E-16	6.207674E-18
3.110000E+03	2.064407E-16	6.277893E-18
3.120000E+03	2.089809E-16	6.350391E-18
3.130000E+03	2.115980E-16	6.425085E-18
3.140000E+03	2.143022E-16	6.502273E-18
3.150000E+03	2.170913E-16	6.581880E-18
3.160000E+03	2.199711E-16	6.664083E-18
3.170000E+03	2.229439E-16	6.748934E-18
3.180000E+03	2.260117E-16	6.836493E-18
3.190000E+03	2.291809E-16	6.926941E-18
3.200000E+03	2.324539E-16	7.020344E-18
3.210000E+03	2.358290E-16	7.116644E-18
3.220000E+03	2.393170E-16	7.216153E-18
3.230000E+03	2.429165E-16	7.318821E-18
3.240000E+03	2.466342E-16	7.424844E-18
3.250000E+03	2.504730E-16	7.534291E-18
3.260000E+03	2.544314E-16	7.647116E-18
3.270000E+03	2.585210E-16	7.763650E-18
3.280000E+03	2.627361E-16	7.883713E-18
3.290000E+03	2.670884E-16	8.007641E-18
3.300000E+03	2.715805E-16	8.135507E-18
3.310000E+03	2.762073E-16	8.267141E-18
3.320000E+03	2.809803E-16	8.402874E-18
3.330000E+03	2.859023E-16	8.542779E-18
3.340000E+03	2.909722E-16	8.686808E-18
3.350000E+03	2.961929E-16	8.835034E-18
3.360000E+03	3.015672E-16	8.987531E-18
3.370000E+03	3.070982E-16	9.144368E-18
3.380000E+03	3.127883E-16	9.305608E-18
3.390000E+03	3.186403E-16	9.471321E-18
3.400000E+03	3.246527E-16	9.641442E-18
3.410000E+03	3.308238E-16	9.815906E-18
3.420000E+03	3.371645E-16	9.995026E-18
3.430000E+03	3.436648E-16	1.017848E-17
3.440000E+03	3.503313E-16	1.036646E-17
3.450000E+03	3.571622E-16	1.055888E-17
3.460000E+03	3.641603E-16	1.075582E-17
3.470000E+03	3.713194E-16	1.095708E-17
3.480000E+03	3.786379E-16	1.116259E-17
3.490000E+03	3.861187E-16	1.137242E-17
3.500000E+03	3.937558E-16	1.158638E-17
3.510000E+03	4.015524E-16	1.180454E-17
3.520000E+03	4.094939E-16	1.202647E-17
3.530000E+03	4.175837E-16	1.225223E-17
3.540000E+03	4.258116E-16	1.248153E-17
3.550000E+03	4.341722E-16	1.271418E-17
3.560000E+03	4.426599E-16	1.295001E-17
3.570000E+03	4.512601E-16	1.318857E-17
3.580000E+03	4.599763E-16	1.342995E-17
3.590000E+03	4.687984E-16	1.367385E-17
3.600000E+03	4.777160E-16	1.391995E-17
3.610000E+03	4.867324E-16	1.416833E-17
3.620000E+03	4.958323E-16	1.441853E-17
3.630000E+03	5.050092E-16	1.467035E-17
3.640000E+03	5.142563E-16	1.492359E-17
3.650000E+03	5.235664E-16	1.517803E-17
3.660000E+03	5.329318E-16	1.543343E-17
3.670000E+03	5.423440E-16	1.568953E-17
3.680000E+03	5.517992E-16	1.594623E-17
3.690000E+03	5.612925E-16	1.620337E-17
3.700000E+03	5.708135E-16	1.646064E-17
3.710000E+03	5.803708E-16	1.671828E-17
3.720000E+03	5.899472E-16	1.697579E-17
3.730000E+03	5.995444E-16	1.723321E-17
3.740000E+03	6.091527E-16	1.749026E-17
3.750000E+03	6.187662E-16	1.774676E-17
3.760000E+03	6.283884E-16	1.800282E-17
3.770000E+03	6.379942E-16	1.825770E-17
3.780000E+03	6.475836E-16	1.851139E-17
3.790000E+03	6.571491E-16	1.876370E-17
3.800000E+03	6.666649E-16	1.901387E-17
3.810000E+03	6.761244E-16	1.926172E-17
3.820000E+03	6.855135E-16	1.950685E-17
3.830000E+03	6.948041E-16	1.974847E-17
3.840000E+03	7.039709E-16	1.998585E-17
3.850000E+03	7.130030E-16	2.021871E-17
3.860000E+03	7.218588E-16	2.044586E-17
3.870000E+03	7.305167E-16	2.066672E-17
3.880000E+03	7.389415E-16	2.088030E-17
3.890000E+03	7.471019E-16	2.108574E-17
3.900000E+03	7.549654E-16	2.128215E-17
3.910000E+03	7.624860E-16	2.146826E-17
3.920000E+03	7.696297E-16	2.164314E-17
3.930000E+03	7.763687E-16	2.180605E-17
3.940000E+03	7.826639E-16	2.195593E-17
3.950000E+03	7.884782E-16	2.209178E-17
3.960000E+03	7.937829E-16	2.221285E-17
3.970000E+03	7.985469E-16	2.231832E-17
3.980000E+03	8.027489E-16	2.240765E-17
3.990000E+03	8.063731E-16	2.248045E-17
4.000000E+03	8.094090E-16	2.253650E-17
4.010000E+03	8.118399E-16	2.257538E-17
4.020000E+03	8.136681E-16	2.259724E-17
4.030000E+03	8.149030E-16	2.260238E-17
4.040000E+03	8.155612E-16	2.259134E-17
4.050000E+03	8.156601E-16	2.256465E-17
4.060000E+03	8.152241E-16	2.252306E-17
4.070000E+03	8.142906E-16	2.246765E-17
4.080000E+03	8.128969E-16	2.239951E-17
4.090000E+03	8.110926E-16	2.232005E-17
4.100000E+03	8.089257E-16	2.223063E-17
4.110000E+03	8.064549E-16	2.213292E-17
4.120000E+03	8.037360E-16	2.202846E-17
4.130000E+03	8.008278E-16	2.191891E-17
4.140000E+03	7.977970E-16	2.180611E-17
4.150000E+03	7.947052E-16	2.169175E-17
4.160000E+03	7.916204E-16	2.157769E-17
4.170000E+03	7.885984E-16	2.146547E-17
4.180000E+03	7.857060E-16	2.135688E-17
4.190000E+03	7.829970E-16	2.125337E-17
4.200000E+03	7.805412E-16	2.115682E-17
4.210000E+03	7.783884E-16	2.106855E-17
4.220000E+03	7.765981E-16	2.099012E-17
4.230000E+03	7.752090E-16	2.092255E-17
4.240000E+03	7.742820E-16	2.086743E-17
4.250000E+03	7.738505E-16	2.082561E-17
4.260000E+03	7.739698E-16	2.079851E-17
4.270000E+03	7.746681E-16	2.078683E-17
4.280000E+03	7.759772E-16	2.079135E-17
4.290000E+03	7.779444E-16	2.081326E-17
4.300000E+03	7.805836E-16	2.085285E-17
4.310000E+03	7.839364E-16	2.091117E-17
4.320000E+03	7.880108E-16	2.098833E-17
4.330000E+03	7.928425E-16	2.108519E-17
4.340000E+03	7.984452E-16	2.120202E-17
4.350000E+03	8.048286E-16	2.133900E-17
4.360000E+03	8.120112E-16	2.149650E-17
4.370000E+03	8.200005E-16	2.167463E-17
4.380000E+03	8.288122E-16	2.187371E-17
4.390000E+03	8.384366E-16	2.209336E-17
4.400000E+03	8.488846E-16	2.233379E-17
4.410000E+03	8.601478E-16	2.259466E-17
4.420000E+03	8.722097E-16	2.287543E-17
4.430000E+03	8.850462E-16	2.317537E-17
4.440000E+03	8.986316E-16	2.349370E-17
4.450000E+03	9.129163E-16	2.382905E-17
4.460000E+03	9.278551E-16	2.418012E-17
4.470000E+03	9.433853E-16	2.454522E-17
4.480000E+03	9.594337E-16	2.492235E-17
4.490000E+03	9.759076E-16	2.530903E-17
4.500000E+03	9.927118E-16	2.570276E-17
4.510000E+03	1.009732E-15	2.610053E-17
4.520000E+03	1.026862E-15	2.649954E-17
4.530000E+03	1.043959E-15	2.689614E-17
4.540000E+03	1.060894E-15	2.728696E-17
4.550000E+03	1.077530E-15	2.766854E-17
4.560000E+03	1.093709E-15	2.803684E-17
4.570000E+03	1.109300E-15	2.838858E-17
4.580000E+03	1.124146E-15	2.871980E-17
4.590000E+03	1.138112E-15	2.902718E-17
4.600000E+03	1.151053E-15	2.930709E-17
4.610000E+03	1.162862E-15	2.955700E-17
4.620000E+03	1.173424E-15	2.977410E-17
4.630000E+03	1.182631E-15	2.995583E-17
4.640000E+03	1.190413E-15	3.010059E-17
4.650000E+03	1.196714E-15	3.020716E-17
4.660000E+03	1.201494E-15	3.027473E-17
4.670000E+03	1.204718E-15	3.030263E-17
4.680000E+03	1.206419E-15	3.029186E-17
4.690000E+03	1.206625E-15	3.024336E-17
4.700000E+03	1.205363E-15	3.015801E-17
4.710000E+03	1.202700E-15	3.003765E-17
4.720000E+03	1.198719E-15	2.988456E-17
4.730000E+03	1.193484E-15	2.970053E-17
4.740000E+03	1.187102E-15	2.948837E-17
4.750000E+03	1.179669E-15	2.925061E-17
4.760000E+03	1.171310E-15	2.899050E-17
4.770000E+03	1.162139E-15	2.871101E-17
4.780000E+03	1.152267E-15	2.841494E-17
4.790000E+03	1.141823E-15	2.810563E-17
4.800000E+03	1.130916E-15	2.778578E-17
4.810000E+03	1.119671E-15	2.745855E-17
4.820000E+03	1.108194E-15	2.712661E-17
4.830000E+03	1.096601E-15	2.679277E-17
4.840000E+03	1.085002E-15	2.645979E-17
4.850000E+03	1.073508E-15	2.613037E-17
4.860000E+03	1.062207E-15	2.580659E-17
4.870000E+03	1.051183E-15	2.549054E-17
4.880000E+03	1.040510E-15	2.518391E-17
4.890000E+03	1.030279E-15	2.488887E-17
4.900000E+03	1.020546E-15	2.460676E-17
4.910000E+03	1.011374E-15	2.433895E-17
4.920000E+03	1.002807E-15	2.408648E-17
4.930000E+03	9.949062E-16	2.385071E-17
4.940000E+03	9.877088E-16	2.363245E-17
4.950000E+03	9.812588E-16	2.343265E-17
4.960000E+03	9.756065E-16	2.325241E-17
4.970000E+03	9.707814E-16	2.309232E-17
4.980000E+03	9.668205E-16	2.295314E-17
4.990000E+03	9.637503E-16	2.283539E-17
5.000000E+03	9.616145E-16	2.273997E-17
5.010000E+03	9.604461E-16	2.266753E-17
5.020000E+03	9.602678E-16	2.261847E-17
5.030000E+03	9.611102E-16	2.259338E-17
5.040000E+03	9.630020E-16	2.259279E-17
5.050000E+03	9.659609E-16	2.261696E-17
5.060000E+03	9.700202E-16	2.266653E-17
5.070000E+03	9.752018E-16	2.274184E-17
5.080000E+03	9.815045E-16	2.284272E-17
5.090000E+03	9.889520E-16	2.296956E-17
5.100000E+03	9.975532E-16	2.312240E-17
5.110000E+03	1.007303E-15	2.330097E-17
5.120000E+03	1.018199E-15	2.350504E-17
5.130000E+03	1.030233E-15	2.373428E-17
5.140000E+03	1.043392E-15	2.398819E-17
5.150000E+03	1.057641E-15	2.426585E-17
5.160000E+03	1.072962E-15	2.456668E-17
5.170000E+03	1.089294E-15	2.488914E-17
5.180000E+03	1.106603E-15	2.523229E-17
5.190000E+03	1.124820E-15	2.559446E-17
5.200000E+03	1.143882E-15	2.597406E-17
5.210000E+03	1.163714E-15	2.636930E-17
5.220000E+03	1.184237E-15	2.677825E-17
5.230000E+03	1.205335E-15	2.719823E-17
5.240000E+03	1.226933E-15	2.762746E-17
5.250000E+03	1.248915E-15	2.806325E-17
5.260000E+03	1.271165E-15	2.850299E-17
5.270000E+03	1.293556E-15	2.894375E-17
5.280000E+03	1.315960E-15	2.938269E-17
5.290000E+03	1.338250E-15	2.981698E-17
5.300000E+03	1.360295E-15	3.024373E-17
5.310000E+03	1.381964E-15	3.066006E-17
5.320000E+03	1.403111E-15	3.106281E-17
5.330000E+03	1.423633E-15	3.144978E-17
5.340000E+03	1.443376E-15	3.181765E-17
5.350000E+03	1.462216E-15	3.216385E-17
5.360000E+03	1.480067E-15	3.248659E-17
5.370000E+03	1.496790E-15	3.278300E-17
5.380000E+03	1.512316E-15	3.305172E-17
5.390000E+03	1.526538E-15	3.329063E-17
5.400000E+03	1.539397E-15	3.349858E-17
5.410000E+03	1.550808E-15	3.367398E-17
5.420000E+03	1.560749E-15	3.381654E-17
5.430000E+03	1.569166E-15	3.392530E-17
5.440000E+03	1.576044E-15	3.400019E-17
5.450000E+03	1.581340E-15	3.404049E-17
5.460000E+03	1.585070E-15	3.404676E-17
5.470000E+03	1.587230E-15	3.401917E-17
5.480000E+03	1.587830E-15	3.395816E-17
5.490000E+03	1.586922E-15	3.386506E-17
5.500000E+03	1.584525E-15	3.374048E-17
5.510000E+03	1.580682E-15	3.358557E-17
5.520000E+03	1.575463E-15	3.340200E-17
5.530000E+03	1.568912E-15	3.319093E-17
5.540000E+03	1.561135E-15	3.295475E-17
5.550000E+03	1.552173E-15	3.269454E-17
5.560000E+03	1.542157E-15	3.241318E-17
5.570000E+03	1.531172E-15	3.211264E-17
5.580000E+03	1.519307E-15	3.179489E-17
5.590000E+03	1.506668E-15	3.146229E-17
5.600000E+03	1.493361E-15	3.111715E-17
5.610000E+03	1.479476E-15	3.076145E-17
5.620000E+03	1.465146E-15	3.039798E-17
5.630000E+03	1.450441E-15	3.002832E-17
5.640000E+03	1.435485E-15	2.965504E-17
5.650000E+03	1.420339E-15	2.927946E-17
5.660000E+03	1.405117E-15	2.890394E-17
5.670000E+03	1.389898E-15	2.853010E-17
5.680000E+03	1.374738E-15	2.815908E-17
5.690000E+03	1.359713E-15	2.779247E-17
5.700000E+03	1.344879E-15	2.743139E-17
5.710000E+03	1.330299E-15	2.707706E-17
5.720000E+03	1.316012E-15	2.673024E-17
5.730000E+03	1.302036E-15	2.639130E-17
5.740000E+03	1.288420E-15	2.606118E-17
5.750000E+03	1.275185E-15	2.574023E-17
5.760000E+03	1.262321E-15	2.542824E-17
5.770000E+03	1.249849E-15	2.512556E-17
5.780000E+03	1.237776E-15	2.483227E-17
5.790000E+03	1.226093E-15	2.454819E-17
5.800000E+03	1.214772E-15	2.427267E-17
5.810000E+03	1.203807E-15	2.400557E-17
5.820000E+03	1.193190E-15	2.374668E-17
5.830000E+03	1.182895E-15	2.349543E-17
5.840000E+03	1.172881E-15	2.325102E-17
5.850000E+03	1.163132E-15	2.301304E-17
5.860000E+03	1.153620E-15	2.278094E-17
5.870000E+03	1.144326E-15	2.255431E-17
5.880000E+03	1.135221E-15	2.233258E-17
5.890000E+03	1.126264E-15	2.211489E-17
5.900000E+03	1.117441E-15	2.190099E-17
5.910000E+03	1.108717E-15	2.169014E-17
5.920000E+03	1.100104E-15	2.148259E-17
5.930000E+03	1.091550E-15	2.127729E-17
5.940000E+03	1.083048E-15	2.107414E-17
5.950000E+03	1.074599E-15	2.087312E-17
5.960000E+03	1.066183E-15	2.067386E-17
5.970000E+03	1.057795E-15	2.047624E-17
5.980000E+03	1.049446E-15	2.028047E-17
5.990000E+03	1.041127E-15	2.008640E-17
6.000000E+03	1.032858E-15	1.989438E-17
6.010000E+03	1.024624E-15	1.970414E-17
6.020000E+03	1.016468E-15	1.951648E-17
6.030000E+03	1.008381E-15	1.933123E-17
6.040000E+03	1.000410E-15	1.914928E-17
6.050000E+03	9.925457E-16	1.897045E-17
6.060000E+03	9.848390E-16	1.879569E-17
6.070000E+03	9.773076E-16	1.862532E-17
6.080000E+03	9.699833E-16	1.845994E-17
6.090000E+03	9.628758E-16	1.829970E-17
6.100000E+03	9.560416E-16	1.814568E-17
6.110000E+03	9.494799E-16	1.799782E-17
6.120000E+03	9.432465E-16	1.785716E-17
6.130000E+03	9.373387E-16	1.772363E-17
6.140000E+03	9.317871E-16	1.759778E-17
6.150000E+03	9.266082E-16	1.747990E-17
6.160000E+03	9.218275E-16	1.737045E-17
6.170000E+03	9.174334E-16	1.726919E-17
6.180000E+03	9.134448E-16	1.717645E-17
6.190000E+03	9.098654E-16	1.709228E-17
6.200000E+03	9.067066E-16	1.701686E-17
6.210000E+03	9.039753E-16	1.695033E-17
6.220000E+03	9.016972E-16	1.689314E-17
6.230000E+03	8.999061E-16	1.684591E-17
6.240000E+03	8.986083E-16	1.680874E-17
6.250000E+03	8.978186E-16	1.678189E-17
6.260000E+03	8.975481E-16	1.676557E-17
6.270000E+03	8.977934E-16	1.675970E-17
6.280000E+03	8.985605E-16	1.676439E-17
6.290000E+03	8.998410E-16	1.677947E-17
6.300000E+03	9.016247E-16	1.680477E-17
6.310000E+03	9.039129E-16	1.684030E-17
6.320000E+03	9.066814E-16	1.688562E-17
6.330000E+03	9.099307E-16	1.694076E-17
6.340000E+03	9.136247E-16	1.700504E-17
6.350000E+03	9.177525E-16	1.707830E-17
6.360000E+03	9.222925E-16	1.716013E-17
6.370000E+03	9.272372E-16	1.725043E-17
6.380000E+03	9.325547E-16	1.734863E-17
6.390000E+03	9.382273E-16	1.745442E-17
6.400000E+03	9.442243E-16	1.756724E-17
6.410000E+03	9.505001E-16	1.768625E-17
6.420000E+03	9.570209E-16	1.781084E-17
6.430000E+03	9.637625E-16	1.794055E-17
6.440000E+03	9.706942E-16	1.807485E-17
6.450000E+03	9.777665E-16	1.821280E-17
6.460000E+03	9.849229E-16	1.835337E-17
6.470000E+03	9.920943E-16	1.849529E-17
6.480000E+03	9.991935E-16	1.863694E-17
6.490000E+03	1.006117E-15	1.877637E-17
6.500000E+03	1.012805E-15	1.891250E-17
6.510000E+03	1.019170E-15	1.904367E-17
6.520000E+03	1.025115E-15	1.916806E-17
6.530000E+03	1.030577E-15	1.928447E-17
6.540000E+03	1.035484E-15	1.939156E-17
6.550000E+03	1.039757E-15	1.948780E-17
6.560000E+03	1.043342E-15	1.957215E-17
6.570000E+03	1.046226E-15	1.964433E-17
6.580000E+03	1.048325E-15	1.970271E-17
6.590000E+03	1.049645E-15	1.974736E-17
6.600000E+03	1.050172E-15	1.977795E-17
6.610000E+03	1.049866E-15	1.979368E-17
6.620000E+03	1.048764E-15	1.979519E-17
6.630000E+03	1.046847E-15	1.978201E-17
6.640000E+03	1.044170E-15	1.975515E-17
6.650000E+03	1.040727E-15	1.971442E-17
6.660000E+03	1.036574E-15	1.966080E-17
6.670000E+03	1.031753E-15	1.959500E-17
6.680000E+03	1.026295E-15	1.951756E-17
6.690000E+03	1.020253E-15	1.942940E-17
6.700000E+03	1.013701E-15	1.933187E-17
6.710000E+03	1.006679E-15	1.922565E-17
6.720000E+03	9.992480E-16	1.911186E-17
6.730000E+03	9.914692E-16	1.899160E-17
6.740000E+03	9.834016E-16	1.886595E-17
6.750000E+03	9.751050E-16	1.873600E-17
6.760000E+03	9.666374E-16	1.860283E-17
6.770000E+03	9.580372E-16	1.846713E-17
6.780000E+03	9.493737E-16	1.833020E-17
6.790000E+03	9.406964E-16	1.819296E-17
6.800000E+03	9.320347E-16	1.805596E-17
6.810000E+03	9.234475E-16	1.792031E-17
6.820000E+03	9.149568E-16	1.778644E-17
6.830000E+03	9.065976E-16	1.765500E-17
6.840000E+03	8.984011E-16	1.752660E-17
6.850000E+03	8.903943E-16	1.740175E-17
6.860000E+03	8.826172E-16	1.728124E-17
6.870000E+03	8.750575E-16	1.716483E-17
6.880000E+03	8.677479E-16	1.705317E-17
6.890000E+03	8.607020E-16	1.694654E-17
6.900000E+03	8.539140E-16	1.684482E-17
6.910000E+03	8.474076E-16	1.674851E-17
6.920000E+03	8.411875E-16	1.665770E-17
6.930000E+03	8.352404E-16	1.657215E-17
6.940000E+03	8.295664E-16	1.649188E-17
6.950000E+03	8.241794E-16	1.641719E-17
6.960000E+03	8.190600E-16	1.634770E-17
6.970000E+03	8.142029E-16	1.628332E-17
6.980000E+03	8.096012E-16	1.622395E-17
6.990000E+03	8.052469E-16	1.616943E-17
7.000000E+03	8.011156E-16	1.611929E-17
7.010000E+03	7.972281E-16	1.607397E-17
7.020000E+03	7.935428E-16	1.603265E-17
7.030000E+03	7.900637E-16	1.599542E-17
7.040000E+03	7.867636E-16	1.596175E-17
7.050000E+03	7.836300E-16	1.593139E-17
7.060000E+03	7.806662E-16	1.590443E-17
7.070000E+03	7.778439E-16	1.588030E-17
7.080000E+03	7.751348E-16	1.585842E-17
7.090000E+03	7.725569E-16	1.583919E-17
7.100000E+03	7.700819E-16	1.582201E-17
7.110000E+03	7.676811E-16	1.580632E-17
7.120000E+03	7.653571E-16	1.579215E-17
7.130000E+03	7.630812E-16	1.577894E-17
7.140000E+03	7.608559E-16	1.576671E-17
7.150000E+03	7.586522E-16	1.575488E-17
7.160000E+03	7.564724E-16	1.574348E-17
7.170000E+03	7.542716E-16	1.573158E-17
7.180000E+03	7.520516E-16	1.571920E-17
7.190000E+03	7.498140E-16	1.570638E-17
7.200000E+03	7.475135E-16	1.569214E-17
7.210000E+03	7.451356E-16	1.567617E-17
7.220000E+03	7.426817E-16	1.565849E-17
7.230000E+03	7.401373E-16	1.563877E-17
7.240000E+03	7.374730E-16	1.561637E-17
7.250000E+03	7.346907E-16	1.559130E-17
7.260000E+03	7.317619E-16	1.556295E-17
7.270000E+03	7.286746E-16	1.553102E-17
7.280000E+03	7.254338E-16	1.549561E-17
7.290000E+03	7.220148E-16	1.545615E-17
7.300000E+03	7.184263E-16	1.541280E-17
7.310000E+03	7.146475E-16	1.536509E-17
7.320000E+03	7.106760E-16	1.531293E-17
7.330000E+03	7.065438E-16	1.525699E-17
7.340000E+03	7.022229E-16	1.519662E-17
7.350000E+03	6.977515E-16	1.513263E-17
7.360000E+03	6.931240E-16	1.506487E-17
7.370000E+03	6.883696E-16	1.499394E-17
7.380000E+03	6.835208E-16	1.492055E-17
7.390000E+03	6.785823E-16	1.484477E-17
7.400000E+03	6.736084E-16	1.476778E-17
7.410000E+03	6.686253E-16	1.469014E-17
7.420000E+03	6.636776E-16	1.461284E-17
7.430000E+03	6.587963E-16	1.453655E-17
7.440000E+03	6.540152E-16	1.446203E-17
7.450000E+03	6.493842E-16	1.439041E-17
7.460000E+03	6.449098E-16	1.432184E-17
7.470000E+03	6.406295E-16	1.425717E-17
7.480000E+03	6.365663E-16	1.419695E-17
7.490000E+03	6.327737E-16	1.414240E-17
7.500000E+03	6.292742E-16	1.409406E-17
7.510000E+03	6.260903E-16	1.405247E-17
7.520000E+03	6.232582E-16	1.401850E-17
7.530000E+03	6.208123E-16	1.399296E-17
7.540000E+03	6.187705E-16	1.397631E-17
7.550000E+03	6.171779E-16	1.396964E-17
7.560000E+03	6.160327E-16	1.397295E-17
7.570000E+03	6.153891E-16	1.398755E-17
7.580000E+03	6.152536E-16	1.401366E-17
7.590000E+03	6.156438E-16	1.405174E-17
7.600000E+03	6.165579E-16	1.410183E-17
7.610000E+03	6.180196E-16	1.416455E-17
7.620000E+03	6.200325E-16	1.424005E-17
7.630000E+03	6.225949E-16	1.432837E-17
7.640000E+03	6.256838E-16	1.442906E-17
7.650000E+03	6.293003E-16	1.454221E-17
7.660000E+03	6.334080E-16	1.466707E-17
7.670000E+03	6.380104E-16	1.480377E-17
7.680000E+03	6.430249E-16	1.495046E-17
7.690000E+03	6.484563E-16	1.510732E-17
7.700000E+03	6.542384E-16	1.527286E-17
7.710000E+03	6.602965E-16	1.544537E-17
7.720000E+03	6.665814E-16	1.562374E-17
7.730000E+03	6.730203E-16	1.580630E-17
7.740000E+03	6.795339E-16	1.599118E-17
7.750000E+03	6.860367E-16	1.617640E-17
7.760000E+03	6.924562E-16	1.636023E-17
