#wls	flux	fluxerr
1.600000E+03	5.933735E-18	3.803653E-19
1.640000E+03	5.830548E-18	3.735327E-19
1.680000E+03	5.730622E-18	3.669108E-19
1.720000E+03	5.636227E-18	3.606447E-19
1.760000E+03	5.545177E-18	3.545941E-19
1.800000E+03	5.458608E-18	3.488313E-19
1.840000E+03	5.376542E-18	3.433572E-19
1.880000E+03	5.301054E-18	3.383041E-19
1.920000E+03	5.229046E-18	3.334733E-19
1.960000E+03	5.163575E-18	3.290595E-19
2.000000E+03	5.103606E-18	3.249959E-19
2.040000E+03	5.049133E-18	3.212815E-19
2.080000E+03	5.001112E-18	3.179763E-19
2.120000E+03	4.958577E-18	3.150179E-19
2.160000E+03	4.923399E-18	3.125244E-19
2.200000E+03	4.894630E-18	3.104345E-19
2.240000E+03	4.872284E-18	3.087479E-19
2.280000E+03	4.857282E-18	3.075220E-19
2.320000E+03	4.849642E-18	3.067564E-19
2.360000E+03	4.849405E-18	3.064525E-19
2.400000E+03	4.857498E-18	3.066672E-19
2.440000E+03	4.873133E-18	3.073491E-19
2.480000E+03	4.898124E-18	3.086109E-19
2.520000E+03	4.932577E-18	3.104572E-19
2.560000E+03	4.975800E-18	3.128424E-19
2.600000E+03	5.029659E-18	3.158814E-19
2.640000E+03	5.094364E-18	3.195848E-19
2.680000E+03	5.171005E-18	3.240181E-19
2.720000E+03	5.260707E-18	3.292486E-19
2.760000E+03	5.363828E-18	3.352952E-19
2.800000E+03	5.481613E-18	3.422317E-19
2.840000E+03	5.617023E-18	3.502385E-19
2.880000E+03	5.769810E-18	3.592952E-19
2.920000E+03	5.943126E-18	3.695923E-19
2.960000E+03	6.138590E-18	3.812242E-19
3.000000E+03	6.359622E-18	3.943960E-19
3.010000E+03	6.418894E-18	3.979297E-19
3.020000E+03	6.480478E-18	4.016034E-19
3.030000E+03	6.543557E-18	4.053660E-19
3.040000E+03	6.608148E-18	4.092187E-19
3.050000E+03	6.675114E-18	4.132146E-19
3.060000E+03	6.744479E-18	4.173551E-19
3.070000E+03	6.816269E-18	4.216416E-19
3.080000E+03	6.889660E-18	4.260228E-19
3.090000E+03	6.964673E-18	4.305002E-19
3.100000E+03	7.043037E-18	4.351801E-19
3.110000E+03	7.123075E-18	4.399589E-19
3.120000E+03	7.205669E-18	4.448908E-19
3.130000E+03	7.291705E-18	4.500304E-19
3.140000E+03	7.379501E-18	4.552735E-19
3.150000E+03	7.469945E-18	4.606747E-19
3.160000E+03	7.563069E-18	4.662358E-19
3.170000E+03	7.659775E-18	4.720122E-19
3.180000E+03	7.759234E-18	4.779525E-19
3.190000E+03	7.861482E-18	4.840586E-19
3.200000E+03	7.966557E-18	4.903326E-19
3.210000E+03	8.075373E-18	4.968306E-19
3.220000E+03	8.187977E-18	5.035551E-19
3.230000E+03	8.303534E-18	5.104544E-19
3.240000E+03	8.422085E-18	5.175307E-19
3.250000E+03	8.545449E-18	5.248956E-19
3.260000E+03	8.671905E-18	5.324429E-19
3.270000E+03	8.802389E-18	5.402299E-19
3.280000E+03	8.936958E-18	5.482596E-19
3.290000E+03	9.076569E-18	5.565902E-19
3.300000E+03	9.219479E-18	5.651147E-19
3.310000E+03	9.367554E-18	5.739469E-19
3.320000E+03	9.519953E-18	5.830349E-19
3.330000E+03	9.677652E-18	5.924381E-19
3.340000E+03	9.839806E-18	6.021041E-19
3.350000E+03	1.000648E-17	6.120369E-19
3.360000E+03	1.017960E-17	6.223531E-19
3.370000E+03	1.035739E-17	6.329442E-19
3.380000E+03	1.054178E-17	6.439274E-19
3.390000E+03	1.073100E-17	6.551937E-19
3.400000E+03	1.092700E-17	6.668625E-19
3.410000E+03	1.112894E-17	6.788812E-19
3.420000E+03	1.133691E-17	6.912547E-19
3.430000E+03	1.155195E-17	7.040460E-19
3.440000E+03	1.177322E-17	7.172030E-19
3.450000E+03	1.200271E-17	7.308466E-19
3.460000E+03	1.223863E-17	7.448674E-19
3.470000E+03	1.248206E-17	7.593294E-19
3.480000E+03	1.273407E-17	7.742983E-19
3.490000E+03	1.299382E-17	7.897208E-19
3.500000E+03	1.326144E-17	8.056046E-19
3.510000E+03	1.353803E-17	8.220159E-19
3.520000E+03	1.382373E-17	8.389617E-19
3.530000E+03	1.411768E-17	8.563900E-19
3.540000E+03	1.442204E-17	8.744294E-19
3.550000E+03	1.473594E-17	8.930278E-19
3.560000E+03	1.505954E-17	9.121926E-19
3.570000E+03	1.539299E-17	9.319327E-19
3.580000E+03	1.573851E-17	9.523803E-19
3.590000E+03	1.609421E-17	9.734215E-19
3.600000E+03	1.646130E-17	9.951268E-19
3.610000E+03	1.683996E-17	1.017507E-18
3.620000E+03	1.723143E-17	1.040635E-18
3.630000E+03	1.763380E-17	1.064395E-18
3.640000E+03	1.805042E-17	1.088987E-18
3.650000E+03	1.847940E-17	1.114296E-18
3.660000E+03	1.892307E-17	1.140460E-18
3.670000E+03	1.937952E-17	1.167365E-18
3.680000E+03	1.985111E-17	1.195149E-18
3.690000E+03	2.033700E-17	1.223762E-18
3.700000E+03	2.083852E-17	1.253280E-18
3.710000E+03	2.135592E-17	1.283718E-18
3.720000E+03	2.188946E-17	1.315090E-18
3.730000E+03	2.243827E-17	1.347341E-18
3.740000E+03	2.300597E-17	1.380687E-18
3.750000E+03	2.358948E-17	1.414941E-18
3.760000E+03	2.419244E-17	1.450320E-18
3.770000E+03	2.481290E-17	1.486705E-18
3.780000E+03	2.545227E-17	1.524177E-18
3.790000E+03	2.611201E-17	1.562823E-18
3.800000E+03	2.679128E-17	1.602589E-18
3.810000E+03	2.749040E-17	1.643493E-18
3.820000E+03	2.821084E-17	1.685620E-18
3.830000E+03	2.895295E-17	1.728989E-18
3.840000E+03	2.971705E-17	1.773616E-18
3.850000E+03	3.050230E-17	1.819447E-18
3.860000E+03	3.131143E-17	1.866645E-18
3.870000E+03	3.214481E-17	1.915228E-18
3.880000E+03	3.300158E-17	1.965141E-18
3.890000E+03	3.388211E-17	2.016405E-18
3.900000E+03	3.478922E-17	2.069183E-18
3.910000E+03	3.572083E-17	2.123350E-18
3.920000E+03	3.667854E-17	2.178997E-18
3.930000E+03	3.766275E-17	2.236145E-18
3.940000E+03	3.867384E-17	2.294813E-18
3.950000E+03	3.971219E-17	2.355020E-18
3.960000E+03	4.077950E-17	2.416864E-18
3.970000E+03	4.187487E-17	2.480288E-18
3.980000E+03	4.299869E-17	2.545311E-18
3.990000E+03	4.415137E-17	2.611954E-18
4.000000E+03	4.533460E-17	2.680315E-18
4.010000E+03	4.654615E-17	2.750256E-18
4.020000E+03	4.778907E-17	2.821954E-18
4.030000E+03	4.906377E-17	2.895430E-18
4.040000E+03	5.036795E-17	2.970544E-18
4.050000E+03	5.170334E-17	3.047394E-18
4.060000E+03	5.307172E-17	3.126080E-18
4.070000E+03	5.447070E-17	3.206459E-18
4.080000E+03	5.590065E-17	3.288548E-18
4.090000E+03	5.736334E-17	3.372446E-18
4.100000E+03	5.885913E-17	3.458171E-18
4.110000E+03	6.038555E-17	3.545573E-18
4.120000E+03	6.194437E-17	3.634751E-18
4.130000E+03	6.353445E-17	3.725636E-18
4.140000E+03	6.515756E-17	3.818325E-18
4.150000E+03	6.681113E-17	3.912665E-18
4.160000E+03	6.849686E-17	4.008750E-18
4.170000E+03	7.021358E-17	4.106509E-18
4.180000E+03	7.196005E-17	4.205863E-18
4.190000E+03	7.373798E-17	4.306908E-18
4.200000E+03	7.554461E-17	4.409480E-18
4.210000E+03	7.738010E-17	4.513583E-18
4.220000E+03	7.924309E-17	4.619134E-18
4.230000E+03	8.113371E-17	4.726137E-18
4.240000E+03	8.305054E-17	4.834504E-18
4.250000E+03	8.499210E-17	4.944147E-18
4.260000E+03	8.695843E-17	5.055063E-18
4.270000E+03	8.894643E-17	5.167068E-18
4.280000E+03	9.095446E-17	5.280066E-18
4.290000E+03	9.298246E-17	5.394047E-18
4.300000E+03	9.502873E-17	5.508911E-18
4.310000E+03	9.708833E-17	5.624369E-18
4.320000E+03	9.916259E-17	5.740496E-18
4.330000E+03	1.012466E-16	5.857001E-18
4.340000E+03	1.033381E-16	5.973762E-18
4.350000E+03	1.054355E-16	6.090670E-18
4.360000E+03	1.075331E-16	6.207408E-18
4.370000E+03	1.096289E-16	6.323855E-18
4.380000E+03	1.117189E-16	6.439783E-18
4.390000E+03	1.137993E-16	6.554968E-18
4.400000E+03	1.158644E-16	6.669080E-18
4.410000E+03	1.179098E-16	6.781874E-18
4.420000E+03	1.199315E-16	6.893120E-18
4.430000E+03	1.219251E-16	7.002567E-18
4.440000E+03	1.238844E-16	7.109861E-18
4.450000E+03	1.258067E-16	7.214856E-18
4.460000E+03	1.276873E-16	7.317283E-18
4.470000E+03	1.295270E-16	7.417192E-18
4.480000E+03	1.313247E-16	7.514523E-18
4.490000E+03	1.330811E-16	7.609322E-18
4.500000E+03	1.347967E-16	7.701625E-18
4.510000E+03	1.364726E-16	7.791500E-18
4.520000E+03	1.381075E-16	7.878877E-18
4.530000E+03	1.397042E-16	7.963918E-18
4.540000E+03	1.412654E-16	8.046780E-18
4.550000E+03	1.427902E-16	8.127422E-18
4.560000E+03	1.442813E-16	8.205999E-18
4.570000E+03	1.457380E-16	8.282476E-18
4.580000E+03	1.471633E-16	8.357025E-18
4.590000E+03	1.485562E-16	8.429594E-18
4.600000E+03	1.499217E-16	8.500478E-18
4.610000E+03	1.512574E-16	8.569529E-18
4.620000E+03	1.525680E-16	8.637036E-18
4.630000E+03	1.538512E-16	8.702856E-18
4.640000E+03	1.551121E-16	8.767285E-18
4.650000E+03	1.563501E-16	8.830296E-18
4.660000E+03	1.575685E-16	8.892077E-18
4.670000E+03	1.587668E-16	8.952602E-18
4.680000E+03	1.599466E-16	9.011963E-18
4.690000E+03	1.611112E-16	9.070347E-18
4.700000E+03	1.622602E-16	9.127738E-18
4.710000E+03	1.633973E-16	9.184340E-18
4.720000E+03	1.645200E-16	9.240020E-18
4.730000E+03	1.656321E-16	9.294986E-18
4.740000E+03	1.667350E-16	9.349328E-18
4.750000E+03	1.678286E-16	9.403032E-18
4.760000E+03	1.689104E-16	9.455969E-18
4.770000E+03	1.699863E-16	9.508464E-18
4.780000E+03	1.710520E-16	9.560273E-18
4.790000E+03	1.721111E-16	9.611614E-18
4.800000E+03	1.731635E-16	9.662466E-18
4.810000E+03	1.742088E-16	9.712818E-18
4.820000E+03	1.752509E-16	9.762888E-18
4.830000E+03	1.762876E-16	9.812549E-18
4.840000E+03	1.773186E-16	9.861785E-18
4.850000E+03	1.783437E-16	9.910591E-18
4.860000E+03	1.793647E-16	9.959068E-18
4.870000E+03	1.803792E-16	1.000708E-17
4.880000E+03	1.813872E-16	1.005463E-17
4.890000E+03	1.823883E-16	1.010170E-17
4.900000E+03	1.833824E-16	1.014828E-17
4.910000E+03	1.843650E-16	1.019413E-17
4.920000E+03	1.853399E-16	1.023945E-17
4.930000E+03	1.863030E-16	1.028402E-17
4.940000E+03	1.872557E-16	1.032793E-17
4.950000E+03	1.881981E-16	1.037118E-17
4.960000E+03	1.891257E-16	1.041352E-17
4.970000E+03	1.900402E-16	1.045505E-17
4.980000E+03	1.909437E-16	1.049588E-17
4.990000E+03	1.918295E-16	1.053565E-17
5.000000E+03	1.927037E-16	1.057470E-17
5.010000E+03	1.935597E-16	1.061267E-17
5.020000E+03	1.944016E-16	1.064979E-17
5.030000E+03	1.952270E-16	1.068592E-17
5.040000E+03	1.960357E-16	1.072106E-17
5.050000E+03	1.968276E-16	1.075521E-17
5.060000E+03	1.976023E-16	1.078834E-17
5.070000E+03	1.983599E-16	1.082047E-17
5.080000E+03	1.991001E-16	1.085158E-17
5.090000E+03	1.998227E-16	1.088167E-17
5.100000E+03	2.005276E-16	1.091073E-17
5.110000E+03	2.012126E-16	1.093864E-17
5.120000E+03	2.018817E-16	1.096563E-17
5.130000E+03	2.025306E-16	1.099146E-17
5.140000E+03	2.031636E-16	1.101638E-17
5.150000E+03	2.037761E-16	1.104013E-17
5.160000E+03	2.043702E-16	1.106284E-17
5.170000E+03	2.049481E-16	1.108462E-17
5.180000E+03	2.055054E-16	1.110524E-17
5.190000E+03	2.060464E-16	1.112494E-17
5.200000E+03	2.065666E-16	1.114348E-17
5.210000E+03	2.070705E-16	1.116109E-17
5.220000E+03	2.075558E-16	1.117768E-17
5.230000E+03	2.080225E-16	1.119322E-17
5.240000E+03	2.084707E-16	1.120774E-17
5.250000E+03	2.089002E-16	1.122123E-17
5.260000E+03	2.093113E-16	1.123371E-17
5.270000E+03	2.097060E-16	1.124528E-17
5.280000E+03	2.100822E-16	1.125584E-17
5.290000E+03	2.104402E-16	1.126541E-17
5.300000E+03	2.107819E-16	1.127409E-17
5.310000E+03	2.111054E-16	1.128179E-17
5.320000E+03	2.114106E-16	1.128850E-17
5.330000E+03	2.116978E-16	1.129424E-17
5.340000E+03	2.119670E-16	1.129902E-17
5.350000E+03	2.122206E-16	1.130296E-17
5.360000E+03	2.124564E-16	1.130595E-17
5.370000E+03	2.126745E-16	1.130801E-17
5.380000E+03	2.128751E-16	1.130915E-17
5.390000E+03	2.130585E-16	1.130937E-17
5.400000E+03	2.132266E-16	1.130881E-17
5.410000E+03	2.133757E-16	1.130724E-17
5.420000E+03	2.135078E-16	1.130479E-17
5.430000E+03	2.136254E-16	1.130160E-17
5.440000E+03	2.137242E-16	1.129743E-17
5.450000E+03	2.138067E-16	1.129242E-17
5.460000E+03	2.138709E-16	1.128648E-17
5.470000E+03	2.139191E-16	1.127972E-17
5.480000E+03	2.139493E-16	1.127204E-17
5.490000E+03	2.139618E-16	1.126348E-17
5.500000E+03	2.139569E-16	1.125402E-17
5.510000E+03	2.139347E-16	1.124370E-17
5.520000E+03	2.138954E-16	1.123253E-17
5.530000E+03	2.138415E-16	1.122064E-17
5.540000E+03	2.137688E-16	1.120781E-17
5.550000E+03	2.136819E-16	1.119429E-17
5.560000E+03	2.135811E-16	1.118009E-17
5.570000E+03	2.134645E-16	1.116512E-17
5.580000E+03	2.133344E-16	1.114950E-17
5.590000E+03	2.131911E-16	1.113326E-17
5.600000E+03	2.130369E-16	1.111651E-17
5.610000E+03	2.128699E-16	1.109916E-17
5.620000E+03	2.126905E-16	1.108123E-17
5.630000E+03	2.124988E-16	1.106273E-17
5.640000E+03	2.122973E-16	1.104379E-17
5.650000E+03	2.120861E-16	1.102443E-17
5.660000E+03	2.118615E-16	1.100444E-17
5.670000E+03	2.116296E-16	1.098415E-17
5.680000E+03	2.113848E-16	1.096327E-17
5.690000E+03	2.111314E-16	1.094203E-17
5.700000E+03	2.108695E-16	1.092044E-17
5.710000E+03	2.105975E-16	1.089841E-17
5.720000E+03	2.103156E-16	1.087596E-17
5.730000E+03	2.100240E-16	1.085309E-17
5.740000E+03	2.097250E-16	1.082994E-17
5.750000E+03	2.094148E-16	1.080630E-17
5.760000E+03	2.090977E-16	1.078240E-17
5.770000E+03	2.087741E-16	1.075827E-17
5.780000E+03	2.084399E-16	1.073369E-17
5.790000E+03	2.080977E-16	1.070880E-17
5.800000E+03	2.077455E-16	1.068350E-17
5.810000E+03	2.073878E-16	1.065802E-17
5.820000E+03	2.070227E-16	1.063227E-17
5.830000E+03	2.066484E-16	1.060616E-17
5.840000E+03	2.062652E-16	1.057970E-17
5.850000E+03	2.058754E-16	1.055302E-17
5.860000E+03	2.054792E-16	1.052612E-17
5.870000E+03	2.050728E-16	1.049882E-17
5.880000E+03	2.046607E-16	1.047134E-17
5.890000E+03	2.042408E-16	1.044359E-17
5.900000E+03	2.038116E-16	1.041548E-17
5.910000E+03	2.033772E-16	1.038722E-17
5.920000E+03	2.029339E-16	1.035864E-17
5.930000E+03	2.024819E-16	1.032974E-17
5.940000E+03	2.020236E-16	1.030064E-17
5.950000E+03	2.015570E-16	1.027126E-17
5.960000E+03	2.010807E-16	1.024150E-17
5.970000E+03	2.005986E-16	1.021159E-17
5.980000E+03	2.001070E-16	1.018132E-17
5.990000E+03	1.996062E-16	1.015073E-17
6.000000E+03	1.990986E-16	1.011991E-17
6.010000E+03	1.985802E-16	1.008870E-17
6.020000E+03	1.980534E-16	1.005719E-17
6.030000E+03	1.975184E-16	1.002541E-17
6.040000E+03	1.969733E-16	9.993258E-18
6.050000E+03	1.964167E-16	9.960667E-18
6.060000E+03	1.958506E-16	9.927737E-18
6.070000E+03	1.952732E-16	9.894384E-18
6.080000E+03	1.946849E-16	9.860625E-18
6.090000E+03	1.940840E-16	9.826374E-18
6.100000E+03	1.934707E-16	9.791644E-18
6.110000E+03	1.928452E-16	9.756451E-18
6.120000E+03	1.922040E-16	9.720613E-18
6.130000E+03	1.915473E-16	9.684148E-18
6.140000E+03	1.908754E-16	9.647067E-18
6.150000E+03	1.901848E-16	9.609194E-18
6.160000E+03	1.894738E-16	9.570449E-18
6.170000E+03	1.887410E-16	9.530758E-18
6.180000E+03	1.879829E-16	9.489945E-18
6.190000E+03	1.871998E-16	9.448031E-18
6.200000E+03	1.863972E-16	9.405296E-18
6.210000E+03	1.855773E-16	9.361846E-18
6.220000E+03	1.847421E-16	9.317783E-18
6.230000E+03	1.838952E-16	9.273294E-18
6.240000E+03	1.830388E-16	9.228480E-18
6.250000E+03	1.821744E-16	9.183428E-18
6.260000E+03	1.813023E-16	9.138147E-18
6.270000E+03	1.804244E-16	9.092734E-18
6.280000E+03	1.795423E-16	9.047273E-18
6.290000E+03	1.786562E-16	9.001765E-18
6.300000E+03	1.777662E-16	8.956218E-18
6.310000E+03	1.768757E-16	8.910811E-18
6.320000E+03	1.759830E-16	8.865445E-18
6.330000E+03	1.750899E-16	8.820216E-18
6.340000E+03	1.741946E-16	8.775033E-18
6.350000E+03	1.733021E-16	8.730153E-18
6.360000E+03	1.724076E-16	8.685323E-18
6.370000E+03	1.715160E-16	8.640791E-18
6.380000E+03	1.706257E-16	8.596468E-18
6.390000E+03	1.697348E-16	8.552266E-18
6.400000E+03	1.688470E-16	8.508356E-18
6.410000E+03	1.679620E-16	8.464725E-18
6.420000E+03	1.670766E-16	8.421203E-18
6.430000E+03	1.661942E-16	8.377963E-18
6.440000E+03	1.653114E-16	8.334824E-18
6.450000E+03	1.644317E-16	8.291966E-18
6.460000E+03	1.635534E-16	8.249293E-18
6.470000E+03	1.626767E-16	8.206812E-18
6.480000E+03	1.618014E-16	8.164515E-18
6.490000E+03	1.609263E-16	8.122327E-18
6.500000E+03	1.600546E-16	8.080418E-18
6.510000E+03	1.591847E-16	8.038697E-18
6.520000E+03	1.583169E-16	7.997178E-18
6.530000E+03	1.574528E-16	7.955937E-18
6.540000E+03	1.565925E-16	7.914976E-18
6.550000E+03	1.557362E-16	7.874303E-18
6.560000E+03	1.548840E-16	7.833915E-18
6.570000E+03	1.540392E-16	7.793980E-18
6.580000E+03	1.531986E-16	7.754335E-18
6.590000E+03	1.523671E-16	7.715224E-18
6.600000E+03	1.515416E-16	7.676487E-18
6.610000E+03	1.507238E-16	7.638205E-18
6.620000E+03	1.499136E-16	7.600373E-18
6.630000E+03	1.491129E-16	7.563081E-18
6.640000E+03	1.483198E-16	7.526235E-18
6.650000E+03	1.475379E-16	7.490011E-18
6.660000E+03	1.467620E-16	7.454148E-18
6.670000E+03	1.459972E-16	7.418897E-18
6.680000E+03	1.452418E-16	7.384175E-18
6.690000E+03	1.444958E-16	7.349976E-18
6.700000E+03	1.437591E-16	7.316297E-18
6.710000E+03	1.430318E-16	7.283137E-18
6.720000E+03	1.423139E-16	7.250494E-18
6.730000E+03	1.416068E-16	7.218442E-18
6.740000E+03	1.409075E-16	7.186823E-18
6.750000E+03	1.402189E-16	7.155787E-18
6.760000E+03	1.395396E-16	7.125257E-18
6.770000E+03	1.388695E-16	7.095226E-18
6.780000E+03	1.382085E-16	7.065688E-18
6.790000E+03	1.375566E-16	7.036646E-18
6.800000E+03	1.369137E-16	7.008089E-18
6.810000E+03	1.362814E-16	6.980097E-18
6.820000E+03	1.356580E-16	6.952583E-18
6.830000E+03	1.350435E-16	6.925550E-18
6.840000E+03	1.344377E-16	6.898983E-18
6.850000E+03	1.338408E-16	6.872889E-18
6.860000E+03	1.332525E-16	6.847253E-18
6.870000E+03	1.326728E-16	6.822080E-18
6.880000E+03	1.321018E-16	6.797362E-18
6.890000E+03	1.315407E-16	6.773171E-18
6.900000E+03	1.309866E-16	6.749352E-18
6.910000E+03	1.304424E-16	6.726054E-18
6.920000E+03	1.299048E-16	6.703110E-18
6.930000E+03	1.293771E-16	6.680680E-18
6.940000E+03	1.288575E-16	6.658681E-18
6.950000E+03	1.283460E-16	6.637107E-18
6.960000E+03	1.278425E-16	6.615952E-18
6.970000E+03	1.273470E-16	6.595216E-18
6.980000E+03	1.268593E-16	6.574892E-18
6.990000E+03	1.263795E-16	6.554975E-18
7.000000E+03	1.259074E-16	6.535465E-18
7.010000E+03	1.254429E-16	6.516351E-18
7.020000E+03	1.249861E-16	6.497633E-18
7.030000E+03	1.245368E-16	6.479309E-18
7.040000E+03	1.240948E-16	6.461369E-18
7.050000E+03	1.236619E-16	6.443896E-18
7.060000E+03	1.232348E-16	6.426723E-18
7.070000E+03	1.228148E-16	6.409924E-18
7.080000E+03	1.224036E-16	6.393580E-18
7.090000E+03	1.219995E-16	6.377603E-18
7.100000E+03	1.216009E-16	6.361909E-18
7.110000E+03	1.212109E-16	6.346660E-18
7.120000E+03	1.208278E-16	6.331767E-18
7.130000E+03	1.204515E-16	6.317224E-18
7.140000E+03	1.200820E-16	6.303037E-18
7.150000E+03	1.197193E-16	6.289200E-18
7.160000E+03	1.193633E-16	6.275703E-18
7.170000E+03	1.190153E-16	6.262629E-18
7.180000E+03	1.186724E-16	6.249811E-18
7.190000E+03	1.183375E-16	6.237405E-18
7.200000E+03	1.180092E-16	6.225338E-18
7.210000E+03	1.176886E-16	6.213674E-18
7.220000E+03	1.173744E-16	6.202339E-18
7.230000E+03	1.170665E-16	6.191327E-18
7.240000E+03	1.167649E-16	6.180639E-18
7.250000E+03	1.164708E-16	6.170343E-18
7.260000E+03	1.161830E-16	6.160365E-18
7.270000E+03	1.159028E-16	6.150785E-18
7.280000E+03	1.156301E-16	6.141593E-18
7.290000E+03	1.153619E-16	6.132629E-18
7.300000E+03	1.151026E-16	6.124132E-18
7.310000E+03	1.148507E-16	6.116018E-18
7.320000E+03	1.146048E-16	6.108213E-18
7.330000E+03	1.143661E-16	6.100780E-18
7.340000E+03	1.141348E-16	6.093735E-18
7.350000E+03	1.139093E-16	6.086985E-18
7.360000E+03	1.136923E-16	6.080687E-18
7.370000E+03	1.134827E-16	6.074768E-18
7.380000E+03	1.132802E-16	6.069224E-18
7.390000E+03	1.130863E-16	6.064134E-18
7.400000E+03	1.128981E-16	6.059333E-18
7.410000E+03	1.127169E-16	6.054903E-18
7.420000E+03	1.125441E-16	6.050917E-18
7.430000E+03	1.123785E-16	6.047308E-18
7.440000E+03	1.122199E-16	6.044064E-18
7.450000E+03	1.120697E-16	6.041267E-18
7.460000E+03	1.119251E-16	6.038762E-18
7.470000E+03	1.117873E-16	6.036618E-18
7.480000E+03	1.116580E-16	6.034923E-18
7.490000E+03	1.115340E-16	6.033509E-18
7.500000E+03	1.114171E-16	6.032470E-18
7.510000E+03	1.113070E-16	6.031788E-18
7.520000E+03	1.112023E-16	6.031395E-18
7.530000E+03	1.111030E-16	6.031286E-18
7.540000E+03	1.110105E-16	6.031541E-18
7.550000E+03	1.109234E-16	6.032086E-18
7.560000E+03	1.108417E-16	6.032910E-18
7.570000E+03	1.107653E-16	6.034019E-18
7.580000E+03	1.106943E-16	6.035419E-18
7.590000E+03	1.106286E-16	6.037099E-18
7.600000E+03	1.105683E-16	6.039070E-18
7.610000E+03	1.105118E-16	6.041240E-18
7.620000E+03	1.104608E-16	6.043702E-18
7.630000E+03	1.104136E-16	6.046370E-18
7.640000E+03	1.103718E-16	6.049324E-18
7.650000E+03	1.103353E-16	6.052566E-18
7.660000E+03	1.103028E-16	6.056020E-18
7.670000E+03	1.102741E-16	6.059680E-18
7.680000E+03	1.102508E-16	6.063628E-18
7.690000E+03	1.102316E-16	6.067794E-18
7.700000E+03	1.102162E-16	6.072167E-18
7.710000E+03	1.102062E-16	6.076835E-18
7.720000E+03	1.102003E-16	6.081721E-18
7.730000E+03	1.101999E-16	6.086902E-18
7.740000E+03	1.102034E-16	6.092298E-18
7.750000E+03	1.102109E-16	6.097912E-18
7.760000E+03	1.102240E-16	6.103829E-18
