#wls	flux	fluxerr
1.600000E+03	6.384915E-18	2.371992E-19
1.640000E+03	6.296020E-18	2.337527E-19
1.680000E+03	6.211437E-18	2.304663E-19
1.720000E+03	6.130014E-18	2.272969E-19
1.760000E+03	6.054146E-18	2.243331E-19
1.800000E+03	5.982670E-18	2.215315E-19
1.840000E+03	5.915616E-18	2.188930E-19
1.880000E+03	5.853018E-18	2.164185E-19
1.920000E+03	5.797112E-18	2.141902E-19
1.960000E+03	5.745685E-18	2.121261E-19
2.000000E+03	5.700927E-18	2.103064E-19
2.040000E+03	5.660698E-18	2.086518E-19
2.080000E+03	5.628199E-18	2.072796E-19
2.120000E+03	5.601324E-18	2.061117E-19
2.160000E+03	5.581141E-18	2.051869E-19
2.200000E+03	5.568692E-18	2.045425E-19
2.240000E+03	5.562985E-18	2.041414E-19
2.280000E+03	5.566070E-18	2.040580E-19
2.320000E+03	5.575998E-18	2.042199E-19
2.360000E+03	5.594828E-18	2.047014E-19
2.400000E+03	5.623610E-18	2.055399E-19
2.440000E+03	5.660493E-18	2.066663E-19
2.480000E+03	5.708517E-18	2.081905E-19
2.520000E+03	5.766858E-18	2.100808E-19
2.560000E+03	5.836661E-18	2.123773E-19
2.600000E+03	5.919090E-18	2.151205E-19
2.640000E+03	6.014402E-18	2.183178E-19
2.680000E+03	6.123844E-18	2.220122E-19
2.720000E+03	6.249661E-18	2.262826E-19
2.760000E+03	6.392266E-18	2.311410E-19
2.800000E+03	6.553087E-18	2.366362E-19
2.840000E+03	6.734580E-18	2.428532E-19
2.880000E+03	6.939303E-18	2.498803E-19
2.920000E+03	7.168025E-18	2.577409E-19
2.960000E+03	7.425459E-18	2.665992E-19
3.000000E+03	7.712652E-18	2.764873E-19
3.010000E+03	7.789448E-18	2.791319E-19
3.020000E+03	7.868861E-18	2.818675E-19
3.030000E+03	7.950918E-18	2.846950E-19
3.040000E+03	8.034670E-18	2.875802E-19
3.050000E+03	8.121112E-18	2.905586E-19
3.060000E+03	8.210267E-18	2.936309E-19
3.070000E+03	8.301189E-18	2.967632E-19
3.080000E+03	8.395853E-18	3.000259E-19
3.090000E+03	8.492334E-18	3.033501E-19
3.100000E+03	8.591637E-18	3.067715E-19
3.110000E+03	8.693792E-18	3.102912E-19
3.120000E+03	8.798829E-18	3.139099E-19
3.130000E+03	8.907767E-18	3.176639E-19
3.140000E+03	9.018665E-18	3.214838E-19
3.150000E+03	9.133536E-18	3.254412E-19
3.160000E+03	9.251423E-18	3.295018E-19
3.170000E+03	9.372362E-18	3.336667E-19
3.180000E+03	9.497390E-18	3.379727E-19
3.190000E+03	9.626551E-18	3.424211E-19
3.200000E+03	9.757877E-18	3.469416E-19
3.210000E+03	9.894426E-18	3.516429E-19
3.220000E+03	1.003423E-17	3.564548E-19
3.230000E+03	1.017835E-17	3.614145E-19
3.240000E+03	1.032682E-17	3.665236E-19
3.250000E+03	1.047869E-17	3.717473E-19
3.260000E+03	1.063603E-17	3.771598E-19
3.270000E+03	1.079790E-17	3.827264E-19
3.280000E+03	1.096330E-17	3.884124E-19
3.290000E+03	1.113540E-17	3.943289E-19
3.300000E+03	1.131114E-17	4.003682E-19
3.310000E+03	1.149268E-17	4.066055E-19
3.320000E+03	1.167903E-17	4.130063E-19
3.330000E+03	1.187129E-17	4.196087E-19
3.340000E+03	1.206954E-17	4.264154E-19
3.350000E+03	1.227281E-17	4.333917E-19
3.360000E+03	1.248221E-17	4.405765E-19
3.370000E+03	1.269888E-17	4.480097E-19
3.380000E+03	1.292080E-17	4.556194E-19
3.390000E+03	1.314908E-17	4.634447E-19
3.400000E+03	1.338490E-17	4.715267E-19
3.410000E+03	1.362834E-17	4.798677E-19
3.420000E+03	1.387733E-17	4.883945E-19
3.430000E+03	1.413523E-17	4.972247E-19
3.440000E+03	1.439994E-17	5.062844E-19
3.450000E+03	1.467269E-17	5.156157E-19
3.460000E+03	1.495353E-17	5.252205E-19
3.470000E+03	1.524261E-17	5.351033E-19
3.480000E+03	1.554114E-17	5.453059E-19
3.490000E+03	1.584812E-17	5.557928E-19
3.500000E+03	1.616366E-17	5.665676E-19
3.510000E+03	1.648903E-17	5.776734E-19
3.520000E+03	1.682320E-17	5.890746E-19
3.530000E+03	1.716855E-17	6.008533E-19
3.540000E+03	1.752414E-17	6.129757E-19
3.550000E+03	1.789006E-17	6.254447E-19
3.560000E+03	1.826646E-17	6.382649E-19
3.570000E+03	1.865464E-17	6.514811E-19
3.580000E+03	1.905362E-17	6.650577E-19
3.590000E+03	1.946469E-17	6.790395E-19
3.600000E+03	1.988802E-17	6.934316E-19
3.610000E+03	2.032377E-17	7.082387E-19
3.620000E+03	2.077212E-17	7.234661E-19
3.630000E+03	2.123442E-17	7.391603E-19
3.640000E+03	2.170968E-17	7.552854E-19
3.650000E+03	2.219926E-17	7.718885E-19
3.660000E+03	2.270216E-17	7.889331E-19
3.670000E+03	2.322097E-17	8.065091E-19
3.680000E+03	2.375470E-17	8.245804E-19
3.690000E+03	2.430356E-17	8.431538E-19
3.700000E+03	2.486774E-17	8.622343E-19
3.710000E+03	2.544869E-17	8.818711E-19
3.720000E+03	2.604664E-17	9.020716E-19
3.730000E+03	2.666181E-17	9.228417E-19
3.740000E+03	2.729444E-17	9.441887E-19
3.750000E+03	2.794475E-17	9.661190E-19
3.760000E+03	2.861301E-17	9.886405E-19
3.770000E+03	2.930069E-17	1.011803E-18
3.780000E+03	3.000680E-17	1.035571E-18
3.790000E+03	3.073285E-17	1.059995E-18
3.800000E+03	3.147912E-17	1.085083E-18
3.810000E+03	3.224587E-17	1.110843E-18
3.820000E+03	3.303335E-17	1.137282E-18
3.830000E+03	3.384186E-17	1.164408E-18
3.840000E+03	3.467297E-17	1.192275E-18
3.850000E+03	3.552565E-17	1.220845E-18
3.860000E+03	3.640150E-17	1.250172E-18
3.870000E+03	3.729950E-17	1.280218E-18
3.880000E+03	3.822124E-17	1.311038E-18
3.890000E+03	3.916570E-17	1.342593E-18
3.900000E+03	4.013449E-17	1.374937E-18
3.910000E+03	4.112927E-17	1.408127E-18
3.920000E+03	4.214764E-17	1.442076E-18
3.930000E+03	4.319125E-17	1.476840E-18
3.940000E+03	4.426039E-17	1.512428E-18
3.950000E+03	4.535397E-17	1.548800E-18
3.960000E+03	4.647508E-17	1.586058E-18
3.970000E+03	4.762120E-17	1.624117E-18
3.980000E+03	4.879405E-17	1.663031E-18
3.990000E+03	4.999390E-17	1.702809E-18
4.000000E+03	5.121963E-17	1.743409E-18
4.010000E+03	5.247295E-17	1.784889E-18
4.020000E+03	5.375268E-17	1.827206E-18
4.030000E+03	5.506057E-17	1.870417E-18
4.040000E+03	5.639397E-17	1.914430E-18
4.050000E+03	5.775459E-17	1.959300E-18
4.060000E+03	5.914268E-17	2.005035E-18
4.070000E+03	6.055701E-17	2.051591E-18
4.080000E+03	6.199780E-17	2.098972E-18
4.090000E+03	6.346528E-17	2.147185E-18
4.100000E+03	6.495815E-17	2.196182E-18
4.110000E+03	6.647660E-17	2.245969E-18
4.120000E+03	6.802082E-17	2.296550E-18
4.130000E+03	6.958943E-17	2.347877E-18
4.140000E+03	7.118262E-17	2.399952E-18
4.150000E+03	7.279893E-17	2.452726E-18
4.160000E+03	7.443851E-17	2.506200E-18
4.170000E+03	7.610145E-17	2.560378E-18
4.180000E+03	7.778469E-17	2.615152E-18
4.190000E+03	7.948828E-17	2.670524E-18
4.200000E+03	8.121226E-17	2.726492E-18
4.210000E+03	8.295503E-17	2.783002E-18
4.220000E+03	8.471661E-17	2.840052E-18
4.230000E+03	8.649211E-17	2.897477E-18
4.240000E+03	8.828472E-17	2.955381E-18
4.250000E+03	9.009108E-17	3.013652E-18
4.260000E+03	9.190946E-17	3.072230E-18
4.270000E+03	9.373805E-17	3.131053E-18
4.280000E+03	9.557668E-17	3.190115E-18
4.290000E+03	9.742516E-17	3.249408E-18
4.300000E+03	9.927827E-17	3.308757E-18
4.310000E+03	1.011357E-16	3.368152E-18
4.320000E+03	1.029972E-16	3.427583E-18
4.330000E+03	1.048608E-16	3.486983E-18
4.340000E+03	1.067244E-16	3.546284E-18
4.350000E+03	1.085860E-16	3.605416E-18
4.360000E+03	1.104434E-16	3.664310E-18
4.370000E+03	1.122963E-16	3.722952E-18
4.380000E+03	1.141458E-16	3.781383E-18
4.390000E+03	1.159882E-16	3.839477E-18
4.400000E+03	1.178246E-16	3.897273E-18
4.410000E+03	1.196547E-16	3.954761E-18
4.420000E+03	1.214798E-16	4.011980E-18
4.430000E+03	1.233029E-16	4.069036E-18
4.440000E+03	1.251238E-16	4.125917E-18
4.450000E+03	1.269491E-16	4.182841E-18
4.460000E+03	1.287732E-16	4.239626E-18
4.470000E+03	1.305919E-16	4.296132E-18
4.480000E+03	1.324031E-16	4.352291E-18
4.490000E+03	1.342009E-16	4.407907E-18
4.500000E+03	1.359827E-16	4.462900E-18
4.510000E+03	1.377445E-16	4.517135E-18
4.520000E+03	1.394854E-16	4.570590E-18
4.530000E+03	1.412014E-16	4.623127E-18
4.540000E+03	1.428934E-16	4.674786E-18
4.550000E+03	1.445590E-16	4.725489E-18
4.560000E+03	1.461976E-16	4.775211E-18
4.570000E+03	1.478066E-16	4.823877E-18
4.580000E+03	1.493890E-16	4.871585E-18
4.590000E+03	1.509425E-16	4.918260E-18
4.600000E+03	1.524643E-16	4.963814E-18
4.610000E+03	1.539577E-16	5.008359E-18
4.620000E+03	1.554220E-16	5.051873E-18
4.630000E+03	1.568566E-16	5.094341E-18
4.640000E+03	1.582608E-16	5.135739E-18
4.650000E+03	1.596341E-16	5.176056E-18
4.660000E+03	1.609797E-16	5.215396E-18
4.670000E+03	1.622952E-16	5.253685E-18
4.680000E+03	1.635837E-16	5.291025E-18
4.690000E+03	1.648429E-16	5.327345E-18
4.700000E+03	1.660741E-16	5.362690E-18
4.710000E+03	1.672808E-16	5.397175E-18
4.720000E+03	1.684605E-16	5.430718E-18
4.730000E+03	1.696166E-16	5.463438E-18
4.740000E+03	1.707507E-16	5.495383E-18
4.750000E+03	1.718623E-16	5.526540E-18
4.760000E+03	1.729552E-16	5.557031E-18
4.770000E+03	1.740287E-16	5.586840E-18
4.780000E+03	1.750866E-16	5.616091E-18
4.790000E+03	1.761265E-16	5.644702E-18
4.800000E+03	1.771521E-16	5.672800E-18
4.810000E+03	1.781591E-16	5.700246E-18
4.820000E+03	1.791492E-16	5.727096E-18
4.830000E+03	1.801201E-16	5.753277E-18
4.840000E+03	1.810714E-16	5.778781E-18
4.850000E+03	1.820029E-16	5.803603E-18
4.860000E+03	1.829145E-16	5.827740E-18
4.870000E+03	1.838037E-16	5.851114E-18
4.880000E+03	1.846723E-16	5.873787E-18
4.890000E+03	1.855181E-16	5.895689E-18
4.900000E+03	1.863430E-16	5.916885E-18
4.910000E+03	1.871445E-16	5.937298E-18
4.920000E+03	1.879248E-16	5.956993E-18
4.930000E+03	1.886834E-16	5.975965E-18
4.940000E+03	1.894204E-16	5.994214E-18
4.950000E+03	1.901376E-16	6.011800E-18
4.960000E+03	1.908306E-16	6.028585E-18
4.970000E+03	1.915035E-16	6.044703E-18
4.980000E+03	1.921563E-16	6.060151E-18
4.990000E+03	1.927886E-16	6.074926E-18
5.000000E+03	1.933984E-16	6.088959E-18
5.010000E+03	1.939898E-16	6.102384E-18
5.020000E+03	1.945604E-16	6.115130E-18
5.030000E+03	1.951104E-16	6.127202E-18
5.040000E+03	1.956416E-16	6.138657E-18
5.050000E+03	1.961518E-16	6.149433E-18
5.060000E+03	1.966432E-16	6.159597E-18
5.070000E+03	1.971157E-16	6.169148E-18
5.080000E+03	1.975693E-16	6.178087E-18
5.090000E+03	1.980037E-16	6.186412E-18
5.100000E+03	1.984192E-16	6.194127E-18
5.110000E+03	1.988156E-16	6.201231E-18
5.120000E+03	1.991930E-16	6.207728E-18
5.130000E+03	1.995534E-16	6.213683E-18
5.140000E+03	1.998947E-16	6.219031E-18
5.150000E+03	2.002191E-16	6.223845E-18
5.160000E+03	2.005265E-16	6.228121E-18
5.170000E+03	2.008149E-16	6.231800E-18
5.180000E+03	2.010863E-16	6.234945E-18
5.190000E+03	2.013411E-16	6.237569E-18
5.200000E+03	2.015768E-16	6.239601E-18
5.210000E+03	2.017980E-16	6.241178E-18
5.220000E+03	2.020024E-16	6.242237E-18
5.230000E+03	2.021901E-16	6.242780E-18
5.240000E+03	2.023615E-16	6.242819E-18
5.250000E+03	2.025163E-16	6.242350E-18
5.260000E+03	2.026546E-16	6.241378E-18
5.270000E+03	2.027789E-16	6.239978E-18
5.280000E+03	2.028890E-16	6.238149E-18
5.290000E+03	2.029811E-16	6.235771E-18
5.300000E+03	2.030612E-16	6.233036E-18
5.310000E+03	2.031255E-16	6.229826E-18
5.320000E+03	2.031740E-16	6.226143E-18
5.330000E+03	2.032091E-16	6.222060E-18
5.340000E+03	2.032307E-16	6.217580E-18
5.350000E+03	2.032390E-16	6.212708E-18
5.360000E+03	2.032322E-16	6.207390E-18
5.370000E+03	2.032124E-16	6.201691E-18
5.380000E+03	2.031797E-16	6.195619E-18
5.390000E+03	2.031345E-16	6.189181E-18
5.400000E+03	2.030746E-16	6.182319E-18
5.410000E+03	2.030043E-16	6.175165E-18
5.420000E+03	2.029199E-16	6.167603E-18
5.430000E+03	2.028234E-16	6.159696E-18
5.440000E+03	2.027151E-16	6.151457E-18
5.450000E+03	2.025930E-16	6.142826E-18
5.460000E+03	2.024614E-16	6.133937E-18
5.470000E+03	2.023166E-16	6.124676E-18
5.480000E+03	2.021587E-16	6.115044E-18
5.490000E+03	2.019897E-16	6.105112E-18
5.500000E+03	2.018101E-16	6.094890E-18
5.510000E+03	2.016178E-16	6.084319E-18
5.520000E+03	2.014132E-16	6.073412E-18
5.530000E+03	2.011965E-16	6.062175E-18
5.540000E+03	2.009699E-16	6.050676E-18
5.550000E+03	2.007316E-16	6.038864E-18
5.560000E+03	2.004837E-16	6.026801E-18
5.570000E+03	2.002266E-16	6.014502E-18
5.580000E+03	1.999585E-16	6.001912E-18
5.590000E+03	1.996814E-16	5.989095E-18
5.600000E+03	1.993937E-16	5.976006E-18
5.610000E+03	1.990996E-16	5.962767E-18
5.620000E+03	1.987933E-16	5.949207E-18
5.630000E+03	1.984790E-16	5.935456E-18
5.640000E+03	1.981570E-16	5.921520E-18
5.650000E+03	1.978254E-16	5.907345E-18
5.660000E+03	1.974866E-16	5.893005E-18
5.670000E+03	1.971367E-16	5.878385E-18
5.680000E+03	1.967799E-16	5.863608E-18
5.690000E+03	1.964145E-16	5.848629E-18
5.700000E+03	1.960408E-16	5.833456E-18
5.710000E+03	1.956590E-16	5.818093E-18
5.720000E+03	1.952673E-16	5.802492E-18
5.730000E+03	1.948698E-16	5.786775E-18
5.740000E+03	1.944631E-16	5.770842E-18
5.750000E+03	1.940472E-16	5.754694E-18
5.760000E+03	1.936244E-16	5.738397E-18
5.770000E+03	1.931929E-16	5.721903E-18
5.780000E+03	1.927549E-16	5.705279E-18
5.790000E+03	1.923069E-16	5.688420E-18
5.800000E+03	1.918511E-16	5.671389E-18
5.810000E+03	1.913875E-16	5.654195E-18
5.820000E+03	1.909164E-16	5.636841E-18
5.830000E+03	1.904364E-16	5.619289E-18
5.840000E+03	1.899494E-16	5.601595E-18
5.850000E+03	1.894539E-16	5.583717E-18
5.860000E+03	1.889500E-16	5.565660E-18
5.870000E+03	1.884399E-16	5.547487E-18
5.880000E+03	1.879200E-16	5.529096E-18
5.890000E+03	1.873925E-16	5.510552E-18
5.900000E+03	1.868577E-16	5.491860E-18
5.910000E+03	1.863139E-16	5.472976E-18
5.920000E+03	1.857650E-16	5.454015E-18
5.930000E+03	1.852058E-16	5.434824E-18
5.940000E+03	1.846402E-16	5.415518E-18
5.950000E+03	1.840665E-16	5.396049E-18
5.960000E+03	1.834851E-16	5.376427E-18
5.970000E+03	1.828978E-16	5.356710E-18
5.980000E+03	1.823015E-16	5.336803E-18
5.990000E+03	1.816997E-16	5.316813E-18
6.000000E+03	1.810892E-16	5.296645E-18
6.010000E+03	1.804720E-16	5.276360E-18
6.020000E+03	1.798502E-16	5.256015E-18
6.030000E+03	1.792202E-16	5.235511E-18
6.040000E+03	1.785840E-16	5.214906E-18
6.050000E+03	1.779420E-16	5.194211E-18
6.060000E+03	1.772943E-16	5.173428E-18
6.070000E+03	1.766410E-16	5.152563E-18
6.080000E+03	1.759806E-16	5.131571E-18
6.090000E+03	1.753168E-16	5.110561E-18
6.100000E+03	1.746461E-16	5.089433E-18
6.110000E+03	1.739707E-16	5.068248E-18
6.120000E+03	1.732904E-16	5.047003E-18
6.130000E+03	1.726040E-16	5.025662E-18
6.140000E+03	1.719148E-16	5.004324E-18
6.150000E+03	1.712179E-16	4.982844E-18
6.160000E+03	1.705187E-16	4.961380E-18
6.170000E+03	1.698154E-16	4.939878E-18
6.180000E+03	1.691083E-16	4.918349E-18
6.190000E+03	1.683975E-16	4.896796E-18
6.200000E+03	1.676829E-16	4.875216E-18
6.210000E+03	1.669649E-16	4.853620E-18
6.220000E+03	1.662433E-16	4.832004E-18
6.230000E+03	1.655185E-16	4.810379E-18
6.240000E+03	1.647920E-16	4.788788E-18
6.250000E+03	1.640607E-16	4.767140E-18
6.260000E+03	1.633280E-16	4.745534E-18
6.270000E+03	1.625940E-16	4.723974E-18
6.280000E+03	1.618570E-16	4.702408E-18
6.290000E+03	1.611172E-16	4.680845E-18
6.300000E+03	1.603761E-16	4.659327E-18
6.310000E+03	1.596322E-16	4.637811E-18
6.320000E+03	1.588889E-16	4.616395E-18
6.330000E+03	1.581430E-16	4.594984E-18
6.340000E+03	1.573960E-16	4.573623E-18
6.350000E+03	1.566480E-16	4.552314E-18
6.360000E+03	1.558992E-16	4.531061E-18
6.370000E+03	1.551493E-16	4.509859E-18
6.380000E+03	1.543987E-16	4.488710E-18
6.390000E+03	1.536485E-16	4.467652E-18
6.400000E+03	1.528977E-16	4.446646E-18
6.410000E+03	1.521475E-16	4.425729E-18
6.420000E+03	1.513965E-16	4.404858E-18
6.430000E+03	1.506478E-16	4.384120E-18
6.440000E+03	1.498983E-16	4.363423E-18
6.450000E+03	1.491495E-16	4.342811E-18
6.460000E+03	1.484032E-16	4.322331E-18
6.470000E+03	1.476595E-16	4.301982E-18
6.480000E+03	1.469165E-16	4.281714E-18
6.490000E+03	1.461792E-16	4.261665E-18
6.500000E+03	1.454444E-16	4.241744E-18
6.510000E+03	1.447154E-16	4.222039E-18
6.520000E+03	1.439905E-16	4.202505E-18
6.530000E+03	1.432682E-16	4.183094E-18
6.540000E+03	1.425486E-16	4.163807E-18
6.550000E+03	1.418348E-16	4.144734E-18
6.560000E+03	1.411223E-16	4.125740E-18
6.570000E+03	1.404156E-16	4.106958E-18
6.580000E+03	1.397118E-16	4.088296E-18
6.590000E+03	1.390123E-16	4.069798E-18
6.600000E+03	1.383186E-16	4.051510E-18
6.610000E+03	1.376278E-16	4.033336E-18
6.620000E+03	1.369430E-16	4.015370E-18
6.630000E+03	1.362640E-16	3.997608E-18
6.640000E+03	1.355894E-16	3.980002E-18
6.650000E+03	1.349192E-16	3.962556E-18
6.660000E+03	1.342564E-16	3.945351E-18
6.670000E+03	1.335994E-16	3.928344E-18
6.680000E+03	1.329481E-16	3.911529E-18
6.690000E+03	1.323028E-16	3.894912E-18
6.700000E+03	1.316632E-16	3.878484E-18
6.710000E+03	1.310308E-16	3.862291E-18
6.720000E+03	1.304042E-16	3.846285E-18
6.730000E+03	1.297846E-16	3.830508E-18
6.740000E+03	1.291708E-16	3.814916E-18
6.750000E+03	1.285640E-16	3.799547E-18
6.760000E+03	1.279642E-16	3.784401E-18
6.770000E+03	1.273714E-16	3.769473E-18
6.780000E+03	1.267855E-16	3.754766E-18
6.790000E+03	1.262051E-16	3.740231E-18
6.800000E+03	1.256329E-16	3.725952E-18
6.810000E+03	1.250675E-16	3.711885E-18
6.820000E+03	1.245089E-16	3.698028E-18
6.830000E+03	1.239569E-16	3.684374E-18
6.840000E+03	1.234115E-16	3.670926E-18
6.850000E+03	1.228741E-16	3.657724E-18
6.860000E+03	1.223433E-16	3.644722E-18
6.870000E+03	1.218188E-16	3.631915E-18
6.880000E+03	1.213021E-16	3.619344E-18
6.890000E+03	1.207918E-16	3.606970E-18
6.900000E+03	1.202891E-16	3.594825E-18
6.910000E+03	1.197941E-16	3.582912E-18
6.920000E+03	1.193051E-16	3.571183E-18
6.930000E+03	1.188223E-16	3.559639E-18
6.940000E+03	1.183483E-16	3.548360E-18
6.950000E+03	1.178802E-16	3.537261E-18
6.960000E+03	1.174195E-16	3.526382E-18
6.970000E+03	1.169645E-16	3.515673E-18
6.980000E+03	1.165168E-16	3.505183E-18
6.990000E+03	1.160776E-16	3.494947E-18
7.000000E+03	1.156439E-16	3.484877E-18
7.010000E+03	1.152173E-16	3.475018E-18
7.020000E+03	1.147962E-16	3.465321E-18
7.030000E+03	1.143834E-16	3.455870E-18
7.040000E+03	1.139773E-16	3.446622E-18
7.050000E+03	1.135781E-16	3.437575E-18
7.060000E+03	1.131854E-16	3.428723E-18
7.070000E+03	1.127994E-16	3.420069E-18
7.080000E+03	1.124201E-16	3.411613E-18
7.090000E+03	1.120471E-16	3.403345E-18
7.100000E+03	1.116807E-16	3.395268E-18
7.110000E+03	1.113220E-16	3.387425E-18
7.120000E+03	1.109697E-16	3.379769E-18
7.130000E+03	1.106237E-16	3.372297E-18
7.140000E+03	1.102839E-16	3.365010E-18
7.150000E+03	1.099518E-16	3.357949E-18
7.160000E+03	1.096258E-16	3.351070E-18
7.170000E+03	1.093072E-16	3.344410E-18
7.180000E+03	1.089947E-16	3.337932E-18
7.190000E+03	1.086896E-16	3.331670E-18
7.200000E+03	1.083918E-16	3.325628E-18
7.210000E+03	1.080999E-16	3.319757E-18
7.220000E+03	1.078139E-16	3.314062E-18
7.230000E+03	1.075365E-16	3.308623E-18
7.240000E+03	1.072647E-16	3.303352E-18
7.250000E+03	1.070002E-16	3.298296E-18
7.260000E+03	1.067428E-16	3.293450E-18
7.270000E+03	1.064925E-16	3.288816E-18
7.280000E+03	1.062491E-16	3.284390E-18
7.290000E+03	1.060113E-16	3.280127E-18
7.300000E+03	1.057818E-16	3.276115E-18
7.310000E+03	1.055593E-16	3.272312E-18
7.320000E+03	1.053435E-16	3.268712E-18
7.330000E+03	1.051333E-16	3.265275E-18
7.340000E+03	1.049313E-16	3.262088E-18
7.350000E+03	1.047361E-16	3.259102E-18
7.360000E+03	1.045477E-16	3.256320E-18
7.370000E+03	1.043673E-16	3.253785E-18
7.380000E+03	1.041923E-16	3.251408E-18
7.390000E+03	1.040254E-16	3.249277E-18
7.400000E+03	1.038652E-16	3.247347E-18
7.410000E+03	1.037143E-16	3.245705E-18
7.420000E+03	1.035702E-16	3.244265E-18
7.430000E+03	1.034340E-16	3.243069E-18
7.440000E+03	1.033072E-16	3.242162E-18
7.450000E+03	1.031870E-16	3.241455E-18
7.460000E+03	1.030734E-16	3.240950E-18
7.470000E+03	1.029664E-16	3.240645E-18
7.480000E+03	1.028673E-16	3.240585E-18
7.490000E+03	1.027733E-16	3.240682E-18
7.500000E+03	1.026859E-16	3.240980E-18
7.510000E+03	1.026036E-16	3.241435E-18
7.520000E+03	1.025265E-16	3.242047E-18
7.530000E+03	1.024559E-16	3.242860E-18
7.540000E+03	1.023890E-16	3.243787E-18
7.550000E+03	1.023286E-16	3.244915E-18
7.560000E+03	1.022734E-16	3.246201E-18
7.570000E+03	1.022218E-16	3.247600E-18
7.580000E+03	1.021754E-16	3.249157E-18
7.590000E+03	1.021341E-16	3.250872E-18
7.600000E+03	1.020966E-16	3.252701E-18
7.610000E+03	1.020641E-16	3.254689E-18
7.620000E+03	1.020353E-16	3.256791E-18
7.630000E+03	1.020103E-16	3.259008E-18
7.640000E+03	1.019904E-16	3.261384E-18
7.650000E+03	1.019757E-16	3.263921E-18
7.660000E+03	1.019633E-16	3.266527E-18
7.670000E+03	1.019560E-16	3.269295E-18
7.680000E+03	1.019525E-16	3.272180E-18
7.690000E+03	1.019527E-16	3.275180E-18
7.700000E+03	1.019567E-16	3.278298E-18
7.710000E+03	1.019645E-16	3.281533E-18
7.720000E+03	1.019760E-16	3.284886E-18
7.730000E+03	1.019928E-16	3.288403E-18
7.740000E+03	1.020134E-16	3.292040E-18
7.750000E+03	1.020378E-16	3.295796E-18
7.760000E+03	1.020660E-16	3.299672E-18
