#wls	flux	fluxerr
1.600000E+03	1.062861E-15	5.557976E-17
1.640000E+03	8.838028E-16	4.551260E-17
1.680000E+03	7.278858E-16	3.689684E-17
1.720000E+03	5.935111E-16	2.960155E-17
1.760000E+03	4.789553E-16	2.349346E-17
1.800000E+03	3.823797E-16	1.843812E-17
1.840000E+03	3.017474E-16	1.429672E-17
1.880000E+03	2.351967E-16	1.094444E-17
1.920000E+03	1.808356E-16	8.260611E-18
1.960000E+03	1.369104E-16	6.136578E-18
2.000000E+03	1.018433E-16	4.476916E-18
2.040000E+03	7.429435E-17	3.201505E-18
2.080000E+03	5.318106E-17	2.245452E-18
2.120000E+03	3.779260E-17	1.562792E-18
2.160000E+03	2.752794E-17	1.114343E-18
2.200000E+03	2.141406E-17	8.482095E-19
2.240000E+03	1.855063E-17	7.186826E-19
2.280000E+03	1.852585E-17	7.017071E-19
2.320000E+03	2.143963E-17	7.936525E-19
2.360000E+03	2.818264E-17	1.019249E-18
2.400000E+03	4.096756E-17	1.447076E-18
2.440000E+03	6.400652E-17	2.207572E-18
2.480000E+03	1.044022E-16	3.515200E-18
2.520000E+03	1.726655E-16	5.674555E-18
2.560000E+03	2.814656E-16	9.028077E-18
2.600000E+03	4.405339E-16	1.379021E-17
2.640000E+03	6.487295E-16	1.981883E-17
2.680000E+03	8.978711E-16	2.677184E-17
2.720000E+03	1.183298E-15	3.443937E-17
2.760000E+03	1.505639E-15	4.277916E-17
2.800000E+03	1.869775E-15	5.186925E-17
2.840000E+03	2.280833E-15	6.178598E-17
2.880000E+03	2.739516E-15	7.248075E-17
2.920000E+03	3.238566E-15	8.370356E-17
2.960000E+03	3.762924E-15	9.503105E-17
3.000000E+03	4.292030E-15	1.059449E-16
3.010000E+03	4.422704E-15	1.085544E-16
3.020000E+03	4.552028E-15	1.111007E-16
3.030000E+03	4.679733E-15	1.135784E-16
3.040000E+03	4.805802E-15	1.159884E-16
3.050000E+03	4.929950E-15	1.183251E-16
3.060000E+03	5.052051E-15	1.205869E-16
3.070000E+03	5.172152E-15	1.227762E-16
3.080000E+03	5.290145E-15	1.248920E-16
3.090000E+03	5.406108E-15	1.269374E-16
3.100000E+03	5.520426E-15	1.289230E-16
3.110000E+03	5.633108E-15	1.308500E-16
3.120000E+03	5.744583E-15	1.327297E-16
3.130000E+03	5.855124E-15	1.345695E-16
3.140000E+03	5.965537E-15	1.363887E-16
3.150000E+03	6.075990E-15	1.381919E-16
3.160000E+03	6.187160E-15	1.399950E-16
3.170000E+03	6.299758E-15	1.418145E-16
3.180000E+03	6.414400E-15	1.436644E-16
3.190000E+03	6.531453E-15	1.455529E-16
3.200000E+03	6.651869E-15	1.475011E-16
3.210000E+03	6.775948E-15	1.495152E-16
3.220000E+03	6.904293E-15	1.516083E-16
3.230000E+03	7.037180E-15	1.537856E-16
3.240000E+03	7.175028E-15	1.560560E-16
3.250000E+03	7.318010E-15	1.584222E-16
3.260000E+03	7.466156E-15	1.608840E-16
3.270000E+03	7.619201E-15	1.634347E-16
3.280000E+03	7.776946E-15	1.660693E-16
3.290000E+03	7.938854E-15	1.687755E-16
3.300000E+03	8.104029E-15	1.715339E-16
3.310000E+03	8.271581E-15	1.743254E-16
3.320000E+03	8.440077E-15	1.771199E-16
3.330000E+03	8.608046E-15	1.798870E-16
3.340000E+03	8.773412E-15	1.825844E-16
3.350000E+03	8.933871E-15	1.851654E-16
3.360000E+03	9.086715E-15	1.875759E-16
3.370000E+03	9.228797E-15	1.897538E-16
3.380000E+03	9.356496E-15	1.916279E-16
3.390000E+03	9.465553E-15	1.931152E-16
3.400000E+03	9.551477E-15	1.941292E-16
3.410000E+03	9.608966E-15	1.945680E-16
3.420000E+03	9.633093E-15	1.943388E-16
3.430000E+03	9.618764E-15	1.933466E-16
3.440000E+03	9.562064E-15	1.915212E-16
3.450000E+03	9.460381E-15	1.888192E-16
3.460000E+03	9.312768E-15	1.852308E-16
3.470000E+03	9.120467E-15	1.807892E-16
3.480000E+03	8.885412E-15	1.755409E-16
3.490000E+03	8.609315E-15	1.695271E-16
3.500000E+03	8.295431E-15	1.628183E-16
3.510000E+03	7.949191E-15	1.555268E-16
3.520000E+03	7.578519E-15	1.478114E-16
3.530000E+03	7.192919E-15	1.398594E-16
3.540000E+03	6.803347E-15	1.318842E-16
3.550000E+03	6.420752E-15	1.240962E-16
3.560000E+03	6.055676E-15	1.166959E-16
3.570000E+03	5.717351E-15	1.098563E-16
3.580000E+03	5.413487E-15	1.037193E-16
3.590000E+03	5.150251E-15	9.839592E-17
3.600000E+03	4.932013E-15	9.396192E-17
3.610000E+03	4.762001E-15	9.047062E-17
3.620000E+03	4.642256E-15	8.795241E-17
3.630000E+03	4.574239E-15	8.642653E-17
3.640000E+03	4.559317E-15	8.591031E-17
3.650000E+03	4.598951E-15	8.642276E-17
3.660000E+03	4.694720E-15	8.798494E-17
3.670000E+03	4.848503E-15	9.062331E-17
3.680000E+03	5.061878E-15	9.435843E-17
3.690000E+03	5.336367E-15	9.920957E-17
3.700000E+03	5.673080E-15	1.051881E-16
3.710000E+03	6.072494E-15	1.122936E-16
3.720000E+03	6.533901E-15	1.205034E-16
3.730000E+03	7.055358E-15	1.297727E-16
3.740000E+03	7.633262E-15	1.400261E-16
3.750000E+03	8.262321E-15	1.511582E-16
3.760000E+03	8.935600E-15	1.630346E-16
3.770000E+03	9.645098E-15	1.755029E-16
3.780000E+03	1.038177E-14	1.883929E-16
3.790000E+03	1.113580E-14	2.015225E-16
3.800000E+03	1.189741E-14	2.147120E-16
3.810000E+03	1.265603E-14	2.277696E-16
3.820000E+03	1.340151E-14	2.405125E-16
3.830000E+03	1.412383E-14	2.527631E-16
3.840000E+03	1.481285E-14	2.643429E-16
3.850000E+03	1.545917E-14	2.750892E-16
3.860000E+03	1.605432E-14	2.848577E-16
3.870000E+03	1.659089E-14	2.935243E-16
3.880000E+03	1.706309E-14	3.009955E-16
3.890000E+03	1.746716E-14	3.072149E-16
3.900000E+03	1.780208E-14	3.121747E-16
3.910000E+03	1.806930E-14	3.159112E-16
3.920000E+03	1.827294E-14	3.185064E-16
3.930000E+03	1.841944E-14	3.200824E-16
3.940000E+03	1.851683E-14	3.207873E-16
3.950000E+03	1.857435E-14	3.207891E-16
3.960000E+03	1.860108E-14	3.202505E-16
3.970000E+03	1.860479E-14	3.193103E-16
3.980000E+03	1.859177E-14	3.180802E-16
3.990000E+03	1.856530E-14	3.166190E-16
4.000000E+03	1.852601E-14	3.149404E-16
4.010000E+03	1.847122E-14	3.130015E-16
4.020000E+03	1.839538E-14	3.107119E-16
4.030000E+03	1.829151E-14	3.079579E-16
4.040000E+03	1.815100E-14	3.046002E-16
4.050000E+03	1.796569E-14	3.005095E-16
4.060000E+03	1.772899E-14	2.955834E-16
4.070000E+03	1.743710E-14	2.897681E-16
4.080000E+03	1.708928E-14	2.830611E-16
4.090000E+03	1.668798E-14	2.755125E-16
4.100000E+03	1.623815E-14	2.672132E-16
4.110000E+03	1.574712E-14	2.582914E-16
4.120000E+03	1.522398E-14	2.489028E-16
4.130000E+03	1.467823E-14	2.392078E-16
4.140000E+03	1.412029E-14	2.293790E-16
4.150000E+03	1.356056E-14	2.195871E-16
4.160000E+03	1.300936E-14	2.099986E-16
4.170000E+03	1.247663E-14	2.007720E-16
4.180000E+03	1.197181E-14	1.920557E-16
4.190000E+03	1.150374E-14	1.839866E-16
4.200000E+03	1.108030E-14	1.766846E-16
4.210000E+03	1.070819E-14	1.702494E-16
4.220000E+03	1.039280E-14	1.647590E-16
4.230000E+03	1.013794E-14	1.602656E-16
4.240000E+03	9.945739E-15	1.567945E-16
4.250000E+03	9.816508E-15	1.543425E-16
4.260000E+03	9.748581E-15	1.528757E-16
4.270000E+03	9.738054E-15	1.523261E-16
4.280000E+03	9.778956E-15	1.525943E-16
4.290000E+03	9.863041E-15	1.535470E-16
4.300000E+03	9.980111E-15	1.550219E-16
4.310000E+03	1.011832E-14	1.568326E-16
4.320000E+03	1.026479E-14	1.587786E-16
4.330000E+03	1.040727E-14	1.606709E-16
4.340000E+03	1.053481E-14	1.623418E-16
4.350000E+03	1.063919E-14	1.636667E-16
4.360000E+03	1.071513E-14	1.645672E-16
4.370000E+03	1.076212E-14	1.650379E-16
4.380000E+03	1.078516E-14	1.651577E-16
4.390000E+03	1.079193E-14	1.650458E-16
4.400000E+03	1.079052E-14	1.648266E-16
4.410000E+03	1.078849E-14	1.646151E-16
4.420000E+03	1.079145E-14	1.644954E-16
4.430000E+03	1.080266E-14	1.645162E-16
4.440000E+03	1.082329E-14	1.646938E-16
4.450000E+03	1.085247E-14	1.650134E-16
4.460000E+03	1.088778E-14	1.654371E-16
4.470000E+03	1.092582E-14	1.659119E-16
4.480000E+03	1.096208E-14	1.663685E-16
4.490000E+03	1.099077E-14	1.667180E-16
4.500000E+03	1.100552E-14	1.668630E-16
4.510000E+03	1.100077E-14	1.667182E-16
4.520000E+03	1.097256E-14	1.662234E-16
4.530000E+03	1.091853E-14	1.653418E-16
4.540000E+03	1.083761E-14	1.640568E-16
4.550000E+03	1.073009E-14	1.623720E-16
4.560000E+03	1.059727E-14	1.603068E-16
4.570000E+03	1.044155E-14	1.578965E-16
4.580000E+03	1.026662E-14	1.551967E-16
4.590000E+03	1.007666E-14	1.522699E-16
4.600000E+03	9.876680E-15	1.491915E-16
4.610000E+03	9.672465E-15	1.460482E-16
4.620000E+03	9.469808E-15	1.429271E-16
4.630000E+03	9.273839E-15	1.399051E-16
4.640000E+03	9.089484E-15	1.370560E-16
4.650000E+03	8.919984E-15	1.344281E-16
4.660000E+03	8.767736E-15	1.320568E-16
4.670000E+03	8.633332E-15	1.299505E-16
4.680000E+03	8.515922E-15	1.280956E-16
4.690000E+03	8.413340E-15	1.264588E-16
4.700000E+03	8.322238E-15	1.249893E-16
4.710000E+03	8.238651E-15	1.236268E-16
4.720000E+03	8.158146E-15	1.223047E-16
4.730000E+03	8.076605E-15	1.209608E-16
4.740000E+03	7.990629E-15	1.195445E-16
4.750000E+03	7.897759E-15	1.180191E-16
4.760000E+03	7.797515E-15	1.163778E-16
4.770000E+03	7.690480E-15	1.146300E-16
4.780000E+03	7.579087E-15	1.128124E-16
4.790000E+03	7.466892E-15	1.109784E-16
4.800000E+03	7.357914E-15	1.091878E-16
4.810000E+03	7.256219E-15	1.075011E-16
4.820000E+03	7.165192E-15	1.059681E-16
4.830000E+03	7.087084E-15	1.046214E-16
4.840000E+03	7.023297E-15	1.034809E-16
4.850000E+03	6.974067E-15	1.025491E-16
4.860000E+03	6.938690E-15	1.018146E-16
4.870000E+03	6.915970E-15	1.012587E-16
4.880000E+03	6.904491E-15	1.008598E-16
4.890000E+03	6.902685E-15	1.005940E-16
4.900000E+03	6.909530E-15	1.004454E-16
4.910000E+03	6.924590E-15	1.004070E-16
4.920000E+03	6.948204E-15	1.004829E-16
4.930000E+03	6.981027E-15	1.006816E-16
4.940000E+03	7.023985E-15	1.010155E-16
4.950000E+03	7.078164E-15	1.014990E-16
4.960000E+03	7.144205E-15	1.021400E-16
4.970000E+03	7.222380E-15	1.029409E-16
4.980000E+03	7.312197E-15	1.038932E-16
4.990000E+03	7.412517E-15	1.049794E-16
5.000000E+03	7.521356E-15	1.061701E-16
5.010000E+03	7.636295E-15	1.074303E-16
5.020000E+03	7.754140E-15	1.087146E-16
5.030000E+03	7.871607E-15	1.099768E-16
5.040000E+03	7.985388E-15	1.111714E-16
5.050000E+03	8.092131E-15	1.122528E-16
5.060000E+03	8.188938E-15	1.131825E-16
5.070000E+03	8.273219E-15	1.139268E-16
5.080000E+03	8.342548E-15	1.144551E-16
5.090000E+03	8.394456E-15	1.147366E-16
5.100000E+03	8.426636E-15	1.147433E-16
5.110000E+03	8.436877E-15	1.144492E-16
5.120000E+03	8.422621E-15	1.138239E-16
5.130000E+03	8.381997E-15	1.128469E-16
5.140000E+03	8.313525E-15	1.115034E-16
5.150000E+03	8.217393E-15	1.098009E-16
5.160000E+03	8.094985E-15	1.077630E-16
5.170000E+03	7.949610E-15	1.054381E-16
5.180000E+03	7.786687E-15	1.029020E-16
5.190000E+03	7.612838E-15	1.002451E-16
5.200000E+03	7.435264E-15	9.756373E-17
5.210000E+03	7.261063E-15	9.495179E-17
5.220000E+03	7.096905E-15	9.249610E-17
5.230000E+03	6.947683E-15	9.025921E-17
5.240000E+03	6.816446E-15	8.827904E-17
5.250000E+03	6.704595E-15	8.657186E-17
5.260000E+03	6.612004E-15	8.513416E-17
5.270000E+03	6.536488E-15	8.393622E-17
5.280000E+03	6.475080E-15	8.293877E-17
5.290000E+03	6.424334E-15	8.209694E-17
5.300000E+03	6.380758E-15	8.136588E-17
5.310000E+03	6.341079E-15	8.070395E-17
5.320000E+03	6.302910E-15	8.008115E-17
5.330000E+03	6.264941E-15	7.948138E-17
5.340000E+03	6.226982E-15	7.890276E-17
5.350000E+03	6.189750E-15	7.835490E-17
5.360000E+03	6.155299E-15	7.786425E-17
5.370000E+03	6.125953E-15	7.746047E-17
5.380000E+03	6.104105E-15	7.717335E-17
5.390000E+03	6.091241E-15	7.702098E-17
5.400000E+03	6.088124E-15	7.701244E-17
5.410000E+03	6.094265E-15	7.714113E-17
5.420000E+03	6.107556E-15	7.738001E-17
5.430000E+03	6.125896E-15	7.770198E-17
5.440000E+03	6.147344E-15	7.808199E-17
5.450000E+03	6.169620E-15	7.849057E-17
5.460000E+03	6.190045E-15	7.889296E-17
5.470000E+03	6.206392E-15	7.925992E-17
5.480000E+03	6.217601E-15	7.957684E-17
5.490000E+03	6.223049E-15	7.983458E-17
5.500000E+03	6.223127E-15	8.003680E-17
5.510000E+03	6.219173E-15	8.019943E-17
5.520000E+03	6.213232E-15	8.034765E-17
5.530000E+03	6.207024E-15	8.050271E-17
5.540000E+03	6.202129E-15	8.068431E-17
5.550000E+03	6.199543E-15	8.090483E-17
5.560000E+03	6.199749E-15	8.117007E-17
5.570000E+03	6.201961E-15	8.146936E-17
5.580000E+03	6.204823E-15	8.178435E-17
5.590000E+03	6.206530E-15	8.209057E-17
5.600000E+03	6.205296E-15	8.236351E-17
5.610000E+03	6.199142E-15	8.257571E-17
5.620000E+03	6.186560E-15	8.270569E-17
5.630000E+03	6.166867E-15	8.274275E-17
5.640000E+03	6.139910E-15	8.268316E-17
5.650000E+03	6.106219E-15	8.253245E-17
5.660000E+03	6.067073E-15	8.230641E-17
5.670000E+03	6.024294E-15	8.202853E-17
5.680000E+03	5.979864E-15	8.172485E-17
5.690000E+03	5.935897E-15	8.142368E-17
5.700000E+03	5.894286E-15	8.115077E-17
5.710000E+03	5.856456E-15	8.092577E-17
5.720000E+03	5.823435E-15	8.076320E-17
5.730000E+03	5.795331E-15	8.066499E-17
5.740000E+03	5.771752E-15	8.062613E-17
5.750000E+03	5.751475E-15	8.062994E-17
5.760000E+03	5.732568E-15	8.064951E-17
5.770000E+03	5.712711E-15	8.065209E-17
5.780000E+03	5.689250E-15	8.059980E-17
5.790000E+03	5.659249E-15	8.045026E-17
5.800000E+03	5.619932E-15	8.016280E-17
5.810000E+03	5.569022E-15	7.970344E-17
5.820000E+03	5.504530E-15	7.904193E-17
5.830000E+03	5.425436E-15	7.816169E-17
5.840000E+03	5.331753E-15	7.706091E-17
5.850000E+03	5.224424E-15	7.575133E-17
5.860000E+03	5.105376E-15	7.425921E-17
5.870000E+03	4.977399E-15	7.262386E-17
5.880000E+03	4.843973E-15	7.089521E-17
5.890000E+03	4.708513E-15	6.912286E-17
5.900000E+03	4.574448E-15	6.735728E-17
5.910000E+03	4.444744E-15	6.564273E-17
5.920000E+03	4.321636E-15	6.401310E-17
5.930000E+03	4.206595E-15	6.249136E-17
5.940000E+03	4.100128E-15	6.108636E-17
5.950000E+03	4.002096E-15	5.979734E-17
5.960000E+03	3.911790E-15	5.861500E-17
5.970000E+03	3.828008E-15	5.752247E-17
5.980000E+03	3.749293E-15	5.649884E-17
5.990000E+03	3.674554E-15	5.552846E-17
6.000000E+03	3.602713E-15	5.459572E-17
6.010000E+03	3.533456E-15	5.369641E-17
6.020000E+03	3.467107E-15	5.283596E-17
6.030000E+03	3.404705E-15	5.203083E-17
6.040000E+03	3.347842E-15	5.130611E-17
6.050000E+03	3.298656E-15	5.069553E-17
6.060000E+03	3.259536E-15	5.023708E-17
6.070000E+03	3.232674E-15	4.996619E-17
6.080000E+03	3.220130E-15	4.991657E-17
6.090000E+03	3.223400E-15	5.011368E-17
6.100000E+03	3.243574E-15	5.057689E-17
6.110000E+03	3.280682E-15	5.130932E-17
6.120000E+03	3.334071E-15	5.230349E-17
6.130000E+03	3.402545E-15	5.354329E-17
6.140000E+03	3.484240E-15	5.500201E-17
6.150000E+03	3.576700E-15	5.664328E-17
6.160000E+03	3.677248E-15	5.842681E-17
6.170000E+03	3.783296E-15	6.031332E-17
6.180000E+03	3.892082E-15	6.226022E-17
6.190000E+03	4.001128E-15	6.422900E-17
6.200000E+03	4.108348E-15	6.618692E-17
6.210000E+03	4.212024E-15	6.810676E-17
6.220000E+03	4.310590E-15	6.996337E-17
6.230000E+03	4.402599E-15	7.173307E-17
6.240000E+03	4.486920E-15	7.339707E-17
6.250000E+03	4.562537E-15	7.493803E-17
6.260000E+03	4.628480E-15	7.633904E-17
6.270000E+03	4.683929E-15	7.758532E-17
6.280000E+03	4.728351E-15	7.866647E-17
6.290000E+03	4.761108E-15	7.956958E-17
6.300000E+03	4.781853E-15	8.028602E-17
6.310000E+03	4.790671E-15	8.081415E-17
6.320000E+03	4.787755E-15	8.115407E-17
6.330000E+03	4.773635E-15	8.131151E-17
6.340000E+03	4.749491E-15	8.130335E-17
6.350000E+03	4.716701E-15	8.115023E-17
6.360000E+03	4.677012E-15	8.087954E-17
6.370000E+03	4.632846E-15	8.053093E-17
6.380000E+03	4.586620E-15	8.014486E-17
6.390000E+03	4.540825E-15	7.976388E-17
6.400000E+03	4.497600E-15	7.942536E-17
6.410000E+03	4.458066E-15	7.914931E-17
6.420000E+03	4.421772E-15	7.892827E-17
6.430000E+03	4.387756E-15	7.874535E-17
6.440000E+03	4.354831E-15	7.857936E-17
6.450000E+03	4.322076E-15	7.841343E-17
6.460000E+03	4.288957E-15	7.823745E-17
6.470000E+03	4.255119E-15	7.804438E-17
6.480000E+03	4.220563E-15	7.783361E-17
6.490000E+03	4.185293E-15	7.760460E-17
6.500000E+03	4.149597E-15	7.736212E-17
6.510000E+03	4.113717E-15	7.711023E-17
6.520000E+03	4.077879E-15	7.685279E-17
6.530000E+03	4.042372E-15	7.659496E-17
6.540000E+03	4.007420E-15	7.634080E-17
6.550000E+03	3.973251E-15	7.609454E-17
6.560000E+03	3.940021E-15	7.585919E-17
6.570000E+03	3.907932E-15	7.563864E-17
6.580000E+03	3.877031E-15	7.543390E-17
6.590000E+03	3.847355E-15	7.524586E-17
6.600000E+03	3.818967E-15	7.507591E-17
6.610000E+03	3.791834E-15	7.492355E-17
6.620000E+03	3.765800E-15	7.478591E-17
6.630000E+03	3.740813E-15	7.466205E-17
6.640000E+03	3.716685E-15	7.454837E-17
6.650000E+03	3.693391E-15	7.444445E-17
6.660000E+03	3.670659E-15	7.434488E-17
6.670000E+03	3.648354E-15	7.424692E-17
6.680000E+03	3.626394E-15	7.414889E-17
6.690000E+03	3.604649E-15	7.404810E-17
6.700000E+03	3.582943E-15	7.394088E-17
6.710000E+03	3.561168E-15	7.382487E-17
6.720000E+03	3.539299E-15	7.369945E-17
6.730000E+03	3.517211E-15	7.356189E-17
6.740000E+03	3.494934E-15	7.341269E-17
6.750000E+03	3.472344E-15	7.324910E-17
6.760000E+03	3.449598E-15	7.307433E-17
6.770000E+03	3.426645E-15	7.288720E-17
6.780000E+03	3.403711E-15	7.269243E-17
6.790000E+03	3.380790E-15	7.248988E-17
6.800000E+03	3.358083E-15	7.228385E-17
6.810000E+03	3.335729E-15	7.207738E-17
6.820000E+03	3.313802E-15	7.187219E-17
6.830000E+03	3.292501E-15	7.167266E-17
6.840000E+03	3.271888E-15	7.148033E-17
6.850000E+03	3.252118E-15	7.129874E-17
6.860000E+03	3.233143E-15	7.112705E-17
6.870000E+03	3.215126E-15	7.096906E-17
6.880000E+03	3.198020E-15	7.082395E-17
6.890000E+03	3.181806E-15	7.069149E-17
6.900000E+03	3.166379E-15	7.056958E-17
6.910000E+03	3.151810E-15	7.045996E-17
6.920000E+03	3.137861E-15	7.035751E-17
6.930000E+03	3.124651E-15	7.026504E-17
6.940000E+03	3.112011E-15	7.017892E-17
6.950000E+03	3.099897E-15	7.009828E-17
6.960000E+03	3.088327E-15	7.002365E-17
6.970000E+03	3.077194E-15	6.995272E-17
6.980000E+03	3.066445E-15	6.988441E-17
6.990000E+03	3.056009E-15	6.981720E-17
7.000000E+03	3.045794E-15	6.974906E-17
7.010000E+03	3.035687E-15	6.967745E-17
7.020000E+03	3.025497E-15	6.959807E-17
7.030000E+03	3.015192E-15	6.951022E-17
7.040000E+03	3.004449E-15	6.940646E-17
7.050000E+03	2.993294E-15	6.928737E-17
7.060000E+03	2.981398E-15	6.914537E-17
7.070000E+03	2.968746E-15	6.898004E-17
7.080000E+03	2.955152E-15	6.878705E-17
7.090000E+03	2.940513E-15	6.856398E-17
7.100000E+03	2.924819E-15	6.831054E-17
7.110000E+03	2.907915E-15	6.802310E-17
7.120000E+03	2.889870E-15	6.770327E-17
7.130000E+03	2.870698E-15	6.735135E-17
7.140000E+03	2.850581E-15	6.697163E-17
7.150000E+03	2.829686E-15	6.656809E-17
7.160000E+03	2.808185E-15	6.614485E-17
7.170000E+03	2.786394E-15	6.570947E-17
7.180000E+03	2.764460E-15	6.526554E-17
7.190000E+03	2.742763E-15	6.482216E-17
7.200000E+03	2.721486E-15	6.438383E-17
7.210000E+03	2.700771E-15	6.395413E-17
7.220000E+03	2.680824E-15	6.353811E-17
7.230000E+03	2.661738E-15	6.313817E-17
7.240000E+03	2.643492E-15	6.275404E-17
7.250000E+03	2.626062E-15	6.238531E-17
7.260000E+03	2.609373E-15	6.203043E-17
7.270000E+03	2.593314E-15	6.168689E-17
7.280000E+03	2.577762E-15	6.135197E-17
7.290000E+03	2.562473E-15	6.102002E-17
7.300000E+03	2.547421E-15	6.069058E-17
7.310000E+03	2.532453E-15	6.036014E-17
7.320000E+03	2.517440E-15	6.002580E-17
7.330000E+03	2.502390E-15	5.968788E-17
7.340000E+03	2.487212E-15	5.934437E-17
7.350000E+03	2.471962E-15	5.899678E-17
7.360000E+03	2.456737E-15	5.864753E-17
7.370000E+03	2.441645E-15	5.829939E-17
7.380000E+03	2.426919E-15	5.795808E-17
7.390000E+03	2.412599E-15	5.762470E-17
7.400000E+03	2.398984E-15	5.730659E-17
7.410000E+03	2.386138E-15	5.700541E-17
7.420000E+03	2.374219E-15	5.672509E-17
7.430000E+03	2.363224E-15	5.646576E-17
7.440000E+03	2.353128E-15	5.622694E-17
7.450000E+03	2.343877E-15	5.600753E-17
7.460000E+03	2.335265E-15	5.580277E-17
7.470000E+03	2.327229E-15	5.561128E-17
7.480000E+03	2.319400E-15	5.542445E-17
7.490000E+03	2.311591E-15	5.523793E-17
7.500000E+03	2.303425E-15	5.504290E-17
7.510000E+03	2.294691E-15	5.483450E-17
7.520000E+03	2.284973E-15	5.460292E-17
7.530000E+03	2.273873E-15	5.433882E-17
7.540000E+03	2.261013E-15	5.403334E-17
7.550000E+03	2.245946E-15	5.367596E-17
7.560000E+03	2.228319E-15	5.325843E-17
7.570000E+03	2.207614E-15	5.276844E-17
7.580000E+03	2.183503E-15	5.219833E-17
7.590000E+03	2.155724E-15	5.154194E-17
7.600000E+03	2.123985E-15	5.079235E-17
7.610000E+03	2.088170E-15	4.994687E-17
7.620000E+03	2.048148E-15	4.900235E-17
7.630000E+03	2.004012E-15	4.796104E-17
7.640000E+03	1.955763E-15	4.682289E-17
7.650000E+03	1.903687E-15	4.559467E-17
7.660000E+03	1.848014E-15	4.428174E-17
7.670000E+03	1.789284E-15	4.289686E-17
7.680000E+03	1.727973E-15	4.145128E-17
7.690000E+03	1.664810E-15	3.996228E-17
7.700000E+03	1.600480E-15	3.844603E-17
7.710000E+03	1.535741E-15	3.692051E-17
7.720000E+03	1.471357E-15	3.540391E-17
7.730000E+03	1.408094E-15	3.391441E-17
7.740000E+03	1.346673E-15	3.246929E-17
7.750000E+03	1.287746E-15	3.108410E-17
7.760000E+03	1.232009E-15	2.977563E-17
