#wls	flux	fluxerr
1.600000E+03	2.711443E-15	9.419581E-17
1.640000E+03	2.307526E-15	7.842096E-17
1.680000E+03	1.945672E-15	6.464211E-17
1.720000E+03	1.624872E-15	5.273832E-17
1.760000E+03	1.343635E-15	4.257427E-17
1.800000E+03	1.099936E-15	3.400063E-17
1.840000E+03	8.908735E-16	2.684623E-17
1.880000E+03	7.136564E-16	2.095078E-17
1.920000E+03	5.649547E-16	1.614613E-17
1.960000E+03	4.413329E-16	1.227080E-17
2.000000E+03	3.393441E-16	9.173121E-18
2.040000E+03	2.557926E-16	6.718476E-18
2.080000E+03	1.881148E-16	4.798099E-18
2.120000E+03	1.358832E-16	3.364047E-18
2.160000E+03	1.001392E-16	2.405326E-18
2.200000E+03	7.884013E-17	1.836798E-18
2.240000E+03	6.899253E-17	1.558791E-18
2.280000E+03	6.888553E-17	1.509324E-18
2.320000E+03	7.900262E-17	1.678977E-18
2.360000E+03	1.028010E-16	2.119951E-18
2.400000E+03	1.481978E-16	2.967451E-18
2.440000E+03	2.298780E-16	4.473686E-18
2.480000E+03	3.716824E-16	7.039079E-18
2.520000E+03	6.059449E-16	1.118474E-17
2.560000E+03	9.632957E-16	1.736123E-17
2.600000E+03	1.446587E-15	2.550782E-17
2.640000E+03	2.005958E-15	3.467940E-17
2.680000E+03	2.582119E-15	4.385461E-17
2.720000E+03	3.169149E-15	5.297535E-17
2.760000E+03	3.810852E-15	6.280168E-17
2.800000E+03	4.569535E-15	7.434974E-17
2.840000E+03	5.494596E-15	8.837978E-17
2.880000E+03	6.598510E-15	1.050353E-16
2.920000E+03	7.850495E-15	1.237762E-16
2.960000E+03	9.188360E-15	1.435917E-16
3.000000E+03	1.054281E-14	1.633920E-16
3.010000E+03	1.087687E-14	1.682299E-16
3.020000E+03	1.120652E-14	1.729838E-16
3.030000E+03	1.153029E-14	1.776311E-16
3.040000E+03	1.184708E-14	1.821558E-16
3.050000E+03	1.215490E-14	1.865280E-16
3.060000E+03	1.245201E-14	1.907217E-16
3.070000E+03	1.273699E-14	1.947165E-16
3.080000E+03	1.300813E-14	1.984871E-16
3.090000E+03	1.326436E-14	2.020184E-16
3.100000E+03	1.350574E-14	2.053127E-16
3.110000E+03	1.373193E-14	2.083660E-16
3.120000E+03	1.394422E-14	2.111991E-16
3.130000E+03	1.414417E-14	2.138369E-16
3.140000E+03	1.433530E-14	2.163334E-16
3.150000E+03	1.452017E-14	2.187279E-16
3.160000E+03	1.470294E-14	2.210836E-16
3.170000E+03	1.488819E-14	2.234696E-16
3.180000E+03	1.508044E-14	2.259533E-16
3.190000E+03	1.528368E-14	2.285938E-16
3.200000E+03	1.550323E-14	2.314697E-16
3.210000E+03	1.574276E-14	2.346341E-16
3.220000E+03	1.600641E-14	2.381471E-16
3.230000E+03	1.629718E-14	2.420512E-16
3.240000E+03	1.661799E-14	2.463874E-16
3.250000E+03	1.697068E-14	2.511806E-16
3.260000E+03	1.735613E-14	2.564414E-16
3.270000E+03	1.777392E-14	2.621610E-16
3.280000E+03	1.822315E-14	2.683236E-16
3.290000E+03	1.870148E-14	2.748927E-16
3.300000E+03	1.920516E-14	2.818109E-16
3.310000E+03	1.972992E-14	2.890140E-16
3.320000E+03	2.026982E-14	2.964134E-16
3.330000E+03	2.081851E-14	3.039158E-16
3.340000E+03	2.136811E-14	3.114057E-16
3.350000E+03	2.191031E-14	3.187625E-16
3.360000E+03	2.243629E-14	3.258588E-16
3.370000E+03	2.293707E-14	3.325660E-16
3.380000E+03	2.340391E-14	3.387599E-16
3.390000E+03	2.382851E-14	3.443233E-16
3.400000E+03	2.420443E-14	3.491671E-16
3.410000E+03	2.452609E-14	3.532146E-16
3.420000E+03	2.479175E-14	3.564454E-16
3.430000E+03	2.500120E-14	3.588609E-16
3.440000E+03	2.515828E-14	3.605208E-16
3.450000E+03	2.526992E-14	3.615286E-16
3.460000E+03	2.534500E-14	3.620144E-16
3.470000E+03	2.539296E-14	3.621161E-16
3.480000E+03	2.541526E-14	3.618571E-16
3.490000E+03	2.539284E-14	3.609683E-16
3.500000E+03	2.529912E-14	3.590761E-16
3.510000E+03	2.510914E-14	3.558302E-16
3.520000E+03	2.480482E-14	3.509798E-16
3.530000E+03	2.437573E-14	3.443837E-16
3.540000E+03	2.382259E-14	3.360591E-16
3.550000E+03	2.315524E-14	3.261511E-16
3.560000E+03	2.239229E-14	3.149277E-16
3.570000E+03	2.155814E-14	3.027365E-16
3.580000E+03	2.068116E-14	2.899792E-16
3.590000E+03	1.979148E-14	2.770798E-16
3.600000E+03	1.891720E-14	2.644312E-16
3.610000E+03	1.808460E-14	2.523991E-16
3.620000E+03	1.731573E-14	2.412876E-16
3.630000E+03	1.662823E-14	2.313379E-16
3.640000E+03	1.603557E-14	2.227316E-16
3.650000E+03	1.554743E-14	2.155966E-16
3.660000E+03	1.516978E-14	2.100083E-16
3.670000E+03	1.490626E-14	2.060093E-16
3.680000E+03	1.475764E-14	2.036022E-16
3.690000E+03	1.472375E-14	2.027760E-16
3.700000E+03	1.480344E-14	2.035062E-16
3.710000E+03	1.499530E-14	2.057645E-16
3.720000E+03	1.529739E-14	2.095154E-16
3.730000E+03	1.570798E-14	2.147259E-16
3.740000E+03	1.622499E-14	2.213581E-16
3.750000E+03	1.684616E-14	2.293716E-16
3.760000E+03	1.756849E-14	2.387160E-16
3.770000E+03	1.838833E-14	2.493316E-16
3.780000E+03	1.930057E-14	2.611396E-16
3.790000E+03	2.029846E-14	2.740388E-16
3.800000E+03	2.137380E-14	2.879095E-16
3.810000E+03	2.251505E-14	3.025874E-16
3.820000E+03	2.370902E-14	3.178874E-16
3.830000E+03	2.494009E-14	3.335937E-16
3.840000E+03	2.618988E-14	3.494553E-16
3.850000E+03	2.743895E-14	3.652093E-16
3.860000E+03	2.866760E-14	3.805925E-16
3.870000E+03	2.985619E-14	3.953448E-16
3.880000E+03	3.098633E-14	4.092260E-16
3.890000E+03	3.204152E-14	4.220235E-16
3.900000E+03	3.300875E-14	4.335730E-16
3.910000E+03	3.387789E-14	4.437504E-16
3.920000E+03	3.464224E-14	4.524786E-16
3.930000E+03	3.529846E-14	4.597254E-16
3.940000E+03	3.584619E-14	4.654982E-16
3.950000E+03	3.628786E-14	4.698413E-16
3.960000E+03	3.662729E-14	4.728168E-16
3.970000E+03	3.686876E-14	4.744924E-16
3.980000E+03	3.701758E-14	4.749488E-16
3.990000E+03	3.707748E-14	4.742462E-16
4.000000E+03	3.705190E-14	4.724405E-16
4.010000E+03	3.694280E-14	4.695682E-16
4.020000E+03	3.675067E-14	4.656476E-16
4.030000E+03	3.647613E-14	4.606985E-16
4.040000E+03	3.611835E-14	4.547221E-16
4.050000E+03	3.567720E-14	4.477290E-16
4.060000E+03	3.515284E-14	4.397332E-16
4.070000E+03	3.454655E-14	4.307626E-16
4.080000E+03	3.386120E-14	4.208648E-16
4.090000E+03	3.310187E-14	4.101137E-16
4.100000E+03	3.227507E-14	3.986002E-16
4.110000E+03	3.138977E-14	3.864440E-16
4.120000E+03	3.045755E-14	3.737951E-16
4.130000E+03	2.949078E-14	3.608113E-16
4.140000E+03	2.850411E-14	3.476758E-16
4.150000E+03	2.751298E-14	3.345786E-16
4.160000E+03	2.653334E-14	3.217138E-16
4.170000E+03	2.558112E-14	3.092727E-16
4.180000E+03	2.467156E-14	2.974357E-16
4.190000E+03	2.381881E-14	2.863678E-16
4.200000E+03	2.303531E-14	2.762122E-16
4.210000E+03	2.233139E-14	2.670849E-16
4.220000E+03	2.171492E-14	2.590719E-16
4.230000E+03	2.119111E-14	2.522270E-16
4.240000E+03	2.076275E-14	2.465752E-16
4.250000E+03	2.043022E-14	2.421134E-16
4.260000E+03	2.019116E-14	2.388065E-16
4.270000E+03	2.004038E-14	2.365875E-16
4.280000E+03	1.997069E-14	2.353668E-16
4.290000E+03	1.997219E-14	2.350243E-16
4.300000E+03	2.003240E-14	2.354108E-16
4.310000E+03	2.013637E-14	2.363486E-16
4.320000E+03	2.026675E-14	2.376333E-16
4.330000E+03	2.040510E-14	2.390489E-16
4.340000E+03	2.053149E-14	2.403627E-16
4.350000E+03	2.062748E-14	2.413603E-16
4.360000E+03	2.067731E-14	2.418585E-16
4.370000E+03	2.067250E-14	2.417591E-16
4.380000E+03	2.061569E-14	2.410933E-16
4.390000E+03	2.051614E-14	2.399691E-16
4.400000E+03	2.038607E-14	2.385277E-16
4.410000E+03	2.023931E-14	2.369278E-16
4.420000E+03	2.008903E-14	2.353207E-16
4.430000E+03	1.994727E-14	2.338446E-16
4.440000E+03	1.982492E-14	2.326248E-16
4.450000E+03	1.973080E-14	2.317629E-16
4.460000E+03	1.967210E-14	2.313419E-16
4.470000E+03	1.965383E-14	2.314202E-16
4.480000E+03	1.967705E-14	2.320100E-16
4.490000E+03	1.973691E-14	2.330539E-16
4.500000E+03	1.982413E-14	2.344424E-16
4.510000E+03	1.992776E-14	2.360455E-16
4.520000E+03	2.003680E-14	2.377317E-16
4.530000E+03	2.014071E-14	2.393748E-16
4.540000E+03	2.022996E-14	2.408588E-16
4.550000E+03	2.029629E-14	2.420827E-16
4.560000E+03	2.033283E-14	2.429611E-16
4.570000E+03	2.033449E-14	2.434294E-16
4.580000E+03	2.029860E-14	2.434516E-16
4.590000E+03	2.022361E-14	2.430044E-16
4.600000E+03	2.010996E-14	2.420892E-16
4.610000E+03	1.996011E-14	2.407312E-16
4.620000E+03	1.977767E-14	2.389702E-16
4.630000E+03	1.956665E-14	2.368510E-16
4.640000E+03	1.933274E-14	2.344396E-16
4.650000E+03	1.908051E-14	2.317888E-16
4.660000E+03	1.881532E-14	2.289615E-16
4.670000E+03	1.854139E-14	2.260076E-16
4.680000E+03	1.826219E-14	2.229682E-16
4.690000E+03	1.798025E-14	2.198731E-16
4.700000E+03	1.769724E-14	2.167424E-16
4.710000E+03	1.741440E-14	2.135907E-16
4.720000E+03	1.713178E-14	2.104184E-16
4.730000E+03	1.684921E-14	2.072232E-16
4.740000E+03	1.656646E-14	2.040023E-16
4.750000E+03	1.628281E-14	2.007466E-16
4.760000E+03	1.599854E-14	1.974599E-16
4.770000E+03	1.571339E-14	1.941391E-16
4.780000E+03	1.542842E-14	1.907976E-16
4.790000E+03	1.514503E-14	1.874530E-16
4.800000E+03	1.486478E-14	1.841253E-16
4.810000E+03	1.459014E-14	1.808457E-16
4.820000E+03	1.432374E-14	1.776475E-16
4.830000E+03	1.406785E-14	1.745595E-16
4.840000E+03	1.382507E-14	1.716150E-16
4.850000E+03	1.359765E-14	1.688426E-16
4.860000E+03	1.338745E-14	1.662663E-16
4.870000E+03	1.319619E-14	1.639084E-16
4.880000E+03	1.302546E-14	1.617890E-16
4.890000E+03	1.287632E-14	1.599219E-16
4.900000E+03	1.274992E-14	1.583220E-16
4.910000E+03	1.264683E-14	1.569965E-16
4.920000E+03	1.256780E-14	1.559549E-16
4.930000E+03	1.251324E-14	1.552025E-16
4.940000E+03	1.248312E-14	1.547383E-16
4.950000E+03	1.247735E-14	1.545614E-16
4.960000E+03	1.249524E-14	1.546625E-16
4.970000E+03	1.253597E-14	1.550310E-16
4.980000E+03	1.259804E-14	1.556477E-16
4.990000E+03	1.267962E-14	1.564894E-16
5.000000E+03	1.277828E-14	1.575253E-16
5.010000E+03	1.289155E-14	1.587242E-16
5.020000E+03	1.301595E-14	1.600427E-16
5.030000E+03	1.314791E-14	1.614365E-16
5.040000E+03	1.328364E-14	1.628587E-16
5.050000E+03	1.341883E-14	1.642564E-16
5.060000E+03	1.354914E-14	1.655768E-16
5.070000E+03	1.367019E-14	1.667669E-16
5.080000E+03	1.377769E-14	1.677754E-16
5.090000E+03	1.386746E-14	1.685525E-16
5.100000E+03	1.393581E-14	1.690556E-16
5.110000E+03	1.397982E-14	1.692510E-16
5.120000E+03	1.399686E-14	1.691095E-16
5.130000E+03	1.398576E-14	1.686197E-16
5.140000E+03	1.394569E-14	1.677748E-16
5.150000E+03	1.387769E-14	1.665903E-16
5.160000E+03	1.378356E-14	1.650909E-16
5.170000E+03	1.366635E-14	1.633163E-16
5.180000E+03	1.353011E-14	1.613176E-16
5.190000E+03	1.337954E-14	1.591534E-16
5.200000E+03	1.321991E-14	1.568884E-16
5.210000E+03	1.305652E-14	1.545872E-16
5.220000E+03	1.289489E-14	1.523163E-16
5.230000E+03	1.273941E-14	1.501284E-16
5.240000E+03	1.259431E-14	1.480736E-16
5.250000E+03	1.246290E-14	1.461908E-16
5.260000E+03	1.234763E-14	1.445085E-16
5.270000E+03	1.224986E-14	1.430423E-16
5.280000E+03	1.217057E-14	1.418031E-16
5.290000E+03	1.210988E-14	1.407919E-16
5.300000E+03	1.206756E-14	1.400055E-16
5.310000E+03	1.204288E-14	1.394353E-16
5.320000E+03	1.203519E-14	1.390734E-16
5.330000E+03	1.204329E-14	1.389060E-16
5.340000E+03	1.206620E-14	1.389221E-16
5.350000E+03	1.210276E-14	1.391083E-16
5.360000E+03	1.215199E-14	1.394542E-16
5.370000E+03	1.221229E-14	1.399418E-16
5.380000E+03	1.228238E-14	1.405575E-16
5.390000E+03	1.236045E-14	1.412817E-16
5.400000E+03	1.244454E-14	1.420929E-16
5.410000E+03	1.253228E-14	1.429649E-16
5.420000E+03	1.262178E-14	1.438760E-16
5.430000E+03	1.271161E-14	1.448101E-16
5.440000E+03	1.280043E-14	1.457518E-16
5.450000E+03	1.288755E-14	1.466930E-16
5.460000E+03	1.297194E-14	1.476215E-16
5.470000E+03	1.305272E-14	1.485269E-16
5.480000E+03	1.312965E-14	1.494056E-16
5.490000E+03	1.320182E-14	1.502470E-16
5.500000E+03	1.326884E-14	1.510458E-16
5.510000E+03	1.333008E-14	1.517943E-16
5.520000E+03	1.338531E-14	1.524891E-16
5.530000E+03	1.343368E-14	1.531195E-16
5.540000E+03	1.347477E-14	1.536802E-16
5.550000E+03	1.350790E-14	1.541624E-16
5.560000E+03	1.353293E-14	1.545635E-16
5.570000E+03	1.354918E-14	1.548750E-16
5.580000E+03	1.355640E-14	1.550928E-16
5.590000E+03	1.355425E-14	1.552119E-16
5.600000E+03	1.354279E-14	1.552323E-16
5.610000E+03	1.352190E-14	1.551515E-16
5.620000E+03	1.349196E-14	1.549726E-16
5.630000E+03	1.345369E-14	1.547030E-16
5.640000E+03	1.340802E-14	1.543525E-16
5.650000E+03	1.335639E-14	1.539368E-16
5.660000E+03	1.330032E-14	1.534727E-16
5.670000E+03	1.324187E-14	1.529829E-16
5.680000E+03	1.318324E-14	1.524926E-16
5.690000E+03	1.312654E-14	1.520257E-16
5.700000E+03	1.307378E-14	1.516052E-16
5.710000E+03	1.302673E-14	1.512514E-16
5.720000E+03	1.298703E-14	1.509836E-16
5.730000E+03	1.295538E-14	1.508095E-16
5.740000E+03	1.293240E-14	1.507369E-16
5.750000E+03	1.291790E-14	1.507636E-16
5.760000E+03	1.291092E-14	1.508787E-16
5.770000E+03	1.291013E-14	1.510669E-16
5.780000E+03	1.291365E-14	1.513064E-16
5.790000E+03	1.291874E-14	1.515654E-16
5.800000E+03	1.292241E-14	1.518086E-16
5.810000E+03	1.292158E-14	1.520000E-16
5.820000E+03	1.291247E-14	1.520949E-16
5.830000E+03	1.289167E-14	1.520530E-16
5.840000E+03	1.285583E-14	1.518342E-16
5.850000E+03	1.280185E-14	1.514014E-16
5.860000E+03	1.272726E-14	1.507249E-16
5.870000E+03	1.262973E-14	1.497760E-16
5.880000E+03	1.250814E-14	1.485409E-16
5.890000E+03	1.236160E-14	1.470080E-16
5.900000E+03	1.219005E-14	1.451756E-16
5.910000E+03	1.199402E-14	1.430492E-16
5.920000E+03	1.177461E-14	1.406407E-16
5.930000E+03	1.153357E-14	1.379703E-16
5.940000E+03	1.127264E-14	1.350578E-16
5.950000E+03	1.099425E-14	1.319315E-16
5.960000E+03	1.070129E-14	1.286250E-16
5.970000E+03	1.039683E-14	1.251749E-16
5.980000E+03	1.008404E-14	1.216185E-16
5.990000E+03	9.766834E-15	1.180026E-16
6.000000E+03	9.448719E-15	1.143691E-16
6.010000E+03	9.134072E-15	1.107711E-16
6.020000E+03	8.826621E-15	1.072538E-16
6.030000E+03	8.530347E-15	1.038659E-16
6.040000E+03	8.249103E-15	1.006550E-16
6.050000E+03	7.986188E-15	9.766232E-17
6.060000E+03	7.744530E-15	9.492484E-17
6.070000E+03	7.526316E-15	9.247097E-17
6.080000E+03	7.333478E-15	9.032626E-17
6.090000E+03	7.166854E-15	8.850316E-17
6.100000E+03	7.027077E-15	8.701187E-17
6.110000E+03	6.913909E-15	8.585201E-17
6.120000E+03	6.826554E-15	8.501642E-17
6.130000E+03	6.763801E-15	8.449290E-17
6.140000E+03	6.724096E-15	8.426495E-17
6.150000E+03	6.705366E-15	8.430952E-17
6.160000E+03	6.705338E-15	8.460095E-17
6.170000E+03	6.721700E-15	8.511285E-17
6.180000E+03	6.751654E-15	8.581245E-17
6.190000E+03	6.792568E-15	8.666875E-17
6.200000E+03	6.841777E-15	8.764989E-17
6.210000E+03	6.896628E-15	8.872348E-17
6.220000E+03	6.954350E-15	8.985441E-17
6.230000E+03	7.012350E-15	9.100928E-17
6.240000E+03	7.068255E-15	9.215696E-17
6.250000E+03	7.119686E-15	9.326558E-17
6.260000E+03	7.164660E-15	9.430787E-17
6.270000E+03	7.201364E-15	9.525819E-17
6.280000E+03	7.228386E-15	9.609571E-17
6.290000E+03	7.244576E-15	9.680260E-17
6.300000E+03	7.249181E-15	9.736594E-17
6.310000E+03	7.241985E-15	9.777981E-17
6.320000E+03	7.223236E-15	9.804438E-17
6.330000E+03	7.193460E-15	9.816364E-17
6.340000E+03	7.153837E-15	9.815066E-17
6.350000E+03	7.105971E-15	9.802462E-17
6.360000E+03	7.051615E-15	9.780725E-17
6.370000E+03	6.993056E-15	9.752826E-17
6.380000E+03	6.932474E-15	9.721652E-17
6.390000E+03	6.871923E-15	9.689984E-17
6.400000E+03	6.813086E-15	9.660143E-17
6.410000E+03	6.757113E-15	9.633745E-17
6.420000E+03	6.703927E-15	9.610687E-17
6.430000E+03	6.653201E-15	9.590506E-17
6.440000E+03	6.604164E-15	9.572088E-17
6.450000E+03	6.555995E-15	9.554227E-17
6.460000E+03	6.508064E-15	9.535968E-17
6.470000E+03	6.459789E-15	9.516415E-17
6.480000E+03	6.410870E-15	9.495071E-17
6.490000E+03	6.360893E-15	9.471261E-17
6.500000E+03	6.309997E-15	9.445130E-17
6.510000E+03	6.258254E-15	9.416728E-17
6.520000E+03	6.205740E-15	9.386113E-17
6.530000E+03	6.152792E-15	9.353751E-17
6.540000E+03	6.099688E-15	9.320023E-17
6.550000E+03	6.046717E-15	9.285342E-17
6.560000E+03	5.994161E-15	9.250125E-17
6.570000E+03	5.942375E-15	9.214905E-17
6.580000E+03	5.891489E-15	9.179881E-17
6.590000E+03	5.841683E-15	9.145338E-17
6.600000E+03	5.793196E-15	9.111655E-17
6.610000E+03	5.746120E-15	9.078993E-17
6.620000E+03	5.700412E-15	9.047296E-17
6.630000E+03	5.656180E-15	9.016756E-17
6.640000E+03	5.613307E-15	8.987201E-17
6.650000E+03	5.571932E-15	8.958875E-17
6.660000E+03	5.531795E-15	8.931377E-17
6.670000E+03	5.492808E-15	8.904579E-17
6.680000E+03	5.454965E-15	8.878489E-17
6.690000E+03	5.418165E-15	8.852955E-17
6.700000E+03	5.382212E-15	8.827671E-17
6.710000E+03	5.347008E-15	8.802487E-17
6.720000E+03	5.312564E-15	8.777428E-17
6.730000E+03	5.278710E-15	8.752225E-17
6.740000E+03	5.245485E-15	8.726949E-17
6.750000E+03	5.212661E-15	8.701232E-17
6.760000E+03	5.180406E-15	8.675356E-17
6.770000E+03	5.148531E-15	8.649015E-17
6.780000E+03	5.117234E-15	8.622552E-17
6.790000E+03	5.086356E-15	8.595708E-17
6.800000E+03	5.056030E-15	8.568712E-17
6.810000E+03	5.026297E-15	8.541651E-17
6.820000E+03	4.997114E-15	8.514460E-17
6.830000E+03	4.968620E-15	8.487388E-17
6.840000E+03	4.940767E-15	8.460368E-17
6.850000E+03	4.913686E-15	8.433635E-17
6.860000E+03	4.887222E-15	8.406939E-17
6.870000E+03	4.861579E-15	8.380645E-17
6.880000E+03	4.836673E-15	8.354621E-17
6.890000E+03	4.812503E-15	8.328880E-17
6.900000E+03	4.788963E-15	8.303254E-17
6.910000E+03	4.766212E-15	8.278029E-17
6.920000E+03	4.743943E-15	8.252687E-17
6.930000E+03	4.722382E-15	8.227634E-17
6.940000E+03	4.701296E-15	8.202475E-17
6.950000E+03	4.680622E-15	8.177114E-17
6.960000E+03	4.660381E-15	8.151596E-17
6.970000E+03	4.640401E-15	8.125634E-17
6.980000E+03	4.620596E-15	8.099086E-17
6.990000E+03	4.600870E-15	8.071795E-17
7.000000E+03	4.581121E-15	8.043591E-17
7.010000E+03	4.561243E-15	8.014302E-17
7.020000E+03	4.541042E-15	7.983593E-17
7.030000E+03	4.520590E-15	7.951604E-17
7.040000E+03	4.499522E-15	7.917705E-17
7.050000E+03	4.478015E-15	7.882218E-17
7.060000E+03	4.455725E-15	7.844552E-17
7.070000E+03	4.432768E-15	7.804924E-17
7.080000E+03	4.409010E-15	7.763116E-17
7.090000E+03	4.384427E-15	7.719099E-17
7.100000E+03	4.359099E-15	7.673035E-17
7.110000E+03	4.332869E-15	7.624664E-17
7.120000E+03	4.305863E-15	7.574230E-17
7.130000E+03	4.278055E-15	7.521709E-17
7.140000E+03	4.249618E-15	7.467425E-17
7.150000E+03	4.220652E-15	7.411582E-17
7.160000E+03	4.191196E-15	7.354268E-17
7.170000E+03	4.161471E-15	7.295897E-17
7.180000E+03	4.131457E-15	7.236457E-17
7.190000E+03	4.101475E-15	7.176538E-17
7.200000E+03	4.071597E-15	7.116287E-17
7.210000E+03	4.041892E-15	7.055849E-17
7.220000E+03	4.012591E-15	6.995648E-17
7.230000E+03	3.983827E-15	6.935941E-17
7.240000E+03	3.955643E-15	6.876822E-17
7.250000E+03	3.928154E-15	6.818511E-17
7.260000E+03	3.901463E-15	6.761206E-17
7.270000E+03	3.875669E-15	6.705096E-17
7.280000E+03	3.850867E-15	6.650362E-17
7.290000E+03	3.826996E-15	6.596915E-17
7.300000E+03	3.804328E-15	6.545238E-17
7.310000E+03	3.782906E-15	6.495417E-17
7.320000E+03	3.762798E-15	6.447581E-17
7.330000E+03	3.744251E-15	6.402161E-17
7.340000E+03	3.727299E-15	6.359227E-17
7.350000E+03	3.712162E-15	6.319154E-17
7.360000E+03	3.699078E-15	6.282354E-17
7.370000E+03	3.688223E-15	6.249124E-17
7.380000E+03	3.679938E-15	6.220037E-17
7.390000E+03	3.674256E-15	6.195142E-17
7.400000E+03	3.671587E-15	6.175118E-17
7.410000E+03	3.672009E-15	6.160088E-17
7.420000E+03	3.675810E-15	6.150514E-17
7.430000E+03	3.683084E-15	6.146534E-17
7.440000E+03	3.693955E-15	6.148338E-17
7.450000E+03	3.708585E-15	6.156171E-17
7.460000E+03	3.726918E-15	6.169921E-17
7.470000E+03	3.749165E-15	6.189913E-17
7.480000E+03	3.775075E-15	6.215711E-17
7.490000E+03	3.804654E-15	6.247310E-17
7.500000E+03	3.837596E-15	6.284193E-17
7.510000E+03	3.873851E-15	6.326269E-17
7.520000E+03	3.912961E-15	6.372787E-17
7.530000E+03	3.954463E-15	6.422999E-17
7.540000E+03	3.997895E-15	6.476171E-17
7.550000E+03	4.042621E-15	6.531297E-17
7.560000E+03	4.088098E-15	6.587538E-17
7.570000E+03	4.133344E-15	6.643359E-17
7.580000E+03	4.177570E-15	6.697555E-17
7.590000E+03	4.219920E-15	6.748833E-17
7.600000E+03	4.259308E-15	6.795541E-17
7.610000E+03	4.294794E-15	6.836284E-17
7.620000E+03	4.325233E-15	6.869351E-17
7.630000E+03	4.349781E-15	6.893526E-17
7.640000E+03	4.367241E-15	6.907043E-17
7.650000E+03	4.376881E-15	6.908878E-17
7.660000E+03	4.377675E-15	6.897551E-17
7.670000E+03	4.369139E-15	6.872431E-17
7.680000E+03	4.350564E-15	6.832537E-17
7.690000E+03	4.321846E-15	6.777822E-17
7.700000E+03	4.282816E-15	6.708131E-17
7.710000E+03	4.233652E-15	6.623831E-17
7.720000E+03	4.174789E-15	6.525673E-17
7.730000E+03	4.106910E-15	6.414778E-17
7.740000E+03	4.030932E-15	6.292606E-17
7.750000E+03	3.947889E-15	6.160777E-17
7.760000E+03	3.859255E-15	6.021579E-17
