#wls	flux	fluxerr
1.600000E+03	2.750700E-15	9.567162E-17
1.640000E+03	2.420549E-15	8.201930E-17
1.680000E+03	2.105677E-15	6.944901E-17
1.720000E+03	1.808782E-15	5.801406E-17
1.760000E+03	1.532570E-15	4.775663E-17
1.800000E+03	1.279498E-15	3.869962E-17
1.840000E+03	1.051133E-15	3.082928E-17
1.880000E+03	8.490950E-16	2.412608E-17
1.920000E+03	6.741100E-16	1.853862E-17
1.960000E+03	5.263572E-16	1.399739E-17
2.000000E+03	4.054241E-16	1.041644E-17
2.040000E+03	3.104016E-16	7.698918E-18
2.080000E+03	2.395549E-16	5.731947E-18
2.120000E+03	1.895759E-16	4.373449E-18
2.160000E+03	1.567904E-16	3.486044E-18
2.200000E+03	1.381551E-16	2.959918E-18
2.240000E+03	1.323014E-16	2.731666E-18
2.280000E+03	1.396763E-16	2.780614E-18
2.320000E+03	1.631078E-16	3.133549E-18
2.360000E+03	2.088351E-16	3.877180E-18
2.400000E+03	2.880235E-16	5.177805E-18
2.440000E+03	4.180206E-16	7.295379E-18
2.480000E+03	6.217529E-16	1.056800E-17
2.520000E+03	9.220806E-16	1.532057E-17
2.560000E+03	1.328926E-15	2.167298E-17
2.600000E+03	1.823085E-15	2.930407E-17
2.640000E+03	2.354986E-15	3.745222E-17
2.680000E+03	2.882380E-15	4.550938E-17
2.720000E+03	3.409107E-15	5.359695E-17
2.760000E+03	3.980199E-15	6.246356E-17
2.800000E+03	4.652488E-15	7.302725E-17
2.840000E+03	5.471105E-15	8.602033E-17
2.880000E+03	6.443493E-15	1.015860E-16
2.920000E+03	7.521557E-15	1.189878E-16
2.960000E+03	8.624479E-15	1.369509E-16
3.000000E+03	9.684281E-15	1.543755E-16
3.010000E+03	9.937521E-15	1.585640E-16
3.020000E+03	1.018436E-14	1.626564E-16
3.030000E+03	1.042376E-14	1.666356E-16
3.040000E+03	1.065497E-14	1.704884E-16
3.050000E+03	1.087630E-14	1.741873E-16
3.060000E+03	1.108614E-14	1.777050E-16
3.070000E+03	1.128297E-14	1.810166E-16
3.080000E+03	1.146480E-14	1.840890E-16
3.090000E+03	1.162994E-14	1.868939E-16
3.100000E+03	1.177744E-14	1.894149E-16
3.110000E+03	1.190575E-14	1.916262E-16
3.120000E+03	1.201464E-14	1.935229E-16
3.130000E+03	1.210414E-14	1.951045E-16
3.140000E+03	1.217607E-14	1.963997E-16
3.150000E+03	1.223175E-14	1.974287E-16
3.160000E+03	1.227434E-14	1.982419E-16
3.170000E+03	1.230778E-14	1.989028E-16
3.180000E+03	1.233643E-14	1.994813E-16
3.190000E+03	1.236463E-14	2.000473E-16
3.200000E+03	1.239806E-14	2.006928E-16
3.210000E+03	1.244126E-14	2.014908E-16
3.220000E+03	1.249918E-14	2.025215E-16
3.230000E+03	1.257587E-14	2.038510E-16
3.240000E+03	1.267525E-14	2.055424E-16
3.250000E+03	1.280023E-14	2.076435E-16
3.260000E+03	1.295298E-14	2.101893E-16
3.270000E+03	1.313457E-14	2.131974E-16
3.280000E+03	1.334580E-14	2.166810E-16
3.290000E+03	1.358656E-14	2.206380E-16
3.300000E+03	1.385590E-14	2.250528E-16
3.310000E+03	1.415280E-14	2.299090E-16
3.320000E+03	1.447544E-14	2.351763E-16
3.330000E+03	1.482216E-14	2.408274E-16
3.340000E+03	1.519066E-14	2.468249E-16
3.350000E+03	1.557889E-14	2.531345E-16
3.360000E+03	1.598484E-14	2.597234E-16
3.370000E+03	1.640675E-14	2.665621E-16
3.380000E+03	1.684313E-14	2.736261E-16
3.390000E+03	1.729264E-14	2.808930E-16
3.400000E+03	1.775482E-14	2.883548E-16
3.410000E+03	1.822891E-14	2.959986E-16
3.420000E+03	1.871565E-14	3.038360E-16
3.430000E+03	1.921516E-14	3.118682E-16
3.440000E+03	1.972840E-14	3.201106E-16
3.450000E+03	2.025648E-14	3.285805E-16
3.460000E+03	2.079980E-14	3.372840E-16
3.470000E+03	2.135781E-14	3.462119E-16
3.480000E+03	2.192512E-14	3.552762E-16
3.490000E+03	2.248655E-14	3.642311E-16
3.500000E+03	2.302120E-14	3.727380E-16
3.510000E+03	2.350524E-14	3.804122E-16
3.520000E+03	2.391485E-14	3.868693E-16
3.530000E+03	2.422628E-14	3.917266E-16
3.540000E+03	2.442013E-14	3.946718E-16
3.550000E+03	2.448136E-14	3.954634E-16
3.560000E+03	2.440173E-14	3.939712E-16
3.570000E+03	2.418006E-14	3.901785E-16
3.580000E+03	2.382345E-14	3.842033E-16
3.590000E+03	2.334714E-14	3.762948E-16
3.600000E+03	2.277149E-14	3.667843E-16
3.610000E+03	2.212233E-14	3.560907E-16
3.620000E+03	2.142717E-14	3.446595E-16
3.630000E+03	2.071363E-14	3.329366E-16
3.640000E+03	2.000819E-14	3.213489E-16
3.650000E+03	1.933495E-14	3.102834E-16
3.660000E+03	1.871410E-14	3.000635E-16
3.670000E+03	1.816265E-14	2.909604E-16
3.680000E+03	1.769310E-14	2.831718E-16
3.690000E+03	1.731533E-14	2.768527E-16
3.700000E+03	1.703642E-14	2.721123E-16
3.710000E+03	1.686176E-14	2.690320E-16
3.720000E+03	1.679513E-14	2.676670E-16
3.730000E+03	1.683990E-14	2.680647E-16
3.740000E+03	1.699879E-14	2.702623E-16
3.750000E+03	1.727442E-14	2.742937E-16
3.760000E+03	1.766884E-14	2.801838E-16
3.770000E+03	1.818370E-14	2.879501E-16
3.780000E+03	1.881955E-14	2.975919E-16
3.790000E+03	1.957554E-14	3.090862E-16
3.800000E+03	2.044941E-14	3.223869E-16
3.810000E+03	2.143543E-14	3.373932E-16
3.820000E+03	2.252550E-14	3.539669E-16
3.830000E+03	2.370808E-14	3.719165E-16
3.840000E+03	2.496729E-14	3.909833E-16
3.850000E+03	2.628426E-14	4.108632E-16
3.860000E+03	2.763759E-14	4.312144E-16
3.870000E+03	2.900380E-14	4.516655E-16
3.880000E+03	3.035889E-14	4.718397E-16
3.890000E+03	3.167936E-14	4.913710E-16
3.900000E+03	3.294436E-14	5.099374E-16
3.910000E+03	3.413567E-14	5.272610E-16
3.920000E+03	3.523867E-14	5.431220E-16
3.930000E+03	3.624234E-14	5.573584E-16
3.940000E+03	3.713910E-14	5.698633E-16
3.950000E+03	3.792465E-14	5.805811E-16
3.960000E+03	3.859664E-14	5.894877E-16
3.970000E+03	3.915394E-14	5.965781E-16
3.980000E+03	3.959741E-14	6.018784E-16
3.990000E+03	3.992717E-14	6.054039E-16
4.000000E+03	4.014395E-14	6.071796E-16
4.010000E+03	4.024784E-14	6.072208E-16
4.020000E+03	4.023846E-14	6.055364E-16
4.030000E+03	4.011674E-14	6.021553E-16
4.040000E+03	3.988328E-14	5.971015E-16
4.050000E+03	3.954070E-14	5.904293E-16
4.060000E+03	3.909292E-14	5.822120E-16
4.070000E+03	3.854582E-14	5.725516E-16
4.080000E+03	3.790712E-14	5.615766E-16
4.090000E+03	3.718657E-14	5.494438E-16
4.100000E+03	3.639449E-14	5.363172E-16
4.110000E+03	3.554251E-14	5.223780E-16
4.120000E+03	3.464341E-14	5.078224E-16
4.130000E+03	3.370900E-14	4.928302E-16
4.140000E+03	3.275211E-14	4.775938E-16
4.150000E+03	3.178518E-14	4.622979E-16
4.160000E+03	3.082048E-14	4.471227E-16
4.170000E+03	2.987014E-14	4.322441E-16
4.180000E+03	2.894603E-14	4.178322E-16
4.190000E+03	2.805967E-14	4.040506E-16
4.200000E+03	2.722207E-14	3.910536E-16
4.210000E+03	2.644356E-14	3.789841E-16
4.220000E+03	2.573354E-14	3.679705E-16
4.230000E+03	2.510003E-14	3.581208E-16
4.240000E+03	2.454995E-14	3.495260E-16
4.250000E+03	2.408893E-14	3.422584E-16
4.260000E+03	2.372065E-14	3.363629E-16
4.270000E+03	2.344665E-14	3.318538E-16
4.280000E+03	2.326699E-14	3.287252E-16
4.290000E+03	2.317920E-14	3.269361E-16
4.300000E+03	2.317801E-14	3.264073E-16
4.310000E+03	2.325499E-14	3.270160E-16
4.320000E+03	2.339780E-14	3.285848E-16
4.330000E+03	2.359077E-14	3.308904E-16
4.340000E+03	2.381351E-14	3.336448E-16
4.350000E+03	2.404349E-14	3.365317E-16
4.360000E+03	2.425680E-14	3.392169E-16
4.370000E+03	2.443529E-14	3.414474E-16
4.380000E+03	2.457496E-14	3.431687E-16
4.390000E+03	2.467835E-14	3.444172E-16
4.400000E+03	2.475044E-14	3.452628E-16
4.410000E+03	2.479804E-14	3.458005E-16
4.420000E+03	2.482821E-14	3.461272E-16
4.430000E+03	2.484810E-14	3.463409E-16
4.440000E+03	2.486502E-14	3.465410E-16
4.450000E+03	2.488512E-14	3.468109E-16
4.460000E+03	2.491366E-14	3.472219E-16
4.470000E+03	2.495466E-14	3.478273E-16
4.480000E+03	2.500945E-14	3.486437E-16
4.490000E+03	2.507747E-14	3.496613E-16
4.500000E+03	2.515575E-14	3.508364E-16
4.510000E+03	2.523972E-14	3.521030E-16
4.520000E+03	2.532412E-14	3.533859E-16
4.530000E+03	2.540315E-14	3.546019E-16
4.540000E+03	2.547074E-14	3.556639E-16
4.550000E+03	2.552073E-14	3.564835E-16
4.560000E+03	2.554688E-14	3.569712E-16
4.570000E+03	2.554323E-14	3.570414E-16
4.580000E+03	2.550511E-14	3.566260E-16
4.590000E+03	2.542768E-14	3.556552E-16
4.600000E+03	2.530737E-14	3.540763E-16
4.610000E+03	2.514234E-14	3.518616E-16
4.620000E+03	2.493195E-14	3.489998E-16
4.630000E+03	2.467626E-14	3.454899E-16
4.640000E+03	2.437820E-14	3.413714E-16
4.650000E+03	2.404027E-14	3.366779E-16
4.660000E+03	2.366751E-14	3.314789E-16
4.670000E+03	2.326496E-14	3.258445E-16
4.680000E+03	2.283819E-14	3.198522E-16
4.690000E+03	2.239298E-14	3.135826E-16
4.700000E+03	2.193503E-14	3.071162E-16
4.710000E+03	2.147025E-14	3.005353E-16
4.720000E+03	2.100343E-14	2.939079E-16
4.730000E+03	2.053902E-14	2.872967E-16
4.740000E+03	2.008110E-14	2.807593E-16
4.750000E+03	1.963251E-14	2.743359E-16
4.760000E+03	1.919650E-14	2.680727E-16
4.770000E+03	1.877465E-14	2.619924E-16
4.780000E+03	1.836907E-14	2.561248E-16
4.790000E+03	1.798122E-14	2.504906E-16
4.800000E+03	1.761189E-14	2.451016E-16
4.810000E+03	1.726234E-14	2.399752E-16
4.820000E+03	1.693361E-14	2.351261E-16
4.830000E+03	1.662614E-14	2.305606E-16
4.840000E+03	1.634075E-14	2.262898E-16
4.850000E+03	1.607800E-14	2.223210E-16
4.860000E+03	1.583816E-14	2.186578E-16
4.870000E+03	1.562158E-14	2.153044E-16
4.880000E+03	1.542871E-14	2.122662E-16
4.890000E+03	1.525960E-14	2.095430E-16
4.900000E+03	1.511460E-14	2.071382E-16
4.910000E+03	1.499349E-14	2.050480E-16
4.920000E+03	1.489647E-14	2.032736E-16
4.930000E+03	1.482348E-14	2.018124E-16
4.940000E+03	1.477414E-14	2.006577E-16
4.950000E+03	1.474821E-14	1.998045E-16
4.960000E+03	1.474490E-14	1.992401E-16
4.970000E+03	1.476351E-14	1.989530E-16
4.980000E+03	1.480275E-14	1.989239E-16
4.990000E+03	1.486112E-14	1.991309E-16
5.000000E+03	1.493670E-14	1.995463E-16
5.010000E+03	1.502761E-14	2.001434E-16
5.020000E+03	1.513101E-14	2.008829E-16
5.030000E+03	1.524399E-14	2.017251E-16
5.040000E+03	1.536348E-14	2.026289E-16
5.050000E+03	1.548582E-14	2.035456E-16
5.060000E+03	1.560740E-14	2.044283E-16
5.070000E+03	1.572453E-14	2.052295E-16
5.080000E+03	1.583359E-14	2.059034E-16
5.090000E+03	1.593098E-14	2.064055E-16
5.100000E+03	1.601361E-14	2.066985E-16
5.110000E+03	1.607902E-14	2.067541E-16
5.120000E+03	1.612483E-14	2.065454E-16
5.130000E+03	1.614996E-14	2.060628E-16
5.140000E+03	1.615321E-14	2.052957E-16
5.150000E+03	1.613493E-14	2.042532E-16
5.160000E+03	1.609569E-14	2.029472E-16
5.170000E+03	1.603689E-14	2.014001E-16
5.180000E+03	1.596059E-14	1.996421E-16
5.190000E+03	1.586922E-14	1.977078E-16
5.200000E+03	1.576582E-14	1.956391E-16
5.210000E+03	1.565365E-14	1.934793E-16
5.220000E+03	1.553659E-14	1.912795E-16
5.230000E+03	1.541782E-14	1.890808E-16
5.240000E+03	1.530109E-14	1.869310E-16
5.250000E+03	1.518984E-14	1.848733E-16
5.260000E+03	1.508724E-14	1.829469E-16
5.270000E+03	1.499592E-14	1.811842E-16
5.280000E+03	1.491866E-14	1.796187E-16
5.290000E+03	1.485764E-14	1.782766E-16
5.300000E+03	1.481488E-14	1.771818E-16
5.310000E+03	1.479185E-14	1.763516E-16
5.320000E+03	1.478993E-14	1.758020E-16
5.330000E+03	1.480953E-14	1.755379E-16
5.340000E+03	1.485077E-14	1.755606E-16
5.350000E+03	1.491299E-14	1.758629E-16
5.360000E+03	1.499520E-14	1.764336E-16
5.370000E+03	1.509509E-14	1.772470E-16
5.380000E+03	1.521042E-14	1.782782E-16
5.390000E+03	1.533803E-14	1.794926E-16
5.400000E+03	1.547436E-14	1.808510E-16
5.410000E+03	1.561517E-14	1.823068E-16
5.420000E+03	1.575659E-14	1.838172E-16
5.430000E+03	1.589638E-14	1.853569E-16
5.440000E+03	1.603341E-14	1.869135E-16
5.450000E+03	1.616805E-14	1.884914E-16
5.460000E+03	1.630032E-14	1.900909E-16
5.470000E+03	1.643035E-14	1.917130E-16
5.480000E+03	1.655877E-14	1.933646E-16
5.490000E+03	1.668516E-14	1.950400E-16
5.500000E+03	1.680937E-14	1.967368E-16
5.510000E+03	1.693056E-14	1.984444E-16
5.520000E+03	1.704813E-14	2.001546E-16
5.530000E+03	1.716044E-14	2.018470E-16
5.540000E+03	1.726625E-14	2.035058E-16
5.550000E+03	1.736397E-14	2.051107E-16
5.560000E+03	1.745261E-14	2.066481E-16
5.570000E+03	1.753064E-14	2.080980E-16
5.580000E+03	1.759705E-14	2.094460E-16
5.590000E+03	1.765087E-14	2.106783E-16
5.600000E+03	1.769177E-14	2.117884E-16
5.610000E+03	1.771918E-14	2.127665E-16
5.620000E+03	1.773323E-14	2.136115E-16
5.630000E+03	1.773441E-14	2.143264E-16
5.640000E+03	1.772343E-14	2.149166E-16
5.650000E+03	1.770143E-14	2.153934E-16
5.660000E+03	1.766953E-14	2.157674E-16
5.670000E+03	1.762935E-14	2.160562E-16
5.680000E+03	1.758260E-14	2.162782E-16
5.690000E+03	1.753076E-14	2.164497E-16
5.700000E+03	1.747517E-14	2.165855E-16
5.710000E+03	1.741695E-14	2.166977E-16
5.720000E+03	1.735728E-14	2.167997E-16
5.730000E+03	1.729630E-14	2.168924E-16
5.740000E+03	1.723454E-14	2.169811E-16
5.750000E+03	1.717183E-14	2.170628E-16
5.760000E+03	1.710748E-14	2.171281E-16
5.770000E+03	1.704089E-14	2.171682E-16
5.780000E+03	1.697112E-14	2.171705E-16
5.790000E+03	1.689669E-14	2.171146E-16
5.800000E+03	1.681602E-14	2.169792E-16
5.810000E+03	1.672773E-14	2.167450E-16
5.820000E+03	1.662960E-14	2.163815E-16
5.830000E+03	1.651986E-14	2.158637E-16
5.840000E+03	1.639658E-14	2.151642E-16
5.850000E+03	1.625794E-14	2.142566E-16
5.860000E+03	1.610248E-14	2.131187E-16
5.870000E+03	1.592857E-14	2.117261E-16
5.880000E+03	1.573570E-14	2.100687E-16
5.890000E+03	1.552334E-14	2.081358E-16
5.900000E+03	1.529169E-14	2.059268E-16
5.910000E+03	1.504146E-14	2.034477E-16
5.920000E+03	1.477384E-14	2.007115E-16
5.930000E+03	1.449060E-14	1.977390E-16
5.940000E+03	1.419335E-14	1.945494E-16
5.950000E+03	1.388434E-14	1.911707E-16
5.960000E+03	1.356615E-14	1.876367E-16
5.970000E+03	1.324141E-14	1.839816E-16
5.980000E+03	1.291248E-14	1.802371E-16
5.990000E+03	1.258239E-14	1.764446E-16
6.000000E+03	1.225340E-14	1.726352E-16
6.010000E+03	1.192851E-14	1.688517E-16
6.020000E+03	1.160975E-14	1.651230E-16
6.030000E+03	1.129938E-14	1.614825E-16
6.040000E+03	1.099956E-14	1.579625E-16
6.050000E+03	1.071193E-14	1.545884E-16
6.060000E+03	1.043798E-14	1.513840E-16
6.070000E+03	1.017869E-14	1.483661E-16
6.080000E+03	9.935222E-15	1.455546E-16
6.090000E+03	9.707873E-15	1.429569E-16
6.100000E+03	9.497283E-15	1.405858E-16
6.110000E+03	9.303450E-15	1.384448E-16
6.120000E+03	9.126172E-15	1.365343E-16
6.130000E+03	8.965131E-15	1.348534E-16
6.140000E+03	8.819952E-15	1.333999E-16
6.150000E+03	8.689856E-15	1.321659E-16
6.160000E+03	8.574039E-15	1.311424E-16
6.170000E+03	8.471796E-15	1.303215E-16
6.180000E+03	8.381893E-15	1.296864E-16
6.190000E+03	8.303344E-15	1.292240E-16
6.200000E+03	8.235108E-15	1.289202E-16
6.210000E+03	8.176109E-15	1.287599E-16
6.220000E+03	8.125050E-15	1.287242E-16
6.230000E+03	8.080745E-15	1.287958E-16
6.240000E+03	8.042134E-15	1.289586E-16
6.250000E+03	8.007987E-15	1.291939E-16
6.260000E+03	7.977332E-15	1.294864E-16
6.270000E+03	7.949157E-15	1.298199E-16
6.280000E+03	7.922624E-15	1.301807E-16
6.290000E+03	7.896869E-15	1.305544E-16
6.300000E+03	7.871101E-15	1.309273E-16
6.310000E+03	7.844715E-15	1.312888E-16
6.320000E+03	7.817173E-15	1.316290E-16
6.330000E+03	7.787783E-15	1.319351E-16
6.340000E+03	7.756110E-15	1.321987E-16
6.350000E+03	7.721749E-15	1.324114E-16
6.360000E+03	7.684089E-15	1.325615E-16
6.370000E+03	7.642844E-15	1.326423E-16
6.380000E+03	7.597513E-15	1.326435E-16
6.390000E+03	7.547611E-15	1.325547E-16
6.400000E+03	7.492727E-15	1.323669E-16
6.410000E+03	7.433020E-15	1.320810E-16
6.420000E+03	7.368974E-15	1.317035E-16
6.430000E+03	7.301542E-15	1.312499E-16
6.440000E+03	7.231439E-15	1.307317E-16
6.450000E+03	7.159306E-15	1.301595E-16
6.460000E+03	7.085801E-15	1.295443E-16
6.470000E+03	7.011379E-15	1.288938E-16
6.480000E+03	6.936520E-15	1.282164E-16
6.490000E+03	6.861314E-15	1.275133E-16
6.500000E+03	6.786218E-15	1.267928E-16
6.510000E+03	6.711426E-15	1.260584E-16
6.520000E+03	6.636998E-15	1.253111E-16
6.530000E+03	6.563172E-15	1.245555E-16
6.540000E+03	6.490063E-15	1.237938E-16
6.550000E+03	6.417770E-15	1.230280E-16
6.560000E+03	6.346381E-15	1.222600E-16
6.570000E+03	6.276075E-15	1.214935E-16
6.580000E+03	6.206819E-15	1.207280E-16
6.590000E+03	6.138677E-15	1.199651E-16
6.600000E+03	6.071807E-15	1.192082E-16
6.610000E+03	6.006259E-15	1.184586E-16
6.620000E+03	5.941978E-15	1.177157E-16
6.630000E+03	5.879103E-15	1.169825E-16
6.640000E+03	5.817570E-15	1.162581E-16
6.650000E+03	5.757604E-15	1.155475E-16
6.660000E+03	5.699033E-15	1.148477E-16
6.670000E+03	5.641877E-15	1.141594E-16
6.680000E+03	5.586251E-15	1.134855E-16
6.690000E+03	5.532164E-15	1.128266E-16
6.700000E+03	5.479528E-15	1.121813E-16
6.710000E+03	5.428351E-15	1.115502E-16
6.720000E+03	5.378729E-15	1.109357E-16
6.730000E+03	5.330567E-15	1.103363E-16
6.740000E+03	5.283956E-15	1.097543E-16
6.750000E+03	5.238704E-15	1.091862E-16
6.760000E+03	5.194991E-15	1.086362E-16
6.770000E+03	5.152619E-15	1.081004E-16
6.780000E+03	5.111764E-15	1.075829E-16
6.790000E+03	5.072221E-15	1.070800E-16
6.800000E+03	5.034067E-15	1.065935E-16
6.810000E+03	4.997280E-15	1.061234E-16
6.820000E+03	4.961742E-15	1.056675E-16
6.830000E+03	4.927517E-15	1.052276E-16
6.840000E+03	4.894481E-15	1.048013E-16
6.850000E+03	4.862689E-15	1.043901E-16
6.860000E+03	4.831919E-15	1.039896E-16
6.870000E+03	4.802308E-15	1.036030E-16
6.880000E+03	4.773719E-15	1.032276E-16
6.890000E+03	4.746101E-15	1.028626E-16
6.900000E+03	4.719308E-15	1.025051E-16
6.910000E+03	4.693464E-15	1.021581E-16
6.920000E+03	4.668239E-15	1.018145E-16
6.930000E+03	4.643839E-15	1.014792E-16
6.940000E+03	4.620023E-15	1.011469E-16
6.950000E+03	4.596727E-15	1.008166E-16
6.960000E+03	4.573973E-15	1.004889E-16
6.970000E+03	4.551610E-15	1.001606E-16
6.980000E+03	4.529572E-15	9.983052E-17
6.990000E+03	4.507800E-15	9.949743E-17
7.000000E+03	4.486234E-15	9.916023E-17
7.010000E+03	4.464818E-15	9.881779E-17
7.020000E+03	4.443414E-15	9.846725E-17
7.030000E+03	4.422150E-15	9.811156E-17
7.040000E+03	4.400723E-15	9.774415E-17
7.050000E+03	4.379362E-15	9.737026E-17
7.060000E+03	4.357778E-15	9.698363E-17
7.070000E+03	4.336125E-15	9.658780E-17
7.080000E+03	4.314306E-15	9.618080E-17
7.090000E+03	4.292317E-15	9.576268E-17
7.100000E+03	4.270253E-15	9.533571E-17
7.110000E+03	4.247953E-15	9.489652E-17
7.120000E+03	4.225530E-15	9.444775E-17
7.130000E+03	4.202931E-15	9.398843E-17
7.140000E+03	4.180283E-15	9.352156E-17
7.150000E+03	4.157638E-15	9.304849E-17
7.160000E+03	4.134969E-15	9.256882E-17
7.170000E+03	4.112427E-15	9.208613E-17
7.180000E+03	4.089919E-15	9.159851E-17
7.190000E+03	4.067692E-15	9.111174E-17
7.200000E+03	4.045753E-15	9.062614E-17
7.210000E+03	4.024110E-15	9.014212E-17
7.220000E+03	4.002947E-15	8.966399E-17
7.230000E+03	3.982368E-15	8.919428E-17
7.240000E+03	3.962400E-15	8.873382E-17
7.250000E+03	3.943157E-15	8.828535E-17
7.260000E+03	3.924756E-15	8.785168E-17
7.270000E+03	3.907319E-15	8.743574E-17
7.280000E+03	3.890971E-15	8.704052E-17
7.290000E+03	3.875677E-15	8.666543E-17
7.300000E+03	3.861731E-15	8.631718E-17
7.310000E+03	3.849181E-15	8.599706E-17
7.320000E+03	3.838082E-15	8.570640E-17
7.330000E+03	3.828644E-15	8.545011E-17
7.340000E+03	3.820840E-15	8.522768E-17
7.350000E+03	3.814796E-15	8.504210E-17
7.360000E+03	3.810637E-15	8.489628E-17
7.370000E+03	3.808399E-15	8.479114E-17
7.380000E+03	3.808268E-15	8.473099E-17
7.390000E+03	3.810103E-15	8.471275E-17
7.400000E+03	3.814145E-15	8.474192E-17
7.410000E+03	3.820298E-15	8.481651E-17
7.420000E+03	3.828691E-15	8.493947E-17
7.430000E+03	3.839265E-15	8.510964E-17
7.440000E+03	3.852020E-15	8.532714E-17
7.450000E+03	3.867008E-15	8.559324E-17
7.460000E+03	3.884087E-15	8.590499E-17
7.470000E+03	3.903416E-15	8.626601E-17
7.480000E+03	3.924703E-15	8.667003E-17
7.490000E+03	3.947953E-15	8.711737E-17
7.500000E+03	3.972878E-15	8.760188E-17
7.510000E+03	3.999498E-15	8.812423E-17
7.520000E+03	4.027444E-15	8.867654E-17
7.530000E+03	4.056392E-15	8.925201E-17
7.540000E+03	4.086067E-15	8.984487E-17
7.550000E+03	4.116063E-15	9.044659E-17
7.560000E+03	4.146119E-15	9.105182E-17
7.570000E+03	4.175578E-15	9.164651E-17
7.580000E+03	4.204019E-15	9.222195E-17
7.590000E+03	4.231005E-15	9.276899E-17
7.600000E+03	4.255888E-15	9.327396E-17
7.610000E+03	4.278203E-15	9.372720E-17
7.620000E+03	4.297292E-15	9.411481E-17
7.630000E+03	4.312798E-15	9.442951E-17
7.640000E+03	4.323998E-15	9.465602E-17
7.650000E+03	4.330591E-15	9.478827E-17
7.660000E+03	4.331934E-15	9.481264E-17
7.670000E+03	4.327833E-15	9.472536E-17
7.680000E+03	4.317771E-15	9.451547E-17
7.690000E+03	4.301704E-15	9.418233E-17
7.700000E+03	4.279377E-15	9.372064E-17
7.710000E+03	4.250731E-15	9.312922E-17
7.720000E+03	4.215800E-15	9.240893E-17
7.730000E+03	4.174718E-15	9.156266E-17
7.740000E+03	4.127709E-15	9.059523E-17
7.750000E+03	4.074997E-15	8.951134E-17
7.760000E+03	4.017169E-15	8.832359E-17
