#wls	flux	fluxerr
1.600000E+03	2.997125E-15	1.002974E-16
1.640000E+03	2.574530E-15	8.405623E-17
1.680000E+03	2.190169E-15	6.970747E-17
1.720000E+03	1.844112E-15	5.716816E-17
1.760000E+03	1.535998E-15	4.633956E-17
1.800000E+03	1.264919E-15	3.710589E-17
1.840000E+03	1.028980E-15	2.932436E-17
1.880000E+03	8.263908E-16	2.285978E-17
1.920000E+03	6.546825E-16	1.756348E-17
1.960000E+03	5.111928E-16	1.328912E-17
2.000000E+03	3.931469E-16	9.895832E-18
2.040000E+03	2.979132E-16	7.255234E-18
2.080000E+03	2.232908E-16	5.257850E-18
2.120000E+03	1.676233E-16	3.814207E-18
2.160000E+03	1.297599E-16	2.852063E-18
2.200000E+03	1.071743E-16	2.274832E-18
2.240000E+03	9.742050E-17	1.996810E-18
2.280000E+03	9.954150E-17	1.970709E-18
2.320000E+03	1.149529E-16	2.199459E-18
2.360000E+03	1.485112E-16	2.748812E-18
2.400000E+03	2.102987E-16	3.770644E-18
2.440000E+03	3.177771E-16	5.529830E-18
2.480000E+03	4.971739E-16	8.416841E-18
2.520000E+03	7.801714E-16	1.288616E-17
2.560000E+03	1.190163E-15	1.924214E-17
2.600000E+03	1.716701E-15	2.726317E-17
2.640000E+03	2.300818E-15	3.601306E-17
2.680000E+03	2.882695E-15	4.460850E-17
2.720000E+03	3.462453E-15	5.311826E-17
2.760000E+03	4.099297E-15	6.249515E-17
2.800000E+03	4.866551E-15	7.387528E-17
2.840000E+03	5.818512E-15	8.808941E-17
2.880000E+03	6.964440E-15	1.052842E-16
2.920000E+03	8.259086E-15	1.247836E-16
2.960000E+03	9.622425E-15	1.453823E-16
3.000000E+03	1.097653E-14	1.658959E-16
3.010000E+03	1.130693E-14	1.709080E-16
3.020000E+03	1.163159E-14	1.758351E-16
3.030000E+03	1.194893E-14	1.806530E-16
3.040000E+03	1.225763E-14	1.853412E-16
3.050000E+03	1.255527E-14	1.898625E-16
3.060000E+03	1.283950E-14	1.941810E-16
3.070000E+03	1.310821E-14	1.982643E-16
3.080000E+03	1.335888E-14	2.020735E-16
3.090000E+03	1.358957E-14	2.055791E-16
3.100000E+03	1.379953E-14	2.087688E-16
3.110000E+03	1.398765E-14	2.116258E-16
3.120000E+03	1.415467E-14	2.141607E-16
3.130000E+03	1.430181E-14	2.163912E-16
3.140000E+03	1.443255E-14	2.183704E-16
3.150000E+03	1.454971E-14	2.201400E-16
3.160000E+03	1.465800E-14	2.217713E-16
3.170000E+03	1.476274E-14	2.233446E-16
3.180000E+03	1.486937E-14	2.249420E-16
3.190000E+03	1.498294E-14	2.266395E-16
3.200000E+03	1.510986E-14	2.285337E-16
3.210000E+03	1.525496E-14	2.306969E-16
3.220000E+03	1.542349E-14	2.332082E-16
3.230000E+03	1.561952E-14	2.361284E-16
3.240000E+03	1.584687E-14	2.395145E-16
3.250000E+03	1.610812E-14	2.434046E-16
3.260000E+03	1.640461E-14	2.478184E-16
3.270000E+03	1.673621E-14	2.527527E-16
3.280000E+03	1.710225E-14	2.581964E-16
3.290000E+03	1.750063E-14	2.641167E-16
3.300000E+03	1.792794E-14	2.704610E-16
3.310000E+03	1.838047E-14	2.771724E-16
3.320000E+03	1.885321E-14	2.841738E-16
3.330000E+03	1.934105E-14	2.913877E-16
3.340000E+03	1.983781E-14	2.987196E-16
3.350000E+03	2.033728E-14	3.060756E-16
3.360000E+03	2.083325E-14	3.133613E-16
3.370000E+03	2.131977E-14	3.204871E-16
3.380000E+03	2.179165E-14	3.273745E-16
3.390000E+03	2.224429E-14	3.339547E-16
3.400000E+03	2.267493E-14	3.401862E-16
3.410000E+03	2.308131E-14	3.460357E-16
3.420000E+03	2.346414E-14	3.515145E-16
3.430000E+03	2.382482E-14	3.566438E-16
3.440000E+03	2.416743E-14	3.614858E-16
3.450000E+03	2.449780E-14	3.661279E-16
3.460000E+03	2.482248E-14	3.706685E-16
3.470000E+03	2.514825E-14	3.752092E-16
3.480000E+03	2.547443E-14	3.797400E-16
3.490000E+03	2.578138E-14	3.839683E-16
3.500000E+03	2.604113E-14	3.874792E-16
3.510000E+03	2.622439E-14	3.898391E-16
3.520000E+03	2.630488E-14	3.906600E-16
3.530000E+03	2.626021E-14	3.896131E-16
3.540000E+03	2.607652E-14	3.864977E-16
3.550000E+03	2.574799E-14	3.812329E-16
3.560000E+03	2.527859E-14	3.738841E-16
3.570000E+03	2.468062E-14	3.646393E-16
3.580000E+03	2.397445E-14	3.538054E-16
3.590000E+03	2.318712E-14	3.417868E-16
3.600000E+03	2.234798E-14	3.290205E-16
3.610000E+03	2.148848E-14	3.159724E-16
3.620000E+03	2.063856E-14	3.030842E-16
3.630000E+03	1.982525E-14	2.907530E-16
3.640000E+03	1.907194E-14	2.793200E-16
3.650000E+03	1.839789E-14	2.690643E-16
3.660000E+03	1.781748E-14	2.601923E-16
3.670000E+03	1.734144E-14	2.528547E-16
3.680000E+03	1.697571E-14	2.471322E-16
3.690000E+03	1.672406E-14	2.430723E-16
3.700000E+03	1.658825E-14	2.406926E-16
3.710000E+03	1.656897E-14	2.399950E-16
3.720000E+03	1.666604E-14	2.409677E-16
3.730000E+03	1.687942E-14	2.436006E-16
3.740000E+03	1.720885E-14	2.478802E-16
3.750000E+03	1.765429E-14	2.537952E-16
3.760000E+03	1.821542E-14	2.613301E-16
3.770000E+03	1.889179E-14	2.704669E-16
3.780000E+03	1.968195E-14	2.811727E-16
3.790000E+03	2.058286E-14	2.933920E-16
3.800000E+03	2.158987E-14	3.070455E-16
3.810000E+03	2.269442E-14	3.219997E-16
3.820000E+03	2.388561E-14	3.380876E-16
3.830000E+03	2.514910E-14	3.550953E-16
3.840000E+03	2.646645E-14	3.727530E-16
3.850000E+03	2.781700E-14	3.907616E-16
3.860000E+03	2.917856E-14	4.088042E-16
3.870000E+03	3.052790E-14	4.265522E-16
3.880000E+03	3.184232E-14	4.436883E-16
3.890000E+03	3.310071E-14	4.599211E-16
3.900000E+03	3.428527E-14	4.750087E-16
3.910000E+03	3.538091E-14	4.887498E-16
3.920000E+03	3.637594E-14	5.009933E-16
3.930000E+03	3.726207E-14	5.116369E-16
3.940000E+03	3.803418E-14	5.206237E-16
3.950000E+03	3.869029E-14	5.279413E-16
3.960000E+03	3.923034E-14	5.336043E-16
3.970000E+03	3.965540E-14	5.376428E-16
3.980000E+03	3.996832E-14	5.401116E-16
3.990000E+03	4.017109E-14	5.410538E-16
4.000000E+03	4.026619E-14	5.405191E-16
4.010000E+03	4.025515E-14	5.385441E-16
4.020000E+03	4.013875E-14	5.351560E-16
4.030000E+03	3.991880E-14	5.303951E-16
4.040000E+03	3.959635E-14	5.242921E-16
4.050000E+03	3.917378E-14	5.168949E-16
4.060000E+03	3.865410E-14	5.082590E-16
4.070000E+03	3.804151E-14	4.984554E-16
4.080000E+03	3.734154E-14	4.875713E-16
4.090000E+03	3.656149E-14	4.757160E-16
4.100000E+03	3.570945E-14	4.630074E-16
4.110000E+03	3.479528E-14	4.495846E-16
4.120000E+03	3.383095E-14	4.356115E-16
4.130000E+03	3.282855E-14	4.212514E-16
4.140000E+03	3.180218E-14	4.066906E-16
4.150000E+03	3.076642E-14	3.921191E-16
4.160000E+03	2.973648E-14	3.777316E-16
4.170000E+03	2.872766E-14	3.637213E-16
4.180000E+03	2.775503E-14	3.502756E-16
4.190000E+03	2.683317E-14	3.375734E-16
4.200000E+03	2.597552E-14	3.257767E-16
4.210000E+03	2.519383E-14	3.150245E-16
4.220000E+03	2.449790E-14	3.054300E-16
4.230000E+03	2.389508E-14	2.970747E-16
4.240000E+03	2.339052E-14	2.900124E-16
4.250000E+03	2.298699E-14	2.842673E-16
4.260000E+03	2.268449E-14	2.798299E-16
4.270000E+03	2.247999E-14	2.766543E-16
4.280000E+03	2.236821E-14	2.746679E-16
4.290000E+03	2.234084E-14	2.737627E-16
4.300000E+03	2.238671E-14	2.737973E-16
4.310000E+03	2.249151E-14	2.745926E-16
4.320000E+03	2.263781E-14	2.759332E-16
4.330000E+03	2.280616E-14	2.775806E-16
4.340000E+03	2.297425E-14	2.792635E-16
4.350000E+03	2.311997E-14	2.807146E-16
4.360000E+03	2.322247E-14	2.816824E-16
4.370000E+03	2.326860E-14	2.820097E-16
4.380000E+03	2.325991E-14	2.817171E-16
4.390000E+03	2.320517E-14	2.809117E-16
4.400000E+03	2.311569E-14	2.797305E-16
4.410000E+03	2.300434E-14	2.783274E-16
4.420000E+03	2.288342E-14	2.768481E-16
4.430000E+03	2.276411E-14	2.754252E-16
4.440000E+03	2.265663E-14	2.741793E-16
4.450000E+03	2.256924E-14	2.732078E-16
4.460000E+03	2.250880E-14	2.725910E-16
4.470000E+03	2.248040E-14	2.723887E-16
4.480000E+03	2.248591E-14	2.726217E-16
4.490000E+03	2.252268E-14	2.732562E-16
4.500000E+03	2.258452E-14	2.742156E-16
4.510000E+03	2.266370E-14	2.754046E-16
4.520000E+03	2.275218E-14	2.767239E-16
4.530000E+03	2.284174E-14	2.780715E-16
4.540000E+03	2.292428E-14	2.793466E-16
4.550000E+03	2.299200E-14	2.804520E-16
4.560000E+03	2.303752E-14	2.812948E-16
4.570000E+03	2.305429E-14	2.817920E-16
4.580000E+03	2.303745E-14	2.818810E-16
4.590000E+03	2.298250E-14	2.815035E-16
4.600000E+03	2.288660E-14	2.806212E-16
4.610000E+03	2.274893E-14	2.792205E-16
4.620000E+03	2.256992E-14	2.773035E-16
4.630000E+03	2.235093E-14	2.748837E-16
4.640000E+03	2.209593E-14	2.720071E-16
4.650000E+03	2.180841E-14	2.687141E-16
4.660000E+03	2.149373E-14	2.650688E-16
4.670000E+03	2.115682E-14	2.611300E-16
4.680000E+03	2.080258E-14	2.569569E-16
4.690000E+03	2.043563E-14	2.526056E-16
4.700000E+03	2.006015E-14	2.481270E-16
4.710000E+03	1.968019E-14	2.435709E-16
4.720000E+03	1.929871E-14	2.389737E-16
4.730000E+03	1.891828E-14	2.343672E-16
4.740000E+03	1.854118E-14	2.297801E-16
4.750000E+03	1.816868E-14	2.252285E-16
4.760000E+03	1.780259E-14	2.207350E-16
4.770000E+03	1.744342E-14	2.163066E-16
4.780000E+03	1.709257E-14	2.119614E-16
4.790000E+03	1.675117E-14	2.077141E-16
4.800000E+03	1.642022E-14	2.035776E-16
4.810000E+03	1.610130E-14	1.995722E-16
4.820000E+03	1.579616E-14	1.957204E-16
4.830000E+03	1.550611E-14	1.920390E-16
4.840000E+03	1.523294E-14	1.885507E-16
4.850000E+03	1.497826E-14	1.852759E-16
4.860000E+03	1.474345E-14	1.822320E-16
4.870000E+03	1.452989E-14	1.794364E-16
4.880000E+03	1.433895E-14	1.769060E-16
4.890000E+03	1.417156E-14	1.746521E-16
4.900000E+03	1.402871E-14	1.726868E-16
4.910000E+03	1.391082E-14	1.710146E-16
4.920000E+03	1.381848E-14	1.696422E-16
4.930000E+03	1.375181E-14	1.685703E-16
4.940000E+03	1.371041E-14	1.677931E-16
4.950000E+03	1.369381E-14	1.673035E-16
4.960000E+03	1.370090E-14	1.670869E-16
4.970000E+03	1.373049E-14	1.671276E-16
4.980000E+03	1.378080E-14	1.674027E-16
4.990000E+03	1.384982E-14	1.678862E-16
5.000000E+03	1.393504E-14	1.685470E-16
5.010000E+03	1.403407E-14	1.693548E-16
5.020000E+03	1.414356E-14	1.702687E-16
5.030000E+03	1.426023E-14	1.712483E-16
5.040000E+03	1.438065E-14	1.722524E-16
5.050000E+03	1.450091E-14	1.732344E-16
5.060000E+03	1.461718E-14	1.741488E-16
5.070000E+03	1.472557E-14	1.749507E-16
5.080000E+03	1.482236E-14	1.755972E-16
5.090000E+03	1.490394E-14	1.760476E-16
5.100000E+03	1.496723E-14	1.762680E-16
5.110000E+03	1.500985E-14	1.762334E-16
5.120000E+03	1.502960E-14	1.759213E-16
5.130000E+03	1.502566E-14	1.753256E-16
5.140000E+03	1.499728E-14	1.744414E-16
5.150000E+03	1.494534E-14	1.732829E-16
5.160000E+03	1.487114E-14	1.718692E-16
5.170000E+03	1.477699E-14	1.702306E-16
5.180000E+03	1.466595E-14	1.684058E-16
5.190000E+03	1.454155E-14	1.664385E-16
5.200000E+03	1.440786E-14	1.643780E-16
5.210000E+03	1.426905E-14	1.622742E-16
5.220000E+03	1.412978E-14	1.601818E-16
5.230000E+03	1.399377E-14	1.581441E-16
5.240000E+03	1.386498E-14	1.562067E-16
5.250000E+03	1.374672E-14	1.544076E-16
5.260000E+03	1.364187E-14	1.527789E-16
5.270000E+03	1.355238E-14	1.513425E-16
5.280000E+03	1.348014E-14	1.501194E-16
5.290000E+03	1.342630E-14	1.491221E-16
5.300000E+03	1.339170E-14	1.483598E-16
5.310000E+03	1.337667E-14	1.478360E-16
5.320000E+03	1.338137E-14	1.475525E-16
5.330000E+03	1.340518E-14	1.475027E-16
5.340000E+03	1.344738E-14	1.476794E-16
5.350000E+03	1.350682E-14	1.480704E-16
5.360000E+03	1.358228E-14	1.486637E-16
5.370000E+03	1.367178E-14	1.494391E-16
5.380000E+03	1.377365E-14	1.503799E-16
5.390000E+03	1.388573E-14	1.514646E-16
5.400000E+03	1.400578E-14	1.526709E-16
5.410000E+03	1.413126E-14	1.539735E-16
5.420000E+03	1.426000E-14	1.553503E-16
5.430000E+03	1.439011E-14	1.567810E-16
5.440000E+03	1.451946E-14	1.582429E-16
5.450000E+03	1.464700E-14	1.597247E-16
5.460000E+03	1.477156E-14	1.612133E-16
5.470000E+03	1.489232E-14	1.626994E-16
5.480000E+03	1.500926E-14	1.641821E-16
5.490000E+03	1.512174E-14	1.656537E-16
5.500000E+03	1.522957E-14	1.671113E-16
5.510000E+03	1.533216E-14	1.685474E-16
5.520000E+03	1.542918E-14	1.699573E-16
5.530000E+03	1.551945E-14	1.713266E-16
5.540000E+03	1.560209E-14	1.726445E-16
5.550000E+03	1.567593E-14	1.738961E-16
5.560000E+03	1.574034E-14	1.750727E-16
5.570000E+03	1.579416E-14	1.761597E-16
5.580000E+03	1.583679E-14	1.771479E-16
5.590000E+03	1.586759E-14	1.780281E-16
5.600000E+03	1.588647E-14	1.787969E-16
5.610000E+03	1.589312E-14	1.794483E-16
5.620000E+03	1.588788E-14	1.799837E-16
5.630000E+03	1.587149E-14	1.804088E-16
5.640000E+03	1.584494E-14	1.807324E-16
5.650000E+03	1.580970E-14	1.809691E-16
5.660000E+03	1.576729E-14	1.811340E-16
5.670000E+03	1.571973E-14	1.812486E-16
5.680000E+03	1.566912E-14	1.813355E-16
5.690000E+03	1.561731E-14	1.814145E-16
5.700000E+03	1.556598E-14	1.815044E-16
5.710000E+03	1.551651E-14	1.816204E-16
5.720000E+03	1.547028E-14	1.817781E-16
5.730000E+03	1.542759E-14	1.819808E-16
5.740000E+03	1.538891E-14	1.822340E-16
5.750000E+03	1.535403E-14	1.825350E-16
5.760000E+03	1.532201E-14	1.828727E-16
5.770000E+03	1.529185E-14	1.832348E-16
5.780000E+03	1.526212E-14	1.836042E-16
5.790000E+03	1.523065E-14	1.839542E-16
5.800000E+03	1.519513E-14	1.842561E-16
5.810000E+03	1.515326E-14	1.844814E-16
5.820000E+03	1.510198E-14	1.845912E-16
5.830000E+03	1.503858E-14	1.845509E-16
5.840000E+03	1.496023E-14	1.843237E-16
5.850000E+03	1.486428E-14	1.838743E-16
5.860000E+03	1.474854E-14	1.831731E-16
5.870000E+03	1.461075E-14	1.821887E-16
5.880000E+03	1.444985E-14	1.809047E-16
5.890000E+03	1.426493E-14	1.793062E-16
5.900000E+03	1.405596E-14	1.773892E-16
5.910000E+03	1.382357E-14	1.751578E-16
5.920000E+03	1.356896E-14	1.726242E-16
5.930000E+03	1.329406E-14	1.698094E-16
5.940000E+03	1.300076E-14	1.667346E-16
5.950000E+03	1.269171E-14	1.634311E-16
5.960000E+03	1.237004E-14	1.599368E-16
5.970000E+03	1.203901E-14	1.562922E-16
5.980000E+03	1.170181E-14	1.525373E-16
5.990000E+03	1.136230E-14	1.487214E-16
6.000000E+03	1.102368E-14	1.448865E-16
6.010000E+03	1.068991E-14	1.410844E-16
6.020000E+03	1.036402E-14	1.373562E-16
6.030000E+03	1.004918E-14	1.337451E-16
6.040000E+03	9.748392E-15	1.302930E-16
6.050000E+03	9.464057E-15	1.270342E-16
6.060000E+03	9.198264E-15	1.239997E-16
6.070000E+03	8.952475E-15	1.212120E-16
6.080000E+03	8.728118E-15	1.186941E-16
6.090000E+03	8.525645E-15	1.164558E-16
6.100000E+03	8.345598E-15	1.145083E-16
6.110000E+03	8.187799E-15	1.128532E-16
6.120000E+03	8.051701E-15	1.114870E-16
6.130000E+03	7.936522E-15	1.104029E-16
6.140000E+03	7.841286E-15	1.095913E-16
6.150000E+03	7.764570E-15	1.090361E-16
6.160000E+03	7.704842E-15	1.087196E-16
6.170000E+03	7.660598E-15	1.086241E-16
6.180000E+03	7.629821E-15	1.087240E-16
6.190000E+03	7.610698E-15	1.089960E-16
6.200000E+03	7.601363E-15	1.094153E-16
6.210000E+03	7.599935E-15	1.099560E-16
6.220000E+03	7.604358E-15	1.105895E-16
6.230000E+03	7.612724E-15	1.112888E-16
6.240000E+03	7.623308E-15	1.120287E-16
6.250000E+03	7.634307E-15	1.127828E-16
6.260000E+03	7.644265E-15	1.135288E-16
6.270000E+03	7.651799E-15	1.142455E-16
6.280000E+03	7.655834E-15	1.149156E-16
6.290000E+03	7.655413E-15	1.155232E-16
6.300000E+03	7.649812E-15	1.160557E-16
6.310000E+03	7.638647E-15	1.165056E-16
6.320000E+03	7.621766E-15	1.168686E-16
6.330000E+03	7.599016E-15	1.171403E-16
6.340000E+03	7.570629E-15	1.173226E-16
6.350000E+03	7.536967E-15	1.174189E-16
6.360000E+03	7.498254E-15	1.174312E-16
6.370000E+03	7.455040E-15	1.173663E-16
6.380000E+03	7.407618E-15	1.172272E-16
6.390000E+03	7.356192E-15	1.170158E-16
6.400000E+03	7.300900E-15	1.167328E-16
6.410000E+03	7.242277E-15	1.163855E-16
6.420000E+03	7.180981E-15	1.159832E-16
6.430000E+03	7.117979E-15	1.155408E-16
6.440000E+03	7.053866E-15	1.150672E-16
6.450000E+03	6.989072E-15	1.145688E-16
6.460000E+03	6.923986E-15	1.140515E-16
6.470000E+03	6.858789E-15	1.135182E-16
6.480000E+03	6.793702E-15	1.129721E-16
6.490000E+03	6.728605E-15	1.124111E-16
6.500000E+03	6.663775E-15	1.118397E-16
6.510000E+03	6.599291E-15	1.112590E-16
6.520000E+03	6.535136E-15	1.106687E-16
6.530000E+03	6.471513E-15	1.100722E-16
6.540000E+03	6.408532E-15	1.094714E-16
6.550000E+03	6.346308E-15	1.088682E-16
6.560000E+03	6.284958E-15	1.082649E-16
6.570000E+03	6.224698E-15	1.076651E-16
6.580000E+03	6.165527E-15	1.070691E-16
6.590000E+03	6.107539E-15	1.064787E-16
6.600000E+03	6.050907E-15	1.058972E-16
6.610000E+03	5.995687E-15	1.053258E-16
6.620000E+03	5.941819E-15	1.047636E-16
6.630000E+03	5.889422E-15	1.042132E-16
6.640000E+03	5.838399E-15	1.036729E-16
6.650000E+03	5.788936E-15	1.031464E-16
6.660000E+03	5.740811E-15	1.026301E-16
6.670000E+03	5.693989E-15	1.021236E-16
6.680000E+03	5.648525E-15	1.016281E-16
6.690000E+03	5.604372E-15	1.011430E-16
6.700000E+03	5.561381E-15	1.006660E-16
6.710000E+03	5.519503E-15	1.001964E-16
6.720000E+03	5.478791E-15	9.973527E-17
6.730000E+03	5.439102E-15	9.928035E-17
6.740000E+03	5.400497E-15	9.883294E-17
6.750000E+03	5.362751E-15	9.838915E-17
6.760000E+03	5.326035E-15	9.795227E-17
6.770000E+03	5.290137E-15	9.751866E-17
6.780000E+03	5.255238E-15	9.709183E-17
6.790000E+03	5.221143E-15	9.666834E-17
6.800000E+03	5.187943E-15	9.625010E-17
6.810000E+03	5.155639E-15	9.583730E-17
6.820000E+03	5.124140E-15	9.542844E-17
6.830000E+03	5.093542E-15	9.502546E-17
6.840000E+03	5.063750E-15	9.462679E-17
6.850000E+03	5.034856E-15	9.423433E-17
6.860000E+03	5.006665E-15	9.384459E-17
6.870000E+03	4.979353E-15	9.346102E-17
6.880000E+03	4.952808E-15	9.308168E-17
6.890000E+03	4.927005E-15	9.270629E-17
6.900000E+03	4.901821E-15	9.233267E-17
6.910000E+03	4.877404E-15	9.196375E-17
6.920000E+03	4.853432E-15	9.159360E-17
6.930000E+03	4.830132E-15	9.122665E-17
6.940000E+03	4.807263E-15	9.085848E-17
6.950000E+03	4.784763E-15	9.048803E-17
6.960000E+03	4.762656E-15	9.011592E-17
6.970000E+03	4.740780E-15	8.973921E-17
6.980000E+03	4.719061E-15	8.935660E-17
6.990000E+03	4.697423E-15	8.896679E-17
7.000000E+03	4.675789E-15	8.856846E-17
7.010000E+03	4.654083E-15	8.816030E-17
7.020000E+03	4.632139E-15	8.773932E-17
7.030000E+03	4.610073E-15	8.730784E-17
7.040000E+03	4.587546E-15	8.685961E-17
7.050000E+03	4.564778E-15	8.639895E-17
7.060000E+03	4.541448E-15	8.591997E-17
7.070000E+03	4.517706E-15	8.542568E-17
7.080000E+03	4.493439E-15	8.491411E-17
7.090000E+03	4.468638E-15	8.438533E-17
7.100000E+03	4.443399E-15	8.384135E-17
7.110000E+03	4.417565E-15	8.327943E-17
7.120000E+03	4.391262E-15	8.270215E-17
7.130000E+03	4.364453E-15	8.210909E-17
7.140000E+03	4.337291E-15	8.150335E-17
7.150000E+03	4.309856E-15	8.088670E-17
7.160000E+03	4.282154E-15	8.025944E-17
7.170000E+03	4.254371E-15	7.962536E-17
7.180000E+03	4.226447E-15	7.898357E-17
7.190000E+03	4.198675E-15	7.833976E-17
7.200000E+03	4.171091E-15	7.769485E-17
7.210000E+03	4.143740E-15	7.704991E-17
7.220000E+03	4.116838E-15	7.640915E-17
7.230000E+03	4.090519E-15	7.577526E-17
7.240000E+03	4.064832E-15	7.514935E-17
7.250000E+03	4.039914E-15	7.453410E-17
7.260000E+03	4.015902E-15	7.393222E-17
7.270000E+03	3.992938E-15	7.334644E-17
7.280000E+03	3.971164E-15	7.277948E-17
7.290000E+03	3.950566E-15	7.223119E-17
7.300000E+03	3.931464E-15	7.170751E-17
7.310000E+03	3.913940E-15	7.120996E-17
7.320000E+03	3.898081E-15	7.074017E-17
7.330000E+03	3.884151E-15	7.030290E-17
7.340000E+03	3.872172E-15	6.989856E-17
7.350000E+03	3.862339E-15	6.953058E-17
7.360000E+03	3.854850E-15	6.920246E-17
7.370000E+03	3.849819E-15	6.891613E-17
7.380000E+03	3.847523E-15	6.867643E-17
7.390000E+03	3.847907E-15	6.848218E-17
7.400000E+03	3.851308E-15	6.833919E-17
7.410000E+03	3.857719E-15	6.824713E-17
7.420000E+03	3.867357E-15	6.820961E-17
7.430000E+03	3.880245E-15	6.822679E-17
7.440000E+03	3.896455E-15	6.829967E-17
7.450000E+03	3.916104E-15	6.843005E-17
7.460000E+03	3.939098E-15	6.861605E-17
7.470000E+03	3.965633E-15	6.886085E-17
7.480000E+03	3.995429E-15	6.915936E-17
7.490000E+03	4.028495E-15	6.951154E-17
7.500000E+03	4.064512E-15	6.991180E-17
7.510000E+03	4.103455E-15	7.035962E-17
7.520000E+03	4.144876E-15	7.084730E-17
7.530000E+03	4.188342E-15	7.136757E-17
7.540000E+03	4.233440E-15	7.191356E-17
7.550000E+03	4.279588E-15	7.247573E-17
7.560000E+03	4.326323E-15	7.304668E-17
7.570000E+03	4.372735E-15	7.361157E-17
7.580000E+03	4.418131E-15	7.415949E-17
7.590000E+03	4.461766E-15	7.467879E-17
7.600000E+03	4.502654E-15	7.515396E-17
7.610000E+03	4.539978E-15	7.557249E-17
7.620000E+03	4.572706E-15	7.591848E-17
7.630000E+03	4.600122E-15	7.618141E-17
7.640000E+03	4.621130E-15	7.634457E-17
7.650000E+03	4.635107E-15	7.639920E-17
7.660000E+03	4.641096E-15	7.633108E-17
7.670000E+03	4.638674E-15	7.613478E-17
7.680000E+03	4.627129E-15	7.580013E-17
7.690000E+03	4.606336E-15	7.532648E-17
7.700000E+03	4.576025E-15	7.471074E-17
7.710000E+03	4.536226E-15	7.395452E-17
7.720000E+03	4.487163E-15	7.306248E-17
7.730000E+03	4.429252E-15	7.204213E-17
7.740000E+03	4.363094E-15	7.090381E-17
7.750000E+03	4.289353E-15	6.965864E-17
7.760000E+03	4.209138E-15	6.832471E-17
