#wls	flux	fluxerr
1.600000E+03	2.258381E-15	9.064414E-17
1.640000E+03	1.908157E-15	7.495656E-17
1.680000E+03	1.597434E-15	6.137395E-17
1.720000E+03	1.324658E-15	4.974375E-17
1.760000E+03	1.087870E-15	3.990148E-17
1.800000E+03	8.846783E-16	3.167209E-17
1.840000E+03	7.120203E-16	2.486357E-17
1.880000E+03	5.669740E-16	1.929815E-17
1.920000E+03	4.462521E-16	1.479515E-17
1.960000E+03	3.465647E-16	1.118462E-17
2.000000E+03	2.646991E-16	8.310153E-18
2.040000E+03	1.977282E-16	6.035048E-18
2.080000E+03	1.433072E-16	4.250024E-18
2.120000E+03	1.011399E-16	2.912988E-18
2.160000E+03	7.245644E-17	2.025822E-18
2.200000E+03	5.544700E-17	1.504414E-18
2.240000E+03	4.740055E-17	1.247803E-18
2.280000E+03	4.671222E-17	1.192994E-18
2.320000E+03	5.343738E-17	1.324170E-18
2.360000E+03	6.985957E-17	1.680157E-18
2.400000E+03	1.016496E-16	2.374055E-18
2.440000E+03	1.597286E-16	3.625599E-18
2.480000E+03	2.625569E-16	5.798427E-18
2.520000E+03	4.368131E-16	9.398769E-18
2.560000E+03	7.113147E-16	1.493569E-17
2.600000E+03	1.096889E-15	2.251705E-17
2.640000E+03	1.561136E-15	3.139443E-17
2.680000E+03	2.058810E-15	4.064058E-17
2.720000E+03	2.581682E-15	5.011794E-17
2.760000E+03	3.155076E-15	6.033862E-17
2.800000E+03	3.819377E-15	7.206835E-17
2.840000E+03	4.609098E-15	8.592584E-17
2.880000E+03	5.536391E-15	1.020929E-16
2.920000E+03	6.583646E-15	1.202043E-16
2.960000E+03	7.709081E-15	1.394721E-16
3.000000E+03	8.858672E-15	1.589138E-16
3.010000E+03	9.143486E-15	1.636884E-16
3.020000E+03	9.425181E-15	1.683920E-16
3.030000E+03	9.702734E-15	1.730069E-16
3.040000E+03	9.975598E-15	1.775239E-16
3.050000E+03	1.024259E-14	1.819225E-16
3.060000E+03	1.050283E-14	1.861879E-16
3.070000E+03	1.075581E-14	1.903119E-16
3.080000E+03	1.100080E-14	1.942823E-16
3.090000E+03	1.123757E-14	1.980959E-16
3.100000E+03	1.146672E-14	2.017639E-16
3.110000E+03	1.168831E-14	2.052884E-16
3.120000E+03	1.190356E-14	2.086914E-16
3.130000E+03	1.211367E-14	2.119945E-16
3.140000E+03	1.232124E-14	2.152435E-16
3.150000E+03	1.252779E-14	2.184655E-16
3.160000E+03	1.273617E-14	2.217100E-16
3.170000E+03	1.294943E-14	2.250300E-16
3.180000E+03	1.317058E-14	2.284772E-16
3.190000E+03	1.340213E-14	2.320945E-16
3.200000E+03	1.364783E-14	2.359461E-16
3.210000E+03	1.391005E-14	2.400713E-16
3.220000E+03	1.419166E-14	2.445182E-16
3.230000E+03	1.449471E-14	2.493200E-16
3.240000E+03	1.482134E-14	2.545114E-16
3.250000E+03	1.517292E-14	2.601139E-16
3.260000E+03	1.555024E-14	2.661386E-16
3.270000E+03	1.595313E-14	2.725804E-16
3.280000E+03	1.638124E-14	2.794308E-16
3.290000E+03	1.683313E-14	2.866633E-16
3.300000E+03	1.730620E-14	2.942313E-16
3.310000E+03	1.779750E-14	3.020831E-16
3.320000E+03	1.830255E-14	3.101412E-16
3.330000E+03	1.881648E-14	3.183219E-16
3.340000E+03	1.933284E-14	3.265153E-16
3.350000E+03	1.984451E-14	3.346016E-16
3.360000E+03	2.034354E-14	3.424468E-16
3.370000E+03	2.082116E-14	3.499052E-16
3.380000E+03	2.126813E-14	3.568230E-16
3.390000E+03	2.167457E-14	3.630379E-16
3.400000E+03	2.203143E-14	3.684020E-16
3.410000E+03	2.232940E-14	3.727640E-16
3.420000E+03	2.256177E-14	3.760172E-16
3.430000E+03	2.272263E-14	3.780691E-16
3.440000E+03	2.280942E-14	3.788830E-16
3.450000E+03	2.282262E-14	3.784735E-16
3.460000E+03	2.276527E-14	3.768972E-16
3.470000E+03	2.264216E-14	3.742393E-16
3.480000E+03	2.245258E-14	3.704938E-16
3.490000E+03	2.218437E-14	3.654660E-16
3.500000E+03	2.182190E-14	3.589049E-16
3.510000E+03	2.135395E-14	3.506332E-16
3.520000E+03	2.077788E-14	3.406146E-16
3.530000E+03	2.009901E-14	3.289442E-16
3.540000E+03	1.933245E-14	3.158760E-16
3.550000E+03	1.849976E-14	3.017683E-16
3.560000E+03	1.762737E-14	2.870564E-16
3.570000E+03	1.674331E-14	2.721988E-16
3.580000E+03	1.587524E-14	2.576454E-16
3.590000E+03	1.504870E-14	2.438085E-16
3.600000E+03	1.428457E-14	2.310225E-16
3.610000E+03	1.359993E-14	2.195582E-16
3.620000E+03	1.300711E-14	2.096076E-16
3.630000E+03	1.251431E-14	2.012947E-16
3.640000E+03	1.212667E-14	1.946936E-16
3.650000E+03	1.184699E-14	1.898398E-16
3.660000E+03	1.167603E-14	1.867354E-16
3.670000E+03	1.161370E-14	1.853688E-16
3.680000E+03	1.165857E-14	1.857067E-16
3.690000E+03	1.180913E-14	1.877142E-16
3.700000E+03	1.206335E-14	1.913480E-16
3.710000E+03	1.241908E-14	1.965629E-16
3.720000E+03	1.287355E-14	2.033035E-16
3.730000E+03	1.342377E-14	2.115111E-16
3.740000E+03	1.406599E-14	2.211151E-16
3.750000E+03	1.479576E-14	2.320338E-16
3.760000E+03	1.560754E-14	2.441690E-16
3.770000E+03	1.649483E-14	2.574077E-16
3.780000E+03	1.744973E-14	2.716160E-16
3.790000E+03	1.846297E-14	2.866393E-16
3.800000E+03	1.952434E-14	3.023102E-16
3.810000E+03	2.062119E-14	3.184247E-16
3.820000E+03	2.174011E-14	3.347692E-16
3.830000E+03	2.286635E-14	3.511116E-16
3.840000E+03	2.398340E-14	3.671957E-16
3.850000E+03	2.507450E-14	3.827645E-16
3.860000E+03	2.612307E-14	3.975667E-16
3.870000E+03	2.711300E-14	4.113618E-16
3.880000E+03	2.802974E-14	4.239361E-16
3.890000E+03	2.886079E-14	4.351100E-16
3.900000E+03	2.959725E-14	4.447610E-16
3.910000E+03	3.023354E-14	4.528185E-16
3.920000E+03	3.076782E-14	4.592695E-16
3.930000E+03	3.120177E-14	4.641545E-16
3.940000E+03	3.154022E-14	4.675602E-16
3.950000E+03	3.179050E-14	4.696105E-16
3.960000E+03	3.196094E-14	4.704423E-16
3.970000E+03	3.205976E-14	4.701899E-16
3.980000E+03	3.209515E-14	4.689856E-16
3.990000E+03	3.207275E-14	4.669233E-16
4.000000E+03	3.199644E-14	4.640700E-16
4.010000E+03	3.186718E-14	4.604502E-16
4.020000E+03	3.168312E-14	4.560478E-16
4.030000E+03	3.144118E-14	4.508295E-16
4.040000E+03	3.113612E-14	4.447321E-16
4.050000E+03	3.076298E-14	4.376977E-16
4.060000E+03	3.031744E-14	4.296783E-16
4.070000E+03	2.979700E-14	4.206528E-16
4.080000E+03	2.920178E-14	4.106374E-16
4.090000E+03	2.853512E-14	3.996929E-16
4.100000E+03	2.780281E-14	3.879138E-16
4.110000E+03	2.701366E-14	3.754348E-16
4.120000E+03	2.617923E-14	3.624265E-16
4.130000E+03	2.531187E-14	3.490676E-16
4.140000E+03	2.442588E-14	3.355607E-16
4.150000E+03	2.353601E-14	3.221108E-16
4.160000E+03	2.265717E-14	3.089223E-16
4.170000E+03	2.180405E-14	2.961927E-16
4.180000E+03	2.099066E-14	2.841078E-16
4.190000E+03	2.022991E-14	2.728351E-16
4.200000E+03	1.953329E-14	2.625211E-16
4.210000E+03	1.891051E-14	2.532861E-16
4.220000E+03	1.836921E-14	2.452214E-16
4.230000E+03	1.791466E-14	2.383860E-16
4.240000E+03	1.754988E-14	2.328086E-16
4.250000E+03	1.727555E-14	2.284870E-16
4.260000E+03	1.708953E-14	2.253829E-16
4.270000E+03	1.698677E-14	2.234205E-16
4.280000E+03	1.695987E-14	2.224950E-16
4.290000E+03	1.699844E-14	2.224643E-16
4.300000E+03	1.708932E-14	2.231522E-16
4.310000E+03	1.721689E-14	2.243516E-16
4.320000E+03	1.736359E-14	2.258327E-16
4.330000E+03	1.751156E-14	2.273635E-16
4.340000E+03	1.764290E-14	2.287136E-16
4.350000E+03	1.774243E-14	2.296887E-16
4.360000E+03	1.779859E-14	2.301423E-16
4.370000E+03	1.780671E-14	2.300168E-16
4.380000E+03	1.777042E-14	2.293614E-16
4.390000E+03	1.769914E-14	2.282990E-16
4.400000E+03	1.760484E-14	2.269839E-16
4.410000E+03	1.750057E-14	2.255822E-16
4.420000E+03	1.739849E-14	2.242478E-16
4.430000E+03	1.730927E-14	2.231156E-16
4.440000E+03	1.724206E-14	2.223009E-16
4.450000E+03	1.720369E-14	2.218895E-16
4.460000E+03	1.719924E-14	2.219450E-16
4.470000E+03	1.723187E-14	2.225068E-16
4.480000E+03	1.730055E-14	2.235604E-16
4.490000E+03	1.739811E-14	2.250123E-16
4.500000E+03	1.751275E-14	2.267090E-16
4.510000E+03	1.763168E-14	2.284835E-16
4.520000E+03	1.774284E-14	2.301780E-16
4.530000E+03	1.783557E-14	2.316519E-16
4.540000E+03	1.790101E-14	2.327869E-16
4.550000E+03	1.793235E-14	2.334916E-16
4.560000E+03	1.792493E-14	2.337013E-16
4.570000E+03	1.787635E-14	2.333809E-16
4.580000E+03	1.778706E-14	2.325319E-16
4.590000E+03	1.765894E-14	2.311748E-16
4.600000E+03	1.749594E-14	2.293576E-16
4.610000E+03	1.730391E-14	2.271534E-16
4.620000E+03	1.708953E-14	2.246466E-16
4.630000E+03	1.685947E-14	2.219225E-16
4.640000E+03	1.662125E-14	2.190778E-16
4.650000E+03	1.638063E-14	2.161870E-16
4.660000E+03	1.614322E-14	2.133230E-16
4.670000E+03	1.591275E-14	2.105345E-16
4.680000E+03	1.569137E-14	2.078492E-16
4.690000E+03	1.547960E-14	2.052738E-16
4.700000E+03	1.527648E-14	2.027954E-16
4.710000E+03	1.508009E-14	2.003884E-16
4.720000E+03	1.488721E-14	1.980095E-16
4.730000E+03	1.469433E-14	1.956120E-16
4.740000E+03	1.449815E-14	1.931515E-16
4.750000E+03	1.429556E-14	1.905864E-16
4.760000E+03	1.408519E-14	1.878980E-16
4.770000E+03	1.386613E-14	1.850741E-16
4.780000E+03	1.363961E-14	1.821313E-16
4.790000E+03	1.340791E-14	1.791000E-16
4.800000E+03	1.317402E-14	1.760205E-16
4.810000E+03	1.294192E-14	1.729464E-16
4.820000E+03	1.271565E-14	1.699325E-16
4.830000E+03	1.249859E-14	1.670242E-16
4.840000E+03	1.229396E-14	1.642653E-16
4.850000E+03	1.210413E-14	1.616881E-16
4.860000E+03	1.193070E-14	1.593141E-16
4.870000E+03	1.177479E-14	1.571590E-16
4.880000E+03	1.163730E-14	1.552347E-16
4.890000E+03	1.151864E-14	1.535470E-16
4.900000E+03	1.141947E-14	1.521047E-16
4.910000E+03	1.134017E-14	1.509124E-16
4.920000E+03	1.128158E-14	1.499811E-16
4.930000E+03	1.124450E-14	1.493210E-16
4.940000E+03	1.122955E-14	1.489395E-16
4.950000E+03	1.123740E-14	1.488447E-16
4.960000E+03	1.126814E-14	1.490367E-16
4.970000E+03	1.132161E-14	1.495122E-16
4.980000E+03	1.139683E-14	1.502569E-16
4.990000E+03	1.149229E-14	1.512495E-16
5.000000E+03	1.160569E-14	1.524585E-16
5.010000E+03	1.173447E-14	1.538487E-16
5.020000E+03	1.187499E-14	1.553714E-16
5.030000E+03	1.202335E-14	1.569748E-16
5.040000E+03	1.217542E-14	1.586043E-16
5.050000E+03	1.232657E-14	1.601994E-16
5.060000E+03	1.247212E-14	1.616998E-16
5.070000E+03	1.260741E-14	1.630459E-16
5.080000E+03	1.272779E-14	1.641789E-16
5.090000E+03	1.282865E-14	1.650416E-16
5.100000E+03	1.290575E-14	1.655820E-16
5.110000E+03	1.295544E-14	1.657567E-16
5.120000E+03	1.297426E-14	1.655252E-16
5.130000E+03	1.296022E-14	1.648664E-16
5.140000E+03	1.291181E-14	1.637659E-16
5.150000E+03	1.282964E-14	1.622362E-16
5.160000E+03	1.271554E-14	1.603057E-16
5.170000E+03	1.257319E-14	1.580252E-16
5.180000E+03	1.240781E-14	1.554648E-16
5.190000E+03	1.222567E-14	1.527066E-16
5.200000E+03	1.203394E-14	1.498430E-16
5.210000E+03	1.183981E-14	1.469656E-16
5.220000E+03	1.165044E-14	1.441642E-16
5.230000E+03	1.147149E-14	1.415094E-16
5.240000E+03	1.130787E-14	1.390612E-16
5.250000E+03	1.116293E-14	1.368600E-16
5.260000E+03	1.103854E-14	1.349275E-16
5.270000E+03	1.093495E-14	1.332655E-16
5.280000E+03	1.085163E-14	1.318663E-16
5.290000E+03	1.078698E-14	1.307093E-16
5.300000E+03	1.073901E-14	1.297695E-16
5.310000E+03	1.070544E-14	1.290191E-16
5.320000E+03	1.068438E-14	1.284349E-16
5.330000E+03	1.067398E-14	1.279947E-16
5.340000E+03	1.067308E-14	1.276851E-16
5.350000E+03	1.068097E-14	1.274978E-16
5.360000E+03	1.069760E-14	1.274329E-16
5.370000E+03	1.072266E-14	1.274873E-16
5.380000E+03	1.075617E-14	1.276622E-16
5.390000E+03	1.079753E-14	1.279512E-16
5.400000E+03	1.084545E-14	1.283391E-16
5.410000E+03	1.089764E-14	1.287981E-16
5.420000E+03	1.095171E-14	1.292998E-16
5.430000E+03	1.100646E-14	1.298295E-16
5.440000E+03	1.106139E-14	1.303805E-16
5.450000E+03	1.111634E-14	1.309503E-16
5.460000E+03	1.117031E-14	1.315260E-16
5.470000E+03	1.122197E-14	1.320915E-16
5.480000E+03	1.127025E-14	1.326330E-16
5.490000E+03	1.131359E-14	1.331314E-16
5.500000E+03	1.135114E-14	1.335758E-16
5.510000E+03	1.138221E-14	1.339572E-16
5.520000E+03	1.140691E-14	1.342756E-16
5.530000E+03	1.142509E-14	1.345283E-16
5.540000E+03	1.143718E-14	1.347192E-16
5.550000E+03	1.144338E-14	1.348499E-16
5.560000E+03	1.144421E-14	1.349250E-16
5.570000E+03	1.143946E-14	1.349412E-16
5.580000E+03	1.142893E-14	1.348949E-16
5.590000E+03	1.141207E-14	1.347788E-16
5.600000E+03	1.138845E-14	1.345866E-16
5.610000E+03	1.135730E-14	1.343080E-16
5.620000E+03	1.131829E-14	1.339385E-16
5.630000E+03	1.127147E-14	1.334774E-16
5.640000E+03	1.121728E-14	1.329292E-16
5.650000E+03	1.115682E-14	1.323058E-16
5.660000E+03	1.109156E-14	1.316241E-16
5.670000E+03	1.102365E-14	1.309088E-16
5.680000E+03	1.095557E-14	1.301891E-16
5.690000E+03	1.088993E-14	1.294951E-16
5.700000E+03	1.082923E-14	1.288567E-16
5.710000E+03	1.077580E-14	1.283012E-16
5.720000E+03	1.073179E-14	1.278540E-16
5.730000E+03	1.069830E-14	1.275283E-16
5.740000E+03	1.067617E-14	1.273342E-16
5.750000E+03	1.066528E-14	1.272703E-16
5.760000E+03	1.066460E-14	1.273243E-16
5.770000E+03	1.067250E-14	1.274769E-16
5.780000E+03	1.068671E-14	1.277010E-16
5.790000E+03	1.070403E-14	1.279587E-16
5.800000E+03	1.072095E-14	1.282078E-16
5.810000E+03	1.073381E-14	1.284049E-16
5.820000E+03	1.073837E-14	1.284992E-16
5.830000E+03	1.073088E-14	1.284460E-16
5.840000E+03	1.070781E-14	1.282032E-16
5.850000E+03	1.066619E-14	1.277355E-16
5.860000E+03	1.060397E-14	1.270184E-16
5.870000E+03	1.051956E-14	1.260334E-16
5.880000E+03	1.041272E-14	1.247778E-16
5.890000E+03	1.028362E-14	1.232541E-16
5.900000E+03	1.013318E-14	1.214738E-16
5.910000E+03	9.962778E-15	1.194538E-16
5.920000E+03	9.774041E-15	1.172141E-16
5.930000E+03	9.568782E-15	1.147770E-16
5.940000E+03	9.348504E-15	1.121609E-16
5.950000E+03	9.114894E-15	1.093865E-16
5.960000E+03	8.869747E-15	1.064757E-16
5.970000E+03	8.614857E-15	1.034504E-16
5.980000E+03	8.352067E-15	1.003330E-16
5.990000E+03	8.083990E-15	9.715503E-17
6.000000E+03	7.813236E-15	9.394812E-17
6.010000E+03	7.543489E-15	9.075662E-17
6.020000E+03	7.278341E-15	8.762391E-17
6.030000E+03	7.021986E-15	8.460056E-17
6.040000E+03	6.778808E-15	8.173961E-17
6.050000E+03	6.552892E-15	7.909065E-17
6.060000E+03	6.348038E-15	7.670003E-17
6.070000E+03	6.167313E-15	7.460552E-17
6.080000E+03	6.013338E-15	7.283981E-17
6.090000E+03	5.887531E-15	7.142135E-17
6.100000E+03	5.790791E-15	7.036261E-17
6.110000E+03	5.722943E-15	6.966334E-17
6.120000E+03	5.683023E-15	6.931400E-17
6.130000E+03	5.669445E-15	6.929765E-17
6.140000E+03	5.680111E-15	6.959129E-17
6.150000E+03	5.712331E-15	7.016478E-17
6.160000E+03	5.763162E-15	7.098483E-17
6.170000E+03	5.829600E-15	7.201735E-17
6.180000E+03	5.908255E-15	7.322330E-17
6.190000E+03	5.995944E-15	7.456596E-17
6.200000E+03	6.089550E-15	7.600906E-17
6.210000E+03	6.186073E-15	7.751739E-17
6.220000E+03	6.282502E-15	7.905511E-17
6.230000E+03	6.376065E-15	8.058842E-17
6.240000E+03	6.464251E-15	8.208528E-17
6.250000E+03	6.544571E-15	8.351310E-17
6.260000E+03	6.614917E-15	8.484331E-17
6.270000E+03	6.673339E-15	8.604864E-17
6.280000E+03	6.718277E-15	8.710608E-17
6.290000E+03	6.748441E-15	8.799542E-17
6.300000E+03	6.762970E-15	8.870147E-17
6.310000E+03	6.761603E-15	8.921641E-17
6.320000E+03	6.744654E-15	8.953975E-17
6.330000E+03	6.712876E-15	8.967677E-17
6.340000E+03	6.667869E-15	8.964415E-17
6.350000E+03	6.611883E-15	8.946786E-17
6.360000E+03	6.547606E-15	8.918041E-17
6.370000E+03	6.478525E-15	8.882626E-17
6.380000E+03	6.408316E-15	8.845365E-17
6.390000E+03	6.340755E-15	8.811364E-17
6.400000E+03	6.279205E-15	8.785295E-17
6.410000E+03	6.225401E-15	8.769672E-17
6.420000E+03	6.178197E-15	8.763001E-17
6.430000E+03	6.135693E-15	8.762673E-17
6.440000E+03	6.095820E-15	8.765766E-17
6.450000E+03	6.056833E-15	8.769755E-17
6.460000E+03	6.017511E-15	8.772808E-17
6.470000E+03	5.976978E-15	8.773563E-17
6.480000E+03	5.934856E-15	8.771350E-17
6.490000E+03	5.890812E-15	8.765565E-17
6.500000E+03	5.845127E-15	8.756506E-17
6.510000E+03	5.798067E-15	8.744468E-17
6.520000E+03	5.749914E-15	8.729781E-17
6.530000E+03	5.701181E-15	8.713143E-17
6.540000E+03	5.652297E-15	8.695148E-17
6.550000E+03	5.603677E-15	8.676390E-17
6.560000E+03	5.555691E-15	8.657409E-17
6.570000E+03	5.508746E-15	8.638825E-17
6.580000E+03	5.463008E-15	8.620892E-17
6.590000E+03	5.418664E-15	8.603911E-17
6.600000E+03	5.375924E-15	8.588224E-17
6.610000E+03	5.334845E-15	8.573944E-17
6.620000E+03	5.295340E-15	8.560948E-17
6.630000E+03	5.257449E-15	8.549321E-17
6.640000E+03	5.220996E-15	8.538799E-17
6.650000E+03	5.186039E-15	8.529495E-17
6.660000E+03	5.152262E-15	8.520909E-17
6.670000E+03	5.119512E-15	8.512799E-17
6.680000E+03	5.087722E-15	8.505064E-17
6.690000E+03	5.056734E-15	8.497449E-17
6.700000E+03	5.026309E-15	8.489556E-17
6.710000E+03	4.996310E-15	8.481154E-17
6.720000E+03	4.966702E-15	8.472186E-17
6.730000E+03	4.937299E-15	8.462327E-17
6.740000E+03	4.908115E-15	8.451602E-17
6.750000E+03	4.878936E-15	8.439638E-17
6.760000E+03	4.849930E-15	8.426720E-17
6.770000E+03	4.820944E-15	8.412581E-17
6.780000E+03	4.792205E-15	8.397617E-17
6.790000E+03	4.763613E-15	8.381652E-17
6.800000E+03	4.735339E-15	8.364993E-17
6.810000E+03	4.707482E-15	8.347820E-17
6.820000E+03	4.680050E-15	8.330158E-17
6.830000E+03	4.653226E-15	8.312341E-17
6.840000E+03	4.627007E-15	8.294381E-17
6.850000E+03	4.601558E-15	8.276589E-17
6.860000E+03	4.576766E-15	8.258775E-17
6.870000E+03	4.552846E-15	8.241348E-17
6.880000E+03	4.529737E-15	8.224213E-17
6.890000E+03	4.507445E-15	8.207399E-17
6.900000E+03	4.485873E-15	8.190749E-17
6.910000E+03	4.465168E-15	8.174546E-17
6.920000E+03	4.445040E-15	8.158279E-17
6.930000E+03	4.425703E-15	8.142354E-17
6.940000E+03	4.406937E-15	8.126380E-17
6.950000E+03	4.388687E-15	8.110272E-17
6.960000E+03	4.370972E-15	8.094077E-17
6.970000E+03	4.353630E-15	8.077510E-17
6.980000E+03	4.336573E-15	8.060416E-17
6.990000E+03	4.319696E-15	8.042613E-17
7.000000E+03	4.302878E-15	8.023884E-17
7.010000E+03	4.285985E-15	8.003990E-17
7.020000E+03	4.268789E-15	7.982515E-17
7.030000E+03	4.251318E-15	7.959515E-17
7.040000E+03	4.233180E-15	7.934270E-17
7.050000E+03	4.214503E-15	7.907029E-17
7.060000E+03	4.194929E-15	7.877125E-17
7.070000E+03	4.174536E-15	7.844719E-17
7.080000E+03	4.153171E-15	7.809535E-17
7.090000E+03	4.130789E-15	7.771501E-17
7.100000E+03	4.107450E-15	7.730747E-17
7.110000E+03	4.082994E-15	7.686986E-17
7.120000E+03	4.057535E-15	7.640453E-17
7.130000E+03	4.031054E-15	7.591131E-17
7.140000E+03	4.003725E-15	7.539373E-17
7.150000E+03	3.975676E-15	7.485441E-17
7.160000E+03	3.946980E-15	7.429499E-17
7.170000E+03	3.917896E-15	7.372061E-17
7.180000E+03	3.888460E-15	7.313221E-17
7.190000E+03	3.859032E-15	7.253684E-17
7.200000E+03	3.829732E-15	7.193702E-17
7.210000E+03	3.800669E-15	7.133505E-17
7.220000E+03	3.772085E-15	7.073577E-17
7.230000E+03	3.744120E-15	7.014202E-17
7.240000E+03	3.716805E-15	6.955464E-17
7.250000E+03	3.690212E-15	6.897521E-17
7.260000E+03	3.664383E-15	6.840475E-17
7.270000E+03	3.639335E-15	6.784380E-17
7.280000E+03	3.615070E-15	6.729261E-17
7.290000E+03	3.591437E-15	6.674857E-17
7.300000E+03	3.568596E-15	6.621489E-17
7.310000E+03	3.546505E-15	6.569098E-17
7.320000E+03	3.525158E-15	6.517695E-17
7.330000E+03	3.504738E-15	6.467639E-17
7.340000E+03	3.485259E-15	6.418970E-17
7.350000E+03	3.466926E-15	6.372086E-17
7.360000E+03	3.449995E-15	6.327469E-17
7.370000E+03	3.434683E-15	6.285527E-17
7.380000E+03	3.421381E-15	6.246985E-17
7.390000E+03	3.410203E-15	6.212049E-17
7.400000E+03	3.401613E-15	6.181566E-17
7.410000E+03	3.395765E-15	6.155808E-17
7.420000E+03	3.392980E-15	6.135345E-17
7.430000E+03	3.393379E-15	6.120381E-17
7.440000E+03	3.397089E-15	6.111131E-17
7.450000E+03	3.404248E-15	6.107820E-17
7.460000E+03	3.414783E-15	6.110299E-17
7.470000E+03	3.428854E-15	6.118834E-17
7.480000E+03	3.446197E-15	6.132935E-17
7.490000E+03	3.466783E-15	6.152536E-17
7.500000E+03	3.490300E-15	6.177066E-17
7.510000E+03	3.516664E-15	6.206375E-17
7.520000E+03	3.545414E-15	6.239646E-17
7.530000E+03	3.576080E-15	6.276057E-17
7.540000E+03	3.608176E-15	6.314775E-17
7.550000E+03	3.641050E-15	6.354687E-17
7.560000E+03	3.674131E-15	6.394835E-17
7.570000E+03	3.706453E-15	6.433593E-17
7.580000E+03	3.737237E-15	6.469679E-17
7.590000E+03	3.765670E-15	6.501766E-17
7.600000E+03	3.790742E-15	6.528208E-17
7.610000E+03	3.811598E-15	6.547642E-17
7.620000E+03	3.827217E-15	6.558433E-17
7.630000E+03	3.836856E-15	6.559443E-17
7.640000E+03	3.839479E-15	6.549038E-17
7.650000E+03	3.834474E-15	6.526317E-17
7.660000E+03	3.820994E-15	6.489983E-17
7.670000E+03	3.798693E-15	6.439591E-17
7.680000E+03	3.767060E-15	6.374410E-17
7.690000E+03	3.726152E-15	6.294660E-17
7.700000E+03	3.676002E-15	6.200509E-17
7.710000E+03	3.616985E-15	6.092680E-17
7.720000E+03	3.549731E-15	5.972304E-17
7.730000E+03	3.475113E-15	5.840897E-17
7.740000E+03	3.394225E-15	5.700323E-17
7.750000E+03	3.308275E-15	5.552612E-17
7.760000E+03	3.218851E-15	5.400410E-17
