#wls	flux	fluxerr
1.600000E+03	2.605574E-15	9.350041E-17
1.640000E+03	2.332893E-15	8.183106E-17
1.680000E+03	2.057238E-15	7.049251E-17
1.720000E+03	1.785111E-15	5.971467E-17
1.760000E+03	1.522420E-15	4.968590E-17
1.800000E+03	1.275213E-15	4.057841E-17
1.840000E+03	1.048471E-15	3.251041E-17
1.880000E+03	8.463136E-16	2.555662E-17
1.920000E+03	6.714145E-16	1.973509E-17
1.960000E+03	5.250174E-16	1.501383E-17
2.000000E+03	4.068575E-16	1.131496E-17
2.040000E+03	3.154471E-16	8.528861E-18
2.080000E+03	2.483344E-16	6.526239E-18
2.120000E+03	2.018352E-16	5.155244E-18
2.160000E+03	1.718544E-16	4.266513E-18
2.200000E+03	1.555261E-16	3.753965E-18
2.240000E+03	1.519150E-16	3.566742E-18
2.280000E+03	1.620354E-16	3.703252E-18
2.320000E+03	1.888045E-16	4.204624E-18
2.360000E+03	2.378724E-16	5.168606E-18
2.400000E+03	3.186789E-16	6.767258E-18
2.440000E+03	4.447541E-16	9.248440E-18
2.480000E+03	6.323348E-16	1.290504E-17
2.520000E+03	8.955555E-16	1.798111E-17
2.560000E+03	1.238087E-15	2.451387E-17
2.600000E+03	1.645515E-15	3.220056E-17
2.640000E+03	2.086808E-15	4.044183E-17
2.680000E+03	2.535052E-15	4.874365E-17
2.720000E+03	2.986039E-15	5.705700E-17
2.760000E+03	3.456307E-15	6.572156E-17
2.800000E+03	3.971554E-15	7.523831E-17
2.840000E+03	4.554909E-15	8.604950E-17
2.880000E+03	5.207305E-15	9.817285E-17
2.920000E+03	5.896409E-15	1.109985E-16
2.960000E+03	6.571833E-15	1.235775E-16
3.000000E+03	7.195452E-15	1.351912E-16
3.010000E+03	7.340653E-15	1.378943E-16
3.020000E+03	7.481030E-15	1.405070E-16
3.030000E+03	7.615978E-15	1.430177E-16
3.040000E+03	7.745324E-15	1.454232E-16
3.050000E+03	7.868308E-15	1.477090E-16
3.060000E+03	7.984282E-15	1.498631E-16
3.070000E+03	8.092542E-15	1.518719E-16
3.080000E+03	8.192711E-15	1.537284E-16
3.090000E+03	8.283755E-15	1.554132E-16
3.100000E+03	8.365392E-15	1.569209E-16
3.110000E+03	8.436987E-15	1.582396E-16
3.120000E+03	8.498469E-15	1.593679E-16
3.130000E+03	8.549923E-15	1.603073E-16
3.140000E+03	8.591860E-15	1.610676E-16
3.150000E+03	8.625209E-15	1.616661E-16
3.160000E+03	8.651543E-15	1.621323E-16
3.170000E+03	8.672565E-15	1.624981E-16
3.180000E+03	8.690669E-15	1.628085E-16
3.190000E+03	8.708374E-15	1.631105E-16
3.200000E+03	8.728384E-15	1.634548E-16
3.210000E+03	8.753619E-15	1.638957E-16
3.220000E+03	8.786490E-15	1.644779E-16
3.230000E+03	8.829976E-15	1.652571E-16
3.240000E+03	8.885948E-15	1.662676E-16
3.250000E+03	8.956855E-15	1.675551E-16
3.260000E+03	9.044077E-15	1.691448E-16
3.270000E+03	9.149105E-15	1.710640E-16
3.280000E+03	9.272976E-15	1.733317E-16
3.290000E+03	9.416274E-15	1.759581E-16
3.300000E+03	9.579810E-15	1.789578E-16
3.310000E+03	9.763569E-15	1.823298E-16
3.320000E+03	9.967660E-15	1.860753E-16
3.330000E+03	1.019240E-14	1.901996E-16
3.340000E+03	1.043740E-14	1.946945E-16
3.350000E+03	1.070258E-14	1.995575E-16
3.360000E+03	1.098783E-14	2.047860E-16
3.370000E+03	1.129324E-14	2.103802E-16
3.380000E+03	1.161845E-14	2.163329E-16
3.390000E+03	1.196348E-14	2.226428E-16
3.400000E+03	1.232849E-14	2.293123E-16
3.410000E+03	1.271338E-14	2.363380E-16
3.420000E+03	1.311819E-14	2.437194E-16
3.430000E+03	1.354256E-14	2.514488E-16
3.440000E+03	1.398655E-14	2.595259E-16
3.450000E+03	1.444985E-14	2.679435E-16
3.460000E+03	1.493132E-14	2.766791E-16
3.470000E+03	1.542936E-14	2.857016E-16
3.480000E+03	1.594001E-14	2.949363E-16
3.490000E+03	1.645469E-14	3.042239E-16
3.500000E+03	1.696090E-14	3.133319E-16
3.510000E+03	1.744530E-14	3.220140E-16
3.520000E+03	1.789318E-14	3.299995E-16
3.530000E+03	1.829015E-14	3.370243E-16
3.540000E+03	1.862282E-14	3.428441E-16
3.550000E+03	1.887957E-14	3.472475E-16
3.560000E+03	1.905212E-14	3.500860E-16
3.570000E+03	1.913534E-14	3.512688E-16
3.580000E+03	1.912884E-14	3.507933E-16
3.590000E+03	1.903696E-14	3.487434E-16
3.600000E+03	1.886784E-14	3.452728E-16
3.610000E+03	1.863331E-14	3.406023E-16
3.620000E+03	1.834764E-14	3.349964E-16
3.630000E+03	1.802676E-14	3.287489E-16
3.640000E+03	1.768737E-14	3.221669E-16
3.650000E+03	1.734568E-14	3.155465E-16
3.660000E+03	1.701741E-14	3.091739E-16
3.670000E+03	1.671620E-14	3.032966E-16
3.680000E+03	1.645428E-14	2.981338E-16
3.690000E+03	1.624212E-14	2.938732E-16
3.700000E+03	1.608817E-14	2.906632E-16
3.710000E+03	1.599976E-14	2.886321E-16
3.720000E+03	1.598341E-14	2.878916E-16
3.730000E+03	1.604426E-14	2.885286E-16
3.740000E+03	1.618684E-14	2.906171E-16
3.750000E+03	1.641518E-14	2.942219E-16
3.760000E+03	1.673207E-14	2.993848E-16
3.770000E+03	1.713961E-14	3.061337E-16
3.780000E+03	1.763890E-14	3.144793E-16
3.790000E+03	1.822945E-14	3.244025E-16
3.800000E+03	1.890931E-14	3.358582E-16
3.810000E+03	1.967464E-14	3.487679E-16
3.820000E+03	2.051948E-14	3.630153E-16
3.830000E+03	2.143558E-14	3.784447E-16
3.840000E+03	2.241194E-14	3.948525E-16
3.850000E+03	2.343560E-14	4.120023E-16
3.860000E+03	2.449180E-14	4.296274E-16
3.870000E+03	2.556394E-14	4.474321E-16
3.880000E+03	2.663514E-14	4.651173E-16
3.890000E+03	2.768920E-14	4.823992E-16
3.900000E+03	2.871058E-14	4.990077E-16
3.910000E+03	2.968506E-14	5.146993E-16
3.920000E+03	3.060128E-14	5.292817E-16
3.930000E+03	3.144987E-14	5.425994E-16
3.940000E+03	3.222277E-14	5.545221E-16
3.950000E+03	3.291485E-14	5.649706E-16
3.960000E+03	3.352233E-14	5.738907E-16
3.970000E+03	3.404240E-14	5.812458E-16
3.980000E+03	3.447290E-14	5.870110E-16
3.990000E+03	3.481341E-14	5.911921E-16
4.000000E+03	3.506283E-14	5.937835E-16
4.010000E+03	3.522067E-14	5.947906E-16
4.020000E+03	3.528742E-14	5.942355E-16
4.030000E+03	3.526333E-14	5.921369E-16
4.040000E+03	3.515041E-14	5.885425E-16
4.050000E+03	3.495068E-14	5.835005E-16
4.060000E+03	3.466901E-14	5.771063E-16
4.070000E+03	3.431062E-14	5.694601E-16
4.080000E+03	3.388240E-14	5.606885E-16
4.090000E+03	3.339281E-14	5.509434E-16
4.100000E+03	3.284999E-14	5.403693E-16
4.110000E+03	3.226378E-14	5.291370E-16
4.120000E+03	3.164279E-14	5.173953E-16
4.130000E+03	3.099628E-14	5.053016E-16
4.140000E+03	3.033320E-14	4.930065E-16
4.150000E+03	2.966169E-14	4.806459E-16
4.160000E+03	2.899007E-14	4.683563E-16
4.170000E+03	2.832605E-14	4.562630E-16
4.180000E+03	2.767685E-14	4.444818E-16
4.190000E+03	2.705008E-14	4.331332E-16
4.200000E+03	2.645213E-14	4.223170E-16
4.210000E+03	2.588990E-14	4.121393E-16
4.220000E+03	2.536899E-14	4.026849E-16
4.230000E+03	2.489510E-14	3.940387E-16
4.240000E+03	2.447306E-14	3.862713E-16
4.250000E+03	2.410660E-14	3.794348E-16
4.260000E+03	2.379940E-14	3.735806E-16
4.270000E+03	2.355362E-14	3.687353E-16
4.280000E+03	2.337023E-14	3.649075E-16
4.290000E+03	2.324877E-14	3.620829E-16
4.300000E+03	2.318722E-14	3.602237E-16
4.310000E+03	2.318102E-14	3.592538E-16
4.320000E+03	2.322240E-14	3.590482E-16
4.330000E+03	2.330171E-14	3.594533E-16
4.340000E+03	2.340558E-14	3.602596E-16
4.350000E+03	2.351955E-14	3.612426E-16
4.360000E+03	2.362768E-14	3.621574E-16
4.370000E+03	2.371774E-14	3.628173E-16
4.380000E+03	2.378563E-14	3.631616E-16
4.390000E+03	2.383131E-14	3.631915E-16
4.400000E+03	2.385697E-14	3.629420E-16
4.410000E+03	2.386679E-14	3.624781E-16
4.420000E+03	2.386638E-14	3.618857E-16
4.430000E+03	2.386209E-14	3.612609E-16
4.440000E+03	2.386108E-14	3.607103E-16
4.450000E+03	2.387024E-14	3.603360E-16
4.460000E+03	2.389680E-14	3.602448E-16
4.470000E+03	2.394654E-14	3.605208E-16
4.480000E+03	2.402330E-14	3.612185E-16
4.490000E+03	2.412507E-14	3.623050E-16
4.500000E+03	2.424624E-14	3.636928E-16
4.510000E+03	2.437990E-14	3.652761E-16
4.520000E+03	2.451869E-14	3.669422E-16
4.530000E+03	2.465463E-14	3.685702E-16
4.540000E+03	2.478067E-14	3.700533E-16
4.550000E+03	2.488915E-14	3.712763E-16
4.560000E+03	2.497329E-14	3.721371E-16
4.570000E+03	2.502662E-14	3.725389E-16
4.580000E+03	2.504377E-14	3.724021E-16
4.590000E+03	2.501991E-14	3.716544E-16
4.600000E+03	2.495102E-14	3.702371E-16
4.610000E+03	2.483527E-14	3.681234E-16
4.620000E+03	2.467126E-14	3.652935E-16
4.630000E+03	2.445920E-14	3.617515E-16
4.640000E+03	2.420108E-14	3.575281E-16
4.650000E+03	2.389985E-14	3.526679E-16
4.660000E+03	2.355893E-14	3.472229E-16
4.670000E+03	2.318372E-14	3.412738E-16
4.680000E+03	2.277962E-14	3.349013E-16
4.690000E+03	2.235245E-14	3.281922E-16
4.700000E+03	2.190840E-14	3.212383E-16
4.710000E+03	2.145340E-14	3.141273E-16
4.720000E+03	2.099330E-14	3.069457E-16
4.730000E+03	2.053296E-14	2.997648E-16
4.740000E+03	2.007732E-14	2.926570E-16
4.750000E+03	1.963067E-14	2.856848E-16
4.760000E+03	1.919597E-14	2.788911E-16
4.770000E+03	1.877652E-14	2.723234E-16
4.780000E+03	1.837451E-14	2.660129E-16
4.790000E+03	1.799171E-14	2.599846E-16
4.800000E+03	1.762999E-14	2.542646E-16
4.810000E+03	1.729005E-14	2.488616E-16
4.820000E+03	1.697323E-14	2.437941E-16
4.830000E+03	1.667966E-14	2.390622E-16
4.840000E+03	1.641000E-14	2.346741E-16
4.850000E+03	1.616407E-14	2.306257E-16
4.860000E+03	1.594214E-14	2.269187E-16
4.870000E+03	1.574369E-14	2.235445E-16
4.880000E+03	1.556862E-14	2.204995E-16
4.890000E+03	1.541663E-14	2.177774E-16
4.900000E+03	1.528724E-14	2.153697E-16
4.910000E+03	1.518017E-14	2.132704E-16
4.920000E+03	1.509517E-14	2.114736E-16
4.930000E+03	1.503215E-14	2.099761E-16
4.940000E+03	1.499057E-14	2.087680E-16
4.950000E+03	1.497045E-14	2.078473E-16
4.960000E+03	1.497117E-14	2.072031E-16
4.970000E+03	1.499241E-14	2.068286E-16
4.980000E+03	1.503344E-14	2.067115E-16
4.990000E+03	1.509345E-14	2.068381E-16
5.000000E+03	1.517140E-14	2.071922E-16
5.010000E+03	1.526609E-14	2.077551E-16
5.020000E+03	1.537553E-14	2.084981E-16
5.030000E+03	1.549788E-14	2.093943E-16
5.040000E+03	1.563063E-14	2.104087E-16
5.050000E+03	1.577132E-14	2.115073E-16
5.060000E+03	1.591694E-14	2.126492E-16
5.070000E+03	1.606433E-14	2.137924E-16
5.080000E+03	1.621056E-14	2.148983E-16
5.090000E+03	1.635253E-14	2.159273E-16
5.100000E+03	1.648713E-14	2.168399E-16
5.110000E+03	1.661141E-14	2.175997E-16
5.120000E+03	1.672324E-14	2.181818E-16
5.130000E+03	1.682020E-14	2.185579E-16
5.140000E+03	1.690062E-14	2.187101E-16
5.150000E+03	1.696331E-14	2.186270E-16
5.160000E+03	1.700751E-14	2.183033E-16
5.170000E+03	1.703284E-14	2.177385E-16
5.180000E+03	1.703976E-14	2.169432E-16
5.190000E+03	1.702871E-14	2.159273E-16
5.200000E+03	1.700115E-14	2.147137E-16
5.210000E+03	1.695841E-14	2.133236E-16
5.220000E+03	1.690289E-14	2.117908E-16
5.230000E+03	1.683660E-14	2.101440E-16
5.240000E+03	1.676220E-14	2.084197E-16
5.250000E+03	1.668201E-14	2.066493E-16
5.260000E+03	1.659889E-14	2.048707E-16
5.270000E+03	1.651554E-14	2.031192E-16
5.280000E+03	1.643429E-14	2.014248E-16
5.290000E+03	1.635771E-14	1.998204E-16
5.300000E+03	1.628835E-14	1.983383E-16
5.310000E+03	1.622823E-14	1.970037E-16
5.320000E+03	1.617902E-14	1.958375E-16
5.330000E+03	1.614206E-14	1.948566E-16
5.340000E+03	1.611819E-14	1.940716E-16
5.350000E+03	1.610758E-14	1.934854E-16
5.360000E+03	1.610959E-14	1.930909E-16
5.370000E+03	1.612327E-14	1.928782E-16
5.380000E+03	1.614690E-14	1.928276E-16
5.390000E+03	1.617871E-14	1.929199E-16
5.400000E+03	1.621648E-14	1.931303E-16
5.410000E+03	1.625851E-14	1.934403E-16
5.420000E+03	1.630328E-14	1.938320E-16
5.430000E+03	1.635009E-14	1.942968E-16
5.440000E+03	1.639983E-14	1.948445E-16
5.450000E+03	1.645271E-14	1.954769E-16
5.460000E+03	1.650819E-14	1.961867E-16
5.470000E+03	1.656678E-14	1.969788E-16
5.480000E+03	1.662794E-14	1.978460E-16
5.490000E+03	1.669092E-14	1.987782E-16
5.500000E+03	1.675483E-14	1.997641E-16
5.510000E+03	1.681847E-14	2.007880E-16
5.520000E+03	1.688037E-14	2.018316E-16
5.530000E+03	1.693938E-14	2.028795E-16
5.540000E+03	1.699396E-14	2.039121E-16
5.550000E+03	1.704312E-14	2.049160E-16
5.560000E+03	1.708589E-14	2.058780E-16
5.570000E+03	1.712125E-14	2.067839E-16
5.580000E+03	1.714873E-14	2.076261E-16
5.590000E+03	1.716790E-14	2.083975E-16
5.600000E+03	1.717854E-14	2.090934E-16
5.610000E+03	1.718083E-14	2.097137E-16
5.620000E+03	1.717499E-14	2.102591E-16
5.630000E+03	1.716142E-14	2.107325E-16
5.640000E+03	1.714093E-14	2.111414E-16
5.650000E+03	1.711428E-14	2.114934E-16
5.660000E+03	1.708251E-14	2.117995E-16
5.670000E+03	1.704659E-14	2.120699E-16
5.680000E+03	1.700747E-14	2.123151E-16
5.690000E+03	1.696623E-14	2.125469E-16
5.700000E+03	1.692362E-14	2.127737E-16
5.710000E+03	1.688025E-14	2.130021E-16
5.720000E+03	1.683667E-14	2.132379E-16
5.730000E+03	1.679298E-14	2.134819E-16
5.740000E+03	1.674921E-14	2.137337E-16
5.750000E+03	1.670483E-14	2.139858E-16
5.760000E+03	1.665953E-14	2.142335E-16
5.770000E+03	1.661229E-14	2.144630E-16
5.780000E+03	1.656200E-14	2.146594E-16
5.790000E+03	1.650775E-14	2.148099E-16
5.800000E+03	1.644775E-14	2.148901E-16
5.810000E+03	1.638076E-14	2.148825E-16
5.820000E+03	1.630509E-14	2.147637E-16
5.830000E+03	1.621902E-14	2.145091E-16
5.840000E+03	1.612064E-14	2.140917E-16
5.850000E+03	1.600861E-14	2.134913E-16
5.860000E+03	1.588126E-14	2.126834E-16
5.870000E+03	1.573748E-14	2.116503E-16
5.880000E+03	1.557632E-14	2.103761E-16
5.890000E+03	1.539703E-14	2.088476E-16
5.900000E+03	1.519960E-14	2.070618E-16
5.910000E+03	1.498453E-14	2.050217E-16
5.920000E+03	1.475215E-14	2.027290E-16
5.930000E+03	1.450373E-14	2.001979E-16
5.940000E+03	1.424072E-14	1.974453E-16
5.950000E+03	1.396502E-14	1.944948E-16
5.960000E+03	1.367830E-14	1.913673E-16
5.970000E+03	1.338308E-14	1.880957E-16
5.980000E+03	1.308140E-14	1.847069E-16
5.990000E+03	1.277584E-14	1.812359E-16
6.000000E+03	1.246882E-14	1.777163E-16
6.010000E+03	1.216264E-14	1.741799E-16
6.020000E+03	1.185974E-14	1.706620E-16
6.030000E+03	1.156204E-14	1.671903E-16
6.040000E+03	1.127183E-14	1.637985E-16
6.050000E+03	1.099053E-14	1.605089E-16
6.060000E+03	1.071997E-14	1.573496E-16
6.070000E+03	1.046127E-14	1.543388E-16
6.080000E+03	1.021565E-14	1.514969E-16
6.090000E+03	9.983711E-15	1.488354E-16
6.100000E+03	9.766095E-15	1.463665E-16
6.110000E+03	9.563062E-15	1.440971E-16
6.120000E+03	9.374776E-15	1.420328E-16
6.130000E+03	9.200990E-15	1.401729E-16
6.140000E+03	9.041373E-15	1.385158E-16
6.150000E+03	8.895537E-15	1.370586E-16
6.160000E+03	8.762843E-15	1.357940E-16
6.170000E+03	8.642293E-15	1.347087E-16
6.180000E+03	8.533114E-15	1.337926E-16
6.190000E+03	8.434299E-15	1.330318E-16
6.200000E+03	8.344895E-15	1.324132E-16
6.210000E+03	8.263973E-15	1.319235E-16
6.220000E+03	8.190564E-15	1.315487E-16
6.230000E+03	8.123772E-15	1.312757E-16
6.240000E+03	8.062901E-15	1.310942E-16
6.250000E+03	8.006948E-15	1.309889E-16
6.260000E+03	7.954836E-15	1.309428E-16
6.270000E+03	7.905937E-15	1.309458E-16
6.280000E+03	7.859372E-15	1.309837E-16
6.290000E+03	7.814120E-15	1.310394E-16
6.300000E+03	7.769759E-15	1.311055E-16
6.310000E+03	7.725340E-15	1.311656E-16
6.320000E+03	7.680536E-15	1.312134E-16
6.330000E+03	7.634722E-15	1.312376E-16
6.340000E+03	7.587607E-15	1.312322E-16
6.350000E+03	7.538942E-15	1.311920E-16
6.360000E+03	7.488629E-15	1.311141E-16
6.370000E+03	7.436732E-15	1.309988E-16
6.380000E+03	7.383379E-15	1.308473E-16
6.390000E+03	7.328853E-15	1.306636E-16
6.400000E+03	7.273733E-15	1.304575E-16
6.410000E+03	7.218024E-15	1.302283E-16
6.420000E+03	7.161421E-15	1.299701E-16
6.430000E+03	7.103349E-15	1.296715E-16
6.440000E+03	7.043453E-15	1.293253E-16
6.450000E+03	6.981616E-15	1.289285E-16
6.460000E+03	6.917940E-15	1.284820E-16
6.470000E+03	6.852415E-15	1.279847E-16
6.480000E+03	6.785207E-15	1.274391E-16
6.490000E+03	6.716530E-15	1.268482E-16
6.500000E+03	6.646426E-15	1.262124E-16
6.510000E+03	6.575263E-15	1.255380E-16
6.520000E+03	6.503213E-15	1.248277E-16
6.530000E+03	6.430351E-15	1.240827E-16
6.540000E+03	6.357053E-15	1.233100E-16
6.550000E+03	6.283388E-15	1.225105E-16
6.560000E+03	6.209424E-15	1.216855E-16
6.570000E+03	6.135518E-15	1.208418E-16
6.580000E+03	6.061724E-15	1.199805E-16
6.590000E+03	5.988193E-15	1.191047E-16
6.600000E+03	5.915166E-15	1.182192E-16
6.610000E+03	5.842592E-15	1.173232E-16
6.620000E+03	5.770611E-15	1.164196E-16
6.630000E+03	5.699547E-15	1.155152E-16
6.640000E+03	5.629343E-15	1.146092E-16
6.650000E+03	5.560130E-15	1.137045E-16
6.660000E+03	5.492123E-15	1.128060E-16
6.670000E+03	5.425352E-15	1.119146E-16
6.680000E+03	5.359929E-15	1.110331E-16
6.690000E+03	5.296054E-15	1.101661E-16
6.700000E+03	5.233646E-15	1.093124E-16
6.710000E+03	5.172801E-15	1.084746E-16
6.720000E+03	5.113778E-15	1.076585E-16
6.730000E+03	5.056472E-15	1.068626E-16
6.740000E+03	5.000947E-15	1.060888E-16
6.750000E+03	4.947341E-15	1.053405E-16
6.760000E+03	4.895605E-15	1.046172E-16
6.770000E+03	4.845767E-15	1.039202E-16
6.780000E+03	4.797840E-15	1.032503E-16
6.790000E+03	4.751829E-15	1.026081E-16
6.800000E+03	4.707638E-15	1.019922E-16
6.810000E+03	4.665332E-15	1.014044E-16
6.820000E+03	4.624878E-15	1.008445E-16
6.830000E+03	4.586151E-15	1.003104E-16
6.840000E+03	4.549184E-15	9.980318E-17
6.850000E+03	4.513834E-15	9.932021E-17
6.860000E+03	4.480033E-15	9.886043E-17
6.870000E+03	4.447710E-15	9.842264E-17
6.880000E+03	4.416704E-15	9.800371E-17
6.890000E+03	4.387098E-15	9.760582E-17
6.900000E+03	4.358725E-15	9.722558E-17
6.910000E+03	4.331416E-15	9.685957E-17
6.920000E+03	4.305167E-15	9.650797E-17
6.930000E+03	4.279811E-15	9.616732E-17
6.940000E+03	4.255261E-15	9.583592E-17
6.950000E+03	4.231517E-15	9.551398E-17
6.960000E+03	4.208418E-15	9.519814E-17
6.970000E+03	4.185889E-15	9.488683E-17
6.980000E+03	4.163857E-15	9.457866E-17
6.990000E+03	4.142257E-15	9.427229E-17
7.000000E+03	4.120947E-15	9.396465E-17
7.010000E+03	4.100030E-15	9.365829E-17
7.020000E+03	4.079298E-15	9.334856E-17
7.030000E+03	4.058704E-15	9.303458E-17
7.040000E+03	4.038291E-15	9.271743E-17
7.050000E+03	4.017945E-15	9.239465E-17
7.060000E+03	3.997639E-15	9.206578E-17
7.070000E+03	3.977354E-15	9.173046E-17
7.080000E+03	3.957070E-15	9.138842E-17
7.090000E+03	3.936858E-15	9.104142E-17
7.100000E+03	3.916555E-15	9.068579E-17
7.110000E+03	3.896159E-15	9.032166E-17
7.120000E+03	3.875755E-15	8.995114E-17
7.130000E+03	3.855350E-15	8.957452E-17
7.140000E+03	3.834881E-15	8.919047E-17
7.150000E+03	3.814445E-15	8.880140E-17
7.160000E+03	3.793906E-15	8.840433E-17
7.170000E+03	3.773447E-15	8.800365E-17
7.180000E+03	3.753022E-15	8.759843E-17
7.190000E+03	3.732664E-15	8.718963E-17
7.200000E+03	3.712335E-15	8.677651E-17
7.210000E+03	3.692230E-15	8.636380E-17
7.220000E+03	3.672243E-15	8.594917E-17
7.230000E+03	3.652497E-15	8.553573E-17
7.240000E+03	3.632970E-15	8.512308E-17
7.250000E+03	3.613795E-15	8.471451E-17
7.260000E+03	3.594953E-15	8.430981E-17
7.270000E+03	3.576507E-15	8.391058E-17
7.280000E+03	3.558597E-15	8.352030E-17
7.290000E+03	3.541214E-15	8.313893E-17
7.300000E+03	3.524501E-15	8.277004E-17
7.310000E+03	3.508378E-15	8.241190E-17
7.320000E+03	3.492991E-15	8.206811E-17
7.330000E+03	3.478483E-15	8.174225E-17
7.340000E+03	3.464775E-15	8.143261E-17
7.350000E+03	3.452008E-15	8.114270E-17
7.360000E+03	3.440172E-15	8.087243E-17
7.370000E+03	3.429401E-15	8.062517E-17
7.380000E+03	3.419677E-15	8.040061E-17
7.390000E+03	3.411047E-15	8.020008E-17
7.400000E+03	3.403552E-15	8.002470E-17
7.410000E+03	3.397150E-15	7.987363E-17
7.420000E+03	3.391860E-15	7.974752E-17
7.430000E+03	3.387693E-15	7.964678E-17
7.440000E+03	3.384646E-15	7.957150E-17
7.450000E+03	3.382776E-15	7.952323E-17
7.460000E+03	3.381977E-15	7.949962E-17
7.470000E+03	3.382352E-15	7.950329E-17
7.480000E+03	3.383841E-15	7.953301E-17
7.490000E+03	3.386363E-15	7.958706E-17
7.500000E+03	3.389826E-15	7.966346E-17
7.510000E+03	3.394116E-15	7.975972E-17
7.520000E+03	3.399261E-15	7.987672E-17
7.530000E+03	3.404961E-15	8.000763E-17
7.540000E+03	3.411138E-15	8.015080E-17
7.550000E+03	3.417619E-15	8.030241E-17
7.560000E+03	3.424299E-15	8.046021E-17
7.570000E+03	3.430827E-15	8.061617E-17
7.580000E+03	3.437074E-15	8.076754E-17
7.590000E+03	3.442834E-15	8.090969E-17
7.600000E+03	3.447974E-15	8.103974E-17
7.610000E+03	3.452118E-15	8.114909E-17
7.620000E+03	3.455218E-15	8.123690E-17
7.630000E+03	3.456987E-15	8.129659E-17
7.640000E+03	3.457145E-15	8.132186E-17
7.650000E+03	3.455672E-15	8.131246E-17
7.660000E+03	3.452318E-15	8.126271E-17
7.670000E+03	3.446931E-15	8.116920E-17
7.680000E+03	3.439381E-15	8.102908E-17
7.690000E+03	3.429561E-15	8.083999E-17
7.700000E+03	3.417389E-15	8.060011E-17
7.710000E+03	3.402893E-15	8.031022E-17
7.720000E+03	3.385879E-15	7.996585E-17
7.730000E+03	3.366513E-15	7.957093E-17
7.740000E+03	3.344738E-15	7.912417E-17
7.750000E+03	3.320608E-15	7.862686E-17
7.760000E+03	3.294203E-15	7.808081E-17
