#wls	flux	fluxerr
1.600000E+03	2.580153E-15	9.378485E-17
1.640000E+03	2.313786E-15	8.215098E-17
1.680000E+03	2.043683E-15	7.082851E-17
1.720000E+03	1.776242E-15	6.004881E-17
1.760000E+03	1.517312E-15	5.000223E-17
1.800000E+03	1.272917E-15	4.086355E-17
1.840000E+03	1.048071E-15	3.275417E-17
1.880000E+03	8.469848E-16	2.575261E-17
1.920000E+03	6.724729E-16	1.988102E-17
1.960000E+03	5.259610E-16	1.511150E-17
2.000000E+03	4.073891E-16	1.136992E-17
2.040000E+03	3.154681E-16	8.549510E-18
2.080000E+03	2.479889E-16	6.524538E-18
2.120000E+03	2.014409E-16	5.144619E-18
2.160000E+03	1.714427E-16	4.250546E-18
2.200000E+03	1.550632E-16	3.733159E-18
2.240000E+03	1.513833E-16	3.540920E-18
2.280000E+03	1.614447E-16	3.671827E-18
2.320000E+03	1.881959E-16	4.166554E-18
2.360000E+03	2.373678E-16	5.123147E-18
2.400000E+03	3.185821E-16	6.715629E-18
2.440000E+03	4.456753E-16	9.196046E-18
2.480000E+03	6.353110E-16	1.286433E-17
2.520000E+03	9.020236E-16	1.797349E-17
2.560000E+03	1.249484E-15	2.456625E-17
2.600000E+03	1.662474E-15	3.233440E-17
2.640000E+03	2.108678E-15	4.066647E-17
2.680000E+03	2.560394E-15	4.906319E-17
2.720000E+03	3.014321E-15	5.749769E-17
2.760000E+03	3.489023E-15	6.635065E-17
2.800000E+03	4.012337E-15	7.616737E-17
2.840000E+03	4.609663E-15	8.743951E-17
2.880000E+03	5.282659E-15	1.002053E-16
2.920000E+03	5.996881E-15	1.138158E-16
2.960000E+03	6.698257E-15	1.272434E-16
3.000000E+03	7.347033E-15	1.397240E-16
3.010000E+03	7.498455E-15	1.426458E-16
3.020000E+03	7.645028E-15	1.454775E-16
3.030000E+03	7.786113E-15	1.482065E-16
3.040000E+03	7.921518E-15	1.508290E-16
3.050000E+03	8.050425E-15	1.533289E-16
3.060000E+03	8.172127E-15	1.556926E-16
3.070000E+03	8.285855E-15	1.579049E-16
3.080000E+03	8.391143E-15	1.599567E-16
3.090000E+03	8.486861E-15	1.618261E-16
3.100000E+03	8.572626E-15	1.635054E-16
3.110000E+03	8.647692E-15	1.649801E-16
3.120000E+03	8.711893E-15	1.662466E-16
3.130000E+03	8.765247E-15	1.673050E-16
3.140000E+03	8.808215E-15	1.681638E-16
3.150000E+03	8.841765E-15	1.688412E-16
3.160000E+03	8.867542E-15	1.693685E-16
3.170000E+03	8.887371E-15	1.697803E-16
3.180000E+03	8.903838E-15	1.701259E-16
3.190000E+03	8.919660E-15	1.704571E-16
3.200000E+03	8.937757E-15	1.708297E-16
3.210000E+03	8.961289E-15	1.713036E-16
3.220000E+03	8.992849E-15	1.719284E-16
3.230000E+03	9.035625E-15	1.727647E-16
3.240000E+03	9.091613E-15	1.738505E-16
3.250000E+03	9.163378E-15	1.752347E-16
3.260000E+03	9.252341E-15	1.769441E-16
3.270000E+03	9.360021E-15	1.790075E-16
3.280000E+03	9.487420E-15	1.814439E-16
3.290000E+03	9.635089E-15	1.842633E-16
3.300000E+03	9.803776E-15	1.874797E-16
3.310000E+03	9.993369E-15	1.910904E-16
3.320000E+03	1.020391E-14	1.950959E-16
3.330000E+03	1.043560E-14	1.994991E-16
3.340000E+03	1.068800E-14	2.042911E-16
3.350000E+03	1.096091E-14	2.094674E-16
3.360000E+03	1.125420E-14	2.150245E-16
3.370000E+03	1.156792E-14	2.209627E-16
3.380000E+03	1.190170E-14	2.272741E-16
3.390000E+03	1.225558E-14	2.339580E-16
3.400000E+03	1.262978E-14	2.410179E-16
3.410000E+03	1.302422E-14	2.484511E-16
3.420000E+03	1.343899E-14	2.562581E-16
3.430000E+03	1.387385E-14	2.644329E-16
3.440000E+03	1.432891E-14	2.729764E-16
3.450000E+03	1.480387E-14	2.818817E-16
3.460000E+03	1.529755E-14	2.911245E-16
3.470000E+03	1.580814E-14	3.006690E-16
3.480000E+03	1.633134E-14	3.104323E-16
3.490000E+03	1.685820E-14	3.202427E-16
3.500000E+03	1.737564E-14	3.298513E-16
3.510000E+03	1.786968E-14	3.389920E-16
3.520000E+03	1.832476E-14	3.473703E-16
3.530000E+03	1.872559E-14	3.546974E-16
3.540000E+03	1.905789E-14	3.607049E-16
3.550000E+03	1.930927E-14	3.651610E-16
3.560000E+03	1.947092E-14	3.679020E-16
3.570000E+03	1.953743E-14	3.688297E-16
3.580000E+03	1.950854E-14	3.679434E-16
3.590000E+03	1.938924E-14	3.653416E-16
3.600000E+03	1.918863E-14	3.612005E-16
3.610000E+03	1.891975E-14	3.557698E-16
3.620000E+03	1.859812E-14	3.493456E-16
3.630000E+03	1.824093E-14	3.422535E-16
3.640000E+03	1.786611E-14	3.348326E-16
3.650000E+03	1.749087E-14	3.274071E-16
3.660000E+03	1.713183E-14	3.202877E-16
3.670000E+03	1.680324E-14	3.137404E-16
3.680000E+03	1.651759E-14	3.079962E-16
3.690000E+03	1.628548E-14	3.032502E-16
3.700000E+03	1.611531E-14	2.996545E-16
3.710000E+03	1.601436E-14	2.973399E-16
3.720000E+03	1.598907E-14	2.964201E-16
3.730000E+03	1.604457E-14	2.969835E-16
3.740000E+03	1.618538E-14	2.991068E-16
3.750000E+03	1.641562E-14	3.028578E-16
3.760000E+03	1.673818E-14	3.082806E-16
3.770000E+03	1.715520E-14	3.154053E-16
3.780000E+03	1.766785E-14	3.242429E-16
3.790000E+03	1.827563E-14	3.347737E-16
3.800000E+03	1.897659E-14	3.469506E-16
3.810000E+03	1.976678E-14	3.606901E-16
3.820000E+03	2.063995E-14	3.758670E-16
3.830000E+03	2.158746E-14	3.923129E-16
3.840000E+03	2.259760E-14	4.098054E-16
3.850000E+03	2.365660E-14	4.280855E-16
3.860000E+03	2.474867E-14	4.468601E-16
3.870000E+03	2.585619E-14	4.658057E-16
3.880000E+03	2.696117E-14	4.845949E-16
3.890000E+03	2.804661E-14	5.029209E-16
3.900000E+03	2.909625E-14	5.204933E-16
3.910000E+03	3.009549E-14	5.370548E-16
3.920000E+03	3.103285E-14	5.524057E-16
3.930000E+03	3.189909E-14	5.663891E-16
3.940000E+03	3.268643E-14	5.788759E-16
3.950000E+03	3.339008E-14	5.897916E-16
3.960000E+03	3.400662E-14	5.990871E-16
3.970000E+03	3.453357E-14	6.067311E-16
3.980000E+03	3.496904E-14	6.127030E-16
3.990000E+03	3.531276E-14	6.170120E-16
4.000000E+03	3.556365E-14	6.196534E-16
4.010000E+03	3.572106E-14	6.206301E-16
4.020000E+03	3.578519E-14	6.199607E-16
4.030000E+03	3.575594E-14	6.176585E-16
4.040000E+03	3.563491E-14	6.137668E-16
4.050000E+03	3.542386E-14	6.083313E-16
4.060000E+03	3.512751E-14	6.014479E-16
4.070000E+03	3.475117E-14	5.932223E-16
4.080000E+03	3.430197E-14	5.837900E-16
4.090000E+03	3.378880E-14	5.733147E-16
4.100000E+03	3.322018E-14	5.619523E-16
4.110000E+03	3.260645E-14	5.498874E-16
4.120000E+03	3.195662E-14	5.372802E-16
4.130000E+03	3.128034E-14	5.242996E-16
4.140000E+03	3.058692E-14	5.111067E-16
4.150000E+03	2.988482E-14	4.978464E-16
4.160000E+03	2.918264E-14	4.846640E-16
4.170000E+03	2.848838E-14	4.716932E-16
4.180000E+03	2.780960E-14	4.590585E-16
4.190000E+03	2.715420E-14	4.468885E-16
4.200000E+03	2.652894E-14	4.352911E-16
4.210000E+03	2.594102E-14	4.243809E-16
4.220000E+03	2.539642E-14	4.142500E-16
4.230000E+03	2.490111E-14	4.049902E-16
4.240000E+03	2.446025E-14	3.966783E-16
4.250000E+03	2.407778E-14	3.893713E-16
4.260000E+03	2.375767E-14	3.831258E-16
4.270000E+03	2.350235E-14	3.779728E-16
4.280000E+03	2.331315E-14	3.739264E-16
4.290000E+03	2.318998E-14	3.709769E-16
4.300000E+03	2.313111E-14	3.690901E-16
4.310000E+03	2.313219E-14	3.681897E-16
4.320000E+03	2.318547E-14	3.681472E-16
4.330000E+03	2.328105E-14	3.688004E-16
4.340000E+03	2.340494E-14	3.699240E-16
4.350000E+03	2.354190E-14	3.712745E-16
4.360000E+03	2.367514E-14	3.725871E-16
4.370000E+03	2.379141E-14	3.736538E-16
4.380000E+03	2.388542E-14	3.743937E-16
4.390000E+03	2.395616E-14	3.747934E-16
4.400000E+03	2.400520E-14	3.748791E-16
4.410000E+03	2.403637E-14	3.747124E-16
4.420000E+03	2.405510E-14	3.743791E-16
4.430000E+03	2.406774E-14	3.739778E-16
4.440000E+03	2.408141E-14	3.736177E-16
4.450000E+03	2.410296E-14	3.734031E-16
4.460000E+03	2.413951E-14	3.734419E-16
4.470000E+03	2.419674E-14	3.738189E-16
4.480000E+03	2.427833E-14	3.745881E-16
4.490000E+03	2.438250E-14	3.757188E-16
4.500000E+03	2.450389E-14	3.771257E-16
4.510000E+03	2.463601E-14	3.787060E-16
4.520000E+03	2.477176E-14	3.803490E-16
4.530000E+03	2.490349E-14	3.819353E-16
4.540000E+03	2.502442E-14	3.833594E-16
4.550000E+03	2.512717E-14	3.845075E-16
4.560000E+03	2.520515E-14	3.852779E-16
4.570000E+03	2.525205E-14	3.855740E-16
4.580000E+03	2.526263E-14	3.853155E-16
4.590000E+03	2.523206E-14	3.844290E-16
4.600000E+03	2.515638E-14	3.828549E-16
4.610000E+03	2.503378E-14	3.805660E-16
4.620000E+03	2.486292E-14	3.775431E-16
4.630000E+03	2.464406E-14	3.737912E-16
4.640000E+03	2.437919E-14	3.693418E-16
4.650000E+03	2.407138E-14	3.642424E-16
4.660000E+03	2.372407E-14	3.585467E-16
4.670000E+03	2.334272E-14	3.523386E-16
4.680000E+03	2.293280E-14	3.457017E-16
4.690000E+03	2.250020E-14	3.387261E-16
4.700000E+03	2.205114E-14	3.315064E-16
4.710000E+03	2.159160E-14	3.241331E-16
4.720000E+03	2.112740E-14	3.166947E-16
4.730000E+03	2.066341E-14	3.092642E-16
4.740000E+03	2.020451E-14	3.019149E-16
4.750000E+03	1.975495E-14	2.947102E-16
4.760000E+03	1.931759E-14	2.876928E-16
4.770000E+03	1.889562E-14	2.809096E-16
4.780000E+03	1.849115E-14	2.743914E-16
4.790000E+03	1.810591E-14	2.681627E-16
4.800000E+03	1.774170E-14	2.622497E-16
4.810000E+03	1.739918E-14	2.566608E-16
4.820000E+03	1.707974E-14	2.514152E-16
4.830000E+03	1.678350E-14	2.465131E-16
4.840000E+03	1.651114E-14	2.419633E-16
4.850000E+03	1.626250E-14	2.377614E-16
4.860000E+03	1.603785E-14	2.339098E-16
4.870000E+03	1.583670E-14	2.303993E-16
4.880000E+03	1.565895E-14	2.272266E-16
4.890000E+03	1.550430E-14	2.243855E-16
4.900000E+03	1.537231E-14	2.218672E-16
4.910000E+03	1.526272E-14	2.196662E-16
4.920000E+03	1.517531E-14	2.177767E-16
4.930000E+03	1.511001E-14	2.161957E-16
4.940000E+03	1.506632E-14	2.149136E-16
4.950000E+03	1.504430E-14	2.139288E-16
4.960000E+03	1.504330E-14	2.132297E-16
4.970000E+03	1.506306E-14	2.128100E-16
4.980000E+03	1.510279E-14	2.126562E-16
4.990000E+03	1.516166E-14	2.127541E-16
5.000000E+03	1.523858E-14	2.130863E-16
5.010000E+03	1.533229E-14	2.136327E-16
5.020000E+03	1.544072E-14	2.143624E-16
5.030000E+03	1.556187E-14	2.152464E-16
5.040000E+03	1.569311E-14	2.162466E-16
5.050000E+03	1.583179E-14	2.173258E-16
5.060000E+03	1.597477E-14	2.184405E-16
5.070000E+03	1.611875E-14	2.195458E-16
5.080000E+03	1.626066E-14	2.206004E-16
5.090000E+03	1.639731E-14	2.215628E-16
5.100000E+03	1.652549E-14	2.223915E-16
5.110000E+03	1.664224E-14	2.230493E-16
5.120000E+03	1.674546E-14	2.235112E-16
5.130000E+03	1.683279E-14	2.237495E-16
5.140000E+03	1.690271E-14	2.237479E-16
5.150000E+03	1.695414E-14	2.234966E-16
5.160000E+03	1.698652E-14	2.229929E-16
5.170000E+03	1.699967E-14	2.222391E-16
5.180000E+03	1.699426E-14	2.212487E-16
5.190000E+03	1.697095E-14	2.200351E-16
5.200000E+03	1.693143E-14	2.186246E-16
5.210000E+03	1.687729E-14	2.170419E-16
5.220000E+03	1.681113E-14	2.153246E-16
5.230000E+03	1.673514E-14	2.135040E-16
5.240000E+03	1.665216E-14	2.116194E-16
5.250000E+03	1.656461E-14	2.097043E-16
5.260000E+03	1.647544E-14	2.077983E-16
5.270000E+03	1.638741E-14	2.059378E-16
5.280000E+03	1.630286E-14	2.041539E-16
5.290000E+03	1.622440E-14	2.024801E-16
5.300000E+03	1.615459E-14	2.009495E-16
5.310000E+03	1.609548E-14	1.995879E-16
5.320000E+03	1.604874E-14	1.984167E-16
5.330000E+03	1.601573E-14	1.974529E-16
5.340000E+03	1.599724E-14	1.967070E-16
5.350000E+03	1.599338E-14	1.961806E-16
5.360000E+03	1.600334E-14	1.958648E-16
5.370000E+03	1.602597E-14	1.957465E-16
5.380000E+03	1.605933E-14	1.958036E-16
5.390000E+03	1.610144E-14	1.960133E-16
5.400000E+03	1.614987E-14	1.963482E-16
5.410000E+03	1.620276E-14	1.967873E-16
5.420000E+03	1.625844E-14	1.973111E-16
5.430000E+03	1.631609E-14	1.979091E-16
5.440000E+03	1.637647E-14	1.985901E-16
5.450000E+03	1.643979E-14	1.993560E-16
5.460000E+03	1.650557E-14	2.001999E-16
5.470000E+03	1.657433E-14	2.011274E-16
5.480000E+03	1.664559E-14	2.021316E-16
5.490000E+03	1.671863E-14	2.032028E-16
5.500000E+03	1.679255E-14	2.043292E-16
5.510000E+03	1.686610E-14	2.054943E-16
5.520000E+03	1.693774E-14	2.066785E-16
5.530000E+03	1.700623E-14	2.078654E-16
5.540000E+03	1.706996E-14	2.090337E-16
5.550000E+03	1.712788E-14	2.101691E-16
5.560000E+03	1.717892E-14	2.112569E-16
5.570000E+03	1.722199E-14	2.122818E-16
5.580000E+03	1.725661E-14	2.132357E-16
5.590000E+03	1.728226E-14	2.141104E-16
5.600000E+03	1.729869E-14	2.149003E-16
5.610000E+03	1.730603E-14	2.156051E-16
5.620000E+03	1.730448E-14	2.162246E-16
5.630000E+03	1.729442E-14	2.167616E-16
5.640000E+03	1.727664E-14	2.172235E-16
5.650000E+03	1.725190E-14	2.176178E-16
5.660000E+03	1.722129E-14	2.179563E-16
5.670000E+03	1.718581E-14	2.182497E-16
5.680000E+03	1.714646E-14	2.185090E-16
5.690000E+03	1.710440E-14	2.187473E-16
5.700000E+03	1.706043E-14	2.189738E-16
5.710000E+03	1.701521E-14	2.191954E-16
5.720000E+03	1.696931E-14	2.194187E-16
5.730000E+03	1.692289E-14	2.196449E-16
5.740000E+03	1.687601E-14	2.198738E-16
5.750000E+03	1.682814E-14	2.200978E-16
5.760000E+03	1.677903E-14	2.203128E-16
5.770000E+03	1.672765E-14	2.205048E-16
5.780000E+03	1.667298E-14	2.206589E-16
5.790000E+03	1.661410E-14	2.207626E-16
5.800000E+03	1.654926E-14	2.207912E-16
5.810000E+03	1.647727E-14	2.207275E-16
5.820000E+03	1.639650E-14	2.205480E-16
5.830000E+03	1.630523E-14	2.202283E-16
5.840000E+03	1.620159E-14	2.197406E-16
5.850000E+03	1.608428E-14	2.190652E-16
5.860000E+03	1.595163E-14	2.181767E-16
5.870000E+03	1.580257E-14	2.170578E-16
5.880000E+03	1.563615E-14	2.156924E-16
5.890000E+03	1.545168E-14	2.140677E-16
5.900000E+03	1.524923E-14	2.121814E-16
5.910000E+03	1.502933E-14	2.100376E-16
5.920000E+03	1.479242E-14	2.076392E-16
5.930000E+03	1.453982E-14	2.050015E-16
5.940000E+03	1.427299E-14	2.021420E-16
5.950000E+03	1.399388E-14	1.990857E-16
5.960000E+03	1.370418E-14	1.958540E-16
5.970000E+03	1.340642E-14	1.924810E-16
5.980000E+03	1.310262E-14	1.889941E-16
5.990000E+03	1.279535E-14	1.854287E-16
6.000000E+03	1.248702E-14	1.818190E-16
6.010000E+03	1.217987E-14	1.781970E-16
6.020000E+03	1.187632E-14	1.745982E-16
6.030000E+03	1.157824E-14	1.710505E-16
6.040000E+03	1.128788E-14	1.675881E-16
6.050000E+03	1.100661E-14	1.642323E-16
6.060000E+03	1.073623E-14	1.610120E-16
6.070000E+03	1.047780E-14	1.579448E-16
6.080000E+03	1.023252E-14	1.550513E-16
6.090000E+03	1.000095E-14	1.523427E-16
6.100000E+03	9.783702E-15	1.498308E-16
6.110000E+03	9.581007E-15	1.475225E-16
6.120000E+03	9.393028E-15	1.454234E-16
6.130000E+03	9.219491E-15	1.435324E-16
6.140000E+03	9.060049E-15	1.418476E-16
6.150000E+03	8.914327E-15	1.403663E-16
6.160000E+03	8.781666E-15	1.390806E-16
6.170000E+03	8.661089E-15	1.379774E-16
6.180000E+03	8.551813E-15	1.370461E-16
6.190000E+03	8.452852E-15	1.362729E-16
6.200000E+03	8.363260E-15	1.356443E-16
6.210000E+03	8.282124E-15	1.351472E-16
6.220000E+03	8.208489E-15	1.347675E-16
6.230000E+03	8.141478E-15	1.344919E-16
6.240000E+03	8.080409E-15	1.343103E-16
6.250000E+03	8.024297E-15	1.342073E-16
6.260000E+03	7.972079E-15	1.341656E-16
6.270000E+03	7.923142E-15	1.341755E-16
6.280000E+03	7.876616E-15	1.342223E-16
6.290000E+03	7.831489E-15	1.342889E-16
6.300000E+03	7.787345E-15	1.343677E-16
6.310000E+03	7.743233E-15	1.344421E-16
6.320000E+03	7.698823E-15	1.345055E-16
6.330000E+03	7.653482E-15	1.345463E-16
6.340000E+03	7.606906E-15	1.345580E-16
6.350000E+03	7.558822E-15	1.345350E-16
6.360000E+03	7.509105E-15	1.344738E-16
6.370000E+03	7.457783E-15	1.343741E-16
6.380000E+03	7.404938E-15	1.342361E-16
6.390000E+03	7.350797E-15	1.340632E-16
6.400000E+03	7.295882E-15	1.338639E-16
6.410000E+03	7.240169E-15	1.336373E-16
6.420000E+03	7.183400E-15	1.333777E-16
6.430000E+03	7.125058E-15	1.330748E-16
6.440000E+03	7.064834E-15	1.327221E-16
6.450000E+03	7.002650E-15	1.323169E-16
6.460000E+03	6.938636E-15	1.318608E-16
6.470000E+03	6.872803E-15	1.313533E-16
6.480000E+03	6.805335E-15	1.307969E-16
6.490000E+03	6.736457E-15	1.301952E-16
6.500000E+03	6.666221E-15	1.295487E-16
6.510000E+03	6.595003E-15	1.288639E-16
6.520000E+03	6.522979E-15	1.281440E-16
6.530000E+03	6.450229E-15	1.273901E-16
6.540000E+03	6.377131E-15	1.266093E-16
6.550000E+03	6.303755E-15	1.258029E-16
6.560000E+03	6.230167E-15	1.249719E-16
6.570000E+03	6.156723E-15	1.241236E-16
6.580000E+03	6.083477E-15	1.232588E-16
6.590000E+03	6.010573E-15	1.223808E-16
6.600000E+03	5.938251E-15	1.214944E-16
6.610000E+03	5.866449E-15	1.205985E-16
6.620000E+03	5.795305E-15	1.196962E-16
6.630000E+03	5.725133E-15	1.187943E-16
6.640000E+03	5.655869E-15	1.178917E-16
6.650000E+03	5.587634E-15	1.169913E-16
6.660000E+03	5.520634E-15	1.160978E-16
6.670000E+03	5.454889E-15	1.152120E-16
6.680000E+03	5.390502E-15	1.143365E-16
6.690000E+03	5.327663E-15	1.134760E-16
6.700000E+03	5.266283E-15	1.126290E-16
6.710000E+03	5.206444E-15	1.117977E-16
6.720000E+03	5.148403E-15	1.109882E-16
6.730000E+03	5.092044E-15	1.101985E-16
6.740000E+03	5.037425E-15	1.094306E-16
6.750000E+03	4.984679E-15	1.086878E-16
6.760000E+03	4.933750E-15	1.079695E-16
6.770000E+03	4.884664E-15	1.072769E-16
6.780000E+03	4.837432E-15	1.066106E-16
6.790000E+03	4.792054E-15	1.059714E-16
6.800000E+03	4.748433E-15	1.053575E-16
6.810000E+03	4.706637E-15	1.047711E-16
6.820000E+03	4.666634E-15	1.042119E-16
6.830000E+03	4.628297E-15	1.036776E-16
6.840000E+03	4.591664E-15	1.031695E-16
6.850000E+03	4.556592E-15	1.026849E-16
6.860000E+03	4.523018E-15	1.022228E-16
6.870000E+03	4.490873E-15	1.017819E-16
6.880000E+03	4.459999E-15	1.013593E-16
6.890000E+03	4.430485E-15	1.009571E-16
6.900000E+03	4.402165E-15	1.005720E-16
6.910000E+03	4.374873E-15	1.002005E-16
6.920000E+03	4.348611E-15	9.984289E-17
6.930000E+03	4.323212E-15	9.949569E-17
6.940000E+03	4.298592E-15	9.915722E-17
6.950000E+03	4.274755E-15	9.882777E-17
6.960000E+03	4.251541E-15	9.850387E-17
6.970000E+03	4.228875E-15	9.818402E-17
6.980000E+03	4.206687E-15	9.786677E-17
6.990000E+03	4.184913E-15	9.755080E-17
7.000000E+03	4.163409E-15	9.723294E-17
7.010000E+03	4.142283E-15	9.691586E-17
7.020000E+03	4.121323E-15	9.659479E-17
7.030000E+03	4.100484E-15	9.626879E-17
7.040000E+03	4.079808E-15	9.593902E-17
7.050000E+03	4.059183E-15	9.560294E-17
7.060000E+03	4.038581E-15	9.526009E-17
7.070000E+03	4.017982E-15	9.491010E-17
7.080000E+03	3.997370E-15	9.455274E-17
7.090000E+03	3.976816E-15	9.418981E-17
7.100000E+03	3.956155E-15	9.381759E-17
7.110000E+03	3.935388E-15	9.343624E-17
7.120000E+03	3.914603E-15	9.304795E-17
7.130000E+03	3.893810E-15	9.265313E-17
7.140000E+03	3.872946E-15	9.225046E-17
7.150000E+03	3.852112E-15	9.184246E-17
7.160000E+03	3.831176E-15	9.142614E-17
7.170000E+03	3.810325E-15	9.100616E-17
7.180000E+03	3.789515E-15	9.058164E-17
7.190000E+03	3.768786E-15	9.015368E-17
7.200000E+03	3.748102E-15	8.972158E-17
7.210000E+03	3.727667E-15	8.929040E-17
7.220000E+03	3.707375E-15	8.885782E-17
7.230000E+03	3.687358E-15	8.842714E-17
7.240000E+03	3.667597E-15	8.799814E-17
7.250000E+03	3.648231E-15	8.757428E-17
7.260000E+03	3.629246E-15	8.715545E-17
7.270000E+03	3.610712E-15	8.674349E-17
7.280000E+03	3.592772E-15	8.634206E-17
7.290000E+03	3.575423E-15	8.595124E-17
7.300000E+03	3.558814E-15	8.557482E-17
7.310000E+03	3.542866E-15	8.521110E-17
7.320000E+03	3.527732E-15	8.486391E-17
7.330000E+03	3.513560E-15	8.453703E-17
7.340000E+03	3.500271E-15	8.422873E-17
7.350000E+03	3.488011E-15	8.394272E-17
7.360000E+03	3.476772E-15	8.367896E-17
7.370000E+03	3.466692E-15	8.344098E-17
7.380000E+03	3.457750E-15	8.322845E-17
7.390000E+03	3.449998E-15	8.304280E-17
7.400000E+03	3.443477E-15	8.288515E-17
7.410000E+03	3.438140E-15	8.275462E-17
7.420000E+03	3.434009E-15	8.265188E-17
7.430000E+03	3.431091E-15	8.257725E-17
7.440000E+03	3.429380E-15	8.253078E-17
7.450000E+03	3.428930E-15	8.251399E-17
7.460000E+03	3.429629E-15	8.252431E-17
7.470000E+03	3.431577E-15	8.256436E-17
7.480000E+03	3.434704E-15	8.263266E-17
7.490000E+03	3.438924E-15	8.272731E-17
7.500000E+03	3.444132E-15	8.284598E-17
7.510000E+03	3.450205E-15	8.298593E-17
7.520000E+03	3.457158E-15	8.314775E-17
7.530000E+03	3.464678E-15	8.332411E-17
7.540000E+03	3.472668E-15	8.351293E-17
7.550000E+03	3.480941E-15	8.370992E-17
7.560000E+03	3.489373E-15	8.391236E-17
7.570000E+03	3.497589E-15	8.411148E-17
7.580000E+03	3.505443E-15	8.430404E-17
7.590000E+03	3.512705E-15	8.448470E-17
7.600000E+03	3.519220E-15	8.465010E-17
7.610000E+03	3.524587E-15	8.479077E-17
7.620000E+03	3.528738E-15	8.490536E-17
7.630000E+03	3.531359E-15	8.498659E-17
7.640000E+03	3.532149E-15	8.502745E-17
7.650000E+03	3.531071E-15	8.502728E-17
7.660000E+03	3.527853E-15	8.497977E-17
7.670000E+03	3.522327E-15	8.488106E-17
7.680000E+03	3.514349E-15	8.472789E-17
7.690000E+03	3.503804E-15	8.451762E-17
7.700000E+03	3.490603E-15	8.424823E-17
7.710000E+03	3.474771E-15	8.392047E-17
7.720000E+03	3.456115E-15	8.352970E-17
7.730000E+03	3.434806E-15	8.308015E-17
7.740000E+03	3.410799E-15	8.257069E-17
7.750000E+03	3.384160E-15	8.200294E-17
7.760000E+03	3.354986E-15	8.137915E-17
