#wls	flux	fluxerr
1.600000E+03	3.110300E-15	3.124903E-16
1.640000E+03	2.503643E-15	2.492586E-16
1.680000E+03	1.991643E-15	1.964580E-16
1.720000E+03	1.566739E-15	1.530997E-16
1.760000E+03	1.219838E-15	1.180704E-16
1.800000E+03	9.413135E-16	9.023565E-17
1.840000E+03	7.212797E-16	6.846995E-17
1.880000E+03	5.501705E-16	5.171263E-17
1.920000E+03	4.188872E-16	3.898107E-17
1.960000E+03	3.195423E-16	2.943751E-17
2.000000E+03	2.452123E-16	2.236114E-17
2.040000E+03	1.902602E-16	1.717300E-17
2.080000E+03	1.502182E-16	1.341963E-17
2.120000E+03	1.218002E-16	1.076872E-17
2.160000E+03	1.027080E-16	8.986752E-18
2.200000E+03	9.129582E-17	7.905371E-18
2.240000E+03	8.657312E-17	7.418613E-18
2.280000E+03	8.818519E-17	7.478215E-18
2.320000E+03	9.651173E-17	8.099094E-18
2.360000E+03	1.127200E-16	9.360468E-18
2.400000E+03	1.388827E-16	1.141198E-17
2.440000E+03	1.779928E-16	1.447096E-17
2.480000E+03	2.336633E-16	1.879408E-17
2.520000E+03	3.093915E-16	2.461597E-17
2.560000E+03	4.072054E-16	3.204280E-17
2.600000E+03	5.260843E-16	4.093536E-17
2.640000E+03	6.612451E-16	5.086717E-17
2.680000E+03	8.050044E-16	6.120658E-17
2.720000E+03	9.491265E-16	7.130640E-17
2.760000E+03	1.086317E-15	8.061803E-17
2.800000E+03	1.210885E-15	8.873672E-17
2.840000E+03	1.319373E-15	9.544061E-17
2.880000E+03	1.409827E-15	1.006289E-16
2.920000E+03	1.481930E-15	1.043250E-16
2.960000E+03	1.536834E-15	1.066572E-16
3.000000E+03	1.576575E-15	1.078114E-16
3.010000E+03	1.584538E-15	1.079479E-16
3.020000E+03	1.591779E-15	1.080291E-16
3.030000E+03	1.598445E-15	1.080657E-16
3.040000E+03	1.604542E-15	1.080583E-16
3.050000E+03	1.610175E-15	1.080144E-16
3.060000E+03	1.615408E-15	1.079386E-16
3.070000E+03	1.620354E-15	1.078388E-16
3.080000E+03	1.625131E-15	1.077228E-16
3.090000E+03	1.629767E-15	1.075927E-16
3.100000E+03	1.634389E-15	1.074569E-16
3.110000E+03	1.639127E-15	1.073239E-16
3.120000E+03	1.644069E-15	1.071993E-16
3.130000E+03	1.649313E-15	1.070893E-16
3.140000E+03	1.655045E-15	1.070055E-16
3.150000E+03	1.661335E-15	1.069521E-16
3.160000E+03	1.668300E-15	1.069361E-16
3.170000E+03	1.676194E-15	1.069730E-16
3.180000E+03	1.685074E-15	1.070657E-16
3.190000E+03	1.695177E-15	1.072282E-16
3.200000E+03	1.706631E-15	1.074676E-16
3.210000E+03	1.719703E-15	1.077993E-16
3.220000E+03	1.734593E-15	1.082345E-16
3.230000E+03	1.751521E-15	1.087850E-16
3.240000E+03	1.770760E-15	1.094660E-16
3.250000E+03	1.792599E-15	1.102931E-16
3.260000E+03	1.817263E-15	1.112777E-16
3.270000E+03	1.845066E-15	1.124364E-16
3.280000E+03	1.876295E-15	1.137835E-16
3.290000E+03	1.911280E-15	1.153360E-16
3.300000E+03	1.950323E-15	1.171082E-16
3.310000E+03	1.993732E-15	1.191148E-16
3.320000E+03	2.041853E-15	1.213723E-16
3.330000E+03	2.094926E-15	1.238902E-16
3.340000E+03	2.153382E-15	1.266892E-16
3.350000E+03	2.217459E-15	1.297780E-16
3.360000E+03	2.287474E-15	1.331696E-16
3.370000E+03	2.363778E-15	1.368784E-16
3.380000E+03	2.446640E-15	1.409138E-16
3.390000E+03	2.536317E-15	1.452838E-16
3.400000E+03	2.633094E-15	1.499980E-16
3.410000E+03	2.737199E-15	1.550620E-16
3.420000E+03	2.848921E-15	1.604848E-16
3.430000E+03	2.968352E-15	1.662637E-16
3.440000E+03	3.095673E-15	1.724007E-16
3.450000E+03	3.230981E-15	1.788931E-16
3.460000E+03	3.374242E-15	1.857306E-16
3.470000E+03	3.525281E-15	1.928953E-16
3.480000E+03	3.683804E-15	2.003629E-16
3.490000E+03	3.849335E-15	2.080996E-16
3.500000E+03	4.021032E-15	2.160525E-16
3.510000E+03	4.197947E-15	2.241640E-16
3.520000E+03	4.378866E-15	2.323639E-16
3.530000E+03	4.562163E-15	2.405615E-16
3.540000E+03	4.746039E-15	2.486594E-16
3.550000E+03	4.928540E-15	2.565547E-16
3.560000E+03	5.107567E-15	2.641392E-16
3.570000E+03	5.280910E-15	2.713023E-16
3.580000E+03	5.446487E-15	2.779430E-16
3.590000E+03	5.602335E-15	2.839690E-16
3.600000E+03	5.746921E-15	2.893126E-16
3.610000E+03	5.878818E-15	2.939137E-16
3.620000E+03	5.997060E-15	2.977369E-16
3.630000E+03	6.101026E-15	3.007655E-16
3.640000E+03	6.190600E-15	3.030085E-16
3.650000E+03	6.266170E-15	3.044996E-16
3.660000E+03	6.328593E-15	3.052948E-16
3.670000E+03	6.379277E-15	3.054752E-16
3.680000E+03	6.420098E-15	3.051425E-16
3.690000E+03	6.453517E-15	3.044234E-16
3.700000E+03	6.482284E-15	3.034543E-16
3.710000E+03	6.509793E-15	3.023983E-16
3.720000E+03	6.539650E-15	3.014227E-16
3.730000E+03	6.575711E-15	3.007015E-16
3.740000E+03	6.622153E-15	3.004175E-16
3.750000E+03	6.683251E-15	3.007518E-16
3.760000E+03	6.763329E-15	3.018813E-16
3.770000E+03	6.866464E-15	3.039657E-16
3.780000E+03	6.996830E-15	3.071628E-16
3.790000E+03	7.158129E-15	3.116034E-16
3.800000E+03	7.353051E-15	3.173694E-16
3.810000E+03	7.583801E-15	3.245174E-16
3.820000E+03	7.851479E-15	3.330541E-16
3.830000E+03	8.155329E-15	3.429061E-16
3.840000E+03	8.492943E-15	3.539322E-16
3.850000E+03	8.860515E-15	3.659373E-16
3.860000E+03	9.252246E-15	3.786499E-16
3.870000E+03	9.660485E-15	3.917325E-16
3.880000E+03	1.007613E-14	4.048005E-16
3.890000E+03	1.048875E-14	4.174306E-16
3.900000E+03	1.088720E-14	4.291865E-16
3.910000E+03	1.125977E-14	4.396273E-16
3.920000E+03	1.159605E-14	4.483802E-16
3.930000E+03	1.188652E-14	4.551223E-16
3.940000E+03	1.212358E-14	4.596179E-16
3.950000E+03	1.230257E-14	4.617534E-16
3.960000E+03	1.242137E-14	4.615167E-16
3.970000E+03	1.248082E-14	4.590086E-16
3.980000E+03	1.248516E-14	4.544511E-16
3.990000E+03	1.244065E-14	4.481335E-16
4.000000E+03	1.235601E-14	4.404230E-16
4.010000E+03	1.224073E-14	4.317006E-16
4.020000E+03	1.210559E-14	4.223785E-16
4.030000E+03	1.196119E-14	4.128459E-16
4.040000E+03	1.181715E-14	4.034425E-16
4.050000E+03	1.168240E-14	3.944706E-16
4.060000E+03	1.156496E-14	3.861884E-16
4.070000E+03	1.147039E-14	3.787612E-16
4.080000E+03	1.140335E-14	3.723170E-16
4.090000E+03	1.136707E-14	3.669302E-16
4.100000E+03	1.136260E-14	3.626019E-16
4.110000E+03	1.138988E-14	3.592967E-16
4.120000E+03	1.144779E-14	3.569460E-16
4.130000E+03	1.153306E-14	3.554182E-16
4.140000E+03	1.164121E-14	3.545491E-16
4.150000E+03	1.176712E-14	3.541621E-16
4.160000E+03	1.190434E-14	3.540497E-16
4.170000E+03	1.204570E-14	3.539915E-16
4.180000E+03	1.218397E-14	3.537766E-16
4.190000E+03	1.231136E-14	3.531887E-16
4.200000E+03	1.242055E-14	3.520345E-16
4.210000E+03	1.250459E-14	3.501420E-16
4.220000E+03	1.255698E-14	3.473606E-16
4.230000E+03	1.257228E-14	3.435769E-16
4.240000E+03	1.254626E-14	3.387166E-16
4.250000E+03	1.247568E-14	3.327373E-16
4.260000E+03	1.235920E-14	3.256487E-16
4.270000E+03	1.219695E-14	3.175001E-16
4.280000E+03	1.199081E-14	3.083842E-16
4.290000E+03	1.174493E-14	2.984475E-16
4.300000E+03	1.146492E-14	2.878665E-16
4.310000E+03	1.115853E-14	2.768628E-16
4.320000E+03	1.083505E-14	2.656852E-16
4.330000E+03	1.050478E-14	2.545957E-16
4.340000E+03	1.017891E-14	2.438646E-16
4.350000E+03	9.869170E-15	2.337626E-16
4.360000E+03	9.586939E-15	2.245393E-16
4.370000E+03	9.342908E-15	2.164173E-16
4.380000E+03	9.147672E-15	2.096068E-16
4.390000E+03	9.011052E-15	2.042920E-16
4.400000E+03	8.939129E-15	2.005656E-16
4.410000E+03	8.937656E-15	1.985104E-16
4.420000E+03	9.011474E-15	1.981872E-16
4.430000E+03	9.161515E-15	1.995710E-16
4.440000E+03	9.387643E-15	2.026172E-16
4.450000E+03	9.688869E-15	2.072669E-16
4.460000E+03	1.006045E-14	2.133868E-16
4.470000E+03	1.049650E-14	2.208271E-16
4.480000E+03	1.099109E-14	2.294453E-16
4.490000E+03	1.153754E-14	2.390877E-16
4.500000E+03	1.212992E-14	2.496204E-16
4.510000E+03	1.276161E-14	2.609007E-16
4.520000E+03	1.342368E-14	2.727429E-16
4.530000E+03	1.410383E-14	2.848985E-16
4.540000E+03	1.478705E-14	2.970704E-16
4.550000E+03	1.545518E-14	3.089047E-16
4.560000E+03	1.608777E-14	3.200073E-16
4.570000E+03	1.666228E-14	3.299483E-16
4.580000E+03	1.715685E-14	3.383162E-16
4.590000E+03	1.755089E-14	3.447284E-16
4.600000E+03	1.782617E-14	3.488507E-16
4.610000E+03	1.797022E-14	3.504621E-16
4.620000E+03	1.797601E-14	3.494474E-16
4.630000E+03	1.784236E-14	3.458021E-16
4.640000E+03	1.757587E-14	3.396697E-16
4.650000E+03	1.718844E-14	3.312914E-16
4.660000E+03	1.669663E-14	3.209943E-16
4.670000E+03	1.612026E-14	3.091635E-16
4.680000E+03	1.548094E-14	2.962138E-16
4.690000E+03	1.480058E-14	2.825630E-16
4.700000E+03	1.410060E-14	2.686155E-16
4.710000E+03	1.340029E-14	2.547335E-16
4.720000E+03	1.271663E-14	2.412321E-16
4.730000E+03	1.206307E-14	2.283593E-16
4.740000E+03	1.145054E-14	2.163135E-16
4.750000E+03	1.088711E-14	2.052388E-16
4.760000E+03	1.037766E-14	1.952188E-16
4.770000E+03	9.925277E-15	1.863028E-16
4.780000E+03	9.531413E-15	1.785100E-16
4.790000E+03	9.196006E-15	1.718307E-16
4.800000E+03	8.918144E-15	1.662396E-16
4.810000E+03	8.696400E-15	1.617020E-16
4.820000E+03	8.527787E-15	1.581540E-16
4.830000E+03	8.409313E-15	1.555320E-16
4.840000E+03	8.337423E-15	1.537622E-16
4.850000E+03	8.307440E-15	1.527505E-16
4.860000E+03	8.314213E-15	1.523944E-16
4.870000E+03	8.351790E-15	1.525777E-16
4.880000E+03	8.411966E-15	1.531443E-16
4.890000E+03	8.485506E-15	1.539208E-16
4.900000E+03	8.562954E-15	1.547324E-16
4.910000E+03	8.635003E-15	1.554094E-16
4.920000E+03	8.692756E-15	1.557924E-16
4.930000E+03	8.728526E-15	1.557464E-16
4.940000E+03	8.738829E-15	1.552141E-16
4.950000E+03	8.722171E-15	1.541751E-16
4.960000E+03	8.679241E-15	1.526485E-16
4.970000E+03	8.614723E-15	1.507238E-16
4.980000E+03	8.534773E-15	1.485147E-16
4.990000E+03	8.447135E-15	1.461607E-16
5.000000E+03	8.360052E-15	1.438073E-16
5.010000E+03	8.282417E-15	1.416075E-16
5.020000E+03	8.222622E-15	1.397023E-16
5.030000E+03	8.187701E-15	1.382062E-16
5.040000E+03	8.183909E-15	1.372168E-16
5.050000E+03	8.217321E-15	1.368259E-16
5.060000E+03	8.292054E-15	1.370896E-16
5.070000E+03	8.412181E-15	1.380606E-16
5.080000E+03	8.581400E-15	1.397835E-16
5.090000E+03	8.802378E-15	1.422839E-16
5.100000E+03	9.077732E-15	1.455849E-16
5.110000E+03	9.409444E-15	1.496979E-16
5.120000E+03	9.798206E-15	1.546131E-16
5.130000E+03	1.024345E-14	1.603005E-16
5.140000E+03	1.074337E-14	1.667116E-16
5.150000E+03	1.129329E-14	1.737551E-16
5.160000E+03	1.188610E-14	1.813056E-16
5.170000E+03	1.251169E-14	1.891976E-16
5.180000E+03	1.315748E-14	1.972341E-16
5.190000E+03	1.380788E-14	2.051823E-16
5.200000E+03	1.444462E-14	2.127787E-16
5.210000E+03	1.505012E-14	2.197807E-16
5.220000E+03	1.560611E-14	2.259458E-16
5.230000E+03	1.609484E-14	2.310490E-16
5.240000E+03	1.650239E-14	2.349287E-16
5.250000E+03	1.681810E-14	2.374757E-16
5.260000E+03	1.703397E-14	2.386218E-16
5.270000E+03	1.714764E-14	2.383795E-16
5.280000E+03	1.716037E-14	2.368100E-16
5.290000E+03	1.707608E-14	2.340071E-16
5.300000E+03	1.690186E-14	2.301036E-16
5.310000E+03	1.664655E-14	2.252491E-16
5.320000E+03	1.632111E-14	2.196150E-16
5.330000E+03	1.593624E-14	2.133622E-16
5.340000E+03	1.550390E-14	2.066612E-16
5.350000E+03	1.503744E-14	1.996947E-16
5.360000E+03	1.455035E-14	1.926410E-16
5.370000E+03	1.405691E-14	1.856841E-16
5.380000E+03	1.357185E-14	1.790103E-16
5.390000E+03	1.311186E-14	1.728267E-16
5.400000E+03	1.269183E-14	1.673099E-16
5.410000E+03	1.232332E-14	1.625939E-16
5.420000E+03	1.201472E-14	1.587744E-16
5.430000E+03	1.176515E-14	1.558286E-16
5.440000E+03	1.156522E-14	1.536244E-16
5.450000E+03	1.140307E-14	1.519979E-16
5.460000E+03	1.126618E-14	1.507767E-16
5.470000E+03	1.114256E-14	1.497945E-16
5.480000E+03	1.102204E-14	1.489076E-16
5.490000E+03	1.089627E-14	1.479948E-16
5.500000E+03	1.075849E-14	1.469545E-16
5.510000E+03	1.060406E-14	1.457122E-16
5.520000E+03	1.043029E-14	1.442194E-16
5.530000E+03	1.023607E-14	1.424480E-16
5.540000E+03	1.002183E-14	1.403916E-16
5.550000E+03	9.789382E-15	1.380635E-16
5.560000E+03	9.541177E-15	1.354874E-16
5.570000E+03	9.280549E-15	1.327007E-16
5.580000E+03	9.011286E-15	1.297491E-16
5.590000E+03	8.737157E-15	1.266805E-16
5.600000E+03	8.462134E-15	1.235474E-16
5.610000E+03	8.190326E-15	1.204067E-16
5.620000E+03	7.925383E-15	1.173108E-16
5.630000E+03	7.670914E-15	1.143134E-16
5.640000E+03	7.430457E-15	1.114690E-16
5.650000E+03	7.206952E-15	1.088249E-16
5.660000E+03	7.003516E-15	1.064324E-16
5.670000E+03	6.822884E-15	1.043386E-16
5.680000E+03	6.667492E-15	1.025869E-16
5.690000E+03	6.539608E-15	1.012193E-16
5.700000E+03	6.441465E-15	1.002777E-16
5.710000E+03	6.374739E-15	9.979614E-17
5.720000E+03	6.341038E-15	9.980776E-17
5.730000E+03	6.341633E-15	1.003407E-16
5.740000E+03	6.377737E-15	1.014222E-16
5.750000E+03	6.449862E-15	1.030682E-16
5.760000E+03	6.558221E-15	1.052897E-16
5.770000E+03	6.702813E-15	1.080935E-16
5.780000E+03	6.882454E-15	1.114672E-16
5.790000E+03	7.095353E-15	1.153873E-16
5.800000E+03	7.338901E-15	1.198163E-16
5.810000E+03	7.609133E-15	1.246934E-16
5.820000E+03	7.900778E-15	1.299349E-16
5.830000E+03	8.207724E-15	1.354420E-16
5.840000E+03	8.522767E-15	1.410964E-16
5.850000E+03	8.837774E-15	1.467628E-16
5.860000E+03	9.143860E-15	1.522919E-16
5.870000E+03	9.432367E-15	1.575371E-16
5.880000E+03	9.694343E-15	1.623454E-16
5.890000E+03	9.920925E-15	1.665646E-16
5.900000E+03	1.010434E-14	1.700598E-16
5.910000E+03	1.023760E-14	1.727087E-16
5.920000E+03	1.031489E-14	1.744087E-16
5.930000E+03	1.033157E-14	1.750764E-16
5.940000E+03	1.028477E-14	1.746592E-16
5.950000E+03	1.017347E-14	1.731348E-16
5.960000E+03	9.998318E-15	1.705104E-16
5.970000E+03	9.762144E-15	1.668304E-16
5.980000E+03	9.469754E-15	1.621733E-16
5.990000E+03	9.127955E-15	1.566525E-16
6.000000E+03	8.745298E-15	1.504117E-16
6.010000E+03	8.331346E-15	1.436130E-16
6.020000E+03	7.897360E-15	1.364484E-16
6.030000E+03	7.454680E-15	1.291125E-16
6.040000E+03	7.014202E-15	1.217935E-16
6.050000E+03	6.586816E-15	1.146806E-16
6.060000E+03	6.182282E-15	1.079452E-16
6.070000E+03	5.808313E-15	1.017241E-16
6.080000E+03	5.471749E-15	9.614085E-17
6.090000E+03	5.177845E-15	9.129266E-17
6.100000E+03	4.929639E-15	8.723939E-17
6.110000E+03	4.728111E-15	8.400590E-17
6.120000E+03	4.573257E-15	8.160076E-17
6.130000E+03	4.464401E-15	8.002174E-17
6.140000E+03	4.398717E-15	7.922895E-17
6.150000E+03	4.373250E-15	7.918068E-17
6.160000E+03	4.385102E-15	7.983657E-17
6.170000E+03	4.430615E-15	8.114269E-17
6.180000E+03	4.505822E-15	8.303935E-17
6.190000E+03	4.606518E-15	8.546200E-17
6.200000E+03	4.727833E-15	8.833207E-17
6.210000E+03	4.863941E-15	9.154994E-17
6.220000E+03	5.008937E-15	9.501154E-17
6.230000E+03	5.156730E-15	9.860614E-17
6.240000E+03	5.301197E-15	1.022186E-16
6.250000E+03	5.436117E-15	1.057277E-16
6.260000E+03	5.556428E-15	1.090303E-16
6.270000E+03	5.657548E-15	1.120287E-16
6.280000E+03	5.735996E-15	1.146429E-16
6.290000E+03	5.789588E-15	1.168158E-16
6.300000E+03	5.817478E-15	1.185151E-16
6.310000E+03	5.819905E-15	1.197291E-16
6.320000E+03	5.798770E-15	1.204803E-16
6.330000E+03	5.757048E-15	1.208146E-16
6.340000E+03	5.698385E-15	1.207942E-16
6.350000E+03	5.627515E-15	1.205072E-16
6.360000E+03	5.549261E-15	1.200476E-16
6.370000E+03	5.468926E-15	1.195243E-16
6.380000E+03	5.391719E-15	1.190485E-16
6.390000E+03	5.322223E-15	1.187224E-16
6.400000E+03	5.264104E-15	1.186321E-16
6.410000E+03	5.219078E-15	1.188227E-16
6.420000E+03	5.187150E-15	1.193017E-16
6.430000E+03	5.166424E-15	1.200327E-16
6.440000E+03	5.154944E-15	1.209764E-16
6.450000E+03	5.150243E-15	1.220796E-16
6.460000E+03	5.150226E-15	1.232956E-16
6.470000E+03	5.152863E-15	1.245775E-16
6.480000E+03	5.156361E-15	1.258824E-16
6.490000E+03	5.159137E-15	1.271706E-16
6.500000E+03	5.159705E-15	1.284038E-16
6.510000E+03	5.156683E-15	1.295445E-16
6.520000E+03	5.149071E-15	1.305639E-16
6.530000E+03	5.135577E-15	1.314247E-16
6.540000E+03	5.115263E-15	1.320977E-16
6.550000E+03	5.087178E-15	1.325525E-16
6.560000E+03	5.050543E-15	1.327625E-16
6.570000E+03	5.004827E-15	1.327070E-16
6.580000E+03	4.949477E-15	1.323646E-16
6.590000E+03	4.884336E-15	1.317238E-16
6.600000E+03	4.809577E-15	1.307824E-16
6.610000E+03	4.725574E-15	1.295440E-16
6.620000E+03	4.632883E-15	1.280178E-16
6.630000E+03	4.532613E-15	1.262290E-16
6.640000E+03	4.425794E-15	1.242016E-16
6.650000E+03	4.313962E-15	1.219753E-16
6.660000E+03	4.198416E-15	1.195843E-16
6.670000E+03	4.080910E-15	1.170770E-16
6.680000E+03	3.962852E-15	1.144934E-16
6.690000E+03	3.845784E-15	1.118788E-16
6.700000E+03	3.730948E-15	1.092709E-16
6.710000E+03	3.619718E-15	1.067122E-16
6.720000E+03	3.512944E-15	1.042308E-16
6.730000E+03	3.411600E-15	1.018591E-16
6.740000E+03	3.316327E-15	9.962012E-17
6.750000E+03	3.227492E-15	9.752905E-17
6.760000E+03	3.145531E-15	9.560336E-17
6.770000E+03	3.070555E-15	9.385068E-17
6.780000E+03	3.002651E-15	9.227792E-17
6.790000E+03	2.941642E-15	9.088374E-17
6.800000E+03	2.887436E-15	8.966924E-17
6.810000E+03	2.839749E-15	8.862920E-17
6.820000E+03	2.798166E-15	8.775409E-17
6.830000E+03	2.762236E-15	8.703282E-17
6.840000E+03	2.731449E-15	8.645200E-17
6.850000E+03	2.705339E-15	8.599926E-17
6.860000E+03	2.683166E-15	8.565316E-17
6.870000E+03	2.664404E-15	8.539851E-17
6.880000E+03	2.648424E-15	8.521655E-17
6.890000E+03	2.634577E-15	8.508742E-17
6.900000E+03	2.622327E-15	8.499462E-17
6.910000E+03	2.611132E-15	8.492110E-17
6.920000E+03	2.600488E-15	8.485080E-17
6.930000E+03	2.590044E-15	8.477246E-17
6.940000E+03	2.579471E-15	8.467543E-17
6.950000E+03	2.568501E-15	8.455089E-17
6.960000E+03	2.557078E-15	8.439690E-17
6.970000E+03	2.545026E-15	8.420768E-17
6.980000E+03	2.532435E-15	8.398612E-17
6.990000E+03	2.519261E-15	8.373073E-17
7.000000E+03	2.505686E-15	8.344762E-17
7.010000E+03	2.491734E-15	8.313762E-17
7.020000E+03	2.477633E-15	8.280845E-17
7.030000E+03	2.463480E-15	8.246347E-17
7.040000E+03	2.449392E-15	8.210679E-17
7.050000E+03	2.435528E-15	8.174390E-17
7.060000E+03	2.421932E-15	8.137649E-17
7.070000E+03	2.408651E-15	8.100633E-17
7.080000E+03	2.395758E-15	8.063610E-17
7.090000E+03	2.383265E-15	8.026642E-17
7.100000E+03	2.371108E-15	7.989532E-17
7.110000E+03	2.359307E-15	7.952368E-17
7.120000E+03	2.347835E-15	7.915075E-17
7.130000E+03	2.336639E-15	7.877491E-17
7.140000E+03	2.325622E-15	7.839312E-17
7.150000E+03	2.314838E-15	7.800730E-17
7.160000E+03	2.304186E-15	7.761428E-17
7.170000E+03	2.293621E-15	7.721268E-17
7.180000E+03	2.283152E-15	7.680301E-17
7.190000E+03	2.272685E-15	7.638224E-17
7.200000E+03	2.262173E-15	7.594901E-17
7.210000E+03	2.251660E-15	7.550502E-17
7.220000E+03	2.240957E-15	7.504409E-17
7.230000E+03	2.230139E-15	7.456901E-17
7.240000E+03	2.219088E-15	7.407603E-17
7.250000E+03	2.207653E-15	7.356037E-17
7.260000E+03	2.195756E-15	7.301980E-17
7.270000E+03	2.183306E-15	7.245159E-17
7.280000E+03	2.170098E-15	7.184931E-17
7.290000E+03	2.155914E-15	7.120625E-17
7.300000E+03	2.140683E-15	7.052055E-17
7.310000E+03	2.124218E-15	6.978669E-17
7.320000E+03	2.106399E-15	6.900137E-17
7.330000E+03	2.087183E-15	6.816391E-17
7.340000E+03	2.066408E-15	6.726988E-17
7.350000E+03	2.044228E-15	6.632516E-17
7.360000E+03	2.020624E-15	6.532996E-17
7.370000E+03	1.995747E-15	6.429014E-17
7.380000E+03	1.969799E-15	6.321307E-17
7.390000E+03	1.942965E-15	6.210555E-17
7.400000E+03	1.915516E-15	6.097703E-17
7.410000E+03	1.887737E-15	5.983731E-17
7.420000E+03	1.859871E-15	5.869464E-17
7.430000E+03	1.832186E-15	5.755806E-17
7.440000E+03	1.804894E-15	5.643456E-17
7.450000E+03	1.778341E-15	5.533525E-17
7.460000E+03	1.752602E-15	5.426262E-17
7.470000E+03	1.727883E-15	5.322312E-17
7.480000E+03	1.704277E-15	5.221956E-17
7.490000E+03	1.681855E-15	5.125404E-17
7.500000E+03	1.660588E-15	5.032549E-17
7.510000E+03	1.640501E-15	4.943455E-17
7.520000E+03	1.621574E-15	4.858044E-17
7.530000E+03	1.603663E-15	4.775864E-17
7.540000E+03	1.586811E-15	4.697033E-17
7.550000E+03	1.570844E-15	4.621015E-17
7.560000E+03	1.555671E-15	4.547541E-17
7.570000E+03	1.541293E-15	4.476604E-17
7.580000E+03	1.527561E-15	4.407772E-17
7.590000E+03	1.514427E-15	4.340908E-17
7.600000E+03	1.501939E-15	4.276153E-17
7.610000E+03	1.490024E-15	4.213303E-17
7.620000E+03	1.478708E-15	4.152436E-17
7.630000E+03	1.468075E-15	4.093796E-17
7.640000E+03	1.458193E-15	4.037565E-17
7.650000E+03	1.449114E-15	3.983886E-17
7.660000E+03	1.440973E-15	3.933121E-17
7.670000E+03	1.433859E-15	3.885502E-17
7.680000E+03	1.427804E-15	3.841093E-17
7.690000E+03	1.423019E-15	3.800444E-17
7.700000E+03	1.419451E-15	3.763387E-17
7.710000E+03	1.417271E-15	3.730350E-17
7.720000E+03	1.416434E-15	3.701187E-17
7.730000E+03	1.417077E-15	3.676229E-17
7.740000E+03	1.419159E-15	3.655349E-17
7.750000E+03	1.422727E-15	3.638642E-17
7.760000E+03	1.427865E-15	3.626310E-17
