#wls	flux	fluxerr
1.600000E+03	2.879258E-15	1.763363E-16
1.640000E+03	2.391976E-15	1.447619E-16
1.680000E+03	1.962428E-15	1.173435E-16
1.720000E+03	1.590414E-15	9.394640E-17
1.760000E+03	1.273730E-15	7.431826E-17
1.800000E+03	1.009055E-15	5.814753E-17
1.840000E+03	7.920114E-16	4.507184E-17
1.880000E+03	6.172154E-16	3.468451E-17
1.920000E+03	4.790187E-16	2.657996E-17
1.960000E+03	3.715714E-16	2.035806E-17
2.000000E+03	2.893733E-16	1.565476E-17
2.040000E+03	2.272875E-16	1.214150E-17
2.080000E+03	1.810384E-16	9.550058E-18
2.120000E+03	1.475055E-16	7.684705E-18
2.160000E+03	1.248383E-16	6.424107E-18
2.200000E+03	1.115969E-16	5.673388E-18
2.240000E+03	1.069096E-16	5.370702E-18
2.280000E+03	1.106960E-16	5.496515E-18
2.320000E+03	1.238285E-16	6.079311E-18
2.360000E+03	1.483510E-16	7.203625E-18
2.400000E+03	1.877687E-16	9.021003E-18
2.440000E+03	2.470946E-16	1.174889E-17
2.480000E+03	3.324153E-16	1.564703E-17
2.520000E+03	4.496819E-16	2.095916E-17
2.560000E+03	6.024344E-16	2.780860E-17
2.600000E+03	7.888167E-16	3.606725E-17
2.640000E+03	1.000091E-15	4.529947E-17
2.680000E+03	1.224127E-15	5.493245E-17
2.720000E+03	1.450064E-15	6.446930E-17
2.760000E+03	1.669303E-15	7.352957E-17
2.800000E+03	1.875748E-15	8.185464E-17
2.840000E+03	2.065236E-15	8.927816E-17
2.880000E+03	2.234308E-15	9.566974E-17
2.920000E+03	2.380362E-15	1.009403E-16
2.960000E+03	2.501798E-15	1.050471E-16
3.000000E+03	2.598793E-15	1.080239E-16
3.010000E+03	2.619394E-15	1.086018E-16
3.020000E+03	2.638642E-15	1.091183E-16
3.030000E+03	2.656651E-15	1.095786E-16
3.040000E+03	2.673479E-15	1.099854E-16
3.050000E+03	2.689196E-15	1.103418E-16
3.060000E+03	2.704022E-15	1.106573E-16
3.070000E+03	2.717923E-15	1.109306E-16
3.080000E+03	2.731149E-15	1.111721E-16
3.090000E+03	2.743832E-15	1.113874E-16
3.100000E+03	2.756186E-15	1.115854E-16
3.110000E+03	2.768378E-15	1.117727E-16
3.120000E+03	2.780656E-15	1.119595E-16
3.130000E+03	2.793223E-15	1.121537E-16
3.140000E+03	2.806301E-15	1.123642E-16
3.150000E+03	2.820196E-15	1.126030E-16
3.160000E+03	2.835227E-15	1.128823E-16
3.170000E+03	2.851673E-15	1.132130E-16
3.180000E+03	2.869831E-15	1.136062E-16
3.190000E+03	2.890077E-15	1.140761E-16
3.200000E+03	2.912802E-15	1.146374E-16
3.210000E+03	2.938357E-15	1.153028E-16
3.220000E+03	2.967109E-15	1.160859E-16
3.230000E+03	2.999441E-15	1.170002E-16
3.240000E+03	3.035863E-15	1.180643E-16
3.250000E+03	3.076787E-15	1.192927E-16
3.260000E+03	3.122637E-15	1.207001E-16
3.270000E+03	3.173850E-15	1.223013E-16
3.280000E+03	3.230927E-15	1.241136E-16
3.290000E+03	3.294271E-15	1.261502E-16
3.300000E+03	3.364512E-15	1.284326E-16
3.310000E+03	3.442008E-15	1.309719E-16
3.320000E+03	3.527230E-15	1.337830E-16
3.330000E+03	3.620762E-15	1.368851E-16
3.340000E+03	3.723011E-15	1.402901E-16
3.350000E+03	3.834427E-15	1.440114E-16
3.360000E+03	3.955438E-15	1.480614E-16
3.370000E+03	4.086440E-15	1.524510E-16
3.380000E+03	4.227777E-15	1.571889E-16
3.390000E+03	4.379674E-15	1.622792E-16
3.400000E+03	4.542447E-15	1.677291E-16
3.410000E+03	4.715996E-15	1.735304E-16
3.420000E+03	4.900259E-15	1.796763E-16
3.430000E+03	5.095070E-15	1.861561E-16
3.440000E+03	5.299863E-15	1.929446E-16
3.450000E+03	5.513838E-15	2.000084E-16
3.460000E+03	5.736166E-15	2.073135E-16
3.470000E+03	5.965605E-15	2.148113E-16
3.480000E+03	6.200770E-15	2.224486E-16
3.490000E+03	6.440324E-15	2.301750E-16
3.500000E+03	6.682784E-15	2.379352E-16
3.510000E+03	6.926389E-15	2.456651E-16
3.520000E+03	7.169455E-15	2.533042E-16
3.530000E+03	7.409917E-15	2.607795E-16
3.540000E+03	7.645673E-15	2.680178E-16
3.550000E+03	7.874320E-15	2.749367E-16
3.560000E+03	8.093723E-15	2.814644E-16
3.570000E+03	8.301701E-15	2.875289E-16
3.580000E+03	8.496191E-15	2.930633E-16
3.590000E+03	8.675723E-15	2.980226E-16
3.600000E+03	8.839006E-15	3.023684E-16
3.610000E+03	8.985257E-15	3.060808E-16
3.620000E+03	9.114424E-15	3.091650E-16
3.630000E+03	9.227042E-15	3.116460E-16
3.640000E+03	9.324313E-15	3.135713E-16
3.650000E+03	9.407735E-15	3.149976E-16
3.660000E+03	9.479546E-15	3.160052E-16
3.670000E+03	9.542340E-15	3.166854E-16
3.680000E+03	9.599342E-15	3.171485E-16
3.690000E+03	9.653643E-15	3.174986E-16
3.700000E+03	9.709101E-15	3.178633E-16
3.710000E+03	9.769281E-15	3.183580E-16
3.720000E+03	9.838092E-15	3.191073E-16
3.730000E+03	9.919431E-15	3.202331E-16
3.740000E+03	1.001706E-14	3.218503E-16
3.750000E+03	1.013453E-14	3.240651E-16
3.760000E+03	1.027536E-14	3.269798E-16
3.770000E+03	1.044244E-14	3.306748E-16
3.780000E+03	1.063855E-14	3.352257E-16
3.790000E+03	1.086545E-14	3.406739E-16
3.800000E+03	1.112466E-14	3.470516E-16
3.810000E+03	1.141649E-14	3.543530E-16
3.820000E+03	1.174055E-14	3.625502E-16
3.830000E+03	1.209525E-14	3.715789E-16
3.840000E+03	1.247766E-14	3.813341E-16
3.850000E+03	1.288398E-14	3.916867E-16
3.860000E+03	1.330892E-14	4.024650E-16
3.870000E+03	1.374604E-14	4.134657E-16
3.880000E+03	1.418811E-14	4.244662E-16
3.890000E+03	1.462688E-14	4.352185E-16
3.900000E+03	1.505412E-14	4.454803E-16
3.910000E+03	1.546114E-14	4.550015E-16
3.920000E+03	1.584000E-14	4.635594E-16
3.930000E+03	1.618344E-14	4.709563E-16
3.940000E+03	1.648536E-14	4.770338E-16
3.950000E+03	1.674160E-14	4.816925E-16
3.960000E+03	1.694942E-14	4.848769E-16
3.970000E+03	1.710841E-14	4.865996E-16
3.980000E+03	1.721982E-14	4.869212E-16
3.990000E+03	1.728671E-14	4.859515E-16
4.000000E+03	1.731375E-14	4.838438E-16
4.010000E+03	1.730680E-14	4.807813E-16
4.020000E+03	1.727226E-14	4.769583E-16
4.030000E+03	1.721714E-14	4.725820E-16
4.040000E+03	1.714850E-14	4.678560E-16
4.050000E+03	1.707292E-14	4.629658E-16
4.060000E+03	1.699622E-14	4.580730E-16
4.070000E+03	1.692381E-14	4.533236E-16
4.080000E+03	1.685984E-14	4.488269E-16
4.090000E+03	1.680741E-14	4.446612E-16
4.100000E+03	1.676846E-14	4.408732E-16
4.110000E+03	1.674385E-14	4.374795E-16
4.120000E+03	1.673338E-14	4.344685E-16
4.130000E+03	1.673611E-14	4.318102E-16
4.140000E+03	1.674983E-14	4.294424E-16
4.150000E+03	1.677167E-14	4.272877E-16
4.160000E+03	1.679817E-14	4.252559E-16
4.170000E+03	1.682569E-14	4.232541E-16
4.180000E+03	1.684991E-14	4.211750E-16
4.190000E+03	1.686667E-14	4.189182E-16
4.200000E+03	1.687173E-14	4.163838E-16
4.210000E+03	1.686125E-14	4.134844E-16
4.220000E+03	1.683165E-14	4.101410E-16
4.230000E+03	1.678015E-14	4.062968E-16
4.240000E+03	1.670439E-14	4.019059E-16
4.250000E+03	1.660309E-14	3.969498E-16
4.260000E+03	1.647558E-14	3.914253E-16
4.270000E+03	1.632242E-14	3.853578E-16
4.280000E+03	1.614515E-14	3.787959E-16
4.290000E+03	1.594617E-14	3.718062E-16
4.300000E+03	1.572889E-14	3.644780E-16
4.310000E+03	1.549772E-14	3.569206E-16
4.320000E+03	1.525750E-14	3.492504E-16
4.330000E+03	1.501371E-14	3.415964E-16
4.340000E+03	1.477228E-14	3.340933E-16
4.350000E+03	1.453911E-14	3.268731E-16
4.360000E+03	1.432090E-14	3.200814E-16
4.370000E+03	1.412495E-14	3.138738E-16
4.380000E+03	1.396001E-14	3.084344E-16
4.390000E+03	1.383471E-14	3.039408E-16
4.400000E+03	1.375652E-14	3.005406E-16
4.410000E+03	1.373125E-14	2.983432E-16
4.420000E+03	1.376323E-14	2.974234E-16
4.430000E+03	1.385456E-14	2.978071E-16
4.440000E+03	1.400578E-14	2.994867E-16
4.450000E+03	1.421570E-14	3.024186E-16
4.460000E+03	1.448127E-14	3.065211E-16
4.470000E+03	1.479781E-14	3.116793E-16
4.480000E+03	1.515955E-14	3.177569E-16
4.490000E+03	1.555991E-14	3.246045E-16
4.500000E+03	1.599148E-14	3.320577E-16
4.510000E+03	1.644597E-14	3.399374E-16
4.520000E+03	1.691332E-14	3.480312E-16
4.530000E+03	1.738211E-14	3.561030E-16
4.540000E+03	1.783978E-14	3.638969E-16
4.550000E+03	1.827280E-14	3.711419E-16
4.560000E+03	1.866746E-14	3.775672E-16
4.570000E+03	1.901003E-14	3.829064E-16
4.580000E+03	1.928771E-14	3.869152E-16
4.590000E+03	1.948930E-14	3.893849E-16
4.600000E+03	1.960603E-14	3.901584E-16
4.610000E+03	1.963183E-14	3.891341E-16
4.620000E+03	1.956366E-14	3.862713E-16
4.630000E+03	1.940225E-14	3.816040E-16
4.640000E+03	1.915152E-14	3.752282E-16
4.650000E+03	1.881844E-14	3.672974E-16
4.660000E+03	1.841227E-14	3.580080E-16
4.670000E+03	1.794475E-14	3.476010E-16
4.680000E+03	1.742847E-14	3.363302E-16
4.690000E+03	1.687709E-14	3.244670E-16
4.700000E+03	1.630422E-14	3.122775E-16
4.710000E+03	1.572256E-14	3.000067E-16
4.720000E+03	1.514416E-14	2.878842E-16
4.730000E+03	1.457951E-14	2.761064E-16
4.740000E+03	1.403753E-14	2.648377E-16
4.750000E+03	1.352547E-14	2.542081E-16
4.760000E+03	1.304894E-14	2.443156E-16
4.770000E+03	1.261179E-14	2.352238E-16
4.780000E+03	1.221671E-14	2.269738E-16
4.790000E+03	1.186515E-14	2.195828E-16
4.800000E+03	1.155737E-14	2.130457E-16
4.810000E+03	1.129268E-14	2.073402E-16
4.820000E+03	1.106967E-14	2.024309E-16
4.830000E+03	1.088600E-14	1.982658E-16
4.840000E+03	1.073889E-14	1.947854E-16
4.850000E+03	1.062486E-14	1.919189E-16
4.860000E+03	1.053986E-14	1.895856E-16
4.870000E+03	1.047960E-14	1.877021E-16
4.880000E+03	1.043943E-14	1.861797E-16
4.890000E+03	1.041460E-14	1.849292E-16
4.900000E+03	1.040047E-14	1.838652E-16
4.910000E+03	1.039271E-14	1.829086E-16
4.920000E+03	1.038789E-14	1.819980E-16
4.930000E+03	1.038309E-14	1.810818E-16
4.940000E+03	1.037676E-14	1.801329E-16
4.950000E+03	1.036839E-14	1.791434E-16
4.960000E+03	1.035859E-14	1.781242E-16
4.970000E+03	1.034926E-14	1.771084E-16
4.980000E+03	1.034316E-14	1.761433E-16
4.990000E+03	1.034380E-14	1.752878E-16
5.000000E+03	1.035500E-14	1.746051E-16
5.010000E+03	1.038134E-14	1.741696E-16
5.020000E+03	1.042687E-14	1.740455E-16
5.030000E+03	1.049597E-14	1.743013E-16
5.040000E+03	1.059256E-14	1.749961E-16
5.050000E+03	1.071992E-14	1.761774E-16
5.060000E+03	1.088116E-14	1.778885E-16
5.070000E+03	1.107876E-14	1.801619E-16
5.080000E+03	1.131428E-14	1.830140E-16
5.090000E+03	1.158875E-14	1.864526E-16
5.100000E+03	1.190229E-14	1.904708E-16
5.110000E+03	1.225400E-14	1.950451E-16
5.120000E+03	1.264168E-14	2.001326E-16
5.130000E+03	1.306202E-14	2.056733E-16
5.140000E+03	1.351036E-14	2.115883E-16
5.150000E+03	1.398039E-14	2.177744E-16
5.160000E+03	1.446446E-14	2.241103E-16
5.170000E+03	1.495357E-14	2.304567E-16
5.180000E+03	1.543759E-14	2.366605E-16
5.190000E+03	1.590552E-14	2.425588E-16
5.200000E+03	1.634634E-14	2.479924E-16
5.210000E+03	1.674912E-14	2.528068E-16
5.220000E+03	1.710361E-14	2.568613E-16
5.230000E+03	1.740105E-14	2.600402E-16
5.240000E+03	1.763465E-14	2.622599E-16
5.250000E+03	1.779950E-14	2.634655E-16
5.260000E+03	1.789297E-14	2.636367E-16
5.270000E+03	1.791520E-14	2.627939E-16
5.280000E+03	1.786833E-14	2.609855E-16
5.290000E+03	1.775657E-14	2.582882E-16
5.300000E+03	1.758554E-14	2.547975E-16
5.310000E+03	1.736232E-14	2.506274E-16
5.320000E+03	1.709494E-14	2.459025E-16
5.330000E+03	1.679201E-14	2.407532E-16
5.340000E+03	1.646240E-14	2.353113E-16
5.350000E+03	1.611489E-14	2.297044E-16
5.360000E+03	1.575837E-14	2.240599E-16
5.370000E+03	1.540103E-14	2.184932E-16
5.380000E+03	1.505058E-14	2.131116E-16
5.390000E+03	1.471371E-14	2.080063E-16
5.400000E+03	1.439616E-14	2.032530E-16
5.410000E+03	1.410198E-14	1.989013E-16
5.420000E+03	1.383350E-14	1.949776E-16
5.430000E+03	1.359071E-14	1.914752E-16
5.440000E+03	1.337176E-14	1.883628E-16
5.450000E+03	1.317387E-14	1.855962E-16
5.460000E+03	1.299380E-14	1.831258E-16
5.470000E+03	1.282733E-14	1.808881E-16
5.480000E+03	1.267049E-14	1.788238E-16
5.490000E+03	1.251919E-14	1.768718E-16
5.500000E+03	1.236988E-14	1.749788E-16
5.510000E+03	1.221952E-14	1.730985E-16
5.520000E+03	1.206555E-14	1.711914E-16
5.530000E+03	1.190645E-14	1.692323E-16
5.540000E+03	1.174098E-14	1.672008E-16
5.550000E+03	1.156866E-14	1.650861E-16
5.560000E+03	1.138974E-14	1.628887E-16
5.570000E+03	1.120518E-14	1.606191E-16
5.580000E+03	1.101624E-14	1.582920E-16
5.590000E+03	1.082467E-14	1.559303E-16
5.600000E+03	1.063259E-14	1.535619E-16
5.610000E+03	1.044236E-14	1.512187E-16
5.620000E+03	1.025650E-14	1.489357E-16
5.630000E+03	1.007761E-14	1.467495E-16
5.640000E+03	9.908217E-15	1.446963E-16
5.650000E+03	9.751013E-15	1.428152E-16
5.660000E+03	9.608400E-15	1.411420E-16
5.670000E+03	9.482850E-15	1.397136E-16
5.680000E+03	9.376460E-15	1.385624E-16
5.690000E+03	9.291221E-15	1.377196E-16
5.700000E+03	9.228980E-15	1.372148E-16
5.710000E+03	9.191111E-15	1.370709E-16
5.720000E+03	9.178872E-15	1.373095E-16
5.730000E+03	9.192976E-15	1.379445E-16
5.740000E+03	9.233834E-15	1.389853E-16
5.750000E+03	9.301415E-15	1.404349E-16
5.760000E+03	9.395384E-15	1.422916E-16
5.770000E+03	9.514342E-15	1.445378E-16
5.780000E+03	9.656878E-15	1.471554E-16
5.790000E+03	9.820286E-15	1.501062E-16
5.800000E+03	1.000178E-14	1.533506E-16
5.810000E+03	1.019742E-14	1.568307E-16
5.820000E+03	1.040255E-14	1.604765E-16
5.830000E+03	1.061217E-14	1.642126E-16
5.840000E+03	1.082040E-14	1.679485E-16
5.850000E+03	1.102113E-14	1.715892E-16
5.860000E+03	1.120759E-14	1.750288E-16
5.870000E+03	1.137362E-14	1.781688E-16
5.880000E+03	1.151254E-14	1.809022E-16
5.890000E+03	1.161856E-14	1.831347E-16
5.900000E+03	1.168603E-14	1.847725E-16
5.910000E+03	1.171062E-14	1.857424E-16
5.920000E+03	1.168884E-14	1.859830E-16
5.930000E+03	1.161836E-14	1.854512E-16
5.940000E+03	1.149811E-14	1.841230E-16
5.950000E+03	1.132883E-14	1.820035E-16
5.960000E+03	1.111248E-14	1.791170E-16
5.970000E+03	1.085230E-14	1.755088E-16
5.980000E+03	1.055326E-14	1.712529E-16
5.990000E+03	1.022113E-14	1.664365E-16
6.000000E+03	9.862849E-15	1.611678E-16
6.010000E+03	9.486047E-15	1.555668E-16
6.020000E+03	9.098470E-15	1.497572E-16
6.030000E+03	8.708147E-15	1.438691E-16
6.040000E+03	8.322831E-15	1.380295E-16
6.050000E+03	7.949713E-15	1.323583E-16
6.060000E+03	7.595009E-15	1.269605E-16
6.070000E+03	7.264183E-15	1.219305E-16
6.080000E+03	6.961730E-15	1.173477E-16
6.090000E+03	6.690769E-15	1.132698E-16
6.100000E+03	6.453615E-15	1.097422E-16
6.110000E+03	6.251314E-15	1.067893E-16
6.120000E+03	6.084340E-15	1.044268E-16
6.130000E+03	5.952046E-15	1.026513E-16
6.140000E+03	5.853205E-15	1.014498E-16
6.150000E+03	5.786178E-15	1.008024E-16
6.160000E+03	5.748624E-15	1.006763E-16
6.170000E+03	5.737793E-15	1.010318E-16
6.180000E+03	5.750818E-15	1.018259E-16
6.190000E+03	5.784358E-15	1.030061E-16
6.200000E+03	5.834731E-15	1.045122E-16
6.210000E+03	5.898200E-15	1.062820E-16
6.220000E+03	5.970656E-15	1.082450E-16
6.230000E+03	6.048201E-15	1.103328E-16
6.240000E+03	6.126949E-15	1.124757E-16
6.250000E+03	6.203145E-15	1.146046E-16
6.260000E+03	6.273464E-15	1.166563E-16
6.270000E+03	6.334974E-15	1.185737E-16
6.280000E+03	6.385492E-15	1.203119E-16
6.290000E+03	6.423406E-15	1.218357E-16
6.300000E+03	6.447798E-15	1.231222E-16
6.310000E+03	6.458257E-15	1.241577E-16
6.320000E+03	6.455487E-15	1.249495E-16
6.330000E+03	6.440306E-15	1.255077E-16
6.340000E+03	6.414373E-15	1.258590E-16
6.350000E+03	6.379401E-15	1.260320E-16
6.360000E+03	6.337395E-15	1.260621E-16
6.370000E+03	6.290497E-15	1.259885E-16
6.380000E+03	6.240760E-15	1.258497E-16
6.390000E+03	6.189847E-15	1.256775E-16
6.400000E+03	6.139340E-15	1.255030E-16
6.410000E+03	6.090404E-15	1.253495E-16
6.420000E+03	6.043748E-15	1.252316E-16
6.430000E+03	5.999753E-15	1.251577E-16
6.440000E+03	5.958656E-15	1.251331E-16
6.450000E+03	5.920133E-15	1.251516E-16
6.460000E+03	5.883813E-15	1.252057E-16
6.470000E+03	5.849145E-15	1.252842E-16
6.480000E+03	5.815373E-15	1.253707E-16
6.490000E+03	5.781753E-15	1.254492E-16
6.500000E+03	5.747504E-15	1.255020E-16
6.510000E+03	5.711659E-15	1.255072E-16
6.520000E+03	5.673542E-15	1.254488E-16
6.530000E+03	5.632432E-15	1.253095E-16
6.540000E+03	5.587674E-15	1.250730E-16
6.550000E+03	5.538528E-15	1.247207E-16
6.560000E+03	5.484622E-15	1.242423E-16
6.570000E+03	5.425625E-15	1.236279E-16
6.580000E+03	5.361254E-15	1.228690E-16
6.590000E+03	5.291468E-15	1.219622E-16
6.600000E+03	5.216462E-15	1.209099E-16
6.610000E+03	5.136418E-15	1.197141E-16
6.620000E+03	5.051750E-15	1.183827E-16
6.630000E+03	4.963006E-15	1.169268E-16
6.640000E+03	4.870853E-15	1.153607E-16
6.650000E+03	4.776045E-15	1.137014E-16
6.660000E+03	4.679328E-15	1.119658E-16
6.670000E+03	4.581637E-15	1.101759E-16
6.680000E+03	4.483836E-15	1.083525E-16
6.690000E+03	4.386771E-15	1.065163E-16
6.700000E+03	4.291170E-15	1.046858E-16
6.710000E+03	4.197916E-15	1.028833E-16
6.720000E+03	4.107524E-15	1.011227E-16
6.730000E+03	4.020568E-15	9.941935E-17
6.740000E+03	3.937657E-15	9.778992E-17
6.750000E+03	3.859031E-15	9.624199E-17
6.760000E+03	3.785033E-15	9.478586E-17
6.770000E+03	3.715779E-15	9.342614E-17
6.780000E+03	3.651489E-15	9.217014E-17
6.790000E+03	3.592040E-15	9.101650E-17
6.800000E+03	3.537424E-15	8.996671E-17
6.810000E+03	3.487501E-15	8.901875E-17
6.820000E+03	3.442065E-15	8.816894E-17
6.830000E+03	3.400861E-15	8.741208E-17
6.840000E+03	3.363586E-15	8.674172E-17
6.850000E+03	3.329847E-15	8.614883E-17
6.860000E+03	3.299399E-15	8.562812E-17
6.870000E+03	3.271749E-15	8.516768E-17
6.880000E+03	3.246631E-15	8.476135E-17
6.890000E+03	3.223607E-15	8.439836E-17
6.900000E+03	3.202255E-15	8.406820E-17
6.910000E+03	3.182346E-15	8.376533E-17
6.920000E+03	3.163509E-15	8.348031E-17
6.930000E+03	3.145460E-15	8.320600E-17
6.940000E+03	3.127960E-15	8.293623E-17
6.950000E+03	3.110867E-15	8.266746E-17
6.960000E+03	3.093903E-15	8.239246E-17
6.970000E+03	3.077068E-15	8.211134E-17
6.980000E+03	3.060220E-15	8.182044E-17
6.990000E+03	3.043314E-15	8.151866E-17
7.000000E+03	3.026330E-15	8.120555E-17
7.010000E+03	3.009331E-15	8.088292E-17
7.020000E+03	2.992280E-15	8.054988E-17
7.030000E+03	2.975209E-15	8.020743E-17
7.040000E+03	2.958215E-15	7.985831E-17
7.050000E+03	2.941280E-15	7.950219E-17
7.060000E+03	2.924500E-15	7.914178E-17
7.070000E+03	2.907850E-15	7.877656E-17
7.080000E+03	2.891355E-15	7.840737E-17
7.090000E+03	2.875088E-15	7.803638E-17
7.100000E+03	2.859057E-15	7.766391E-17
7.110000E+03	2.843200E-15	7.728849E-17
7.120000E+03	2.827622E-15	7.691308E-17
7.130000E+03	2.812128E-15	7.653260E-17
7.140000E+03	2.796860E-15	7.615102E-17
7.150000E+03	2.781667E-15	7.576439E-17
7.160000E+03	2.766559E-15	7.537320E-17
7.170000E+03	2.751542E-15	7.497771E-17
7.180000E+03	2.736443E-15	7.457342E-17
7.190000E+03	2.721258E-15	7.416031E-17
7.200000E+03	2.705970E-15	7.373818E-17
7.210000E+03	2.690395E-15	7.330213E-17
7.220000E+03	2.674565E-15	7.285323E-17
7.230000E+03	2.658396E-15	7.238935E-17
7.240000E+03	2.641744E-15	7.190679E-17
7.250000E+03	2.624517E-15	7.140328E-17
7.260000E+03	2.606624E-15	7.087652E-17
7.270000E+03	2.588085E-15	7.032733E-17
7.280000E+03	2.568648E-15	6.974906E-17
7.290000E+03	2.548403E-15	6.914447E-17
7.300000E+03	2.527120E-15	6.850759E-17
7.310000E+03	2.504922E-15	6.784203E-17
7.320000E+03	2.481619E-15	6.714300E-17
7.330000E+03	2.457329E-15	6.641398E-17
7.340000E+03	2.432028E-15	6.565469E-17
7.350000E+03	2.405780E-15	6.486720E-17
7.360000E+03	2.378678E-15	6.405439E-17
7.370000E+03	2.350736E-15	6.321694E-17
7.380000E+03	2.322207E-15	6.236205E-17
7.390000E+03	2.293097E-15	6.149022E-17
7.400000E+03	2.263691E-15	6.060938E-17
7.410000E+03	2.234069E-15	5.972201E-17
7.420000E+03	2.204368E-15	5.883205E-17
7.430000E+03	2.174769E-15	5.794463E-17
7.440000E+03	2.145542E-15	5.706715E-17
7.450000E+03	2.116789E-15	5.620253E-17
7.460000E+03	2.088788E-15	5.535832E-17
7.470000E+03	2.061547E-15	5.453490E-17
7.480000E+03	2.035247E-15	5.373718E-17
7.490000E+03	2.009998E-15	5.296812E-17
7.500000E+03	1.985834E-15	5.222874E-17
7.510000E+03	1.962775E-15	5.151956E-17
7.520000E+03	1.940819E-15	5.084065E-17
7.530000E+03	1.920003E-15	5.019295E-17
7.540000E+03	1.900254E-15	4.957465E-17
7.550000E+03	1.881592E-15	4.898626E-17
7.560000E+03	1.863984E-15	4.842699E-17
7.570000E+03	1.847355E-15	4.789488E-17
7.580000E+03	1.831679E-15	4.738937E-17
7.590000E+03	1.816987E-15	4.691125E-17
7.600000E+03	1.803273E-15	4.646042E-17
7.610000E+03	1.790451E-15	4.603475E-17
7.620000E+03	1.778634E-15	4.563716E-17
7.630000E+03	1.767808E-15	4.526733E-17
7.640000E+03	1.758017E-15	4.492643E-17
7.650000E+03	1.749270E-15	4.461477E-17
7.660000E+03	1.741718E-15	4.433621E-17
7.670000E+03	1.735382E-15	4.409134E-17
7.680000E+03	1.730285E-15	4.388078E-17
7.690000E+03	1.726585E-15	4.370858E-17
7.700000E+03	1.724256E-15	4.357412E-17
7.710000E+03	1.723402E-15	4.348011E-17
7.720000E+03	1.724079E-15	4.342799E-17
7.730000E+03	1.726335E-15	4.341906E-17
7.740000E+03	1.730207E-15	4.345437E-17
7.750000E+03	1.735774E-15	4.353601E-17
7.760000E+03	1.742964E-15	4.366234E-17
