#wls	flux	fluxerr
1.600000E+03	1.983152E-15	1.974274E-16
1.640000E+03	1.588874E-15	1.565491E-16
1.680000E+03	1.259591E-15	1.228109E-16
1.720000E+03	9.891619E-16	9.542480E-17
1.760000E+03	7.701876E-16	7.350582E-17
1.800000E+03	5.955773E-16	5.622692E-17
1.840000E+03	4.582235E-16	4.278773E-17
1.880000E+03	3.516029E-16	3.247067E-17
1.920000E+03	2.698505E-16	2.464487E-17
1.960000E+03	2.079007E-16	1.877579E-17
2.000000E+03	1.614810E-16	1.442069E-17
2.040000E+03	1.270746E-16	1.122113E-17
2.080000E+03	1.019940E-16	8.905653E-18
2.120000E+03	8.417073E-17	7.267348E-18
2.160000E+03	7.219803E-17	6.164306E-18
2.200000E+03	6.510586E-17	5.497356E-18
2.240000E+03	6.234703E-17	5.206749E-18
2.280000E+03	6.383176E-17	5.272971E-18
2.320000E+03	6.985558E-17	5.708708E-18
2.360000E+03	8.117804E-17	6.563557E-18
2.400000E+03	9.915721E-17	7.932741E-18
2.440000E+03	1.257342E-16	9.953411E-18
2.480000E+03	1.632644E-16	1.278900E-17
2.520000E+03	2.140792E-16	1.659356E-17
2.560000E+03	2.796564E-16	2.144805E-17
2.600000E+03	3.594798E-16	2.727713E-17
2.640000E+03	4.504796E-16	3.381491E-17
2.680000E+03	5.475864E-16	4.065622E-17
2.720000E+03	6.453536E-16	4.738380E-17
2.760000E+03	7.385278E-16	5.361149E-17
2.800000E+03	8.227487E-16	5.903400E-17
2.840000E+03	8.949605E-16	6.345304E-17
2.880000E+03	9.536528E-16	6.678918E-17
2.920000E+03	9.986251E-16	6.905954E-17
2.960000E+03	1.030979E-15	7.037183E-17
3.000000E+03	1.052773E-15	7.089545E-17
3.010000E+03	1.056900E-15	7.092825E-17
3.020000E+03	1.060572E-15	7.092734E-17
3.030000E+03	1.063869E-15	7.089839E-17
3.040000E+03	1.066869E-15	7.084682E-17
3.050000E+03	1.069537E-15	7.077048E-17
3.060000E+03	1.072032E-15	7.068007E-17
3.070000E+03	1.074359E-15	7.057596E-17
3.080000E+03	1.076563E-15	7.046124E-17
3.090000E+03	1.078691E-15	7.033904E-17
3.100000E+03	1.080862E-15	7.021708E-17
3.110000E+03	1.083122E-15	7.009836E-17
3.120000E+03	1.085485E-15	6.998360E-17
3.130000E+03	1.088070E-15	6.988035E-17
3.140000E+03	1.090923E-15	6.979150E-17
3.150000E+03	1.094097E-15	6.972004E-17
3.160000E+03	1.097642E-15	6.966893E-17
3.170000E+03	1.101676E-15	6.964537E-17
3.180000E+03	1.106188E-15	6.964817E-17
3.190000E+03	1.111336E-15	6.968695E-17
3.200000E+03	1.117185E-15	6.976516E-17
3.210000E+03	1.123872E-15	6.989079E-17
3.220000E+03	1.131546E-15	7.007233E-17
3.230000E+03	1.140320E-15	7.031599E-17
3.240000E+03	1.150386E-15	7.063262E-17
3.250000E+03	1.161913E-15	7.103147E-17
3.260000E+03	1.175146E-15	7.152621E-17
3.270000E+03	1.190255E-15	7.212573E-17
3.280000E+03	1.207475E-15	7.284259E-17
3.290000E+03	1.226995E-15	7.368640E-17
3.300000E+03	1.249046E-15	7.466890E-17
3.310000E+03	1.273834E-15	7.580019E-17
3.320000E+03	1.301546E-15	7.708891E-17
3.330000E+03	1.332377E-15	7.854407E-17
3.340000E+03	1.366566E-15	8.017684E-17
3.350000E+03	1.404307E-15	8.199554E-17
3.360000E+03	1.445806E-15	8.400897E-17
3.370000E+03	1.491250E-15	8.622453E-17
3.380000E+03	1.540907E-15	8.865401E-17
3.390000E+03	1.594928E-15	9.130219E-17
3.400000E+03	1.653537E-15	9.417778E-17
3.410000E+03	1.716985E-15	9.729065E-17
3.420000E+03	1.785426E-15	1.006450E-16
3.430000E+03	1.859082E-15	1.042484E-16
3.440000E+03	1.938158E-15	1.081074E-16
3.450000E+03	2.022785E-15	1.122239E-16
3.460000E+03	2.113087E-15	1.165996E-16
3.470000E+03	2.209096E-15	1.212304E-16
3.480000E+03	2.310722E-15	1.261058E-16
3.490000E+03	2.417833E-15	1.312130E-16
3.500000E+03	2.530123E-15	1.365300E-16
3.510000E+03	2.647141E-15	1.420271E-16
3.520000E+03	2.768223E-15	1.476641E-16
3.530000E+03	2.892430E-15	1.533867E-16
3.540000E+03	3.018561E-15	1.591280E-16
3.550000E+03	3.145264E-15	1.648148E-16
3.560000E+03	3.270989E-15	1.703651E-16
3.570000E+03	3.394202E-15	1.756999E-16
3.580000E+03	3.513151E-15	1.807310E-16
3.590000E+03	3.626533E-15	1.853950E-16
3.600000E+03	3.733046E-15	1.896309E-16
3.610000E+03	3.831469E-15	1.933831E-16
3.620000E+03	3.921143E-15	1.966261E-16
3.630000E+03	4.001538E-15	1.993416E-16
3.640000E+03	4.072318E-15	2.015218E-16
3.650000E+03	4.133522E-15	2.031778E-16
3.660000E+03	4.185520E-15	2.043369E-16
3.670000E+03	4.228650E-15	2.050246E-16
3.680000E+03	4.263997E-15	2.053018E-16
3.690000E+03	4.292766E-15	2.052340E-16
3.700000E+03	4.316328E-15	2.048928E-16
3.710000E+03	4.337148E-15	2.043996E-16
3.720000E+03	4.357871E-15	2.038811E-16
3.730000E+03	4.381212E-15	2.034633E-16
3.740000E+03	4.410553E-15	2.032994E-16
3.750000E+03	4.449343E-15	2.035410E-16
3.760000E+03	4.501022E-15	2.043343E-16
3.770000E+03	4.569193E-15	2.058280E-16
3.780000E+03	4.657556E-15	2.081700E-16
3.790000E+03	4.769797E-15	2.115022E-16
3.800000E+03	4.909081E-15	2.159381E-16
3.810000E+03	5.078615E-15	2.215887E-16
3.820000E+03	5.280788E-15	2.285245E-16
3.830000E+03	5.515234E-15	2.366943E-16
3.840000E+03	5.779892E-15	2.459750E-16
3.850000E+03	6.071699E-15	2.562043E-16
3.860000E+03	6.385938E-15	2.671545E-16
3.870000E+03	6.716182E-15	2.785342E-16
3.880000E+03	7.054286E-15	2.899904E-16
3.890000E+03	7.391176E-15	3.011442E-16
3.900000E+03	7.716321E-15	3.115711E-16
3.910000E+03	8.018440E-15	3.208323E-16
3.920000E+03	8.288595E-15	3.285983E-16
3.930000E+03	8.518494E-15	3.345787E-16
3.940000E+03	8.700988E-15	3.385398E-16
3.950000E+03	8.832306E-15	3.403888E-16
3.960000E+03	8.910666E-15	3.401149E-16
3.970000E+03	8.935992E-15	3.377744E-16
3.980000E+03	8.912048E-15	3.335678E-16
3.990000E+03	8.844522E-15	3.277613E-16
4.000000E+03	8.739987E-15	3.206454E-16
4.010000E+03	8.608672E-15	3.126334E-16
4.020000E+03	8.461130E-15	3.041354E-16
4.030000E+03	8.307366E-15	2.955263E-16
4.040000E+03	8.156729E-15	2.871427E-16
4.050000E+03	8.017730E-15	2.792784E-16
4.060000E+03	7.897607E-15	2.721706E-16
4.070000E+03	7.801577E-15	2.659770E-16
4.080000E+03	7.733662E-15	2.608073E-16
4.090000E+03	7.697190E-15	2.567422E-16
4.100000E+03	7.693183E-15	2.537814E-16
4.110000E+03	7.722087E-15	2.519048E-16
4.120000E+03	7.783363E-15	2.510600E-16
4.130000E+03	7.874042E-15	2.511180E-16
4.140000E+03	7.990018E-15	2.519189E-16
4.150000E+03	8.126544E-15	2.532889E-16
4.160000E+03	8.277704E-15	2.550254E-16
4.170000E+03	8.436800E-15	2.569109E-16
4.180000E+03	8.596521E-15	2.587192E-16
4.190000E+03	8.750310E-15	2.602571E-16
4.200000E+03	8.891099E-15	2.613259E-16
4.210000E+03	9.012007E-15	2.617421E-16
4.220000E+03	9.107484E-15	2.613698E-16
4.230000E+03	9.172449E-15	2.600941E-16
4.240000E+03	9.202228E-15	2.578178E-16
4.250000E+03	9.193750E-15	2.544940E-16
4.260000E+03	9.144870E-15	2.501045E-16
4.270000E+03	9.054208E-15	2.446538E-16
4.280000E+03	8.922325E-15	2.381989E-16
4.290000E+03	8.750799E-15	2.308221E-16
4.300000E+03	8.542347E-15	2.226321E-16
4.310000E+03	8.302623E-15	2.138085E-16
4.320000E+03	8.037906E-15	2.045389E-16
4.330000E+03	7.755413E-15	1.950255E-16
4.340000E+03	7.466036E-15	1.855525E-16
4.350000E+03	7.180459E-15	1.763855E-16
4.360000E+03	6.908673E-15	1.677606E-16
4.370000E+03	6.661767E-15	1.599291E-16
4.380000E+03	6.450653E-15	1.531266E-16
4.390000E+03	6.284371E-15	1.475338E-16
4.400000E+03	6.169570E-15	1.432681E-16
4.410000E+03	6.112223E-15	1.404264E-16
4.420000E+03	6.117133E-15	1.390754E-16
4.430000E+03	6.185743E-15	1.392045E-16
4.440000E+03	6.319190E-15	1.407980E-16
4.450000E+03	6.518567E-15	1.438415E-16
4.460000E+03	6.781382E-15	1.482444E-16
4.470000E+03	7.104540E-15	1.539090E-16
4.480000E+03	7.485156E-15	1.607477E-16
4.490000E+03	7.920793E-15	1.686882E-16
4.500000E+03	8.411049E-15	1.777060E-16
4.510000E+03	8.955069E-15	1.877693E-16
4.520000E+03	9.548807E-15	1.987804E-16
4.530000E+03	1.018531E-14	2.105854E-16
4.540000E+03	1.085493E-14	2.229804E-16
4.550000E+03	1.154280E-14	2.356604E-16
4.560000E+03	1.222951E-14	2.482361E-16
4.570000E+03	1.289215E-14	2.602552E-16
4.580000E+03	1.350525E-14	2.712221E-16
4.590000E+03	1.404081E-14	2.805994E-16
4.600000E+03	1.447201E-14	2.878798E-16
4.610000E+03	1.477698E-14	2.926598E-16
4.620000E+03	1.493890E-14	2.946389E-16
4.630000E+03	1.494820E-14	2.936603E-16
4.640000E+03	1.480844E-14	2.898229E-16
4.650000E+03	1.453123E-14	2.833779E-16
4.660000E+03	1.413343E-14	2.746732E-16
4.670000E+03	1.363788E-14	2.641657E-16
4.680000E+03	1.306892E-14	2.523349E-16
4.690000E+03	1.245141E-14	2.396642E-16
4.700000E+03	1.180977E-14	2.266226E-16
4.710000E+03	1.116537E-14	2.136160E-16
4.720000E+03	1.053624E-14	2.009830E-16
4.730000E+03	9.936805E-15	1.889899E-16
4.740000E+03	9.378043E-15	1.778363E-16
4.750000E+03	8.867804E-15	1.676606E-16
4.760000E+03	8.410868E-15	1.585424E-16
4.770000E+03	8.009996E-15	1.505228E-16
4.780000E+03	7.666311E-15	1.436121E-16
4.790000E+03	7.379262E-15	1.377890E-16
4.800000E+03	7.147418E-15	1.330159E-16
4.810000E+03	6.969253E-15	1.292538E-16
4.820000E+03	6.841541E-15	1.264322E-16
4.830000E+03	6.761193E-15	1.244836E-16
4.840000E+03	6.725169E-15	1.233416E-16
4.850000E+03	6.729897E-15	1.229308E-16
4.860000E+03	6.771652E-15	1.231729E-16
4.870000E+03	6.846010E-15	1.239780E-16
4.880000E+03	6.945141E-15	1.251954E-16
4.890000E+03	7.059977E-15	1.266545E-16
4.900000E+03	7.180763E-15	1.281749E-16
4.910000E+03	7.296833E-15	1.295639E-16
4.920000E+03	7.397119E-15	1.306253E-16
4.930000E+03	7.471632E-15	1.311869E-16
4.940000E+03	7.513655E-15	1.311380E-16
4.950000E+03	7.518685E-15	1.304098E-16
4.960000E+03	7.484676E-15	1.289791E-16
4.970000E+03	7.415183E-15	1.269201E-16
4.980000E+03	7.316269E-15	1.243491E-16
4.990000E+03	7.195450E-15	1.214048E-16
5.000000E+03	7.063230E-15	1.182729E-16
5.010000E+03	6.930429E-15	1.151394E-16
5.020000E+03	6.806919E-15	1.121691E-16
5.030000E+03	6.700661E-15	1.094904E-16
5.040000E+03	6.618597E-15	1.072104E-16
5.050000E+03	6.566640E-15	1.054154E-16
5.060000E+03	6.548746E-15	1.041566E-16
5.070000E+03	6.568298E-15	1.034733E-16
5.080000E+03	6.628623E-15	1.034017E-16
5.090000E+03	6.732842E-15	1.039717E-16
5.100000E+03	6.884273E-15	1.052143E-16
5.110000E+03	7.086439E-15	1.071607E-16
5.120000E+03	7.342126E-15	1.098290E-16
5.130000E+03	7.654284E-15	1.132371E-16
5.140000E+03	8.025530E-15	1.173968E-16
5.150000E+03	8.455664E-15	1.222770E-16
5.160000E+03	8.942856E-15	1.278244E-16
5.170000E+03	9.483545E-15	1.339629E-16
5.180000E+03	1.007025E-14	1.405653E-16
5.190000E+03	1.069215E-14	1.474647E-16
5.200000E+03	1.133546E-14	1.544626E-16
5.210000E+03	1.198487E-14	1.613509E-16
5.220000E+03	1.262213E-14	1.678941E-16
5.230000E+03	1.322785E-14	1.738554E-16
5.240000E+03	1.378409E-14	1.790304E-16
5.250000E+03	1.427380E-14	1.832383E-16
5.260000E+03	1.468152E-14	1.863287E-16
5.270000E+03	1.499618E-14	1.882150E-16
5.280000E+03	1.521047E-14	1.888618E-16
5.290000E+03	1.532027E-14	1.882739E-16
5.300000E+03	1.532481E-14	1.864962E-16
5.310000E+03	1.522745E-14	1.836181E-16
5.320000E+03	1.503390E-14	1.797514E-16
5.330000E+03	1.475247E-14	1.750297E-16
5.340000E+03	1.439333E-14	1.695996E-16
5.350000E+03	1.396980E-14	1.636347E-16
5.360000E+03	1.350000E-14	1.573546E-16
5.370000E+03	1.300297E-14	1.509797E-16
5.380000E+03	1.249866E-14	1.447331E-16
5.390000E+03	1.201553E-14	1.389304E-16
5.400000E+03	1.157825E-14	1.338332E-16
5.410000E+03	1.120800E-14	1.296609E-16
5.420000E+03	1.093085E-14	1.266953E-16
5.430000E+03	1.074207E-14	1.248693E-16
5.440000E+03	1.061234E-14	1.238348E-16
5.450000E+03	1.052119E-14	1.233468E-16
5.460000E+03	1.044893E-14	1.231684E-16
5.470000E+03	1.037603E-14	1.230608E-16
5.480000E+03	1.028992E-14	1.228633E-16
5.490000E+03	1.018045E-14	1.224404E-16
5.500000E+03	1.003976E-14	1.216805E-16
5.510000E+03	9.864789E-15	1.205270E-16
5.520000E+03	9.655380E-15	1.189578E-16
5.530000E+03	9.412678E-15	1.169669E-16
5.540000E+03	9.140661E-15	1.145843E-16
5.550000E+03	8.844516E-15	1.118577E-16
5.560000E+03	8.529676E-15	1.088408E-16
5.570000E+03	8.202073E-15	1.055970E-16
5.580000E+03	7.867648E-15	1.021936E-16
5.590000E+03	7.531835E-15	9.869490E-17
5.600000E+03	7.199715E-15	9.516395E-17
5.610000E+03	6.875873E-15	9.166046E-17
5.620000E+03	6.564209E-15	8.823780E-17
5.630000E+03	6.268432E-15	8.494911E-17
5.640000E+03	5.991592E-15	8.184067E-17
5.650000E+03	5.736238E-15	7.895358E-17
5.660000E+03	5.505105E-15	7.633274E-17
5.670000E+03	5.300467E-15	7.401778E-17
5.680000E+03	5.124228E-15	7.204395E-17
5.690000E+03	4.978293E-15	7.044694E-17
5.700000E+03	4.864394E-15	6.926032E-17
5.710000E+03	4.784219E-15	6.851710E-17
5.720000E+03	4.738913E-15	6.824238E-17
5.730000E+03	4.729818E-15	6.846376E-17
5.740000E+03	4.758324E-15	6.920909E-17
5.750000E+03	4.824848E-15	7.049146E-17
5.760000E+03	4.929731E-15	7.232201E-17
5.770000E+03	5.073563E-15	7.471458E-17
5.780000E+03	5.255552E-15	7.766168E-17
5.790000E+03	5.474461E-15	8.114805E-17
5.800000E+03	5.728433E-15	8.514800E-17
5.810000E+03	6.013629E-15	8.960503E-17
5.820000E+03	6.324605E-15	9.443740E-17
5.830000E+03	6.654676E-15	9.954346E-17
5.840000E+03	6.996685E-15	1.048134E-16
5.850000E+03	7.342220E-15	1.101177E-16
5.860000E+03	7.681929E-15	1.153125E-16
5.870000E+03	8.006987E-15	1.202616E-16
5.880000E+03	8.308287E-15	1.248249E-16
5.890000E+03	8.576745E-15	1.288635E-16
5.900000E+03	8.803943E-15	1.322495E-16
5.910000E+03	8.982301E-15	1.348689E-16
5.920000E+03	9.105010E-15	1.366210E-16
5.930000E+03	9.166892E-15	1.374311E-16
5.940000E+03	9.164335E-15	1.372496E-16
5.950000E+03	9.095606E-15	1.360565E-16
5.960000E+03	8.961139E-15	1.338655E-16
5.970000E+03	8.763325E-15	1.307201E-16
5.980000E+03	8.506731E-15	1.266970E-16
5.990000E+03	8.198957E-15	1.219175E-16
6.000000E+03	7.848814E-15	1.165203E-16
6.010000E+03	7.466321E-15	1.106610E-16
6.020000E+03	7.062476E-15	1.045081E-16
6.030000E+03	6.648050E-15	9.822498E-17
6.040000E+03	6.233572E-15	9.196975E-17
6.050000E+03	5.830133E-15	8.590710E-17
6.060000E+03	5.447007E-15	8.017350E-17
6.070000E+03	5.091948E-15	7.488190E-17
6.080000E+03	4.771829E-15	7.013162E-17
6.090000E+03	4.491758E-15	6.599584E-17
6.100000E+03	4.254932E-15	6.251990E-17
6.110000E+03	4.063218E-15	5.973034E-17
6.120000E+03	3.917687E-15	5.764301E-17
6.130000E+03	3.818435E-15	5.626086E-17
6.140000E+03	3.762272E-15	5.553997E-17
6.150000E+03	3.745756E-15	5.543426E-17
6.160000E+03	3.765955E-15	5.590657E-17
6.170000E+03	3.819180E-15	5.690997E-17
6.180000E+03	3.901756E-15	5.839894E-17
6.190000E+03	4.009562E-15	6.032227E-17
6.200000E+03	4.138045E-15	6.262276E-17
6.210000E+03	4.281836E-15	6.523083E-17
6.220000E+03	4.434991E-15	6.806626E-17
6.230000E+03	4.591616E-15	7.104538E-17
6.240000E+03	4.745368E-15	7.407427E-17
6.250000E+03	4.889740E-15	7.705251E-17
6.260000E+03	5.019532E-15	7.989576E-17
6.270000E+03	5.129711E-15	8.251787E-17
6.280000E+03	5.216196E-15	8.484339E-17
6.290000E+03	5.276593E-15	8.682007E-17
6.300000E+03	5.309784E-15	8.841359E-17
6.310000E+03	5.315677E-15	8.960441E-17
6.320000E+03	5.296107E-15	9.040451E-17
6.330000E+03	5.254159E-15	9.084778E-17
6.340000E+03	5.193541E-15	9.098082E-17
6.350000E+03	5.119750E-15	9.088474E-17
6.360000E+03	5.038726E-15	9.065329E-17
6.370000E+03	4.956362E-15	9.038499E-17
6.380000E+03	4.880222E-15	9.021513E-17
6.390000E+03	4.816999E-15	9.027047E-17
6.400000E+03	4.772444E-15	9.066721E-17
6.410000E+03	4.750130E-15	9.148608E-17
6.420000E+03	4.747203E-15	9.268664E-17
6.430000E+03	4.758709E-15	9.418433E-17
6.440000E+03	4.780893E-15	9.591365E-17
6.450000E+03	4.810198E-15	9.780934E-17
6.460000E+03	4.842822E-15	9.979730E-17
6.470000E+03	4.876417E-15	1.018298E-16
6.480000E+03	4.908887E-15	1.038617E-16
6.490000E+03	4.938357E-15	1.058506E-16
6.500000E+03	4.963365E-15	1.077608E-16
6.510000E+03	4.982774E-15	1.095621E-16
6.520000E+03	4.995259E-15	1.112190E-16
6.530000E+03	4.999852E-15	1.127028E-16
6.540000E+03	4.995441E-15	1.139801E-16
6.550000E+03	4.980956E-15	1.150176E-16
6.560000E+03	4.955445E-15	1.157838E-16
6.570000E+03	4.917916E-15	1.162451E-16
6.580000E+03	4.867733E-15	1.163756E-16
6.590000E+03	4.804472E-15	1.161540E-16
6.600000E+03	4.728036E-15	1.155670E-16
6.610000E+03	4.638750E-15	1.146115E-16
6.620000E+03	4.537392E-15	1.132965E-16
6.630000E+03	4.425301E-15	1.116464E-16
6.640000E+03	4.303876E-15	1.096886E-16
6.650000E+03	4.175156E-15	1.074687E-16
6.660000E+03	4.041282E-15	1.050372E-16
6.670000E+03	3.904423E-15	1.024478E-16
6.680000E+03	3.766650E-15	9.975402E-17
6.690000E+03	3.630074E-15	9.701237E-17
6.700000E+03	3.496553E-15	9.427480E-17
6.710000E+03	3.367565E-15	9.158470E-17
6.720000E+03	3.244362E-15	8.898062E-17
6.730000E+03	3.128095E-15	8.649943E-17
6.740000E+03	3.019469E-15	8.416653E-17
6.750000E+03	2.918918E-15	8.200019E-17
6.760000E+03	2.826906E-15	8.001980E-17
6.770000E+03	2.743499E-15	7.823360E-17
6.780000E+03	2.668721E-15	7.664858E-17
6.790000E+03	2.602549E-15	7.527006E-17
6.800000E+03	2.544622E-15	7.409343E-17
6.810000E+03	2.494626E-15	7.311495E-17
6.820000E+03	2.452125E-15	7.232674E-17
6.830000E+03	2.416530E-15	7.171602E-17
6.840000E+03	2.387152E-15	7.126628E-17
6.850000E+03	2.363377E-15	7.096264E-17
6.860000E+03	2.344416E-15	7.078439E-17
6.870000E+03	2.329428E-15	7.070855E-17
6.880000E+03	2.317677E-15	7.071464E-17
6.890000E+03	2.308349E-15	7.077928E-17
6.900000E+03	2.300762E-15	7.088258E-17
6.910000E+03	2.294135E-15	7.100114E-17
6.920000E+03	2.287975E-15	7.112001E-17
6.930000E+03	2.281806E-15	7.122448E-17
6.940000E+03	2.275220E-15	7.130179E-17
6.950000E+03	2.268020E-15	7.134560E-17
6.960000E+03	2.260079E-15	7.135166E-17
6.970000E+03	2.251319E-15	7.131730E-17
6.980000E+03	2.241818E-15	7.124484E-17
6.990000E+03	2.231663E-15	7.113683E-17
7.000000E+03	2.221076E-15	7.100032E-17
7.010000E+03	2.210223E-15	7.084062E-17
7.020000E+03	2.199321E-15	7.066473E-17
7.030000E+03	2.188610E-15	7.048050E-17
7.040000E+03	2.178184E-15	7.029117E-17
7.050000E+03	2.168277E-15	7.010444E-17
7.060000E+03	2.158961E-15	6.992287E-17
7.070000E+03	2.150253E-15	6.974723E-17
7.080000E+03	2.142129E-15	6.957695E-17
7.090000E+03	2.134574E-15	6.941175E-17
7.100000E+03	2.127443E-15	6.924701E-17
7.110000E+03	2.120638E-15	6.907974E-17
7.120000E+03	2.113988E-15	6.890444E-17
7.130000E+03	2.107410E-15	6.871856E-17
7.140000E+03	2.100870E-15	6.852103E-17
7.150000E+03	2.094296E-15	6.830965E-17
7.160000E+03	2.087635E-15	6.808281E-17
7.170000E+03	2.080921E-15	6.784169E-17
7.180000E+03	2.074107E-15	6.758492E-17
7.190000E+03	2.067254E-15	6.731462E-17
7.200000E+03	2.060387E-15	6.703170E-17
7.210000E+03	2.053520E-15	6.673678E-17
7.220000E+03	2.046662E-15	6.643029E-17
7.230000E+03	2.039815E-15	6.611244E-17
7.240000E+03	2.032925E-15	6.578161E-17
7.250000E+03	2.026008E-15	6.543851E-17
7.260000E+03	2.018945E-15	6.507944E-17
7.270000E+03	2.011634E-15	6.470135E-17
7.280000E+03	2.003924E-15	6.429957E-17
7.290000E+03	1.995567E-15	6.386648E-17
7.300000E+03	1.986395E-15	6.339709E-17
7.310000E+03	1.976188E-15	6.288480E-17
7.320000E+03	1.964732E-15	6.232339E-17
7.330000E+03	1.951849E-15	6.170790E-17
7.340000E+03	1.937475E-15	6.103702E-17
7.350000E+03	1.921499E-15	6.030812E-17
7.360000E+03	1.903989E-15	5.952426E-17
7.370000E+03	1.885108E-15	5.869148E-17
7.380000E+03	1.864945E-15	5.781348E-17
7.390000E+03	1.843830E-15	5.690140E-17
7.400000E+03	1.822073E-15	5.596559E-17
7.410000E+03	1.800046E-15	5.501823E-17
7.420000E+03	1.778073E-15	5.406978E-17
7.430000E+03	1.756507E-15	5.313131E-17
7.440000E+03	1.735603E-15	5.221083E-17
7.450000E+03	1.715539E-15	5.131382E-17
7.460000E+03	1.696509E-15	5.044602E-17
7.470000E+03	1.678555E-15	4.960862E-17
7.480000E+03	1.661755E-15	4.880377E-17
7.490000E+03	1.646033E-15	4.802898E-17
7.500000E+03	1.631391E-15	4.728417E-17
7.510000E+03	1.617771E-15	4.656739E-17
7.520000E+03	1.605008E-15	4.587378E-17
7.530000E+03	1.593028E-15	4.520103E-17
7.540000E+03	1.581675E-15	4.454470E-17
7.550000E+03	1.570836E-15	4.390160E-17
7.560000E+03	1.560426E-15	4.326943E-17
7.570000E+03	1.550298E-15	4.264431E-17
7.580000E+03	1.540391E-15	4.202472E-17
7.590000E+03	1.530655E-15	4.140960E-17
7.600000E+03	1.521057E-15	4.079839E-17
7.610000E+03	1.511622E-15	4.019205E-17
7.620000E+03	1.502387E-15	3.959194E-17
7.630000E+03	1.493405E-15	3.899970E-17
7.640000E+03	1.484752E-15	3.841758E-17
7.650000E+03	1.476508E-15	3.784793E-17
7.660000E+03	1.468758E-15	3.729303E-17
7.670000E+03	1.461587E-15	3.675523E-17
7.680000E+03	1.455112E-15	3.623750E-17
7.690000E+03	1.449335E-15	3.573996E-17
7.700000E+03	1.444380E-15	3.526568E-17
7.710000E+03	1.440219E-15	3.481395E-17
7.720000E+03	1.436952E-15	3.438721E-17
7.730000E+03	1.434577E-15	3.398545E-17
7.740000E+03	1.433153E-15	3.361003E-17
7.750000E+03	1.432659E-15	3.326057E-17
7.760000E+03	1.433135E-15	3.293805E-17
