#wls	flux	fluxerr
1.600000E+03	2.508048E-15	2.739876E-16
1.640000E+03	2.006890E-15	2.172152E-16
1.680000E+03	1.588360E-15	1.703037E-16
1.720000E+03	1.244076E-15	1.321204E-16
1.760000E+03	9.655216E-16	1.015489E-16
1.800000E+03	7.434273E-16	7.742606E-17
1.840000E+03	5.691444E-16	5.868879E-17
1.880000E+03	4.342128E-16	4.432734E-17
1.920000E+03	3.310899E-16	3.345862E-17
1.960000E+03	2.532038E-16	2.532716E-17
2.000000E+03	1.950477E-16	1.930979E-17
2.040000E+03	1.521395E-16	1.490632E-17
2.080000E+03	1.209215E-16	1.172469E-17
2.120000E+03	9.881483E-17	9.481405E-18
2.160000E+03	8.395938E-17	7.971909E-18
2.200000E+03	7.507486E-17	7.053860E-18
2.240000E+03	7.140756E-17	6.639234E-18
2.280000E+03	7.272994E-17	6.691607E-18
2.320000E+03	7.931965E-17	7.221718E-18
2.360000E+03	9.204549E-17	8.292739E-18
2.400000E+03	1.124319E-16	1.002313E-17
2.440000E+03	1.427196E-16	1.258890E-17
2.480000E+03	1.855668E-16	1.619399E-17
2.520000E+03	2.436046E-16	2.102985E-17
2.560000E+03	3.183625E-16	2.718346E-17
2.600000E+03	4.091693E-16	3.454937E-17
2.640000E+03	5.124103E-16	4.277779E-17
2.680000E+03	6.223664E-16	5.135776E-17
2.720000E+03	7.325043E-16	5.973267E-17
2.760000E+03	8.369835E-16	6.742631E-17
2.800000E+03	9.310798E-16	7.407390E-17
2.840000E+03	1.011644E-15	7.945351E-17
2.880000E+03	1.077109E-15	8.347929E-17
2.920000E+03	1.127482E-15	8.619360E-17
2.960000E+03	1.163959E-15	8.772992E-17
3.000000E+03	1.188732E-15	8.829214E-17
3.010000E+03	1.193469E-15	8.831223E-17
3.020000E+03	1.197704E-15	8.829087E-17
3.030000E+03	1.201479E-15	8.823165E-17
3.040000E+03	1.204922E-15	8.814418E-17
3.050000E+03	1.208039E-15	8.802919E-17
3.060000E+03	1.210918E-15	8.789339E-17
3.070000E+03	1.213570E-15	8.773762E-17
3.080000E+03	1.216165E-15	8.757440E-17
3.090000E+03	1.218677E-15	8.740183E-17
3.100000E+03	1.221201E-15	8.722673E-17
3.110000E+03	1.223830E-15	8.705569E-17
3.120000E+03	1.226622E-15	8.689268E-17
3.130000E+03	1.229671E-15	8.674423E-17
3.140000E+03	1.233003E-15	8.661181E-17
3.150000E+03	1.236750E-15	8.650453E-17
3.160000E+03	1.240980E-15	8.642653E-17
3.170000E+03	1.245793E-15	8.638440E-17
3.180000E+03	1.251232E-15	8.638055E-17
3.190000E+03	1.257422E-15	8.642289E-17
3.200000E+03	1.264504E-15	8.652043E-17
3.210000E+03	1.272605E-15	8.668087E-17
3.220000E+03	1.281903E-15	8.691527E-17
3.230000E+03	1.292560E-15	8.723350E-17
3.240000E+03	1.304792E-15	8.764866E-17
3.250000E+03	1.318795E-15	8.817233E-17
3.260000E+03	1.334780E-15	8.881676E-17
3.270000E+03	1.353002E-15	8.959688E-17
3.280000E+03	1.373689E-15	9.052545E-17
3.290000E+03	1.397071E-15	9.161505E-17
3.300000E+03	1.423442E-15	9.288216E-17
3.310000E+03	1.453005E-15	9.433688E-17
3.320000E+03	1.485992E-15	9.599088E-17
3.330000E+03	1.522637E-15	9.785570E-17
3.340000E+03	1.563241E-15	9.994672E-17
3.350000E+03	1.607981E-15	1.022710E-16
3.360000E+03	1.657130E-15	1.048415E-16
3.370000E+03	1.710940E-15	1.076694E-16
3.380000E+03	1.769626E-15	1.107630E-16
3.390000E+03	1.833445E-15	1.141332E-16
3.400000E+03	1.902690E-15	1.177924E-16
3.410000E+03	1.977524E-15	1.217448E-16
3.420000E+03	2.058283E-15	1.260048E-16
3.430000E+03	2.145129E-15	1.305756E-16
3.440000E+03	2.238354E-15	1.354681E-16
3.450000E+03	2.338076E-15	1.406823E-16
3.460000E+03	2.444507E-15	1.462234E-16
3.470000E+03	2.557613E-15	1.520817E-16
3.480000E+03	2.677369E-15	1.582480E-16
3.490000E+03	2.803493E-15	1.646982E-16
3.500000E+03	2.935646E-15	1.714048E-16
3.510000E+03	3.073138E-15	1.783206E-16
3.520000E+03	3.215115E-15	1.853900E-16
3.530000E+03	3.360410E-15	1.925404E-16
3.540000E+03	3.507594E-15	1.996860E-16
3.550000E+03	3.655069E-15	2.067338E-16
3.560000E+03	3.800931E-15	2.135757E-16
3.570000E+03	3.943341E-15	2.201101E-16
3.580000E+03	4.080480E-15	2.262393E-16
3.590000E+03	4.210608E-15	2.318729E-16
3.600000E+03	4.332176E-15	2.369333E-16
3.610000E+03	4.443889E-15	2.413595E-16
3.620000E+03	4.544830E-15	2.451126E-16
3.630000E+03	4.634413E-15	2.481732E-16
3.640000E+03	4.712205E-15	2.505308E-16
3.650000E+03	4.778351E-15	2.522065E-16
3.660000E+03	4.833168E-15	2.532300E-16
3.670000E+03	4.877572E-15	2.536618E-16
3.680000E+03	4.912704E-15	2.535731E-16
3.690000E+03	4.940188E-15	2.530577E-16
3.700000E+03	4.962176E-15	2.522339E-16
3.710000E+03	4.981274E-15	2.512398E-16
3.720000E+03	5.000626E-15	2.502361E-16
3.730000E+03	5.023555E-15	2.493875E-16
3.740000E+03	5.053840E-15	2.488758E-16
3.750000E+03	5.095402E-15	2.488840E-16
3.760000E+03	5.152325E-15	2.495961E-16
3.770000E+03	5.228630E-15	2.511869E-16
3.780000E+03	5.328418E-15	2.538282E-16
3.790000E+03	5.455553E-15	2.576739E-16
3.800000E+03	5.613589E-15	2.628568E-16
3.810000E+03	5.805319E-15	2.694686E-16
3.820000E+03	6.032624E-15	2.775543E-16
3.830000E+03	6.295437E-15	2.870667E-16
3.840000E+03	6.592135E-15	2.978883E-16
3.850000E+03	6.919137E-15	3.098165E-16
3.860000E+03	7.271299E-15	3.225850E-16
3.870000E+03	7.641263E-15	3.358388E-16
3.880000E+03	8.020111E-15	3.491670E-16
3.890000E+03	8.397523E-15	3.621132E-16
3.900000E+03	8.761912E-15	3.741841E-16
3.910000E+03	9.101651E-15	3.849039E-16
3.920000E+03	9.405869E-15	3.938484E-16
3.930000E+03	9.664919E-15	4.006622E-16
3.940000E+03	9.871468E-15	4.051013E-16
3.950000E+03	1.002058E-14	4.070317E-16
3.960000E+03	1.011010E-14	4.064390E-16
3.970000E+03	1.014107E-14	4.034406E-16
3.980000E+03	1.011731E-14	3.982612E-16
3.990000E+03	1.004537E-14	3.912253E-16
4.000000E+03	9.933807E-15	3.827244E-16
4.010000E+03	9.793080E-15	3.732075E-16
4.020000E+03	9.634393E-15	3.631345E-16
4.030000E+03	9.468808E-15	3.529409E-16
4.040000E+03	9.306842E-15	3.430240E-16
4.050000E+03	9.157479E-15	3.337074E-16
4.060000E+03	9.028567E-15	3.252589E-16
4.070000E+03	8.926053E-15	3.178657E-16
4.080000E+03	8.854525E-15	3.116572E-16
4.090000E+03	8.816981E-15	3.067002E-16
4.100000E+03	8.814850E-15	3.030031E-16
4.110000E+03	8.848382E-15	3.005319E-16
4.120000E+03	8.916128E-15	2.991958E-16
4.130000E+03	9.015156E-15	2.988574E-16
4.140000E+03	9.141124E-15	2.993384E-16
4.150000E+03	9.288607E-15	3.004331E-16
4.160000E+03	9.451004E-15	3.019073E-16
4.170000E+03	9.621066E-15	3.035174E-16
4.180000E+03	9.790966E-15	3.050134E-16
4.190000E+03	9.952753E-15	3.061545E-16
4.200000E+03	1.009887E-14	3.067241E-16
4.210000E+03	1.022191E-14	3.065217E-16
4.220000E+03	1.031515E-14	3.053791E-16
4.230000E+03	1.037298E-14	3.031692E-16
4.240000E+03	1.039051E-14	2.997941E-16
4.250000E+03	1.036433E-14	2.952053E-16
4.260000E+03	1.029224E-14	2.893911E-16
4.270000E+03	1.017348E-14	2.823830E-16
4.280000E+03	1.000906E-14	2.742596E-16
4.290000E+03	9.801544E-15	2.651394E-16
4.300000E+03	9.555535E-15	2.551900E-16
4.310000E+03	9.277329E-15	2.446159E-16
4.320000E+03	8.975219E-15	2.336634E-16
4.330000E+03	8.658960E-15	2.226041E-16
4.340000E+03	8.339694E-15	2.117313E-16
4.350000E+03	8.028998E-15	2.013340E-16
4.360000E+03	7.738589E-15	1.916905E-16
4.370000E+03	7.479828E-15	1.830560E-16
4.380000E+03	7.263544E-15	1.756605E-16
4.390000E+03	7.098907E-15	1.696835E-16
4.400000E+03	6.993316E-15	1.652540E-16
4.410000E+03	6.952718E-15	1.624622E-16
4.420000E+03	6.981204E-15	1.613520E-16
4.430000E+03	7.081352E-15	1.619326E-16
4.440000E+03	7.254276E-15	1.641813E-16
4.450000E+03	7.499337E-15	1.680396E-16
4.460000E+03	7.813985E-15	1.734115E-16
4.470000E+03	8.193706E-15	1.801647E-16
4.480000E+03	8.632785E-15	1.881486E-16
4.490000E+03	9.128480E-15	1.972856E-16
4.500000E+03	9.679092E-15	2.075257E-16
4.510000E+03	1.028195E-14	2.187988E-16
4.520000E+03	1.093178E-14	2.309831E-16
4.530000E+03	1.161971E-14	2.438864E-16
4.540000E+03	1.233320E-14	2.572457E-16
4.550000E+03	1.305517E-14	2.707108E-16
4.560000E+03	1.376450E-14	2.838557E-16
4.570000E+03	1.443644E-14	2.961882E-16
4.580000E+03	1.504415E-14	3.071803E-16
4.590000E+03	1.556022E-14	3.162995E-16
4.600000E+03	1.595937E-14	3.230620E-16
4.610000E+03	1.622091E-14	3.270797E-16
4.620000E+03	1.633081E-14	3.280995E-16
4.630000E+03	1.628376E-14	3.260421E-16
4.640000E+03	1.608394E-14	3.210144E-16
4.650000E+03	1.574413E-14	3.132895E-16
4.660000E+03	1.528318E-14	3.032549E-16
4.670000E+03	1.472472E-14	2.913874E-16
4.680000E+03	1.409443E-14	2.781976E-16
4.690000E+03	1.341835E-14	2.641983E-16
4.700000E+03	1.272071E-14	2.498626E-16
4.710000E+03	1.202356E-14	2.356169E-16
4.720000E+03	1.134509E-14	2.218096E-16
4.730000E+03	1.070005E-14	2.087200E-16
4.740000E+03	1.009944E-14	1.965531E-16
4.750000E+03	9.551155E-15	1.854527E-16
4.760000E+03	9.060034E-15	1.755029E-16
4.770000E+03	8.628721E-15	1.667450E-16
4.780000E+03	8.258057E-15	1.591856E-16
4.790000E+03	7.947518E-15	1.528050E-16
4.800000E+03	7.695743E-15	1.475675E-16
4.810000E+03	7.500478E-15	1.434204E-16
4.820000E+03	7.358872E-15	1.402997E-16
4.830000E+03	7.267811E-15	1.381364E-16
4.840000E+03	7.223778E-15	1.368542E-16
4.850000E+03	7.222736E-15	1.363671E-16
4.860000E+03	7.260078E-15	1.365789E-16
4.870000E+03	7.329653E-15	1.373648E-16
4.880000E+03	7.423893E-15	1.385750E-16
4.890000E+03	7.533540E-15	1.400297E-16
4.900000E+03	7.648235E-15	1.415315E-16
4.910000E+03	7.757063E-15	1.428760E-16
4.920000E+03	7.849440E-15	1.438689E-16
4.930000E+03	7.916018E-15	1.443425E-16
4.940000E+03	7.950018E-15	1.441800E-16
4.950000E+03	7.947640E-15	1.433217E-16
4.960000E+03	7.908675E-15	1.417750E-16
4.970000E+03	7.836486E-15	1.396120E-16
4.980000E+03	7.737431E-15	1.369572E-16
4.990000E+03	7.620317E-15	1.339762E-16
5.000000E+03	7.495138E-15	1.308518E-16
5.010000E+03	7.372300E-15	1.277693E-16
5.020000E+03	7.261526E-15	1.248970E-16
5.030000E+03	7.171355E-15	1.223781E-16
5.040000E+03	7.108909E-15	1.203265E-16
5.050000E+03	7.079933E-15	1.188288E-16
5.060000E+03	7.089158E-15	1.179510E-16
5.070000E+03	7.140465E-15	1.177413E-16
5.080000E+03	7.237259E-15	1.182376E-16
5.090000E+03	7.382901E-15	1.194743E-16
5.100000E+03	7.580595E-15	1.214805E-16
5.110000E+03	7.833390E-15	1.242807E-16
5.120000E+03	8.143894E-15	1.278900E-16
5.130000E+03	8.514277E-15	1.323148E-16
5.140000E+03	8.945097E-15	1.375354E-16
5.150000E+03	9.435427E-15	1.435095E-16
5.160000E+03	9.981787E-15	1.501575E-16
5.170000E+03	1.057773E-14	1.573588E-16
5.180000E+03	1.121357E-14	1.649508E-16
5.190000E+03	1.187633E-14	1.727309E-16
5.200000E+03	1.254980E-14	1.804604E-16
5.210000E+03	1.321583E-14	1.878853E-16
5.220000E+03	1.385485E-14	1.947455E-16
5.230000E+03	1.444722E-14	2.007941E-16
5.240000E+03	1.497444E-14	2.058135E-16
5.250000E+03	1.542077E-14	2.096350E-16
5.260000E+03	1.577327E-14	2.121377E-16
5.270000E+03	1.602370E-14	2.132689E-16
5.280000E+03	1.616731E-14	2.130245E-16
5.290000E+03	1.620363E-14	2.114558E-16
5.300000E+03	1.613540E-14	2.086519E-16
5.310000E+03	1.596791E-14	2.047283E-16
5.320000E+03	1.570938E-14	1.998299E-16
5.330000E+03	1.536931E-14	1.941089E-16
5.340000E+03	1.495951E-14	1.877362E-16
5.350000E+03	1.449425E-14	1.809042E-16
5.360000E+03	1.398997E-14	1.738219E-16
5.370000E+03	1.346563E-14	1.667211E-16
5.380000E+03	1.294255E-14	1.598553E-16
5.390000E+03	1.244424E-14	1.534977E-16
5.400000E+03	1.199403E-14	1.479094E-16
5.410000E+03	1.161309E-14	1.433252E-16
5.420000E+03	1.131600E-14	1.399049E-16
5.430000E+03	1.109893E-14	1.375872E-16
5.440000E+03	1.094299E-14	1.361293E-16
5.450000E+03	1.082717E-14	1.352627E-16
5.460000E+03	1.073223E-14	1.347400E-16
5.470000E+03	1.064146E-14	1.343429E-16
5.480000E+03	1.054181E-14	1.338955E-16
5.490000E+03	1.042322E-14	1.332564E-16
5.500000E+03	1.027916E-14	1.323263E-16
5.510000E+03	1.010582E-14	1.310388E-16
5.520000E+03	9.902029E-15	1.293604E-16
5.530000E+03	9.668970E-15	1.272881E-16
5.540000E+03	9.409350E-15	1.248403E-16
5.550000E+03	9.127124E-15	1.220534E-16
5.560000E+03	8.827264E-15	1.189801E-16
5.570000E+03	8.514811E-15	1.156772E-16
5.580000E+03	8.194964E-15	1.122064E-16
5.590000E+03	7.872764E-15	1.086306E-16
5.600000E+03	7.552940E-15	1.050117E-16
5.610000E+03	7.239845E-15	1.014088E-16
5.620000E+03	6.937445E-15	9.787832E-17
5.630000E+03	6.649324E-15	9.447351E-17
5.640000E+03	6.378717E-15	9.124450E-17
5.650000E+03	6.128569E-15	8.823886E-17
5.660000E+03	5.901591E-15	8.550200E-17
5.670000E+03	5.700322E-15	8.307784E-17
5.680000E+03	5.526959E-15	8.100603E-17
5.690000E+03	5.383527E-15	7.932401E-17
5.700000E+03	5.272101E-15	7.807024E-17
5.710000E+03	5.194220E-15	7.727516E-17
5.720000E+03	5.151569E-15	7.697111E-17
5.730000E+03	5.145330E-15	7.718246E-17
5.740000E+03	5.176790E-15	7.793452E-17
5.750000E+03	5.246575E-15	7.924186E-17
5.760000E+03	5.355315E-15	8.111815E-17
5.770000E+03	5.502986E-15	8.356614E-17
5.780000E+03	5.688912E-15	8.657746E-17
5.790000E+03	5.911705E-15	9.013168E-17
5.800000E+03	6.168919E-15	9.419101E-17
5.810000E+03	6.456634E-15	9.869390E-17
5.820000E+03	6.769572E-15	1.035570E-16
5.830000E+03	7.101265E-15	1.086777E-16
5.840000E+03	7.444017E-15	1.139342E-16
5.850000E+03	7.789392E-15	1.191931E-16
5.860000E+03	8.128261E-15	1.243109E-16
5.870000E+03	8.451365E-15	1.291426E-16
5.880000E+03	8.749184E-15	1.335408E-16
5.890000E+03	9.012827E-15	1.373691E-16
5.900000E+03	9.233758E-15	1.404987E-16
5.910000E+03	9.404258E-15	1.428156E-16
5.920000E+03	9.517698E-15	1.442246E-16
5.930000E+03	9.568814E-15	1.446536E-16
5.940000E+03	9.554093E-15	1.440592E-16
5.950000E+03	9.471789E-15	1.424265E-16
5.960000E+03	9.322224E-15	1.397731E-16
5.970000E+03	9.108065E-15	1.361524E-16
5.980000E+03	8.834305E-15	1.316527E-16
5.990000E+03	8.507858E-15	1.263900E-16
6.000000E+03	8.137927E-15	1.205129E-16
6.010000E+03	7.734999E-15	1.141868E-16
6.020000E+03	7.310254E-15	1.075845E-16
6.030000E+03	6.875419E-15	1.008839E-16
6.040000E+03	6.442197E-15	9.425976E-17
6.050000E+03	6.021401E-15	8.787060E-17
6.060000E+03	5.623094E-15	8.186174E-17
6.070000E+03	5.255514E-15	7.634994E-17
6.080000E+03	4.925373E-15	7.142853E-17
6.090000E+03	4.637528E-15	6.716351E-17
6.100000E+03	4.395204E-15	6.359737E-17
6.110000E+03	4.199967E-15	6.074951E-17
6.120000E+03	4.052048E-15	5.862135E-17
6.130000E+03	3.950369E-15	5.719716E-17
6.140000E+03	3.892674E-15	5.644619E-17
6.150000E+03	3.875937E-15	5.632865E-17
6.160000E+03	3.896845E-15	5.680266E-17
6.170000E+03	3.951759E-15	5.782351E-17
6.180000E+03	4.036935E-15	5.934671E-17
6.190000E+03	4.148009E-15	6.131998E-17
6.200000E+03	4.280231E-15	6.368621E-17
6.210000E+03	4.428136E-15	6.637694E-17
6.220000E+03	4.585726E-15	6.931196E-17
6.230000E+03	4.746574E-15	7.240145E-17
6.240000E+03	4.904145E-15	7.555026E-17
6.250000E+03	5.052044E-15	7.866090E-17
6.260000E+03	5.184263E-15	8.163674E-17
6.270000E+03	5.295747E-15	8.439060E-17
6.280000E+03	5.382534E-15	8.684751E-17
6.290000E+03	5.441942E-15	8.894836E-17
6.300000E+03	5.472748E-15	9.065415E-17
6.310000E+03	5.475302E-15	9.194943E-17
6.320000E+03	5.451435E-15	9.284274E-17
6.330000E+03	5.404240E-15	9.336483E-17
6.340000E+03	5.338052E-15	9.357022E-17
6.350000E+03	5.258118E-15	9.353337E-17
6.360000E+03	5.170565E-15	9.334960E-17
6.370000E+03	5.081895E-15	9.312762E-17
6.380000E+03	4.998958E-15	9.298978E-17
6.390000E+03	4.928332E-15	9.306122E-17
6.400000E+03	4.875623E-15	9.345640E-17
6.410000E+03	4.843351E-15	9.423674E-17
6.420000E+03	4.829436E-15	9.537628E-17
6.430000E+03	4.830142E-15	9.681400E-17
6.440000E+03	4.841628E-15	9.848267E-17
6.450000E+03	4.860083E-15	1.003113E-16
6.460000E+03	4.882594E-15	1.022435E-16
6.470000E+03	4.906469E-15	1.042240E-16
6.480000E+03	4.929644E-15	1.062078E-16
6.490000E+03	4.950558E-15	1.081587E-16
6.500000E+03	4.967566E-15	1.100365E-16
6.510000E+03	4.979657E-15	1.118137E-16
6.520000E+03	4.985555E-15	1.134551E-16
6.530000E+03	4.984196E-15	1.149292E-16
6.540000E+03	4.974626E-15	1.162058E-16
6.550000E+03	4.955782E-15	1.172512E-16
6.560000E+03	4.926732E-15	1.180336E-16
6.570000E+03	4.886657E-15	1.185229E-16
6.580000E+03	4.834936E-15	1.186932E-16
6.590000E+03	4.771140E-15	1.185229E-16
6.600000E+03	4.695377E-15	1.180036E-16
6.610000E+03	4.607846E-15	1.171295E-16
6.620000E+03	4.509372E-15	1.159116E-16
6.630000E+03	4.401015E-15	1.143679E-16
6.640000E+03	4.284319E-15	1.125310E-16
6.650000E+03	4.160978E-15	1.104392E-16
6.660000E+03	4.032936E-15	1.081396E-16
6.670000E+03	3.902261E-15	1.056853E-16
6.680000E+03	3.770876E-15	1.031274E-16
6.690000E+03	3.640654E-15	1.005181E-16
6.700000E+03	3.513288E-15	9.790651E-17
6.710000E+03	3.390295E-15	9.533855E-17
6.720000E+03	3.272839E-15	9.285167E-17
6.730000E+03	3.161889E-15	9.047885E-17
6.740000E+03	3.058176E-15	8.824705E-17
6.750000E+03	2.962215E-15	8.617753E-17
6.760000E+03	2.874331E-15	8.428632E-17
6.770000E+03	2.794728E-15	8.258601E-17
6.780000E+03	2.723370E-15	8.108201E-17
6.790000E+03	2.660185E-15	7.977845E-17
6.800000E+03	2.604839E-15	7.867126E-17
6.810000E+03	2.557074E-15	7.775818E-17
6.820000E+03	2.516439E-15	7.703068E-17
6.830000E+03	2.482349E-15	7.647548E-17
6.840000E+03	2.454188E-15	7.607765E-17
6.850000E+03	2.431317E-15	7.582101E-17
6.860000E+03	2.412966E-15	7.568450E-17
6.870000E+03	2.398416E-15	7.564809E-17
6.880000E+03	2.386863E-15	7.568830E-17
6.890000E+03	2.377595E-15	7.578410E-17
6.900000E+03	2.369898E-15	7.591367E-17
6.910000E+03	2.363080E-15	7.605555E-17
6.920000E+03	2.356666E-15	7.619473E-17
6.930000E+03	2.350111E-15	7.631372E-17
6.940000E+03	2.343062E-15	7.640091E-17
6.950000E+03	2.335361E-15	7.645098E-17
6.960000E+03	2.326794E-15	7.645664E-17
6.970000E+03	2.317403E-15	7.641905E-17
6.980000E+03	2.307152E-15	7.633678E-17
6.990000E+03	2.296198E-15	7.621485E-17
7.000000E+03	2.284700E-15	7.605847E-17
7.010000E+03	2.272893E-15	7.587548E-17
7.020000E+03	2.260899E-15	7.566996E-17
7.030000E+03	2.249001E-15	7.545153E-17
7.040000E+03	2.237332E-15	7.522489E-17
7.050000E+03	2.225997E-15	7.499375E-17
7.060000E+03	2.215218E-15	7.476581E-17
7.070000E+03	2.204916E-15	7.453868E-17
7.080000E+03	2.195168E-15	7.431523E-17
7.090000E+03	2.185891E-15	7.409279E-17
7.100000E+03	2.177046E-15	7.387032E-17
7.110000E+03	2.168496E-15	7.364326E-17
7.120000E+03	2.160182E-15	7.340986E-17
7.130000E+03	2.151980E-15	7.316598E-17
7.140000E+03	2.143858E-15	7.291073E-17
7.150000E+03	2.135764E-15	7.264246E-17
7.160000E+03	2.127626E-15	7.235885E-17
7.170000E+03	2.119508E-15	7.206224E-17
7.180000E+03	2.111324E-15	7.174986E-17
7.190000E+03	2.103076E-15	7.142195E-17
7.200000E+03	2.094856E-15	7.108180E-17
7.210000E+03	2.086625E-15	7.072826E-17
7.220000E+03	2.078380E-15	7.036138E-17
7.230000E+03	2.070105E-15	6.998081E-17
7.240000E+03	2.061799E-15	6.958673E-17
7.250000E+03	2.053313E-15	6.917423E-17
7.260000E+03	2.044627E-15	6.874297E-17
7.270000E+03	2.035563E-15	6.828717E-17
7.280000E+03	2.025988E-15	6.780269E-17
7.290000E+03	2.015659E-15	6.728180E-17
7.300000E+03	2.004408E-15	6.671930E-17
7.310000E+03	1.991982E-15	6.610736E-17
7.320000E+03	1.978234E-15	6.544175E-17
7.330000E+03	1.963011E-15	6.471820E-17
7.340000E+03	1.946256E-15	6.393566E-17
7.350000E+03	1.927890E-15	6.309250E-17
7.360000E+03	1.907947E-15	6.219088E-17
7.370000E+03	1.886628E-15	6.123835E-17
7.380000E+03	1.864076E-15	6.024063E-17
7.390000E+03	1.840581E-15	5.920801E-17
7.400000E+03	1.816438E-15	5.815098E-17
7.410000E+03	1.792054E-15	5.708330E-17
7.420000E+03	1.767754E-15	5.601594E-17
7.430000E+03	1.743813E-15	5.495807E-17
7.440000E+03	1.720554E-15	5.392021E-17
7.450000E+03	1.698173E-15	5.290858E-17
7.460000E+03	1.676773E-15	5.192645E-17
7.470000E+03	1.656516E-15	5.097875E-17
7.480000E+03	1.637431E-15	5.006625E-17
7.490000E+03	1.619503E-15	4.918817E-17
7.500000E+03	1.602706E-15	4.834359E-17
7.510000E+03	1.586984E-15	4.753050E-17
7.520000E+03	1.572253E-15	4.674618E-17
7.530000E+03	1.558376E-15	4.598636E-17
7.540000E+03	1.545276E-15	4.524868E-17
7.550000E+03	1.532803E-15	4.452865E-17
7.560000E+03	1.520848E-15	4.382310E-17
7.570000E+03	1.509389E-15	4.313145E-17
7.580000E+03	1.498246E-15	4.244871E-17
7.590000E+03	1.487443E-15	4.177572E-17
7.600000E+03	1.476928E-15	4.111124E-17
7.610000E+03	1.466748E-15	4.045676E-17
7.620000E+03	1.456904E-15	3.981256E-17
7.630000E+03	1.447491E-15	3.918139E-17
7.640000E+03	1.438550E-15	3.856448E-17
7.650000E+03	1.430202E-15	3.796516E-17
7.660000E+03	1.422505E-15	3.738501E-17
7.670000E+03	1.415585E-15	3.682728E-17
7.680000E+03	1.409529E-15	3.629414E-17
7.690000E+03	1.404380E-15	3.578652E-17
7.700000E+03	1.400201E-15	3.530587E-17
7.710000E+03	1.397112E-15	3.485497E-17
7.720000E+03	1.395081E-15	3.443284E-17
7.730000E+03	1.394142E-15	3.404009E-17
7.740000E+03	1.394391E-15	3.367885E-17
7.750000E+03	1.395780E-15	3.334781E-17
7.760000E+03	1.398369E-15	3.304831E-17
