#wls	flux	fluxerr
1.600000E+03	3.233932E-15	2.955984E-16
1.640000E+03	2.617992E-15	2.370348E-16
1.680000E+03	2.093966E-15	1.877693E-16
1.720000E+03	1.655437E-15	1.470011E-16
1.760000E+03	1.295033E-15	1.138639E-16
1.800000E+03	1.003434E-15	8.734521E-17
1.840000E+03	7.716494E-16	6.649171E-17
1.880000E+03	5.902734E-16	5.034475E-17
1.920000E+03	4.505280E-16	3.803097E-17
1.960000E+03	3.442929E-16	2.876236E-17
2.000000E+03	2.645569E-16	2.187099E-17
2.040000E+03	2.054018E-16	1.680292E-17
2.080000E+03	1.621133E-16	1.312245E-17
2.120000E+03	1.312773E-16	1.051462E-17
2.160000E+03	1.105420E-16	8.760690E-18
2.200000E+03	9.820746E-17	7.701389E-18
2.240000E+03	9.320914E-17	7.232880E-18
2.280000E+03	9.522711E-17	7.312378E-18
2.320000E+03	1.047025E-16	7.956371E-18
2.360000E+03	1.230200E-16	9.251322E-18
2.400000E+03	1.526099E-16	1.135746E-17
2.440000E+03	1.969656E-16	1.450601E-17
2.480000E+03	2.603097E-16	1.897074E-17
2.520000E+03	3.467119E-16	2.500132E-17
2.560000E+03	4.585702E-16	3.271542E-17
2.600000E+03	5.947084E-16	4.197029E-17
2.640000E+03	7.493108E-16	5.230181E-17
2.680000E+03	9.137013E-16	6.306496E-17
2.720000E+03	1.078700E-15	7.360589E-17
2.760000E+03	1.236463E-15	8.338855E-17
2.800000E+03	1.381040E-15	9.202720E-17
2.840000E+03	1.508653E-15	9.929833E-17
2.880000E+03	1.617096E-15	1.050932E-16
2.920000E+03	1.705685E-15	1.094093E-16
2.960000E+03	1.775043E-15	1.123304E-16
3.000000E+03	1.827027E-15	1.140166E-16
3.010000E+03	1.837649E-15	1.142712E-16
3.020000E+03	1.847422E-15	1.144664E-16
3.030000E+03	1.856450E-15	1.146091E-16
3.040000E+03	1.864791E-15	1.147033E-16
3.050000E+03	1.872562E-15	1.147567E-16
3.060000E+03	1.879832E-15	1.147737E-16
3.070000E+03	1.886680E-15	1.147595E-16
3.080000E+03	1.893239E-15	1.147224E-16
3.090000E+03	1.899601E-15	1.146680E-16
3.100000E+03	1.905964E-15	1.146084E-16
3.110000E+03	1.912335E-15	1.145439E-16
3.120000E+03	1.918973E-15	1.144901E-16
3.130000E+03	1.925907E-15	1.144483E-16
3.140000E+03	1.933411E-15	1.144345E-16
3.150000E+03	1.941533E-15	1.144511E-16
3.160000E+03	1.950522E-15	1.145122E-16
3.170000E+03	1.960588E-15	1.146294E-16
3.180000E+03	1.971866E-15	1.148099E-16
3.190000E+03	1.984639E-15	1.150689E-16
3.200000E+03	1.999071E-15	1.154149E-16
3.210000E+03	2.015432E-15	1.158621E-16
3.220000E+03	2.034005E-15	1.164251E-16
3.230000E+03	2.055048E-15	1.171170E-16
3.240000E+03	2.078874E-15	1.179535E-16
3.250000E+03	2.105770E-15	1.189488E-16
3.260000E+03	2.136036E-15	1.201171E-16
3.270000E+03	2.170027E-15	1.214757E-16
3.280000E+03	2.208068E-15	1.230397E-16
3.290000E+03	2.250491E-15	1.248241E-16
3.300000E+03	2.297680E-15	1.268468E-16
3.310000E+03	2.349984E-15	1.291227E-16
3.320000E+03	2.407798E-15	1.316695E-16
3.330000E+03	2.471394E-15	1.344973E-16
3.340000E+03	2.541214E-15	1.376251E-16
3.350000E+03	2.617525E-15	1.410622E-16
3.360000E+03	2.700807E-15	1.448287E-16
3.370000E+03	2.791265E-15	1.489297E-16
3.380000E+03	2.889221E-15	1.533760E-16
3.390000E+03	2.995065E-15	1.581818E-16
3.400000E+03	3.108930E-15	1.633472E-16
3.410000E+03	3.231046E-15	1.688773E-16
3.420000E+03	3.361600E-15	1.747742E-16
3.430000E+03	3.500671E-15	1.810346E-16
3.440000E+03	3.648270E-15	1.876515E-16
3.450000E+03	3.804266E-15	1.946104E-16
3.460000E+03	3.968509E-15	2.018959E-16
3.470000E+03	4.140529E-15	2.094767E-16
3.480000E+03	4.319917E-15	2.173247E-16
3.490000E+03	4.505769E-15	2.253879E-16
3.500000E+03	4.697307E-15	2.336212E-16
3.510000E+03	4.893234E-15	2.419549E-16
3.520000E+03	5.092131E-15	2.503145E-16
3.530000E+03	5.292269E-15	2.586123E-16
3.540000E+03	5.491832E-15	2.667582E-16
3.550000E+03	5.688601E-15	2.746448E-16
3.560000E+03	5.880462E-15	2.821724E-16
3.570000E+03	6.065231E-15	2.892404E-16
3.580000E+03	6.240895E-15	2.957592E-16
3.590000E+03	6.405498E-15	3.016441E-16
3.600000E+03	6.557502E-15	3.068326E-16
3.610000E+03	6.695645E-15	3.112768E-16
3.620000E+03	6.819151E-15	3.149530E-16
3.630000E+03	6.927693E-15	3.178590E-16
3.640000E+03	7.021365E-15	3.200126E-16
3.650000E+03	7.100832E-15	3.214570E-16
3.660000E+03	7.167336E-15	3.222611E-16
3.670000E+03	7.222546E-15	3.225114E-16
3.680000E+03	7.268826E-15	3.223229E-16
3.690000E+03	7.308624E-15	3.218117E-16
3.700000E+03	7.345207E-15	3.211267E-16
3.710000E+03	7.381907E-15	3.204157E-16
3.720000E+03	7.422541E-15	3.198430E-16
3.730000E+03	7.471057E-15	3.195738E-16
3.740000E+03	7.531457E-15	3.197707E-16
3.750000E+03	7.607937E-15	3.205990E-16
3.760000E+03	7.704562E-15	3.222135E-16
3.770000E+03	7.825296E-15	3.247594E-16
3.780000E+03	7.973761E-15	3.283626E-16
3.790000E+03	8.153165E-15	3.331273E-16
3.800000E+03	8.365907E-15	3.391207E-16
3.810000E+03	8.613669E-15	3.463779E-16
3.820000E+03	8.896888E-15	3.548821E-16
3.830000E+03	9.214571E-15	3.645592E-16
3.840000E+03	9.564251E-15	3.752786E-16
3.850000E+03	9.941690E-15	3.868436E-16
3.860000E+03	1.034147E-14	3.990180E-16
3.870000E+03	1.075605E-14	4.114910E-16
3.880000E+03	1.117681E-14	4.239207E-16
3.890000E+03	1.159421E-14	4.359428E-16
3.900000E+03	1.199762E-14	4.471638E-16
3.910000E+03	1.237677E-14	4.572190E-16
3.920000E+03	1.272165E-14	4.657659E-16
3.930000E+03	1.302359E-14	4.725246E-16
3.940000E+03	1.327584E-14	4.772951E-16
3.950000E+03	1.347361E-14	4.799574E-16
3.960000E+03	1.361492E-14	4.804958E-16
3.970000E+03	1.370043E-14	4.789907E-16
3.980000E+03	1.373326E-14	4.756063E-16
3.990000E+03	1.371926E-14	4.705967E-16
4.000000E+03	1.366556E-14	4.642512E-16
4.010000E+03	1.358101E-14	4.569086E-16
4.020000E+03	1.347498E-14	4.489123E-16
4.030000E+03	1.335695E-14	4.405970E-16
4.040000E+03	1.323605E-14	4.322737E-16
4.050000E+03	1.312041E-14	4.242101E-16
4.060000E+03	1.301732E-14	4.166342E-16
4.070000E+03	1.293249E-14	4.097167E-16
4.080000E+03	1.287041E-14	4.035812E-16
4.090000E+03	1.283392E-14	3.982956E-16
4.100000E+03	1.282458E-14	3.938841E-16
4.110000E+03	1.284243E-14	3.903229E-16
4.120000E+03	1.288617E-14	3.875492E-16
4.130000E+03	1.295311E-14	3.854599E-16
4.140000E+03	1.303938E-14	3.839210E-16
4.150000E+03	1.314011E-14	3.827750E-16
4.160000E+03	1.324970E-14	3.818493E-16
4.170000E+03	1.336174E-14	3.809554E-16
4.180000E+03	1.346965E-14	3.799087E-16
4.190000E+03	1.356658E-14	3.785245E-16
4.200000E+03	1.364611E-14	3.766388E-16
4.210000E+03	1.370178E-14	3.740939E-16
4.220000E+03	1.372828E-14	3.707707E-16
4.230000E+03	1.372062E-14	3.665641E-16
4.240000E+03	1.367511E-14	3.614092E-16
4.250000E+03	1.358944E-14	3.552801E-16
4.260000E+03	1.346229E-14	3.481789E-16
4.270000E+03	1.329416E-14	3.401543E-16
4.280000E+03	1.308729E-14	3.312976E-16
4.290000E+03	1.284549E-14	3.217360E-16
4.300000E+03	1.257420E-14	3.116318E-16
4.310000E+03	1.228059E-14	3.011828E-16
4.320000E+03	1.197318E-14	2.906112E-16
4.330000E+03	1.166131E-14	2.801501E-16
4.340000E+03	1.135541E-14	2.700481E-16
4.350000E+03	1.106587E-14	2.605433E-16
4.360000E+03	1.080339E-14	2.518704E-16
4.370000E+03	1.057771E-14	2.442333E-16
4.380000E+03	1.039884E-14	2.378345E-16
4.390000E+03	1.027569E-14	2.328432E-16
4.400000E+03	1.021515E-14	2.293788E-16
4.410000E+03	1.022294E-14	2.275307E-16
4.420000E+03	1.030262E-14	2.273391E-16
4.430000E+03	1.045597E-14	2.288051E-16
4.440000E+03	1.068279E-14	2.318893E-16
4.450000E+03	1.098112E-14	2.365174E-16
4.460000E+03	1.134662E-14	2.425697E-16
4.470000E+03	1.177289E-14	2.498879E-16
4.480000E+03	1.225209E-14	2.582900E-16
4.490000E+03	1.277762E-14	2.676237E-16
4.500000E+03	1.334319E-14	2.777474E-16
4.510000E+03	1.394082E-14	2.884897E-16
4.520000E+03	1.456061E-14	2.996435E-16
4.530000E+03	1.518987E-14	3.109497E-16
4.540000E+03	1.581372E-14	3.221099E-16
4.550000E+03	1.641509E-14	3.327860E-16
4.560000E+03	1.697540E-14	3.426155E-16
4.570000E+03	1.747531E-14	3.512240E-16
4.580000E+03	1.789617E-14	3.582563E-16
4.590000E+03	1.822087E-14	3.633898E-16
4.600000E+03	1.843543E-14	3.663677E-16
4.610000E+03	1.852997E-14	3.670138E-16
4.620000E+03	1.849987E-14	3.652562E-16
4.630000E+03	1.834519E-14	3.611133E-16
4.640000E+03	1.807213E-14	3.547218E-16
4.650000E+03	1.769105E-14	3.462965E-16
4.660000E+03	1.721662E-14	3.361322E-16
4.670000E+03	1.666573E-14	3.245642E-16
4.680000E+03	1.605754E-14	3.119669E-16
4.690000E+03	1.541085E-14	2.987056E-16
4.700000E+03	1.474448E-14	2.851419E-16
4.710000E+03	1.407554E-14	2.716022E-16
4.720000E+03	1.341925E-14	2.583742E-16
4.730000E+03	1.278843E-14	2.456977E-16
4.740000E+03	1.219327E-14	2.337612E-16
4.750000E+03	1.164154E-14	2.227055E-16
4.760000E+03	1.113877E-14	2.126284E-16
4.770000E+03	1.068832E-14	2.035854E-16
4.780000E+03	1.029212E-14	1.956053E-16
4.790000E+03	9.950598E-15	1.886883E-16
4.800000E+03	9.663243E-15	1.828164E-16
4.810000E+03	9.428620E-15	1.779548E-16
4.820000E+03	9.244433E-15	1.740525E-16
4.830000E+03	9.107800E-15	1.710476E-16
4.840000E+03	9.015035E-15	1.688637E-16
4.850000E+03	8.961805E-15	1.674128E-16
4.860000E+03	8.943011E-15	1.665930E-16
4.870000E+03	8.952691E-15	1.662875E-16
4.880000E+03	8.983607E-15	1.663566E-16
4.890000E+03	9.027889E-15	1.666505E-16
4.900000E+03	9.077273E-15	1.670141E-16
4.910000E+03	9.123852E-15	1.673004E-16
4.920000E+03	9.160591E-15	1.673808E-16
4.930000E+03	9.181960E-15	1.671559E-16
4.940000E+03	9.184721E-15	1.665697E-16
4.950000E+03	9.167961E-15	1.656093E-16
4.960000E+03	9.133026E-15	1.643034E-16
4.970000E+03	9.083424E-15	1.627190E-16
4.980000E+03	9.024672E-15	1.609583E-16
4.990000E+03	8.963254E-15	1.591394E-16
5.000000E+03	8.906181E-15	1.573876E-16
5.010000E+03	8.860946E-15	1.558344E-16
5.020000E+03	8.834744E-15	1.546035E-16
5.030000E+03	8.834023E-15	1.538031E-16
5.040000E+03	8.864407E-15	1.535245E-16
5.050000E+03	8.931159E-15	1.538506E-16
5.060000E+03	9.038495E-15	1.548441E-16
5.070000E+03	9.190163E-15	1.565580E-16
5.080000E+03	9.389192E-15	1.590313E-16
5.090000E+03	9.638039E-15	1.622920E-16
5.100000E+03	9.938568E-15	1.663573E-16
5.110000E+03	1.029153E-14	1.712249E-16
5.120000E+03	1.069689E-14	1.768790E-16
5.130000E+03	1.115286E-14	1.832761E-16
5.140000E+03	1.165601E-14	1.903458E-16
5.150000E+03	1.220070E-14	1.979845E-16
5.160000E+03	1.277872E-14	2.060498E-16
5.170000E+03	1.337978E-14	2.143700E-16
5.180000E+03	1.399073E-14	2.227333E-16
5.190000E+03	1.459678E-14	2.309079E-16
5.200000E+03	1.518149E-14	2.386428E-16
5.210000E+03	1.572837E-14	2.456941E-16
5.220000E+03	1.622159E-14	2.518343E-16
5.230000E+03	1.664651E-14	2.568618E-16
5.240000E+03	1.699147E-14	2.606250E-16
5.250000E+03	1.724791E-14	2.630246E-16
5.260000E+03	1.741086E-14	2.640169E-16
5.270000E+03	1.747893E-14	2.636133E-16
5.280000E+03	1.745464E-14	2.618819E-16
5.290000E+03	1.734294E-14	2.589249E-16
5.300000E+03	1.715125E-14	2.548768E-16
5.310000E+03	1.688893E-14	2.498966E-16
5.320000E+03	1.656595E-14	2.441473E-16
5.330000E+03	1.619335E-14	2.378024E-16
5.340000E+03	1.578231E-14	2.310328E-16
5.350000E+03	1.534473E-14	2.240157E-16
5.360000E+03	1.489254E-14	2.169246E-16
5.370000E+03	1.443751E-14	2.099277E-16
5.380000E+03	1.399195E-14	2.031987E-16
5.390000E+03	1.356792E-14	1.969045E-16
5.400000E+03	1.317624E-14	1.911889E-16
5.410000E+03	1.282600E-14	1.861707E-16
5.420000E+03	1.252391E-14	1.819360E-16
5.430000E+03	1.226897E-14	1.784615E-16
5.440000E+03	1.205469E-14	1.756458E-16
5.450000E+03	1.187268E-14	1.733612E-16
5.460000E+03	1.171429E-14	1.714763E-16
5.470000E+03	1.157090E-14	1.698606E-16
5.480000E+03	1.143453E-14	1.683914E-16
5.490000E+03	1.129817E-14	1.669604E-16
5.500000E+03	1.115615E-14	1.654773E-16
5.510000E+03	1.100394E-14	1.638681E-16
5.520000E+03	1.083851E-14	1.620801E-16
5.530000E+03	1.065808E-14	1.600786E-16
5.540000E+03	1.046247E-14	1.578528E-16
5.550000E+03	1.025227E-14	1.554036E-16
5.560000E+03	1.002895E-14	1.527458E-16
5.570000E+03	9.794846E-15	1.499076E-16
5.580000E+03	9.552864E-15	1.469275E-16
5.590000E+03	9.306083E-15	1.438476E-16
5.600000E+03	9.057898E-15	1.407162E-16
5.610000E+03	8.811786E-15	1.375843E-16
5.620000E+03	8.571212E-15	1.345044E-16
5.630000E+03	8.339572E-15	1.315292E-16
5.640000E+03	8.120123E-15	1.287104E-16
5.650000E+03	7.915961E-15	1.260989E-16
5.660000E+03	7.729938E-15	1.237426E-16
5.670000E+03	7.564866E-15	1.216900E-16
5.680000E+03	7.423179E-15	1.199845E-16
5.690000E+03	7.307260E-15	1.186694E-16
5.700000E+03	7.219178E-15	1.177839E-16
5.710000E+03	7.160662E-15	1.173622E-16
5.720000E+03	7.133312E-15	1.174365E-16
5.730000E+03	7.138368E-15	1.180339E-16
5.740000E+03	7.176652E-15	1.191745E-16
5.750000E+03	7.248737E-15	1.208743E-16
5.760000E+03	7.354672E-15	1.231406E-16
5.770000E+03	7.493870E-15	1.259697E-16
5.780000E+03	7.665181E-15	1.293484E-16
5.790000E+03	7.866677E-15	1.332492E-16
5.800000E+03	8.095261E-15	1.376248E-16
5.810000E+03	8.347034E-15	1.424126E-16
5.820000E+03	8.617046E-15	1.475316E-16
5.830000E+03	8.899194E-15	1.528795E-16
5.840000E+03	9.186574E-15	1.583387E-16
5.850000E+03	9.471652E-15	1.637796E-16
5.860000E+03	9.746286E-15	1.690604E-16
5.870000E+03	1.000213E-14	1.740341E-16
5.880000E+03	1.023088E-14	1.785532E-16
5.890000E+03	1.042458E-14	1.824746E-16
5.900000E+03	1.057604E-14	1.856679E-16
5.910000E+03	1.067892E-14	1.880160E-16
5.920000E+03	1.072782E-14	1.894176E-16
5.930000E+03	1.071910E-14	1.898018E-16
5.940000E+03	1.065025E-14	1.891174E-16
5.950000E+03	1.052087E-14	1.873498E-16
5.960000E+03	1.033182E-14	1.845074E-16
5.970000E+03	1.008632E-14	1.806406E-16
5.980000E+03	9.789166E-15	1.758285E-16
5.990000E+03	9.446909E-15	1.701823E-16
6.000000E+03	9.067663E-15	1.638426E-16
6.010000E+03	8.660644E-15	1.569709E-16
6.020000E+03	8.236055E-15	1.497485E-16
6.030000E+03	7.804282E-15	1.423614E-16
6.040000E+03	7.375552E-15	1.349949E-16
6.050000E+03	6.959775E-15	1.278306E-16
6.060000E+03	6.565659E-15	1.210302E-16
6.070000E+03	6.200637E-15	1.147338E-16
6.080000E+03	5.870872E-15	1.090605E-16
6.090000E+03	5.580993E-15	1.041026E-16
6.100000E+03	5.333911E-15	9.992211E-17
6.110000E+03	5.130934E-15	9.655255E-17
6.120000E+03	4.972077E-15	9.400423E-17
6.130000E+03	4.856413E-15	9.227048E-17
6.140000E+03	4.781995E-15	9.132589E-17
6.150000E+03	4.746136E-15	9.113118E-17
6.160000E+03	4.745993E-15	9.164399E-17
6.170000E+03	4.778151E-15	9.281083E-17
6.180000E+03	4.838712E-15	9.456825E-17
6.190000E+03	4.923380E-15	9.684408E-17
6.200000E+03	5.027549E-15	9.955738E-17
6.210000E+03	5.145857E-15	1.026098E-16
6.220000E+03	5.272917E-15	1.058999E-16
6.230000E+03	5.403096E-15	1.093185E-16
6.240000E+03	5.530774E-15	1.127530E-16
6.250000E+03	5.650758E-15	1.160965E-16
6.260000E+03	5.758209E-15	1.192453E-16
6.270000E+03	5.849268E-15	1.221130E-16
6.280000E+03	5.920812E-15	1.246252E-16
6.290000E+03	5.970982E-15	1.267320E-16
6.300000E+03	5.998886E-15	1.284021E-16
6.310000E+03	6.004762E-15	1.296276E-16
6.320000E+03	5.990052E-15	1.304263E-16
6.330000E+03	5.957255E-15	1.308402E-16
6.340000E+03	5.909375E-15	1.309238E-16
6.350000E+03	5.850170E-15	1.307507E-16
6.360000E+03	5.783651E-15	1.304030E-16
6.370000E+03	5.713942E-15	1.299685E-16
6.380000E+03	5.645122E-15	1.295371E-16
6.390000E+03	5.580615E-15	1.291870E-16
6.400000E+03	5.523505E-15	1.289916E-16
6.410000E+03	5.475456E-15	1.289930E-16
6.420000E+03	5.436731E-15	1.292019E-16
6.430000E+03	5.406403E-15	1.296007E-16
6.440000E+03	5.383449E-15	1.301686E-16
6.450000E+03	5.366220E-15	1.308692E-16
6.460000E+03	5.353385E-15	1.316721E-16
6.470000E+03	5.343149E-15	1.325347E-16
6.480000E+03	5.334282E-15	1.334269E-16
6.490000E+03	5.325228E-15	1.343094E-16
6.500000E+03	5.314764E-15	1.351502E-16
6.510000E+03	5.301595E-15	1.359144E-16
6.520000E+03	5.284603E-15	1.365706E-16
6.530000E+03	5.262747E-15	1.370886E-16
6.540000E+03	5.235089E-15	1.374401E-16
6.550000E+03	5.200814E-15	1.375992E-16
6.560000E+03	5.159158E-15	1.375411E-16
6.570000E+03	5.109605E-15	1.372468E-16
6.580000E+03	5.051831E-15	1.367024E-16
6.590000E+03	4.985647E-15	1.358975E-16
6.600000E+03	4.911332E-15	1.348345E-16
6.610000E+03	4.829016E-15	1.335120E-16
6.620000E+03	4.739463E-15	1.319467E-16
6.630000E+03	4.643427E-15	1.301555E-16
6.640000E+03	4.541930E-15	1.281636E-16
6.650000E+03	4.436068E-15	1.259994E-16
6.660000E+03	4.327259E-15	1.237013E-16
6.670000E+03	4.216674E-15	1.213018E-16
6.680000E+03	4.105631E-15	1.188384E-16
6.690000E+03	3.995457E-15	1.163501E-16
6.700000E+03	3.887327E-15	1.138723E-16
6.710000E+03	3.782222E-15	1.114357E-16
6.720000E+03	3.681118E-15	1.090711E-16
6.730000E+03	3.584714E-15	1.068022E-16
6.740000E+03	3.493612E-15	1.046498E-16
6.750000E+03	3.408323E-15	1.026324E-16
6.760000E+03	3.329099E-15	1.007611E-16
6.770000E+03	3.256119E-15	9.904469E-17
6.780000E+03	3.189497E-15	9.748994E-17
6.790000E+03	3.129181E-15	9.609855E-17
6.800000E+03	3.074913E-15	9.486573E-17
6.810000E+03	3.026563E-15	9.379045E-17
6.820000E+03	2.983814E-15	9.286560E-17
6.830000E+03	2.946228E-15	9.208006E-17
6.840000E+03	2.913415E-15	9.142384E-17
6.850000E+03	2.884833E-15	9.088198E-17
6.860000E+03	2.860014E-15	9.044137E-17
6.870000E+03	2.838368E-15	9.008483E-17
6.880000E+03	2.819403E-15	8.979791E-17
6.890000E+03	2.802587E-15	8.956461E-17
6.900000E+03	2.787363E-15	8.936786E-17
6.910000E+03	2.773312E-15	8.919475E-17
6.920000E+03	2.760017E-15	8.903230E-17
6.930000E+03	2.747123E-15	8.886926E-17
6.940000E+03	2.734283E-15	8.869464E-17
6.950000E+03	2.721376E-15	8.850453E-17
6.960000E+03	2.708147E-15	8.829071E-17
6.970000E+03	2.694603E-15	8.805342E-17
6.980000E+03	2.680607E-15	8.778826E-17
6.990000E+03	2.666272E-15	8.749892E-17
7.000000E+03	2.651600E-15	8.718553E-17
7.010000E+03	2.636617E-15	8.684903E-17
7.020000E+03	2.621518E-15	8.649598E-17
7.030000E+03	2.606405E-15	8.612981E-17
7.040000E+03	2.591274E-15	8.575067E-17
7.050000E+03	2.576314E-15	8.536486E-17
7.060000E+03	2.561595E-15	8.497499E-17
7.070000E+03	2.547121E-15	8.458134E-17
7.080000E+03	2.532926E-15	8.418527E-17
7.090000E+03	2.519125E-15	8.379080E-17
7.100000E+03	2.505621E-15	8.339494E-17
7.110000E+03	2.492405E-15	8.299753E-17
7.120000E+03	2.479555E-15	8.260137E-17
7.130000E+03	2.466987E-15	8.220389E-17
7.140000E+03	2.454614E-15	8.180237E-17
7.150000E+03	2.442489E-15	8.139876E-17
7.160000E+03	2.430514E-15	8.098995E-17
7.170000E+03	2.418688E-15	8.057610E-17
7.180000E+03	2.406906E-15	8.015392E-17
7.190000E+03	2.395109E-15	7.972164E-17
7.200000E+03	2.383286E-15	7.927905E-17
7.210000E+03	2.371370E-15	7.882417E-17
7.220000E+03	2.359294E-15	7.835496E-17
7.230000E+03	2.346976E-15	7.786895E-17
7.240000E+03	2.334280E-15	7.736185E-17
7.250000E+03	2.321198E-15	7.683369E-17
7.260000E+03	2.307562E-15	7.627919E-17
7.270000E+03	2.293290E-15	7.569595E-17
7.280000E+03	2.278145E-15	7.507654E-17
7.290000E+03	2.262083E-15	7.441993E-17
7.300000E+03	2.244975E-15	7.372229E-17
7.310000E+03	2.226612E-15	7.297729E-17
7.320000E+03	2.207007E-15	7.218587E-17
7.330000E+03	2.186061E-15	7.134546E-17
7.340000E+03	2.163721E-15	7.045491E-17
7.350000E+03	2.140075E-15	6.951781E-17
7.360000E+03	2.115165E-15	6.853619E-17
7.370000E+03	2.089090E-15	6.751391E-17
7.380000E+03	2.062033E-15	6.645766E-17
7.390000E+03	2.034168E-15	6.537369E-17
7.400000E+03	2.005741E-15	6.427047E-17
7.410000E+03	1.976914E-15	6.315386E-17
7.420000E+03	1.947904E-15	6.203124E-17
7.430000E+03	1.919000E-15	6.091234E-17
7.440000E+03	1.890390E-15	5.980345E-17
7.450000E+03	1.862314E-15	5.871252E-17
7.460000E+03	1.835063E-15	5.764888E-17
7.470000E+03	1.808715E-15	5.661515E-17
7.480000E+03	1.783400E-15	5.561546E-17
7.490000E+03	1.759252E-15	5.465402E-17
7.500000E+03	1.736291E-15	5.373138E-17
7.510000E+03	1.714468E-15	5.284600E-17
7.520000E+03	1.693874E-15	5.200061E-17
7.530000E+03	1.674377E-15	5.119105E-17
7.540000E+03	1.655957E-15	5.041665E-17
7.550000E+03	1.638540E-15	4.967512E-17
7.560000E+03	1.622055E-15	4.896421E-17
7.570000E+03	1.606433E-15	4.828188E-17
7.580000E+03	1.591659E-15	4.762762E-17
7.590000E+03	1.577610E-15	4.699776E-17
7.600000E+03	1.564344E-15	4.639408E-17
7.610000E+03	1.551783E-15	4.581425E-17
7.620000E+03	1.540026E-15	4.526128E-17
7.630000E+03	1.529039E-15	4.473416E-17
7.640000E+03	1.518925E-15	4.423585E-17
7.650000E+03	1.509759E-15	4.376861E-17
7.660000E+03	1.501592E-15	4.333379E-17
7.670000E+03	1.494551E-15	4.293506E-17
7.680000E+03	1.488734E-15	4.257504E-17
7.690000E+03	1.484224E-15	4.225607E-17
7.700000E+03	1.481057E-15	4.197902E-17
7.710000E+03	1.479298E-15	4.174556E-17
7.720000E+03	1.479041E-15	4.155826E-17
7.730000E+03	1.480330E-15	4.141824E-17
7.740000E+03	1.483204E-15	4.132649E-17
7.750000E+03	1.487698E-15	4.128387E-17
7.760000E+03	1.493798E-15	4.129000E-17
