#wls	flux	fluxerr
1.600000E+03	7.976904E-16	1.366247E-16
1.640000E+03	6.377815E-16	1.084569E-16
1.680000E+03	5.070136E-16	8.559920E-17
1.720000E+03	4.012963E-16	6.726011E-17
1.760000E+03	3.165564E-16	5.267053E-17
1.800000E+03	2.493081E-16	4.117782E-17
1.840000E+03	1.962806E-16	3.218148E-17
1.880000E+03	1.548514E-16	2.520236E-17
1.920000E+03	1.226837E-16	1.982039E-17
1.960000E+03	9.785300E-17	1.569301E-17
2.000000E+03	7.882856E-17	1.254977E-17
2.040000E+03	6.436045E-17	1.017212E-17
2.080000E+03	5.350492E-17	8.395624E-18
2.120000E+03	4.554381E-17	7.095596E-18
2.160000E+03	3.998455E-17	6.185755E-18
2.200000E+03	3.648853E-17	5.605897E-18
2.240000E+03	3.482734E-17	5.314313E-18
2.280000E+03	3.491974E-17	5.292796E-18
2.320000E+03	3.676629E-17	5.536020E-18
2.360000E+03	4.049361E-17	6.057692E-18
2.400000E+03	4.633244E-17	6.886670E-18
2.440000E+03	5.462524E-17	8.067562E-18
2.480000E+03	6.576121E-17	9.650645E-18
2.520000E+03	8.007893E-17	1.167739E-17
2.560000E+03	9.772394E-17	1.416002E-17
2.600000E+03	1.184766E-16	1.705752E-17
2.640000E+03	1.417038E-16	2.027032E-17
2.680000E+03	1.665014E-16	2.366243E-17
2.720000E+03	1.919277E-16	2.709562E-17
2.760000E+03	2.169935E-16	3.042821E-17
2.800000E+03	2.408836E-16	3.354630E-17
2.840000E+03	2.629042E-16	3.635574E-17
2.880000E+03	2.826068E-16	3.879881E-17
2.920000E+03	2.997838E-16	4.085241E-17
2.960000E+03	3.145184E-16	4.253385E-17
3.000000E+03	3.271546E-16	4.389529E-17
3.010000E+03	3.300649E-16	4.419683E-17
3.020000E+03	3.328720E-16	4.448249E-17
3.030000E+03	3.356176E-16	4.475788E-17
3.040000E+03	3.382808E-16	4.502021E-17
3.050000E+03	3.409037E-16	4.527518E-17
3.060000E+03	3.434978E-16	4.552426E-17
3.070000E+03	3.460425E-16	4.576479E-17
3.080000E+03	3.485813E-16	4.600249E-17
3.090000E+03	3.511260E-16	4.623891E-17
3.100000E+03	3.536568E-16	4.647142E-17
3.110000E+03	3.562491E-16	4.670989E-17
3.120000E+03	3.588516E-16	4.694756E-17
3.130000E+03	3.615399E-16	4.719424E-17
3.140000E+03	3.642627E-16	4.744317E-17
3.150000E+03	3.670955E-16	4.770411E-17
3.160000E+03	3.700188E-16	4.797440E-17
3.170000E+03	3.730444E-16	4.825547E-17
3.180000E+03	3.762160E-16	4.855283E-17
3.190000E+03	3.795134E-16	4.886374E-17
3.200000E+03	3.829798E-16	4.919362E-17
3.210000E+03	3.865947E-16	4.953964E-17
3.220000E+03	3.904327E-16	4.991117E-17
3.230000E+03	3.944404E-16	5.030119E-17
3.240000E+03	3.986598E-16	5.071484E-17
3.250000E+03	4.031327E-16	5.115719E-17
3.260000E+03	4.078360E-16	5.162506E-17
3.270000E+03	4.127780E-16	5.211924E-17
3.280000E+03	4.180312E-16	5.264859E-17
3.290000E+03	4.235376E-16	5.320548E-17
3.300000E+03	4.293354E-16	5.379443E-17
3.310000E+03	4.354293E-16	5.441568E-17
3.320000E+03	4.418562E-16	5.507350E-17
3.330000E+03	4.486184E-16	5.576780E-17
3.340000E+03	4.556834E-16	5.649416E-17
3.350000E+03	4.631174E-16	5.726040E-17
3.360000E+03	4.709183E-16	5.806585E-17
3.370000E+03	4.790478E-16	5.890536E-17
3.380000E+03	4.875332E-16	5.978189E-17
3.390000E+03	4.964007E-16	6.069821E-17
3.400000E+03	5.056399E-16	6.165258E-17
3.410000E+03	5.152028E-16	6.263872E-17
3.420000E+03	5.251799E-16	6.366720E-17
3.430000E+03	5.354844E-16	6.472700E-17
3.440000E+03	5.461696E-16	6.582412E-17
3.450000E+03	5.572176E-16	6.695593E-17
3.460000E+03	5.686473E-16	6.812424E-17
3.470000E+03	5.804069E-16	6.932233E-17
3.480000E+03	5.925575E-16	7.055705E-17
3.490000E+03	6.050928E-16	7.182714E-17
3.500000E+03	6.180108E-16	7.313184E-17
3.510000E+03	6.313511E-16	7.447530E-17
3.520000E+03	6.451573E-16	7.586209E-17
3.530000E+03	6.594377E-16	7.729254E-17
3.540000E+03	6.742026E-16	7.876723E-17
3.550000E+03	6.895019E-16	8.029132E-17
3.560000E+03	7.053102E-16	8.186111E-17
3.570000E+03	7.217197E-16	8.348660E-17
3.580000E+03	7.386679E-16	8.515976E-17
3.590000E+03	7.561721E-16	8.688182E-17
3.600000E+03	7.742904E-16	8.865866E-17
3.610000E+03	7.930451E-16	9.049198E-17
3.620000E+03	8.123796E-16	9.237443E-17
3.630000E+03	8.324022E-16	9.431748E-17
3.640000E+03	8.530635E-16	9.631456E-17
3.650000E+03	8.744391E-16	9.837328E-17
3.660000E+03	8.965288E-16	1.004926E-16
3.670000E+03	9.194185E-16	1.026810E-16
3.680000E+03	9.430755E-16	1.049338E-16
3.690000E+03	9.675949E-16	1.072604E-16
3.700000E+03	9.930363E-16	1.096662E-16
3.710000E+03	1.019462E-15	1.121566E-16
3.720000E+03	1.046855E-15	1.147284E-16
3.730000E+03	1.075365E-15	1.173965E-16
3.740000E+03	1.104973E-15	1.201573E-16
3.750000E+03	1.135743E-15	1.230161E-16
3.760000E+03	1.167775E-15	1.259820E-16
3.770000E+03	1.201032E-15	1.290492E-16
3.780000E+03	1.235595E-15	1.322244E-16
3.790000E+03	1.271441E-15	1.355034E-16
3.800000E+03	1.308574E-15	1.388848E-16
3.810000E+03	1.346932E-15	1.423599E-16
3.820000E+03	1.386514E-15	1.459269E-16
3.830000E+03	1.427158E-15	1.495670E-16
3.840000E+03	1.468810E-15	1.532727E-16
3.850000E+03	1.511339E-15	1.570290E-16
3.860000E+03	1.554492E-15	1.608082E-16
3.870000E+03	1.598130E-15	1.645949E-16
3.880000E+03	1.641990E-15	1.683614E-16
3.890000E+03	1.685796E-15	1.720787E-16
3.900000E+03	1.729349E-15	1.757268E-16
3.910000E+03	1.772352E-15	1.792756E-16
3.920000E+03	1.814557E-15	1.827007E-16
3.930000E+03	1.855677E-15	1.859742E-16
3.940000E+03	1.895496E-15	1.890761E-16
3.950000E+03	1.933777E-15	1.919844E-16
3.960000E+03	1.970418E-15	1.946912E-16
3.970000E+03	2.005211E-15	1.971781E-16
3.980000E+03	2.038095E-15	1.994417E-16
3.990000E+03	2.069110E-15	2.014886E-16
4.000000E+03	2.098144E-15	2.033104E-16
4.010000E+03	2.125385E-15	2.049283E-16
4.020000E+03	2.150916E-15	2.063526E-16
4.030000E+03	2.174858E-15	2.075974E-16
4.040000E+03	2.197366E-15	2.086797E-16
4.050000E+03	2.218767E-15	2.096324E-16
4.060000E+03	2.239152E-15	2.104659E-16
4.070000E+03	2.258823E-15	2.112097E-16
4.080000E+03	2.278020E-15	2.118876E-16
4.090000E+03	2.296884E-15	2.125131E-16
4.100000E+03	2.315725E-15	2.131152E-16
4.110000E+03	2.334586E-15	2.136983E-16
4.120000E+03	2.353723E-15	2.142855E-16
4.130000E+03	2.373209E-15	2.148832E-16
4.140000E+03	2.393081E-15	2.154942E-16
4.150000E+03	2.413427E-15	2.161260E-16
4.160000E+03	2.434201E-15	2.167740E-16
4.170000E+03	2.455319E-15	2.174301E-16
4.180000E+03	2.476794E-15	2.180950E-16
4.190000E+03	2.498417E-15	2.187502E-16
4.200000E+03	2.520044E-15	2.193830E-16
4.210000E+03	2.541546E-15	2.199824E-16
4.220000E+03	2.562727E-15	2.205320E-16
4.230000E+03	2.583336E-15	2.210107E-16
4.240000E+03	2.603201E-15	2.214053E-16
4.250000E+03	2.622067E-15	2.216953E-16
4.260000E+03	2.639775E-15	2.218691E-16
4.270000E+03	2.656190E-15	2.219175E-16
4.280000E+03	2.671065E-15	2.218221E-16
4.290000E+03	2.684419E-15	2.215870E-16
4.300000E+03	2.696087E-15	2.212013E-16
4.310000E+03	2.706143E-15	2.206737E-16
4.320000E+03	2.714589E-15	2.200071E-16
4.330000E+03	2.721633E-15	2.192210E-16
4.340000E+03	2.727441E-15	2.183309E-16
4.350000E+03	2.732407E-15	2.173705E-16
4.360000E+03	2.736954E-15	2.163746E-16
4.370000E+03	2.741633E-15	2.153875E-16
4.380000E+03	2.747226E-15	2.144703E-16
4.390000E+03	2.754477E-15	2.136796E-16
4.400000E+03	2.764268E-15	2.130815E-16
4.410000E+03	2.777497E-15	2.127410E-16
4.420000E+03	2.794992E-15	2.127167E-16
4.430000E+03	2.817541E-15	2.130623E-16
4.440000E+03	2.845902E-15	2.138277E-16
4.450000E+03	2.880660E-15	2.150485E-16
4.460000E+03	2.922373E-15	2.167572E-16
4.470000E+03	2.971386E-15	2.189696E-16
4.480000E+03	3.027930E-15	2.216926E-16
4.490000E+03	3.092049E-15	2.249191E-16
4.500000E+03	3.163503E-15	2.286213E-16
4.510000E+03	3.241987E-15	2.327678E-16
4.520000E+03	3.326903E-15	2.373065E-16
4.530000E+03	3.417448E-15	2.421724E-16
4.540000E+03	3.512656E-15	2.472902E-16
4.550000E+03	3.611318E-15	2.525699E-16
4.560000E+03	3.712034E-15	2.579102E-16
4.570000E+03	3.813343E-15	2.632084E-16
4.580000E+03	3.913508E-15	2.683456E-16
4.590000E+03	4.010810E-15	2.732067E-16
4.600000E+03	4.103508E-15	2.776782E-16
4.610000E+03	4.189793E-15	2.816450E-16
4.620000E+03	4.268183E-15	2.850168E-16
4.630000E+03	4.337156E-15	2.877034E-16
4.640000E+03	4.395536E-15	2.896398E-16
4.650000E+03	4.442444E-15	2.907825E-16
4.660000E+03	4.477330E-15	2.911107E-16
4.670000E+03	4.499940E-15	2.906235E-16
4.680000E+03	4.510541E-15	2.893539E-16
4.690000E+03	4.509459E-15	2.873378E-16
4.700000E+03	4.497657E-15	2.846509E-16
4.710000E+03	4.476073E-15	2.813657E-16
4.720000E+03	4.445958E-15	2.775725E-16
4.730000E+03	4.408753E-15	2.733710E-16
4.740000E+03	4.365859E-15	2.688562E-16
4.750000E+03	4.318803E-15	2.641282E-16
4.760000E+03	4.268964E-15	2.592756E-16
4.770000E+03	4.217638E-15	2.543797E-16
4.780000E+03	4.166102E-15	2.495185E-16
4.790000E+03	4.115341E-15	2.447504E-16
4.800000E+03	4.066322E-15	2.401312E-16
4.810000E+03	4.019748E-15	2.356998E-16
4.820000E+03	3.976290E-15	2.314916E-16
4.830000E+03	3.936356E-15	2.275262E-16
4.840000E+03	3.900155E-15	2.238109E-16
4.850000E+03	3.867842E-15	2.203498E-16
4.860000E+03	3.839450E-15	2.171396E-16
4.870000E+03	3.814813E-15	2.141661E-16
4.880000E+03	3.793765E-15	2.114152E-16
4.890000E+03	3.776036E-15	2.088675E-16
4.900000E+03	3.761263E-15	2.064989E-16
4.910000E+03	3.749153E-15	2.042897E-16
4.920000E+03	3.739362E-15	2.022181E-16
4.930000E+03	3.731570E-15	2.002641E-16
4.940000E+03	3.725450E-15	1.984077E-16
4.950000E+03	3.720852E-15	1.966393E-16
4.960000E+03	3.717572E-15	1.949462E-16
4.970000E+03	3.715522E-15	1.933225E-16
4.980000E+03	3.714699E-15	1.917667E-16
4.990000E+03	3.715186E-15	1.902817E-16
5.000000E+03	3.717193E-15	1.888768E-16
5.010000E+03	3.720929E-15	1.875610E-16
5.020000E+03	3.726755E-15	1.863506E-16
5.030000E+03	3.735018E-15	1.852606E-16
5.040000E+03	3.746189E-15	1.843116E-16
5.050000E+03	3.760739E-15	1.835235E-16
5.060000E+03	3.779119E-15	1.829145E-16
5.070000E+03	3.801908E-15	1.825086E-16
5.080000E+03	3.829555E-15	1.823224E-16
5.090000E+03	3.862493E-15	1.823712E-16
5.100000E+03	3.901276E-15	1.826756E-16
5.110000E+03	3.946170E-15	1.832419E-16
5.120000E+03	3.997586E-15	1.840829E-16
5.130000E+03	4.055781E-15	1.852038E-16
5.140000E+03	4.120931E-15	1.866060E-16
5.150000E+03	4.193073E-15	1.882847E-16
5.160000E+03	4.272226E-15	1.902343E-16
5.170000E+03	4.358254E-15	1.924426E-16
5.180000E+03	4.450899E-15	1.948924E-16
5.190000E+03	4.549774E-15	1.975620E-16
5.200000E+03	4.654365E-15	2.004245E-16
5.210000E+03	4.764075E-15	2.034509E-16
5.220000E+03	4.878039E-15	2.066020E-16
5.230000E+03	4.995478E-15	2.098435E-16
5.240000E+03	5.115418E-15	2.131345E-16
5.250000E+03	5.236766E-15	2.164308E-16
5.260000E+03	5.358431E-15	2.196900E-16
5.270000E+03	5.479316E-15	2.228712E-16
5.280000E+03	5.598408E-15	2.259384E-16
5.290000E+03	5.714709E-15	2.288576E-16
5.300000E+03	5.827261E-15	2.315979E-16
5.310000E+03	5.935302E-15	2.341373E-16
5.320000E+03	6.038287E-15	2.364632E-16
5.330000E+03	6.135800E-15	2.385685E-16
5.340000E+03	6.227540E-15	2.404511E-16
5.350000E+03	6.313444E-15	2.421181E-16
5.360000E+03	6.393668E-15	2.435849E-16
5.370000E+03	6.468365E-15	2.448664E-16
5.380000E+03	6.537891E-15	2.459848E-16
5.390000E+03	6.602498E-15	2.469579E-16
5.400000E+03	6.662479E-15	2.478046E-16
5.410000E+03	6.718138E-15	2.485434E-16
5.420000E+03	6.769602E-15	2.491863E-16
5.430000E+03	6.817227E-15	2.497529E-16
5.440000E+03	6.861529E-15	2.502683E-16
5.450000E+03	6.902708E-15	2.507453E-16
5.460000E+03	6.940866E-15	2.511922E-16
5.470000E+03	6.975728E-15	2.516002E-16
5.480000E+03	7.006862E-15	2.519535E-16
5.490000E+03	7.033716E-15	2.522319E-16
5.500000E+03	7.055475E-15	2.524053E-16
5.510000E+03	7.071315E-15	2.524432E-16
5.520000E+03	7.080407E-15	2.523149E-16
5.530000E+03	7.082044E-15	2.519935E-16
5.540000E+03	7.075552E-15	2.514531E-16
5.550000E+03	7.060420E-15	2.506731E-16
5.560000E+03	7.036405E-15	2.496421E-16
5.570000E+03	7.003358E-15	2.483517E-16
5.580000E+03	6.961525E-15	2.468070E-16
5.590000E+03	6.911341E-15	2.450195E-16
5.600000E+03	6.853493E-15	2.430094E-16
5.610000E+03	6.788840E-15	2.408028E-16
5.620000E+03	6.718574E-15	2.384377E-16
5.630000E+03	6.643986E-15	2.359552E-16
5.640000E+03	6.566475E-15	2.334010E-16
5.650000E+03	6.487573E-15	2.308254E-16
5.660000E+03	6.408627E-15	2.282725E-16
5.670000E+03	6.331141E-15	2.257926E-16
5.680000E+03	6.256531E-15	2.234331E-16
5.690000E+03	6.185966E-15	2.212334E-16
5.700000E+03	6.120518E-15	2.192296E-16
5.710000E+03	6.061080E-15	2.174521E-16
5.720000E+03	6.008395E-15	2.159265E-16
5.730000E+03	5.962866E-15	2.146664E-16
5.740000E+03	5.924794E-15	2.136822E-16
5.750000E+03	5.894126E-15	2.129716E-16
5.760000E+03	5.870693E-15	2.125286E-16
5.770000E+03	5.853988E-15	2.123350E-16
5.780000E+03	5.843401E-15	2.123689E-16
5.790000E+03	5.837998E-15	2.125966E-16
5.800000E+03	5.836779E-15	2.129817E-16
5.810000E+03	5.838465E-15	2.134777E-16
5.820000E+03	5.841764E-15	2.140372E-16
5.830000E+03	5.845168E-15	2.146046E-16
5.840000E+03	5.847173E-15	2.151242E-16
5.850000E+03	5.846326E-15	2.155418E-16
5.860000E+03	5.841099E-15	2.157999E-16
5.870000E+03	5.830113E-15	2.158464E-16
5.880000E+03	5.812130E-15	2.156339E-16
5.890000E+03	5.786105E-15	2.151219E-16
5.900000E+03	5.751219E-15	2.142782E-16
5.910000E+03	5.706917E-15	2.130801E-16
5.920000E+03	5.652868E-15	2.115133E-16
5.930000E+03	5.589093E-15	2.095765E-16
5.940000E+03	5.515956E-15	2.072815E-16
5.950000E+03	5.433980E-15	2.046462E-16
5.960000E+03	5.343943E-15	2.016980E-16
5.970000E+03	5.246988E-15	1.984789E-16
5.980000E+03	5.144164E-15	1.950272E-16
5.990000E+03	5.036898E-15	1.913962E-16
6.000000E+03	4.926537E-15	1.876364E-16
6.010000E+03	4.814451E-15	1.837997E-16
6.020000E+03	4.702089E-15	1.799415E-16
6.030000E+03	4.590738E-15	1.761115E-16
6.040000E+03	4.481646E-15	1.723581E-16
6.050000E+03	4.375895E-15	1.687242E-16
6.060000E+03	4.274521E-15	1.652508E-16
6.070000E+03	4.178278E-15	1.619688E-16
6.080000E+03	4.087903E-15	1.589087E-16
6.090000E+03	4.003848E-15	1.560901E-16
6.100000E+03	3.926585E-15	1.535339E-16
6.110000E+03	3.856282E-15	1.512492E-16
6.120000E+03	3.793059E-15	1.492434E-16
6.130000E+03	3.736916E-15	1.475195E-16
6.140000E+03	3.687712E-15	1.460749E-16
6.150000E+03	3.645254E-15	1.449052E-16
6.160000E+03	3.609267E-15	1.440027E-16
6.170000E+03	3.579417E-15	1.433573E-16
6.180000E+03	3.555249E-15	1.429540E-16
6.190000E+03	3.536418E-15	1.427823E-16
6.200000E+03	3.522455E-15	1.428265E-16
6.210000E+03	3.512953E-15	1.430734E-16
6.220000E+03	3.507452E-15	1.435074E-16
6.230000E+03	3.505618E-15	1.441178E-16
6.240000E+03	3.507048E-15	1.448912E-16
6.250000E+03	3.511425E-15	1.458172E-16
6.260000E+03	3.518556E-15	1.468898E-16
6.270000E+03	3.528162E-15	1.480981E-16
6.280000E+03	3.540175E-15	1.494398E-16
6.290000E+03	3.554470E-15	1.509106E-16
6.300000E+03	3.571060E-15	1.525117E-16
6.310000E+03	3.589999E-15	1.542463E-16
6.320000E+03	3.611268E-15	1.561145E-16
6.330000E+03	3.635020E-15	1.581239E-16
6.340000E+03	3.661342E-15	1.602794E-16
6.350000E+03	3.690307E-15	1.625856E-16
6.360000E+03	3.722005E-15	1.650479E-16
6.370000E+03	3.756408E-15	1.676663E-16
6.380000E+03	3.793513E-15	1.704424E-16
6.390000E+03	3.833257E-15	1.733748E-16
6.400000E+03	3.875473E-15	1.764574E-16
6.410000E+03	3.919943E-15	1.796815E-16
6.420000E+03	3.966467E-15	1.830392E-16
6.430000E+03	4.014731E-15	1.865168E-16
6.440000E+03	4.064423E-15	1.901003E-16
6.450000E+03	4.115004E-15	1.937649E-16
6.460000E+03	4.165927E-15	1.974842E-16
6.470000E+03	4.216510E-15	2.012252E-16
6.480000E+03	4.266032E-15	2.049516E-16
6.490000E+03	4.313655E-15	2.086209E-16
6.500000E+03	4.358491E-15	2.121869E-16
6.510000E+03	4.399614E-15	2.156002E-16
6.520000E+03	4.436094E-15	2.188103E-16
6.530000E+03	4.467017E-15	2.217660E-16
6.540000E+03	4.491517E-15	2.244176E-16
6.550000E+03	4.508799E-15	2.267177E-16
6.560000E+03	4.518225E-15	2.286260E-16
6.570000E+03	4.519176E-15	2.301023E-16
6.580000E+03	4.511334E-15	2.311213E-16
6.590000E+03	4.494336E-15	2.316549E-16
6.600000E+03	4.468195E-15	2.316944E-16
6.610000E+03	4.432940E-15	2.312320E-16
6.620000E+03	4.388878E-15	2.302747E-16
6.630000E+03	4.336422E-15	2.288357E-16
6.640000E+03	4.276136E-15	2.269368E-16
6.650000E+03	4.208710E-15	2.246076E-16
6.660000E+03	4.134986E-15	2.218868E-16
6.670000E+03	4.055835E-15	2.188159E-16
6.680000E+03	3.972185E-15	2.154405E-16
6.690000E+03	3.884935E-15	2.118062E-16
6.700000E+03	3.795133E-15	2.079676E-16
6.710000E+03	3.703704E-15	2.039742E-16
6.720000E+03	3.611485E-15	1.998715E-16
6.730000E+03	3.519346E-15	1.957079E-16
6.740000E+03	3.427992E-15	1.915235E-16
6.750000E+03	3.338175E-15	1.873622E-16
6.760000E+03	3.250432E-15	1.832560E-16
6.770000E+03	3.165287E-15	1.792372E-16
6.780000E+03	3.083059E-15	1.753268E-16
6.790000E+03	3.004173E-15	1.715519E-16
6.800000E+03	2.928779E-15	1.679246E-16
6.810000E+03	2.857066E-15	1.644590E-16
6.820000E+03	2.789083E-15	1.611613E-16
6.830000E+03	2.724923E-15	1.580403E-16
6.840000E+03	2.664492E-15	1.550938E-16
6.850000E+03	2.607788E-15	1.523248E-16
6.860000E+03	2.554678E-15	1.497285E-16
6.870000E+03	2.505001E-15	1.472985E-16
6.880000E+03	2.458677E-15	1.450325E-16
6.890000E+03	2.415545E-15	1.429238E-16
6.900000E+03	2.375381E-15	1.409612E-16
6.910000E+03	2.338080E-15	1.391408E-16
6.920000E+03	2.303450E-15	1.374530E-16
6.930000E+03	2.271335E-15	1.358905E-16
6.940000E+03	2.241619E-15	1.344478E-16
6.950000E+03	2.214135E-15	1.331166E-16
6.960000E+03	2.188763E-15	1.318909E-16
6.970000E+03	2.165420E-15	1.307671E-16
6.980000E+03	2.143984E-15	1.297388E-16
6.990000E+03	2.124373E-15	1.288024E-16
7.000000E+03	2.106547E-15	1.279562E-16
7.010000E+03	2.090396E-15	1.271946E-16
7.020000E+03	2.075932E-15	1.265190E-16
7.030000E+03	2.063097E-15	1.259267E-16
7.040000E+03	2.051870E-15	1.254171E-16
7.050000E+03	2.042236E-15	1.249899E-16
7.060000E+03	2.034190E-15	1.246454E-16
7.070000E+03	2.027703E-15	1.243823E-16
7.080000E+03	2.022832E-15	1.242047E-16
7.090000E+03	2.019531E-15	1.241100E-16
7.100000E+03	2.017802E-15	1.240988E-16
7.110000E+03	2.017679E-15	1.241735E-16
7.120000E+03	2.019162E-15	1.243343E-16
7.130000E+03	2.022193E-15	1.245779E-16
7.140000E+03	2.026816E-15	1.249072E-16
7.150000E+03	2.032988E-15	1.253195E-16
7.160000E+03	2.040653E-15	1.258116E-16
7.170000E+03	2.049801E-15	1.263828E-16
7.180000E+03	2.060356E-15	1.270284E-16
7.190000E+03	2.072256E-15	1.277444E-16
7.200000E+03	2.085430E-15	1.285265E-16
7.210000E+03	2.099792E-15	1.293692E-16
7.220000E+03	2.115246E-15	1.302664E-16
7.230000E+03	2.131627E-15	1.312077E-16
7.240000E+03	2.148877E-15	1.321896E-16
7.250000E+03	2.166812E-15	1.332003E-16
7.260000E+03	2.185301E-15	1.342318E-16
7.270000E+03	2.204207E-15	1.352755E-16
7.280000E+03	2.223397E-15	1.363231E-16
7.290000E+03	2.242701E-15	1.373641E-16
7.300000E+03	2.261987E-15	1.383904E-16
7.310000E+03	2.281096E-15	1.393922E-16
7.320000E+03	2.299876E-15	1.403604E-16
7.330000E+03	2.318276E-15	1.412921E-16
7.340000E+03	2.336103E-15	1.421755E-16
7.350000E+03	2.353262E-15	1.430053E-16
7.360000E+03	2.369713E-15	1.437794E-16
7.370000E+03	2.385326E-15	1.444902E-16
7.380000E+03	2.400046E-15	1.451349E-16
7.390000E+03	2.413802E-15	1.457099E-16
7.400000E+03	2.426601E-15	1.462160E-16
7.410000E+03	2.438360E-15	1.466491E-16
7.420000E+03	2.449076E-15	1.470096E-16
7.430000E+03	2.458792E-15	1.473009E-16
7.440000E+03	2.467491E-15	1.475228E-16
7.450000E+03	2.475169E-15	1.476759E-16
7.460000E+03	2.481935E-15	1.477676E-16
7.470000E+03	2.487805E-15	1.477997E-16
7.480000E+03	2.492916E-15	1.477814E-16
7.490000E+03	2.497271E-15	1.477136E-16
7.500000E+03	2.501062E-15	1.476087E-16
7.510000E+03	2.504352E-15	1.474712E-16
7.520000E+03	2.507283E-15	1.473105E-16
7.530000E+03	2.509975E-15	1.471344E-16
7.540000E+03	2.512590E-15	1.469531E-16
7.550000E+03	2.515257E-15	1.467752E-16
7.560000E+03	2.518110E-15	1.466091E-16
7.570000E+03	2.521321E-15	1.464656E-16
7.580000E+03	2.525054E-15	1.463549E-16
7.590000E+03	2.529396E-15	1.462827E-16
7.600000E+03	2.534529E-15	1.462603E-16
7.610000E+03	2.540474E-15	1.462894E-16
7.620000E+03	2.547375E-15	1.463790E-16
7.630000E+03	2.555245E-15	1.465306E-16
7.640000E+03	2.564177E-15	1.467502E-16
7.650000E+03	2.574086E-15	1.470336E-16
7.660000E+03	2.585001E-15	1.473834E-16
7.670000E+03	2.596763E-15	1.477915E-16
7.680000E+03	2.609371E-15	1.482586E-16
7.690000E+03	2.622552E-15	1.487704E-16
7.700000E+03	2.636193E-15	1.493218E-16
7.710000E+03	2.650067E-15	1.499011E-16
7.720000E+03	2.663877E-15	1.504929E-16
7.730000E+03	2.677334E-15	1.510825E-16
7.740000E+03	2.690169E-15	1.516562E-16
7.750000E+03	2.702047E-15	1.521968E-16
7.760000E+03	2.712546E-15	1.526821E-16
