#wls	flux	fluxerr
1.600000E+03	6.100896E-16	8.468617E-17
1.640000E+03	4.908329E-16	6.746578E-17
1.680000E+03	3.931827E-16	5.351187E-17
1.720000E+03	3.138613E-16	4.229427E-17
1.760000E+03	2.500513E-16	3.336195E-17
1.800000E+03	1.990913E-16	2.629980E-17
1.840000E+03	1.586326E-16	2.074816E-17
1.880000E+03	1.267722E-16	1.641791E-17
1.920000E+03	1.017880E-16	1.305352E-17
1.960000E+03	8.230008E-17	1.045229E-17
2.000000E+03	6.717715E-17	8.450222E-18
2.040000E+03	5.550055E-17	6.915890E-18
2.080000E+03	4.657361E-17	5.750129E-18
2.120000E+03	3.988126E-17	4.879670E-18
2.160000E+03	3.509251E-17	4.256294E-18
2.200000E+03	3.198273E-17	3.846394E-18
2.240000E+03	3.039890E-17	3.626160E-18
2.280000E+03	3.026831E-17	3.582254E-18
2.320000E+03	3.157269E-17	3.708346E-18
2.360000E+03	3.436083E-17	4.006281E-18
2.400000E+03	3.876570E-17	4.487756E-18
2.440000E+03	4.499290E-17	5.172605E-18
2.480000E+03	5.329567E-17	6.085632E-18
2.520000E+03	6.388527E-17	7.246233E-18
2.560000E+03	7.684811E-17	8.659171E-18
2.600000E+03	9.207267E-17	1.030680E-17
2.640000E+03	1.091047E-16	1.213358E-17
2.680000E+03	1.274156E-16	1.407694E-17
2.720000E+03	1.464748E-16	1.607537E-17
2.760000E+03	1.657464E-16	1.806808E-17
2.800000E+03	1.846883E-16	1.999497E-17
2.840000E+03	2.028417E-16	2.180625E-17
2.880000E+03	2.199030E-16	2.346998E-17
2.920000E+03	2.357043E-16	2.496947E-17
2.960000E+03	2.502397E-16	2.630558E-17
3.000000E+03	2.637106E-16	2.750089E-17
3.010000E+03	2.669613E-16	2.778297E-17
3.020000E+03	2.701877E-16	2.806071E-17
3.030000E+03	2.733394E-16	2.832887E-17
3.040000E+03	2.765082E-16	2.859698E-17
3.050000E+03	2.796440E-16	2.885982E-17
3.060000E+03	2.827537E-16	2.911810E-17
3.070000E+03	2.858735E-16	2.937553E-17
3.080000E+03	2.890112E-16	2.963289E-17
3.090000E+03	2.921746E-16	2.989095E-17
3.100000E+03	2.953718E-16	3.015047E-17
3.110000E+03	2.985813E-16	3.040923E-17
3.120000E+03	3.018703E-16	3.067401E-17
3.130000E+03	3.051878E-16	3.093958E-17
3.140000E+03	3.086015E-16	3.121273E-17
3.150000E+03	3.120598E-16	3.148815E-17
3.160000E+03	3.156309E-16	3.177267E-17
3.170000E+03	3.192930E-16	3.206396E-17
3.180000E+03	3.230842E-16	3.236578E-17
3.190000E+03	3.269823E-16	3.267576E-17
3.200000E+03	3.309948E-16	3.299455E-17
3.210000E+03	3.351906E-16	3.332889E-17
3.220000E+03	3.395156E-16	3.367324E-17
3.230000E+03	3.440076E-16	3.403121E-17
3.240000E+03	3.486733E-16	3.440331E-17
3.250000E+03	3.535191E-16	3.478999E-17
3.260000E+03	3.585824E-16	3.519475E-17
3.270000E+03	3.638370E-16	3.561483E-17
3.280000E+03	3.692877E-16	3.605049E-17
3.290000E+03	3.750030E-16	3.650822E-17
3.300000E+03	3.809548E-16	3.698502E-17
3.310000E+03	3.871132E-16	3.747776E-17
3.320000E+03	3.935458E-16	3.799275E-17
3.330000E+03	4.002543E-16	3.852988E-17
3.340000E+03	4.072060E-16	3.908571E-17
3.350000E+03	4.144674E-16	3.966638E-17
3.360000E+03	4.220037E-16	4.026822E-17
3.370000E+03	4.298121E-16	4.089068E-17
3.380000E+03	4.379235E-16	4.153641E-17
3.390000E+03	4.463685E-16	4.220796E-17
3.400000E+03	4.550719E-16	4.289788E-17
3.410000E+03	4.641329E-16	4.361522E-17
3.420000E+03	4.734737E-16	4.435229E-17
3.430000E+03	4.831582E-16	4.511473E-17
3.440000E+03	4.931787E-16	4.590145E-17
3.450000E+03	5.034902E-16	4.670788E-17
3.460000E+03	5.141944E-16	4.754309E-17
3.470000E+03	5.251727E-16	4.839570E-17
3.480000E+03	5.365305E-16	4.927506E-17
3.490000E+03	5.482674E-16	5.018067E-17
3.500000E+03	5.603474E-16	5.110882E-17
3.510000E+03	5.728492E-16	5.206623E-17
3.520000E+03	5.857377E-16	5.304923E-17
3.530000E+03	5.990537E-16	5.406104E-17
3.540000E+03	6.127992E-16	5.510132E-17
3.550000E+03	6.269751E-16	5.616960E-17
3.560000E+03	6.416203E-16	5.726887E-17
3.570000E+03	6.566953E-16	5.839500E-17
3.580000E+03	6.722763E-16	5.955423E-17
3.590000E+03	6.882813E-16	6.073868E-17
3.600000E+03	7.047067E-16	6.194748E-17
3.610000E+03	7.216307E-16	6.318694E-17
3.620000E+03	7.390096E-16	6.445258E-17
3.630000E+03	7.568019E-16	6.574021E-17
3.640000E+03	7.750489E-16	6.705283E-17
3.650000E+03	7.937534E-16	6.839006E-17
3.660000E+03	8.129241E-16	6.975205E-17
3.670000E+03	8.325317E-16	7.113562E-17
3.680000E+03	8.526380E-16	7.254544E-17
3.690000E+03	8.732712E-16	7.398321E-17
3.700000E+03	8.944269E-16	7.544783E-17
3.710000E+03	9.161538E-16	7.694268E-17
3.720000E+03	9.385112E-16	7.847192E-17
3.730000E+03	9.615700E-16	8.004061E-17
3.740000E+03	9.854552E-16	8.165816E-17
3.750000E+03	1.010168E-15	8.332361E-17
3.760000E+03	1.035805E-15	8.504366E-17
3.770000E+03	1.062498E-15	8.682811E-17
3.780000E+03	1.090297E-15	8.867938E-17
3.790000E+03	1.119275E-15	9.060209E-17
3.800000E+03	1.149492E-15	9.259946E-17
3.810000E+03	1.180937E-15	9.466895E-17
3.820000E+03	1.213607E-15	9.680879E-17
3.830000E+03	1.247511E-15	9.901800E-17
3.840000E+03	1.282522E-15	1.012848E-16
3.850000E+03	1.318417E-15	1.035904E-16
3.860000E+03	1.355156E-15	1.059301E-16
3.870000E+03	1.392374E-15	1.082745E-16
3.880000E+03	1.429848E-15	1.106056E-16
3.890000E+03	1.467221E-15	1.128953E-16
3.900000E+03	1.504204E-15	1.151216E-16
3.910000E+03	1.540350E-15	1.172508E-16
3.920000E+03	1.575351E-15	1.192603E-16
3.930000E+03	1.608815E-15	1.211220E-16
3.940000E+03	1.640426E-15	1.228141E-16
3.950000E+03	1.669860E-15	1.243147E-16
3.960000E+03	1.696948E-15	1.256139E-16
3.970000E+03	1.721439E-15	1.266962E-16
3.980000E+03	1.743303E-15	1.275627E-16
3.990000E+03	1.762490E-15	1.282131E-16
4.000000E+03	1.779029E-15	1.286530E-16
4.010000E+03	1.793114E-15	1.288998E-16
4.020000E+03	1.804959E-15	1.289720E-16
4.030000E+03	1.814695E-15	1.288817E-16
4.040000E+03	1.822769E-15	1.286636E-16
4.050000E+03	1.829385E-15	1.283340E-16
4.060000E+03	1.834940E-15	1.279228E-16
4.070000E+03	1.839787E-15	1.274558E-16
4.080000E+03	1.844177E-15	1.269515E-16
4.090000E+03	1.848513E-15	1.264381E-16
4.100000E+03	1.852951E-15	1.259264E-16
4.110000E+03	1.857816E-15	1.254385E-16
4.120000E+03	1.863264E-15	1.249843E-16
4.130000E+03	1.869401E-15	1.245704E-16
4.140000E+03	1.876365E-15	1.242050E-16
4.150000E+03	1.884160E-15	1.238876E-16
4.160000E+03	1.892779E-15	1.236169E-16
4.170000E+03	1.902168E-15	1.233883E-16
4.180000E+03	1.912187E-15	1.231920E-16
4.190000E+03	1.922732E-15	1.230208E-16
4.200000E+03	1.933586E-15	1.228604E-16
4.210000E+03	1.944540E-15	1.226975E-16
4.220000E+03	1.955399E-15	1.225198E-16
4.230000E+03	1.965841E-15	1.223078E-16
4.240000E+03	1.975687E-15	1.220513E-16
4.250000E+03	1.984650E-15	1.217336E-16
4.260000E+03	1.992533E-15	1.213442E-16
4.270000E+03	1.999088E-15	1.208699E-16
4.280000E+03	2.004146E-15	1.203024E-16
4.290000E+03	2.007620E-15	1.196390E-16
4.300000E+03	2.009447E-15	1.188781E-16
4.310000E+03	2.009601E-15	1.180207E-16
4.320000E+03	2.008235E-15	1.170783E-16
4.330000E+03	2.005482E-15	1.160607E-16
4.340000E+03	2.001624E-15	1.149862E-16
4.350000E+03	1.996963E-15	1.138736E-16
4.360000E+03	1.991953E-15	1.127500E-16
4.370000E+03	1.987190E-15	1.116496E-16
4.380000E+03	1.983349E-15	1.106100E-16
4.390000E+03	1.981321E-15	1.096796E-16
4.400000E+03	1.981914E-15	1.089009E-16
4.410000E+03	1.985986E-15	1.083178E-16
4.420000E+03	1.994303E-15	1.079679E-16
4.430000E+03	2.007584E-15	1.078850E-16
4.440000E+03	2.026586E-15	1.081042E-16
4.450000E+03	2.051940E-15	1.086522E-16
4.460000E+03	2.084135E-15	1.095479E-16
4.470000E+03	2.123631E-15	1.108077E-16
4.480000E+03	2.170822E-15	1.124442E-16
4.490000E+03	2.225760E-15	1.144522E-16
4.500000E+03	2.288355E-15	1.168190E-16
4.510000E+03	2.358373E-15	1.195253E-16
4.520000E+03	2.435353E-15	1.225406E-16
4.530000E+03	2.518548E-15	1.258213E-16
4.540000E+03	2.607084E-15	1.293185E-16
4.550000E+03	2.699777E-15	1.329696E-16
4.560000E+03	2.795278E-15	1.367057E-16
4.570000E+03	2.891898E-15	1.404434E-16
4.580000E+03	2.987868E-15	1.440976E-16
4.590000E+03	3.081234E-15	1.475762E-16
4.600000E+03	3.169926E-15	1.507842E-16
4.610000E+03	3.251880E-15	1.536289E-16
4.620000E+03	3.325225E-15	1.560296E-16
4.630000E+03	3.388210E-15	1.579130E-16
4.640000E+03	3.439427E-15	1.592236E-16
4.650000E+03	3.477799E-15	1.599231E-16
4.660000E+03	3.502830E-15	1.600000E-16
4.670000E+03	3.514261E-15	1.594546E-16
4.680000E+03	3.512531E-15	1.583183E-16
4.690000E+03	3.498380E-15	1.566355E-16
4.700000E+03	3.472976E-15	1.544684E-16
4.710000E+03	3.437794E-15	1.518914E-16
4.720000E+03	3.394482E-15	1.489844E-16
4.730000E+03	3.344895E-15	1.458346E-16
4.740000E+03	3.290800E-15	1.425232E-16
4.750000E+03	3.234041E-15	1.391325E-16
4.760000E+03	3.176311E-15	1.357364E-16
4.770000E+03	3.119063E-15	1.323967E-16
4.780000E+03	3.063637E-15	1.291687E-16
4.790000E+03	3.011154E-15	1.260971E-16
4.800000E+03	2.962473E-15	1.232147E-16
4.810000E+03	2.918306E-15	1.205470E-16
4.820000E+03	2.879111E-15	1.181086E-16
4.830000E+03	2.845185E-15	1.159068E-16
4.840000E+03	2.816575E-15	1.139386E-16
4.850000E+03	2.793266E-15	1.121986E-16
4.860000E+03	2.774974E-15	1.106705E-16
4.870000E+03	2.761448E-15	1.093398E-16
4.880000E+03	2.752184E-15	1.081823E-16
4.890000E+03	2.746719E-15	1.071759E-16
4.900000E+03	2.744444E-15	1.062937E-16
4.910000E+03	2.744751E-15	1.055091E-16
4.920000E+03	2.747056E-15	1.047975E-16
4.930000E+03	2.750737E-15	1.041332E-16
4.940000E+03	2.755284E-15	1.034959E-16
4.950000E+03	2.760230E-15	1.028671E-16
4.960000E+03	2.765205E-15	1.022327E-16
4.970000E+03	2.769956E-15	1.015832E-16
4.980000E+03	2.774353E-15	1.009140E-16
4.990000E+03	2.778398E-15	1.002255E-16
5.000000E+03	2.782251E-15	9.952377E-17
5.010000E+03	2.786133E-15	9.881673E-17
5.020000E+03	2.790435E-15	9.811810E-17
5.030000E+03	2.795571E-15	9.744209E-17
5.040000E+03	2.802090E-15	9.680694E-17
5.050000E+03	2.810554E-15	9.623076E-17
5.060000E+03	2.821552E-15	9.573195E-17
5.070000E+03	2.835685E-15	9.532846E-17
5.080000E+03	2.853544E-15	9.503732E-17
5.090000E+03	2.875702E-15	9.487420E-17
5.100000E+03	2.902734E-15	9.485412E-17
5.110000E+03	2.935152E-15	9.498937E-17
5.120000E+03	2.973386E-15	9.528911E-17
5.130000E+03	3.017885E-15	9.576245E-17
5.140000E+03	3.069008E-15	9.641532E-17
5.150000E+03	3.127050E-15	9.725118E-17
5.160000E+03	3.192199E-15	9.826993E-17
5.170000E+03	3.264659E-15	9.947196E-17
5.180000E+03	3.344437E-15	1.008514E-16
5.190000E+03	3.431468E-15	1.024006E-16
5.200000E+03	3.525597E-15	1.041095E-16
5.210000E+03	3.626468E-15	1.059623E-16
5.220000E+03	3.733617E-15	1.079413E-16
5.230000E+03	3.846475E-15	1.100261E-16
5.240000E+03	3.964248E-15	1.121913E-16
5.250000E+03	4.086084E-15	1.144111E-16
5.260000E+03	4.210928E-15	1.166554E-16
5.270000E+03	4.337708E-15	1.188953E-16
5.280000E+03	4.465245E-15	1.211004E-16
5.290000E+03	4.592330E-15	1.232416E-16
5.300000E+03	4.717723E-15	1.252903E-16
5.310000E+03	4.840342E-15	1.272240E-16
5.320000E+03	4.959120E-15	1.290217E-16
5.330000E+03	5.073252E-15	1.306708E-16
5.340000E+03	5.182086E-15	1.321635E-16
5.350000E+03	5.285215E-15	1.334989E-16
5.360000E+03	5.382445E-15	1.346819E-16
5.370000E+03	5.473975E-15	1.357273E-16
5.380000E+03	5.560240E-15	1.366554E-16
5.390000E+03	5.641938E-15	1.374927E-16
5.400000E+03	5.719933E-15	1.382686E-16
5.410000E+03	5.795370E-15	1.390190E-16
5.420000E+03	5.869352E-15	1.397775E-16
5.430000E+03	5.942993E-15	1.405774E-16
5.440000E+03	6.017036E-15	1.414423E-16
5.450000E+03	6.091647E-15	1.423824E-16
5.460000E+03	6.166548E-15	1.433971E-16
5.470000E+03	6.241387E-15	1.444845E-16
5.480000E+03	6.315323E-15	1.456299E-16
5.490000E+03	6.387544E-15	1.468154E-16
5.500000E+03	6.456804E-15	1.480119E-16
5.510000E+03	6.521763E-15	1.491876E-16
5.520000E+03	6.580829E-15	1.503048E-16
5.530000E+03	6.632287E-15	1.513224E-16
5.540000E+03	6.674381E-15	1.521979E-16
5.550000E+03	6.705481E-15	1.528908E-16
5.560000E+03	6.723998E-15	1.533609E-16
5.570000E+03	6.728699E-15	1.535754E-16
5.580000E+03	6.718682E-15	1.535079E-16
5.590000E+03	6.693713E-15	1.531469E-16
5.600000E+03	6.653889E-15	1.524879E-16
5.610000E+03	6.599846E-15	1.515382E-16
5.620000E+03	6.532930E-15	1.503215E-16
5.630000E+03	6.454752E-15	1.488675E-16
5.640000E+03	6.367355E-15	1.472166E-16
5.650000E+03	6.273116E-15	1.454173E-16
5.660000E+03	6.174370E-15	1.435179E-16
5.670000E+03	6.073739E-15	1.415744E-16
5.680000E+03	5.973649E-15	1.396393E-16
5.690000E+03	5.876300E-15	1.377608E-16
5.700000E+03	5.783718E-15	1.359838E-16
5.710000E+03	5.697682E-15	1.343485E-16
5.720000E+03	5.619519E-15	1.328853E-16
5.730000E+03	5.550303E-15	1.316190E-16
5.740000E+03	5.490616E-15	1.305635E-16
5.750000E+03	5.440768E-15	1.297262E-16
5.760000E+03	5.400634E-15	1.291047E-16
5.770000E+03	5.369669E-15	1.286865E-16
5.780000E+03	5.347092E-15	1.284532E-16
5.790000E+03	5.331693E-15	1.283761E-16
5.800000E+03	5.322087E-15	1.284222E-16
5.810000E+03	5.316599E-15	1.285510E-16
5.820000E+03	5.313331E-15	1.287164E-16
5.830000E+03	5.310322E-15	1.288708E-16
5.840000E+03	5.305636E-15	1.289666E-16
5.850000E+03	5.297330E-15	1.289562E-16
5.860000E+03	5.283543E-15	1.287938E-16
5.870000E+03	5.262666E-15	1.284398E-16
5.880000E+03	5.233370E-15	1.278615E-16
5.890000E+03	5.194693E-15	1.270354E-16
5.900000E+03	5.145883E-15	1.259433E-16
5.910000E+03	5.086764E-15	1.245814E-16
5.920000E+03	5.017327E-15	1.229503E-16
5.930000E+03	4.938067E-15	1.210631E-16
5.940000E+03	4.849744E-15	1.189399E-16
5.950000E+03	4.753345E-15	1.166065E-16
5.960000E+03	4.650171E-15	1.140964E-16
5.970000E+03	4.541552E-15	1.114443E-16
5.980000E+03	4.429060E-15	1.086905E-16
5.990000E+03	4.314275E-15	1.058760E-16
6.000000E+03	4.198771E-15	1.030412E-16
6.010000E+03	4.083995E-15	1.002236E-16
6.020000E+03	3.971466E-15	9.746227E-17
6.030000E+03	3.862381E-15	9.478825E-17
6.040000E+03	3.757981E-15	9.223370E-17
6.050000E+03	3.659225E-15	8.982368E-17
6.060000E+03	3.566859E-15	8.757802E-17
6.070000E+03	3.481559E-15	8.551477E-17
6.080000E+03	3.403752E-15	8.364595E-17
6.090000E+03	3.333699E-15	8.197946E-17
6.100000E+03	3.271503E-15	8.051945E-17
6.110000E+03	3.217155E-15	7.926747E-17
6.120000E+03	3.170485E-15	7.822113E-17
6.130000E+03	3.131170E-15	7.737454E-17
6.140000E+03	3.098880E-15	7.672173E-17
6.150000E+03	3.073064E-15	7.625144E-17
6.160000E+03	3.053215E-15	7.595366E-17
6.170000E+03	3.038695E-15	7.581524E-17
6.180000E+03	3.028818E-15	7.582185E-17
6.190000E+03	3.022920E-15	7.595977E-17
6.200000E+03	3.020297E-15	7.621425E-17
6.210000E+03	3.020261E-15	7.657079E-17
6.220000E+03	3.022163E-15	7.701572E-17
6.230000E+03	3.025456E-15	7.753774E-17
6.240000E+03	3.029659E-15	7.812702E-17
6.250000E+03	3.034479E-15	7.877819E-17
6.260000E+03	3.039702E-15	7.948630E-17
6.270000E+03	3.045287E-15	8.024949E-17
6.280000E+03	3.051352E-15	8.106981E-17
6.290000E+03	3.058148E-15	8.195303E-17
6.300000E+03	3.066015E-15	8.290747E-17
6.310000E+03	3.075415E-15	8.394513E-17
6.320000E+03	3.086862E-15	8.507995E-17
6.330000E+03	3.100847E-15	8.632586E-17
6.340000E+03	3.117896E-15	8.769843E-17
6.350000E+03	3.138328E-15	8.920809E-17
6.360000E+03	3.162519E-15	9.086742E-17
6.370000E+03	3.190607E-15	9.268273E-17
6.380000E+03	3.222542E-15	9.465516E-17
6.390000E+03	3.258220E-15	9.678425E-17
6.400000E+03	3.297350E-15	9.906398E-17
6.410000E+03	3.339699E-15	1.014898E-16
6.420000E+03	3.385116E-15	1.040593E-16
6.430000E+03	3.433500E-15	1.067716E-16
6.440000E+03	3.484642E-15	1.096225E-16
6.450000E+03	3.538122E-15	1.126004E-16
6.460000E+03	3.593404E-15	1.156896E-16
6.470000E+03	3.649767E-15	1.188676E-16
6.480000E+03	3.706427E-15	1.221087E-16
6.490000E+03	3.762440E-15	1.253806E-16
6.500000E+03	3.816718E-15	1.286447E-16
6.510000E+03	3.868308E-15	1.318652E-16
6.520000E+03	3.915974E-15	1.349953E-16
6.530000E+03	3.958642E-15	1.379915E-16
6.540000E+03	3.995149E-15	1.408059E-16
6.550000E+03	4.024537E-15	1.433956E-16
6.560000E+03	4.045875E-15	1.457177E-16
6.570000E+03	4.058283E-15	1.477294E-16
6.580000E+03	4.061243E-15	1.493999E-16
6.590000E+03	4.054336E-15	1.507017E-16
6.600000E+03	4.037314E-15	1.516128E-16
6.610000E+03	4.010236E-15	1.521229E-16
6.620000E+03	3.973287E-15	1.522265E-16
6.630000E+03	3.926944E-15	1.519302E-16
6.640000E+03	3.871831E-15	1.512470E-16
6.650000E+03	3.808690E-15	1.501959E-16
6.660000E+03	3.738532E-15	1.488077E-16
6.670000E+03	3.662339E-15	1.471140E-16
6.680000E+03	3.581203E-15	1.451524E-16
6.690000E+03	3.496298E-15	1.429656E-16
6.700000E+03	3.408711E-15	1.405945E-16
6.710000E+03	3.319583E-15	1.380843E-16
6.720000E+03	3.229958E-15	1.354775E-16
6.730000E+03	3.140760E-15	1.328132E-16
6.740000E+03	3.052929E-15	1.301327E-16
6.750000E+03	2.967179E-15	1.274685E-16
6.760000E+03	2.884182E-15	1.248528E-16
6.770000E+03	2.804409E-15	1.223094E-16
6.780000E+03	2.728286E-15	1.198611E-16
6.790000E+03	2.656052E-15	1.175227E-16
6.800000E+03	2.587934E-15	1.153088E-16
6.810000E+03	2.523936E-15	1.132242E-16
6.820000E+03	2.464098E-15	1.112751E-16
6.830000E+03	2.408299E-15	1.094606E-16
6.840000E+03	2.356389E-15	1.077779E-16
6.850000E+03	2.308173E-15	1.062222E-16
6.860000E+03	2.263454E-15	1.047881E-16
6.870000E+03	2.221957E-15	1.034663E-16
6.880000E+03	2.183457E-15	1.022493E-16
6.890000E+03	2.147700E-15	1.011281E-16
6.900000E+03	2.114415E-15	1.000927E-16
6.910000E+03	2.083404E-15	9.913572E-17
6.920000E+03	2.054430E-15	9.824815E-17
6.930000E+03	2.027363E-15	9.742553E-17
6.940000E+03	2.001993E-15	9.665953E-17
6.950000E+03	1.978186E-15	9.594518E-17
6.960000E+03	1.955887E-15	9.528114E-17
6.970000E+03	1.934961E-15	9.466225E-17
6.980000E+03	1.915375E-15	9.408795E-17
6.990000E+03	1.897086E-15	9.355737E-17
7.000000E+03	1.880050E-15	9.306934E-17
7.010000E+03	1.864310E-15	9.262698E-17
7.020000E+03	1.849806E-15	9.222830E-17
7.030000E+03	1.836631E-15	9.187887E-17
7.040000E+03	1.824751E-15	9.157790E-17
7.050000E+03	1.814282E-15	9.133203E-17
7.060000E+03	1.805207E-15	9.114136E-17
7.070000E+03	1.797637E-15	9.101219E-17
7.080000E+03	1.791616E-15	9.094759E-17
7.090000E+03	1.787214E-15	9.095196E-17
7.100000E+03	1.784506E-15	9.102972E-17
7.110000E+03	1.783561E-15	9.118524E-17
7.120000E+03	1.784450E-15	9.142271E-17
7.130000E+03	1.787207E-15	9.174453E-17
7.140000E+03	1.791882E-15	9.215390E-17
7.150000E+03	1.798534E-15	9.265426E-17
7.160000E+03	1.807133E-15	9.324465E-17
7.170000E+03	1.817726E-15	9.392775E-17
7.180000E+03	1.830217E-15	9.469904E-17
7.190000E+03	1.844630E-15	9.555993E-17
7.200000E+03	1.860819E-15	9.650307E-17
7.210000E+03	1.878707E-15	9.752463E-17
7.220000E+03	1.898149E-15	9.861700E-17
7.230000E+03	1.919019E-15	9.977374E-17
7.240000E+03	1.941127E-15	1.009848E-16
7.250000E+03	1.964231E-15	1.022375E-16
7.260000E+03	1.988187E-15	1.035241E-16
7.270000E+03	2.012755E-15	1.048320E-16
7.280000E+03	2.037701E-15	1.061488E-16
7.290000E+03	2.062784E-15	1.074617E-16
7.300000E+03	2.087829E-15	1.087614E-16
7.310000E+03	2.112620E-15	1.100365E-16
7.320000E+03	2.136958E-15	1.112765E-16
7.330000E+03	2.160663E-15	1.124718E-16
7.340000E+03	2.183636E-15	1.136174E-16
7.350000E+03	2.205717E-15	1.147048E-16
7.360000E+03	2.226798E-15	1.157286E-16
7.370000E+03	2.246852E-15	1.166875E-16
7.380000E+03	2.265810E-15	1.175780E-16
7.390000E+03	2.283590E-15	1.183961E-16
7.400000E+03	2.300206E-15	1.191430E-16
7.410000E+03	2.315594E-15	1.198156E-16
7.420000E+03	2.329781E-15	1.204158E-16
7.430000E+03	2.342671E-15	1.209391E-16
7.440000E+03	2.354359E-15	1.213910E-16
7.450000E+03	2.364784E-15	1.217689E-16
7.460000E+03	2.373952E-15	1.220738E-16
7.470000E+03	2.381973E-15	1.223120E-16
7.480000E+03	2.388811E-15	1.224824E-16
7.490000E+03	2.394611E-15	1.225932E-16
7.500000E+03	2.399379E-15	1.226455E-16
7.510000E+03	2.403314E-15	1.226502E-16
7.520000E+03	2.406517E-15	1.226133E-16
7.530000E+03	2.409224E-15	1.225476E-16
7.540000E+03	2.411610E-15	1.224626E-16
7.550000E+03	2.413944E-15	1.223730E-16
7.560000E+03	2.416563E-15	1.222964E-16
7.570000E+03	2.419691E-15	1.222447E-16
7.580000E+03	2.423700E-15	1.222373E-16
7.590000E+03	2.428927E-15	1.222918E-16
7.600000E+03	2.435605E-15	1.224202E-16
7.610000E+03	2.444110E-15	1.226421E-16
7.620000E+03	2.454617E-15	1.229664E-16
7.630000E+03	2.467392E-15	1.234070E-16
7.640000E+03	2.482576E-15	1.239713E-16
7.650000E+03	2.500210E-15	1.246617E-16
7.660000E+03	2.520328E-15	1.254805E-16
7.670000E+03	2.542853E-15	1.264244E-16
7.680000E+03	2.567621E-15	1.274861E-16
7.690000E+03	2.594421E-15	1.286559E-16
7.700000E+03	2.622887E-15	1.299167E-16
7.710000E+03	2.652605E-15	1.312491E-16
7.720000E+03	2.683129E-15	1.326326E-16
7.730000E+03	2.713869E-15	1.340394E-16
7.740000E+03	2.744218E-15	1.354412E-16
7.750000E+03	2.773565E-15	1.368098E-16
7.760000E+03	2.801237E-15	1.381139E-16
