#wls	flux	fluxerr
1.600000E+03	7.368623E-16	1.327754E-16
1.640000E+03	5.902425E-16	1.056665E-16
1.680000E+03	4.704976E-16	8.367802E-17
1.720000E+03	3.734660E-16	6.598219E-17
1.760000E+03	2.956507E-16	5.188644E-17
1.800000E+03	2.337007E-16	4.073945E-17
1.840000E+03	1.848121E-16	3.200002E-17
1.880000E+03	1.464763E-16	2.519069E-17
1.920000E+03	1.166073E-16	1.991791E-17
1.960000E+03	9.345399E-17	1.585470E-17
2.000000E+03	7.561175E-17	1.274069E-17
2.040000E+03	6.194723E-17	1.036753E-17
2.080000E+03	5.161265E-17	8.579666E-18
2.120000E+03	4.395671E-17	7.257995E-18
2.160000E+03	3.854591E-17	6.322206E-18
2.200000E+03	3.506169E-17	5.712782E-18
2.240000E+03	3.330852E-17	5.391630E-18
2.280000E+03	3.319077E-17	5.337722E-18
2.320000E+03	3.468164E-17	5.541570E-18
2.360000E+03	3.785475E-17	6.009821E-18
2.400000E+03	4.288527E-17	6.764927E-18
2.440000E+03	5.003322E-17	7.841965E-18
2.480000E+03	5.958891E-17	9.279684E-18
2.520000E+03	7.179586E-17	1.110836E-17
2.560000E+03	8.675624E-17	1.333545E-17
2.600000E+03	1.042648E-16	1.592085E-17
2.640000E+03	1.237996E-16	1.877699E-17
2.680000E+03	1.446473E-16	2.178934E-17
2.720000E+03	1.660496E-16	2.483925E-17
2.760000E+03	1.873152E-16	2.782102E-17
2.800000E+03	2.077649E-16	3.063340E-17
2.840000E+03	2.269019E-16	3.320474E-17
2.880000E+03	2.443426E-16	3.548196E-17
2.920000E+03	2.599045E-16	3.744282E-17
2.960000E+03	2.736926E-16	3.910715E-17
3.000000E+03	2.859407E-16	4.051272E-17
3.010000E+03	2.888163E-16	4.083182E-17
3.020000E+03	2.916465E-16	4.114220E-17
3.030000E+03	2.944101E-16	4.144091E-17
3.040000E+03	2.971152E-16	4.172912E-17
3.050000E+03	2.998292E-16	4.201630E-17
3.060000E+03	3.024727E-16	4.229133E-17
3.070000E+03	3.051432E-16	4.256785E-17
3.080000E+03	3.077910E-16	4.283888E-17
3.090000E+03	3.104549E-16	4.310984E-17
3.100000E+03	3.131447E-16	4.338202E-17
3.110000E+03	3.158402E-16	4.365260E-17
3.120000E+03	3.186106E-16	4.393107E-17
3.130000E+03	3.214060E-16	4.421049E-17
3.140000E+03	3.242959E-16	4.450035E-17
3.150000E+03	3.272301E-16	4.479365E-17
3.160000E+03	3.302781E-16	4.509981E-17
3.170000E+03	3.334195E-16	4.541593E-17
3.180000E+03	3.366939E-16	4.574724E-17
3.190000E+03	3.400803E-16	4.609076E-17
3.200000E+03	3.436181E-16	4.645165E-17
3.210000E+03	3.472857E-16	4.682683E-17
3.220000E+03	3.511219E-16	4.722135E-17
3.230000E+03	3.551351E-16	4.763612E-17
3.240000E+03	3.593330E-16	4.807197E-17
3.250000E+03	3.637539E-16	4.853377E-17
3.260000E+03	3.683430E-16	4.901396E-17
3.270000E+03	3.731685E-16	4.952136E-17
3.280000E+03	3.782362E-16	5.005645E-17
3.290000E+03	3.835514E-16	5.061963E-17
3.300000E+03	3.890867E-16	5.120698E-17
3.310000E+03	3.949086E-16	5.182694E-17
3.320000E+03	4.009882E-16	5.247534E-17
3.330000E+03	4.073585E-16	5.315617E-17
3.340000E+03	4.140203E-16	5.386915E-17
3.350000E+03	4.209725E-16	5.461377E-17
3.360000E+03	4.282130E-16	5.538932E-17
3.370000E+03	4.357708E-16	5.619922E-17
3.380000E+03	4.436413E-16	5.704240E-17
3.390000E+03	4.518181E-16	5.791763E-17
3.400000E+03	4.603271E-16	5.882780E-17
3.410000E+03	4.691594E-16	5.977133E-17
3.420000E+03	4.783050E-16	6.074646E-17
3.430000E+03	4.877870E-16	6.175571E-17
3.440000E+03	4.975940E-16	6.279714E-17
3.450000E+03	5.077146E-16	6.386885E-17
3.460000E+03	5.181727E-16	6.497338E-17
3.470000E+03	5.289946E-16	6.611352E-17
3.480000E+03	5.401376E-16	6.728342E-17
3.490000E+03	5.516693E-16	6.849099E-17
3.500000E+03	5.635526E-16	6.973107E-17
3.510000E+03	5.758616E-16	7.101226E-17
3.520000E+03	5.885632E-16	7.232988E-17
3.530000E+03	6.016619E-16	7.368385E-17
3.540000E+03	6.152374E-16	7.508332E-17
3.550000E+03	6.292593E-16	7.652387E-17
3.560000E+03	6.437718E-16	7.801017E-17
3.570000E+03	6.587451E-16	7.953789E-17
3.580000E+03	6.742244E-16	8.111175E-17
3.590000E+03	6.902186E-16	8.273202E-17
3.600000E+03	7.066977E-16	8.439434E-17
3.610000E+03	7.237124E-16	8.610397E-17
3.620000E+03	7.412737E-16	8.786136E-17
3.630000E+03	7.593184E-16	8.965819E-17
3.640000E+03	7.779421E-16	9.150493E-17
3.650000E+03	7.971656E-16	9.340308E-17
3.660000E+03	8.169354E-16	9.534543E-17
3.670000E+03	8.373599E-16	9.734370E-17
3.680000E+03	8.583957E-16	9.939183E-17
3.690000E+03	8.801221E-16	1.014979E-16
3.700000E+03	9.025479E-16	1.036619E-16
3.710000E+03	9.257651E-16	1.058932E-16
3.720000E+03	9.497924E-16	1.081926E-16
3.730000E+03	9.746938E-16	1.105661E-16
3.740000E+03	1.000534E-15	1.130196E-16
3.750000E+03	1.027383E-15	1.155593E-16
3.760000E+03	1.055264E-15	1.181864E-16
3.770000E+03	1.084238E-15	1.209059E-16
3.780000E+03	1.114357E-15	1.237217E-16
3.790000E+03	1.145618E-15	1.266320E-16
3.800000E+03	1.178087E-15	1.296417E-16
3.810000E+03	1.211721E-15	1.327445E-16
3.820000E+03	1.246496E-15	1.359356E-16
3.830000E+03	1.282358E-15	1.392073E-16
3.840000E+03	1.319131E-15	1.425388E-16
3.850000E+03	1.356784E-15	1.459252E-16
3.860000E+03	1.395073E-15	1.493387E-16
3.870000E+03	1.433854E-15	1.527631E-16
3.880000E+03	1.472819E-15	1.561645E-16
3.890000E+03	1.511818E-15	1.595266E-16
3.900000E+03	1.550449E-15	1.628071E-16
3.910000E+03	1.588534E-15	1.659878E-16
3.920000E+03	1.625710E-15	1.690315E-16
3.930000E+03	1.661711E-15	1.719120E-16
3.940000E+03	1.696297E-15	1.746063E-16
3.950000E+03	1.729257E-15	1.770948E-16
3.960000E+03	1.760374E-15	1.793577E-16
3.970000E+03	1.789521E-15	1.813854E-16
3.980000E+03	1.816584E-15	1.831691E-16
3.990000E+03	1.841548E-15	1.847105E-16
4.000000E+03	1.864455E-15	1.860173E-16
4.010000E+03	1.885358E-15	1.870979E-16
4.020000E+03	1.904404E-15	1.879700E-16
4.030000E+03	1.921739E-15	1.886510E-16
4.040000E+03	1.937636E-15	1.891701E-16
4.050000E+03	1.952256E-15	1.895457E-16
4.060000E+03	1.965914E-15	1.898100E-16
4.070000E+03	1.978837E-15	1.899865E-16
4.080000E+03	1.991295E-15	1.901023E-16
4.090000E+03	2.003499E-15	1.901782E-16
4.100000E+03	2.015683E-15	1.902369E-16
4.110000E+03	2.028053E-15	1.902977E-16
4.120000E+03	2.040738E-15	1.903724E-16
4.130000E+03	2.053913E-15	1.904769E-16
4.140000E+03	2.067626E-15	1.906151E-16
4.150000E+03	2.081885E-15	1.907867E-16
4.160000E+03	2.096779E-15	1.909992E-16
4.170000E+03	2.112145E-15	1.912368E-16
4.180000E+03	2.127990E-15	1.914995E-16
4.190000E+03	2.144114E-15	1.917689E-16
4.200000E+03	2.160452E-15	1.920388E-16
4.210000E+03	2.176785E-15	1.922897E-16
4.220000E+03	2.192872E-15	1.925007E-16
4.230000E+03	2.208582E-15	1.926607E-16
4.240000E+03	2.223610E-15	1.927444E-16
4.250000E+03	2.237820E-15	1.927412E-16
4.260000E+03	2.250920E-15	1.926278E-16
4.270000E+03	2.262806E-15	1.923973E-16
4.280000E+03	2.273321E-15	1.920388E-16
4.290000E+03	2.282312E-15	1.915418E-16
4.300000E+03	2.289753E-15	1.909070E-16
4.310000E+03	2.295644E-15	1.901372E-16
4.320000E+03	2.300090E-15	1.892438E-16
4.330000E+03	2.303238E-15	1.882414E-16
4.340000E+03	2.305320E-15	1.871513E-16
4.350000E+03	2.306666E-15	1.860021E-16
4.360000E+03	2.307787E-15	1.848362E-16
4.370000E+03	2.309190E-15	1.836945E-16
4.380000E+03	2.311570E-15	1.826316E-16
4.390000E+03	2.315622E-15	1.817010E-16
4.400000E+03	2.322198E-15	1.809665E-16
4.410000E+03	2.332089E-15	1.804855E-16
4.420000E+03	2.346032E-15	1.803097E-16
4.430000E+03	2.364805E-15	1.804923E-16
4.440000E+03	2.389052E-15	1.810748E-16
4.450000E+03	2.419419E-15	1.820975E-16
4.460000E+03	2.456351E-15	1.835843E-16
4.470000E+03	2.500323E-15	1.855604E-16
4.480000E+03	2.551597E-15	1.880348E-16
4.490000E+03	2.610185E-15	1.909973E-16
4.500000E+03	2.676023E-15	1.944325E-16
4.510000E+03	2.748780E-15	1.983062E-16
4.520000E+03	2.828009E-15	2.025763E-16
4.530000E+03	2.912938E-15	2.071790E-16
4.540000E+03	3.002708E-15	2.120456E-16
4.550000E+03	3.096165E-15	2.170892E-16
4.560000E+03	3.192001E-15	2.222140E-16
4.570000E+03	3.288682E-15	2.273116E-16
4.580000E+03	3.384521E-15	2.322662E-16
4.590000E+03	3.477818E-15	2.369640E-16
4.600000E+03	3.566739E-15	2.412852E-16
4.610000E+03	3.649521E-15	2.451181E-16
4.620000E+03	3.724449E-15	2.483576E-16
4.630000E+03	3.790037E-15	2.509170E-16
4.640000E+03	3.845043E-15	2.527281E-16
4.650000E+03	3.888540E-15	2.537456E-16
4.660000E+03	3.919902E-15	2.539451E-16
4.670000E+03	3.938983E-15	2.533342E-16
4.680000E+03	3.945922E-15	2.519389E-16
4.690000E+03	3.941272E-15	2.498107E-16
4.700000E+03	3.925912E-15	2.470208E-16
4.710000E+03	3.900994E-15	2.436553E-16
4.720000E+03	3.867826E-15	2.398083E-16
4.730000E+03	3.827953E-15	2.355855E-16
4.740000E+03	3.782887E-15	2.310879E-16
4.750000E+03	3.734188E-15	2.264169E-16
4.760000E+03	3.683315E-15	2.216643E-16
4.770000E+03	3.631667E-15	2.169164E-16
4.780000E+03	3.580503E-15	2.122482E-16
4.790000E+03	3.530828E-15	2.077179E-16
4.800000E+03	3.483556E-15	2.033763E-16
4.810000E+03	3.439457E-15	1.992644E-16
4.820000E+03	3.399111E-15	1.954108E-16
4.830000E+03	3.362839E-15	1.918287E-16
4.840000E+03	3.330879E-15	1.885258E-16
4.850000E+03	3.303281E-15	1.854988E-16
4.860000E+03	3.279999E-15	1.827392E-16
4.870000E+03	3.260873E-15	1.802322E-16
4.880000E+03	3.245580E-15	1.779545E-16
4.890000E+03	3.233757E-15	1.758810E-16
4.900000E+03	3.225036E-15	1.739873E-16
4.910000E+03	3.218945E-15	1.722439E-16
4.920000E+03	3.215081E-15	1.706260E-16
4.930000E+03	3.213023E-15	1.691083E-16
4.940000E+03	3.212423E-15	1.676704E-16
4.950000E+03	3.212887E-15	1.662901E-16
4.960000E+03	3.214198E-15	1.649547E-16
4.970000E+03	3.216191E-15	1.636549E-16
4.980000E+03	3.218832E-15	1.623883E-16
4.990000E+03	3.222115E-15	1.611537E-16
5.000000E+03	3.226165E-15	1.599568E-16
5.010000E+03	3.231237E-15	1.588092E-16
5.020000E+03	3.237600E-15	1.577229E-16
5.030000E+03	3.245665E-15	1.567164E-16
5.040000E+03	3.255865E-15	1.558085E-16
5.050000E+03	3.268679E-15	1.550196E-16
5.060000E+03	3.284576E-15	1.543685E-16
5.070000E+03	3.304143E-15	1.538793E-16
5.080000E+03	3.327827E-15	1.535682E-16
5.090000E+03	3.356202E-15	1.534569E-16
5.100000E+03	3.389741E-15	1.535615E-16
5.110000E+03	3.428813E-15	1.538926E-16
5.120000E+03	3.473918E-15	1.544664E-16
5.130000E+03	3.525278E-15	1.552861E-16
5.140000E+03	3.583274E-15	1.563614E-16
5.150000E+03	3.648023E-15	1.576904E-16
5.160000E+03	3.719708E-15	1.592740E-16
5.170000E+03	3.798264E-15	1.611024E-16
5.180000E+03	3.883636E-15	1.631667E-16
5.190000E+03	3.975658E-15	1.654535E-16
5.200000E+03	4.073966E-15	1.679421E-16
5.210000E+03	4.178106E-15	1.706088E-16
5.220000E+03	4.287503E-15	1.734262E-16
5.230000E+03	4.401457E-15	1.763628E-16
5.240000E+03	4.519203E-15	1.793863E-16
5.250000E+03	4.639831E-15	1.824599E-16
5.260000E+03	4.762304E-15	1.855436E-16
5.270000E+03	4.885580E-15	1.885991E-16
5.280000E+03	5.008646E-15	1.915909E-16
5.290000E+03	5.130406E-15	1.944819E-16
5.300000E+03	5.249917E-15	1.972428E-16
5.310000E+03	5.366279E-15	1.998471E-16
5.320000E+03	5.478659E-15	2.022720E-16
5.330000E+03	5.586492E-15	2.045059E-16
5.340000E+03	5.689276E-15	2.065399E-16
5.350000E+03	5.786817E-15	2.083769E-16
5.360000E+03	5.878990E-15	2.100226E-16
5.370000E+03	5.965976E-15	2.114933E-16
5.380000E+03	6.047988E-15	2.128061E-16
5.390000E+03	6.125486E-15	2.139863E-16
5.400000E+03	6.198880E-15	2.150572E-16
5.410000E+03	6.268738E-15	2.160465E-16
5.420000E+03	6.335486E-15	2.169765E-16
5.430000E+03	6.399724E-15	2.178749E-16
5.440000E+03	6.461869E-15	2.187626E-16
5.450000E+03	6.522159E-15	2.196539E-16
5.460000E+03	6.580611E-15	2.205553E-16
5.470000E+03	6.636847E-15	2.214592E-16
5.480000E+03	6.690397E-15	2.223511E-16
5.490000E+03	6.740512E-15	2.232064E-16
5.500000E+03	6.786204E-15	2.239921E-16
5.510000E+03	6.826560E-15	2.246776E-16
5.520000E+03	6.860454E-15	2.252254E-16
5.530000E+03	6.886750E-15	2.255971E-16
5.540000E+03	6.904361E-15	2.257558E-16
5.550000E+03	6.912319E-15	2.256682E-16
5.560000E+03	6.909839E-15	2.253063E-16
5.570000E+03	6.896390E-15	2.246503E-16
5.580000E+03	6.871666E-15	2.236867E-16
5.590000E+03	6.835828E-15	2.224173E-16
5.600000E+03	6.789321E-15	2.208522E-16
5.610000E+03	6.732857E-15	2.190104E-16
5.620000E+03	6.667672E-15	2.169271E-16
5.630000E+03	6.595070E-15	2.146401E-16
5.640000E+03	6.516573E-15	2.121941E-16
5.650000E+03	6.434043E-15	2.096450E-16
5.660000E+03	6.349228E-15	2.070453E-16
5.670000E+03	6.263935E-15	2.044500E-16
5.680000E+03	6.179915E-15	2.019124E-16
5.690000E+03	6.098849E-15	1.994842E-16
5.700000E+03	6.022117E-15	1.972078E-16
5.710000E+03	5.951004E-15	1.951231E-16
5.720000E+03	5.886427E-15	1.932581E-16
5.730000E+03	5.829091E-15	1.916347E-16
5.740000E+03	5.779480E-15	1.902677E-16
5.750000E+03	5.737728E-15	1.891607E-16
5.760000E+03	5.703630E-15	1.883063E-16
5.770000E+03	5.676813E-15	1.876920E-16
5.780000E+03	5.656531E-15	1.872928E-16
5.790000E+03	5.641907E-15	1.870794E-16
5.800000E+03	5.631732E-15	1.870116E-16
5.810000E+03	5.624729E-15	1.870467E-16
5.820000E+03	5.619419E-15	1.871351E-16
5.830000E+03	5.614177E-15	1.872225E-16
5.840000E+03	5.607388E-15	1.872543E-16
5.850000E+03	5.597510E-15	1.871787E-16
5.860000E+03	5.582967E-15	1.869422E-16
5.870000E+03	5.562422E-15	1.864995E-16
5.880000E+03	5.534566E-15	1.858058E-16
5.890000E+03	5.498543E-15	1.848317E-16
5.900000E+03	5.453600E-15	1.835513E-16
5.910000E+03	5.399289E-15	1.819489E-16
5.920000E+03	5.335626E-15	1.800244E-16
5.930000E+03	5.262670E-15	1.777796E-16
5.940000E+03	5.181084E-15	1.752364E-16
5.950000E+03	5.091486E-15	1.724157E-16
5.960000E+03	4.994975E-15	1.693547E-16
5.970000E+03	4.892678E-15	1.660918E-16
5.980000E+03	4.785857E-15	1.626701E-16
5.990000E+03	4.675956E-15	1.591392E-16
6.000000E+03	4.564352E-15	1.555466E-16
6.010000E+03	4.452460E-15	1.519411E-16
6.020000E+03	4.341592E-15	1.483684E-16
6.030000E+03	4.233060E-15	1.448744E-16
6.040000E+03	4.127928E-15	1.414966E-16
6.050000E+03	4.027252E-15	1.382725E-16
6.060000E+03	3.931850E-15	1.352316E-16
6.070000E+03	3.842392E-15	1.323985E-16
6.080000E+03	3.759422E-15	1.297937E-16
6.090000E+03	3.683334E-15	1.274327E-16
6.100000E+03	3.614303E-15	1.253235E-16
6.110000E+03	3.552440E-15	1.234721E-16
6.120000E+03	3.497731E-15	1.218806E-16
6.130000E+03	3.449984E-15	1.205446E-16
6.140000E+03	3.409006E-15	1.194602E-16
6.150000E+03	3.374455E-15	1.186180E-16
6.160000E+03	3.345916E-15	1.180063E-16
6.170000E+03	3.322950E-15	1.176128E-16
6.180000E+03	3.305112E-15	1.174246E-16
6.190000E+03	3.291895E-15	1.174268E-16
6.200000E+03	3.282754E-15	1.176030E-16
6.210000E+03	3.277216E-15	1.179393E-16
6.220000E+03	3.274775E-15	1.184204E-16
6.230000E+03	3.275032E-15	1.190348E-16
6.240000E+03	3.277620E-15	1.197720E-16
6.250000E+03	3.282277E-15	1.206250E-16
6.260000E+03	3.288792E-15	1.215877E-16
6.270000E+03	3.297042E-15	1.226554E-16
6.280000E+03	3.307056E-15	1.238296E-16
6.290000E+03	3.318845E-15	1.251108E-16
6.300000E+03	3.332591E-15	1.265061E-16
6.310000E+03	3.348458E-15	1.280223E-16
6.320000E+03	3.366649E-15	1.296679E-16
6.330000E+03	3.387441E-15	1.314545E-16
6.340000E+03	3.410993E-15	1.333896E-16
6.350000E+03	3.437457E-15	1.354806E-16
6.360000E+03	3.466997E-15	1.377358E-16
6.370000E+03	3.499670E-15	1.401593E-16
6.380000E+03	3.535336E-15	1.427476E-16
6.390000E+03	3.573931E-15	1.455000E-16
6.400000E+03	3.615289E-15	1.484117E-16
6.410000E+03	3.659193E-15	1.514757E-16
6.420000E+03	3.705425E-15	1.546845E-16
6.430000E+03	3.753732E-15	1.580289E-16
6.440000E+03	3.803832E-15	1.614981E-16
6.450000E+03	3.855304E-15	1.650749E-16
6.460000E+03	3.907621E-15	1.687371E-16
6.470000E+03	3.960101E-15	1.724547E-16
6.480000E+03	4.011947E-15	1.761919E-16
6.490000E+03	4.062404E-15	1.799131E-16
6.500000E+03	4.110549E-15	1.835743E-16
6.510000E+03	4.155452E-15	1.871300E-16
6.520000E+03	4.196113E-15	1.905296E-16
6.530000E+03	4.231630E-15	1.937258E-16
6.540000E+03	4.260949E-15	1.966628E-16
6.550000E+03	4.283275E-15	1.992953E-16
6.560000E+03	4.297818E-15	2.015769E-16
6.570000E+03	4.303868E-15	2.034642E-16
6.580000E+03	4.301014E-15	2.049267E-16
6.590000E+03	4.288870E-15	2.059348E-16
6.600000E+03	4.267283E-15	2.064696E-16
6.610000E+03	4.236291E-15	2.065217E-16
6.620000E+03	4.196120E-15	2.060907E-16
6.630000E+03	4.147223E-15	2.051885E-16
6.640000E+03	4.090171E-15	2.038333E-16
6.650000E+03	4.025626E-15	2.020492E-16
6.660000E+03	3.954470E-15	1.998725E-16
6.670000E+03	3.877625E-15	1.973429E-16
6.680000E+03	3.796073E-15	1.945047E-16
6.690000E+03	3.710870E-15	1.914078E-16
6.700000E+03	3.622988E-15	1.880991E-16
6.710000E+03	3.533461E-15	1.846303E-16
6.720000E+03	3.443189E-15	1.810477E-16
6.730000E+03	3.353131E-15	1.774017E-16
6.740000E+03	3.263997E-15	1.737313E-16
6.750000E+03	3.176567E-15	1.700796E-16
6.760000E+03	3.091402E-15	1.664794E-16
6.770000E+03	3.008995E-15	1.629603E-16
6.780000E+03	2.929781E-15	1.595494E-16
6.790000E+03	2.854055E-15	1.562666E-16
6.800000E+03	2.781985E-15	1.531251E-16
6.810000E+03	2.713759E-15	1.501394E-16
6.820000E+03	2.649356E-15	1.473125E-16
6.830000E+03	2.588794E-15	1.446492E-16
6.840000E+03	2.532031E-15	1.421512E-16
6.850000E+03	2.478920E-15	1.398141E-16
6.860000E+03	2.429314E-15	1.376330E-16
6.870000E+03	2.383041E-15	1.356017E-16
6.880000E+03	2.339947E-15	1.337143E-16
6.890000E+03	2.299807E-15	1.319610E-16
6.900000E+03	2.262456E-15	1.303351E-16
6.910000E+03	2.227678E-15	1.288263E-16
6.920000E+03	2.195321E-15	1.274282E-16
6.930000E+03	2.165190E-15	1.261316E-16
6.940000E+03	2.137162E-15	1.249310E-16
6.950000E+03	2.111103E-15	1.238204E-16
6.960000E+03	2.086869E-15	1.227930E-16
6.970000E+03	2.064361E-15	1.218442E-16
6.980000E+03	2.043556E-15	1.209741E-16
6.990000E+03	2.024308E-15	1.201753E-16
7.000000E+03	2.006650E-15	1.194509E-16
7.010000E+03	1.990474E-15	1.187955E-16
7.020000E+03	1.975812E-15	1.182120E-16
7.030000E+03	1.962661E-15	1.177012E-16
7.040000E+03	1.951002E-15	1.172629E-16
7.050000E+03	1.940849E-15	1.168987E-16
7.060000E+03	1.932226E-15	1.166109E-16
7.070000E+03	1.925164E-15	1.164021E-16
7.080000E+03	1.919721E-15	1.162765E-16
7.090000E+03	1.915885E-15	1.162340E-16
7.100000E+03	1.913715E-15	1.162790E-16
7.110000E+03	1.913250E-15	1.164141E-16
7.120000E+03	1.914495E-15	1.166402E-16
7.130000E+03	1.917498E-15	1.169608E-16
7.140000E+03	1.922252E-15	1.173759E-16
7.150000E+03	1.928761E-15	1.178858E-16
7.160000E+03	1.937019E-15	1.184906E-16
7.170000E+03	1.946976E-15	1.191875E-16
7.180000E+03	1.958647E-15	1.199774E-16
7.190000E+03	1.971898E-15	1.208523E-16
7.200000E+03	1.986682E-15	1.218093E-16
7.210000E+03	2.002936E-15	1.228445E-16
7.220000E+03	2.020469E-15	1.239463E-16
7.230000E+03	2.039213E-15	1.251101E-16
7.240000E+03	2.059003E-15	1.263258E-16
7.250000E+03	2.079659E-15	1.275822E-16
7.260000E+03	2.101049E-15	1.288711E-16
7.270000E+03	2.122951E-15	1.301786E-16
7.280000E+03	2.145195E-15	1.314941E-16
7.290000E+03	2.167642E-15	1.328091E-16
7.300000E+03	2.190070E-15	1.341096E-16
7.310000E+03	2.212322E-15	1.353861E-16
7.320000E+03	2.234222E-15	1.366278E-16
7.330000E+03	2.255669E-15	1.378286E-16
7.340000E+03	2.276485E-15	1.389775E-16
7.350000E+03	2.296535E-15	1.400666E-16
7.360000E+03	2.315765E-15	1.410929E-16
7.370000E+03	2.334077E-15	1.420504E-16
7.380000E+03	2.351381E-15	1.429343E-16
7.390000E+03	2.367639E-15	1.437427E-16
7.400000E+03	2.382757E-15	1.444702E-16
7.410000E+03	2.396751E-15	1.451184E-16
7.420000E+03	2.409612E-15	1.456875E-16
7.430000E+03	2.421243E-15	1.461722E-16
7.440000E+03	2.431723E-15	1.465780E-16
7.450000E+03	2.441069E-15	1.469068E-16
7.460000E+03	2.449315E-15	1.471613E-16
7.470000E+03	2.456503E-15	1.473451E-16
7.480000E+03	2.462725E-15	1.474645E-16
7.490000E+03	2.468054E-15	1.475247E-16
7.500000E+03	2.472616E-15	1.475342E-16
7.510000E+03	2.476555E-15	1.475024E-16
7.520000E+03	2.480037E-15	1.474402E-16
7.530000E+03	2.483143E-15	1.473532E-16
7.540000E+03	2.486179E-15	1.472603E-16
7.550000E+03	2.489224E-15	1.471672E-16
7.560000E+03	2.492580E-15	1.470923E-16
7.570000E+03	2.496450E-15	1.470485E-16
7.580000E+03	2.501005E-15	1.470462E-16
7.590000E+03	2.506511E-15	1.471020E-16
7.600000E+03	2.513124E-15	1.472254E-16
7.610000E+03	2.521080E-15	1.474310E-16
7.620000E+03	2.530482E-15	1.477253E-16
7.630000E+03	2.541438E-15	1.481153E-16
7.640000E+03	2.554048E-15	1.486072E-16
7.650000E+03	2.568328E-15	1.492028E-16
7.660000E+03	2.584248E-15	1.499010E-16
7.670000E+03	2.601716E-15	1.506974E-16
7.680000E+03	2.620589E-15	1.515846E-16
7.690000E+03	2.640700E-15	1.525540E-16
7.700000E+03	2.661789E-15	1.535918E-16
7.710000E+03	2.683503E-15	1.546790E-16
7.720000E+03	2.705473E-15	1.557959E-16
7.730000E+03	2.727331E-15	1.569229E-16
7.740000E+03	2.748584E-15	1.580333E-16
7.750000E+03	2.768799E-15	1.591041E-16
7.760000E+03	2.787433E-15	1.601059E-16
