#wls	flux	fluxerr
1.600000E+03	1.178158E-16	9.442832E-18
1.640000E+03	1.080062E-16	8.649142E-18
1.680000E+03	9.919229E-17	7.936306E-18
1.720000E+03	9.131630E-17	7.299536E-18
1.760000E+03	8.431778E-17	6.733837E-18
1.800000E+03	7.810773E-17	6.231948E-18
1.840000E+03	7.261988E-17	5.788438E-18
1.880000E+03	6.781708E-17	5.400208E-18
1.920000E+03	6.361567E-17	5.060463E-18
1.960000E+03	5.998631E-17	4.766748E-18
2.000000E+03	5.686998E-17	4.514253E-18
2.040000E+03	5.423457E-17	4.300316E-18
2.080000E+03	5.203351E-17	4.121138E-18
2.120000E+03	5.025292E-17	3.975516E-18
2.160000E+03	4.886462E-17	3.861117E-18
2.200000E+03	4.783766E-17	3.775395E-18
2.240000E+03	4.717019E-17	3.718107E-18
2.280000E+03	4.684049E-17	3.687440E-18
2.320000E+03	4.685451E-17	3.683761E-18
2.360000E+03	4.719933E-17	3.705950E-18
2.400000E+03	4.788142E-17	3.754407E-18
2.440000E+03	4.891130E-17	3.829841E-18
2.480000E+03	5.029609E-17	3.932689E-18
2.520000E+03	5.204694E-17	4.063692E-18
2.560000E+03	5.420277E-17	4.225747E-18
2.600000E+03	5.677622E-17	4.419681E-18
2.640000E+03	5.980032E-17	4.647894E-18
2.680000E+03	6.331361E-17	4.913194E-18
2.720000E+03	6.736079E-17	5.218836E-18
2.760000E+03	7.200273E-17	5.569299E-18
2.800000E+03	7.729974E-17	5.968979E-18
2.840000E+03	8.331057E-17	6.422110E-18
2.880000E+03	9.014538E-17	6.936842E-18
2.920000E+03	9.787497E-17	7.518233E-18
2.960000E+03	1.066394E-16	8.176599E-18
3.000000E+03	1.165511E-16	8.920038E-18
3.010000E+03	1.192281E-16	9.120644E-18
3.020000E+03	1.219944E-16	9.327865E-18
3.030000E+03	1.248526E-16	9.541899E-18
3.040000E+03	1.277919E-16	9.761892E-18
3.050000E+03	1.308416E-16	9.990093E-18
3.060000E+03	1.339776E-16	1.022463E-17
3.070000E+03	1.372162E-16	1.046674E-17
3.080000E+03	1.405462E-16	1.071557E-17
3.090000E+03	1.439991E-16	1.097349E-17
3.100000E+03	1.475640E-16	1.123966E-17
3.110000E+03	1.512442E-16	1.151433E-17
3.120000E+03	1.550434E-16	1.179775E-17
3.130000E+03	1.589648E-16	1.209017E-17
3.140000E+03	1.630126E-16	1.239186E-17
3.150000E+03	1.672062E-16	1.270430E-17
3.160000E+03	1.715342E-16	1.302661E-17
3.170000E+03	1.760008E-16	1.335909E-17
3.180000E+03	1.806268E-16	1.370328E-17
3.190000E+03	1.854005E-16	1.405830E-17
3.200000E+03	1.903436E-16	1.442576E-17
3.210000E+03	1.954442E-16	1.480474E-17
3.220000E+03	2.007247E-16	1.519691E-17
3.230000E+03	2.061910E-16	1.560271E-17
3.240000E+03	2.118308E-16	1.602116E-17
3.250000E+03	2.176676E-16	1.645404E-17
3.260000E+03	2.237268E-16	1.690322E-17
3.270000E+03	2.299772E-16	1.736633E-17
3.280000E+03	2.364438E-16	1.784523E-17
3.290000E+03	2.431330E-16	1.834037E-17
3.300000E+03	2.500514E-16	1.885222E-17
3.310000E+03	2.572259E-16	1.938279E-17
3.320000E+03	2.646432E-16	1.993102E-17
3.330000E+03	2.723096E-16	2.049736E-17
3.340000E+03	2.802527E-16	2.108386E-17
3.350000E+03	2.884574E-16	2.168934E-17
3.360000E+03	2.969510E-16	2.231583E-17
3.370000E+03	3.057393E-16	2.296371E-17
3.380000E+03	3.148042E-16	2.363160E-17
3.390000E+03	3.241720E-16	2.432141E-17
3.400000E+03	3.338451E-16	2.503330E-17
3.410000E+03	3.438485E-16	2.576910E-17
3.420000E+03	3.541337E-16	2.652512E-17
3.430000E+03	3.647460E-16	2.730472E-17
3.440000E+03	3.756303E-16	2.810374E-17
3.450000E+03	3.868533E-16	2.892712E-17
3.460000E+03	3.983529E-16	2.977017E-17
3.470000E+03	4.101127E-16	3.063163E-17
3.480000E+03	4.221390E-16	3.151194E-17
3.490000E+03	4.344079E-16	3.240926E-17
3.500000E+03	4.468904E-16	3.332141E-17
3.510000E+03	4.595253E-16	3.424379E-17
3.520000E+03	4.723299E-16	3.517767E-17
3.530000E+03	4.852343E-16	3.611781E-17
3.540000E+03	4.982213E-16	3.706293E-17
3.550000E+03	5.112142E-16	3.800730E-17
3.560000E+03	5.241622E-16	3.894714E-17
3.570000E+03	5.370448E-16	3.988094E-17
3.580000E+03	5.498138E-16	4.080512E-17
3.590000E+03	5.624242E-16	4.171634E-17
3.600000E+03	5.748358E-16	4.261167E-17
3.610000E+03	5.869853E-16	4.348641E-17
3.620000E+03	5.989412E-16	4.434569E-17
3.630000E+03	6.105982E-16	4.518172E-17
3.640000E+03	6.220175E-16	4.599907E-17
3.650000E+03	6.332120E-16	4.679873E-17
3.660000E+03	6.441769E-16	4.758036E-17
3.670000E+03	6.549842E-16	4.834931E-17
3.680000E+03	6.656883E-16	4.910961E-17
3.690000E+03	6.763876E-16	4.986853E-17
3.700000E+03	6.870981E-16	5.062724E-17
3.710000E+03	6.979703E-16	5.139682E-17
3.720000E+03	7.090675E-16	5.218192E-17
3.730000E+03	7.205516E-16	5.299439E-17
3.740000E+03	7.324291E-16	5.383467E-17
3.750000E+03	7.448920E-16	5.471680E-17
3.760000E+03	7.580014E-16	5.564518E-17
3.770000E+03	7.718407E-16	5.662586E-17
3.780000E+03	7.864802E-16	5.766386E-17
3.790000E+03	8.019734E-16	5.876301E-17
3.800000E+03	8.183848E-16	5.992791E-17
3.810000E+03	8.357238E-16	6.115911E-17
3.820000E+03	8.539408E-16	6.245286E-17
3.830000E+03	8.730195E-16	6.380783E-17
3.840000E+03	8.929117E-16	6.522040E-17
3.850000E+03	9.134387E-16	6.667740E-17
3.860000E+03	9.344829E-16	6.817015E-17
3.870000E+03	9.558935E-16	6.968759E-17
3.880000E+03	9.774542E-16	7.121391E-17
3.890000E+03	9.988521E-16	7.272630E-17
3.900000E+03	1.019917E-15	7.421239E-17
3.910000E+03	1.040293E-15	7.564635E-17
3.920000E+03	1.059714E-15	7.700901E-17
3.930000E+03	1.077849E-15	7.827633E-17
3.940000E+03	1.094477E-15	7.943246E-17
3.950000E+03	1.109295E-15	8.045578E-17
3.960000E+03	1.122070E-15	8.132954E-17
3.970000E+03	1.132575E-15	8.203765E-17
3.980000E+03	1.140737E-15	8.257508E-17
3.990000E+03	1.146472E-15	8.293616E-17
4.000000E+03	1.149695E-15	8.311496E-17
4.010000E+03	1.150510E-15	8.311954E-17
4.020000E+03	1.148990E-15	8.295538E-17
4.030000E+03	1.145293E-15	8.263421E-17
4.040000E+03	1.139626E-15	8.217137E-17
4.050000E+03	1.132237E-15	8.158489E-17
4.060000E+03	1.123428E-15	8.089687E-17
4.070000E+03	1.113436E-15	8.012456E-17
4.080000E+03	1.102615E-15	7.929351E-17
4.090000E+03	1.091206E-15	7.842124E-17
4.100000E+03	1.079519E-15	7.753008E-17
4.110000E+03	1.067815E-15	7.663875E-17
4.120000E+03	1.056305E-15	7.576249E-17
4.130000E+03	1.045194E-15	7.491585E-17
4.140000E+03	1.034675E-15	7.411274E-17
4.150000E+03	1.024842E-15	7.335967E-17
4.160000E+03	1.015794E-15	7.266378E-17
4.170000E+03	1.007626E-15	7.203155E-17
4.180000E+03	1.000350E-15	7.146392E-17
4.190000E+03	9.939555E-16	7.095988E-17
4.200000E+03	9.884469E-16	7.051969E-17
4.210000E+03	9.837452E-16	7.013755E-17
4.220000E+03	9.798146E-16	6.981083E-17
4.230000E+03	9.765661E-16	6.953308E-17
4.240000E+03	9.738886E-16	6.929628E-17
4.250000E+03	9.717364E-16	6.909713E-17
4.260000E+03	9.699804E-16	6.892636E-17
4.270000E+03	9.685677E-16	6.878019E-17
4.280000E+03	9.674245E-16	6.865331E-17
4.290000E+03	9.664954E-16	6.854176E-17
4.300000E+03	9.657486E-16	6.844328E-17
4.310000E+03	9.651797E-16	6.835751E-17
4.320000E+03	9.648151E-16	6.828631E-17
4.330000E+03	9.647304E-16	6.823501E-17
4.340000E+03	9.650195E-16	6.821020E-17
4.350000E+03	9.657963E-16	6.821987E-17
4.360000E+03	9.672246E-16	6.827553E-17
4.370000E+03	9.695150E-16	6.839195E-17
4.380000E+03	9.728774E-16	6.858380E-17
4.390000E+03	9.775643E-16	6.886873E-17
4.400000E+03	9.838466E-16	6.926564E-17
4.410000E+03	9.920136E-16	6.979464E-17
4.420000E+03	1.002381E-15	7.047774E-17
4.430000E+03	1.015229E-15	7.133421E-17
4.440000E+03	1.030893E-15	7.238739E-17
4.450000E+03	1.049677E-15	7.365817E-17
4.460000E+03	1.071860E-15	7.516570E-17
4.470000E+03	1.097764E-15	7.693203E-17
4.480000E+03	1.127624E-15	7.897330E-17
4.490000E+03	1.161673E-15	8.130513E-17
4.500000E+03	1.200111E-15	8.394101E-17
4.510000E+03	1.243022E-15	8.688625E-17
4.520000E+03	1.290470E-15	9.014465E-17
4.530000E+03	1.342373E-15	9.371003E-17
4.540000E+03	1.398501E-15	9.756569E-17
4.550000E+03	1.458514E-15	1.016874E-16
4.560000E+03	1.521825E-15	1.060338E-16
4.570000E+03	1.587720E-15	1.105547E-16
4.580000E+03	1.655226E-15	1.151820E-16
4.590000E+03	1.723200E-15	1.198363E-16
4.600000E+03	1.790321E-15	1.244255E-16
4.610000E+03	1.855040E-15	1.288423E-16
4.620000E+03	1.915817E-15	1.329801E-16
4.630000E+03	1.970954E-15	1.367216E-16
4.640000E+03	2.018859E-15	1.399573E-16
4.650000E+03	2.058043E-15	1.425850E-16
4.660000E+03	2.087224E-15	1.445171E-16
4.670000E+03	2.105410E-15	1.456861E-16
4.680000E+03	2.111967E-15	1.460497E-16
4.690000E+03	2.106626E-15	1.455908E-16
4.700000E+03	2.089611E-15	1.443264E-16
4.710000E+03	2.061441E-15	1.422938E-16
4.720000E+03	2.023041E-15	1.395581E-16
4.730000E+03	1.975631E-15	1.362049E-16
4.740000E+03	1.920648E-15	1.323342E-16
4.750000E+03	1.859658E-15	1.280547E-16
4.760000E+03	1.794267E-15	1.234778E-16
4.770000E+03	1.726054E-15	1.187124E-16
4.780000E+03	1.656496E-15	1.138605E-16
4.790000E+03	1.586927E-15	1.090139E-16
4.800000E+03	1.518500E-15	1.042515E-16
4.810000E+03	1.452206E-15	9.964139E-17
4.820000E+03	1.388789E-15	9.523416E-17
4.830000E+03	1.328834E-15	9.106951E-17
4.840000E+03	1.272737E-15	8.717416E-17
4.850000E+03	1.220768E-15	8.356614E-17
4.860000E+03	1.173042E-15	8.025272E-17
4.870000E+03	1.129564E-15	7.723372E-17
4.880000E+03	1.090269E-15	7.450424E-17
4.890000E+03	1.055029E-15	7.205499E-17
4.900000E+03	1.023656E-15	6.987262E-17
4.910000E+03	9.959530E-16	6.794330E-17
4.920000E+03	9.716624E-16	6.624894E-17
4.930000E+03	9.505587E-16	6.477380E-17
4.940000E+03	9.324061E-16	6.350146E-17
4.950000E+03	9.169536E-16	6.241447E-17
4.960000E+03	9.039815E-16	6.149759E-17
4.970000E+03	8.932749E-16	6.073591E-17
4.980000E+03	8.846459E-16	6.011642E-17
4.990000E+03	8.779164E-16	5.962676E-17
5.000000E+03	8.729201E-16	5.925546E-17
5.010000E+03	8.695402E-16	5.899439E-17
5.020000E+03	8.676631E-16	5.883567E-17
5.030000E+03	8.671868E-16	5.877223E-17
5.040000E+03	8.680475E-16	5.879960E-17
5.050000E+03	8.701900E-16	5.891390E-17
5.060000E+03	8.735841E-16	5.911296E-17
5.070000E+03	8.781933E-16	5.939418E-17
5.080000E+03	8.839997E-16	5.975623E-17
5.090000E+03	8.910098E-16	6.019943E-17
5.100000E+03	8.991950E-16	6.072175E-17
5.110000E+03	9.085538E-16	6.132295E-17
5.120000E+03	9.190709E-16	6.200191E-17
5.130000E+03	9.307340E-16	6.275770E-17
5.140000E+03	9.434928E-16	6.358681E-17
5.150000E+03	9.573256E-16	6.448770E-17
5.160000E+03	9.721803E-16	6.545676E-17
5.170000E+03	9.879835E-16	6.648898E-17
5.180000E+03	1.004659E-15	6.757915E-17
5.190000E+03	1.022133E-15	6.872221E-17
5.200000E+03	1.040308E-15	6.991168E-17
5.210000E+03	1.059071E-15	7.113980E-17
5.220000E+03	1.078320E-15	7.239971E-17
5.230000E+03	1.097933E-15	7.368322E-17
5.240000E+03	1.117771E-15	7.498098E-17
5.250000E+03	1.137698E-15	7.628388E-17
5.260000E+03	1.157584E-15	7.758325E-17
5.270000E+03	1.177278E-15	7.886900E-17
5.280000E+03	1.196604E-15	8.012930E-17
5.290000E+03	1.215424E-15	8.135515E-17
5.300000E+03	1.233566E-15	8.253493E-17
5.310000E+03	1.250868E-15	8.365797E-17
5.320000E+03	1.267173E-15	8.471388E-17
5.330000E+03	1.282323E-15	8.569214E-17
5.340000E+03	1.296181E-15	8.658384E-17
5.350000E+03	1.308638E-15	8.738169E-17
5.360000E+03	1.319605E-15	8.807993E-17
5.370000E+03	1.329014E-15	8.867417E-17
5.380000E+03	1.336840E-15	8.916291E-17
5.390000E+03	1.343083E-15	8.954622E-17
5.400000E+03	1.347786E-15	8.982714E-17
5.410000E+03	1.350992E-15	9.000868E-17
5.420000E+03	1.352807E-15	9.009800E-17
5.430000E+03	1.353307E-15	9.010021E-17
5.440000E+03	1.352600E-15	9.002259E-17
5.450000E+03	1.350763E-15	8.987051E-17
5.460000E+03	1.347885E-15	8.964976E-17
5.470000E+03	1.344036E-15	8.936519E-17
5.480000E+03	1.339283E-15	8.902128E-17
5.490000E+03	1.333663E-15	8.862056E-17
5.500000E+03	1.327169E-15	8.816251E-17
5.510000E+03	1.319783E-15	8.764600E-17
5.520000E+03	1.311464E-15	8.706845E-17
5.530000E+03	1.302098E-15	8.642229E-17
5.540000E+03	1.291604E-15	8.570213E-17
5.550000E+03	1.279862E-15	8.490014E-17
5.560000E+03	1.266746E-15	8.400794E-17
5.570000E+03	1.252194E-15	8.302146E-17
5.580000E+03	1.236122E-15	8.193526E-17
5.590000E+03	1.218586E-15	8.075315E-17
5.600000E+03	1.199642E-15	7.947874E-17
5.610000E+03	1.179481E-15	7.812477E-17
5.620000E+03	1.158355E-15	7.670807E-17
5.630000E+03	1.136613E-15	7.525167E-17
5.640000E+03	1.114666E-15	7.378272E-17
5.650000E+03	1.092976E-15	7.233191E-17
5.660000E+03	1.072048E-15	7.093247E-17
5.670000E+03	1.052421E-15	6.962016E-17
5.680000E+03	1.034592E-15	6.842764E-17
5.690000E+03	1.019066E-15	6.738828E-17
5.700000E+03	1.006316E-15	6.653323E-17
5.710000E+03	9.967490E-16	6.588927E-17
5.720000E+03	9.907411E-16	6.548117E-17
5.730000E+03	9.885925E-16	6.532862E-17
5.740000E+03	9.905660E-16	6.544885E-17
5.750000E+03	9.968518E-16	6.585432E-17
5.760000E+03	1.007577E-15	6.655327E-17
5.770000E+03	1.022793E-15	6.754909E-17
5.780000E+03	1.042474E-15	6.883977E-17
5.790000E+03	1.066529E-15	7.041938E-17
5.800000E+03	1.094745E-15	7.227374E-17
5.810000E+03	1.126798E-15	7.438135E-17
5.820000E+03	1.162279E-15	7.671524E-17
5.830000E+03	1.200608E-15	7.923697E-17
5.840000E+03	1.241108E-15	8.190199E-17
5.850000E+03	1.282969E-15	8.465680E-17
5.860000E+03	1.325267E-15	8.744047E-17
5.870000E+03	1.366989E-15	9.018619E-17
5.880000E+03	1.407052E-15	9.282260E-17
5.890000E+03	1.444371E-15	9.527818E-17
5.900000E+03	1.477906E-15	9.748442E-17
5.910000E+03	1.506675E-15	9.937668E-17
5.920000E+03	1.529843E-15	1.008999E-16
5.930000E+03	1.546736E-15	1.020097E-16
5.940000E+03	1.556940E-15	1.026789E-16
5.950000E+03	1.560211E-15	1.028915E-16
5.960000E+03	1.556578E-15	1.026494E-16
5.970000E+03	1.546298E-15	1.019697E-16
5.980000E+03	1.529824E-15	1.008820E-16
5.990000E+03	1.507813E-15	9.942992E-17
6.000000E+03	1.481039E-15	9.766437E-17
6.010000E+03	1.450321E-15	9.563928E-17
6.020000E+03	1.416607E-15	9.341722E-17
6.030000E+03	1.380758E-15	9.105485E-17
6.040000E+03	1.343653E-15	8.861012E-17
6.050000E+03	1.306092E-15	8.613577E-17
6.060000E+03	1.268760E-15	8.367683E-17
6.070000E+03	1.232277E-15	8.127427E-17
6.080000E+03	1.197118E-15	7.895928E-17
6.090000E+03	1.163688E-15	7.675855E-17
6.100000E+03	1.132256E-15	7.468993E-17
6.110000E+03	1.103013E-15	7.276590E-17
6.120000E+03	1.076035E-15	7.099147E-17
6.130000E+03	1.051369E-15	6.936979E-17
6.140000E+03	1.028951E-15	6.789655E-17
6.150000E+03	1.008695E-15	6.656620E-17
6.160000E+03	9.904397E-16	6.536811E-17
6.170000E+03	9.740259E-16	6.429172E-17
6.180000E+03	9.592670E-16	6.332475E-17
6.190000E+03	9.459310E-16	6.245191E-17
6.200000E+03	9.338114E-16	6.165958E-17
6.210000E+03	9.226931E-16	6.093359E-17
6.220000E+03	9.123710E-16	6.026039E-17
6.230000E+03	9.026482E-16	5.962698E-17
6.240000E+03	8.933907E-16	5.902452E-17
6.250000E+03	8.844386E-16	5.844245E-17
6.260000E+03	8.757257E-16	5.787637E-17
6.270000E+03	8.671894E-16	5.732213E-17
6.280000E+03	8.588203E-16	5.677911E-17
6.290000E+03	8.506629E-16	5.625024E-17
6.300000E+03	8.427957E-16	5.574070E-17
6.310000E+03	8.353376E-16	5.525835E-17
6.320000E+03	8.284421E-16	5.481337E-17
6.330000E+03	8.222911E-16	5.441778E-17
6.340000E+03	8.171044E-16	5.408616E-17
6.350000E+03	8.130693E-16	5.383093E-17
6.360000E+03	8.104282E-16	5.366821E-17
6.370000E+03	8.093827E-16	5.361137E-17
6.380000E+03	8.101191E-16	5.367285E-17
6.390000E+03	8.128185E-16	5.386472E-17
6.400000E+03	8.176218E-16	5.419642E-17
6.410000E+03	8.246317E-16	5.467485E-17
6.420000E+03	8.338940E-16	5.530317E-17
6.430000E+03	8.454167E-16	5.608203E-17
6.440000E+03	8.591331E-16	5.700712E-17
6.450000E+03	8.748921E-16	5.806854E-17
6.460000E+03	8.924682E-16	5.925145E-17
6.470000E+03	9.115559E-16	6.053565E-17
6.480000E+03	9.317352E-16	6.189336E-17
6.490000E+03	9.525120E-16	6.329181E-17
6.500000E+03	9.732810E-16	6.469082E-17
6.510000E+03	9.933804E-16	6.604640E-17
6.520000E+03	1.012066E-15	6.730901E-17
6.530000E+03	1.028590E-15	6.842885E-17
6.540000E+03	1.042172E-15	6.935392E-17
6.550000E+03	1.052088E-15	7.003571E-17
6.560000E+03	1.057679E-15	7.043020E-17
6.570000E+03	1.058410E-15	7.050146E-17
6.580000E+03	1.053876E-15	7.022225E-17
6.590000E+03	1.043884E-15	6.957923E-17
6.600000E+03	1.028410E-15	6.857055E-17
6.610000E+03	1.007634E-15	6.720774E-17
6.620000E+03	9.819294E-16	6.551543E-17
6.630000E+03	9.518267E-16	6.352862E-17
6.640000E+03	9.179995E-16	6.129196E-17
6.650000E+03	8.811920E-16	5.885489E-17
6.660000E+03	8.422290E-16	5.627227E-17
6.670000E+03	8.019109E-16	5.359741E-17
6.680000E+03	7.610272E-16	5.088299E-17
6.690000E+03	7.203031E-16	4.817745E-17
6.700000E+03	6.803616E-16	4.552244E-17
6.710000E+03	6.417430E-16	4.295416E-17
6.720000E+03	6.048738E-16	4.050126E-17
6.730000E+03	5.700832E-16	3.818587E-17
6.740000E+03	5.375885E-16	3.602270E-17
6.750000E+03	5.075333E-16	3.402153E-17
6.760000E+03	4.799794E-16	3.218665E-17
6.770000E+03	4.549270E-16	3.051828E-17
6.780000E+03	4.323279E-16	2.901333E-17
6.790000E+03	4.121026E-16	2.766666E-17
6.800000E+03	3.941395E-16	2.647094E-17
6.810000E+03	3.783105E-16	2.541773E-17
6.820000E+03	3.644726E-16	2.449758E-17
6.830000E+03	3.524923E-16	2.370166E-17
6.840000E+03	3.422218E-16	2.302017E-17
6.850000E+03	3.335207E-16	2.244379E-17
6.860000E+03	3.262529E-16	2.196349E-17
6.870000E+03	3.202920E-16	2.157085E-17
6.880000E+03	3.155139E-16	2.125763E-17
6.890000E+03	3.117936E-16	2.101549E-17
6.900000E+03	3.090322E-16	2.083784E-17
6.910000E+03	3.071184E-16	2.071726E-17
6.920000E+03	3.059597E-16	2.064757E-17
6.930000E+03	3.054665E-16	2.062279E-17
6.940000E+03	3.055525E-16	2.063713E-17
6.950000E+03	3.061506E-16	2.068612E-17
6.960000E+03	3.071863E-16	2.076476E-17
6.970000E+03	3.086005E-16	2.086909E-17
6.980000E+03	3.103511E-16	2.099630E-17
6.990000E+03	3.123889E-16	2.114308E-17
7.000000E+03	3.146861E-16	2.130758E-17
7.010000E+03	3.172161E-16	2.148801E-17
7.020000E+03	3.199739E-16	2.168406E-17
7.030000E+03	3.229470E-16	2.189490E-17
7.040000E+03	3.261398E-16	2.212085E-17
7.050000E+03	3.295683E-16	2.236302E-17
7.060000E+03	3.332514E-16	2.262270E-17
7.070000E+03	3.372043E-16	2.290097E-17
7.080000E+03	3.414682E-16	2.320063E-17
7.090000E+03	3.460604E-16	2.352289E-17
7.100000E+03	3.510211E-16	2.387051E-17
7.110000E+03	3.563712E-16	2.424497E-17
7.120000E+03	3.621477E-16	2.464880E-17
7.130000E+03	3.683643E-16	2.508298E-17
7.140000E+03	3.750431E-16	2.554905E-17
7.150000E+03	3.821891E-16	2.604740E-17
7.160000E+03	3.898084E-16	2.657850E-17
7.170000E+03	3.978875E-16	2.714146E-17
7.180000E+03	4.064075E-16	2.773504E-17
7.190000E+03	4.153380E-16	2.835721E-17
7.200000E+03	4.246319E-16	2.900479E-17
7.210000E+03	4.342419E-16	2.967458E-17
7.220000E+03	4.440984E-16	3.036186E-17
7.230000E+03	4.541276E-16	3.106160E-17
7.240000E+03	4.642408E-16	3.176776E-17
7.250000E+03	4.743542E-16	3.247461E-17
7.260000E+03	4.843669E-16	3.317523E-17
7.270000E+03	4.941752E-16	3.386253E-17
7.280000E+03	5.036886E-16	3.453027E-17
7.290000E+03	5.128066E-16	3.517155E-17
7.300000E+03	5.214352E-16	3.577986E-17
7.310000E+03	5.294886E-16	3.634929E-17
7.320000E+03	5.369146E-16	3.687619E-17
7.330000E+03	5.436397E-16	3.735546E-17
7.340000E+03	5.496349E-16	3.778503E-17
7.350000E+03	5.548732E-16	3.816299E-17
7.360000E+03	5.593450E-16	3.848859E-17
7.370000E+03	5.630639E-16	3.876272E-17
7.380000E+03	5.660585E-16	3.898726E-17
7.390000E+03	5.683551E-16	3.916395E-17
7.400000E+03	5.700123E-16	3.929677E-17
7.410000E+03	5.710728E-16	3.938860E-17
7.420000E+03	5.716132E-16	3.944468E-17
7.430000E+03	5.716806E-16	3.946820E-17
7.440000E+03	5.713353E-16	3.946328E-17
7.450000E+03	5.706404E-16	3.943424E-17
7.460000E+03	5.696464E-16	3.938454E-17
7.470000E+03	5.683970E-16	3.931718E-17
7.480000E+03	5.669299E-16	3.923472E-17
7.490000E+03	5.652915E-16	3.914037E-17
7.500000E+03	5.635018E-16	3.903551E-17
7.510000E+03	5.615850E-16	3.892177E-17
7.520000E+03	5.595793E-16	3.880182E-17
7.530000E+03	5.575086E-16	3.867728E-17
7.540000E+03	5.553991E-16	3.854998E-17
7.550000E+03	5.532877E-16	3.842247E-17
7.560000E+03	5.512011E-16	3.829661E-17
7.570000E+03	5.491923E-16	3.817609E-17
7.580000E+03	5.472963E-16	3.806335E-17
7.590000E+03	5.455733E-16	3.796258E-17
7.600000E+03	5.440558E-16	3.787607E-17
7.610000E+03	5.428052E-16	3.780813E-17
7.620000E+03	5.418658E-16	3.776186E-17
7.630000E+03	5.412773E-16	3.774007E-17
7.640000E+03	5.410712E-16	3.774499E-17
7.650000E+03	5.412699E-16	3.777822E-17
7.660000E+03	5.418824E-16	3.784046E-17
7.670000E+03	5.429187E-16	3.793242E-17
7.680000E+03	5.443348E-16	3.805110E-17
7.690000E+03	5.461136E-16	3.819532E-17
7.700000E+03	5.481892E-16	3.836054E-17
7.710000E+03	5.504767E-16	3.854083E-17
7.720000E+03	5.528869E-16	3.872998E-17
7.730000E+03	5.553137E-16	3.892056E-17
7.740000E+03	5.576123E-16	3.910242E-17
7.750000E+03	5.596559E-16	3.926665E-17
7.760000E+03	5.612781E-16	3.940156E-17
