#wls	flux	fluxerr
1.600000E+03	9.353506E-17	4.325338E-18
1.640000E+03	8.811280E-17	4.074352E-18
1.680000E+03	8.317005E-17	3.845562E-18
1.720000E+03	7.866686E-17	3.637117E-18
1.760000E+03	7.460622E-17	3.449152E-18
1.800000E+03	7.094925E-17	3.279869E-18
1.840000E+03	6.768458E-17	3.128736E-18
1.880000E+03	6.478894E-17	2.994676E-18
1.920000E+03	6.223035E-17	2.876209E-18
1.960000E+03	6.000092E-17	2.772966E-18
2.000000E+03	5.809286E-17	2.684585E-18
2.040000E+03	5.648028E-17	2.609866E-18
2.080000E+03	5.515905E-17	2.548615E-18
2.120000E+03	5.411724E-17	2.500280E-18
2.160000E+03	5.334524E-17	2.464412E-18
2.200000E+03	5.284419E-17	2.441062E-18
2.240000E+03	5.260868E-17	2.429976E-18
2.280000E+03	5.263574E-17	2.431015E-18
2.320000E+03	5.292487E-17	2.444151E-18
2.360000E+03	5.349434E-17	2.470227E-18
2.400000E+03	5.434048E-17	2.509067E-18
2.440000E+03	5.547056E-17	2.561005E-18
2.480000E+03	5.691115E-17	2.627261E-18
2.520000E+03	5.867574E-17	2.708456E-18
2.560000E+03	6.078116E-17	2.805360E-18
2.600000E+03	6.326514E-17	2.919710E-18
2.640000E+03	6.614387E-17	3.052246E-18
2.680000E+03	6.945524E-17	3.204710E-18
2.720000E+03	7.325204E-17	3.379531E-18
2.760000E+03	7.756493E-17	3.578114E-18
2.800000E+03	8.246950E-17	3.803937E-18
2.840000E+03	8.800930E-17	4.058998E-18
2.880000E+03	9.426606E-17	4.347054E-18
2.920000E+03	1.013205E-16	4.671814E-18
2.960000E+03	1.092751E-16	5.037987E-18
3.000000E+03	1.182190E-16	5.449667E-18
3.010000E+03	1.206328E-16	5.560768E-18
3.020000E+03	1.231016E-16	5.674394E-18
3.030000E+03	1.256531E-16	5.791824E-18
3.040000E+03	1.282891E-16	5.913144E-18
3.050000E+03	1.309847E-16	6.037200E-18
3.060000E+03	1.337684E-16	6.165308E-18
3.070000E+03	1.366426E-16	6.297577E-18
3.080000E+03	1.395808E-16	6.432788E-18
3.090000E+03	1.426275E-16	6.572990E-18
3.100000E+03	1.457415E-16	6.716283E-18
3.110000E+03	1.489684E-16	6.864769E-18
3.120000E+03	1.522660E-16	7.016506E-18
3.130000E+03	1.556810E-16	7.173636E-18
3.140000E+03	1.591853E-16	7.334871E-18
3.150000E+03	1.627806E-16	7.500290E-18
3.160000E+03	1.664841E-16	7.670683E-18
3.170000E+03	1.702983E-16	7.846161E-18
3.180000E+03	1.742251E-16	8.026818E-18
3.190000E+03	1.782503E-16	8.211991E-18
3.200000E+03	1.823918E-16	8.402510E-18
3.210000E+03	1.866517E-16	8.598470E-18
3.220000E+03	1.910319E-16	8.799958E-18
3.230000E+03	1.955343E-16	9.007059E-18
3.240000E+03	2.001427E-16	9.219030E-18
3.250000E+03	2.048942E-16	9.437575E-18
3.260000E+03	2.097543E-16	9.661106E-18
3.270000E+03	2.147607E-16	9.891359E-18
3.280000E+03	2.198778E-16	1.012669E-17
3.290000E+03	2.251437E-16	1.036886E-17
3.300000E+03	2.305217E-16	1.061618E-17
3.310000E+03	2.360503E-16	1.087041E-17
3.320000E+03	2.417109E-16	1.113070E-17
3.330000E+03	2.475238E-16	1.139799E-17
3.340000E+03	2.534488E-16	1.167041E-17
3.350000E+03	2.595256E-16	1.194981E-17
3.360000E+03	2.657335E-16	1.223522E-17
3.370000E+03	2.720922E-16	1.252756E-17
3.380000E+03	2.785796E-16	1.282579E-17
3.390000E+03	2.852155E-16	1.313084E-17
3.400000E+03	2.919761E-16	1.344161E-17
3.410000E+03	2.988807E-16	1.375899E-17
3.420000E+03	3.059044E-16	1.408182E-17
3.430000E+03	3.130658E-16	1.441097E-17
3.440000E+03	3.203614E-16	1.474626E-17
3.450000E+03	3.277631E-16	1.508642E-17
3.460000E+03	3.352889E-16	1.543226E-17
3.470000E+03	3.429326E-16	1.578351E-17
3.480000E+03	3.506876E-16	1.613984E-17
3.490000E+03	3.585457E-16	1.650090E-17
3.500000E+03	3.664983E-16	1.686627E-17
3.510000E+03	3.745099E-16	1.723433E-17
3.520000E+03	3.826187E-16	1.760684E-17
3.530000E+03	3.907870E-16	1.798205E-17
3.540000E+03	3.990003E-16	1.835931E-17
3.550000E+03	4.072688E-16	1.873908E-17
3.560000E+03	4.155244E-16	1.911822E-17
3.570000E+03	4.238011E-16	1.949830E-17
3.580000E+03	4.320549E-16	1.987730E-17
3.590000E+03	4.402945E-16	2.025561E-17
3.600000E+03	4.484763E-16	2.063124E-17
3.610000E+03	4.566116E-16	2.100470E-17
3.620000E+03	4.646604E-16	2.137415E-17
3.630000E+03	4.726396E-16	2.174036E-17
3.640000E+03	4.805161E-16	2.210183E-17
3.650000E+03	4.883157E-16	2.245972E-17
3.660000E+03	4.960427E-16	2.281426E-17
3.670000E+03	5.036795E-16	2.316461E-17
3.680000E+03	5.112973E-16	2.351405E-17
3.690000E+03	5.188630E-16	2.386108E-17
3.700000E+03	5.264322E-16	2.420824E-17
3.710000E+03	5.340380E-16	2.455705E-17
3.720000E+03	5.417181E-16	2.490925E-17
3.730000E+03	5.495128E-16	2.526669E-17
3.740000E+03	5.574645E-16	2.563132E-17
3.750000E+03	5.656148E-16	2.600505E-17
3.760000E+03	5.740322E-16	2.639103E-17
3.770000E+03	5.826970E-16	2.678835E-17
3.780000E+03	5.916959E-16	2.720100E-17
3.790000E+03	6.010243E-16	2.762876E-17
3.800000E+03	6.106966E-16	2.807229E-17
3.810000E+03	6.207446E-16	2.853305E-17
3.820000E+03	6.311031E-16	2.900805E-17
3.830000E+03	6.418356E-16	2.950021E-17
3.840000E+03	6.528204E-16	3.000391E-17
3.850000E+03	6.640628E-16	3.051942E-17
3.860000E+03	6.754956E-16	3.104363E-17
3.870000E+03	6.869774E-16	3.157005E-17
3.880000E+03	6.984958E-16	3.209811E-17
3.890000E+03	7.098501E-16	3.261858E-17
3.900000E+03	7.209719E-16	3.312833E-17
3.910000E+03	7.317239E-16	3.362105E-17
3.920000E+03	7.419326E-16	3.408876E-17
3.930000E+03	7.514503E-16	3.452469E-17
3.940000E+03	7.601601E-16	3.492346E-17
3.950000E+03	7.678931E-16	3.527733E-17
3.960000E+03	7.745512E-16	3.558179E-17
3.970000E+03	7.799671E-16	3.582916E-17
3.980000E+03	7.841424E-16	3.601952E-17
3.990000E+03	7.869339E-16	3.614631E-17
4.000000E+03	7.883744E-16	3.621103E-17
4.010000E+03	7.884460E-16	3.621287E-17
4.020000E+03	7.871954E-16	3.615398E-17
4.030000E+03	7.847034E-16	3.603808E-17
4.040000E+03	7.810827E-16	3.587036E-17
4.050000E+03	7.764992E-16	3.565845E-17
4.060000E+03	7.710621E-16	3.540734E-17
4.070000E+03	7.649739E-16	3.512636E-17
4.080000E+03	7.583942E-16	3.482284E-17
4.090000E+03	7.515336E-16	3.450644E-17
4.100000E+03	7.445710E-16	3.418538E-17
4.110000E+03	7.376523E-16	3.386637E-17
4.120000E+03	7.309533E-16	3.355747E-17
4.130000E+03	7.245855E-16	3.326379E-17
4.140000E+03	7.186616E-16	3.299052E-17
4.150000E+03	7.132503E-16	3.274080E-17
4.160000E+03	7.084605E-16	3.251963E-17
4.170000E+03	7.042940E-16	3.232708E-17
4.180000E+03	7.007931E-16	3.216510E-17
4.190000E+03	6.979391E-16	3.203283E-17
4.200000E+03	6.957144E-16	3.192945E-17
4.210000E+03	6.941033E-16	3.185423E-17
4.220000E+03	6.930179E-16	3.180315E-17
4.230000E+03	6.924145E-16	3.177419E-17
4.240000E+03	6.922016E-16	3.176316E-17
4.250000E+03	6.923172E-16	3.176720E-17
4.260000E+03	6.926577E-16	3.178156E-17
4.270000E+03	6.931190E-16	3.180146E-17
4.280000E+03	6.936523E-16	3.182467E-17
4.290000E+03	6.941443E-16	3.184598E-17
4.300000E+03	6.945271E-16	3.186228E-17
4.310000E+03	6.947476E-16	3.187113E-17
4.320000E+03	6.947715E-16	3.187097E-17
4.330000E+03	6.945876E-16	3.186128E-17
4.340000E+03	6.941957E-16	3.184206E-17
4.350000E+03	6.936591E-16	3.181619E-17
4.360000E+03	6.930255E-16	3.178588E-17
4.370000E+03	6.924258E-16	3.175713E-17
4.380000E+03	6.920086E-16	3.173676E-17
4.390000E+03	6.919398E-16	3.173237E-17
4.400000E+03	6.924310E-16	3.175366E-17
4.410000E+03	6.937205E-16	3.181157E-17
4.420000E+03	6.960681E-16	3.191798E-17
4.430000E+03	6.997357E-16	3.208492E-17
4.440000E+03	7.050275E-16	3.232632E-17
4.450000E+03	7.122238E-16	3.265502E-17
4.460000E+03	7.216058E-16	3.308392E-17
4.470000E+03	7.334945E-16	3.362770E-17
4.480000E+03	7.481234E-16	3.429707E-17
4.490000E+03	7.657826E-16	3.510531E-17
4.500000E+03	7.867037E-16	3.606302E-17
4.510000E+03	8.110467E-16	3.717752E-17
4.520000E+03	8.389662E-16	3.845588E-17
4.530000E+03	8.705344E-16	3.990138E-17
4.540000E+03	9.057216E-16	4.151266E-17
4.550000E+03	9.444305E-16	4.328522E-17
4.560000E+03	9.864069E-16	4.520742E-17
4.570000E+03	1.031294E-15	4.726289E-17
4.580000E+03	1.078523E-15	4.942549E-17
4.590000E+03	1.127417E-15	5.166428E-17
4.600000E+03	1.177117E-15	5.393981E-17
4.610000E+03	1.226605E-15	5.620552E-17
4.620000E+03	1.274733E-15	5.840873E-17
4.630000E+03	1.320234E-15	6.049142E-17
4.640000E+03	1.361818E-15	6.239452E-17
4.650000E+03	1.398271E-15	6.406240E-17
4.660000E+03	1.428349E-15	6.543807E-17
4.670000E+03	1.451102E-15	6.647812E-17
4.680000E+03	1.465769E-15	6.714771E-17
4.690000E+03	1.471830E-15	6.742297E-17
4.700000E+03	1.469195E-15	6.729992E-17
4.710000E+03	1.458058E-15	6.678746E-17
4.720000E+03	1.438882E-15	6.590679E-17
4.730000E+03	1.412536E-15	6.469783E-17
4.740000E+03	1.379959E-15	6.320355E-17
4.750000E+03	1.342365E-15	6.147959E-17
4.760000E+03	1.300973E-15	5.958184E-17
4.770000E+03	1.257054E-15	5.756851E-17
4.780000E+03	1.211786E-15	5.549353E-17
4.790000E+03	1.166288E-15	5.340814E-17
4.800000E+03	1.121503E-15	5.135560E-17
4.810000E+03	1.078265E-15	4.937403E-17
4.820000E+03	1.037226E-15	4.749327E-17
4.830000E+03	9.988805E-16	4.573598E-17
4.840000E+03	9.635605E-16	4.411735E-17
4.850000E+03	9.315156E-16	4.264876E-17
4.860000E+03	9.028164E-16	4.133346E-17
4.870000E+03	8.774996E-16	4.017311E-17
4.880000E+03	8.554787E-16	3.916372E-17
4.890000E+03	8.366209E-16	3.829920E-17
4.900000E+03	8.207474E-16	3.757135E-17
4.910000E+03	8.076723E-16	3.697166E-17
4.920000E+03	7.971211E-16	3.648755E-17
4.930000E+03	7.888854E-16	3.610945E-17
4.940000E+03	7.826865E-16	3.582462E-17
4.950000E+03	7.782856E-16	3.562211E-17
4.960000E+03	7.754376E-16	3.549068E-17
4.970000E+03	7.739090E-16	3.541966E-17
4.980000E+03	7.734823E-16	3.539908E-17
4.990000E+03	7.739733E-16	3.542051E-17
5.000000E+03	7.751977E-16	3.547551E-17
5.010000E+03	7.770137E-16	3.555758E-17
5.020000E+03	7.793247E-16	3.566231E-17
5.030000E+03	7.820472E-16	3.578587E-17
5.040000E+03	7.851611E-16	3.592735E-17
5.050000E+03	7.886730E-16	3.608703E-17
5.060000E+03	7.926255E-16	3.626687E-17
5.070000E+03	7.970796E-16	3.646967E-17
5.080000E+03	8.021569E-16	3.670098E-17
5.090000E+03	8.079424E-16	3.696468E-17
5.100000E+03	8.145739E-16	3.726708E-17
5.110000E+03	8.221302E-16	3.761179E-17
5.120000E+03	8.307227E-16	3.800389E-17
5.130000E+03	8.403983E-16	3.844553E-17
5.140000E+03	8.511837E-16	3.893793E-17
5.150000E+03	8.630839E-16	3.948130E-17
5.160000E+03	8.760419E-16	4.007305E-17
5.170000E+03	8.899810E-16	4.070966E-17
5.180000E+03	9.047965E-16	4.138633E-17
5.190000E+03	9.203619E-16	4.209729E-17
5.200000E+03	9.365494E-16	4.283668E-17
5.210000E+03	9.531947E-16	4.359698E-17
5.220000E+03	9.701572E-16	4.437177E-17
5.230000E+03	9.872517E-16	4.515257E-17
5.240000E+03	1.004352E-15	4.593361E-17
5.250000E+03	1.021287E-15	4.670707E-17
5.260000E+03	1.037915E-15	4.746649E-17
5.270000E+03	1.054043E-15	4.820301E-17
5.280000E+03	1.069536E-15	4.891047E-17
5.290000E+03	1.084204E-15	4.958018E-17
5.300000E+03	1.097868E-15	5.020399E-17
5.310000E+03	1.110344E-15	5.077346E-17
5.320000E+03	1.121467E-15	5.128107E-17
5.330000E+03	1.131032E-15	5.171740E-17
5.340000E+03	1.138895E-15	5.207596E-17
5.350000E+03	1.144924E-15	5.235063E-17
5.360000E+03	1.149021E-15	5.253697E-17
5.370000E+03	1.151129E-15	5.263238E-17
5.380000E+03	1.151242E-15	5.263661E-17
5.390000E+03	1.149408E-15	5.255184E-17
5.400000E+03	1.145716E-15	5.238211E-17
5.410000E+03	1.140344E-15	5.213563E-17
5.420000E+03	1.133502E-15	5.182200E-17
5.430000E+03	1.125446E-15	5.145286E-17
5.440000E+03	1.116460E-15	5.104124E-17
5.450000E+03	1.106833E-15	5.060034E-17
5.460000E+03	1.096904E-15	5.014566E-17
5.470000E+03	1.086936E-15	4.968924E-17
5.480000E+03	1.077206E-15	4.924377E-17
5.490000E+03	1.067912E-15	4.881821E-17
5.500000E+03	1.059229E-15	4.842062E-17
5.510000E+03	1.051186E-15	4.805235E-17
5.520000E+03	1.043780E-15	4.771321E-17
5.530000E+03	1.036841E-15	4.739542E-17
5.540000E+03	1.030162E-15	4.708958E-17
5.550000E+03	1.023387E-15	4.677935E-17
5.560000E+03	1.016152E-15	4.644810E-17
5.570000E+03	1.008014E-15	4.607561E-17
5.580000E+03	9.985543E-16	4.564276E-17
5.590000E+03	9.874108E-16	4.513295E-17
5.600000E+03	9.743360E-16	4.453490E-17
5.610000E+03	9.592087E-16	4.384306E-17
5.620000E+03	9.420459E-16	4.305821E-17
5.630000E+03	9.231107E-16	4.219237E-17
5.640000E+03	9.027595E-16	4.126185E-17
5.650000E+03	8.815414E-16	4.029174E-17
5.660000E+03	8.600491E-16	3.930912E-17
5.670000E+03	8.389683E-16	3.834534E-17
5.680000E+03	8.189804E-16	3.743154E-17
5.690000E+03	8.007375E-16	3.659751E-17
5.700000E+03	7.848457E-16	3.587097E-17
5.710000E+03	7.717997E-16	3.527451E-17
5.720000E+03	7.620670E-16	3.482950E-17
5.730000E+03	7.559588E-16	3.455016E-17
5.740000E+03	7.537594E-16	3.444948E-17
5.750000E+03	7.556514E-16	3.453581E-17
5.760000E+03	7.617440E-16	3.481413E-17
5.770000E+03	7.720638E-16	3.528566E-17
5.780000E+03	7.865892E-16	3.594939E-17
5.790000E+03	8.052099E-16	3.680031E-17
5.800000E+03	8.277308E-16	3.782949E-17
5.810000E+03	8.538584E-16	3.902351E-17
5.820000E+03	8.831755E-16	4.036331E-17
5.830000E+03	9.151814E-16	4.182600E-17
5.840000E+03	9.492087E-16	4.338108E-17
5.850000E+03	9.844763E-16	4.499286E-17
5.860000E+03	1.020091E-15	4.662054E-17
5.870000E+03	1.055074E-15	4.821933E-17
5.880000E+03	1.088414E-15	4.974306E-17
5.890000E+03	1.119070E-15	5.114416E-17
5.900000E+03	1.146055E-15	5.237750E-17
5.910000E+03	1.168541E-15	5.340521E-17
5.920000E+03	1.185823E-15	5.419515E-17
5.930000E+03	1.197357E-15	5.472240E-17
5.940000E+03	1.202889E-15	5.497538E-17
5.950000E+03	1.202341E-15	5.495046E-17
5.960000E+03	1.195870E-15	5.465490E-17
5.970000E+03	1.183840E-15	5.410528E-17
5.980000E+03	1.166784E-15	5.332596E-17
5.990000E+03	1.145369E-15	5.234748E-17
6.000000E+03	1.120378E-15	5.120551E-17
6.010000E+03	1.092605E-15	4.993642E-17
6.020000E+03	1.062860E-15	4.857722E-17
6.030000E+03	1.031981E-15	4.716617E-17
6.040000E+03	1.000703E-15	4.573691E-17
6.050000E+03	9.696870E-16	4.431962E-17
6.060000E+03	9.395487E-16	4.294243E-17
6.070000E+03	9.107568E-16	4.162678E-17
6.080000E+03	8.836785E-16	4.038944E-17
6.090000E+03	8.586072E-16	3.924384E-17
6.100000E+03	8.357391E-16	3.819893E-17
6.110000E+03	8.151443E-16	3.725792E-17
6.120000E+03	7.968434E-16	3.642176E-17
6.130000E+03	7.808155E-16	3.568950E-17
6.140000E+03	7.669354E-16	3.505540E-17
6.150000E+03	7.550704E-16	3.451341E-17
6.160000E+03	7.450402E-16	3.405529E-17
6.170000E+03	7.366256E-16	3.367103E-17
6.180000E+03	7.296092E-16	3.335068E-17
6.190000E+03	7.237452E-16	3.308301E-17
6.200000E+03	7.187637E-16	3.285568E-17
6.210000E+03	7.144083E-16	3.265699E-17
6.220000E+03	7.104061E-16	3.247445E-17
6.230000E+03	7.064734E-16	3.229509E-17
6.240000E+03	7.023576E-16	3.210737E-17
6.250000E+03	6.978028E-16	3.189958E-17
6.260000E+03	6.926183E-16	3.166301E-17
6.270000E+03	6.866040E-16	3.138852E-17
6.280000E+03	6.796856E-16	3.107269E-17
6.290000E+03	6.718042E-16	3.071285E-17
6.300000E+03	6.630008E-16	3.031085E-17
6.310000E+03	6.534159E-16	2.987311E-17
6.320000E+03	6.432226E-16	2.940756E-17
6.330000E+03	6.326797E-16	2.892602E-17
6.340000E+03	6.221163E-16	2.844353E-17
6.350000E+03	6.118531E-16	2.797476E-17
6.360000E+03	6.022648E-16	2.753684E-17
6.370000E+03	5.936831E-16	2.714494E-17
6.380000E+03	5.864480E-16	2.681461E-17
6.390000E+03	5.808471E-16	2.655899E-17
6.400000E+03	5.771510E-16	2.639047E-17
6.410000E+03	5.755491E-16	2.631771E-17
6.420000E+03	5.761811E-16	2.634711E-17
6.430000E+03	5.791215E-16	2.648207E-17
6.440000E+03	5.843846E-16	2.672326E-17
6.450000E+03	5.918805E-16	2.706657E-17
6.460000E+03	6.014779E-16	2.750601E-17
6.470000E+03	6.129326E-16	2.803040E-17
6.480000E+03	6.259330E-16	2.862551E-17
6.490000E+03	6.400621E-16	2.927228E-17
6.500000E+03	6.548414E-16	2.994881E-17
6.510000E+03	6.696995E-16	3.062898E-17
6.520000E+03	6.840308E-16	3.128510E-17
6.530000E+03	6.971852E-16	3.188742E-17
6.540000E+03	7.085058E-16	3.240590E-17
6.550000E+03	7.173621E-16	3.281170E-17
6.560000E+03	7.231717E-16	3.307816E-17
6.570000E+03	7.254837E-16	3.318466E-17
6.580000E+03	7.239363E-16	3.311463E-17
6.590000E+03	7.183292E-16	3.285889E-17
6.600000E+03	7.086380E-16	3.241633E-17
6.610000E+03	6.949806E-16	3.179232E-17
6.620000E+03	6.776450E-16	3.100001E-17
6.630000E+03	6.570672E-16	3.005936E-17
6.640000E+03	6.337785E-16	2.899464E-17
6.650000E+03	6.083711E-16	2.783295E-17
6.660000E+03	5.814918E-16	2.660387E-17
6.670000E+03	5.537730E-16	2.533632E-17
6.680000E+03	5.258119E-16	2.405763E-17
6.690000E+03	4.981368E-16	2.279196E-17
6.700000E+03	4.712256E-16	2.156119E-17
6.710000E+03	4.454438E-16	2.038204E-17
6.720000E+03	4.210866E-16	1.926802E-17
6.730000E+03	3.983440E-16	1.822783E-17
6.740000E+03	3.773607E-16	1.726809E-17
6.750000E+03	3.582027E-16	1.639184E-17
6.760000E+03	3.408713E-16	1.559913E-17
6.770000E+03	3.253580E-16	1.488959E-17
6.780000E+03	3.115932E-16	1.426003E-17
6.790000E+03	2.994978E-16	1.370685E-17
6.800000E+03	2.889838E-16	1.322601E-17
6.810000E+03	2.799489E-16	1.281284E-17
6.820000E+03	2.722869E-16	1.246250E-17
6.830000E+03	2.658862E-16	1.216986E-17
6.840000E+03	2.606456E-16	1.193032E-17
6.850000E+03	2.564662E-16	1.173933E-17
6.860000E+03	2.532380E-16	1.159188E-17
6.870000E+03	2.508677E-16	1.148369E-17
6.880000E+03	2.492557E-16	1.141022E-17
6.890000E+03	2.483181E-16	1.136761E-17
6.900000E+03	2.479602E-16	1.135154E-17
6.910000E+03	2.480942E-16	1.135799E-17
6.920000E+03	2.486357E-16	1.138309E-17
6.930000E+03	2.494993E-16	1.142295E-17
6.940000E+03	2.506185E-16	1.147451E-17
6.950000E+03	2.519195E-16	1.153440E-17
6.960000E+03	2.533407E-16	1.159979E-17
6.970000E+03	2.548251E-16	1.166809E-17
6.980000E+03	2.563396E-16	1.173777E-17
6.990000E+03	2.578438E-16	1.180698E-17
7.000000E+03	2.593277E-16	1.187527E-17
7.010000E+03	2.607743E-16	1.194186E-17
7.020000E+03	2.621923E-16	1.200714E-17
7.030000E+03	2.635961E-16	1.207177E-17
7.040000E+03	2.650100E-16	1.213688E-17
7.050000E+03	2.664611E-16	1.220368E-17
7.060000E+03	2.679970E-16	1.227438E-17
7.070000E+03	2.696455E-16	1.235025E-17
7.080000E+03	2.714653E-16	1.243396E-17
7.090000E+03	2.734913E-16	1.252712E-17
7.100000E+03	2.757656E-16	1.263167E-17
7.110000E+03	2.783326E-16	1.274963E-17
7.120000E+03	2.812211E-16	1.288232E-17
7.130000E+03	2.844582E-16	1.303099E-17
7.140000E+03	2.880689E-16	1.319679E-17
7.150000E+03	2.920585E-16	1.337996E-17
7.160000E+03	2.964281E-16	1.358054E-17
7.170000E+03	3.011683E-16	1.379812E-17
7.180000E+03	3.062541E-16	1.403155E-17
7.190000E+03	3.116668E-16	1.427997E-17
7.200000E+03	3.173613E-16	1.454132E-17
7.210000E+03	3.232830E-16	1.481309E-17
7.220000E+03	3.293810E-16	1.509297E-17
7.230000E+03	3.355854E-16	1.537773E-17
7.240000E+03	3.418324E-16	1.566446E-17
7.250000E+03	3.480414E-16	1.594948E-17
7.260000E+03	3.541346E-16	1.622920E-17
7.270000E+03	3.600399E-16	1.650033E-17
7.280000E+03	3.656721E-16	1.675896E-17
7.290000E+03	3.709560E-16	1.700165E-17
7.300000E+03	3.758214E-16	1.722517E-17
7.310000E+03	3.801994E-16	1.742636E-17
7.320000E+03	3.840532E-16	1.760355E-17
7.330000E+03	3.873309E-16	1.775433E-17
7.340000E+03	3.900242E-16	1.787834E-17
7.350000E+03	3.921051E-16	1.797428E-17
7.360000E+03	3.936059E-16	1.804364E-17
7.370000E+03	3.945311E-16	1.808662E-17
7.380000E+03	3.949435E-16	1.810609E-17
7.390000E+03	3.948738E-16	1.810346E-17
7.400000E+03	3.943987E-16	1.808224E-17
7.410000E+03	3.935775E-16	1.804515E-17
7.420000E+03	3.924859E-16	1.799567E-17
7.430000E+03	3.911745E-16	1.793611E-17
7.440000E+03	3.897169E-16	1.786984E-17
7.450000E+03	3.881545E-16	1.779876E-17
7.460000E+03	3.865237E-16	1.772454E-17
7.470000E+03	3.848471E-16	1.764821E-17
7.480000E+03	3.831328E-16	1.757016E-17
7.490000E+03	3.813762E-16	1.749016E-17
7.500000E+03	3.795617E-16	1.740750E-17
7.510000E+03	3.776662E-16	1.732112E-17
7.520000E+03	3.756636E-16	1.722983E-17
7.530000E+03	3.735291E-16	1.713248E-17
7.540000E+03	3.712360E-16	1.702785E-17
7.550000E+03	3.687881E-16	1.691612E-17
7.560000E+03	3.661731E-16	1.679671E-17
7.570000E+03	3.634197E-16	1.667095E-17
7.580000E+03	3.605423E-16	1.653949E-17
7.590000E+03	3.575892E-16	1.640455E-17
7.600000E+03	3.546119E-16	1.626850E-17
7.610000E+03	3.516696E-16	1.613404E-17
7.620000E+03	3.488193E-16	1.600380E-17
7.630000E+03	3.461393E-16	1.588136E-17
7.640000E+03	3.436783E-16	1.576896E-17
7.650000E+03	3.414995E-16	1.566951E-17
7.660000E+03	3.396503E-16	1.558517E-17
7.670000E+03	3.381667E-16	1.551761E-17
7.680000E+03	3.370643E-16	1.546753E-17
7.690000E+03	3.363621E-16	1.543582E-17
7.700000E+03	3.360356E-16	1.542135E-17
7.710000E+03	3.360609E-16	1.542302E-17
7.720000E+03	3.363880E-16	1.543855E-17
7.730000E+03	3.369415E-16	1.546447E-17
7.740000E+03	3.376474E-16	1.549739E-17
7.750000E+03	3.383894E-16	1.553197E-17
7.760000E+03	3.390589E-16	1.556322E-17
