#wls	flux	fluxerr
1.600000E+03	7.009006E-17	4.134271E-18
1.640000E+03	6.783070E-17	4.000558E-18
1.680000E+03	6.573978E-17	3.876797E-18
1.720000E+03	6.384808E-17	3.764802E-18
1.760000E+03	6.212906E-17	3.663004E-18
1.800000E+03	6.057975E-17	3.571225E-18
1.840000E+03	5.921734E-17	3.490475E-18
1.880000E+03	5.802799E-17	3.419935E-18
1.920000E+03	5.700898E-17	3.359441E-18
1.960000E+03	5.615809E-17	3.308859E-18
2.000000E+03	5.548292E-17	3.268633E-18
2.040000E+03	5.497310E-17	3.238149E-18
2.080000E+03	5.463745E-17	3.217921E-18
2.120000E+03	5.447635E-17	3.207968E-18
2.160000E+03	5.448251E-17	3.207856E-18
2.200000E+03	5.467582E-17	3.218752E-18
2.240000E+03	5.505108E-17	3.240344E-18
2.280000E+03	5.562167E-17	3.273414E-18
2.320000E+03	5.638493E-17	3.317801E-18
2.360000E+03	5.736572E-17	3.374960E-18
2.400000E+03	5.855557E-17	3.444387E-18
2.440000E+03	5.998268E-17	3.527733E-18
2.480000E+03	6.165063E-17	3.625202E-18
2.520000E+03	6.358277E-17	3.738156E-18
2.560000E+03	6.579566E-17	3.867560E-18
2.600000E+03	6.831760E-17	4.015068E-18
2.640000E+03	7.116026E-17	4.181354E-18
2.680000E+03	7.435703E-17	4.368366E-18
2.720000E+03	7.794485E-17	4.578262E-18
2.760000E+03	8.194275E-17	4.812143E-18
2.800000E+03	8.639343E-17	5.072501E-18
2.840000E+03	9.133191E-17	5.361371E-18
2.880000E+03	9.680771E-17	5.681641E-18
2.920000E+03	1.028489E-16	6.034938E-18
2.960000E+03	1.095364E-16	6.425980E-18
3.000000E+03	1.168895E-16	6.855870E-18
3.010000E+03	1.188334E-16	6.969507E-18
3.020000E+03	1.208293E-16	7.086181E-18
3.030000E+03	1.228783E-16	7.205953E-18
3.040000E+03	1.249667E-16	7.328016E-18
3.050000E+03	1.271095E-16	7.453260E-18
3.060000E+03	1.292929E-16	7.580866E-18
3.070000E+03	1.315322E-16	7.711736E-18
3.080000E+03	1.338284E-16	7.845929E-18
3.090000E+03	1.361669E-16	7.982579E-18
3.100000E+03	1.385637E-16	8.122634E-18
3.110000E+03	1.410198E-16	8.266143E-18
3.120000E+03	1.435197E-16	8.412209E-18
3.130000E+03	1.460803E-16	8.561805E-18
3.140000E+03	1.486856E-16	8.714012E-18
3.150000E+03	1.513694E-16	8.870792E-18
3.160000E+03	1.540992E-16	9.030254E-18
3.170000E+03	1.568752E-16	9.192402E-18
3.180000E+03	1.597147E-16	9.358251E-18
3.190000E+03	1.626186E-16	9.527848E-18
3.200000E+03	1.655873E-16	9.701222E-18
3.210000E+03	1.686216E-16	9.878421E-18
3.220000E+03	1.717039E-16	1.005841E-17
3.230000E+03	1.748524E-16	1.024225E-17
3.240000E+03	1.780493E-16	1.042890E-17
3.250000E+03	1.813129E-16	1.061943E-17
3.260000E+03	1.846626E-16	1.081499E-17
3.270000E+03	1.880419E-16	1.101225E-17
3.280000E+03	1.915082E-16	1.121458E-17
3.290000E+03	1.950228E-16	1.141972E-17
3.300000E+03	1.986253E-16	1.162997E-17
3.310000E+03	2.022762E-16	1.184303E-17
3.320000E+03	2.059748E-16	1.205885E-17
3.330000E+03	2.097615E-16	1.227981E-17
3.340000E+03	2.135956E-16	1.250351E-17
3.350000E+03	2.174972E-16	1.273114E-17
3.360000E+03	2.214662E-16	1.296267E-17
3.370000E+03	2.255022E-16	1.319811E-17
3.380000E+03	2.296052E-16	1.343743E-17
3.390000E+03	2.337524E-16	1.367930E-17
3.400000E+03	2.379651E-16	1.392498E-17
3.410000E+03	2.422428E-16	1.417443E-17
3.420000E+03	2.465849E-16	1.442761E-17
3.430000E+03	2.509907E-16	1.468449E-17
3.440000E+03	2.554596E-16	1.494503E-17
3.450000E+03	2.599906E-16	1.520916E-17
3.460000E+03	2.645593E-16	1.547547E-17
3.470000E+03	2.691879E-16	1.574524E-17
3.480000E+03	2.738755E-16	1.601843E-17
3.490000E+03	2.786454E-16	1.629640E-17
3.500000E+03	2.834231E-16	1.657478E-17
3.510000E+03	2.882811E-16	1.685782E-17
3.520000E+03	2.931933E-16	1.714400E-17
3.530000E+03	2.981586E-16	1.743324E-17
3.540000E+03	3.031499E-16	1.772396E-17
3.550000E+03	3.082169E-16	1.801908E-17
3.560000E+03	3.133066E-16	1.831547E-17
3.570000E+03	3.184696E-16	1.861612E-17
3.580000E+03	3.236516E-16	1.891783E-17
3.590000E+03	3.288771E-16	1.922204E-17
3.600000E+03	3.341446E-16	1.952867E-17
3.610000E+03	3.394522E-16	1.983760E-17
3.620000E+03	3.447981E-16	2.014873E-17
3.630000E+03	3.501804E-16	2.046194E-17
3.640000E+03	3.555691E-16	2.077549E-17
3.650000E+03	3.610182E-16	2.109252E-17
3.660000E+03	3.664976E-16	2.141128E-17
3.670000E+03	3.719764E-16	2.172996E-17
3.680000E+03	3.775098E-16	2.205179E-17
3.690000E+03	3.830375E-16	2.237324E-17
3.700000E+03	3.886153E-16	2.269758E-17
3.710000E+03	3.941822E-16	2.302123E-17
3.720000E+03	3.997648E-16	2.334576E-17
3.730000E+03	4.053603E-16	2.367099E-17
3.740000E+03	4.109659E-16	2.399678E-17
3.750000E+03	4.165789E-16	2.432295E-17
3.760000E+03	4.221963E-16	2.464933E-17
3.770000E+03	4.277841E-16	2.497395E-17
3.780000E+03	4.334009E-16	2.530021E-17
3.790000E+03	4.390126E-16	2.562613E-17
3.800000E+03	4.445851E-16	2.594972E-17
3.810000E+03	4.501457E-16	2.627257E-17
3.820000E+03	4.556915E-16	2.659451E-17
3.830000E+03	4.612190E-16	2.691535E-17
3.840000E+03	4.667252E-16	2.723490E-17
3.850000E+03	4.722068E-16	2.755296E-17
3.860000E+03	4.776287E-16	2.786751E-17
3.870000E+03	4.830518E-16	2.818209E-17
3.880000E+03	4.884093E-16	2.849279E-17
3.890000E+03	4.937305E-16	2.880133E-17
3.900000E+03	4.990129E-16	2.910758E-17
3.910000E+03	5.042218E-16	2.940949E-17
3.920000E+03	5.093878E-16	2.970886E-17
3.930000E+03	5.145418E-16	3.000750E-17
3.940000E+03	5.195845E-16	3.029960E-17
3.950000E+03	5.246132E-16	3.059085E-17
3.960000E+03	5.295617E-16	3.087739E-17
3.970000E+03	5.344628E-16	3.116113E-17
3.980000E+03	5.393168E-16	3.144208E-17
3.990000E+03	5.440916E-16	3.171838E-17
4.000000E+03	5.488213E-16	3.199202E-17
4.010000E+03	5.535079E-16	3.226311E-17
4.020000E+03	5.581203E-16	3.252984E-17
4.030000E+03	5.626945E-16	3.279431E-17
4.040000E+03	5.672002E-16	3.305477E-17
4.050000E+03	5.716748E-16	3.331337E-17
4.060000E+03	5.760887E-16	3.356840E-17
4.070000E+03	5.804799E-16	3.382209E-17
4.080000E+03	5.848532E-16	3.407469E-17
4.090000E+03	5.891807E-16	3.432461E-17
4.100000E+03	5.934680E-16	3.457214E-17
4.110000E+03	5.977542E-16	3.481959E-17
4.120000E+03	6.020123E-16	3.506537E-17
4.130000E+03	6.062821E-16	3.531181E-17
4.140000E+03	6.105032E-16	3.555538E-17
4.150000E+03	6.147824E-16	3.580230E-17
4.160000E+03	6.190265E-16	3.604716E-17
4.170000E+03	6.233089E-16	3.629421E-17
4.180000E+03	6.276031E-16	3.654193E-17
4.190000E+03	6.319156E-16	3.679069E-17
4.200000E+03	6.362864E-16	3.704281E-17
4.210000E+03	6.406551E-16	3.729479E-17
4.220000E+03	6.450947E-16	3.755086E-17
4.230000E+03	6.495774E-16	3.780942E-17
4.240000E+03	6.541089E-16	3.807080E-17
4.250000E+03	6.586610E-16	3.833334E-17
4.260000E+03	6.633048E-16	3.860119E-17
4.270000E+03	6.680111E-16	3.887266E-17
4.280000E+03	6.727836E-16	3.914795E-17
4.290000E+03	6.776248E-16	3.942721E-17
4.300000E+03	6.825369E-16	3.971057E-17
4.310000E+03	6.874880E-16	3.999617E-17
4.320000E+03	6.925451E-16	4.028791E-17
4.330000E+03	6.976408E-16	4.058187E-17
4.340000E+03	7.028070E-16	4.087991E-17
4.350000E+03	7.080410E-16	4.118186E-17
4.360000E+03	7.133054E-16	4.148555E-17
4.370000E+03	7.186285E-16	4.179263E-17
4.380000E+03	7.240037E-16	4.210271E-17
4.390000E+03	7.293896E-16	4.241339E-17
4.400000E+03	7.348102E-16	4.272606E-17
4.410000E+03	7.402549E-16	4.304011E-17
4.420000E+03	7.456774E-16	4.335284E-17
4.430000E+03	7.510977E-16	4.366542E-17
4.440000E+03	7.564670E-16	4.397501E-17
4.450000E+03	7.618032E-16	4.428265E-17
4.460000E+03	7.670556E-16	4.458540E-17
4.470000E+03	7.722078E-16	4.488230E-17
4.480000E+03	7.772778E-16	4.517442E-17
4.490000E+03	7.822169E-16	4.545889E-17
4.500000E+03	7.870111E-16	4.573494E-17
4.510000E+03	7.916817E-16	4.600379E-17
4.520000E+03	7.961820E-16	4.626273E-17
4.530000E+03	8.004995E-16	4.651103E-17
4.540000E+03	8.046560E-16	4.674998E-17
4.550000E+03	8.085703E-16	4.697484E-17
4.560000E+03	8.122984E-16	4.718888E-17
4.570000E+03	8.157933E-16	4.738936E-17
4.580000E+03	8.190427E-16	4.757558E-17
4.590000E+03	8.220685E-16	4.774881E-17
4.600000E+03	8.247913E-16	4.790444E-17
4.610000E+03	8.272345E-16	4.804383E-17
4.620000E+03	8.293884E-16	4.816643E-17
4.630000E+03	8.312788E-16	4.827372E-17
4.640000E+03	8.328306E-16	4.836136E-17
4.650000E+03	8.341062E-16	4.843298E-17
4.660000E+03	8.350343E-16	4.848443E-17
4.670000E+03	8.356472E-16	4.851759E-17
4.680000E+03	8.359778E-16	4.853438E-17
4.690000E+03	8.359620E-16	4.853107E-17
4.700000E+03	8.356370E-16	4.850984E-17
4.710000E+03	8.350092E-16	4.847105E-17
4.720000E+03	8.340870E-16	4.841518E-17
4.730000E+03	8.328477E-16	4.834095E-17
4.740000E+03	8.313690E-16	4.825284E-17
4.750000E+03	8.295996E-16	4.814789E-17
4.760000E+03	8.276196E-16	4.803074E-17
4.770000E+03	8.253814E-16	4.789864E-17
4.780000E+03	8.229040E-16	4.775269E-17
4.790000E+03	8.202696E-16	4.759766E-17
4.800000E+03	8.174664E-16	4.743288E-17
4.810000E+03	8.144842E-16	4.725773E-17
4.820000E+03	8.113750E-16	4.707526E-17
4.830000E+03	8.081599E-16	4.688668E-17
4.840000E+03	8.048298E-16	4.669147E-17
4.850000E+03	8.014662E-16	4.649434E-17
4.860000E+03	7.980292E-16	4.629300E-17
4.870000E+03	7.945688E-16	4.609033E-17
4.880000E+03	7.911041E-16	4.588746E-17
4.890000E+03	7.876240E-16	4.568373E-17
4.900000E+03	7.841753E-16	4.548185E-17
4.910000E+03	7.807741E-16	4.528276E-17
4.920000E+03	7.774351E-16	4.508732E-17
4.930000E+03	7.741438E-16	4.489469E-17
4.940000E+03	7.709411E-16	4.470722E-17
4.950000E+03	7.678380E-16	4.452556E-17
4.960000E+03	7.648441E-16	4.435028E-17
4.970000E+03	7.619402E-16	4.418024E-17
4.980000E+03	7.591612E-16	4.401748E-17
4.990000E+03	7.565125E-16	4.386231E-17
5.000000E+03	7.539986E-16	4.371498E-17
5.010000E+03	7.515957E-16	4.357412E-17
5.020000E+03	7.493593E-16	4.344295E-17
5.030000E+03	7.472367E-16	4.331840E-17
5.040000E+03	7.452276E-16	4.320047E-17
5.050000E+03	7.433836E-16	4.309213E-17
5.060000E+03	7.416493E-16	4.299018E-17
5.070000E+03	7.400475E-16	4.289594E-17
5.080000E+03	7.385737E-16	4.280915E-17
5.090000E+03	7.371970E-16	4.272801E-17
5.100000E+03	7.359628E-16	4.265516E-17
5.110000E+03	7.348126E-16	4.258721E-17
5.120000E+03	7.337650E-16	4.252523E-17
5.130000E+03	7.328118E-16	4.246875E-17
5.140000E+03	7.319190E-16	4.241579E-17
5.150000E+03	7.311285E-16	4.236879E-17
5.160000E+03	7.303798E-16	4.232423E-17
5.170000E+03	7.296889E-16	4.228306E-17
5.180000E+03	7.290454E-16	4.224465E-17
5.190000E+03	7.284394E-16	4.220845E-17
5.200000E+03	7.278355E-16	4.217239E-17
5.210000E+03	7.272482E-16	4.213732E-17
5.220000E+03	7.266926E-16	4.210411E-17
5.230000E+03	7.261083E-16	4.206927E-17
5.240000E+03	7.255102E-16	4.203366E-17
5.250000E+03	7.248889E-16	4.199673E-17
5.260000E+03	7.242100E-16	4.195649E-17
5.270000E+03	7.235141E-16	4.191529E-17
5.280000E+03	7.227679E-16	4.187121E-17
5.290000E+03	7.219390E-16	4.182236E-17
5.300000E+03	7.210442E-16	4.176973E-17
5.310000E+03	7.201017E-16	4.171436E-17
5.320000E+03	7.190561E-16	4.165305E-17
5.330000E+03	7.179266E-16	4.158690E-17
5.340000E+03	7.167086E-16	4.151567E-17
5.350000E+03	7.153982E-16	4.143911E-17
5.360000E+03	7.139925E-16	4.135706E-17
5.370000E+03	7.124892E-16	4.126939E-17
5.380000E+03	7.108867E-16	4.117600E-17
5.390000E+03	7.091847E-16	4.107688E-17
5.400000E+03	7.073830E-16	4.097202E-17
5.410000E+03	7.054828E-16	4.086149E-17
5.420000E+03	7.034618E-16	4.074398E-17
5.430000E+03	7.013698E-16	4.062241E-17
5.440000E+03	6.991863E-16	4.049555E-17
5.450000E+03	6.969144E-16	4.036361E-17
5.460000E+03	6.945585E-16	4.022683E-17
5.470000E+03	6.921235E-16	4.008550E-17
5.480000E+03	6.896144E-16	3.993990E-17
5.490000E+03	6.870599E-16	3.979171E-17
5.500000E+03	6.844204E-16	3.963862E-17
5.510000E+03	6.817251E-16	3.948233E-17
5.520000E+03	6.790039E-16	3.932456E-17
5.530000E+03	6.762182E-16	3.916309E-17
5.540000E+03	6.734206E-16	3.900095E-17
5.550000E+03	6.705955E-16	3.883724E-17
5.560000E+03	6.677505E-16	3.867241E-17
5.570000E+03	6.648929E-16	3.850687E-17
5.580000E+03	6.620297E-16	3.834103E-17
5.590000E+03	6.591681E-16	3.817531E-17
5.600000E+03	6.563366E-16	3.801135E-17
5.610000E+03	6.535195E-16	3.784825E-17
5.620000E+03	6.507227E-16	3.768635E-17
5.630000E+03	6.479517E-16	3.752597E-17
5.640000E+03	6.452113E-16	3.736738E-17
5.650000E+03	6.425273E-16	3.721207E-17
5.660000E+03	6.398816E-16	3.705901E-17
5.670000E+03	6.372771E-16	3.690835E-17
5.680000E+03	6.347156E-16	3.676021E-17
5.690000E+03	6.322198E-16	3.661588E-17
5.700000E+03	6.297684E-16	3.647415E-17
5.710000E+03	6.273610E-16	3.633499E-17
5.720000E+03	6.250171E-16	3.619952E-17
5.730000E+03	6.226925E-16	3.606519E-17
5.740000E+03	6.204463E-16	3.593542E-17
5.750000E+03	6.182121E-16	3.580636E-17
5.760000E+03	6.160263E-16	3.568012E-17
5.770000E+03	6.138625E-16	3.555518E-17
5.780000E+03	6.117349E-16	3.543235E-17
5.790000E+03	6.095954E-16	3.530884E-17
5.800000E+03	6.074975E-16	3.518776E-17
5.810000E+03	6.053720E-16	3.506510E-17
5.820000E+03	6.032714E-16	3.494389E-17
5.830000E+03	6.011262E-16	3.482012E-17
5.840000E+03	5.989678E-16	3.469560E-17
5.850000E+03	5.967674E-16	3.456867E-17
5.860000E+03	5.945363E-16	3.443997E-17
5.870000E+03	5.922659E-16	3.430900E-17
5.880000E+03	5.899081E-16	3.417299E-17
5.890000E+03	5.875149E-16	3.403494E-17
5.900000E+03	5.850200E-16	3.389101E-17
5.910000E+03	5.824562E-16	3.374311E-17
5.920000E+03	5.798181E-16	3.359091E-17
5.930000E+03	5.770810E-16	3.343299E-17
5.940000E+03	5.742607E-16	3.327026E-17
5.950000E+03	5.713347E-16	3.310142E-17
5.960000E+03	5.683203E-16	3.292746E-17
5.970000E+03	5.651973E-16	3.274722E-17
5.980000E+03	5.619847E-16	3.256181E-17
5.990000E+03	5.586834E-16	3.237125E-17
6.000000E+03	5.552760E-16	3.217457E-17
6.010000E+03	5.517656E-16	3.197191E-17
6.020000E+03	5.481927E-16	3.176565E-17
6.030000E+03	5.445057E-16	3.155278E-17
6.040000E+03	5.407651E-16	3.133681E-17
6.050000E+03	5.369391E-16	3.111590E-17
6.060000E+03	5.330340E-16	3.089040E-17
6.070000E+03	5.290918E-16	3.066276E-17
6.080000E+03	5.250831E-16	3.043127E-17
6.090000E+03	5.210145E-16	3.019632E-17
6.100000E+03	5.169108E-16	2.995932E-17
6.110000E+03	5.127783E-16	2.972067E-17
6.120000E+03	5.086238E-16	2.948074E-17
6.130000E+03	5.044364E-16	2.923890E-17
6.140000E+03	5.002396E-16	2.899652E-17
6.150000E+03	4.960224E-16	2.875295E-17
6.160000E+03	4.918243E-16	2.851050E-17
6.170000E+03	4.876168E-16	2.826750E-17
6.180000E+03	4.834216E-16	2.802521E-17
6.190000E+03	4.792267E-16	2.778293E-17
6.200000E+03	4.750525E-16	2.754185E-17
6.210000E+03	4.709025E-16	2.730218E-17
6.220000E+03	4.667797E-16	2.706408E-17
6.230000E+03	4.626704E-16	2.682676E-17
6.240000E+03	4.585928E-16	2.659128E-17
6.250000E+03	4.545483E-16	2.635771E-17
6.260000E+03	4.505380E-16	2.612612E-17
6.270000E+03	4.465621E-16	2.589651E-17
6.280000E+03	4.426053E-16	2.566801E-17
6.290000E+03	4.386827E-16	2.544149E-17
6.300000E+03	4.347933E-16	2.521689E-17
6.310000E+03	4.309355E-16	2.499412E-17
6.320000E+03	4.271077E-16	2.477308E-17
6.330000E+03	4.232928E-16	2.455278E-17
6.340000E+03	4.195031E-16	2.433393E-17
6.350000E+03	4.157357E-16	2.411637E-17
6.360000E+03	4.119872E-16	2.389990E-17
6.370000E+03	4.082542E-16	2.368432E-17
6.380000E+03	4.045330E-16	2.346942E-17
6.390000E+03	4.008200E-16	2.325498E-17
6.400000E+03	3.970974E-16	2.303998E-17
6.410000E+03	3.933900E-16	2.282585E-17
6.420000E+03	3.896669E-16	2.261079E-17
6.430000E+03	3.859389E-16	2.239545E-17
6.440000E+03	3.822033E-16	2.217965E-17
6.450000E+03	3.784710E-16	2.196403E-17
6.460000E+03	3.747126E-16	2.174688E-17
6.470000E+03	3.709395E-16	2.152887E-17
6.480000E+03	3.671366E-16	2.130911E-17
6.490000E+03	3.633284E-16	2.108903E-17
6.500000E+03	3.595002E-16	2.086779E-17
6.510000E+03	3.556511E-16	2.064531E-17
6.520000E+03	3.517806E-16	2.042157E-17
6.530000E+03	3.478883E-16	2.019655E-17
6.540000E+03	3.439747E-16	1.997028E-17
6.550000E+03	3.400285E-16	1.974211E-17
6.560000E+03	3.360757E-16	1.951354E-17
6.570000E+03	3.321058E-16	1.928395E-17
6.580000E+03	3.281216E-16	1.905351E-17
6.590000E+03	3.241260E-16	1.882241E-17
6.600000E+03	3.201229E-16	1.859084E-17
6.610000E+03	3.161165E-16	1.835906E-17
6.620000E+03	3.121112E-16	1.812733E-17
6.630000E+03	3.081124E-16	1.789596E-17
6.640000E+03	3.041255E-16	1.766526E-17
6.650000E+03	3.001669E-16	1.743619E-17
6.660000E+03	2.962212E-16	1.720784E-17
6.670000E+03	2.923053E-16	1.698121E-17
6.680000E+03	2.884361E-16	1.675727E-17
6.690000E+03	2.846094E-16	1.653578E-17
6.700000E+03	2.808212E-16	1.631651E-17
6.710000E+03	2.770984E-16	1.610102E-17
6.720000E+03	2.734368E-16	1.588907E-17
6.730000E+03	2.698422E-16	1.568099E-17
6.740000E+03	2.663205E-16	1.547713E-17
6.750000E+03	2.628865E-16	1.527835E-17
6.760000E+03	2.595259E-16	1.508382E-17
6.770000E+03	2.562626E-16	1.489492E-17
6.780000E+03	2.530817E-16	1.471079E-17
6.790000E+03	2.500057E-16	1.453275E-17
6.800000E+03	2.470286E-16	1.436044E-17
6.810000E+03	2.441532E-16	1.419403E-17
6.820000E+03	2.413821E-16	1.403366E-17
6.830000E+03	2.387258E-16	1.387996E-17
6.840000E+03	2.361685E-16	1.373199E-17
6.850000E+03	2.337286E-16	1.359084E-17
6.860000E+03	2.313981E-16	1.345604E-17
6.870000E+03	2.291772E-16	1.332759E-17
6.880000E+03	2.270658E-16	1.320551E-17
6.890000E+03	2.250636E-16	1.308976E-17
6.900000E+03	2.231698E-16	1.298031E-17
6.910000E+03	2.213915E-16	1.287756E-17
6.920000E+03	2.197109E-16	1.278049E-17
6.930000E+03	2.181426E-16	1.268994E-17
6.940000E+03	2.166769E-16	1.260535E-17
6.950000E+03	2.153113E-16	1.252658E-17
6.960000E+03	2.140440E-16	1.245352E-17
6.970000E+03	2.128801E-16	1.238646E-17
6.980000E+03	2.118014E-16	1.232436E-17
6.990000E+03	2.108208E-16	1.226797E-17
7.000000E+03	2.099200E-16	1.221621E-17
7.010000E+03	2.091115E-16	1.216981E-17
7.020000E+03	2.083845E-16	1.212816E-17
7.030000E+03	2.077359E-16	1.209107E-17
7.040000E+03	2.071623E-16	1.205834E-17
7.050000E+03	2.066608E-16	1.202980E-17
7.060000E+03	2.062354E-16	1.200569E-17
7.070000E+03	2.058675E-16	1.198492E-17
7.080000E+03	2.055613E-16	1.196775E-17
7.090000E+03	2.053211E-16	1.195441E-17
7.100000E+03	2.051278E-16	1.194381E-17
7.110000E+03	2.049934E-16	1.193663E-17
7.120000E+03	2.049065E-16	1.193223E-17
7.130000E+03	2.048635E-16	1.193038E-17
7.140000E+03	2.048530E-16	1.193041E-17
7.150000E+03	2.048868E-16	1.193304E-17
7.160000E+03	2.049535E-16	1.193757E-17
7.170000E+03	2.050493E-16	1.194381E-17
7.180000E+03	2.051707E-16	1.195153E-17
7.190000E+03	2.053059E-16	1.196006E-17
7.200000E+03	2.054670E-16	1.197010E-17
7.210000E+03	2.056425E-16	1.198098E-17
7.220000E+03	2.058288E-16	1.199249E-17
7.230000E+03	2.060223E-16	1.200443E-17
7.240000E+03	2.062115E-16	1.201611E-17
7.250000E+03	2.064088E-16	1.202826E-17
7.260000E+03	2.065950E-16	1.203977E-17
7.270000E+03	2.067826E-16	1.205137E-17
7.280000E+03	2.069524E-16	1.206193E-17
7.290000E+03	2.071174E-16	1.207221E-17
7.300000E+03	2.072587E-16	1.208111E-17
7.310000E+03	2.073813E-16	1.208891E-17
7.320000E+03	2.074825E-16	1.209548E-17
7.330000E+03	2.075597E-16	1.210064E-17
7.340000E+03	2.076027E-16	1.210381E-17
7.350000E+03	2.076251E-16	1.210579E-17
7.360000E+03	2.076089E-16	1.210550E-17
7.370000E+03	2.075680E-16	1.210379E-17
7.380000E+03	2.074849E-16	1.209960E-17
7.390000E+03	2.073660E-16	1.209333E-17
7.400000E+03	2.072016E-16	1.208441E-17
7.410000E+03	2.070068E-16	1.207371E-17
7.420000E+03	2.067643E-16	1.206023E-17
7.430000E+03	2.064812E-16	1.204437E-17
7.440000E+03	2.061566E-16	1.202610E-17
7.450000E+03	2.057821E-16	1.200491E-17
7.460000E+03	2.053729E-16	1.198169E-17
7.470000E+03	2.049125E-16	1.195549E-17
7.480000E+03	2.044009E-16	1.192630E-17
7.490000E+03	2.038535E-16	1.189501E-17
7.500000E+03	2.032544E-16	1.186070E-17
7.510000E+03	2.026113E-16	1.182383E-17
7.520000E+03	2.019245E-16	1.178439E-17
7.530000E+03	2.011855E-16	1.174191E-17
7.540000E+03	2.004028E-16	1.169686E-17
7.550000E+03	1.995762E-16	1.164926E-17
7.560000E+03	1.986979E-16	1.159863E-17
7.570000E+03	1.977760E-16	1.154544E-17
7.580000E+03	1.968104E-16	1.148971E-17
7.590000E+03	1.957936E-16	1.143097E-17
7.600000E+03	1.947334E-16	1.136970E-17
7.610000E+03	1.936221E-16	1.130543E-17
7.620000E+03	1.924752E-16	1.123908E-17
7.630000E+03	1.912698E-16	1.116930E-17
7.640000E+03	1.900288E-16	1.109745E-17
7.650000E+03	1.887371E-16	1.102262E-17
7.660000E+03	1.873949E-16	1.094483E-17
7.670000E+03	1.860173E-16	1.086496E-17
7.680000E+03	1.845820E-16	1.078172E-17
7.690000E+03	1.831114E-16	1.069641E-17
7.700000E+03	1.815911E-16	1.060818E-17
7.710000E+03	1.800212E-16	1.051705E-17
7.720000E+03	1.784097E-16	1.042347E-17
7.730000E+03	1.767570E-16	1.032748E-17
7.740000E+03	1.750563E-16	1.022867E-17
7.750000E+03	1.733156E-16	1.012752E-17
7.760000E+03	1.715289E-16	1.002366E-17
