#wls	flux	fluxerr
1.600000E+03	6.109061E-17	2.777142E-18
1.640000E+03	5.985463E-17	2.720862E-18
1.680000E+03	5.872190E-17	2.669279E-18
1.720000E+03	5.771316E-17	2.623332E-18
1.760000E+03	5.681848E-17	2.582571E-18
1.800000E+03	5.604790E-17	2.547451E-18
1.840000E+03	5.539228E-17	2.517557E-18
1.880000E+03	5.485258E-17	2.492931E-18
1.920000E+03	5.443913E-17	2.474043E-18
1.960000E+03	5.415318E-17	2.460948E-18
2.000000E+03	5.398745E-17	2.453315E-18
2.040000E+03	5.395327E-17	2.451658E-18
2.080000E+03	5.406218E-17	2.456501E-18
2.120000E+03	5.429981E-17	2.467190E-18
2.160000E+03	5.467903E-17	2.484309E-18
2.200000E+03	5.521346E-17	2.508475E-18
2.240000E+03	5.589976E-17	2.539536E-18
2.280000E+03	5.674433E-17	2.577782E-18
2.320000E+03	5.776350E-17	2.623953E-18
2.360000E+03	5.895659E-17	2.678017E-18
2.400000E+03	6.034219E-17	2.740817E-18
2.440000E+03	6.193110E-17	2.812842E-18
2.480000E+03	6.373535E-17	2.894637E-18
2.520000E+03	6.576831E-17	2.986808E-18
2.560000E+03	6.805484E-17	3.090480E-18
2.600000E+03	7.059112E-17	3.205479E-18
2.640000E+03	7.342600E-17	3.334020E-18
2.680000E+03	7.654746E-17	3.475556E-18
2.720000E+03	8.000931E-17	3.632526E-18
2.760000E+03	8.382418E-17	3.805500E-18
2.800000E+03	8.800478E-17	3.995054E-18
2.840000E+03	9.260152E-17	4.203470E-18
2.880000E+03	9.764356E-17	4.432069E-18
2.920000E+03	1.031339E-16	4.680983E-18
2.960000E+03	1.091438E-16	4.953439E-18
3.000000E+03	1.156772E-16	5.249614E-18
3.010000E+03	1.174016E-16	5.327784E-18
3.020000E+03	1.191575E-16	5.407381E-18
3.030000E+03	1.209451E-16	5.488412E-18
3.040000E+03	1.227805E-16	5.571609E-18
3.050000E+03	1.246486E-16	5.656287E-18
3.060000E+03	1.265659E-16	5.743195E-18
3.070000E+03	1.285007E-16	5.830895E-18
3.080000E+03	1.304858E-16	5.920871E-18
3.090000E+03	1.325219E-16	6.013159E-18
3.100000E+03	1.345764E-16	6.106277E-18
3.110000E+03	1.366828E-16	6.201749E-18
3.120000E+03	1.388420E-16	6.299616E-18
3.130000E+03	1.410203E-16	6.398340E-18
3.140000E+03	1.432524E-16	6.499505E-18
3.150000E+03	1.455393E-16	6.603149E-18
3.160000E+03	1.478636E-16	6.708490E-18
3.170000E+03	1.502257E-16	6.815542E-18
3.180000E+03	1.526258E-16	6.924309E-18
3.190000E+03	1.550828E-16	7.035656E-18
3.200000E+03	1.575785E-16	7.148755E-18
3.210000E+03	1.601132E-16	7.263621E-18
3.220000E+03	1.627063E-16	7.381130E-18
3.230000E+03	1.653390E-16	7.500433E-18
3.240000E+03	1.680314E-16	7.622434E-18
3.250000E+03	1.707441E-16	7.745356E-18
3.260000E+03	1.735373E-16	7.871924E-18
3.270000E+03	1.763509E-16	7.999411E-18
3.280000E+03	1.792257E-16	8.129671E-18
3.290000E+03	1.821415E-16	8.261784E-18
3.300000E+03	1.851195E-16	8.396715E-18
3.310000E+03	1.881388E-16	8.533517E-18
3.320000E+03	1.911996E-16	8.672189E-18
3.330000E+03	1.943236E-16	8.813726E-18
3.340000E+03	1.974892E-16	8.957143E-18
3.350000E+03	2.006962E-16	9.102435E-18
3.360000E+03	2.039673E-16	9.250628E-18
3.370000E+03	2.072801E-16	9.400704E-18
3.380000E+03	2.106576E-16	9.553709E-18
3.390000E+03	2.140766E-16	9.708593E-18
3.400000E+03	2.175371E-16	9.865351E-18
3.410000E+03	2.210628E-16	1.002506E-17
3.420000E+03	2.246298E-16	1.018663E-17
3.430000E+03	2.282376E-16	1.035005E-17
3.440000E+03	2.319108E-16	1.051643E-17
3.450000E+03	2.356245E-16	1.068464E-17
3.460000E+03	2.393785E-16	1.085467E-17
3.470000E+03	2.431978E-16	1.102766E-17
3.480000E+03	2.470828E-16	1.120361E-17
3.490000E+03	2.509812E-16	1.138017E-17
3.500000E+03	2.549446E-16	1.155967E-17
3.510000E+03	2.589464E-16	1.174090E-17
3.520000E+03	2.630133E-16	1.192507E-17
3.530000E+03	2.671178E-16	1.211095E-17
3.540000E+03	2.712870E-16	1.229975E-17
3.550000E+03	2.754649E-16	1.248894E-17
3.560000E+03	2.797350E-16	1.268229E-17
3.570000E+03	2.840122E-16	1.287597E-17
3.580000E+03	2.883527E-16	1.307250E-17
3.590000E+03	2.927273E-16	1.327058E-17
3.600000E+03	2.971645E-16	1.347148E-17
3.610000E+03	3.016345E-16	1.367387E-17
3.620000E+03	3.061365E-16	1.387769E-17
3.630000E+03	3.106998E-16	1.408429E-17
3.640000E+03	3.152936E-16	1.429226E-17
3.650000E+03	3.199168E-16	1.450156E-17
3.660000E+03	3.245998E-16	1.471355E-17
3.670000E+03	3.293106E-16	1.492681E-17
3.680000E+03	3.340484E-16	1.514127E-17
3.690000E+03	3.388441E-16	1.535835E-17
3.700000E+03	3.436648E-16	1.557656E-17
3.710000E+03	3.485097E-16	1.579585E-17
3.720000E+03	3.534105E-16	1.601767E-17
3.730000E+03	3.583335E-16	1.624049E-17
3.740000E+03	3.632777E-16	1.646426E-17
3.750000E+03	3.682758E-16	1.669047E-17
3.760000E+03	3.732932E-16	1.691753E-17
3.770000E+03	3.783287E-16	1.714542E-17
3.780000E+03	3.833812E-16	1.737406E-17
3.790000E+03	3.884845E-16	1.760499E-17
3.800000E+03	3.936382E-16	1.783821E-17
3.810000E+03	3.987708E-16	1.807045E-17
3.820000E+03	4.039521E-16	1.830490E-17
3.830000E+03	4.091456E-16	1.853989E-17
3.840000E+03	4.143502E-16	1.877537E-17
3.850000E+03	4.196015E-16	1.901296E-17
3.860000E+03	4.248250E-16	1.924928E-17
3.870000E+03	4.300938E-16	1.948764E-17
3.880000E+03	4.354074E-16	1.972803E-17
3.890000E+03	4.406899E-16	1.996699E-17
3.900000E+03	4.460157E-16	2.020792E-17
3.910000E+03	4.513465E-16	2.044905E-17
3.920000E+03	4.566812E-16	2.069036E-17
3.930000E+03	4.620578E-16	2.093356E-17
3.940000E+03	4.674372E-16	2.117687E-17
3.950000E+03	4.728185E-16	2.142026E-17
3.960000E+03	4.782009E-16	2.166369E-17
3.970000E+03	4.835837E-16	2.190713E-17
3.980000E+03	4.889661E-16	2.215055E-17
3.990000E+03	4.943880E-16	2.239574E-17
4.000000E+03	4.998087E-16	2.264087E-17
4.010000E+03	5.052277E-16	2.288592E-17
4.020000E+03	5.106442E-16	2.313084E-17
4.030000E+03	5.160576E-16	2.337561E-17
4.040000E+03	5.215089E-16	2.362210E-17
4.050000E+03	5.269148E-16	2.386652E-17
4.060000E+03	5.323579E-16	2.411261E-17
4.070000E+03	5.377960E-16	2.435847E-17
4.080000E+03	5.432284E-16	2.460406E-17
4.090000E+03	5.486545E-16	2.484937E-17
4.100000E+03	5.540737E-16	2.509434E-17
4.110000E+03	5.594850E-16	2.533896E-17
4.120000E+03	5.648876E-16	2.558317E-17
4.130000E+03	5.703242E-16	2.582891E-17
4.140000E+03	5.757069E-16	2.607221E-17
4.150000E+03	5.810778E-16	2.631496E-17
4.160000E+03	5.864799E-16	2.655912E-17
4.170000E+03	5.918237E-16	2.680063E-17
4.180000E+03	5.971961E-16	2.704343E-17
4.190000E+03	6.025066E-16	2.728342E-17
4.200000E+03	6.077977E-16	2.752251E-17
4.210000E+03	6.131124E-16	2.776268E-17
4.220000E+03	6.183584E-16	2.799973E-17
4.230000E+03	6.236237E-16	2.823764E-17
4.240000E+03	6.288147E-16	2.847218E-17
4.250000E+03	6.339739E-16	2.870528E-17
4.260000E+03	6.390981E-16	2.893678E-17
4.270000E+03	6.441839E-16	2.916654E-17
4.280000E+03	6.492277E-16	2.939439E-17
4.290000E+03	6.542253E-16	2.962015E-17
4.300000E+03	6.591728E-16	2.984363E-17
4.310000E+03	6.640658E-16	3.006464E-17
4.320000E+03	6.688526E-16	3.028084E-17
4.330000E+03	6.736220E-16	3.049624E-17
4.340000E+03	6.782751E-16	3.070637E-17
4.350000E+03	6.828535E-16	3.091312E-17
4.360000E+03	6.873517E-16	3.111623E-17
4.370000E+03	6.917641E-16	3.131545E-17
4.380000E+03	6.960851E-16	3.151053E-17
4.390000E+03	7.002613E-16	3.169906E-17
4.400000E+03	7.043346E-16	3.188292E-17
4.410000E+03	7.082990E-16	3.206185E-17
4.420000E+03	7.121491E-16	3.223561E-17
4.430000E+03	7.158314E-16	3.240176E-17
4.440000E+03	7.194364E-16	3.256441E-17
4.450000E+03	7.228631E-16	3.271900E-17
4.460000E+03	7.261066E-16	3.286529E-17
4.470000E+03	7.292584E-16	3.300742E-17
4.480000E+03	7.322181E-16	3.314087E-17
4.490000E+03	7.350301E-16	3.326763E-17
4.500000E+03	7.376907E-16	3.338753E-17
4.510000E+03	7.401491E-16	3.349828E-17
4.520000E+03	7.424505E-16	3.360194E-17
4.530000E+03	7.445929E-16	3.369839E-17
4.540000E+03	7.465265E-16	3.378539E-17
4.550000E+03	7.482983E-16	3.386508E-17
4.560000E+03	7.499075E-16	3.393741E-17
4.570000E+03	7.513060E-16	3.400021E-17
4.580000E+03	7.525420E-16	3.405565E-17
4.590000E+03	7.535685E-16	3.410162E-17
4.600000E+03	7.544341E-16	3.414030E-17
4.610000E+03	7.551404E-16	3.417179E-17
4.620000E+03	7.556420E-16	3.419401E-17
4.630000E+03	7.559884E-16	3.420921E-17
4.640000E+03	7.561822E-16	3.421752E-17
4.650000E+03	7.561795E-16	3.421693E-17
4.660000E+03	7.560306E-16	3.420973E-17
4.670000E+03	7.556926E-16	3.419398E-17
4.680000E+03	7.552159E-16	3.417197E-17
4.690000E+03	7.545587E-16	3.414178E-17
4.700000E+03	7.537717E-16	3.410573E-17
4.710000E+03	7.528593E-16	3.406401E-17
4.720000E+03	7.517810E-16	3.401479E-17
4.730000E+03	7.505422E-16	3.395832E-17
4.740000E+03	7.492389E-16	3.389893E-17
4.750000E+03	7.477414E-16	3.383076E-17
4.760000E+03	7.461453E-16	3.375814E-17
4.770000E+03	7.444564E-16	3.368132E-17
4.780000E+03	7.426363E-16	3.359858E-17
4.790000E+03	7.407351E-16	3.351217E-17
4.800000E+03	7.387148E-16	3.342038E-17
4.810000E+03	7.366256E-16	3.332548E-17
4.820000E+03	7.344298E-16	3.322576E-17
4.830000E+03	7.321768E-16	3.312347E-17
4.840000E+03	7.298297E-16	3.301691E-17
4.850000E+03	7.274371E-16	3.290832E-17
4.860000E+03	7.249624E-16	3.279601E-17
4.870000E+03	7.224536E-16	3.268217E-17
4.880000E+03	7.198742E-16	3.256514E-17
4.890000E+03	7.172300E-16	3.244518E-17
4.900000E+03	7.145678E-16	3.232442E-17
4.910000E+03	7.118924E-16	3.220307E-17
4.920000E+03	7.091674E-16	3.207948E-17
4.930000E+03	7.064384E-16	3.195572E-17
4.940000E+03	7.036690E-16	3.183014E-17
4.950000E+03	7.008640E-16	3.170295E-17
4.960000E+03	6.980671E-16	3.157614E-17
4.970000E+03	6.952422E-16	3.144807E-17
4.980000E+03	6.924323E-16	3.132068E-17
4.990000E+03	6.896402E-16	3.119411E-17
5.000000E+03	6.867906E-16	3.106494E-17
5.010000E+03	6.840029E-16	3.093858E-17
5.020000E+03	6.811634E-16	3.080988E-17
5.030000E+03	6.783514E-16	3.068243E-17
5.040000E+03	6.755682E-16	3.055629E-17
5.050000E+03	6.727774E-16	3.042982E-17
5.060000E+03	6.700179E-16	3.030477E-17
5.070000E+03	6.672535E-16	3.017950E-17
5.080000E+03	6.644851E-16	3.005406E-17
5.090000E+03	6.617505E-16	2.993015E-17
5.100000E+03	6.590132E-16	2.980613E-17
5.110000E+03	6.563100E-16	2.968366E-17
5.120000E+03	6.536406E-16	2.956272E-17
5.130000E+03	6.509687E-16	2.944168E-17
5.140000E+03	6.482942E-16	2.932052E-17
5.150000E+03	6.456525E-16	2.920085E-17
5.160000E+03	6.430074E-16	2.908104E-17
5.170000E+03	6.403585E-16	2.896106E-17
5.180000E+03	6.377752E-16	2.884405E-17
5.190000E+03	6.351514E-16	2.872522E-17
5.200000E+03	6.325564E-16	2.860770E-17
5.210000E+03	6.299887E-16	2.849142E-17
5.220000E+03	6.274129E-16	2.837478E-17
5.230000E+03	6.248621E-16	2.825928E-17
5.240000E+03	6.223012E-16	2.814332E-17
5.250000E+03	6.197293E-16	2.802687E-17
5.260000E+03	6.171792E-16	2.791142E-17
5.270000E+03	6.146494E-16	2.779689E-17
5.280000E+03	6.121056E-16	2.768173E-17
5.290000E+03	6.095470E-16	2.756591E-17
5.300000E+03	6.070057E-16	2.745088E-17
5.310000E+03	6.044805E-16	2.733658E-17
5.320000E+03	6.019379E-16	2.722150E-17
5.330000E+03	5.993773E-16	2.710561E-17
5.340000E+03	5.968304E-16	2.699035E-17
5.350000E+03	5.942963E-16	2.687567E-17
5.360000E+03	5.917424E-16	2.676011E-17
5.370000E+03	5.892001E-16	2.664507E-17
5.380000E+03	5.866372E-16	2.652911E-17
5.390000E+03	5.840850E-16	2.641364E-17
5.400000E+03	5.815116E-16	2.629722E-17
5.410000E+03	5.789174E-16	2.617985E-17
5.420000E+03	5.763641E-16	2.606435E-17
5.430000E+03	5.737894E-16	2.594788E-17
5.440000E+03	5.711937E-16	2.583047E-17
5.450000E+03	5.686078E-16	2.571351E-17
5.460000E+03	5.660013E-16	2.559561E-17
5.470000E+03	5.634047E-16	2.547818E-17
5.480000E+03	5.608179E-16	2.536119E-17
5.490000E+03	5.582115E-16	2.524331E-17
5.500000E+03	5.556154E-16	2.512592E-17
5.510000E+03	5.530005E-16	2.500767E-17
5.520000E+03	5.503965E-16	2.488992E-17
5.530000E+03	5.477744E-16	2.477136E-17
5.540000E+03	5.451641E-16	2.465333E-17
5.550000E+03	5.425654E-16	2.453583E-17
5.560000E+03	5.399501E-16	2.441759E-17
5.570000E+03	5.373471E-16	2.429990E-17
5.580000E+03	5.347283E-16	2.418151E-17
5.590000E+03	5.321225E-16	2.406370E-17
5.600000E+03	5.295296E-16	2.394649E-17
5.610000E+03	5.269217E-16	2.382860E-17
5.620000E+03	5.243273E-16	2.371132E-17
5.630000E+03	5.217184E-16	2.359339E-17
5.640000E+03	5.191229E-16	2.347607E-17
5.650000E+03	5.165406E-16	2.335935E-17
5.660000E+03	5.139441E-16	2.324199E-17
5.670000E+03	5.113607E-16	2.312523E-17
5.680000E+03	5.087898E-16	2.300903E-17
5.690000E+03	5.062044E-16	2.289219E-17
5.700000E+03	5.036310E-16	2.277588E-17
5.710000E+03	5.010691E-16	2.266010E-17
5.720000E+03	4.984917E-16	2.254362E-17
5.730000E+03	4.959246E-16	2.242761E-17
5.740000E+03	4.933413E-16	2.231087E-17
5.750000E+03	4.907932E-16	2.219573E-17
5.760000E+03	4.882016E-16	2.207862E-17
5.770000E+03	4.856436E-16	2.196302E-17
5.780000E+03	4.830666E-16	2.184658E-17
5.790000E+03	4.804957E-16	2.173041E-17
5.800000E+03	4.779299E-16	2.161448E-17
5.810000E+03	4.753430E-16	2.149759E-17
5.820000E+03	4.727595E-16	2.138086E-17
5.830000E+03	4.701786E-16	2.126424E-17
5.840000E+03	4.675743E-16	2.114657E-17
5.850000E+03	4.649709E-16	2.102895E-17
5.860000E+03	4.623674E-16	2.091132E-17
5.870000E+03	4.597628E-16	2.079364E-17
5.880000E+03	4.571324E-16	2.067480E-17
5.890000E+03	4.544994E-16	2.055584E-17
5.900000E+03	4.518633E-16	2.043674E-17
5.910000E+03	4.492234E-16	2.031747E-17
5.920000E+03	4.465553E-16	2.019693E-17
5.930000E+03	4.438824E-16	2.007617E-17
5.940000E+03	4.412042E-16	1.995517E-17
5.950000E+03	4.384968E-16	1.983286E-17
5.960000E+03	4.357837E-16	1.971028E-17
5.970000E+03	4.330644E-16	1.958743E-17
5.980000E+03	4.303387E-16	1.946428E-17
5.990000E+03	4.276064E-16	1.934085E-17
6.000000E+03	4.248449E-16	1.921609E-17
6.010000E+03	4.220770E-16	1.909104E-17
6.020000E+03	4.193027E-16	1.896570E-17
6.030000E+03	4.165223E-16	1.884009E-17
6.040000E+03	4.137139E-16	1.871321E-17
6.050000E+03	4.109217E-16	1.858706E-17
6.060000E+03	4.081024E-16	1.845969E-17
6.070000E+03	4.052782E-16	1.833210E-17
6.080000E+03	4.024280E-16	1.820333E-17
6.090000E+03	3.995953E-16	1.807535E-17
6.100000E+03	3.967377E-16	1.794625E-17
6.110000E+03	3.938773E-16	1.781702E-17
6.120000E+03	3.910143E-16	1.768767E-17
6.130000E+03	3.881495E-16	1.755824E-17
6.140000E+03	3.852832E-16	1.742875E-17
6.150000E+03	3.823955E-16	1.729828E-17
6.160000E+03	3.795280E-16	1.716873E-17
6.170000E+03	3.766403E-16	1.703826E-17
6.180000E+03	3.737536E-16	1.690784E-17
6.190000E+03	3.708680E-16	1.677747E-17
6.200000E+03	3.679646E-16	1.664629E-17
6.210000E+03	3.650832E-16	1.651611E-17
6.220000E+03	3.621850E-16	1.638517E-17
6.230000E+03	3.593094E-16	1.625525E-17
6.240000E+03	3.564180E-16	1.612461E-17
6.250000E+03	3.535306E-16	1.599415E-17
6.260000E+03	3.506477E-16	1.586390E-17
6.270000E+03	3.477506E-16	1.573300E-17
6.280000E+03	3.448774E-16	1.560318E-17
6.290000E+03	3.420094E-16	1.547360E-17
6.300000E+03	3.391287E-16	1.534344E-17
6.310000E+03	3.362542E-16	1.521356E-17
6.320000E+03	3.333861E-16	1.508397E-17
6.330000E+03	3.305426E-16	1.495549E-17
6.340000E+03	3.276704E-16	1.482571E-17
6.350000E+03	3.248235E-16	1.469707E-17
6.360000E+03	3.219843E-16	1.456878E-17
6.370000E+03	3.191532E-16	1.444086E-17
6.380000E+03	3.163306E-16	1.431331E-17
6.390000E+03	3.134998E-16	1.418540E-17
6.400000E+03	3.106955E-16	1.405868E-17
6.410000E+03	3.078841E-16	1.393164E-17
6.420000E+03	3.050831E-16	1.380507E-17
6.430000E+03	3.022928E-16	1.367898E-17
6.440000E+03	2.995301E-16	1.355413E-17
6.450000E+03	2.967625E-16	1.342907E-17
6.460000E+03	2.940072E-16	1.330455E-17
6.470000E+03	2.912646E-16	1.318061E-17
6.480000E+03	2.885354E-16	1.305728E-17
6.490000E+03	2.858044E-16	1.293386E-17
6.500000E+03	2.831041E-16	1.281182E-17
6.510000E+03	2.804193E-16	1.269049E-17
6.520000E+03	2.777509E-16	1.256990E-17
6.530000E+03	2.750845E-16	1.244939E-17
6.540000E+03	2.724515E-16	1.233040E-17
6.550000E+03	2.698228E-16	1.221159E-17
6.560000E+03	2.672292E-16	1.209437E-17
6.570000E+03	2.646421E-16	1.197745E-17
6.580000E+03	2.620917E-16	1.186218E-17
6.590000E+03	2.595502E-16	1.174731E-17
6.600000E+03	2.570474E-16	1.163420E-17
6.610000E+03	2.545559E-16	1.152159E-17
6.620000E+03	2.520910E-16	1.141018E-17
6.630000E+03	2.496677E-16	1.130065E-17
6.640000E+03	2.472595E-16	1.119180E-17
6.650000E+03	2.448811E-16	1.108430E-17
6.660000E+03	2.425337E-16	1.097821E-17
6.670000E+03	2.402184E-16	1.087356E-17
6.680000E+03	2.379495E-16	1.077101E-17
6.690000E+03	2.357013E-16	1.066939E-17
6.700000E+03	2.334883E-16	1.056937E-17
6.710000E+03	2.313114E-16	1.047097E-17
6.720000E+03	2.291714E-16	1.037425E-17
6.730000E+03	2.270692E-16	1.027923E-17
6.740000E+03	2.250058E-16	1.018597E-17
6.750000E+03	2.229817E-16	1.009448E-17
6.760000E+03	2.209977E-16	1.000481E-17
6.770000E+03	2.190545E-16	9.916984E-18
6.780000E+03	2.171527E-16	9.831028E-18
6.790000E+03	2.152929E-16	9.746968E-18
6.800000E+03	2.134873E-16	9.665364E-18
6.810000E+03	2.117124E-16	9.585149E-18
6.820000E+03	2.099689E-16	9.506353E-18
6.830000E+03	2.082805E-16	9.430048E-18
6.840000E+03	2.066357E-16	9.355714E-18
6.850000E+03	2.050345E-16	9.283356E-18
6.860000E+03	2.034771E-16	9.212974E-18
6.870000E+03	2.019633E-16	9.144568E-18
6.880000E+03	2.004930E-16	9.078128E-18
6.890000E+03	1.990661E-16	9.013655E-18
6.900000E+03	1.976824E-16	8.951131E-18
6.910000E+03	1.963414E-16	8.890546E-18
6.920000E+03	1.950431E-16	8.831886E-18
6.930000E+03	1.937867E-16	8.775125E-18
6.940000E+03	1.925718E-16	8.720243E-18
6.950000E+03	1.913870E-16	8.666719E-18
6.960000E+03	1.902535E-16	8.615518E-18
6.970000E+03	1.891597E-16	8.566114E-18
6.980000E+03	1.881047E-16	8.518465E-18
6.990000E+03	1.870880E-16	8.472548E-18
7.000000E+03	1.861084E-16	8.428314E-18
7.010000E+03	1.851548E-16	8.385253E-18
7.020000E+03	1.842473E-16	8.344276E-18
7.030000E+03	1.833742E-16	8.304861E-18
7.040000E+03	1.825242E-16	8.266487E-18
7.050000E+03	1.817171E-16	8.230058E-18
7.060000E+03	1.809414E-16	8.195048E-18
7.070000E+03	1.801855E-16	8.160936E-18
7.080000E+03	1.794691E-16	8.128613E-18
7.090000E+03	1.787704E-16	8.097087E-18
7.100000E+03	1.781086E-16	8.067233E-18
7.110000E+03	1.774622E-16	8.038076E-18
7.120000E+03	1.768502E-16	8.010476E-18
7.130000E+03	1.762510E-16	7.983457E-18
7.140000E+03	1.756736E-16	7.957424E-18
7.150000E+03	1.751268E-16	7.932773E-18
7.160000E+03	1.745891E-16	7.908537E-18
7.170000E+03	1.740693E-16	7.885108E-18
7.180000E+03	1.735660E-16	7.862430E-18
7.190000E+03	1.730781E-16	7.840443E-18
7.200000E+03	1.726040E-16	7.819087E-18
7.210000E+03	1.721426E-16	7.798302E-18
7.220000E+03	1.716927E-16	7.778039E-18
7.230000E+03	1.712528E-16	7.758226E-18
7.240000E+03	1.708218E-16	7.738815E-18
7.250000E+03	1.703884E-16	7.719296E-18
7.260000E+03	1.699711E-16	7.700511E-18
7.270000E+03	1.695590E-16	7.681956E-18
7.280000E+03	1.691408E-16	7.663123E-18
7.290000E+03	1.687253E-16	7.644415E-18
7.300000E+03	1.683212E-16	7.626222E-18
7.310000E+03	1.679076E-16	7.607596E-18
7.320000E+03	1.674932E-16	7.588936E-18
7.330000E+03	1.670770E-16	7.570189E-18
7.340000E+03	1.666578E-16	7.551311E-18
7.350000E+03	1.662347E-16	7.532253E-18
7.360000E+03	1.657969E-16	7.512531E-18
7.370000E+03	1.653629E-16	7.492978E-18
7.380000E+03	1.649221E-16	7.473116E-18
7.390000E+03	1.644638E-16	7.452459E-18
7.400000E+03	1.639969E-16	7.431414E-18
7.410000E+03	1.635205E-16	7.409940E-18
7.420000E+03	1.630340E-16	7.388003E-18
7.430000E+03	1.625364E-16	7.365568E-18
7.440000E+03	1.620272E-16	7.342601E-18
7.450000E+03	1.615056E-16	7.319075E-18
7.460000E+03	1.609613E-16	7.294519E-18
7.470000E+03	1.604131E-16	7.269783E-18
7.480000E+03	1.598411E-16	7.243971E-18
7.490000E+03	1.592545E-16	7.217493E-18
7.500000E+03	1.586527E-16	7.190327E-18
7.510000E+03	1.580353E-16	7.162454E-18
7.520000E+03	1.573924E-16	7.133427E-18
7.530000E+03	1.567427E-16	7.104084E-18
7.540000E+03	1.560668E-16	7.073560E-18
7.550000E+03	1.553741E-16	7.042268E-18
7.560000E+03	1.546642E-16	7.010195E-18
7.570000E+03	1.539368E-16	6.977333E-18
7.580000E+03	1.531918E-16	6.943670E-18
7.590000E+03	1.524291E-16	6.909204E-18
7.600000E+03	1.516396E-16	6.873518E-18
7.610000E+03	1.508322E-16	6.837023E-18
7.620000E+03	1.500070E-16	6.799719E-18
7.630000E+03	1.491640E-16	6.761611E-18
7.640000E+03	1.483034E-16	6.722698E-18
7.650000E+03	1.474161E-16	6.682580E-18
7.660000E+03	1.465204E-16	6.642077E-18
7.670000E+03	1.455987E-16	6.600391E-18
7.680000E+03	1.446599E-16	6.557933E-18
7.690000E+03	1.436957E-16	6.514319E-18
7.700000E+03	1.427238E-16	6.470358E-18
7.710000E+03	1.417273E-16	6.425279E-18
7.720000E+03	1.407153E-16	6.379491E-18
7.730000E+03	1.396881E-16	6.333019E-18
7.740000E+03	1.386462E-16	6.285876E-18
7.750000E+03	1.375901E-16	6.238090E-18
7.760000E+03	1.365120E-16	6.189305E-18
