#wls	flux	fluxerr
1.600000E+03	4.933384E-17	1.124691E-17
1.640000E+03	4.929076E-17	1.123685E-17
1.680000E+03	4.929911E-17	1.123852E-17
1.720000E+03	4.936126E-17	1.125244E-17
1.760000E+03	4.948832E-17	1.128116E-17
1.800000E+03	4.968290E-17	1.132526E-17
1.840000E+03	4.993918E-17	1.138342E-17
1.880000E+03	5.026876E-17	1.145828E-17
1.920000E+03	5.066616E-17	1.154859E-17
1.960000E+03	5.114350E-17	1.165710E-17
2.000000E+03	5.170449E-17	1.178468E-17
2.040000E+03	5.235317E-17	1.193222E-17
2.080000E+03	5.308485E-17	1.209868E-17
2.120000E+03	5.390392E-17	1.228503E-17
2.160000E+03	5.483361E-17	1.249658E-17
2.200000E+03	5.586090E-17	1.273035E-17
2.240000E+03	5.700076E-17	1.298976E-17
2.280000E+03	5.825949E-17	1.327624E-17
2.320000E+03	5.964385E-17	1.359132E-17
2.360000E+03	6.115095E-17	1.393434E-17
2.400000E+03	6.279828E-17	1.430930E-17
2.440000E+03	6.459417E-17	1.471807E-17
2.480000E+03	6.654748E-17	1.516268E-17
2.520000E+03	6.866769E-17	1.564528E-17
2.560000E+03	7.096490E-17	1.616817E-17
2.600000E+03	7.343792E-17	1.673107E-17
2.640000E+03	7.612155E-17	1.734191E-17
2.680000E+03	7.900352E-17	1.799789E-17
2.720000E+03	8.212142E-17	1.870756E-17
2.760000E+03	8.546260E-17	1.946803E-17
2.800000E+03	8.906762E-17	2.028855E-17
2.840000E+03	9.292311E-17	2.116606E-17
2.880000E+03	9.705749E-17	2.210702E-17
2.920000E+03	1.015019E-16	2.311851E-17
2.960000E+03	1.062409E-16	2.419703E-17
3.000000E+03	1.113058E-16	2.534967E-17
3.010000E+03	1.126177E-16	2.564823E-17
3.020000E+03	1.139675E-16	2.595541E-17
3.030000E+03	1.153385E-16	2.626739E-17
3.040000E+03	1.167126E-16	2.658009E-17
3.050000E+03	1.181258E-16	2.690169E-17
3.060000E+03	1.195606E-16	2.722820E-17
3.070000E+03	1.209988E-16	2.755548E-17
3.080000E+03	1.224774E-16	2.789195E-17
3.090000E+03	1.239782E-16	2.823346E-17
3.100000E+03	1.255016E-16	2.858012E-17
3.110000E+03	1.270475E-16	2.893189E-17
3.120000E+03	1.286165E-16	2.928892E-17
3.130000E+03	1.302281E-16	2.965565E-17
3.140000E+03	1.318436E-16	3.002325E-17
3.150000E+03	1.334826E-16	3.039620E-17
3.160000E+03	1.351454E-16	3.077456E-17
3.170000E+03	1.368525E-16	3.116300E-17
3.180000E+03	1.385634E-16	3.155229E-17
3.190000E+03	1.403197E-16	3.195191E-17
3.200000E+03	1.420796E-16	3.235234E-17
3.210000E+03	1.438855E-16	3.276325E-17
3.220000E+03	1.457167E-16	3.317990E-17
3.230000E+03	1.475515E-16	3.359738E-17
3.240000E+03	1.494335E-16	3.402558E-17
3.250000E+03	1.513413E-16	3.445966E-17
3.260000E+03	1.532750E-16	3.489962E-17
3.270000E+03	1.552348E-16	3.534551E-17
3.280000E+03	1.572208E-16	3.579737E-17
3.290000E+03	1.592332E-16	3.625522E-17
3.300000E+03	1.612721E-16	3.671910E-17
3.310000E+03	1.633376E-16	3.718902E-17
3.320000E+03	1.654540E-16	3.767054E-17
3.330000E+03	1.675733E-16	3.815269E-17
3.340000E+03	1.697197E-16	3.864099E-17
3.350000E+03	1.719179E-16	3.914111E-17
3.360000E+03	1.741186E-16	3.964176E-17
3.370000E+03	1.763465E-16	4.014859E-17
3.380000E+03	1.786274E-16	4.066750E-17
3.390000E+03	1.809363E-16	4.119276E-17
3.400000E+03	1.832466E-16	4.171832E-17
3.410000E+03	1.856110E-16	4.225620E-17
3.420000E+03	1.880035E-16	4.280045E-17
3.430000E+03	1.903965E-16	4.334482E-17
3.440000E+03	1.928446E-16	4.390171E-17
3.450000E+03	1.953207E-16	4.446498E-17
3.460000E+03	1.978248E-16	4.503461E-17
3.470000E+03	2.003569E-16	4.561059E-17
3.480000E+03	2.029169E-16	4.619290E-17
3.490000E+03	2.055046E-16	4.678154E-17
3.500000E+03	2.081201E-16	4.737648E-17
3.510000E+03	2.107633E-16	4.797769E-17
3.520000E+03	2.134341E-16	4.858519E-17
3.530000E+03	2.161628E-16	4.920587E-17
3.540000E+03	2.188886E-16	4.982586E-17
3.550000E+03	2.216415E-16	5.045203E-17
3.560000E+03	2.244214E-16	5.108431E-17
3.570000E+03	2.272601E-16	5.172996E-17
3.580000E+03	2.300937E-16	5.237446E-17
3.590000E+03	2.329863E-16	5.303235E-17
3.600000E+03	2.358728E-16	5.368885E-17
3.610000E+03	2.388184E-16	5.435880E-17
3.620000E+03	2.417566E-16	5.502705E-17
3.630000E+03	2.447541E-16	5.570877E-17
3.640000E+03	2.477429E-16	5.638850E-17
3.650000E+03	2.507910E-16	5.708173E-17
3.660000E+03	2.538642E-16	5.778064E-17
3.670000E+03	2.569264E-16	5.847704E-17
3.680000E+03	2.600479E-16	5.918694E-17
3.690000E+03	2.631932E-16	5.990223E-17
3.700000E+03	2.663617E-16	6.062279E-17
3.710000E+03	2.695531E-16	6.134855E-17
3.720000E+03	2.727296E-16	6.207088E-17
3.730000E+03	2.759649E-16	6.280660E-17
3.740000E+03	2.792213E-16	6.354712E-17
3.750000E+03	2.824985E-16	6.429235E-17
3.760000E+03	2.857957E-16	6.504212E-17
3.770000E+03	2.891126E-16	6.579636E-17
3.780000E+03	2.924482E-16	6.655484E-17
3.790000E+03	2.958019E-16	6.731742E-17
3.800000E+03	2.991732E-16	6.808399E-17
3.810000E+03	3.025611E-16	6.885435E-17
3.820000E+03	3.059650E-16	6.962831E-17
3.830000E+03	3.093841E-16	7.040572E-17
3.840000E+03	3.128176E-16	7.118640E-17
3.850000E+03	3.162646E-16	7.197014E-17
3.860000E+03	3.197243E-16	7.275676E-17
3.870000E+03	3.231957E-16	7.354603E-17
3.880000E+03	3.267214E-16	7.434764E-17
3.890000E+03	3.302140E-16	7.514168E-17
3.900000E+03	3.337154E-16	7.593775E-17
3.910000E+03	3.372247E-16	7.673558E-17
3.920000E+03	3.407408E-16	7.753495E-17
3.930000E+03	3.442626E-16	7.833561E-17
3.940000E+03	3.477892E-16	7.913735E-17
3.950000E+03	3.513655E-16	7.995037E-17
3.960000E+03	3.548983E-16	8.075349E-17
3.970000E+03	3.584322E-16	8.155685E-17
3.980000E+03	3.619660E-16	8.236019E-17
3.990000E+03	3.654986E-16	8.316323E-17
4.000000E+03	3.690287E-16	8.396568E-17
4.010000E+03	3.726034E-16	8.477827E-17
4.020000E+03	3.761246E-16	8.557869E-17
4.030000E+03	3.796394E-16	8.637764E-17
4.040000E+03	3.831463E-16	8.717476E-17
4.050000E+03	3.866437E-16	8.796974E-17
4.060000E+03	3.901304E-16	8.876225E-17
4.070000E+03	3.936049E-16	8.955199E-17
4.080000E+03	3.970657E-16	9.033859E-17
4.090000E+03	4.005111E-16	9.112170E-17
4.100000E+03	4.039400E-16	9.190102E-17
4.110000E+03	4.073505E-16	9.267615E-17
4.120000E+03	4.107412E-16	9.344679E-17
4.130000E+03	4.141105E-16	9.421252E-17
4.140000E+03	4.174567E-16	9.497301E-17
4.150000E+03	4.207785E-16	9.572792E-17
4.160000E+03	4.240739E-16	9.647684E-17
4.170000E+03	4.273416E-16	9.721943E-17
4.180000E+03	4.305796E-16	9.795528E-17
4.190000E+03	4.337866E-16	9.868405E-17
4.200000E+03	4.369606E-16	9.940533E-17
4.210000E+03	4.401003E-16	1.001188E-16
4.220000E+03	4.431482E-16	1.008113E-16
4.230000E+03	4.462136E-16	1.015079E-16
4.240000E+03	4.492396E-16	1.021955E-16
4.250000E+03	4.522244E-16	1.028737E-16
4.260000E+03	4.551096E-16	1.035292E-16
4.270000E+03	4.580070E-16	1.041875E-16
4.280000E+03	4.608010E-16	1.048223E-16
4.290000E+03	4.636043E-16	1.054592E-16
4.300000E+03	4.663006E-16	1.060718E-16
4.310000E+03	4.690036E-16	1.066859E-16
4.320000E+03	4.715960E-16	1.072748E-16
4.330000E+03	4.741924E-16	1.078646E-16
4.340000E+03	4.766747E-16	1.084285E-16
4.350000E+03	4.790996E-16	1.089793E-16
4.360000E+03	4.814657E-16	1.095167E-16
4.370000E+03	4.838311E-16	1.100540E-16
4.380000E+03	4.860759E-16	1.105639E-16
4.390000E+03	4.882579E-16	1.110595E-16
4.400000E+03	4.903759E-16	1.115405E-16
4.410000E+03	4.924287E-16	1.120067E-16
4.420000E+03	4.944153E-16	1.124578E-16
4.430000E+03	4.963345E-16	1.128936E-16
4.440000E+03	4.981853E-16	1.133139E-16
4.450000E+03	4.999062E-16	1.137046E-16
4.460000E+03	5.016175E-16	1.140932E-16
4.470000E+03	5.032581E-16	1.144656E-16
4.480000E+03	5.047660E-16	1.148079E-16
4.490000E+03	5.062627E-16	1.151477E-16
4.500000E+03	5.076868E-16	1.154709E-16
4.510000E+03	5.089765E-16	1.157636E-16
4.520000E+03	5.101927E-16	1.160396E-16
4.530000E+03	5.113966E-16	1.163128E-16
4.540000E+03	5.124652E-16	1.165552E-16
4.550000E+03	5.134598E-16	1.167808E-16
4.560000E+03	5.143805E-16	1.169896E-16
4.570000E+03	5.152272E-16	1.171816E-16
4.580000E+03	5.160002E-16	1.173568E-16
4.590000E+03	5.166998E-16	1.175153E-16
4.600000E+03	5.173259E-16	1.176572E-16
4.610000E+03	5.178795E-16	1.177825E-16
4.620000E+03	5.183604E-16	1.178914E-16
4.630000E+03	5.187081E-16	1.179700E-16
4.640000E+03	5.190457E-16	1.180462E-16
4.650000E+03	5.192514E-16	1.180925E-16
4.660000E+03	5.194483E-16	1.181368E-16
4.670000E+03	5.195147E-16	1.181514E-16
4.680000E+03	5.195124E-16	1.181504E-16
4.690000E+03	5.195037E-16	1.181480E-16
4.700000E+03	5.193670E-16	1.181165E-16
4.710000E+03	5.191645E-16	1.180700E-16
4.720000E+03	5.188972E-16	1.180088E-16
4.730000E+03	5.185659E-16	1.179330E-16
4.740000E+03	5.181718E-16	1.178430E-16
4.750000E+03	5.176555E-16	1.177252E-16
4.760000E+03	5.171392E-16	1.176074E-16
4.770000E+03	5.165632E-16	1.174761E-16
4.780000E+03	5.158690E-16	1.173179E-16
4.790000E+03	5.151776E-16	1.171603E-16
4.800000E+03	5.143706E-16	1.169765E-16
4.810000E+03	5.135091E-16	1.167802E-16
4.820000E+03	5.125946E-16	1.165720E-16
4.830000E+03	5.116281E-16	1.163519E-16
4.840000E+03	5.106110E-16	1.161203E-16
4.850000E+03	5.095446E-16	1.158775E-16
4.860000E+03	5.084303E-16	1.156239E-16
4.870000E+03	5.072692E-16	1.153596E-16
4.880000E+03	5.060628E-16	1.150850E-16
4.890000E+03	5.047543E-16	1.147872E-16
4.900000E+03	5.034613E-16	1.144930E-16
4.910000E+03	5.020692E-16	1.141762E-16
4.920000E+03	5.006950E-16	1.138635E-16
4.930000E+03	4.992247E-16	1.135290E-16
4.940000E+03	4.977175E-16	1.131861E-16
4.950000E+03	4.961745E-16	1.128351E-16
4.960000E+03	4.945971E-16	1.124762E-16
4.970000E+03	4.929867E-16	1.121099E-16
4.980000E+03	4.913444E-16	1.117363E-16
4.990000E+03	4.896157E-16	1.113431E-16
5.000000E+03	4.879136E-16	1.109559E-16
5.010000E+03	4.861836E-16	1.105625E-16
5.020000E+03	4.843716E-16	1.101503E-16
5.030000E+03	4.825343E-16	1.097325E-16
5.040000E+03	4.807276E-16	1.093216E-16
5.050000E+03	4.788432E-16	1.088930E-16
5.060000E+03	4.769372E-16	1.084596E-16
5.070000E+03	4.750105E-16	1.080214E-16
5.080000E+03	4.730644E-16	1.075789E-16
5.090000E+03	4.710999E-16	1.071322E-16
5.100000E+03	4.691181E-16	1.066815E-16
5.110000E+03	4.670671E-16	1.062151E-16
5.120000E+03	4.650538E-16	1.057573E-16
5.130000E+03	4.629740E-16	1.052845E-16
5.140000E+03	4.609333E-16	1.048204E-16
5.150000E+03	4.588284E-16	1.043419E-16
5.160000E+03	4.567125E-16	1.038608E-16
5.170000E+03	4.545866E-16	1.033775E-16
5.180000E+03	4.524513E-16	1.028920E-16
5.190000E+03	4.503077E-16	1.024046E-16
5.200000E+03	4.481564E-16	1.019156E-16
5.210000E+03	4.459982E-16	1.014249E-16
5.220000E+03	4.438340E-16	1.009329E-16
5.230000E+03	4.416150E-16	1.004285E-16
5.240000E+03	4.394410E-16	9.993426E-17
5.250000E+03	4.372142E-16	9.942806E-17
5.260000E+03	4.349847E-16	9.892123E-17
5.270000E+03	4.328014E-16	9.842494E-17
5.280000E+03	4.305681E-16	9.791727E-17
5.290000E+03	4.283337E-16	9.740937E-17
5.300000E+03	4.260991E-16	9.690143E-17
5.310000E+03	4.238646E-16	9.639354E-17
5.320000E+03	4.216309E-16	9.588582E-17
5.330000E+03	4.193518E-16	9.536779E-17
5.340000E+03	4.171212E-16	9.486081E-17
5.350000E+03	4.148468E-16	9.434385E-17
5.360000E+03	4.126213E-16	9.383804E-17
5.370000E+03	4.103533E-16	9.332256E-17
5.380000E+03	4.081346E-16	9.281832E-17
5.390000E+03	4.058746E-16	9.230466E-17
5.400000E+03	4.036193E-16	9.179211E-17
5.410000E+03	4.013691E-16	9.128071E-17
5.420000E+03	3.991242E-16	9.077052E-17
5.430000E+03	3.968850E-16	9.026163E-17
5.440000E+03	3.946516E-16	8.975409E-17
5.450000E+03	3.923812E-16	8.923810E-17
5.460000E+03	3.901609E-16	8.873353E-17
5.470000E+03	3.879044E-16	8.822074E-17
5.480000E+03	3.856979E-16	8.771932E-17
5.490000E+03	3.834563E-16	8.720991E-17
5.500000E+03	3.812646E-16	8.671188E-17
5.510000E+03	3.790387E-16	8.620604E-17
5.520000E+03	3.768209E-16	8.570208E-17
5.530000E+03	3.746116E-16	8.520004E-17
5.540000E+03	3.724107E-16	8.469992E-17
5.550000E+03	3.702186E-16	8.420179E-17
5.560000E+03	3.680352E-16	8.370565E-17
5.570000E+03	3.658203E-16	8.320235E-17
5.580000E+03	3.636550E-16	8.271034E-17
5.590000E+03	3.614988E-16	8.222039E-17
5.600000E+03	3.593123E-16	8.172356E-17
5.610000E+03	3.571748E-16	8.123787E-17
5.620000E+03	3.550075E-16	8.074539E-17
5.630000E+03	3.528502E-16	8.025520E-17
5.640000E+03	3.507413E-16	7.977603E-17
5.650000E+03	3.486035E-16	7.929028E-17
5.660000E+03	3.464758E-16	7.880681E-17
5.670000E+03	3.443581E-16	7.832563E-17
5.680000E+03	3.422505E-16	7.784676E-17
5.690000E+03	3.401530E-16	7.737017E-17
5.700000E+03	3.380283E-16	7.688741E-17
5.710000E+03	3.359512E-16	7.641546E-17
5.720000E+03	3.338843E-16	7.594582E-17
5.730000E+03	3.317910E-16	7.547020E-17
5.740000E+03	3.297446E-16	7.500522E-17
5.750000E+03	3.276722E-16	7.453434E-17
5.760000E+03	3.256461E-16	7.407401E-17
5.770000E+03	3.235948E-16	7.360792E-17
5.780000E+03	3.215539E-16	7.314420E-17
5.790000E+03	3.195235E-16	7.268288E-17
5.800000E+03	3.175037E-16	7.222394E-17
5.810000E+03	3.154944E-16	7.176742E-17
5.820000E+03	3.134956E-16	7.131325E-17
5.830000E+03	3.115072E-16	7.086147E-17
5.840000E+03	3.095293E-16	7.041207E-17
5.850000E+03	3.075616E-16	6.996499E-17
5.860000E+03	3.056044E-16	6.952031E-17
5.870000E+03	3.036244E-16	6.907041E-17
5.880000E+03	3.016882E-16	6.863048E-17
5.890000E+03	2.997621E-16	6.819287E-17
5.900000E+03	2.978139E-16	6.775019E-17
5.910000E+03	2.958763E-16	6.730995E-17
5.920000E+03	2.939815E-16	6.687942E-17
5.930000E+03	2.920650E-16	6.644397E-17
5.940000E+03	2.901591E-16	6.601092E-17
5.950000E+03	2.882954E-16	6.558747E-17
5.960000E+03	2.864104E-16	6.515918E-17
5.970000E+03	2.845360E-16	6.473328E-17
5.980000E+03	2.826721E-16	6.430978E-17
5.990000E+03	2.808188E-16	6.388866E-17
6.000000E+03	2.789759E-16	6.346993E-17
6.010000E+03	2.771436E-16	6.305360E-17
6.020000E+03	2.752916E-16	6.263278E-17
6.030000E+03	2.734804E-16	6.222123E-17
6.040000E+03	2.716796E-16	6.181207E-17
6.050000E+03	2.698893E-16	6.140528E-17
6.060000E+03	2.680802E-16	6.099419E-17
6.070000E+03	2.663110E-16	6.059219E-17
6.080000E+03	2.645233E-16	6.018598E-17
6.090000E+03	2.627752E-16	5.978877E-17
6.100000E+03	2.610089E-16	5.938742E-17
6.110000E+03	2.592536E-16	5.898856E-17
6.120000E+03	2.575373E-16	5.859859E-17
6.130000E+03	2.558035E-16	5.820461E-17
6.140000E+03	2.540805E-16	5.781309E-17
6.150000E+03	2.523684E-16	5.742405E-17
6.160000E+03	2.506673E-16	5.703750E-17
6.170000E+03	2.490043E-16	5.665962E-17
6.180000E+03	2.473248E-16	5.627798E-17
6.190000E+03	2.456564E-16	5.589884E-17
6.200000E+03	2.439988E-16	5.552219E-17
6.210000E+03	2.423257E-16	5.514197E-17
6.220000E+03	2.406904E-16	5.477038E-17
6.230000E+03	2.390661E-16	5.440128E-17
6.240000E+03	2.374531E-16	5.403473E-17
6.250000E+03	2.358510E-16	5.367066E-17
6.260000E+03	2.342345E-16	5.330331E-17
6.270000E+03	2.326550E-16	5.294439E-17
6.280000E+03	2.310867E-16	5.258800E-17
6.290000E+03	2.295046E-16	5.222845E-17
6.300000E+03	2.279590E-16	5.187723E-17
6.310000E+03	2.264000E-16	5.152293E-17
6.320000E+03	2.248773E-16	5.117690E-17
6.330000E+03	2.233414E-16	5.082787E-17
6.340000E+03	2.218174E-16	5.048153E-17
6.350000E+03	2.203294E-16	5.014338E-17
6.360000E+03	2.188290E-16	4.980239E-17
6.370000E+03	2.173403E-16	4.946408E-17
6.380000E+03	2.158874E-16	4.913389E-17
6.390000E+03	2.144225E-16	4.880098E-17
6.400000E+03	2.129696E-16	4.847078E-17
6.410000E+03	2.115286E-16	4.814330E-17
6.420000E+03	2.100998E-16	4.781858E-17
6.430000E+03	2.086831E-16	4.749660E-17
6.440000E+03	2.072785E-16	4.717738E-17
6.450000E+03	2.058860E-16	4.686092E-17
6.460000E+03	2.045058E-16	4.654723E-17
6.470000E+03	2.031378E-16	4.623633E-17
6.480000E+03	2.017820E-16	4.592819E-17
6.490000E+03	2.004384E-16	4.562284E-17
6.500000E+03	1.991072E-16	4.532027E-17
6.510000E+03	1.977883E-16	4.502053E-17
6.520000E+03	1.964600E-16	4.471864E-17
6.530000E+03	1.951660E-16	4.442452E-17
6.540000E+03	1.938843E-16	4.413322E-17
6.550000E+03	1.925937E-16	4.383990E-17
6.560000E+03	1.913369E-16	4.355425E-17
6.570000E+03	1.900925E-16	4.327142E-17
6.580000E+03	1.888397E-16	4.298667E-17
6.590000E+03	1.876203E-16	4.270952E-17
6.600000E+03	1.863927E-16	4.243050E-17
6.610000E+03	1.851983E-16	4.215903E-17
6.620000E+03	1.839960E-16	4.188575E-17
6.630000E+03	1.828265E-16	4.161993E-17
6.640000E+03	1.816493E-16	4.135238E-17
6.650000E+03	1.805047E-16	4.109222E-17
6.660000E+03	1.793527E-16	4.083038E-17
6.670000E+03	1.782132E-16	4.057138E-17
6.680000E+03	1.771060E-16	4.031971E-17
6.690000E+03	1.759913E-16	4.006636E-17
6.700000E+03	1.748893E-16	3.981588E-17
6.710000E+03	1.737997E-16	3.956821E-17
6.720000E+03	1.727418E-16	3.932775E-17
6.730000E+03	1.716768E-16	3.908569E-17
6.740000E+03	1.706242E-16	3.884644E-17
6.750000E+03	1.695838E-16	3.860995E-17
6.760000E+03	1.685557E-16	3.837625E-17
6.770000E+03	1.675395E-16	3.814529E-17
6.780000E+03	1.665355E-16	3.791706E-17
6.790000E+03	1.655434E-16	3.769158E-17
6.800000E+03	1.645633E-16	3.746880E-17
6.810000E+03	1.635951E-16	3.724871E-17
6.820000E+03	1.626385E-16	3.703128E-17
6.830000E+03	1.616935E-16	3.681648E-17
6.840000E+03	1.607602E-16	3.660434E-17
6.850000E+03	1.598383E-16	3.639478E-17
6.860000E+03	1.589276E-16	3.618778E-17
6.870000E+03	1.580107E-16	3.597936E-17
6.880000E+03	1.571225E-16	3.577747E-17
6.890000E+03	1.562453E-16	3.557808E-17
6.900000E+03	1.553790E-16	3.538118E-17
6.910000E+03	1.545063E-16	3.518280E-17
6.920000E+03	1.536615E-16	3.499077E-17
6.930000E+03	1.528271E-16	3.480112E-17
6.940000E+03	1.519861E-16	3.460994E-17
6.950000E+03	1.511724E-16	3.442499E-17
6.960000E+03	1.503687E-16	3.424231E-17
6.970000E+03	1.495582E-16	3.405808E-17
6.980000E+03	1.487743E-16	3.387990E-17
6.990000E+03	1.479835E-16	3.370013E-17
7.000000E+03	1.472186E-16	3.352628E-17
7.010000E+03	1.464466E-16	3.335080E-17
7.020000E+03	1.456840E-16	3.317744E-17
7.030000E+03	1.449466E-16	3.300984E-17
7.040000E+03	1.442018E-16	3.284053E-17
7.050000E+03	1.434818E-16	3.267688E-17
7.060000E+03	1.427542E-16	3.251150E-17
7.070000E+03	1.420350E-16	3.234800E-17
7.080000E+03	1.413240E-16	3.218638E-17
7.090000E+03	1.406367E-16	3.203016E-17
7.100000E+03	1.399413E-16	3.187209E-17
7.110000E+03	1.392536E-16	3.171576E-17
7.120000E+03	1.385733E-16	3.156112E-17
7.130000E+03	1.379001E-16	3.140810E-17
7.140000E+03	1.372340E-16	3.125668E-17
7.150000E+03	1.365748E-16	3.110683E-17
7.160000E+03	1.359221E-16	3.095846E-17
7.170000E+03	1.352758E-16	3.081156E-17
7.180000E+03	1.346358E-16	3.066608E-17
7.190000E+03	1.340019E-16	3.052196E-17
7.200000E+03	1.333737E-16	3.037916E-17
7.210000E+03	1.327512E-16	3.023765E-17
7.220000E+03	1.321340E-16	3.009736E-17
7.230000E+03	1.315222E-16	2.995828E-17
7.240000E+03	1.309154E-16	2.982033E-17
7.250000E+03	1.302986E-16	2.968010E-17
7.260000E+03	1.297012E-16	2.954430E-17
7.270000E+03	1.291083E-16	2.940952E-17
7.280000E+03	1.285197E-16	2.927570E-17
7.290000E+03	1.279206E-16	2.913950E-17
7.300000E+03	1.273399E-16	2.900749E-17
7.310000E+03	1.267629E-16	2.887632E-17
7.320000E+03	1.261751E-16	2.874268E-17
7.330000E+03	1.256050E-16	2.861306E-17
7.340000E+03	1.250237E-16	2.848091E-17
7.350000E+03	1.244597E-16	2.835268E-17
7.360000E+03	1.238844E-16	2.822187E-17
7.370000E+03	1.233117E-16	2.809165E-17
7.380000E+03	1.227556E-16	2.796523E-17
7.390000E+03	1.221878E-16	2.783611E-17
7.400000E+03	1.216224E-16	2.770754E-17
7.410000E+03	1.210727E-16	2.758256E-17
7.420000E+03	1.205110E-16	2.745484E-17
7.430000E+03	1.199511E-16	2.732753E-17
7.440000E+03	1.193928E-16	2.720057E-17
7.450000E+03	1.188498E-16	2.707708E-17
7.460000E+03	1.182942E-16	2.695075E-17
7.470000E+03	1.177399E-16	2.682469E-17
7.480000E+03	1.171866E-16	2.669887E-17
7.490000E+03	1.166344E-16	2.657328E-17
7.500000E+03	1.160831E-16	2.644789E-17
7.510000E+03	1.155323E-16	2.632263E-17
7.520000E+03	1.149823E-16	2.619755E-17
7.530000E+03	1.144195E-16	2.606954E-17
7.540000E+03	1.138706E-16	2.594469E-17
7.550000E+03	1.133218E-16	2.581987E-17
7.560000E+03	1.127734E-16	2.569513E-17
7.570000E+03	1.122252E-16	2.557043E-17
7.580000E+03	1.116641E-16	2.544281E-17
7.590000E+03	1.111161E-16	2.531816E-17
7.600000E+03	1.105681E-16	2.519349E-17
7.610000E+03	1.100073E-16	2.506592E-17
7.620000E+03	1.094592E-16	2.494123E-17
7.630000E+03	1.088983E-16	2.481363E-17
7.640000E+03	1.083499E-16	2.468887E-17
7.650000E+03	1.077888E-16	2.456121E-17
7.660000E+03	1.072276E-16	2.443353E-17
7.670000E+03	1.066786E-16	2.430863E-17
7.680000E+03	1.061170E-16	2.418086E-17
7.690000E+03	1.055553E-16	2.405306E-17
7.700000E+03	1.050057E-16	2.392801E-17
7.710000E+03	1.044437E-16	2.380012E-17
7.720000E+03	1.038816E-16	2.367221E-17
7.730000E+03	1.033193E-16	2.354428E-17
7.740000E+03	1.027570E-16	2.341632E-17
7.750000E+03	1.021947E-16	2.328836E-17
7.760000E+03	1.016324E-16	2.316039E-17
