#wls	flux	fluxerr
1.587302E+03	1.014677E-04	4.293421E-06
1.626984E+03	1.015892E-04	4.286381E-06
1.666667E+03	1.018269E-04	4.283886E-06
1.706349E+03	1.022016E-04	4.286765E-06
1.746032E+03	1.027088E-04	4.294764E-06
1.785714E+03	1.033474E-04	4.307776E-06
1.825397E+03	1.041230E-04	4.325964E-06
1.865079E+03	1.050154E-04	4.348423E-06
1.904762E+03	1.060241E-04	4.375074E-06
1.944444E+03	1.071323E-04	4.405152E-06
1.984127E+03	1.083736E-04	4.439971E-06
2.023810E+03	1.097960E-04	4.481413E-06
2.063492E+03	1.115400E-04	4.535087E-06
2.103175E+03	1.138155E-04	4.609307E-06
2.142857E+03	1.168667E-04	4.713643E-06
2.182540E+03	1.208311E-04	4.853182E-06
2.222222E+03	1.257844E-04	5.030444E-06
2.261905E+03	1.316982E-04	5.243708E-06
2.301587E+03	1.385274E-04	5.490611E-06
2.341270E+03	1.462470E-04	5.769568E-06
2.380952E+03	1.548768E-04	6.080757E-06
2.420635E+03	1.644900E-04	6.426408E-06
2.460317E+03	1.752030E-04	6.810331E-06
2.500000E+03	1.871785E-04	7.238026E-06
2.539683E+03	2.006053E-04	7.715813E-06
2.579365E+03	2.156779E-04	8.250038E-06
2.619048E+03	2.326510E-04	8.849132E-06
2.658730E+03	2.517825E-04	9.521367E-06
2.698413E+03	2.733798E-04	1.027660E-05
2.738095E+03	2.977849E-04	1.112561E-05
2.777778E+03	3.253804E-04	1.208031E-05
2.817460E+03	3.566196E-04	1.315475E-05
2.857143E+03	3.919995E-04	1.436408E-05
2.896825E+03	4.321994E-04	1.572942E-05
2.936508E+03	4.780995E-04	1.727838E-05
2.976190E+03	5.308370E-04	1.904670E-05
2.986111E+03	5.452344E-04	1.952753E-05
2.996032E+03	5.601617E-04	2.002523E-05
3.005952E+03	5.756524E-04	2.054088E-05
3.015873E+03	5.917268E-04	2.107509E-05
3.025794E+03	6.084102E-04	2.162862E-05
3.035714E+03	6.257600E-04	2.220336E-05
3.045635E+03	6.437671E-04	2.279884E-05
3.055556E+03	6.624852E-04	2.341681E-05
3.065476E+03	6.819387E-04	2.405798E-05
3.075397E+03	7.021696E-04	2.472363E-05
3.085317E+03	7.232051E-04	2.541457E-05
3.095238E+03	7.450909E-04	2.613220E-05
3.105159E+03	7.678577E-04	2.687739E-05
3.115079E+03	7.915378E-04	2.765107E-05
3.125000E+03	8.161829E-04	2.845484E-05
3.134921E+03	8.418475E-04	2.929035E-05
3.144841E+03	8.685709E-04	3.015874E-05
3.154762E+03	8.963948E-04	3.106119E-05
3.164683E+03	9.253818E-04	3.199962E-05
3.174603E+03	9.555984E-04	3.297604E-05
3.184524E+03	9.870960E-04	3.399192E-05
3.194444E+03	1.019929E-03	3.504884E-05
3.204365E+03	1.054156E-03	3.614847E-05
3.214286E+03	1.089879E-03	3.729396E-05
3.224206E+03	1.127167E-03	3.848735E-05
3.234127E+03	1.166093E-03	3.973068E-05
3.244048E+03	1.206738E-03	4.102632E-05
3.253968E+03	1.249205E-03	4.237740E-05
3.263889E+03	1.293567E-03	4.378589E-05
3.273810E+03	1.339990E-03	4.525696E-05
3.283730E+03	1.388539E-03	4.679228E-05
3.293651E+03	1.439333E-03	4.839530E-05
3.303571E+03	1.492544E-03	5.007128E-05
3.313492E+03	1.548292E-03	5.182362E-05
3.323413E+03	1.606727E-03	5.365667E-05
3.333333E+03	1.668014E-03	5.557529E-05
3.343254E+03	1.732332E-03	5.758469E-05
3.353175E+03	1.799873E-03	5.969050E-05
3.363095E+03	1.870819E-03	6.189792E-05
3.373016E+03	1.945448E-03	6.421527E-05
3.382937E+03	2.023918E-03	6.664682E-05
3.392857E+03	2.106481E-03	6.919988E-05
3.402778E+03	2.193437E-03	7.188321E-05
3.412698E+03	2.285009E-03	7.470300E-05
3.422619E+03	2.381427E-03	7.766555E-05
3.432540E+03	2.483017E-03	8.078025E-05
3.442460E+03	2.590021E-03	8.405360E-05
3.452381E+03	2.702673E-03	8.749176E-05
3.462302E+03	2.821232E-03	9.110168E-05
3.472222E+03	2.945914E-03	9.488871E-05
3.482143E+03	3.076847E-03	9.885543E-05
3.492063E+03	3.214243E-03	1.030069E-04
3.501984E+03	3.358183E-03	1.073441E-04
3.511905E+03	3.508753E-03	1.118679E-04
3.521825E+03	3.665890E-03	1.165747E-04
3.531746E+03	3.829609E-03	1.214631E-04
3.541667E+03	3.999804E-03	1.265280E-04
3.551587E+03	4.176281E-03	1.317614E-04
3.561508E+03	4.358920E-03	1.371579E-04
3.571429E+03	4.547473E-03	1.427081E-04
3.581349E+03	4.741632E-03	1.484005E-04
3.591270E+03	4.941180E-03	1.542269E-04
3.601190E+03	5.145852E-03	1.601774E-04
3.611111E+03	5.355441E-03	1.662442E-04
3.621032E+03	5.569552E-03	1.724136E-04
3.630952E+03	5.787891E-03	1.786752E-04
3.640873E+03	6.010082E-03	1.850161E-04
3.650794E+03	6.235869E-03	1.914273E-04
3.660714E+03	6.464685E-03	1.978903E-04
3.670635E+03	6.696268E-03	2.043962E-04
3.680556E+03	6.930031E-03	2.109262E-04
3.690476E+03	7.165529E-03	2.174661E-04
3.700397E+03	7.402291E-03	2.240009E-04
3.710317E+03	7.639754E-03	2.305132E-04
3.720238E+03	7.877324E-03	2.369847E-04
3.730159E+03	8.114518E-03	2.434007E-04
3.740079E+03	8.350631E-03	2.497402E-04
3.750000E+03	8.585210E-03	2.559896E-04
3.759921E+03	8.817439E-03	2.621250E-04
3.769841E+03	9.046846E-03	2.681329E-04
3.779762E+03	9.272657E-03	2.739911E-04
3.789683E+03	9.494319E-03	2.796840E-04
3.799603E+03	9.711205E-03	2.851942E-04
3.809524E+03	9.922533E-03	2.905000E-04
3.819444E+03	1.012785E-02	2.955895E-04
3.829365E+03	1.032646E-02	3.004443E-04
3.839286E+03	1.051771E-02	3.050469E-04
3.849206E+03	1.070113E-02	3.093853E-04
3.859127E+03	1.087600E-02	3.134416E-04
3.869048E+03	1.104200E-02	3.172082E-04
3.878968E+03	1.119850E-02	3.206698E-04
3.888889E+03	1.134517E-02	3.238196E-04
3.898810E+03	1.148155E-02	3.266469E-04
3.908730E+03	1.160724E-02	3.291432E-04
3.918651E+03	1.172206E-02	3.313067E-04
3.928571E+03	1.182563E-02	3.331294E-04
3.938492E+03	1.191791E-02	3.346136E-04
3.948413E+03	1.199875E-02	3.357577E-04
3.958333E+03	1.206804E-02	3.365625E-04
3.968254E+03	1.212585E-02	3.370330E-04
3.978175E+03	1.217234E-02	3.371768E-04
3.988095E+03	1.220754E-02	3.369981E-04
3.998016E+03	1.223173E-02	3.365076E-04
4.007937E+03	1.224528E-02	3.357191E-04
4.017857E+03	1.224854E-02	3.346446E-04
4.027778E+03	1.224179E-02	3.332953E-04
4.037698E+03	1.222571E-02	3.316920E-04
4.047619E+03	1.220075E-02	3.298504E-04
4.057540E+03	1.216749E-02	3.277879E-04
4.067460E+03	1.212651E-02	3.255230E-04
4.077381E+03	1.207844E-02	3.230747E-04
4.087302E+03	1.202393E-02	3.204627E-04
4.097222E+03	1.196384E-02	3.177115E-04
4.107143E+03	1.189878E-02	3.148390E-04
4.117063E+03	1.182945E-02	3.118655E-04
4.126984E+03	1.175663E-02	3.088122E-04
4.136905E+03	1.168126E-02	3.057052E-04
4.146825E+03	1.160401E-02	3.025631E-04
4.156746E+03	1.152574E-02	2.994081E-04
4.166667E+03	1.144719E-02	2.962604E-04
4.176587E+03	1.136919E-02	2.931413E-04
4.186508E+03	1.129243E-02	2.900686E-04
4.196429E+03	1.121779E-02	2.870644E-04
4.206349E+03	1.114591E-02	2.841446E-04
4.216270E+03	1.107759E-02	2.813288E-04
4.226190E+03	1.101343E-02	2.786310E-04
4.236111E+03	1.095411E-02	2.760678E-04
4.246032E+03	1.090031E-02	2.736543E-04
4.255952E+03	1.085252E-02	2.714015E-04
4.265873E+03	1.081130E-02	2.693218E-04
4.275794E+03	1.077722E-02	2.674276E-04
4.285714E+03	1.075068E-02	2.657263E-04
4.295635E+03	1.073207E-02	2.642261E-04
4.305556E+03	1.072181E-02	2.629344E-04
4.315476E+03	1.071998E-02	2.618513E-04
4.325397E+03	1.072692E-02	2.609825E-04
4.335317E+03	1.074264E-02	2.603258E-04
4.345238E+03	1.076720E-02	2.598803E-04
4.355159E+03	1.080061E-02	2.596439E-04
4.365079E+03	1.084270E-02	2.596099E-04
4.375000E+03	1.089314E-02	2.597680E-04
4.384921E+03	1.095173E-02	2.601113E-04
4.394841E+03	1.101794E-02	2.606250E-04
4.404762E+03	1.109135E-02	2.612970E-04
4.414683E+03	1.117160E-02	2.621172E-04
4.424603E+03	1.125819E-02	2.630720E-04
4.434524E+03	1.135056E-02	2.641466E-04
4.444444E+03	1.144819E-02	2.653277E-04
4.454365E+03	1.155039E-02	2.665979E-04
4.464286E+03	1.165640E-02	2.679385E-04
4.474206E+03	1.176566E-02	2.693358E-04
4.484127E+03	1.187716E-02	2.707663E-04
4.494048E+03	1.198987E-02	2.722062E-04
4.503968E+03	1.210274E-02	2.736315E-04
4.513889E+03	1.221469E-02	2.750183E-04
4.523810E+03	1.232471E-02	2.763439E-04
4.533730E+03	1.243167E-02	2.775845E-04
4.543651E+03	1.253448E-02	2.787165E-04
4.553571E+03	1.263201E-02	2.797165E-04
4.563492E+03	1.272334E-02	2.805661E-04
4.573413E+03	1.280752E-02	2.812462E-04
4.583333E+03	1.288354E-02	2.817368E-04
4.593254E+03	1.295076E-02	2.820267E-04
4.603175E+03	1.300855E-02	2.821047E-04
4.613095E+03	1.305642E-02	2.819632E-04
4.623016E+03	1.309381E-02	2.815932E-04
4.632937E+03	1.312063E-02	2.809955E-04
4.642857E+03	1.313660E-02	2.801675E-04
4.652778E+03	1.314193E-02	2.791163E-04
4.662698E+03	1.313694E-02	2.778522E-04
4.672619E+03	1.312193E-02	2.763842E-04
4.682540E+03	1.309763E-02	2.747303E-04
4.692460E+03	1.306482E-02	2.729096E-04
4.702381E+03	1.302441E-02	2.709434E-04
4.712302E+03	1.297738E-02	2.688538E-04
4.722222E+03	1.292480E-02	2.666648E-04
4.732143E+03	1.286753E-02	2.643959E-04
4.742063E+03	1.280670E-02	2.620710E-04
4.751984E+03	1.274333E-02	2.597122E-04
4.761905E+03	1.267828E-02	2.573377E-04
4.771825E+03	1.261237E-02	2.549643E-04
4.781746E+03	1.254643E-02	2.526092E-04
4.791667E+03	1.248100E-02	2.502831E-04
4.801587E+03	1.241678E-02	2.480001E-04
4.811508E+03	1.235422E-02	2.457687E-04
4.821429E+03	1.229371E-02	2.435965E-04
4.831349E+03	1.223595E-02	2.414969E-04
4.841270E+03	1.218142E-02	2.394786E-04
4.851190E+03	1.213051E-02	2.375482E-04
4.861111E+03	1.208357E-02	2.357116E-04
4.871032E+03	1.204079E-02	2.339714E-04
4.880952E+03	1.200261E-02	2.323346E-04
4.890873E+03	1.196898E-02	2.307988E-04
4.900794E+03	1.194004E-02	2.293658E-04
4.910714E+03	1.191576E-02	2.280335E-04
4.920635E+03	1.189592E-02	2.267964E-04
4.930556E+03	1.188029E-02	2.256490E-04
4.940476E+03	1.186846E-02	2.245822E-04
4.950397E+03	1.185999E-02	2.235870E-04
4.960317E+03	1.185423E-02	2.226499E-04
4.970238E+03	1.185108E-02	2.217684E-04
4.980159E+03	1.184988E-02	2.209294E-04
4.990079E+03	1.185084E-02	2.201362E-04
5.000000E+03	1.185402E-02	2.193893E-04
5.009921E+03	1.185931E-02	2.186860E-04
5.019841E+03	1.186705E-02	2.180317E-04
5.029762E+03	1.187757E-02	2.174319E-04
5.039683E+03	1.189091E-02	2.168865E-04
5.049603E+03	1.190746E-02	2.164021E-04
5.059524E+03	1.192755E-02	2.159834E-04
5.069444E+03	1.195146E-02	2.156350E-04
5.079365E+03	1.197954E-02	2.153619E-04
5.089286E+03	1.201218E-02	2.151704E-04
5.099206E+03	1.204988E-02	2.150681E-04
5.109127E+03	1.209281E-02	2.150571E-04
5.119048E+03	1.214122E-02	2.151406E-04
5.128968E+03	1.219528E-02	2.153201E-04
5.138889E+03	1.225514E-02	2.155973E-04
5.148810E+03	1.232076E-02	2.159702E-04
5.158730E+03	1.239230E-02	2.164403E-04
5.168651E+03	1.246970E-02	2.170052E-04
5.178571E+03	1.255272E-02	2.176596E-04
5.188492E+03	1.264116E-02	2.183989E-04
5.198413E+03	1.273482E-02	2.192181E-04
5.208333E+03	1.283318E-02	2.201076E-04
5.218254E+03	1.293562E-02	2.210556E-04
5.228175E+03	1.304157E-02	2.220515E-04
5.238095E+03	1.315029E-02	2.230818E-04
5.248016E+03	1.326093E-02	2.241318E-04
5.257937E+03	1.337242E-02	2.251825E-04
5.267857E+03	1.348371E-02	2.262163E-04
5.277778E+03	1.359377E-02	2.272159E-04
5.287698E+03	1.370161E-02	2.281648E-04
5.297619E+03	1.380623E-02	2.290466E-04
5.307540E+03	1.390649E-02	2.298430E-04
5.317460E+03	1.400165E-02	2.305425E-04
5.327381E+03	1.409065E-02	2.311283E-04
5.337302E+03	1.417260E-02	2.315873E-04
5.347222E+03	1.424656E-02	2.319050E-04
5.357143E+03	1.431183E-02	2.320716E-04
5.367063E+03	1.436737E-02	2.320719E-04
5.376984E+03	1.441233E-02	2.318936E-04
5.386905E+03	1.444571E-02	2.315228E-04
5.396825E+03	1.446661E-02	2.309473E-04
5.406746E+03	1.447419E-02	2.301557E-04
5.416667E+03	1.446784E-02	2.291410E-04
5.426587E+03	1.444646E-02	2.278883E-04
5.436508E+03	1.440976E-02	2.263959E-04
5.446429E+03	1.435737E-02	2.246608E-04
5.456349E+03	1.428938E-02	2.226873E-04
5.466270E+03	1.420629E-02	2.204863E-04
5.476190E+03	1.410866E-02	2.180692E-04
5.486111E+03	1.399769E-02	2.154571E-04
5.496032E+03	1.387448E-02	2.126696E-04
5.505952E+03	1.374030E-02	2.097285E-04
5.515873E+03	1.359681E-02	2.066611E-04
5.525794E+03	1.344603E-02	2.034998E-04
5.535714E+03	1.328988E-02	2.002753E-04
5.545635E+03	1.313052E-02	1.970207E-04
5.555556E+03	1.297035E-02	1.937728E-04
5.565476E+03	1.281181E-02	1.905682E-04
5.575397E+03	1.265741E-02	1.874436E-04
5.585317E+03	1.250988E-02	1.844387E-04
5.595238E+03	1.237179E-02	1.815901E-04
5.605159E+03	1.224593E-02	1.789366E-04
5.615079E+03	1.213485E-02	1.765132E-04
5.625000E+03	1.204131E-02	1.743568E-04
5.634921E+03	1.196760E-02	1.724971E-04
5.644841E+03	1.191600E-02	1.709631E-04
5.654762E+03	1.188874E-02	1.697823E-04
5.664683E+03	1.188758E-02	1.689750E-04
5.674603E+03	1.191414E-02	1.685589E-04
5.684524E+03	1.196957E-02	1.685448E-04
5.694444E+03	1.205483E-02	1.689406E-04
5.704365E+03	1.217025E-02	1.697450E-04
5.714286E+03	1.231613E-02	1.709562E-04
5.724206E+03	1.249161E-02	1.725563E-04
5.734127E+03	1.269551E-02	1.745232E-04
5.744048E+03	1.292523E-02	1.768162E-04
5.753968E+03	1.317857E-02	1.794000E-04
5.763889E+03	1.345198E-02	1.822221E-04
5.773810E+03	1.374132E-02	1.852228E-04
5.783730E+03	1.404247E-02	1.883441E-04
5.793651E+03	1.435046E-02	1.915176E-04
5.803571E+03	1.466023E-02	1.946748E-04
5.813492E+03	1.496601E-02	1.977399E-04
5.823413E+03	1.526322E-02	2.006537E-04
5.833333E+03	1.554649E-02	2.033480E-04
5.843254E+03	1.581129E-02	2.057672E-04
5.853175E+03	1.605317E-02	2.078580E-04
5.863095E+03	1.626887E-02	2.095832E-04
5.873016E+03	1.645521E-02	2.109080E-04
5.882937E+03	1.660992E-02	2.118095E-04
5.892857E+03	1.673118E-02	2.122714E-04
5.902778E+03	1.681836E-02	2.122931E-04
5.912698E+03	1.687132E-02	2.118797E-04
5.922619E+03	1.689038E-02	2.110424E-04
5.932540E+03	1.687709E-02	2.098074E-04
5.942460E+03	1.683328E-02	2.082041E-04
5.952381E+03	1.676172E-02	2.062727E-04
5.962302E+03	1.666554E-02	2.040572E-04
5.972222E+03	1.654808E-02	2.016033E-04
5.982143E+03	1.641326E-02	1.989626E-04
5.992063E+03	1.626496E-02	1.961855E-04
6.001984E+03	1.610710E-02	1.933219E-04
6.011905E+03	1.594303E-02	1.904136E-04
6.021825E+03	1.577609E-02	1.875016E-04
6.031746E+03	1.560925E-02	1.846219E-04
6.041667E+03	1.544449E-02	1.817977E-04
6.051587E+03	1.528383E-02	1.790529E-04
6.061508E+03	1.512790E-02	1.763940E-04
6.071429E+03	1.497766E-02	1.738316E-04
6.081349E+03	1.483302E-02	1.713639E-04
6.091270E+03	1.469379E-02	1.689881E-04
6.101190E+03	1.455996E-02	1.667033E-04
6.111111E+03	1.443082E-02	1.645007E-04
6.121032E+03	1.430553E-02	1.623704E-04
6.130952E+03	1.418382E-02	1.603086E-04
6.140873E+03	1.406497E-02	1.583071E-04
6.150794E+03	1.394826E-02	1.563575E-04
6.160714E+03	1.383363E-02	1.544583E-04
6.170635E+03	1.372077E-02	1.526055E-04
6.180556E+03	1.361018E-02	1.508038E-04
6.190476E+03	1.350215E-02	1.490553E-04
6.200397E+03	1.339682E-02	1.473610E-04
6.210317E+03	1.329483E-02	1.457269E-04
6.220238E+03	1.319655E-02	1.441562E-04
6.230159E+03	1.310262E-02	1.426549E-04
6.240079E+03	1.301352E-02	1.412272E-04
6.250000E+03	1.292958E-02	1.398760E-04
6.259921E+03	1.285060E-02	1.385979E-04
6.269841E+03	1.277704E-02	1.373970E-04
6.279762E+03	1.270830E-02	1.362660E-04
6.289683E+03	1.264442E-02	1.352046E-04
6.299603E+03	1.258487E-02	1.342063E-04
6.309524E+03	1.252923E-02	1.332659E-04
6.319444E+03	1.247740E-02	1.323818E-04
6.329365E+03	1.242945E-02	1.315541E-04
6.339286E+03	1.238523E-02	1.307807E-04
6.349206E+03	1.234510E-02	1.300649E-04
6.359127E+03	1.230961E-02	1.294120E-04
6.369048E+03	1.227932E-02	1.288273E-04
6.378968E+03	1.225493E-02	1.283176E-04
6.388889E+03	1.223779E-02	1.278965E-04
6.398810E+03	1.222883E-02	1.275733E-04
6.408730E+03	1.222939E-02	1.273612E-04
6.418651E+03	1.224081E-02	1.272737E-04
6.428571E+03	1.226422E-02	1.273220E-04
6.438492E+03	1.230093E-02	1.275190E-04
6.448413E+03	1.235209E-02	1.278762E-04
6.458333E+03	1.241840E-02	1.284003E-04
6.468254E+03	1.250096E-02	1.291023E-04
6.478175E+03	1.260024E-02	1.299867E-04
6.488095E+03	1.271652E-02	1.310560E-04
6.498016E+03	1.284919E-02	1.323038E-04
6.507937E+03	1.299711E-02	1.337183E-04
6.517857E+03	1.315842E-02	1.352804E-04
6.527778E+03	1.333074E-02	1.369660E-04
6.537698E+03	1.351147E-02	1.387486E-04
6.547619E+03	1.369793E-02	1.406011E-04
6.557540E+03	1.388678E-02	1.424897E-04
6.567460E+03	1.407478E-02	1.443820E-04
6.577381E+03	1.425852E-02	1.462434E-04
6.587302E+03	1.443451E-02	1.480387E-04
6.597222E+03	1.459928E-02	1.497331E-04
6.607143E+03	1.474911E-02	1.512891E-04
6.617063E+03	1.488111E-02	1.526772E-04
6.626984E+03	1.499299E-02	1.538743E-04
6.636905E+03	1.508300E-02	1.548618E-04
6.646825E+03	1.514937E-02	1.556208E-04
6.656746E+03	1.519155E-02	1.561449E-04
6.666667E+03	1.520829E-02	1.564204E-04
6.676587E+03	1.519923E-02	1.564425E-04
6.686508E+03	1.516507E-02	1.562170E-04
6.696429E+03	1.510581E-02	1.557429E-04
6.706349E+03	1.502277E-02	1.550323E-04
6.716270E+03	1.491751E-02	1.540999E-04
6.726190E+03	1.479285E-02	1.529733E-04
6.736111E+03	1.465079E-02	1.516723E-04
6.746032E+03	1.449457E-02	1.502286E-04
6.755952E+03	1.432729E-02	1.486734E-04
6.765873E+03	1.415211E-02	1.470384E-04
6.775794E+03	1.397219E-02	1.453555E-04
6.785714E+03	1.379067E-02	1.436566E-04
6.795635E+03	1.361028E-02	1.419693E-04
6.805556E+03	1.343408E-02	1.403252E-04
6.815476E+03	1.326402E-02	1.387442E-04
6.825397E+03	1.310295E-02	1.372562E-04
6.835317E+03	1.295244E-02	1.358773E-04
6.845238E+03	1.281382E-02	1.346217E-04
6.855159E+03	1.268888E-02	1.335084E-04
6.865079E+03	1.257800E-02	1.325416E-04
6.875000E+03	1.248150E-02	1.317250E-04
6.884921E+03	1.239939E-02	1.310592E-04
6.894841E+03	1.233109E-02	1.305385E-04
6.904762E+03	1.227507E-02	1.301471E-04
6.914683E+03	1.223058E-02	1.298775E-04
6.924603E+03	1.219583E-02	1.297108E-04
6.934524E+03	1.216914E-02	1.296298E-04
6.944444E+03	1.214884E-02	1.296164E-04
6.954365E+03	1.213341E-02	1.296550E-04
6.964286E+03	1.212091E-02	1.297248E-04
6.974206E+03	1.210971E-02	1.298084E-04
6.984127E+03	1.209869E-02	1.298937E-04
6.994048E+03	1.208640E-02	1.299649E-04
7.003968E+03	1.207196E-02	1.300126E-04
7.013889E+03	1.205435E-02	1.300255E-04
7.023810E+03	1.203291E-02	1.299964E-04
7.033730E+03	1.200735E-02	1.299219E-04
7.043651E+03	1.197739E-02	1.297986E-04
7.053571E+03	1.194260E-02	1.296219E-04
7.063492E+03	1.190338E-02	1.293957E-04
7.073413E+03	1.185896E-02	1.291115E-04
7.083333E+03	1.181009E-02	1.287772E-04
7.093254E+03	1.175633E-02	1.283879E-04
7.103175E+03	1.169796E-02	1.279463E-04
7.113095E+03	1.163524E-02	1.274554E-04
7.123016E+03	1.156776E-02	1.269103E-04
7.132937E+03	1.149577E-02	1.263137E-04
7.142857E+03	1.141953E-02	1.256685E-04
7.152778E+03	1.133858E-02	1.249692E-04
7.162698E+03	1.125333E-02	1.242204E-04
7.172619E+03	1.116370E-02	1.234210E-04
7.182540E+03	1.106933E-02	1.225671E-04
7.192460E+03	1.097010E-02	1.216571E-04
7.202381E+03	1.086585E-02	1.206891E-04
7.212302E+03	1.075690E-02	1.196667E-04
7.222222E+03	1.064249E-02	1.185811E-04
7.232143E+03	1.052324E-02	1.174393E-04
7.242063E+03	1.039856E-02	1.162343E-04
7.251984E+03	1.026953E-02	1.149782E-04
7.261905E+03	1.013597E-02	1.136689E-04
7.271825E+03	9.998969E-03	1.123183E-04
7.281746E+03	9.859148E-03	1.109334E-04
7.291667E+03	9.717443E-03	1.095248E-04
7.301587E+03	9.574818E-03	1.081032E-04
7.311508E+03	9.431947E-03	1.066763E-04
7.321429E+03	9.290377E-03	1.052617E-04
7.331349E+03	9.150546E-03	1.038645E-04
7.341270E+03	9.013901E-03	1.025013E-04
7.351190E+03	8.881008E-03	1.011788E-04
7.361111E+03	8.752590E-03	9.990559E-05
7.371032E+03	8.629471E-03	9.869133E-05
7.380952E+03	8.512816E-03	9.754979E-05
7.390873E+03	8.403109E-03	9.648698E-05
7.400794E+03	8.301496E-03	9.551664E-05
7.410714E+03	8.208059E-03	9.464028E-05
7.420635E+03	8.123541E-03	9.386713E-05
7.430556E+03	8.048218E-03	9.320110E-05
7.440476E+03	7.982054E-03	9.264250E-05
7.450397E+03	7.924884E-03	9.218994E-05
7.460317E+03	7.876279E-03	9.183880E-05
7.470238E+03	7.835880E-03	9.158523E-05
7.480159E+03	7.802798E-03	9.141919E-05
7.490079E+03	7.776195E-03	9.133115E-05
7.500000E+03	7.754903E-03	9.130764E-05
7.509921E+03	7.737389E-03	9.133075E-05
7.519841E+03	7.721875E-03	9.137948E-05
7.529762E+03	7.706640E-03	9.143335E-05
7.539683E+03	7.689774E-03	9.146940E-05
7.549603E+03	7.668990E-03	9.145994E-05
7.559524E+03	7.642896E-03	9.138771E-05
7.569444E+03	7.609743E-03	9.123098E-05
7.579365E+03	7.568323E-03	9.097430E-05
7.589286E+03	7.517949E-03	9.060836E-05
7.599206E+03	7.459307E-03	9.014034E-05
7.609127E+03	7.392778E-03	8.957381E-05
7.619048E+03	7.318962E-03	8.891507E-05
7.628968E+03	7.239142E-03	8.817882E-05
7.638889E+03	7.153752E-03	8.736957E-05
7.648810E+03	7.063801E-03	8.649893E-05
7.658730E+03	6.970100E-03	8.557622E-05
7.668651E+03	6.873394E-03	8.461007E-05
7.678571E+03	6.774395E-03	8.360885E-05
7.688492E+03	6.673958E-03	8.258273E-05
7.698413E+03	6.572328E-03	8.153452E-05
