#wls	flux	fluxerr
1.587302E+03	6.220595E-05	3.193388E-06
1.626984E+03	6.224814E-05	3.178147E-06
1.666667E+03	6.239126E-05	3.167614E-06
1.706349E+03	6.265006E-05	3.162439E-06
1.746032E+03	6.301340E-05	3.161951E-06
1.785714E+03	6.350120E-05	3.167039E-06
1.825397E+03	6.409532E-05	3.176677E-06
1.865079E+03	6.480415E-05	3.191160E-06
1.904762E+03	6.562327E-05	3.210147E-06
1.944444E+03	6.654053E-05	3.232918E-06
1.984127E+03	6.757762E-05	3.260399E-06
2.023810E+03	6.876895E-05	3.294092E-06
2.063492E+03	7.019613E-05	3.337692E-06
2.103175E+03	7.198730E-05	3.396961E-06
2.142857E+03	7.426944E-05	3.477415E-06
2.182540E+03	7.709874E-05	3.581072E-06
2.222222E+03	8.043793E-05	3.705542E-06
2.261905E+03	8.421293E-05	3.846787E-06
2.301587E+03	8.838583E-05	4.002505E-06
2.341270E+03	9.300083E-05	4.174123E-06
2.380952E+03	9.812512E-05	4.364000E-06
2.420635E+03	1.038580E-04	4.575784E-06
2.460317E+03	1.103002E-04	4.812993E-06
2.500000E+03	1.175841E-04	5.080331E-06
2.539683E+03	1.258498E-04	5.382558E-06
2.579365E+03	1.352720E-04	5.725629E-06
2.619048E+03	1.460390E-04	6.115724E-06
2.658730E+03	1.583733E-04	6.560053E-06
2.698413E+03	1.725394E-04	7.067088E-06
2.738095E+03	1.888339E-04	7.646071E-06
2.777778E+03	2.076128E-04	8.307986E-06
2.817460E+03	2.292955E-04	9.065604E-06
2.857143E+03	2.544000E-04	9.934647E-06
2.896825E+03	2.835771E-04	1.093489E-05
2.936508E+03	3.176412E-04	1.209096E-05
2.976190E+03	3.576241E-04	1.343396E-05
2.986111E+03	3.686885E-04	1.380321E-05
2.996032E+03	3.802167E-04	1.418689E-05
3.005952E+03	3.922468E-04	1.458621E-05
3.015873E+03	4.047841E-04	1.500120E-05
3.025794E+03	4.178728E-04	1.543327E-05
3.035714E+03	4.315410E-04	1.588325E-05
3.045635E+03	4.458232E-04	1.635217E-05
3.055556E+03	4.607273E-04	1.684007E-05
3.065476E+03	4.763097E-04	1.734878E-05
3.075397E+03	4.925804E-04	1.787838E-05
3.085317E+03	5.095900E-04	1.843043E-05
3.095238E+03	5.273715E-04	1.900583E-05
3.105159E+03	5.459489E-04	1.960514E-05
3.115079E+03	5.653786E-04	2.023006E-05
3.125000E+03	5.856876E-04	2.088122E-05
3.134921E+03	6.069277E-04	2.156012E-05
3.144841E+03	6.291400E-04	2.226783E-05
3.154762E+03	6.523674E-04	2.300549E-05
3.164683E+03	6.766688E-04	2.377477E-05
3.174603E+03	7.020922E-04	2.457692E-05
3.184524E+03	7.286760E-04	2.541284E-05
3.194444E+03	7.564977E-04	2.628477E-05
3.204365E+03	7.856007E-04	2.719372E-05
3.214286E+03	8.160571E-04	2.814168E-05
3.224206E+03	8.479279E-04	2.913021E-05
3.234127E+03	8.812644E-04	3.016050E-05
3.244048E+03	9.161633E-04	3.123528E-05
3.253968E+03	9.526680E-04	3.235541E-05
3.263889E+03	9.908845E-04	3.352386E-05
3.273810E+03	1.030894E-03	3.474269E-05
3.283730E+03	1.072753E-03	3.601306E-05
3.293651E+03	1.116584E-03	3.733842E-05
3.303571E+03	1.162489E-03	3.872130E-05
3.313492E+03	1.210557E-03	4.016394E-05
3.323413E+03	1.260905E-03	4.166933E-05
3.333333E+03	1.313661E-03	4.324076E-05
3.343254E+03	1.368961E-03	4.488184E-05
3.353175E+03	1.426962E-03	4.659664E-05
3.363095E+03	1.487834E-03	4.838967E-05
3.373016E+03	1.551746E-03	5.026531E-05
3.382937E+03	1.618890E-03	5.222859E-05
3.392857E+03	1.689546E-03	5.428725E-05
3.402778E+03	1.763918E-03	5.644647E-05
3.412698E+03	1.842328E-03	5.871508E-05
3.422619E+03	1.925088E-03	6.110150E-05
3.432540E+03	2.012572E-03	6.361585E-05
3.442460E+03	2.105135E-03	6.626749E-05
3.452381E+03	2.203165E-03	6.906671E-05
3.462302E+03	2.306994E-03	7.202174E-05
3.472222E+03	2.416792E-03	7.513574E-05
3.482143E+03	2.532750E-03	7.841234E-05
3.492063E+03	2.654926E-03	8.185102E-05
3.501984E+03	2.783474E-03	8.545423E-05
3.511905E+03	2.918447E-03	8.922119E-05
3.521825E+03	3.059916E-03	9.315169E-05
3.531746E+03	3.207935E-03	9.724499E-05
3.541667E+03	3.362477E-03	1.014979E-04
3.551587E+03	3.523631E-03	1.059107E-04
3.561508E+03	3.691367E-03	1.104802E-04
3.571429E+03	3.865632E-03	1.152023E-04
3.581349E+03	4.046463E-03	1.200760E-04
3.591270E+03	4.233723E-03	1.250948E-04
3.601190E+03	4.427320E-03	1.302539E-04
3.611111E+03	4.627135E-03	1.355475E-04
3.621032E+03	4.833013E-03	1.409691E-04
3.630952E+03	5.044761E-03	1.465110E-04
3.640873E+03	5.262146E-03	1.521644E-04
3.650794E+03	5.484947E-03	1.579210E-04
3.660714E+03	5.712906E-03	1.637716E-04
3.670635E+03	5.945673E-03	1.697044E-04
3.680556E+03	6.183073E-03	1.757127E-04
3.690476E+03	6.424629E-03	1.817816E-04
3.700397E+03	6.670037E-03	1.879010E-04
3.710317E+03	6.918852E-03	1.940572E-04
3.720238E+03	7.170631E-03	2.002366E-04
3.730159E+03	7.425038E-03	2.064291E-04
3.740079E+03	7.681383E-03	2.126146E-04
3.750000E+03	7.939246E-03	2.187810E-04
3.759921E+03	8.198122E-03	2.249139E-04
3.769841E+03	8.457269E-03	2.309929E-04
3.779762E+03	8.716181E-03	2.370042E-04
3.789683E+03	8.974264E-03	2.429318E-04
3.799603E+03	9.230751E-03	2.487556E-04
3.809524E+03	9.484919E-03	2.544566E-04
3.819444E+03	9.736262E-03	2.600224E-04
3.829365E+03	9.983859E-03	2.654296E-04
3.839286E+03	1.022712E-02	2.706637E-04
3.849206E+03	1.046525E-02	2.757059E-04
3.859127E+03	1.069757E-02	2.805398E-04
3.869048E+03	1.092339E-02	2.851497E-04
3.878968E+03	1.114186E-02	2.895161E-04
3.888889E+03	1.135233E-02	2.936242E-04
3.898810E+03	1.155423E-02	2.974630E-04
3.908730E+03	1.174689E-02	3.010179E-04
3.918651E+03	1.192965E-02	3.042755E-04
3.928571E+03	1.210197E-02	3.072258E-04
3.938492E+03	1.226329E-02	3.098584E-04
3.948413E+03	1.241322E-02	3.121669E-04
3.958333E+03	1.255140E-02	3.141469E-04
3.968254E+03	1.267755E-02	3.157957E-04
3.978175E+03	1.279132E-02	3.171085E-04
3.988095E+03	1.289262E-02	3.180875E-04
3.998016E+03	1.298147E-02	3.187380E-04
4.007937E+03	1.305806E-02	3.190686E-04
4.017857E+03	1.312253E-02	3.190877E-04
4.027778E+03	1.317522E-02	3.188070E-04
4.037698E+03	1.321661E-02	3.182429E-04
4.047619E+03	1.324722E-02	3.174116E-04
4.057540E+03	1.326775E-02	3.163338E-04
4.067460E+03	1.327890E-02	3.150294E-04
4.077381E+03	1.328152E-02	3.135221E-04
4.087302E+03	1.327644E-02	3.118343E-04
4.097222E+03	1.326454E-02	3.099893E-04
4.107143E+03	1.324684E-02	3.080132E-04
4.117063E+03	1.322428E-02	3.059299E-04
4.126984E+03	1.319795E-02	3.037665E-04
4.136905E+03	1.316874E-02	3.015441E-04
4.146825E+03	1.313773E-02	2.992888E-04
4.156746E+03	1.310582E-02	2.970218E-04
4.166667E+03	1.307419E-02	2.947698E-04
4.176587E+03	1.304370E-02	2.925521E-04
4.186508E+03	1.301538E-02	2.903916E-04
4.196429E+03	1.298996E-02	2.883033E-04
4.206349E+03	1.296850E-02	2.863103E-04
4.216270E+03	1.295166E-02	2.844252E-04
4.226190E+03	1.294043E-02	2.826685E-04
4.236111E+03	1.293539E-02	2.810508E-04
4.246032E+03	1.293714E-02	2.795831E-04
4.255952E+03	1.294657E-02	2.782822E-04
4.265873E+03	1.296401E-02	2.771527E-04
4.275794E+03	1.299024E-02	2.762084E-04
4.285714E+03	1.302550E-02	2.754516E-04
4.295635E+03	1.307045E-02	2.748934E-04
4.305556E+03	1.312542E-02	2.745374E-04
4.315476E+03	1.319066E-02	2.743854E-04
4.325397E+03	1.326654E-02	2.744420E-04
4.335317E+03	1.335330E-02	2.747086E-04
4.345238E+03	1.345127E-02	2.751885E-04
4.355159E+03	1.356041E-02	2.758776E-04
4.365079E+03	1.368103E-02	2.767782E-04
4.375000E+03	1.381313E-02	2.778873E-04
4.384921E+03	1.395664E-02	2.791996E-04
4.394841E+03	1.411139E-02	2.807085E-04
4.404762E+03	1.427720E-02	2.824072E-04
4.414683E+03	1.445360E-02	2.842830E-04
4.424603E+03	1.464021E-02	2.863256E-04
4.434524E+03	1.483642E-02	2.885202E-04
4.444444E+03	1.504151E-02	2.908504E-04
4.454365E+03	1.525443E-02	2.932939E-04
4.464286E+03	1.547415E-02	2.958288E-04
4.474206E+03	1.569931E-02	2.984281E-04
4.484127E+03	1.592865E-02	3.010669E-04
4.494048E+03	1.616032E-02	3.037099E-04
4.503968E+03	1.639258E-02	3.063246E-04
4.513889E+03	1.662351E-02	3.088763E-04
4.523810E+03	1.685076E-02	3.113230E-04
4.533730E+03	1.707230E-02	3.136292E-04
4.543651E+03	1.728557E-02	3.157514E-04
4.553571E+03	1.748831E-02	3.176519E-04
4.563492E+03	1.767794E-02	3.192885E-04
4.573413E+03	1.785246E-02	3.206305E-04
4.583333E+03	1.800970E-02	3.216444E-04
4.593254E+03	1.814754E-02	3.222992E-04
4.603175E+03	1.826442E-02	3.225741E-04
4.613095E+03	1.835911E-02	3.224547E-04
4.623016E+03	1.843061E-02	3.219307E-04
4.632937E+03	1.847810E-02	3.209959E-04
4.642857E+03	1.850189E-02	3.196633E-04
4.652778E+03	1.850244E-02	3.179480E-04
4.662698E+03	1.848034E-02	3.158676E-04
4.672619E+03	1.843697E-02	3.134525E-04
4.682540E+03	1.837423E-02	3.107408E-04
4.692460E+03	1.829391E-02	3.077688E-04
4.702381E+03	1.819870E-02	3.045862E-04
4.712302E+03	1.809122E-02	3.012410E-04
4.722222E+03	1.797461E-02	2.977888E-04
4.732143E+03	1.785194E-02	2.942825E-04
4.742063E+03	1.772604E-02	2.907704E-04
4.751984E+03	1.759996E-02	2.873030E-04
4.761905E+03	1.747615E-02	2.839205E-04
4.771825E+03	1.735703E-02	2.806616E-04
4.781746E+03	1.724424E-02	2.775516E-04
4.791667E+03	1.713896E-02	2.746080E-04
4.801587E+03	1.704161E-02	2.718363E-04
4.811508E+03	1.695208E-02	2.692331E-04
4.821429E+03	1.686950E-02	2.667831E-04
4.831349E+03	1.679338E-02	2.644774E-04
4.841270E+03	1.672342E-02	2.623104E-04
4.851190E+03	1.665978E-02	2.602834E-04
4.861111E+03	1.660217E-02	2.583909E-04
4.871032E+03	1.655050E-02	2.566298E-04
4.880952E+03	1.650463E-02	2.549955E-04
4.890873E+03	1.646467E-02	2.534875E-04
4.900794E+03	1.643044E-02	2.521008E-04
4.910714E+03	1.640178E-02	2.508309E-04
4.920635E+03	1.637858E-02	2.496738E-04
4.930556E+03	1.636026E-02	2.486189E-04
4.940476E+03	1.634631E-02	2.476565E-04
4.950397E+03	1.633600E-02	2.467739E-04
4.960317E+03	1.632894E-02	2.459634E-04
4.970238E+03	1.632472E-02	2.452176E-04
4.980159E+03	1.632292E-02	2.445287E-04
4.990079E+03	1.632354E-02	2.438950E-04
5.000000E+03	1.632676E-02	2.433180E-04
5.009921E+03	1.633284E-02	2.428001E-04
5.019841E+03	1.634249E-02	2.423507E-04
5.029762E+03	1.635641E-02	2.419783E-04
5.039683E+03	1.637508E-02	2.416887E-04
5.049603E+03	1.639950E-02	2.414952E-04
5.059524E+03	1.643054E-02	2.414089E-04
5.069444E+03	1.646884E-02	2.414373E-04
5.079365E+03	1.651506E-02	2.415888E-04
5.089286E+03	1.656975E-02	2.418693E-04
5.099206E+03	1.663324E-02	2.422821E-04
5.109127E+03	1.670547E-02	2.428245E-04
5.119048E+03	1.678653E-02	2.434961E-04
5.128968E+03	1.687586E-02	2.442872E-04
5.138889E+03	1.697326E-02	2.451930E-04
5.148810E+03	1.707809E-02	2.462027E-04
5.158730E+03	1.718980E-02	2.473068E-04
5.168651E+03	1.730775E-02	2.484947E-04
5.178571E+03	1.743119E-02	2.497542E-04
5.188492E+03	1.755896E-02	2.510671E-04
5.198413E+03	1.769046E-02	2.524237E-04
5.208333E+03	1.782445E-02	2.538049E-04
5.218254E+03	1.795975E-02	2.551929E-04
5.228175E+03	1.809490E-02	2.565660E-04
5.238095E+03	1.822853E-02	2.579036E-04
5.248016E+03	1.835923E-02	2.591852E-04
5.257937E+03	1.848564E-02	2.603909E-04
5.267857E+03	1.860644E-02	2.615018E-04
5.277778E+03	1.872025E-02	2.624978E-04
5.287698E+03	1.882636E-02	2.633690E-04
5.297619E+03	1.892349E-02	2.640972E-04
5.307540E+03	1.901088E-02	2.646720E-04
5.317460E+03	1.908829E-02	2.650903E-04
5.327381E+03	1.915484E-02	2.653400E-04
5.337302E+03	1.921044E-02	2.654204E-04
5.347222E+03	1.925448E-02	2.653234E-04
5.357143E+03	1.928663E-02	2.650451E-04
5.367063E+03	1.930604E-02	2.645747E-04
5.376984E+03	1.931217E-02	2.639056E-04
5.386905E+03	1.930350E-02	2.630179E-04
5.396825E+03	1.927871E-02	2.618951E-04
5.406746E+03	1.923596E-02	2.605139E-04
5.416667E+03	1.917410E-02	2.588604E-04
5.426587E+03	1.909185E-02	2.569197E-04
5.436508E+03	1.898817E-02	2.546804E-04
5.446429E+03	1.886277E-02	2.521412E-04
5.456349E+03	1.871509E-02	2.492978E-04
5.466270E+03	1.854515E-02	2.461537E-04
5.476190E+03	1.835354E-02	2.427198E-04
5.486111E+03	1.814083E-02	2.390077E-04
5.496032E+03	1.790863E-02	2.350416E-04
5.505952E+03	1.765824E-02	2.308422E-04
5.515873E+03	1.739231E-02	2.264475E-04
5.525794E+03	1.711345E-02	2.218945E-04
5.535714E+03	1.682468E-02	2.172252E-04
5.545635E+03	1.652965E-02	2.124889E-04
5.555556E+03	1.623237E-02	2.077391E-04
5.565476E+03	1.593695E-02	2.030293E-04
5.575397E+03	1.564816E-02	1.984209E-04
5.585317E+03	1.537018E-02	1.939664E-04
5.595238E+03	1.510779E-02	1.897247E-04
5.605159E+03	1.486493E-02	1.857433E-04
5.615079E+03	1.464589E-02	1.820727E-04
5.625000E+03	1.445426E-02	1.787538E-04
5.634921E+03	1.429314E-02	1.758199E-04
5.644841E+03	1.416544E-02	1.733015E-04
5.654762E+03	1.407346E-02	1.712205E-04
5.664683E+03	1.401918E-02	1.695941E-04
5.674603E+03	1.400394E-02	1.684311E-04
5.684524E+03	1.402836E-02	1.677311E-04
5.694444E+03	1.409293E-02	1.674919E-04
5.704365E+03	1.419722E-02	1.676998E-04
5.714286E+03	1.433995E-02	1.683313E-04
5.724206E+03	1.451938E-02	1.693580E-04
5.734127E+03	1.473304E-02	1.707429E-04
5.744048E+03	1.497749E-02	1.724388E-04
5.753968E+03	1.524842E-02	1.743895E-04
5.763889E+03	1.554110E-02	1.765354E-04
5.773810E+03	1.585028E-02	1.788121E-04
5.783730E+03	1.617000E-02	1.811494E-04
5.793651E+03	1.649389E-02	1.834741E-04
5.803571E+03	1.681572E-02	1.857170E-04
5.813492E+03	1.712914E-02	1.878093E-04
5.823413E+03	1.742819E-02	1.896889E-04
5.833333E+03	1.770711E-02	1.912979E-04
5.843254E+03	1.796047E-02	1.925837E-04
5.853175E+03	1.818388E-02	1.935071E-04
5.863095E+03	1.837336E-02	1.940346E-04
5.873016E+03	1.852668E-02	1.941521E-04
5.882937E+03	1.864139E-02	1.938447E-04
5.892857E+03	1.871689E-02	1.931173E-04
5.902778E+03	1.875375E-02	1.919865E-04
5.912698E+03	1.875318E-02	1.904758E-04
5.922619E+03	1.871753E-02	1.886197E-04
5.932540E+03	1.865023E-02	1.864625E-04
5.942460E+03	1.855483E-02	1.840488E-04
5.952381E+03	1.843579E-02	1.814308E-04
5.962302E+03	1.829710E-02	1.786546E-04
5.972222E+03	1.814361E-02	1.757735E-04
5.982143E+03	1.797918E-02	1.728295E-04
5.992063E+03	1.780816E-02	1.698679E-04
6.001984E+03	1.763332E-02	1.669182E-04
6.011905E+03	1.745788E-02	1.640126E-04
6.021825E+03	1.728374E-02	1.611704E-04
6.031746E+03	1.711232E-02	1.584059E-04
6.041667E+03	1.694396E-02	1.557229E-04
6.051587E+03	1.677937E-02	1.531284E-04
6.061508E+03	1.661788E-02	1.506169E-04
6.071429E+03	1.645958E-02	1.481897E-04
6.081349E+03	1.630352E-02	1.458389E-04
6.091270E+03	1.614940E-02	1.435623E-04
6.101190E+03	1.599692E-02	1.413580E-04
6.111111E+03	1.584621E-02	1.392276E-04
6.121032E+03	1.569723E-02	1.371713E-04
6.130952E+03	1.555081E-02	1.351966E-04
6.140873E+03	1.540787E-02	1.333118E-04
6.150794E+03	1.526978E-02	1.315285E-04
6.160714E+03	1.513799E-02	1.298578E-04
6.170635E+03	1.501423E-02	1.283112E-04
6.180556E+03	1.490041E-02	1.269023E-04
6.190476E+03	1.479791E-02	1.256396E-04
6.200397E+03	1.470799E-02	1.245305E-04
6.210317E+03	1.463147E-02	1.235792E-04
6.220238E+03	1.456849E-02	1.227841E-04
6.230159E+03	1.451895E-02	1.221418E-04
6.240079E+03	1.448216E-02	1.216440E-04
6.250000E+03	1.445713E-02	1.212805E-04
6.259921E+03	1.444285E-02	1.210408E-04
6.269841E+03	1.443777E-02	1.209102E-04
6.279762E+03	1.444068E-02	1.208770E-04
6.289683E+03	1.444978E-02	1.209247E-04
6.299603E+03	1.446371E-02	1.210407E-04
6.309524E+03	1.448101E-02	1.212115E-04
6.319444E+03	1.450065E-02	1.214274E-04
6.329365E+03	1.452146E-02	1.216773E-04
6.339286E+03	1.454278E-02	1.219547E-04
6.349206E+03	1.456409E-02	1.222541E-04
6.359127E+03	1.458508E-02	1.225719E-04
6.369048E+03	1.460608E-02	1.229099E-04
6.378968E+03	1.462806E-02	1.232753E-04
6.388889E+03	1.465244E-02	1.236791E-04
6.398810E+03	1.468095E-02	1.241354E-04
6.408730E+03	1.471580E-02	1.246620E-04
6.418651E+03	1.475932E-02	1.252785E-04
6.428571E+03	1.481363E-02	1.260026E-04
6.438492E+03	1.488052E-02	1.268495E-04
6.448413E+03	1.496230E-02	1.278394E-04
6.458333E+03	1.506060E-02	1.289863E-04
6.468254E+03	1.517646E-02	1.303002E-04
6.478175E+03	1.531093E-02	1.317907E-04
6.488095E+03	1.546430E-02	1.334614E-04
6.498016E+03	1.563589E-02	1.353077E-04
6.507937E+03	1.582449E-02	1.373204E-04
6.517857E+03	1.602867E-02	1.394881E-04
6.527778E+03	1.624508E-02	1.417830E-04
6.537698E+03	1.647114E-02	1.441835E-04
6.547619E+03	1.670330E-02	1.466594E-04
6.557540E+03	1.693709E-02	1.491722E-04
6.567460E+03	1.716886E-02	1.516900E-04
6.577381E+03	1.739368E-02	1.541692E-04
6.587302E+03	1.760765E-02	1.565750E-04
6.597222E+03	1.780584E-02	1.588628E-04
6.607143E+03	1.798450E-02	1.609979E-04
6.617063E+03	1.814006E-02	1.629461E-04
6.626984E+03	1.826930E-02	1.646749E-04
6.636905E+03	1.836993E-02	1.661600E-04
6.646825E+03	1.844066E-02	1.673855E-04
6.656746E+03	1.848020E-02	1.683356E-04
6.666667E+03	1.848820E-02	1.690026E-04
6.676587E+03	1.846492E-02	1.693847E-04
6.686508E+03	1.841123E-02	1.694854E-04
6.696429E+03	1.832854E-02	1.693138E-04
6.706349E+03	1.821881E-02	1.688840E-04
6.716270E+03	1.808413E-02	1.682117E-04
6.726190E+03	1.792766E-02	1.673231E-04
6.736111E+03	1.775252E-02	1.662445E-04
6.746032E+03	1.756177E-02	1.650020E-04
6.755952E+03	1.735912E-02	1.636284E-04
6.765873E+03	1.714757E-02	1.621506E-04
6.775794E+03	1.693015E-02	1.605959E-04
6.785714E+03	1.670961E-02	1.589895E-04
6.795635E+03	1.648819E-02	1.573524E-04
6.805556E+03	1.626818E-02	1.557060E-04
6.815476E+03	1.605091E-02	1.540631E-04
6.825397E+03	1.583910E-02	1.524500E-04
6.835317E+03	1.563583E-02	1.508969E-04
6.845238E+03	1.544369E-02	1.494294E-04
6.855159E+03	1.526531E-02	1.480741E-04
6.865079E+03	1.510229E-02	1.468475E-04
6.875000E+03	1.495520E-02	1.457564E-04
6.884921E+03	1.482423E-02	1.448038E-04
6.894841E+03	1.470924E-02	1.439896E-04
6.904762E+03	1.460902E-02	1.433029E-04
6.914683E+03	1.452227E-02	1.427322E-04
6.924603E+03	1.444731E-02	1.422617E-04
6.934524E+03	1.438235E-02	1.418746E-04
6.944444E+03	1.432509E-02	1.415487E-04
6.954365E+03	1.427409E-02	1.412706E-04
6.964286E+03	1.422677E-02	1.410151E-04
6.974206E+03	1.418152E-02	1.407665E-04
6.984127E+03	1.413630E-02	1.405051E-04
6.994048E+03	1.408954E-02	1.402153E-04
7.003968E+03	1.404015E-02	1.398867E-04
7.013889E+03	1.398675E-02	1.395059E-04
7.023810E+03	1.392822E-02	1.390618E-04
7.033730E+03	1.386448E-02	1.385540E-04
7.043651E+03	1.379488E-02	1.379765E-04
7.053571E+03	1.371896E-02	1.373249E-04
7.063492E+03	1.363694E-02	1.366018E-04
7.073413E+03	1.354860E-02	1.358058E-04
7.083333E+03	1.345435E-02	1.349412E-04
7.093254E+03	1.335403E-02	1.340072E-04
7.103175E+03	1.324803E-02	1.330082E-04
7.113095E+03	1.313589E-02	1.319405E-04
7.123016E+03	1.301797E-02	1.308081E-04
7.132937E+03	1.289458E-02	1.296152E-04
7.142857E+03	1.276522E-02	1.283571E-04
7.152778E+03	1.262998E-02	1.270358E-04
7.162698E+03	1.248919E-02	1.256554E-04
7.172619E+03	1.234296E-02	1.242174E-04
7.182540E+03	1.219114E-02	1.227217E-04
7.192460E+03	1.203417E-02	1.211729E-04
7.202381E+03	1.187198E-02	1.195714E-04
7.212302E+03	1.170483E-02	1.179205E-04
7.222222E+03	1.153332E-02	1.162270E-04
7.232143E+03	1.135764E-02	1.144934E-04
7.242063E+03	1.117858E-02	1.127285E-04
7.251984E+03	1.099658E-02	1.109371E-04
7.261905E+03	1.081241E-02	1.091279E-04
7.271825E+03	1.062740E-02	1.073147E-04
7.281746E+03	1.044201E-02	1.055027E-04
7.291667E+03	1.025769E-02	1.037070E-04
7.301587E+03	1.007519E-02	1.019356E-04
7.311508E+03	9.895738E-03	1.002015E-04
7.321429E+03	9.720531E-03	9.851722E-05
7.331349E+03	9.550303E-03	9.689055E-05
7.341270E+03	9.386417E-03	9.533578E-05
7.351190E+03	9.229773E-03	9.386250E-05
7.361111E+03	9.081462E-03	9.248228E-05
7.371032E+03	8.942340E-03	9.120436E-05
7.380952E+03	8.813222E-03	9.003766E-05
7.390873E+03	8.695047E-03	8.899242E-05
7.400794E+03	8.588044E-03	8.807176E-05
7.410714E+03	8.492714E-03	8.728164E-05
7.420635E+03	8.409196E-03	8.662440E-05
7.430556E+03	8.337835E-03	8.610464E-05
7.440476E+03	8.278376E-03	8.572055E-05
7.450397E+03	8.230340E-03	8.546728E-05
7.460317E+03	8.193195E-03	8.533938E-05
7.470238E+03	8.166173E-03	8.532897E-05
7.480159E+03	8.148062E-03	8.542351E-05
7.490079E+03	8.137809E-03	8.561207E-05
7.500000E+03	8.133536E-03	8.587489E-05
7.509921E+03	8.133925E-03	8.619796E-05
7.519841E+03	8.136888E-03	8.655889E-05
7.529762E+03	8.140394E-03	8.693557E-05
7.539683E+03	8.142153E-03	8.730277E-05
7.549603E+03	8.140282E-03	8.763927E-05
7.559524E+03	8.132802E-03	8.792247E-05
7.569444E+03	8.117922E-03	8.813139E-05
7.579365E+03	8.093958E-03	8.824591E-05
7.589286E+03	8.060248E-03	8.825676E-05
7.599206E+03	8.016474E-03	8.815829E-05
7.609127E+03	7.963325E-03	8.795589E-05
7.619048E+03	7.900751E-03	8.764693E-05
7.628968E+03	7.830079E-03	8.724406E-05
7.638889E+03	7.751947E-03	8.675255E-05
7.648810E+03	7.667069E-03	8.617865E-05
7.658730E+03	7.576569E-03	8.553340E-05
7.668651E+03	7.481361E-03	8.482573E-05
7.678571E+03	7.382329E-03	8.406447E-05
7.688492E+03	7.280309E-03	8.325808E-05
7.698413E+03	7.176260E-03	8.241667E-05
