#wls	flux	fluxerr
1.587302E+03	4.881128E-05	3.226028E-06
1.626984E+03	4.824981E-05	3.181300E-06
1.666667E+03	4.770990E-05	3.137984E-06
1.706349E+03	4.720039E-05	3.096652E-06
1.746032E+03	4.673669E-05	3.058297E-06
1.785714E+03	4.629831E-05	3.021564E-06
1.825397E+03	4.589513E-05	2.987082E-06
1.865079E+03	4.552733E-05	2.954846E-06
1.904762E+03	4.517934E-05	2.923831E-06
1.944444E+03	4.486829E-05	2.895130E-06
1.984127E+03	4.458916E-05	2.868402E-06
2.023810E+03	4.437725E-05	2.845891E-06
2.063492E+03	4.429417E-05	2.831494E-06
2.103175E+03	4.440342E-05	2.829176E-06
2.142857E+03	4.479423E-05	2.844476E-06
2.182540E+03	4.551024E-05	2.879967E-06
2.222222E+03	4.652435E-05	2.933711E-06
2.261905E+03	4.778154E-05	3.002031E-06
2.301587E+03	4.925054E-05	3.082781E-06
2.341270E+03	5.088259E-05	3.172743E-06
2.380952E+03	5.268397E-05	3.272161E-06
2.420635E+03	5.464575E-05	3.380325E-06
2.460317E+03	5.678196E-05	3.497942E-06
2.500000E+03	5.911179E-05	3.626017E-06
2.539683E+03	6.165013E-05	3.765263E-06
2.579365E+03	6.442997E-05	3.917473E-06
2.619048E+03	6.747971E-05	4.084113E-06
2.658730E+03	7.082286E-05	4.266319E-06
2.698413E+03	7.450308E-05	4.466391E-06
2.738095E+03	7.856965E-05	4.686908E-06
2.777778E+03	8.308765E-05	4.931309E-06
2.817460E+03	8.812259E-05	5.202966E-06
2.857143E+03	9.369460E-05	5.502484E-06
2.896825E+03	9.988731E-05	5.834134E-06
2.936508E+03	1.067591E-04	6.200588E-06
2.976190E+03	1.144218E-04	6.607503E-06
2.986111E+03	1.164653E-04	6.715689E-06
2.996032E+03	1.185830E-04	6.827755E-06
3.005952E+03	1.207561E-04	6.942600E-06
3.015873E+03	1.229978E-04	7.060960E-06
3.025794E+03	1.253007E-04	7.182399E-06
3.035714E+03	1.276792E-04	7.307720E-06
3.045635E+03	1.301361E-04	7.437056E-06
3.055556E+03	1.326742E-04	7.570543E-06
3.065476E+03	1.352846E-04	7.707654E-06
3.075397E+03	1.379932E-04	7.849844E-06
3.085317E+03	1.407923E-04	7.996634E-06
3.095238E+03	1.436728E-04	8.147493E-06
3.105159E+03	1.466623E-04	8.303949E-06
3.115079E+03	1.497527E-04	8.465516E-06
3.125000E+03	1.529478E-04	8.632378E-06
3.134921E+03	1.562519E-04	8.804746E-06
3.144841E+03	1.596819E-04	8.983535E-06
3.154762E+03	1.632301E-04	9.168271E-06
3.164683E+03	1.669142E-04	9.359912E-06
3.174603E+03	1.707399E-04	9.558739E-06
3.184524E+03	1.746995E-04	9.764277E-06
3.194444E+03	1.788120E-04	9.977541E-06
3.204365E+03	1.830979E-04	1.019963E-05
3.214286E+03	1.875361E-04	1.042931E-05
3.224206E+03	1.921617E-04	1.066848E-05
3.234127E+03	1.969825E-04	1.091753E-05
3.244048E+03	2.019921E-04	1.117602E-05
3.253968E+03	2.072133E-04	1.144518E-05
3.263889E+03	2.126398E-04	1.172457E-05
3.273810E+03	2.183116E-04	1.201633E-05
3.283730E+03	2.242391E-04	1.232096E-05
3.293651E+03	2.304170E-04	1.263810E-05
3.303571E+03	2.368726E-04	1.296913E-05
3.313492E+03	2.436176E-04	1.331464E-05
3.323413E+03	2.506643E-04	1.367519E-05
3.333333E+03	2.580431E-04	1.405233E-05
3.343254E+03	2.657679E-04	1.444671E-05
3.353175E+03	2.738538E-04	1.485906E-05
3.363095E+03	2.823527E-04	1.529205E-05
3.373016E+03	2.912453E-04	1.574451E-05
3.382937E+03	3.005669E-04	1.621822E-05
3.392857E+03	3.103749E-04	1.671613E-05
3.402778E+03	3.206703E-04	1.723812E-05
3.412698E+03	3.314940E-04	1.778624E-05
3.422619E+03	3.428683E-04	1.836152E-05
3.432540E+03	3.548591E-04	1.896727E-05
3.442460E+03	3.674707E-04	1.960354E-05
3.452381E+03	3.807515E-04	2.027269E-05
3.462302E+03	3.947518E-04	2.097717E-05
3.472222E+03	4.095020E-04	2.171836E-05
3.482143E+03	4.250800E-04	2.250012E-05
3.492063E+03	4.414965E-04	2.332274E-05
3.501984E+03	4.588100E-04	2.418903E-05
3.511905E+03	4.770819E-04	2.510192E-05
3.521825E+03	4.963510E-04	2.606310E-05
3.531746E+03	5.166562E-04	2.707429E-05
3.541667E+03	5.380101E-04	2.813578E-05
3.551587E+03	5.605063E-04	2.925211E-05
3.561508E+03	5.841304E-04	3.042212E-05
3.571429E+03	6.089208E-04	3.164743E-05
3.581349E+03	6.349159E-04	3.292961E-05
3.591270E+03	6.621537E-04	3.427022E-05
3.601190E+03	6.906719E-04	3.567076E-05
3.611111E+03	7.204440E-04	3.712942E-05
3.621032E+03	7.515664E-04	3.865071E-05
3.630952E+03	7.840078E-04	4.023254E-05
3.640873E+03	8.178312E-04	4.187766E-05
3.650794E+03	8.530315E-04	4.358533E-05
3.660714E+03	8.896341E-04	4.535634E-05
3.670635E+03	9.276262E-04	4.718952E-05
3.680556E+03	9.670262E-04	4.908531E-05
3.690476E+03	1.007888E-03	5.104590E-05
3.700397E+03	1.050149E-03	5.306766E-05
3.710317E+03	1.093818E-03	5.515041E-05
3.720238E+03	1.138898E-03	5.729384E-05
3.730159E+03	1.185389E-03	5.949744E-05
3.740079E+03	1.233247E-03	6.175846E-05
3.750000E+03	1.282461E-03	6.407578E-05
3.759921E+03	1.333019E-03	6.644832E-05
3.769841E+03	1.384856E-03	6.887240E-05
3.779762E+03	1.437951E-03	7.134637E-05
3.789683E+03	1.492226E-03	7.386594E-05
3.799603E+03	1.547645E-03	7.642890E-05
3.809524E+03	1.604170E-03	7.903287E-05
3.819444E+03	1.661754E-03	8.167515E-05
3.829365E+03	1.720253E-03	8.434818E-05
3.839286E+03	1.779658E-03	8.705120E-05
3.849206E+03	1.839911E-03	8.978102E-05
3.859127E+03	1.900846E-03	9.252915E-05
3.869048E+03	1.962396E-03	9.529205E-05
3.878968E+03	2.024537E-03	9.806836E-05
3.888889E+03	2.087093E-03	1.008492E-04
3.898810E+03	2.150036E-03	1.036332E-04
3.908730E+03	2.213180E-03	1.064109E-04
3.918651E+03	2.276440E-03	1.091785E-04
3.928571E+03	2.339789E-03	1.119343E-04
3.938492E+03	2.403030E-03	1.146690E-04
3.948413E+03	2.466083E-03	1.173787E-04
3.958333E+03	2.528862E-03	1.200594E-04
3.968254E+03	2.591289E-03	1.227075E-04
3.978175E+03	2.653169E-03	1.253137E-04
3.988095E+03	2.714485E-03	1.278775E-04
3.998016E+03	2.775051E-03	1.303903E-04
4.007937E+03	2.834921E-03	1.328549E-04
4.017857E+03	2.893855E-03	1.352602E-04
4.027778E+03	2.951926E-03	1.376101E-04
4.037698E+03	3.008966E-03	1.398969E-04
4.047619E+03	3.064941E-03	1.421195E-04
4.057540E+03	3.119825E-03	1.442769E-04
4.067460E+03	3.173540E-03	1.463661E-04
4.077381E+03	3.226080E-03	1.483871E-04
4.087302E+03	3.277447E-03	1.503405E-04
4.097222E+03	3.327658E-03	1.522274E-04
4.107143E+03	3.376609E-03	1.540435E-04
4.117063E+03	3.424461E-03	1.557967E-04
4.126984E+03	3.471132E-03	1.574835E-04
4.136905E+03	3.516737E-03	1.591098E-04
4.146825E+03	3.561279E-03	1.606758E-04
4.156746E+03	3.604823E-03	1.621851E-04
4.166667E+03	3.647450E-03	1.636416E-04
4.176587E+03	3.689310E-03	1.650523E-04
4.186508E+03	3.730362E-03	1.664158E-04
4.196429E+03	3.770833E-03	1.677425E-04
4.206349E+03	3.810759E-03	1.690341E-04
4.216270E+03	3.850177E-03	1.702925E-04
4.226190E+03	3.889388E-03	1.715312E-04
4.236111E+03	3.928368E-03	1.727493E-04
4.246032E+03	3.967355E-03	1.739572E-04
4.255952E+03	4.006325E-03	1.751540E-04
4.265873E+03	4.045576E-03	1.763526E-04
4.275794E+03	4.085143E-03	1.775545E-04
4.285714E+03	4.125189E-03	1.787666E-04
4.295635E+03	4.165806E-03	1.799928E-04
4.305556E+03	4.207209E-03	1.812422E-04
4.315476E+03	4.249412E-03	1.825150E-04
4.325397E+03	4.292613E-03	1.838194E-04
4.335317E+03	4.336943E-03	1.851607E-04
4.345238E+03	4.382450E-03	1.865405E-04
4.355159E+03	4.429242E-03	1.879631E-04
4.365079E+03	4.477417E-03	1.894320E-04
4.375000E+03	4.526993E-03	1.909476E-04
4.384921E+03	4.578177E-03	1.925180E-04
4.394841E+03	4.630833E-03	1.941369E-04
4.404762E+03	4.685144E-03	1.958115E-04
4.414683E+03	4.741014E-03	1.975373E-04
4.424603E+03	4.798402E-03	1.993119E-04
4.434524E+03	4.857187E-03	2.011298E-04
4.444444E+03	4.917299E-03	2.029876E-04
4.454365E+03	4.978591E-03	2.048789E-04
4.464286E+03	5.040899E-03	2.067965E-04
4.474206E+03	5.103977E-03	2.087299E-04
4.484127E+03	5.167777E-03	2.106772E-04
4.494048E+03	5.232100E-03	2.126299E-04
4.503968E+03	5.296665E-03	2.145766E-04
4.513889E+03	5.361323E-03	2.165112E-04
4.523810E+03	5.425846E-03	2.184246E-04
4.533730E+03	5.490072E-03	2.203104E-04
4.543651E+03	5.553692E-03	2.221565E-04
4.553571E+03	5.616605E-03	2.239592E-04
4.563492E+03	5.678573E-03	2.257094E-04
4.573413E+03	5.739276E-03	2.273948E-04
4.583333E+03	5.798625E-03	2.290126E-04
4.593254E+03	5.856455E-03	2.305569E-04
4.603175E+03	5.912465E-03	2.320165E-04
4.613095E+03	5.966656E-03	2.333923E-04
4.623016E+03	6.018666E-03	2.346710E-04
4.632937E+03	6.068592E-03	2.358573E-04
4.642857E+03	6.116095E-03	2.369389E-04
4.652778E+03	6.161296E-03	2.379216E-04
4.662698E+03	6.203956E-03	2.387972E-04
4.672619E+03	6.243997E-03	2.395637E-04
4.682540E+03	6.281507E-03	2.402255E-04
4.692460E+03	6.316358E-03	2.407789E-04
4.702381E+03	6.348585E-03	2.412263E-04
4.712302E+03	6.378157E-03	2.415676E-04
4.722222E+03	6.404979E-03	2.418003E-04
4.732143E+03	6.429184E-03	2.419307E-04
4.742063E+03	6.450689E-03	2.419565E-04
4.751984E+03	6.469489E-03	2.418788E-04
4.761905E+03	6.485582E-03	2.416985E-04
4.771825E+03	6.498970E-03	2.414169E-04
4.781746E+03	6.509657E-03	2.410351E-04
4.791667E+03	6.517654E-03	2.405547E-04
4.801587E+03	6.522988E-03	2.399777E-04
4.811508E+03	6.525702E-03	2.393067E-04
4.821429E+03	6.525888E-03	2.385462E-04
4.831349E+03	6.523631E-03	2.377001E-04
4.841270E+03	6.519297E-03	2.367828E-04
4.851190E+03	6.512991E-03	2.357989E-04
4.861111E+03	6.504981E-03	2.347587E-04
4.871032E+03	6.495604E-03	2.336752E-04
4.880952E+03	6.485124E-03	2.325583E-04
4.890873E+03	6.473787E-03	2.314172E-04
4.900794E+03	6.461833E-03	2.302608E-04
4.910714E+03	6.449415E-03	2.290946E-04
4.920635E+03	6.436812E-03	2.279285E-04
4.930556E+03	6.424288E-03	2.267718E-04
4.940476E+03	6.411883E-03	2.256257E-04
4.950397E+03	6.399901E-03	2.245007E-04
4.960317E+03	6.388359E-03	2.233972E-04
4.970238E+03	6.377540E-03	2.223247E-04
4.980159E+03	6.367577E-03	2.212876E-04
4.990079E+03	6.358528E-03	2.202874E-04
5.000000E+03	6.350584E-03	2.193303E-04
5.009921E+03	6.343858E-03	2.184198E-04
5.019841E+03	6.338390E-03	2.175568E-04
5.029762E+03	6.334421E-03	2.167488E-04
5.039683E+03	6.331981E-03	2.159965E-04
5.049603E+03	6.331095E-03	2.153001E-04
5.059524E+03	6.332049E-03	2.146687E-04
5.069444E+03	6.334784E-03	2.140995E-04
5.079365E+03	6.339365E-03	2.135942E-04
5.089286E+03	6.345911E-03	2.131562E-04
5.099206E+03	6.354461E-03	2.127859E-04
5.109127E+03	6.365035E-03	2.124834E-04
5.119048E+03	6.377569E-03	2.122458E-04
5.128968E+03	6.392177E-03	2.120763E-04
5.138889E+03	6.408684E-03	2.119682E-04
5.148810E+03	6.427156E-03	2.119232E-04
5.158730E+03	6.447434E-03	2.119354E-04
5.168651E+03	6.469399E-03	2.120002E-04
5.178571E+03	6.492968E-03	2.121143E-04
5.188492E+03	6.517897E-03	2.122692E-04
5.198413E+03	6.543983E-03	2.124579E-04
5.208333E+03	6.571061E-03	2.126746E-04
5.218254E+03	6.598805E-03	2.129084E-04
5.228175E+03	6.626936E-03	2.131501E-04
5.238095E+03	6.655214E-03	2.133918E-04
5.248016E+03	6.683320E-03	2.136232E-04
5.257937E+03	6.710847E-03	2.138314E-04
5.267857E+03	6.737449E-03	2.140054E-04
5.277778E+03	6.762839E-03	2.141364E-04
5.287698E+03	6.786592E-03	2.142113E-04
5.297619E+03	6.808427E-03	2.142216E-04
5.307540E+03	6.827931E-03	2.141550E-04
5.317460E+03	6.844774E-03	2.140017E-04
5.327381E+03	6.858720E-03	2.137551E-04
5.337302E+03	6.869412E-03	2.134051E-04
5.347222E+03	6.876671E-03	2.129468E-04
5.357143E+03	6.880137E-03	2.123703E-04
5.367063E+03	6.879771E-03	2.116753E-04
5.376984E+03	6.875367E-03	2.108567E-04
5.386905E+03	6.866905E-03	2.099151E-04
5.396825E+03	6.854204E-03	2.088460E-04
5.406746E+03	6.837421E-03	2.076554E-04
5.416667E+03	6.816496E-03	2.063428E-04
5.426587E+03	6.791701E-03	2.049176E-04
5.436508E+03	6.763105E-03	2.033828E-04
5.446429E+03	6.731106E-03	2.017517E-04
5.456349E+03	6.695897E-03	2.000309E-04
5.466270E+03	6.657929E-03	1.982348E-04
5.476190E+03	6.617642E-03	1.963773E-04
5.486111E+03	6.575525E-03	1.944735E-04
5.496032E+03	6.532112E-03	1.925396E-04
5.505952E+03	6.488038E-03	1.905948E-04
5.515873E+03	6.443839E-03	1.886550E-04
5.525794E+03	6.400270E-03	1.867420E-04
5.535714E+03	6.357906E-03	1.848727E-04
5.545635E+03	6.317400E-03	1.830654E-04
5.555556E+03	6.279465E-03	1.813402E-04
5.565476E+03	6.244692E-03	1.797134E-04
5.575397E+03	6.213782E-03	1.782041E-04
5.585317E+03	6.187363E-03	1.768293E-04
5.595238E+03	6.166041E-03	1.756047E-04
5.605159E+03	6.150337E-03	1.745437E-04
5.615079E+03	6.140866E-03	1.736621E-04
5.625000E+03	6.138201E-03	1.729741E-04
5.634921E+03	6.142700E-03	1.724877E-04
5.644841E+03	6.154907E-03	1.722162E-04
5.654762E+03	6.175133E-03	1.721658E-04
5.664683E+03	6.203687E-03	1.723429E-04
5.674603E+03	6.240803E-03	1.727515E-04
5.684524E+03	6.286695E-03	1.733949E-04
5.694444E+03	6.341363E-03	1.742706E-04
5.704365E+03	6.404768E-03	1.753749E-04
5.714286E+03	6.476819E-03	1.767029E-04
5.724206E+03	6.557247E-03	1.782447E-04
5.734127E+03	6.645520E-03	1.799836E-04
5.744048E+03	6.741235E-03	1.819063E-04
5.753968E+03	6.843724E-03	1.839929E-04
5.763889E+03	6.952111E-03	1.862179E-04
5.773810E+03	7.065449E-03	1.885546E-04
5.783730E+03	7.182666E-03	1.909730E-04
5.793651E+03	7.302643E-03	1.934425E-04
5.803571E+03	7.424015E-03	1.959265E-04
5.813492E+03	7.545331E-03	1.983866E-04
5.823413E+03	7.665303E-03	2.007893E-04
5.833333E+03	7.782390E-03	2.030949E-04
5.843254E+03	7.895125E-03	2.052664E-04
5.853175E+03	8.001993E-03	2.072661E-04
5.863095E+03	8.101622E-03	2.090605E-04
5.873016E+03	8.192827E-03	2.106215E-04
5.882937E+03	8.274481E-03	2.119229E-04
5.892857E+03	8.345453E-03	2.129389E-04
5.902778E+03	8.405050E-03	2.136553E-04
5.912698E+03	8.452715E-03	2.140614E-04
5.922619E+03	8.488023E-03	2.141502E-04
5.932540E+03	8.510874E-03	2.139229E-04
5.942460E+03	8.521393E-03	2.133864E-04
5.952381E+03	8.519931E-03	2.125532E-04
5.962302E+03	8.507042E-03	2.114407E-04
5.972222E+03	8.483379E-03	2.100684E-04
5.982143E+03	8.449753E-03	2.084595E-04
5.992063E+03	8.407355E-03	2.066461E-04
6.001984E+03	8.357214E-03	2.046561E-04
6.011905E+03	8.300419E-03	2.025183E-04
6.021825E+03	8.238171E-03	2.002637E-04
6.031746E+03	8.171669E-03	1.979231E-04
6.041667E+03	8.102079E-03	1.955257E-04
6.051587E+03	8.030516E-03	1.930993E-04
6.061508E+03	7.958016E-03	1.906693E-04
6.071429E+03	7.885531E-03	1.882588E-04
6.081349E+03	7.813828E-03	1.858861E-04
6.091270E+03	7.743723E-03	1.835704E-04
6.101190E+03	7.675761E-03	1.813242E-04
6.111111E+03	7.610448E-03	1.791590E-04
6.121032E+03	7.548248E-03	1.770850E-04
6.130952E+03	7.489273E-03	1.751043E-04
6.140873E+03	7.433666E-03	1.732194E-04
6.150794E+03	7.381449E-03	1.714300E-04
6.160714E+03	7.332645E-03	1.697358E-04
6.170635E+03	7.286977E-03	1.681295E-04
6.180556E+03	7.243929E-03	1.665982E-04
6.190476E+03	7.203312E-03	1.651369E-04
6.200397E+03	7.164540E-03	1.637317E-04
6.210317E+03	7.127257E-03	1.623737E-04
6.220238E+03	7.090983E-03	1.610518E-04
6.230159E+03	7.055435E-03	1.597591E-04
6.240079E+03	7.020228E-03	1.584868E-04
6.250000E+03	6.985201E-03	1.572310E-04
6.259921E+03	6.950112E-03	1.559861E-04
6.269841E+03	6.914940E-03	1.547517E-04
6.279762E+03	6.879593E-03	1.535255E-04
6.289683E+03	6.844193E-03	1.523103E-04
6.299603E+03	6.808779E-03	1.511067E-04
6.309524E+03	6.773585E-03	1.499201E-04
6.319444E+03	6.738823E-03	1.487547E-04
6.329365E+03	6.704659E-03	1.476142E-04
6.339286E+03	6.671432E-03	1.465059E-04
6.349206E+03	6.639489E-03	1.454371E-04
6.359127E+03	6.609040E-03	1.444121E-04
6.369048E+03	6.580434E-03	1.434382E-04
6.378968E+03	6.554006E-03	1.425224E-04
6.388889E+03	6.530074E-03	1.416712E-04
6.398810E+03	6.508932E-03	1.408906E-04
6.408730E+03	6.490916E-03	1.401873E-04
6.418651E+03	6.476113E-03	1.395629E-04
6.428571E+03	6.464862E-03	1.390241E-04
6.438492E+03	6.457172E-03	1.385707E-04
6.448413E+03	6.453006E-03	1.382016E-04
6.458333E+03	6.452354E-03	1.379159E-04
6.468254E+03	6.455079E-03	1.377106E-04
6.478175E+03	6.461066E-03	1.375828E-04
6.488095E+03	6.470146E-03	1.375287E-04
6.498016E+03	6.482094E-03	1.375432E-04
6.507937E+03	6.496631E-03	1.376202E-04
6.517857E+03	6.513507E-03	1.377544E-04
6.527778E+03	6.532346E-03	1.379378E-04
6.537698E+03	6.552730E-03	1.381614E-04
6.547619E+03	6.574208E-03	1.384159E-04
6.557540E+03	6.596375E-03	1.386929E-04
6.567460E+03	6.618807E-03	1.389835E-04
6.577381E+03	6.640836E-03	1.392740E-04
6.587302E+03	6.662186E-03	1.395588E-04
6.597222E+03	6.682187E-03	1.398241E-04
6.607143E+03	6.700512E-03	1.400635E-04
6.617063E+03	6.716613E-03	1.402657E-04
6.626984E+03	6.730141E-03	1.404239E-04
6.636905E+03	6.740711E-03	1.405302E-04
6.646825E+03	6.747984E-03	1.405780E-04
6.656746E+03	6.751761E-03	1.405632E-04
6.666667E+03	6.751664E-03	1.404779E-04
6.676587E+03	6.747794E-03	1.403239E-04
6.686508E+03	6.739905E-03	1.400961E-04
6.696429E+03	6.728155E-03	1.397974E-04
6.706349E+03	6.712436E-03	1.394255E-04
6.716270E+03	6.693041E-03	1.389862E-04
6.726190E+03	6.670071E-03	1.384813E-04
6.736111E+03	6.643773E-03	1.379155E-04
6.746032E+03	6.614520E-03	1.372964E-04
6.755952E+03	6.582562E-03	1.366288E-04
6.765873E+03	6.548347E-03	1.359216E-04
6.775794E+03	6.512261E-03	1.351824E-04
6.785714E+03	6.474616E-03	1.344175E-04
6.795635E+03	6.435899E-03	1.336364E-04
6.805556E+03	6.396595E-03	1.328490E-04
6.815476E+03	6.356936E-03	1.320597E-04
6.825397E+03	6.317423E-03	1.312786E-04
6.835317E+03	6.278484E-03	1.305143E-04
6.845238E+03	6.240440E-03	1.297731E-04
6.855159E+03	6.203810E-03	1.290656E-04
6.865079E+03	6.168813E-03	1.283961E-04
6.875000E+03	6.135679E-03	1.277692E-04
6.884921E+03	6.104576E-03	1.271881E-04
6.894841E+03	6.075604E-03	1.266548E-04
6.904762E+03	6.048798E-03	1.261698E-04
6.914683E+03	6.024134E-03	1.257326E-04
6.924603E+03	6.001535E-03	1.253413E-04
6.934524E+03	5.980797E-03	1.249916E-04
6.944444E+03	5.961923E-03	1.246835E-04
6.954365E+03	5.944566E-03	1.244096E-04
6.964286E+03	5.928685E-03	1.241690E-04
6.974206E+03	5.913907E-03	1.239538E-04
6.984127E+03	5.900025E-03	1.237594E-04
6.994048E+03	5.887003E-03	1.235852E-04
7.003968E+03	5.874417E-03	1.234220E-04
7.013889E+03	5.862352E-03	1.232716E-04
7.023810E+03	5.850511E-03	1.231277E-04
7.033730E+03	5.838790E-03	1.229879E-04
7.043651E+03	5.827107E-03	1.228505E-04
7.053571E+03	5.815488E-03	1.227159E-04
7.063492E+03	5.803733E-03	1.225797E-04
7.073413E+03	5.791901E-03	1.224433E-04
7.083333E+03	5.780064E-03	1.223079E-04
7.093254E+03	5.767967E-03	1.221681E-04
7.103175E+03	5.755847E-03	1.220289E-04
7.113095E+03	5.743444E-03	1.218848E-04
7.123016E+03	5.730893E-03	1.217384E-04
7.132937E+03	5.718072E-03	1.215872E-04
7.142857E+03	5.704925E-03	1.214299E-04
7.152778E+03	5.691295E-03	1.212632E-04
7.162698E+03	5.677091E-03	1.210849E-04
7.172619E+03	5.662284E-03	1.208945E-04
7.182540E+03	5.646669E-03	1.206875E-04
7.192460E+03	5.630033E-03	1.204592E-04
7.202381E+03	5.612312E-03	1.202083E-04
7.212302E+03	5.593201E-03	1.199280E-04
7.222222E+03	5.572715E-03	1.196187E-04
7.232143E+03	5.550556E-03	1.192738E-04
7.242063E+03	5.526600E-03	1.188906E-04
7.251984E+03	5.500661E-03	1.184649E-04
7.261905E+03	5.472729E-03	1.179964E-04
7.271825E+03	5.442671E-03	1.174820E-04
7.281746E+03	5.410457E-03	1.169211E-04
7.291667E+03	5.376018E-03	1.163118E-04
7.301587E+03	5.339321E-03	1.156535E-04
7.311508E+03	5.300521E-03	1.149492E-04
7.321429E+03	5.259582E-03	1.141981E-04
7.331349E+03	5.216804E-03	1.134065E-04
7.341270E+03	5.172142E-03	1.125733E-04
7.351190E+03	5.125949E-03	1.117061E-04
7.361111E+03	5.078303E-03	1.108065E-04
7.371032E+03	5.029519E-03	1.098812E-04
7.380952E+03	4.979769E-03	1.089340E-04
7.390873E+03	4.929378E-03	1.079718E-04
7.400794E+03	4.878588E-03	1.070000E-04
7.410714E+03	4.827637E-03	1.060237E-04
7.420635E+03	4.776739E-03	1.050477E-04
7.430556E+03	4.726097E-03	1.040763E-04
7.440476E+03	4.676022E-03	1.031166E-04
7.450397E+03	4.626523E-03	1.021687E-04
7.460317E+03	4.577858E-03	1.012384E-04
7.470238E+03	4.530116E-03	1.003278E-04
7.480159E+03	4.483359E-03	9.943836E-05
7.490079E+03	4.437750E-03	9.857367E-05
7.500000E+03	4.393159E-03	9.773076E-05
7.509921E+03	4.349628E-03	9.691053E-05
7.519841E+03	4.307181E-03	9.611336E-05
7.529762E+03	4.265758E-03	9.533785E-05
7.539683E+03	4.225289E-03	9.458236E-05
7.549603E+03	4.185762E-03	9.384655E-05
7.559524E+03	4.147038E-03	9.312721E-05
7.569444E+03	4.109108E-03	9.242409E-05
7.579365E+03	4.071844E-03	9.173423E-05
7.589286E+03	4.035321E-03	9.105924E-05
7.599206E+03	3.999431E-03	9.039663E-05
7.609127E+03	3.964150E-03	8.974577E-05
7.619048E+03	3.929519E-03	8.910753E-05
7.628968E+03	3.895475E-03	8.848047E-05
7.638889E+03	3.862025E-03	8.786465E-05
7.648810E+03	3.829238E-03	8.726163E-05
7.658730E+03	3.797071E-03	8.667039E-05
7.668651E+03	3.765602E-03	8.609266E-05
7.678571E+03	3.734789E-03	8.552749E-05
7.688492E+03	3.704653E-03	8.497534E-05
7.698413E+03	3.675209E-03	8.443656E-05
