#wls	flux	fluxerr
1.587302E+03	4.048764E-05	2.238483E-06
1.626984E+03	4.029654E-05	2.221327E-06
1.666667E+03	4.011511E-05	2.204607E-06
1.706349E+03	3.996759E-05	2.189645E-06
1.746032E+03	3.983829E-05	2.175566E-06
1.785714E+03	3.973956E-05	2.163032E-06
1.825397E+03	3.965139E-05	2.150938E-06
1.865079E+03	3.959111E-05	2.140213E-06
1.904762E+03	3.953718E-05	2.129679E-06
1.944444E+03	3.949316E-05	2.119521E-06
1.984127E+03	3.946237E-05	2.109908E-06
2.023810E+03	3.946433E-05	2.101870E-06
2.063492E+03	3.955074E-05	2.098126E-06
2.103175E+03	3.978752E-05	2.102100E-06
2.142857E+03	4.023875E-05	2.117059E-06
2.182540E+03	4.093407E-05	2.144405E-06
2.222222E+03	4.186516E-05	2.183527E-06
2.261905E+03	4.298239E-05	2.231664E-06
2.301587E+03	4.425325E-05	2.286987E-06
2.341270E+03	4.566222E-05	2.348563E-06
2.380952E+03	4.719498E-05	2.415530E-06
2.420635E+03	4.885769E-05	2.488082E-06
2.460317E+03	5.068192E-05	2.567687E-06
2.500000E+03	5.267859E-05	2.654734E-06
2.539683E+03	5.487957E-05	2.750646E-06
2.579365E+03	5.732042E-05	2.856988E-06
2.619048E+03	6.002115E-05	2.974503E-06
2.658730E+03	6.303431E-05	3.105510E-06
2.698413E+03	6.639810E-05	3.251550E-06
2.738095E+03	7.016651E-05	3.414876E-06
2.777778E+03	7.440094E-05	3.598020E-06
2.817460E+03	7.917159E-05	3.803844E-06
2.857143E+03	8.457121E-05	4.036179E-06
2.896825E+03	9.068132E-05	4.298184E-06
2.936508E+03	9.764887E-05	4.595964E-06
2.976190E+03	1.056031E-04	4.934570E-06
2.986111E+03	1.077544E-04	5.025871E-06
2.996032E+03	1.099896E-04	5.120662E-06
3.005952E+03	1.123114E-04	5.219049E-06
3.015873E+03	1.147081E-04	5.320467E-06
3.025794E+03	1.171832E-04	5.425050E-06
3.035714E+03	1.197552E-04	5.533638E-06
3.045635E+03	1.224121E-04	5.645638E-06
3.055556E+03	1.251716E-04	5.761850E-06
3.065476E+03	1.280372E-04	5.882396E-06
3.075397E+03	1.310122E-04	6.007401E-06
3.085317E+03	1.340838E-04	6.136243E-06
3.095238E+03	1.372716E-04	6.269792E-06
3.105159E+03	1.405794E-04	6.408179E-06
3.115079E+03	1.440109E-04	6.551546E-06
3.125000E+03	1.475704E-04	6.700040E-06
3.134921E+03	1.512620E-04	6.853816E-06
3.144841E+03	1.551078E-04	7.013827E-06
3.154762E+03	1.590771E-04	7.178645E-06
3.164683E+03	1.632104E-04	7.350053E-06
3.174603E+03	1.674946E-04	7.527415E-06
3.184524E+03	1.719349E-04	7.710909E-06
3.194444E+03	1.765554E-04	7.901575E-06
3.204365E+03	1.813625E-04	8.099638E-06
3.214286E+03	1.863428E-04	8.304439E-06
3.224206E+03	1.915219E-04	8.517067E-06
3.234127E+03	1.969067E-04	8.737764E-06
3.244048E+03	2.024833E-04	8.965850E-06
3.253968E+03	2.083004E-04	9.203414E-06
3.263889E+03	2.143231E-04	9.448846E-06
3.273810E+03	2.206019E-04	9.704293E-06
3.283730E+03	2.271233E-04	9.969088E-06
3.293651E+03	2.338953E-04	1.024350E-05
3.303571E+03	2.409491E-04	1.052882E-05
3.313492E+03	2.482710E-04	1.082434E-05
3.323413E+03	2.558932E-04	1.113139E-05
3.333333E+03	2.638015E-04	1.144925E-05
3.343254E+03	2.720543E-04	1.178036E-05
3.353175E+03	2.806130E-04	1.212294E-05
3.363095E+03	2.895381E-04	1.247949E-05
3.373016E+03	2.987897E-04	1.284818E-05
3.382937E+03	3.084304E-04	1.323159E-05
3.392857E+03	3.184459E-04	1.362897E-05
3.402778E+03	3.288749E-04	1.404186E-05
3.412698E+03	3.397305E-04	1.447066E-05
3.422619E+03	3.509972E-04	1.491459E-05
3.432540E+03	3.627159E-04	1.537524E-05
3.442460E+03	3.748998E-04	1.585301E-05
3.452381E+03	3.875926E-04	1.634960E-05
3.462302E+03	4.007481E-04	1.686287E-05
3.472222E+03	4.144408E-04	1.739582E-05
3.482143E+03	4.286857E-04	1.794887E-05
3.492063E+03	4.434983E-04	1.852250E-05
3.501984E+03	4.588609E-04	1.911576E-05
3.511905E+03	4.748203E-04	1.973041E-05
3.521825E+03	4.914258E-04	2.036830E-05
3.531746E+03	5.086592E-04	2.102845E-05
3.541667E+03	5.265351E-04	2.171124E-05
3.551587E+03	5.451039E-04	2.241852E-05
3.561508E+03	5.643816E-04	2.315071E-05
3.571429E+03	5.843834E-04	2.390819E-05
3.581349E+03	6.051243E-04	2.469130E-05
3.591270E+03	6.266190E-04	2.550039E-05
3.601190E+03	6.489203E-04	2.633735E-05
3.611111E+03	6.720035E-04	2.720087E-05
3.621032E+03	6.959213E-04	2.809282E-05
3.630952E+03	7.206872E-04	2.901345E-05
3.640873E+03	7.463135E-04	2.996294E-05
3.650794E+03	7.728540E-04	3.094314E-05
3.660714E+03	8.002775E-04	3.195248E-05
3.670635E+03	8.286367E-04	3.299275E-05
3.680556E+03	8.578959E-04	3.406219E-05
3.690476E+03	8.881518E-04	3.516429E-05
3.700397E+03	9.193660E-04	3.629720E-05
3.710317E+03	9.515425E-04	3.746072E-05
3.720238E+03	9.847310E-04	3.865644E-05
3.730159E+03	1.018885E-03	3.988218E-05
3.740079E+03	1.054099E-03	4.114132E-05
3.750000E+03	1.090275E-03	4.242955E-05
3.759921E+03	1.127503E-03	4.375014E-05
3.769841E+03	1.165728E-03	4.510049E-05
3.779762E+03	1.204938E-03	4.647977E-05
3.789683E+03	1.245171E-03	4.788910E-05
3.799603E+03	1.286410E-03	4.932749E-05
3.809524E+03	1.328692E-03	5.079590E-05
3.819444E+03	1.371885E-03	5.228899E-05
3.829365E+03	1.416018E-03	5.380745E-05
3.839286E+03	1.461115E-03	5.535188E-05
3.849206E+03	1.507143E-03	5.692067E-05
3.859127E+03	1.554011E-03	5.851004E-05
3.869048E+03	1.601733E-03	6.012021E-05
3.878968E+03	1.650322E-03	6.175130E-05
3.888889E+03	1.699615E-03	6.339693E-05
3.898810E+03	1.749614E-03	6.505696E-05
3.908730E+03	1.800263E-03	6.672895E-05
3.918651E+03	1.851560E-03	6.841261E-05
3.928571E+03	1.903319E-03	7.010086E-05
3.938492E+03	1.955650E-03	7.179755E-05
3.948413E+03	2.008299E-03	7.349315E-05
3.958333E+03	2.061308E-03	7.518907E-05
3.968254E+03	2.114597E-03	7.688227E-05
3.978175E+03	2.168020E-03	7.856732E-05
3.988095E+03	2.221490E-03	8.024107E-05
3.998016E+03	2.274925E-03	8.190052E-05
4.007937E+03	2.328313E-03	8.354518E-05
4.017857E+03	2.381521E-03	8.517039E-05
4.027778E+03	2.434487E-03	8.677396E-05
4.037698E+03	2.487089E-03	8.835167E-05
4.047619E+03	2.539408E-03	8.990647E-05
4.057540E+03	2.591269E-03	9.143233E-05
4.067460E+03	2.642633E-03	9.292803E-05
4.077381E+03	2.693528E-03	9.439476E-05
4.087302E+03	2.743794E-03	9.582711E-05
4.097222E+03	2.793470E-03	9.722662E-05
4.107143E+03	2.842469E-03	9.859053E-05
4.117063E+03	2.890711E-03	9.991637E-05
4.126984E+03	2.938314E-03	1.012084E-04
4.136905E+03	2.985079E-03	1.024602E-04
4.146825E+03	3.031008E-03	1.036720E-04
4.156746E+03	3.076170E-03	1.048466E-04
4.166667E+03	3.120386E-03	1.059782E-04
4.176587E+03	3.163798E-03	1.070719E-04
4.186508E+03	3.206242E-03	1.081226E-04
4.196429E+03	3.247811E-03	1.091337E-04
4.206349E+03	3.288418E-03	1.101027E-04
4.216270E+03	3.328115E-03	1.110318E-04
4.226190E+03	3.366836E-03	1.119190E-04
4.236111E+03	3.404649E-03	1.127671E-04
4.246032E+03	3.441562E-03	1.135766E-04
4.255952E+03	3.477535E-03	1.143467E-04
4.265873E+03	3.512590E-03	1.150785E-04
4.275794E+03	3.546756E-03	1.157732E-04
4.285714E+03	3.580065E-03	1.164323E-04
4.295635E+03	3.612434E-03	1.170535E-04
4.305556E+03	3.644023E-03	1.176423E-04
4.315476E+03	3.674699E-03	1.181948E-04
4.325397E+03	3.704624E-03	1.187166E-04
4.335317E+03	3.733617E-03	1.192022E-04
4.345238E+03	3.761841E-03	1.196572E-04
4.355159E+03	3.789284E-03	1.200816E-04
4.365079E+03	3.815925E-03	1.204750E-04
4.375000E+03	3.841742E-03	1.208372E-04
4.384921E+03	3.866759E-03	1.211692E-04
4.394841E+03	3.890993E-03	1.214719E-04
4.404762E+03	3.914452E-03	1.217460E-04
4.414683E+03	3.937133E-03	1.219916E-04
4.424603E+03	3.958964E-03	1.222070E-04
4.434524E+03	3.980020E-03	1.223948E-04
4.444444E+03	4.000202E-03	1.225522E-04
4.454365E+03	4.019498E-03	1.226795E-04
4.464286E+03	4.037943E-03	1.227779E-04
4.474206E+03	4.055448E-03	1.228453E-04
4.484127E+03	4.072085E-03	1.228841E-04
4.494048E+03	4.087812E-03	1.228935E-04
4.503968E+03	4.102582E-03	1.228725E-04
4.513889E+03	4.116404E-03	1.228217E-04
4.523810E+03	4.129335E-03	1.227433E-04
4.533730E+03	4.141327E-03	1.226363E-04
4.543651E+03	4.152439E-03	1.225028E-04
4.553571E+03	4.162631E-03	1.223420E-04
4.563492E+03	4.171912E-03	1.221546E-04
4.573413E+03	4.180405E-03	1.219445E-04
4.583333E+03	4.188023E-03	1.217095E-04
4.593254E+03	4.194842E-03	1.214523E-04
4.603175E+03	4.200940E-03	1.211755E-04
4.613095E+03	4.206294E-03	1.208787E-04
4.623016E+03	4.210933E-03	1.205631E-04
4.632937E+03	4.214988E-03	1.202326E-04
4.642857E+03	4.218380E-03	1.198855E-04
4.652778E+03	4.221191E-03	1.195242E-04
4.662698E+03	4.223447E-03	1.191499E-04
4.672619E+03	4.225184E-03	1.187636E-04
4.682540E+03	4.226392E-03	1.183656E-04
4.692460E+03	4.227226E-03	1.179602E-04
4.702381E+03	4.227642E-03	1.175465E-04
4.712302E+03	4.227661E-03	1.171252E-04
4.722222E+03	4.227409E-03	1.167002E-04
4.732143E+03	4.226871E-03	1.162711E-04
4.742063E+03	4.226128E-03	1.158402E-04
4.751984E+03	4.225263E-03	1.154101E-04
4.761905E+03	4.224297E-03	1.149813E-04
4.771825E+03	4.223240E-03	1.145544E-04
4.781746E+03	4.222181E-03	1.141318E-04
4.791667E+03	4.220985E-03	1.137099E-04
4.801587E+03	4.219690E-03	1.132899E-04
4.811508E+03	4.218144E-03	1.128678E-04
4.821429E+03	4.216245E-03	1.124411E-04
4.831349E+03	4.214003E-03	1.120102E-04
4.841270E+03	4.211342E-03	1.115733E-04
4.851190E+03	4.208347E-03	1.111327E-04
4.861111E+03	4.205076E-03	1.106902E-04
4.871032E+03	4.201493E-03	1.102448E-04
4.880952E+03	4.197762E-03	1.098008E-04
4.890873E+03	4.193908E-03	1.093588E-04
4.900794E+03	4.190004E-03	1.089206E-04
4.910714E+03	4.186077E-03	1.084868E-04
4.920635E+03	4.182199E-03	1.080592E-04
4.930556E+03	4.178482E-03	1.076406E-04
4.940476E+03	4.174894E-03	1.072299E-04
4.950397E+03	4.171573E-03	1.068307E-04
4.960317E+03	4.168466E-03	1.064414E-04
4.970238E+03	4.165600E-03	1.060625E-04
4.980159E+03	4.163055E-03	1.056959E-04
4.990079E+03	4.160821E-03	1.053413E-04
5.000000E+03	4.158990E-03	1.050007E-04
5.009921E+03	4.157561E-03	1.046740E-04
5.019841E+03	4.156590E-03	1.043624E-04
5.029762E+03	4.156126E-03	1.040670E-04
5.039683E+03	4.156227E-03	1.037890E-04
5.049603E+03	4.156995E-03	1.035307E-04
5.059524E+03	4.158398E-03	1.032912E-04
5.069444E+03	4.160584E-03	1.030739E-04
5.079365E+03	4.163526E-03	1.028779E-04
5.089286E+03	4.167367E-03	1.027064E-04
5.099206E+03	4.172101E-03	1.025592E-04
5.109127E+03	4.177748E-03	1.024365E-04
5.119048E+03	4.184310E-03	1.023381E-04
5.128968E+03	4.191776E-03	1.022634E-04
5.138889E+03	4.200167E-03	1.022127E-04
5.148810E+03	4.209362E-03	1.021830E-04
5.158730E+03	4.219413E-03	1.021752E-04
5.168651E+03	4.230223E-03	1.021867E-04
5.178571E+03	4.241735E-03	1.022161E-04
5.188492E+03	4.253930E-03	1.022627E-04
5.198413E+03	4.266645E-03	1.023224E-04
5.208333E+03	4.279890E-03	1.023953E-04
5.218254E+03	4.293531E-03	1.024781E-04
5.228175E+03	4.307515E-03	1.025693E-04
5.238095E+03	4.321649E-03	1.026644E-04
5.248016E+03	4.335912E-03	1.027626E-04
5.257937E+03	4.350143E-03	1.028603E-04
5.267857E+03	4.364268E-03	1.029555E-04
5.277778E+03	4.378072E-03	1.030432E-04
5.287698E+03	4.391523E-03	1.031226E-04
5.297619E+03	4.404447E-03	1.031897E-04
5.307540E+03	4.416715E-03	1.032415E-04
5.317460E+03	4.428237E-03	1.032761E-04
5.327381E+03	4.438794E-03	1.032882E-04
5.337302E+03	4.448351E-03	1.032774E-04
5.347222E+03	4.456701E-03	1.032388E-04
5.357143E+03	4.463821E-03	1.031721E-04
5.367063E+03	4.469561E-03	1.030740E-04
5.376984E+03	4.473774E-03	1.029414E-04
5.386905E+03	4.476444E-03	1.027739E-04
5.396825E+03	4.477374E-03	1.025674E-04
5.406746E+03	4.476521E-03	1.023210E-04
5.416667E+03	4.473815E-03	1.020335E-04
5.426587E+03	4.469156E-03	1.017027E-04
5.436508E+03	4.462559E-03	1.013293E-04
5.446429E+03	4.453963E-03	1.009122E-04
5.456349E+03	4.443374E-03	1.004518E-04
5.466270E+03	4.430773E-03	9.994779E-05
5.476190E+03	4.416207E-03	9.940165E-05
5.486111E+03	4.399795E-03	9.881632E-05
5.496032E+03	4.381647E-03	9.819446E-05
5.505952E+03	4.361952E-03	9.754052E-05
5.515873E+03	4.340850E-03	9.685788E-05
5.525794E+03	4.318659E-03	9.615378E-05
5.535714E+03	4.295557E-03	9.543232E-05
5.545635E+03	4.271932E-03	9.470220E-05
5.555556E+03	4.248109E-03	9.397071E-05
5.565476E+03	4.224349E-03	9.324361E-05
5.575397E+03	4.201090E-03	9.253054E-05
5.585317E+03	4.178683E-03	9.183911E-05
5.595238E+03	4.157428E-03	9.117581E-05
5.605159E+03	4.137645E-03	9.054745E-05
5.615079E+03	4.119663E-03	8.996102E-05
5.625000E+03	4.103696E-03	8.942096E-05
5.634921E+03	4.089988E-03	8.893228E-05
5.644841E+03	4.078613E-03	8.849631E-05
5.654762E+03	4.069756E-03	8.811671E-05
5.664683E+03	4.063494E-03	8.779483E-05
5.674603E+03	4.059841E-03	8.753066E-05
5.684524E+03	4.058832E-03	8.732459E-05
5.694444E+03	4.060493E-03	8.717686E-05
5.704365E+03	4.064843E-03	8.708759E-05
5.714286E+03	4.071896E-03	8.705670E-05
5.724206E+03	4.081698E-03	8.708487E-05
5.734127E+03	4.094163E-03	8.716998E-05
5.744048E+03	4.109296E-03	8.731181E-05
5.753968E+03	4.127012E-03	8.750827E-05
5.763889E+03	4.147145E-03	8.775558E-05
5.773810E+03	4.169421E-03	8.804771E-05
5.783730E+03	4.193576E-03	8.837889E-05
5.793651E+03	4.219239E-03	8.874116E-05
5.803571E+03	4.245896E-03	8.912360E-05
5.813492E+03	4.273153E-03	8.951797E-05
5.823413E+03	4.300456E-03	8.991268E-05
5.833333E+03	4.327276E-03	9.029676E-05
5.843254E+03	4.353084E-03	9.065938E-05
5.853175E+03	4.377379E-03	9.099037E-05
5.863095E+03	4.399650E-03	9.127937E-05
5.873016E+03	4.419474E-03	9.151799E-05
5.882937E+03	4.436530E-03	9.170000E-05
5.892857E+03	4.450481E-03	9.181885E-05
5.902778E+03	4.461065E-03	9.186963E-05
5.912698E+03	4.468207E-03	9.185123E-05
5.922619E+03	4.471824E-03	9.176247E-05
5.932540E+03	4.471969E-03	9.160491E-05
5.942460E+03	4.468781E-03	9.138184E-05
5.952381E+03	4.462470E-03	9.109798E-05
5.962302E+03	4.453265E-03	9.075843E-05
5.972222E+03	4.441454E-03	9.036938E-05
5.982143E+03	4.427462E-03	8.993984E-05
5.992063E+03	4.411729E-03	8.947897E-05
6.001984E+03	4.394667E-03	8.899537E-05
6.011905E+03	4.376864E-03	8.850110E-05
6.021825E+03	4.358797E-03	8.800591E-05
6.031746E+03	4.341078E-03	8.752224E-05
6.041667E+03	4.324236E-03	8.706073E-05
6.051587E+03	4.308811E-03	8.663224E-05
6.061508E+03	4.295262E-03	8.624590E-05
6.071429E+03	4.283978E-03	8.590946E-05
6.081349E+03	4.275274E-03	8.562908E-05
6.091270E+03	4.269306E-03	8.540779E-05
6.101190E+03	4.266120E-03	8.524639E-05
6.111111E+03	4.265656E-03	8.514353E-05
6.121032E+03	4.267897E-03	8.509884E-05
6.130952E+03	4.272757E-03	8.511039E-05
6.140873E+03	4.280153E-03	8.517629E-05
6.150794E+03	4.289922E-03	8.529300E-05
6.160714E+03	4.301769E-03	8.545448E-05
6.170635E+03	4.315417E-03	8.565497E-05
6.180556E+03	4.330358E-03	8.588425E-05
6.190476E+03	4.346053E-03	8.613144E-05
6.200397E+03	4.362023E-03	8.638694E-05
6.210317E+03	4.377522E-03	8.663591E-05
6.220238E+03	4.391901E-03	8.686537E-05
6.230159E+03	4.404513E-03	8.706248E-05
6.240079E+03	4.414782E-03	8.721584E-05
6.250000E+03	4.422009E-03	8.731159E-05
6.259921E+03	4.425695E-03	8.733989E-05
6.269841E+03	4.425495E-03	8.729387E-05
6.279762E+03	4.421040E-03	8.716625E-05
6.289683E+03	4.412233E-03	8.695510E-05
6.299603E+03	4.398957E-03	8.665809E-05
6.309524E+03	4.381415E-03	8.627915E-05
6.319444E+03	4.359831E-03	8.582265E-05
6.329365E+03	4.334582E-03	8.529597E-05
6.339286E+03	4.306028E-03	8.470610E-05
6.349206E+03	4.274659E-03	8.406259E-05
6.359127E+03	4.240977E-03	8.337520E-05
6.369048E+03	4.205393E-03	8.265194E-05
6.378968E+03	4.168333E-03	8.190106E-05
6.388889E+03	4.130269E-03	8.113171E-05
6.398810E+03	4.091499E-03	8.034965E-05
6.408730E+03	4.052376E-03	7.956167E-05
6.418651E+03	4.013167E-03	7.877292E-05
6.428571E+03	3.974104E-03	7.798783E-05
6.438492E+03	3.935404E-03	7.721056E-05
6.448413E+03	3.897104E-03	7.644173E-05
6.458333E+03	3.859401E-03	7.568511E-05
6.468254E+03	3.822265E-03	7.493998E-05
6.478175E+03	3.785770E-03	7.420774E-05
6.488095E+03	3.749939E-03	7.348874E-05
6.498016E+03	3.714741E-03	7.278228E-05
6.507937E+03	3.680204E-03	7.208886E-05
6.517857E+03	3.646268E-03	7.140720E-05
6.527778E+03	3.612943E-03	7.073744E-05
6.537698E+03	3.580194E-03	7.007885E-05
6.547619E+03	3.547985E-03	6.943065E-05
6.557540E+03	3.516243E-03	6.879135E-05
6.567460E+03	3.485004E-03	6.816162E-05
6.577381E+03	3.454194E-03	6.753997E-05
6.587302E+03	3.423778E-03	6.692566E-05
6.597222E+03	3.393724E-03	6.631804E-05
6.607143E+03	3.364048E-03	6.571738E-05
6.617063E+03	3.334707E-03	6.512283E-05
6.626984E+03	3.305758E-03	6.453545E-05
6.636905E+03	3.277231E-03	6.395582E-05
6.646825E+03	3.249130E-03	6.338398E-05
6.656746E+03	3.221525E-03	6.282130E-05
6.666667E+03	3.194453E-03	6.226845E-05
6.676587E+03	3.167915E-03	6.172543E-05
6.686508E+03	3.142027E-03	6.119449E-05
6.696429E+03	3.116769E-03	6.067522E-05
6.706349E+03	3.092231E-03	6.016931E-05
6.716270E+03	3.068507E-03	5.967860E-05
6.726190E+03	3.045594E-03	5.920298E-05
6.736111E+03	3.023592E-03	5.874440E-05
6.746032E+03	3.002571E-03	5.830414E-05
6.755952E+03	2.982602E-03	5.788361E-05
6.765873E+03	2.963763E-03	5.748425E-05
6.775794E+03	2.946139E-03	5.710769E-05
6.785714E+03	2.929814E-03	5.675552E-05
6.795635E+03	2.914904E-03	5.642996E-05
6.805556E+03	2.901416E-03	5.613105E-05
6.815476E+03	2.889454E-03	5.586082E-05
6.825397E+03	2.879124E-03	5.562121E-05
6.835317E+03	2.870434E-03	5.541234E-05
6.845238E+03	2.863527E-03	5.523689E-05
6.855159E+03	2.858400E-03	5.509475E-05
6.865079E+03	2.855184E-03	5.498836E-05
6.875000E+03	2.853899E-03	5.491804E-05
6.884921E+03	2.854591E-03	5.488455E-05
6.894841E+03	2.857260E-03	5.488784E-05
6.904762E+03	2.861995E-03	5.492949E-05
6.914683E+03	2.868789E-03	5.500929E-05
6.924603E+03	2.877528E-03	5.512493E-05
6.934524E+03	2.888170E-03	5.527552E-05
6.944444E+03	2.900601E-03	5.545878E-05
6.954365E+03	2.914713E-03	5.567256E-05
6.964286E+03	2.930265E-03	5.591215E-05
6.974206E+03	2.947160E-03	5.617561E-05
6.984127E+03	2.965204E-03	5.645922E-05
6.994048E+03	2.984220E-03	5.675950E-05
7.003968E+03	3.004158E-03	5.707548E-05
7.013889E+03	3.024888E-03	5.740466E-05
7.023810E+03	3.046337E-03	5.774558E-05
7.033730E+03	3.068440E-03	5.809701E-05
7.043651E+03	3.091147E-03	5.845796E-05
7.053571E+03	3.114408E-03	5.882749E-05
7.063492E+03	3.138215E-03	5.920543E-05
7.073413E+03	3.162437E-03	5.958931E-05
7.083333E+03	3.187057E-03	5.997878E-05
7.093254E+03	3.212049E-03	6.037338E-05
7.103175E+03	3.237297E-03	6.077096E-05
7.113095E+03	3.262711E-03	6.116983E-05
7.123016E+03	3.288187E-03	6.156809E-05
7.132937E+03	3.313604E-03	6.196354E-05
7.142857E+03	3.338867E-03	6.235443E-05
7.152778E+03	3.363736E-03	6.273638E-05
7.162698E+03	3.388116E-03	6.310771E-05
7.172619E+03	3.411763E-03	6.346397E-05
7.182540E+03	3.434489E-03	6.380182E-05
7.192460E+03	3.455988E-03	6.411572E-05
7.202381E+03	3.475968E-03	6.440040E-05
7.212302E+03	3.494158E-03	6.465109E-05
7.222222E+03	3.510179E-03	6.486098E-05
7.232143E+03	3.523687E-03	6.502398E-05
7.242063E+03	3.534385E-03	6.513491E-05
7.251984E+03	3.541940E-03	6.518791E-05
7.261905E+03	3.545994E-03	6.517677E-05
7.271825E+03	3.546339E-03	6.509801E-05
7.281746E+03	3.542749E-03	6.494783E-05
7.291667E+03	3.535170E-03	6.472565E-05
7.301587E+03	3.523592E-03	6.443167E-05
7.311508E+03	3.508064E-03	6.406713E-05
7.321429E+03	3.488811E-03	6.363650E-05
7.331349E+03	3.466073E-03	6.314452E-05
7.341270E+03	3.440103E-03	6.259608E-05
7.351190E+03	3.411282E-03	6.199839E-05
7.361111E+03	3.380008E-03	6.135893E-05
7.371032E+03	3.346603E-03	6.068379E-05
7.380952E+03	3.311437E-03	5.997981E-05
7.390873E+03	3.274910E-03	5.925440E-05
7.400794E+03	3.237312E-03	5.851294E-05
7.410714E+03	3.198915E-03	5.776042E-05
7.420635E+03	3.160089E-03	5.700360E-05
7.430556E+03	3.120960E-03	5.624480E-05
7.440476E+03	3.081839E-03	5.548965E-05
7.450397E+03	3.042882E-03	5.474097E-05
7.460317E+03	3.004299E-03	5.400255E-05
7.470238E+03	2.966160E-03	5.327560E-05
7.480159E+03	2.928665E-03	5.256373E-05
7.490079E+03	2.891867E-03	5.186786E-05
7.500000E+03	2.855795E-03	5.118845E-05
7.509921E+03	2.820564E-03	5.052756E-05
7.519841E+03	2.786103E-03	4.988375E-05
7.529762E+03	2.752428E-03	4.925717E-05
7.539683E+03	2.719499E-03	4.864683E-05
7.549603E+03	2.687254E-03	4.805147E-05
7.559524E+03	2.655587E-03	4.746901E-05
7.569444E+03	2.624438E-03	4.689821E-05
7.579365E+03	2.593837E-03	4.633941E-05
7.589286E+03	2.563706E-03	4.579109E-05
7.599206E+03	2.534235E-03	4.525648E-05
7.609127E+03	2.505525E-03	4.473722E-05
7.619048E+03	2.477616E-03	4.423388E-05
7.628968E+03	2.450555E-03	4.374718E-05
7.638889E+03	2.424405E-03	4.327812E-05
7.648810E+03	2.399144E-03	4.282615E-05
7.658730E+03	2.374773E-03	4.239120E-05
7.668651E+03	2.351318E-03	4.197362E-05
7.678571E+03	2.328733E-03	4.157247E-05
7.688492E+03	2.307034E-03	4.118794E-05
7.698413E+03	2.286172E-03	4.081909E-05
