#wls	flux	fluxerr
1.587302E+03	3.949060E-05	3.073319E-06
1.626984E+03	3.921961E-05	3.042278E-06
1.666667E+03	3.898113E-05	3.013654E-06
1.706349E+03	3.876050E-05	2.986291E-06
1.746032E+03	3.855766E-05	2.960171E-06
1.785714E+03	3.838451E-05	2.936189E-06
1.825397E+03	3.823647E-05	2.913968E-06
1.865079E+03	3.810043E-05	2.892493E-06
1.904762E+03	3.797049E-05	2.871303E-06
1.944444E+03	3.785744E-05	2.851204E-06
1.984127E+03	3.775703E-05	2.831861E-06
2.023810E+03	3.769513E-05	2.815190E-06
2.063492E+03	3.770639E-05	2.803729E-06
2.103175E+03	3.786763E-05	2.803087E-06
2.142857E+03	3.822453E-05	2.816472E-06
2.182540E+03	3.881863E-05	2.846719E-06
2.222222E+03	3.963375E-05	2.892379E-06
2.261905E+03	4.062933E-05	2.950249E-06
2.301587E+03	4.175903E-05	3.016756E-06
2.341270E+03	4.300721E-05	3.090595E-06
2.380952E+03	4.437529E-05	3.171698E-06
2.420635E+03	4.586906E-05	3.260298E-06
2.460317E+03	4.748509E-05	3.355962E-06
2.500000E+03	4.926542E-05	3.461449E-06
2.539683E+03	5.122248E-05	3.577376E-06
2.579365E+03	5.338835E-05	3.705689E-06
2.619048E+03	5.578022E-05	3.847244E-06
2.658730E+03	5.844575E-05	4.004942E-06
2.698413E+03	6.140910E-05	4.179983E-06
2.738095E+03	6.472799E-05	4.375780E-06
2.777778E+03	6.844724E-05	4.594748E-06
2.817460E+03	7.262905E-05	4.840358E-06
2.857143E+03	7.734501E-05	5.116557E-06
2.896825E+03	8.268966E-05	5.428626E-06
2.936508E+03	8.876035E-05	5.781808E-06
2.976190E+03	9.568310E-05	6.182961E-06
2.986111E+03	9.757373E-05	6.292296E-06
2.996032E+03	9.952736E-05	6.405129E-06
3.005952E+03	1.015326E-04	6.520700E-06
3.015873E+03	1.036188E-04	6.640866E-06
3.025794E+03	1.057894E-04	6.765817E-06
3.035714E+03	1.080345E-04	6.894876E-06
3.045635E+03	1.103561E-04	7.028135E-06
3.055556E+03	1.127712E-04	7.166646E-06
3.065476E+03	1.152682E-04	7.309624E-06
3.075397E+03	1.178645E-04	7.458140E-06
3.085317E+03	1.205484E-04	7.611405E-06
3.095238E+03	1.233381E-04	7.770522E-06
3.105159E+03	1.262372E-04	7.935673E-06
3.115079E+03	1.292335E-04	8.106043E-06
3.125000E+03	1.323624E-04	8.283801E-06
3.134921E+03	1.355961E-04	8.467150E-06
3.144841E+03	1.389547E-04	8.657286E-06
3.154762E+03	1.424590E-04	8.855457E-06
3.164683E+03	1.460806E-04	9.059817E-06
3.174603E+03	1.498578E-04	9.272693E-06
3.184524E+03	1.537786E-04	9.493266E-06
3.194444E+03	1.578483E-04	9.721792E-06
3.204365E+03	1.620901E-04	9.959630E-06
3.214286E+03	1.664918E-04	1.020594E-05
3.224206E+03	1.710778E-04	1.046216E-05
3.234127E+03	1.758358E-04	1.072742E-05
3.244048E+03	1.807909E-04	1.100319E-05
3.253968E+03	1.859505E-04	1.128980E-05
3.263889E+03	1.913218E-04	1.158761E-05
3.273810E+03	1.969125E-04	1.189698E-05
3.283730E+03	2.027304E-04	1.221826E-05
3.293651E+03	2.087836E-04	1.255182E-05
3.303571E+03	2.151018E-04	1.289935E-05
3.313492E+03	2.216729E-04	1.325998E-05
3.323413E+03	2.285057E-04	1.363411E-05
3.333333E+03	2.356318E-04	1.402349E-05
3.343254E+03	2.430618E-04	1.442861E-05
3.353175E+03	2.508065E-04	1.484996E-05
3.363095E+03	2.588529E-04	1.528660E-05
3.373016E+03	2.672598E-04	1.574186E-05
3.382937E+03	2.760152E-04	1.621483E-05
3.392857E+03	2.851564E-04	1.670755E-05
3.402778E+03	2.946451E-04	1.721756E-05
3.412698E+03	3.045711E-04	1.774994E-05
3.422619E+03	3.148963E-04	1.830223E-05
3.432540E+03	3.256607E-04	1.887656E-05
3.442460E+03	3.368789E-04	1.947354E-05
3.452381E+03	3.485653E-04	2.009378E-05
3.462302E+03	3.607350E-04	2.073790E-05
3.472222E+03	3.734325E-04	2.140820E-05
3.482143E+03	3.866748E-04	2.210538E-05
3.492063E+03	4.004479E-04	2.282836E-05
3.501984E+03	4.147987E-04	2.357953E-05
3.511905E+03	4.297443E-04	2.435956E-05
3.521825E+03	4.453019E-04	2.516911E-05
3.531746E+03	4.615219E-04	2.601069E-05
3.541667E+03	4.783894E-04	2.688312E-05
3.551587E+03	4.959215E-04	2.778703E-05
3.561508E+03	5.142052E-04	2.872691E-05
3.571429E+03	5.331894E-04	2.969953E-05
3.581349E+03	5.529635E-04	3.070947E-05
3.591270E+03	5.735100E-04	3.175534E-05
3.601190E+03	5.948465E-04	3.283771E-05
3.611111E+03	6.170285E-04	3.395921E-05
3.621032E+03	6.400742E-04	3.512037E-05
3.630952E+03	6.640014E-04	3.632172E-05
3.640873E+03	6.888270E-04	3.756369E-05
3.650794E+03	7.145669E-04	3.884666E-05
3.660714E+03	7.412780E-04	4.017323E-05
3.670635E+03	7.689765E-04	4.154374E-05
3.680556E+03	7.976329E-04	4.295606E-05
3.690476E+03	8.273474E-04	4.441504E-05
3.700397E+03	8.580430E-04	4.591599E-05
3.710317E+03	8.898194E-04	4.746369E-05
3.720238E+03	9.226867E-04	4.905809E-05
3.730159E+03	9.566053E-04	5.069647E-05
3.740079E+03	9.916272E-04	5.238101E-05
3.750000E+03	1.027755E-03	5.411126E-05
3.759921E+03	1.065041E-03	5.588928E-05
3.769841E+03	1.103382E-03	5.770909E-05
3.779762E+03	1.142876E-03	5.957516E-05
3.789683E+03	1.183515E-03	6.148652E-05
3.799603E+03	1.225291E-03	6.344204E-05
3.809524E+03	1.268136E-03	6.543756E-05
3.819444E+03	1.312142E-03	6.747730E-05
3.829365E+03	1.357234E-03	6.955667E-05
3.839286E+03	1.403388E-03	7.167387E-05
3.849206E+03	1.450576E-03	7.382691E-05
3.859127E+03	1.498822E-03	7.601630E-05
3.869048E+03	1.548090E-03	7.823979E-05
3.878968E+03	1.598282E-03	8.049172E-05
3.888889E+03	1.649470E-03	8.277527E-05
3.898810E+03	1.701486E-03	8.508147E-05
3.908730E+03	1.754335E-03	8.741002E-05
3.918651E+03	1.807958E-03	8.975757E-05
3.928571E+03	1.862353E-03	9.212360E-05
3.938492E+03	1.917331E-03	9.449827E-05
3.948413E+03	1.972879E-03	9.688066E-05
3.958333E+03	2.028987E-03	9.926995E-05
3.968254E+03	2.085448E-03	1.016558E-04
3.978175E+03	2.142311E-03	1.040402E-04
3.988095E+03	2.199432E-03	1.064161E-04
3.998016E+03	2.256667E-03	1.087763E-04
4.007937E+03	2.314003E-03	1.111203E-04
4.017857E+03	2.371369E-03	1.134445E-04
4.027778E+03	2.428697E-03	1.157456E-04
4.037698E+03	2.485858E-03	1.180175E-04
4.047619E+03	2.542794E-03	1.202577E-04
4.057540E+03	2.599451E-03	1.224638E-04
4.067460E+03	2.655716E-03	1.246304E-04
4.077381E+03	2.711613E-03	1.267591E-04
4.087302E+03	2.767104E-03	1.288483E-04
4.097222E+03	2.821957E-03	1.308875E-04
4.107143E+03	2.876344E-03	1.328849E-04
4.117063E+03	2.930046E-03	1.348309E-04
4.126984E+03	2.983112E-03	1.367280E-04
4.136905E+03	3.035465E-03	1.385732E-04
4.146825E+03	3.087036E-03	1.403637E-04
4.156746E+03	3.137829E-03	1.421002E-04
4.166667E+03	3.187784E-03	1.437805E-04
4.176587E+03	3.236919E-03	1.454060E-04
4.186508E+03	3.285190E-03	1.469750E-04
4.196429E+03	3.332562E-03	1.484868E-04
4.206349E+03	3.379075E-03	1.499434E-04
4.216270E+03	3.424644E-03	1.513419E-04
4.226190E+03	3.469259E-03	1.526823E-04
4.236111E+03	3.513048E-03	1.539708E-04
4.246032E+03	3.555885E-03	1.552026E-04
4.255952E+03	3.597847E-03	1.563814E-04
4.265873E+03	3.638949E-03	1.575087E-04
4.275794E+03	3.679149E-03	1.585831E-04
4.285714E+03	3.718601E-03	1.596118E-04
4.295635E+03	3.757206E-03	1.605911E-04
4.305556E+03	3.794996E-03	1.615230E-04
4.315476E+03	3.832134E-03	1.624149E-04
4.325397E+03	3.868465E-03	1.632608E-04
4.335317E+03	3.904149E-03	1.640679E-04
4.345238E+03	3.939219E-03	1.648381E-04
4.355159E+03	3.973642E-03	1.655706E-04
4.365079E+03	4.007507E-03	1.662693E-04
4.375000E+03	4.040766E-03	1.669330E-04
4.384921E+03	4.073434E-03	1.675625E-04
4.394841E+03	4.105509E-03	1.681583E-04
4.404762E+03	4.136986E-03	1.687207E-04
4.414683E+03	4.167903E-03	1.692516E-04
4.424603E+03	4.198230E-03	1.697504E-04
4.434524E+03	4.227917E-03	1.702155E-04
4.444444E+03	4.257030E-03	1.706500E-04
4.454365E+03	4.285494E-03	1.710514E-04
4.464286E+03	4.313345E-03	1.714217E-04
4.474206E+03	4.340431E-03	1.717554E-04
4.484127E+03	4.366829E-03	1.720560E-04
4.494048E+03	4.392373E-03	1.723175E-04
4.503968E+03	4.417069E-03	1.725410E-04
4.513889E+03	4.440861E-03	1.727247E-04
4.523810E+03	4.463694E-03	1.728672E-04
4.533730E+03	4.485568E-03	1.729693E-04
4.543651E+03	4.506427E-03	1.730293E-04
4.553571E+03	4.526274E-03	1.730482E-04
4.563492E+03	4.544998E-03	1.730224E-04
4.573413E+03	4.562666E-03	1.729551E-04
4.583333E+03	4.579231E-03	1.728455E-04
4.593254E+03	4.594710E-03	1.726947E-04
4.603175E+03	4.609063E-03	1.725021E-04
4.613095E+03	4.622368E-03	1.722714E-04
4.623016E+03	4.634537E-03	1.719998E-04
4.632937E+03	4.645708E-03	1.716933E-04
4.642857E+03	4.655856E-03	1.713516E-04
4.652778E+03	4.665013E-03	1.709766E-04
4.662698E+03	4.673218E-03	1.705702E-04
4.672619E+03	4.680514E-03	1.701349E-04
4.682540E+03	4.686954E-03	1.696729E-04
4.692460E+03	4.692596E-03	1.691871E-04
4.702381E+03	4.697563E-03	1.686823E-04
4.712302E+03	4.701933E-03	1.681619E-04
4.722222E+03	4.705782E-03	1.676289E-04
4.732143E+03	4.709196E-03	1.670870E-04
4.742063E+03	4.712258E-03	1.665392E-04
4.751984E+03	4.714879E-03	1.659830E-04
4.761905E+03	4.717190E-03	1.654231E-04
4.771825E+03	4.719087E-03	1.648563E-04
4.781746E+03	4.720563E-03	1.642828E-04
4.791667E+03	4.721653E-03	1.637039E-04
4.801587E+03	4.722211E-03	1.631151E-04
4.811508E+03	4.722305E-03	1.625190E-04
4.821429E+03	4.721738E-03	1.619093E-04
4.831349E+03	4.720665E-03	1.612916E-04
4.841270E+03	4.718999E-03	1.606633E-04
4.851190E+03	4.716834E-03	1.600279E-04
4.861111E+03	4.714166E-03	1.593858E-04
4.871032E+03	4.711114E-03	1.587411E-04
4.880952E+03	4.707697E-03	1.580946E-04
4.890873E+03	4.704093E-03	1.574522E-04
4.900794E+03	4.700275E-03	1.568128E-04
4.910714E+03	4.696373E-03	1.561806E-04
4.920635E+03	4.692411E-03	1.555563E-04
4.930556E+03	4.688570E-03	1.549456E-04
4.940476E+03	4.684867E-03	1.543488E-04
4.950397E+03	4.681312E-03	1.537661E-04
4.960317E+03	4.678072E-03	1.532026E-04
4.970238E+03	4.675151E-03	1.526582E-04
4.980159E+03	4.672658E-03	1.521361E-04
4.990079E+03	4.670547E-03	1.516346E-04
5.000000E+03	4.668980E-03	1.511585E-04
5.009921E+03	4.667971E-03	1.507080E-04
5.019841E+03	4.667632E-03	1.502863E-04
5.029762E+03	4.667978E-03	1.498935E-04
5.039683E+03	4.669129E-03	1.495332E-04
5.049603E+03	4.671152E-03	1.492071E-04
5.059524E+03	4.674059E-03	1.489151E-04
5.069444E+03	4.677913E-03	1.486589E-04
5.079365E+03	4.682821E-03	1.484415E-04
5.089286E+03	4.688832E-03	1.482639E-04
5.099206E+03	4.695981E-03	1.481270E-04
5.109127E+03	4.704240E-03	1.480293E-04
5.119048E+03	4.713666E-03	1.479723E-04
5.128968E+03	4.724251E-03	1.479554E-04
5.138889E+03	4.735923E-03	1.479758E-04
5.148810E+03	4.748748E-03	1.480352E-04
5.158730E+03	4.762576E-03	1.481287E-04
5.168651E+03	4.777347E-03	1.482539E-04
5.178571E+03	4.793089E-03	1.484114E-04
5.188492E+03	4.809616E-03	1.485952E-04
5.198413E+03	4.826882E-03	1.488036E-04
5.208333E+03	4.844730E-03	1.490314E-04
5.218254E+03	4.863091E-03	1.492764E-04
5.228175E+03	4.881836E-03	1.495343E-04
5.238095E+03	4.900827E-03	1.498007E-04
5.248016E+03	4.919861E-03	1.500693E-04
5.257937E+03	4.938782E-03	1.503351E-04
5.267857E+03	4.957478E-03	1.505948E-04
5.277778E+03	4.975721E-03	1.508414E-04
5.287698E+03	4.993390E-03	1.510711E-04
5.297619E+03	5.010249E-03	1.512768E-04
5.307540E+03	5.026112E-03	1.514529E-04
5.317460E+03	5.040845E-03	1.515956E-04
5.327381E+03	5.054162E-03	1.516963E-04
5.337302E+03	5.065986E-03	1.517528E-04
5.347222E+03	5.076098E-03	1.517588E-04
5.357143E+03	5.084285E-03	1.517081E-04
5.367063E+03	5.090512E-03	1.515998E-04
5.376984E+03	5.094550E-03	1.514275E-04
5.386905E+03	5.096345E-03	1.511898E-04
5.396825E+03	5.095812E-03	1.508845E-04
5.406746E+03	5.092893E-03	1.505101E-04
5.416667E+03	5.087499E-03	1.500643E-04
5.426587E+03	5.079723E-03	1.495503E-04
5.436508E+03	5.069475E-03	1.489656E-04
5.446429E+03	5.056846E-03	1.483133E-04
5.456349E+03	5.041850E-03	1.475941E-04
5.466270E+03	5.024629E-03	1.468125E-04
5.476190E+03	5.005256E-03	1.459708E-04
5.486111E+03	4.983932E-03	1.450753E-04
5.496032E+03	4.960796E-03	1.441302E-04
5.505952E+03	4.936119E-03	1.431436E-04
5.515873E+03	4.910211E-03	1.421247E-04
5.525794E+03	4.883264E-03	1.410793E-04
5.535714E+03	4.855656E-03	1.400182E-04
5.545635E+03	4.827735E-03	1.389517E-04
5.555556E+03	4.799920E-03	1.378917E-04
5.565476E+03	4.772499E-03	1.368465E-04
5.575397E+03	4.745952E-03	1.358297E-04
5.585317E+03	4.720563E-03	1.348493E-04
5.595238E+03	4.696792E-03	1.339182E-04
5.605159E+03	4.674885E-03	1.330432E-04
5.615079E+03	4.655244E-03	1.322353E-04
5.625000E+03	4.638094E-03	1.315006E-04
5.634921E+03	4.623622E-03	1.308439E-04
5.644841E+03	4.612062E-03	1.302715E-04
5.654762E+03	4.603605E-03	1.297883E-04
5.664683E+03	4.598273E-03	1.293945E-04
5.674603E+03	4.596189E-03	1.290931E-04
5.684524E+03	4.597357E-03	1.288836E-04
5.694444E+03	4.601893E-03	1.287688E-04
5.704365E+03	4.609708E-03	1.287458E-04
5.714286E+03	4.620778E-03	1.288135E-04
5.724206E+03	4.635097E-03	1.289712E-04
5.734127E+03	4.652579E-03	1.292161E-04
5.744048E+03	4.673004E-03	1.295416E-04
5.753968E+03	4.696277E-03	1.299449E-04
5.763889E+03	4.722110E-03	1.304174E-04
5.773810E+03	4.750193E-03	1.309506E-04
5.783730E+03	4.780150E-03	1.315336E-04
5.793651E+03	4.811499E-03	1.321531E-04
5.803571E+03	4.843789E-03	1.327967E-04
5.813492E+03	4.876440E-03	1.334484E-04
5.823413E+03	4.908925E-03	1.340940E-04
5.833333E+03	4.940611E-03	1.347164E-04
5.843254E+03	4.970868E-03	1.352985E-04
5.853175E+03	4.999172E-03	1.358267E-04
5.863095E+03	5.024995E-03	1.362870E-04
5.873016E+03	5.047805E-03	1.366654E-04
5.882937E+03	5.067185E-03	1.369514E-04
5.892857E+03	5.082843E-03	1.371377E-04
5.902778E+03	5.094382E-03	1.372142E-04
5.912698E+03	5.101789E-03	1.371814E-04
5.922619E+03	5.104860E-03	1.370344E-04
5.932540E+03	5.103731E-03	1.367778E-04
5.942460E+03	5.098439E-03	1.364131E-04
5.952381E+03	5.089255E-03	1.359483E-04
5.962302E+03	5.076440E-03	1.353910E-04
5.972222E+03	5.060375E-03	1.347519E-04
5.982143E+03	5.041507E-03	1.340434E-04
5.992063E+03	5.020299E-03	1.332784E-04
6.001984E+03	4.997351E-03	1.324730E-04
6.011905E+03	4.973202E-03	1.316419E-04
6.021825E+03	4.948411E-03	1.308000E-04
6.031746E+03	4.923634E-03	1.299649E-04
6.041667E+03	4.899457E-03	1.291521E-04
6.051587E+03	4.876381E-03	1.283748E-04
6.061508E+03	4.854900E-03	1.276460E-04
6.071429E+03	4.835428E-03	1.269765E-04
6.081349E+03	4.818296E-03	1.263748E-04
6.091270E+03	4.803731E-03	1.258469E-04
6.101190E+03	4.791827E-03	1.253950E-04
6.111111E+03	4.782686E-03	1.250217E-04
6.121032E+03	4.776247E-03	1.247251E-04
6.130952E+03	4.772388E-03	1.245018E-04
6.140873E+03	4.770968E-03	1.243476E-04
6.150794E+03	4.771830E-03	1.242581E-04
6.160714E+03	4.774686E-03	1.242254E-04
6.170635E+03	4.779193E-03	1.242403E-04
6.180556E+03	4.784890E-03	1.242905E-04
6.190476E+03	4.791255E-03	1.243621E-04
6.200397E+03	4.797760E-03	1.244414E-04
6.210317E+03	4.803795E-03	1.245123E-04
6.220238E+03	4.808689E-03	1.245572E-04
6.230159E+03	4.811962E-03	1.245637E-04
6.240079E+03	4.812881E-03	1.245126E-04
6.250000E+03	4.811050E-03	1.243936E-04
6.259921E+03	4.805954E-03	1.241934E-04
6.269841E+03	4.797269E-03	1.239034E-04
6.279762E+03	4.784683E-03	1.235157E-04
6.289683E+03	4.768190E-03	1.230300E-04
6.299603E+03	4.747669E-03	1.224432E-04
6.309524E+03	4.723308E-03	1.217600E-04
6.319444E+03	4.695301E-03	1.209853E-04
6.329365E+03	4.663931E-03	1.201263E-04
6.339286E+03	4.629644E-03	1.191945E-04
6.349206E+03	4.592787E-03	1.181988E-04
6.359127E+03	4.553872E-03	1.171520E-04
6.369048E+03	4.513367E-03	1.160662E-04
6.378968E+03	4.471679E-03	1.149517E-04
6.388889E+03	4.429189E-03	1.138181E-04
6.398810E+03	4.386387E-03	1.126780E-04
6.408730E+03	4.343535E-03	1.115378E-04
6.418651E+03	4.300991E-03	1.104067E-04
6.428571E+03	4.258935E-03	1.092891E-04
6.438492E+03	4.217633E-03	1.081916E-04
6.448413E+03	4.177175E-03	1.071166E-04
6.458333E+03	4.137697E-03	1.060673E-04
6.468254E+03	4.099176E-03	1.050430E-04
6.478175E+03	4.061731E-03	1.040466E-04
6.488095E+03	4.025326E-03	1.030771E-04
6.498016E+03	3.989906E-03	1.021330E-04
6.507937E+03	3.955404E-03	1.012124E-04
6.517857E+03	3.921816E-03	1.003153E-04
6.527778E+03	3.889050E-03	9.943902E-05
6.537698E+03	3.857042E-03	9.858197E-05
6.547619E+03	3.825686E-03	9.774137E-05
6.557540E+03	3.794912E-03	9.691533E-05
6.567460E+03	3.764652E-03	9.610205E-05
6.577381E+03	3.734838E-03	9.529980E-05
6.587302E+03	3.705410E-03	9.450694E-05
6.597222E+03	3.676314E-03	9.372209E-05
6.607143E+03	3.647508E-03	9.294413E-05
6.617063E+03	3.618963E-03	9.217228E-05
6.626984E+03	3.590622E-03	9.140511E-05
6.636905E+03	3.562526E-03	9.064362E-05
6.646825E+03	3.534722E-03	8.988899E-05
6.656746E+03	3.507194E-03	8.914077E-05
6.666667E+03	3.479929E-03	8.839865E-05
6.676587E+03	3.453044E-03	8.766547E-05
6.686508E+03	3.426586E-03	8.694240E-05
6.696429E+03	3.400572E-03	8.622982E-05
6.706349E+03	3.375065E-03	8.552932E-05
6.716270E+03	3.350178E-03	8.484366E-05
6.726190E+03	3.325954E-03	8.417393E-05
6.736111E+03	3.302555E-03	8.352414E-05
6.746032E+03	3.280000E-03	8.289475E-05
6.755952E+03	3.258423E-03	8.228906E-05
6.765873E+03	3.237963E-03	8.171055E-05
6.775794E+03	3.218648E-03	8.115983E-05
6.785714E+03	3.200618E-03	8.064039E-05
6.795635E+03	3.184008E-03	8.015556E-05
6.805556E+03	3.168878E-03	7.970671E-05
6.815476E+03	3.155316E-03	7.929603E-05
6.825397E+03	3.143413E-03	7.892564E-05
6.835317E+03	3.133291E-03	7.859854E-05
6.845238E+03	3.124995E-03	7.831573E-05
6.855159E+03	3.118595E-03	7.807884E-05
6.865079E+03	3.114189E-03	7.789016E-05
6.875000E+03	3.111787E-03	7.774985E-05
6.884921E+03	3.111459E-03	7.765946E-05
6.894841E+03	3.113186E-03	7.761836E-05
6.904762E+03	3.116963E-03	7.762628E-05
6.914683E+03	3.122802E-03	7.768334E-05
6.924603E+03	3.130649E-03	7.778805E-05
6.934524E+03	3.140355E-03	7.793653E-05
6.944444E+03	3.151930E-03	7.812886E-05
6.954365E+03	3.165143E-03	7.835914E-05
6.964286E+03	3.179936E-03	7.862582E-05
6.974206E+03	3.196173E-03	7.892539E-05
6.984127E+03	3.213642E-03	7.925250E-05
6.994048E+03	3.232296E-03	7.960586E-05
7.003968E+03	3.251981E-03	7.998161E-05
7.013889E+03	3.272640E-03	8.037824E-05
7.023810E+03	3.294149E-03	8.079263E-05
7.033730E+03	3.316435E-03	8.122293E-05
7.043651E+03	3.339434E-03	8.166754E-05
7.053571E+03	3.363091E-03	8.212503E-05
7.063492E+03	3.387346E-03	8.259395E-05
7.073413E+03	3.412185E-03	8.307390E-05
7.083333E+03	3.437459E-03	8.356127E-05
7.093254E+03	3.463182E-03	8.405636E-05
7.103175E+03	3.489183E-03	8.455509E-05
7.113095E+03	3.515410E-03	8.505619E-05
7.123016E+03	3.541791E-03	8.555800E-05
7.132937E+03	3.568107E-03	8.605526E-05
7.142857E+03	3.594249E-03	8.654546E-05
7.152778E+03	3.620040E-03	8.702445E-05
7.162698E+03	3.645280E-03	8.748758E-05
7.172619E+03	3.669699E-03	8.792852E-05
7.182540E+03	3.693133E-03	8.834359E-05
7.192460E+03	3.715212E-03	8.872420E-05
7.202381E+03	3.735681E-03	8.906454E-05
7.212302E+03	3.754173E-03	8.935619E-05
7.222222E+03	3.770450E-03	8.959391E-05
7.232143E+03	3.784083E-03	8.976789E-05
7.242063E+03	3.794794E-03	8.987203E-05
7.251984E+03	3.802278E-03	8.989962E-05
7.261905E+03	3.806214E-03	8.984364E-05
7.271825E+03	3.806479E-03	8.970175E-05
7.281746E+03	3.802770E-03	8.946740E-05
7.291667E+03	3.795146E-03	8.914264E-05
7.301587E+03	3.783554E-03	8.872680E-05
7.311508E+03	3.768016E-03	8.822102E-05
7.321429E+03	3.748731E-03	8.763052E-05
7.331349E+03	3.725860E-03	8.695968E-05
7.341270E+03	3.699723E-03	8.621643E-05
7.351190E+03	3.670630E-03	8.540848E-05
7.361111E+03	3.638827E-03	8.454199E-05
7.371032E+03	3.604767E-03	8.362788E-05
7.380952E+03	3.568723E-03	8.267275E-05
7.390873E+03	3.531102E-03	8.168638E-05
7.400794E+03	3.492254E-03	8.067702E-05
7.410714E+03	3.452556E-03	7.965360E-05
7.420635E+03	3.412267E-03	7.862222E-05
7.430556E+03	3.371666E-03	7.758940E-05
7.440476E+03	3.331050E-03	7.656203E-05
7.450397E+03	3.290591E-03	7.554411E-05
7.460317E+03	3.250482E-03	7.454010E-05
7.470238E+03	3.210925E-03	7.355457E-05
7.480159E+03	3.172006E-03	7.258947E-05
7.490079E+03	3.133866E-03	7.164803E-05
7.500000E+03	3.096490E-03	7.072980E-05
7.509921E+03	3.060001E-03	6.983757E-05
7.519841E+03	3.024367E-03	6.897047E-05
7.529762E+03	2.989574E-03	6.812788E-05
7.539683E+03	2.955589E-03	6.730868E-05
7.549603E+03	2.922364E-03	6.651145E-05
7.559524E+03	2.889845E-03	6.573462E-05
7.569444E+03	2.857948E-03	6.497598E-05
7.579365E+03	2.826721E-03	6.423631E-05
7.589286E+03	2.796136E-03	6.351472E-05
7.599206E+03	2.766215E-03	6.281140E-05
7.609127E+03	2.737064E-03	6.212850E-05
7.619048E+03	2.708748E-03	6.146723E-05
7.628968E+03	2.681320E-03	6.082855E-05
7.638889E+03	2.654817E-03	6.021310E-05
7.648810E+03	2.629227E-03	5.962032E-05
7.658730E+03	2.604596E-03	5.905106E-05
7.668651E+03	2.580922E-03	5.850507E-05
7.678571E+03	2.558197E-03	5.798197E-05
7.688492E+03	2.536407E-03	5.748126E-05
7.698413E+03	2.515499E-03	5.700156E-05
