#wls	flux	fluxerr
1.587302E+03	3.934061E-05	3.375859E-06
1.626984E+03	3.905011E-05	3.339336E-06
1.666667E+03	3.878449E-05	3.304833E-06
1.706349E+03	3.853677E-05	3.271735E-06
1.746032E+03	3.832179E-05	3.241282E-06
1.785714E+03	3.812141E-05	3.211912E-06
1.825397E+03	3.794603E-05	3.184484E-06
1.865079E+03	3.778998E-05	3.158496E-06
1.904762E+03	3.763995E-05	3.132822E-06
1.944444E+03	3.749938E-05	3.107737E-06
1.984127E+03	3.737861E-05	3.084082E-06
2.023810E+03	3.729591E-05	3.063335E-06
2.063492E+03	3.728546E-05	3.048245E-06
2.103175E+03	3.742308E-05	3.044892E-06
2.142857E+03	3.776078E-05	3.057306E-06
2.182540E+03	3.832496E-05	3.087359E-06
2.222222E+03	3.910636E-05	3.134014E-06
2.261905E+03	4.006463E-05	3.193753E-06
2.301587E+03	4.115375E-05	3.262674E-06
2.341270E+03	4.236578E-05	3.339943E-06
2.380952E+03	4.369451E-05	3.424868E-06
2.420635E+03	4.512946E-05	3.516434E-06
2.460317E+03	4.670695E-05	3.617256E-06
2.500000E+03	4.842789E-05	3.727150E-06
2.539683E+03	5.032030E-05	3.847996E-06
2.579365E+03	5.240663E-05	3.981181E-06
2.619048E+03	5.472085E-05	4.128909E-06
2.658730E+03	5.729158E-05	4.292895E-06
2.698413E+03	6.016060E-05	4.475759E-06
2.738095E+03	6.335537E-05	4.678956E-06
2.777778E+03	6.693807E-05	4.906406E-06
2.817460E+03	7.096927E-05	5.161748E-06
2.857143E+03	7.550775E-05	5.448327E-06
2.896825E+03	8.064445E-05	5.771624E-06
2.936508E+03	8.648511E-05	6.137917E-06
2.976190E+03	9.314029E-05	6.553527E-06
2.986111E+03	9.494972E-05	6.666226E-06
2.996032E+03	9.682010E-05	6.782571E-06
3.005952E+03	9.876670E-05	6.903597E-06
3.015873E+03	1.007657E-04	7.027603E-06
3.025794E+03	1.028467E-04	7.156621E-06
3.035714E+03	1.049997E-04	7.289915E-06
3.045635E+03	1.072409E-04	7.428568E-06
3.055556E+03	1.095591E-04	7.571755E-06
3.065476E+03	1.119567E-04	7.719608E-06
3.075397E+03	1.144509E-04	7.873259E-06
3.085317E+03	1.170449E-04	8.032882E-06
3.095238E+03	1.197272E-04	8.197636E-06
3.105159E+03	1.225158E-04	8.368700E-06
3.115079E+03	1.253992E-04	8.545232E-06
3.125000E+03	1.284117E-04	8.729513E-06
3.134921E+03	1.315264E-04	8.919647E-06
3.144841E+03	1.347627E-04	9.116896E-06
3.154762E+03	1.381250E-04	9.321481E-06
3.164683E+03	1.416343E-04	9.534749E-06
3.174603E+03	1.452624E-04	9.754733E-06
3.184524E+03	1.490475E-04	9.983922E-06
3.194444E+03	1.529781E-04	1.022146E-05
3.204365E+03	1.570594E-04	1.046760E-05
3.214286E+03	1.613148E-04	1.072383E-05
3.224206E+03	1.657323E-04	1.098925E-05
3.234127E+03	1.703365E-04	1.126539E-05
3.244048E+03	1.751341E-04	1.155260E-05
3.253968E+03	1.801130E-04	1.184996E-05
3.263889E+03	1.853189E-04	1.216039E-05
3.273810E+03	1.907204E-04	1.248167E-05
3.283730E+03	1.963447E-04	1.281549E-05
3.293651E+03	2.022206E-04	1.316358E-05
3.303571E+03	2.083365E-04	1.352506E-05
3.313492E+03	2.147007E-04	1.390032E-05
3.323413E+03	2.213443E-04	1.429122E-05
3.333333E+03	2.282774E-04	1.469826E-05
3.343254E+03	2.354880E-04	1.512049E-05
3.353175E+03	2.430088E-04	1.555984E-05
3.363095E+03	2.508509E-04	1.601685E-05
3.373016E+03	2.590257E-04	1.649205E-05
3.382937E+03	2.675451E-04	1.698600E-05
3.392857E+03	2.764457E-04	1.750081E-05
3.402778E+03	2.857162E-04	1.803555E-05
3.412698E+03	2.953688E-04	1.859076E-05
3.422619E+03	3.054691E-04	1.917034E-05
3.432540E+03	3.159795E-04	1.977165E-05
3.442460E+03	3.269405E-04	2.039699E-05
3.452381E+03	3.383952E-04	2.104877E-05
3.462302E+03	3.503319E-04	2.172595E-05
3.472222E+03	3.627661E-04	2.242922E-05
3.482143E+03	3.757135E-04	2.315923E-05
3.492063E+03	3.892503E-04	2.392036E-05
3.501984E+03	4.033341E-04	2.470966E-05
3.511905E+03	4.180126E-04	2.552968E-05
3.521825E+03	4.333356E-04	2.638312E-05
3.531746E+03	4.492901E-04	2.726879E-05
3.541667E+03	4.658941E-04	2.818738E-05
3.551587E+03	4.831993E-04	2.914161E-05
3.561508E+03	5.012253E-04	3.013222E-05
3.571429E+03	5.199916E-04	3.115995E-05
3.581349E+03	5.395176E-04	3.222548E-05
3.591270E+03	5.598588E-04	3.333165E-05
3.601190E+03	5.809982E-04	3.447694E-05
3.611111E+03	6.029543E-04	3.566194E-05
3.621032E+03	6.258220E-04	3.689174E-05
3.630952E+03	6.495432E-04	3.816235E-05
3.640873E+03	6.741745E-04	3.947653E-05
3.650794E+03	6.997741E-04	4.083712E-05
3.660714E+03	7.263605E-04	4.224458E-05
3.670635E+03	7.539088E-04	4.369683E-05
3.680556E+03	7.824760E-04	4.519655E-05
3.690476E+03	8.120770E-04	4.674396E-05
3.700397E+03	8.427250E-04	4.833915E-05
3.710317E+03	8.744314E-04	4.998209E-05
3.720238E+03	9.072524E-04	5.167531E-05
3.730159E+03	9.411980E-04	5.341864E-05
3.740079E+03	9.762275E-04	5.520909E-05
3.750000E+03	1.012442E-03	5.705162E-05
3.759921E+03	1.049747E-03	5.894015E-05
3.769841E+03	1.088240E-03	6.087950E-05
3.779762E+03	1.127870E-03	6.286597E-05
3.789683E+03	1.168684E-03	6.490142E-05
3.799603E+03	1.210672E-03	6.698461E-05
3.809524E+03	1.253772E-03	6.911126E-05
3.819444E+03	1.298020E-03	7.128266E-05
3.829365E+03	1.343452E-03	7.350007E-05
3.839286E+03	1.389994E-03	7.575858E-05
3.849206E+03	1.437618E-03	7.805598E-05
3.859127E+03	1.486292E-03	8.038988E-05
3.869048E+03	1.536040E-03	8.276080E-05
3.878968E+03	1.586764E-03	8.516279E-05
3.888889E+03	1.638538E-03	8.759917E-05
3.898810E+03	1.691197E-03	9.006046E-05
3.908730E+03	1.744686E-03	9.254317E-05
3.918651E+03	1.799070E-03	9.505011E-05
3.928571E+03	1.854167E-03	9.757116E-05
3.938492E+03	1.909971E-03	1.001055E-04
3.948413E+03	1.966414E-03	1.026492E-04
3.958333E+03	2.023424E-03	1.051979E-04
3.968254E+03	2.080929E-03	1.077477E-04
3.978175E+03	2.138851E-03	1.102941E-04
3.988095E+03	2.197051E-03	1.128297E-04
3.998016E+03	2.255517E-03	1.153538E-04
4.007937E+03	2.314110E-03	1.178591E-04
4.017857E+03	2.372823E-03	1.203452E-04
4.027778E+03	2.431525E-03	1.228052E-04
4.037698E+03	2.490148E-03	1.252359E-04
4.047619E+03	2.548634E-03	1.276345E-04
4.057540E+03	2.606928E-03	1.299982E-04
4.067460E+03	2.664911E-03	1.323213E-04
4.077381E+03	2.722540E-03	1.346019E-04
4.087302E+03	2.779773E-03	1.368382E-04
4.097222E+03	2.836577E-03	1.390289E-04
4.107143E+03	2.892790E-03	1.411663E-04
4.117063E+03	2.948522E-03	1.432563E-04
4.126984E+03	3.003554E-03	1.452886E-04
4.136905E+03	3.058011E-03	1.472698E-04
4.146825E+03	3.111755E-03	1.491936E-04
4.156746E+03	3.164721E-03	1.510574E-04
4.166667E+03	3.216985E-03	1.528656E-04
4.176587E+03	3.268430E-03	1.546130E-04
4.186508E+03	3.319079E-03	1.563014E-04
4.196429E+03	3.368964E-03	1.579328E-04
4.206349E+03	3.417990E-03	1.595034E-04
4.216270E+03	3.466135E-03	1.610129E-04
4.226190E+03	3.513521E-03	1.624674E-04
4.236111E+03	3.560074E-03	1.638644E-04
4.246032E+03	3.605795E-03	1.652043E-04
4.255952E+03	3.650689E-03	1.664882E-04
4.265873E+03	3.694834E-03	1.677202E-04
4.275794E+03	3.738247E-03	1.689017E-04
4.285714E+03	3.780881E-03	1.700312E-04
4.295635E+03	3.822761E-03	1.711104E-04
4.305556E+03	3.864042E-03	1.721468E-04
4.315476E+03	3.904620E-03	1.731365E-04
4.325397E+03	3.944587E-03	1.740841E-04
4.335317E+03	3.983905E-03	1.749884E-04
4.345238E+03	4.022662E-03	1.758539E-04
4.355159E+03	4.060878E-03	1.766820E-04
4.365079E+03	4.098505E-03	1.774711E-04
4.375000E+03	4.135490E-03	1.782195E-04
4.384921E+03	4.171959E-03	1.789332E-04
4.394841E+03	4.207785E-03	1.796074E-04
4.404762E+03	4.243013E-03	1.802445E-04
4.414683E+03	4.277555E-03	1.808413E-04
4.424603E+03	4.311437E-03	1.813997E-04
4.434524E+03	4.344673E-03	1.819209E-04
4.444444E+03	4.377328E-03	1.824081E-04
4.454365E+03	4.409267E-03	1.828565E-04
4.464286E+03	4.440596E-03	1.832709E-04
4.474206E+03	4.471223E-03	1.836483E-04
4.484127E+03	4.501172E-03	1.839903E-04
4.494048E+03	4.530336E-03	1.842932E-04
4.503968E+03	4.558727E-03	1.845583E-04
4.513889E+03	4.586290E-03	1.847840E-04
4.523810E+03	4.612908E-03	1.849664E-04
4.533730E+03	4.638644E-03	1.851088E-04
4.543651E+03	4.663376E-03	1.852073E-04
4.553571E+03	4.687109E-03	1.852627E-04
4.563492E+03	4.709782E-03	1.852737E-04
4.573413E+03	4.731462E-03	1.852436E-04
4.583333E+03	4.751973E-03	1.851666E-04
4.593254E+03	4.771386E-03	1.850462E-04
4.603175E+03	4.789714E-03	1.848838E-04
4.613095E+03	4.806851E-03	1.846764E-04
4.623016E+03	4.822938E-03	1.844301E-04
4.632937E+03	4.837816E-03	1.841399E-04
4.642857E+03	4.851635E-03	1.838123E-04
4.652778E+03	4.864364E-03	1.834470E-04
4.662698E+03	4.875979E-03	1.830440E-04
4.672619E+03	4.886587E-03	1.826081E-04
4.682540E+03	4.896233E-03	1.821419E-04
4.692460E+03	4.904856E-03	1.816436E-04
4.702381E+03	4.912636E-03	1.811210E-04
4.712302E+03	4.919582E-03	1.805748E-04
4.722222E+03	4.925703E-03	1.800063E-04
4.732143E+03	4.931078E-03	1.794188E-04
4.742063E+03	4.935725E-03	1.788137E-04
4.751984E+03	4.939658E-03	1.781921E-04
4.761905E+03	4.943010E-03	1.775593E-04
4.771825E+03	4.945673E-03	1.769120E-04
4.781746E+03	4.947714E-03	1.762531E-04
4.791667E+03	4.949071E-03	1.755810E-04
4.801587E+03	4.949861E-03	1.749003E-04
4.811508E+03	4.949962E-03	1.742073E-04
4.821429E+03	4.949431E-03	1.735043E-04
4.831349E+03	4.948226E-03	1.727905E-04
4.841270E+03	4.946486E-03	1.720712E-04
4.851190E+03	4.944138E-03	1.713442E-04
4.861111E+03	4.941339E-03	1.706154E-04
4.871032E+03	4.938032E-03	1.698832E-04
4.880952E+03	4.934394E-03	1.691539E-04
4.890873E+03	4.930437E-03	1.684278E-04
4.900794E+03	4.926289E-03	1.677091E-04
4.910714E+03	4.921975E-03	1.669983E-04
4.920635E+03	4.917624E-03	1.662997E-04
4.930556E+03	4.913261E-03	1.656138E-04
4.940476E+03	4.909072E-03	1.649466E-04
4.950397E+03	4.905022E-03	1.642964E-04
4.960317E+03	4.901238E-03	1.636673E-04
4.970238E+03	4.897849E-03	1.630632E-04
4.980159E+03	4.894869E-03	1.624840E-04
4.990079E+03	4.892370E-03	1.619318E-04
5.000000E+03	4.890423E-03	1.614085E-04
5.009921E+03	4.889153E-03	1.609178E-04
5.019841E+03	4.888631E-03	1.604615E-04
5.029762E+03	4.888873E-03	1.600397E-04
5.039683E+03	4.890004E-03	1.596560E-04
5.049603E+03	4.892038E-03	1.593103E-04
5.059524E+03	4.895092E-03	1.590060E-04
5.069444E+03	4.899225E-03	1.587444E-04
5.079365E+03	4.904487E-03	1.585268E-04
5.089286E+03	4.910921E-03	1.583539E-04
5.099206E+03	4.918505E-03	1.582245E-04
5.109127E+03	4.927310E-03	1.581405E-04
5.119048E+03	4.937398E-03	1.581033E-04
5.128968E+03	4.948650E-03	1.581086E-04
5.138889E+03	4.961100E-03	1.581570E-04
5.148810E+03	4.974655E-03	1.582452E-04
5.158730E+03	4.989372E-03	1.583744E-04
5.168651E+03	5.005131E-03	1.585405E-04
5.178571E+03	5.021797E-03	1.587388E-04
5.188492E+03	5.039386E-03	1.589694E-04
5.198413E+03	5.057684E-03	1.592253E-04
5.208333E+03	5.076625E-03	1.595040E-04
5.218254E+03	5.096077E-03	1.598010E-04
5.228175E+03	5.115898E-03	1.601117E-04
5.238095E+03	5.135879E-03	1.604294E-04
5.248016E+03	5.155907E-03	1.607502E-04
5.257937E+03	5.175813E-03	1.610687E-04
5.267857E+03	5.195413E-03	1.613790E-04
5.277778E+03	5.214466E-03	1.616737E-04
5.287698E+03	5.232778E-03	1.619465E-04
5.297619E+03	5.250210E-03	1.621931E-04
5.307540E+03	5.266565E-03	1.624075E-04
5.317460E+03	5.281540E-03	1.625804E-04
5.327381E+03	5.295057E-03	1.627093E-04
5.337302E+03	5.306929E-03	1.627886E-04
5.347222E+03	5.316881E-03	1.628101E-04
5.357143E+03	5.324865E-03	1.627723E-04
5.367063E+03	5.330631E-03	1.626679E-04
5.376984E+03	5.334167E-03	1.624966E-04
5.386905E+03	5.335317E-03	1.622539E-04
5.396825E+03	5.333947E-03	1.619359E-04
5.406746E+03	5.330113E-03	1.615446E-04
5.416667E+03	5.323680E-03	1.610762E-04
5.426587E+03	5.314707E-03	1.605327E-04
5.436508E+03	5.303225E-03	1.599153E-04
5.446429E+03	5.289244E-03	1.592245E-04
5.456349E+03	5.272909E-03	1.584651E-04
5.466270E+03	5.254293E-03	1.576393E-04
5.476190E+03	5.233551E-03	1.567521E-04
5.486111E+03	5.210877E-03	1.558096E-04
5.496032E+03	5.186540E-03	1.548200E-04
5.505952E+03	5.160800E-03	1.537911E-04
5.515873E+03	5.133885E-03	1.527300E-04
5.525794E+03	5.106112E-03	1.516461E-04
5.535714E+03	5.077916E-03	1.505524E-04
5.545635E+03	5.049605E-03	1.494581E-04
5.555556E+03	5.021545E-03	1.483739E-04
5.565476E+03	4.994063E-03	1.473094E-04
5.575397E+03	4.967631E-03	1.462785E-04
5.585317E+03	4.942567E-03	1.452901E-04
5.595238E+03	4.919222E-03	1.443546E-04
5.605159E+03	4.897922E-03	1.434811E-04
5.615079E+03	4.879019E-03	1.426796E-04
5.625000E+03	4.862686E-03	1.419548E-04
5.634921E+03	4.849204E-03	1.413145E-04
5.644841E+03	4.838770E-03	1.407640E-04
5.654762E+03	4.831546E-03	1.403077E-04
5.664683E+03	4.827609E-03	1.399472E-04
5.674603E+03	4.827138E-03	1.396872E-04
5.684524E+03	4.830093E-03	1.395262E-04
5.694444E+03	4.836541E-03	1.394656E-04
5.704365E+03	4.846420E-03	1.395030E-04
5.714286E+03	4.859726E-03	1.396380E-04
5.724206E+03	4.876323E-03	1.398662E-04
5.734127E+03	4.896077E-03	1.401833E-04
5.744048E+03	4.918858E-03	1.405851E-04
5.753968E+03	4.944340E-03	1.410620E-04
5.763889E+03	4.972334E-03	1.416083E-04
5.773810E+03	5.002404E-03	1.422114E-04
5.783730E+03	5.034201E-03	1.428611E-04
5.793651E+03	5.067231E-03	1.435433E-04
5.803571E+03	5.101047E-03	1.442452E-04
5.813492E+03	5.135072E-03	1.449507E-04
5.823413E+03	5.168751E-03	1.456442E-04
5.833333E+03	5.201514E-03	1.463099E-04
5.843254E+03	5.232798E-03	1.469322E-04
5.853175E+03	5.262004E-03	1.474948E-04
5.863095E+03	5.288666E-03	1.479851E-04
5.873016E+03	5.312266E-03	1.483893E-04
5.882937E+03	5.332397E-03	1.486965E-04
5.892857E+03	5.348723E-03	1.488982E-04
5.902778E+03	5.360942E-03	1.489866E-04
5.912698E+03	5.368941E-03	1.489594E-04
5.922619E+03	5.372602E-03	1.488142E-04
5.932540E+03	5.372003E-03	1.485539E-04
5.942460E+03	5.367162E-03	1.481797E-04
5.952381E+03	5.358338E-03	1.476996E-04
5.962302E+03	5.345774E-03	1.471209E-04
5.972222E+03	5.329891E-03	1.464559E-04
5.982143E+03	5.311017E-03	1.457142E-04
5.992063E+03	5.289744E-03	1.449125E-04
6.001984E+03	5.266498E-03	1.440630E-04
6.011905E+03	5.241833E-03	1.431812E-04
6.021825E+03	5.216369E-03	1.422843E-04
6.031746E+03	5.190566E-03	1.413850E-04
6.041667E+03	5.165014E-03	1.404997E-04
6.051587E+03	5.140173E-03	1.396408E-04
6.061508E+03	5.116544E-03	1.388222E-04
6.071429E+03	5.094469E-03	1.380530E-04
6.081349E+03	5.074223E-03	1.373406E-04
6.091270E+03	5.056096E-03	1.366930E-04
6.101190E+03	5.040255E-03	1.361145E-04
6.111111E+03	5.026741E-03	1.356062E-04
6.121032E+03	5.015620E-03	1.351696E-04
6.130952E+03	5.006883E-03	1.348041E-04
6.140873E+03	5.000359E-03	1.345046E-04
6.150794E+03	4.995846E-03	1.342652E-04
6.160714E+03	4.993021E-03	1.340769E-04
6.170635E+03	4.991581E-03	1.339313E-04
6.180556E+03	4.991158E-03	1.338181E-04
6.190476E+03	4.991187E-03	1.337218E-04
6.200397E+03	4.991210E-03	1.336301E-04
6.210317E+03	4.990795E-03	1.335310E-04
6.220238E+03	4.989310E-03	1.334076E-04
6.230159E+03	4.986330E-03	1.332482E-04
6.240079E+03	4.981310E-03	1.330382E-04
6.250000E+03	4.973900E-03	1.327680E-04
6.259921E+03	4.963717E-03	1.324274E-04
6.269841E+03	4.950402E-03	1.320066E-04
6.279762E+03	4.933835E-03	1.315023E-04
6.289683E+03	4.913839E-03	1.309098E-04
6.299603E+03	4.890484E-03	1.302307E-04
6.309524E+03	4.863781E-03	1.294653E-04
6.319444E+03	4.833927E-03	1.286186E-04
6.329365E+03	4.801140E-03	1.276964E-04
6.339286E+03	4.765747E-03	1.267072E-04
6.349206E+03	4.728118E-03	1.256606E-04
6.359127E+03	4.688553E-03	1.245647E-04
6.369048E+03	4.647553E-03	1.234324E-04
6.378968E+03	4.605379E-03	1.222706E-04
6.388889E+03	4.562469E-03	1.210908E-04
6.398810E+03	4.519239E-03	1.199038E-04
6.408730E+03	4.475931E-03	1.187160E-04
6.418651E+03	4.432892E-03	1.175363E-04
6.428571E+03	4.390388E-03	1.163717E-04
6.438492E+03	4.348644E-03	1.152280E-04
6.448413E+03	4.307844E-03	1.141099E-04
6.458333E+03	4.268092E-03	1.130200E-04
6.468254E+03	4.229371E-03	1.119578E-04
6.478175E+03	4.191678E-03	1.109230E-04
6.488095E+03	4.155028E-03	1.099160E-04
6.498016E+03	4.119372E-03	1.089353E-04
6.507937E+03	4.084727E-03	1.079813E-04
6.517857E+03	4.050920E-03	1.070493E-04
6.527778E+03	4.018025E-03	1.061412E-04
6.537698E+03	3.985845E-03	1.052517E-04
6.547619E+03	3.954354E-03	1.043800E-04
6.557540E+03	3.923515E-03	1.035251E-04
6.567460E+03	3.893166E-03	1.026828E-04
6.577381E+03	3.863277E-03	1.018520E-04
6.587302E+03	3.833776E-03	1.010309E-04
6.597222E+03	3.804642E-03	1.002190E-04
6.607143E+03	3.775738E-03	9.941249E-05
6.617063E+03	3.747067E-03	9.861154E-05
6.626984E+03	3.718599E-03	9.781533E-05
6.636905E+03	3.690361E-03	9.702457E-05
6.646825E+03	3.662310E-03	9.623806E-05
6.656746E+03	3.634456E-03	9.545610E-05
6.666667E+03	3.606866E-03	9.468031E-05
6.676587E+03	3.579531E-03	9.391041E-05
6.686508E+03	3.552540E-03	9.314869E-05
6.696429E+03	3.525951E-03	9.239656E-05
6.706349E+03	3.499834E-03	9.165581E-05
6.716270E+03	3.474229E-03	9.092744E-05
6.726190E+03	3.449304E-03	9.021578E-05
6.736111E+03	3.425079E-03	8.952128E-05
6.746032E+03	3.401734E-03	8.884859E-05
6.755952E+03	3.379341E-03	8.819950E-05
6.765873E+03	3.358008E-03	8.757680E-05
6.775794E+03	3.337887E-03	8.698437E-05
6.785714E+03	3.319051E-03	8.642397E-05
6.795635E+03	3.301605E-03	8.589833E-05
6.805556E+03	3.285688E-03	8.541091E-05
6.815476E+03	3.271396E-03	8.496412E-05
6.825397E+03	3.258779E-03	8.455914E-05
6.835317E+03	3.247923E-03	8.419809E-05
6.845238E+03	3.238946E-03	8.388389E-05
6.855159E+03	3.231908E-03	8.361796E-05
6.865079E+03	3.226822E-03	8.340049E-05
6.875000E+03	3.223800E-03	8.323419E-05
6.884921E+03	3.222744E-03	8.311641E-05
6.894841E+03	3.223772E-03	8.304998E-05
6.904762E+03	3.226789E-03	8.303230E-05
6.914683E+03	3.231762E-03	8.306234E-05
6.924603E+03	3.238711E-03	8.314045E-05
6.934524E+03	3.247488E-03	8.326265E-05
6.944444E+03	3.258007E-03	8.342655E-05
6.954365E+03	3.270204E-03	8.363036E-05
6.964286E+03	3.283972E-03	8.387121E-05
6.974206E+03	3.299159E-03	8.414502E-05
6.984127E+03	3.315652E-03	8.444880E-05
6.994048E+03	3.333379E-03	8.478061E-05
7.003968E+03	3.352241E-03	8.513777E-05
7.013889E+03	3.372102E-03	8.551678E-05
7.023810E+03	3.392876E-03	8.591534E-05
7.033730E+03	3.414484E-03	8.633140E-05
7.043651E+03	3.436899E-03	8.676417E-05
7.053571E+03	3.459966E-03	8.720974E-05
7.063492E+03	3.483702E-03	8.766848E-05
7.073413E+03	3.507998E-03	8.813763E-05
7.083333E+03	3.532779E-03	8.861527E-05
7.093254E+03	3.557961E-03	8.909935E-05
7.103175E+03	3.583451E-03	8.958752E-05
7.113095E+03	3.609099E-03	9.007608E-05
7.123016E+03	3.634868E-03	9.056421E-05
7.132937E+03	3.660525E-03	9.104617E-05
7.142857E+03	3.685954E-03	9.151921E-05
7.152778E+03	3.710971E-03	9.197890E-05
7.162698E+03	3.735323E-03	9.241913E-05
7.172619E+03	3.758823E-03	9.283556E-05
7.182540E+03	3.781222E-03	9.322224E-05
7.192460E+03	3.802200E-03	9.357165E-05
7.202381E+03	3.821469E-03	9.387701E-05
7.212302E+03	3.838780E-03	9.413263E-05
7.222222E+03	3.853829E-03	9.433149E-05
7.232143E+03	3.866220E-03	9.446444E-05
7.242063E+03	3.875766E-03	9.452741E-05
7.251984E+03	3.882205E-03	9.451458E-05
7.261905E+03	3.885262E-03	9.441991E-05
7.271825E+03	3.884753E-03	9.423957E-05
7.281746E+03	3.880599E-03	9.397231E-05
7.291667E+03	3.872632E-03	9.361476E-05
7.301587E+03	3.860948E-03	9.316985E-05
7.311508E+03	3.845605E-03	9.263973E-05
7.321429E+03	3.826680E-03	9.202683E-05
7.331349E+03	3.804302E-03	9.133492E-05
7.341270E+03	3.778800E-03	9.057245E-05
7.351190E+03	3.750443E-03	8.974644E-05
7.361111E+03	3.719440E-03	8.886230E-05
7.371032E+03	3.686204E-03	8.793040E-05
7.380952E+03	3.650979E-03	8.695689E-05
7.390873E+03	3.614192E-03	8.595228E-05
7.400794E+03	3.576081E-03	8.492250E-05
7.410714E+03	3.537056E-03	8.387750E-05
7.420635E+03	3.497368E-03	8.282342E-05
7.430556E+03	3.457297E-03	8.176699E-05
7.440476E+03	3.417093E-03	8.071422E-05
7.450397E+03	3.376981E-03	7.967050E-05
7.460317E+03	3.337154E-03	7.864038E-05
7.470238E+03	3.297781E-03	7.762787E-05
7.480159E+03	3.258952E-03	7.663506E-05
7.490079E+03	3.220861E-03	7.566647E-05
7.500000E+03	3.183499E-03	7.472189E-05
7.509921E+03	3.146959E-03	7.380340E-05
7.519841E+03	3.111226E-03	7.291056E-05
7.529762E+03	3.076339E-03	7.204394E-05
7.539683E+03	3.042283E-03	7.120278E-05
7.549603E+03	3.008989E-03	7.038497E-05
7.559524E+03	2.976455E-03	6.959014E-05
7.569444E+03	2.944642E-03	6.881693E-05
7.579365E+03	2.913479E-03	6.806332E-05
7.589286E+03	2.882968E-03	6.732902E-05
7.599206E+03	2.853197E-03	6.661571E-05
7.609127E+03	2.824187E-03	6.592354E-05
7.619048E+03	2.796028E-03	6.525434E-05
7.628968E+03	2.768768E-03	6.460886E-05
7.638889E+03	2.742368E-03	6.398593E-05
7.648810E+03	2.716960E-03	6.338835E-05
7.658730E+03	2.692484E-03	6.281442E-05
7.668651E+03	2.668944E-03	6.226403E-05
7.678571E+03	2.646371E-03	6.173761E-05
7.688492E+03	2.624718E-03	6.123386E-05
7.698413E+03	2.604004E-03	6.075298E-05
