#wls	flux	fluxerr
1.587302E+03	5.185528E-05	3.834384E-06
1.626984E+03	5.204163E-05	3.835524E-06
1.666667E+03	5.225360E-05	3.838158E-06
1.706349E+03	5.251251E-05	3.843817E-06
1.746032E+03	5.279915E-05	3.851054E-06
1.785714E+03	5.312984E-05	3.861023E-06
1.825397E+03	5.348911E-05	3.872557E-06
1.865079E+03	5.387964E-05	3.885813E-06
1.904762E+03	5.429341E-05	3.900175E-06
1.944444E+03	5.471480E-05	3.914493E-06
1.984127E+03	5.516865E-05	3.930515E-06
2.023810E+03	5.568276E-05	3.950168E-06
2.063492E+03	5.631079E-05	3.977173E-06
2.103175E+03	5.716035E-05	4.018969E-06
2.142857E+03	5.832966E-05	4.082194E-06
2.182540E+03	5.988050E-05	4.170807E-06
2.222222E+03	6.179880E-05	4.283414E-06
2.261905E+03	6.403094E-05	4.415893E-06
2.301587E+03	6.653486E-05	4.564975E-06
2.341270E+03	6.928048E-05	4.728254E-06
2.380952E+03	7.227479E-05	4.905873E-06
2.420635E+03	7.552010E-05	5.097636E-06
2.460317E+03	7.906795E-05	5.306634E-06
2.500000E+03	8.295430E-05	5.534823E-06
2.539683E+03	8.724818E-05	5.786282E-06
2.579365E+03	9.197060E-05	6.061792E-06
2.619048E+03	9.723204E-05	6.367939E-06
2.658730E+03	1.030657E-04	6.706071E-06
2.698413E+03	1.095867E-04	7.082736E-06
2.738095E+03	1.168925E-04	7.503123E-06
2.777778E+03	1.250758E-04	7.971903E-06
2.817460E+03	1.342947E-04	8.497673E-06
2.857143E+03	1.446924E-04	9.087752E-06
2.896825E+03	1.564308E-04	9.750287E-06
2.936508E+03	1.697345E-04	1.049694E-05
2.976190E+03	1.848387E-04	1.133948E-05
2.986111E+03	1.889435E-04	1.156765E-05
2.996032E+03	1.931675E-04	1.180197E-05
3.005952E+03	1.975142E-04	1.204259E-05
3.015873E+03	2.020333E-04	1.229249E-05
3.025794E+03	2.066854E-04	1.254921E-05
3.035714E+03	2.114993E-04	1.281443E-05
3.045635E+03	2.164795E-04	1.308835E-05
3.055556E+03	2.216303E-04	1.337116E-05
3.065476E+03	2.269568E-04	1.366309E-05
3.075397E+03	2.324884E-04	1.396583E-05
3.085317E+03	2.381803E-04	1.427661E-05
3.095238E+03	2.440624E-04	1.459713E-05
3.105159E+03	2.501658E-04	1.492919E-05
3.115079E+03	2.564706E-04	1.527148E-05
3.125000E+03	2.629822E-04	1.562424E-05
3.134921E+03	2.697335E-04	1.598933E-05
3.144841E+03	2.767037E-04	1.636541E-05
3.154762E+03	2.838985E-04	1.675272E-05
3.164683E+03	2.913526E-04	1.715319E-05
3.174603E+03	2.990734E-04	1.756716E-05
3.184524E+03	3.070683E-04	1.799491E-05
3.194444E+03	3.153151E-04	1.843504E-05
3.204365E+03	3.238506E-04	1.888957E-05
3.214286E+03	3.327135E-04	1.936062E-05
3.224206E+03	3.418508E-04	1.984497E-05
3.234127E+03	3.513010E-04	2.034472E-05
3.244048E+03	3.610724E-04	2.086019E-05
3.253968E+03	3.712061E-04	2.139361E-05
3.263889E+03	3.816788E-04	2.194347E-05
3.273810E+03	3.924992E-04	2.251011E-05
3.283730E+03	4.037103E-04	2.309582E-05
3.293651E+03	4.153223E-04	2.370101E-05
3.303571E+03	4.273101E-04	2.432405E-05
3.313492E+03	4.396828E-04	2.496527E-05
3.323413E+03	4.525220E-04	2.562912E-05
3.333333E+03	4.658030E-04	2.631398E-05
3.343254E+03	4.794984E-04	2.701809E-05
3.353175E+03	4.936937E-04	2.774605E-05
3.363095E+03	5.083620E-04	2.849613E-05
3.373016E+03	5.235140E-04	2.926867E-05
3.382937E+03	5.391998E-04	3.006625E-05
3.392857E+03	5.554315E-04	3.088927E-05
3.402778E+03	5.721797E-04	3.173584E-05
3.412698E+03	5.894542E-04	3.260623E-05
3.422619E+03	6.073495E-04	3.350542E-05
3.432540E+03	6.258358E-04	3.443144E-05
3.442460E+03	6.448801E-04	3.538221E-05
3.452381E+03	6.645800E-04	3.636276E-05
3.462302E+03	6.849477E-04	3.737346E-05
3.472222E+03	7.059493E-04	3.841211E-05
3.482143E+03	7.275938E-04	3.947888E-05
3.492063E+03	7.499374E-04	4.057650E-05
3.501984E+03	7.729900E-04	4.170514E-05
3.511905E+03	7.967615E-04	4.286497E-05
3.521825E+03	8.212603E-04	4.405608E-05
3.531746E+03	8.465446E-04	4.528121E-05
3.541667E+03	8.725220E-04	4.653504E-05
3.551587E+03	8.993511E-04	4.782563E-05
3.561508E+03	9.269367E-04	4.914750E-05
3.571429E+03	9.552829E-04	5.050048E-05
3.581349E+03	9.844998E-04	5.188996E-05
3.591270E+03	1.014539E-03	5.331296E-05
3.601190E+03	1.045402E-03	5.476915E-05
3.611111E+03	1.077091E-03	5.625816E-05
3.621032E+03	1.109660E-03	5.778244E-05
3.630952E+03	1.143053E-03	5.933856E-05
3.640873E+03	1.177324E-03	6.092887E-05
3.650794E+03	1.212468E-03	6.255272E-05
3.660714E+03	1.248539E-03	6.421234E-05
3.670635E+03	1.285412E-03	6.590086E-05
3.680556E+03	1.323195E-03	6.762339E-05
3.690476E+03	1.361818E-03	6.937584E-05
3.700397E+03	1.401266E-03	7.115701E-05
3.710317E+03	1.441648E-03	7.297197E-05
3.720238E+03	1.482822E-03	7.481306E-05
3.730159E+03	1.524829E-03	7.668189E-05
3.740079E+03	1.567713E-03	7.858024E-05
3.750000E+03	1.611320E-03	8.049992E-05
3.759921E+03	1.655753E-03	8.244562E-05
3.769841E+03	1.700916E-03	8.441217E-05
3.779762E+03	1.746843E-03	8.640085E-05
3.789683E+03	1.793502E-03	8.840959E-05
3.799603E+03	1.840785E-03	9.043275E-05
3.809524E+03	1.888721E-03	9.247138E-05
3.819444E+03	1.937270E-03	9.452314E-05
3.829365E+03	1.986385E-03	9.658538E-05
3.839286E+03	2.036020E-03	9.865558E-05
3.849206E+03	2.086127E-03	1.007311E-04
3.859127E+03	2.136652E-03	1.028091E-04
3.869048E+03	2.187543E-03	1.048868E-04
3.878968E+03	2.238747E-03	1.069613E-04
3.888889E+03	2.290276E-03	1.090333E-04
3.898810E+03	2.342003E-03	1.110964E-04
3.908730E+03	2.393797E-03	1.131442E-04
3.918651E+03	2.445740E-03	1.151807E-04
3.928571E+03	2.497703E-03	1.171996E-04
3.938492E+03	2.549626E-03	1.191981E-04
3.948413E+03	2.601448E-03	1.211733E-04
3.958333E+03	2.653039E-03	1.231193E-04
3.968254E+03	2.704413E-03	1.250368E-04
3.978175E+03	2.755514E-03	1.269233E-04
3.988095E+03	2.806142E-03	1.287698E-04
3.998016E+03	2.856392E-03	1.305809E-04
4.007937E+03	2.906140E-03	1.323510E-04
4.017857E+03	2.955343E-03	1.340786E-04
4.027778E+03	3.003884E-03	1.357586E-04
4.037698E+03	3.051724E-03	1.373896E-04
4.047619E+03	3.098904E-03	1.389737E-04
4.057540E+03	3.145174E-03	1.405004E-04
4.067460E+03	3.190656E-03	1.419753E-04
4.077381E+03	3.235258E-03	1.433949E-04
4.087302E+03	3.278894E-03	1.447558E-04
4.097222E+03	3.321625E-03	1.460614E-04
4.107143E+03	3.363308E-03	1.473056E-04
4.117063E+03	3.403942E-03	1.484893E-04
4.126984E+03	3.443536E-03	1.496133E-04
4.136905E+03	3.482034E-03	1.506758E-04
4.146825E+03	3.519455E-03	1.516781E-04
4.156746E+03	3.555754E-03	1.526191E-04
4.166667E+03	3.590891E-03	1.534976E-04
4.176587E+03	3.624974E-03	1.543188E-04
4.186508E+03	3.657971E-03	1.550821E-04
4.196429E+03	3.689860E-03	1.557871E-04
4.206349E+03	3.720623E-03	1.564337E-04
4.216270E+03	3.750315E-03	1.570249E-04
4.226190E+03	3.778992E-03	1.575635E-04
4.236111E+03	3.806647E-03	1.580500E-04
4.246032E+03	3.833280E-03	1.584850E-04
4.255952E+03	3.859023E-03	1.588744E-04
4.265873E+03	3.883811E-03	1.592161E-04
4.275794E+03	3.907714E-03	1.595137E-04
4.285714E+03	3.930868E-03	1.597731E-04
4.295635E+03	3.953279E-03	1.599950E-04
4.305556E+03	3.974951E-03	1.601802E-04
4.315476E+03	3.995956E-03	1.603319E-04
4.325397E+03	4.016363E-03	1.604534E-04
4.335317E+03	4.036300E-03	1.605502E-04
4.345238E+03	4.055707E-03	1.606201E-04
4.355159E+03	4.074709E-03	1.606686E-04
4.365079E+03	4.093367E-03	1.606982E-04
4.375000E+03	4.111673E-03	1.607090E-04
4.384921E+03	4.129743E-03	1.607058E-04
4.394841E+03	4.147627E-03	1.606908E-04
4.404762E+03	4.165308E-03	1.606634E-04
4.414683E+03	4.182889E-03	1.606279E-04
4.424603E+03	4.200408E-03	1.605858E-04
4.434524E+03	4.217782E-03	1.605342E-04
4.444444E+03	4.235098E-03	1.604766E-04
4.454365E+03	4.252327E-03	1.604119E-04
4.464286E+03	4.269435E-03	1.603392E-04
4.474206E+03	4.286555E-03	1.602635E-04
4.484127E+03	4.303533E-03	1.601792E-04
4.494048E+03	4.320382E-03	1.600871E-04
4.503968E+03	4.337169E-03	1.599897E-04
4.513889E+03	4.353787E-03	1.598835E-04
4.523810E+03	4.370243E-03	1.597687E-04
4.533730E+03	4.386590E-03	1.596476E-04
4.543651E+03	4.402717E-03	1.595163E-04
4.553571E+03	4.418621E-03	1.593750E-04
4.563492E+03	4.434294E-03	1.592238E-04
4.573413E+03	4.449727E-03	1.590624E-04
4.583333E+03	4.464910E-03	1.588908E-04
4.593254E+03	4.479827E-03	1.587088E-04
4.603175E+03	4.494409E-03	1.585141E-04
4.613095E+03	4.508638E-03	1.583065E-04
4.623016E+03	4.522599E-03	1.580892E-04
4.632937E+03	4.536110E-03	1.578563E-04
4.642857E+03	4.549250E-03	1.576108E-04
4.652778E+03	4.561940E-03	1.573504E-04
4.662698E+03	4.574096E-03	1.570725E-04
4.672619E+03	4.585683E-03	1.567764E-04
4.682540E+03	4.596666E-03	1.564612E-04
4.692460E+03	4.606899E-03	1.561225E-04
4.702381E+03	4.616289E-03	1.557576E-04
4.712302E+03	4.624735E-03	1.553637E-04
4.722222E+03	4.632083E-03	1.549363E-04
4.732143E+03	4.638125E-03	1.544689E-04
4.742063E+03	4.642749E-03	1.539586E-04
4.751984E+03	4.645788E-03	1.534007E-04
4.761905E+03	4.647327E-03	1.527988E-04
4.771825E+03	4.647290E-03	1.521512E-04
4.781746E+03	4.645799E-03	1.514626E-04
4.791667E+03	4.642870E-03	1.507342E-04
4.801587E+03	4.638418E-03	1.499641E-04
4.811508E+03	4.632574E-03	1.491572E-04
4.821429E+03	4.625299E-03	1.483128E-04
4.831349E+03	4.616617E-03	1.474324E-04
4.841270E+03	4.606753E-03	1.465236E-04
4.851190E+03	4.595762E-03	1.455884E-04
4.861111E+03	4.583853E-03	1.446337E-04
4.871032E+03	4.571135E-03	1.436629E-04
4.880952E+03	4.557714E-03	1.426795E-04
4.890873E+03	4.543738E-03	1.416882E-04
4.900794E+03	4.529298E-03	1.406917E-04
4.910714E+03	4.514477E-03	1.396927E-04
4.920635E+03	4.499405E-03	1.386950E-04
4.930556E+03	4.484151E-03	1.377007E-04
4.940476E+03	4.468736E-03	1.367101E-04
4.950397E+03	4.453313E-03	1.357279E-04
4.960317E+03	4.437892E-03	1.347542E-04
4.970238E+03	4.422570E-03	1.337916E-04
4.980159E+03	4.407346E-03	1.328399E-04
4.990079E+03	4.392354E-03	1.319029E-04
5.000000E+03	4.377538E-03	1.309788E-04
5.009921E+03	4.362933E-03	1.300681E-04
5.019841E+03	4.348706E-03	1.291757E-04
5.029762E+03	4.334742E-03	1.282979E-04
5.039683E+03	4.321111E-03	1.274364E-04
5.049603E+03	4.307874E-03	1.265928E-04
5.059524E+03	4.295045E-03	1.257671E-04
5.069444E+03	4.282592E-03	1.249582E-04
5.079365E+03	4.270562E-03	1.241672E-04
5.089286E+03	4.258918E-03	1.233927E-04
5.099206E+03	4.247702E-03	1.226356E-04
5.109127E+03	4.236911E-03	1.218956E-04
5.119048E+03	4.226537E-03	1.211721E-04
5.128968E+03	4.216614E-03	1.204659E-04
5.138889E+03	4.207042E-03	1.197738E-04
5.148810E+03	4.197847E-03	1.190964E-04
5.158730E+03	4.189054E-03	1.184341E-04
5.168651E+03	4.180596E-03	1.177848E-04
5.178571E+03	4.172495E-03	1.171489E-04
5.188492E+03	4.164679E-03	1.165241E-04
5.198413E+03	4.157163E-03	1.159107E-04
5.208333E+03	4.149874E-03	1.153065E-04
5.218254E+03	4.142865E-03	1.147127E-04
5.228175E+03	4.136017E-03	1.141259E-04
5.238095E+03	4.129382E-03	1.135474E-04
5.248016E+03	4.122841E-03	1.129737E-04
5.257937E+03	4.116440E-03	1.124060E-04
5.267857E+03	4.110147E-03	1.118433E-04
5.277778E+03	4.103882E-03	1.112834E-04
5.287698E+03	4.097653E-03	1.107263E-04
5.297619E+03	4.091383E-03	1.101699E-04
5.307540E+03	4.085121E-03	1.096155E-04
5.317460E+03	4.078833E-03	1.090620E-04
5.327381E+03	4.072404E-03	1.085065E-04
5.337302E+03	4.065928E-03	1.079512E-04
5.347222E+03	4.059289E-03	1.073932E-04
5.357143E+03	4.052503E-03	1.068329E-04
5.367063E+03	4.045541E-03	1.062695E-04
5.376984E+03	4.038419E-03	1.057033E-04
5.386905E+03	4.031071E-03	1.051328E-04
5.396825E+03	4.023519E-03	1.045585E-04
5.406746E+03	4.015705E-03	1.039789E-04
5.416667E+03	4.007656E-03	1.033949E-04
5.426587E+03	3.999404E-03	1.028072E-04
5.436508E+03	3.990866E-03	1.022137E-04
5.446429E+03	3.982087E-03	1.016158E-04
5.456349E+03	3.973075E-03	1.010136E-04
5.466270E+03	3.963808E-03	1.004067E-04
5.476190E+03	3.954387E-03	9.979764E-05
5.486111E+03	3.944765E-03	9.918538E-05
5.496032E+03	3.935056E-03	9.857280E-05
5.505952E+03	3.925225E-03	9.795909E-05
5.515873E+03	3.915322E-03	9.734553E-05
5.525794E+03	3.905441E-03	9.673449E-05
5.535714E+03	3.895639E-03	9.612743E-05
5.545635E+03	3.885903E-03	9.552402E-05
5.555556E+03	3.876378E-03	9.492783E-05
5.565476E+03	3.867054E-03	9.433863E-05
5.575397E+03	3.858040E-03	9.375903E-05
5.585317E+03	3.849367E-03	9.318977E-05
5.595238E+03	3.841106E-03	9.263249E-05
5.605159E+03	3.833360E-03	9.208963E-05
5.615079E+03	3.826116E-03	9.156085E-05
5.625000E+03	3.819475E-03	9.104842E-05
5.634921E+03	3.813454E-03	9.055268E-05
5.644841E+03	3.808104E-03	9.007474E-05
5.654762E+03	3.803503E-03	8.961637E-05
5.664683E+03	3.799614E-03	8.917655E-05
5.674603E+03	3.796506E-03	8.875681E-05
5.684524E+03	3.794160E-03	8.835661E-05
5.694444E+03	3.792626E-03	8.797699E-05
5.704365E+03	3.791873E-03	8.761713E-05
5.714286E+03	3.791860E-03	8.727601E-05
5.724206E+03	3.792648E-03	8.695492E-05
5.734127E+03	3.794140E-03	8.665161E-05
5.744048E+03	3.796347E-03	8.636626E-05
5.753968E+03	3.799194E-03	8.609715E-05
5.763889E+03	3.802639E-03	8.584327E-05
5.773810E+03	3.806631E-03	8.560350E-05
5.783730E+03	3.811117E-03	8.537669E-05
5.793651E+03	3.816035E-03	8.516149E-05
5.803571E+03	3.821289E-03	8.495584E-05
5.813492E+03	3.826852E-03	8.475922E-05
5.823413E+03	3.832618E-03	8.456947E-05
5.833333E+03	3.838567E-03	8.438623E-05
5.843254E+03	3.844559E-03	8.420664E-05
5.853175E+03	3.850611E-03	8.403124E-05
5.863095E+03	3.856596E-03	8.385751E-05
5.873016E+03	3.862503E-03	8.368543E-05
5.882937E+03	3.868294E-03	8.351444E-05
5.892857E+03	3.873899E-03	8.334328E-05
5.902778E+03	3.879332E-03	8.317254E-05
5.912698E+03	3.884542E-03	8.300142E-05
5.922619E+03	3.889524E-03	8.283011E-05
5.932540E+03	3.894322E-03	8.265984E-05
5.942460E+03	3.898876E-03	8.248961E-05
5.952381E+03	3.903320E-03	8.232261E-05
5.962302E+03	3.907575E-03	8.215741E-05
5.972222E+03	3.911752E-03	8.199668E-05
5.982143E+03	3.915858E-03	8.184082E-05
5.992063E+03	3.919941E-03	8.169110E-05
6.001984E+03	3.924087E-03	8.154962E-05
6.011905E+03	3.928348E-03	8.141770E-05
6.021825E+03	3.932733E-03	8.129579E-05
6.031746E+03	3.937364E-03	8.118665E-05
6.041667E+03	3.942281E-03	8.109138E-05
6.051587E+03	3.947516E-03	8.101082E-05
6.061508E+03	3.953091E-03	8.094570E-05
6.071429E+03	3.959054E-03	8.089723E-05
6.081349E+03	3.965480E-03	8.086715E-05
6.091270E+03	3.972350E-03	8.085537E-05
6.101190E+03	3.979667E-03	8.086213E-05
6.111111E+03	3.987457E-03	8.088824E-05
6.121032E+03	3.995807E-03	8.093569E-05
6.130952E+03	4.004627E-03	8.100290E-05
6.140873E+03	4.013730E-03	8.108604E-05
6.150794E+03	4.022884E-03	8.118026E-05
6.160714E+03	4.031986E-03	8.128326E-05
6.170635E+03	4.040831E-03	8.139071E-05
6.180556E+03	4.049338E-03	8.150080E-05
6.190476E+03	4.057337E-03	8.160990E-05
6.200397E+03	4.064733E-03	8.171587E-05
6.210317E+03	4.071375E-03	8.181549E-05
6.220238E+03	4.077152E-03	8.190626E-05
6.230159E+03	4.081945E-03	8.198559E-05
6.240079E+03	4.085594E-03	8.204996E-05
6.250000E+03	4.087980E-03	8.209677E-05
6.259921E+03	4.089033E-03	8.212431E-05
6.269841E+03	4.088565E-03	8.212850E-05
6.279762E+03	4.086521E-03	8.210792E-05
6.289683E+03	4.082859E-03	8.206139E-05
6.299603E+03	4.077464E-03	8.198629E-05
6.309524E+03	4.070279E-03	8.188111E-05
6.319444E+03	4.061263E-03	8.174462E-05
6.329365E+03	4.050471E-03	8.157759E-05
6.339286E+03	4.037808E-03	8.137767E-05
6.349206E+03	4.023360E-03	8.114623E-05
6.359127E+03	4.007143E-03	8.088317E-05
6.369048E+03	3.989188E-03	8.058874E-05
6.378968E+03	3.969577E-03	8.026416E-05
6.388889E+03	3.948320E-03	7.990925E-05
6.398810E+03	3.925563E-03	7.952654E-05
6.408730E+03	3.901415E-03	7.911787E-05
6.418651E+03	3.875868E-03	7.868269E-05
6.428571E+03	3.849124E-03	7.822473E-05
6.438492E+03	3.821226E-03	7.774450E-05
6.448413E+03	3.792300E-03	7.724423E-05
6.458333E+03	3.762471E-03	7.672614E-05
6.468254E+03	3.731749E-03	7.619010E-05
6.478175E+03	3.700259E-03	7.563839E-05
6.488095E+03	3.668049E-03	7.507168E-05
6.498016E+03	3.635246E-03	7.449231E-05
6.507937E+03	3.601896E-03	7.390096E-05
6.517857E+03	3.568043E-03	7.329833E-05
6.527778E+03	3.533849E-03	7.268749E-05
6.537698E+03	3.499317E-03	7.206835E-05
6.547619E+03	3.464529E-03	7.144237E-05
6.557540E+03	3.429600E-03	7.081179E-05
6.567460E+03	3.394611E-03	7.017810E-05
6.577381E+03	3.359562E-03	6.954118E-05
6.587302E+03	3.324643E-03	6.890484E-05
6.597222E+03	3.289819E-03	6.826828E-05
6.607143E+03	3.255239E-03	6.763448E-05
6.617063E+03	3.220979E-03	6.700494E-05
6.626984E+03	3.187113E-03	6.638118E-05
6.636905E+03	3.153685E-03	6.576403E-05
6.646825E+03	3.120803E-03	6.515576E-05
6.656746E+03	3.088580E-03	6.455868E-05
6.666667E+03	3.057056E-03	6.397364E-05
6.676587E+03	3.026311E-03	6.340222E-05
6.686508E+03	2.996451E-03	6.284671E-05
6.696429E+03	2.967555E-03	6.230869E-05
6.706349E+03	2.939665E-03	6.178909E-05
6.716270E+03	2.912922E-03	6.129092E-05
6.726190E+03	2.887370E-03	6.081507E-05
6.736111E+03	2.863084E-03	6.036320E-05
6.746032E+03	2.840168E-03	5.993755E-05
6.755952E+03	2.818694E-03	5.953970E-05
6.765873E+03	2.798699E-03	5.917044E-05
6.775794E+03	2.780309E-03	5.883253E-05
6.785714E+03	2.763551E-03	5.852663E-05
6.795635E+03	2.748475E-03	5.825383E-05
6.805556E+03	2.735124E-03	5.801510E-05
6.815476E+03	2.723555E-03	5.781176E-05
6.825397E+03	2.713747E-03	5.764338E-05
6.835317E+03	2.705724E-03	5.751055E-05
6.845238E+03	2.699463E-03	5.741287E-05
6.855159E+03	2.694933E-03	5.734969E-05
6.865079E+03	2.692095E-03	5.732024E-05
6.875000E+03	2.690868E-03	5.732283E-05
6.884921E+03	2.691268E-03	5.735785E-05
6.894841E+03	2.693208E-03	5.742347E-05
6.904762E+03	2.696629E-03	5.751845E-05
6.914683E+03	2.701473E-03	5.764157E-05
6.924603E+03	2.707709E-03	5.779216E-05
6.934524E+03	2.715237E-03	5.796814E-05
6.944444E+03	2.723991E-03	5.816808E-05
6.954365E+03	2.733899E-03	5.839044E-05
6.964286E+03	2.744922E-03	5.863437E-05
6.974206E+03	2.756949E-03	5.889753E-05
6.984127E+03	2.769938E-03	5.917899E-05
6.994048E+03	2.783771E-03	5.947620E-05
7.003968E+03	2.798364E-03	5.978741E-05
7.013889E+03	2.813662E-03	6.011140E-05
7.023810E+03	2.829540E-03	6.044549E-05
7.033730E+03	2.845903E-03	6.078765E-05
7.043651E+03	2.862688E-03	6.113652E-05
7.053571E+03	2.879793E-03	6.148995E-05
7.063492E+03	2.897040E-03	6.184412E-05
7.073413E+03	2.914393E-03	6.219828E-05
7.083333E+03	2.931702E-03	6.254924E-05
7.093254E+03	2.948890E-03	6.289535E-05
7.103175E+03	2.965799E-03	6.323334E-05
7.113095E+03	2.982310E-03	6.356063E-05
7.123016E+03	2.998335E-03	6.387546E-05
7.132937E+03	3.013675E-03	6.417362E-05
7.142857E+03	3.028319E-03	6.445493E-05
7.152778E+03	3.042025E-03	6.471433E-05
7.162698E+03	3.054748E-03	6.495098E-05
7.172619E+03	3.066324E-03	6.516147E-05
7.182540E+03	3.076678E-03	6.534432E-05
7.192460E+03	3.085653E-03	6.549633E-05
7.202381E+03	3.093144E-03	6.561541E-05
7.212302E+03	3.099129E-03	6.570124E-05
7.222222E+03	3.103396E-03	6.574951E-05
7.232143E+03	3.105986E-03	6.576123E-05
7.242063E+03	3.106749E-03	6.573343E-05
7.251984E+03	3.105706E-03	6.566675E-05
7.261905E+03	3.102738E-03	6.555883E-05
7.271825E+03	3.097894E-03	6.541095E-05
7.281746E+03	3.091120E-03	6.522217E-05
7.291667E+03	3.082461E-03	6.499363E-05
7.301587E+03	3.071932E-03	6.472588E-05
7.311508E+03	3.059525E-03	6.441895E-05
7.321429E+03	3.045328E-03	6.407493E-05
7.331349E+03	3.029403E-03	6.369529E-05
7.341270E+03	3.011822E-03	6.328177E-05
7.351190E+03	2.992711E-03	6.283721E-05
7.361111E+03	2.972048E-03	6.236133E-05
7.371032E+03	2.950056E-03	6.185900E-05
7.380952E+03	2.926766E-03	6.133105E-05
7.390873E+03	2.902300E-03	6.078016E-05
7.400794E+03	2.876776E-03	6.020898E-05
7.410714E+03	2.850360E-03	5.962112E-05
7.420635E+03	2.823136E-03	5.901845E-05
7.430556E+03	2.795189E-03	5.840289E-05
7.440476E+03	2.766645E-03	5.777713E-05
7.450397E+03	2.737618E-03	5.714370E-05
7.460317E+03	2.708261E-03	5.650586E-05
7.470238E+03	2.678573E-03	5.586362E-05
7.480159E+03	2.648764E-03	5.522148E-05
7.490079E+03	2.618822E-03	5.457919E-05
7.500000E+03	2.588906E-03	5.394013E-05
7.509921E+03	2.559024E-03	5.330450E-05
7.519841E+03	2.529284E-03	5.267447E-05
7.529762E+03	2.499750E-03	5.205114E-05
7.539683E+03	2.470443E-03	5.143473E-05
7.549603E+03	2.441446E-03	5.082679E-05
7.559524E+03	2.412770E-03	5.022734E-05
7.569444E+03	2.384488E-03	4.963772E-05
7.579365E+03	2.356578E-03	4.905725E-05
7.589286E+03	2.329145E-03	4.848798E-05
7.599206E+03	2.302237E-03	4.793073E-05
7.609127E+03	2.275842E-03	4.738507E-05
7.619048E+03	2.250067E-03	4.685309E-05
7.628968E+03	2.224923E-03	4.633485E-05
7.638889E+03	2.200444E-03	4.583097E-05
7.648810E+03	2.176662E-03	4.534192E-05
7.658730E+03	2.153629E-03	4.486871E-05
7.668651E+03	2.131335E-03	4.441101E-05
7.678571E+03	2.109794E-03	4.396898E-05
7.688492E+03	2.089045E-03	4.354332E-05
7.698413E+03	2.069091E-03	4.313403E-05
