#wls	flux	fluxerr
1.587302E+03	4.435197E-05	2.359443E-06
1.626984E+03	4.431958E-05	2.350680E-06
1.666667E+03	4.431569E-05	2.343264E-06
1.706349E+03	4.433284E-05	2.336785E-06
1.746032E+03	4.438824E-05	2.332133E-06
1.785714E+03	4.447010E-05	2.328666E-06
1.825397E+03	4.457356E-05	2.326114E-06
1.865079E+03	4.469233E-05	2.324131E-06
1.904762E+03	4.483656E-05	2.323231E-06
1.944444E+03	4.498468E-05	2.322281E-06
1.984127E+03	4.515745E-05	2.322341E-06
2.023810E+03	4.536044E-05	2.323675E-06
2.063492E+03	4.567046E-05	2.330179E-06
2.103175E+03	4.614814E-05	2.344858E-06
2.142857E+03	4.687876E-05	2.371912E-06
2.182540E+03	4.790888E-05	2.413510E-06
2.222222E+03	4.921475E-05	2.468243E-06
2.261905E+03	5.076814E-05	2.534494E-06
2.301587E+03	5.250622E-05	2.608943E-06
2.341270E+03	5.442109E-05	2.691038E-06
2.380952E+03	5.651702E-05	2.780830E-06
2.420635E+03	5.878416E-05	2.877664E-06
2.460317E+03	6.127153E-05	2.983760E-06
2.500000E+03	6.399502E-05	3.099672E-06
2.539683E+03	6.699539E-05	3.227132E-06
2.579365E+03	7.031831E-05	3.368049E-06
2.619048E+03	7.400307E-05	3.523971E-06
2.658730E+03	7.810540E-05	3.697167E-06
2.698413E+03	8.270033E-05	3.890735E-06
2.738095E+03	8.784687E-05	4.106922E-06
2.777778E+03	9.362506E-05	4.348862E-06
2.817460E+03	1.001400E-04	4.620724E-06
2.857143E+03	1.075117E-04	4.927216E-06
2.896825E+03	1.158474E-04	5.272264E-06
2.936508E+03	1.253328E-04	5.663189E-06
2.976190E+03	1.361151E-04	6.105288E-06
2.986111E+03	1.390361E-04	6.224654E-06
2.996032E+03	1.420632E-04	6.348222E-06
3.005952E+03	1.452000E-04	6.476114E-06
3.015873E+03	1.484323E-04	6.607669E-06
3.025794E+03	1.517823E-04	6.743843E-06
3.035714E+03	1.552549E-04	6.884827E-06
3.045635E+03	1.588350E-04	7.029912E-06
3.055556E+03	1.625634E-04	7.180863E-06
3.065476E+03	1.664063E-04	7.336157E-06
3.075397E+03	1.703861E-04	7.496741E-06
3.085317E+03	1.745071E-04	7.662761E-06
3.095238E+03	1.787732E-04	7.834348E-06
3.105159E+03	1.832092E-04	8.012545E-06
3.115079E+03	1.877793E-04	8.195733E-06
3.125000E+03	1.925287E-04	8.385847E-06
3.134921E+03	1.974420E-04	8.582163E-06
3.144841E+03	2.025240E-04	8.784837E-06
3.154762E+03	2.078017E-04	8.994983E-06
3.164683E+03	2.132810E-04	9.212804E-06
3.174603E+03	2.189231E-04	9.436563E-06
3.184524E+03	2.248013E-04	9.669359E-06
3.194444E+03	2.308765E-04	9.909444E-06
3.204365E+03	2.371781E-04	1.015802E-05
3.214286E+03	2.437130E-04	1.041530E-05
3.224206E+03	2.504638E-04	1.068049E-05
3.234127E+03	2.574863E-04	1.095588E-05
3.244048E+03	2.647637E-04	1.124067E-05
3.253968E+03	2.722781E-04	1.153404E-05
3.263889E+03	2.801138E-04	1.183945E-05
3.273810E+03	2.882021E-04	1.215392E-05
3.283730E+03	2.966030E-04	1.247990E-05
3.293651E+03	3.052989E-04	1.281654E-05
3.303571E+03	3.143256E-04	1.316525E-05
3.313492E+03	3.236928E-04	1.352632E-05
3.323413E+03	3.333816E-04	1.389887E-05
3.333333E+03	3.434298E-04	1.428436E-05
3.343254E+03	3.538768E-04	1.468430E-05
3.353175E+03	3.646741E-04	1.509656E-05
3.363095E+03	3.758611E-04	1.552265E-05
3.373016E+03	3.874790E-04	1.596415E-05
3.382937E+03	3.995395E-04	1.642139E-05
3.392857E+03	4.119906E-04	1.689209E-05
3.402778E+03	4.249388E-04	1.738048E-05
3.412698E+03	4.383313E-04	1.788425E-05
3.422619E+03	4.522120E-04	1.840502E-05
3.432540E+03	4.665928E-04	1.894313E-05
3.442460E+03	4.814854E-04	1.949888E-05
3.452381E+03	4.969368E-04	2.007399E-05
3.462302E+03	5.129244E-04	2.066736E-05
3.472222E+03	5.294593E-04	2.127927E-05
3.482143E+03	5.465897E-04	2.191145E-05
3.492063E+03	5.642904E-04	2.256270E-05
3.501984E+03	5.826484E-04	2.323630E-05
3.511905E+03	6.016387E-04	2.393101E-05
3.521825E+03	6.212724E-04	2.464707E-05
3.531746E+03	6.415607E-04	2.538469E-05
3.541667E+03	6.625546E-04	2.614567E-05
3.551587E+03	6.842242E-04	2.692859E-05
3.561508E+03	7.066210E-04	2.773522E-05
3.571429E+03	7.297550E-04	2.856570E-05
3.581349E+03	7.536356E-04	2.942015E-05
3.591270E+03	7.782714E-04	3.029864E-05
3.601190E+03	8.037145E-04	3.120291E-05
3.611111E+03	8.299278E-04	3.213126E-05
3.621032E+03	8.569627E-04	3.308539E-05
3.630952E+03	8.847781E-04	3.406343E-05
3.640873E+03	9.134716E-04	3.506885E-05
3.650794E+03	9.430001E-04	3.609967E-05
3.660714E+03	9.733649E-04	3.715565E-05
3.670635E+03	1.004566E-03	3.823648E-05
3.680556E+03	1.036651E-03	3.934368E-05
3.690476E+03	1.069618E-03	4.047686E-05
3.700397E+03	1.103463E-03	4.163553E-05
3.710317E+03	1.138180E-03	4.281915E-05
3.720238E+03	1.173761E-03	4.402707E-05
3.730159E+03	1.210193E-03	4.525857E-05
3.740079E+03	1.247520E-03	4.651489E-05
3.750000E+03	1.285671E-03	4.779308E-05
3.759921E+03	1.324684E-03	4.909425E-05
3.769841E+03	1.364539E-03	5.041733E-05
3.779762E+03	1.405214E-03	5.176122E-05
3.789683E+03	1.446684E-03	5.312466E-05
3.799603E+03	1.488919E-03	5.450628E-05
3.809524E+03	1.531949E-03	5.590687E-05
3.819444E+03	1.575683E-03	5.732277E-05
3.829365E+03	1.620139E-03	5.875445E-05
3.839286E+03	1.665223E-03	6.019814E-05
3.849206E+03	1.710950E-03	6.165421E-05
3.859127E+03	1.757214E-03	6.311856E-05
3.869048E+03	1.804028E-03	6.459146E-05
3.878968E+03	1.851402E-03	6.607306E-05
3.888889E+03	1.899163E-03	6.755692E-05
3.898810E+03	1.947314E-03	6.904303E-05
3.908730E+03	1.995798E-03	7.052923E-05
3.918651E+03	2.044492E-03	7.201103E-05
3.928571E+03	2.093462E-03	7.349062E-05
3.938492E+03	2.142519E-03	7.496130E-05
3.948413E+03	2.191663E-03	7.642300E-05
3.958333E+03	2.240832E-03	7.787350E-05
3.968254E+03	2.289896E-03	7.930833E-05
3.978175E+03	2.338860E-03	8.072762E-05
3.988095E+03	2.387597E-03	8.212705E-05
3.998016E+03	2.436112E-03	8.350687E-05
4.007937E+03	2.484221E-03	8.486082E-05
4.017857E+03	2.531934E-03	8.618938E-05
4.027778E+03	2.579202E-03	8.749103E-05
4.037698E+03	2.625913E-03	8.876216E-05
4.047619E+03	2.672024E-03	9.000149E-05
4.057540E+03	2.717501E-03	9.120807E-05
4.067460E+03	2.762246E-03	9.237887E-05
4.077381E+03	2.806232E-03	9.351327E-05
4.087302E+03	2.849437E-03	9.461080E-05
4.097222E+03	2.891782E-03	9.566912E-05
4.107143E+03	2.933258E-03	9.668822E-05
4.117063E+03	2.973795E-03	9.766621E-05
4.126984E+03	3.013397E-03	9.860347E-05
4.136905E+03	3.052069E-03	9.950060E-05
4.146825E+03	3.089702E-03	1.003543E-04
4.156746E+03	3.126313E-03	1.011657E-04
4.166667E+03	3.161930E-03	1.019359E-04
4.176587E+03	3.196521E-03	1.026643E-04
4.186508E+03	3.230124E-03	1.033526E-04
4.196429E+03	3.262597E-03	1.039966E-04
4.206349E+03	3.294112E-03	1.046021E-04
4.216270E+03	3.324599E-03	1.051674E-04
4.226190E+03	3.354058E-03	1.056928E-04
4.236111E+03	3.382490E-03	1.061789E-04
4.246032E+03	3.409964E-03	1.066281E-04
4.255952E+03	3.436550E-03	1.070430E-04
4.265873E+03	3.462144E-03	1.074207E-04
4.275794E+03	3.486824E-03	1.077641E-04
4.285714E+03	3.510666E-03	1.080758E-04
4.295635E+03	3.533694E-03	1.083570E-04
4.305556E+03	3.555928E-03	1.086086E-04
4.315476E+03	3.577391E-03	1.088317E-04
4.325397E+03	3.598107E-03	1.090272E-04
4.335317E+03	3.618153E-03	1.091978E-04
4.345238E+03	3.637657E-03	1.093476E-04
4.355159E+03	3.656581E-03	1.094759E-04
4.365079E+03	3.675046E-03	1.095863E-04
4.375000E+03	3.693116E-03	1.096811E-04
4.384921E+03	3.710902E-03	1.097638E-04
4.394841E+03	3.728560E-03	1.098390E-04
4.404762E+03	3.746134E-03	1.099082E-04
4.414683E+03	3.763876E-03	1.099788E-04
4.424603E+03	3.781653E-03	1.100470E-04
4.434524E+03	3.799386E-03	1.101105E-04
4.444444E+03	3.817043E-03	1.101685E-04
4.454365E+03	3.834483E-03	1.102170E-04
4.464286E+03	3.851667E-03	1.102550E-04
4.474206E+03	3.868501E-03	1.102800E-04
4.484127E+03	3.884987E-03	1.102923E-04
4.494048E+03	3.901022E-03	1.102892E-04
4.503968E+03	3.916656E-03	1.102723E-04
4.513889E+03	3.931830E-03	1.102401E-04
4.523810E+03	3.946533E-03	1.101925E-04
4.533730E+03	3.960704E-03	1.101282E-04
4.543651E+03	3.974424E-03	1.100496E-04
4.553571E+03	3.987629E-03	1.099552E-04
4.563492E+03	4.000249E-03	1.098434E-04
4.573413E+03	4.012363E-03	1.097165E-04
4.583333E+03	4.023950E-03	1.095743E-04
4.593254E+03	4.034986E-03	1.094163E-04
4.603175E+03	4.045447E-03	1.092422E-04
4.613095E+03	4.055310E-03	1.090517E-04
4.623016E+03	4.064647E-03	1.088469E-04
4.632937E+03	4.073381E-03	1.086261E-04
4.642857E+03	4.081585E-03	1.083914E-04
4.652778E+03	4.089182E-03	1.081412E-04
4.662698E+03	4.096191E-03	1.078762E-04
4.672619E+03	4.102679E-03	1.075984E-04
4.682540E+03	4.108569E-03	1.073060E-04
4.692460E+03	4.113926E-03	1.070012E-04
4.702381E+03	4.118767E-03	1.066844E-04
4.712302E+03	4.123057E-03	1.063552E-04
4.722222E+03	4.126858E-03	1.060152E-04
4.732143E+03	4.130138E-03	1.056641E-04
4.742063E+03	4.132957E-03	1.053034E-04
4.751984E+03	4.135236E-03	1.049315E-04
4.761905E+03	4.137037E-03	1.045502E-04
4.771825E+03	4.138240E-03	1.041566E-04
4.781746E+03	4.138870E-03	1.037517E-04
4.791667E+03	4.138867E-03	1.033343E-04
4.801587E+03	4.138230E-03	1.029044E-04
4.811508E+03	4.136966E-03	1.024627E-04
4.821429E+03	4.135091E-03	1.020097E-04
4.831349E+03	4.132564E-03	1.015446E-04
4.841270E+03	4.129430E-03	1.010690E-04
4.851190E+03	4.125650E-03	1.005819E-04
4.861111E+03	4.121294E-03	1.000852E-04
4.871032E+03	4.116347E-03	9.957861E-05
4.880952E+03	4.110901E-03	9.906445E-05
4.890873E+03	4.105005E-03	9.854388E-05
4.900794E+03	4.098711E-03	9.801826E-05
4.910714E+03	4.092128E-03	9.749012E-05
4.920635E+03	4.085223E-03	9.695868E-05
4.930556E+03	4.078149E-03	9.642757E-05
4.940476E+03	4.070964E-03	9.589810E-05
4.950397E+03	4.063729E-03	9.537161E-05
4.960317E+03	4.056458E-03	9.484836E-05
4.970238E+03	4.049292E-03	9.433157E-05
4.980159E+03	4.042241E-03	9.382131E-05
4.990079E+03	4.035355E-03	9.331864E-05
5.000000E+03	4.028722E-03	9.282546E-05
5.009921E+03	4.022344E-03	9.234167E-05
5.019841E+03	4.016306E-03	9.186903E-05
5.029762E+03	4.010641E-03	9.140815E-05
5.039683E+03	4.005385E-03	9.095965E-05
5.049603E+03	4.000566E-03	9.052402E-05
5.059524E+03	3.996211E-03	9.010162E-05
5.069444E+03	3.992341E-03	8.969277E-05
5.079365E+03	3.988970E-03	8.929760E-05
5.089286E+03	3.986154E-03	8.891714E-05
5.099206E+03	3.983857E-03	8.855042E-05
5.109127E+03	3.982121E-03	8.819812E-05
5.119048E+03	3.980942E-03	8.786000E-05
5.128968E+03	3.980270E-03	8.753473E-05
5.138889E+03	3.980129E-03	8.722268E-05
5.148810E+03	3.980498E-03	8.692320E-05
5.158730E+03	3.981310E-03	8.663465E-05
5.168651E+03	3.982617E-03	8.635798E-05
5.178571E+03	3.984339E-03	8.609132E-05
5.188492E+03	3.986438E-03	8.583369E-05
5.198413E+03	3.988867E-03	8.558393E-05
5.208333E+03	3.991579E-03	8.534094E-05
5.218254E+03	3.994520E-03	8.510344E-05
5.228175E+03	3.997679E-03	8.487108E-05
5.238095E+03	4.000999E-03	8.464256E-05
5.248016E+03	4.004340E-03	8.441488E-05
5.257937E+03	4.007764E-03	8.418929E-05
5.267857E+03	4.011133E-03	8.396283E-05
5.277778E+03	4.014388E-03	8.373423E-05
5.287698E+03	4.017513E-03	8.350317E-05
5.297619E+03	4.020454E-03	8.326852E-05
5.307540E+03	4.023156E-03	8.302915E-05
5.317460E+03	4.025530E-03	8.278324E-05
5.327381E+03	4.027567E-03	8.253066E-05
5.337302E+03	4.029220E-03	8.227052E-05
5.347222E+03	4.030444E-03	8.200193E-05
5.357143E+03	4.031151E-03	8.172319E-05
5.367063E+03	4.031377E-03	8.143511E-05
5.376984E+03	4.030986E-03	8.113506E-05
5.386905E+03	4.029969E-03	8.082296E-05
5.396825E+03	4.028271E-03	8.049785E-05
5.406746E+03	4.025801E-03	8.015803E-05
5.416667E+03	4.022597E-03	7.980442E-05
5.426587E+03	4.018538E-03	7.943479E-05
5.436508E+03	4.013602E-03	7.904888E-05
5.446429E+03	4.007819E-03	7.864745E-05
5.456349E+03	4.001188E-03	7.823068E-05
5.466270E+03	3.993690E-03	7.779839E-05
5.476190E+03	3.985360E-03	7.735144E-05
5.486111E+03	3.976247E-03	7.689096E-05
5.496032E+03	3.966460E-03	7.641922E-05
5.505952E+03	3.956040E-03	7.593718E-05
5.515873E+03	3.945124E-03	7.544761E-05
5.525794E+03	3.933822E-03	7.495272E-05
5.535714E+03	3.922214E-03	7.445413E-05
5.545635E+03	3.910471E-03	7.395516E-05
5.555556E+03	3.898692E-03	7.345773E-05
5.565476E+03	3.887095E-03	7.296597E-05
5.575397E+03	3.875710E-03	7.248042E-05
5.585317E+03	3.864759E-03	7.200522E-05
5.595238E+03	3.854383E-03	7.154293E-05
5.605159E+03	3.844684E-03	7.109534E-05
5.615079E+03	3.835825E-03	7.066538E-05
5.625000E+03	3.827857E-03	7.025382E-05
5.634921E+03	3.820963E-03	6.986388E-05
5.644841E+03	3.815203E-03	6.949651E-05
5.654762E+03	3.810663E-03	6.915306E-05
5.664683E+03	3.807413E-03	6.883460E-05
5.674603E+03	3.805472E-03	6.854128E-05
5.684524E+03	3.804950E-03	6.827488E-05
5.694444E+03	3.805798E-03	6.803430E-05
5.704365E+03	3.808019E-03	6.781939E-05
5.714286E+03	3.811639E-03	6.763043E-05
5.724206E+03	3.816590E-03	6.746600E-05
5.734127E+03	3.822858E-03	6.732569E-05
5.744048E+03	3.830301E-03	6.720685E-05
5.753968E+03	3.838873E-03	6.710852E-05
5.763889E+03	3.848468E-03	6.702877E-05
5.773810E+03	3.858962E-03	6.696536E-05
5.783730E+03	3.870187E-03	6.691531E-05
5.793651E+03	3.882026E-03	6.687657E-05
5.803571E+03	3.894281E-03	6.684580E-05
5.813492E+03	3.906785E-03	6.682016E-05
5.823413E+03	3.919400E-03	6.679742E-05
5.833333E+03	3.931877E-03	6.677342E-05
5.843254E+03	3.944081E-03	6.674611E-05
5.853175E+03	3.955852E-03	6.671293E-05
5.863095E+03	3.966997E-03	6.667090E-05
5.873016E+03	3.977458E-03	6.661930E-05
5.882937E+03	3.987005E-03	6.655455E-05
5.892857E+03	3.995619E-03	6.647666E-05
5.902778E+03	4.003195E-03	6.638421E-05
5.912698E+03	4.009691E-03	6.627682E-05
5.922619E+03	4.015134E-03	6.615527E-05
5.932540E+03	4.019464E-03	6.601890E-05
5.942460E+03	4.022804E-03	6.587005E-05
5.952381E+03	4.025148E-03	6.570894E-05
5.962302E+03	4.026634E-03	6.553811E-05
5.972222E+03	4.027423E-03	6.536044E-05
5.982143E+03	4.027576E-03	6.517719E-05
5.992063E+03	4.027290E-03	6.499177E-05
6.001984E+03	4.026732E-03	6.480707E-05
6.011905E+03	4.026077E-03	6.462608E-05
6.021825E+03	4.025499E-03	6.445176E-05
6.031746E+03	4.025133E-03	6.428639E-05
6.041667E+03	4.025218E-03	6.413392E-05
6.051587E+03	4.025829E-03	6.399563E-05
6.061508E+03	4.027136E-03	6.387431E-05
6.071429E+03	4.029251E-03	6.377180E-05
6.081349E+03	4.032219E-03	6.368892E-05
6.091270E+03	4.036180E-03	6.362791E-05
6.101190E+03	4.041041E-03	6.358740E-05
6.111111E+03	4.046917E-03	6.356929E-05
6.121032E+03	4.053735E-03	6.357251E-05
6.130952E+03	4.061426E-03	6.359605E-05
6.140873E+03	4.069893E-03	6.363828E-05
6.150794E+03	4.079007E-03	6.369698E-05
6.160714E+03	4.088607E-03	6.376947E-05
6.170635E+03	4.098497E-03	6.385252E-05
6.180556E+03	4.108461E-03	6.394260E-05
6.190476E+03	4.118299E-03	6.403643E-05
6.200397E+03	4.127680E-03	6.412871E-05
6.210317E+03	4.136427E-03	6.421656E-05
6.220238E+03	4.144278E-03	6.429577E-05
6.230159E+03	4.150931E-03	6.436152E-05
6.240079E+03	4.156143E-03	6.440987E-05
6.250000E+03	4.159724E-03	6.443772E-05
6.259921E+03	4.161421E-03	6.444101E-05
6.269841E+03	4.161140E-03	6.441808E-05
6.279762E+03	4.158644E-03	6.436514E-05
6.289683E+03	4.153862E-03	6.428085E-05
6.299603E+03	4.146715E-03	6.416379E-05
6.309524E+03	4.137160E-03	6.401312E-05
6.319444E+03	4.125192E-03	6.382851E-05
6.329365E+03	4.110839E-03	6.361018E-05
6.339286E+03	4.094202E-03	6.335945E-05
6.349206E+03	4.075325E-03	6.307678E-05
6.359127E+03	4.054361E-03	6.276426E-05
6.369048E+03	4.031394E-03	6.242298E-05
6.378968E+03	4.006650E-03	6.205619E-05
6.388889E+03	3.980196E-03	6.166468E-05
6.398810E+03	3.952226E-03	6.125122E-05
6.408730E+03	3.922939E-03	6.081867E-05
6.418651E+03	3.892484E-03	6.036913E-05
6.428571E+03	3.860968E-03	5.990404E-05
6.438492E+03	3.828654E-03	5.942727E-05
6.448413E+03	3.795589E-03	5.893937E-05
6.458333E+03	3.761977E-03	5.844329E-05
6.468254E+03	3.727885E-03	5.793993E-05
6.478175E+03	3.693377E-03	5.743010E-05
6.488095E+03	3.658544E-03	5.691508E-05
6.498016E+03	3.623545E-03	5.639720E-05
6.507937E+03	3.588340E-03	5.587568E-05
6.517857E+03	3.553114E-03	5.535329E-05
6.527778E+03	3.517847E-03	5.482961E-05
6.537698E+03	3.482638E-03	5.430607E-05
6.547619E+03	3.447575E-03	5.378395E-05
6.557540E+03	3.412631E-03	5.326274E-05
6.567460E+03	3.377931E-03	5.274432E-05
6.577381E+03	3.343518E-03	5.222928E-05
6.587302E+03	3.309403E-03	5.171773E-05
6.597222E+03	3.275632E-03	5.121034E-05
6.607143E+03	3.242325E-03	5.070896E-05
6.617063E+03	3.209496E-03	5.021371E-05
6.626984E+03	3.177194E-03	4.972537E-05
6.636905E+03	3.145470E-03	4.924470E-05
6.646825E+03	3.114380E-03	4.877255E-05
6.656746E+03	3.084014E-03	4.831031E-05
6.666667E+03	3.054396E-03	4.785832E-05
6.676587E+03	3.025617E-03	4.741803E-05
6.686508E+03	2.997704E-03	4.698982E-05
6.696429E+03	2.970750E-03	4.657515E-05
6.706349E+03	2.944817E-03	4.617498E-05
6.716270E+03	2.919964E-03	4.579024E-05
6.726190E+03	2.896251E-03	4.542187E-05
6.736111E+03	2.873702E-03	4.507025E-05
6.746032E+03	2.852439E-03	4.473728E-05
6.755952E+03	2.832486E-03	4.442334E-05
6.765873E+03	2.813889E-03	4.412916E-05
6.775794E+03	2.796696E-03	4.385548E-05
6.785714E+03	2.780950E-03	4.360298E-05
6.795635E+03	2.766720E-03	4.337275E-05
6.805556E+03	2.754004E-03	4.316473E-05
6.815476E+03	2.742831E-03	4.297940E-05
6.825397E+03	2.733261E-03	4.281765E-05
6.835317E+03	2.725288E-03	4.267938E-05
6.845238E+03	2.718963E-03	4.256541E-05
6.855159E+03	2.714300E-03	4.247589E-05
6.865079E+03	2.711273E-03	4.241042E-05
6.875000E+03	2.709879E-03	4.236891E-05
6.884921E+03	2.710169E-03	4.235213E-05
6.894841E+03	2.712059E-03	4.235875E-05
6.904762E+03	2.715550E-03	4.238874E-05
6.914683E+03	2.720573E-03	4.244098E-05
6.924603E+03	2.727111E-03	4.251519E-05
6.934524E+03	2.735146E-03	4.261101E-05
6.944444E+03	2.744547E-03	4.272639E-05
6.954365E+03	2.755280E-03	4.286076E-05
6.964286E+03	2.767236E-03	4.301236E-05
6.974206E+03	2.780403E-03	4.318101E-05
6.984127E+03	2.794664E-03	4.336482E-05
6.994048E+03	2.809931E-03	4.356241E-05
7.003968E+03	2.826115E-03	4.377238E-05
7.013889E+03	2.843122E-03	4.399324E-05
7.023810E+03	2.860856E-03	4.422349E-05
7.033730E+03	2.879221E-03	4.446165E-05
7.043651E+03	2.898118E-03	4.470617E-05
7.053571E+03	2.917478E-03	4.495601E-05
7.063492E+03	2.937162E-03	4.520902E-05
7.073413E+03	2.957062E-03	4.546357E-05
7.083333E+03	2.977063E-03	4.571791E-05
7.093254E+03	2.997085E-03	4.597089E-05
7.103175E+03	3.016971E-03	4.622011E-05
7.113095E+03	3.036628E-03	4.646423E-05
7.123016E+03	3.055885E-03	4.670071E-05
7.132937E+03	3.074641E-03	4.692808E-05
7.142857E+03	3.092751E-03	4.714426E-05
7.152778E+03	3.110026E-03	4.734645E-05
7.162698E+03	3.126305E-03	4.753236E-05
7.172619E+03	3.141514E-03	4.770100E-05
7.182540E+03	3.155408E-03	4.784881E-05
7.192460E+03	3.167867E-03	4.797417E-05
7.202381E+03	3.178732E-03	4.807483E-05
7.212302E+03	3.187848E-03	4.814864E-05
7.222222E+03	3.195067E-03	4.819364E-05
7.232143E+03	3.200211E-03	4.820731E-05
7.242063E+03	3.203242E-03	4.818936E-05
7.251984E+03	3.204012E-03	4.813781E-05
7.261905E+03	3.202438E-03	4.805162E-05
7.271825E+03	3.198412E-03	4.792950E-05
7.281746E+03	3.191986E-03	4.777243E-05
7.291667E+03	3.183103E-03	4.757984E-05
7.301587E+03	3.171781E-03	4.735225E-05
7.311508E+03	3.158104E-03	4.709118E-05
7.321429E+03	3.142059E-03	4.679665E-05
7.331349E+03	3.123823E-03	4.647153E-05
7.341270E+03	3.103468E-03	4.611712E-05
7.351190E+03	3.081211E-03	4.573684E-05
7.361111E+03	3.057121E-03	4.533190E-05
7.371032E+03	3.031400E-03	4.490546E-05
7.380952E+03	3.004258E-03	4.446077E-05
7.390873E+03	2.975788E-03	4.399936E-05
7.400794E+03	2.946169E-03	4.352398E-05
7.410714E+03	2.915576E-03	4.303733E-05
7.420635E+03	2.884219E-03	4.254258E-05
7.430556E+03	2.852184E-03	4.204107E-05
7.440476E+03	2.819668E-03	4.153575E-05
7.450397E+03	2.786778E-03	4.102824E-05
7.460317E+03	2.753648E-03	4.052055E-05
7.470238E+03	2.720440E-03	4.001508E-05
7.480159E+03	2.687190E-03	3.951237E-05
7.490079E+03	2.654073E-03	3.901498E-05
7.500000E+03	2.621140E-03	3.852365E-05
7.509921E+03	2.588432E-03	3.803896E-05
7.519841E+03	2.556054E-03	3.756225E-05
7.529762E+03	2.524062E-03	3.709414E-05
7.539683E+03	2.492478E-03	3.663476E-05
7.549603E+03	2.461385E-03	3.618507E-05
7.559524E+03	2.430797E-03	3.574512E-05
7.569444E+03	2.400760E-03	3.531539E-05
7.579365E+03	2.371351E-03	3.489680E-05
7.589286E+03	2.342603E-03	3.448968E-05
7.599206E+03	2.314468E-03	3.409316E-05
7.609127E+03	2.287024E-03	3.370824E-05
7.619048E+03	2.260258E-03	3.333456E-05
7.628968E+03	2.234186E-03	3.297223E-05
7.638889E+03	2.208824E-03	3.262134E-05
7.648810E+03	2.184190E-03	3.228204E-05
7.658730E+03	2.160297E-03	3.195441E-05
7.668651E+03	2.137186E-03	3.163894E-05
7.678571E+03	2.114838E-03	3.133524E-05
7.688492E+03	2.093256E-03	3.104329E-05
7.698413E+03	2.072445E-03	3.076306E-05
