#wls	flux	fluxerr
1.587302E+03	4.874263E-05	3.011509E-06
1.626984E+03	4.879291E-05	3.006581E-06
1.666667E+03	4.887504E-05	3.003404E-06
1.706349E+03	4.898101E-05	3.001465E-06
1.746032E+03	4.912981E-05	3.001906E-06
1.785714E+03	4.929925E-05	3.003349E-06
1.825397E+03	4.951212E-05	3.007159E-06
1.865079E+03	4.973338E-05	3.011186E-06
1.904762E+03	4.998365E-05	3.016661E-06
1.944444E+03	5.023901E-05	3.022123E-06
1.984127E+03	5.052252E-05	3.028943E-06
2.023810E+03	5.085005E-05	3.038045E-06
2.063492E+03	5.127943E-05	3.052836E-06
2.103175E+03	5.191731E-05	3.079567E-06
2.142857E+03	5.283226E-05	3.122143E-06
2.182540E+03	5.409728E-05	3.184658E-06
2.222222E+03	5.566792E-05	3.264247E-06
2.261905E+03	5.752293E-05	3.359429E-06
2.301587E+03	5.961326E-05	3.467116E-06
2.341270E+03	6.189992E-05	3.584845E-06
2.380952E+03	6.438748E-05	3.712693E-06
2.420635E+03	6.710981E-05	3.852409E-06
2.460317E+03	7.006759E-05	4.003802E-06
2.500000E+03	7.331364E-05	4.169639E-06
2.539683E+03	7.689605E-05	4.352351E-06
2.579365E+03	8.084326E-05	4.553201E-06
2.619048E+03	8.523927E-05	4.776517E-06
2.658730E+03	9.012382E-05	5.024054E-06
2.698413E+03	9.558337E-05	5.300090E-06
2.738095E+03	1.017009E-04	5.608594E-06
2.777778E+03	1.085704E-04	5.954007E-06
2.817460E+03	1.162984E-04	6.341319E-06
2.857143E+03	1.250223E-04	6.777035E-06
2.896825E+03	1.348995E-04	7.268519E-06
2.936508E+03	1.461099E-04	7.824088E-06
2.976190E+03	1.588588E-04	8.453142E-06
2.986111E+03	1.623265E-04	8.623806E-06
2.996032E+03	1.658972E-04	8.799283E-06
3.005952E+03	1.695740E-04	8.979698E-06
3.015873E+03	1.734014E-04	9.167377E-06
3.025794E+03	1.773440E-04	9.360408E-06
3.035714E+03	1.814277E-04	9.560124E-06
3.045635E+03	1.856350E-04	9.765556E-06
3.055556E+03	1.900126E-04	9.979121E-06
3.065476E+03	1.945433E-04	1.019987E-05
3.075397E+03	1.992095E-04	1.042684E-05
3.085317E+03	2.040597E-04	1.066251E-05
3.095238E+03	2.090766E-04	1.090594E-05
3.105159E+03	2.142650E-04	1.115732E-05
3.115079E+03	2.196297E-04	1.141684E-05
3.125000E+03	2.251997E-04	1.168597E-05
3.134921E+03	2.309327E-04	1.196244E-05
3.144841E+03	2.369067E-04	1.225024E-05
3.154762E+03	2.430544E-04	1.254582E-05
3.164683E+03	2.494563E-04	1.285328E-05
3.174603E+03	2.560432E-04	1.316898E-05
3.184524E+03	2.628981E-04	1.349712E-05
3.194444E+03	2.699765E-04	1.383533E-05
3.204365E+03	2.773112E-04	1.418523E-05
3.214286E+03	2.849097E-04	1.454712E-05
3.224206E+03	2.927797E-04	1.492131E-05
3.234127E+03	3.009289E-04	1.530810E-05
3.244048E+03	3.093652E-04	1.570781E-05
3.253968E+03	3.180967E-04	1.612075E-05
3.263889E+03	3.271609E-04	1.654874E-05
3.273810E+03	3.365377E-04	1.699064E-05
3.283730E+03	3.462354E-04	1.744678E-05
3.293651E+03	3.562935E-04	1.791903E-05
3.303571E+03	3.666904E-04	1.840621E-05
3.313492E+03	3.774671E-04	1.891024E-05
3.323413E+03	3.886334E-04	1.943151E-05
3.333333E+03	4.002000E-04	1.997042E-05
3.343254E+03	4.121773E-04	2.052734E-05
3.353175E+03	4.246095E-04	2.110436E-05
3.363095E+03	4.374397E-04	2.169849E-05
3.373016E+03	4.507120E-04	2.231179E-05
3.382937E+03	4.645081E-04	2.294815E-05
3.392857E+03	4.787332E-04	2.360271E-05
3.402778E+03	4.935063E-04	2.428119E-05
3.412698E+03	5.087663E-04	2.498042E-05
3.422619E+03	5.245615E-04	2.570258E-05
3.432540E+03	5.409036E-04	2.644809E-05
3.442460E+03	5.578042E-04	2.721730E-05
3.452381E+03	5.752747E-04	2.801060E-05
3.462302E+03	5.933665E-04	2.883029E-05
3.472222E+03	6.120513E-04	2.967479E-05
3.482143E+03	6.313815E-04	3.054642E-05
3.492063E+03	6.513261E-04	3.144347E-05
3.501984E+03	6.719814E-04	3.237037E-05
3.511905E+03	6.933161E-04	3.332538E-05
3.521825E+03	7.152965E-04	3.430663E-05
3.531746E+03	7.380204E-04	3.531859E-05
3.541667E+03	7.614991E-04	3.636153E-05
3.551587E+03	7.856962E-04	3.743347E-05
3.561508E+03	8.106664E-04	3.853675E-05
3.571429E+03	8.364180E-04	3.967150E-05
3.581349E+03	8.629103E-04	4.083551E-05
3.591270E+03	8.902459E-04	4.203337E-05
3.601190E+03	9.183821E-04	4.326277E-05
3.611111E+03	9.473736E-04	4.452600E-05
3.621032E+03	9.771736E-04	4.582055E-05
3.630952E+03	1.007835E-03	4.714863E-05
3.640873E+03	1.039360E-03	4.851000E-05
3.650794E+03	1.071748E-03	4.990434E-05
3.660714E+03	1.104996E-03	5.133126E-05
3.670635E+03	1.139157E-03	5.279281E-05
3.680556E+03	1.174115E-03	5.428334E-05
3.690476E+03	1.210030E-03	5.580991E-05
3.700397E+03	1.246780E-03	5.736663E-05
3.710317E+03	1.284469E-03	5.895791E-05
3.720238E+03	1.322970E-03	6.057763E-05
3.730159E+03	1.362324E-03	6.222729E-05
3.740079E+03	1.402573E-03	6.390859E-05
3.750000E+03	1.443638E-03	6.561755E-05
3.759921E+03	1.485556E-03	6.735555E-05
3.769841E+03	1.528242E-03	6.911848E-05
3.779762E+03	1.571729E-03	7.090747E-05
3.789683E+03	1.615988E-03	7.272092E-05
3.799603E+03	1.660985E-03	7.455705E-05
3.809524E+03	1.706684E-03	7.641394E-05
3.819444E+03	1.753047E-03	7.828965E-05
3.829365E+03	1.800031E-03	8.018203E-05
3.839286E+03	1.847658E-03	8.209176E-05
3.849206E+03	1.895816E-03	8.401371E-05
3.859127E+03	1.944456E-03	8.594539E-05
3.869048E+03	1.993591E-03	8.788733E-05
3.878968E+03	2.043103E-03	8.983400E-05
3.888889E+03	2.092999E-03	9.178567E-05
3.898810E+03	2.143158E-03	9.373684E-05
3.908730E+03	2.193517E-03	9.568465E-05
3.918651E+03	2.244086E-03	9.762945E-05
3.928571E+03	2.294733E-03	9.956543E-05
3.938492E+03	2.345463E-03	1.014928E-04
3.948413E+03	2.396079E-03	1.034029E-04
3.958333E+03	2.446655E-03	1.052991E-04
3.968254E+03	2.497061E-03	1.071757E-04
3.978175E+03	2.547166E-03	1.090272E-04
3.988095E+03	2.596983E-03	1.108543E-04
3.998016E+03	2.646385E-03	1.126515E-04
4.007937E+03	2.695319E-03	1.144169E-04
4.017857E+03	2.743802E-03	1.161513E-04
4.027778E+03	2.791650E-03	1.178471E-04
4.037698E+03	2.838821E-03	1.195028E-04
4.047619E+03	2.885344E-03	1.211197E-04
4.057540E+03	2.931047E-03	1.226910E-04
4.067460E+03	2.975902E-03	1.242158E-04
4.077381E+03	3.019956E-03	1.256963E-04
4.087302E+03	3.063051E-03	1.271263E-04
4.097222E+03	3.105177E-03	1.285058E-04
4.107143E+03	3.146261E-03	1.298320E-04
4.117063E+03	3.186369E-03	1.311081E-04
4.126984E+03	3.225372E-03	1.323291E-04
4.136905E+03	3.263283E-03	1.334961E-04
4.146825E+03	3.300119E-03	1.346100E-04
4.156746E+03	3.335773E-03	1.356670E-04
4.166667E+03	3.370274E-03	1.366687E-04
4.176587E+03	3.403656E-03	1.376170E-04
4.186508E+03	3.435899E-03	1.385113E-04
4.196429E+03	3.466980E-03	1.393512E-04
4.206349E+03	3.496889E-03	1.401369E-04
4.216270E+03	3.525683E-03	1.408710E-04
4.226190E+03	3.553420E-03	1.415563E-04
4.236111E+03	3.580040E-03	1.421907E-04
4.246032E+03	3.605546E-03	1.427749E-04
4.255952E+03	3.630075E-03	1.433148E-04
4.265873E+03	3.653635E-03	1.438109E-04
4.275794E+03	3.676241E-03	1.442643E-04
4.285714E+03	3.697907E-03	1.446759E-04
4.295635E+03	3.718771E-03	1.450516E-04
4.305556E+03	3.738847E-03	1.453921E-04
4.315476E+03	3.758214E-03	1.457009E-04
4.325397E+03	3.776945E-03	1.459810E-04
4.335317E+03	3.795109E-03	1.462354E-04
4.345238E+03	3.812778E-03	1.464672E-04
4.355159E+03	3.830074E-03	1.466813E-04
4.365079E+03	3.847116E-03	1.468823E-04
4.375000E+03	3.863960E-03	1.470725E-04
4.384921E+03	3.880716E-03	1.472563E-04
4.394841E+03	3.897543E-03	1.474397E-04
4.404762E+03	3.914423E-03	1.476222E-04
4.414683E+03	3.931507E-03	1.478094E-04
4.424603E+03	3.948767E-03	1.480003E-04
4.434524E+03	3.966174E-03	1.481937E-04
4.444444E+03	3.983697E-03	1.483886E-04
4.454365E+03	4.001353E-03	1.485857E-04
4.464286E+03	4.018939E-03	1.487773E-04
4.474206E+03	4.036576E-03	1.489682E-04
4.484127E+03	4.054055E-03	1.491507E-04
4.494048E+03	4.071440E-03	1.493271E-04
4.503968E+03	4.088569E-03	1.494918E-04
4.513889E+03	4.105496E-03	1.496469E-04
4.523810E+03	4.122113E-03	1.497885E-04
4.533730E+03	4.138469E-03	1.499187E-04
4.543651E+03	4.154448E-03	1.500334E-04
4.553571E+03	4.170041E-03	1.501326E-04
4.563492E+03	4.185235E-03	1.502159E-04
4.573413E+03	4.200016E-03	1.502830E-04
4.583333E+03	4.214369E-03	1.503338E-04
4.593254E+03	4.228222E-03	1.503657E-04
4.603175E+03	4.241608E-03	1.503804E-04
4.613095E+03	4.254506E-03	1.503771E-04
4.623016E+03	4.266839E-03	1.503536E-04
4.632937E+03	4.278582E-03	1.503092E-04
4.642857E+03	4.289762E-03	1.502450E-04
4.652778E+03	4.300298E-03	1.501587E-04
4.662698E+03	4.310209E-03	1.500510E-04
4.672619E+03	4.319462E-03	1.499212E-04
4.682540E+03	4.327973E-03	1.497666E-04
4.692460E+03	4.335704E-03	1.495863E-04
4.702381E+03	4.342665E-03	1.493809E-04
4.712302E+03	4.348765E-03	1.491476E-04
4.722222E+03	4.353960E-03	1.488853E-04
4.732143E+03	4.358304E-03	1.485962E-04
4.742063E+03	4.361649E-03	1.482755E-04
4.751984E+03	4.364047E-03	1.479255E-04
4.761905E+03	4.365398E-03	1.475431E-04
4.771825E+03	4.365707E-03	1.471288E-04
4.781746E+03	4.364931E-03	1.466817E-04
4.791667E+03	4.363030E-03	1.462007E-04
4.801587E+03	4.360024E-03	1.456869E-04
4.811508E+03	4.355941E-03	1.451416E-04
4.821429E+03	4.350820E-03	1.445665E-04
4.831349E+03	4.344630E-03	1.439608E-04
4.841270E+03	4.337547E-03	1.433309E-04
4.851190E+03	4.329526E-03	1.426752E-04
4.861111E+03	4.320717E-03	1.419990E-04
4.871032E+03	4.311182E-03	1.413044E-04
4.880952E+03	4.301039E-03	1.405952E-04
4.890873E+03	4.290358E-03	1.398739E-04
4.900794E+03	4.279256E-03	1.391444E-04
4.910714E+03	4.267760E-03	1.384074E-04
4.920635E+03	4.255985E-03	1.376668E-04
4.930556E+03	4.244049E-03	1.369263E-04
4.940476E+03	4.231967E-03	1.361863E-04
4.950397E+03	4.219852E-03	1.354504E-04
4.960317E+03	4.207759E-03	1.347202E-04
4.970238E+03	4.195743E-03	1.339975E-04
4.980159E+03	4.183901E-03	1.332852E-04
4.990079E+03	4.172236E-03	1.325833E-04
5.000000E+03	4.160791E-03	1.318929E-04
5.009921E+03	4.149650E-03	1.312166E-04
5.019841E+03	4.138890E-03	1.305568E-04
5.029762E+03	4.128458E-03	1.299114E-04
5.039683E+03	4.118381E-03	1.292813E-04
5.049603E+03	4.108767E-03	1.286696E-04
5.059524E+03	4.099637E-03	1.280769E-04
5.069444E+03	4.090918E-03	1.275006E-04
5.079365E+03	4.082709E-03	1.269436E-04
5.089286E+03	4.074971E-03	1.264047E-04
5.099206E+03	4.067750E-03	1.258850E-04
5.109127E+03	4.061002E-03	1.253829E-04
5.119048E+03	4.054719E-03	1.248981E-04
5.128968E+03	4.048974E-03	1.244326E-04
5.138889E+03	4.043668E-03	1.239833E-04
5.148810E+03	4.038824E-03	1.235507E-04
5.158730E+03	4.034417E-03	1.231338E-04
5.168651E+03	4.030380E-03	1.227305E-04
5.178571E+03	4.026763E-03	1.223421E-04
5.188492E+03	4.023493E-03	1.219663E-04
5.198413E+03	4.020531E-03	1.216019E-04
5.208333E+03	4.017838E-03	1.212474E-04
5.218254E+03	4.015415E-03	1.209029E-04
5.228175E+03	4.013176E-03	1.205656E-04
5.238095E+03	4.011117E-03	1.202353E-04
5.248016E+03	4.009153E-03	1.199095E-04
5.257937E+03	4.007278E-03	1.195879E-04
5.267857E+03	4.005404E-03	1.192677E-04
5.277778E+03	4.003569E-03	1.189501E-04
5.287698E+03	4.001645E-03	1.186313E-04
5.297619E+03	3.999629E-03	1.183112E-04
5.307540E+03	3.997477E-03	1.179883E-04
5.317460E+03	3.995189E-03	1.176627E-04
5.327381E+03	3.992641E-03	1.173309E-04
5.337302E+03	3.989876E-03	1.169939E-04
5.347222E+03	3.986854E-03	1.166508E-04
5.357143E+03	3.983456E-03	1.162980E-04
5.367063E+03	3.979727E-03	1.159368E-04
5.376984E+03	3.975589E-03	1.155651E-04
5.386905E+03	3.971045E-03	1.151830E-04
5.396825E+03	3.966024E-03	1.147885E-04
5.406746E+03	3.960534E-03	1.143818E-04
5.416667E+03	3.954513E-03	1.139614E-04
5.426587E+03	3.947942E-03	1.135266E-04
5.436508E+03	3.940850E-03	1.130784E-04
5.446429E+03	3.933197E-03	1.126158E-04
5.456349E+03	3.925033E-03	1.121402E-04
5.466270E+03	3.916295E-03	1.116500E-04
5.476190E+03	3.907094E-03	1.111484E-04
5.486111E+03	3.897430E-03	1.106355E-04
5.496032E+03	3.887395E-03	1.101139E-04
5.505952E+03	3.876974E-03	1.095833E-04
5.515873E+03	3.866314E-03	1.090479E-04
5.525794E+03	3.855458E-03	1.085089E-04
5.535714E+03	3.844493E-03	1.079688E-04
5.545635E+03	3.833513E-03	1.074303E-04
5.555556E+03	3.822618E-03	1.068962E-04
5.565476E+03	3.811908E-03	1.063692E-04
5.575397E+03	3.801489E-03	1.058523E-04
5.585317E+03	3.791462E-03	1.053482E-04
5.595238E+03	3.781931E-03	1.048597E-04
5.605159E+03	3.772956E-03	1.043885E-04
5.615079E+03	3.764630E-03	1.039369E-04
5.625000E+03	3.757082E-03	1.035085E-04
5.634921E+03	3.750349E-03	1.031042E-04
5.644841E+03	3.744546E-03	1.027269E-04
5.654762E+03	3.739656E-03	1.023761E-04
5.664683E+03	3.735769E-03	1.020541E-04
5.674603E+03	3.732927E-03	1.017618E-04
5.684524E+03	3.731119E-03	1.014989E-04
5.694444E+03	3.730361E-03	1.012656E-04
5.704365E+03	3.730695E-03	1.010628E-04
5.714286E+03	3.732033E-03	1.008882E-04
5.724206E+03	3.734430E-03	1.007429E-04
5.734127E+03	3.737773E-03	1.006239E-04
5.744048E+03	3.742051E-03	1.005306E-04
5.753968E+03	3.747168E-03	1.004605E-04
5.763889E+03	3.753084E-03	1.004123E-04
5.773810E+03	3.759645E-03	1.003819E-04
5.783730E+03	3.766831E-03	1.003686E-04
5.793651E+03	3.774470E-03	1.003679E-04
5.803571E+03	3.782490E-03	1.003779E-04
5.813492E+03	3.790745E-03	1.003945E-04
5.823413E+03	3.799162E-03	1.004160E-04
5.833333E+03	3.807590E-03	1.004383E-04
5.843254E+03	3.815922E-03	1.004588E-04
5.853175E+03	3.824057E-03	1.004748E-04
5.863095E+03	3.831900E-03	1.004840E-04
5.873016E+03	3.839331E-03	1.004834E-04
5.882937E+03	3.846316E-03	1.004720E-04
5.892857E+03	3.852797E-03	1.004487E-04
5.902778E+03	3.858698E-03	1.004116E-04
5.912698E+03	3.863996E-03	1.003602E-04
5.922619E+03	3.868720E-03	1.002954E-04
5.932540E+03	3.872885E-03	1.002178E-04
5.942460E+03	3.876443E-03	1.001263E-04
5.952381E+03	3.879516E-03	1.000243E-04
5.962302E+03	3.882163E-03	9.991327E-05
5.972222E+03	3.884424E-03	9.979449E-05
5.982143E+03	3.886423E-03	9.967122E-05
5.992063E+03	3.888252E-03	9.954599E-05
6.001984E+03	3.890013E-03	9.942145E-05
6.011905E+03	3.891847E-03	9.930129E-05
6.021825E+03	3.893858E-03	9.918827E-05
6.031746E+03	3.896106E-03	9.908393E-05
6.041667E+03	3.898799E-03	9.899360E-05
6.051587E+03	3.901943E-03	9.891749E-05
6.061508E+03	3.905683E-03	9.885929E-05
6.071429E+03	3.910035E-03	9.881940E-05
6.081349E+03	3.915070E-03	9.879965E-05
6.091270E+03	3.920804E-03	9.880045E-05
6.101190E+03	3.927227E-03	9.882158E-05
6.111111E+03	3.934268E-03	9.886124E-05
6.121032E+03	3.941872E-03	9.891809E-05
6.130952E+03	3.949875E-03	9.898809E-05
6.140873E+03	3.958297E-03	9.907167E-05
6.150794E+03	3.966940E-03	9.916375E-05
6.160714E+03	3.975754E-03	9.926301E-05
6.170635E+03	3.984611E-03	9.936616E-05
6.180556E+03	3.993333E-03	9.946867E-05
6.190476E+03	4.001811E-03	9.956776E-05
6.200397E+03	4.009843E-03	9.965836E-05
6.210317E+03	4.017221E-03	9.973527E-05
6.220238E+03	4.023774E-03	9.979418E-05
6.230159E+03	4.029370E-03	9.983182E-05
6.240079E+03	4.033716E-03	9.984091E-05
6.250000E+03	4.036734E-03	9.981953E-05
6.259921E+03	4.038230E-03	9.976288E-05
6.269841E+03	4.038029E-03	9.966666E-05
6.279762E+03	4.036054E-03	9.952898E-05
6.289683E+03	4.032209E-03	9.934748E-05
6.299603E+03	4.026374E-03	9.911925E-05
6.309524E+03	4.018499E-03	9.884308E-05
6.319444E+03	4.008638E-03	9.852029E-05
6.329365E+03	3.996702E-03	9.814872E-05
6.339286E+03	3.982746E-03	9.772974E-05
6.349206E+03	3.966849E-03	9.726528E-05
6.359127E+03	3.949023E-03	9.675565E-05
6.369048E+03	3.929418E-03	9.620454E-05
6.378968E+03	3.908117E-03	9.561394E-05
6.388889E+03	3.885253E-03	9.498708E-05
6.398810E+03	3.860885E-03	9.432543E-05
6.408730E+03	3.835239E-03	9.363444E-05
6.418651E+03	3.808424E-03	9.291675E-05
6.428571E+03	3.780586E-03	9.217590E-05
6.438492E+03	3.751873E-03	9.141542E-05
6.448413E+03	3.722427E-03	9.063876E-05
6.458333E+03	3.692270E-03	8.984635E-05
6.468254E+03	3.661577E-03	8.904246E-05
6.478175E+03	3.630324E-03	8.822643E-05
6.488095E+03	3.598676E-03	8.740220E-05
6.498016E+03	3.566601E-03	8.656896E-05
6.507937E+03	3.534219E-03	8.572955E-05
6.517857E+03	3.501528E-03	8.488392E-05
6.527778E+03	3.468680E-03	8.403565E-05
6.537698E+03	3.435666E-03	8.318452E-05
6.547619E+03	3.402593E-03	8.233303E-05
6.557540E+03	3.369489E-03	8.148186E-05
6.567460E+03	3.336418E-03	8.063245E-05
6.577381E+03	3.303444E-03	7.978634E-05
6.587302E+03	3.270664E-03	7.894585E-05
6.597222E+03	3.238107E-03	7.811158E-05
6.607143E+03	3.205832E-03	7.728495E-05
6.617063E+03	3.173941E-03	7.646836E-05
6.626984E+03	3.142495E-03	7.566321E-05
6.636905E+03	3.111524E-03	7.487024E-05
6.646825E+03	3.081163E-03	7.409260E-05
6.656746E+03	3.051410E-03	7.333020E-05
6.666667E+03	3.022365E-03	7.258541E-05
6.676587E+03	2.994130E-03	7.186061E-05
6.686508E+03	2.966737E-03	7.115652E-05
6.696429E+03	2.940290E-03	7.047553E-05
6.706349E+03	2.914855E-03	6.981914E-05
6.716270E+03	2.890465E-03	6.918813E-05
6.726190E+03	2.867252E-03	6.858555E-05
6.736111E+03	2.845247E-03	6.801205E-05
6.746032E+03	2.824511E-03	6.746905E-05
6.755952E+03	2.805104E-03	6.695786E-05
6.765873E+03	2.787112E-03	6.648047E-05
6.775794E+03	2.770584E-03	6.603797E-05
6.785714E+03	2.755533E-03	6.563058E-05
6.795635E+03	2.742061E-03	6.526063E-05
6.805556E+03	2.730136E-03	6.492728E-05
6.815476E+03	2.719814E-03	6.463176E-05
6.825397E+03	2.711144E-03	6.437515E-05
6.835317E+03	2.704076E-03	6.415613E-05
6.845238E+03	2.698678E-03	6.397625E-05
6.855159E+03	2.694947E-03	6.383531E-05
6.865079E+03	2.692839E-03	6.373219E-05
6.875000E+03	2.692335E-03	6.366634E-05
6.884921E+03	2.693442E-03	6.363778E-05
6.894841E+03	2.696126E-03	6.364566E-05
6.904762E+03	2.700313E-03	6.368811E-05
6.914683E+03	2.705992E-03	6.376475E-05
6.924603E+03	2.713109E-03	6.387424E-05
6.934524E+03	2.721576E-03	6.401439E-05
6.944444E+03	2.731393E-03	6.418514E-05
6.954365E+03	2.742429E-03	6.438329E-05
6.964286E+03	2.754643E-03	6.460781E-05
6.974206E+03	2.767995E-03	6.485768E-05
6.984127E+03	2.782334E-03	6.512929E-05
6.994048E+03	2.797646E-03	6.542225E-05
7.003968E+03	2.813774E-03	6.573282E-05
7.013889E+03	2.830697E-03	6.606044E-05
7.023810E+03	2.848285E-03	6.640204E-05
7.033730E+03	2.866439E-03	6.675528E-05
7.043651E+03	2.885059E-03	6.711779E-05
7.053571E+03	2.904076E-03	6.748794E-05
7.063492E+03	2.923345E-03	6.786237E-05
7.073413E+03	2.942754E-03	6.823844E-05
7.083333E+03	2.962223E-03	6.861435E-05
7.093254E+03	2.981597E-03	6.898647E-05
7.103175E+03	3.000787E-03	6.935282E-05
7.113095E+03	3.019665E-03	6.971047E-05
7.123016E+03	3.038064E-03	7.005561E-05
7.132937E+03	3.055884E-03	7.038601E-05
7.142857E+03	3.072948E-03	7.069770E-05
7.152778E+03	3.089196E-03	7.098937E-05
7.162698E+03	3.104407E-03	7.125607E-05
7.172619E+03	3.118519E-03	7.149648E-05
7.182540E+03	3.131353E-03	7.170665E-05
7.192460E+03	3.142771E-03	7.188356E-05
7.202381E+03	3.152639E-03	7.202434E-05
7.212302E+03	3.160875E-03	7.212727E-05
7.222222E+03	3.167320E-03	7.218892E-05
7.232143E+03	3.171865E-03	7.220705E-05
7.242063E+03	3.174504E-03	7.218167E-05
7.251984E+03	3.175075E-03	7.210934E-05
7.261905E+03	3.173513E-03	7.198884E-05
7.271825E+03	3.169860E-03	7.182133E-05
7.281746E+03	3.164007E-03	7.160460E-05
7.291667E+03	3.155951E-03	7.133877E-05
7.301587E+03	3.145748E-03	7.102539E-05
7.311508E+03	3.133393E-03	7.066457E-05
7.321429E+03	3.118983E-03	7.025871E-05
7.331349E+03	3.102509E-03	6.980784E-05
7.341270E+03	3.084063E-03	6.931424E-05
7.351190E+03	3.063791E-03	6.878141E-05
7.361111E+03	3.041733E-03	6.821042E-05
7.371032E+03	3.018059E-03	6.760528E-05
7.380952E+03	2.992827E-03	6.696745E-05
7.390873E+03	2.966306E-03	6.630308E-05
7.400794E+03	2.938560E-03	6.561378E-05
7.410714E+03	2.909779E-03	6.490387E-05
7.420635E+03	2.880110E-03	6.417677E-05
7.430556E+03	2.849735E-03	6.343660E-05
7.440476E+03	2.818793E-03	6.268652E-05
7.450397E+03	2.787376E-03	6.192865E-05
7.460317E+03	2.755646E-03	6.116664E-05
7.470238E+03	2.723682E-03	6.040229E-05
7.480159E+03	2.691593E-03	5.963799E-05
7.490079E+03	2.659513E-03	5.887679E-05
7.500000E+03	2.627498E-03	5.811989E-05
7.509921E+03	2.595662E-03	5.736982E-05
7.519841E+03	2.564011E-03	5.662663E-05
7.529762E+03	2.532647E-03	5.589240E-05
7.539683E+03	2.501634E-03	5.516841E-05
7.549603E+03	2.471030E-03	5.445580E-05
7.559524E+03	2.440856E-03	5.375489E-05
7.569444E+03	2.411165E-03	5.306670E-05
7.579365E+03	2.382037E-03	5.239289E-05
7.589286E+03	2.353479E-03	5.173345E-05
7.599206E+03	2.325520E-03	5.108890E-05
7.609127E+03	2.298216E-03	5.046034E-05
7.619048E+03	2.271526E-03	4.984678E-05
7.628968E+03	2.245507E-03	4.924931E-05
7.638889E+03	2.220209E-03	4.866896E-05
7.648810E+03	2.195589E-03	4.810465E-05
7.658730E+03	2.171699E-03	4.755741E-05
7.668651E+03	2.148550E-03	4.702743E-05
7.678571E+03	2.126157E-03	4.651488E-05
7.688492E+03	2.104556E-03	4.602052E-05
7.698413E+03	2.083698E-03	4.554312E-05
