#wls	flux	fluxerr
1.587302E+03	9.859936E-05	2.734532E-05
1.626984E+03	1.016488E-04	2.806044E-05
1.666667E+03	1.048482E-04	2.880618E-05
1.706349E+03	1.082241E-04	2.958890E-05
1.746032E+03	1.117652E-04	3.040450E-05
1.785714E+03	1.154881E-04	3.125646E-05
1.825397E+03	1.193654E-04	3.213630E-05
1.865079E+03	1.234241E-04	3.305020E-05
1.904762E+03	1.276061E-04	3.398151E-05
1.944444E+03	1.319179E-04	3.493100E-05
1.984127E+03	1.363688E-04	3.590008E-05
2.023810E+03	1.410493E-04	3.691135E-05
2.063492E+03	1.460808E-04	3.799482E-05
2.103175E+03	1.518051E-04	3.923662E-05
2.142857E+03	1.584449E-04	4.069000E-05
2.182540E+03	1.662614E-04	4.241633E-05
2.222222E+03	1.752119E-04	4.439800E-05
2.261905E+03	1.852081E-04	4.660603E-05
2.301587E+03	1.961177E-04	4.900081E-05
2.341270E+03	2.078576E-04	5.155568E-05
2.380952E+03	2.204400E-04	5.426786E-05
2.420635E+03	2.338619E-04	5.713056E-05
2.460317E+03	2.482185E-04	6.016070E-05
2.500000E+03	2.635917E-04	6.337100E-05
2.539683E+03	2.800735E-04	6.677577E-05
2.579365E+03	2.978055E-04	7.040001E-05
2.619048E+03	3.168063E-04	7.423855E-05
2.658730E+03	3.373174E-04	7.833754E-05
2.698413E+03	3.593615E-04	8.269039E-05
2.738095E+03	3.831539E-04	8.733390E-05
2.777778E+03	4.087669E-04	9.227041E-05
2.817460E+03	4.363214E-04	9.751197E-05
2.857143E+03	4.660596E-04	1.030961E-04
2.896825E+03	4.979907E-04	1.090064E-04
2.936508E+03	5.323650E-04	1.152785E-04
2.976190E+03	5.692419E-04	1.219039E-04
2.986111E+03	5.789058E-04	1.236243E-04
2.996032E+03	5.887088E-04	1.253614E-04
3.005952E+03	5.986513E-04	1.271148E-04
3.015873E+03	6.088095E-04	1.289005E-04
3.025794E+03	6.191917E-04	1.307196E-04
3.035714E+03	6.297300E-04	1.325574E-04
3.045635E+03	6.404236E-04	1.344134E-04
3.055556E+03	6.512718E-04	1.362870E-04
3.065476E+03	6.624315E-04	1.382107E-04
3.075397E+03	6.736678E-04	1.401349E-04
3.085317E+03	6.851387E-04	1.420921E-04
3.095238E+03	6.968463E-04	1.440824E-04
3.105159E+03	7.087096E-04	1.460884E-04
3.115079E+03	7.208116E-04	1.481269E-04
3.125000E+03	7.330693E-04	1.501803E-04
3.134921E+03	7.454816E-04	1.522480E-04
3.144841E+03	7.581344E-04	1.543471E-04
3.154762E+03	7.709413E-04	1.564595E-04
3.164683E+03	7.839903E-04	1.586028E-04
3.174603E+03	7.972829E-04	1.607765E-04
3.184524E+03	8.107299E-04	1.629622E-04
3.194444E+03	8.243295E-04	1.651592E-04
3.204365E+03	8.381734E-04	1.673854E-04
3.214286E+03	8.522631E-04	1.696406E-04
3.224206E+03	8.665046E-04	1.719054E-04
3.234127E+03	8.808957E-04	1.741792E-04
3.244048E+03	8.955320E-04	1.764802E-04
3.253968E+03	9.104146E-04	1.788083E-04
3.263889E+03	9.254446E-04	1.811434E-04
3.273810E+03	9.407204E-04	1.835043E-04
3.283730E+03	9.561405E-04	1.858707E-04
3.293651E+03	9.718056E-04	1.882618E-04
3.303571E+03	9.876116E-04	1.906568E-04
3.313492E+03	1.003661E-03	1.930751E-04
3.323413E+03	1.019847E-03	1.954957E-04
3.333333E+03	1.036274E-03	1.979381E-04
3.343254E+03	1.052833E-03	2.003810E-04
3.353175E+03	1.069631E-03	2.028441E-04
3.363095E+03	1.086666E-03	2.053268E-04
3.373016E+03	1.103826E-03	2.078072E-04
3.382937E+03	1.121220E-03	2.103054E-04
3.392857E+03	1.138732E-03	2.127993E-04
3.402778E+03	1.156474E-03	2.153091E-04
3.412698E+03	1.174327E-03	2.178124E-04
3.422619E+03	1.192404E-03	2.203296E-04
3.432540E+03	1.210583E-03	2.228381E-04
3.442460E+03	1.229101E-03	2.253804E-04
3.452381E+03	1.247595E-03	2.278897E-04
3.462302E+03	1.266299E-03	2.304087E-04
3.472222E+03	1.285212E-03	2.329364E-04
3.482143E+03	1.304330E-03	2.354716E-04
3.492063E+03	1.323526E-03	2.379912E-04
3.501984E+03	1.342791E-03	2.404929E-04
3.511905E+03	1.362249E-03	2.429989E-04
3.521825E+03	1.381895E-03	2.455076E-04
3.531746E+03	1.401595E-03	2.479949E-04
3.541667E+03	1.421473E-03	2.504825E-04
3.551587E+03	1.441393E-03	2.529461E-04
3.561508E+03	1.461482E-03	2.554074E-04
3.571429E+03	1.481732E-03	2.578650E-04
3.581349E+03	1.502006E-03	2.602944E-04
3.591270E+03	1.522431E-03	2.627175E-04
3.601190E+03	1.542866E-03	2.651097E-04
3.611111E+03	1.563441E-03	2.674931E-04
3.621032E+03	1.584151E-03	2.698663E-04
3.630952E+03	1.604848E-03	2.722042E-04
3.640873E+03	1.625526E-03	2.745056E-04
3.650794E+03	1.646318E-03	2.767927E-04
3.660714E+03	1.667219E-03	2.790645E-04
3.670635E+03	1.688078E-03	2.812955E-04
3.680556E+03	1.709033E-03	2.835085E-04
3.690476E+03	1.729930E-03	2.856781E-04
3.700397E+03	1.750909E-03	2.878272E-04
3.710317E+03	1.771964E-03	2.899546E-04
3.720238E+03	1.792941E-03	2.920350E-04
3.730159E+03	1.813831E-03	2.940672E-04
3.740079E+03	1.834776E-03	2.960742E-04
3.750000E+03	1.855770E-03	2.980549E-04
3.759921E+03	1.876657E-03	2.999840E-04
3.769841E+03	1.897429E-03	3.018610E-04
3.779762E+03	1.918382E-03	3.037325E-04
3.789683E+03	1.939056E-03	3.055259E-04
3.799603E+03	1.959747E-03	3.072881E-04
3.809524E+03	1.980452E-03	3.090187E-04
3.819444E+03	2.001012E-03	3.106928E-04
3.829365E+03	2.021421E-03	3.123101E-04
3.839286E+03	2.041828E-03	3.138937E-04
3.849206E+03	2.062229E-03	3.154432E-04
3.859127E+03	2.082467E-03	3.169344E-04
3.869048E+03	2.102536E-03	3.183671E-04
3.878968E+03	2.122590E-03	3.197650E-04
3.888889E+03	2.142470E-03	3.211042E-04
3.898810E+03	2.162333E-03	3.224086E-04
3.908730E+03	2.182018E-03	3.236545E-04
3.918651E+03	2.201526E-03	3.248423E-04
3.928571E+03	2.221016E-03	3.259961E-04
3.938492E+03	2.240330E-03	3.270928E-04
3.948413E+03	2.259630E-03	3.281567E-04
3.958333E+03	2.278599E-03	3.291418E-04
3.968254E+03	2.297723E-03	3.301190E-04
3.978175E+03	2.316522E-03	3.310196E-04
3.988095E+03	2.335327E-03	3.318912E-04
3.998016E+03	2.353982E-03	3.327121E-04
4.007937E+03	2.372660E-03	3.335071E-04
4.017857E+03	2.391042E-03	3.342316E-04
4.027778E+03	2.409465E-03	3.349335E-04
4.037698E+03	2.427777E-03	3.355916E-04
4.047619E+03	2.446155E-03	3.362309E-04
4.057540E+03	2.464448E-03	3.368309E-04
4.067460E+03	2.482507E-03	3.373715E-04
4.077381E+03	2.500841E-03	3.379222E-04
4.087302E+03	2.518972E-03	3.384186E-04
4.097222E+03	2.537081E-03	3.388856E-04
4.107143E+03	2.555354E-03	3.393480E-04
4.117063E+03	2.573478E-03	3.397643E-04
4.126984E+03	2.591805E-03	3.401817E-04
4.136905E+03	2.610190E-03	3.405807E-04
4.146825E+03	2.628655E-03	3.409646E-04
4.156746E+03	2.647222E-03	3.413361E-04
4.166667E+03	2.665913E-03	3.416984E-04
4.176587E+03	2.684751E-03	3.420543E-04
4.186508E+03	2.703930E-03	3.424285E-04
4.196429E+03	2.723138E-03	3.427811E-04
4.206349E+03	2.742565E-03	3.431364E-04
4.216270E+03	2.762238E-03	3.434976E-04
4.226190E+03	2.782181E-03	3.438675E-04
4.236111E+03	2.802420E-03	3.442492E-04
4.246032E+03	2.822979E-03	3.446451E-04
4.255952E+03	2.843881E-03	3.450583E-04
4.265873E+03	2.865153E-03	3.454913E-04
4.275794E+03	2.886648E-03	3.459263E-04
4.285714E+03	2.908727E-03	3.464065E-04
4.295635E+03	2.931074E-03	3.468935E-04
4.305556E+03	2.953879E-03	3.474099E-04
4.315476E+03	2.977165E-03	3.479578E-04
4.325397E+03	3.000949E-03	3.485387E-04
4.335317E+03	3.025077E-03	3.491346E-04
4.345238E+03	3.049737E-03	3.497669E-04
4.355159E+03	3.074944E-03	3.504369E-04
4.365079E+03	3.100711E-03	3.511455E-04
4.375000E+03	3.126873E-03	3.518738E-04
4.384921E+03	3.153615E-03	3.526425E-04
4.394841E+03	3.180941E-03	3.534517E-04
4.404762E+03	3.208679E-03	3.542819E-04
4.414683E+03	3.237006E-03	3.551528E-04
4.424603E+03	3.265922E-03	3.560639E-04
4.434524E+03	3.295242E-03	3.569950E-04
4.444444E+03	3.325138E-03	3.579647E-04
4.454365E+03	3.355418E-03	3.589527E-04
4.464286E+03	3.386248E-03	3.599767E-04
4.474206E+03	3.417430E-03	3.610158E-04
4.484127E+03	3.449125E-03	3.620877E-04
4.494048E+03	3.481309E-03	3.631898E-04
4.503968E+03	3.513771E-03	3.643006E-04
4.513889E+03	3.546476E-03	3.654175E-04
4.523810E+03	3.579578E-03	3.665569E-04
4.533730E+03	3.613038E-03	3.677157E-04
4.543651E+03	3.646438E-03	3.688523E-04
4.553571E+03	3.680300E-03	3.700208E-04
4.563492E+03	3.714004E-03	3.711599E-04
4.573413E+03	3.747879E-03	3.723042E-04
4.583333E+03	3.781870E-03	3.734496E-04
4.593254E+03	3.815725E-03	3.745728E-04
4.603175E+03	3.849378E-03	3.756692E-04
4.613095E+03	3.882956E-03	3.767533E-04
4.623016E+03	3.916192E-03	3.778013E-04
4.632937E+03	3.949008E-03	3.788078E-04
4.642857E+03	3.981519E-03	3.797865E-04
4.652778E+03	4.013241E-03	3.806938E-04
4.662698E+03	4.044682E-03	3.815806E-04
4.672619E+03	4.075141E-03	3.823836E-04
4.682540E+03	4.104918E-03	3.831340E-04
4.692460E+03	4.133700E-03	3.838057E-04
4.702381E+03	4.161575E-03	3.844100E-04
4.712302E+03	4.188015E-03	3.849017E-04
4.722222E+03	4.213295E-03	3.853097E-04
4.732143E+03	4.237077E-03	3.856068E-04
4.742063E+03	4.259429E-03	3.858025E-04
4.751984E+03	4.280000E-03	3.858691E-04
4.761905E+03	4.298639E-03	3.857968E-04
4.771825E+03	4.315201E-03	3.855767E-04
4.781746E+03	4.329540E-03	3.851996E-04
4.791667E+03	4.341720E-03	3.846753E-04
4.801587E+03	4.351207E-03	3.839603E-04
4.811508E+03	4.358512E-03	3.831037E-04
4.821429E+03	4.362946E-03	3.820486E-04
4.831349E+03	4.364718E-03	3.808167E-04
4.841270E+03	4.364091E-03	3.794343E-04
4.851190E+03	4.360952E-03	3.778924E-04
4.861111E+03	4.355417E-03	3.762019E-04
4.871032E+03	4.347610E-03	3.743740E-04
4.880952E+03	4.337673E-03	3.724210E-04
4.890873E+03	4.325944E-03	3.703719E-04
4.900794E+03	4.312360E-03	3.682205E-04
4.910714E+03	4.297063E-03	3.659787E-04
4.920635E+03	4.280189E-03	3.636569E-04
4.930556E+03	4.261873E-03	3.612657E-04
4.940476E+03	4.242436E-03	3.588311E-04
4.950397E+03	4.221809E-03	3.563458E-04
4.960317E+03	4.200110E-03	3.538184E-04
4.970238E+03	4.177453E-03	3.512569E-04
4.980159E+03	4.153945E-03	3.486687E-04
4.990079E+03	4.129875E-03	3.460762E-04
5.000000E+03	4.104963E-03	3.434544E-04
5.009921E+03	4.079672E-03	3.408401E-04
5.019841E+03	4.053898E-03	3.382228E-04
5.029762E+03	4.027718E-03	3.356072E-04
5.039683E+03	4.001381E-03	3.330120E-04
5.049603E+03	3.974593E-03	3.304110E-04
5.059524E+03	3.947767E-03	3.278368E-04
5.069444E+03	3.920774E-03	3.252768E-04
5.079365E+03	3.893664E-03	3.227334E-04
5.089286E+03	3.866645E-03	3.202222E-04
5.099206E+03	3.839406E-03	3.177156E-04
5.109127E+03	3.812316E-03	3.152425E-04
5.119048E+03	3.785225E-03	3.127890E-04
5.128968E+03	3.758147E-03	3.103548E-04
5.138889E+03	3.731259E-03	3.079527E-04
5.148810E+03	3.704238E-03	3.055547E-04
5.158730E+03	3.677409E-03	3.031864E-04
5.168651E+03	3.650605E-03	3.008324E-04
5.178571E+03	3.623980E-03	2.985041E-04
5.188492E+03	3.597202E-03	2.961730E-04
5.198413E+03	3.570571E-03	2.938627E-04
5.208333E+03	3.543917E-03	2.915579E-04
5.218254E+03	3.517219E-03	2.892557E-04
5.228175E+03	3.490607E-03	2.869659E-04
5.238095E+03	3.463906E-03	2.846730E-04
5.248016E+03	3.437095E-03	2.823743E-04
5.257937E+03	3.410149E-03	2.800670E-04
5.267857E+03	3.383195E-03	2.777604E-04
5.277778E+03	3.355916E-03	2.754280E-04
5.287698E+03	3.328728E-03	2.731029E-04
5.297619E+03	3.301177E-03	2.707471E-04
5.307540E+03	3.273531E-03	2.683822E-04
5.317460E+03	3.245633E-03	2.659945E-04
5.327381E+03	3.217471E-03	2.635825E-04
5.337302E+03	3.189036E-03	2.611449E-04
5.347222E+03	3.160459E-03	2.586919E-04
5.357143E+03	3.131734E-03	2.562227E-04
5.367063E+03	3.102591E-03	2.537146E-04
5.376984E+03	3.073302E-03	2.511897E-04
5.386905E+03	3.043744E-03	2.486375E-04
5.396825E+03	3.014058E-03	2.460692E-04
5.406746E+03	2.983998E-03	2.434647E-04
5.416667E+03	2.953973E-03	2.408569E-04
5.426587E+03	2.923620E-03	2.382162E-04
5.436508E+03	2.893222E-03	2.355656E-04
5.446429E+03	2.862681E-03	2.328969E-04
5.456349E+03	2.832157E-03	2.302230E-04
5.466270E+03	2.801563E-03	2.275369E-04
5.476190E+03	2.770944E-03	2.248423E-04
5.486111E+03	2.740460E-03	2.221521E-04
5.496032E+03	2.710040E-03	2.194606E-04
5.505952E+03	2.679848E-03	2.167810E-04
5.515873E+03	2.649824E-03	2.141086E-04
5.525794E+03	2.620018E-03	2.114476E-04
5.535714E+03	2.590599E-03	2.088115E-04
5.545635E+03	2.561510E-03	2.061960E-04
5.555556E+03	2.532919E-03	2.036145E-04
5.565476E+03	2.504771E-03	2.010626E-04
5.575397E+03	2.477126E-03	1.985454E-04
5.585317E+03	2.450145E-03	1.960755E-04
5.595238E+03	2.423879E-03	1.936574E-04
5.605159E+03	2.398179E-03	1.912788E-04
5.615079E+03	2.373401E-03	1.889682E-04
5.625000E+03	2.349389E-03	1.867132E-04
5.634921E+03	2.326194E-03	1.845176E-04
5.644841E+03	2.303955E-03	1.823924E-04
5.654762E+03	2.282616E-03	1.803329E-04
5.664683E+03	2.262310E-03	1.783496E-04
5.674603E+03	2.242974E-03	1.764372E-04
5.684524E+03	2.224733E-03	1.746053E-04
5.694444E+03	2.207611E-03	1.728554E-04
5.704365E+03	2.191443E-03	1.711743E-04
5.714286E+03	2.176526E-03	1.695848E-04
5.724206E+03	2.162689E-03	1.680732E-04
5.734127E+03	2.149941E-03	1.666398E-04
5.744048E+03	2.138384E-03	1.652919E-04
5.753968E+03	2.128019E-03	1.640291E-04
5.763889E+03	2.118757E-03	1.628442E-04
5.773810E+03	2.110688E-03	1.617433E-04
5.783730E+03	2.103807E-03	1.607255E-04
5.793651E+03	2.098018E-03	1.597829E-04
5.803571E+03	2.093318E-03	1.589146E-04
5.813492E+03	2.089785E-03	1.581260E-04
5.823413E+03	2.087414E-03	1.574158E-04
5.833333E+03	2.086105E-03	1.567759E-04
5.843254E+03	2.085939E-03	1.562118E-04
5.853175E+03	2.086910E-03	1.557221E-04
5.863095E+03	2.088921E-03	1.552990E-04
5.873016E+03	2.092057E-03	1.549479E-04
5.882937E+03	2.096315E-03	1.546679E-04
5.892857E+03	2.101599E-03	1.544511E-04
5.902778E+03	2.108002E-03	1.543036E-04
5.912698E+03	2.115525E-03	1.542246E-04
5.922619E+03	2.124078E-03	1.542067E-04
5.932540E+03	2.133757E-03	1.542561E-04
5.942460E+03	2.144475E-03	1.543657E-04
5.952381E+03	2.156421E-03	1.545481E-04
5.962302E+03	2.169419E-03	1.547899E-04
5.972222E+03	2.183471E-03	1.550903E-04
5.982143E+03	2.198769E-03	1.554622E-04
5.992063E+03	2.215127E-03	1.558915E-04
6.001984E+03	2.232641E-03	1.563839E-04
6.011905E+03	2.251209E-03	1.569316E-04
6.021825E+03	2.270917E-03	1.575397E-04
6.031746E+03	2.291749E-03	1.582062E-04
6.041667E+03	2.313686E-03	1.589291E-04
6.051587E+03	2.336696E-03	1.597053E-04
6.061508E+03	2.360636E-03	1.605245E-04
6.071429E+03	2.385558E-03	1.613895E-04
6.081349E+03	2.411398E-03	1.622955E-04
6.091270E+03	2.437978E-03	1.632301E-04
6.101190E+03	2.465416E-03	1.642010E-04
6.111111E+03	2.493400E-03	1.651872E-04
6.121032E+03	2.521918E-03	1.661880E-04
6.130952E+03	2.550837E-03	1.671948E-04
6.140873E+03	2.579901E-03	1.681913E-04
6.150794E+03	2.609059E-03	1.691747E-04
6.160714E+03	2.638252E-03	1.701420E-04
6.170635E+03	2.666953E-03	1.710598E-04
6.180556E+03	2.695313E-03	1.719391E-04
6.190476E+03	2.723013E-03	1.727605E-04
6.200397E+03	2.749727E-03	1.735052E-04
6.210317E+03	2.775478E-03	1.741762E-04
6.220238E+03	2.799814E-03	1.747473E-04
6.230159E+03	2.822642E-03	1.752152E-04
6.240079E+03	2.843631E-03	1.755617E-04
6.250000E+03	2.862832E-03	1.757932E-04
6.259921E+03	2.879941E-03	1.758937E-04
6.269841E+03	2.894663E-03	1.758486E-04
6.279762E+03	2.906977E-03	1.756600E-04
6.289683E+03	2.916759E-03	1.753241E-04
6.299603E+03	2.923913E-03	1.748387E-04
6.309524E+03	2.928368E-03	1.742032E-04
6.319444E+03	2.930081E-03	1.734189E-04
6.329365E+03	2.929038E-03	1.724887E-04
6.339286E+03	2.925258E-03	1.714172E-04
6.349206E+03	2.918651E-03	1.702029E-04
6.359127E+03	2.909418E-03	1.688610E-04
6.369048E+03	2.897779E-03	1.674074E-04
6.378968E+03	2.883591E-03	1.658371E-04
6.388889E+03	2.867115E-03	1.641680E-04
6.398810E+03	2.848497E-03	1.624112E-04
6.408730E+03	2.828020E-03	1.605851E-04
6.418651E+03	2.805601E-03	1.586873E-04
6.428571E+03	2.781411E-03	1.567295E-04
6.438492E+03	2.755873E-03	1.547374E-04
6.448413E+03	2.729034E-03	1.527148E-04
6.458333E+03	2.701064E-03	1.506726E-04
6.468254E+03	2.672127E-03	1.486210E-04
6.478175E+03	2.642380E-03	1.465696E-04
6.488095E+03	2.611859E-03	1.445209E-04
6.498016E+03	2.580939E-03	1.424961E-04
6.507937E+03	2.549636E-03	1.404963E-04
6.517857E+03	2.517957E-03	1.385221E-04
6.527778E+03	2.486246E-03	1.365924E-04
6.537698E+03	2.454379E-03	1.347000E-04
6.547619E+03	2.422674E-03	1.328622E-04
6.557540E+03	2.391103E-03	1.310771E-04
6.567460E+03	2.359636E-03	1.293425E-04
6.577381E+03	2.328554E-03	1.276733E-04
6.587302E+03	2.297704E-03	1.260603E-04
6.597222E+03	2.267347E-03	1.245174E-04
6.607143E+03	2.237422E-03	1.230403E-04
6.617063E+03	2.207865E-03	1.216247E-04
6.626984E+03	2.178907E-03	1.202823E-04
6.636905E+03	2.150470E-03	1.190067E-04
6.646825E+03	2.122474E-03	1.177911E-04
6.656746E+03	2.095123E-03	1.166447E-04
6.666667E+03	2.068324E-03	1.155601E-04
6.676587E+03	2.042078E-03	1.145351E-04
6.686508E+03	2.016284E-03	1.135622E-04
6.696429E+03	1.991117E-03	1.126491E-04
6.706349E+03	1.966468E-03	1.117879E-04
6.716270E+03	1.942315E-03	1.109755E-04
6.726190E+03	1.918636E-03	1.102089E-04
6.736111E+03	1.895404E-03	1.094849E-04
6.746032E+03	1.872591E-03	1.088002E-04
6.755952E+03	1.850166E-03	1.081513E-04
6.765873E+03	1.828102E-03	1.075353E-04
6.775794E+03	1.806374E-03	1.069491E-04
6.785714E+03	1.784960E-03	1.063901E-04
6.795635E+03	1.763852E-03	1.058562E-04
6.805556E+03	1.743051E-03	1.053465E-04
6.815476E+03	1.722659E-03	1.048657E-04
6.825397E+03	1.702572E-03	1.044065E-04
6.835317E+03	1.682966E-03	1.039787E-04
6.845238E+03	1.664027E-03	1.035931E-04
6.855159E+03	1.645717E-03	1.032469E-04
6.865079E+03	1.628229E-03	1.029519E-04
6.875000E+03	1.611750E-03	1.027202E-04
6.884921E+03	1.596232E-03	1.025488E-04
6.894841E+03	1.581920E-03	1.024542E-04
6.904762E+03	1.568748E-03	1.024330E-04
6.914683E+03	1.556940E-03	1.025007E-04
6.924603E+03	1.546482E-03	1.026579E-04
6.934524E+03	1.537355E-03	1.029047E-04
6.944444E+03	1.529745E-03	1.032550E-04
6.954365E+03	1.523608E-03	1.037079E-04
6.964286E+03	1.518899E-03	1.042622E-04
6.974206E+03	1.515773E-03	1.049305E-04
6.984127E+03	1.514160E-03	1.057102E-04
6.994048E+03	1.513990E-03	1.065987E-04
7.003968E+03	1.515390E-03	1.076072E-04
7.013889E+03	1.518274E-03	1.087318E-04
7.023810E+03	1.522613E-03	1.099731E-04
7.033730E+03	1.528306E-03	1.113259E-04
7.043651E+03	1.535451E-03	1.127999E-04
7.053571E+03	1.543929E-03	1.143885E-04
7.063492E+03	1.553612E-03	1.160848E-04
7.073413E+03	1.564579E-03	1.178965E-04
7.083333E+03	1.576686E-03	1.198153E-04
7.093254E+03	1.589775E-03	1.218310E-04
7.103175E+03	1.603903E-03	1.239499E-04
7.113095E+03	1.618820E-03	1.261543E-04
7.123016E+03	1.634568E-03	1.284493E-04
7.132937E+03	1.650873E-03	1.308144E-04
7.142857E+03	1.667761E-03	1.332531E-04
7.152778E+03	1.684939E-03	1.357427E-04
7.162698E+03	1.702337E-03	1.382782E-04
7.172619E+03	1.719881E-03	1.408539E-04
7.182540E+03	1.737248E-03	1.434435E-04
7.192460E+03	1.754352E-03	1.460396E-04
7.202381E+03	1.771021E-03	1.486270E-04
7.212302E+03	1.787082E-03	1.511905E-04
7.222222E+03	1.802362E-03	1.537139E-04
7.232143E+03	1.816689E-03	1.561810E-04
7.242063E+03	1.829807E-03	1.585676E-04
7.251984E+03	1.841733E-03	1.608727E-04
7.261905E+03	1.852139E-03	1.630652E-04
7.271825E+03	1.861065E-03	1.651452E-04
7.281746E+03	1.868209E-03	1.670829E-04
7.291667E+03	1.873555E-03	1.688729E-04
7.301587E+03	1.877015E-03	1.705037E-04
7.311508E+03	1.878521E-03	1.719649E-04
7.321429E+03	1.877938E-03	1.732402E-04
7.331349E+03	1.875425E-03	1.743396E-04
7.341270E+03	1.870800E-03	1.752421E-04
7.351190E+03	1.864172E-03	1.759536E-04
7.361111E+03	1.855677E-03	1.764825E-04
7.371032E+03	1.845106E-03	1.768047E-04
7.380952E+03	1.832807E-03	1.769495E-04
7.390873E+03	1.818790E-03	1.769139E-04
7.400794E+03	1.803073E-03	1.766960E-04
7.410714E+03	1.785869E-03	1.763128E-04
7.420635E+03	1.767305E-03	1.757740E-04
7.430556E+03	1.747519E-03	1.750900E-04
7.440476E+03	1.726648E-03	1.742721E-04
7.450397E+03	1.704749E-03	1.733235E-04
7.460317E+03	1.682050E-03	1.722650E-04
7.470238E+03	1.658683E-03	1.711084E-04
7.480159E+03	1.634784E-03	1.698660E-04
7.490079E+03	1.610478E-03	1.685494E-04
7.500000E+03	1.585809E-03	1.671618E-04
7.509921E+03	1.560969E-03	1.657226E-04
7.519841E+03	1.536061E-03	1.642420E-04
7.529762E+03	1.511107E-03	1.627219E-04
7.539683E+03	1.486343E-03	1.611874E-04
7.549603E+03	1.461697E-03	1.596309E-04
7.559524E+03	1.437314E-03	1.580684E-04
7.569444E+03	1.413184E-03	1.564990E-04
7.579365E+03	1.389498E-03	1.549443E-04
7.589286E+03	1.366160E-03	1.533944E-04
7.599206E+03	1.343208E-03	1.518542E-04
7.609127E+03	1.320803E-03	1.503426E-04
7.619048E+03	1.298834E-03	1.488481E-04
7.628968E+03	1.277383E-03	1.473808E-04
7.638889E+03	1.256463E-03	1.459433E-04
7.648810E+03	1.236017E-03	1.445301E-04
7.658730E+03	1.216114E-03	1.431501E-04
7.668651E+03	1.196754E-03	1.418046E-04
7.678571E+03	1.177933E-03	1.404940E-04
7.688492E+03	1.159591E-03	1.392125E-04
7.698413E+03	1.141779E-03	1.379671E-04
