#wls	flux	fluxerr
1.587302E+03	1.288108E-04	4.501871E-05
1.626984E+03	1.330977E-04	4.630158E-05
1.666667E+03	1.375706E-04	4.762988E-05
1.706349E+03	1.422869E-04	4.902183E-05
1.746032E+03	1.472057E-04	5.046161E-05
1.785714E+03	1.523464E-04	5.195401E-05
1.825397E+03	1.577232E-04	5.350203E-05
1.865079E+03	1.632624E-04	5.507874E-05
1.904762E+03	1.689633E-04	5.668222E-05
1.944444E+03	1.748032E-04	5.830317E-05
1.984127E+03	1.808197E-04	5.995239E-05
2.023810E+03	1.870373E-04	6.163597E-05
2.063492E+03	1.937332E-04	6.344259E-05
2.103175E+03	2.012290E-04	6.547289E-05
2.142857E+03	2.099067E-04	6.784411E-05
2.182540E+03	2.199999E-04	7.062228E-05
2.222222E+03	2.315407E-04	7.380674E-05
2.261905E+03	2.443625E-04	7.733327E-05
2.301587E+03	2.581905E-04	8.110474E-05
2.341270E+03	2.730157E-04	8.510910E-05
2.380952E+03	2.887045E-04	8.929554E-05
2.420635E+03	3.052647E-04	9.365764E-05
2.460317E+03	3.227932E-04	9.821569E-05
2.500000E+03	3.413638E-04	1.029818E-04
2.539683E+03	3.610045E-04	1.079531E-04
2.579365E+03	3.819143E-04	1.131770E-04
2.619048E+03	4.040681E-04	1.186322E-04
2.658730E+03	4.276130E-04	1.243477E-04
2.698413E+03	4.526392E-04	1.303337E-04
2.738095E+03	4.792358E-04	1.365988E-04
2.777778E+03	5.074901E-04	1.431494E-04
2.817460E+03	5.374075E-04	1.499674E-04
2.857143E+03	5.693083E-04	1.571211E-04
2.896825E+03	6.030315E-04	1.645429E-04
2.936508E+03	6.387285E-04	1.722508E-04
2.976190E+03	6.765609E-04	1.802628E-04
2.986111E+03	6.862666E-04	1.822873E-04
2.996032E+03	6.961892E-04	1.843510E-04
3.005952E+03	7.062327E-04	1.864278E-04
3.015873E+03	7.163990E-04	1.885178E-04
3.025794E+03	7.266938E-04	1.906221E-04
3.035714E+03	7.372272E-04	1.927691E-04
3.045635E+03	7.477917E-04	1.949040E-04
3.055556E+03	7.585943E-04	1.970803E-04
3.065476E+03	7.695303E-04	1.992703E-04
3.075397E+03	7.805983E-04	2.014732E-04
3.085317E+03	7.917970E-04	2.036881E-04
3.095238E+03	8.031254E-04	2.059143E-04
3.105159E+03	8.146946E-04	2.081798E-04
3.115079E+03	8.262797E-04	2.104266E-04
3.125000E+03	8.381060E-04	2.127116E-04
3.134921E+03	8.500596E-04	2.150053E-04
3.144841E+03	8.621393E-04	2.173071E-04
3.154762E+03	8.743441E-04	2.196161E-04
3.164683E+03	8.866727E-04	2.219315E-04
3.174603E+03	8.991237E-04	2.242527E-04
3.184524E+03	9.118194E-04	2.266094E-04
3.194444E+03	9.245136E-04	2.289400E-04
3.204365E+03	9.374520E-04	2.313050E-04
3.214286E+03	9.505106E-04	2.336731E-04
3.224206E+03	9.636877E-04	2.360434E-04
3.234127E+03	9.769817E-04	2.384152E-04
3.244048E+03	9.905245E-04	2.408199E-04
3.253968E+03	1.004050E-03	2.431923E-04
3.263889E+03	1.017824E-03	2.455967E-04
3.273810E+03	1.031712E-03	2.479995E-04
3.283730E+03	1.045711E-03	2.503999E-04
3.293651E+03	1.059822E-03	2.527975E-04
3.303571E+03	1.074042E-03	2.551913E-04
3.313492E+03	1.088368E-03	2.575800E-04
3.323413E+03	1.102943E-03	2.599972E-04
3.333333E+03	1.117479E-03	2.623739E-04
3.343254E+03	1.132263E-03	2.647776E-04
3.353175E+03	1.147149E-03	2.671733E-04
3.363095E+03	1.162135E-03	2.695601E-04
3.373016E+03	1.177219E-03	2.719372E-04
3.382937E+03	1.192398E-03	2.743034E-04
3.392857E+03	1.207670E-03	2.766579E-04
3.402778E+03	1.223188E-03	2.790353E-04
3.412698E+03	1.238798E-03	2.813995E-04
3.422619E+03	1.254337E-03	2.837135E-04
3.432540E+03	1.270120E-03	2.860482E-04
3.442460E+03	1.285985E-03	2.883666E-04
3.452381E+03	1.301931E-03	2.906678E-04
3.462302E+03	1.318119E-03	2.929873E-04
3.472222E+03	1.334220E-03	2.952514E-04
3.482143E+03	1.350559E-03	2.975322E-04
3.492063E+03	1.366801E-03	2.997549E-04
3.501984E+03	1.383280E-03	3.019929E-04
3.511905E+03	1.399824E-03	3.042080E-04
3.521825E+03	1.416430E-03	3.063990E-04
3.531746E+03	1.433095E-03	3.085652E-04
3.541667E+03	1.449817E-03	3.107056E-04
3.551587E+03	1.466769E-03	3.128570E-04
3.561508E+03	1.483593E-03	3.149425E-04
3.571429E+03	1.500644E-03	3.170375E-04
3.581349E+03	1.517557E-03	3.190645E-04
3.591270E+03	1.534693E-03	3.210990E-04
3.601190E+03	1.551867E-03	3.231019E-04
3.611111E+03	1.569075E-03	3.250723E-04
3.621032E+03	1.586314E-03	3.270092E-04
3.630952E+03	1.603579E-03	3.289115E-04
3.640873E+03	1.621060E-03	3.308175E-04
3.650794E+03	1.638369E-03	3.326481E-04
3.660714E+03	1.655890E-03	3.344809E-04
3.670635E+03	1.673228E-03	3.362361E-04
3.680556E+03	1.690773E-03	3.379920E-04
3.690476E+03	1.708327E-03	3.397084E-04
3.700397E+03	1.725882E-03	3.413840E-04
3.710317E+03	1.743438E-03	3.430183E-04
3.720238E+03	1.760991E-03	3.446105E-04
3.730159E+03	1.778535E-03	3.461596E-04
3.740079E+03	1.796068E-03	3.476652E-04
3.750000E+03	1.813795E-03	3.491664E-04
3.759921E+03	1.831297E-03	3.505827E-04
3.769841E+03	1.848777E-03	3.519532E-04
3.779762E+03	1.866442E-03	3.533174E-04
3.789683E+03	1.883868E-03	3.545945E-04
3.799603E+03	1.901476E-03	3.558643E-04
3.809524E+03	1.919052E-03	3.570863E-04
3.819444E+03	1.936591E-03	3.582596E-04
3.829365E+03	1.954089E-03	3.593838E-04
3.839286E+03	1.971546E-03	3.604587E-04
3.849206E+03	1.988956E-03	3.614836E-04
3.859127E+03	2.006317E-03	3.624583E-04
3.869048E+03	2.023627E-03	3.633826E-04
3.878968E+03	2.040882E-03	3.642560E-04
3.888889E+03	2.058082E-03	3.650785E-04
3.898810E+03	2.075222E-03	3.658498E-04
3.908730E+03	2.092301E-03	3.665699E-04
3.918651E+03	2.109547E-03	3.672787E-04
3.928571E+03	2.126501E-03	3.678962E-04
3.938492E+03	2.143390E-03	3.684625E-04
3.948413E+03	2.160445E-03	3.690177E-04
3.958333E+03	2.177203E-03	3.694823E-04
3.968254E+03	2.194129E-03	3.699362E-04
3.978175E+03	2.210755E-03	3.703004E-04
3.988095E+03	2.227556E-03	3.706550E-04
3.998016E+03	2.244056E-03	3.709212E-04
4.007937E+03	2.260737E-03	3.711788E-04
4.017857E+03	2.277121E-03	3.713500E-04
4.027778E+03	2.293693E-03	3.715140E-04
4.037698E+03	2.309974E-03	3.715936E-04
4.047619E+03	2.326454E-03	3.716681E-04
4.057540E+03	2.342650E-03	3.716607E-04
4.067460E+03	2.359056E-03	3.716503E-04
4.077381E+03	2.375188E-03	3.715605E-04
4.087302E+03	2.391545E-03	3.714701E-04
4.097222E+03	2.407636E-03	3.713031E-04
4.107143E+03	2.423967E-03	3.711380E-04
4.117063E+03	2.440042E-03	3.708989E-04
4.126984E+03	2.456372E-03	3.706642E-04
4.136905E+03	2.472460E-03	3.703586E-04
4.146825E+03	2.488815E-03	3.700594E-04
4.156746E+03	2.504939E-03	3.696925E-04
4.166667E+03	2.521091E-03	3.692967E-04
4.176587E+03	2.537279E-03	3.688736E-04
4.186508E+03	2.553766E-03	3.684617E-04
4.196429E+03	2.570045E-03	3.679876E-04
4.206349E+03	2.586380E-03	3.674900E-04
4.216270E+03	2.602776E-03	3.669701E-04
4.226190E+03	2.619242E-03	3.664291E-04
4.236111E+03	2.635781E-03	3.658682E-04
4.246032E+03	2.652403E-03	3.652887E-04
4.255952E+03	2.669111E-03	3.646915E-04
4.265873E+03	2.685648E-03	3.640419E-04
4.275794E+03	2.702546E-03	3.634130E-04
4.285714E+03	2.719545E-03	3.627693E-04
4.295635E+03	2.736382E-03	3.620765E-04
4.305556E+03	2.753595E-03	3.614062E-04
4.315476E+03	2.770646E-03	3.606882E-04
4.325397E+03	2.787807E-03	3.599587E-04
4.335317E+03	2.805075E-03	3.592180E-04
4.345238E+03	2.822449E-03	3.584662E-04
4.355159E+03	2.839926E-03	3.577036E-04
4.365079E+03	2.857502E-03	3.569303E-04
4.375000E+03	2.875171E-03	3.561460E-04
4.384921E+03	2.892927E-03	3.553508E-04
4.394841E+03	2.910480E-03	3.545101E-04
4.404762E+03	2.928378E-03	3.536917E-04
4.414683E+03	2.946051E-03	3.528274E-04
4.424603E+03	2.963763E-03	3.519503E-04
4.434524E+03	2.981499E-03	3.510597E-04
4.444444E+03	2.999242E-03	3.501547E-04
4.454365E+03	3.016974E-03	3.492344E-04
4.464286E+03	3.034674E-03	3.482979E-04
4.474206E+03	3.052323E-03	3.473441E-04
4.484127E+03	3.069610E-03	3.463397E-04
4.494048E+03	3.086798E-03	3.453164E-04
4.503968E+03	3.104150E-03	3.443051E-04
4.513889E+03	3.121066E-03	3.432409E-04
4.523810E+03	3.137520E-03	3.421236E-04
4.533730E+03	3.154069E-03	3.410162E-04
4.543651E+03	3.170398E-03	3.398865E-04
4.553571E+03	3.186197E-03	3.387034E-04
4.563492E+03	3.202029E-03	3.375295E-04
4.573413E+03	3.217291E-03	3.363035E-04
4.583333E+03	3.232262E-03	3.350572E-04
4.593254E+03	3.246932E-03	3.337922E-04
4.603175E+03	3.260993E-03	3.324797E-04
4.613095E+03	3.275033E-03	3.311824E-04
4.623016E+03	3.288457E-03	3.298425E-04
4.632937E+03	3.301560E-03	3.284926E-04
4.642857E+03	3.314348E-03	3.271360E-04
4.652778E+03	3.326826E-03	3.257758E-04
4.662698E+03	3.339001E-03	3.244151E-04
4.672619E+03	3.350584E-03	3.230287E-04
4.682540E+03	3.361886E-03	3.216496E-04
4.692460E+03	3.373220E-03	3.203099E-04
4.702381E+03	3.383996E-03	3.189559E-04
4.712302E+03	3.394225E-03	3.175916E-04
4.722222E+03	3.404522E-03	3.162773E-04
4.732143E+03	3.414294E-03	3.149597E-04
4.742063E+03	3.423850E-03	3.136702E-04
4.751984E+03	3.433199E-03	3.124118E-04
4.761905E+03	3.442344E-03	3.111869E-04
4.771825E+03	3.451289E-03	3.099980E-04
4.781746E+03	3.459728E-03	3.088200E-04
4.791667E+03	3.468271E-03	3.077094E-04
4.801587E+03	3.476302E-03	3.066134E-04
4.811508E+03	3.483817E-03	3.055342E-04
4.821429E+03	3.491420E-03	3.045265E-04
4.831349E+03	3.498797E-03	3.035647E-04
4.841270E+03	3.505634E-03	3.026234E-04
4.851190E+03	3.512227E-03	3.017296E-04
4.861111E+03	3.518566E-03	3.008818E-04
4.871032E+03	3.524333E-03	3.000521E-04
4.880952E+03	3.530130E-03	2.992905E-04
4.890873E+03	3.535333E-03	2.985429E-04
4.900794E+03	3.540239E-03	2.978332E-04
4.910714E+03	3.544838E-03	2.971592E-04
4.920635E+03	3.548818E-03	2.964931E-04
4.930556E+03	3.552780E-03	2.958839E-04
4.940476E+03	3.556110E-03	2.952786E-04
4.950397E+03	3.559105E-03	2.947005E-04
4.960317E+03	3.561764E-03	2.941476E-04
4.970238E+03	3.563779E-03	2.935927E-04
4.980159E+03	3.565761E-03	2.930844E-04
4.990079E+03	3.567102E-03	2.925707E-04
5.000000E+03	3.568108E-03	2.920750E-04
5.009921E+03	3.568785E-03	2.915957E-04
5.019841E+03	3.568834E-03	2.911064E-04
5.029762E+03	3.568871E-03	2.906554E-04
5.039683E+03	3.568294E-03	2.901917E-04
5.049603E+03	3.567417E-03	2.897388E-04
5.059524E+03	3.565945E-03	2.892706E-04
5.069444E+03	3.564489E-03	2.888348E-04
5.079365E+03	3.562453E-03	2.883810E-04
5.089286E+03	3.560144E-03	2.879322E-04
5.099206E+03	3.557565E-03	2.874866E-04
5.109127E+03	3.554721E-03	2.870424E-04
5.119048E+03	3.551307E-03	2.865735E-04
5.128968E+03	3.547623E-03	2.861018E-04
5.138889E+03	3.543662E-03	2.856251E-04
5.148810E+03	3.539414E-03	2.851408E-04
5.158730E+03	3.534870E-03	2.846461E-04
5.168651E+03	3.529716E-03	2.841143E-04
5.178571E+03	3.524528E-03	2.835899E-04
5.188492E+03	3.518696E-03	2.830223E-04
5.198413E+03	3.512202E-03	2.824083E-04
5.208333E+03	3.505608E-03	2.817916E-04
5.218254E+03	3.498304E-03	2.811216E-04
5.228175E+03	3.490557E-03	2.804186E-04
5.238095E+03	3.482341E-03	2.796788E-04
5.248016E+03	3.473629E-03	2.788989E-04
5.257937E+03	3.464396E-03	2.780754E-04
5.267857E+03	3.454328E-03	2.771822E-04
5.277778E+03	3.443691E-03	2.762394E-04
5.287698E+03	3.432464E-03	2.752440E-04
5.297619E+03	3.420624E-03	2.741934E-04
5.307540E+03	3.408152E-03	2.730850E-04
5.317460E+03	3.394755E-03	2.718945E-04
5.327381E+03	3.380701E-03	2.706425E-04
5.337302E+03	3.365980E-03	2.693276E-04
5.347222E+03	3.350587E-03	2.679485E-04
5.357143E+03	3.334518E-03	2.665043E-04
5.367063E+03	3.317501E-03	2.649728E-04
5.376984E+03	3.300089E-03	2.633977E-04
5.386905E+03	3.281741E-03	2.617354E-04
5.396825E+03	3.262477E-03	2.599872E-04
5.406746E+03	3.242848E-03	2.581966E-04
5.416667E+03	3.222604E-03	2.563436E-04
5.426587E+03	3.201502E-03	2.544087E-04
5.436508E+03	3.179835E-03	2.524151E-04
5.446429E+03	3.157631E-03	2.503651E-04
5.456349E+03	3.134923E-03	2.482612E-04
5.466270E+03	3.111492E-03	2.460862E-04
5.476190E+03	3.087886E-03	2.438836E-04
5.486111E+03	3.063642E-03	2.416170E-04
5.496032E+03	3.039061E-03	2.393103E-04
5.505952E+03	3.014191E-03	2.369676E-04
5.515873E+03	2.989084E-03	2.345932E-04
5.525794E+03	2.963556E-03	2.321730E-04
5.535714E+03	2.938150E-03	2.297500E-04
5.545635E+03	2.912449E-03	2.272916E-04
5.555556E+03	2.886757E-03	2.248221E-04
5.565476E+03	2.861142E-03	2.223472E-04
5.575397E+03	2.835441E-03	2.198543E-04
5.585317E+03	2.810188E-03	2.173855E-04
5.595238E+03	2.784993E-03	2.149106E-04
5.605159E+03	2.760380E-03	2.124705E-04
5.615079E+03	2.735966E-03	2.100357E-04
5.625000E+03	2.712046E-03	2.076293E-04
5.634921E+03	2.688464E-03	2.052395E-04
5.644841E+03	2.665720E-03	2.029045E-04
5.654762E+03	2.643435E-03	2.005956E-04
5.664683E+03	2.622092E-03	1.983494E-04
5.674603E+03	2.601312E-03	1.961372E-04
5.684524E+03	2.581348E-03	1.939782E-04
5.694444E+03	2.562237E-03	1.918748E-04
5.704365E+03	2.543802E-03	1.898136E-04
5.714286E+03	2.526478E-03	1.878271E-04
5.724206E+03	2.509871E-03	1.858855E-04
5.734127E+03	2.494399E-03	1.840195E-04
5.744048E+03	2.479658E-03	1.821990E-04
5.753968E+03	2.465848E-03	1.804384E-04
5.763889E+03	2.452963E-03	1.787367E-04
5.773810E+03	2.440790E-03	1.770783E-04
5.783730E+03	2.429709E-03	1.754902E-04
5.793651E+03	2.419500E-03	1.739559E-04
5.803571E+03	2.409941E-03	1.724592E-04
5.813492E+03	2.401205E-03	1.710121E-04
5.823413E+03	2.393262E-03	1.696122E-04
5.833333E+03	2.386087E-03	1.682571E-04
5.843254E+03	2.379651E-03	1.669443E-04
5.853175E+03	2.373927E-03	1.656718E-04
5.863095E+03	2.368700E-03	1.644240E-04
5.873016E+03	2.364334E-03	1.632261E-04
5.882937E+03	2.360428E-03	1.620498E-04
5.892857E+03	2.357160E-03	1.609073E-04
5.902778E+03	2.354521E-03	1.597975E-04
5.912698E+03	2.352507E-03	1.587198E-04
5.922619E+03	2.351119E-03	1.576740E-04
5.932540E+03	2.350360E-03	1.566600E-04
5.942460E+03	2.350238E-03	1.556778E-04
5.952381E+03	2.350576E-03	1.547155E-04
5.962302E+03	2.351769E-03	1.537988E-04
5.972222E+03	2.353449E-03	1.529031E-04
5.982143E+03	2.356019E-03	1.520542E-04
5.992063E+03	2.359107E-03	1.512277E-04
6.001984E+03	2.362920E-03	1.504365E-04
6.011905E+03	2.367469E-03	1.496806E-04
6.021825E+03	2.372756E-03	1.489600E-04
6.031746E+03	2.378590E-03	1.482621E-04
6.041667E+03	2.385344E-03	1.476098E-04
6.051587E+03	2.392807E-03	1.469895E-04
6.061508E+03	2.400754E-03	1.463869E-04
6.071429E+03	2.409531E-03	1.458231E-04
6.081349E+03	2.418690E-03	1.452704E-04
6.091270E+03	2.428356E-03	1.447360E-04
6.101190E+03	2.438443E-03	1.442140E-04
6.111111E+03	2.448856E-03	1.436974E-04
6.121032E+03	2.459481E-03	1.431788E-04
6.130952E+03	2.470189E-03	1.426501E-04
6.140873E+03	2.480842E-03	1.421027E-04
6.150794E+03	2.491279E-03	1.415272E-04
6.160714E+03	2.501121E-03	1.409021E-04
6.170635E+03	2.510589E-03	1.402404E-04
6.180556E+03	2.519067E-03	1.395081E-04
6.190476E+03	2.526756E-03	1.387175E-04
6.200397E+03	2.533021E-03	1.378348E-04
6.210317E+03	2.537846E-03	1.368611E-04
6.220238E+03	2.541218E-03	1.357979E-04
6.230159E+03	2.542507E-03	1.346138E-04
6.240079E+03	2.541722E-03	1.333124E-04
6.250000E+03	2.538679E-03	1.318873E-04
6.259921E+03	2.533220E-03	1.303341E-04
6.269841E+03	2.525218E-03	1.286502E-04
6.279762E+03	2.514575E-03	1.268349E-04
6.289683E+03	2.501027E-03	1.248795E-04
6.299603E+03	2.484968E-03	1.228085E-04
6.309524E+03	2.466211E-03	1.206173E-04
6.319444E+03	2.444613E-03	1.183039E-04
6.329365E+03	2.420678E-03	1.158975E-04
6.339286E+03	2.394137E-03	1.133902E-04
6.349206E+03	2.365549E-03	1.108130E-04
6.359127E+03	2.334712E-03	1.081609E-04
6.369048E+03	2.302031E-03	1.054572E-04
6.378968E+03	2.267729E-03	1.027158E-04
6.388889E+03	2.232223E-03	9.995933E-05
6.398810E+03	2.195373E-03	9.718466E-05
6.408730E+03	2.157597E-03	9.441346E-05
6.418651E+03	2.119121E-03	9.165821E-05
6.428571E+03	2.080155E-03	8.893034E-05
6.438492E+03	2.040899E-03	8.624032E-05
6.448413E+03	2.001536E-03	8.359757E-05
6.458333E+03	1.962070E-03	8.100372E-05
6.468254E+03	1.922978E-03	7.847966E-05
6.478175E+03	1.884226E-03	7.602469E-05
6.488095E+03	1.845929E-03	7.364423E-05
6.498016E+03	1.808039E-03	7.133681E-05
6.507937E+03	1.770942E-03	6.911815E-05
6.517857E+03	1.734559E-03	6.698512E-05
6.527778E+03	1.698811E-03	6.493481E-05
6.537698E+03	1.664033E-03	6.298006E-05
6.547619E+03	1.629989E-03	6.111162E-05
6.557540E+03	1.596855E-03	5.933593E-05
6.567460E+03	1.564788E-03	5.765844E-05
6.577381E+03	1.533550E-03	5.606981E-05
6.587302E+03	1.503291E-03	5.457508E-05
6.597222E+03	1.474148E-03	5.317857E-05
6.607143E+03	1.445884E-03	5.187098E-05
6.617063E+03	1.418634E-03	5.065634E-05
6.626984E+03	1.392400E-03	4.953391E-05
6.636905E+03	1.367188E-03	4.850285E-05
6.646825E+03	1.342997E-03	4.756208E-05
6.656746E+03	1.319823E-03	4.671032E-05
6.666667E+03	1.297658E-03	4.594600E-05
6.676587E+03	1.276488E-03	4.526588E-05
6.686508E+03	1.256293E-03	4.466549E-05
6.696429E+03	1.237053E-03	4.414042E-05
6.706349E+03	1.218750E-03	4.368641E-05
6.716270E+03	1.201360E-03	4.329932E-05
6.726190E+03	1.184865E-03	4.297526E-05
6.736111E+03	1.169243E-03	4.271041E-05
6.746032E+03	1.154377E-03	4.249770E-05
6.755952E+03	1.140439E-03	4.234086E-05
6.765873E+03	1.127310E-03	4.223314E-05
6.775794E+03	1.114878E-03	4.216810E-05
6.785714E+03	1.103310E-03	4.215012E-05
6.795635E+03	1.092409E-03	4.216985E-05
6.805556E+03	1.082349E-03	4.223249E-05
6.815476E+03	1.072953E-03	4.232976E-05
6.825397E+03	1.064424E-03	4.246844E-05
6.835317E+03	1.056616E-03	4.264189E-05
6.845238E+03	1.049756E-03	4.285843E-05
6.855159E+03	1.043715E-03	4.311249E-05
6.865079E+03	1.038636E-03	4.340960E-05
6.875000E+03	1.034655E-03	4.375554E-05
6.884921E+03	1.031643E-03	4.414512E-05
6.894841E+03	1.029732E-03	4.458427E-05
6.904762E+03	1.028960E-03	4.507527E-05
6.914683E+03	1.029449E-03	4.562425E-05
6.924603E+03	1.031056E-03	4.622588E-05
6.934524E+03	1.033898E-03	4.688623E-05
6.944444E+03	1.037998E-03	4.760759E-05
6.954365E+03	1.043380E-03	4.839225E-05
6.964286E+03	1.050064E-03	4.924246E-05
6.974206E+03	1.058066E-03	5.016037E-05
6.984127E+03	1.067404E-03	5.114823E-05
6.994048E+03	1.078090E-03	5.220813E-05
7.003968E+03	1.090043E-03	5.333757E-05
7.013889E+03	1.103454E-03	5.454744E-05
7.023810E+03	1.118237E-03	5.583515E-05
7.033730E+03	1.134395E-03	5.720239E-05
7.043651E+03	1.151829E-03	5.864565E-05
7.053571E+03	1.170724E-03	6.017594E-05
7.063492E+03	1.190972E-03	6.178935E-05
7.073413E+03	1.212453E-03	6.348104E-05
7.083333E+03	1.235346E-03	6.526193E-05
7.093254E+03	1.259410E-03	6.712067E-05
7.103175E+03	1.284814E-03	6.906773E-05
7.113095E+03	1.311290E-03	7.109000E-05
7.123016E+03	1.338880E-03	7.319103E-05
7.132937E+03	1.367629E-03	7.537440E-05
7.142857E+03	1.397215E-03	7.762361E-05
7.152778E+03	1.427649E-03	7.994023E-05
7.162698E+03	1.458816E-03	8.231858E-05
7.172619E+03	1.490585E-03	8.475212E-05
7.182540E+03	1.522808E-03	8.723310E-05
7.192460E+03	1.555323E-03	8.975278E-05
7.202381E+03	1.587956E-03	9.230141E-05
7.212302E+03	1.620519E-03	9.486824E-05
7.222222E+03	1.652810E-03	9.744158E-05
7.232143E+03	1.684625E-03	1.000091E-04
7.242063E+03	1.715747E-03	1.025578E-04
7.251984E+03	1.745810E-03	1.050652E-04
7.261905E+03	1.774899E-03	1.075355E-04
7.271825E+03	1.802656E-03	1.099465E-04
7.281746E+03	1.828724E-03	1.122752E-04
7.291667E+03	1.853231E-03	1.145283E-04
7.301587E+03	1.875694E-03	1.166747E-04
7.311508E+03	1.896125E-03	1.187136E-04
7.321429E+03	1.914570E-03	1.206463E-04
7.331349E+03	1.930610E-03	1.224447E-04
7.341270E+03	1.944344E-03	1.241135E-04
7.351190E+03	1.955740E-03	1.256488E-04
7.361111E+03	1.964796E-03	1.270486E-04
7.371032E+03	1.971538E-03	1.283129E-04
7.380952E+03	1.976020E-03	1.294434E-04
7.390873E+03	1.978317E-03	1.304433E-04
7.400794E+03	1.978530E-03	1.313176E-04
7.410714E+03	1.976775E-03	1.320725E-04
7.420635E+03	1.973011E-03	1.327037E-04
7.430556E+03	1.967725E-03	1.332424E-04
7.440476E+03	1.960720E-03	1.336742E-04
7.450397E+03	1.952493E-03	1.340317E-04
7.460317E+03	1.942850E-03	1.343007E-04
7.470238E+03	1.932283E-03	1.345142E-04
7.480159E+03	1.920595E-03	1.346580E-04
7.490079E+03	1.908094E-03	1.347526E-04
7.500000E+03	1.894908E-03	1.348067E-04
7.509921E+03	1.881157E-03	1.348285E-04
7.519841E+03	1.866952E-03	1.348254E-04
7.529762E+03	1.852393E-03	1.348047E-04
7.539683E+03	1.837573E-03	1.347729E-04
7.549603E+03	1.822573E-03	1.347359E-04
7.559524E+03	1.807304E-03	1.346871E-04
7.569444E+03	1.792158E-03	1.346547E-04
7.579365E+03	1.776866E-03	1.346175E-04
7.589286E+03	1.761800E-03	1.346025E-04
7.599206E+03	1.746685E-03	1.345879E-04
7.609127E+03	1.731715E-03	1.345874E-04
7.619048E+03	1.717075E-03	1.346147E-04
7.628968E+03	1.702480E-03	1.346470E-04
7.638889E+03	1.688104E-03	1.346969E-04
7.648810E+03	1.673961E-03	1.347652E-04
7.658730E+03	1.660057E-03	1.348518E-04
7.668651E+03	1.646253E-03	1.349448E-04
7.678571E+03	1.632845E-03	1.350679E-04
7.688492E+03	1.619683E-03	1.352087E-04
7.698413E+03	1.606624E-03	1.353544E-04
