#wls	flux	fluxerr
1.587302E+03	1.198248E-04	4.264882E-05
1.626984E+03	1.234922E-04	4.376618E-05
1.666667E+03	1.273351E-04	4.492944E-05
1.706349E+03	1.313621E-04	4.614027E-05
1.746032E+03	1.356024E-04	4.740744E-05
1.785714E+03	1.400049E-04	4.871155E-05
1.825397E+03	1.446048E-04	5.006324E-05
1.865079E+03	1.493338E-04	5.143736E-05
1.904762E+03	1.542170E-04	5.284110E-05
1.944444E+03	1.592359E-04	5.426651E-05
1.984127E+03	1.643716E-04	5.570575E-05
2.023810E+03	1.697010E-04	5.718321E-05
2.063492E+03	1.754480E-04	5.877192E-05
2.103175E+03	1.819020E-04	6.056483E-05
2.142857E+03	1.894360E-04	6.268003E-05
2.182540E+03	1.982599E-04	6.517853E-05
2.222222E+03	2.083681E-04	6.804887E-05
2.261905E+03	2.195718E-04	7.121981E-05
2.301587E+03	2.317280E-04	7.463618E-05
2.341270E+03	2.447587E-04	7.826449E-05
2.380952E+03	2.585440E-04	8.205845E-05
2.420635E+03	2.731760E-04	8.603931E-05
2.460317E+03	2.886632E-04	9.020108E-05
2.500000E+03	3.050715E-04	9.455517E-05
2.539683E+03	3.224760E-04	9.911479E-05
2.579365E+03	3.410079E-04	1.039091E-04
2.619048E+03	3.607550E-04	1.089524E-04
2.658730E+03	3.817498E-04	1.142410E-04
2.698413E+03	4.041325E-04	1.198025E-04
2.738095E+03	4.279913E-04	1.256469E-04
2.777778E+03	4.534132E-04	1.317825E-04
2.817460E+03	4.804151E-04	1.381958E-04
2.857143E+03	5.092132E-04	1.449292E-04
2.896825E+03	5.398209E-04	1.519647E-04
2.936508E+03	5.722331E-04	1.592786E-04
2.976190E+03	6.067536E-04	1.669312E-04
2.986111E+03	6.156785E-04	1.688847E-04
2.996032E+03	6.247141E-04	1.708516E-04
3.005952E+03	6.338607E-04	1.728315E-04
3.015873E+03	6.432064E-04	1.748481E-04
3.025794E+03	6.526717E-04	1.768792E-04
3.035714E+03	6.622625E-04	1.789260E-04
3.045635E+03	6.719774E-04	1.809877E-04
3.055556E+03	6.819056E-04	1.830878E-04
3.065476E+03	6.919574E-04	1.852017E-04
3.075397E+03	7.021315E-04	1.873285E-04
3.085317E+03	7.124267E-04	1.894677E-04
3.095238E+03	7.228419E-04	1.916183E-04
3.105159E+03	7.334717E-04	1.938050E-04
3.115079E+03	7.442212E-04	1.960022E-04
3.125000E+03	7.550891E-04	1.982090E-04
3.134921E+03	7.660742E-04	2.004247E-04
3.144841E+03	7.771753E-04	2.026486E-04
3.154762E+03	7.884925E-04	2.049063E-04
3.164683E+03	7.999254E-04	2.071710E-04
3.174603E+03	8.114726E-04	2.094419E-04
3.184524E+03	8.231328E-04	2.117184E-04
3.194444E+03	8.350105E-04	2.140267E-04
3.204365E+03	8.470008E-04	2.163393E-04
3.214286E+03	8.591020E-04	2.186555E-04
3.224206E+03	8.713127E-04	2.209743E-04
3.234127E+03	8.837420E-04	2.233229E-04
3.244048E+03	8.961680E-04	2.256448E-04
3.253968E+03	9.088117E-04	2.279952E-04
3.263889E+03	9.215605E-04	2.303452E-04
3.273810E+03	9.345281E-04	2.327229E-04
3.283730E+03	9.474831E-04	2.350699E-04
3.293651E+03	9.606555E-04	2.374430E-04
3.303571E+03	9.739278E-04	2.398127E-04
3.313492E+03	9.872979E-04	2.421778E-04
3.323413E+03	1.000885E-03	2.445673E-04
3.333333E+03	1.014569E-03	2.469509E-04
3.343254E+03	1.028346E-03	2.493275E-04
3.353175E+03	1.042215E-03	2.516963E-04
3.363095E+03	1.056172E-03	2.540561E-04
3.373016E+03	1.070344E-03	2.564366E-04
3.382937E+03	1.084472E-03	2.587757E-04
3.392857E+03	1.098942E-03	2.611647E-04
3.402778E+03	1.113364E-03	2.635103E-04
3.412698E+03	1.127864E-03	2.658424E-04
3.422619E+03	1.142572E-03	2.681909E-04
3.432540E+03	1.157355E-03	2.705242E-04
3.442460E+03	1.172208E-03	2.728406E-04
3.452381E+03	1.187131E-03	2.751396E-04
3.462302E+03	1.202258E-03	2.774520E-04
3.472222E+03	1.217448E-03	2.797447E-04
3.482143E+03	1.232699E-03	2.820169E-04
3.492063E+03	1.248007E-03	2.842673E-04
3.501984E+03	1.263369E-03	2.864949E-04
3.511905E+03	1.278927E-03	2.887315E-04
3.521825E+03	1.294533E-03	2.909431E-04
3.531746E+03	1.310184E-03	2.931288E-04
3.541667E+03	1.325878E-03	2.952879E-04
3.551587E+03	1.341609E-03	2.974187E-04
3.561508E+03	1.357525E-03	2.995535E-04
3.571429E+03	1.373474E-03	3.016587E-04
3.581349E+03	1.389450E-03	3.037324E-04
3.591270E+03	1.405452E-03	3.057744E-04
3.601190E+03	1.421475E-03	3.077830E-04
3.611111E+03	1.437670E-03	3.097912E-04
3.621032E+03	1.453881E-03	3.117642E-04
3.630952E+03	1.470102E-03	3.137012E-04
3.640873E+03	1.486330E-03	3.156011E-04
3.650794E+03	1.502560E-03	3.174627E-04
3.660714E+03	1.518952E-03	3.193197E-04
3.670635E+03	1.535342E-03	3.211369E-04
3.680556E+03	1.551723E-03	3.229132E-04
3.690476E+03	1.568093E-03	3.246477E-04
3.700397E+03	1.584449E-03	3.263401E-04
3.710317E+03	1.600785E-03	3.279890E-04
3.720238E+03	1.617267E-03	3.296281E-04
3.730159E+03	1.633724E-03	3.312222E-04
3.740079E+03	1.650153E-03	3.327711E-04
3.750000E+03	1.666550E-03	3.342736E-04
3.759921E+03	1.682910E-03	3.357289E-04
3.769841E+03	1.699232E-03	3.371368E-04
3.779762E+03	1.715684E-03	3.385308E-04
3.789683E+03	1.731917E-03	3.398416E-04
3.799603E+03	1.748277E-03	3.411377E-04
3.809524E+03	1.764586E-03	3.423840E-04
3.819444E+03	1.780841E-03	3.435800E-04
3.829365E+03	1.797038E-03	3.447253E-04
3.839286E+03	1.813356E-03	3.458541E-04
3.849206E+03	1.829433E-03	3.468972E-04
3.859127E+03	1.845625E-03	3.479229E-04
3.869048E+03	1.861569E-03	3.488624E-04
3.878968E+03	1.877626E-03	3.497842E-04
3.888889E+03	1.893612E-03	3.506537E-04
3.898810E+03	1.909526E-03	3.514709E-04
3.908730E+03	1.925365E-03	3.522358E-04
3.918651E+03	1.941127E-03	3.529481E-04
3.928571E+03	1.956812E-03	3.536081E-04
3.938492E+03	1.972604E-03	3.542494E-04
3.948413E+03	1.988128E-03	3.548047E-04
3.958333E+03	2.003569E-03	3.553079E-04
3.968254E+03	2.019118E-03	3.557929E-04
3.978175E+03	2.034584E-03	3.562260E-04
3.988095E+03	2.049774E-03	3.565742E-04
3.998016E+03	2.065075E-03	3.569053E-04
4.007937E+03	2.080298E-03	3.571869E-04
4.017857E+03	2.095453E-03	3.574207E-04
4.027778E+03	2.110546E-03	3.576084E-04
4.037698E+03	2.125392E-03	3.577191E-04
4.047619E+03	2.140389E-03	3.578207E-04
4.057540E+03	2.155353E-03	3.578820E-04
4.067460E+03	2.170295E-03	3.579051E-04
4.077381E+03	2.185223E-03	3.578919E-04
4.087302E+03	2.200149E-03	3.578446E-04
4.097222E+03	2.215084E-03	3.577651E-04
4.107143E+03	2.230038E-03	3.576554E-04
4.117063E+03	2.245022E-03	3.575173E-04
4.126984E+03	2.260045E-03	3.573525E-04
4.136905E+03	2.275116E-03	3.571628E-04
4.146825E+03	2.290245E-03	3.569496E-04
4.156746E+03	2.305441E-03	3.567146E-04
4.166667E+03	2.320711E-03	3.564590E-04
4.176587E+03	2.336064E-03	3.561844E-04
4.186508E+03	2.351509E-03	3.558923E-04
4.196429E+03	2.366849E-03	3.555530E-04
4.206349E+03	2.382504E-03	3.552301E-04
4.216270E+03	2.398277E-03	3.548938E-04
4.226190E+03	2.413973E-03	3.545157E-04
4.236111E+03	2.430019E-03	3.541585E-04
4.246032E+03	2.446013E-03	3.537636E-04
4.255952E+03	2.462385E-03	3.533935E-04
4.265873E+03	2.478731E-03	3.529899E-04
4.275794E+03	2.495274E-03	3.525850E-04
4.285714E+03	2.512028E-03	3.521807E-04
4.295635E+03	2.529003E-03	3.517785E-04
4.305556E+03	2.546209E-03	3.513795E-04
4.315476E+03	2.563652E-03	3.509847E-04
4.325397E+03	2.581120E-03	3.505651E-04
4.335317E+03	2.599045E-03	3.501797E-04
4.345238E+03	2.616995E-03	3.497701E-04
4.355159E+03	2.635185E-03	3.493654E-04
4.365079E+03	2.653611E-03	3.489653E-04
4.375000E+03	2.672271E-03	3.485699E-04
4.384921E+03	2.691161E-03	3.481786E-04
4.394841E+03	2.710055E-03	3.477627E-04
4.404762E+03	2.729387E-03	3.473784E-04
4.414683E+03	2.748707E-03	3.469687E-04
4.424603E+03	2.768223E-03	3.465608E-04
4.434524E+03	2.787924E-03	3.461537E-04
4.444444E+03	2.807788E-03	3.457455E-04
4.454365E+03	2.827572E-03	3.453071E-04
4.464286E+03	2.847696E-03	3.448910E-04
4.474206E+03	2.867678E-03	3.444396E-04
4.484127E+03	2.887711E-03	3.439774E-04
4.494048E+03	2.907754E-03	3.435012E-04
4.503968E+03	2.927536E-03	3.429804E-04
4.513889E+03	2.947236E-03	3.424383E-04
4.523810E+03	2.966806E-03	3.418708E-04
4.533730E+03	2.986191E-03	3.412738E-04
4.543651E+03	3.005341E-03	3.406436E-04
4.553571E+03	3.023970E-03	3.399504E-04
4.563492E+03	3.042262E-03	3.392179E-04
4.573413E+03	3.060179E-03	3.384444E-04
4.583333E+03	3.077683E-03	3.376285E-04
4.593254E+03	3.094508E-03	3.367442E-04
4.603175E+03	3.111107E-03	3.358438E-04
4.613095E+03	3.126992E-03	3.348775E-04
4.623016E+03	3.142148E-03	3.338474E-04
4.632937E+03	3.157055E-03	3.328077E-04
4.642857E+03	3.171241E-03	3.317114E-04
4.652778E+03	3.184954E-03	3.305880E-04
4.662698E+03	3.197975E-03	3.294177E-04
4.672619E+03	3.210567E-03	3.282311E-04
4.682540E+03	3.222762E-03	3.270339E-04
4.692460E+03	3.234588E-03	3.258320E-04
4.702381E+03	3.246085E-03	3.246319E-04
4.712302E+03	3.257042E-03	3.234152E-04
4.722222E+03	3.267735E-03	3.222120E-04
4.732143E+03	3.277944E-03	3.210032E-04
4.742063E+03	3.287939E-03	3.198176E-04
4.751984E+03	3.297734E-03	3.186590E-04
4.761905E+03	3.307344E-03	3.175308E-04
4.771825E+03	3.316537E-03	3.164129E-04
4.781746E+03	3.325567E-03	3.153317E-04
4.791667E+03	3.334439E-03	3.142899E-04
4.801587E+03	3.343154E-03	3.132892E-04
4.811508E+03	3.351461E-03	3.123081E-04
4.821429E+03	3.359587E-03	3.113698E-04
4.831349E+03	3.367259E-03	3.104508E-04
4.841270E+03	3.374688E-03	3.095725E-04
4.851190E+03	3.381831E-03	3.087322E-04
4.861111E+03	3.388646E-03	3.079256E-04
4.871032E+03	3.394849E-03	3.071262E-04
4.880952E+03	3.400646E-03	3.063519E-04
4.890873E+03	3.405764E-03	3.055772E-04
4.900794E+03	3.410663E-03	3.048424E-04
4.910714E+03	3.414591E-03	3.040793E-04
4.920635E+03	3.418262E-03	3.033504E-04
4.930556E+03	3.421178E-03	3.026100E-04
4.940476E+03	3.423570E-03	3.018775E-04
4.950397E+03	3.425426E-03	3.011504E-04
4.960317E+03	3.426497E-03	3.004052E-04
4.970238E+03	3.427015E-03	2.996610E-04
4.980159E+03	3.426979E-03	2.989158E-04
4.990079E+03	3.426153E-03	2.981475E-04
5.000000E+03	3.424794E-03	2.973769E-04
5.009921E+03	3.422680E-03	2.965829E-04
5.019841E+03	3.420317E-03	2.958075E-04
5.029762E+03	3.417254E-03	2.950098E-04
5.039683E+03	3.413522E-03	2.941908E-04
5.049603E+03	3.409635E-03	2.933928E-04
5.059524E+03	3.405154E-03	2.925760E-04
5.069444E+03	3.400120E-03	2.917420E-04
5.079365E+03	3.394806E-03	2.909127E-04
5.089286E+03	3.389255E-03	2.900894E-04
5.099206E+03	3.383497E-03	2.892730E-04
5.109127E+03	3.377319E-03	2.884433E-04
5.119048E+03	3.370974E-03	2.876201E-04
5.128968E+03	3.364471E-03	2.868024E-04
5.138889E+03	3.357582E-03	2.859688E-04
5.148810E+03	3.350535E-03	2.851372E-04
5.158730E+03	3.343322E-03	2.843051E-04
5.168651E+03	3.335690E-03	2.834494E-04
5.178571E+03	3.327846E-03	2.825860E-04
5.188492E+03	3.319758E-03	2.817106E-04
5.198413E+03	3.311165E-03	2.807997E-04
5.208333E+03	3.302260E-03	2.798683E-04
5.218254E+03	3.293006E-03	2.789117E-04
5.228175E+03	3.283367E-03	2.779255E-04
5.238095E+03	3.273078E-03	2.768861E-04
5.248016E+03	3.262103E-03	2.757893E-04
5.257937E+03	3.250848E-03	2.746682E-04
5.267857E+03	3.238826E-03	2.734806E-04
5.277778E+03	3.226220E-03	2.722409E-04
5.287698E+03	3.212776E-03	2.709268E-04
5.297619E+03	3.198899E-03	2.695716E-04
5.307540E+03	3.184126E-03	2.681352E-04
5.317460E+03	3.168442E-03	2.666159E-04
5.327381E+03	3.152259E-03	2.650475E-04
5.337302E+03	3.135138E-03	2.633927E-04
5.347222E+03	3.117076E-03	2.616505E-04
5.357143E+03	3.098493E-03	2.598558E-04
5.367063E+03	3.078971E-03	2.579730E-04
5.376984E+03	3.058722E-03	2.560197E-04
5.386905E+03	3.037551E-03	2.539792E-04
5.396825E+03	3.015677E-03	2.518696E-04
5.406746E+03	2.993116E-03	2.496924E-04
5.416667E+03	2.969895E-03	2.474494E-04
5.426587E+03	2.946040E-03	2.451429E-04
5.436508E+03	2.921383E-03	2.427591E-04
5.446429E+03	2.895967E-03	2.403015E-04
5.456349E+03	2.870217E-03	2.378056E-04
5.466270E+03	2.843775E-03	2.352420E-04
5.476190E+03	2.816867E-03	2.326295E-04
5.486111E+03	2.789524E-03	2.299711E-04
5.496032E+03	2.761781E-03	2.272699E-04
5.505952E+03	2.733487E-03	2.245139E-04
5.515873E+03	2.704872E-03	2.217224E-04
5.525794E+03	2.675806E-03	2.188853E-04
5.535714E+03	2.646708E-03	2.160372E-04
5.545635E+03	2.617283E-03	2.131545E-04
5.555556E+03	2.587788E-03	2.102586E-04
5.565476E+03	2.558307E-03	2.073568E-04
5.575397E+03	2.528759E-03	2.044429E-04
5.585317E+03	2.499411E-03	2.015390E-04
5.595238E+03	2.470363E-03	1.986533E-04
5.605159E+03	2.441710E-03	1.957940E-04
5.615079E+03	2.413387E-03	1.929560E-04
5.625000E+03	2.385651E-03	1.901600E-04
5.634921E+03	2.358591E-03	1.874133E-04
5.644841E+03	2.332294E-03	1.847226E-04
5.654762E+03	2.306836E-03	1.820941E-04
5.664683E+03	2.282140E-03	1.795215E-04
5.674603E+03	2.258429E-03	1.770220E-04
5.684524E+03	2.235761E-03	1.746000E-04
5.694444E+03	2.214040E-03	1.722476E-04
5.704365E+03	2.193602E-03	1.699904E-04
5.714286E+03	2.174179E-03	1.678070E-04
5.724206E+03	2.155935E-03	1.657096E-04
5.734127E+03	2.138871E-03	1.636976E-04
5.744048E+03	2.122833E-03	1.617584E-04
5.753968E+03	2.108085E-03	1.599114E-04
5.763889E+03	2.094311E-03	1.581319E-04
5.773810E+03	2.081615E-03	1.564270E-04
5.783730E+03	2.069810E-03	1.547818E-04
5.793651E+03	2.059120E-03	1.532124E-04
5.803571E+03	2.049206E-03	1.516929E-04
5.813492E+03	2.040143E-03	1.502280E-04
5.823413E+03	2.031863E-03	1.488121E-04
5.833333E+03	2.024300E-03	1.474399E-04
5.843254E+03	2.017389E-03	1.461058E-04
5.853175E+03	2.010932E-03	1.447952E-04
5.863095E+03	2.005141E-03	1.435229E-04
5.873016E+03	1.999696E-03	1.422655E-04
5.882937E+03	1.994689E-03	1.410292E-04
5.892857E+03	1.989952E-03	1.398020E-04
5.902778E+03	1.985725E-03	1.386006E-04
5.912698E+03	1.981739E-03	1.374057E-04
5.922619E+03	1.978257E-03	1.362354E-04
5.932540E+03	1.975034E-03	1.350723E-04
5.942460E+03	1.972232E-03	1.339274E-04
5.952381E+03	1.969763E-03	1.327944E-04
5.962302E+03	1.967941E-03	1.316940E-04
5.972222E+03	1.966695E-03	1.306207E-04
5.982143E+03	1.965959E-03	1.295695E-04
5.992063E+03	1.965932E-03	1.285528E-04
6.001984E+03	1.966680E-03	1.275741E-04
6.011905E+03	1.968270E-03	1.266364E-04
6.021825E+03	1.970762E-03	1.257426E-04
6.031746E+03	1.974208E-03	1.248946E-04
6.041667E+03	1.978521E-03	1.240855E-04
6.051587E+03	1.983866E-03	1.233243E-04
6.061508E+03	1.990396E-03	1.226189E-04
6.071429E+03	1.997851E-03	1.219514E-04
6.081349E+03	2.006355E-03	1.213278E-04
6.091270E+03	2.015882E-03	1.207439E-04
6.101190E+03	2.026388E-03	1.201948E-04
6.111111E+03	2.037684E-03	1.196667E-04
6.121032E+03	2.049966E-03	1.191689E-04
6.130952E+03	2.062871E-03	1.186777E-04
6.140873E+03	2.076424E-03	1.181927E-04
6.150794E+03	2.090628E-03	1.177119E-04
6.160714E+03	2.105035E-03	1.172083E-04
6.170635E+03	2.119577E-03	1.166769E-04
6.180556E+03	2.133989E-03	1.161021E-04
6.190476E+03	2.147964E-03	1.154666E-04
6.200397E+03	2.161018E-03	1.147448E-04
6.210317E+03	2.173082E-03	1.139340E-04
6.220238E+03	2.183487E-03	1.130008E-04
6.230159E+03	2.192140E-03	1.119430E-04
6.240079E+03	2.198356E-03	1.107292E-04
6.250000E+03	2.201905E-03	1.093522E-04
6.259921E+03	2.202589E-03	1.078078E-04
6.269841E+03	2.199820E-03	1.060733E-04
6.279762E+03	2.193516E-03	1.041521E-04
6.289683E+03	2.183514E-03	1.020445E-04
6.299603E+03	2.169608E-03	9.974947E-05
6.309524E+03	2.152114E-03	9.729035E-05
6.319444E+03	2.130979E-03	9.467367E-05
6.329365E+03	2.106254E-03	9.191081E-05
6.339286E+03	2.078483E-03	8.903438E-05
6.349206E+03	2.047694E-03	8.605401E-05
6.359127E+03	2.014541E-03	8.300510E-05
6.369048E+03	1.979155E-03	7.990011E-05
6.378968E+03	1.942222E-03	7.677321E-05
6.388889E+03	1.903894E-03	7.363581E-05
6.398810E+03	1.864715E-03	7.051372E-05
6.408730E+03	1.825051E-03	6.742451E-05
6.418651E+03	1.785218E-03	6.438268E-05
6.428571E+03	1.745482E-03	6.140011E-05
6.438492E+03	1.706070E-03	5.848626E-05
6.448413E+03	1.667149E-03	5.564805E-05
6.458333E+03	1.628851E-03	5.289061E-05
6.468254E+03	1.591169E-03	5.021424E-05
6.478175E+03	1.554391E-03	4.762853E-05
6.488095E+03	1.518455E-03	4.513158E-05
6.498016E+03	1.483294E-03	4.272170E-05
6.507937E+03	1.449131E-03	4.040570E-05
6.517857E+03	1.415872E-03	3.818118E-05
6.527778E+03	1.383428E-03	3.604634E-05
6.537698E+03	1.351992E-03	3.400708E-05
6.547619E+03	1.321375E-03	3.205962E-05
6.557540E+03	1.291672E-03	3.020774E-05
6.567460E+03	1.262965E-03	2.845502E-05
6.577381E+03	1.235077E-03	2.679948E-05
6.587302E+03	1.208092E-03	2.524570E-05
6.597222E+03	1.182006E-03	2.379664E-05
6.607143E+03	1.156896E-03	2.245732E-05
6.617063E+03	1.132595E-03	2.122842E-05
6.626984E+03	1.109184E-03	2.011584E-05
6.636905E+03	1.086658E-03	1.912397E-05
6.646825E+03	1.065014E-03	1.825705E-05
6.656746E+03	1.044247E-03	1.751882E-05
6.666667E+03	1.024346E-03	1.691196E-05
6.676587E+03	1.005301E-03	1.643774E-05
6.686508E+03	9.870991E-04	1.609554E-05
6.696429E+03	9.697243E-04	1.588128E-05
6.706349E+03	9.530906E-04	1.578421E-05
6.716270E+03	9.373096E-04	1.579489E-05
6.726190E+03	9.222965E-04	1.589997E-05
6.736111E+03	9.080351E-04	1.608718E-05
6.746032E+03	8.945139E-04	1.634479E-05
6.755952E+03	8.816631E-04	1.666088E-05
6.765873E+03	8.696022E-04	1.702817E-05
6.775794E+03	8.582660E-04	1.743725E-05
6.785714E+03	8.475975E-04	1.788001E-05
6.795635E+03	8.377242E-04	1.835338E-05
6.805556E+03	8.285404E-04	1.885058E-05
6.815476E+03	8.201861E-04	1.937123E-05
6.825397E+03	8.125787E-04	1.991090E-05
6.835317E+03	8.058751E-04	2.047168E-05
6.845238E+03	8.000070E-04	2.105096E-05
6.855159E+03	7.951334E-04	2.165260E-05
6.865079E+03	7.911777E-04	2.227485E-05
6.875000E+03	7.882273E-04	2.292083E-05
6.884921E+03	7.863681E-04	2.359424E-05
6.894841E+03	7.855158E-04	2.429405E-05
6.904762E+03	7.857523E-04	2.502442E-05
6.914683E+03	7.871031E-04	2.578810E-05
6.924603E+03	7.895897E-04	2.658791E-05
6.934524E+03	7.932915E-04	2.742884E-05
6.944444E+03	7.981191E-04	2.831019E-05
6.954365E+03	8.041486E-04	2.923704E-05
6.964286E+03	8.114010E-04	3.021266E-05
6.974206E+03	8.198987E-04	3.124045E-05
6.984127E+03	8.296620E-04	3.232380E-05
6.994048E+03	8.407121E-04	3.346617E-05
7.003968E+03	8.530720E-04	3.467112E-05
7.013889E+03	8.667032E-04	3.593968E-05
7.023810E+03	8.817530E-04	3.728059E-05
7.033730E+03	8.981849E-04	3.869505E-05
7.043651E+03	9.160235E-04	4.018681E-05
7.053571E+03	9.352259E-04	4.175657E-05
7.063492E+03	9.559413E-04	4.341358E-05
7.073413E+03	9.781128E-04	4.515798E-05
7.083333E+03	1.001672E-03	4.698909E-05
7.093254E+03	1.026755E-03	4.891573E-05
7.103175E+03	1.053204E-03	5.093286E-05
7.113095E+03	1.081071E-03	5.304524E-05
7.123016E+03	1.110406E-03	5.525754E-05
7.132937E+03	1.141011E-03	5.756208E-05
7.142857E+03	1.172908E-03	5.996184E-05
7.152778E+03	1.206026E-03	6.245502E-05
7.162698E+03	1.240277E-03	6.503873E-05
7.172619E+03	1.275639E-03	6.771333E-05
7.182540E+03	1.311707E-03	7.045847E-05
7.192460E+03	1.348584E-03	7.328059E-05
7.202381E+03	1.385983E-03	7.616485E-05
7.212302E+03	1.423679E-03	7.909917E-05
7.222222E+03	1.461410E-03	8.206905E-05
7.232143E+03	1.498885E-03	8.505772E-05
7.242063E+03	1.535681E-03	8.804013E-05
7.251984E+03	1.571685E-03	9.100854E-05
7.261905E+03	1.606326E-03	9.392809E-05
7.271825E+03	1.639372E-03	9.678286E-05
7.281746E+03	1.670613E-03	9.955794E-05
7.291667E+03	1.699500E-03	1.022175E-04
7.301587E+03	1.725867E-03	1.047481E-04
7.311508E+03	1.749480E-03	1.071318E-04
7.321429E+03	1.770150E-03	1.093530E-04
7.331349E+03	1.787738E-03	1.113991E-04
7.341270E+03	1.802175E-03	1.132618E-04
7.351190E+03	1.813454E-03	1.149363E-04
7.361111E+03	1.821489E-03	1.164131E-04
7.371032E+03	1.826650E-03	1.177120E-04
7.380952E+03	1.828961E-03	1.188310E-04
7.390873E+03	1.828480E-03	1.197704E-04
7.400794E+03	1.825564E-03	1.205505E-04
7.410714E+03	1.820456E-03	1.211846E-04
7.420635E+03	1.813544E-03	1.216965E-04
7.430556E+03	1.804821E-03	1.220837E-04
7.440476E+03	1.794673E-03	1.223707E-04
7.450397E+03	1.783216E-03	1.225641E-04
7.460317E+03	1.770938E-03	1.226966E-04
7.470238E+03	1.757919E-03	1.227734E-04
7.480159E+03	1.744221E-03	1.227983E-04
7.490079E+03	1.730264E-03	1.228009E-04
7.500000E+03	1.715937E-03	1.227735E-04
7.509921E+03	1.701490E-03	1.227344E-04
7.519841E+03	1.687027E-03	1.226915E-04
7.529762E+03	1.672634E-03	1.226517E-04
7.539683E+03	1.658383E-03	1.226212E-04
7.549603E+03	1.644336E-03	1.226052E-04
7.559524E+03	1.630539E-03	1.226083E-04
7.569444E+03	1.616914E-03	1.226254E-04
7.579365E+03	1.603618E-03	1.226693E-04
7.589286E+03	1.590796E-03	1.227513E-04
7.599206E+03	1.578234E-03	1.228549E-04
7.609127E+03	1.566060E-03	1.229899E-04
7.619048E+03	1.554280E-03	1.231568E-04
7.628968E+03	1.542894E-03	1.233556E-04
7.638889E+03	1.531780E-03	1.235765E-04
7.648810E+03	1.521157E-03	1.238371E-04
7.658730E+03	1.510779E-03	1.241176E-04
7.668651E+03	1.500854E-03	1.244352E-04
7.678571E+03	1.491133E-03	1.247693E-04
7.688492E+03	1.481706E-03	1.251273E-04
7.698413E+03	1.472550E-03	1.255071E-04
