#wls	flux	fluxerr
1.587302E+03	2.360879E-04	6.011441E-05
1.626984E+03	2.432032E-04	6.186742E-05
1.666667E+03	2.505667E-04	6.367810E-05
1.706349E+03	2.582299E-04	6.555909E-05
1.746032E+03	2.661496E-04	6.749894E-05
1.785714E+03	2.743026E-04	6.949135E-05
1.825397E+03	2.827008E-04	7.153881E-05
1.865079E+03	2.911933E-04	7.360272E-05
1.904762E+03	2.998178E-04	7.569216E-05
1.944444E+03	3.085230E-04	7.779382E-05
1.984127E+03	3.172001E-04	7.987982E-05
2.023810E+03	3.260898E-04	8.201045E-05
2.063492E+03	3.354932E-04	8.426070E-05
2.103175E+03	3.460487E-04	8.678981E-05
2.142857E+03	3.583101E-04	8.973479E-05
2.182540E+03	3.726146E-04	9.317761E-05
2.222222E+03	3.888805E-04	9.709497E-05
2.261905E+03	4.068161E-04	1.014112E-04
2.301587E+03	4.260331E-04	1.060269E-04
2.341270E+03	4.461028E-04	1.108331E-04
2.380952E+03	4.670274E-04	1.158285E-04
2.420635E+03	4.886874E-04	1.209813E-04
2.460317E+03	5.111835E-04	1.263145E-04
2.500000E+03	5.344781E-04	1.318164E-04
2.539683E+03	5.586242E-04	1.374980E-04
2.579365E+03	5.837755E-04	1.433943E-04
2.619048E+03	6.098919E-04	1.494929E-04
2.658730E+03	6.370186E-04	1.558018E-04
2.698413E+03	6.653066E-04	1.623548E-04
2.738095E+03	6.946848E-04	1.691311E-04
2.777778E+03	7.252993E-04	1.761627E-04
2.817460E+03	7.570556E-04	1.834226E-04
2.857143E+03	7.899629E-04	1.909093E-04
2.896825E+03	8.240216E-04	1.986186E-04
2.936508E+03	8.593658E-04	2.065785E-04
2.976190E+03	8.959941E-04	2.147837E-04
2.986111E+03	9.052525E-04	2.168490E-04
2.996032E+03	9.145787E-04	2.189264E-04
3.005952E+03	9.241251E-04	2.210521E-04
3.015873E+03	9.335889E-04	2.231536E-04
3.025794E+03	9.431283E-04	2.252688E-04
3.035714E+03	9.529072E-04	2.274367E-04
3.045635E+03	9.626100E-04	2.295818E-04
3.055556E+03	9.725495E-04	2.317787E-04
3.065476E+03	9.824044E-04	2.339506E-04
3.075397E+03	9.924935E-04	2.361736E-04
3.085317E+03	1.002654E-03	2.384088E-04
3.095238E+03	1.012719E-03	2.406160E-04
3.105159E+03	1.023014E-03	2.428731E-04
3.115079E+03	1.033205E-03	2.451003E-04
3.125000E+03	1.043625E-03	2.473768E-04
3.134921E+03	1.054106E-03	2.496624E-04
3.144841E+03	1.064470E-03	2.519151E-04
3.154762E+03	1.075062E-03	2.542164E-04
3.164683E+03	1.085708E-03	2.565249E-04
3.174603E+03	1.096227E-03	2.587978E-04
3.184524E+03	1.106971E-03	2.611185E-04
3.194444E+03	1.117763E-03	2.634447E-04
3.204365E+03	1.128600E-03	2.657758E-04
3.214286E+03	1.139295E-03	2.680677E-04
3.224206E+03	1.150214E-03	2.704065E-04
3.234127E+03	1.161172E-03	2.727486E-04
3.244048E+03	1.172167E-03	2.750933E-04
3.253968E+03	1.183197E-03	2.774400E-04
3.263889E+03	1.194259E-03	2.797883E-04
3.273810E+03	1.205352E-03	2.821375E-04
3.283730E+03	1.216276E-03	2.844411E-04
3.293651E+03	1.227422E-03	2.867902E-04
3.303571E+03	1.238592E-03	2.891384E-04
3.313492E+03	1.249784E-03	2.914853E-04
3.323413E+03	1.260996E-03	2.938304E-04
3.333333E+03	1.272225E-03	2.961728E-04
3.343254E+03	1.283469E-03	2.985122E-04
3.353175E+03	1.294725E-03	3.008476E-04
3.363095E+03	1.305994E-03	3.031790E-04
3.373016E+03	1.317270E-03	3.055055E-04
3.382937E+03	1.328551E-03	3.078261E-04
3.392857E+03	1.339837E-03	3.101408E-04
3.402778E+03	1.351124E-03	3.124487E-04
3.412698E+03	1.362626E-03	3.147993E-04
3.422619E+03	1.373909E-03	3.170921E-04
3.432540E+03	1.385185E-03	3.193760E-04
3.442460E+03	1.396452E-03	3.216505E-04
3.452381E+03	1.407707E-03	3.239150E-04
3.462302E+03	1.418947E-03	3.261686E-04
3.472222E+03	1.430171E-03	3.284111E-04
3.482143E+03	1.441375E-03	3.306416E-04
3.492063E+03	1.452788E-03	3.329122E-04
3.501984E+03	1.463945E-03	3.351167E-04
3.511905E+03	1.475074E-03	3.373073E-04
3.521825E+03	1.486173E-03	3.394831E-04
3.531746E+03	1.497239E-03	3.416436E-04
3.541667E+03	1.508506E-03	3.438422E-04
3.551587E+03	1.519497E-03	3.459700E-04
3.561508E+03	1.530446E-03	3.480803E-04
3.571429E+03	1.541350E-03	3.501724E-04
3.581349E+03	1.552450E-03	3.523011E-04
3.591270E+03	1.563255E-03	3.543549E-04
3.601190E+03	1.574006E-03	3.563884E-04
3.611111E+03	1.584950E-03	3.584574E-04
3.621032E+03	1.595587E-03	3.604487E-04
3.630952E+03	1.606161E-03	3.624176E-04
3.640873E+03	1.616668E-03	3.643634E-04
3.650794E+03	1.627363E-03	3.663431E-04
3.660714E+03	1.637731E-03	3.682412E-04
3.670635E+03	1.648026E-03	3.701144E-04
3.680556E+03	1.658502E-03	3.720200E-04
3.690476E+03	1.668641E-03	3.738414E-04
3.700397E+03	1.678696E-03	3.756358E-04
3.710317E+03	1.688929E-03	3.774617E-04
3.720238E+03	1.698811E-03	3.792007E-04
3.730159E+03	1.708602E-03	3.809108E-04
3.740079E+03	1.718565E-03	3.826511E-04
3.750000E+03	1.728167E-03	3.843023E-04
3.759921E+03	1.737667E-03	3.859227E-04
3.769841E+03	1.747338E-03	3.875723E-04
3.779762E+03	1.756634E-03	3.891303E-04
3.789683E+03	1.765823E-03	3.906562E-04
3.799603E+03	1.775177E-03	3.922101E-04
3.809524E+03	1.784146E-03	3.936705E-04
3.819444E+03	1.793001E-03	3.950972E-04
3.829365E+03	1.802019E-03	3.965513E-04
3.839286E+03	1.810639E-03	3.979095E-04
3.849206E+03	1.819141E-03	3.992332E-04
3.859127E+03	1.827800E-03	4.005830E-04
3.869048E+03	1.836054E-03	4.018358E-04
3.878968E+03	1.844183E-03	4.030526E-04
3.888889E+03	1.852468E-03	4.042952E-04
3.898810E+03	1.860340E-03	4.054391E-04
3.908730E+03	1.868080E-03	4.065460E-04
3.918651E+03	1.875976E-03	4.076786E-04
3.928571E+03	1.883450E-03	4.087110E-04
3.938492E+03	1.890788E-03	4.097059E-04
3.948413E+03	1.898281E-03	4.107259E-04
3.958333E+03	1.905346E-03	4.116452E-04
3.968254E+03	1.912273E-03	4.125263E-04
3.978175E+03	1.919351E-03	4.134320E-04
3.988095E+03	1.925998E-03	4.142366E-04
3.998016E+03	1.932502E-03	4.150026E-04
4.007937E+03	1.938864E-03	4.157301E-04
4.017857E+03	1.945380E-03	4.164825E-04
4.027778E+03	1.951457E-03	4.171329E-04
4.037698E+03	1.957389E-03	4.177446E-04
4.047619E+03	1.963178E-03	4.183179E-04
4.057540E+03	1.969121E-03	4.189162E-04
4.067460E+03	1.974622E-03	4.194125E-04
4.077381E+03	1.979978E-03	4.198704E-04
4.087302E+03	1.985188E-03	4.202899E-04
4.097222E+03	1.990254E-03	4.206712E-04
4.107143E+03	1.995476E-03	4.210779E-04
4.117063E+03	2.000254E-03	4.213834E-04
4.126984E+03	2.004885E-03	4.216506E-04
4.136905E+03	2.009374E-03	4.218805E-04
4.146825E+03	2.013717E-03	4.220727E-04
4.156746E+03	2.017917E-03	4.222274E-04
4.166667E+03	2.021973E-03	4.223450E-04
4.176587E+03	2.026191E-03	4.224892E-04
4.186508E+03	2.029961E-03	4.225329E-04
4.196429E+03	2.033588E-03	4.225401E-04
4.206349E+03	2.037074E-03	4.225108E-04
4.216270E+03	2.040417E-03	4.224452E-04
4.226190E+03	2.043620E-03	4.223438E-04
4.236111E+03	2.046682E-03	4.222064E-04
4.246032E+03	2.049602E-03	4.220333E-04
4.255952E+03	2.052381E-03	4.218247E-04
4.265873E+03	2.055021E-03	4.215811E-04
4.275794E+03	2.057520E-03	4.213020E-04
4.285714E+03	2.059880E-03	4.209881E-04
4.295635E+03	2.061792E-03	4.205768E-04
4.305556E+03	2.063873E-03	4.201938E-04
4.315476E+03	2.065814E-03	4.197761E-04
4.325397E+03	2.067615E-03	4.193242E-04
4.335317E+03	2.069277E-03	4.188381E-04
4.345238E+03	2.070800E-03	4.183179E-04
4.355159E+03	2.071875E-03	4.177017E-04
4.365079E+03	2.073117E-03	4.171138E-04
4.375000E+03	2.074220E-03	4.164921E-04
4.384921E+03	2.075182E-03	4.158369E-04
4.394841E+03	2.075696E-03	4.150866E-04
4.404762E+03	2.076376E-03	4.143642E-04
4.414683E+03	2.076913E-03	4.136083E-04
4.424603E+03	2.077001E-03	4.127580E-04
4.434524E+03	2.077253E-03	4.119355E-04
4.444444E+03	2.077361E-03	4.110794E-04
4.454365E+03	2.077017E-03	4.101294E-04
4.464286E+03	2.076836E-03	4.092069E-04
4.474206E+03	2.076202E-03	4.081908E-04
4.484127E+03	2.075726E-03	4.072015E-04
4.494048E+03	2.074796E-03	4.061191E-04
4.503968E+03	2.074024E-03	4.050633E-04
4.513889E+03	2.072796E-03	4.039147E-04
4.523810E+03	2.071721E-03	4.027922E-04
4.533730E+03	2.070192E-03	4.015776E-04
4.543651E+03	2.068510E-03	4.003299E-04
4.553571E+03	2.066977E-03	3.991076E-04
4.563492E+03	2.064987E-03	3.977940E-04
4.573413E+03	2.062841E-03	3.964473E-04
4.583333E+03	2.060840E-03	3.951254E-04
4.593254E+03	2.058381E-03	3.937129E-04
4.603175E+03	2.055766E-03	3.922679E-04
4.613095E+03	2.052991E-03	3.907901E-04
4.623016E+03	2.050058E-03	3.892800E-04
4.632937E+03	2.047264E-03	3.877939E-04
4.642857E+03	2.044012E-03	3.862190E-04
4.652778E+03	2.040601E-03	3.846124E-04
4.662698E+03	2.037030E-03	3.829739E-04
4.672619E+03	2.033299E-03	3.813039E-04
4.682540E+03	2.029408E-03	3.796027E-04
4.692460E+03	2.025359E-03	3.778708E-04
4.702381E+03	2.021151E-03	3.761082E-04
4.712302E+03	2.016786E-03	3.743157E-04
4.722222E+03	2.011973E-03	3.724396E-04
4.732143E+03	2.007295E-03	3.705884E-04
4.742063E+03	2.002465E-03	3.687087E-04
4.751984E+03	1.997482E-03	3.668007E-04
4.761905E+03	1.992349E-03	3.648654E-04
4.771825E+03	1.986779E-03	3.628505E-04
4.781746E+03	1.981351E-03	3.608621E-04
4.791667E+03	1.975780E-03	3.588482E-04
4.801587E+03	1.969783E-03	3.567580E-04
4.811508E+03	1.963934E-03	3.546956E-04
4.821429E+03	1.957948E-03	3.526096E-04
4.831349E+03	1.951551E-03	3.504508E-04
4.841270E+03	1.945309E-03	3.483213E-04
4.851190E+03	1.938663E-03	3.461211E-04
4.861111E+03	1.932175E-03	3.439510E-04
4.871032E+03	1.925296E-03	3.417131E-04
4.880952E+03	1.918581E-03	3.395065E-04
4.890873E+03	1.911484E-03	3.372343E-04
4.900794E+03	1.904287E-03	3.349469E-04
4.910714E+03	1.897266E-03	3.326929E-04
4.920635E+03	1.889879E-03	3.303774E-04
4.930556E+03	1.882406E-03	3.280495E-04
4.940476E+03	1.874852E-03	3.257106E-04
4.950397E+03	1.867222E-03	3.233614E-04
4.960317E+03	1.859786E-03	3.210489E-04
4.970238E+03	1.852018E-03	3.186822E-04
4.980159E+03	1.844189E-03	3.163084E-04
4.990079E+03	1.836306E-03	3.139287E-04
5.000000E+03	1.828373E-03	3.115442E-04
5.009921E+03	1.820396E-03	3.091556E-04
5.019841E+03	1.812380E-03	3.067644E-04
5.029762E+03	1.804332E-03	3.043714E-04
5.039683E+03	1.796255E-03	3.019775E-04
5.049603E+03	1.788157E-03	2.995840E-04
5.059524E+03	1.779789E-03	2.971494E-04
5.069444E+03	1.771664E-03	2.947597E-04
5.079365E+03	1.763532E-03	2.923730E-04
5.089286E+03	1.755400E-03	2.899903E-04
5.099206E+03	1.747024E-03	2.875719E-04
5.109127E+03	1.738907E-03	2.852005E-04
5.119048E+03	1.730804E-03	2.828356E-04
5.128968E+03	1.722476E-03	2.804386E-04
5.138889E+03	1.714419E-03	2.780901E-04
5.148810E+03	1.706148E-03	2.757115E-04
5.158730E+03	1.698156E-03	2.733825E-04
5.168651E+03	1.689962E-03	2.710256E-04
5.178571E+03	1.682052E-03	2.687189E-04
5.188492E+03	1.673953E-03	2.663864E-04
5.198413E+03	1.666145E-03	2.641047E-04
5.208333E+03	1.658157E-03	2.617993E-04
5.218254E+03	1.650234E-03	2.595086E-04
5.228175E+03	1.642610E-03	2.572695E-04
5.238095E+03	1.634824E-03	2.550095E-04
5.248016E+03	1.627113E-03	2.527658E-04
5.257937E+03	1.619482E-03	2.505390E-04
5.267857E+03	1.611934E-03	2.483296E-04
5.277778E+03	1.604472E-03	2.461380E-04
5.287698E+03	1.597326E-03	2.439991E-04
5.297619E+03	1.590048E-03	2.418441E-04
5.307540E+03	1.582866E-03	2.397081E-04
5.317460E+03	1.575785E-03	2.375915E-04
5.327381E+03	1.568808E-03	2.354948E-04
5.337302E+03	1.561938E-03	2.334183E-04
5.347222E+03	1.554958E-03	2.313293E-04
5.357143E+03	1.548312E-03	2.292942E-04
5.367063E+03	1.541781E-03	2.272799E-04
5.376984E+03	1.535370E-03	2.252869E-04
5.386905E+03	1.529080E-03	2.233152E-04
5.396825E+03	1.522914E-03	2.213652E-04
5.406746E+03	1.516660E-03	2.194060E-04
5.416667E+03	1.510750E-03	2.174998E-04
5.426587E+03	1.504971E-03	2.156157E-04
5.436508E+03	1.499115E-03	2.137237E-04
5.446429E+03	1.493605E-03	2.118842E-04
5.456349E+03	1.488025E-03	2.100375E-04
5.466270E+03	1.482794E-03	2.082429E-04
5.476190E+03	1.477497E-03	2.064416E-04
5.486111E+03	1.472553E-03	2.046922E-04
5.496032E+03	1.467548E-03	2.029366E-04
5.505952E+03	1.462897E-03	2.012321E-04
5.515873E+03	1.458190E-03	1.995220E-04
5.525794E+03	1.453635E-03	1.978347E-04
5.535714E+03	1.449437E-03	1.961977E-04
5.545635E+03	1.445190E-03	1.945556E-04
5.555556E+03	1.441097E-03	1.929357E-04
5.565476E+03	1.437363E-03	1.913653E-04
5.575397E+03	1.433586E-03	1.897900E-04
5.585317E+03	1.429966E-03	1.882367E-04
5.595238E+03	1.426506E-03	1.867051E-04
5.605159E+03	1.423206E-03	1.851953E-04
5.615079E+03	1.420066E-03	1.837067E-04
5.625000E+03	1.417087E-03	1.822393E-04
5.634921E+03	1.414269E-03	1.807927E-04
5.644841E+03	1.411611E-03	1.793665E-04
5.654762E+03	1.409113E-03	1.779604E-04
5.664683E+03	1.406775E-03	1.765741E-04
5.674603E+03	1.404594E-03	1.752070E-04
5.684524E+03	1.402572E-03	1.738589E-04
5.694444E+03	1.400707E-03	1.725294E-04
5.704365E+03	1.398996E-03	1.712177E-04
5.714286E+03	1.397437E-03	1.699233E-04
5.724206E+03	1.396029E-03	1.686459E-04
5.734127E+03	1.394574E-03	1.673613E-04
5.744048E+03	1.393458E-03	1.661159E-04
5.753968E+03	1.392486E-03	1.648857E-04
5.763889E+03	1.391455E-03	1.636467E-04
5.773810E+03	1.390755E-03	1.624446E-04
5.783730E+03	1.390183E-03	1.612552E-04
5.793651E+03	1.389543E-03	1.600556E-04
5.803571E+03	1.389215E-03	1.588897E-04
5.813492E+03	1.388808E-03	1.577123E-04
5.823413E+03	1.388703E-03	1.565667E-04
5.833333E+03	1.388504E-03	1.554079E-04
5.843254E+03	1.388594E-03	1.542788E-04
5.853175E+03	1.388576E-03	1.531352E-04
5.863095E+03	1.388830E-03	1.520189E-04
5.873016E+03	1.388960E-03	1.508864E-04
5.882937E+03	1.389345E-03	1.497790E-04
5.892857E+03	1.389588E-03	1.486536E-04
5.902778E+03	1.389871E-03	1.475303E-04
5.912698E+03	1.390381E-03	1.464286E-04
5.922619E+03	1.390715E-03	1.453062E-04
5.932540E+03	1.391058E-03	1.441827E-04
5.942460E+03	1.391398E-03	1.430571E-04
5.952381E+03	1.391917E-03	1.419481E-04
5.962302E+03	1.392213E-03	1.408150E-04
5.972222E+03	1.392470E-03	1.396766E-04
5.982143E+03	1.392671E-03	1.385320E-04
5.992063E+03	1.392805E-03	1.373802E-04
6.001984E+03	1.392858E-03	1.362202E-04
6.011905E+03	1.392815E-03	1.350512E-04
6.021825E+03	1.392858E-03	1.338909E-04
6.031746E+03	1.392581E-03	1.327010E-04
6.041667E+03	1.392168E-03	1.314997E-04
6.051587E+03	1.391602E-03	1.302862E-04
6.061508E+03	1.390871E-03	1.290599E-04
6.071429E+03	1.389765E-03	1.278024E-04
6.081349E+03	1.388659E-03	1.265491E-04
6.091270E+03	1.387348E-03	1.252816E-04
6.101190E+03	1.385818E-03	1.239998E-04
6.111111E+03	1.384055E-03	1.227032E-04
6.121032E+03	1.382050E-03	1.213920E-04
6.130952E+03	1.379790E-03	1.200660E-04
6.140873E+03	1.377266E-03	1.187255E-04
6.150794E+03	1.374276E-03	1.173542E-04
6.160714E+03	1.371196E-03	1.159856E-04
6.170635E+03	1.367826E-03	1.146035E-04
6.180556E+03	1.364160E-03	1.132085E-04
6.190476E+03	1.360001E-03	1.117857E-04
6.200397E+03	1.355727E-03	1.103675E-04
6.210317E+03	1.351143E-03	1.089386E-04
6.220238E+03	1.346057E-03	1.074854E-04
6.230159E+03	1.340849E-03	1.060391E-04
6.240079E+03	1.335139E-03	1.045710E-04
6.250000E+03	1.329304E-03	1.031120E-04
6.259921E+03	1.323160E-03	1.016487E-04
6.269841E+03	1.316524E-03	1.001683E-04
6.279762E+03	1.309771E-03	9.870082E-05
6.289683E+03	1.302540E-03	9.721998E-05
6.299603E+03	1.295201E-03	9.575478E-05
6.309524E+03	1.287399E-03	9.427992E-05
6.319444E+03	1.279505E-03	9.282377E-05
6.329365E+03	1.271170E-03	9.136201E-05
6.339286E+03	1.262583E-03	8.990949E-05
6.349206E+03	1.253932E-03	8.848052E-05
6.359127E+03	1.244878E-03	8.705191E-05
6.369048E+03	1.235782E-03	8.565006E-05
6.378968E+03	1.226312E-03	8.425259E-05
6.388889E+03	1.216657E-03	8.287357E-05
6.398810E+03	1.207000E-03	8.152614E-05
6.408730E+03	1.197017E-03	8.018899E-05
6.418651E+03	1.186894E-03	7.887542E-05
6.428571E+03	1.176648E-03	7.758722E-05
6.438492E+03	1.166460E-03	7.633658E-05
6.448413E+03	1.156016E-03	7.510350E-05
6.458333E+03	1.145500E-03	7.390037E-05
6.468254E+03	1.134928E-03	7.272867E-05
6.478175E+03	1.124474E-03	7.159965E-05
6.488095E+03	1.113838E-03	7.049446E-05
6.498016E+03	1.103197E-03	6.942444E-05
6.507937E+03	1.092566E-03	6.839068E-05
6.517857E+03	1.081962E-03	6.739425E-05
6.527778E+03	1.071401E-03	6.643603E-05
6.537698E+03	1.060898E-03	6.551689E-05
6.547619E+03	1.050468E-03	6.463759E-05
6.557540E+03	1.040125E-03	6.379871E-05
6.567460E+03	1.030029E-03	6.300977E-05
6.577381E+03	1.019900E-03	6.225332E-05
6.587302E+03	1.009899E-03	6.153875E-05
6.597222E+03	1.000038E-03	6.086637E-05
6.607143E+03	9.903273E-04	6.023637E-05
6.617063E+03	9.806403E-04	5.964048E-05
6.626984E+03	9.712641E-04	5.909544E-05
6.636905E+03	9.620679E-04	5.859213E-05
6.646825E+03	9.530599E-04	5.812974E-05
6.656746E+03	9.442476E-04	5.770745E-05
6.666667E+03	9.356381E-04	5.732444E-05
6.676587E+03	9.272373E-04	5.697982E-05
6.686508E+03	9.190506E-04	5.667272E-05
6.696429E+03	9.110848E-04	5.640234E-05
6.706349E+03	9.032166E-04	5.615988E-05
6.716270E+03	8.957067E-04	5.596038E-05
6.726190E+03	8.884312E-04	5.579510E-05
6.736111E+03	8.813951E-04	5.566333E-05
6.746032E+03	8.746033E-04	5.556440E-05
6.755952E+03	8.679389E-04	5.548991E-05
6.765873E+03	8.616528E-04	5.545497E-05
6.775794E+03	8.556283E-04	5.545137E-05
6.785714E+03	8.498721E-04	5.547880E-05
6.795635E+03	8.442727E-04	5.552923E-05
6.805556E+03	8.390764E-04	5.561820E-05
6.815476E+03	8.341714E-04	5.573786E-05
6.825397E+03	8.294421E-04	5.587994E-05
6.835317E+03	8.251156E-04	5.605925E-05
6.845238E+03	8.210664E-04	5.626701E-05
6.855159E+03	8.171723E-04	5.649443E-05
6.865079E+03	8.136582E-04	5.675668E-05
6.875000E+03	8.102886E-04	5.703714E-05
6.884921E+03	8.072878E-04	5.735130E-05
6.894841E+03	8.044235E-04	5.768252E-05
6.904762E+03	8.019196E-04	5.804663E-05
6.914683E+03	7.996590E-04	5.843518E-05
6.924603E+03	7.975259E-04	5.883955E-05
6.934524E+03	7.957429E-04	5.927602E-05
6.944444E+03	7.940818E-04	5.972763E-05
6.954365E+03	7.927639E-04	6.021096E-05
6.964286E+03	7.915612E-04	6.070879E-05
6.974206E+03	7.905819E-04	6.122930E-05
6.984127E+03	7.899335E-04	6.178097E-05
6.994048E+03	7.893875E-04	6.234609E-05
7.003968E+03	7.891622E-04	6.294192E-05
7.013889E+03	7.890284E-04	6.355038E-05
7.023810E+03	7.890918E-04	6.417992E-05
7.033730E+03	7.894574E-04	6.483929E-05
7.043651E+03	7.898947E-04	6.550980E-05
7.053571E+03	7.905077E-04	6.620001E-05
7.063492E+03	7.914006E-04	6.691887E-05
7.073413E+03	7.923411E-04	6.764694E-05
7.083333E+03	7.934320E-04	6.839297E-05
7.093254E+03	7.947772E-04	6.916608E-05
7.103175E+03	7.961418E-04	6.994605E-05
7.113095E+03	7.976283E-04	7.074177E-05
7.123016E+03	7.992265E-04	7.155243E-05
7.132937E+03	8.010398E-04	7.238743E-05
7.142857E+03	8.028303E-04	7.322540E-05
7.152778E+03	8.047004E-04	7.407553E-05
7.162698E+03	8.066388E-04	7.493678E-05
7.172619E+03	8.086343E-04	7.580809E-05
7.182540E+03	8.106753E-04	7.668833E-05
7.192460E+03	8.128659E-04	7.758739E-05
7.202381E+03	8.149636E-04	7.848213E-05
7.212302E+03	8.170717E-04	7.938221E-05
7.222222E+03	8.191788E-04	8.028637E-05
7.232143E+03	8.212731E-04	8.119328E-05
7.242063E+03	8.233429E-04	8.210164E-05
7.251984E+03	8.253768E-04	8.301008E-05
7.261905E+03	8.273635E-04	8.391724E-05
7.271825E+03	8.292918E-04	8.482170E-05
7.281746E+03	8.311508E-04	8.572210E-05
7.291667E+03	8.329298E-04	8.661702E-05
7.301587E+03	8.346184E-04	8.750505E-05
7.311508E+03	8.362067E-04	8.838479E-05
7.321429E+03	8.376850E-04	8.925486E-05
7.331349E+03	8.390442E-04	9.011389E-05
7.341270E+03	8.402753E-04	9.096052E-05
7.351190E+03	8.413699E-04	9.179340E-05
7.361111E+03	8.423204E-04	9.261127E-05
7.371032E+03	8.429990E-04	9.339950E-05
7.380952E+03	8.436395E-04	9.418344E-05
7.390873E+03	8.441158E-04	9.494872E-05
7.400794E+03	8.444219E-04	9.569418E-05
7.410714E+03	8.445530E-04	9.641877E-05
7.420635E+03	8.445045E-04	9.712145E-05
7.430556E+03	8.441519E-04	9.778729E-05
7.440476E+03	8.437337E-04	9.844330E-05
7.450397E+03	8.431265E-04	9.907476E-05
7.460317E+03	8.423284E-04	9.968093E-05
7.470238E+03	8.412174E-04	1.002467E-04
7.480159E+03	8.400341E-04	1.008002E-04
7.490079E+03	8.386577E-04	1.013267E-04
7.500000E+03	8.369688E-04	1.018109E-04
7.509921E+03	8.352085E-04	1.022817E-04
7.519841E+03	8.332584E-04	1.027243E-04
7.529762E+03	8.310011E-04	1.031237E-04
7.539683E+03	8.286787E-04	1.035092E-04
7.549603E+03	8.260557E-04	1.038511E-04
7.559524E+03	8.233739E-04	1.041793E-04
7.569444E+03	8.205183E-04	1.044789E-04
7.579365E+03	8.173758E-04	1.047350E-04
7.589286E+03	8.141871E-04	1.049779E-04
7.599206E+03	8.107227E-04	1.051779E-04
7.609127E+03	8.072221E-04	1.053653E-04
7.619048E+03	8.034584E-04	1.055105E-04
7.628968E+03	7.996696E-04	1.056441E-04
7.638889E+03	7.956312E-04	1.057364E-04
7.648810E+03	7.914654E-04	1.058030E-04
7.658730E+03	7.872927E-04	1.058598E-04
7.668651E+03	7.828920E-04	1.058771E-04
7.678571E+03	7.784966E-04	1.058859E-04
7.688492E+03	7.738882E-04	1.058565E-04
7.698413E+03	7.691865E-04	1.058049E-04
