#wls	flux	fluxerr
1.587302E+03	4.098401E-04	1.072932E-04
1.626984E+03	4.219500E-04	1.102444E-04
1.666667E+03	4.345195E-04	1.132961E-04
1.706349E+03	4.474812E-04	1.164291E-04
1.746032E+03	4.608293E-04	1.196407E-04
1.785714E+03	4.745186E-04	1.229176E-04
1.825397E+03	4.884782E-04	1.262400E-04
1.865079E+03	5.027009E-04	1.296046E-04
1.904762E+03	5.168958E-04	1.329352E-04
1.944444E+03	5.311435E-04	1.362516E-04
1.984127E+03	5.453459E-04	1.395275E-04
2.023810E+03	5.597242E-04	1.428186E-04
2.063492E+03	5.748809E-04	1.462766E-04
2.103175E+03	5.917959E-04	1.501475E-04
2.142857E+03	6.116039E-04	1.547131E-04
2.182540E+03	6.346436E-04	1.600508E-04
2.222222E+03	6.609688E-04	1.661651E-04
2.261905E+03	6.898297E-04	1.728583E-04
2.301587E+03	7.205288E-04	1.799479E-04
2.341270E+03	7.525630E-04	1.873017E-04
2.380952E+03	7.858021E-04	1.948815E-04
2.420635E+03	8.198812E-04	2.025914E-04
2.460317E+03	8.550879E-04	2.104973E-04
2.500000E+03	8.913382E-04	2.185726E-04
2.539683E+03	9.287036E-04	2.268290E-04
2.579365E+03	9.672560E-04	2.352774E-04
2.619048E+03	1.007236E-03	2.439696E-04
2.658730E+03	1.048355E-03	2.528282E-04
2.698413E+03	1.091016E-03	2.619426E-04
2.738095E+03	1.135074E-03	2.712700E-04
2.777778E+03	1.180551E-03	2.808068E-04
2.817460E+03	1.227453E-03	2.905460E-04
2.857143E+03	1.275776E-03	3.004775E-04
2.896825E+03	1.325728E-03	3.106410E-04
2.936508E+03	1.376829E-03	3.209140E-04
2.976190E+03	1.429497E-03	3.313848E-04
2.986111E+03	1.442804E-03	3.340079E-04
2.996032E+03	1.456188E-03	3.366378E-04
3.005952E+03	1.469901E-03	3.393325E-04
3.015873E+03	1.483443E-03	3.419762E-04
3.025794E+03	1.497072E-03	3.446288E-04
3.035714E+03	1.510802E-03	3.472927E-04
3.045635E+03	1.524887E-03	3.500266E-04
3.055556E+03	1.538802E-03	3.527097E-04
3.065476E+03	1.552803E-03	3.554002E-04
3.075397E+03	1.566883E-03	3.580970E-04
3.085317E+03	1.581311E-03	3.608608E-04
3.095238E+03	1.595542E-03	3.635672E-04
3.105159E+03	1.609841E-03	3.662766E-04
3.115079E+03	1.624482E-03	3.690510E-04
3.125000E+03	1.638907E-03	3.717636E-04
3.134921E+03	1.653389E-03	3.744762E-04
3.144841E+03	1.667923E-03	3.771877E-04
3.154762E+03	1.682793E-03	3.799619E-04
3.164683E+03	1.697423E-03	3.826687E-04
3.174603E+03	1.712097E-03	3.853719E-04
3.184524E+03	1.727101E-03	3.881362E-04
3.194444E+03	1.741848E-03	3.908289E-04
3.204365E+03	1.756928E-03	3.935825E-04
3.214286E+03	1.771738E-03	3.962619E-04
3.224206E+03	1.786572E-03	3.989330E-04
3.234127E+03	1.801734E-03	4.016629E-04
3.244048E+03	1.816610E-03	4.043152E-04
3.253968E+03	1.831500E-03	4.069565E-04
3.263889E+03	1.846715E-03	4.096558E-04
3.273810E+03	1.861625E-03	4.122729E-04
3.283730E+03	1.876860E-03	4.149475E-04
3.293651E+03	1.891777E-03	4.175373E-04
3.303571E+03	1.906691E-03	4.201119E-04
3.313492E+03	1.921926E-03	4.227425E-04
3.323413E+03	1.936826E-03	4.252848E-04
3.333333E+03	1.952044E-03	4.278818E-04
3.343254E+03	1.966916E-03	4.303882E-04
3.353175E+03	1.982102E-03	4.329484E-04
3.363095E+03	1.996929E-03	4.354152E-04
3.373016E+03	2.012068E-03	4.379348E-04
3.382937E+03	2.026836E-03	4.403586E-04
3.392857E+03	2.041912E-03	4.428342E-04
3.402778E+03	2.056605E-03	4.452115E-04
3.412698E+03	2.071254E-03	4.475641E-04
3.422619E+03	2.086205E-03	4.499669E-04
3.432540E+03	2.100753E-03	4.522673E-04
3.442460E+03	2.115600E-03	4.546167E-04
3.452381E+03	2.130031E-03	4.568614E-04
3.462302E+03	2.144758E-03	4.591544E-04
3.472222E+03	2.159053E-03	4.613395E-04
3.482143E+03	2.173641E-03	4.635717E-04
3.492063E+03	2.187784E-03	4.656937E-04
3.501984E+03	2.202215E-03	4.678616E-04
3.511905E+03	2.216187E-03	4.699168E-04
3.521825E+03	2.230441E-03	4.720164E-04
3.531746E+03	2.244223E-03	4.740007E-04
3.541667E+03	2.258281E-03	4.760282E-04
3.551587E+03	2.271852E-03	4.779378E-04
3.561508E+03	2.285695E-03	4.798894E-04
3.571429E+03	2.299039E-03	4.817210E-04
3.581349E+03	2.312646E-03	4.835927E-04
3.591270E+03	2.326128E-03	4.854231E-04
3.601190E+03	2.339089E-03	4.871298E-04
3.611111E+03	2.352306E-03	4.888749E-04
3.621032E+03	2.364987E-03	4.904938E-04
3.630952E+03	2.377916E-03	4.921494E-04
3.640873E+03	2.390296E-03	4.936767E-04
3.650794E+03	2.402916E-03	4.952393E-04
3.660714E+03	2.414971E-03	4.966710E-04
3.670635E+03	2.427263E-03	4.981369E-04
3.680556E+03	2.438974E-03	4.994697E-04
3.690476E+03	2.450916E-03	5.008356E-04
3.700397E+03	2.462263E-03	5.020661E-04
3.710317E+03	2.473830E-03	5.033278E-04
3.720238E+03	2.485206E-03	5.045366E-04
3.730159E+03	2.495966E-03	5.056072E-04
3.740079E+03	2.506938E-03	5.067074E-04
3.750000E+03	2.517281E-03	5.076674E-04
3.759921E+03	2.527827E-03	5.086555E-04
3.769841E+03	2.537733E-03	5.095021E-04
3.779762E+03	2.547837E-03	5.103758E-04
3.789683E+03	2.557284E-03	5.111059E-04
3.799603E+03	2.566923E-03	5.118622E-04
3.809524E+03	2.575895E-03	5.124736E-04
3.819444E+03	2.585051E-03	5.131100E-04
3.829365E+03	2.593529E-03	5.136005E-04
3.839286E+03	2.602184E-03	5.141150E-04
3.849206E+03	2.610148E-03	5.144821E-04
3.859127E+03	2.618285E-03	5.148727E-04
3.869048E+03	2.626158E-03	5.152008E-04
3.878968E+03	2.633327E-03	5.153808E-04
3.888889E+03	2.640658E-03	5.155827E-04
3.898810E+03	2.647277E-03	5.156359E-04
3.908730E+03	2.654054E-03	5.157109E-04
3.918651E+03	2.660110E-03	5.156370E-04
3.928571E+03	2.666321E-03	5.155844E-04
3.938492E+03	2.671802E-03	5.153826E-04
3.948413E+03	2.677437E-03	5.152024E-04
3.958333E+03	2.682337E-03	5.148732E-04
3.968254E+03	2.687385E-03	5.145650E-04
3.978175E+03	2.691694E-03	5.141087E-04
3.988095E+03	2.696151E-03	5.136738E-04
3.998016E+03	2.699867E-03	5.130915E-04
4.007937E+03	2.703727E-03	5.125309E-04
4.017857E+03	2.706844E-03	5.118236E-04
4.027778E+03	2.710108E-03	5.111391E-04
4.037698E+03	2.712627E-03	5.103091E-04
4.047619E+03	2.714845E-03	5.094183E-04
4.057540E+03	2.717213E-03	5.085517E-04
4.067460E+03	2.718838E-03	5.075422E-04
4.077381E+03	2.720613E-03	5.065572E-04
4.087302E+03	2.721647E-03	5.054315E-04
4.097222E+03	2.722836E-03	5.043318E-04
4.107143E+03	2.723287E-03	5.030931E-04
4.117063E+03	2.723897E-03	5.018821E-04
4.126984E+03	2.723776E-03	5.005348E-04
4.136905E+03	2.723372E-03	4.991345E-04
4.146825E+03	2.723135E-03	4.977642E-04
4.156746E+03	2.722175E-03	4.962614E-04
4.166667E+03	2.721390E-03	4.947904E-04
4.176587E+03	2.719890E-03	4.931899E-04
4.186508E+03	2.718126E-03	4.915424E-04
4.196429E+03	2.716546E-03	4.899292E-04
4.206349E+03	2.714264E-03	4.881908E-04
4.216270E+03	2.711731E-03	4.864094E-04
4.226190E+03	2.709394E-03	4.846653E-04
4.236111E+03	2.706371E-03	4.828011E-04
4.246032E+03	2.703110E-03	4.808973E-04
4.255952E+03	2.700054E-03	4.790335E-04
4.265873E+03	2.696330E-03	4.770546E-04
4.275794E+03	2.692381E-03	4.750400E-04
4.285714E+03	2.688650E-03	4.730682E-04
4.295635E+03	2.684264E-03	4.709856E-04
4.305556E+03	2.679668E-03	4.688713E-04
4.315476E+03	2.675298E-03	4.668019E-04
4.325397E+03	2.670290E-03	4.646267E-04
4.335317E+03	2.665080E-03	4.624226E-04
4.345238E+03	2.659675E-03	4.601909E-04
4.355159E+03	2.654510E-03	4.580072E-04
4.365079E+03	2.648721E-03	4.557228E-04
4.375000E+03	2.642744E-03	4.534133E-04
4.384921E+03	2.636583E-03	4.510800E-04
4.394841E+03	2.630665E-03	4.487959E-04
4.404762E+03	2.624139E-03	4.464162E-04
4.414683E+03	2.617435E-03	4.440147E-04
4.424603E+03	2.610551E-03	4.415916E-04
4.434524E+03	2.603490E-03	4.391477E-04
4.444444E+03	2.596254E-03	4.366836E-04
4.454365E+03	2.589261E-03	4.342700E-04
4.464286E+03	2.581671E-03	4.317660E-04
4.474206E+03	2.573906E-03	4.292432E-04
4.484127E+03	2.565965E-03	4.267014E-04
4.494048E+03	2.557848E-03	4.241413E-04
4.503968E+03	2.549554E-03	4.215630E-04
4.513889E+03	2.541083E-03	4.189669E-04
4.523810E+03	2.532434E-03	4.163531E-04
4.533730E+03	2.523605E-03	4.137217E-04
4.543651E+03	2.514598E-03	4.110733E-04
4.553571E+03	2.505409E-03	4.084078E-04
4.563492E+03	2.496441E-03	4.057909E-04
4.573413E+03	2.486888E-03	4.030917E-04
4.583333E+03	2.477151E-03	4.003762E-04
4.593254E+03	2.467232E-03	3.976447E-04
4.603175E+03	2.457128E-03	3.948975E-04
4.613095E+03	2.446842E-03	3.921349E-04
4.623016E+03	2.435980E-03	3.892947E-04
4.632937E+03	2.425329E-03	3.865029E-04
4.642857E+03	2.414496E-03	3.836969E-04
4.652778E+03	2.403481E-03	3.808772E-04
4.662698E+03	2.392288E-03	3.780445E-04
4.672619E+03	2.380915E-03	3.751989E-04
4.682540E+03	2.369365E-03	3.723413E-04
4.692460E+03	2.357641E-03	3.694722E-04
4.702381E+03	2.345745E-03	3.665925E-04
4.712302E+03	2.333681E-03	3.637027E-04
4.722222E+03	2.321078E-03	3.607456E-04
4.732143E+03	2.308687E-03	3.578386E-04
4.742063E+03	2.296138E-03	3.549236E-04
4.751984E+03	2.283436E-03	3.520015E-04
4.761905E+03	2.270582E-03	3.490726E-04
4.771825E+03	2.257223E-03	3.460822E-04
4.781746E+03	2.244090E-03	3.431425E-04
4.791667E+03	2.230822E-03	3.401980E-04
4.801587E+03	2.217426E-03	3.372496E-04
4.811508E+03	2.203558E-03	3.342448E-04
4.821429E+03	2.189931E-03	3.312919E-04
4.831349E+03	2.176197E-03	3.283377E-04
4.841270E+03	2.162363E-03	3.253831E-04
4.851190E+03	2.148092E-03	3.223775E-04
4.861111E+03	2.134085E-03	3.194257E-04
4.871032E+03	2.119998E-03	3.164763E-04
4.880952E+03	2.105507E-03	3.134802E-04
4.890873E+03	2.091293E-03	3.105393E-04
4.900794E+03	2.076694E-03	3.075547E-04
4.910714E+03	2.062383E-03	3.046261E-04
4.920635E+03	2.048035E-03	3.017049E-04
4.930556E+03	2.033333E-03	2.987444E-04
4.940476E+03	2.018935E-03	2.958413E-04
4.950397E+03	2.004205E-03	2.929017E-04
4.960317E+03	1.989791E-03	2.900207E-04
4.970238E+03	1.975063E-03	2.871057E-04
4.980159E+03	1.960661E-03	2.842501E-04
4.990079E+03	1.945968E-03	2.813635E-04
5.000000E+03	1.931610E-03	2.785368E-04
5.009921E+03	1.916979E-03	2.756817E-04
5.019841E+03	1.902696E-03	2.728875E-04
5.029762E+03	1.888156E-03	2.700672E-04
5.039683E+03	1.873674E-03	2.672656E-04
5.049603E+03	1.859553E-03	2.645257E-04
5.059524E+03	1.845203E-03	2.617633E-04
5.069444E+03	1.831222E-03	2.590628E-04
5.079365E+03	1.817029E-03	2.563421E-04
5.089286E+03	1.802926E-03	2.536434E-04
5.099206E+03	1.789202E-03	2.510072E-04
5.109127E+03	1.775291E-03	2.483536E-04
5.119048E+03	1.761485E-03	2.457237E-04
5.128968E+03	1.747790E-03	2.431178E-04
5.138889E+03	1.734485E-03	2.405745E-04
5.148810E+03	1.721022E-03	2.380175E-04
5.158730E+03	1.707683E-03	2.354856E-04
5.168651E+03	1.694474E-03	2.329794E-04
5.178571E+03	1.681663E-03	2.305356E-04
5.188492E+03	1.668721E-03	2.280811E-04
5.198413E+03	1.655918E-03	2.256528E-04
5.208333E+03	1.643260E-03	2.232514E-04
5.218254E+03	1.630749E-03	2.208767E-04
5.228175E+03	1.618389E-03	2.185290E-04
5.238095E+03	1.606438E-03	2.162429E-04
5.248016E+03	1.594387E-03	2.139495E-04
5.257937E+03	1.582495E-03	2.116835E-04
5.267857E+03	1.570766E-03	2.094451E-04
5.277778E+03	1.559203E-03	2.072346E-04
5.287698E+03	1.547807E-03	2.050517E-04
5.297619E+03	1.536583E-03	2.028968E-04
5.307540E+03	1.525530E-03	2.007698E-04
5.317460E+03	1.514652E-03	1.986707E-04
5.327381E+03	1.503953E-03	1.965997E-04
5.337302E+03	1.493431E-03	1.945564E-04
5.347222E+03	1.483089E-03	1.925410E-04
5.357143E+03	1.472929E-03	1.905534E-04
5.367063E+03	1.462950E-03	1.885932E-04
5.376984E+03	1.453151E-03	1.866601E-04
5.386905E+03	1.443532E-03	1.847538E-04
5.396825E+03	1.434091E-03	1.828738E-04
5.406746E+03	1.424825E-03	1.810195E-04
5.416667E+03	1.415510E-03	1.791622E-04
5.426587E+03	1.406591E-03	1.773581E-04
5.436508E+03	1.397841E-03	1.755783E-04
5.446429E+03	1.389257E-03	1.738220E-04
5.456349E+03	1.380838E-03	1.720888E-04
5.466270E+03	1.372581E-03	1.703782E-04
5.476190E+03	1.364267E-03	1.686630E-04
5.486111E+03	1.356330E-03	1.669965E-04
5.496032E+03	1.348550E-03	1.653514E-04
5.505952E+03	1.340924E-03	1.637271E-04
5.515873E+03	1.333244E-03	1.620978E-04
5.525794E+03	1.325928E-03	1.605146E-04
5.535714E+03	1.318765E-03	1.589514E-04
5.545635E+03	1.311756E-03	1.574079E-04
5.555556E+03	1.304692E-03	1.558592E-04
5.565476E+03	1.297987E-03	1.543546E-04
5.575397E+03	1.291434E-03	1.528689E-04
5.585317E+03	1.284831E-03	1.513782E-04
5.595238E+03	1.278583E-03	1.499301E-04
5.605159E+03	1.272288E-03	1.484770E-04
5.615079E+03	1.266347E-03	1.470659E-04
5.625000E+03	1.260560E-03	1.456728E-04
5.634921E+03	1.254729E-03	1.442748E-04
5.644841E+03	1.249251E-03	1.429177E-04
5.654762E+03	1.243732E-03	1.415557E-04
5.664683E+03	1.238565E-03	1.402336E-04
5.674603E+03	1.233360E-03	1.389069E-04
5.684524E+03	1.228506E-03	1.376193E-04
5.694444E+03	1.223616E-03	1.363270E-04
5.704365E+03	1.219077E-03	1.350731E-04
5.714286E+03	1.214504E-03	1.338145E-04
5.724206E+03	1.210280E-03	1.325934E-04
5.734127E+03	1.206023E-03	1.313675E-04
5.744048E+03	1.202116E-03	1.301782E-04
5.753968E+03	1.198175E-03	1.289839E-04
5.763889E+03	1.194393E-03	1.278052E-04
5.773810E+03	1.190955E-03	1.266615E-04
5.783730E+03	1.187485E-03	1.255125E-04
5.793651E+03	1.184356E-03	1.243974E-04
5.803571E+03	1.181195E-03	1.232768E-04
5.813492E+03	1.178184E-03	1.221696E-04
5.823413E+03	1.175509E-03	1.210947E-04
5.833333E+03	1.172797E-03	1.200133E-04
5.843254E+03	1.170229E-03	1.189441E-04
5.853175E+03	1.167988E-03	1.179050E-04
5.863095E+03	1.165701E-03	1.168584E-04
5.873016E+03	1.163550E-03	1.158223E-04
5.882937E+03	1.161530E-03	1.147960E-04
5.892857E+03	1.159819E-03	1.137970E-04
5.902778E+03	1.158047E-03	1.127884E-04
5.912698E+03	1.156391E-03	1.117876E-04
5.922619E+03	1.154845E-03	1.107938E-04
5.932540E+03	1.153583E-03	1.098237E-04
5.942460E+03	1.152235E-03	1.088414E-04
5.952381E+03	1.150976E-03	1.078638E-04
5.962302E+03	1.149794E-03	1.068897E-04
5.972222E+03	1.148682E-03	1.059184E-04
5.982143E+03	1.147629E-03	1.049487E-04
5.992063E+03	1.146806E-03	1.039961E-04
6.001984E+03	1.145839E-03	1.030267E-04
6.011905E+03	1.144895E-03	1.020558E-04
6.021825E+03	1.143963E-03	1.010824E-04
6.031746E+03	1.143026E-03	1.001053E-04
6.041667E+03	1.142073E-03	9.912351E-05
6.051587E+03	1.141084E-03	9.813570E-05
6.061508E+03	1.140046E-03	9.714080E-05
6.071429E+03	1.138939E-03	9.613760E-05
6.081349E+03	1.137747E-03	9.512504E-05
6.091270E+03	1.136450E-03	9.410185E-05
6.101190E+03	1.135031E-03	9.306702E-05
6.111111E+03	1.133471E-03	9.201951E-05
6.121032E+03	1.131751E-03	9.095829E-05
6.130952E+03	1.129852E-03	8.988248E-05
6.140873E+03	1.127759E-03	8.879142E-05
6.150794E+03	1.125452E-03	8.768438E-05
6.160714E+03	1.122916E-03	8.656095E-05
6.170635E+03	1.120138E-03	8.542090E-05
6.180556E+03	1.117104E-03	8.426415E-05
6.190476E+03	1.113803E-03	8.309069E-05
6.200397E+03	1.110224E-03	8.190074E-05
6.210317E+03	1.106356E-03	8.069453E-05
6.220238E+03	1.102190E-03	7.947256E-05
6.230159E+03	1.097720E-03	7.823534E-05
6.240079E+03	1.092765E-03	7.697140E-05
6.250000E+03	1.087663E-03	7.570591E-05
6.259921E+03	1.082239E-03	7.442753E-05
6.269841E+03	1.076488E-03	7.313722E-05
6.279762E+03	1.070407E-03	7.183615E-05
6.289683E+03	1.063997E-03	7.052558E-05
6.299603E+03	1.057093E-03	6.919602E-05
6.309524E+03	1.050029E-03	6.787094E-05
6.319444E+03	1.042643E-03	6.654089E-05
6.329365E+03	1.034942E-03	6.520759E-05
6.339286E+03	1.026932E-03	6.387279E-05
6.349206E+03	1.018462E-03	6.252865E-05
6.359127E+03	1.009864E-03	6.119694E-05
6.369048E+03	1.000989E-03	5.986970E-05
6.378968E+03	9.918510E-04	5.854903E-05
6.388889E+03	9.823085E-04	5.722795E-05
6.398810E+03	9.726899E-04	5.592695E-05
6.408730E+03	9.628560E-04	5.463894E-05
6.418651E+03	9.526738E-04	5.335765E-05
6.428571E+03	9.424658E-04	5.210233E-05
6.438492E+03	9.320992E-04	5.086645E-05
6.448413E+03	9.214489E-04	4.964428E-05
6.458333E+03	9.108293E-04	4.845378E-05
6.468254E+03	9.001133E-04	4.728886E-05
6.478175E+03	8.891840E-04	4.614428E-05
6.488095E+03	8.783442E-04	4.503656E-05
6.498016E+03	8.674737E-04	4.396005E-05
6.507937E+03	8.564596E-04	4.290970E-05
6.517857E+03	8.455954E-04	4.190082E-05
6.527778E+03	8.347651E-04	4.092795E-05
6.537698E+03	8.238591E-04	3.998618E-05
6.547619E+03	8.131607E-04	3.908960E-05
6.557540E+03	8.024301E-04	3.822683E-05
6.567460E+03	7.919428E-04	3.741121E-05
6.577381E+03	7.814649E-04	3.663165E-05
6.587302E+03	7.712637E-04	3.590073E-05
6.597222E+03	7.611111E-04	3.520765E-05
6.607143E+03	7.512659E-04	3.456422E-05
6.617063E+03	7.416219E-04	3.396522E-05
6.626984E+03	7.320803E-04	3.340580E-05
6.636905E+03	7.228871E-04	3.289674E-05
6.646825E+03	7.138264E-04	3.242771E-05
6.656746E+03	7.051369E-04	3.200896E-05
6.666667E+03	6.966059E-04	3.163018E-05
6.676587E+03	6.883565E-04	3.129589E-05
6.686508E+03	6.805060E-04	3.100984E-05
6.696429E+03	6.728483E-04	3.076108E-05
6.706349E+03	6.656065E-04	3.055824E-05
6.716270E+03	6.585790E-04	3.039055E-05
6.726190E+03	6.519844E-04	3.026662E-05
6.736111E+03	6.456256E-04	3.017592E-05
6.746032E+03	6.397178E-04	3.012713E-05
6.755952E+03	6.340687E-04	3.011001E-05
6.765873E+03	6.287914E-04	3.012870E-05
6.775794E+03	6.239963E-04	3.018749E-05
6.785714E+03	6.194984E-04	3.027655E-05
6.795635E+03	6.154093E-04	3.040044E-05
6.805556E+03	6.118368E-04	3.056384E-05
6.815476E+03	6.085941E-04	3.075693E-05
6.825397E+03	6.058735E-04	3.098891E-05
6.835317E+03	6.034744E-04	3.124925E-05
6.845238E+03	6.014797E-04	3.154183E-05
6.855159E+03	5.999697E-04	3.187074E-05
6.865079E+03	5.987403E-04	3.222505E-05
6.875000E+03	5.978735E-04	3.260895E-05
6.884921E+03	5.974520E-04	3.302699E-05
6.894841E+03	5.972759E-04	3.346820E-05
6.904762E+03	5.974303E-04	3.393725E-05
6.914683E+03	5.979062E-04	3.443373E-05
6.924603E+03	5.987901E-04	3.496283E-05
6.934524E+03	5.998853E-04	3.551330E-05
6.944444E+03	6.012789E-04	3.609034E-05
6.954365E+03	6.029639E-04	3.669376E-05
6.964286E+03	6.050291E-04	3.732930E-05
6.974206E+03	6.072767E-04	3.798510E-05
6.984127E+03	6.097951E-04	3.866683E-05
6.994048E+03	6.125776E-04	3.937435E-05
7.003968E+03	6.157144E-04	4.011387E-05
7.013889E+03	6.190040E-04	4.087266E-05
7.023810E+03	6.225357E-04	4.165680E-05
7.033730E+03	6.263020E-04	4.246609E-05
7.043651E+03	6.302945E-04	4.330031E-05
7.053571E+03	6.345049E-04	4.415920E-05
7.063492E+03	6.390255E-04	4.504961E-05
7.073413E+03	6.436451E-04	4.595705E-05
7.083333E+03	6.484546E-04	4.688811E-05
7.093254E+03	6.534437E-04	4.784235E-05
7.103175E+03	6.586016E-04	4.881923E-05
7.113095E+03	6.639171E-04	4.981818E-05
7.123016E+03	6.693783E-04	5.083851E-05
7.132937E+03	6.750802E-04	5.188775E-05
7.142857E+03	6.807965E-04	5.294878E-05
7.152778E+03	6.866203E-04	5.402878E-05
7.162698E+03	6.925377E-04	5.512677E-05
7.172619E+03	6.985346E-04	5.624172E-05
7.182540E+03	7.045964E-04	5.737249E-05
7.192460E+03	7.107080E-04	5.851789E-05
7.202381E+03	7.168542E-04	5.967662E-05
7.212302E+03	7.230193E-04	6.084733E-05
7.222222E+03	7.291876E-04	6.202860E-05
7.232143E+03	7.353432E-04	6.321895E-05
7.242063E+03	7.414701E-04	6.441683E-05
7.251984E+03	7.475521E-04	6.562063E-05
7.261905E+03	7.535735E-04	6.682871E-05
7.271825E+03	7.595184E-04	6.803939E-05
7.281746E+03	7.653713E-04	6.925096E-05
7.291667E+03	7.711170E-04	7.046168E-05
7.301587E+03	7.767406E-04	7.166981E-05
7.311508E+03	7.822279E-04	7.287360E-05
7.321429E+03	7.875651E-04	7.407133E-05
7.331349E+03	7.927388E-04	7.526124E-05
7.341270E+03	7.977369E-04	7.644168E-05
7.351190E+03	8.025475E-04	7.761097E-05
7.361111E+03	8.071596E-04	7.876748E-05
7.371032E+03	8.115634E-04	7.990967E-05
7.380952E+03	8.157497E-04	8.103605E-05
7.390873E+03	8.197103E-04	8.214517E-05
7.400794E+03	8.234378E-04	8.323568E-05
7.410714E+03	8.267943E-04	8.429287E-05
7.420635E+03	8.300375E-04	8.534226E-05
7.430556E+03	8.330317E-04	8.636947E-05
7.440476E+03	8.357736E-04	8.737350E-05
7.450397E+03	8.382608E-04	8.835343E-05
7.460317E+03	8.404916E-04	8.930846E-05
7.470238E+03	8.424656E-04	9.023784E-05
7.480159E+03	8.441826E-04	9.114096E-05
7.490079E+03	8.455089E-04	9.200259E-05
7.500000E+03	8.467158E-04	9.285152E-05
7.509921E+03	8.476711E-04	9.367287E-05
7.519841E+03	8.483777E-04	9.446635E-05
7.529762E+03	8.488394E-04	9.523180E-05
7.539683E+03	8.489250E-04	9.595379E-05
7.549603E+03	8.489108E-04	9.666288E-05
7.559524E+03	8.486668E-04	9.734397E-05
7.569444E+03	8.481995E-04	9.799726E-05
7.579365E+03	8.473801E-04	9.860726E-05
7.589286E+03	8.464874E-04	9.920573E-05
7.599206E+03	8.453934E-04	9.977737E-05
7.609127E+03	8.441062E-04	1.003226E-04
7.619048E+03	8.424992E-04	1.008257E-04
7.628968E+03	8.408505E-04	1.013195E-04
7.638889E+03	8.390334E-04	1.017884E-04
7.648810E+03	8.370561E-04	1.022330E-04
7.658730E+03	8.347934E-04	1.026375E-04
7.668651E+03	8.325209E-04	1.030352E-04
7.678571E+03	8.301127E-04	1.034106E-04
7.688492E+03	8.274439E-04	1.037474E-04
7.698413E+03	8.247881E-04	1.040797E-04
