#wls	flux	fluxerr
1.600000E+03	4.474347E-16	8.983551E-18
1.640000E+03	4.581930E-16	9.150091E-18
1.680000E+03	4.697890E-16	9.329766E-18
1.720000E+03	4.822475E-16	9.522680E-18
1.760000E+03	4.956361E-16	9.729753E-18
1.800000E+03	5.100643E-16	9.952673E-18
1.840000E+03	5.254696E-16	1.018972E-17
1.880000E+03	5.420035E-16	1.044332E-17
1.920000E+03	5.596896E-16	1.071335E-17
1.960000E+03	5.785532E-16	1.099967E-17
2.000000E+03	5.985810E-16	1.130141E-17
2.040000E+03	6.198047E-16	1.161850E-17
2.080000E+03	6.421790E-16	1.194940E-17
2.120000E+03	6.655848E-16	1.229122E-17
2.160000E+03	6.900334E-16	1.264350E-17
2.200000E+03	7.153852E-16	1.300302E-17
2.240000E+03	7.415528E-16	1.336754E-17
2.280000E+03	7.685410E-16	1.373651E-17
2.320000E+03	7.964446E-16	1.411098E-17
2.360000E+03	8.254881E-16	1.449417E-17
2.400000E+03	8.559464E-16	1.489002E-17
2.440000E+03	8.881097E-16	1.530253E-17
2.480000E+03	9.224033E-16	1.573779E-17
2.520000E+03	9.591601E-16	1.619999E-17
2.560000E+03	9.988208E-16	1.669487E-17
2.600000E+03	1.041750E-15	1.722651E-17
2.640000E+03	1.088398E-15	1.780012E-17
2.680000E+03	1.139199E-15	1.842022E-17
2.720000E+03	1.194654E-15	1.909202E-17
2.760000E+03	1.255352E-15	1.982165E-17
2.800000E+03	1.321943E-15	2.061566E-17
2.840000E+03	1.395196E-15	2.148181E-17
2.880000E+03	1.476099E-15	2.243048E-17
2.920000E+03	1.565732E-15	2.347252E-17
2.960000E+03	1.665569E-15	2.462355E-17
3.000000E+03	1.777191E-15	2.589942E-17
3.010000E+03	1.807208E-15	2.624083E-17
3.020000E+03	1.838090E-15	2.659120E-17
3.030000E+03	1.869863E-15	2.695079E-17
3.040000E+03	1.902644E-15	2.732109E-17
3.050000E+03	1.936425E-15	2.770179E-17
3.060000E+03	1.971235E-15	2.809318E-17
3.070000E+03	2.007155E-15	2.849616E-17
3.080000E+03	2.044174E-15	2.891043E-17
3.090000E+03	2.082330E-15	2.933629E-17
3.100000E+03	2.121744E-15	2.977527E-17
3.110000E+03	2.162370E-15	3.022646E-17
3.120000E+03	2.204287E-15	3.069077E-17
3.130000E+03	2.247489E-15	3.116788E-17
3.140000E+03	2.292150E-15	3.165995E-17
3.150000E+03	2.338173E-15	3.216539E-17
3.160000E+03	2.385640E-15	3.268506E-17
3.170000E+03	2.434635E-15	3.321986E-17
3.180000E+03	2.485193E-15	3.376999E-17
3.190000E+03	2.537253E-15	3.433433E-17
3.200000E+03	2.590991E-15	3.491497E-17
3.210000E+03	2.646336E-15	3.551066E-17
3.220000E+03	2.703361E-15	3.612209E-17
3.230000E+03	2.762035E-15	3.674851E-17
3.240000E+03	2.822420E-15	3.739045E-17
3.250000E+03	2.884518E-15	3.804763E-17
3.260000E+03	2.948326E-15	3.871967E-17
3.270000E+03	3.013776E-15	3.940538E-17
3.280000E+03	3.080890E-15	4.010473E-17
3.290000E+03	3.149622E-15	4.081681E-17
3.300000E+03	3.219859E-15	4.153987E-17
3.310000E+03	3.291569E-15	4.227320E-17
3.320000E+03	3.364593E-15	4.301450E-17
3.330000E+03	3.438852E-15	4.376248E-17
3.340000E+03	3.514127E-15	4.451417E-17
3.350000E+03	3.590222E-15	4.526686E-17
3.360000E+03	3.666898E-15	4.601740E-17
3.370000E+03	3.743877E-15	4.676221E-17
3.380000E+03	3.820836E-15	4.749717E-17
3.390000E+03	3.897342E-15	4.821694E-17
3.400000E+03	3.973027E-15	4.891703E-17
3.410000E+03	4.047296E-15	4.959028E-17
3.417812E+03	4.297167E-15	5.245151E-17
3.419508E+03	4.330289E-15	5.281193E-17
3.421205E+03	4.366395E-15	5.320799E-17
3.422901E+03	4.420710E-15	5.382503E-17
3.424598E+03	4.514903E-15	5.492608E-17
3.426295E+03	4.613899E-15	5.608358E-17
3.427991E+03	4.676887E-15	5.680176E-17
3.429688E+03	4.685908E-15	5.686372E-17
3.431385E+03	4.683398E-15	5.678568E-17
3.433081E+03	4.672591E-15	5.660718E-17
3.434778E+03	4.653029E-15	5.632289E-17
3.436475E+03	4.642917E-15	5.615327E-17
3.438171E+03	4.648234E-15	5.617031E-17
3.439868E+03	4.665289E-15	5.632893E-17
3.441565E+03	4.695915E-15	5.665092E-17
3.443261E+03	4.734812E-15	5.707198E-17
3.444958E+03	4.788647E-15	5.767212E-17
3.446655E+03	4.857642E-15	5.845358E-17
3.448351E+03	4.923847E-15	5.920008E-17
3.450048E+03	4.978293E-15	5.980395E-17
3.451744E+03	5.033404E-15	6.041470E-17
3.453441E+03	5.086649E-15	6.100190E-17
3.455138E+03	5.128837E-15	6.145551E-17
3.456834E+03	5.168248E-15	6.187503E-17
3.458531E+03	5.217976E-15	6.241711E-17
3.460228E+03	5.247008E-15	6.271082E-17
3.461924E+03	5.259719E-15	6.280904E-17
3.463621E+03	5.283902E-15	6.304384E-17
3.465318E+03	5.298888E-15	6.316849E-17
3.467014E+03	5.297338E-15	6.309589E-17
3.468711E+03	5.305195E-15	6.313522E-17
3.470408E+03	5.307309E-15	6.310610E-17
3.472104E+03	5.284187E-15	6.277713E-17
3.473801E+03	5.264510E-15	6.248950E-17
3.475497E+03	5.262263E-15	6.240899E-17
3.477194E+03	5.269182E-15	6.243710E-17
3.478891E+03	5.280219E-15	6.251379E-17
3.480588E+03	5.304307E-15	6.274464E-17
3.482284E+03	5.338691E-15	6.309670E-17
3.483981E+03	5.362978E-15	6.332877E-17
3.485677E+03	5.378549E-15	6.345753E-17
3.487374E+03	5.400977E-15	6.366676E-17
3.489071E+03	5.433921E-15	6.399937E-17
3.490767E+03	5.476228E-15	6.444150E-17
3.492464E+03	5.544366E-15	6.518641E-17
3.494161E+03	5.630082E-15	6.613640E-17
3.495857E+03	5.706839E-15	6.697950E-17
3.497554E+03	5.763209E-15	6.758191E-17
3.499251E+03	5.802634E-15	6.798462E-17
3.500947E+03	5.818498E-15	6.811074E-17
3.502644E+03	5.830924E-15	6.819627E-17
3.504340E+03	5.846081E-15	6.831348E-17
3.506037E+03	5.864881E-15	6.847287E-17
3.507734E+03	5.885038E-15	6.864767E-17
3.509430E+03	5.900615E-15	6.876872E-17
3.511127E+03	5.892674E-15	6.861555E-17
3.512824E+03	5.864652E-15	6.822889E-17
3.514520E+03	5.833900E-15	6.781112E-17
3.516217E+03	5.793806E-15	6.728543E-17
3.517914E+03	5.760567E-15	6.684009E-17
3.519610E+03	5.746716E-15	6.662022E-17
3.521307E+03	5.737653E-15	6.645604E-17
3.523004E+03	5.740894E-15	6.643442E-17
3.524700E+03	5.773518E-15	6.675249E-17
3.526397E+03	5.806576E-15	6.707485E-17
3.528093E+03	5.818212E-15	6.714930E-17
3.529790E+03	5.813672E-15	6.703695E-17
3.531487E+03	5.792515E-15	6.673325E-17
3.533184E+03	5.760442E-15	6.630431E-17
3.534880E+03	5.729516E-15	6.588926E-17
3.536577E+03	5.709517E-15	6.560035E-17
3.538273E+03	5.721813E-15	6.568259E-17
3.539970E+03	5.751603E-15	6.596517E-17
3.541667E+03	5.778873E-15	6.621826E-17
3.543363E+03	5.822260E-15	6.665531E-17
3.545060E+03	5.872209E-15	6.716649E-17
3.546757E+03	5.899417E-15	6.741674E-17
3.548453E+03	5.916844E-15	6.755478E-17
3.550150E+03	5.920637E-15	6.753689E-17
3.551847E+03	5.891741E-15	6.714636E-17
3.553543E+03	5.850829E-15	6.661965E-17
3.555240E+03	5.820141E-15	6.621003E-17
3.556936E+03	5.789689E-15	6.580376E-17
3.558633E+03	5.768770E-15	6.550633E-17
3.560330E+03	5.757377E-15	6.531738E-17
3.562026E+03	5.739186E-15	6.505165E-17
3.563723E+03	5.716015E-15	6.472985E-17
3.565420E+03	5.713688E-15	6.464437E-17
3.567116E+03	5.723135E-15	6.469203E-17
3.568813E+03	5.734383E-15	6.475980E-17
3.570510E+03	5.746752E-15	6.483997E-17
3.572206E+03	5.760015E-15	6.492999E-17
3.573903E+03	5.759919E-15	6.486923E-17
3.575600E+03	5.754617E-15	6.474990E-17
3.577296E+03	5.746825E-15	6.460271E-17
3.578993E+03	5.725469E-15	6.430330E-17
3.580690E+03	5.700503E-15	6.396382E-17
3.582386E+03	5.682549E-15	6.370349E-17
3.584083E+03	5.652402E-15	6.330692E-17
3.585780E+03	5.632427E-15	6.302480E-17
3.587476E+03	5.624648E-15	6.287947E-17
3.589173E+03	5.627478E-15	6.285274E-17
3.590869E+03	5.635943E-15	6.288885E-17
3.592566E+03	5.640562E-15	6.288188E-17
3.594263E+03	5.639085E-15	6.280690E-17
3.595959E+03	5.654063E-15	6.291509E-17
3.597656E+03	5.657082E-15	6.288997E-17
3.599353E+03	5.626066E-15	6.248678E-17
3.601049E+03	5.596640E-15	6.210189E-17
3.602746E+03	5.579385E-15	6.185250E-17
3.604443E+03	5.554029E-15	6.151375E-17
3.606139E+03	5.524856E-15	6.113330E-17
3.607836E+03	5.506494E-15	6.087294E-17
3.609532E+03	5.480038E-15	6.052360E-17
3.611229E+03	5.437173E-15	5.999371E-17
3.612926E+03	5.394100E-15	5.946241E-17
3.614622E+03	5.368580E-15	5.912536E-17
3.616319E+03	5.363521E-15	5.901392E-17
3.618016E+03	5.371493E-15	5.904581E-17
3.619712E+03	5.383723E-15	5.912434E-17
3.621409E+03	5.398635E-15	5.923201E-17
3.623106E+03	5.401188E-15	5.920388E-17
3.624802E+03	5.388247E-15	5.900607E-17
3.626499E+03	5.372842E-15	5.878152E-17
3.628196E+03	5.359009E-15	5.857448E-17
3.629892E+03	5.349889E-15	5.841921E-17
3.631589E+03	5.360049E-15	5.847443E-17
3.633286E+03	5.379163E-15	5.862702E-17
3.634982E+03	5.391989E-15	5.871078E-17
3.636679E+03	5.393153E-15	5.866737E-17
3.638376E+03	5.379533E-15	5.846327E-17
3.640072E+03	5.350917E-15	5.809666E-17
3.641769E+03	5.321192E-15	5.771859E-17
3.643465E+03	5.296179E-15	5.739221E-17
3.645162E+03	5.271621E-15	5.707126E-17
3.646859E+03	5.243496E-15	5.671223E-17
3.648555E+03	5.214711E-15	5.634669E-17
3.650252E+03	5.185714E-15	5.597942E-17
3.651949E+03	5.152484E-15	5.556711E-17
3.653645E+03	5.118599E-15	5.514844E-17
3.655342E+03	5.083166E-15	5.471379E-17
3.657039E+03	5.039042E-15	5.418643E-17
3.658735E+03	4.992708E-15	5.363627E-17
3.660432E+03	4.952643E-15	5.315432E-17
3.662129E+03	4.921073E-15	5.276428E-17
3.663825E+03	4.902448E-15	5.251360E-17
3.665522E+03	4.885166E-15	5.227764E-17
3.667218E+03	4.849619E-15	5.184680E-17
3.668915E+03	4.803172E-15	5.130026E-17
3.670612E+03	4.753631E-15	5.072167E-17
3.672308E+03	4.699663E-15	5.009694E-17
3.674005E+03	4.654403E-15	4.956604E-17
3.675702E+03	4.622291E-15	4.917597E-17
3.677398E+03	4.593311E-15	4.881987E-17
3.679095E+03	4.571902E-15	4.854473E-17
3.680792E+03	4.542499E-15	4.818526E-17
3.682488E+03	4.500445E-15	4.769235E-17
3.684185E+03	4.473073E-15	4.735572E-17
3.685882E+03	4.464146E-15	4.721476E-17
3.687578E+03	4.446562E-15	4.698252E-17
3.689275E+03	4.425212E-15	4.671088E-17
3.690972E+03	4.393441E-15	4.632980E-17
3.692668E+03	4.355255E-15	4.588181E-17
3.694365E+03	4.291366E-15	4.516408E-17
3.696061E+03	4.228620E-15	4.445974E-17
3.697758E+03	4.169012E-15	4.378963E-17
3.699455E+03	4.124945E-15	4.328383E-17
3.701151E+03	4.078686E-15	4.275601E-17
3.702848E+03	4.022047E-15	4.212042E-17
3.704545E+03	3.970973E-15	4.154423E-17
3.706241E+03	3.912406E-15	4.089081E-17
3.707938E+03	3.837725E-15	4.007034E-17
3.709635E+03	3.755571E-15	3.917347E-17
3.711331E+03	3.694243E-15	3.849536E-17
3.713028E+03	3.631846E-15	3.780737E-17
3.714725E+03	3.568602E-15	3.711187E-17
3.716421E+03	3.497446E-15	3.633551E-17
3.718118E+03	3.423682E-15	3.553355E-17
3.719814E+03	3.353937E-15	3.477480E-17
3.721511E+03	3.294600E-15	3.412531E-17
3.723208E+03	3.239712E-15	3.352307E-17
3.724905E+03	3.188823E-15	3.296333E-17
3.726601E+03	3.137965E-15	3.240498E-17
3.728298E+03	3.084053E-15	3.181618E-17
3.729994E+03	3.027090E-15	3.119706E-17
3.731691E+03	2.974344E-15	3.062253E-17
3.733388E+03	2.923392E-15	3.006755E-17
3.735084E+03	2.878852E-15	2.957953E-17
3.736781E+03	2.833019E-15	2.907915E-17
3.738478E+03	2.791830E-15	2.862735E-17
3.740174E+03	2.757481E-15	2.824648E-17
3.741871E+03	2.718317E-15	2.781705E-17
3.743568E+03	2.672148E-15	2.731682E-17
3.745264E+03	2.630620E-15	2.686496E-17
3.746961E+03	2.578580E-15	2.630671E-17
3.748657E+03	2.517357E-15	2.565597E-17
3.750354E+03	2.464288E-15	2.508951E-17
3.752051E+03	2.428359E-15	2.469847E-17
3.753747E+03	2.411740E-15	2.450441E-17
3.755444E+03	2.410253E-15	2.446426E-17
3.757141E+03	2.424754E-15	2.458627E-17
3.758837E+03	2.445374E-15	2.476997E-17
3.760534E+03	2.460943E-15	2.490211E-17
3.762231E+03	2.472997E-15	2.499841E-17
3.763927E+03	2.484821E-15	2.509216E-17
3.765624E+03	2.495104E-15	2.517009E-17
3.767321E+03	2.505596E-15	2.524992E-17
3.769017E+03	2.530500E-15	2.547464E-17
3.770714E+03	2.553855E-15	2.568326E-17
3.772411E+03	2.571294E-15	2.583196E-17
3.774107E+03	2.583697E-15	2.592978E-17
3.775804E+03	2.604818E-15	2.611473E-17
3.777501E+03	2.628102E-15	2.632091E-17
3.779197E+03	2.647878E-15	2.649153E-17
3.780894E+03	2.667854E-15	2.666373E-17
3.782590E+03	2.697620E-15	2.693327E-17
3.784287E+03	2.725183E-15	2.718021E-17
3.785984E+03	2.745755E-15	2.735694E-17
3.787680E+03	2.770445E-15	2.757424E-17
3.789377E+03	2.800553E-15	2.784490E-17
3.791074E+03	2.824547E-15	2.805420E-17
3.792770E+03	2.834387E-15	2.812260E-17
3.794467E+03	2.832915E-15	2.807865E-17
3.796164E+03	2.827747E-15	2.799816E-17
3.797860E+03	2.824101E-15	2.793284E-17
3.799557E+03	2.821105E-15	2.787401E-17
3.801253E+03	2.829827E-15	2.793093E-17
3.802950E+03	2.848954E-15	2.809024E-17
3.804647E+03	2.875221E-15	2.831949E-17
3.806343E+03	2.912520E-15	2.865676E-17
3.808040E+03	2.970593E-15	2.919743E-17
3.809737E+03	3.041832E-15	2.986619E-17
3.811433E+03	3.127956E-15	3.067948E-17
3.813130E+03	3.213364E-15	3.148397E-17
3.814827E+03	3.294591E-15	3.224578E-17
3.816523E+03	3.361046E-15	3.286151E-17
3.818220E+03	3.421391E-15	3.341618E-17
3.819917E+03	3.479526E-15	3.394805E-17
3.821613E+03	3.542799E-15	3.452883E-17
3.823310E+03	3.604507E-15	3.509304E-17
3.825007E+03	3.670697E-15	3.569959E-17
3.826703E+03	3.745249E-15	3.638604E-17
3.828400E+03	3.814995E-15	3.702429E-17
3.830097E+03	3.876702E-15	3.758318E-17
3.831793E+03	3.945256E-15	3.820715E-17
3.833490E+03	4.018923E-15	3.887915E-17
3.835186E+03	4.087360E-15	3.949912E-17
3.836883E+03	4.155307E-15	4.011294E-17
3.838580E+03	4.226856E-15	4.076010E-17
3.840276E+03	4.286513E-15	4.129127E-17
3.841973E+03	4.330633E-15	4.167170E-17
3.843670E+03	4.376863E-15	4.207151E-17
3.845366E+03	4.433582E-15	4.257113E-17
3.847063E+03	4.495190E-15	4.311646E-17
3.848760E+03	4.558677E-15	4.367854E-17
3.850456E+03	4.625971E-15	4.427579E-17
3.852153E+03	4.689988E-15	4.484032E-17
3.853850E+03	4.750304E-15	4.536819E-17
3.855546E+03	4.808207E-15	4.587185E-17
3.857243E+03	4.862416E-15	4.633910E-17
3.858939E+03	4.918075E-15	4.681908E-17
3.860636E+03	4.968973E-15	4.725264E-17
3.862333E+03	5.002702E-15	4.752208E-17
3.864029E+03	5.033617E-15	4.776416E-17
3.865726E+03	5.069634E-15	4.805396E-17
3.867423E+03	5.113097E-15	4.841354E-17
3.869119E+03	5.158441E-15	4.879007E-17
3.870816E+03	5.207587E-15	4.920158E-17
3.872513E+03	5.257113E-15	4.961568E-17
3.874209E+03	5.307446E-15	5.003644E-17
3.875906E+03	5.357091E-15	5.044966E-17
3.877603E+03	5.403704E-15	5.083337E-17
3.879299E+03	5.453895E-15	5.124980E-17
3.880996E+03	5.512560E-15	5.174473E-17
3.882693E+03	5.576494E-15	5.228789E-17
3.884389E+03	5.635684E-15	5.278536E-17
3.886086E+03	5.698649E-15	5.331693E-17
3.887782E+03	5.772402E-15	5.394809E-17
3.889479E+03	5.852676E-15	5.463862E-17
3.891176E+03	5.920550E-15	5.521189E-17
3.892872E+03	6.004292E-15	5.593165E-17
3.894569E+03	6.089229E-15	5.666082E-17
3.896266E+03	6.174723E-15	5.739345E-17
3.897962E+03	6.249742E-15	5.802716E-17
3.899659E+03	6.313025E-15	5.855047E-17
3.901356E+03	6.372432E-15	5.903661E-17
3.903052E+03	6.422879E-15	5.943869E-17
3.904749E+03	6.468618E-15	5.979621E-17
3.906446E+03	6.512826E-15	6.013869E-17
3.908142E+03	6.559316E-15	6.050140E-17
3.909839E+03	6.591374E-15	6.073017E-17
3.911535E+03	6.614729E-15	6.087827E-17
3.913232E+03	6.636998E-15	6.101589E-17
3.914929E+03	6.672125E-15	6.127117E-17
3.916626E+03	6.714604E-15	6.159321E-17
3.918322E+03	6.755137E-15	6.189663E-17
3.920019E+03	6.780649E-15	6.206173E-17
3.921715E+03	6.792211E-15	6.209885E-17
3.923412E+03	6.787314E-15	6.198541E-17
3.925109E+03	6.778621E-15	6.183748E-17
3.926805E+03	6.779825E-15	6.177998E-17
3.928502E+03	6.797649E-15	6.187372E-17
3.930199E+03	6.816500E-15	6.197648E-17
3.931895E+03	6.838060E-15	6.210352E-17
3.933592E+03	6.857069E-15	6.220700E-17
3.935289E+03	6.865968E-15	6.221849E-17
3.936985E+03	6.864348E-15	6.213468E-17
3.938682E+03	6.858942E-15	6.201665E-17
3.940378E+03	6.846818E-15	6.183814E-17
3.942075E+03	6.843294E-15	6.173745E-17
3.943772E+03	6.848571E-15	6.171618E-17
3.945468E+03	6.858654E-15	6.173814E-17
3.947165E+03	6.872699E-15	6.179551E-17
3.948862E+03	6.905145E-15	6.201791E-17
3.950558E+03	6.940693E-15	6.226757E-17
3.952255E+03	6.972643E-15	6.248426E-17
3.953952E+03	7.014171E-15	6.278609E-17
3.955648E+03	7.061295E-15	6.313720E-17
3.957345E+03	7.097713E-15	6.339174E-17
3.959042E+03	7.127825E-15	6.358935E-17
3.960738E+03	7.158317E-15	6.378981E-17
3.962435E+03	7.180636E-15	6.391692E-17
3.964132E+03	7.197921E-15	6.399886E-17
3.965828E+03	7.222059E-15	6.414140E-17
3.967525E+03	7.248871E-15	6.430718E-17
3.969222E+03	7.274815E-15	6.446479E-17
3.970918E+03	7.303433E-15	6.464562E-17
3.972615E+03	7.324108E-15	6.475567E-17
3.974311E+03	7.328122E-15	6.471824E-17
3.976008E+03	7.326720E-15	6.463296E-17
3.977705E+03	7.332579E-15	6.461174E-17
3.979401E+03	7.340499E-15	6.460862E-17
3.981098E+03	7.355664E-15	6.466905E-17
3.982795E+03	7.375782E-15	6.477272E-17
3.984491E+03	7.392970E-15	6.485038E-17
3.986188E+03	7.398320E-15	6.482398E-17
3.987885E+03	7.392678E-15	6.470131E-17
3.989581E+03	7.379166E-15	6.451005E-17
3.991278E+03	7.369794E-15	6.435522E-17
3.992974E+03	7.371589E-15	6.429807E-17
3.994671E+03	7.384948E-15	6.434163E-17
3.996368E+03	7.413780E-15	6.451964E-17
3.998064E+03	7.460332E-15	6.485121E-17
3.999761E+03	7.508893E-15	6.519931E-17
4.001458E+03	7.548524E-15	6.546906E-17
4.003154E+03	7.577797E-15	6.564840E-17
4.004851E+03	7.593634E-15	6.571089E-17
4.006548E+03	7.592759E-15	6.562868E-17
4.008244E+03	7.582198E-15	6.546295E-17
4.009941E+03	7.562788E-15	6.522113E-17
4.011638E+03	7.545443E-15	6.499753E-17
4.013334E+03	7.534479E-15	6.482928E-17
4.015031E+03	7.531528E-15	6.473012E-17
4.016728E+03	7.533499E-15	6.467332E-17
4.018424E+03	7.533610E-15	6.460065E-17
4.020121E+03	7.519555E-15	6.440664E-17
4.021818E+03	7.492993E-15	6.410596E-17
4.023514E+03	7.458864E-15	6.374124E-17
4.025211E+03	7.420456E-15	6.334068E-17
4.026907E+03	7.388220E-15	6.299358E-17
4.028604E+03	7.363989E-15	6.271530E-17
4.030301E+03	7.333634E-15	6.238545E-17
4.031997E+03	7.295532E-15	6.199047E-17
4.033694E+03	7.260114E-15	6.161903E-17
4.035391E+03	7.222681E-15	6.123124E-17
4.037087E+03	7.181397E-15	6.081168E-17
4.038784E+03	7.149734E-15	6.047430E-17
4.040481E+03	7.126862E-15	6.021188E-17
4.042177E+03	7.097483E-15	5.989507E-17
4.043874E+03	7.059159E-15	5.950346E-17
4.045571E+03	7.015369E-15	5.906662E-17
4.047267E+03	6.967545E-15	5.859680E-17
4.048964E+03	6.914268E-15	5.808212E-17
4.050660E+03	6.862462E-15	5.758090E-17
4.052357E+03	6.811105E-15	5.708446E-17
4.054054E+03	6.754918E-15	5.654864E-17
4.055750E+03	6.694318E-15	5.597708E-17
4.057447E+03	6.632147E-15	5.539360E-17
4.059144E+03	6.566587E-15	5.478309E-17
4.060840E+03	6.505545E-15	5.421157E-17
4.062537E+03	6.448607E-15	5.367542E-17
4.064234E+03	6.389090E-15	5.311896E-17
4.065930E+03	6.324570E-15	5.252219E-17
4.067627E+03	6.263547E-15	5.195568E-17
4.069324E+03	6.210663E-15	5.145782E-17
4.071020E+03	6.167926E-15	5.104504E-17
4.072717E+03	6.138146E-15	5.074021E-17
4.074414E+03	6.123118E-15	5.055780E-17
4.076110E+03	6.110114E-15	5.039246E-17
4.077807E+03	6.094494E-15	5.020584E-17
4.079503E+03	6.082306E-15	5.004785E-17
4.081200E+03	6.069721E-15	4.988685E-17
4.082897E+03	6.057943E-15	4.973278E-17
4.084593E+03	6.053611E-15	4.964007E-17
4.086290E+03	6.054501E-15	4.959025E-17
4.087987E+03	6.053572E-15	4.952558E-17
4.089683E+03	6.054039E-15	4.947244E-17
4.091380E+03	6.046470E-15	4.935373E-17
4.093077E+03	6.027270E-15	4.914038E-17
4.094773E+03	6.001266E-15	4.887208E-17
4.096470E+03	5.971877E-15	4.857677E-17
4.098167E+03	5.940908E-15	4.826923E-17
4.099863E+03	5.915568E-15	4.800805E-17
4.101560E+03	5.895447E-15	4.778967E-17
4.103257E+03	5.873741E-15	4.755889E-17
4.104953E+03	5.852450E-15	4.733197E-17
4.106650E+03	5.835366E-15	4.713947E-17
4.108346E+03	5.825474E-15	4.700541E-17
4.110043E+03	5.825756E-15	4.695356E-17
4.111740E+03	5.824235E-15	4.688725E-17
4.113436E+03	5.811352E-15	4.672971E-17
4.115133E+03	5.794691E-15	4.654209E-17
4.116830E+03	5.771276E-15	4.630065E-17
4.118526E+03	5.742310E-15	4.601526E-17
4.120223E+03	5.714561E-15	4.574019E-17
4.121920E+03	5.694382E-15	4.552620E-17
4.123616E+03	5.678981E-15	4.535085E-17
4.125313E+03	5.663986E-15	4.517904E-17
4.127010E+03	5.638094E-15	4.492076E-17
4.128706E+03	5.609250E-15	4.463955E-17
4.130403E+03	5.578649E-15	4.434494E-17
4.132100E+03	5.542927E-15	4.401029E-17
4.133796E+03	5.510601E-15	4.370332E-17
4.135493E+03	5.486212E-15	4.345986E-17
4.137189E+03	5.464807E-15	4.324054E-17
4.138886E+03	5.451711E-15	4.308731E-17
4.140583E+03	5.440793E-15	4.295159E-17
4.142279E+03	5.425540E-15	4.278197E-17
4.143976E+03	5.415617E-15	4.265465E-17
4.145673E+03	5.418108E-15	4.262523E-17
4.147369E+03	5.416257E-15	4.256175E-17
4.149066E+03	5.410856E-15	4.247047E-17
4.150763E+03	5.410761E-15	4.242096E-17
4.152459E+03	5.409284E-15	4.236071E-17
4.154156E+03	5.397388E-15	4.221904E-17
