#wls	flux	fluxerr
1.600000E+03	4.561898E-16	1.242085E-17
1.640000E+03	4.666884E-16	1.263598E-17
1.680000E+03	4.780062E-16	1.286831E-17
1.720000E+03	4.901649E-16	1.311790E-17
1.760000E+03	5.032296E-16	1.338592E-17
1.800000E+03	5.173071E-16	1.367459E-17
1.840000E+03	5.323298E-16	1.398143E-17
1.880000E+03	5.484464E-16	1.430965E-17
1.920000E+03	5.656758E-16	1.465895E-17
1.960000E+03	5.840383E-16	1.502904E-17
2.000000E+03	6.035151E-16	1.541857E-17
2.040000E+03	6.241325E-16	1.582732E-17
2.080000E+03	6.458391E-16	1.625308E-17
2.120000E+03	6.685099E-16	1.669180E-17
2.160000E+03	6.921508E-16	1.714274E-17
2.200000E+03	7.166165E-16	1.760141E-17
2.240000E+03	7.418149E-16	1.806472E-17
2.280000E+03	7.677460E-16	1.853185E-17
2.320000E+03	7.945001E-16	1.900413E-17
2.360000E+03	8.222954E-16	1.948581E-17
2.400000E+03	8.513994E-16	1.998208E-17
2.440000E+03	8.820932E-16	2.049815E-17
2.480000E+03	9.147890E-16	2.104198E-17
2.520000E+03	9.498054E-16	2.161892E-17
2.560000E+03	9.875648E-16	2.223633E-17
2.600000E+03	1.028411E-15	2.289929E-17
2.640000E+03	1.072769E-15	2.361430E-17
2.680000E+03	1.121042E-15	2.438681E-17
2.720000E+03	1.173696E-15	2.522316E-17
2.760000E+03	1.231276E-15	2.613072E-17
2.800000E+03	1.294378E-15	2.711722E-17
2.840000E+03	1.363704E-15	2.819182E-17
2.880000E+03	1.440155E-15	2.936684E-17
2.920000E+03	1.524701E-15	3.065476E-17
2.960000E+03	1.618668E-15	3.207383E-17
3.000000E+03	1.723450E-15	3.364189E-17
3.010000E+03	1.751576E-15	3.406060E-17
3.020000E+03	1.780487E-15	3.448984E-17
3.030000E+03	1.810205E-15	3.492987E-17
3.040000E+03	1.840839E-15	3.538254E-17
3.050000E+03	1.872373E-15	3.584735E-17
3.060000E+03	1.904837E-15	3.632461E-17
3.070000E+03	1.938297E-15	3.681538E-17
3.080000E+03	1.972742E-15	3.731918E-17
3.090000E+03	2.008199E-15	3.783626E-17
3.100000E+03	2.044781E-15	3.836849E-17
3.110000E+03	2.082433E-15	3.891456E-17
3.120000E+03	2.121226E-15	3.947552E-17
3.130000E+03	2.161145E-15	4.005079E-17
3.140000E+03	2.202347E-15	4.064301E-17
3.150000E+03	2.244730E-15	4.124994E-17
3.160000E+03	2.288362E-15	4.187254E-17
3.170000E+03	2.333311E-15	4.251173E-17
3.180000E+03	2.379600E-15	4.316758E-17
3.190000E+03	2.427158E-15	4.383845E-17
3.200000E+03	2.476134E-15	4.452672E-17
3.210000E+03	2.526453E-15	4.523064E-17
3.220000E+03	2.578161E-15	4.595072E-17
3.230000E+03	2.631217E-15	4.668585E-17
3.240000E+03	2.685658E-15	4.743631E-17
3.250000E+03	2.741468E-15	4.820150E-17
3.260000E+03	2.798623E-15	4.898059E-17
3.270000E+03	2.857039E-15	4.977179E-17
3.280000E+03	2.916713E-15	5.057471E-17
3.290000E+03	2.977581E-15	5.138788E-17
3.300000E+03	3.039512E-15	5.220875E-17
3.310000E+03	3.102454E-15	5.303614E-17
3.320000E+03	3.166234E-15	5.386681E-17
3.330000E+03	3.230753E-15	5.469887E-17
3.340000E+03	3.295789E-15	5.552835E-17
3.350000E+03	3.361135E-15	5.635163E-17
3.360000E+03	3.426556E-15	5.716469E-17
3.370000E+03	3.491778E-15	5.796292E-17
3.380000E+03	3.556495E-15	5.874131E-17
3.390000E+03	3.620305E-15	5.949334E-17
3.400000E+03	3.682875E-15	6.021377E-17
3.410000E+03	3.743670E-15	6.089421E-17
3.420000E+03	3.802331E-15	6.152926E-17
3.430000E+03	3.858253E-15	6.210969E-17
3.440000E+03	3.910904E-15	6.262768E-17
3.450000E+03	3.959727E-15	6.307517E-17
3.460000E+03	4.004099E-15	6.344326E-17
3.470000E+03	4.043499E-15	6.372485E-17
3.480000E+03	4.077304E-15	6.391144E-17
3.490000E+03	4.104913E-15	6.399509E-17
3.500000E+03	4.125812E-15	6.396943E-17
3.510000E+03	4.139490E-15	6.382830E-17
3.520000E+03	4.145598E-15	6.356821E-17
3.530000E+03	4.143669E-15	6.318401E-17
3.540000E+03	4.133533E-15	6.267520E-17
3.550000E+03	4.115021E-15	6.204137E-17
3.560000E+03	4.088136E-15	6.128474E-17
3.570000E+03	4.052916E-15	6.040807E-17
3.580000E+03	4.009615E-15	5.941734E-17
3.590000E+03	3.958794E-15	5.832290E-17
3.600000E+03	3.901101E-15	5.713624E-17
3.610000E+03	3.837765E-15	5.587707E-17
3.620000E+03	3.770185E-15	5.456715E-17
3.630000E+03	3.699834E-15	5.322880E-17
3.640000E+03	3.628267E-15	5.188501E-17
3.650000E+03	3.557077E-15	5.055875E-17
3.660000E+03	3.487729E-15	4.927067E-17
3.670000E+03	3.421744E-15	4.804165E-17
3.680000E+03	3.360418E-15	4.688895E-17
3.690000E+03	3.305081E-15	4.582981E-17
3.700000E+03	3.256928E-15	4.487917E-17
3.710000E+03	3.217101E-15	4.405079E-17
3.720000E+03	3.186581E-15	4.335589E-17
3.730000E+03	3.166340E-15	4.280520E-17
3.740000E+03	3.157238E-15	4.240761E-17
3.750000E+03	3.160103E-15	4.217128E-17
3.760000E+03	3.175655E-15	4.210267E-17
3.770000E+03	3.204582E-15	4.220754E-17
3.780000E+03	3.247455E-15	4.248988E-17
3.790000E+03	3.304753E-15	4.295233E-17
3.800000E+03	3.376932E-15	4.359703E-17
3.810000E+03	3.464125E-15	4.442185E-17
3.820000E+03	3.566394E-15	4.542369E-17
3.830000E+03	3.683530E-15	4.659602E-17
3.840000E+03	3.814888E-15	4.792694E-17
3.850000E+03	3.959501E-15	4.940075E-17
3.860000E+03	4.115989E-15	5.099694E-17
3.870000E+03	4.282419E-15	5.268873E-17
3.880000E+03	4.456315E-15	5.444341E-17
3.890000E+03	4.634619E-15	5.622201E-17
3.900000E+03	4.813843E-15	5.798150E-17
3.910000E+03	4.990058E-15	5.967477E-17
3.920000E+03	5.159089E-15	6.125315E-17
3.930000E+03	5.316700E-15	6.266869E-17
3.940000E+03	5.458839E-15	6.387704E-17
3.950000E+03	5.581954E-15	6.484106E-17
3.960000E+03	5.683092E-15	6.553169E-17
3.970000E+03	5.760053E-15	6.592950E-17
3.980000E+03	5.811732E-15	6.602822E-17
3.990000E+03	5.837847E-15	6.583123E-17
4.000000E+03	5.839181E-15	6.535385E-17
4.010000E+03	5.817343E-15	6.462032E-17
4.020000E+03	5.774616E-15	6.366172E-17
4.030000E+03	5.713974E-15	6.251589E-17
4.040000E+03	5.638589E-15	6.122179E-17
4.050000E+03	5.551880E-15	5.981997E-17
4.060000E+03	5.457176E-15	5.834884E-17
4.070000E+03	5.357640E-15	5.684393E-17
4.080000E+03	5.256142E-15	5.533664E-17
4.090000E+03	5.155218E-15	5.385391E-17
4.100000E+03	5.056890E-15	5.241656E-17
4.110000E+03	4.962793E-15	5.104073E-17
4.120000E+03	4.874221E-15	4.973857E-17
4.130000E+03	4.791899E-15	4.851608E-17
4.140000E+03	4.716323E-15	4.737671E-17
4.150000E+03	4.647624E-15	4.632016E-17
4.160000E+03	4.585673E-15	4.534350E-17
4.170000E+03	4.530127E-15	4.444180E-17
4.180000E+03	4.480491E-15	4.360874E-17
4.190000E+03	4.436175E-15	4.283726E-17
4.200000E+03	4.396541E-15	4.212007E-17
4.210000E+03	4.360956E-15	4.145008E-17
4.220000E+03	4.328837E-15	4.082093E-17
4.230000E+03	4.299640E-15	4.022679E-17
4.240000E+03	4.272973E-15	3.966339E-17
4.250000E+03	4.248624E-15	3.912829E-17
4.260000E+03	4.226478E-15	3.861997E-17
4.270000E+03	4.206460E-15	3.813733E-17
4.280000E+03	4.188707E-15	3.768121E-17
4.290000E+03	4.173398E-15	3.725279E-17
4.300000E+03	4.160737E-15	3.685343E-17
4.310000E+03	4.150914E-15	3.648433E-17
4.320000E+03	4.144002E-15	3.614564E-17
4.330000E+03	4.140028E-15	3.583708E-17
4.340000E+03	4.138638E-15	3.555511E-17
4.350000E+03	4.139330E-15	3.529505E-17
4.360000E+03	4.141195E-15	3.504882E-17
4.370000E+03	4.143041E-15	3.480614E-17
4.380000E+03	4.143505E-15	3.455566E-17
4.390000E+03	4.141613E-15	3.428956E-17
4.400000E+03	4.138325E-15	3.401612E-17
4.410000E+03	4.136508E-15	3.375898E-17
4.420000E+03	4.139138E-15	3.354198E-17
4.430000E+03	4.148812E-15	3.338525E-17
4.440000E+03	4.167625E-15	3.330432E-17
4.450000E+03	4.196938E-15	3.330853E-17
4.460000E+03	4.237488E-15	3.340204E-17
4.470000E+03	4.289409E-15	3.358417E-17
4.480000E+03	4.352110E-15	3.384865E-17
4.490000E+03	4.424542E-15	3.418587E-17
4.500000E+03	4.505085E-15	3.458208E-17
4.510000E+03	4.591598E-15	3.501997E-17
4.520000E+03	4.681562E-15	3.547977E-17
4.530000E+03	4.772116E-15	3.593970E-17
4.540000E+03	4.860163E-15	3.637672E-17
4.550000E+03	4.942485E-15	3.676751E-17
4.560000E+03	5.015822E-15	3.708894E-17
4.570000E+03	5.077051E-15	3.731948E-17
4.580000E+03	5.123488E-15	3.744126E-17
4.590000E+03	5.152698E-15	3.743863E-17
4.600000E+03	5.162878E-15	3.730081E-17
4.610000E+03	5.153033E-15	3.702302E-17
4.620000E+03	5.122895E-15	3.660574E-17
4.630000E+03	5.072856E-15	3.605407E-17
4.640000E+03	5.004384E-15	3.538052E-17
4.650000E+03	4.919289E-15	3.459971E-17
4.660000E+03	4.820198E-15	3.373163E-17
4.670000E+03	4.709950E-15	3.279725E-17
4.680000E+03	4.591536E-15	3.181816E-17
4.690000E+03	4.467885E-15	3.081508E-17
4.700000E+03	4.341671E-15	2.980652E-17
4.710000E+03	4.215223E-15	2.880832E-17
4.720000E+03	4.090187E-15	2.783133E-17
4.730000E+03	3.967589E-15	2.688196E-17
4.740000E+03	3.847789E-15	2.596197E-17
4.750000E+03	3.730351E-15	2.506773E-17
4.760000E+03	3.614493E-15	2.419338E-17
4.770000E+03	3.499032E-15	2.333051E-17
4.780000E+03	3.383290E-15	2.247418E-17
4.790000E+03	3.267810E-15	2.162764E-17
4.800000E+03	3.155246E-15	2.080803E-17
4.810000E+03	3.048733E-15	2.003540E-17
4.820000E+03	2.950950E-15	1.932657E-17
4.830000E+03	2.863757E-15	1.869285E-17
4.840000E+03	2.788316E-15	1.814084E-17
4.850000E+03	2.725024E-15	1.767216E-17
4.860000E+03	2.673654E-15	1.728440E-17
4.870000E+03	2.633570E-15	1.697258E-17
4.880000E+03	2.603846E-15	1.672995E-17
4.890000E+03	2.583294E-15	1.654817E-17
4.900000E+03	2.570663E-15	1.641862E-17
4.910000E+03	2.564576E-15	1.633200E-17
4.920000E+03	2.563764E-15	1.627982E-17
4.930000E+03	2.567042E-15	1.625421E-17
4.940000E+03	2.573369E-15	1.624831E-17
4.950000E+03	2.581962E-15	1.625698E-17
4.960000E+03	2.592205E-15	1.627617E-17
4.970000E+03	2.603769E-15	1.630370E-17
4.980000E+03	2.616480E-15	1.633835E-17
4.990000E+03	2.630366E-15	1.638020E-17
5.000000E+03	2.645565E-15	1.643000E-17
5.010000E+03	2.662386E-15	1.648956E-17
5.020000E+03	2.681070E-15	1.656026E-17
5.030000E+03	2.701919E-15	1.664383E-17
5.040000E+03	2.725223E-15	1.674190E-17
5.050000E+03	2.751150E-15	1.685536E-17
5.060000E+03	2.779818E-15	1.698479E-17
5.070000E+03	2.811258E-15	1.713020E-17
5.080000E+03	2.845412E-15	1.729108E-17
5.090000E+03	2.882119E-15	1.746633E-17
5.100000E+03	2.921187E-15	1.765463E-17
5.110000E+03	2.962413E-15	1.785464E-17
5.120000E+03	3.005483E-15	1.806436E-17
5.130000E+03	3.050206E-15	1.828255E-17
5.140000E+03	3.096258E-15	1.850720E-17
5.150000E+03	3.143503E-15	1.873745E-17
5.160000E+03	3.191749E-15	1.897210E-17
5.170000E+03	3.240850E-15	1.921025E-17
5.180000E+03	3.290656E-15	1.945101E-17
5.190000E+03	3.340957E-15	1.969314E-17
5.200000E+03	3.391515E-15	1.993524E-17
5.210000E+03	3.441967E-15	2.017523E-17
5.220000E+03	3.491944E-15	2.041099E-17
5.230000E+03	3.540782E-15	2.063874E-17
5.240000E+03	3.587842E-15	2.085489E-17
5.250000E+03	3.632355E-15	2.105514E-17
5.260000E+03	3.673509E-15	2.123499E-17
5.270000E+03	3.710425E-15	2.138962E-17
5.280000E+03	3.742376E-15	2.151515E-17
5.290000E+03	3.768649E-15	2.160781E-17
5.300000E+03	3.788683E-15	2.166475E-17
5.310000E+03	3.802018E-15	2.168374E-17
5.320000E+03	3.808403E-15	2.166375E-17
5.330000E+03	3.807614E-15	2.160393E-17
5.340000E+03	3.799646E-15	2.150464E-17
5.350000E+03	3.784601E-15	2.136687E-17
5.360000E+03	3.762804E-15	2.119283E-17
5.370000E+03	3.734571E-15	2.098465E-17
5.380000E+03	3.700538E-15	2.074622E-17
5.390000E+03	3.661423E-15	2.048185E-17
5.400000E+03	3.618078E-15	2.019654E-17
5.410000E+03	3.571377E-15	1.989534E-17
5.420000E+03	3.522328E-15	1.958402E-17
5.430000E+03	3.471988E-15	1.926854E-17
5.440000E+03	3.421285E-15	1.895410E-17
5.450000E+03	3.371280E-15	1.864660E-17
5.460000E+03	3.322957E-15	1.835145E-17
5.470000E+03	3.277385E-15	1.807451E-17
5.480000E+03	3.235733E-15	1.782207E-17
5.490000E+03	3.198692E-15	1.759765E-17
5.500000E+03	3.166233E-15	1.740082E-17
5.510000E+03	3.137065E-15	1.722425E-17
5.520000E+03	3.109463E-15	1.705824E-17
5.530000E+03	3.081554E-15	1.689236E-17
5.540000E+03	3.051870E-15	1.671844E-17
5.550000E+03	3.019325E-15	1.653036E-17
5.560000E+03	2.983415E-15	1.632529E-17
5.570000E+03	2.944014E-15	1.610240E-17
5.580000E+03	2.901495E-15	1.586361E-17
5.590000E+03	2.856545E-15	1.561256E-17
5.600000E+03	2.810184E-15	1.535472E-17
5.610000E+03	2.763522E-15	1.509603E-17
5.620000E+03	2.717831E-15	1.484332E-17
5.630000E+03	2.674419E-15	1.460361E-17
5.640000E+03	2.634538E-15	1.438363E-17
5.650000E+03	2.599376E-15	1.418979E-17
5.660000E+03	2.569941E-15	1.402748E-17
5.670000E+03	2.547140E-15	1.390158E-17
5.680000E+03	2.531709E-15	1.381601E-17
5.690000E+03	2.524162E-15	1.377353E-17
5.700000E+03	2.524827E-15	1.377584E-17
5.710000E+03	2.533832E-15	1.382358E-17
5.720000E+03	2.551158E-15	1.391658E-17
5.730000E+03	2.576470E-15	1.405295E-17
5.740000E+03	2.609328E-15	1.423024E-17
5.750000E+03	2.649034E-15	1.444456E-17
5.760000E+03	2.694659E-15	1.469080E-17
5.770000E+03	2.745164E-15	1.496321E-17
5.780000E+03	2.799384E-15	1.525541E-17
5.790000E+03	2.855975E-15	1.555999E-17
5.800000E+03	2.913519E-15	1.586918E-17
5.810000E+03	2.970605E-15	1.617526E-17
5.820000E+03	3.025670E-15	1.646967E-17
5.830000E+03	3.077286E-15	1.674464E-17
5.840000E+03	3.124093E-15	1.699273E-17
5.850000E+03	3.164888E-15	1.720745E-17
5.860000E+03	3.198721E-15	1.738365E-17
5.870000E+03	3.224797E-15	1.751705E-17
5.880000E+03	3.242735E-15	1.760566E-17
5.890000E+03	3.252313E-15	1.764835E-17
5.900000E+03	3.253603E-15	1.764562E-17
5.910000E+03	3.246883E-15	1.759907E-17
5.920000E+03	3.232610E-15	1.751130E-17
5.930000E+03	3.211403E-15	1.738579E-17
5.940000E+03	3.183860E-15	1.722589E-17
5.950000E+03	3.150700E-15	1.703562E-17
5.960000E+03	3.112709E-15	1.681935E-17
5.970000E+03	3.070627E-15	1.658119E-17
5.980000E+03	3.025105E-15	1.632477E-17
5.990000E+03	2.976919E-15	1.605437E-17
6.000000E+03	2.926621E-15	1.577308E-17
6.010000E+03	2.874918E-15	1.548479E-17
6.020000E+03	2.822261E-15	1.519201E-17
6.030000E+03	2.769145E-15	1.489748E-17
6.040000E+03	2.716042E-15	1.460381E-17
6.050000E+03	2.663314E-15	1.431300E-17
6.060000E+03	2.611336E-15	1.402712E-17
6.070000E+03	2.560436E-15	1.374798E-17
6.080000E+03	2.511105E-15	1.347826E-17
6.090000E+03	2.463752E-15	1.322019E-17
6.100000E+03	2.419019E-15	1.297725E-17
6.110000E+03	2.377546E-15	1.275292E-17
6.120000E+03	2.340036E-15	1.255099E-17
6.130000E+03	2.307246E-15	1.237556E-17
6.140000E+03	2.279925E-15	1.223072E-17
6.150000E+03	2.258653E-15	1.211962E-17
6.160000E+03	2.243822E-15	1.204447E-17
6.170000E+03	2.235568E-15	1.200610E-17
6.180000E+03	2.233513E-15	1.200262E-17
6.190000E+03	2.236876E-15	1.202997E-17
6.200000E+03	2.244323E-15	1.208110E-17
6.210000E+03	2.253973E-15	1.214599E-17
6.220000E+03	2.263428E-15	1.221180E-17
6.230000E+03	2.270082E-15	1.226451E-17
6.240000E+03	2.271642E-15	1.229169E-17
6.250000E+03	2.267265E-15	1.228871E-17
6.260000E+03	2.258229E-15	1.226235E-17
6.270000E+03	2.246436E-15	1.222284E-17
6.280000E+03	2.233872E-15	1.218092E-17
6.290000E+03	2.222189E-15	1.214560E-17
6.300000E+03	2.212588E-15	1.212349E-17
6.310000E+03	2.205794E-15	1.211866E-17
6.320000E+03	2.202052E-15	1.213260E-17
6.330000E+03	2.201140E-15	1.216425E-17
6.340000E+03	2.202608E-15	1.221128E-17
6.350000E+03	2.205808E-15	1.227025E-17
6.360000E+03	2.209931E-15	1.233677E-17
6.370000E+03	2.214257E-15	1.240692E-17
6.380000E+03	2.218080E-15	1.247675E-17
6.390000E+03	2.220827E-15	1.254296E-17
6.400000E+03	2.222094E-15	1.260309E-17
6.410000E+03	2.221733E-15	1.265609E-17
6.420000E+03	2.219686E-15	1.270140E-17
6.430000E+03	2.216157E-15	1.273993E-17
6.440000E+03	2.211419E-15	1.277304E-17
6.450000E+03	2.205832E-15	1.280259E-17
6.460000E+03	2.199827E-15	1.283091E-17
6.470000E+03	2.193785E-15	1.286007E-17
6.480000E+03	2.188082E-15	1.289217E-17
6.490000E+03	2.182927E-15	1.292837E-17
6.500000E+03	2.178586E-15	1.297017E-17
6.510000E+03	2.175180E-15	1.301828E-17
6.520000E+03	2.172726E-15	1.307278E-17
6.530000E+03	2.171244E-15	1.313378E-17
6.540000E+03	2.170752E-15	1.320137E-17
6.550000E+03	2.171335E-15	1.327610E-17
6.560000E+03	2.173003E-15	1.335802E-17
6.570000E+03	2.175721E-15	1.344695E-17
6.580000E+03	2.179314E-15	1.354180E-17
6.590000E+03	2.183572E-15	1.364127E-17
6.600000E+03	2.188255E-15	1.374384E-17
6.610000E+03	2.193029E-15	1.384734E-17
6.620000E+03	2.197472E-15	1.394904E-17
6.630000E+03	2.201203E-15	1.404639E-17
6.640000E+03	2.203760E-15	1.413627E-17
6.650000E+03	2.204804E-15	1.421630E-17
6.660000E+03	2.203878E-15	1.428331E-17
6.670000E+03	2.200653E-15	1.433489E-17
6.680000E+03	2.194906E-15	1.436927E-17
6.690000E+03	2.186454E-15	1.438495E-17
6.700000E+03	2.175170E-15	1.438077E-17
6.710000E+03	2.161066E-15	1.435648E-17
6.720000E+03	2.144289E-15	1.431275E-17
6.730000E+03	2.125005E-15	1.425039E-17
6.740000E+03	2.103535E-15	1.417132E-17
6.750000E+03	2.080157E-15	1.407717E-17
6.760000E+03	2.055342E-15	1.397096E-17
6.770000E+03	2.029443E-15	1.385496E-17
6.780000E+03	2.002966E-15	1.373254E-17
6.790000E+03	1.976266E-15	1.360607E-17
6.800000E+03	1.949781E-15	1.347858E-17
6.810000E+03	1.923889E-15	1.335270E-17
6.820000E+03	1.898893E-15	1.323063E-17
6.830000E+03	1.875134E-15	1.311480E-17
6.840000E+03	1.852839E-15	1.300693E-17
6.850000E+03	1.832258E-15	1.290890E-17
6.860000E+03	1.813486E-15	1.282154E-17
6.870000E+03	1.796714E-15	1.274633E-17
6.880000E+03	1.781985E-15	1.268374E-17
6.890000E+03	1.769341E-15	1.263421E-17
6.900000E+03	1.758754E-15	1.259771E-17
6.910000E+03	1.750263E-15	1.257465E-17
6.920000E+03	1.743703E-15	1.256396E-17
6.930000E+03	1.739072E-15	1.256578E-17
6.940000E+03	1.736167E-15	1.257873E-17
6.950000E+03	1.734811E-15	1.260162E-17
6.960000E+03	1.734831E-15	1.263327E-17
6.970000E+03	1.735954E-15	1.267176E-17
6.980000E+03	1.737922E-15	1.271524E-17
6.990000E+03	1.740457E-15	1.276172E-17
7.000000E+03	1.743277E-15	1.280913E-17
7.010000E+03	1.746100E-15	1.285540E-17
7.020000E+03	1.748616E-15	1.289825E-17
7.030000E+03	1.750630E-15	1.293619E-17
7.040000E+03	1.751791E-15	1.296662E-17
7.050000E+03	1.751983E-15	1.298863E-17
7.060000E+03	1.750916E-15	1.300005E-17
7.070000E+03	1.748514E-15	1.300027E-17
7.080000E+03	1.744649E-15	1.298831E-17
7.090000E+03	1.739273E-15	1.296378E-17
7.100000E+03	1.732429E-15	1.292698E-17
7.110000E+03	1.724108E-15	1.287783E-17
7.120000E+03	1.714455E-15	1.281741E-17
7.130000E+03	1.703591E-15	1.274662E-17
7.140000E+03	1.691738E-15	1.266714E-17
7.150000E+03	1.679104E-15	1.258056E-17
7.160000E+03	1.665871E-15	1.248825E-17
7.170000E+03	1.652285E-15	1.239211E-17
7.180000E+03	1.638477E-15	1.229314E-17
7.190000E+03	1.624689E-15	1.219322E-17
7.200000E+03	1.611038E-15	1.209327E-17
7.210000E+03	1.597612E-15	1.199398E-17
7.220000E+03	1.584540E-15	1.189638E-17
7.230000E+03	1.571894E-15	1.180104E-17
7.240000E+03	1.559693E-15	1.170816E-17
7.250000E+03	1.547979E-15	1.161810E-17
7.260000E+03	1.536774E-15	1.153105E-17
7.270000E+03	1.526092E-15	1.144717E-17
7.280000E+03	1.515930E-15	1.136648E-17
7.290000E+03	1.506213E-15	1.128845E-17
7.300000E+03	1.496979E-15	1.121339E-17
7.310000E+03	1.488161E-15	1.114086E-17
7.320000E+03	1.479690E-15	1.107035E-17
7.330000E+03	1.471546E-15	1.100178E-17
7.340000E+03	1.463618E-15	1.093434E-17
7.350000E+03	1.455851E-15	1.086766E-17
7.360000E+03	1.448183E-15	1.080131E-17
7.370000E+03	1.440515E-15	1.073461E-17
7.380000E+03	1.432805E-15	1.066729E-17
7.390000E+03	1.424894E-15	1.059819E-17
7.400000E+03	1.416777E-15	1.052735E-17
7.410000E+03	1.408342E-15	1.045396E-17
7.420000E+03	1.399587E-15	1.037808E-17
7.430000E+03	1.390476E-15	1.029949E-17
7.440000E+03	1.381029E-15	1.021839E-17
7.450000E+03	1.371320E-15	1.013538E-17
7.460000E+03	1.361383E-15	1.005077E-17
7.470000E+03	1.351387E-15	9.965843E-18
7.480000E+03	1.341362E-15	9.880884E-18
7.490000E+03	1.331458E-15	9.797025E-18
7.500000E+03	1.321735E-15	9.714750E-18
7.510000E+03	1.312364E-15	9.635324E-18
7.520000E+03	1.303389E-15	9.559087E-18
7.530000E+03	1.294867E-15	9.486477E-18
7.540000E+03	1.286878E-15	9.418081E-18
7.550000E+03	1.279450E-15	9.354130E-18
7.560000E+03	1.272651E-15	9.295129E-18
7.570000E+03	1.266402E-15	9.240510E-18
7.580000E+03	1.260680E-15	9.190121E-18
7.590000E+03	1.255428E-15	9.143576E-18
7.600000E+03	1.250516E-15	9.099934E-18
7.610000E+03	1.245858E-15	9.058596E-18
7.620000E+03	1.241314E-15	9.018580E-18
7.630000E+03	1.236859E-15	8.979727E-18
7.640000E+03	1.232383E-15	8.941262E-18
7.650000E+03	1.227900E-15	8.903327E-18
7.660000E+03	1.223333E-15	8.865397E-18
7.670000E+03	1.218734E-15	8.827881E-18
7.680000E+03	1.214064E-15	8.790525E-18
7.690000E+03	1.209410E-15	8.753998E-18
7.700000E+03	1.204792E-15	8.718473E-18
7.710000E+03	1.200269E-15	8.684412E-18
7.720000E+03	1.195904E-15	8.652312E-18
7.730000E+03	1.191763E-15	8.622667E-18
7.740000E+03	1.187901E-15	8.595927E-18
7.750000E+03	1.184331E-15	8.572211E-18
7.760000E+03	1.181131E-15	8.552125E-18
