#wls	flux	fluxerr
1.600000E+03	3.636389E-16	8.242786E-18
1.640000E+03	3.706203E-16	8.365724E-18
1.680000E+03	3.781768E-16	8.499363E-18
1.720000E+03	3.863176E-16	8.643668E-18
1.760000E+03	3.950862E-16	8.799356E-18
1.800000E+03	4.045576E-16	8.967813E-18
1.840000E+03	4.146696E-16	9.147354E-18
1.880000E+03	4.255288E-16	9.340017E-18
1.920000E+03	4.371395E-16	9.545542E-18
1.960000E+03	4.495068E-16	9.763678E-18
2.000000E+03	4.626059E-16	9.993499E-18
2.040000E+03	4.764465E-16	1.023483E-17
2.080000E+03	4.909790E-16	1.048620E-17
2.120000E+03	5.060984E-16	1.074498E-17
2.160000E+03	5.218007E-16	1.101071E-17
2.200000E+03	5.379676E-16	1.128052E-17
2.240000E+03	5.545230E-16	1.155247E-17
2.280000E+03	5.714600E-16	1.182609E-17
2.320000E+03	5.888388E-16	1.210228E-17
2.360000E+03	6.068120E-16	1.238377E-17
2.400000E+03	6.255661E-16	1.267389E-17
2.440000E+03	6.452923E-16	1.297595E-17
2.480000E+03	6.662736E-16	1.329492E-17
2.520000E+03	6.887181E-16	1.363412E-17
2.560000E+03	7.129026E-16	1.399805E-17
2.600000E+03	7.390390E-16	1.438972E-17
2.640000E+03	7.673891E-16	1.481295E-17
2.680000E+03	7.981881E-16	1.527079E-17
2.720000E+03	8.317032E-16	1.576674E-17
2.760000E+03	8.682389E-16	1.630471E-17
2.800000E+03	9.081149E-16	1.688865E-17
2.840000E+03	9.516961E-16	1.752302E-17
2.880000E+03	9.994486E-16	1.821378E-17
2.920000E+03	1.051834E-15	1.896639E-17
2.960000E+03	1.109490E-15	1.978903E-17
3.000000E+03	1.173011E-15	2.068841E-17
3.010000E+03	1.189918E-15	2.092672E-17
3.020000E+03	1.207226E-15	2.117009E-17
3.030000E+03	1.224944E-15	2.141860E-17
3.040000E+03	1.243132E-15	2.167324E-17
3.050000E+03	1.261769E-15	2.193356E-17
3.060000E+03	1.280863E-15	2.219962E-17
3.070000E+03	1.300448E-15	2.247189E-17
3.080000E+03	1.320500E-15	2.274991E-17
3.090000E+03	1.341023E-15	2.303365E-17
3.100000E+03	1.362078E-15	2.332407E-17
3.110000E+03	1.383610E-15	2.362013E-17
3.120000E+03	1.405649E-15	2.392225E-17
3.130000E+03	1.428167E-15	2.422985E-17
3.140000E+03	1.451244E-15	2.454423E-17
3.150000E+03	1.474794E-15	2.486381E-17
3.160000E+03	1.498837E-15	2.518883E-17
3.170000E+03	1.523393E-15	2.551954E-17
3.180000E+03	1.548451E-15	2.585566E-17
3.190000E+03	1.573938E-15	2.619588E-17
3.200000E+03	1.599920E-15	2.654122E-17
3.210000E+03	1.626317E-15	2.689023E-17
3.220000E+03	1.653131E-15	2.724289E-17
3.230000E+03	1.680298E-15	2.759805E-17
3.240000E+03	1.707810E-15	2.795551E-17
3.250000E+03	1.735620E-15	2.831444E-17
3.260000E+03	1.763679E-15	2.867394E-17
3.270000E+03	1.791896E-15	2.903251E-17
3.280000E+03	1.820232E-15	2.938949E-17
3.290000E+03	1.848614E-15	2.974363E-17
3.300000E+03	1.876924E-15	3.009304E-17
3.310000E+03	1.905098E-15	3.043669E-17
3.320000E+03	1.933000E-15	3.077243E-17
3.330000E+03	1.960545E-15	3.109895E-17
3.340000E+03	1.987577E-15	3.141379E-17
3.350000E+03	2.013957E-15	3.171489E-17
3.360000E+03	2.039540E-15	3.200002E-17
3.370000E+03	2.064167E-15	3.226688E-17
3.380000E+03	2.087673E-15	3.251300E-17
3.390000E+03	2.109854E-15	3.273542E-17
3.400000E+03	2.130559E-15	3.293205E-17
3.410000E+03	2.149545E-15	3.309938E-17
3.420000E+03	2.166685E-15	3.323574E-17
3.430000E+03	2.181735E-15	3.333775E-17
3.440000E+03	2.194514E-15	3.340301E-17
3.450000E+03	2.204851E-15	3.342932E-17
3.460000E+03	2.212557E-15	3.341426E-17
3.470000E+03	2.217517E-15	3.335659E-17
3.480000E+03	2.219579E-15	3.325451E-17
3.490000E+03	2.218619E-15	3.310669E-17
3.500000E+03	2.214573E-15	3.291273E-17
3.510000E+03	2.207383E-15	3.267235E-17
3.520000E+03	2.197091E-15	3.238674E-17
3.530000E+03	2.183675E-15	3.205616E-17
3.540000E+03	2.167271E-15	3.168318E-17
3.550000E+03	2.148020E-15	3.127038E-17
3.560000E+03	2.126138E-15	3.082148E-17
3.570000E+03	2.101856E-15	3.034027E-17
3.580000E+03	2.075486E-15	2.983171E-17
3.590000E+03	2.047447E-15	2.930221E-17
3.600000E+03	2.018117E-15	2.875746E-17
3.610000E+03	1.988007E-15	2.820501E-17
3.620000E+03	1.957619E-15	2.765206E-17
3.630000E+03	1.927459E-15	2.710584E-17
3.640000E+03	1.898075E-15	2.657398E-17
3.650000E+03	1.870039E-15	2.606433E-17
3.660000E+03	1.843874E-15	2.558390E-17
3.670000E+03	1.820151E-15	2.514023E-17
3.680000E+03	1.799337E-15	2.473933E-17
3.690000E+03	1.781937E-15	2.438753E-17
3.700000E+03	1.768405E-15	2.409041E-17
3.710000E+03	1.759185E-15	2.385328E-17
3.720000E+03	1.754657E-15	2.368041E-17
3.730000E+03	1.755205E-15	2.357610E-17
3.740000E+03	1.761169E-15	2.354392E-17
3.750000E+03	1.772872E-15	2.358716E-17
3.760000E+03	1.790596E-15	2.370842E-17
3.770000E+03	1.814593E-15	2.390990E-17
3.780000E+03	1.845056E-15	2.419290E-17
3.790000E+03	1.882117E-15	2.455790E-17
3.800000E+03	1.925887E-15	2.500509E-17
3.810000E+03	1.976291E-15	2.553217E-17
3.820000E+03	2.033209E-15	2.613633E-17
3.830000E+03	2.096380E-15	2.681295E-17
3.840000E+03	2.165320E-15	2.755467E-17
3.850000E+03	2.239395E-15	2.835235E-17
3.860000E+03	2.317790E-15	2.919468E-17
3.870000E+03	2.399458E-15	3.006773E-17
3.880000E+03	2.483144E-15	3.095522E-17
3.890000E+03	2.567386E-15	3.183860E-17
3.900000E+03	2.650609E-15	3.269835E-17
3.910000E+03	2.731123E-15	3.351394E-17
3.920000E+03	2.807203E-15	3.426485E-17
3.930000E+03	2.877169E-15	3.493154E-17
3.940000E+03	2.939467E-15	3.549647E-17
3.950000E+03	2.992786E-15	3.594539E-17
3.960000E+03	3.036062E-15	3.626738E-17
3.970000E+03	3.068532E-15	3.645534E-17
3.980000E+03	3.089877E-15	3.650764E-17
3.990000E+03	3.100072E-15	3.642618E-17
4.000000E+03	3.099507E-15	3.621773E-17
4.010000E+03	3.088885E-15	3.589257E-17
4.020000E+03	3.069151E-15	3.546360E-17
4.030000E+03	3.041527E-15	3.494668E-17
4.040000E+03	3.007278E-15	3.435780E-17
4.050000E+03	2.967770E-15	3.371381E-17
4.060000E+03	2.924329E-15	3.303071E-17
4.070000E+03	2.878217E-15	3.232346E-17
4.080000E+03	2.830592E-15	3.160552E-17
4.090000E+03	2.782499E-15	3.088881E-17
4.100000E+03	2.734786E-15	3.018278E-17
4.110000E+03	2.688170E-15	2.949523E-17
4.120000E+03	2.643263E-15	2.883265E-17
4.130000E+03	2.600438E-15	2.819875E-17
4.140000E+03	2.560009E-15	2.759654E-17
4.150000E+03	2.522153E-15	2.702745E-17
4.160000E+03	2.486950E-15	2.649185E-17
4.170000E+03	2.454401E-15	2.598926E-17
4.180000E+03	2.424454E-15	2.551864E-17
4.190000E+03	2.397017E-15	2.507854E-17
4.200000E+03	2.371978E-15	2.466734E-17
4.210000E+03	2.349227E-15	2.428344E-17
4.220000E+03	2.328666E-15	2.392545E-17
4.230000E+03	2.310207E-15	2.359204E-17
4.240000E+03	2.293811E-15	2.328247E-17
4.250000E+03	2.279502E-15	2.299658E-17
4.260000E+03	2.267314E-15	2.273439E-17
4.270000E+03	2.257278E-15	2.249580E-17
4.280000E+03	2.249499E-15	2.228150E-17
4.290000E+03	2.244076E-15	2.209207E-17
4.300000E+03	2.241098E-15	2.192798E-17
4.310000E+03	2.240638E-15	2.178953E-17
4.320000E+03	2.242704E-15	2.167638E-17
4.330000E+03	2.247310E-15	2.158826E-17
4.340000E+03	2.254326E-15	2.152351E-17
4.350000E+03	2.263636E-15	2.148064E-17
4.360000E+03	2.275035E-15	2.145739E-17
4.370000E+03	2.288329E-15	2.145162E-17
4.380000E+03	2.303342E-15	2.146141E-17
4.390000E+03	2.320032E-15	2.148615E-17
4.400000E+03	2.338611E-15	2.152754E-17
4.410000E+03	2.359592E-15	2.159005E-17
4.420000E+03	2.383532E-15	2.167840E-17
4.430000E+03	2.410962E-15	2.179700E-17
4.440000E+03	2.442360E-15	2.194964E-17
4.450000E+03	2.477984E-15	2.213809E-17
4.460000E+03	2.517897E-15	2.236233E-17
4.470000E+03	2.561930E-15	2.262033E-17
4.480000E+03	2.609584E-15	2.290717E-17
4.490000E+03	2.660159E-15	2.321634E-17
4.500000E+03	2.712681E-15	2.353909E-17
4.510000E+03	2.765915E-15	2.386460E-17
4.520000E+03	2.818453E-15	2.418088E-17
4.530000E+03	2.868744E-15	2.447495E-17
4.540000E+03	2.915158E-15	2.473346E-17
4.550000E+03	2.956059E-15	2.494331E-17
4.560000E+03	2.989870E-15	2.509221E-17
4.570000E+03	3.015195E-15	2.516958E-17
4.580000E+03	3.030985E-15	2.516800E-17
4.590000E+03	3.036425E-15	2.508207E-17
4.600000E+03	3.031134E-15	2.491008E-17
4.610000E+03	3.015222E-15	2.465435E-17
4.620000E+03	2.989204E-15	2.432038E-17
4.630000E+03	2.953887E-15	2.391594E-17
4.640000E+03	2.910575E-15	2.345261E-17
4.650000E+03	2.860595E-15	2.294187E-17
4.660000E+03	2.805548E-15	2.239719E-17
4.670000E+03	2.746955E-15	2.183110E-17
4.680000E+03	2.686242E-15	2.125514E-17
4.690000E+03	2.624661E-15	2.067926E-17
4.700000E+03	2.563224E-15	2.011135E-17
4.710000E+03	2.502709E-15	1.955731E-17
4.720000E+03	2.443497E-15	1.901990E-17
4.730000E+03	2.385676E-15	1.849950E-17
4.740000E+03	2.329048E-15	1.799433E-17
4.750000E+03	2.273071E-15	1.749994E-17
4.760000E+03	2.217104E-15	1.701114E-17
4.770000E+03	2.160257E-15	1.652090E-17
4.780000E+03	2.101826E-15	1.602368E-17
4.790000E+03	2.041842E-15	1.551961E-17
4.800000E+03	1.981719E-15	1.501927E-17
4.810000E+03	1.923184E-15	1.453550E-17
4.820000E+03	1.867701E-15	1.407902E-17
4.830000E+03	1.816335E-15	1.365745E-17
4.840000E+03	1.769870E-15	1.327623E-17
4.850000E+03	1.728763E-15	1.293838E-17
4.860000E+03	1.693194E-15	1.264478E-17
4.870000E+03	1.663149E-15	1.239496E-17
4.880000E+03	1.638469E-15	1.218733E-17
4.890000E+03	1.618838E-15	1.201923E-17
4.900000E+03	1.603898E-15	1.188771E-17
4.910000E+03	1.593199E-15	1.178919E-17
4.920000E+03	1.586325E-15	1.172037E-17
4.930000E+03	1.582859E-15	1.167800E-17
4.940000E+03	1.582402E-15	1.165898E-17
4.950000E+03	1.584633E-15	1.166083E-17
4.960000E+03	1.589254E-15	1.168125E-17
4.970000E+03	1.596056E-15	1.171860E-17
4.980000E+03	1.604854E-15	1.177147E-17
4.990000E+03	1.615533E-15	1.183894E-17
5.000000E+03	1.628006E-15	1.192032E-17
5.010000E+03	1.642273E-15	1.201556E-17
5.020000E+03	1.658286E-15	1.212427E-17
5.030000E+03	1.676043E-15	1.224640E-17
5.040000E+03	1.695557E-15	1.238200E-17
5.050000E+03	1.716797E-15	1.253082E-17
5.060000E+03	1.739730E-15	1.269260E-17
5.070000E+03	1.764309E-15	1.286697E-17
5.080000E+03	1.790479E-15	1.305351E-17
5.090000E+03	1.818174E-15	1.325173E-17
5.100000E+03	1.847339E-15	1.346120E-17
5.110000E+03	1.877916E-15	1.368151E-17
5.120000E+03	1.909766E-15	1.391162E-17
5.130000E+03	1.942796E-15	1.415086E-17
5.140000E+03	1.976791E-15	1.439764E-17
5.150000E+03	2.011604E-15	1.465092E-17
5.160000E+03	2.047007E-15	1.490899E-17
5.170000E+03	2.082759E-15	1.517013E-17
5.180000E+03	2.118597E-15	1.543240E-17
5.190000E+03	2.154203E-15	1.569347E-17
5.200000E+03	2.189250E-15	1.595097E-17
5.210000E+03	2.223354E-15	1.620207E-17
5.220000E+03	2.256173E-15	1.644428E-17
5.230000E+03	2.287227E-15	1.667408E-17
5.240000E+03	2.316115E-15	1.688853E-17
5.250000E+03	2.342422E-15	1.708457E-17
5.260000E+03	2.365749E-15	1.725927E-17
5.270000E+03	2.385694E-15	1.740966E-17
5.280000E+03	2.401980E-15	1.753368E-17
5.290000E+03	2.414353E-15	1.762945E-17
5.300000E+03	2.422661E-15	1.769579E-17
5.310000E+03	2.426808E-15	1.773198E-17
5.320000E+03	2.426821E-15	1.773815E-17
5.330000E+03	2.422724E-15	1.771444E-17
5.340000E+03	2.414658E-15	1.766182E-17
5.350000E+03	2.402802E-15	1.758157E-17
5.360000E+03	2.387461E-15	1.747587E-17
5.370000E+03	2.368907E-15	1.734667E-17
5.380000E+03	2.347566E-15	1.719705E-17
5.390000E+03	2.323876E-15	1.703017E-17
5.400000E+03	2.298304E-15	1.684945E-17
5.410000E+03	2.271284E-15	1.665803E-17
5.420000E+03	2.243278E-15	1.645928E-17
5.430000E+03	2.214707E-15	1.625628E-17
5.440000E+03	2.185847E-15	1.605104E-17
5.450000E+03	2.156982E-15	1.584564E-17
5.460000E+03	2.128237E-15	1.564100E-17
5.470000E+03	2.099686E-15	1.543765E-17
5.480000E+03	2.071401E-15	1.523613E-17
5.490000E+03	2.043262E-15	1.503555E-17
5.500000E+03	2.015289E-15	1.483602E-17
5.510000E+03	1.987693E-15	1.463911E-17
5.520000E+03	1.960740E-15	1.444674E-17
5.530000E+03	1.934492E-15	1.425937E-17
5.540000E+03	1.909000E-15	1.407738E-17
5.550000E+03	1.884261E-15	1.390073E-17
5.560000E+03	1.860347E-15	1.372995E-17
5.570000E+03	1.837308E-15	1.356541E-17
5.580000E+03	1.815297E-15	1.340825E-17
5.590000E+03	1.794506E-15	1.325989E-17
5.600000E+03	1.775217E-15	1.312241E-17
5.610000E+03	1.757695E-15	1.299778E-17
5.620000E+03	1.742260E-15	1.288839E-17
5.630000E+03	1.729236E-15	1.279664E-17
5.640000E+03	1.718918E-15	1.272474E-17
5.650000E+03	1.711591E-15	1.267481E-17
5.660000E+03	1.707470E-15	1.264847E-17
5.670000E+03	1.706755E-15	1.264722E-17
5.680000E+03	1.709595E-15	1.267219E-17
5.690000E+03	1.716056E-15	1.272389E-17
5.700000E+03	1.726139E-15	1.280235E-17
5.710000E+03	1.739776E-15	1.290709E-17
5.720000E+03	1.756860E-15	1.303733E-17
5.730000E+03	1.777137E-15	1.319121E-17
5.740000E+03	1.800354E-15	1.336685E-17
5.750000E+03	1.826148E-15	1.356160E-17
5.760000E+03	1.854079E-15	1.377217E-17
5.770000E+03	1.883688E-15	1.399518E-17
5.780000E+03	1.914481E-15	1.422695E-17
5.790000E+03	1.945884E-15	1.446325E-17
5.800000E+03	1.977310E-15	1.469969E-17
5.810000E+03	2.008186E-15	1.493202E-17
5.820000E+03	2.037838E-15	1.515524E-17
5.830000E+03	2.065665E-15	1.536488E-17
5.840000E+03	2.091082E-15	1.555657E-17
5.850000E+03	2.113545E-15	1.572628E-17
5.860000E+03	2.132598E-15	1.587061E-17
5.870000E+03	2.147786E-15	1.598617E-17
5.880000E+03	2.158831E-15	1.607090E-17
5.890000E+03	2.165481E-15	1.612291E-17
5.900000E+03	2.167612E-15	1.614129E-17
5.910000E+03	2.165193E-15	1.612580E-17
5.920000E+03	2.158277E-15	1.607685E-17
5.930000E+03	2.147031E-15	1.599568E-17
5.940000E+03	2.131615E-15	1.588348E-17
5.950000E+03	2.112293E-15	1.574222E-17
5.960000E+03	2.089411E-15	1.557449E-17
5.970000E+03	2.063331E-15	1.538297E-17
5.980000E+03	2.034395E-15	1.517024E-17
5.990000E+03	2.003076E-15	1.493982E-17
6.000000E+03	1.969752E-15	1.469451E-17
6.010000E+03	1.934962E-15	1.443837E-17
6.020000E+03	1.899128E-15	1.417453E-17
6.030000E+03	1.862753E-15	1.390675E-17
6.040000E+03	1.826369E-15	1.363901E-17
6.050000E+03	1.790464E-15	1.337495E-17
6.060000E+03	1.755541E-15	1.311836E-17
6.070000E+03	1.722041E-15	1.287254E-17
6.080000E+03	1.690468E-15	1.264126E-17
6.090000E+03	1.661196E-15	1.242735E-17
6.100000E+03	1.634665E-15	1.223412E-17
6.110000E+03	1.611218E-15	1.206417E-17
6.120000E+03	1.591148E-15	1.191974E-17
6.130000E+03	1.574705E-15	1.180273E-17
6.140000E+03	1.562077E-15	1.171461E-17
6.150000E+03	1.553307E-15	1.165576E-17
6.160000E+03	1.548325E-15	1.162572E-17
6.170000E+03	1.546938E-15	1.162311E-17
6.180000E+03	1.548684E-15	1.164454E-17
6.190000E+03	1.552953E-15	1.168546E-17
6.200000E+03	1.558910E-15	1.173967E-17
6.210000E+03	1.565504E-15	1.179925E-17
6.220000E+03	1.571456E-15	1.185457E-17
6.230000E+03	1.575396E-15	1.189527E-17
6.240000E+03	1.576049E-15	1.191166E-17
6.250000E+03	1.572914E-15	1.189986E-17
6.260000E+03	1.566671E-15	1.186493E-17
6.270000E+03	1.558276E-15	1.181402E-17
6.280000E+03	1.548701E-15	1.175444E-17
6.290000E+03	1.538790E-15	1.169255E-17
6.300000E+03	1.529221E-15	1.163349E-17
6.310000E+03	1.520509E-15	1.158116E-17
6.320000E+03	1.512974E-15	1.153801E-17
6.330000E+03	1.506723E-15	1.150489E-17
6.340000E+03	1.501772E-15	1.148192E-17
6.350000E+03	1.498034E-15	1.146847E-17
6.360000E+03	1.495319E-15	1.146311E-17
6.370000E+03	1.493473E-15	1.146467E-17
6.380000E+03	1.492311E-15	1.147175E-17
6.390000E+03	1.491670E-15	1.148310E-17
6.400000E+03	1.491414E-15	1.149766E-17
6.410000E+03	1.491498E-15	1.151509E-17
6.420000E+03	1.491845E-15	1.153476E-17
6.430000E+03	1.492468E-15	1.155678E-17
6.440000E+03	1.493359E-15	1.158107E-17
6.450000E+03	1.494511E-15	1.160755E-17
6.460000E+03	1.495936E-15	1.163632E-17
6.470000E+03	1.497602E-15	1.166712E-17
6.480000E+03	1.499475E-15	1.169966E-17
6.490000E+03	1.501414E-15	1.173284E-17
6.500000E+03	1.503329E-15	1.176593E-17
6.510000E+03	1.505048E-15	1.179756E-17
6.520000E+03	1.506331E-15	1.182582E-17
6.530000E+03	1.506985E-15	1.184916E-17
6.540000E+03	1.506949E-15	1.186707E-17
6.550000E+03	1.506379E-15	1.188071E-17
6.560000E+03	1.505454E-15	1.189149E-17
6.570000E+03	1.504345E-15	1.190071E-17
6.580000E+03	1.503130E-15	1.190898E-17
6.590000E+03	1.501863E-15	1.191669E-17
6.600000E+03	1.500573E-15	1.192406E-17
6.610000E+03	1.499212E-15	1.193070E-17
6.620000E+03	1.497665E-15	1.193568E-17
6.630000E+03	1.495823E-15	1.193809E-17
6.640000E+03	1.493500E-15	1.193644E-17
6.650000E+03	1.490570E-15	1.192968E-17
6.660000E+03	1.486806E-15	1.191595E-17
6.670000E+03	1.482036E-15	1.189386E-17
6.680000E+03	1.476148E-15	1.186245E-17
6.690000E+03	1.469036E-15	1.182082E-17
6.700000E+03	1.460619E-15	1.176828E-17
6.710000E+03	1.450912E-15	1.170489E-17
6.720000E+03	1.440003E-15	1.163134E-17
6.730000E+03	1.427979E-15	1.154827E-17
6.740000E+03	1.415018E-15	1.145709E-17
6.750000E+03	1.401257E-15	1.135890E-17
6.760000E+03	1.386943E-15	1.125566E-17
6.770000E+03	1.372237E-15	1.114869E-17
6.780000E+03	1.357398E-15	1.104007E-17
6.790000E+03	1.342575E-15	1.093102E-17
6.800000E+03	1.327977E-15	1.082324E-17
6.810000E+03	1.313765E-15	1.071806E-17
6.820000E+03	1.300058E-15	1.061648E-17
6.830000E+03	1.286997E-15	1.051965E-17
6.840000E+03	1.274650E-15	1.042815E-17
6.850000E+03	1.263108E-15	1.034276E-17
6.860000E+03	1.252367E-15	1.026346E-17
6.870000E+03	1.242497E-15	1.019085E-17
6.880000E+03	1.233483E-15	1.012482E-17
6.890000E+03	1.225322E-15	1.006538E-17
6.900000E+03	1.217981E-15	1.001227E-17
6.910000E+03	1.211487E-15	9.965740E-18
6.920000E+03	1.205748E-15	9.925052E-18
6.930000E+03	1.200800E-15	9.890506E-18
6.940000E+03	1.196546E-15	9.861333E-18
6.950000E+03	1.192919E-15	9.836997E-18
6.960000E+03	1.189862E-15	9.817024E-18
6.970000E+03	1.187257E-15	9.800471E-18
6.980000E+03	1.185010E-15	9.786562E-18
6.990000E+03	1.183022E-15	9.774490E-18
7.000000E+03	1.181198E-15	9.763468E-18
7.010000E+03	1.179444E-15	9.752744E-18
7.020000E+03	1.177652E-15	9.741413E-18
7.030000E+03	1.175785E-15	9.729180E-18
7.040000E+03	1.173691E-15	9.714798E-18
7.050000E+03	1.171367E-15	9.698238E-18
7.060000E+03	1.168679E-15	9.678401E-18
7.070000E+03	1.165623E-15	9.655262E-18
7.080000E+03	1.162140E-15	9.628341E-18
7.090000E+03	1.158212E-15	9.597481E-18
7.100000E+03	1.153856E-15	9.562842E-18
7.110000E+03	1.149036E-15	9.524136E-18
7.120000E+03	1.143798E-15	9.481745E-18
7.130000E+03	1.138154E-15	9.435789E-18
7.140000E+03	1.132172E-15	9.386828E-18
7.150000E+03	1.125898E-15	9.335265E-18
7.160000E+03	1.119360E-15	9.281345E-18
7.170000E+03	1.112625E-15	9.225638E-18
7.180000E+03	1.105690E-15	9.168123E-18
7.190000E+03	1.098637E-15	9.109496E-18
7.200000E+03	1.091468E-15	9.049787E-18
7.210000E+03	1.084181E-15	8.989004E-18
7.220000E+03	1.076819E-15	8.927496E-18
7.230000E+03	1.069394E-15	8.865401E-18
7.240000E+03	1.061917E-15	8.802804E-18
7.250000E+03	1.054439E-15	8.740148E-18
7.260000E+03	1.047022E-15	8.677964E-18
7.270000E+03	1.039724E-15	8.616734E-18
7.280000E+03	1.032592E-15	8.556880E-18
7.290000E+03	1.025621E-15	8.498368E-18
7.300000E+03	1.018881E-15	8.441781E-18
7.310000E+03	1.012367E-15	8.387097E-18
7.320000E+03	1.006064E-15	8.334211E-18
7.330000E+03	9.999912E-16	8.283289E-18
7.340000E+03	9.940970E-16	8.233916E-18
7.350000E+03	9.883638E-16	8.185962E-18
7.360000E+03	9.827662E-16	8.139231E-18
7.370000E+03	9.772526E-16	8.093306E-18
7.380000E+03	9.718074E-16	8.048073E-18
7.390000E+03	9.663309E-16	8.002720E-18
7.400000E+03	9.608283E-16	7.957304E-18
7.410000E+03	9.552290E-16	7.911252E-18
7.420000E+03	9.495393E-16	7.864632E-18
7.430000E+03	9.437489E-16	7.817368E-18
7.440000E+03	9.378852E-16	7.769702E-18
7.450000E+03	9.320068E-16	7.722131E-18
7.460000E+03	9.261422E-16	7.674902E-18
7.470000E+03	9.204030E-16	7.628955E-18
7.480000E+03	9.148000E-16	7.584390E-18
7.490000E+03	9.094200E-16	7.541940E-18
7.500000E+03	9.042835E-16	7.501779E-18
7.510000E+03	8.994794E-16	7.464649E-18
7.520000E+03	8.950074E-16	7.430553E-18
7.530000E+03	8.908743E-16	7.399552E-18
7.540000E+03	8.870923E-16	7.371756E-18
7.550000E+03	8.836399E-16	7.346991E-18
7.560000E+03	8.805178E-16	7.325273E-18
7.570000E+03	8.776322E-16	7.305827E-18
7.580000E+03	8.749292E-16	7.288215E-18
7.590000E+03	8.723356E-16	7.271833E-18
7.600000E+03	8.697189E-16	7.255581E-18
7.610000E+03	8.669720E-16	7.238570E-18
7.620000E+03	8.639775E-16	7.219820E-18
7.630000E+03	8.607849E-16	7.199746E-18
7.640000E+03	8.574081E-16	7.178462E-18
7.650000E+03	8.539329E-16	7.156686E-18
7.660000E+03	8.503583E-16	7.134411E-18
7.670000E+03	8.467535E-16	7.112219E-18
7.680000E+03	8.431041E-16	7.089993E-18
7.690000E+03	8.394702E-16	7.068239E-18
7.700000E+03	8.358534E-16	7.046974E-18
7.710000E+03	8.322722E-16	7.026359E-18
7.720000E+03	8.287424E-16	7.006532E-18
7.730000E+03	8.252770E-16	6.987607E-18
7.740000E+03	8.218819E-16	6.969641E-18
7.750000E+03	8.185348E-16	6.952450E-18
7.760000E+03	8.152613E-16	6.936256E-18
