#wls	flux	fluxerr
1.600000E+03	5.255242E-16	1.575977E-17
1.640000E+03	5.401294E-16	1.610135E-17
1.680000E+03	5.558584E-16	1.646882E-17
1.720000E+03	5.727538E-16	1.686260E-17
1.760000E+03	5.909098E-16	1.728454E-17
1.800000E+03	6.104715E-16	1.773789E-17
1.840000E+03	6.313798E-16	1.821983E-17
1.880000E+03	6.538321E-16	1.873492E-17
1.920000E+03	6.778736E-16	1.928316E-17
1.960000E+03	7.035518E-16	1.986457E-17
2.000000E+03	7.308666E-16	2.047770E-17
2.040000E+03	7.598723E-16	2.112261E-17
2.080000E+03	7.905274E-16	2.179659E-17
2.120000E+03	8.226974E-16	2.249439E-17
2.160000E+03	8.564052E-16	2.321507E-17
2.200000E+03	8.914834E-16	2.395256E-17
2.240000E+03	9.278249E-16	2.470246E-17
2.280000E+03	9.654333E-16	2.546339E-17
2.320000E+03	1.004423E-15	2.623677E-17
2.360000E+03	1.045069E-15	2.702807E-17
2.400000E+03	1.087711E-15	2.784404E-17
2.440000E+03	1.132708E-15	2.869155E-17
2.480000E+03	1.180590E-15	2.958121E-17
2.520000E+03	1.231771E-15	3.052016E-17
2.560000E+03	1.286794E-15	3.151815E-17
2.600000E+03	1.346109E-15	3.258191E-17
2.640000E+03	1.410263E-15	3.371984E-17
2.680000E+03	1.479777E-15	3.493899E-17
2.720000E+03	1.555251E-15	3.624740E-17
2.760000E+03	1.637382E-15	3.765452E-17
2.800000E+03	1.726938E-15	3.917028E-17
2.840000E+03	1.824829E-15	4.080665E-17
2.880000E+03	1.932235E-15	4.258016E-17
2.920000E+03	2.050447E-15	4.450792E-17
2.960000E+03	2.181264E-15	4.661594E-17
3.000000E+03	2.326635E-15	4.893060E-17
3.010000E+03	2.365592E-15	4.954671E-17
3.020000E+03	2.405618E-15	5.017769E-17
3.030000E+03	2.446750E-15	5.082396E-17
3.040000E+03	2.489137E-15	5.148832E-17
3.050000E+03	2.532769E-15	5.217017E-17
3.060000E+03	2.577686E-15	5.286999E-17
3.070000E+03	2.623991E-15	5.358949E-17
3.080000E+03	2.671676E-15	5.432812E-17
3.090000E+03	2.720789E-15	5.508644E-17
3.100000E+03	2.771495E-15	5.586737E-17
3.110000E+03	2.823736E-15	5.666925E-17
3.120000E+03	2.877623E-15	5.749385E-17
3.130000E+03	2.933152E-15	5.834064E-17
3.140000E+03	2.990560E-15	5.921380E-17
3.150000E+03	3.049730E-15	6.011047E-17
3.160000E+03	3.110783E-15	6.103250E-17
3.170000E+03	3.173842E-15	6.198174E-17
3.180000E+03	3.238968E-15	6.295879E-17
3.190000E+03	3.306107E-15	6.396196E-17
3.200000E+03	3.375502E-15	6.499536E-17
3.210000E+03	3.447095E-15	6.605719E-17
3.220000E+03	3.521009E-15	6.714914E-17
3.230000E+03	3.597239E-15	6.827040E-17
3.240000E+03	3.675901E-15	6.942250E-17
3.250000E+03	3.757047E-15	7.060565E-17
3.260000E+03	3.840718E-15	7.181987E-17
3.270000E+03	3.926880E-15	7.306377E-17
3.280000E+03	4.015620E-15	7.433821E-17
3.290000E+03	4.106944E-15	7.564251E-17
3.300000E+03	4.200772E-15	7.697440E-17
3.310000E+03	4.297135E-15	7.833370E-17
3.320000E+03	4.395903E-15	7.971724E-17
3.330000E+03	4.497051E-15	8.112384E-17
3.340000E+03	4.600373E-15	8.254905E-17
3.350000E+03	4.705687E-15	8.398895E-17
3.360000E+03	4.812761E-15	8.543878E-17
3.370000E+03	4.921296E-15	8.689267E-17
3.380000E+03	5.030919E-15	8.834364E-17
3.390000E+03	5.141100E-15	8.978201E-17
3.400000E+03	5.251362E-15	9.119930E-17
3.410000E+03	5.360892E-15	9.258138E-17
3.420000E+03	5.469070E-15	9.391778E-17
3.430000E+03	5.574864E-15	9.519120E-17
3.440000E+03	5.677297E-15	9.638570E-17
3.450000E+03	5.775291E-15	9.748404E-17
3.460000E+03	5.867617E-15	9.846686E-17
3.470000E+03	5.953150E-15	9.931703E-17
3.480000E+03	6.030571E-15	1.000146E-16
3.490000E+03	6.098558E-15	1.005403E-16
3.500000E+03	6.155916E-15	1.008772E-16
3.510000E+03	6.201428E-15	1.010086E-16
3.520000E+03	6.234128E-15	1.009225E-16
3.530000E+03	6.252879E-15	1.006044E-16
3.540000E+03	6.257020E-15	1.000479E-16
3.550000E+03	6.245932E-15	9.924750E-17
3.560000E+03	6.219330E-15	9.820339E-17
3.570000E+03	6.177060E-15	9.691783E-17
3.580000E+03	6.119384E-15	9.539965E-17
3.590000E+03	6.047115E-15	9.366614E-17
3.600000E+03	5.961181E-15	9.173605E-17
3.610000E+03	5.863222E-15	8.963861E-17
3.620000E+03	5.755124E-15	8.740621E-17
3.630000E+03	5.638968E-15	8.507337E-17
3.640000E+03	5.517081E-15	8.267748E-17
3.650000E+03	8.593098E-15	1.279054E-16
3.651270E+03	8.584279E-15	1.276639E-16
3.652540E+03	8.575697E-15	1.274261E-16
3.653810E+03	8.564284E-15	1.271465E-16
3.655080E+03	8.549333E-15	1.268147E-16
3.656350E+03	8.531317E-15	1.264378E-16
3.657620E+03	8.511652E-15	1.260370E-16
3.658900E+03	8.492691E-15	1.256463E-16
3.660170E+03	8.476805E-15	1.253023E-16
3.661440E+03	8.462100E-15	1.249761E-16
3.662710E+03	8.445039E-15	1.246156E-16
3.663980E+03	8.423028E-15	1.241825E-16
3.665250E+03	8.395363E-15	1.236667E-16
3.666520E+03	8.362750E-15	1.230788E-16
3.667790E+03	8.325900E-15	1.224293E-16
3.669060E+03	8.284342E-15	1.217117E-16
3.670330E+03	8.235956E-15	1.208949E-16
3.671600E+03	8.182630E-15	1.200068E-16
3.672870E+03	8.131198E-15	1.191479E-16
3.674150E+03	8.084245E-15	1.183550E-16
3.675420E+03	8.037070E-15	1.175610E-16
3.676690E+03	7.984015E-15	1.166821E-16
3.677960E+03	7.925787E-15	1.157292E-16
3.679230E+03	7.866626E-15	1.147641E-16
3.680500E+03	7.805593E-15	1.137732E-16
3.681770E+03	7.738682E-15	1.126982E-16
3.683040E+03	7.666368E-15	1.115464E-16
3.684310E+03	7.592655E-15	1.103761E-16
3.685580E+03	7.518954E-15	1.092079E-16
3.686850E+03	7.442443E-15	1.080007E-16
3.688120E+03	7.361943E-15	1.067377E-16
3.689390E+03	7.277693E-15	1.054225E-16
3.690670E+03	7.189217E-15	1.040475E-16
3.691940E+03	7.096527E-15	1.026146E-16
3.693210E+03	7.003384E-15	1.011775E-16
3.694480E+03	6.914022E-15	9.979742E-17
3.695750E+03	6.826088E-15	9.844020E-17
3.697020E+03	6.734171E-15	9.702786E-17
3.698290E+03	6.636861E-15	9.554025E-17
3.699560E+03	6.536983E-15	9.401820E-17
3.700830E+03	6.435713E-15	9.247872E-17
3.702100E+03	6.333756E-15	9.093199E-17
3.703370E+03	6.231584E-15	8.938478E-17
3.704640E+03	6.129665E-15	8.784384E-17
3.705920E+03	6.027291E-15	8.629838E-17
3.707190E+03	5.923295E-15	8.473299E-17
3.708460E+03	5.817439E-15	8.314369E-17
3.709730E+03	5.712543E-15	8.157082E-17
3.711000E+03	5.610955E-15	8.004786E-17
3.712270E+03	5.511267E-15	7.855457E-17
3.713540E+03	5.410187E-15	7.704405E-17
3.714810E+03	5.309128E-15	7.553641E-17
3.716080E+03	5.209966E-15	7.405835E-17
3.717350E+03	5.112466E-15	7.260645E-17
3.718620E+03	5.012168E-15	7.111736E-17
3.719890E+03	4.908366E-15	6.958119E-17
3.721170E+03	4.805520E-15	6.806074E-17
3.722440E+03	4.705983E-15	6.659026E-17
3.723710E+03	4.607875E-15	6.514254E-17
3.724980E+03	4.510254E-15	6.370424E-17
3.726250E+03	4.415234E-15	6.230516E-17
3.727520E+03	4.324455E-15	6.096832E-17
3.728790E+03	4.234163E-15	5.964069E-17
3.730060E+03	4.140135E-15	5.826280E-17
3.731330E+03	4.045422E-15	5.687771E-17
3.732600E+03	3.954948E-15	5.555461E-17
3.733870E+03	3.868245E-15	5.428677E-17
3.735140E+03	3.781558E-15	5.302138E-17
3.736410E+03	3.695124E-15	5.176177E-17
3.737690E+03	3.612688E-15	5.055998E-17
3.738960E+03	3.534726E-15	4.942325E-17
3.740230E+03	3.457483E-15	4.829858E-17
3.741500E+03	3.378848E-15	4.715647E-17
3.742770E+03	3.301166E-15	4.602969E-17
3.744040E+03	3.226781E-15	4.495083E-17
3.745310E+03	3.156627E-15	4.393278E-17
3.746580E+03	3.090471E-15	4.297212E-17
3.747850E+03	3.026201E-15	4.203939E-17
3.749120E+03	2.960539E-15	4.108899E-17
3.750390E+03	2.885052E-15	4.000405E-17
3.751660E+03	2.805598E-15	3.886610E-17
3.752940E+03	2.730842E-15	3.779495E-17
3.754210E+03	2.666171E-15	3.686546E-17
3.755480E+03	2.610879E-15	3.606721E-17
3.756750E+03	2.561217E-15	3.534808E-17
3.758020E+03	2.516245E-15	3.469490E-17
3.759290E+03	2.472922E-15	3.406560E-17
3.760560E+03	2.428435E-15	3.342141E-17
3.761830E+03	2.384895E-15	3.279138E-17
3.763100E+03	2.349787E-15	3.227830E-17
3.764370E+03	2.327975E-15	3.194860E-17
3.765640E+03	2.316274E-15	3.175811E-17
3.766910E+03	2.304926E-15	3.157274E-17
3.768180E+03	2.287967E-15	3.131087E-17
3.769460E+03	2.267781E-15	3.100510E-17
3.770730E+03	2.255178E-15	3.080366E-17
3.772000E+03	2.257028E-15	3.079976E-17
3.773270E+03	2.266685E-15	3.090227E-17
3.774540E+03	2.274822E-15	3.098381E-17
3.775810E+03	2.282419E-15	3.105780E-17
3.777080E+03	2.296021E-15	3.121323E-17
3.778350E+03	2.316467E-15	3.146126E-17
3.779620E+03	2.338240E-15	3.172677E-17
3.780890E+03	2.360898E-15	3.200371E-17
3.782160E+03	2.388923E-15	3.235275E-17
3.783430E+03	2.419980E-15	3.274209E-17
3.784710E+03	2.451028E-15	3.313025E-17
3.785980E+03	2.481837E-15	3.351464E-17
3.787250E+03	2.513808E-15	3.391390E-17
3.788520E+03	2.545772E-15	3.431224E-17
3.789790E+03	2.578195E-15	3.471595E-17
3.791060E+03	2.612946E-15	3.515013E-17
3.792330E+03	2.648857E-15	3.559900E-17
3.793600E+03	2.681726E-15	3.600610E-17
3.794870E+03	2.710153E-15	3.635277E-17
3.796140E+03	2.737639E-15	3.668611E-17
3.797410E+03	2.765354E-15	3.702180E-17
3.798680E+03	2.790729E-15	3.732547E-17
3.799960E+03	2.813064E-15	3.758758E-17
3.801230E+03	2.837961E-15	3.788360E-17
3.802500E+03	2.871250E-15	3.829090E-17
3.803770E+03	2.909662E-15	3.876560E-17
3.805040E+03	2.946667E-15	3.922057E-17
3.806310E+03	2.978768E-15	3.960937E-17
3.807580E+03	3.007130E-15	3.994768E-17
3.808850E+03	3.036418E-15	4.029756E-17
3.810120E+03	3.070362E-15	4.070842E-17
3.811390E+03	3.106164E-15	4.114300E-17
3.812660E+03	3.140558E-15	4.155803E-17
3.813930E+03	3.175412E-15	4.197826E-17
3.815200E+03	3.215615E-15	4.246824E-17
3.816480E+03	3.261865E-15	4.303663E-17
3.817750E+03	3.310670E-15	4.363783E-17
3.819020E+03	3.359465E-15	4.423764E-17
3.820290E+03	3.406385E-15	4.481153E-17
3.821560E+03	3.449568E-15	4.533511E-17
3.822830E+03	3.489250E-15	4.581160E-17
3.824100E+03	3.526594E-15	4.625640E-17
3.825370E+03	3.560671E-15	4.665745E-17
3.826640E+03	3.591015E-15	4.700874E-17
3.827910E+03	3.621352E-15	4.735917E-17
3.829180E+03	3.658199E-15	4.779386E-17
3.830450E+03	3.702950E-15	4.833077E-17
3.831730E+03	3.752340E-15	4.892664E-17
3.833000E+03	3.803119E-15	4.953971E-17
3.834270E+03	3.855282E-15	5.016948E-17
3.835540E+03	3.907898E-15	5.080380E-17
3.836810E+03	3.958176E-15	5.140640E-17
3.838080E+03	4.004955E-15	5.196232E-17
3.839350E+03	4.051026E-15	5.250787E-17
3.840620E+03	4.099179E-15	5.307918E-17
3.841890E+03	4.151273E-15	5.370022E-17
3.843160E+03	4.208469E-15	5.438588E-17
3.844430E+03	4.272392E-15	5.515691E-17
3.845700E+03	4.340484E-15	5.598007E-17
3.846970E+03	4.407864E-15	5.679230E-17
3.848250E+03	4.471042E-15	5.754826E-17
3.849520E+03	4.532584E-15	5.828202E-17
3.850790E+03	4.594807E-15	5.902295E-17
3.852060E+03	4.659806E-15	5.979789E-17
3.853330E+03	4.727343E-15	6.060371E-17
3.854600E+03	4.796490E-15	6.142842E-17
3.855870E+03	4.866086E-15	6.225710E-17
3.857140E+03	4.936131E-15	6.308973E-17
3.858410E+03	5.007320E-15	6.393517E-17
3.859680E+03	5.078957E-15	6.478452E-17
3.860950E+03	5.149650E-15	6.561998E-17
3.862220E+03	5.218469E-15	6.642978E-17
3.863500E+03	5.287037E-15	6.723409E-17
3.864770E+03	5.357912E-15	6.806650E-17
3.866040E+03	5.434573E-15	6.897050E-17
3.867310E+03	5.520260E-15	6.998699E-17
3.868580E+03	5.613352E-15	7.109506E-17
3.869850E+03	5.706885E-15	7.220633E-17
3.871120E+03	5.795990E-15	7.325924E-17
3.872390E+03	5.883453E-15	7.428914E-17
3.873660E+03	5.974605E-15	7.536332E-17
3.874930E+03	6.069677E-15	7.648458E-17
3.876200E+03	6.163798E-15	7.759143E-17
3.877470E+03	6.256277E-15	7.867523E-17
3.878740E+03	6.348965E-15	7.975929E-17
3.880020E+03	6.443944E-15	8.086908E-17
3.881290E+03	6.539370E-15	8.198268E-17
3.882560E+03	6.632224E-15	8.306165E-17
3.883830E+03	6.723900E-15	8.412350E-17
3.885100E+03	6.817406E-15	8.520589E-17
3.886370E+03	6.915059E-15	8.633767E-17
3.887640E+03	7.018478E-15	8.753888E-17
3.888910E+03	7.127430E-15	8.880638E-17
3.890180E+03	7.237050E-15	9.007942E-17
3.891450E+03	7.342478E-15	9.129754E-17
3.892720E+03	7.443715E-15	9.246093E-17
3.893990E+03	7.546087E-15	9.363580E-17
3.895270E+03	7.652129E-15	9.485280E-17
3.896540E+03	7.761392E-15	9.610774E-17
3.897810E+03	7.872249E-15	9.737961E-17
3.899080E+03	7.982849E-15	9.864549E-17
3.900350E+03	8.090184E-15	9.986826E-17
3.901620E+03	8.193562E-15	1.010395E-16
3.902890E+03	8.295760E-15	1.021936E-16
3.904160E+03	8.399089E-15	1.033590E-16
3.905430E+03	8.503088E-15	1.045300E-16
3.906700E+03	8.604981E-15	1.056725E-16
3.907970E+03	8.703152E-15	1.067667E-16
3.909240E+03	8.798526E-15	1.078242E-16
3.910520E+03	8.893869E-15	1.088780E-16
3.911790E+03	8.988504E-15	1.099216E-16
3.913060E+03	9.082423E-15	1.109541E-16
3.914330E+03	9.177012E-15	1.119924E-16
3.915600E+03	9.275044E-15	1.130702E-16
3.916870E+03	9.374206E-15	1.141594E-16
3.918140E+03	9.470111E-15	1.152064E-16
3.919410E+03	9.562299E-15	1.162058E-16
3.920680E+03	9.654926E-15	1.172082E-16
3.921950E+03	9.750069E-15	1.182388E-16
3.923220E+03	9.842189E-15	1.192304E-16
3.924490E+03	9.925747E-15	1.201160E-16
3.925760E+03	1.000513E-14	1.209491E-16
3.927040E+03	1.008841E-14	1.218262E-16
3.928310E+03	1.017514E-14	1.227438E-16
3.929580E+03	1.025861E-14	1.236199E-16
3.930850E+03	1.033607E-14	1.244218E-16
3.932120E+03	1.041097E-14	1.251907E-16
3.933390E+03	1.048470E-14	1.259438E-16
3.934660E+03	1.055449E-14	1.266478E-16
3.935930E+03	1.061920E-14	1.272891E-16
3.937200E+03	1.068042E-14	1.278871E-16
3.938470E+03	1.074072E-14	1.284724E-16
3.939740E+03	1.079915E-14	1.290339E-16
3.941010E+03	1.085411E-14	1.295527E-16
3.942290E+03	1.090536E-14	1.300246E-16
3.943560E+03	1.095338E-14	1.304579E-16
3.944830E+03	1.099955E-14	1.308681E-16
3.946100E+03	1.104524E-14	1.312714E-16
3.947370E+03	1.108953E-14	1.316570E-16
3.948640E+03	1.113106E-14	1.320087E-16
3.949910E+03	1.116958E-14	1.323238E-16
3.951180E+03	1.120717E-14	1.326269E-16
3.952450E+03	1.124290E-14	1.329071E-16
3.953720E+03	1.127403E-14	1.331321E-16
3.954990E+03	1.129893E-14	1.332830E-16
3.956260E+03	1.131967E-14	1.333842E-16
3.957530E+03	1.134019E-14	1.334822E-16
3.958810E+03	1.136276E-14	1.336029E-16
3.960080E+03	1.138579E-14	1.337295E-16
3.961350E+03	1.140651E-14	1.338285E-16
3.962620E+03	1.142286E-14	1.338758E-16
3.963890E+03	1.143645E-14	1.338903E-16
3.965160E+03	1.144911E-14	1.338938E-16
3.966430E+03	1.145992E-14	1.338753E-16
3.967700E+03	1.146913E-14	1.338379E-16
3.968970E+03	1.147649E-14	1.337788E-16
3.970240E+03	1.148155E-14	1.336927E-16
3.971510E+03	1.148224E-14	1.335559E-16
3.972780E+03	1.147810E-14	1.333628E-16
3.974060E+03	1.147144E-14	1.331394E-16
3.975330E+03	1.146339E-14	1.329015E-16
3.976600E+03	1.145168E-14	1.326213E-16
3.977870E+03	1.143422E-14	1.322750E-16
3.979140E+03	1.141310E-14	1.318867E-16
3.980410E+03	1.139197E-14	1.314991E-16
3.981680E+03	1.137040E-14	1.311069E-16
3.982950E+03	1.134492E-14	1.306703E-16
3.984220E+03	1.131509E-14	1.301843E-16
3.985490E+03	1.128573E-14	1.297045E-16
3.986760E+03	1.125912E-14	1.292571E-16
3.988030E+03	1.123366E-14	1.288236E-16
3.989300E+03	1.120592E-14	1.283646E-16
3.990580E+03	1.117611E-14	1.278816E-16
3.991850E+03	1.114631E-14	1.274007E-16
3.993120E+03	1.111652E-14	1.269206E-16
3.994390E+03	1.108558E-14	1.264283E-16
3.995660E+03	1.105329E-14	1.259213E-16
3.996930E+03	1.101915E-14	1.253943E-16
3.998200E+03	1.098114E-14	1.248240E-16
3.999470E+03	1.093740E-14	1.241898E-16
4.000740E+03	1.088977E-14	1.235126E-16
4.002010E+03	1.084285E-14	1.228446E-16
4.003280E+03	1.080051E-14	1.222297E-16
4.004550E+03	1.076345E-14	1.216757E-16
4.005830E+03	1.072913E-14	1.211525E-16
4.007100E+03	1.069346E-14	1.206160E-16
4.008370E+03	1.065436E-14	1.200419E-16
4.009640E+03	1.061367E-14	1.194509E-16
4.010910E+03	1.057277E-14	1.188585E-16
4.012180E+03	1.053117E-14	1.182595E-16
4.013450E+03	1.048822E-14	1.176463E-16
4.014720E+03	1.044482E-14	1.170292E-16
4.015990E+03	1.040143E-14	1.164134E-16
4.017260E+03	1.035689E-14	1.157859E-16
4.018530E+03	1.030986E-14	1.151318E-16
4.019800E+03	1.025918E-14	1.144381E-16
4.021080E+03	1.020621E-14	1.137192E-16
4.022350E+03	1.015350E-14	1.130055E-16
4.023620E+03	1.010261E-14	1.123136E-16
4.024890E+03	1.005335E-14	1.116410E-16
4.026160E+03	1.000364E-14	1.109647E-16
4.027430E+03	9.953253E-15	1.102823E-16
4.028700E+03	9.904250E-15	1.096164E-16
4.029970E+03	9.857999E-15	1.089822E-16
4.031240E+03	9.813814E-15	1.083721E-16
4.032510E+03	9.766669E-15	1.077304E-16
4.033780E+03	9.715197E-15	1.070423E-16
4.035050E+03	9.662364E-15	1.063406E-16
4.036320E+03	9.609315E-15	1.056378E-16
4.037600E+03	9.556498E-15	1.049380E-16
4.038870E+03	9.503246E-15	1.042358E-16
4.040140E+03	9.449778E-15	1.035325E-16
4.041410E+03	9.393811E-15	1.028033E-16
4.042680E+03	9.334206E-15	1.020358E-16
4.043950E+03	9.272104E-15	1.012425E-16
4.045220E+03	9.210702E-15	1.004585E-16
4.046490E+03	9.150911E-15	9.969353E-17
4.047760E+03	9.093415E-15	9.895510E-17
4.049030E+03	9.038213E-15	9.824308E-17
4.050300E+03	8.986443E-15	9.756976E-17
4.051570E+03	8.939018E-15	9.694486E-17
4.052850E+03	8.893191E-15	9.633765E-17
4.054120E+03	8.844875E-15	9.570556E-17
4.055390E+03	8.792696E-15	9.503296E-17
4.056660E+03	8.738023E-15	9.433477E-17
4.057930E+03	8.683819E-15	9.364303E-17
4.059200E+03	8.631221E-15	9.296999E-17
4.060470E+03	8.581825E-15	9.233274E-17
4.061740E+03	8.535402E-15	9.172871E-17
4.063010E+03	8.490127E-15	9.113820E-17
4.064280E+03	8.445320E-15	9.055386E-17
4.065550E+03	8.401433E-15	8.998054E-17
4.066820E+03	8.358238E-15	8.941576E-17
4.068090E+03	8.314827E-15	8.884976E-17
4.069370E+03	8.270506E-15	8.827440E-17
4.070640E+03	8.227343E-15	8.771330E-17
4.071910E+03	8.185781E-15	8.717037E-17
4.073180E+03	8.145368E-15	8.664073E-17
4.074450E+03	8.104963E-15	8.611222E-17
4.075720E+03	8.065477E-15	8.559451E-17
4.076990E+03	8.027137E-15	8.508996E-17
4.078260E+03	7.990172E-15	8.460095E-17
4.079530E+03	7.955260E-15	8.413462E-17
4.080800E+03	7.922630E-15	8.369331E-17
4.082070E+03	7.892052E-15	8.327450E-17
4.083340E+03	7.862619E-15	8.286854E-17
4.084620E+03	7.833865E-15	8.246976E-17
4.085890E+03	7.805353E-15	8.207504E-17
4.087160E+03	7.776621E-15	8.167875E-17
4.088430E+03	7.747894E-15	8.128327E-17
4.089700E+03	7.719856E-15	8.089577E-17
4.090970E+03	7.693413E-15	8.052569E-17
4.092240E+03	7.668338E-15	8.017062E-17
4.093510E+03	7.641907E-15	7.980205E-17
4.094780E+03	7.612985E-15	7.940819E-17
4.096050E+03	7.582934E-15	7.900334E-17
4.097320E+03	7.554253E-15	7.861351E-17
4.098590E+03	7.528300E-15	7.825280E-17
4.099870E+03	7.503706E-15	7.790617E-17
4.101140E+03	7.480261E-15	7.757281E-17
4.102410E+03	7.459542E-15	7.726833E-17
4.103680E+03	7.442003E-15	7.699730E-17
4.104950E+03	7.426055E-15	7.674319E-17
4.106220E+03	7.410563E-15	7.649423E-17
4.107490E+03	7.396887E-15	7.626443E-17
4.108760E+03	7.386161E-15	7.606540E-17
4.110030E+03	7.376344E-15	7.587603E-17
4.111300E+03	7.365168E-15	7.567301E-17
4.112570E+03	7.352182E-15	7.545173E-17
4.113840E+03	7.340331E-15	7.524246E-17
4.115110E+03	7.332787E-15	7.507763E-17
4.116390E+03	7.328859E-15	7.494934E-17
4.117660E+03	7.325165E-15	7.482428E-17
4.118930E+03	7.317848E-15	7.466241E-17
4.120200E+03	7.307363E-15	7.446849E-17
4.121470E+03	7.298464E-15	7.429103E-17
4.122740E+03	7.292962E-15	7.414838E-17
4.124010E+03	7.288591E-15	7.401742E-17
4.125280E+03	7.282411E-15	7.386827E-17
4.126550E+03	7.273969E-15	7.369641E-17
4.127820E+03	7.265755E-15	7.352713E-17
4.129090E+03	7.259350E-15	7.337640E-17
4.130360E+03	7.255208E-15	7.324872E-17
4.131640E+03	7.252190E-15	7.313187E-17
4.132910E+03	7.250083E-15	7.302501E-17
4.134180E+03	7.249558E-15	7.293419E-17
4.135450E+03	7.251292E-15	7.286614E-17
4.136720E+03	7.254608E-15	7.281399E-17
4.137990E+03	7.258825E-15	7.277087E-17
4.139260E+03	7.262136E-15	7.271864E-17
4.140530E+03	7.262057E-15	7.263251E-17
4.141800E+03	7.257911E-15	7.250581E-17
4.143070E+03	7.251732E-15	7.235899E-17
4.144340E+03	7.246909E-15	7.222591E-17
4.145610E+03	7.245022E-15	7.212223E-17
4.146880E+03	7.245617E-15	7.204335E-17
4.148160E+03	7.246655E-15	7.196825E-17
4.149430E+03	7.246571E-15	7.188274E-17
4.150700E+03	7.247388E-15	7.180622E-17
4.151970E+03	7.252491E-15	7.177218E-17
4.153240E+03	7.261428E-15	7.177598E-17
4.154510E+03	7.270361E-15	7.177962E-17
4.155780E+03	7.276808E-15	7.175860E-17
4.157050E+03	7.281902E-15	7.172417E-17
4.158320E+03	7.286766E-15	7.168745E-17
4.159590E+03	7.291402E-15	7.164844E-17
4.160860E+03	7.295135E-15	7.160054E-17
4.162130E+03	7.299543E-15	7.155923E-17
4.163410E+03	7.305291E-15	7.153036E-17
4.164680E+03	7.309694E-15	7.148895E-17
4.165950E+03	7.310489E-15	7.141227E-17
4.167220E+03	7.307003E-15	7.129387E-17
4.168490E+03	7.301039E-15	7.115148E-17
4.169760E+03	7.294852E-15	7.100713E-17
4.171030E+03	7.289790E-15	7.087395E-17
4.172300E+03	7.286530E-15	7.075846E-17
