#wls	flux	fluxerr
1.600000E+03	5.901744E-16	6.552963E-18
1.640000E+03	6.089587E-16	6.732112E-18
1.680000E+03	6.291904E-16	6.924619E-18
1.720000E+03	6.508773E-16	7.130267E-18
1.760000E+03	6.742745E-16	7.351521E-18
1.800000E+03	6.993900E-16	7.588095E-18
1.840000E+03	7.263557E-16	7.841024E-18
1.880000E+03	7.554285E-16	8.112642E-18
1.920000E+03	7.866154E-16	8.402536E-18
1.960000E+03	8.201104E-16	8.712257E-18
2.000000E+03	8.559810E-16	9.041953E-18
2.040000E+03	8.944190E-16	9.393038E-18
2.080000E+03	9.353620E-16	9.764201E-18
2.120000E+03	9.788070E-16	1.015474E-17
2.160000E+03	1.024682E-15	1.056320E-17
2.200000E+03	1.072594E-15	1.098487E-17
2.240000E+03	1.122076E-15	1.141431E-17
2.280000E+03	1.172910E-15	1.184875E-17
2.320000E+03	1.225122E-15	1.228792E-17
2.360000E+03	1.279440E-15	1.273845E-17
2.400000E+03	1.336457E-15	1.320546E-17
2.440000E+03	1.396692E-15	1.369312E-17
2.480000E+03	1.460783E-15	1.420655E-17
2.520000E+03	1.528967E-15	1.474677E-17
2.560000E+03	1.601589E-15	1.531571E-17
2.600000E+03	1.678838E-15	1.591366E-17
2.640000E+03	1.760943E-15	1.654116E-17
2.680000E+03	1.847898E-15	1.719645E-17
2.720000E+03	1.939659E-15	1.787733E-17
2.760000E+03	2.036060E-15	1.858049E-17
2.800000E+03	2.136815E-15	1.930149E-17
2.840000E+03	2.241558E-15	2.003529E-17
2.880000E+03	2.349965E-15	2.077725E-17
2.920000E+03	2.461721E-15	2.152293E-17
2.960000E+03	2.576630E-15	2.226900E-17
3.000000E+03	2.694497E-15	2.301217E-17
3.010000E+03	2.724470E-15	2.319769E-17
3.020000E+03	2.754544E-15	2.338219E-17
3.030000E+03	2.784820E-15	2.356651E-17
3.040000E+03	2.815214E-15	2.374991E-17
3.050000E+03	2.845763E-15	2.393268E-17
3.060000E+03	2.876501E-15	2.411509E-17
3.070000E+03	2.907280E-15	2.429586E-17
3.080000E+03	2.938255E-15	2.447627E-17
3.090000E+03	2.969272E-15	2.465503E-17
3.100000E+03	3.000422E-15	2.483287E-17
3.110000E+03	3.031609E-15	2.500898E-17
3.120000E+03	3.062800E-15	2.518307E-17
3.130000E+03	3.094077E-15	2.535579E-17
3.140000E+03	3.125280E-15	2.552584E-17
3.150000E+03	3.156548E-15	2.569433E-17
3.160000E+03	3.187659E-15	2.585944E-17
3.170000E+03	3.218746E-15	2.602225E-17
3.180000E+03	3.249642E-15	2.618142E-17
3.190000E+03	3.280417E-15	2.633750E-17
3.200000E+03	3.310961E-15	2.648962E-17
3.210000E+03	3.341277E-15	2.663780E-17
3.220000E+03	3.371309E-15	2.678163E-17
3.230000E+03	3.401002E-15	2.692065E-17
3.240000E+03	3.430237E-15	2.705398E-17
3.250000E+03	3.459069E-15	2.718206E-17
3.260000E+03	3.487380E-15	2.730399E-17
3.270000E+03	3.515161E-15	2.741975E-17
3.280000E+03	3.542294E-15	2.752845E-17
3.290000E+03	3.568718E-15	2.762966E-17
3.300000E+03	3.594423E-15	2.772337E-17
3.310000E+03	3.619296E-15	2.780877E-17
3.320000E+03	3.643333E-15	2.788587E-17
3.330000E+03	3.666477E-15	2.795433E-17
3.340000E+03	3.688575E-15	2.801305E-17
3.350000E+03	3.709691E-15	2.806259E-17
3.360000E+03	3.729737E-15	2.810240E-17
3.370000E+03	3.748676E-15	2.813225E-17
3.380000E+03	3.766417E-15	2.815160E-17
3.390000E+03	3.782770E-15	2.815910E-17
3.400000E+03	3.797746E-15	2.815498E-17
3.410000E+03	3.811156E-15	2.813797E-17
3.420000E+03	3.822819E-15	2.810686E-17
3.430000E+03	3.832597E-15	2.806081E-17
3.440000E+03	3.840243E-15	2.799819E-17
3.450000E+03	3.845415E-15	2.791672E-17
3.460000E+03	3.847942E-15	2.781539E-17
3.470000E+03	3.847494E-15	2.769207E-17
3.480000E+03	3.843875E-15	2.754563E-17
3.490000E+03	3.836892E-15	2.737502E-17
3.500000E+03	3.826371E-15	2.717931E-17
3.510000E+03	3.812199E-15	2.695804E-17
3.520000E+03	3.794339E-15	2.671130E-17
3.530000E+03	3.772751E-15	2.643919E-17
3.540000E+03	3.747481E-15	2.614237E-17
3.550000E+03	3.718698E-15	2.582240E-17
3.560000E+03	3.686561E-15	2.548072E-17
3.570000E+03	3.651355E-15	2.511961E-17
3.580000E+03	3.613375E-15	2.474143E-17
3.590000E+03	3.573055E-15	2.434942E-17
3.600000E+03	3.530883E-15	2.394711E-17
3.610000E+03	3.487518E-15	2.353916E-17
3.620000E+03	3.443577E-15	2.312985E-17
3.630000E+03	3.399815E-15	2.272429E-17
3.640000E+03	3.356945E-15	2.232723E-17
3.650000E+03	3.315810E-15	2.194417E-17
3.660000E+03	3.277258E-15	2.158053E-17
3.670000E+03	3.242171E-15	2.124187E-17
3.680000E+03	3.211474E-15	2.093387E-17
3.690000E+03	3.186117E-15	2.066227E-17
3.700000E+03	3.167055E-15	2.043271E-17
3.710000E+03	3.155321E-15	2.025119E-17
3.720000E+03	3.151935E-15	2.012351E-17
3.730000E+03	3.158041E-15	2.005607E-17
3.740000E+03	3.174705E-15	2.005468E-17
3.750000E+03	3.203064E-15	2.012539E-17
3.760000E+03	3.244327E-15	2.027458E-17
3.770000E+03	3.299607E-15	2.050785E-17
3.780000E+03	3.370025E-15	2.083069E-17
3.790000E+03	3.456832E-15	2.124924E-17
3.800000E+03	3.561097E-15	2.176833E-17
3.810000E+03	3.683957E-15	2.239309E-17
3.820000E+03	3.826568E-15	2.312855E-17
3.830000E+03	3.989695E-15	2.397728E-17
3.840000E+03	4.173861E-15	2.494025E-17
3.850000E+03	4.379445E-15	2.601752E-17
3.860000E+03	4.606001E-15	2.720422E-17
3.870000E+03	4.852713E-15	2.849334E-17
3.880000E+03	5.117873E-15	2.987281E-17
3.890000E+03	5.398754E-15	3.132486E-17
3.900000E+03	5.691392E-15	3.282495E-17
3.910000E+03	5.990790E-15	3.434320E-17
3.920000E+03	6.290548E-15	3.584241E-17
3.930000E+03	6.583222E-15	3.728038E-17
3.940000E+03	6.860652E-15	3.861191E-17
3.950000E+03	7.114720E-15	3.979318E-17
3.960000E+03	7.337298E-15	4.078148E-17
3.970000E+03	7.521108E-15	4.153990E-17
3.980000E+03	7.660556E-15	4.204184E-17
3.990000E+03	7.751822E-15	4.227114E-17
4.000000E+03	7.792919E-15	4.222212E-17
4.010000E+03	7.784555E-15	4.190390E-17
4.020000E+03	7.729463E-15	4.133632E-17
4.030000E+03	7.632258E-15	4.054885E-17
4.040000E+03	7.499299E-15	3.957950E-17
4.050000E+03	7.338061E-15	3.847127E-17
4.060000E+03	7.156181E-15	3.726691E-17
4.070000E+03	6.961544E-15	3.600942E-17
4.080000E+03	6.761571E-15	3.473827E-17
4.090000E+03	6.562741E-15	3.348711E-17
4.100000E+03	6.370343E-15	3.228264E-17
4.110000E+03	6.188690E-15	3.114590E-17
4.120000E+03	6.021215E-15	3.009293E-17
4.130000E+03	5.869979E-15	2.913250E-17
4.140000E+03	5.736470E-15	2.827024E-17
4.150000E+03	5.621523E-15	2.750841E-17
4.160000E+03	5.525220E-15	2.684548E-17
4.170000E+03	5.447332E-15	2.627841E-17
4.180000E+03	5.387319E-15	2.580273E-17
4.190000E+03	5.344169E-15	2.541178E-17
4.200000E+03	5.316665E-15	2.509811E-17
4.210000E+03	5.303627E-15	2.485459E-17
4.220000E+03	5.303576E-15	2.467288E-17
4.230000E+03	5.315062E-15	2.454500E-17
4.240000E+03	5.336511E-15	2.446258E-17
4.250000E+03	5.366191E-15	2.441677E-17
4.260000E+03	5.402232E-15	2.439834E-17
4.270000E+03	5.442673E-15	2.439791E-17
4.280000E+03	5.485048E-15	2.440411E-17
4.290000E+03	5.526745E-15	2.440529E-17
4.300000E+03	5.564905E-15	2.438904E-17
4.310000E+03	5.596091E-15	2.434083E-17
4.320000E+03	5.616863E-15	2.424655E-17
4.330000E+03	5.623993E-15	2.409347E-17
4.340000E+03	5.614506E-15	2.387033E-17
4.350000E+03	5.586129E-15	2.356921E-17
4.360000E+03	5.537555E-15	2.318649E-17
4.370000E+03	5.468914E-15	2.272469E-17
4.380000E+03	5.381966E-15	2.219298E-17
4.390000E+03	5.280561E-15	2.160886E-17
4.400000E+03	5.170901E-15	2.099884E-17
4.410000E+03	5.061326E-15	2.039729E-17
4.420000E+03	4.960572E-15	1.983909E-17
4.430000E+03	4.876516E-15	1.935467E-17
4.440000E+03	4.816210E-15	1.897026E-17
4.450000E+03	4.785639E-15	1.870710E-17
4.460000E+03	4.788560E-15	1.857715E-17
4.470000E+03	4.827942E-15	1.858892E-17
4.480000E+03	4.906166E-15	1.874839E-17
4.490000E+03	5.023465E-15	1.905323E-17
4.500000E+03	5.179646E-15	1.949955E-17
4.510000E+03	5.374058E-15	2.008182E-17
4.520000E+03	5.604450E-15	2.078881E-17
4.530000E+03	5.867702E-15	2.160637E-17
4.540000E+03	6.159595E-15	2.251679E-17
4.550000E+03	6.473969E-15	2.349585E-17
4.560000E+03	6.803087E-15	2.451436E-17
4.570000E+03	7.138006E-15	2.553968E-17
4.580000E+03	7.468206E-15	2.653453E-17
4.590000E+03	7.782518E-15	2.746038E-17
4.600000E+03	8.069541E-15	2.827898E-17
4.610000E+03	8.319160E-15	2.895762E-17
4.620000E+03	8.522223E-15	2.946775E-17
4.630000E+03	8.671280E-15	2.978742E-17
4.640000E+03	8.761179E-15	2.990306E-17
4.650000E+03	8.789111E-15	2.980928E-17
4.660000E+03	8.754208E-15	2.950734E-17
4.670000E+03	8.658174E-15	2.900693E-17
4.680000E+03	8.504603E-15	2.832372E-17
4.690000E+03	8.298931E-15	2.747897E-17
4.700000E+03	8.048379E-15	2.649920E-17
4.710000E+03	7.761092E-15	2.541324E-17
4.720000E+03	7.446252E-15	2.425254E-17
4.730000E+03	7.113753E-15	2.305010E-17
4.740000E+03	6.773483E-15	2.183814E-17
4.750000E+03	6.434428E-15	2.064527E-17
4.760000E+03	6.104798E-15	1.949705E-17
4.770000E+03	5.791597E-15	1.841473E-17
4.780000E+03	5.500540E-15	1.741501E-17
4.790000E+03	5.235539E-15	1.650869E-17
4.800000E+03	5.000043E-15	1.570501E-17
4.810000E+03	4.796452E-15	1.500987E-17
4.820000E+03	4.625399E-15	1.442370E-17
4.830000E+03	4.486860E-15	1.394496E-17
4.840000E+03	4.380386E-15	1.357093E-17
4.850000E+03	4.304993E-15	1.329738E-17
4.860000E+03	4.259351E-15	1.311915E-17
4.870000E+03	4.241790E-15	1.303018E-17
4.880000E+03	4.250053E-15	1.302277E-17
4.890000E+03	4.281547E-15	1.308834E-17
4.900000E+03	4.333032E-15	1.321646E-17
4.910000E+03	4.400331E-15	1.339403E-17
4.920000E+03	4.478518E-15	1.360578E-17
4.930000E+03	4.562103E-15	1.383491E-17
4.940000E+03	4.644827E-15	1.406241E-17
4.950000E+03	4.720161E-15	1.426856E-17
4.960000E+03	4.782029E-15	1.443515E-17
4.970000E+03	4.825912E-15	1.454871E-17
4.980000E+03	4.848381E-15	1.459908E-17
4.990000E+03	4.847920E-15	1.458188E-17
5.000000E+03	4.826050E-15	1.450183E-17
5.010000E+03	4.785891E-15	1.436839E-17
5.020000E+03	4.731474E-15	1.419369E-17
5.030000E+03	4.667324E-15	1.399127E-17
5.040000E+03	4.598167E-15	1.377523E-17
5.050000E+03	4.528434E-15	1.355875E-17
5.060000E+03	4.461785E-15	1.335268E-17
5.070000E+03	4.401346E-15	1.316625E-17
5.080000E+03	4.349668E-15	1.300696E-17
5.090000E+03	4.307860E-15	1.287800E-17
5.100000E+03	4.276619E-15	1.278137E-17
5.110000E+03	4.256480E-15	1.271856E-17
5.120000E+03	4.247855E-15	1.269071E-17
5.130000E+03	4.251057E-15	1.269870E-17
5.140000E+03	4.266735E-15	1.274440E-17
5.150000E+03	4.295665E-15	1.283005E-17
5.160000E+03	4.338938E-15	1.295889E-17
5.170000E+03	4.397657E-15	1.313416E-17
5.180000E+03	4.472882E-15	1.335898E-17
5.190000E+03	4.565757E-15	1.363675E-17
5.200000E+03	4.677132E-15	1.396997E-17
5.210000E+03	4.807169E-15	1.435911E-17
5.220000E+03	4.955590E-15	1.480330E-17
5.230000E+03	5.121474E-15	1.529978E-17
5.240000E+03	5.302549E-15	1.584172E-17
5.250000E+03	5.495572E-15	1.641940E-17
5.260000E+03	5.696610E-15	1.702104E-17
5.270000E+03	5.900638E-15	1.763156E-17
5.280000E+03	6.101847E-15	1.823358E-17
5.290000E+03	6.293938E-15	1.880819E-17
5.300000E+03	6.470852E-15	1.933724E-17
5.310000E+03	6.626607E-15	1.980280E-17
5.320000E+03	6.755588E-15	2.018801E-17
5.330000E+03	6.853625E-15	2.048038E-17
5.340000E+03	6.917470E-15	2.067016E-17
5.350000E+03	6.945174E-15	2.075150E-17
5.360000E+03	6.936693E-15	2.072426E-17
5.370000E+03	6.893315E-15	2.059230E-17
5.380000E+03	6.817517E-15	2.036303E-17
5.390000E+03	6.713777E-15	2.004988E-17
5.400000E+03	6.587298E-15	1.966842E-17
5.410000E+03	6.444137E-15	1.923678E-17
5.420000E+03	6.291011E-15	1.877508E-17
5.430000E+03	6.134984E-15	1.830443E-17
5.440000E+03	5.983260E-15	1.784637E-17
5.450000E+03	5.843970E-15	1.742516E-17
5.460000E+03	5.724632E-15	1.706320E-17
5.470000E+03	5.632322E-15	1.678155E-17
5.480000E+03	5.574597E-15	1.660264E-17
5.490000E+03	5.556285E-15	1.654072E-17
5.500000E+03	5.575856E-15	1.659108E-17
5.510000E+03	5.624655E-15	1.672778E-17
5.520000E+03	5.688901E-15	1.690971E-17
5.530000E+03	5.753020E-15	1.709048E-17
5.540000E+03	5.805426E-15	1.723566E-17
5.550000E+03	5.836144E-15	1.731568E-17
5.560000E+03	5.837001E-15	1.730641E-17
5.570000E+03	5.804345E-15	1.719721E-17
5.580000E+03	5.737261E-15	1.698557E-17
5.590000E+03	5.637468E-15	1.667683E-17
5.600000E+03	5.509161E-15	1.628364E-17
5.610000E+03	5.358238E-15	1.582368E-17
5.620000E+03	5.191372E-15	1.531685E-17
5.630000E+03	5.015455E-15	1.478367E-17
5.640000E+03	4.837435E-15	1.424472E-17
5.650000E+03	4.663462E-15	1.371817E-17
5.660000E+03	4.498910E-15	1.321986E-17
5.670000E+03	4.348476E-15	1.276352E-17
5.680000E+03	4.215792E-15	1.235974E-17
5.690000E+03	4.103927E-15	1.201737E-17
5.700000E+03	4.015285E-15	1.174326E-17
5.710000E+03	3.951650E-15	1.154241E-17
5.720000E+03	3.914312E-15	1.141834E-17
5.730000E+03	3.904192E-15	1.137344E-17
5.740000E+03	3.921860E-15	1.140907E-17
5.750000E+03	3.967322E-15	1.152493E-17
5.760000E+03	4.040079E-15	1.171921E-17
5.770000E+03	4.139373E-15	1.198938E-17
5.780000E+03	4.263305E-15	1.232959E-17
5.790000E+03	4.409462E-15	1.273254E-17
5.800000E+03	4.574508E-15	1.318830E-17
5.810000E+03	4.753856E-15	1.368341E-17
5.820000E+03	4.941898E-15	1.420153E-17
5.830000E+03	5.132398E-15	1.472466E-17
5.840000E+03	5.318658E-15	1.523357E-17
5.850000E+03	5.493862E-15	1.570885E-17
5.860000E+03	5.651696E-15	1.613265E-17
5.870000E+03	5.787512E-15	1.649201E-17
5.880000E+03	5.897748E-15	1.677716E-17
5.890000E+03	5.980287E-15	1.698249E-17
5.900000E+03	6.034182E-15	1.710579E-17
5.910000E+03	6.059842E-15	1.714868E-17
5.920000E+03	6.058623E-15	1.711548E-17
5.930000E+03	6.032543E-15	1.701232E-17
5.940000E+03	5.984379E-15	1.684744E-17
5.950000E+03	5.917254E-15	1.663000E-17
5.960000E+03	5.834321E-15	1.636916E-17
5.970000E+03	5.739034E-15	1.607488E-17
5.980000E+03	5.634602E-15	1.575635E-17
5.990000E+03	5.524291E-15	1.542285E-17
6.000000E+03	5.411158E-15	1.508301E-17
6.010000E+03	5.297949E-15	1.474454E-17
6.020000E+03	5.187071E-15	1.441416E-17
6.030000E+03	5.080458E-15	1.409722E-17
6.040000E+03	4.979946E-15	1.379878E-17
6.050000E+03	4.886571E-15	1.352165E-17
6.060000E+03	4.801284E-15	1.326840E-17
6.070000E+03	4.724723E-15	1.304072E-17
6.080000E+03	4.657231E-15	1.283948E-17
6.090000E+03	4.599002E-15	1.266514E-17
6.100000E+03	4.550157E-15	1.251799E-17
6.110000E+03	4.510632E-15	1.239779E-17
6.120000E+03	4.480106E-15	1.230363E-17
6.130000E+03	4.458349E-15	1.223484E-17
6.140000E+03	4.444359E-15	1.218868E-17
6.150000E+03	4.436997E-15	1.216202E-17
6.160000E+03	4.434600E-15	1.215034E-17
6.170000E+03	4.434997E-15	1.214772E-17
6.180000E+03	4.435202E-15	1.214603E-17
6.190000E+03	4.431523E-15	1.213524E-17
6.200000E+03	4.418789E-15	1.210122E-17
6.210000E+03	4.391565E-15	1.202908E-17
6.220000E+03	4.344459E-15	1.190395E-17
6.230000E+03	4.272233E-15	1.171136E-17
6.240000E+03	4.172881E-15	1.144562E-17
6.250000E+03	4.052739E-15	1.112386E-17
6.260000E+03	3.924897E-15	1.078178E-17
6.270000E+03	3.803068E-15	1.045689E-17
6.280000E+03	3.699057E-15	1.018159E-17
6.290000E+03	3.617811E-15	9.969529E-18
6.300000E+03	3.561823E-15	9.827727E-18
6.310000E+03	3.532453E-15	9.760127E-18
6.320000E+03	3.528051E-15	9.762424E-18
6.330000E+03	3.546146E-15	9.828042E-18
6.340000E+03	3.583877E-15	9.949334E-18
6.350000E+03	3.637588E-15	1.011642E-17
6.360000E+03	3.703248E-15	1.031832E-17
6.370000E+03	3.776694E-15	1.054363E-17
6.380000E+03	3.853602E-15	1.078042E-17
6.390000E+03	3.929611E-15	1.101655E-17
6.400000E+03	4.000532E-15	1.124027E-17
6.410000E+03	4.062808E-15	1.144150E-17
6.420000E+03	4.113300E-15	1.161121E-17
6.430000E+03	4.149463E-15	1.174194E-17
6.440000E+03	4.170532E-15	1.183120E-17
6.450000E+03	4.176425E-15	1.187838E-17
6.460000E+03	4.167902E-15	1.188527E-17
6.470000E+03	4.146986E-15	1.185727E-17
6.480000E+03	4.116102E-15	1.180099E-17
6.490000E+03	4.078244E-15	1.172474E-17
6.500000E+03	4.036801E-15	1.163806E-17
6.510000E+03	3.995327E-15	1.155107E-17
6.520000E+03	3.957072E-15	1.147314E-17
6.530000E+03	3.925317E-15	1.141383E-17
6.540000E+03	3.902146E-15	1.137931E-17
6.550000E+03	3.888776E-15	1.137333E-17
6.560000E+03	3.885642E-15	1.139736E-17
6.570000E+03	3.892791E-15	1.145176E-17
6.580000E+03	3.910078E-15	1.153632E-17
6.590000E+03	3.936642E-15	1.164873E-17
6.600000E+03	3.971245E-15	1.178550E-17
6.610000E+03	4.012409E-15	1.194242E-17
6.620000E+03	4.058049E-15	1.211339E-17
6.630000E+03	4.105867E-15	1.229162E-17
6.640000E+03	4.153245E-15	1.246925E-17
6.650000E+03	4.197733E-15	1.263886E-17
6.660000E+03	4.236875E-15	1.279292E-17
6.670000E+03	4.268375E-15	1.292431E-17
6.680000E+03	4.290623E-15	1.302791E-17
6.690000E+03	4.302292E-15	1.309939E-17
6.700000E+03	4.302647E-15	1.313624E-17
6.710000E+03	4.291324E-15	1.313700E-17
6.720000E+03	4.268655E-15	1.310240E-17
6.730000E+03	4.235391E-15	1.303444E-17
6.740000E+03	4.192404E-15	1.293555E-17
6.750000E+03	4.141098E-15	1.280982E-17
6.760000E+03	4.082924E-15	1.266156E-17
6.770000E+03	4.019454E-15	1.249548E-17
6.780000E+03	3.952177E-15	1.231611E-17
6.790000E+03	3.882654E-15	1.212825E-17
6.800000E+03	3.812308E-15	1.193631E-17
6.810000E+03	3.742281E-15	1.174386E-17
6.820000E+03	3.673925E-15	1.155519E-17
6.830000E+03	3.608175E-15	1.137329E-17
6.840000E+03	3.546132E-15	1.120170E-17
6.850000E+03	3.488540E-15	1.104287E-17
6.860000E+03	3.436189E-15	1.089942E-17
6.870000E+03	3.389813E-15	1.077380E-17
6.880000E+03	3.349974E-15	1.066792E-17
6.890000E+03	3.317068E-15	1.058317E-17
6.900000E+03	3.291613E-15	1.052136E-17
6.910000E+03	3.273801E-15	1.048324E-17
6.920000E+03	3.263848E-15	1.046963E-17
6.930000E+03	3.261640E-15	1.048030E-17
6.940000E+03	3.267079E-15	1.051508E-17
6.950000E+03	3.279801E-15	1.057289E-17
6.960000E+03	3.299207E-15	1.065193E-17
6.970000E+03	3.324626E-15	1.075011E-17
6.980000E+03	3.355006E-15	1.086410E-17
6.990000E+03	3.389027E-15	1.098969E-17
7.000000E+03	3.425266E-15	1.112229E-17
7.010000E+03	3.462082E-15	1.125659E-17
7.020000E+03	3.497807E-15	1.138716E-17
7.030000E+03	3.530584E-15	1.150792E-17
7.040000E+03	3.558951E-15	1.161407E-17
7.050000E+03	3.581331E-15	1.170039E-17
7.060000E+03	3.596606E-15	1.176318E-17
7.070000E+03	3.603916E-15	1.179954E-17
7.080000E+03	3.602904E-15	1.180823E-17
7.090000E+03	3.593542E-15	1.178909E-17
7.100000E+03	3.576202E-15	1.174328E-17
7.110000E+03	3.551627E-15	1.167319E-17
7.120000E+03	3.521080E-15	1.158294E-17
7.130000E+03	3.485877E-15	1.147683E-17
7.140000E+03	3.447544E-15	1.135988E-17
7.150000E+03	3.407595E-15	1.123710E-17
7.160000E+03	3.367313E-15	1.111271E-17
7.170000E+03	3.327990E-15	1.099104E-17
7.180000E+03	3.290601E-15	1.087533E-17
7.190000E+03	3.255814E-15	1.076785E-17
7.200000E+03	3.224179E-15	1.067044E-17
7.210000E+03	3.195930E-15	1.058394E-17
7.220000E+03	3.171083E-15	1.050845E-17
7.230000E+03	3.149305E-15	1.044292E-17
7.240000E+03	3.130383E-15	1.038669E-17
7.250000E+03	3.113946E-15	1.033856E-17
7.260000E+03	3.099575E-15	1.029719E-17
7.270000E+03	3.086849E-15	1.026122E-17
7.280000E+03	3.075478E-15	1.022972E-17
7.290000E+03	3.065131E-15	1.020163E-17
7.300000E+03	3.055634E-15	1.017639E-17
7.310000E+03	3.046889E-15	1.015373E-17
7.320000E+03	3.038836E-15	1.013346E-17
7.330000E+03	3.031378E-15	1.011530E-17
7.340000E+03	3.024645E-15	1.009971E-17
7.350000E+03	3.018781E-15	1.008722E-17
7.360000E+03	3.013720E-15	1.007763E-17
7.370000E+03	3.009566E-15	1.007133E-17
7.380000E+03	3.006301E-15	1.006831E-17
7.390000E+03	3.003882E-15	1.006845E-17
7.400000E+03	3.001958E-15	1.007061E-17
7.410000E+03	3.000183E-15	1.007368E-17
7.420000E+03	2.998074E-15	1.007605E-17
7.430000E+03	2.994846E-15	1.007512E-17
7.440000E+03	2.989784E-15	1.006851E-17
7.450000E+03	2.981874E-15	1.005281E-17
7.460000E+03	2.970514E-15	1.002598E-17
7.470000E+03	2.954980E-15	9.985575E-18
7.480000E+03	2.934789E-15	9.929921E-18
7.490000E+03	2.909788E-15	9.858449E-18
7.500000E+03	2.880148E-15	9.771666E-18
7.510000E+03	2.846104E-15	9.670281E-18
7.520000E+03	2.808371E-15	9.556650E-18
7.530000E+03	2.767960E-15	9.434141E-18
7.540000E+03	2.725639E-15	9.305306E-18
7.550000E+03	2.682599E-15	9.174167E-18
7.560000E+03	2.639895E-15	9.044295E-18
7.570000E+03	2.598668E-15	8.919590E-18
7.580000E+03	2.560067E-15	8.804012E-18
7.590000E+03	2.525287E-15	8.701702E-18
7.600000E+03	2.495228E-15	8.615831E-18
7.610000E+03	2.470589E-15	8.548898E-18
7.620000E+03	2.451705E-15	8.502174E-18
7.630000E+03	2.438471E-15	8.475419E-18
7.640000E+03	2.430472E-15	8.467316E-18
7.650000E+03	2.427131E-15	8.475973E-18
7.660000E+03	2.427681E-15	8.498832E-18
7.670000E+03	2.431504E-15	8.533832E-18
7.680000E+03	2.437797E-15	8.578239E-18
7.690000E+03	2.446036E-15	8.630288E-18
7.700000E+03	2.455836E-15	8.688688E-18
7.710000E+03	2.466797E-15	8.752076E-18
7.720000E+03	2.478654E-15	8.819568E-18
7.730000E+03	2.491185E-15	8.890409E-18
7.740000E+03	2.504237E-15	8.964099E-18
7.750000E+03	2.517704E-15	9.040289E-18
7.760000E+03	2.531478E-15	9.118627E-18
