#wls	flux	fluxerr
1.600000E+03	5.850425E-16	5.690677E-18
1.640000E+03	6.034699E-16	5.845558E-18
1.680000E+03	6.233206E-16	6.012053E-18
1.720000E+03	6.446011E-16	6.189975E-18
1.760000E+03	6.675637E-16	6.381475E-18
1.800000E+03	6.922155E-16	6.586316E-18
1.840000E+03	7.186864E-16	6.805408E-18
1.880000E+03	7.472301E-16	7.040793E-18
1.920000E+03	7.778535E-16	7.292132E-18
1.960000E+03	8.107479E-16	7.560792E-18
2.000000E+03	8.459807E-16	7.846935E-18
2.040000E+03	8.837420E-16	8.151819E-18
2.080000E+03	9.239712E-16	8.474346E-18
2.120000E+03	9.666676E-16	8.813955E-18
2.160000E+03	1.011763E-15	9.169452E-18
2.200000E+03	1.058873E-15	9.536785E-18
2.240000E+03	1.107542E-15	9.911340E-18
2.280000E+03	1.157559E-15	1.029076E-17
2.320000E+03	1.208961E-15	1.067491E-17
2.360000E+03	1.262474E-15	1.106968E-17
2.400000E+03	1.318695E-15	1.147963E-17
2.440000E+03	1.378149E-15	1.190853E-17
2.480000E+03	1.441482E-15	1.236102E-17
2.520000E+03	1.508946E-15	1.283819E-17
2.560000E+03	1.580904E-15	1.334195E-17
2.600000E+03	1.657576E-15	1.387289E-17
2.640000E+03	1.739221E-15	1.443178E-17
2.680000E+03	1.825874E-15	1.501748E-17
2.720000E+03	1.917542E-15	1.562852E-17
2.760000E+03	2.014124E-15	1.626251E-17
2.800000E+03	2.115401E-15	1.691614E-17
2.840000E+03	2.221097E-15	1.758563E-17
2.880000E+03	2.330983E-15	1.826761E-17
2.920000E+03	2.444860E-15	1.895901E-17
2.960000E+03	2.562655E-15	1.965772E-17
3.000000E+03	2.684323E-15	2.036186E-17
3.010000E+03	2.715407E-15	2.053902E-17
3.020000E+03	2.746661E-15	2.071586E-17
3.030000E+03	2.778192E-15	2.089314E-17
3.040000E+03	2.809915E-15	2.107022E-17
3.050000E+03	2.841872E-15	2.124738E-17
3.060000E+03	2.874100E-15	2.142487E-17
3.070000E+03	2.906455E-15	2.160158E-17
3.080000E+03	2.939092E-15	2.177867E-17
3.090000E+03	2.971862E-15	2.195500E-17
3.100000E+03	3.004860E-15	2.213124E-17
3.110000E+03	3.037993E-15	2.230668E-17
3.120000E+03	3.071229E-15	2.248109E-17
3.130000E+03	3.104656E-15	2.265507E-17
3.140000E+03	3.138115E-15	2.282745E-17
3.150000E+03	3.171748E-15	2.299927E-17
3.160000E+03	3.205337E-15	2.316889E-17
3.170000E+03	3.239016E-15	2.333730E-17
3.180000E+03	3.272622E-15	2.350331E-17
3.190000E+03	3.306227E-15	2.366742E-17
3.200000E+03	3.339721E-15	2.382884E-17
3.210000E+03	3.373111E-15	2.398762E-17
3.220000E+03	3.406343E-15	2.414338E-17
3.230000E+03	3.439359E-15	2.429570E-17
3.240000E+03	3.472041E-15	2.444378E-17
3.250000E+03	3.504445E-15	2.458800E-17
3.260000E+03	3.536450E-15	2.472754E-17
3.270000E+03	3.568048E-15	2.486236E-17
3.280000E+03	3.599115E-15	2.499162E-17
3.290000E+03	3.629584E-15	2.511489E-17
3.300000E+03	3.659444E-15	2.523213E-17
3.310000E+03	3.688574E-15	2.534255E-17
3.320000E+03	3.716963E-15	2.544610E-17
3.330000E+03	3.744545E-15	2.554241E-17
3.340000E+03	3.771154E-15	2.563038E-17
3.350000E+03	3.796843E-15	2.571045E-17
3.360000E+03	3.821511E-15	2.578199E-17
3.370000E+03	3.845098E-15	2.584467E-17
3.380000E+03	3.867500E-15	2.589788E-17
3.390000E+03	3.888503E-15	2.594027E-17
3.400000E+03	3.908092E-15	2.597184E-17
3.410000E+03	3.926057E-15	2.599130E-17
3.420000E+03	3.942184E-15	2.599738E-17
3.430000E+03	3.956293E-15	2.598902E-17
3.440000E+03	3.968112E-15	2.596459E-17
3.450000E+03	3.977259E-15	2.592178E-17
3.460000E+03	3.983521E-15	2.585942E-17
3.470000E+03	3.986529E-15	2.577534E-17
3.480000E+03	3.986046E-15	2.566828E-17
3.490000E+03	3.981838E-15	2.553701E-17
3.500000E+03	3.973693E-15	2.538047E-17
3.510000E+03	3.961469E-15	2.519807E-17
3.520000E+03	3.945091E-15	2.498966E-17
3.530000E+03	3.924502E-15	2.475524E-17
3.540000E+03	3.899729E-15	2.449529E-17
3.550000E+03	3.870926E-15	2.421114E-17
3.560000E+03	3.838259E-15	2.390414E-17
3.570000E+03	3.802022E-15	2.357645E-17
3.580000E+03	3.762524E-15	2.323027E-17
3.590000E+03	3.720232E-15	2.286874E-17
3.600000E+03	3.675671E-15	2.249532E-17
3.610000E+03	3.629546E-15	2.211451E-17
3.620000E+03	3.582527E-15	2.173050E-17
3.630000E+03	3.535431E-15	2.134833E-17
3.640000E+03	3.489029E-15	2.097263E-17
3.650000E+03	3.444233E-15	2.060884E-17
3.660000E+03	3.401962E-15	2.026230E-17
3.670000E+03	3.363170E-15	1.993847E-17
3.680000E+03	3.328854E-15	1.964297E-17
3.690000E+03	3.300044E-15	1.938147E-17
3.700000E+03	3.277766E-15	1.915954E-17
3.710000E+03	3.263127E-15	1.898307E-17
3.720000E+03	3.257216E-15	1.885773E-17
3.730000E+03	3.261241E-15	1.878977E-17
3.740000E+03	3.276346E-15	1.878490E-17
3.750000E+03	3.303734E-15	1.884907E-17
3.760000E+03	3.344666E-15	1.898840E-17
3.770000E+03	3.400347E-15	1.920854E-17
3.780000E+03	3.471967E-15	1.951494E-17
3.790000E+03	3.560835E-15	1.991356E-17
3.800000E+03	3.668114E-15	2.040938E-17
3.810000E+03	3.795023E-15	2.100759E-17
3.820000E+03	3.942763E-15	2.171311E-17
3.830000E+03	4.112203E-15	2.252890E-17
3.840000E+03	4.303934E-15	2.345632E-17
3.850000E+03	4.518352E-15	2.449558E-17
3.860000E+03	4.755063E-15	2.564259E-17
3.870000E+03	5.013244E-15	2.689101E-17
3.880000E+03	5.291096E-15	2.822936E-17
3.890000E+03	5.585795E-15	2.964094E-17
3.900000E+03	5.893166E-15	3.110226E-17
3.910000E+03	6.207893E-15	3.258429E-17
3.920000E+03	6.523180E-15	3.405092E-17
3.930000E+03	6.831067E-15	3.546076E-17
3.940000E+03	7.122834E-15	3.676943E-17
3.950000E+03	7.389806E-15	3.793381E-17
3.960000E+03	7.623320E-15	3.891182E-17
3.970000E+03	7.815654E-15	3.966719E-17
3.980000E+03	7.960849E-15	4.017344E-17
3.990000E+03	8.054885E-15	4.041452E-17
4.000000E+03	8.095760E-15	4.038490E-17
4.010000E+03	8.084298E-15	4.009333E-17
4.020000E+03	8.023526E-15	3.955930E-17
4.030000E+03	7.918504E-15	3.881193E-17
4.040000E+03	7.776079E-15	3.788845E-17
4.050000E+03	7.604290E-15	3.683108E-17
4.060000E+03	7.411326E-15	3.568181E-17
4.070000E+03	7.205577E-15	3.448266E-17
4.080000E+03	6.994925E-15	3.327223E-17
4.090000E+03	6.786179E-15	3.208317E-17
4.100000E+03	6.584862E-15	3.094125E-17
4.110000E+03	6.395416E-15	2.986661E-17
4.120000E+03	6.221313E-15	2.887432E-17
4.130000E+03	6.064652E-15	2.797275E-17
4.140000E+03	5.926874E-15	2.716701E-17
4.150000E+03	5.808715E-15	2.645883E-17
4.160000E+03	5.710205E-15	2.584666E-17
4.170000E+03	5.631013E-15	2.532734E-17
4.180000E+03	5.570449E-15	2.489614E-17
4.190000E+03	5.527415E-15	2.454661E-17
4.200000E+03	5.500569E-15	2.427135E-17
4.210000E+03	5.488596E-15	2.406324E-17
4.220000E+03	5.489911E-15	2.391413E-17
4.230000E+03	5.502959E-15	2.381620E-17
4.240000E+03	5.526048E-15	2.376122E-17
4.250000E+03	5.557363E-15	2.374062E-17
4.260000E+03	5.594941E-15	2.374543E-17
4.270000E+03	5.636714E-15	2.376645E-17
4.280000E+03	5.680118E-15	2.379264E-17
4.290000E+03	5.722421E-15	2.381254E-17
4.300000E+03	5.760607E-15	2.381381E-17
4.310000E+03	5.791143E-15	2.378236E-17
4.320000E+03	5.810466E-15	2.370431E-17
4.330000E+03	5.815230E-15	2.356706E-17
4.340000E+03	5.802369E-15	2.335949E-17
4.350000E+03	5.769534E-15	2.307365E-17
4.360000E+03	5.715372E-15	2.270578E-17
4.370000E+03	5.640026E-15	2.225815E-17
4.380000E+03	5.545359E-15	2.173975E-17
4.390000E+03	5.435471E-15	2.116804E-17
4.400000E+03	5.317050E-15	2.057004E-17
4.410000E+03	5.199110E-15	1.998103E-17
4.420000E+03	5.091006E-15	1.943666E-17
4.430000E+03	5.001213E-15	1.896828E-17
4.440000E+03	4.937179E-15	1.860256E-17
4.450000E+03	4.905012E-15	1.836044E-17
4.460000E+03	4.908599E-15	1.825403E-17
4.470000E+03	4.950809E-15	1.829135E-17
4.480000E+03	5.033739E-15	1.847737E-17
4.490000E+03	5.157639E-15	1.881018E-17
4.500000E+03	5.322136E-15	1.928567E-17
4.510000E+03	5.526232E-15	1.989758E-17
4.520000E+03	5.767478E-15	2.063461E-17
4.530000E+03	6.042398E-15	2.148213E-17
4.540000E+03	6.346250E-15	2.242140E-17
4.550000E+03	6.672429E-15	2.342764E-17
4.560000E+03	7.012639E-15	2.447081E-17
4.570000E+03	7.357340E-15	2.551729E-17
4.580000E+03	7.695506E-15	2.652920E-17
4.590000E+03	8.015528E-15	2.746759E-17
4.600000E+03	8.305757E-15	2.829430E-17
4.610000E+03	8.555966E-15	2.897689E-17
4.620000E+03	8.757137E-15	2.948772E-17
4.630000E+03	8.902126E-15	2.980605E-17
4.640000E+03	8.986052E-15	2.991909E-17
4.650000E+03	9.006482E-15	2.982238E-17
4.660000E+03	8.962960E-15	2.951802E-17
4.670000E+03	8.857477E-15	2.901599E-17
4.680000E+03	8.693893E-15	2.833204E-17
4.690000E+03	8.477898E-15	2.748746E-17
4.700000E+03	8.216882E-15	2.650849E-17
4.710000E+03	7.919116E-15	2.542358E-17
4.720000E+03	7.593922E-15	2.426390E-17
4.730000E+03	7.251247E-15	2.306195E-17
4.740000E+03	6.901016E-15	2.184949E-17
4.750000E+03	6.552152E-15	2.065454E-17
4.760000E+03	6.212732E-15	1.950191E-17
4.770000E+03	5.889612E-15	1.841219E-17
4.780000E+03	5.588385E-15	1.740161E-17
4.790000E+03	5.313140E-15	1.648158E-17
4.800000E+03	5.067657E-15	1.566239E-17
4.810000E+03	4.854726E-15	1.495124E-17
4.820000E+03	4.675385E-15	1.434991E-17
4.830000E+03	4.529800E-15	1.385756E-17
4.840000E+03	4.417569E-15	1.347170E-17
4.850000E+03	4.337706E-15	1.318819E-17
4.860000E+03	4.288791E-15	1.300169E-17
4.870000E+03	4.268992E-15	1.290571E-17
4.880000E+03	4.275915E-15	1.289225E-17
4.890000E+03	4.306781E-15	1.295226E-17
4.900000E+03	4.358081E-15	1.307464E-17
4.910000E+03	4.425427E-15	1.324582E-17
4.920000E+03	4.503637E-15	1.345000E-17
4.930000E+03	4.586961E-15	1.366985E-17
4.940000E+03	4.668973E-15	1.388619E-17
4.950000E+03	4.743004E-15	1.407927E-17
4.960000E+03	4.803007E-15	1.423133E-17
4.970000E+03	4.844541E-15	1.432944E-17
4.980000E+03	4.864402E-15	1.436442E-17
4.990000E+03	4.861480E-15	1.433327E-17
5.000000E+03	4.837488E-15	1.424129E-17
5.010000E+03	4.795838E-15	1.409873E-17
5.020000E+03	4.740796E-15	1.391825E-17
5.030000E+03	4.677011E-15	1.371354E-17
5.040000E+03	4.609259E-15	1.349861E-17
5.050000E+03	4.541916E-15	1.328621E-17
5.060000E+03	4.478552E-15	1.308669E-17
5.070000E+03	4.422134E-15	1.290859E-17
5.080000E+03	4.374974E-15	1.275852E-17
5.090000E+03	4.338059E-15	1.263920E-17
5.100000E+03	4.311892E-15	1.255198E-17
5.110000E+03	4.296835E-15	1.249776E-17
5.120000E+03	4.293201E-15	1.247734E-17
5.130000E+03	4.301227E-15	1.249127E-17
5.140000E+03	4.321528E-15	1.254124E-17
5.150000E+03	4.354860E-15	1.262933E-17
5.160000E+03	4.402335E-15	1.275867E-17
5.170000E+03	4.465082E-15	1.293241E-17
5.180000E+03	4.544200E-15	1.315364E-17
5.190000E+03	4.640880E-15	1.342571E-17
5.200000E+03	4.755968E-15	1.375094E-17
5.210000E+03	4.889606E-15	1.412966E-17
5.220000E+03	5.041443E-15	1.456074E-17
5.230000E+03	5.210413E-15	1.504102E-17
5.240000E+03	5.394161E-15	1.556360E-17
5.250000E+03	5.589300E-15	1.611866E-17
5.260000E+03	5.791763E-15	1.669438E-17
5.270000E+03	5.996405E-15	1.727591E-17
5.280000E+03	6.197351E-15	1.784630E-17
5.290000E+03	6.388353E-15	1.838754E-17
5.300000E+03	6.563313E-15	1.888212E-17
5.310000E+03	6.716336E-15	1.931313E-17
5.320000E+03	6.842051E-15	1.966517E-17
5.330000E+03	6.936406E-15	1.992671E-17
5.340000E+03	6.996374E-15	2.008915E-17
5.350000E+03	7.020311E-15	2.014789E-17
5.360000E+03	7.008306E-15	2.010332E-17
5.370000E+03	6.961808E-15	1.995974E-17
5.380000E+03	6.883447E-15	1.972481E-17
5.390000E+03	6.777594E-15	1.941119E-17
5.400000E+03	6.649332E-15	1.903355E-17
5.410000E+03	6.504589E-15	1.860895E-17
5.420000E+03	6.349790E-15	1.815585E-17
5.430000E+03	6.191750E-15	1.769377E-17
5.440000E+03	6.037566E-15	1.724301E-17
5.450000E+03	5.895165E-15	1.682619E-17
5.460000E+03	5.772045E-15	1.646465E-17
5.470000E+03	5.675573E-15	1.617929E-17
5.480000E+03	5.613506E-15	1.599208E-17
5.490000E+03	5.591270E-15	1.591829E-17
5.500000E+03	5.607807E-15	1.595466E-17
5.510000E+03	5.653904E-15	1.607476E-17
5.520000E+03	5.715336E-15	1.623799E-17
5.530000E+03	5.776711E-15	1.640052E-17
5.540000E+03	5.826062E-15	1.652838E-17
5.550000E+03	5.853496E-15	1.659358E-17
5.560000E+03	5.851208E-15	1.657414E-17
5.570000E+03	5.815695E-15	1.646033E-17
5.580000E+03	5.746342E-15	1.625063E-17
5.590000E+03	5.645138E-15	1.595090E-17
5.600000E+03	5.516290E-15	1.557326E-17
5.610000E+03	5.365670E-15	1.513450E-17
5.620000E+03	5.199864E-15	1.465336E-17
5.630000E+03	5.025579E-15	1.414888E-17
5.640000E+03	4.849566E-15	1.364015E-17
5.650000E+03	4.677797E-15	1.314399E-17
5.660000E+03	4.515464E-15	1.267497E-17
5.670000E+03	4.367127E-15	1.224584E-17
5.680000E+03	4.236333E-15	1.186644E-17
5.690000E+03	4.126090E-15	1.154507E-17
5.700000E+03	4.038787E-15	1.128822E-17
5.710000E+03	3.976220E-15	1.110073E-17
5.720000E+03	3.939716E-15	1.098608E-17
5.730000E+03	3.930252E-15	1.094675E-17
5.740000E+03	3.948440E-15	1.098419E-17
5.750000E+03	3.994298E-15	1.109816E-17
5.760000E+03	4.067312E-15	1.128698E-17
5.770000E+03	4.166684E-15	1.154814E-17
5.780000E+03	4.290490E-15	1.187603E-17
5.790000E+03	4.436238E-15	1.226352E-17
5.800000E+03	4.600473E-15	1.270081E-17
5.810000E+03	4.778573E-15	1.317497E-17
5.820000E+03	4.964862E-15	1.367021E-17
5.830000E+03	5.153058E-15	1.416917E-17
5.840000E+03	5.336431E-15	1.465336E-17
5.850000E+03	5.508181E-15	1.510420E-17
5.860000E+03	5.662125E-15	1.550490E-17
5.870000E+03	5.793704E-15	1.584323E-17
5.880000E+03	5.899540E-15	1.611025E-17
5.890000E+03	5.977739E-15	1.630111E-17
5.900000E+03	6.027562E-15	1.641415E-17
5.910000E+03	6.049629E-15	1.645142E-17
5.920000E+03	6.045457E-15	1.641739E-17
5.930000E+03	6.017171E-15	1.631816E-17
5.940000E+03	5.967605E-15	1.616170E-17
5.950000E+03	5.899879E-15	1.595675E-17
5.960000E+03	5.817099E-15	1.571190E-17
5.970000E+03	5.722613E-15	1.543638E-17
5.980000E+03	5.619517E-15	1.513870E-17
5.990000E+03	5.510965E-15	1.482744E-17
6.000000E+03	5.399890E-15	1.451056E-17
6.010000E+03	5.288898E-15	1.419510E-17
6.020000E+03	5.180290E-15	1.388725E-17
6.030000E+03	5.075879E-15	1.359184E-17
6.040000E+03	4.977361E-15	1.331338E-17
6.050000E+03	4.885673E-15	1.305434E-17
6.060000E+03	4.801650E-15	1.281689E-17
6.070000E+03	4.725812E-15	1.260237E-17
6.080000E+03	4.658432E-15	1.241146E-17
6.090000E+03	4.599641E-15	1.224445E-17
6.100000E+03	4.549509E-15	1.210148E-17
6.110000E+03	4.508014E-15	1.198247E-17
6.120000E+03	4.474910E-15	1.188673E-17
6.130000E+03	4.450066E-15	1.181388E-17
6.140000E+03	4.432724E-15	1.176191E-17
6.150000E+03	4.422009E-15	1.172850E-17
6.160000E+03	4.416547E-15	1.171002E-17
6.170000E+03	4.414600E-15	1.170188E-17
6.180000E+03	4.413550E-15	1.169718E-17
6.190000E+03	4.409905E-15	1.168670E-17
6.200000E+03	4.398678E-15	1.165725E-17
6.210000E+03	4.374319E-15	1.159413E-17
6.220000E+03	4.330851E-15	1.148144E-17
6.230000E+03	4.262196E-15	1.130298E-17
6.240000E+03	4.165555E-15	1.105119E-17
6.250000E+03	4.047004E-15	1.074202E-17
6.260000E+03	3.920402E-15	1.041210E-17
6.270000E+03	3.800257E-15	1.009983E-17
6.280000E+03	3.698506E-15	9.836904E-18
6.290000E+03	3.620652E-15	9.637995E-18
6.300000E+03	3.569127E-15	9.509677E-18
6.310000E+03	3.544920E-15	9.454734E-18
6.320000E+03	3.546349E-15	9.468865E-18
6.330000E+03	3.570690E-15	9.545003E-18
6.340000E+03	3.614751E-15	9.674813E-18
6.350000E+03	3.674669E-15	9.848155E-18
6.360000E+03	3.746151E-15	1.005370E-17
6.370000E+03	3.824773E-15	1.027971E-17
6.380000E+03	3.905971E-15	1.051401E-17
6.390000E+03	3.985173E-15	1.074434E-17
6.400000E+03	4.058046E-15	1.095901E-17
6.410000E+03	4.120934E-15	1.114805E-17
6.420000E+03	4.170696E-15	1.130282E-17
6.430000E+03	4.204906E-15	1.141653E-17
6.440000E+03	4.222893E-15	1.148710E-17
6.450000E+03	4.224788E-15	1.151460E-17
6.460000E+03	4.211657E-15	1.150165E-17
6.470000E+03	4.185742E-15	1.145410E-17
6.480000E+03	4.149744E-15	1.137909E-17
6.490000E+03	4.106963E-15	1.128547E-17
6.500000E+03	4.061006E-15	1.118300E-17
6.510000E+03	4.015634E-15	1.108197E-17
6.520000E+03	3.974294E-15	1.099186E-17
6.530000E+03	3.940444E-15	1.092231E-17
6.540000E+03	3.916181E-15	1.087922E-17
6.550000E+03	3.902481E-15	1.086545E-17
6.560000E+03	3.899596E-15	1.088188E-17
6.570000E+03	3.907394E-15	1.092831E-17
6.580000E+03	3.925539E-15	1.100397E-17
6.590000E+03	3.953058E-15	1.110629E-17
6.600000E+03	3.988597E-15	1.123162E-17
6.610000E+03	4.030554E-15	1.137557E-17
6.620000E+03	4.076810E-15	1.153222E-17
6.630000E+03	4.125024E-15	1.169502E-17
6.640000E+03	4.172556E-15	1.185645E-17
6.650000E+03	4.216955E-15	1.200951E-17
6.660000E+03	4.255784E-15	1.214715E-17
6.670000E+03	4.286799E-15	1.226282E-17
6.680000E+03	4.308421E-15	1.235181E-17
6.690000E+03	4.319379E-15	1.241028E-17
6.700000E+03	4.319002E-15	1.243607E-17
6.710000E+03	4.306965E-15	1.242800E-17
6.720000E+03	4.283639E-15	1.238692E-17
6.730000E+03	4.249800E-15	1.231485E-17
6.740000E+03	4.206349E-15	1.221421E-17
6.750000E+03	4.154701E-15	1.208893E-17
6.760000E+03	4.096289E-15	1.194303E-17
6.770000E+03	4.032704E-15	1.178106E-17
6.780000E+03	3.965428E-15	1.160724E-17
6.790000E+03	3.895987E-15	1.142601E-17
6.800000E+03	3.825797E-15	1.124148E-17
6.810000E+03	3.755970E-15	1.105693E-17
6.820000E+03	3.687828E-15	1.087626E-17
6.830000E+03	3.622292E-15	1.070225E-17
6.840000E+03	3.560451E-15	1.053816E-17
6.850000E+03	3.503042E-15	1.038624E-17
6.860000E+03	3.450841E-15	1.024888E-17
6.870000E+03	3.404575E-15	1.012833E-17
6.880000E+03	3.364812E-15	1.002639E-17
6.890000E+03	3.331936E-15	9.944296E-18
6.900000E+03	3.306468E-15	9.883718E-18
6.910000E+03	3.288610E-15	9.845367E-18
6.920000E+03	3.278562E-15	9.829955E-18
6.930000E+03	3.276205E-15	9.837232E-18
6.940000E+03	3.281441E-15	9.867003E-18
6.950000E+03	3.293907E-15	9.918274E-18
6.960000E+03	3.313014E-15	9.989358E-18
6.970000E+03	3.338090E-15	1.007831E-17
6.980000E+03	3.368098E-15	1.018206E-17
6.990000E+03	3.401733E-15	1.029671E-17
7.000000E+03	3.437574E-15	1.041799E-17
7.010000E+03	3.473991E-15	1.054098E-17
7.020000E+03	3.509310E-15	1.066060E-17
7.030000E+03	3.541681E-15	1.077120E-17
7.040000E+03	3.569643E-15	1.086831E-17
7.050000E+03	3.591614E-15	1.094707E-17
7.060000E+03	3.606484E-15	1.100403E-17
7.070000E+03	3.613378E-15	1.103646E-17
7.080000E+03	3.611926E-15	1.104316E-17
7.090000E+03	3.602083E-15	1.102394E-17
7.100000E+03	3.584223E-15	1.097986E-17
7.110000E+03	3.559092E-15	1.091318E-17
7.120000E+03	3.527950E-15	1.082772E-17
7.130000E+03	3.492134E-15	1.072753E-17
7.140000E+03	3.453193E-15	1.061739E-17
7.150000E+03	3.412647E-15	1.050194E-17
7.160000E+03	3.371782E-15	1.038517E-17
7.170000E+03	3.331884E-15	1.027107E-17
7.180000E+03	3.293904E-15	1.016258E-17
7.190000E+03	3.258520E-15	1.006184E-17
7.200000E+03	3.226280E-15	9.970584E-18
7.210000E+03	3.197393E-15	9.889508E-18
7.220000E+03	3.171902E-15	9.818784E-18
7.230000E+03	3.149482E-15	9.757455E-18
7.240000E+03	3.129925E-15	9.704915E-18
7.250000E+03	3.112876E-15	9.660108E-18
7.260000E+03	3.097928E-15	9.621808E-18
7.270000E+03	3.084683E-15	9.588816E-18
7.280000E+03	3.072842E-15	9.560237E-18
7.290000E+03	3.062075E-15	9.535070E-18
7.300000E+03	3.052214E-15	9.512829E-18
7.310000E+03	3.043134E-15	9.493145E-18
7.320000E+03	3.034751E-15	9.475791E-18
7.330000E+03	3.026956E-15	9.460450E-18
7.340000E+03	3.019847E-15	9.447456E-18
7.350000E+03	3.013544E-15	9.437219E-18
7.360000E+03	3.007963E-15	9.429501E-18
7.370000E+03	3.003191E-15	9.424606E-18
7.380000E+03	2.999205E-15	9.422498E-18
7.390000E+03	2.995950E-15	9.423031E-18
7.400000E+03	2.993087E-15	9.425174E-18
7.410000E+03	2.990277E-15	9.427885E-18
7.420000E+03	2.987051E-15	9.429710E-18
7.430000E+03	2.982644E-15	9.428252E-18
7.440000E+03	2.976369E-15	9.421344E-18
7.450000E+03	2.967259E-15	9.405924E-18
7.460000E+03	2.954726E-15	9.380104E-18
7.470000E+03	2.938083E-15	9.341672E-18
7.480000E+03	2.916924E-15	9.289291E-18
7.490000E+03	2.891084E-15	9.222361E-18
7.500000E+03	2.860766E-15	9.141443E-18
7.510000E+03	2.826263E-15	9.047386E-18
7.520000E+03	2.788242E-15	8.942234E-18
7.530000E+03	2.747696E-15	8.829097E-18
7.540000E+03	2.705399E-15	8.710395E-18
7.550000E+03	2.662499E-15	8.589771E-18
7.560000E+03	2.620029E-15	8.470534E-18
7.570000E+03	2.579138E-15	8.356384E-18
7.580000E+03	2.540942E-15	8.250958E-18
7.590000E+03	2.506622E-15	8.158136E-18
7.600000E+03	2.477079E-15	8.080921E-18
7.610000E+03	2.453054E-15	8.021835E-18
7.620000E+03	2.434973E-15	7.982385E-18
7.630000E+03	2.422589E-15	7.961895E-18
7.640000E+03	2.415371E-15	7.958755E-18
7.650000E+03	2.412684E-15	7.970999E-18
7.660000E+03	2.413724E-15	7.996075E-18
7.670000E+03	2.417833E-15	8.031912E-18
7.680000E+03	2.424196E-15	8.075877E-18
7.690000E+03	2.432308E-15	8.126361E-18
7.700000E+03	2.441773E-15	8.182088E-18
7.710000E+03	2.452212E-15	8.241843E-18
7.720000E+03	2.463407E-15	8.304931E-18
7.730000E+03	2.475157E-15	8.370700E-18
7.740000E+03	2.487348E-15	8.438800E-18
7.750000E+03	2.499923E-15	8.509062E-18
7.760000E+03	2.512794E-15	8.581213E-18
