#wls	flux	fluxerr
1.600000E+03	2.177711E-16	3.288435E-17
1.640000E+03	2.238470E-16	3.360482E-17
1.680000E+03	2.302563E-16	3.435965E-17
1.720000E+03	2.370286E-16	3.515190E-17
1.760000E+03	2.441643E-16	3.598009E-17
1.800000E+03	2.516914E-16	3.684675E-17
1.840000E+03	2.596367E-16	3.775410E-17
1.880000E+03	2.680558E-16	3.870828E-17
1.920000E+03	2.769135E-16	3.970219E-17
1.960000E+03	2.862912E-16	4.074535E-17
2.000000E+03	2.961782E-16	4.183386E-17
2.040000E+03	3.066512E-16	4.297601E-17
2.080000E+03	3.177530E-16	4.417500E-17
2.120000E+03	3.295531E-16	4.543737E-17
2.160000E+03	3.421781E-16	4.677706E-17
2.200000E+03	3.556860E-16	4.819796E-17
2.240000E+03	3.702830E-16	4.972348E-17
2.280000E+03	3.860394E-16	5.135774E-17
2.320000E+03	4.031059E-16	5.311492E-17
2.360000E+03	4.214878E-16	5.498925E-17
2.400000E+03	4.410726E-16	5.695949E-17
2.440000E+03	4.617846E-16	5.900949E-17
2.480000E+03	4.835180E-16	6.111949E-17
2.520000E+03	5.061646E-16	6.326985E-17
2.560000E+03	5.295467E-16	6.543273E-17
2.600000E+03	5.534452E-16	6.757615E-17
2.640000E+03	5.776883E-16	6.967498E-17
2.680000E+03	6.019321E-16	7.168454E-17
2.720000E+03	6.258749E-16	7.356716E-17
2.760000E+03	6.491340E-16	7.527768E-17
2.800000E+03	6.711928E-16	7.675815E-17
2.840000E+03	6.916960E-16	7.797226E-17
2.880000E+03	7.101622E-16	7.887229E-17
2.920000E+03	7.262429E-16	7.942860E-17
2.960000E+03	7.397349E-16	7.962996E-17
3.000000E+03	7.503478E-16	7.945775E-17
3.010000E+03	7.525458E-16	7.935741E-17
3.020000E+03	7.545314E-16	7.923144E-17
3.030000E+03	7.563409E-16	7.908389E-17
3.040000E+03	7.579409E-16	7.891151E-17
3.050000E+03	7.593440E-16	7.871589E-17
3.060000E+03	7.605403E-16	7.849626E-17
3.070000E+03	7.615423E-16	7.825418E-17
3.080000E+03	7.623614E-16	7.799108E-17
3.090000E+03	7.629668E-16	7.770406E-17
3.100000E+03	7.633708E-16	7.739466E-17
3.110000E+03	7.635850E-16	7.706434E-17
3.120000E+03	7.636009E-16	7.671248E-17
3.130000E+03	7.634103E-16	7.633858E-17
3.140000E+03	7.630453E-16	7.594608E-17
3.150000E+03	7.624786E-16	7.553254E-17
3.160000E+03	7.617039E-16	7.509764E-17
3.170000E+03	7.607715E-16	7.464660E-17
3.180000E+03	7.596385E-16	7.417546E-17
3.190000E+03	7.583362E-16	7.368757E-17
3.200000E+03	7.568426E-16	7.318104E-17
3.210000E+03	7.551896E-16	7.265923E-17
3.220000E+03	7.533738E-16	7.212204E-17
3.230000E+03	7.513933E-16	7.156956E-17
3.240000E+03	7.492636E-16	7.100350E-17
3.250000E+03	7.470001E-16	7.042554E-17
3.260000E+03	7.445876E-16	6.983446E-17
3.270000E+03	7.420434E-16	6.923212E-17
3.280000E+03	7.393705E-16	6.861900E-17
3.290000E+03	7.365874E-16	6.799703E-17
3.300000E+03	7.336988E-16	6.736680E-17
3.310000E+03	7.307106E-16	6.672905E-17
3.320000E+03	7.276436E-16	6.608581E-17
3.330000E+03	7.244790E-16	6.543554E-17
3.340000E+03	7.212664E-16	6.478287E-17
3.350000E+03	7.179900E-16	6.412645E-17
3.360000E+03	7.146621E-16	6.346752E-17
3.370000E+03	7.113088E-16	6.280847E-17
3.380000E+03	7.079323E-16	6.214956E-17
3.390000E+03	7.045374E-16	6.149126E-17
3.400000E+03	7.011426E-16	6.083524E-17
3.410000E+03	6.977567E-16	6.018227E-17
3.420000E+03	6.944123E-16	5.953515E-17
3.430000E+03	6.911005E-16	5.889309E-17
3.440000E+03	6.878476E-16	5.825829E-17
3.450000E+03	6.846714E-16	5.763216E-17
3.460000E+03	6.815823E-16	5.701549E-17
3.470000E+03	6.786040E-16	5.641014E-17
3.480000E+03	6.757626E-16	5.581810E-17
3.490000E+03	6.730779E-16	5.524080E-17
3.500000E+03	6.705642E-16	5.467917E-17
3.510000E+03	6.682574E-16	5.413589E-17
3.520000E+03	6.661878E-16	5.361306E-17
3.530000E+03	6.643805E-16	5.311235E-17
3.540000E+03	6.628731E-16	5.263631E-17
3.550000E+03	6.617057E-16	5.218767E-17
3.560000E+03	6.609216E-16	5.176926E-17
3.570000E+03	6.605577E-16	5.138335E-17
3.580000E+03	6.606602E-16	5.103283E-17
3.590000E+03	6.612668E-16	5.071985E-17
3.600000E+03	6.624357E-16	5.044803E-17
3.610000E+03	6.641984E-16	5.021882E-17
3.620000E+03	6.665913E-16	5.003398E-17
3.630000E+03	6.696412E-16	4.989449E-17
3.640000E+03	6.733824E-16	4.980177E-17
3.650000E+03	6.778493E-16	4.975721E-17
3.660000E+03	6.830775E-16	4.976217E-17
3.670000E+03	6.891105E-16	4.981854E-17
3.680000E+03	6.959854E-16	4.992762E-17
3.690000E+03	7.037541E-16	5.009166E-17
3.700000E+03	7.124537E-16	5.031179E-17
3.710000E+03	7.221422E-16	5.059045E-17
3.720000E+03	7.328615E-16	5.092888E-17
3.730000E+03	7.446514E-16	5.132804E-17
3.740000E+03	7.575618E-16	5.178952E-17
3.750000E+03	7.716319E-16	5.231400E-17
3.760000E+03	7.868942E-16	5.290168E-17
3.770000E+03	8.033741E-16	5.355217E-17
3.780000E+03	8.211027E-16	5.426541E-17
3.790000E+03	8.400782E-16	5.503907E-17
3.800000E+03	8.603003E-16	5.587097E-17
3.810000E+03	8.817626E-16	5.675847E-17
3.820000E+03	9.044092E-16	5.769584E-17
3.830000E+03	9.282050E-16	5.867875E-17
3.840000E+03	9.530689E-16	5.970006E-17
3.850000E+03	9.788972E-16	6.075142E-17
3.860000E+03	1.005577E-15	6.182418E-17
3.870000E+03	1.032951E-15	6.290722E-17
3.880000E+03	1.060848E-15	6.398892E-17
3.890000E+03	1.089059E-15	6.505583E-17
3.900000E+03	1.117371E-15	6.609474E-17
3.910000E+03	1.145519E-15	6.708992E-17
3.920000E+03	1.173253E-15	6.802712E-17
3.930000E+03	1.200289E-15	6.889074E-17
3.940000E+03	1.226353E-15	6.966634E-17
3.950000E+03	1.251169E-15	7.034015E-17
3.960000E+03	1.274451E-15	7.089848E-17
3.970000E+03	1.295959E-15	7.133074E-17
3.980000E+03	1.315488E-15	7.162892E-17
3.990000E+03	1.332827E-15	7.178517E-17
4.000000E+03	1.347864E-15	7.179744E-17
4.010000E+03	1.360479E-15	7.166345E-17
4.020000E+03	1.370648E-15	7.138638E-17
4.030000E+03	1.378381E-15	7.097107E-17
4.040000E+03	1.383740E-15	7.042505E-17
4.050000E+03	1.386834E-15	6.975814E-17
4.060000E+03	1.387834E-15	6.898283E-17
4.070000E+03	1.386922E-15	6.811199E-17
4.080000E+03	1.384353E-15	6.716134E-17
4.090000E+03	1.380366E-15	6.614545E-17
4.100000E+03	1.375231E-15	6.507962E-17
4.110000E+03	1.369222E-15	6.397887E-17
4.120000E+03	1.362630E-15	6.285818E-17
4.130000E+03	1.355724E-15	6.173097E-17
4.140000E+03	1.348754E-15	6.060907E-17
4.150000E+03	1.341973E-15	5.950390E-17
4.160000E+03	1.335603E-15	5.842493E-17
4.170000E+03	1.329834E-15	5.737966E-17
4.180000E+03	1.324863E-15	5.637550E-17
4.190000E+03	1.320817E-15	5.541641E-17
4.200000E+03	1.317827E-15	5.450626E-17
4.210000E+03	1.315999E-15	5.364761E-17
4.220000E+03	1.315390E-15	5.284069E-17
4.230000E+03	1.316039E-15	5.208500E-17
4.240000E+03	1.317970E-15	5.137930E-17
4.250000E+03	1.321159E-15	5.072055E-17
4.260000E+03	1.325591E-15	5.010603E-17
4.270000E+03	1.331209E-15	4.953150E-17
4.280000E+03	1.337920E-15	4.899163E-17
4.290000E+03	1.345663E-15	4.848240E-17
4.300000E+03	1.354315E-15	4.799776E-17
4.310000E+03	1.363768E-15	4.753255E-17
4.320000E+03	1.373920E-15	4.708198E-17
4.330000E+03	1.384659E-15	4.664129E-17
4.340000E+03	1.395884E-15	4.620625E-17
4.350000E+03	1.407516E-15	4.577372E-17
4.360000E+03	1.419472E-15	4.534049E-17
4.370000E+03	1.431727E-15	4.490547E-17
4.380000E+03	1.444276E-15	4.446828E-17
4.390000E+03	1.457196E-15	4.403097E-17
4.400000E+03	1.470632E-15	4.359748E-17
4.410000E+03	1.484880E-15	4.317584E-17
4.420000E+03	1.500268E-15	4.277439E-17
4.430000E+03	1.517168E-15	4.240191E-17
4.440000E+03	1.535951E-15	4.206642E-17
4.450000E+03	1.556998E-15	4.177539E-17
4.460000E+03	1.580663E-15	4.153482E-17
4.470000E+03	1.607269E-15	4.134921E-17
4.480000E+03	1.637062E-15	4.122034E-17
4.490000E+03	1.670239E-15	4.114840E-17
4.500000E+03	1.706915E-15	4.113122E-17
4.510000E+03	1.747074E-15	4.116345E-17
4.520000E+03	1.790628E-15	4.123824E-17
4.530000E+03	1.837319E-15	4.134524E-17
4.540000E+03	1.886800E-15	4.147282E-17
4.550000E+03	1.938529E-15	4.160604E-17
4.560000E+03	1.991869E-15	4.172930E-17
4.570000E+03	2.046011E-15	4.182484E-17
4.580000E+03	2.100014E-15	4.187413E-17
4.590000E+03	2.152868E-15	4.185927E-17
4.600000E+03	2.203455E-15	4.176242E-17
4.610000E+03	2.250637E-15	4.156765E-17
4.620000E+03	2.293295E-15	4.126156E-17
4.630000E+03	2.330332E-15	4.083331E-17
4.640000E+03	2.360857E-15	4.027751E-17
4.650000E+03	2.384089E-15	3.959216E-17
4.660000E+03	2.399481E-15	3.878025E-17
4.670000E+03	2.406718E-15	3.784914E-17
4.680000E+03	2.405754E-15	3.681056E-17
4.690000E+03	2.396816E-15	3.568002E-17
4.700000E+03	2.380415E-15	3.447637E-17
4.710000E+03	2.357263E-15	3.321999E-17
4.720000E+03	2.328307E-15	3.193302E-17
4.730000E+03	2.294594E-15	3.063695E-17
4.740000E+03	2.257312E-15	2.935322E-17
4.750000E+03	2.217701E-15	2.810187E-17
4.760000E+03	2.176982E-15	2.690074E-17
4.770000E+03	2.136359E-15	2.576563E-17
4.780000E+03	2.096928E-15	2.470950E-17
4.790000E+03	2.059701E-15	2.374306E-17
4.800000E+03	2.025595E-15	2.287489E-17
4.810000E+03	1.995410E-15	2.211157E-17
4.820000E+03	1.969746E-15	2.145702E-17
4.830000E+03	1.949125E-15	2.091420E-17
4.840000E+03	1.933870E-15	2.048399E-17
4.850000E+03	1.924185E-15	2.016623E-17
4.860000E+03	1.920143E-15	1.995846E-17
4.870000E+03	1.921689E-15	1.985591E-17
4.880000E+03	1.928638E-15	1.985292E-17
4.890000E+03	1.940676E-15	1.994301E-17
4.900000E+03	1.957373E-15	2.011893E-17
4.910000E+03	1.978120E-15	2.037192E-17
4.920000E+03	2.002201E-15	2.069229E-17
4.930000E+03	2.028722E-15	2.106860E-17
4.940000E+03	2.056704E-15	2.148847E-17
4.950000E+03	2.085013E-15	2.193763E-17
4.960000E+03	2.112438E-15	2.240069E-17
4.970000E+03	2.137835E-15	2.286252E-17
4.980000E+03	2.160000E-15	2.330693E-17
4.990000E+03	2.177983E-15	2.371993E-17
5.000000E+03	2.190941E-15	2.408841E-17
5.010000E+03	2.198363E-15	2.440258E-17
5.020000E+03	2.200000E-15	2.465554E-17
5.030000E+03	2.195990E-15	2.484476E-17
5.040000E+03	2.186681E-15	2.497045E-17
5.050000E+03	2.172762E-15	2.503707E-17
5.060000E+03	2.155029E-15	2.505095E-17
5.070000E+03	2.134480E-15	2.502134E-17
5.080000E+03	2.112102E-15	2.495806E-17
5.090000E+03	2.088874E-15	2.487140E-17
5.100000E+03	2.065773E-15	2.477226E-17
5.110000E+03	2.043628E-15	2.467018E-17
5.120000E+03	2.023182E-15	2.457413E-17
5.130000E+03	2.005052E-15	2.449176E-17
5.140000E+03	1.989816E-15	2.443054E-17
5.150000E+03	1.977888E-15	2.439604E-17
5.160000E+03	1.969673E-15	2.439379E-17
5.170000E+03	1.965496E-15	2.442838E-17
5.180000E+03	1.965615E-15	2.450352E-17
5.190000E+03	1.970273E-15	2.462272E-17
5.200000E+03	1.979611E-15	2.478814E-17
5.210000E+03	1.993721E-15	2.500122E-17
5.220000E+03	2.012601E-15	2.526212E-17
5.230000E+03	2.036163E-15	2.556985E-17
5.240000E+03	2.064135E-15	2.592098E-17
5.250000E+03	2.096160E-15	2.631096E-17
5.260000E+03	2.131693E-15	2.673284E-17
5.270000E+03	2.170075E-15	2.717825E-17
5.280000E+03	2.210478E-15	2.763676E-17
5.290000E+03	2.251890E-15	2.809578E-17
5.300000E+03	2.293274E-15	2.854261E-17
5.310000E+03	2.333428E-15	2.896275E-17
5.320000E+03	2.371181E-15	2.934240E-17
5.330000E+03	2.405337E-15	2.966786E-17
5.340000E+03	2.434807E-15	2.992708E-17
5.350000E+03	2.458673E-15	3.011055E-17
5.360000E+03	2.476154E-15	3.021076E-17
5.370000E+03	2.486812E-15	3.022470E-17
5.380000E+03	2.490480E-15	3.015283E-17
5.390000E+03	2.487358E-15	3.000020E-17
5.400000E+03	2.478009E-15	2.977619E-17
5.410000E+03	2.463314E-15	2.949391E-17
5.420000E+03	2.444492E-15	2.917027E-17
5.430000E+03	2.423005E-15	2.882483E-17
5.440000E+03	2.400460E-15	2.847852E-17
5.450000E+03	2.378556E-15	2.815308E-17
5.460000E+03	2.358935E-15	2.786934E-17
5.470000E+03	2.343013E-15	2.764527E-17
5.480000E+03	2.331829E-15	2.749438E-17
5.490000E+03	2.325815E-15	2.742307E-17
5.500000E+03	2.324474E-15	2.742695E-17
5.510000E+03	2.326337E-15	2.749014E-17
5.520000E+03	2.329269E-15	2.758737E-17
5.530000E+03	2.330744E-15	2.768749E-17
5.540000E+03	2.328203E-15	2.775832E-17
5.550000E+03	2.319407E-15	2.777097E-17
5.560000E+03	2.302584E-15	2.770137E-17
5.570000E+03	2.276654E-15	2.753315E-17
5.580000E+03	2.241313E-15	2.725883E-17
5.590000E+03	2.196964E-15	2.687930E-17
5.600000E+03	2.144688E-15	2.640381E-17
5.610000E+03	2.086178E-15	2.584943E-17
5.620000E+03	2.023436E-15	2.523776E-17
5.630000E+03	1.958668E-15	2.459368E-17
5.640000E+03	1.894178E-15	2.394426E-17
5.650000E+03	1.832086E-15	2.331520E-17
5.660000E+03	1.774376E-15	2.273136E-17
5.670000E+03	1.722755E-15	2.221491E-17
5.680000E+03	1.678644E-15	2.178504E-17
5.690000E+03	1.643177E-15	2.145770E-17
5.700000E+03	1.617281E-15	2.124657E-17
5.710000E+03	1.601599E-15	2.116181E-17
5.720000E+03	1.596643E-15	2.121199E-17
5.730000E+03	1.602745E-15	2.140321E-17
5.740000E+03	1.620162E-15	2.174052E-17
5.750000E+03	1.648993E-15	2.222661E-17
5.760000E+03	1.689213E-15	2.286225E-17
5.770000E+03	1.740727E-15	2.364687E-17
5.780000E+03	1.803212E-15	2.457647E-17
5.790000E+03	1.876160E-15	2.564404E-17
5.800000E+03	1.958817E-15	2.683873E-17
5.810000E+03	2.050158E-15	2.814551E-17
5.820000E+03	2.148805E-15	2.954398E-17
5.830000E+03	2.253098E-15	3.100944E-17
5.840000E+03	2.361055E-15	3.251241E-17
5.850000E+03	2.470434E-15	3.401955E-17
5.860000E+03	2.578780E-15	3.549448E-17
5.870000E+03	2.683632E-15	3.690086E-17
5.880000E+03	2.782507E-15	3.820225E-17
5.890000E+03	2.873025E-15	3.936412E-17
5.900000E+03	2.953132E-15	4.035700E-17
5.910000E+03	3.021098E-15	4.115663E-17
5.920000E+03	3.075666E-15	4.174599E-17
5.930000E+03	3.115987E-15	4.211447E-17
5.940000E+03	3.141784E-15	4.226003E-17
5.950000E+03	3.153270E-15	4.218796E-17
5.960000E+03	3.151029E-15	4.190912E-17
5.970000E+03	3.136109E-15	4.144098E-17
5.980000E+03	3.109870E-15	4.080533E-17
5.990000E+03	3.073824E-15	4.002603E-17
6.000000E+03	3.029738E-15	3.913006E-17
6.010000E+03	2.979361E-15	3.814383E-17
6.020000E+03	2.924427E-15	3.709309E-17
6.030000E+03	2.866622E-15	3.600235E-17
6.040000E+03	2.807501E-15	3.489381E-17
6.050000E+03	2.748378E-15	3.378598E-17
6.060000E+03	2.690507E-15	3.269595E-17
6.070000E+03	2.634800E-15	3.163601E-17
6.080000E+03	2.582036E-15	3.061623E-17
6.090000E+03	2.532821E-15	2.964420E-17
6.100000E+03	2.487448E-15	2.872339E-17
6.110000E+03	2.446200E-15	2.785697E-17
6.120000E+03	2.409112E-15	2.704504E-17
6.130000E+03	2.376109E-15	2.628644E-17
6.140000E+03	2.346962E-15	2.557835E-17
6.150000E+03	2.321360E-15	2.491726E-17
6.160000E+03	2.298865E-15	2.429851E-17
6.170000E+03	2.278981E-15	2.371720E-17
6.180000E+03	2.261086E-15	2.316752E-17
6.190000E+03	2.244511E-15	2.264365E-17
6.200000E+03	2.228664E-15	2.214103E-17
6.210000E+03	2.212821E-15	2.165423E-17
6.220000E+03	2.196478E-15	2.118041E-17
6.230000E+03	2.179129E-15	2.071695E-17
6.240000E+03	2.160515E-15	2.026377E-17
6.250000E+03	2.140603E-15	1.982189E-17
6.260000E+03	2.119738E-15	1.939472E-17
6.270000E+03	2.098362E-15	1.898635E-17
6.280000E+03	2.077135E-15	1.860261E-17
6.290000E+03	2.056629E-15	1.824833E-17
6.300000E+03	2.037462E-15	1.792866E-17
6.310000E+03	2.020175E-15	1.764799E-17
6.320000E+03	2.005262E-15	1.741029E-17
6.330000E+03	1.993123E-15	1.721885E-17
6.340000E+03	1.984003E-15	1.707573E-17
6.350000E+03	1.978132E-15	1.698309E-17
6.360000E+03	1.975521E-15	1.694144E-17
6.370000E+03	1.976211E-15	1.695183E-17
6.380000E+03	1.980099E-15	1.701434E-17
6.390000E+03	1.986979E-15	1.712841E-17
6.400000E+03	1.996678E-15	1.729401E-17
6.410000E+03	2.008884E-15	1.751010E-17
6.420000E+03	2.023428E-15	1.777705E-17
6.430000E+03	2.039943E-15	1.809356E-17
6.440000E+03	2.058192E-15	1.845954E-17
6.450000E+03	2.077777E-15	1.887345E-17
6.460000E+03	2.098411E-15	1.933462E-17
6.470000E+03	2.119748E-15	1.984113E-17
6.480000E+03	2.141433E-15	2.038886E-17
6.490000E+03	2.163104E-15	2.097287E-17
6.500000E+03	2.184396E-15	2.158784E-17
6.510000E+03	2.204934E-15	2.222794E-17
6.520000E+03	2.224506E-15	2.288865E-17
6.530000E+03	2.242875E-15	2.356490E-17
6.540000E+03	2.260210E-15	2.425576E-17
6.550000E+03	2.276974E-15	2.496363E-17
6.560000E+03	2.293745E-15	2.569266E-17
6.570000E+03	2.311111E-15	2.644773E-17
6.580000E+03	2.329444E-15	2.723180E-17
6.590000E+03	2.349006E-15	2.804701E-17
6.600000E+03	2.369887E-15	2.889372E-17
6.610000E+03	2.391918E-15	2.976927E-17
6.620000E+03	2.414636E-15	3.066712E-17
6.630000E+03	2.437539E-15	3.157986E-17
6.640000E+03	2.459816E-15	3.249550E-17
6.650000E+03	2.480705E-15	3.340196E-17
6.660000E+03	2.499196E-15	3.428301E-17
6.670000E+03	2.514526E-15	3.512492E-17
6.680000E+03	2.525789E-15	3.591129E-17
6.690000E+03	2.532323E-15	3.662836E-17
6.700000E+03	2.533492E-15	3.726234E-17
6.710000E+03	2.529060E-15	3.780484E-17
6.720000E+03	2.518748E-15	3.824683E-17
6.730000E+03	2.502690E-15	3.858558E-17
6.740000E+03	2.481142E-15	3.882056E-17
6.750000E+03	2.454460E-15	3.895329E-17
6.760000E+03	2.423322E-15	3.899099E-17
6.770000E+03	2.388408E-15	3.894170E-17
6.780000E+03	2.350571E-15	3.881713E-17
6.790000E+03	2.310602E-15	3.862878E-17
6.800000E+03	2.269475E-15	3.839208E-17
6.810000E+03	2.228085E-15	3.812191E-17
6.820000E+03	2.187257E-15	3.783278E-17
6.830000E+03	2.147808E-15	3.753970E-17
6.840000E+03	2.110494E-15	3.725718E-17
6.850000E+03	2.076062E-15	3.700008E-17
6.860000E+03	2.044998E-15	3.677904E-17
6.870000E+03	2.017873E-15	3.660643E-17
6.880000E+03	1.995098E-15	3.649195E-17
6.890000E+03	1.976950E-15	3.644294E-17
6.900000E+03	1.963674E-15	3.646618E-17
6.910000E+03	1.955389E-15	3.656597E-17
6.920000E+03	1.952068E-15	3.674385E-17
6.930000E+03	1.953653E-15	3.700049E-17
6.940000E+03	1.959941E-15	3.733363E-17
6.950000E+03	1.970581E-15	3.773789E-17
6.960000E+03	1.985218E-15	3.820749E-17
6.970000E+03	2.003238E-15	3.873138E-17
6.980000E+03	2.024073E-15	3.929898E-17
6.990000E+03	2.046911E-15	3.989474E-17
7.000000E+03	2.071015E-15	4.050421E-17
7.010000E+03	2.095452E-15	4.110882E-17
7.020000E+03	2.119421E-15	4.169245E-17
7.030000E+03	2.142032E-15	4.223696E-17
7.040000E+03	2.162488E-15	4.272604E-17
7.050000E+03	2.180129E-15	4.314601E-17
7.060000E+03	2.194346E-15	4.348423E-17
7.070000E+03	2.204720E-15	4.373199E-17
7.080000E+03	2.211051E-15	4.388496E-17
7.090000E+03	2.213270E-15	4.394164E-17
7.100000E+03	2.211433E-15	4.390321E-17
7.110000E+03	2.205837E-15	4.377573E-17
7.120000E+03	2.196863E-15	4.356716E-17
7.130000E+03	2.184989E-15	4.328750E-17
7.140000E+03	2.170715E-15	4.294725E-17
7.150000E+03	2.154699E-15	4.256006E-17
7.160000E+03	2.137466E-15	4.213703E-17
7.170000E+03	2.119553E-15	4.168939E-17
7.180000E+03	2.101480E-15	4.122807E-17
7.190000E+03	2.083608E-15	4.076073E-17
7.200000E+03	2.066257E-15	4.029419E-17
7.210000E+03	2.049735E-15	3.983495E-17
7.220000E+03	2.034049E-15	3.938355E-17
7.230000E+03	2.019370E-15	3.894372E-17
7.240000E+03	2.005626E-15	3.851443E-17
7.250000E+03	1.992681E-15	3.809342E-17
7.260000E+03	1.980442E-15	3.767929E-17
7.270000E+03	1.968782E-15	3.727004E-17
7.280000E+03	1.957488E-15	3.686204E-17
7.290000E+03	1.946355E-15	3.645193E-17
7.300000E+03	1.935327E-15	3.603920E-17
7.310000E+03	1.924256E-15	3.562168E-17
7.320000E+03	1.913080E-15	3.519885E-17
7.330000E+03	1.901817E-15	3.477168E-17
7.340000E+03	1.890361E-15	3.433889E-17
7.350000E+03	1.878884E-15	3.390429E-17
7.360000E+03	1.867368E-15	3.346818E-17
7.370000E+03	1.855886E-15	3.303252E-17
7.380000E+03	1.844502E-15	3.259904E-17
7.390000E+03	1.833218E-15	3.216840E-17
7.400000E+03	1.822047E-15	3.174141E-17
7.410000E+03	1.810963E-15	3.131823E-17
7.420000E+03	1.799860E-15	3.089762E-17
7.430000E+03	1.788630E-15	3.047838E-17
7.440000E+03	1.777093E-15	3.005812E-17
7.450000E+03	1.765203E-15	2.963682E-17
7.460000E+03	1.752701E-15	2.921085E-17
7.470000E+03	1.739488E-15	2.877940E-17
7.480000E+03	1.725410E-15	2.834074E-17
7.490000E+03	1.710382E-15	2.789423E-17
7.500000E+03	1.694288E-15	2.743819E-17
7.510000E+03	1.677156E-15	2.697291E-17
7.520000E+03	1.659076E-15	2.649969E-17
7.530000E+03	1.640087E-15	2.601901E-17
7.540000E+03	1.620490E-15	2.553540E-17
7.550000E+03	1.600439E-15	2.505104E-17
7.560000E+03	1.580204E-15	2.456985E-17
7.570000E+03	1.560155E-15	2.409720E-17
7.580000E+03	1.540509E-15	2.363600E-17
7.590000E+03	1.521543E-15	2.319004E-17
7.600000E+03	1.503581E-15	2.276371E-17
7.610000E+03	1.486753E-15	2.235841E-17
7.620000E+03	1.471246E-15	2.197639E-17
7.630000E+03	1.457348E-15	2.162131E-17
7.640000E+03	1.445280E-15	2.129582E-17
7.650000E+03	1.435164E-15	2.100104E-17
7.660000E+03	1.427119E-15	2.073803E-17
7.670000E+03	1.421167E-15	2.050644E-17
7.680000E+03	1.417194E-15	2.030401E-17
7.690000E+03	1.415213E-15	2.013034E-17
7.700000E+03	1.414968E-15	1.998132E-17
7.710000E+03	1.416379E-15	1.985538E-17
7.720000E+03	1.419115E-15	1.974759E-17
7.730000E+03	1.423034E-15	1.965582E-17
7.740000E+03	1.427799E-15	1.957533E-17
7.750000E+03	1.433138E-15	1.950251E-17
7.760000E+03	1.438862E-15	1.943502E-17
