#wls	flux	fluxerr
1.600000E+03	5.334435E-16	9.649612E-18
1.640000E+03	5.502602E-16	9.903682E-18
1.680000E+03	5.682944E-16	1.017525E-17
1.720000E+03	5.876708E-16	1.046606E-17
1.760000E+03	6.084561E-16	1.077674E-17
1.800000E+03	6.307749E-16	1.110893E-17
1.840000E+03	6.546933E-16	1.146312E-17
1.880000E+03	6.803938E-16	1.184182E-17
1.920000E+03	7.080001E-16	1.224639E-17
1.960000E+03	7.375744E-16	1.267707E-17
2.000000E+03	7.692956E-16	1.313600E-17
2.040000E+03	8.032207E-16	1.362316E-17
2.080000E+03	8.394017E-16	1.413839E-17
2.120000E+03	8.780052E-16	1.468337E-17
2.160000E+03	9.188907E-16	1.525455E-17
2.200000E+03	9.619063E-16	1.584824E-17
2.240000E+03	1.006707E-15	1.645761E-17
2.280000E+03	1.052508E-15	1.706885E-17
2.320000E+03	1.099906E-15	1.769074E-17
2.360000E+03	1.149609E-15	1.833352E-17
2.400000E+03	1.202129E-15	1.900387E-17
2.440000E+03	1.257834E-15	1.970588E-17
2.480000E+03	1.317066E-15	2.044299E-17
2.520000E+03	1.380068E-15	2.121687E-17
2.560000E+03	1.446923E-15	2.202647E-17
2.600000E+03	1.517723E-15	2.287086E-17
2.640000E+03	1.592441E-15	2.374710E-17
2.680000E+03	1.670916E-15	2.465028E-17
2.720000E+03	1.752846E-15	2.557345E-17
2.760000E+03	1.837894E-15	2.650930E-17
2.800000E+03	1.925320E-15	2.744489E-17
2.840000E+03	2.014264E-15	2.836609E-17
2.880000E+03	2.103913E-15	2.925998E-17
2.920000E+03	2.193476E-15	3.011450E-17
2.960000E+03	2.282439E-15	3.092188E-17
3.000000E+03	2.370344E-15	3.167553E-17
3.010000E+03	2.392066E-15	3.185434E-17
3.020000E+03	2.413663E-15	3.202899E-17
3.030000E+03	2.435156E-15	3.219979E-17
3.040000E+03	2.456516E-15	3.236635E-17
3.050000E+03	2.477707E-15	3.252820E-17
3.060000E+03	2.498750E-15	3.268562E-17
3.070000E+03	2.519556E-15	3.283747E-17
3.080000E+03	2.540193E-15	3.298466E-17
3.090000E+03	2.560572E-15	3.312604E-17
3.100000E+03	2.580704E-15	3.326180E-17
3.110000E+03	2.600551E-15	3.339145E-17
3.120000E+03	2.620123E-15	3.351516E-17
3.130000E+03	2.639376E-15	3.363241E-17
3.140000E+03	2.658266E-15	3.374266E-17
3.150000E+03	2.676801E-15	3.384608E-17
3.160000E+03	2.694884E-15	3.394146E-17
3.170000E+03	2.712569E-15	3.402956E-17
3.180000E+03	2.729761E-15	3.410924E-17
3.190000E+03	2.746461E-15	3.418057E-17
3.200000E+03	2.762622E-15	3.424304E-17
3.210000E+03	2.778198E-15	3.429615E-17
3.220000E+03	2.793189E-15	3.434000E-17
3.230000E+03	2.807552E-15	3.437411E-17
3.240000E+03	2.821191E-15	3.439744E-17
3.250000E+03	2.834208E-15	3.441131E-17
3.260000E+03	2.846419E-15	3.441359E-17
3.270000E+03	2.857924E-15	3.440560E-17
3.280000E+03	2.868597E-15	3.438595E-17
3.290000E+03	2.878452E-15	3.435492E-17
3.300000E+03	2.887506E-15	3.431283E-17
3.310000E+03	2.895647E-15	3.425850E-17
3.320000E+03	2.902949E-15	3.419292E-17
3.330000E+03	2.909394E-15	3.411603E-17
3.340000E+03	2.914936E-15	3.402741E-17
3.350000E+03	2.919573E-15	3.392718E-17
3.360000E+03	2.923300E-15	3.381545E-17
3.370000E+03	2.926156E-15	3.369279E-17
3.380000E+03	2.928052E-15	3.355834E-17
3.390000E+03	2.929056E-15	3.341300E-17
3.400000E+03	2.929067E-15	3.325581E-17
3.410000E+03	2.928057E-15	3.308660E-17
3.420000E+03	2.926027E-15	3.290555E-17
3.430000E+03	2.922819E-15	3.271105E-17
3.440000E+03	2.918450E-15	3.250352E-17
3.450000E+03	2.912826E-15	3.228207E-17
3.460000E+03	2.905786E-15	3.204517E-17
3.470000E+03	2.897352E-15	3.179331E-17
3.480000E+03	2.887392E-15	3.152525E-17
3.490000E+03	2.875896E-15	3.124116E-17
3.500000E+03	2.862847E-15	3.094112E-17
3.510000E+03	2.848160E-15	3.062449E-17
3.520000E+03	2.831914E-15	3.029240E-17
3.530000E+03	2.814129E-15	2.994533E-17
3.540000E+03	2.794864E-15	2.958416E-17
3.550000E+03	2.774242E-15	2.921047E-17
3.560000E+03	2.752368E-15	2.882560E-17
3.570000E+03	2.729415E-15	2.843157E-17
3.580000E+03	2.705567E-15	2.803048E-17
3.590000E+03	2.681100E-15	2.762535E-17
3.600000E+03	2.656305E-15	2.721928E-17
3.610000E+03	2.631508E-15	2.681566E-17
3.620000E+03	2.607125E-15	2.641872E-17
3.630000E+03	2.583605E-15	2.603293E-17
3.640000E+03	2.561370E-15	2.566240E-17
3.650000E+03	2.540988E-15	2.531255E-17
3.660000E+03	2.522928E-15	2.498773E-17
3.670000E+03	2.507770E-15	2.469326E-17
3.680000E+03	2.496088E-15	2.443427E-17
3.690000E+03	2.488477E-15	2.421595E-17
3.700000E+03	2.485566E-15	2.404369E-17
3.710000E+03	2.488029E-15	2.392315E-17
3.720000E+03	2.496470E-15	2.385918E-17
3.730000E+03	2.511640E-15	2.385787E-17
3.740000E+03	2.534194E-15	2.392422E-17
3.750000E+03	2.564867E-15	2.406383E-17
3.760000E+03	2.604393E-15	2.428213E-17
3.770000E+03	2.653446E-15	2.458378E-17
3.780000E+03	2.712799E-15	2.497423E-17
3.790000E+03	2.783122E-15	2.545778E-17
3.800000E+03	2.865094E-15	2.603862E-17
3.810000E+03	2.959312E-15	2.672009E-17
3.820000E+03	3.066302E-15	2.750471E-17
3.830000E+03	3.186426E-15	2.839341E-17
3.840000E+03	3.319872E-15	2.938551E-17
3.850000E+03	3.466539E-15	3.047772E-17
3.860000E+03	3.626043E-15	3.166429E-17
3.870000E+03	3.797519E-15	3.293541E-17
3.880000E+03	3.979594E-15	3.427709E-17
3.890000E+03	4.170342E-15	3.567092E-17
3.900000E+03	4.367169E-15	3.709329E-17
3.910000E+03	4.566896E-15	3.851628E-17
3.920000E+03	4.765664E-15	3.990702E-17
3.930000E+03	4.959138E-15	4.122963E-17
3.940000E+03	5.142602E-15	4.244612E-17
3.950000E+03	5.311224E-15	4.351870E-17
3.960000E+03	5.460459E-15	4.441307E-17
3.970000E+03	5.586013E-15	4.509807E-17
3.980000E+03	5.684496E-15	4.555081E-17
3.990000E+03	5.753420E-15	4.575643E-17
4.000000E+03	5.791507E-15	4.571019E-17
4.010000E+03	5.798729E-15	4.541748E-17
4.020000E+03	5.776226E-15	4.489278E-17
4.030000E+03	5.726413E-15	4.416012E-17
4.040000E+03	5.652576E-15	4.324963E-17
4.050000E+03	5.558750E-15	4.219630E-17
4.060000E+03	5.449355E-15	4.103709E-17
4.070000E+03	5.328954E-15	3.980893E-17
4.080000E+03	5.202074E-15	3.854737E-17
4.090000E+03	5.072800E-15	3.728366E-17
4.100000E+03	4.944823E-15	3.604514E-17
4.110000E+03	4.821274E-15	3.485425E-17
4.120000E+03	4.704622E-15	3.372790E-17
4.130000E+03	4.596874E-15	3.267914E-17
4.140000E+03	4.499405E-15	3.171608E-17
4.150000E+03	4.413210E-15	3.084382E-17
4.160000E+03	4.338892E-15	3.006454E-17
4.170000E+03	4.276675E-15	2.937767E-17
4.180000E+03	4.226621E-15	2.878148E-17
4.190000E+03	4.188454E-15	2.827195E-17
4.200000E+03	4.161886E-15	2.784506E-17
4.210000E+03	4.146324E-15	2.749484E-17
4.220000E+03	4.141137E-15	2.721522E-17
4.230000E+03	4.145537E-15	2.699927E-17
4.240000E+03	4.158629E-15	2.683956E-17
4.250000E+03	4.179272E-15	2.672732E-17
4.260000E+03	4.206284E-15	2.665377E-17
4.270000E+03	4.238194E-15	2.660864E-17
4.280000E+03	4.273334E-15	2.658077E-17
4.290000E+03	4.309895E-15	2.655851E-17
4.300000E+03	4.345853E-15	2.652937E-17
4.310000E+03	4.378975E-15	2.648001E-17
4.320000E+03	4.407017E-15	2.639758E-17
4.330000E+03	4.427768E-15	2.626991E-17
4.340000E+03	4.439171E-15	2.608626E-17
4.350000E+03	4.439492E-15	2.583819E-17
4.360000E+03	4.427524E-15	2.552068E-17
4.370000E+03	4.402722E-15	2.513276E-17
4.380000E+03	4.365450E-15	2.467868E-17
4.390000E+03	4.317358E-15	2.416977E-17
4.400000E+03	4.262002E-15	2.362755E-17
4.410000E+03	4.204627E-15	2.308201E-17
4.420000E+03	4.150870E-15	2.256411E-17
4.430000E+03	4.106159E-15	2.210248E-17
4.440000E+03	4.075383E-15	2.172175E-17
4.450000E+03	4.062822E-15	2.144232E-17
4.460000E+03	4.071954E-15	2.127956E-17
4.470000E+03	4.105547E-15	2.124451E-17
4.480000E+03	4.165647E-15	2.134402E-17
4.490000E+03	4.253537E-15	2.158073E-17
4.500000E+03	4.369933E-15	2.195429E-17
4.510000E+03	4.514808E-15	2.246060E-17
4.520000E+03	4.687420E-15	2.309217E-17
4.530000E+03	4.886247E-15	2.383795E-17
4.540000E+03	5.108736E-15	2.468234E-17
4.550000E+03	5.351322E-15	2.560548E-17
4.560000E+03	5.609232E-15	2.658256E-17
4.570000E+03	5.876415E-15	2.758375E-17
4.580000E+03	6.145592E-15	2.857467E-17
4.590000E+03	6.408648E-15	2.951843E-17
4.600000E+03	6.656854E-15	3.037676E-17
4.610000E+03	6.881394E-15	3.111248E-17
4.620000E+03	7.073952E-15	3.169202E-17
4.630000E+03	7.227045E-15	3.208679E-17
4.640000E+03	7.334717E-15	3.227593E-17
4.650000E+03	7.392741E-15	3.224685E-17
4.660000E+03	7.398915E-15	3.199611E-17
4.670000E+03	7.353173E-15	3.152948E-17
4.680000E+03	7.257559E-15	3.086138E-17
4.690000E+03	7.116063E-15	3.001388E-17
4.700000E+03	6.934464E-15	2.901566E-17
4.710000E+03	6.719720E-15	2.789923E-17
4.720000E+03	6.479674E-15	2.669960E-17
4.730000E+03	6.222719E-15	2.545285E-17
4.740000E+03	5.957068E-15	2.419315E-17
4.750000E+03	5.690610E-15	2.295228E-17
4.760000E+03	5.430603E-15	2.175859E-17
4.770000E+03	5.183384E-15	2.063596E-17
4.780000E+03	4.954190E-15	1.960336E-17
4.790000E+03	4.746898E-15	1.867395E-17
4.800000E+03	4.563752E-15	1.785423E-17
4.810000E+03	4.405958E-15	1.714648E-17
4.820000E+03	4.274214E-15	1.655114E-17
4.830000E+03	4.168686E-15	1.606670E-17
4.840000E+03	4.089118E-15	1.569024E-17
4.850000E+03	4.034894E-15	1.541766E-17
4.860000E+03	4.005047E-15	1.524374E-17
4.870000E+03	3.998416E-15	1.516273E-17
4.880000E+03	4.013357E-15	1.516727E-17
4.890000E+03	4.047904E-15	1.524900E-17
4.900000E+03	4.099642E-15	1.539805E-17
4.910000E+03	4.165543E-15	1.560249E-17
4.920000E+03	4.241924E-15	1.584812E-17
4.930000E+03	4.324357E-15	1.611812E-17
4.940000E+03	4.407991E-15	1.639432E-17
4.950000E+03	4.487500E-15	1.665691E-17
4.960000E+03	4.557607E-15	1.688641E-17
4.970000E+03	4.613497E-15	1.706516E-17
4.980000E+03	4.651303E-15	1.717906E-17
4.990000E+03	4.668480E-15	1.721890E-17
5.000000E+03	4.664153E-15	1.718162E-17
5.010000E+03	4.639151E-15	1.707040E-17
5.020000E+03	4.595694E-15	1.689345E-17
5.030000E+03	4.537133E-15	1.666306E-17
5.040000E+03	4.467643E-15	1.639449E-17
5.050000E+03	4.391440E-15	1.610308E-17
5.060000E+03	4.312816E-15	1.580440E-17
5.070000E+03	4.235560E-15	1.551213E-17
5.080000E+03	4.162753E-15	1.523738E-17
5.090000E+03	4.097072E-15	1.498973E-17
5.100000E+03	4.040389E-15	1.477585E-17
5.110000E+03	3.994160E-15	1.460087E-17
5.120000E+03	3.959504E-15	1.446872E-17
5.130000E+03	3.937190E-15	1.438205E-17
5.140000E+03	3.927934E-15	1.434333E-17
5.150000E+03	3.932461E-15	1.435505E-17
5.160000E+03	3.951436E-15	1.441953E-17
5.170000E+03	3.985599E-15	1.453930E-17
5.180000E+03	4.035661E-15	1.471684E-17
5.190000E+03	4.102361E-15	1.495470E-17
5.200000E+03	4.186175E-15	1.525445E-17
5.210000E+03	4.287469E-15	1.561729E-17
5.220000E+03	4.406097E-15	1.604249E-17
5.230000E+03	4.541369E-15	1.652739E-17
5.240000E+03	4.691968E-15	1.706698E-17
5.250000E+03	4.855854E-15	1.765365E-17
5.260000E+03	5.030001E-15	1.827622E-17
5.270000E+03	5.210682E-15	1.892094E-17
5.280000E+03	5.393383E-15	1.957126E-17
5.290000E+03	5.572750E-15	2.020762E-17
5.300000E+03	5.743322E-15	2.081010E-17
5.310000E+03	5.899186E-15	2.135726E-17
5.320000E+03	6.034962E-15	2.182963E-17
5.330000E+03	6.145469E-15	2.220858E-17
5.340000E+03	6.226701E-15	2.247982E-17
5.350000E+03	6.275708E-15	2.263294E-17
5.360000E+03	6.290886E-15	2.266251E-17
5.370000E+03	6.272390E-15	2.256947E-17
5.380000E+03	6.221695E-15	2.235955E-17
5.390000E+03	6.142256E-15	2.204561E-17
5.400000E+03	6.038748E-15	2.164487E-17
5.410000E+03	5.917142E-15	2.117913E-17
5.420000E+03	5.784371E-15	2.067352E-17
5.430000E+03	5.648000E-15	2.015534E-17
5.440000E+03	5.515859E-15	1.965261E-17
5.450000E+03	5.395848E-15	1.919349E-17
5.460000E+03	5.295612E-15	1.880501E-17
5.470000E+03	5.222249E-15	1.851204E-17
5.480000E+03	5.181869E-15	1.833579E-17
5.490000E+03	5.178874E-15	1.829121E-17
5.500000E+03	5.213013E-15	1.837669E-17
5.510000E+03	5.275335E-15	1.855990E-17
5.520000E+03	5.353375E-15	1.879636E-17
5.530000E+03	5.433736E-15	1.903871E-17
5.540000E+03	5.503557E-15	1.924180E-17
5.550000E+03	5.551379E-15	1.936578E-17
5.560000E+03	5.568430E-15	1.938055E-17
5.570000E+03	5.548968E-15	1.926683E-17
5.580000E+03	5.490845E-15	1.901805E-17
5.590000E+03	5.395327E-15	1.863958E-17
5.600000E+03	5.266389E-15	1.814614E-17
5.610000E+03	5.110333E-15	1.756036E-17
5.620000E+03	4.934751E-15	1.690912E-17
5.630000E+03	4.747731E-15	1.622076E-17
5.640000E+03	4.557291E-15	1.552308E-17
5.650000E+03	4.370854E-15	1.484154E-17
5.660000E+03	4.194838E-15	1.419789E-17
5.670000E+03	4.034506E-15	1.360971E-17
5.680000E+03	3.894090E-15	1.309083E-17
5.690000E+03	3.776773E-15	1.265137E-17
5.700000E+03	3.684730E-15	1.229786E-17
5.710000E+03	3.619520E-15	1.203464E-17
5.720000E+03	3.582126E-15	1.186404E-17
5.730000E+03	3.573047E-15	1.178667E-17
5.740000E+03	3.592415E-15	1.180184E-17
5.750000E+03	3.640032E-15	1.190777E-17
5.760000E+03	3.715337E-15	1.210141E-17
5.770000E+03	3.817367E-15	1.237842E-17
5.780000E+03	3.944510E-15	1.273239E-17
5.790000E+03	4.094574E-15	1.315507E-17
5.800000E+03	4.264402E-15	1.363524E-17
5.810000E+03	4.449946E-15	1.415904E-17
5.820000E+03	4.646334E-15	1.471021E-17
5.830000E+03	4.847696E-15	1.526966E-17
5.840000E+03	5.047751E-15	1.581742E-17
5.850000E+03	5.240018E-15	1.633328E-17
5.860000E+03	5.418122E-15	1.679787E-17
5.870000E+03	5.576435E-15	1.719454E-17
5.880000E+03	5.710209E-15	1.750977E-17
5.890000E+03	5.816113E-15	1.773475E-17
5.900000E+03	5.891995E-15	1.786447E-17
5.910000E+03	5.937118E-15	1.789841E-17
5.920000E+03	5.952070E-15	1.784008E-17
5.930000E+03	5.938389E-15	1.769581E-17
5.940000E+03	5.898609E-15	1.747477E-17
5.950000E+03	5.835764E-15	1.718746E-17
5.960000E+03	5.753443E-15	1.684576E-17
5.970000E+03	5.655389E-15	1.646177E-17
5.980000E+03	5.545414E-15	1.604750E-17
5.990000E+03	5.427198E-15	1.561430E-17
6.000000E+03	5.304368E-15	1.517312E-17
6.010000E+03	5.180224E-15	1.473370E-17
6.020000E+03	5.057669E-15	1.430444E-17
6.030000E+03	4.939353E-15	1.389283E-17
6.040000E+03	4.827402E-15	1.350471E-17
6.050000E+03	4.723543E-15	1.314469E-17
6.060000E+03	4.629277E-15	1.281667E-17
6.070000E+03	4.545510E-15	1.252281E-17
6.080000E+03	4.472983E-15	1.226482E-17
6.090000E+03	4.411960E-15	1.204307E-17
6.100000E+03	4.362582E-15	1.185765E-17
6.110000E+03	4.324595E-15	1.170758E-17
6.120000E+03	4.297489E-15	1.159128E-17
6.130000E+03	4.280419E-15	1.150632E-17
6.140000E+03	4.272085E-15	1.144913E-17
6.150000E+03	4.270791E-15	1.141519E-17
6.160000E+03	4.274319E-15	1.139865E-17
6.170000E+03	4.279866E-15	1.139221E-17
6.180000E+03	4.284007E-15	1.138699E-17
6.190000E+03	4.282662E-15	1.137239E-17
6.200000E+03	4.271423E-15	1.133696E-17
6.210000E+03	4.245737E-15	1.126864E-17
6.220000E+03	4.201557E-15	1.115651E-17
6.230000E+03	4.136181E-15	1.099307E-17
6.240000E+03	4.049028E-15	1.077628E-17
6.250000E+03	3.943900E-15	1.051564E-17
6.260000E+03	3.829418E-15	1.023345E-17
6.270000E+03	3.714567E-15	9.953111E-18
6.280000E+03	3.607173E-15	9.695165E-18
6.290000E+03	3.512960E-15	9.474774E-18
6.300000E+03	3.435811E-15	9.302418E-18
6.310000E+03	3.377541E-15	9.183219E-18
6.320000E+03	3.338666E-15	9.118951E-18
6.330000E+03	3.318589E-15	9.108481E-18
6.340000E+03	3.315951E-15	9.148652E-18
6.350000E+03	3.328803E-15	9.234696E-18
6.360000E+03	3.354851E-15	9.360848E-18
6.370000E+03	3.391520E-15	9.520482E-18
6.380000E+03	3.436006E-15	9.706201E-18
6.390000E+03	3.485414E-15	9.910190E-18
6.400000E+03	3.536926E-15	1.012467E-17
6.410000E+03	3.587717E-15	1.034162E-17
6.420000E+03	3.635343E-15	1.055391E-17
6.430000E+03	3.677719E-15	1.075514E-17
6.440000E+03	3.713208E-15	1.094007E-17
6.450000E+03	3.740920E-15	1.110547E-17
6.460000E+03	3.760385E-15	1.124926E-17
6.470000E+03	3.771863E-15	1.137152E-17
6.480000E+03	3.776037E-15	1.147360E-17
6.490000E+03	3.773907E-15	1.155787E-17
6.500000E+03	3.766792E-15	1.162778E-17
6.510000E+03	3.756203E-15	1.168749E-17
6.520000E+03	3.743805E-15	1.174181E-17
6.530000E+03	3.731382E-15	1.179608E-17
6.540000E+03	3.720975E-15	1.185665E-17
6.550000E+03	3.714690E-15	1.193029E-17
6.560000E+03	3.714388E-15	1.202320E-17
6.570000E+03	3.721702E-15	1.214102E-17
6.580000E+03	3.737446E-15	1.228688E-17
6.590000E+03	3.761939E-15	1.246237E-17
6.600000E+03	3.794751E-15	1.266657E-17
6.610000E+03	3.834808E-15	1.289638E-17
6.620000E+03	3.880469E-15	1.314667E-17
6.630000E+03	3.929573E-15	1.341036E-17
6.640000E+03	3.979766E-15	1.367946E-17
6.650000E+03	4.028398E-15	1.394478E-17
6.660000E+03	4.072958E-15	1.419730E-17
6.670000E+03	4.110970E-15	1.442792E-17
6.680000E+03	4.140346E-15	1.462867E-17
6.690000E+03	4.159505E-15	1.479321E-17
6.700000E+03	4.167315E-15	1.491666E-17
6.710000E+03	4.163054E-15	1.499557E-17
6.720000E+03	4.146821E-15	1.502940E-17
6.730000E+03	4.118935E-15	1.501846E-17
6.740000E+03	4.080417E-15	1.496570E-17
6.750000E+03	4.032415E-15	1.487466E-17
6.760000E+03	3.976312E-15	1.474986E-17
6.770000E+03	3.913845E-15	1.459730E-17
6.780000E+03	3.846533E-15	1.442232E-17
6.790000E+03	3.776098E-15	1.423118E-17
6.800000E+03	3.704138E-15	1.402980E-17
6.810000E+03	3.632158E-15	1.382388E-17
6.820000E+03	3.561494E-15	1.361861E-17
6.830000E+03	3.493486E-15	1.341927E-17
6.840000E+03	3.429222E-15	1.323027E-17
6.850000E+03	3.369787E-15	1.305610E-17
6.860000E+03	3.316018E-15	1.290029E-17
6.870000E+03	3.268685E-15	1.276620E-17
6.880000E+03	3.228504E-15	1.265698E-17
6.890000E+03	3.195877E-15	1.257459E-17
6.900000E+03	3.171323E-15	1.252144E-17
6.910000E+03	3.155047E-15	1.249869E-17
6.920000E+03	3.147163E-15	1.250715E-17
6.930000E+03	3.147624E-15	1.254696E-17
6.940000E+03	3.156198E-15	1.261747E-17
6.950000E+03	3.172393E-15	1.271699E-17
6.960000E+03	3.195614E-15	1.284334E-17
6.970000E+03	3.224969E-15	1.299311E-17
6.980000E+03	3.259333E-15	1.316189E-17
6.990000E+03	3.297220E-15	1.334377E-17
7.000000E+03	3.337269E-15	1.353324E-17
7.010000E+03	3.377591E-15	1.372264E-17
7.020000E+03	3.416548E-15	1.390526E-17
7.030000E+03	3.452326E-15	1.407361E-17
7.040000E+03	3.483293E-15	1.422092E-17
7.050000E+03	3.508028E-15	1.434127E-17
7.060000E+03	3.525411E-15	1.442995E-17
7.070000E+03	3.534621E-15	1.448348E-17
7.080000E+03	3.535390E-15	1.450066E-17
7.090000E+03	3.527804E-15	1.448176E-17
7.100000E+03	3.512282E-15	1.442846E-17
7.110000E+03	3.489743E-15	1.434451E-17
7.120000E+03	3.461248E-15	1.423430E-17
7.130000E+03	3.428127E-15	1.410332E-17
7.140000E+03	3.391807E-15	1.395752E-17
7.150000E+03	3.353786E-15	1.380313E-17
7.160000E+03	3.315273E-15	1.364521E-17
7.170000E+03	3.277458E-15	1.348876E-17
7.180000E+03	3.241465E-15	1.333847E-17
7.190000E+03	3.207903E-15	1.319695E-17
7.200000E+03	3.177269E-15	1.306631E-17
7.210000E+03	3.149879E-15	1.294792E-17
7.220000E+03	3.125690E-15	1.284166E-17
7.230000E+03	3.104533E-15	1.274689E-17
7.240000E+03	3.086088E-15	1.266235E-17
7.250000E+03	3.069934E-15	1.258636E-17
7.260000E+03	3.055668E-15	1.251731E-17
7.270000E+03	3.042685E-15	1.245277E-17
7.280000E+03	3.030690E-15	1.239160E-17
7.290000E+03	3.019268E-15	1.233215E-17
7.300000E+03	3.008175E-15	1.227349E-17
7.310000E+03	2.997351E-15	1.221544E-17
7.320000E+03	2.986717E-15	1.215774E-17
7.330000E+03	2.976433E-15	1.210111E-17
7.340000E+03	2.966664E-15	1.204630E-17
7.350000E+03	2.957690E-15	1.199450E-17
7.360000E+03	2.949715E-15	1.194659E-17
7.370000E+03	2.942969E-15	1.190357E-17
7.380000E+03	2.937461E-15	1.186553E-17
7.390000E+03	2.933347E-15	1.183315E-17
7.400000E+03	2.930439E-15	1.180573E-17
7.410000E+03	2.928332E-15	1.178171E-17
7.420000E+03	2.926738E-15	1.175998E-17
7.430000E+03	2.924964E-15	1.173785E-17
7.440000E+03	2.922358E-15	1.171278E-17
7.450000E+03	2.918071E-15	1.168148E-17
7.460000E+03	2.911396E-15	1.164122E-17
7.470000E+03	2.901414E-15	1.158845E-17
7.480000E+03	2.887685E-15	1.152153E-17
7.490000E+03	2.869618E-15	1.143822E-17
7.500000E+03	2.847142E-15	1.133828E-17
7.510000E+03	2.820321E-15	1.122202E-17
7.520000E+03	2.789495E-15	1.109084E-17
7.530000E+03	2.755392E-15	1.094766E-17
7.540000E+03	2.718674E-15	1.079513E-17
7.550000E+03	2.680472E-15	1.063776E-17
7.560000E+03	2.641786E-15	1.047951E-17
7.570000E+03	2.603675E-15	1.032456E-17
7.580000E+03	2.567069E-15	1.017659E-17
7.590000E+03	2.532927E-15	1.003940E-17
7.600000E+03	2.501960E-15	9.915774E-18
7.610000E+03	2.474812E-15	9.808265E-18
7.620000E+03	2.451986E-15	9.718869E-18
7.630000E+03	2.433683E-15	9.648391E-18
7.640000E+03	2.420028E-15	9.597351E-18
7.650000E+03	2.410836E-15	9.565047E-18
7.660000E+03	2.406050E-15	9.551307E-18
7.670000E+03	2.405322E-15	9.554795E-18
7.680000E+03	2.408329E-15	9.574307E-18
7.690000E+03	2.414568E-15	9.607919E-18
7.700000E+03	2.423558E-15	9.653796E-18
7.710000E+03	2.434803E-15	9.710055E-18
7.720000E+03	2.447935E-15	9.775319E-18
7.730000E+03	2.462283E-15	9.846996E-18
7.740000E+03	2.477577E-15	9.924099E-18
7.750000E+03	2.493253E-15	1.000446E-17
7.760000E+03	2.508981E-15	1.008683E-17
