#wls	flux	fluxerr
1.600000E+03	1.417153E-16	8.353928E-18
1.640000E+03	1.431104E-16	8.398674E-18
1.680000E+03	1.445413E-16	8.443786E-18
1.720000E+03	1.459484E-16	8.485724E-18
1.760000E+03	1.473506E-16	8.525541E-18
1.800000E+03	1.487666E-16	8.564279E-18
1.840000E+03	1.501605E-16	8.599807E-18
1.880000E+03	1.516053E-16	8.636250E-18
1.920000E+03	1.530360E-16	8.669825E-18
1.960000E+03	1.544969E-16	8.702984E-18
2.000000E+03	1.559764E-16	8.734990E-18
2.040000E+03	1.575176E-16	8.768166E-18
2.080000E+03	1.590785E-16	8.800063E-18
2.120000E+03	1.606716E-16	8.831281E-18
2.160000E+03	1.623362E-16	8.863867E-18
2.200000E+03	1.639968E-16	8.893586E-18
2.240000E+03	1.657174E-16	8.923808E-18
2.280000E+03	1.674189E-16	8.950172E-18
2.320000E+03	1.690769E-16	8.971335E-18
2.360000E+03	1.706940E-16	8.987402E-18
2.400000E+03	1.721880E-16	8.994071E-18
2.440000E+03	1.735870E-16	8.992881E-18
2.480000E+03	1.747825E-16	8.978305E-18
2.520000E+03	1.758031E-16	8.952012E-18
2.560000E+03	1.765716E-16	8.910290E-18
2.600000E+03	1.770937E-16	8.853708E-18
2.640000E+03	1.773760E-16	8.782910E-18
2.680000E+03	1.773535E-16	8.695016E-18
2.720000E+03	1.770424E-16	8.591240E-18
2.760000E+03	1.764158E-16	8.470706E-18
2.800000E+03	1.755010E-16	8.335196E-18
2.840000E+03	1.742859E-16	8.184604E-18
2.880000E+03	1.727690E-16	8.019362E-18
2.920000E+03	1.709593E-16	7.840407E-18
2.960000E+03	1.689166E-16	7.650982E-18
3.000000E+03	1.667438E-16	7.456137E-18
3.010000E+03	1.661807E-16	7.406631E-18
3.020000E+03	1.656037E-16	7.356555E-18
3.030000E+03	1.650325E-16	7.306788E-18
3.040000E+03	1.644679E-16	7.257355E-18
3.050000E+03	1.639101E-16	7.208277E-18
3.060000E+03	1.633419E-16	7.158783E-18
3.070000E+03	1.627822E-16	7.109718E-18
3.080000E+03	1.622138E-16	7.060322E-18
3.090000E+03	1.616733E-16	7.012192E-18
3.100000E+03	1.611258E-16	6.963807E-18
3.110000E+03	1.606072E-16	6.916713E-18
3.120000E+03	1.600833E-16	6.869437E-18
3.130000E+03	1.595893E-16	6.823485E-18
3.140000E+03	1.590919E-16	6.777423E-18
3.150000E+03	1.586256E-16	6.732718E-18
3.160000E+03	1.581905E-16	6.689363E-18
3.170000E+03	1.577544E-16	6.645989E-18
3.180000E+03	1.573507E-16	6.603997E-18
3.190000E+03	1.569799E-16	6.563392E-18
3.200000E+03	1.566264E-16	6.523509E-18
3.210000E+03	1.563067E-16	6.485028E-18
3.220000E+03	1.560210E-16	6.447940E-18
3.230000E+03	1.557697E-16	6.412250E-18
3.240000E+03	1.555533E-16	6.377955E-18
3.250000E+03	1.553871E-16	6.345667E-18
3.260000E+03	1.552412E-16	6.314143E-18
3.270000E+03	1.551460E-16	6.284607E-18
3.280000E+03	1.551014E-16	6.257035E-18
3.290000E+03	1.551075E-16	6.231396E-18
3.300000E+03	1.551641E-16	6.207663E-18
3.310000E+03	1.552569E-16	6.185239E-18
3.320000E+03	1.554148E-16	6.165250E-18
3.330000E+03	1.556371E-16	6.147642E-18
3.340000E+03	1.559095E-16	6.131813E-18
3.350000E+03	1.562458E-16	6.118278E-18
3.360000E+03	1.566594E-16	6.107530E-18
3.370000E+03	1.571219E-16	6.098422E-18
3.380000E+03	1.576605E-16	6.091982E-18
3.390000E+03	1.582741E-16	6.088124E-18
3.400000E+03	1.589620E-16	6.086782E-18
3.410000E+03	1.597230E-16	6.087869E-18
3.420000E+03	1.605694E-16	6.091816E-18
3.430000E+03	1.614867E-16	6.098022E-18
3.440000E+03	1.624996E-16	6.107383E-18
3.450000E+03	1.635934E-16	6.119291E-18
3.460000E+03	1.647664E-16	6.133640E-18
3.470000E+03	1.660301E-16	6.150812E-18
3.480000E+03	1.673829E-16	6.170694E-18
3.490000E+03	1.688363E-16	6.193656E-18
3.500000E+03	1.703772E-16	6.219169E-18
3.510000E+03	1.720187E-16	6.247650E-18
3.520000E+03	1.737614E-16	6.279070E-18
3.530000E+03	1.756199E-16	6.313892E-18
3.540000E+03	1.775848E-16	6.351710E-18
3.550000E+03	1.796713E-16	6.393007E-18
3.560000E+03	1.818708E-16	6.437402E-18
3.570000E+03	1.842115E-16	6.485828E-18
3.580000E+03	1.866852E-16	6.537904E-18
3.590000E+03	1.893084E-16	6.594135E-18
3.600000E+03	1.920738E-16	6.654177E-18
3.610000E+03	1.949869E-16	6.718131E-18
3.620000E+03	1.980777E-16	6.786940E-18
3.630000E+03	2.013292E-16	6.859913E-18
3.640000E+03	2.047607E-16	6.937611E-18
3.650000E+03	2.083692E-16	7.019823E-18
3.660000E+03	2.121880E-16	7.107555E-18
3.670000E+03	2.162157E-16	7.200631E-18
3.680000E+03	2.204638E-16	7.299308E-18
3.690000E+03	2.249328E-16	7.403463E-18
3.700000E+03	2.296600E-16	7.514184E-18
3.710000E+03	2.346371E-16	7.631039E-18
3.720000E+03	2.399042E-16	7.755171E-18
3.730000E+03	2.454548E-16	7.886192E-18
3.740000E+03	2.513181E-16	8.024859E-18
3.750000E+03	2.575118E-16	8.171539E-18
3.760000E+03	2.640420E-16	8.326217E-18
3.770000E+03	2.709377E-16	8.489595E-18
3.780000E+03	2.782044E-16	8.661610E-18
3.790000E+03	2.858710E-16	8.842928E-18
3.800000E+03	2.939410E-16	9.033402E-18
3.810000E+03	3.024293E-16	9.233235E-18
3.820000E+03	3.113619E-16	9.442949E-18
3.830000E+03	3.207242E-16	9.661824E-18
3.840000E+03	3.305234E-16	9.889804E-18
3.850000E+03	3.407773E-16	1.012713E-17
3.860000E+03	3.514713E-16	1.037310E-17
3.870000E+03	3.626126E-16	1.062762E-17
3.880000E+03	3.741624E-16	1.088929E-17
3.890000E+03	3.861112E-16	1.115756E-17
3.900000E+03	3.984283E-16	1.143130E-17
3.910000E+03	4.110468E-16	1.170836E-17
3.920000E+03	4.239438E-16	1.198789E-17
3.930000E+03	4.370453E-16	1.226764E-17
3.940000E+03	4.502699E-16	1.254519E-17
3.950000E+03	4.635434E-16	1.281840E-17
3.960000E+03	4.767854E-16	1.308504E-17
3.970000E+03	4.899103E-16	1.334278E-17
3.980000E+03	5.028159E-16	1.358892E-17
3.990000E+03	5.154263E-16	1.382157E-17
4.000000E+03	5.276188E-16	1.403763E-17
4.010000E+03	5.393169E-16	1.423535E-17
4.020000E+03	5.504150E-16	1.441227E-17
4.030000E+03	5.608262E-16	1.456651E-17
4.040000E+03	5.704724E-16	1.469651E-17
4.050000E+03	5.792691E-16	1.480058E-17
4.060000E+03	5.871609E-16	1.487787E-17
4.070000E+03	5.941178E-16	1.492821E-17
4.080000E+03	6.001128E-16	1.495151E-17
4.090000E+03	6.051660E-16	1.494891E-17
4.100000E+03	6.092915E-16	1.492136E-17
4.110000E+03	6.125200E-16	1.487020E-17
4.120000E+03	6.149231E-16	1.479774E-17
4.130000E+03	6.165558E-16	1.470584E-17
4.140000E+03	6.174965E-16	1.459685E-17
4.150000E+03	6.178152E-16	1.447286E-17
4.160000E+03	6.176124E-16	1.433664E-17
4.170000E+03	6.169640E-16	1.419026E-17
4.180000E+03	6.159595E-16	1.403607E-17
4.190000E+03	6.146853E-16	1.387627E-17
4.200000E+03	6.132254E-16	1.371291E-17
4.210000E+03	6.116470E-16	1.354764E-17
4.220000E+03	6.100342E-16	1.338238E-17
4.230000E+03	6.084404E-16	1.321833E-17
4.240000E+03	6.069258E-16	1.305679E-17
4.250000E+03	6.055410E-16	1.289882E-17
4.260000E+03	6.043427E-16	1.274555E-17
4.270000E+03	6.033471E-16	1.259721E-17
4.280000E+03	6.025978E-16	1.245460E-17
4.290000E+03	6.021220E-16	1.231814E-17
4.300000E+03	6.019409E-16	1.218811E-17
4.310000E+03	6.020551E-16	1.206436E-17
4.320000E+03	6.024929E-16	1.194729E-17
4.330000E+03	6.032366E-16	1.183638E-17
4.340000E+03	6.042959E-16	1.173166E-17
4.350000E+03	6.056698E-16	1.163293E-17
4.360000E+03	6.073486E-16	1.153985E-17
4.370000E+03	6.093436E-16	1.145247E-17
4.380000E+03	6.116631E-16	1.137079E-17
4.390000E+03	6.143164E-16	1.129481E-17
4.400000E+03	6.173495E-16	1.122522E-17
4.410000E+03	6.208418E-16	1.116324E-17
4.420000E+03	6.248747E-16	1.111009E-17
4.430000E+03	6.295431E-16	1.106716E-17
4.440000E+03	6.349226E-16	1.103544E-17
4.450000E+03	6.410971E-16	1.101601E-17
4.460000E+03	6.481272E-16	1.100947E-17
4.470000E+03	6.560871E-16	1.101664E-17
4.480000E+03	6.650211E-16	1.103778E-17
4.490000E+03	6.749572E-16	1.107286E-17
4.500000E+03	6.859275E-16	1.112190E-17
4.510000E+03	6.979000E-16	1.118388E-17
4.520000E+03	7.108131E-16	1.125737E-17
4.530000E+03	7.245836E-16	1.134063E-17
4.540000E+03	7.390766E-16	1.143123E-17
4.550000E+03	7.541147E-16	1.152618E-17
4.560000E+03	7.694857E-16	1.162211E-17
4.570000E+03	7.849546E-16	1.171548E-17
4.580000E+03	8.002532E-16	1.180244E-17
4.590000E+03	8.151083E-16	1.187924E-17
4.600000E+03	8.292522E-16	1.194244E-17
4.610000E+03	8.424530E-16	1.198925E-17
4.620000E+03	8.544741E-16	1.201701E-17
4.630000E+03	8.651438E-16	1.202407E-17
4.640000E+03	8.742968E-16	1.200899E-17
4.650000E+03	8.817922E-16	1.197076E-17
4.660000E+03	8.875247E-16	1.190890E-17
4.670000E+03	8.913683E-16	1.182270E-17
4.680000E+03	8.932601E-16	1.171235E-17
4.690000E+03	8.931124E-16	1.157768E-17
4.700000E+03	8.908886E-16	1.141924E-17
4.710000E+03	8.865939E-16	1.123807E-17
4.720000E+03	8.802658E-16	1.103557E-17
4.730000E+03	8.720469E-16	1.081439E-17
4.740000E+03	8.621027E-16	1.057733E-17
4.750000E+03	8.506946E-16	1.032823E-17
4.760000E+03	8.381346E-16	1.007137E-17
4.770000E+03	8.247623E-16	9.811160E-18
4.780000E+03	8.109688E-16	9.552438E-18
4.790000E+03	7.971143E-16	9.299467E-18
4.800000E+03	7.835035E-16	9.055699E-18
4.810000E+03	7.704430E-16	8.824471E-18
4.820000E+03	7.581960E-16	8.608503E-18
4.830000E+03	7.470661E-16	8.410878E-18
4.840000E+03	7.373140E-16	8.234103E-18
4.850000E+03	7.291882E-16	8.080480E-18
4.860000E+03	7.229083E-16	7.951932E-18
4.870000E+03	7.186842E-16	7.850155E-18
4.880000E+03	7.166403E-16	7.775872E-18
4.890000E+03	7.168916E-16	7.729722E-18
4.900000E+03	7.195177E-16	7.711990E-18
4.910000E+03	7.245235E-16	7.722200E-18
4.920000E+03	7.318875E-16	7.759644E-18
4.930000E+03	7.415080E-16	7.822826E-18
4.940000E+03	7.531866E-16	7.909295E-18
4.950000E+03	7.666392E-16	8.015785E-18
4.960000E+03	7.814770E-16	8.138015E-18
4.970000E+03	7.971939E-16	8.270578E-18
4.980000E+03	8.131989E-16	8.407274E-18
4.990000E+03	8.288488E-16	8.541449E-18
5.000000E+03	8.434532E-16	8.666040E-18
5.010000E+03	8.563569E-16	8.774406E-18
5.020000E+03	8.670303E-16	8.861236E-18
5.030000E+03	8.751527E-16	8.923371E-18
5.040000E+03	8.806449E-16	8.960102E-18
5.050000E+03	8.835513E-16	8.971955E-18
5.060000E+03	8.841359E-16	8.961645E-18
5.070000E+03	8.827920E-16	8.933156E-18
5.080000E+03	8.799847E-16	8.891156E-18
5.090000E+03	8.762005E-16	8.840489E-18
5.100000E+03	8.719476E-16	8.786190E-18
5.110000E+03	8.676734E-16	8.732655E-18
5.120000E+03	8.637284E-16	8.683290E-18
5.130000E+03	8.603897E-16	8.640757E-18
5.140000E+03	8.578771E-16	8.607137E-18
5.150000E+03	8.563106E-16	8.583512E-18
5.160000E+03	8.557628E-16	8.570492E-18
5.170000E+03	8.562806E-16	8.568438E-18
5.180000E+03	8.578652E-16	8.577257E-18
5.190000E+03	8.605182E-16	8.596863E-18
5.200000E+03	8.642366E-16	8.627133E-18
5.210000E+03	8.690365E-16	8.668138E-18
5.220000E+03	8.749691E-16	8.720298E-18
5.230000E+03	8.820398E-16	8.783583E-18
5.240000E+03	8.902787E-16	8.858208E-18
5.250000E+03	8.996609E-16	8.943839E-18
5.260000E+03	9.101572E-16	9.040107E-18
5.270000E+03	9.216984E-16	9.146242E-18
5.280000E+03	9.341509E-16	9.260842E-18
5.290000E+03	9.473897E-16	9.382594E-18
5.300000E+03	9.612307E-16	9.509605E-18
5.310000E+03	9.754739E-16	9.639836E-18
5.320000E+03	9.899046E-16	9.771110E-18
5.330000E+03	1.004316E-15	9.901343E-18
5.340000E+03	1.018464E-15	1.002810E-17
5.350000E+03	1.032150E-15	1.014939E-17
5.360000E+03	1.045163E-15	1.026315E-17
5.370000E+03	1.057328E-15	1.036764E-17
5.380000E+03	1.068455E-15	1.046106E-17
5.390000E+03	1.078446E-15	1.054244E-17
5.400000E+03	1.087208E-15	1.061093E-17
5.410000E+03	1.094683E-15	1.066605E-17
5.420000E+03	1.100982E-15	1.070890E-17
5.430000E+03	1.106243E-15	1.074093E-17
5.440000E+03	1.110617E-15	1.076365E-17
5.450000E+03	1.114367E-15	1.077968E-17
5.460000E+03	1.117699E-15	1.079105E-17
5.470000E+03	1.120798E-15	1.079961E-17
5.480000E+03	1.123792E-15	1.080663E-17
5.490000E+03	1.126677E-15	1.081211E-17
5.500000E+03	1.129095E-15	1.081266E-17
5.510000E+03	1.130203E-15	1.080030E-17
5.520000E+03	1.128894E-15	1.076453E-17
5.530000E+03	1.124108E-15	1.069538E-17
5.540000E+03	1.114939E-15	1.058438E-17
5.550000E+03	1.100673E-15	1.042498E-17
5.560000E+03	1.080984E-15	1.021441E-17
5.570000E+03	1.056071E-15	9.954850E-18
5.580000E+03	1.026486E-15	9.651843E-18
5.590000E+03	9.930226E-16	9.313147E-18
5.600000E+03	9.567501E-16	8.949079E-18
5.610000E+03	9.188006E-16	8.570436E-18
5.620000E+03	8.803035E-16	8.187902E-18
5.630000E+03	8.423452E-16	7.811657E-18
5.640000E+03	8.059252E-16	7.450963E-18
5.650000E+03	7.718882E-16	7.113546E-18
5.660000E+03	7.409745E-16	6.806068E-18
5.670000E+03	7.137827E-16	6.533794E-18
5.680000E+03	6.908019E-16	6.300900E-18
5.690000E+03	6.724014E-16	6.110386E-18
5.700000E+03	6.588962E-16	5.964687E-18
5.710000E+03	6.505310E-16	5.865531E-18
5.720000E+03	6.475054E-16	5.814177E-18
5.730000E+03	6.500043E-16	5.811684E-18
5.740000E+03	6.582032E-16	5.858968E-18
5.750000E+03	6.722491E-16	5.956627E-18
5.760000E+03	6.922941E-16	6.105241E-18
5.770000E+03	7.184587E-16	6.305048E-18
5.780000E+03	7.507829E-16	6.555528E-18
5.790000E+03	7.892027E-16	6.855212E-18
5.800000E+03	8.335400E-16	7.201622E-18
5.810000E+03	8.833714E-16	7.590176E-18
5.820000E+03	9.380269E-16	8.014240E-18
5.830000E+03	9.965618E-16	8.464960E-18
5.840000E+03	1.057719E-15	8.931020E-18
5.850000E+03	1.119946E-15	9.398884E-18
5.860000E+03	1.181481E-15	9.853606E-18
5.870000E+03	1.240630E-15	1.028119E-17
5.880000E+03	1.295741E-15	1.066837E-17
5.890000E+03	1.345208E-15	1.100266E-17
5.900000E+03	1.387662E-15	1.127390E-17
5.910000E+03	1.422019E-15	1.147458E-17
5.920000E+03	1.447417E-15	1.159924E-17
5.930000E+03	1.463418E-15	1.164604E-17
5.940000E+03	1.469907E-15	1.161580E-17
5.950000E+03	1.467111E-15	1.151211E-17
5.960000E+03	1.455697E-15	1.134190E-17
5.970000E+03	1.436614E-15	1.111417E-17
5.980000E+03	1.411012E-15	1.083922E-17
5.990000E+03	1.380245E-15	1.052865E-17
6.000000E+03	1.345695E-15	1.019392E-17
6.010000E+03	1.308695E-15	9.845836E-18
6.020000E+03	1.270457E-15	9.493953E-18
6.030000E+03	1.232035E-15	9.146402E-18
6.040000E+03	1.194335E-15	8.809974E-18
6.050000E+03	1.158017E-15	8.489482E-18
6.060000E+03	1.123615E-15	8.188672E-18
6.070000E+03	1.091529E-15	7.910238E-18
6.080000E+03	1.061982E-15	7.655537E-18
6.090000E+03	1.035126E-15	7.425382E-18
6.100000E+03	1.011023E-15	7.219960E-18
6.110000E+03	9.896718E-16	7.039033E-18
6.120000E+03	9.709893E-16	6.881798E-18
6.130000E+03	9.548982E-16	6.747552E-18
6.140000E+03	9.412811E-16	6.635355E-18
6.150000E+03	9.300261E-16	6.544357E-18
6.160000E+03	9.209851E-16	6.473506E-18
6.170000E+03	9.140181E-16	6.421856E-18
6.180000E+03	9.089482E-16	6.388250E-18
6.190000E+03	9.056198E-16	6.371723E-18
6.200000E+03	9.038561E-16	6.371197E-18
6.210000E+03	9.034905E-16	6.385669E-18
6.220000E+03	9.043130E-16	6.413663E-18
6.230000E+03	9.060941E-16	6.453478E-18
6.240000E+03	9.085650E-16	6.503123E-18
6.250000E+03	9.114707E-16	6.560679E-18
6.260000E+03	9.144950E-16	6.623747E-18
6.270000E+03	9.173507E-16	6.690079E-18
6.280000E+03	9.197560E-16	6.757398E-18
6.290000E+03	9.214840E-16	6.823759E-18
6.300000E+03	9.223196E-16	6.887231E-18
6.310000E+03	9.221005E-16	6.946207E-18
6.320000E+03	9.207562E-16	6.999714E-18
6.330000E+03	9.183087E-16	7.047448E-18
6.340000E+03	9.147813E-16	7.089109E-18
6.350000E+03	9.103290E-16	7.125421E-18
6.360000E+03	9.051223E-16	7.157271E-18
6.370000E+03	8.993289E-16	7.185575E-18
6.380000E+03	8.931254E-16	7.211383E-18
6.390000E+03	8.866506E-16	7.235496E-18
6.400000E+03	8.800391E-16	7.258743E-18
6.410000E+03	8.733695E-16	7.281537E-18
6.420000E+03	8.667135E-16	7.304276E-18
6.430000E+03	8.600845E-16	7.326897E-18
6.440000E+03	8.535021E-16	7.349409E-18
6.450000E+03	8.469465E-16	7.371494E-18
6.460000E+03	8.404070E-16	7.392919E-18
6.470000E+03	8.339036E-16	7.413727E-18
6.480000E+03	8.274803E-16	7.434189E-18
6.490000E+03	8.212070E-16	7.454838E-18
6.500000E+03	8.152143E-16	7.476800E-18
6.510000E+03	8.096596E-16	7.501504E-18
6.520000E+03	8.047542E-16	7.530954E-18
6.530000E+03	8.007157E-16	7.567295E-18
6.540000E+03	7.977880E-16	7.613009E-18
6.550000E+03	7.962287E-16	7.670804E-18
6.560000E+03	7.962207E-16	7.742755E-18
6.570000E+03	7.979045E-16	7.830581E-18
6.580000E+03	8.013360E-16	7.935214E-18
6.590000E+03	8.063865E-16	8.055749E-18
6.600000E+03	8.128465E-16	8.190418E-18
6.610000E+03	8.204278E-16	8.336568E-18
6.620000E+03	8.287411E-16	8.490408E-18
6.630000E+03	8.373407E-16	8.647429E-18
6.640000E+03	8.457540E-16	8.802689E-18
6.650000E+03	8.535026E-16	8.951036E-18
6.660000E+03	8.600774E-16	9.086850E-18
6.670000E+03	8.650584E-16	9.205309E-18
6.680000E+03	8.681356E-16	9.302656E-18
6.690000E+03	8.690745E-16	9.375882E-18
6.700000E+03	8.677478E-16	9.423095E-18
6.710000E+03	8.641533E-16	9.443761E-18
6.720000E+03	8.583710E-16	9.438275E-18
6.730000E+03	8.505605E-16	9.407965E-18
6.740000E+03	8.409139E-16	9.354588E-18
6.750000E+03	8.297102E-16	9.280946E-18
6.760000E+03	8.172324E-16	9.189980E-18
6.770000E+03	8.038055E-16	9.085188E-18
6.780000E+03	7.897591E-16	8.970217E-18
6.790000E+03	7.754286E-16	8.848861E-18
6.800000E+03	7.611467E-16	8.724963E-18
6.810000E+03	7.472390E-16	8.602358E-18
6.820000E+03	7.340176E-16	8.484787E-18
6.830000E+03	7.217818E-16	8.375898E-18
6.840000E+03	7.107865E-16	8.278862E-18
6.850000E+03	7.013092E-16	8.197151E-18
6.860000E+03	6.935591E-16	8.133463E-18
6.870000E+03	6.877532E-16	8.090600E-18
6.880000E+03	6.840754E-16	8.070986E-18
6.890000E+03	6.827023E-16	8.076955E-18
6.900000E+03	6.837814E-16	8.110497E-18
6.910000E+03	6.874201E-16	8.173110E-18
6.920000E+03	6.936568E-16	8.265456E-18
6.930000E+03	7.024728E-16	8.387485E-18
6.940000E+03	7.138312E-16	8.538901E-18
6.950000E+03	7.275956E-16	8.718184E-18
6.960000E+03	7.435944E-16	8.923349E-18
6.970000E+03	7.615714E-16	9.151361E-18
6.980000E+03	7.811153E-16	9.397282E-18
6.990000E+03	8.017276E-16	9.655082E-18
7.000000E+03	8.228508E-16	9.917988E-18
7.010000E+03	8.438207E-16	1.017791E-17
7.020000E+03	8.639615E-16	1.042660E-17
7.030000E+03	8.826079E-16	1.065593E-17
7.040000E+03	8.991804E-16	1.085883E-17
7.050000E+03	9.132159E-16	1.102962E-17
7.060000E+03	9.243625E-16	1.116402E-17
7.070000E+03	9.324993E-16	1.126056E-17
7.080000E+03	9.376319E-16	1.131933E-17
7.090000E+03	9.399565E-16	1.134275E-17
7.100000E+03	9.397966E-16	1.133482E-17
7.110000E+03	9.375827E-16	1.130082E-17
7.120000E+03	9.338367E-16	1.124715E-17
7.130000E+03	9.291241E-16	1.118074E-17
7.140000E+03	9.240129E-16	1.110852E-17
7.150000E+03	9.190357E-16	1.103699E-17
7.160000E+03	9.146907E-16	1.097221E-17
7.170000E+03	9.113606E-16	1.091881E-17
7.180000E+03	9.093691E-16	1.088070E-17
7.190000E+03	9.088838E-16	1.085992E-17
7.200000E+03	9.099735E-16	1.085727E-17
7.210000E+03	9.126364E-16	1.087275E-17
7.220000E+03	9.167392E-16	1.090475E-17
7.230000E+03	9.220393E-16	1.095040E-17
7.240000E+03	9.282606E-16	1.100645E-17
7.250000E+03	9.350164E-16	1.106835E-17
7.260000E+03	9.419137E-16	1.113152E-17
7.270000E+03	9.484847E-16	1.119054E-17
7.280000E+03	9.542755E-16	1.124017E-17
7.290000E+03	9.588179E-16	1.127508E-17
7.300000E+03	9.616765E-16	1.129034E-17
7.310000E+03	9.624485E-16	1.128144E-17
7.320000E+03	9.608121E-16	1.124487E-17
7.330000E+03	9.564831E-16	1.117753E-17
7.340000E+03	9.493741E-16	1.107868E-17
7.350000E+03	9.394480E-16	1.094812E-17
7.360000E+03	9.268383E-16	1.078763E-17
7.370000E+03	9.118011E-16	1.060040E-17
7.380000E+03	8.947230E-16	1.039108E-17
7.390000E+03	8.760122E-16	1.016453E-17
7.400000E+03	8.561632E-16	9.926584E-18
7.410000E+03	8.356372E-16	9.682626E-18
7.420000E+03	8.149105E-16	9.438200E-18
7.430000E+03	7.943835E-16	9.197938E-18
7.440000E+03	7.744300E-16	8.966154E-18
7.450000E+03	7.553354E-16	8.746124E-18
7.460000E+03	7.373482E-16	8.540702E-18
7.470000E+03	7.206541E-16	8.352020E-18
7.480000E+03	7.053698E-16	8.181423E-18
7.490000E+03	6.915631E-16	8.029709E-18
7.500000E+03	6.792742E-16	7.897369E-18
7.510000E+03	6.684750E-16	7.784120E-18
7.520000E+03	6.591271E-16	7.689570E-18
7.530000E+03	6.511415E-16	7.612680E-18
7.540000E+03	6.444137E-16	7.552218E-18
7.550000E+03	6.388154E-16	7.506682E-18
7.560000E+03	6.341938E-16	7.474287E-18
7.570000E+03	6.303720E-16	7.452962E-18
7.580000E+03	6.271453E-16	7.440293E-18
7.590000E+03	6.242759E-16	7.433452E-18
7.600000E+03	6.215588E-16	7.429969E-18
7.610000E+03	6.188503E-16	7.428076E-18
7.620000E+03	6.160878E-16	7.426952E-18
7.630000E+03	6.133766E-16	7.427799E-18
7.640000E+03	6.109062E-16	7.432868E-18
7.650000E+03	6.089073E-16	7.444958E-18
7.660000E+03	6.075970E-16	7.466762E-18
7.670000E+03	6.071197E-16	7.500142E-18
7.680000E+03	6.075916E-16	7.546656E-18
7.690000E+03	6.090470E-16	7.606886E-18
7.700000E+03	6.115048E-16	7.681241E-18
7.710000E+03	6.149010E-16	7.769102E-18
7.720000E+03	6.191524E-16	7.869599E-18
7.730000E+03	6.240952E-16	7.980817E-18
7.740000E+03	6.295143E-16	8.100140E-18
7.750000E+03	6.351957E-16	8.224902E-18
7.760000E+03	6.408593E-16	8.351511E-18
