#wls	flux	fluxerr
1.600000E+03	2.010305E-17	1.638477E-17
1.640000E+03	2.079385E-17	1.680965E-17
1.680000E+03	2.150726E-17	1.724148E-17
1.720000E+03	2.225111E-17	1.768581E-17
1.760000E+03	2.302217E-17	1.813926E-17
1.800000E+03	2.381674E-17	1.859814E-17
1.840000E+03	2.464310E-17	1.906811E-17
1.880000E+03	2.550179E-17	1.954865E-17
1.920000E+03	2.638883E-17	2.003581E-17
1.960000E+03	2.730422E-17	2.052866E-17
2.000000E+03	2.825718E-17	2.103316E-17
2.040000E+03	2.924340E-17	2.154501E-17
2.080000E+03	3.026286E-17	2.206312E-17
2.120000E+03	3.131541E-17	2.258630E-17
2.160000E+03	3.241108E-17	2.312060E-17
2.200000E+03	3.353948E-17	2.365734E-17
2.240000E+03	3.470535E-17	2.419868E-17
2.280000E+03	3.591371E-17	2.474680E-17
2.320000E+03	3.715844E-17	2.529614E-17
2.360000E+03	3.845015E-17	2.585251E-17
2.400000E+03	3.977637E-17	2.640606E-17
2.440000E+03	4.115368E-17	2.696638E-17
2.480000E+03	4.256887E-17	2.752315E-17
2.520000E+03	4.403262E-17	2.808179E-17
2.560000E+03	4.554335E-17	2.863955E-17
2.600000E+03	4.709909E-17	2.919350E-17
2.640000E+03	4.870406E-17	2.974454E-17
2.680000E+03	5.034909E-17	3.028531E-17
2.720000E+03	5.205143E-17	3.082443E-17
2.760000E+03	5.380141E-17	3.135416E-17
2.800000E+03	5.560250E-17	3.187462E-17
2.840000E+03	5.745109E-17	3.238180E-17
2.880000E+03	5.935037E-17	3.287557E-17
2.920000E+03	6.130336E-17	3.335553E-17
2.960000E+03	6.331330E-17	3.382132E-17
3.000000E+03	6.538338E-17	3.427233E-17
3.010000E+03	6.590659E-17	3.438057E-17
3.020000E+03	6.643410E-17	3.448799E-17
3.030000E+03	6.696598E-17	3.459460E-17
3.040000E+03	6.750202E-17	3.470026E-17
3.050000E+03	6.804226E-17	3.480492E-17
3.060000E+03	6.858664E-17	3.490854E-17
3.070000E+03	6.913502E-17	3.501099E-17
3.080000E+03	6.968746E-17	3.511226E-17
3.090000E+03	7.024382E-17	3.521224E-17
3.100000E+03	7.080416E-17	3.531094E-17
3.110000E+03	7.136826E-17	3.540818E-17
3.120000E+03	7.193619E-17	3.550399E-17
3.130000E+03	7.250790E-17	3.559828E-17
3.140000E+03	7.308335E-17	3.569100E-17
3.150000E+03	7.366242E-17	3.578206E-17
3.160000E+03	7.424519E-17	3.587146E-17
3.170000E+03	7.483908E-17	3.596272E-17
3.180000E+03	7.542905E-17	3.604857E-17
3.190000E+03	7.603004E-17	3.613612E-17
3.200000E+03	7.663464E-17	3.622177E-17
3.210000E+03	7.724279E-17	3.630546E-17
3.220000E+03	7.786191E-17	3.639063E-17
3.230000E+03	7.847714E-17	3.647026E-17
3.240000E+03	7.910335E-17	3.655126E-17
3.250000E+03	7.973313E-17	3.663012E-17
3.260000E+03	8.037391E-17	3.671020E-17
3.270000E+03	8.101080E-17	3.678464E-17
3.280000E+03	8.165883E-17	3.686024E-17
3.290000E+03	8.231797E-17	3.693691E-17
3.300000E+03	8.297326E-17	3.700785E-17
3.310000E+03	8.363980E-17	3.707980E-17
3.320000E+03	8.431762E-17	3.715266E-17
3.330000E+03	8.499930E-17	3.722308E-17
3.340000E+03	8.568483E-17	3.729103E-17
3.350000E+03	8.637442E-17	3.735655E-17
3.360000E+03	8.708301E-17	3.742602E-17
3.370000E+03	8.778833E-17	3.748976E-17
3.380000E+03	8.850536E-17	3.755416E-17
3.390000E+03	8.923427E-17	3.761917E-17
3.400000E+03	8.996773E-17	3.768163E-17
3.410000E+03	9.071323E-17	3.774459E-17
3.420000E+03	9.146348E-17	3.780495E-17
3.430000E+03	9.222605E-17	3.786575E-17
3.440000E+03	9.300112E-17	3.792697E-17
3.450000E+03	9.378146E-17	3.798556E-17
3.460000E+03	9.456707E-17	3.804148E-17
3.470000E+03	9.537313E-17	3.810072E-17
3.480000E+03	9.618484E-17	3.815725E-17
3.490000E+03	9.700988E-17	3.821403E-17
3.500000E+03	9.784096E-17	3.826809E-17
3.510000E+03	9.868575E-17	3.832235E-17
3.520000E+03	9.954430E-17	3.837670E-17
3.530000E+03	1.004170E-16	3.843116E-17
3.540000E+03	1.013038E-16	3.848564E-17
3.550000E+03	1.021976E-16	3.853727E-17
3.560000E+03	1.031062E-16	3.858888E-17
3.570000E+03	1.040294E-16	3.864035E-17
3.580000E+03	1.049676E-16	3.869165E-17
3.590000E+03	1.059136E-16	3.873999E-17
3.600000E+03	1.068824E-16	3.879077E-17
3.610000E+03	1.078593E-16	3.883847E-17
3.620000E+03	1.088592E-16	3.888840E-17
3.630000E+03	1.098677E-16	3.893516E-17
3.640000E+03	1.108922E-16	3.898134E-17
3.650000E+03	1.119329E-16	3.902682E-17
3.660000E+03	1.129898E-16	3.907151E-17
3.670000E+03	1.140633E-16	3.911532E-17
3.680000E+03	1.151532E-16	3.915810E-17
3.690000E+03	1.162598E-16	3.919979E-17
3.700000E+03	1.173832E-16	3.924026E-17
3.710000E+03	1.185235E-16	3.927936E-17
3.720000E+03	1.196805E-16	3.931696E-17
3.730000E+03	1.208619E-16	3.935532E-17
3.740000E+03	1.220529E-16	3.938953E-17
3.750000E+03	1.232609E-16	3.942178E-17
3.760000E+03	1.244858E-16	3.945198E-17
3.770000E+03	1.257278E-16	3.947997E-17
3.780000E+03	1.269867E-16	3.950556E-17
3.790000E+03	1.282625E-16	3.952859E-17
3.800000E+03	1.295624E-16	3.955115E-17
3.810000E+03	1.308718E-16	3.956855E-17
3.820000E+03	1.321980E-16	3.958291E-17
3.830000E+03	1.335481E-16	3.959620E-17
3.840000E+03	1.349074E-16	3.960387E-17
3.850000E+03	1.362905E-16	3.961010E-17
3.860000E+03	1.376827E-16	3.961044E-17
3.870000E+03	1.390985E-16	3.960895E-17
3.880000E+03	1.405231E-16	3.960126E-17
3.890000E+03	1.419639E-16	3.958931E-17
3.900000E+03	1.434282E-16	3.957500E-17
3.910000E+03	1.449011E-16	3.955409E-17
3.920000E+03	1.463900E-16	3.952847E-17
3.930000E+03	1.479023E-16	3.949996E-17
3.940000E+03	1.494234E-16	3.946454E-17
3.950000E+03	1.509606E-16	3.942403E-17
3.960000E+03	1.525140E-16	3.937831E-17
3.970000E+03	1.540765E-16	3.932543E-17
3.980000E+03	1.556630E-16	3.926909E-17
3.990000E+03	1.572589E-16	3.920544E-17
4.000000E+03	1.588720E-16	3.913633E-17
4.010000E+03	1.604954E-16	3.905992E-17
4.020000E+03	1.621440E-16	3.897973E-17
4.030000E+03	1.638038E-16	3.889220E-17
4.040000E+03	1.654751E-16	3.879736E-17
4.050000E+03	1.671662E-16	3.869700E-17
4.060000E+03	1.688775E-16	3.859109E-17
4.070000E+03	1.706027E-16	3.847799E-17
4.080000E+03	1.723498E-16	3.835943E-17
4.090000E+03	1.741124E-16	3.823381E-17
4.100000E+03	1.758916E-16	3.810123E-17
4.110000E+03	1.776883E-16	3.796181E-17
4.120000E+03	1.795111E-16	3.781718E-17
4.130000E+03	1.813538E-16	3.766586E-17
4.140000E+03	1.832177E-16	3.750797E-17
4.150000E+03	1.851041E-16	3.734361E-17
4.160000E+03	1.870143E-16	3.717287E-17
4.170000E+03	1.889497E-16	3.699586E-17
4.180000E+03	1.909118E-16	3.681267E-17
4.190000E+03	1.929022E-16	3.662339E-17
4.200000E+03	1.949150E-16	3.642671E-17
4.210000E+03	1.969588E-16	3.622407E-17
4.220000E+03	1.990356E-16	3.601559E-17
4.230000E+03	2.011393E-16	3.579994E-17
4.240000E+03	2.032788E-16	3.557848E-17
4.250000E+03	2.054483E-16	3.534997E-17
4.260000E+03	2.076492E-16	3.511441E-17
4.270000E+03	2.098904E-16	3.487309E-17
4.280000E+03	2.121659E-16	3.462471E-17
4.290000E+03	2.144770E-16	3.436924E-17
4.300000E+03	2.168174E-16	3.410546E-17
4.310000E+03	2.192033E-16	3.383568E-17
4.320000E+03	2.216283E-16	3.355861E-17
4.330000E+03	2.240856E-16	3.327298E-17
4.340000E+03	2.265838E-16	3.297985E-17
4.350000E+03	2.291235E-16	3.267902E-17
4.360000E+03	2.316978E-16	3.236926E-17
4.370000E+03	2.343146E-16	3.205149E-17
4.380000E+03	2.369667E-16	3.172443E-17
4.390000E+03	2.396539E-16	3.138790E-17
4.400000E+03	2.423839E-16	3.104270E-17
4.410000E+03	2.451489E-16	3.068759E-17
4.420000E+03	2.479482E-16	3.032235E-17
4.430000E+03	2.507733E-16	2.994579E-17
4.440000E+03	2.536393E-16	2.955961E-17
4.450000E+03	2.565371E-16	2.916259E-17
4.460000E+03	2.594577E-16	2.875362E-17
4.470000E+03	2.624074E-16	2.833340E-17
4.480000E+03	2.653848E-16	2.790170E-17
4.490000E+03	2.683799E-16	2.745748E-17
4.500000E+03	2.713987E-16	2.700143E-17
4.510000E+03	2.744311E-16	2.653258E-17
4.520000E+03	2.774746E-16	2.605085E-17
4.530000E+03	2.805348E-16	2.555693E-17
4.540000E+03	2.836010E-16	2.505003E-17
4.550000E+03	2.866701E-16	2.453014E-17
4.560000E+03	2.897394E-16	2.399734E-17
4.570000E+03	2.928140E-16	2.345241E-17
4.580000E+03	2.958742E-16	2.289416E-17
4.590000E+03	2.989249E-16	2.232351E-17
4.600000E+03	3.019712E-16	2.174135E-17
4.610000E+03	3.049928E-16	2.114682E-17
4.620000E+03	3.079949E-16	2.054099E-17
4.630000E+03	3.109739E-16	1.992441E-17
4.640000E+03	3.139175E-16	1.929716E-17
4.650000E+03	3.168308E-16	1.866056E-17
4.660000E+03	3.197104E-16	1.801548E-17
4.670000E+03	3.225527E-16	1.736290E-17
4.680000E+03	3.253455E-16	1.670353E-17
4.690000E+03	3.280939E-16	1.603919E-17
4.700000E+03	3.307860E-16	1.537101E-17
4.710000E+03	3.334268E-16	1.470121E-17
4.720000E+03	3.360046E-16	1.403148E-17
4.730000E+03	3.385248E-16	1.336463E-17
4.740000E+03	3.409756E-16	1.270313E-17
4.750000E+03	3.433630E-16	1.205064E-17
4.760000E+03	3.456844E-16	1.141103E-17
4.770000E+03	3.479200E-16	1.078834E-17
4.780000E+03	3.500946E-16	1.018886E-17
4.790000E+03	3.521802E-16	9.618178E-18
4.800000E+03	3.541944E-16	9.084289E-18
4.810000E+03	3.561372E-16	8.595740E-18
4.820000E+03	3.580002E-16	8.161894E-18
4.830000E+03	3.597842E-16	7.793047E-18
4.840000E+03	3.614992E-16	7.499741E-18
4.850000E+03	3.631376E-16	7.291207E-18
4.860000E+03	3.647091E-16	7.174883E-18
4.870000E+03	3.662061E-16	7.152670E-18
4.880000E+03	3.676384E-16	7.219040E-18
4.890000E+03	3.689979E-16	7.364330E-18
4.900000E+03	3.702943E-16	7.577179E-18
4.910000E+03	3.715193E-16	7.845102E-18
4.920000E+03	3.726735E-16	8.156086E-18
4.930000E+03	3.737752E-16	8.499509E-18
4.940000E+03	3.747975E-16	8.865062E-18
4.950000E+03	3.757675E-16	9.245065E-18
4.960000E+03	3.766582E-16	9.631881E-18
4.970000E+03	3.774963E-16	1.002038E-17
4.980000E+03	3.782634E-16	1.040529E-17
4.990000E+03	3.789678E-16	1.078289E-17
5.000000E+03	3.796000E-16	1.114966E-17
5.010000E+03	3.801680E-16	1.150314E-17
5.020000E+03	3.806710E-16	1.184114E-17
5.030000E+03	3.810990E-16	1.216152E-17
5.040000E+03	3.814596E-16	1.246305E-17
5.050000E+03	3.817521E-16	1.274450E-17
5.060000E+03	3.819749E-16	1.300488E-17
5.070000E+03	3.821178E-16	1.324306E-17
5.080000E+03	3.821886E-16	1.345871E-17
5.090000E+03	3.821859E-16	1.365137E-17
5.100000E+03	3.821085E-16	1.382071E-17
5.110000E+03	3.819461E-16	1.396618E-17
5.120000E+03	3.817154E-16	1.408835E-17
5.130000E+03	3.813974E-16	1.418659E-17
5.140000E+03	3.809997E-16	1.426135E-17
5.150000E+03	3.805215E-16	1.431288E-17
5.160000E+03	3.799616E-16	1.434150E-17
5.170000E+03	3.793193E-16	1.434766E-17
5.180000E+03	3.785937E-16	1.433188E-17
5.190000E+03	3.777754E-16	1.429447E-17
5.200000E+03	3.768813E-16	1.423682E-17
5.210000E+03	3.759022E-16	1.415943E-17
5.220000E+03	3.748378E-16	1.406326E-17
5.230000E+03	3.736793E-16	1.394902E-17
5.240000E+03	3.724437E-16	1.381851E-17
5.250000E+03	3.711227E-16	1.367268E-17
5.260000E+03	3.697080E-16	1.351260E-17
5.270000E+03	3.682167E-16	1.334039E-17
5.280000E+03	3.666407E-16	1.315737E-17
5.290000E+03	3.649812E-16	1.296530E-17
5.300000E+03	3.632384E-16	1.276604E-17
5.310000E+03	3.614135E-16	1.256161E-17
5.320000E+03	3.595076E-16	1.235412E-17
5.330000E+03	3.575218E-16	1.214585E-17
5.340000E+03	3.554655E-16	1.193943E-17
5.350000E+03	3.533242E-16	1.173678E-17
5.360000E+03	3.511153E-16	1.154100E-17
5.370000E+03	3.488329E-16	1.135443E-17
5.380000E+03	3.464710E-16	1.117947E-17
5.390000E+03	3.440547E-16	1.101950E-17
5.400000E+03	3.415634E-16	1.087635E-17
5.410000E+03	3.390068E-16	1.075269E-17
5.420000E+03	3.363950E-16	1.065103E-17
5.430000E+03	3.337231E-16	1.057314E-17
5.440000E+03	3.309935E-16	1.052069E-17
5.450000E+03	3.282095E-16	1.049408E-17
5.460000E+03	3.253821E-16	1.049163E-17
5.470000E+03	3.225089E-16	1.051074E-17
5.480000E+03	3.195960E-16	1.054894E-17
5.490000E+03	3.166566E-16	1.060395E-17
5.500000E+03	3.136901E-16	1.067299E-17
5.510000E+03	3.107030E-16	1.075362E-17
5.520000E+03	3.077019E-16	1.084349E-17
5.530000E+03	3.047004E-16	1.094064E-17
5.540000E+03	3.017045E-16	1.104301E-17
5.550000E+03	2.987073E-16	1.114828E-17
5.560000E+03	2.957344E-16	1.125548E-17
5.570000E+03	2.927721E-16	1.136238E-17
5.580000E+03	2.898450E-16	1.146838E-17
5.590000E+03	2.869389E-16	1.157158E-17
5.600000E+03	2.840777E-16	1.167172E-17
5.610000E+03	2.812466E-16	1.176716E-17
5.620000E+03	2.784683E-16	1.185793E-17
5.630000E+03	2.757341E-16	1.194290E-17
5.640000E+03	2.730470E-16	1.202153E-17
5.650000E+03	2.704221E-16	1.209392E-17
5.660000E+03	2.678436E-16	1.215891E-17
5.670000E+03	2.653315E-16	1.221702E-17
5.680000E+03	2.628758E-16	1.226747E-17
5.690000E+03	2.604893E-16	1.231062E-17
5.700000E+03	2.581560E-16	1.234553E-17
5.710000E+03	2.558937E-16	1.237291E-17
5.720000E+03	2.536973E-16	1.239239E-17
5.730000E+03	2.515613E-16	1.240366E-17
5.740000E+03	2.494915E-16	1.240696E-17
5.750000E+03	2.474876E-16	1.240227E-17
5.760000E+03	2.455495E-16	1.238959E-17
5.770000E+03	2.436766E-16	1.236892E-17
5.780000E+03	2.418683E-16	1.234029E-17
5.790000E+03	2.401239E-16	1.230371E-17
5.800000E+03	2.384431E-16	1.225924E-17
5.810000E+03	2.368248E-16	1.220690E-17
5.820000E+03	2.352633E-16	1.214647E-17
5.830000E+03	2.337684E-16	1.207855E-17
5.840000E+03	2.323396E-16	1.200320E-17
5.850000E+03	2.309659E-16	1.191996E-17
5.860000E+03	2.296523E-16	1.182917E-17
5.870000E+03	2.283984E-16	1.173092E-17
5.880000E+03	2.272095E-16	1.162557E-17
5.890000E+03	2.260804E-16	1.151296E-17
5.900000E+03	2.250117E-16	1.139319E-17
5.910000E+03	2.240037E-16	1.126640E-17
5.920000E+03	2.230573E-16	1.113270E-17
5.930000E+03	2.221784E-16	1.099249E-17
5.940000E+03	2.213632E-16	1.084564E-17
5.950000E+03	2.206131E-16	1.069232E-17
5.960000E+03	2.199299E-16	1.053266E-17
5.970000E+03	2.193153E-16	1.036683E-17
5.980000E+03	2.187764E-16	1.019521E-17
5.990000E+03	2.183153E-16	1.001795E-17
6.000000E+03	2.179248E-16	9.834749E-18
6.010000E+03	2.176175E-16	9.646213E-18
6.020000E+03	2.173909E-16	9.452261E-18
6.030000E+03	2.172532E-16	9.253254E-18
6.040000E+03	2.171974E-16	9.048909E-18
6.050000E+03	2.172418E-16	8.839985E-18
6.060000E+03	2.173747E-16	8.625997E-18
6.070000E+03	2.176093E-16	8.407471E-18
6.080000E+03	2.179443E-16	8.184337E-18
6.090000E+03	2.183881E-16	7.956911E-18
6.100000E+03	2.189393E-16	7.725134E-18
6.110000E+03	2.196064E-16	7.489330E-18
6.120000E+03	2.203881E-16	7.249481E-18
6.130000E+03	2.212878E-16	7.005780E-18
6.140000E+03	2.223144E-16	6.758623E-18
6.150000E+03	2.234660E-16	6.508133E-18
6.160000E+03	2.247515E-16	6.254825E-18
6.170000E+03	2.261692E-16	5.999019E-18
6.180000E+03	2.277224E-16	5.741329E-18
6.190000E+03	2.294250E-16	5.482801E-18
6.200000E+03	2.312646E-16	5.224075E-18
6.210000E+03	2.332549E-16	4.966747E-18
6.220000E+03	2.353994E-16	4.712548E-18
6.230000E+03	2.376956E-16	4.463630E-18
6.240000E+03	2.401463E-16	4.222919E-18
6.250000E+03	2.427653E-16	3.994337E-18
6.260000E+03	2.455364E-16	3.782274E-18
6.270000E+03	2.484771E-16	3.592763E-18
6.280000E+03	2.515690E-16	3.432358E-18
6.290000E+03	2.548271E-16	3.308907E-18
6.300000E+03	2.582361E-16	3.230014E-18
6.310000E+03	2.617962E-16	3.202552E-18
6.320000E+03	2.654937E-16	3.227963E-18
6.330000E+03	2.693264E-16	3.301327E-18
6.340000E+03	2.732783E-16	3.415353E-18
6.350000E+03	2.773525E-16	3.562089E-18
6.360000E+03	2.815259E-16	3.733279E-18
6.370000E+03	2.857869E-16	3.921447E-18
6.380000E+03	2.901374E-16	4.120216E-18
6.390000E+03	2.945517E-16	4.323805E-18
6.400000E+03	2.990237E-16	4.527620E-18
6.410000E+03	3.035328E-16	4.727668E-18
6.420000E+03	3.080793E-16	4.920986E-18
6.430000E+03	3.126344E-16	5.104772E-18
6.440000E+03	3.171903E-16	5.277114E-18
6.450000E+03	3.217317E-16	5.436500E-18
6.460000E+03	3.262430E-16	5.581915E-18
6.470000E+03	3.307083E-16	5.712842E-18
6.480000E+03	3.351115E-16	5.829292E-18
6.490000E+03	3.394364E-16	5.931834E-18
6.500000E+03	3.436587E-16	6.021504E-18
6.510000E+03	3.477791E-16	6.100434E-18
6.520000E+03	3.517748E-16	6.171058E-18
6.530000E+03	3.556245E-16	6.236587E-18
6.540000E+03	3.593345E-16	6.301501E-18
6.550000E+03	3.628871E-16	6.370620E-18
6.560000E+03	3.662758E-16	6.449677E-18
6.570000E+03	3.694953E-16	6.545014E-18
6.580000E+03	3.725430E-16	6.663402E-18
6.590000E+03	3.754267E-16	6.811921E-18
6.600000E+03	3.781380E-16	6.997132E-18
6.610000E+03	3.806701E-16	7.225010E-18
6.620000E+03	3.830459E-16	7.498827E-18
6.630000E+03	3.852708E-16	7.816834E-18
6.640000E+03	3.873323E-16	8.175755E-18
6.650000E+03	3.892558E-16	8.572545E-18
6.660000E+03	3.910486E-16	9.003538E-18
6.670000E+03	3.926987E-16	9.464548E-18
6.680000E+03	3.942333E-16	9.952373E-18
6.690000E+03	3.956603E-16	1.046358E-17
6.700000E+03	3.969684E-16	1.099446E-17
6.710000E+03	3.981851E-16	1.154257E-17
6.720000E+03	3.993187E-16	1.210529E-17
6.730000E+03	4.003677E-16	1.267995E-17
6.740000E+03	4.013498E-16	1.326472E-17
6.750000E+03	4.022632E-16	1.385739E-17
6.760000E+03	4.031155E-16	1.445626E-17
6.770000E+03	4.039242E-16	1.506018E-17
6.780000E+03	4.046969E-16	1.566788E-17
6.790000E+03	4.054300E-16	1.627778E-17
6.800000E+03	4.061302E-16	1.688885E-17
6.810000E+03	4.068242E-16	1.750102E-17
6.820000E+03	4.074869E-16	1.811217E-17
6.830000E+03	4.081544E-16	1.872294E-17
6.840000E+03	4.088110E-16	1.933175E-17
6.850000E+03	4.094608E-16	1.993798E-17
6.860000E+03	4.101180E-16	2.054159E-17
6.870000E+03	4.107857E-16	2.114207E-17
6.880000E+03	4.114565E-16	2.173844E-17
6.890000E+03	4.121424E-16	2.233076E-17
6.900000E+03	4.128452E-16	2.291860E-17
6.910000E+03	4.135551E-16	2.350093E-17
6.920000E+03	4.142830E-16	2.407787E-17
6.930000E+03	4.150181E-16	2.464836E-17
6.940000E+03	4.157699E-16	2.521250E-17
6.950000E+03	4.165263E-16	2.576916E-17
6.960000E+03	4.173068E-16	2.631913E-17
6.970000E+03	4.180762E-16	2.685979E-17
6.980000E+03	4.188640E-16	2.739262E-17
6.990000E+03	4.196339E-16	2.791486E-17
7.000000E+03	4.204141E-16	2.842795E-17
7.010000E+03	4.211784E-16	2.892975E-17
7.020000E+03	4.219215E-16	2.941945E-17
7.030000E+03	4.226488E-16	2.989702E-17
7.040000E+03	4.233545E-16	3.036163E-17
7.050000E+03	4.240211E-16	3.081162E-17
7.060000E+03	4.246422E-16	3.124606E-17
7.070000E+03	4.252218E-16	3.166481E-17
7.080000E+03	4.257532E-16	3.206694E-17
7.090000E+03	4.262180E-16	3.245065E-17
7.100000E+03	4.266087E-16	3.281489E-17
7.110000E+03	4.269183E-16	3.315869E-17
7.120000E+03	4.271615E-16	3.348276E-17
7.130000E+03	4.272977E-16	3.378352E-17
7.140000E+03	4.273423E-16	3.406173E-17
7.150000E+03	4.272771E-16	3.431555E-17
7.160000E+03	4.270955E-16	3.454408E-17
7.170000E+03	4.267914E-16	3.474642E-17
7.180000E+03	4.263700E-16	3.492266E-17
7.190000E+03	4.258148E-16	3.507113E-17
7.200000E+03	4.251323E-16	3.519209E-17
7.210000E+03	4.242957E-16	3.528304E-17
7.220000E+03	4.233130E-16	3.534441E-17
7.230000E+03	4.221923E-16	3.537669E-17
7.240000E+03	4.209207E-16	3.537864E-17
7.250000E+03	4.194968E-16	3.535004E-17
7.260000E+03	4.179093E-16	3.528985E-17
7.270000E+03	4.161809E-16	3.519997E-17
7.280000E+03	4.143020E-16	3.507958E-17
7.290000E+03	4.122750E-16	3.492896E-17
7.300000E+03	4.100924E-16	3.474757E-17
7.310000E+03	4.077801E-16	3.453776E-17
7.320000E+03	4.053323E-16	3.429922E-17
7.330000E+03	4.027443E-16	3.403178E-17
7.340000E+03	4.000336E-16	3.373718E-17
7.350000E+03	3.972079E-16	3.341639E-17
7.360000E+03	3.942752E-16	3.307041E-17
7.370000E+03	3.912445E-16	3.270035E-17
7.380000E+03	3.881147E-16	3.230654E-17
7.390000E+03	3.849062E-16	3.189106E-17
7.400000E+03	3.816292E-16	3.145521E-17
7.410000E+03	3.782843E-16	3.099947E-17
7.420000E+03	3.748923E-16	3.052601E-17
7.430000E+03	3.714641E-16	3.003617E-17
7.440000E+03	3.680007E-16	2.953048E-17
7.450000E+03	3.645229E-16	2.901109E-17
7.460000E+03	3.610315E-16	2.847850E-17
7.470000E+03	3.575468E-16	2.793474E-17
7.480000E+03	3.540692E-16	2.738026E-17
7.490000E+03	3.506181E-16	2.681697E-17
7.500000E+03	3.472026E-16	2.624592E-17
7.510000E+03	3.438129E-16	2.566672E-17
7.520000E+03	3.404850E-16	2.508240E-17
7.530000E+03	3.371988E-16	2.449174E-17
7.540000E+03	3.339888E-16	2.389754E-17
7.550000E+03	3.308338E-16	2.329849E-17
7.560000E+03	3.277576E-16	2.269648E-17
7.570000E+03	3.247560E-16	2.209138E-17
7.580000E+03	3.218419E-16	2.148421E-17
7.590000E+03	3.190101E-16	2.087472E-17
7.600000E+03	3.162630E-16	2.026317E-17
7.610000E+03	3.136114E-16	1.965029E-17
7.620000E+03	3.110479E-16	1.903566E-17
7.630000E+03	3.085730E-16	1.841935E-17
7.640000E+03	3.061866E-16	1.780136E-17
7.650000E+03	3.038965E-16	1.718216E-17
7.660000E+03	3.016927E-16	1.656118E-17
7.670000E+03	2.995732E-16	1.593832E-17
7.680000E+03	2.975438E-16	1.531393E-17
7.690000E+03	2.955847E-16	1.468703E-17
7.700000E+03	2.937089E-16	1.405841E-17
7.710000E+03	2.919038E-16	1.342760E-17
7.720000E+03	2.901652E-16	1.279464E-17
7.730000E+03	2.884957E-16	1.215996E-17
7.740000E+03	2.868740E-16	1.152312E-17
7.750000E+03	2.853104E-16	1.088518E-17
7.760000E+03	2.837910E-16	1.024642E-17
