#wls	flux	fluxerr
1.600000E+03	1.991944E-17	1.162431E-17
1.640000E+03	2.054129E-17	1.189765E-17
1.680000E+03	2.118642E-17	1.217748E-17
1.720000E+03	2.184783E-17	1.245934E-17
1.760000E+03	2.253306E-17	1.274714E-17
1.800000E+03	2.324254E-17	1.304061E-17
1.840000E+03	2.397260E-17	1.333722E-17
1.880000E+03	2.472324E-17	1.363649E-17
1.920000E+03	2.550295E-17	1.394261E-17
1.960000E+03	2.630353E-17	1.425050E-17
2.000000E+03	2.712930E-17	1.456198E-17
2.040000E+03	2.798036E-17	1.487654E-17
2.080000E+03	2.885672E-17	1.519357E-17
2.120000E+03	2.975835E-17	1.551246E-17
2.160000E+03	3.068512E-17	1.583250E-17
2.200000E+03	3.164189E-17	1.615557E-17
2.240000E+03	3.262354E-17	1.647834E-17
2.280000E+03	3.363498E-17	1.680263E-17
2.320000E+03	3.467613E-17	1.712762E-17
2.360000E+03	3.574678E-17	1.745246E-17
2.400000E+03	3.684099E-17	1.777351E-17
2.440000E+03	3.796960E-17	1.809525E-17
2.480000E+03	3.912662E-17	1.841397E-17
2.520000E+03	4.031155E-17	1.872864E-17
2.560000E+03	4.152991E-17	1.904099E-17
2.600000E+03	4.278145E-17	1.934997E-17
2.640000E+03	4.405946E-17	1.965168E-17
2.680000E+03	4.537621E-17	1.995069E-17
2.720000E+03	4.672512E-17	2.024307E-17
2.760000E+03	4.810585E-17	2.052773E-17
2.800000E+03	4.952496E-17	2.080647E-17
2.840000E+03	5.097570E-17	2.107538E-17
2.880000E+03	5.246505E-17	2.133632E-17
2.920000E+03	5.400057E-17	2.159117E-17
2.960000E+03	5.557605E-17	2.183618E-17
3.000000E+03	5.719247E-17	2.207052E-17
3.010000E+03	5.760106E-17	2.212656E-17
3.020000E+03	5.801734E-17	2.218380E-17
3.030000E+03	5.843403E-17	2.223944E-17
3.040000E+03	5.885851E-17	2.229625E-17
3.050000E+03	5.927606E-17	2.234863E-17
3.060000E+03	5.970888E-17	2.240496E-17
3.070000E+03	6.013479E-17	2.245686E-17
3.080000E+03	6.056867E-17	2.250989E-17
3.090000E+03	6.101061E-17	2.256403E-17
3.100000E+03	6.144566E-17	2.261373E-17
3.110000E+03	6.188884E-17	2.266453E-17
3.120000E+03	6.234024E-17	2.271641E-17
3.130000E+03	6.279239E-17	2.276660E-17
3.140000E+03	6.324528E-17	2.281510E-17
3.150000E+03	6.370660E-17	2.286465E-17
3.160000E+03	6.416878E-17	2.291250E-17
3.170000E+03	6.463186E-17	2.295865E-17
3.180000E+03	6.510356E-17	2.300582E-17
3.190000E+03	6.557629E-17	2.305128E-17
3.200000E+03	6.605780E-17	2.309774E-17
3.210000E+03	6.654046E-17	2.314249E-17
3.220000E+03	6.702432E-17	2.318553E-17
3.230000E+03	6.751721E-17	2.322953E-17
3.240000E+03	6.801145E-17	2.327183E-17
3.250000E+03	6.851491E-17	2.331507E-17
3.260000E+03	6.901987E-17	2.335660E-17
3.270000E+03	6.952638E-17	2.339641E-17
3.280000E+03	7.004242E-17	2.343715E-17
3.290000E+03	7.056019E-17	2.347617E-17
3.300000E+03	7.108770E-17	2.351611E-17
3.310000E+03	7.161713E-17	2.355433E-17
3.320000E+03	7.215652E-17	2.359345E-17
3.330000E+03	7.269804E-17	2.363085E-17
3.340000E+03	7.324174E-17	2.366653E-17
3.350000E+03	7.379577E-17	2.370309E-17
3.360000E+03	7.436028E-17	2.374051E-17
3.370000E+03	7.491924E-17	2.377364E-17
3.380000E+03	7.548890E-17	2.380763E-17
3.390000E+03	7.606944E-17	2.384247E-17
3.400000E+03	7.665284E-17	2.387559E-17
3.410000E+03	7.724739E-17	2.390953E-17
3.420000E+03	7.783688E-17	2.393923E-17
3.430000E+03	7.844599E-17	2.397226E-17
3.440000E+03	7.905850E-17	2.400358E-17
3.450000E+03	7.967451E-17	2.403318E-17
3.460000E+03	8.029415E-17	2.406108E-17
3.470000E+03	8.093417E-17	2.409224E-17
3.480000E+03	8.156971E-17	2.411918E-17
3.490000E+03	8.221771E-17	2.414690E-17
3.500000E+03	8.287834E-17	2.417535E-17
3.510000E+03	8.353486E-17	2.419962E-17
3.520000E+03	8.421280E-17	2.422707E-17
3.530000E+03	8.488689E-17	2.425034E-17
3.540000E+03	8.558276E-17	2.427671E-17
3.550000E+03	8.627519E-17	2.429896E-17
3.560000E+03	8.698124E-17	2.432185E-17
3.570000E+03	8.770108E-17	2.434537E-17
3.580000E+03	8.842657E-17	2.436715E-17
3.590000E+03	8.915762E-17	2.438716E-17
3.600000E+03	8.990315E-17	2.440775E-17
3.610000E+03	9.065474E-17	2.442659E-17
3.620000E+03	9.142112E-17	2.444595E-17
3.630000E+03	9.219400E-17	2.446353E-17
3.640000E+03	9.297337E-17	2.447930E-17
3.650000E+03	9.376824E-17	2.449555E-17
3.660000E+03	9.457886E-17	2.451226E-17
3.670000E+03	9.538790E-17	2.452486E-17
3.680000E+03	9.622184E-17	2.454012E-17
3.690000E+03	9.705449E-17	2.455124E-17
3.700000E+03	9.790384E-17	2.456274E-17
3.710000E+03	9.877000E-17	2.457455E-17
3.720000E+03	9.963541E-17	2.458221E-17
3.730000E+03	1.005271E-16	2.459235E-17
3.740000E+03	1.014184E-16	2.459832E-17
3.750000E+03	1.023275E-16	2.460450E-17
3.760000E+03	1.032547E-16	2.461086E-17
3.770000E+03	1.041821E-16	2.461301E-17
3.780000E+03	1.051372E-16	2.461741E-17
3.790000E+03	1.060928E-16	2.461760E-17
3.800000E+03	1.070676E-16	2.461783E-17
3.810000E+03	1.080526E-16	2.461592E-17
3.820000E+03	1.090572E-16	2.461396E-17
3.830000E+03	1.100725E-16	2.460981E-17
3.840000E+03	1.110987E-16	2.460345E-17
3.850000E+03	1.121455E-16	2.459692E-17
3.860000E+03	1.132036E-16	2.458810E-17
3.870000E+03	1.142733E-16	2.457696E-17
3.880000E+03	1.153645E-16	2.456554E-17
3.890000E+03	1.164583E-16	2.454971E-17
3.900000E+03	1.175836E-16	2.453550E-17
3.910000E+03	1.187121E-16	2.451684E-17
3.920000E+03	1.198632E-16	2.449768E-17
3.930000E+03	1.210276E-16	2.447599E-17
3.940000E+03	1.222152E-16	2.445369E-17
3.950000E+03	1.234069E-16	2.442684E-17
3.960000E+03	1.246226E-16	2.439929E-17
3.970000E+03	1.258525E-16	2.436903E-17
3.980000E+03	1.271071E-16	2.433795E-17
3.990000E+03	1.283667E-16	2.430218E-17
4.000000E+03	1.296515E-16	2.426548E-17
4.010000E+03	1.309520E-16	2.422591E-17
4.020000E+03	1.322783E-16	2.418524E-17
4.030000E+03	1.336106E-16	2.413973E-17
4.040000E+03	1.349696E-16	2.409304E-17
4.050000E+03	1.363453E-16	2.404323E-17
4.060000E+03	1.377380E-16	2.399027E-17
4.070000E+03	1.391481E-16	2.393412E-17
4.080000E+03	1.405758E-16	2.387470E-17
4.090000E+03	1.420316E-16	2.381371E-17
4.100000E+03	1.434953E-16	2.374758E-17
4.110000E+03	1.449877E-16	2.367972E-17
4.120000E+03	1.464989E-16	2.360832E-17
4.130000E+03	1.480184E-16	2.353163E-17
4.140000E+03	1.495677E-16	2.345299E-17
4.150000E+03	1.511363E-16	2.337059E-17
4.160000E+03	1.527353E-16	2.328601E-17
4.170000E+03	1.543435E-16	2.319588E-17
4.180000E+03	1.559715E-16	2.310178E-17
4.190000E+03	1.576198E-16	2.300361E-17
4.200000E+03	1.592883E-16	2.290132E-17
4.210000E+03	1.609772E-16	2.279479E-17
4.220000E+03	1.626979E-16	2.268552E-17
4.230000E+03	1.644282E-16	2.257028E-17
4.240000E+03	1.661791E-16	2.245054E-17
4.250000E+03	1.679507E-16	2.232622E-17
4.260000E+03	1.697429E-16	2.219721E-17
4.270000E+03	1.715559E-16	2.206343E-17
4.280000E+03	1.733896E-16	2.192479E-17
4.290000E+03	1.752439E-16	2.178119E-17
4.300000E+03	1.771068E-16	2.163108E-17
4.310000E+03	1.790018E-16	2.147727E-17
4.320000E+03	1.809049E-16	2.131681E-17
4.330000E+03	1.828276E-16	2.115102E-17
4.340000E+03	1.847698E-16	2.097981E-17
4.350000E+03	1.867310E-16	2.080310E-17
4.360000E+03	1.887109E-16	2.062081E-17
4.370000E+03	1.906968E-16	2.043151E-17
4.380000E+03	1.927126E-16	2.023778E-17
4.390000E+03	1.947331E-16	2.003692E-17
4.400000E+03	1.967701E-16	1.983018E-17
4.410000E+03	1.988105E-16	1.961627E-17
4.420000E+03	2.008783E-16	1.939759E-17
4.430000E+03	2.029476E-16	1.917165E-17
4.440000E+03	2.050176E-16	1.893847E-17
4.450000E+03	2.071127E-16	1.870039E-17
4.460000E+03	2.092062E-16	1.845506E-17
4.470000E+03	2.113099E-16	1.820363E-17
4.480000E+03	2.134228E-16	1.794612E-17
4.490000E+03	2.155306E-16	1.768148E-17
4.500000E+03	2.176449E-16	1.741086E-17
4.510000E+03	2.197513E-16	1.713330E-17
4.520000E+03	2.218614E-16	1.684994E-17
4.530000E+03	2.239738E-16	1.656090E-17
4.540000E+03	2.260737E-16	1.626532E-17
4.550000E+03	2.281727E-16	1.596440E-17
4.560000E+03	2.302691E-16	1.565830E-17
4.570000E+03	2.323478E-16	1.534637E-17
4.580000E+03	2.344204E-16	1.502979E-17
4.590000E+03	2.364715E-16	1.470803E-17
4.600000E+03	2.385127E-16	1.438232E-17
4.610000E+03	2.405283E-16	1.405225E-17
4.620000E+03	2.425302E-16	1.371912E-17
4.630000E+03	2.445025E-16	1.338269E-17
4.640000E+03	2.464569E-16	1.304432E-17
4.650000E+03	2.483914E-16	1.270466E-17
4.660000E+03	2.502756E-16	1.236303E-17
4.670000E+03	2.521500E-16	1.202242E-17
4.680000E+03	2.539840E-16	1.168233E-17
4.690000E+03	2.557752E-16	1.134383E-17
4.700000E+03	2.575361E-16	1.100871E-17
4.710000E+03	2.592501E-16	1.067760E-17
4.720000E+03	2.609296E-16	1.035252E-17
4.730000E+03	2.625580E-16	1.003439E-17
4.740000E+03	2.641480E-16	9.725446E-18
4.750000E+03	2.656830E-16	9.426946E-18
4.760000E+03	2.671761E-16	9.141379E-18
4.770000E+03	2.685957E-16	8.869814E-18
4.780000E+03	2.699847E-16	8.615938E-18
4.790000E+03	2.713120E-16	8.381037E-18
4.800000E+03	2.725765E-16	8.167459E-18
4.810000E+03	2.737923E-16	7.977950E-18
4.820000E+03	2.749436E-16	7.814267E-18
4.830000E+03	2.760299E-16	7.678436E-18
4.840000E+03	2.770654E-16	7.572599E-18
4.850000E+03	2.780348E-16	7.497574E-18
4.860000E+03	2.789526E-16	7.453411E-18
4.870000E+03	2.798035E-16	7.438244E-18
4.880000E+03	2.805873E-16	7.450192E-18
4.890000E+03	2.813188E-16	7.487414E-18
4.900000E+03	2.819832E-16	7.547025E-18
4.910000E+03	2.825805E-16	7.626381E-18
4.920000E+03	2.831256E-16	7.723174E-18
4.930000E+03	2.836190E-16	7.834723E-18
4.940000E+03	2.840306E-16	7.957581E-18
4.950000E+03	2.843911E-16	8.090091E-18
4.960000E+03	2.847004E-16	8.229934E-18
4.970000E+03	2.849293E-16	8.374099E-18
4.980000E+03	2.851081E-16	8.521491E-18
4.990000E+03	2.852370E-16	8.670348E-18
5.000000E+03	2.853018E-16	8.818646E-18
5.010000E+03	2.853031E-16	8.964972E-18
5.020000E+03	2.852560E-16	9.108544E-18
5.030000E+03	2.851467E-16	9.247822E-18
5.040000E+03	2.849755E-16	9.381852E-18
5.050000E+03	2.847577E-16	9.510304E-18
5.060000E+03	2.844795E-16	9.632012E-18
5.070000E+03	2.841415E-16	9.746388E-18
5.080000E+03	2.837589E-16	9.853452E-18
5.090000E+03	2.833179E-16	9.952317E-18
5.100000E+03	2.828192E-16	1.004268E-17
5.110000E+03	2.822779E-16	1.012482E-17
5.120000E+03	2.816947E-16	1.019859E-17
5.130000E+03	2.810416E-16	1.026288E-17
5.140000E+03	2.803481E-16	1.031868E-17
5.150000E+03	2.796146E-16	1.036603E-17
5.160000E+03	2.788138E-16	1.040396E-17
5.170000E+03	2.779886E-16	1.043417E-17
5.180000E+03	2.770977E-16	1.045528E-17
5.190000E+03	2.761698E-16	1.046853E-17
5.200000E+03	2.751917E-16	1.047369E-17
5.210000E+03	2.741781E-16	1.047156E-17
5.220000E+03	2.731159E-16	1.046196E-17
5.230000E+03	2.720196E-16	1.044578E-17
5.240000E+03	2.708627E-16	1.042238E-17
5.250000E+03	2.696868E-16	1.039375E-17
5.260000E+03	2.684520E-16	1.035881E-17
5.270000E+03	2.671995E-16	1.031958E-17
5.280000E+03	2.658900E-16	1.027504E-17
5.290000E+03	2.645508E-16	1.022674E-17
5.300000E+03	2.631698E-16	1.017473E-17
5.310000E+03	2.617607E-16	1.012009E-17
5.320000E+03	2.603113E-16	1.006291E-17
5.330000E+03	2.588354E-16	1.000429E-17
5.340000E+03	2.573210E-16	9.944323E-18
5.350000E+03	2.557689E-16	9.883638E-18
5.360000E+03	2.541929E-16	9.823347E-18
5.370000E+03	2.525935E-16	9.764045E-18
5.380000E+03	2.509468E-16	9.705382E-18
5.390000E+03	2.492908E-16	9.649384E-18
5.400000E+03	2.475897E-16	9.595203E-18
5.410000E+03	2.458807E-16	9.544804E-18
5.420000E+03	2.441287E-16	9.497302E-18
5.430000E+03	2.423586E-16	9.454127E-18
5.440000E+03	2.405714E-16	9.415724E-18
5.450000E+03	2.387561E-16	9.381870E-18
5.460000E+03	2.369145E-16	9.352205E-18
5.470000E+03	2.350605E-16	9.326700E-18
5.480000E+03	2.331963E-16	9.304868E-18
5.490000E+03	2.313132E-16	9.285771E-18
5.500000E+03	2.294138E-16	9.268932E-18
5.510000E+03	2.275122E-16	9.254340E-18
5.520000E+03	2.256110E-16	9.241547E-18
5.530000E+03	2.237017E-16	9.229664E-18
5.540000E+03	2.217870E-16	9.218275E-18
5.550000E+03	2.198802E-16	9.207434E-18
5.560000E+03	2.179839E-16	9.196782E-18
5.570000E+03	2.160897E-16	9.185517E-18
5.580000E+03	2.142104E-16	9.173767E-18
5.590000E+03	2.123379E-16	9.160802E-18
5.600000E+03	2.104744E-16	9.146350E-18
5.610000E+03	2.086426E-16	9.131062E-18
5.620000E+03	2.068138E-16	9.113391E-18
5.630000E+03	2.050202E-16	9.094472E-18
5.640000E+03	2.032437E-16	9.073258E-18
5.650000E+03	2.014861E-16	9.049598E-18
5.660000E+03	1.997591E-16	9.023813E-18
5.670000E+03	1.980640E-16	8.995790E-18
5.680000E+03	1.963927E-16	8.965005E-18
5.690000E+03	1.947565E-16	8.931828E-18
5.700000E+03	1.931472E-16	8.895763E-18
5.710000E+03	1.915754E-16	8.857200E-18
5.720000E+03	1.900426E-16	8.816116E-18
5.730000E+03	1.885406E-16	8.772056E-18
5.740000E+03	1.870797E-16	8.725440E-18
5.750000E+03	1.856610E-16	8.676271E-18
5.760000E+03	1.842765E-16	8.624132E-18
5.770000E+03	1.829362E-16	8.569458E-18
5.780000E+03	1.816322E-16	8.511860E-18
5.790000E+03	1.803743E-16	8.451776E-18
5.800000E+03	1.791632E-16	8.389233E-18
5.810000E+03	1.779911E-16	8.323861E-18
5.820000E+03	1.768675E-16	8.256099E-18
5.830000E+03	1.757845E-16	8.185585E-18
5.840000E+03	1.747601E-16	8.113160E-18
5.850000E+03	1.737779E-16	8.038064E-18
5.860000E+03	1.728385E-16	7.960342E-18
5.870000E+03	1.719598E-16	7.880820E-18
5.880000E+03	1.711254E-16	7.798757E-18
5.890000E+03	1.703361E-16	7.714200E-18
5.900000E+03	1.696093E-16	7.627946E-18
5.910000E+03	1.689290E-16	7.539275E-18
5.920000E+03	1.683042E-16	7.448605E-18
5.930000E+03	1.677274E-16	7.355599E-18
5.940000E+03	1.672075E-16	7.260661E-18
5.950000E+03	1.667452E-16	7.163818E-18
5.960000E+03	1.663413E-16	7.065100E-18
5.970000E+03	1.659883E-16	6.964191E-18
5.980000E+03	1.657033E-16	6.861803E-18
5.990000E+03	1.654627E-16	6.756957E-18
6.000000E+03	1.652918E-16	6.650688E-18
6.010000E+03	1.651750E-16	6.542360E-18
6.020000E+03	1.651296E-16	6.432656E-18
6.030000E+03	1.651403E-16	6.320967E-18
6.040000E+03	1.652079E-16	6.207344E-18
6.050000E+03	1.653497E-16	6.092441E-18
6.060000E+03	1.655507E-16	5.975703E-18
6.070000E+03	1.658198E-16	5.857485E-18
6.080000E+03	1.661582E-16	5.737853E-18
6.090000E+03	1.665590E-16	5.616610E-18
6.100000E+03	1.670316E-16	5.494140E-18
6.110000E+03	1.675854E-16	5.370814E-18
6.120000E+03	1.682054E-16	5.246238E-18
6.130000E+03	1.688928E-16	5.120597E-18
6.140000E+03	1.696658E-16	4.994597E-18
6.150000E+03	1.705092E-16	4.867984E-18
6.160000E+03	1.714329E-16	4.741297E-18
6.170000E+03	1.724385E-16	4.614886E-18
6.180000E+03	1.735278E-16	4.489167E-18
6.190000E+03	1.747026E-16	4.364633E-18
6.200000E+03	1.759560E-16	4.241666E-18
6.210000E+03	1.773075E-16	4.121391E-18
6.220000E+03	1.787413E-16	4.004211E-18
6.230000E+03	1.802685E-16	3.891296E-18
6.240000E+03	1.818912E-16	3.783761E-18
6.250000E+03	1.836114E-16	3.682877E-18
6.260000E+03	1.854219E-16	3.589900E-18
6.270000E+03	1.873419E-16	3.506769E-18
6.280000E+03	1.893535E-16	3.434850E-18
6.290000E+03	1.914659E-16	3.376133E-18
6.300000E+03	1.936781E-16	3.332463E-18
6.310000E+03	1.959883E-16	3.305633E-18
6.320000E+03	1.983934E-16	3.296768E-18
6.330000E+03	2.008896E-16	3.305375E-18
6.340000E+03	2.034625E-16	3.330281E-18
6.350000E+03	2.061280E-16	3.370581E-18
6.360000E+03	2.088608E-16	3.424538E-18
6.370000E+03	2.116771E-16	3.491001E-18
6.380000E+03	2.145505E-16	3.568103E-18
6.390000E+03	2.174862E-16	3.654535E-18
6.400000E+03	2.204785E-16	3.748898E-18
6.410000E+03	2.235213E-16	3.849910E-18
6.420000E+03	2.266087E-16	3.956437E-18
6.430000E+03	2.297341E-16	4.067501E-18
6.440000E+03	2.328906E-16	4.182292E-18
6.450000E+03	2.360594E-16	4.299962E-18
6.460000E+03	2.392566E-16	4.420478E-18
6.470000E+03	2.424508E-16	4.543123E-18
6.480000E+03	2.456583E-16	4.668245E-18
6.490000E+03	2.488465E-16	4.795452E-18
6.500000E+03	2.520320E-16	4.925461E-18
6.510000E+03	2.551809E-16	5.058190E-18
6.520000E+03	2.582972E-16	5.194447E-18
6.530000E+03	2.613857E-16	5.335224E-18
6.540000E+03	2.644126E-16	5.480868E-18
6.550000E+03	2.673841E-16	5.632653E-18
6.560000E+03	2.702938E-16	5.791702E-18
6.570000E+03	2.731358E-16	5.959227E-18
6.580000E+03	2.759049E-16	6.136502E-18
6.590000E+03	2.785969E-16	6.324839E-18
6.600000E+03	2.812080E-16	6.525554E-18
6.610000E+03	2.837360E-16	6.739945E-18
6.620000E+03	2.861789E-16	6.968747E-18
6.630000E+03	2.885361E-16	7.211444E-18
6.640000E+03	2.908067E-16	7.467238E-18
6.650000E+03	2.929905E-16	7.735248E-18
6.660000E+03	2.950872E-16	8.014531E-18
6.670000E+03	2.970968E-16	8.304110E-18
6.680000E+03	2.990194E-16	8.602978E-18
6.690000E+03	3.008551E-16	8.910132E-18
6.700000E+03	3.026046E-16	9.224573E-18
6.710000E+03	3.042682E-16	9.545311E-18
6.720000E+03	3.058311E-16	9.870885E-18
6.730000E+03	3.073253E-16	1.020135E-17
6.740000E+03	3.087363E-16	1.053532E-17
6.750000E+03	3.100648E-16	1.087192E-17
6.760000E+03	3.113121E-16	1.121031E-17
6.770000E+03	3.124792E-16	1.154969E-17
6.780000E+03	3.135675E-16	1.188930E-17
6.790000E+03	3.145783E-16	1.222840E-17
6.800000E+03	3.154966E-16	1.256566E-17
6.810000E+03	3.163561E-16	1.290168E-17
6.820000E+03	3.171424E-16	1.323521E-17
6.830000E+03	3.178567E-16	1.356565E-17
6.840000E+03	3.185005E-16	1.389244E-17
6.850000E+03	3.190751E-16	1.421502E-17
6.860000E+03	3.195820E-16	1.453289E-17
6.870000E+03	3.200228E-16	1.484557E-17
6.880000E+03	3.203988E-16	1.515260E-17
6.890000E+03	3.207115E-16	1.545355E-17
6.900000E+03	3.209453E-16	1.574717E-17
6.910000E+03	3.211354E-16	1.603472E-17
6.920000E+03	3.212661E-16	1.631502E-17
6.930000E+03	3.213390E-16	1.658773E-17
6.940000E+03	3.213551E-16	1.685252E-17
6.950000E+03	3.213158E-16	1.710909E-17
6.960000E+03	3.212222E-16	1.735714E-17
6.970000E+03	3.210757E-16	1.759640E-17
6.980000E+03	3.208772E-16	1.782663E-17
6.990000E+03	3.206277E-16	1.804757E-17
7.000000E+03	3.203286E-16	1.825902E-17
7.010000E+03	3.199809E-16	1.846076E-17
7.020000E+03	3.195853E-16	1.865260E-17
7.030000E+03	3.191261E-16	1.883336E-17
7.040000E+03	3.186381E-16	1.900487E-17
7.050000E+03	3.181052E-16	1.916598E-17
7.060000E+03	3.175283E-16	1.931657E-17
7.070000E+03	3.169083E-16	1.945649E-17
7.080000E+03	3.162462E-16	1.958565E-17
7.090000E+03	3.155261E-16	1.970290E-17
7.100000E+03	3.147821E-16	1.981023E-17
7.110000E+03	3.139986E-16	1.990654E-17
7.120000E+03	3.131597E-16	1.999071E-17
7.130000E+03	3.122996E-16	2.006481E-17
7.140000E+03	3.114023E-16	2.012773E-17
7.150000E+03	3.104523E-16	2.017838E-17
7.160000E+03	3.094837E-16	2.021892E-17
7.170000E+03	3.084640E-16	2.024716E-17
7.180000E+03	3.074274E-16	2.026530E-17
7.190000E+03	3.063419E-16	2.027120E-17
7.200000E+03	3.052248E-16	2.026597E-17
7.210000E+03	3.040933E-16	2.025074E-17
7.220000E+03	3.029159E-16	2.022341E-17
7.230000E+03	3.017100E-16	2.018515E-17
7.240000E+03	3.004765E-16	2.013602E-17
7.250000E+03	2.992165E-16	2.007612E-17
7.260000E+03	2.979311E-16	2.000556E-17
7.270000E+03	2.966214E-16	1.992445E-17
7.280000E+03	2.952727E-16	1.983185E-17
7.290000E+03	2.939179E-16	1.973003E-17
7.300000E+03	2.925264E-16	1.961699E-17
7.310000E+03	2.911312E-16	1.949503E-17
7.320000E+03	2.897019E-16	1.936217E-17
7.330000E+03	2.882713E-16	1.922070E-17
7.340000E+03	2.868090E-16	1.906869E-17
7.350000E+03	2.853321E-16	1.890736E-17
7.360000E+03	2.838419E-16	1.873690E-17
7.370000E+03	2.823243E-16	1.855649E-17
7.380000E+03	2.808112E-16	1.836836E-17
7.390000E+03	2.792886E-16	1.817168E-17
7.400000E+03	2.777424E-16	1.796567E-17
7.410000E+03	2.761892E-16	1.775153E-17
7.420000E+03	2.746453E-16	1.753044E-17
7.430000E+03	2.730816E-16	1.730068E-17
7.440000E+03	2.714996E-16	1.706247E-17
7.450000E+03	2.699302E-16	1.681791E-17
7.460000E+03	2.683595E-16	1.656627E-17
7.470000E+03	2.667741E-16	1.630687E-17
7.480000E+03	2.652043E-16	1.604171E-17
7.490000E+03	2.636217E-16	1.576922E-17
7.500000E+03	2.620421E-16	1.549052E-17
7.510000E+03	2.604519E-16	1.520496E-17
7.520000E+03	2.588808E-16	1.491446E-17
7.530000E+03	2.573009E-16	1.461755E-17
7.540000E+03	2.557414E-16	1.431607E-17
7.550000E+03	2.541747E-16	1.400865E-17
7.560000E+03	2.526155E-16	1.369628E-17
7.570000E+03	2.510505E-16	1.337844E-17
7.580000E+03	2.495081E-16	1.305685E-17
7.590000E+03	2.479611E-16	1.273026E-17
7.600000E+03	2.464235E-16	1.239963E-17
7.610000E+03	2.448958E-16	1.206520E-17
7.620000E+03	2.433782E-16	1.172722E-17
7.630000E+03	2.418710E-16	1.138593E-17
7.640000E+03	2.403608E-16	1.104100E-17
7.650000E+03	2.388612E-16	1.069337E-17
7.660000E+03	2.373722E-16	1.034334E-17
7.670000E+03	2.358940E-16	9.991278E-18
7.680000E+03	2.344131E-16	9.637010E-18
7.690000E+03	2.329429E-16	9.281547E-18
7.700000E+03	2.314830E-16	8.925363E-18
7.710000E+03	2.300334E-16	8.569004E-18
7.720000E+03	2.285939E-16	8.213101E-18
7.730000E+03	2.271511E-16	7.857925E-18
7.740000E+03	2.257178E-16	7.504809E-18
7.750000E+03	2.242939E-16	7.154751E-18
7.760000E+03	2.228789E-16	6.808924E-18
