#wls	flux	fluxerr
1.600000E+03	1.277183E-17	5.421894E-18
1.640000E+03	1.315100E-17	5.543973E-18
1.680000E+03	1.354707E-17	5.670219E-18
1.720000E+03	1.395342E-17	5.797672E-18
1.760000E+03	1.437524E-17	5.928304E-18
1.800000E+03	1.481051E-17	6.061073E-18
1.840000E+03	1.526227E-17	6.197014E-18
1.880000E+03	1.572838E-17	6.335030E-18
1.920000E+03	1.621206E-17	6.476185E-18
1.960000E+03	1.671106E-17	6.619332E-18
2.000000E+03	1.722881E-17	6.765570E-18
2.040000E+03	1.776291E-17	6.913690E-18
2.080000E+03	1.831387E-17	7.063613E-18
2.120000E+03	1.888862E-17	7.217723E-18
2.160000E+03	1.947825E-17	7.372278E-18
2.200000E+03	2.009330E-17	7.530965E-18
2.240000E+03	2.072433E-17	7.689888E-18
2.280000E+03	2.138253E-17	7.852862E-18
2.320000E+03	2.206170E-17	8.017202E-18
2.360000E+03	2.276251E-17	8.182785E-18
2.400000E+03	2.349358E-17	8.352289E-18
2.440000E+03	2.424417E-17	8.521444E-18
2.480000E+03	2.502731E-17	8.694401E-18
2.520000E+03	2.583598E-17	8.868205E-18
2.560000E+03	2.667556E-17	9.044213E-18
2.600000E+03	2.754289E-17	9.220823E-18
2.640000E+03	2.844376E-17	9.399428E-18
2.680000E+03	2.937975E-17	9.579940E-18
2.720000E+03	3.034757E-17	9.760668E-18
2.760000E+03	3.135370E-17	9.943060E-18
2.800000E+03	3.240004E-17	1.012701E-17
2.840000E+03	3.348321E-17	1.031073E-17
2.880000E+03	3.461049E-17	1.049572E-17
2.920000E+03	3.577843E-17	1.068012E-17
2.960000E+03	3.700080E-17	1.086719E-17
3.000000E+03	3.826853E-17	1.105330E-17
3.010000E+03	3.859281E-17	1.109965E-17
3.020000E+03	3.892010E-17	1.114592E-17
3.030000E+03	3.925043E-17	1.119211E-17
3.040000E+03	3.958386E-17	1.123820E-17
3.050000E+03	3.992040E-17	1.128421E-17
3.060000E+03	4.026645E-17	1.133190E-17
3.070000E+03	4.060939E-17	1.137771E-17
3.080000E+03	4.095557E-17	1.142341E-17
3.090000E+03	4.131154E-17	1.147081E-17
3.100000E+03	4.166435E-17	1.151628E-17
3.110000E+03	4.202713E-17	1.156345E-17
3.120000E+03	4.238675E-17	1.160868E-17
3.130000E+03	4.275652E-17	1.165561E-17
3.140000E+03	4.312311E-17	1.170057E-17
3.150000E+03	4.350004E-17	1.174723E-17
3.160000E+03	4.388062E-17	1.179374E-17
3.170000E+03	4.425802E-17	1.183827E-17
3.180000E+03	4.464604E-17	1.188448E-17
3.190000E+03	4.503785E-17	1.193053E-17
3.200000E+03	4.543352E-17	1.197641E-17
3.210000E+03	4.582597E-17	1.202026E-17
3.220000E+03	4.622943E-17	1.206579E-17
3.230000E+03	4.663687E-17	1.211113E-17
3.240000E+03	4.704836E-17	1.215627E-17
3.250000E+03	4.746393E-17	1.220122E-17
3.260000E+03	4.788364E-17	1.224595E-17
3.270000E+03	4.830753E-17	1.229046E-17
3.280000E+03	4.873565E-17	1.233475E-17
3.290000E+03	4.916806E-17	1.237880E-17
3.300000E+03	4.961241E-17	1.242452E-17
3.310000E+03	5.005359E-17	1.246807E-17
3.320000E+03	5.049922E-17	1.251137E-17
3.330000E+03	5.094932E-17	1.255440E-17
3.340000E+03	5.141180E-17	1.259906E-17
3.350000E+03	5.187109E-17	1.264152E-17
3.360000E+03	5.233501E-17	1.268367E-17
3.370000E+03	5.281165E-17	1.272744E-17
3.380000E+03	5.328506E-17	1.276896E-17
3.390000E+03	5.376327E-17	1.281014E-17
3.400000E+03	5.425453E-17	1.285292E-17
3.410000E+03	5.474254E-17	1.289339E-17
3.420000E+03	5.524385E-17	1.293545E-17
3.430000E+03	5.575028E-17	1.297713E-17
3.440000E+03	5.625341E-17	1.301646E-17
3.450000E+03	5.677018E-17	1.305734E-17
3.460000E+03	5.728364E-17	1.309583E-17
3.470000E+03	5.781097E-17	1.313586E-17
3.480000E+03	5.834370E-17	1.317543E-17
3.490000E+03	5.888186E-17	1.321454E-17
3.500000E+03	5.941663E-17	1.325119E-17
3.510000E+03	5.996575E-17	1.328932E-17
3.520000E+03	6.052047E-17	1.332694E-17
3.530000E+03	6.108083E-17	1.336403E-17
3.540000E+03	6.164687E-17	1.340058E-17
3.550000E+03	6.220942E-17	1.343456E-17
3.560000E+03	6.278691E-17	1.346995E-17
3.570000E+03	6.337024E-17	1.350474E-17
3.580000E+03	6.395943E-17	1.353891E-17
3.590000E+03	6.455454E-17	1.357243E-17
3.600000E+03	6.515563E-17	1.360530E-17
3.610000E+03	6.576271E-17	1.363748E-17
3.620000E+03	6.637583E-17	1.366895E-17
3.630000E+03	6.699503E-17	1.369970E-17
3.640000E+03	6.762036E-17	1.372970E-17
3.650000E+03	6.825185E-17	1.375893E-17
3.660000E+03	6.888952E-17	1.378736E-17
3.670000E+03	6.953342E-17	1.381498E-17
3.680000E+03	7.019381E-17	1.384377E-17
3.690000E+03	7.085033E-17	1.386967E-17
3.700000E+03	7.151315E-17	1.389467E-17
3.710000E+03	7.218231E-17	1.391876E-17
3.720000E+03	7.285782E-17	1.394189E-17
3.730000E+03	7.353971E-17	1.396406E-17
3.740000E+03	7.423873E-17	1.398724E-17
3.750000E+03	7.493350E-17	1.400737E-17
3.760000E+03	7.563469E-17	1.402644E-17
3.770000E+03	7.634230E-17	1.404441E-17
3.780000E+03	7.706743E-17	1.406329E-17
3.790000E+03	7.778800E-17	1.407900E-17
3.800000E+03	7.851499E-17	1.409353E-17
3.810000E+03	7.924841E-17	1.410684E-17
3.820000E+03	7.999969E-17	1.412093E-17
3.830000E+03	8.074602E-17	1.413173E-17
3.840000E+03	8.149874E-17	1.414121E-17
3.850000E+03	8.225781E-17	1.414935E-17
3.860000E+03	8.303506E-17	1.415813E-17
3.870000E+03	8.380687E-17	1.416348E-17
3.880000E+03	8.458497E-17	1.416738E-17
3.890000E+03	8.538141E-17	1.417182E-17
3.900000E+03	8.617203E-17	1.417272E-17
3.910000E+03	8.696878E-17	1.417208E-17
3.920000E+03	8.778403E-17	1.417185E-17
3.930000E+03	8.859299E-17	1.416800E-17
3.940000E+03	8.940791E-17	1.416248E-17
3.950000E+03	9.022872E-17	1.415527E-17
3.960000E+03	9.106815E-17	1.414832E-17
3.970000E+03	9.190058E-17	1.413761E-17
3.980000E+03	9.273865E-17	1.412509E-17
3.990000E+03	9.359536E-17	1.411271E-17
4.000000E+03	9.444449E-17	1.409646E-17
4.010000E+03	9.529894E-17	1.407831E-17
4.020000E+03	9.615859E-17	1.405820E-17
4.030000E+03	9.703684E-17	1.403806E-17
4.040000E+03	9.790661E-17	1.401393E-17
4.050000E+03	9.878117E-17	1.398775E-17
4.060000E+03	9.966038E-17	1.395947E-17
4.070000E+03	1.005580E-16	1.393100E-17
4.080000E+03	1.014462E-16	1.389842E-17
4.090000E+03	1.023385E-16	1.386365E-17
4.100000E+03	1.032347E-16	1.382665E-17
4.110000E+03	1.041348E-16	1.378739E-17
4.120000E+03	1.050384E-16	1.374584E-17
4.130000E+03	1.059599E-16	1.370385E-17
4.140000E+03	1.068702E-16	1.365762E-17
4.150000E+03	1.077835E-16	1.360901E-17
4.160000E+03	1.086994E-16	1.355800E-17
4.170000E+03	1.096178E-16	1.350456E-17
4.180000E+03	1.105383E-16	1.344866E-17
4.190000E+03	1.114608E-16	1.339029E-17
4.200000E+03	1.123851E-16	1.332943E-17
4.210000E+03	1.133106E-16	1.326605E-17
4.220000E+03	1.142372E-16	1.320014E-17
4.230000E+03	1.151648E-16	1.313169E-17
4.240000E+03	1.160927E-16	1.306069E-17
4.250000E+03	1.170208E-16	1.298712E-17
4.260000E+03	1.179329E-16	1.290925E-17
4.270000E+03	1.188603E-16	1.283056E-17
4.280000E+03	1.197868E-16	1.274928E-17
4.290000E+03	1.207122E-16	1.266546E-17
4.300000E+03	1.216360E-16	1.257906E-17
4.310000E+03	1.225413E-16	1.248842E-17
4.320000E+03	1.234608E-16	1.239695E-17
4.330000E+03	1.243775E-16	1.230294E-17
4.340000E+03	1.252743E-16	1.220480E-17
4.350000E+03	1.261844E-16	1.210584E-17
4.360000E+03	1.270734E-16	1.200282E-17
4.370000E+03	1.279751E-16	1.189902E-17
4.380000E+03	1.288548E-16	1.179128E-17
4.390000E+03	1.297462E-16	1.168279E-17
4.400000E+03	1.306148E-16	1.157050E-17
4.410000E+03	1.314945E-16	1.145755E-17
4.420000E+03	1.323500E-16	1.134093E-17
4.430000E+03	1.331983E-16	1.122227E-17
4.440000E+03	1.340567E-16	1.110311E-17
4.450000E+03	1.348893E-16	1.098056E-17
4.460000E+03	1.357131E-16	1.085622E-17
4.470000E+03	1.365280E-16	1.073018E-17
4.480000E+03	1.373332E-16	1.060254E-17
4.490000E+03	1.381283E-16	1.047342E-17
4.500000E+03	1.389312E-16	1.034430E-17
4.510000E+03	1.397049E-16	1.021258E-17
4.520000E+03	1.404670E-16	1.007977E-17
4.530000E+03	1.411985E-16	9.944720E-18
4.540000E+03	1.419359E-16	9.810215E-18
4.550000E+03	1.426603E-16	9.675100E-18
4.560000E+03	1.433712E-16	9.539555E-18
4.570000E+03	1.440681E-16	9.403779E-18
4.580000E+03	1.447316E-16	9.266755E-18
4.590000E+03	1.453990E-16	9.131139E-18
4.600000E+03	1.460509E-16	8.995922E-18
4.610000E+03	1.466679E-16	8.860197E-18
4.620000E+03	1.472874E-16	8.726523E-18
4.630000E+03	1.478709E-16	8.592882E-18
4.640000E+03	1.484564E-16	8.461795E-18
4.650000E+03	1.490046E-16	8.331318E-18
4.660000E+03	1.495345E-16	8.202866E-18
4.670000E+03	1.500458E-16	8.076744E-18
4.680000E+03	1.505574E-16	7.954289E-18
4.690000E+03	1.510300E-16	7.833746E-18
4.700000E+03	1.514826E-16	7.716485E-18
4.710000E+03	1.519148E-16	7.602840E-18
4.720000E+03	1.523264E-16	7.493147E-18
4.730000E+03	1.527169E-16	7.387744E-18
4.740000E+03	1.530861E-16	7.286966E-18
4.750000E+03	1.534334E-16	7.191139E-18
4.760000E+03	1.537588E-16	7.100596E-18
4.770000E+03	1.540420E-16	7.014746E-18
4.780000E+03	1.543224E-16	6.935705E-18
4.790000E+03	1.545799E-16	6.862835E-18
4.800000E+03	1.547946E-16	6.795530E-18
4.810000E+03	1.550057E-16	6.735767E-18
4.820000E+03	1.551736E-16	6.681917E-18
4.830000E+03	1.553379E-16	6.635547E-18
4.840000E+03	1.554589E-16	6.594739E-18
4.850000E+03	1.555566E-16	6.560117E-18
4.860000E+03	1.556310E-16	6.531403E-18
4.870000E+03	1.557021E-16	6.509138E-18
4.880000E+03	1.557304E-16	6.491348E-18
4.890000E+03	1.557358E-16	6.478533E-18
4.900000E+03	1.557185E-16	6.470345E-18
4.910000E+03	1.556787E-16	6.466429E-18
4.920000E+03	1.556165E-16	6.466425E-18
4.930000E+03	1.555324E-16	6.469971E-18
4.940000E+03	1.554066E-16	6.475881E-18
4.950000E+03	1.552791E-16	6.485439E-18
4.960000E+03	1.551301E-16	6.497463E-18
4.970000E+03	1.549406E-16	6.510796E-18
4.980000E+03	1.547499E-16	6.526742E-18
4.990000E+03	1.545192E-16	6.543332E-18
5.000000E+03	1.542880E-16	6.561917E-18
5.010000E+03	1.540177E-16	6.580547E-18
5.020000E+03	1.537280E-16	6.599771E-18
5.030000E+03	1.534387E-16	6.620162E-18
5.040000E+03	1.531113E-16	6.639814E-18
5.050000E+03	1.527659E-16	6.659336E-18
5.060000E+03	1.524026E-16	6.678521E-18
5.070000E+03	1.520220E-16	6.697177E-18
5.080000E+03	1.516244E-16	6.715125E-18
5.090000E+03	1.512103E-16	6.732212E-18
5.100000E+03	1.507801E-16	6.748301E-18
5.110000E+03	1.503342E-16	6.763258E-18
5.120000E+03	1.498544E-16	6.776134E-18
5.130000E+03	1.493786E-16	6.788519E-18
5.140000E+03	1.488886E-16	6.799491E-18
5.150000E+03	1.483662E-16	6.808125E-18
5.160000E+03	1.478490E-16	6.816070E-18
5.170000E+03	1.473005E-16	6.821575E-18
5.180000E+03	1.467399E-16	6.825471E-18
5.190000E+03	1.461857E-16	6.828579E-18
5.200000E+03	1.456018E-16	6.829185E-18
5.210000E+03	1.450072E-16	6.828141E-18
5.220000E+03	1.444023E-16	6.825460E-18
5.230000E+03	1.437876E-16	6.821153E-18
5.240000E+03	1.431635E-16	6.815245E-18
5.250000E+03	1.425306E-16	6.807773E-18
5.260000E+03	1.418893E-16	6.798776E-18
5.270000E+03	1.412402E-16	6.788293E-18
5.280000E+03	1.405662E-16	6.775540E-18
5.290000E+03	1.399028E-16	6.762254E-18
5.300000E+03	1.392331E-16	6.747660E-18
5.310000E+03	1.385401E-16	6.730984E-18
5.320000E+03	1.378590E-16	6.713970E-18
5.330000E+03	1.371558E-16	6.695027E-18
5.340000E+03	1.364652E-16	6.675889E-18
5.350000E+03	1.357537E-16	6.654982E-18
5.360000E+03	1.350387E-16	6.633220E-18
5.370000E+03	1.343374E-16	6.611500E-18
5.380000E+03	1.336167E-16	6.588269E-18
5.390000E+03	1.328939E-16	6.564435E-18
5.400000E+03	1.321696E-16	6.540089E-18
5.410000E+03	1.314439E-16	6.515310E-18
5.420000E+03	1.307173E-16	6.490185E-18
5.430000E+03	1.299904E-16	6.464802E-18
5.440000E+03	1.292635E-16	6.439245E-18
5.450000E+03	1.285210E-16	6.412800E-18
5.460000E+03	1.277952E-16	6.387124E-18
5.470000E+03	1.270709E-16	6.361404E-18
5.480000E+03	1.263328E-16	6.334803E-18
5.490000E+03	1.256130E-16	6.308845E-18
5.500000E+03	1.248809E-16	6.281920E-18
5.510000E+03	1.241682E-16	6.255546E-18
5.520000E+03	1.234445E-16	6.228126E-18
5.530000E+03	1.227411E-16	6.201163E-18
5.540000E+03	1.220283E-16	6.173091E-18
5.550000E+03	1.213217E-16	6.144635E-18
5.560000E+03	1.206220E-16	6.115770E-18
5.570000E+03	1.199297E-16	6.086455E-18
5.580000E+03	1.192452E-16	6.056667E-18
5.590000E+03	1.185691E-16	6.026375E-18
5.600000E+03	1.179019E-16	5.995558E-18
5.610000E+03	1.172442E-16	5.964197E-18
5.620000E+03	1.165963E-16	5.932266E-18
5.630000E+03	1.159587E-16	5.899750E-18
5.640000E+03	1.153319E-16	5.866629E-18
5.650000E+03	1.147023E-16	5.832182E-18
5.660000E+03	1.140984E-16	5.797824E-18
5.670000E+03	1.135067E-16	5.762831E-18
5.680000E+03	1.129135E-16	5.726491E-18
5.690000E+03	1.123473E-16	5.690210E-18
5.700000E+03	1.117805E-16	5.652577E-18
5.710000E+03	1.112276E-16	5.614297E-18
5.720000E+03	1.107024E-16	5.576047E-18
5.730000E+03	1.101781E-16	5.536458E-18
5.740000E+03	1.096687E-16	5.496223E-18
5.750000E+03	1.091746E-16	5.455341E-18
5.760000E+03	1.087094E-16	5.414476E-18
5.770000E+03	1.082467E-16	5.372303E-18
5.780000E+03	1.078003E-16	5.329499E-18
5.790000E+03	1.073705E-16	5.286067E-18
5.800000E+03	1.069575E-16	5.242013E-18
5.810000E+03	1.065619E-16	5.197350E-18
5.820000E+03	1.061838E-16	5.152083E-18
5.830000E+03	1.058106E-16	5.105600E-18
5.840000E+03	1.054687E-16	5.059169E-18
5.850000E+03	1.051451E-16	5.012162E-18
5.860000E+03	1.048404E-16	4.964597E-18
5.870000E+03	1.045421E-16	4.915889E-18
5.880000E+03	1.042760E-16	4.867250E-18
5.890000E+03	1.040296E-16	4.818096E-18
5.900000E+03	1.037907E-16	4.767859E-18
5.910000E+03	1.035848E-16	4.717721E-18
5.920000E+03	1.033870E-16	4.666545E-18
5.930000E+03	1.032102E-16	4.614931E-18
5.940000E+03	1.030674E-16	4.563457E-18
5.950000E+03	1.029337E-16	4.511025E-18
5.960000E+03	1.028219E-16	4.458216E-18
5.970000E+03	1.027451E-16	4.405601E-18
5.980000E+03	1.026784E-16	4.352118E-18
5.990000E+03	1.026349E-16	4.298349E-18
6.000000E+03	1.026146E-16	4.244318E-18
6.010000E+03	1.026181E-16	4.190064E-18
6.020000E+03	1.026457E-16	4.135627E-18
6.030000E+03	1.026978E-16	4.081048E-18
6.040000E+03	1.027747E-16	4.026378E-18
6.050000E+03	1.028770E-16	3.971671E-18
6.060000E+03	1.030049E-16	3.916976E-18
6.070000E+03	1.031589E-16	3.862371E-18
6.080000E+03	1.033393E-16	3.807917E-18
6.090000E+03	1.035340E-16	3.753240E-18
6.100000E+03	1.037688E-16	3.699354E-18
6.110000E+03	1.040313E-16	3.645890E-18
6.120000E+03	1.043222E-16	3.592959E-18
6.130000E+03	1.046290E-16	3.540252E-18
6.140000E+03	1.049778E-16	3.488770E-18
6.150000E+03	1.053436E-16	3.437811E-18
6.160000E+03	1.057523E-16	3.388378E-18
6.170000E+03	1.061790E-16	3.339828E-18
6.180000E+03	1.066499E-16	3.293177E-18
6.190000E+03	1.071395E-16	3.247836E-18
6.200000E+03	1.076745E-16	3.204843E-18
6.210000E+03	1.082293E-16	3.163670E-18
6.220000E+03	1.088175E-16	3.124999E-18
6.230000E+03	1.094530E-16	3.089504E-18
6.240000E+03	1.101095E-16	3.056749E-18
6.250000E+03	1.108010E-16	3.027462E-18
6.260000E+03	1.115417E-16	3.002366E-18
6.270000E+03	1.123046E-16	2.981094E-18
6.280000E+03	1.131034E-16	2.964388E-18
6.290000E+03	1.139380E-16	2.952622E-18
6.300000E+03	1.148075E-16	2.946131E-18
6.310000E+03	1.157108E-16	2.945017E-18
6.320000E+03	1.166467E-16	2.949229E-18
6.330000E+03	1.176141E-16	2.958698E-18
6.340000E+03	1.186114E-16	2.973338E-18
6.350000E+03	1.196375E-16	2.993048E-18
6.360000E+03	1.206907E-16	3.017715E-18
6.370000E+03	1.217698E-16	3.047221E-18
6.380000E+03	1.228730E-16	3.081436E-18
6.390000E+03	1.239989E-16	3.120228E-18
6.400000E+03	1.251303E-16	3.163076E-18
6.410000E+03	1.262963E-16	3.210619E-18
6.420000E+03	1.274797E-16	3.262344E-18
6.430000E+03	1.286788E-16	3.318129E-18
6.440000E+03	1.298757E-16	3.377445E-18
6.450000E+03	1.311002E-16	3.441002E-18
6.460000E+03	1.323344E-16	3.508297E-18
6.470000E+03	1.335600E-16	3.578801E-18
6.480000E+03	1.348073E-16	3.653307E-18
6.490000E+03	1.360581E-16	3.731317E-18
6.500000E+03	1.372930E-16	3.812304E-18
6.510000E+03	1.385435E-16	3.897148E-18
6.520000E+03	1.397733E-16	3.984861E-18
6.530000E+03	1.410143E-16	4.076384E-18
6.540000E+03	1.422294E-16	4.170700E-18
6.550000E+03	1.434338E-16	4.268290E-18
6.560000E+03	1.446428E-16	4.369681E-18
6.570000E+03	1.458191E-16	4.473818E-18
6.580000E+03	1.469967E-16	4.581802E-18
6.590000E+03	1.481380E-16	4.692549E-18
6.600000E+03	1.492601E-16	4.806645E-18
6.610000E+03	1.503802E-16	4.924627E-18
6.620000E+03	1.514612E-16	5.045076E-18
6.630000E+03	1.525208E-16	5.168329E-18
6.640000E+03	1.535582E-16	5.294126E-18
6.650000E+03	1.545732E-16	5.422220E-18
6.660000E+03	1.555842E-16	5.553028E-18
6.670000E+03	1.565527E-16	5.684943E-18
6.680000E+03	1.574972E-16	5.818378E-18
6.690000E+03	1.584171E-16	5.953071E-18
6.700000E+03	1.593123E-16	6.088784E-18
6.710000E+03	1.601822E-16	6.225254E-18
6.720000E+03	1.610267E-16	6.362251E-18
6.730000E+03	1.618452E-16	6.499524E-18
6.740000E+03	1.626375E-16	6.636844E-18
6.750000E+03	1.634034E-16	6.773980E-18
6.760000E+03	1.641426E-16	6.910707E-18
6.770000E+03	1.648548E-16	7.046807E-18
6.780000E+03	1.655400E-16	7.182067E-18
6.790000E+03	1.661979E-16	7.316285E-18
6.800000E+03	1.668283E-16	7.449249E-18
6.810000E+03	1.674312E-16	7.580765E-18
6.820000E+03	1.679857E-16	7.709701E-18
6.830000E+03	1.685331E-16	7.837751E-18
6.840000E+03	1.690529E-16	7.963810E-18
6.850000E+03	1.695448E-16	8.087704E-18
6.860000E+03	1.699880E-16	8.208254E-18
6.870000E+03	1.704244E-16	8.327312E-18
6.880000E+03	1.708330E-16	8.443730E-18
6.890000E+03	1.712141E-16	8.557362E-18
6.900000E+03	1.715462E-16	8.666991E-18
6.910000E+03	1.718721E-16	8.774615E-18
6.920000E+03	1.721493E-16	8.877949E-18
6.930000E+03	1.724207E-16	8.979063E-18
6.940000E+03	1.726652E-16	9.076753E-18
6.950000E+03	1.728613E-16	9.169765E-18
6.960000E+03	1.730520E-16	9.260259E-18
6.970000E+03	1.731949E-16	9.345856E-18
6.980000E+03	1.733331E-16	9.428779E-18
6.990000E+03	1.734237E-16	9.506598E-18
7.000000E+03	1.735102E-16	9.581595E-18
7.010000E+03	1.735496E-16	9.651323E-18
7.020000E+03	1.735640E-16	9.716899E-18
7.030000E+03	1.735750E-16	9.779469E-18
7.040000E+03	1.735398E-16	9.836553E-18
7.050000E+03	1.735020E-16	9.890546E-18
7.060000E+03	1.734188E-16	9.938947E-18
7.070000E+03	1.733119E-16	9.982929E-18
7.080000E+03	1.731819E-16	1.002247E-17
7.090000E+03	1.730506E-16	1.005878E-17
7.100000E+03	1.728752E-16	1.008934E-17
7.110000E+03	1.726777E-16	1.011539E-17
7.120000E+03	1.724585E-16	1.013689E-17
7.130000E+03	1.722179E-16	1.015384E-17
7.140000E+03	1.719780E-16	1.016752E-17
7.150000E+03	1.716959E-16	1.017537E-17
7.160000E+03	1.713937E-16	1.017867E-17
7.170000E+03	1.710717E-16	1.017742E-17
7.180000E+03	1.707305E-16	1.017164E-17
7.190000E+03	1.703702E-16	1.016135E-17
7.200000E+03	1.699915E-16	1.014655E-17
7.210000E+03	1.695946E-16	1.012728E-17
7.220000E+03	1.691801E-16	1.010357E-17
7.230000E+03	1.687483E-16	1.007545E-17
7.240000E+03	1.682996E-16	1.004294E-17
7.250000E+03	1.678344E-16	1.000609E-17
7.260000E+03	1.673532E-16	9.964949E-18
7.270000E+03	1.668563E-16	9.919550E-18
7.280000E+03	1.663234E-16	9.868713E-18
7.290000E+03	1.657966E-16	9.814964E-18
7.300000E+03	1.652554E-16	9.757125E-18
7.310000E+03	1.647001E-16	9.695243E-18
7.320000E+03	1.641106E-16	9.628177E-18
7.330000E+03	1.635285E-16	9.558416E-18
7.340000E+03	1.629336E-16	9.484812E-18
7.350000E+03	1.623264E-16	9.407439E-18
7.360000E+03	1.616866E-16	9.325187E-18
7.370000E+03	1.610556E-16	9.240494E-18
7.380000E+03	1.603931E-16	9.151109E-18
7.390000E+03	1.597400E-16	9.059425E-18
7.400000E+03	1.590764E-16	8.964366E-18
7.410000E+03	1.583825E-16	8.864898E-18
7.420000E+03	1.576989E-16	8.763367E-18
7.430000E+03	1.569859E-16	8.657631E-18
7.440000E+03	1.562838E-16	8.550007E-18
7.450000E+03	1.555531E-16	8.438403E-18
7.460000E+03	1.548142E-16	8.324028E-18
7.470000E+03	1.540867E-16	8.208026E-18
7.480000E+03	1.533321E-16	8.088420E-18
7.490000E+03	1.525702E-16	7.966378E-18
7.500000E+03	1.518205E-16	7.843015E-18
7.510000E+03	1.510448E-16	7.716450E-18
7.520000E+03	1.502627E-16	7.587818E-18
7.530000E+03	1.494745E-16	7.457255E-18
7.540000E+03	1.486994E-16	7.325841E-18
7.550000E+03	1.478998E-16	7.191830E-18
7.560000E+03	1.470949E-16	7.056328E-18
7.570000E+03	1.462853E-16	6.919502E-18
7.580000E+03	1.454707E-16	6.781503E-18
7.590000E+03	1.446519E-16	6.642518E-18
7.600000E+03	1.438288E-16	6.502726E-18
7.610000E+03	1.430018E-16	6.362326E-18
7.620000E+03	1.421712E-16	6.221524E-18
7.630000E+03	1.413371E-16	6.080539E-18
7.640000E+03	1.404998E-16	5.939602E-18
7.650000E+03	1.396595E-16	5.798963E-18
7.660000E+03	1.388165E-16	5.658885E-18
7.670000E+03	1.379710E-16	5.519657E-18
7.680000E+03	1.371232E-16	5.381578E-18
7.690000E+03	1.362732E-16	5.244974E-18
7.700000E+03	1.354039E-16	5.109539E-18
7.710000E+03	1.345505E-16	4.976980E-18
7.720000E+03	1.336954E-16	4.847021E-18
7.730000E+03	1.328221E-16	4.719501E-18
7.740000E+03	1.319647E-16	4.596099E-18
7.750000E+03	1.311062E-16	4.476693E-18
7.760000E+03	1.302304E-16	4.361253E-18
