#wls	flux	fluxerr
1.600000E+03	7.709175E-18	2.261220E-18
1.640000E+03	7.913066E-18	2.307803E-18
1.680000E+03	8.124289E-18	2.355579E-18
1.720000E+03	8.343161E-18	2.404580E-18
1.760000E+03	8.570002E-18	2.454832E-18
1.800000E+03	8.805139E-18	2.506362E-18
1.840000E+03	9.048935E-18	2.559200E-18
1.880000E+03	9.301760E-18	2.613376E-18
1.920000E+03	9.563988E-18	2.668914E-18
1.960000E+03	9.837800E-18	2.726334E-18
2.000000E+03	1.012014E-17	2.784696E-18
2.040000E+03	1.041503E-17	2.845017E-18
2.080000E+03	1.071927E-17	2.906316E-18
2.120000E+03	1.103712E-17	2.969649E-18
2.160000E+03	1.136726E-17	3.034536E-18
2.200000E+03	1.170811E-17	3.100446E-18
2.240000E+03	1.206438E-17	3.168502E-18
2.280000E+03	1.243463E-17	3.238185E-18
2.320000E+03	1.281947E-17	3.309514E-18
2.360000E+03	1.321955E-17	3.382509E-18
2.400000E+03	1.363555E-17	3.457187E-18
2.440000E+03	1.406818E-17	3.533563E-18
2.480000E+03	1.451816E-17	3.611643E-18
2.520000E+03	1.498895E-17	3.692095E-18
2.560000E+03	1.547607E-17	3.773618E-18
2.600000E+03	1.598293E-17	3.856851E-18
2.640000E+03	1.651335E-17	3.942486E-18
2.680000E+03	1.706241E-17	4.029119E-18
2.720000E+03	1.763702E-17	4.118143E-18
2.760000E+03	1.823518E-17	4.208824E-18
2.800000E+03	1.885456E-17	4.300359E-18
2.840000E+03	1.950271E-17	4.394203E-18
2.880000E+03	2.017744E-17	4.489543E-18
2.920000E+03	2.087978E-17	4.586301E-18
2.960000E+03	2.161081E-17	4.684383E-18
3.000000E+03	2.237158E-17	4.783677E-18
3.010000E+03	2.256655E-17	4.808676E-18
3.020000E+03	2.276347E-17	4.833742E-18
3.030000E+03	2.296234E-17	4.858870E-18
3.040000E+03	2.316319E-17	4.884057E-18
3.050000E+03	2.336603E-17	4.909305E-18
3.060000E+03	2.357089E-17	4.934608E-18
3.070000E+03	2.377776E-17	4.959965E-18
3.080000E+03	2.398669E-17	4.985373E-18
3.090000E+03	2.419767E-17	5.010829E-18
3.100000E+03	2.441073E-17	5.036328E-18
3.110000E+03	2.462588E-17	5.061872E-18
3.120000E+03	2.484314E-17	5.087453E-18
3.130000E+03	2.506253E-17	5.113072E-18
3.140000E+03	2.528405E-17	5.138722E-18
3.150000E+03	2.550774E-17	5.164402E-18
3.160000E+03	2.573359E-17	5.190108E-18
3.170000E+03	2.596164E-17	5.215835E-18
3.180000E+03	2.619188E-17	5.241580E-18
3.190000E+03	2.642434E-17	5.267341E-18
3.200000E+03	2.665904E-17	5.293114E-18
3.210000E+03	2.689599E-17	5.318893E-18
3.220000E+03	2.713520E-17	5.344674E-18
3.230000E+03	2.737669E-17	5.370455E-18
3.240000E+03	2.762531E-17	5.397175E-18
3.250000E+03	2.787143E-17	5.422944E-18
3.260000E+03	2.811987E-17	5.448697E-18
3.270000E+03	2.837066E-17	5.474433E-18
3.280000E+03	2.862377E-17	5.500142E-18
3.290000E+03	2.887925E-17	5.525821E-18
3.300000E+03	2.913709E-17	5.551467E-18
3.310000E+03	2.939732E-17	5.577073E-18
3.320000E+03	2.965994E-17	5.602634E-18
3.330000E+03	2.992497E-17	5.628145E-18
3.340000E+03	3.019241E-17	5.653600E-18
3.350000E+03	3.046227E-17	5.678992E-18
3.360000E+03	3.073456E-17	5.704317E-18
3.370000E+03	3.100930E-17	5.729568E-18
3.380000E+03	3.129198E-17	5.755748E-18
3.390000E+03	3.157168E-17	5.780838E-18
3.400000E+03	3.185385E-17	5.805835E-18
3.410000E+03	3.213850E-17	5.830734E-18
3.420000E+03	3.242562E-17	5.855526E-18
3.430000E+03	3.271524E-17	5.880207E-18
3.440000E+03	3.300735E-17	5.904767E-18
3.450000E+03	3.330195E-17	5.929201E-18
3.460000E+03	3.359906E-17	5.953501E-18
3.470000E+03	3.389866E-17	5.977658E-18
3.480000E+03	3.420676E-17	6.002717E-18
3.490000E+03	3.451144E-17	6.026575E-18
3.500000E+03	3.481863E-17	6.050267E-18
3.510000E+03	3.512832E-17	6.073787E-18
3.520000E+03	3.544052E-17	6.097126E-18
3.530000E+03	3.575523E-17	6.120277E-18
3.540000E+03	3.607243E-17	6.143229E-18
3.550000E+03	3.639214E-17	6.165976E-18
3.560000E+03	3.671434E-17	6.188509E-18
3.570000E+03	3.703903E-17	6.210818E-18
3.580000E+03	3.737272E-17	6.233983E-18
3.590000E+03	3.770243E-17	6.255823E-18
3.600000E+03	3.803460E-17	6.277412E-18
3.610000E+03	3.836922E-17	6.298740E-18
3.620000E+03	3.870629E-17	6.319799E-18
3.630000E+03	3.904578E-17	6.340578E-18
3.640000E+03	3.938770E-17	6.361070E-18
3.650000E+03	3.973201E-17	6.381261E-18
3.660000E+03	4.007871E-17	6.401145E-18
3.670000E+03	4.043482E-17	6.421828E-18
3.680000E+03	4.078629E-17	6.441065E-18
3.690000E+03	4.114010E-17	6.459963E-18
3.700000E+03	4.149621E-17	6.478512E-18
3.710000E+03	4.185460E-17	6.496699E-18
3.720000E+03	4.221525E-17	6.514517E-18
3.730000E+03	4.257812E-17	6.531951E-18
3.740000E+03	4.294322E-17	6.548994E-18
3.750000E+03	4.331046E-17	6.565632E-18
3.760000E+03	4.368746E-17	6.583001E-18
3.770000E+03	4.405903E-17	6.598802E-18
3.780000E+03	4.443266E-17	6.614166E-18
3.790000E+03	4.480833E-17	6.629082E-18
3.800000E+03	4.518601E-17	6.643540E-18
3.810000E+03	4.556564E-17	6.657527E-18
3.820000E+03	4.594719E-17	6.671034E-18
3.830000E+03	4.633060E-17	6.684047E-18
3.840000E+03	4.671584E-17	6.696557E-18
3.850000E+03	4.710285E-17	6.708550E-18
3.860000E+03	4.749983E-17	6.721185E-18
3.870000E+03	4.789032E-17	6.732117E-18
3.880000E+03	4.828241E-17	6.742500E-18
3.890000E+03	4.867608E-17	6.752323E-18
3.900000E+03	4.907124E-17	6.761574E-18
3.910000E+03	4.946784E-17	6.770243E-18
3.920000E+03	4.986583E-17	6.778319E-18
3.930000E+03	5.026513E-17	6.785792E-18
3.940000E+03	5.066567E-17	6.792649E-18
3.950000E+03	5.106739E-17	6.798880E-18
3.960000E+03	5.147021E-17	6.804475E-18
3.970000E+03	5.188304E-17	6.810604E-18
3.980000E+03	5.228792E-17	6.814898E-18
3.990000E+03	5.269366E-17	6.818525E-18
4.000000E+03	5.310019E-17	6.821474E-18
4.010000E+03	5.350742E-17	6.823738E-18
4.020000E+03	5.391528E-17	6.825307E-18
4.030000E+03	5.432365E-17	6.826170E-18
4.040000E+03	5.473247E-17	6.826321E-18
4.050000E+03	5.514163E-17	6.825750E-18
4.060000E+03	5.555104E-17	6.824449E-18
4.070000E+03	5.596058E-17	6.822408E-18
4.080000E+03	5.637017E-17	6.819623E-18
4.090000E+03	5.677969E-17	6.816085E-18
4.100000E+03	5.719892E-17	6.812963E-18
4.110000E+03	5.760807E-17	6.807898E-18
4.120000E+03	5.801681E-17	6.802059E-18
4.130000E+03	5.842504E-17	6.795443E-18
4.140000E+03	5.883265E-17	6.788043E-18
4.150000E+03	5.923950E-17	6.779856E-18
4.160000E+03	5.964548E-17	6.770876E-18
4.170000E+03	6.005046E-17	6.761102E-18
4.180000E+03	6.045433E-17	6.750530E-18
4.190000E+03	6.085692E-17	6.739157E-18
4.200000E+03	6.125812E-17	6.726981E-18
4.210000E+03	6.165780E-17	6.714002E-18
4.220000E+03	6.205580E-17	6.700218E-18
4.230000E+03	6.245200E-17	6.685631E-18
4.240000E+03	6.284624E-17	6.670242E-18
4.250000E+03	6.323838E-17	6.654050E-18
4.260000E+03	6.362827E-17	6.637060E-18
4.270000E+03	6.401575E-17	6.619273E-18
4.280000E+03	6.440069E-17	6.600696E-18
4.290000E+03	6.478290E-17	6.581331E-18
4.300000E+03	6.516226E-17	6.561186E-18
4.310000E+03	6.553858E-17	6.540266E-18
4.320000E+03	6.591170E-17	6.518579E-18
4.330000E+03	6.628145E-17	6.496132E-18
4.340000E+03	6.664769E-17	6.472937E-18
4.350000E+03	6.701022E-17	6.449001E-18
4.360000E+03	6.736888E-17	6.424338E-18
4.370000E+03	6.772350E-17	6.398959E-18
4.380000E+03	6.807390E-17	6.372878E-18
4.390000E+03	6.841991E-17	6.346109E-18
4.400000E+03	6.876133E-17	6.318666E-18
4.410000E+03	6.909799E-17	6.290566E-18
4.420000E+03	6.942972E-17	6.261828E-18
4.430000E+03	6.975633E-17	6.232470E-18
4.440000E+03	7.007761E-17	6.202510E-18
4.450000E+03	7.039339E-17	6.171970E-18
4.460000E+03	7.070348E-17	6.140871E-18
4.470000E+03	7.100769E-17	6.109237E-18
4.480000E+03	7.130583E-17	6.077091E-18
4.490000E+03	7.159770E-17	6.044458E-18
4.500000E+03	7.188310E-17	6.011365E-18
4.510000E+03	7.214946E-17	5.976813E-18
4.520000E+03	7.242131E-17	5.942888E-18
4.530000E+03	7.268610E-17	5.908587E-18
4.540000E+03	7.294363E-17	5.873940E-18
4.550000E+03	7.319371E-17	5.838978E-18
4.560000E+03	7.343615E-17	5.803735E-18
4.570000E+03	7.367071E-17	5.768241E-18
4.580000E+03	7.389724E-17	5.732533E-18
4.590000E+03	7.411549E-17	5.696642E-18
4.600000E+03	7.432527E-17	5.660606E-18
4.610000E+03	7.451363E-17	5.623498E-18
4.620000E+03	7.470584E-17	5.587285E-18
4.630000E+03	7.488898E-17	5.551037E-18
4.640000E+03	7.506283E-17	5.514789E-18
4.650000E+03	7.522719E-17	5.478581E-18
4.660000E+03	7.538186E-17	5.442450E-18
4.670000E+03	7.552663E-17	5.406433E-18
4.680000E+03	7.566129E-17	5.370570E-18
4.690000E+03	7.577267E-17	5.333986E-18
4.700000E+03	7.588647E-17	5.298548E-18
4.710000E+03	7.598956E-17	5.263377E-18
4.720000E+03	7.608173E-17	5.228510E-18
4.730000E+03	7.616275E-17	5.193981E-18
4.740000E+03	7.623244E-17	5.159826E-18
4.750000E+03	7.627756E-17	5.125204E-18
4.760000E+03	7.632397E-17	5.091906E-18
4.770000E+03	7.635846E-17	5.059082E-18
4.780000E+03	7.638082E-17	5.026761E-18
4.790000E+03	7.639094E-17	4.994979E-18
4.800000E+03	7.637588E-17	4.962929E-18
4.810000E+03	7.636196E-17	4.932322E-18
4.820000E+03	7.633636E-17	4.902304E-18
4.830000E+03	7.629936E-17	4.872873E-18
4.840000E+03	7.623818E-17	4.843195E-18
4.850000E+03	7.617915E-17	4.814920E-18
4.860000E+03	7.610953E-17	4.787209E-18
4.870000E+03	7.602955E-17	4.760047E-18
4.880000E+03	7.592655E-17	4.732616E-18
4.890000E+03	7.582672E-17	4.706519E-18
4.900000E+03	7.571736E-17	4.680928E-18
4.910000E+03	7.559873E-17	4.655825E-18
4.920000E+03	7.545824E-17	4.630401E-18
4.930000E+03	7.532191E-17	4.606220E-18
4.940000E+03	7.517713E-17	4.582468E-18
4.950000E+03	7.501135E-17	4.558347E-18
4.960000E+03	7.485048E-17	4.535392E-18
4.970000E+03	7.468195E-17	4.512802E-18
4.980000E+03	7.450601E-17	4.490553E-18
4.990000E+03	7.431027E-17	4.467862E-18
5.000000E+03	7.412037E-17	4.446234E-18
5.010000E+03	7.392383E-17	4.424880E-18
5.020000E+03	7.370839E-17	4.403029E-18
5.030000E+03	7.349943E-17	4.382164E-18
5.040000E+03	7.328464E-17	4.361509E-18
5.050000E+03	7.305180E-17	4.340305E-18
5.060000E+03	7.282611E-17	4.320014E-18
5.070000E+03	7.259531E-17	4.299873E-18
5.080000E+03	7.234736E-17	4.279137E-18
5.090000E+03	7.210716E-17	4.259247E-18
5.100000E+03	7.185037E-17	4.238733E-18
5.110000E+03	7.160173E-17	4.219026E-18
5.120000E+03	7.134921E-17	4.199386E-18
5.130000E+03	7.108094E-17	4.179086E-18
5.140000E+03	7.082141E-17	4.159541E-18
5.150000E+03	7.054668E-17	4.139318E-18
5.160000E+03	7.028104E-17	4.119818E-18
5.170000E+03	7.001268E-17	4.100325E-18
5.180000E+03	6.972996E-17	4.080133E-18
5.190000E+03	6.945684E-17	4.060626E-18
5.200000E+03	6.916989E-17	4.040414E-18
5.210000E+03	6.889290E-17	4.020866E-18
5.220000E+03	6.860260E-17	4.000607E-18
5.230000E+03	6.832256E-17	3.980996E-18
5.240000E+03	6.804130E-17	3.961346E-18
5.250000E+03	6.774749E-17	3.940984E-18
5.260000E+03	6.746441E-17	3.921253E-18
5.270000E+03	6.716928E-17	3.900814E-18
5.280000E+03	6.688517E-17	3.880997E-18
5.290000E+03	6.658951E-17	3.860481E-18
5.300000E+03	6.630513E-17	3.840582E-18
5.310000E+03	6.600966E-17	3.819993E-18
5.320000E+03	6.572575E-17	3.800020E-18
5.330000E+03	6.543120E-17	3.779371E-18
5.340000E+03	6.514847E-17	3.759337E-18
5.350000E+03	6.485555E-17	3.738644E-18
5.360000E+03	6.457467E-17	3.718570E-18
5.370000E+03	6.428404E-17	3.697853E-18
5.380000E+03	6.399482E-17	3.677136E-18
5.390000E+03	6.371798E-17	3.657045E-18
5.400000E+03	6.343201E-17	3.636342E-18
5.410000E+03	6.315862E-17	3.616274E-18
5.420000E+03	6.287649E-17	3.595615E-18
5.430000E+03	6.260716E-17	3.575600E-18
5.440000E+03	6.232945E-17	3.555017E-18
5.450000E+03	6.206472E-17	3.535087E-18
5.460000E+03	6.179199E-17	3.514614E-18
5.470000E+03	6.152197E-17	3.494208E-18
5.480000E+03	6.126517E-17	3.474450E-18
5.490000E+03	6.100088E-17	3.454151E-18
5.500000E+03	6.074996E-17	3.434480E-18
5.510000E+03	6.049188E-17	3.414260E-18
5.520000E+03	6.023712E-17	3.394072E-18
5.530000E+03	5.999599E-17	3.374485E-18
5.540000E+03	5.974820E-17	3.354343E-18
5.550000E+03	5.950409E-17	3.334219E-18
5.560000E+03	5.927384E-17	3.314670E-18
5.570000E+03	5.903743E-17	3.294566E-18
5.580000E+03	5.880503E-17	3.274468E-18
5.590000E+03	5.858671E-17	3.254926E-18
5.600000E+03	5.836265E-17	3.234828E-18
5.610000E+03	5.814295E-17	3.214729E-18
5.620000E+03	5.793752E-17	3.195169E-18
5.630000E+03	5.772678E-17	3.175059E-18
5.640000E+03	5.752069E-17	3.154943E-18
5.650000E+03	5.732906E-17	3.135353E-18
5.660000E+03	5.713254E-17	3.115221E-18
5.670000E+03	5.694094E-17	3.095083E-18
5.680000E+03	5.676400E-17	3.075460E-18
5.690000E+03	5.658253E-17	3.055307E-18
5.700000E+03	5.640629E-17	3.035151E-18
5.710000E+03	5.623535E-17	3.014993E-18
5.720000E+03	5.607931E-17	2.995342E-18
5.730000E+03	5.591924E-17	2.975183E-18
5.740000E+03	5.576474E-17	2.955030E-18
5.750000E+03	5.561591E-17	2.934885E-18
5.760000E+03	5.548224E-17	2.915246E-18
5.770000E+03	5.534499E-17	2.895126E-18
5.780000E+03	5.521369E-17	2.875027E-18
5.790000E+03	5.508840E-17	2.854953E-18
5.800000E+03	5.496923E-17	2.834910E-18
5.810000E+03	5.486556E-17	2.815381E-18
5.820000E+03	5.475887E-17	2.795413E-18
5.830000E+03	5.465856E-17	2.775495E-18
5.840000E+03	5.456473E-17	2.755632E-18
5.850000E+03	5.447746E-17	2.735834E-18
5.860000E+03	5.440607E-17	2.716568E-18
5.870000E+03	5.433222E-17	2.696919E-18
5.880000E+03	5.426520E-17	2.677361E-18
5.890000E+03	5.420513E-17	2.657902E-18
5.900000E+03	5.415209E-17	2.638553E-18
5.910000E+03	5.411536E-17	2.619770E-18
5.920000E+03	5.407670E-17	2.600673E-18
5.930000E+03	5.404537E-17	2.581722E-18
5.940000E+03	5.402149E-17	2.562931E-18
5.950000E+03	5.400515E-17	2.544315E-18
5.960000E+03	5.399645E-17	2.525887E-18
5.970000E+03	5.399550E-17	2.507664E-18
5.980000E+03	5.400243E-17	2.489663E-18
5.990000E+03	5.402647E-17	2.472322E-18
6.000000E+03	5.404946E-17	2.454820E-18
6.010000E+03	5.408064E-17	2.437597E-18
6.020000E+03	5.412015E-17	2.420676E-18
6.030000E+03	5.416808E-17	2.404080E-18
6.040000E+03	5.422458E-17	2.387834E-18
6.050000E+03	5.428975E-17	2.371963E-18
6.060000E+03	5.436372E-17	2.356494E-18
6.070000E+03	5.444661E-17	2.341457E-18
6.080000E+03	5.453855E-17	2.326881E-18
6.090000E+03	5.463967E-17	2.312800E-18
6.100000E+03	5.475010E-17	2.299246E-18
6.110000E+03	5.487926E-17	2.286643E-18
6.120000E+03	5.500873E-17	2.274252E-18
6.130000E+03	5.514790E-17	2.262502E-18
6.140000E+03	5.529691E-17	2.251435E-18
6.150000E+03	5.545589E-17	2.241092E-18
6.160000E+03	5.562497E-17	2.231521E-18
6.170000E+03	5.580429E-17	2.222767E-18
6.180000E+03	5.599397E-17	2.214880E-18
6.190000E+03	5.619412E-17	2.207911E-18
6.200000E+03	5.640489E-17	2.201912E-18
6.210000E+03	5.662638E-17	2.196938E-18
6.220000E+03	5.685870E-17	2.193043E-18
6.230000E+03	5.710195E-17	2.190285E-18
6.240000E+03	5.735623E-17	2.188723E-18
6.250000E+03	5.762158E-17	2.188413E-18
6.260000E+03	5.789793E-17	2.189410E-18
6.270000E+03	5.818523E-17	2.191770E-18
6.280000E+03	5.848329E-17	2.195544E-18
6.290000E+03	5.879179E-17	2.200765E-18
6.300000E+03	5.911032E-17	2.207424E-18
6.310000E+03	5.943846E-17	2.215505E-18
6.320000E+03	5.977576E-17	2.224993E-18
6.330000E+03	6.011159E-17	2.235490E-18
6.340000E+03	6.046575E-17	2.247731E-18
6.350000E+03	6.082764E-17	2.261318E-18
6.360000E+03	6.119675E-17	2.276229E-18
6.370000E+03	6.157252E-17	2.292438E-18
6.380000E+03	6.195443E-17	2.309922E-18
6.390000E+03	6.234190E-17	2.328652E-18
6.400000E+03	6.273436E-17	2.348600E-18
6.410000E+03	6.313119E-17	2.369738E-18
6.420000E+03	6.353180E-17	2.392034E-18
6.430000E+03	6.393552E-17	2.415456E-18
6.440000E+03	6.434173E-17	2.439971E-18
6.450000E+03	6.473878E-17	2.465128E-18
6.460000E+03	6.514785E-17	2.491721E-18
6.470000E+03	6.555734E-17	2.519301E-18
6.480000E+03	6.596654E-17	2.547830E-18
6.490000E+03	6.637473E-17	2.577270E-18
6.500000E+03	6.678114E-17	2.607580E-18
6.510000E+03	6.718504E-17	2.638721E-18
6.520000E+03	6.758565E-17	2.670650E-18
6.530000E+03	6.797070E-17	2.702868E-18
6.540000E+03	6.836250E-17	2.736244E-18
6.550000E+03	6.874912E-17	2.770297E-18
6.560000E+03	6.913016E-17	2.804995E-18
6.570000E+03	6.950523E-17	2.840311E-18
6.580000E+03	6.987405E-17	2.876217E-18
6.590000E+03	7.023642E-17	2.912686E-18
6.600000E+03	7.058027E-17	2.949167E-18
6.610000E+03	7.092932E-17	2.986596E-18
6.620000E+03	7.127160E-17	3.024425E-18
6.630000E+03	7.160701E-17	3.062598E-18
6.640000E+03	7.193544E-17	3.101058E-18
6.650000E+03	7.224459E-17	3.139219E-18
6.660000E+03	7.255878E-17	3.178081E-18
6.670000E+03	7.286576E-17	3.217066E-18
6.680000E+03	7.316545E-17	3.256117E-18
6.690000E+03	7.345779E-17	3.295183E-18
6.700000E+03	7.373021E-17	3.333644E-18
6.710000E+03	7.400759E-17	3.372572E-18
6.720000E+03	7.427744E-17	3.411358E-18
6.730000E+03	7.453969E-17	3.449950E-18
6.740000E+03	7.478162E-17	3.487710E-18
6.750000E+03	7.502851E-17	3.525763E-18
6.760000E+03	7.526765E-17	3.563478E-18
6.770000E+03	7.549904E-17	3.600810E-18
6.780000E+03	7.570978E-17	3.637095E-18
6.790000E+03	7.592548E-17	3.673518E-18
6.800000E+03	7.613334E-17	3.709426E-18
6.810000E+03	7.633328E-17	3.744777E-18
6.820000E+03	7.651237E-17	3.778890E-18
6.830000E+03	7.669646E-17	3.813002E-18
6.840000E+03	7.687262E-17	3.846440E-18
6.850000E+03	7.704082E-17	3.879168E-18
6.860000E+03	7.718800E-17	3.910488E-18
6.870000E+03	7.734026E-17	3.941685E-18
6.880000E+03	7.748458E-17	3.972072E-18
6.890000E+03	7.762093E-17	4.001615E-18
6.900000E+03	7.773614E-17	4.029601E-18
6.910000E+03	7.785658E-17	4.057364E-18
6.920000E+03	7.796910E-17	4.084198E-18
6.930000E+03	7.806045E-17	4.109379E-18
6.940000E+03	7.815714E-17	4.134273E-18
6.950000E+03	7.824595E-17	4.158163E-18
6.960000E+03	7.831362E-17	4.180316E-18
6.970000E+03	7.838675E-17	4.202129E-18
6.980000E+03	7.845207E-17	4.222874E-18
6.990000E+03	7.849632E-17	4.241814E-18
7.000000E+03	7.854615E-17	4.260368E-18
7.010000E+03	7.858829E-17	4.277803E-18
7.020000E+03	7.860943E-17	4.293376E-18
7.030000E+03	7.863631E-17	4.308528E-18
7.040000E+03	7.865562E-17	4.322521E-18
7.050000E+03	7.865406E-17	4.334608E-18
7.060000E+03	7.865840E-17	4.346250E-18
7.070000E+03	7.865530E-17	4.356702E-18
7.080000E+03	7.863150E-17	4.365219E-18
7.090000E+03	7.861374E-17	4.373273E-18
7.100000E+03	7.857539E-17	4.379376E-18
7.110000E+03	7.854320E-17	4.385013E-18
7.120000E+03	7.850388E-17	4.389436E-18
7.130000E+03	7.844416E-17	4.391899E-18
7.140000E+03	7.839078E-17	4.393893E-18
7.150000E+03	7.833045E-17	4.394674E-18
7.160000E+03	7.824998E-17	4.393497E-18
7.170000E+03	7.817600E-17	4.391859E-18
7.180000E+03	7.808204E-17	4.388272E-18
7.190000E+03	7.799469E-17	4.384232E-18
7.200000E+03	7.790076E-17	4.379002E-18
7.210000E+03	7.778710E-17	4.371845E-18
7.220000E+03	7.768026E-17	4.364258E-18
7.230000E+03	7.755387E-17	4.354766E-18
7.240000E+03	7.743440E-17	4.344862E-18
7.250000E+03	7.729560E-17	4.333081E-18
7.260000E+03	7.716384E-17	4.320912E-18
7.270000E+03	7.702604E-17	4.307629E-18
7.280000E+03	7.686922E-17	4.292519E-18
7.290000E+03	7.671961E-17	4.277060E-18
7.300000E+03	7.655119E-17	4.259814E-18
7.310000E+03	7.639011E-17	4.242252E-18
7.320000E+03	7.621045E-17	4.222947E-18
7.330000E+03	7.603822E-17	4.203360E-18
7.340000E+03	7.584764E-17	4.182081E-18
7.350000E+03	7.566463E-17	4.160560E-18
7.360000E+03	7.546349E-17	4.137402E-18
7.370000E+03	7.527002E-17	4.114044E-18
7.380000E+03	7.507145E-17	4.089806E-18
7.390000E+03	7.485509E-17	4.064023E-18
7.400000E+03	7.464658E-17	4.038112E-18
7.410000E+03	7.442055E-17	4.010725E-18
7.420000E+03	7.420244E-17	3.983262E-18
7.430000E+03	7.396707E-17	3.954398E-18
7.440000E+03	7.373972E-17	3.925514E-18
7.450000E+03	7.349537E-17	3.895307E-18
7.460000E+03	7.325912E-17	3.865143E-18
7.470000E+03	7.300612E-17	3.833738E-18
7.480000E+03	7.276132E-17	3.802443E-18
7.490000E+03	7.250002E-17	3.769998E-18
7.500000E+03	7.224702E-17	3.737733E-18
7.510000E+03	7.197778E-17	3.704413E-18
7.520000E+03	7.170469E-17	3.670724E-18
7.530000E+03	7.144004E-17	3.637330E-18
7.540000E+03	7.115952E-17	3.603036E-18
7.550000E+03	7.088750E-17	3.569121E-18
7.560000E+03	7.059986E-17	3.534413E-18
7.570000E+03	7.032080E-17	3.500175E-18
7.580000E+03	7.002639E-17	3.465261E-18
7.590000E+03	6.974061E-17	3.430910E-18
7.600000E+03	6.943973E-17	3.396005E-18
7.610000E+03	6.914756E-17	3.361765E-18
7.620000E+03	6.884054E-17	3.327096E-18
7.630000E+03	6.853059E-17	3.292638E-18
7.640000E+03	6.822942E-17	3.259007E-18
7.650000E+03	6.791380E-17	3.225149E-18
7.660000E+03	6.760699E-17	3.192232E-18
7.670000E+03	6.728599E-17	3.159229E-18
7.680000E+03	6.697383E-17	3.127287E-18
7.690000E+03	6.664773E-17	3.095401E-18
7.700000E+03	6.631921E-17	3.064179E-18
7.710000E+03	6.599961E-17	3.034206E-18
7.720000E+03	6.566641E-17	3.004511E-18
7.730000E+03	6.534215E-17	2.976193E-18
7.740000E+03	6.500454E-17	2.948301E-18
7.750000E+03	6.466485E-17	2.921418E-18
7.760000E+03	6.433413E-17	2.896104E-18
