#wls	flux	fluxerr
1.600000E+03	7.801838E-18	2.215279E-18
1.640000E+03	8.002016E-18	2.259527E-18
1.680000E+03	8.210783E-18	2.305312E-18
1.720000E+03	8.427022E-18	2.352260E-18
1.760000E+03	8.651054E-18	2.400399E-18
1.800000E+03	8.883209E-18	2.449757E-18
1.840000E+03	9.123813E-18	2.500357E-18
1.880000E+03	9.373242E-18	2.552230E-18
1.920000E+03	9.631860E-18	2.605401E-18
1.960000E+03	9.900071E-18	2.659900E-18
2.000000E+03	1.017827E-17	2.715750E-18
2.040000E+03	1.046878E-17	2.773476E-18
2.080000E+03	1.076835E-17	2.832123E-18
2.120000E+03	1.107928E-17	2.892199E-18
2.160000E+03	1.140408E-17	2.954260E-18
2.200000E+03	1.173928E-17	3.017283E-18
2.240000E+03	1.208955E-17	3.082361E-18
2.280000E+03	1.245119E-17	3.148422E-18
2.320000E+03	1.282919E-17	3.216601E-18
2.360000E+03	1.322201E-17	3.286363E-18
2.400000E+03	1.363029E-17	3.357726E-18
2.440000E+03	1.405471E-17	3.430699E-18
2.480000E+03	1.449340E-17	3.504672E-18
2.520000E+03	1.495217E-17	3.580881E-18
2.560000E+03	1.542928E-17	3.658718E-18
2.600000E+03	1.592834E-17	3.738842E-18
2.640000E+03	1.644459E-17	3.819928E-18
2.680000E+03	1.698164E-17	3.902611E-18
2.720000E+03	1.754032E-17	3.986865E-18
2.760000E+03	1.812155E-17	4.072658E-18
2.800000E+03	1.872957E-17	4.160688E-18
2.840000E+03	1.935876E-17	4.249440E-18
2.880000E+03	2.001684E-17	4.340340E-18
2.920000E+03	2.069783E-17	4.431797E-18
2.960000E+03	2.140990E-17	4.525266E-18
3.000000E+03	2.214661E-17	4.619061E-18
3.010000E+03	2.233631E-17	4.642873E-18
3.020000E+03	2.252786E-17	4.666746E-18
3.030000E+03	2.272129E-17	4.690680E-18
3.040000E+03	2.291663E-17	4.714672E-18
3.050000E+03	2.311386E-17	4.738718E-18
3.060000E+03	2.331302E-17	4.762816E-18
3.070000E+03	2.351412E-17	4.786964E-18
3.080000E+03	2.371718E-17	4.811160E-18
3.090000E+03	2.392220E-17	4.835401E-18
3.100000E+03	2.412921E-17	4.859684E-18
3.110000E+03	2.433392E-17	4.883144E-18
3.120000E+03	2.454490E-17	4.907497E-18
3.130000E+03	2.475792E-17	4.931885E-18
3.140000E+03	2.497298E-17	4.956303E-18
3.150000E+03	2.519009E-17	4.980747E-18
3.160000E+03	2.540927E-17	5.005216E-18
3.170000E+03	2.563054E-17	5.029705E-18
3.180000E+03	2.585392E-17	5.054211E-18
3.190000E+03	2.607940E-17	5.078729E-18
3.200000E+03	2.630701E-17	5.103258E-18
3.210000E+03	2.653676E-17	5.127792E-18
3.220000E+03	2.676867E-17	5.152330E-18
3.230000E+03	2.700275E-17	5.176865E-18
3.240000E+03	2.723900E-17	5.201393E-18
3.250000E+03	2.747745E-17	5.225912E-18
3.260000E+03	2.771810E-17	5.250416E-18
3.270000E+03	2.796096E-17	5.274899E-18
3.280000E+03	2.820605E-17	5.299361E-18
3.290000E+03	2.845338E-17	5.323795E-18
3.300000E+03	2.870296E-17	5.348194E-18
3.310000E+03	2.895480E-17	5.372557E-18
3.320000E+03	2.920891E-17	5.396877E-18
3.330000E+03	2.946530E-17	5.421148E-18
3.340000E+03	2.971874E-17	5.444409E-18
3.350000E+03	2.997967E-17	5.468564E-18
3.360000E+03	3.024290E-17	5.492655E-18
3.370000E+03	3.050845E-17	5.516677E-18
3.380000E+03	3.077631E-17	5.540624E-18
3.390000E+03	3.104651E-17	5.564489E-18
3.400000E+03	3.131903E-17	5.588267E-18
3.410000E+03	3.159390E-17	5.611951E-18
3.420000E+03	3.187110E-17	5.635534E-18
3.430000E+03	3.215066E-17	5.659014E-18
3.440000E+03	3.243256E-17	5.682379E-18
3.450000E+03	3.271683E-17	5.705625E-18
3.460000E+03	3.300346E-17	5.728747E-18
3.470000E+03	3.329243E-17	5.751734E-18
3.480000E+03	3.358377E-17	5.774581E-18
3.490000E+03	3.387748E-17	5.797282E-18
3.500000E+03	3.417355E-17	5.819829E-18
3.510000E+03	3.447197E-17	5.842213E-18
3.520000E+03	3.477275E-17	5.864428E-18
3.530000E+03	3.507588E-17	5.886465E-18
3.540000E+03	3.538137E-17	5.908318E-18
3.550000E+03	3.568920E-17	5.929978E-18
3.560000E+03	3.599938E-17	5.951438E-18
3.570000E+03	3.631188E-17	5.972688E-18
3.580000E+03	3.662671E-17	5.993720E-18
3.590000E+03	3.694386E-17	6.014527E-18
3.600000E+03	3.726332E-17	6.035099E-18
3.610000E+03	3.758508E-17	6.055430E-18
3.620000E+03	3.790912E-17	6.075507E-18
3.630000E+03	3.823543E-17	6.095324E-18
3.640000E+03	3.856399E-17	6.114870E-18
3.650000E+03	3.889480E-17	6.134137E-18
3.660000E+03	3.922784E-17	6.153118E-18
3.670000E+03	3.956307E-17	6.171799E-18
3.680000E+03	3.990050E-17	6.190174E-18
3.690000E+03	4.024010E-17	6.208234E-18
3.700000E+03	4.058184E-17	6.225965E-18
3.710000E+03	4.092570E-17	6.243362E-18
3.720000E+03	4.127167E-17	6.260414E-18
3.730000E+03	4.161969E-17	6.277109E-18
3.740000E+03	4.196976E-17	6.293438E-18
3.750000E+03	4.232184E-17	6.309392E-18
3.760000E+03	4.267592E-17	6.324962E-18
3.770000E+03	4.303193E-17	6.340135E-18
3.780000E+03	4.338986E-17	6.354902E-18
3.790000E+03	4.374966E-17	6.369252E-18
3.800000E+03	4.411132E-17	6.383178E-18
3.810000E+03	4.447477E-17	6.396666E-18
3.820000E+03	4.483999E-17	6.409706E-18
3.830000E+03	4.520693E-17	6.422291E-18
3.840000E+03	4.557553E-17	6.434407E-18
3.850000E+03	4.594576E-17	6.446044E-18
3.860000E+03	4.631757E-17	6.457194E-18
3.870000E+03	4.669091E-17	6.467845E-18
3.880000E+03	4.706572E-17	6.477987E-18
3.890000E+03	4.744196E-17	6.487610E-18
3.900000E+03	4.781956E-17	6.496704E-18
3.910000E+03	4.819846E-17	6.505258E-18
3.920000E+03	4.857861E-17	6.513263E-18
3.930000E+03	4.895995E-17	6.520709E-18
3.940000E+03	4.934239E-17	6.527585E-18
3.950000E+03	4.972590E-17	6.533882E-18
3.960000E+03	5.011038E-17	6.539591E-18
3.970000E+03	5.049577E-17	6.544702E-18
3.980000E+03	5.088200E-17	6.549205E-18
3.990000E+03	5.126899E-17	6.553092E-18
4.000000E+03	5.165667E-17	6.556354E-18
4.010000E+03	5.204493E-17	6.558980E-18
4.020000E+03	5.243373E-17	6.560965E-18
4.030000E+03	5.282296E-17	6.562298E-18
4.040000E+03	5.321253E-17	6.562972E-18
4.050000E+03	5.360237E-17	6.562979E-18
4.060000E+03	5.399236E-17	6.562311E-18
4.070000E+03	5.438243E-17	6.560961E-18
4.080000E+03	5.477246E-17	6.558922E-18
4.090000E+03	5.516237E-17	6.556188E-18
4.100000E+03	5.555205E-17	6.552751E-18
4.110000E+03	5.594140E-17	6.548608E-18
4.120000E+03	5.633031E-17	6.543751E-18
4.130000E+03	5.671867E-17	6.538175E-18
4.140000E+03	5.709646E-17	6.530743E-18
4.150000E+03	5.748332E-17	6.523719E-18
4.160000E+03	5.786929E-17	6.515964E-18
4.170000E+03	5.825424E-17	6.507475E-18
4.180000E+03	5.863805E-17	6.498247E-18
4.190000E+03	5.902062E-17	6.488281E-18
4.200000E+03	5.940180E-17	6.477573E-18
4.210000E+03	5.978146E-17	6.466123E-18
4.220000E+03	6.015950E-17	6.453931E-18
4.230000E+03	6.053574E-17	6.440996E-18
4.240000E+03	6.091008E-17	6.427318E-18
4.250000E+03	6.128236E-17	6.412899E-18
4.260000E+03	6.165246E-17	6.397743E-18
4.270000E+03	6.202022E-17	6.381850E-18
4.280000E+03	6.237470E-17	6.364122E-18
4.290000E+03	6.273729E-17	6.346771E-18
4.300000E+03	6.309710E-17	6.328695E-18
4.310000E+03	6.345399E-17	6.309903E-18
4.320000E+03	6.380779E-17	6.290398E-18
4.330000E+03	6.415835E-17	6.270190E-18
4.340000E+03	6.450551E-17	6.249284E-18
4.350000E+03	6.484912E-17	6.227693E-18
4.360000E+03	6.518901E-17	6.205423E-18
4.370000E+03	6.552500E-17	6.182485E-18
4.380000E+03	6.584557E-17	6.157830E-18
4.390000E+03	6.617326E-17	6.133601E-18
4.400000E+03	6.649654E-17	6.108741E-18
4.410000E+03	6.681527E-17	6.083266E-18
4.420000E+03	6.712926E-17	6.057191E-18
4.430000E+03	6.743834E-17	6.030533E-18
4.440000E+03	6.774233E-17	6.003307E-18
4.450000E+03	6.804107E-17	5.975534E-18
4.460000E+03	6.832257E-17	5.946204E-18
4.470000E+03	6.861018E-17	5.917396E-18
4.480000E+03	6.889200E-17	5.888099E-18
4.490000E+03	6.916781E-17	5.858335E-18
4.500000E+03	6.943745E-17	5.828127E-18
4.510000E+03	6.970072E-17	5.797497E-18
4.520000E+03	6.994540E-17	5.765478E-18
4.530000E+03	7.019534E-17	5.734088E-18
4.540000E+03	7.043835E-17	5.702352E-18
4.550000E+03	7.067424E-17	5.670299E-18
4.560000E+03	7.090282E-17	5.637957E-18
4.570000E+03	7.111165E-17	5.604388E-18
4.580000E+03	7.132500E-17	5.571559E-18
4.590000E+03	7.153045E-17	5.538527E-18
4.600000E+03	7.172782E-17	5.505324E-18
4.610000E+03	7.191690E-17	5.471981E-18
4.620000E+03	7.208510E-17	5.437594E-18
4.630000E+03	7.225701E-17	5.404072E-18
4.640000E+03	7.242005E-17	5.370506E-18
4.650000E+03	7.257402E-17	5.336929E-18
4.660000E+03	7.271874E-17	5.303373E-18
4.670000E+03	7.284147E-17	5.268966E-18
4.680000E+03	7.296707E-17	5.235559E-18
4.690000E+03	7.308282E-17	5.202272E-18
4.700000E+03	7.318852E-17	5.169139E-18
4.710000E+03	7.327141E-17	5.135309E-18
4.720000E+03	7.335645E-17	5.102586E-18
4.730000E+03	7.343089E-17	5.070112E-18
4.740000E+03	7.349456E-17	5.037922E-18
4.750000E+03	7.353464E-17	5.005184E-18
4.760000E+03	7.357624E-17	4.973656E-18
4.770000E+03	7.360663E-17	4.942505E-18
4.780000E+03	7.362571E-17	4.911763E-18
4.790000E+03	7.362078E-17	4.880627E-18
4.800000E+03	7.361718E-17	4.850809E-18
4.810000E+03	7.360235E-17	4.821469E-18
4.820000E+03	7.356387E-17	4.791783E-18
4.830000E+03	7.352720E-17	4.763399E-18
4.840000E+03	7.347997E-17	4.735484E-18
4.850000E+03	7.340980E-17	4.707225E-18
4.860000E+03	7.334217E-17	4.680237E-18
4.870000E+03	7.326470E-17	4.653698E-18
4.880000E+03	7.317768E-17	4.627599E-18
4.890000E+03	7.306881E-17	4.601140E-18
4.900000E+03	7.296344E-17	4.575891E-18
4.910000E+03	7.284928E-17	4.551047E-18
4.920000E+03	7.271412E-17	4.525816E-18
4.930000E+03	7.258318E-17	4.501741E-18
4.940000E+03	7.243182E-17	4.477258E-18
4.950000E+03	7.228513E-17	4.453889E-18
4.960000E+03	7.213096E-17	4.430847E-18
4.970000E+03	7.195722E-17	4.407360E-18
4.980000E+03	7.178884E-17	4.384923E-18
4.990000E+03	7.161374E-17	4.362762E-18
5.000000E+03	7.141991E-17	4.340114E-18
5.010000E+03	7.123212E-17	4.318453E-18
5.020000E+03	7.102619E-17	4.296280E-18
5.030000E+03	7.082673E-17	4.275051E-18
5.040000E+03	7.062178E-17	4.254012E-18
5.050000E+03	7.039952E-17	4.232420E-18
5.060000E+03	7.018436E-17	4.211714E-18
5.070000E+03	6.995244E-17	4.190431E-18
5.080000E+03	6.972802E-17	4.169995E-18
5.090000E+03	6.949930E-17	4.149672E-18
5.100000E+03	6.925466E-17	4.128740E-18
5.110000E+03	6.901810E-17	4.108605E-18
5.120000E+03	6.876615E-17	4.087843E-18
5.130000E+03	6.852264E-17	4.067846E-18
5.140000E+03	6.826429E-17	4.047208E-18
5.150000E+03	6.801472E-17	4.027307E-18
5.160000E+03	6.775085E-17	4.006753E-18
5.170000E+03	6.749611E-17	3.986912E-18
5.180000E+03	6.722757E-17	3.966409E-18
5.190000E+03	6.696848E-17	3.946596E-18
5.200000E+03	6.669612E-17	3.926117E-18
5.210000E+03	6.643353E-17	3.906310E-18
5.220000E+03	6.615816E-17	3.885834E-18
5.230000E+03	6.589285E-17	3.866015E-18
5.240000E+03	6.561525E-17	3.845527E-18
5.250000E+03	6.534802E-17	3.825686E-18
5.260000E+03	6.506897E-17	3.805178E-18
5.270000E+03	6.480057E-17	3.785308E-18
5.280000E+03	6.452080E-17	3.764778E-18
5.290000E+03	6.425194E-17	3.744878E-18
5.300000E+03	6.397218E-17	3.724328E-18
5.310000E+03	6.370359E-17	3.704405E-18
5.320000E+03	6.342452E-17	3.683843E-18
5.330000E+03	6.315686E-17	3.663906E-18
5.340000E+03	6.287916E-17	3.643344E-18
5.350000E+03	6.260240E-17	3.622788E-18
5.360000E+03	6.233740E-17	3.602860E-18
5.370000E+03	6.206296E-17	3.582331E-18
5.380000E+03	6.180049E-17	3.562431E-18
5.390000E+03	6.152897E-17	3.541948E-18
5.400000E+03	6.126962E-17	3.522100E-18
5.410000E+03	6.100160E-17	3.501687E-18
5.420000E+03	6.073557E-17	3.481322E-18
5.430000E+03	6.048198E-17	3.461601E-18
5.440000E+03	6.022027E-17	3.441346E-18
5.450000E+03	5.996094E-17	3.421160E-18
5.460000E+03	5.971431E-17	3.401630E-18
5.470000E+03	5.946008E-17	3.381597E-18
5.480000E+03	5.921870E-17	3.362213E-18
5.490000E+03	5.897003E-17	3.342321E-18
5.500000E+03	5.872435E-17	3.322492E-18
5.510000E+03	5.849173E-17	3.303282E-18
5.520000E+03	5.825230E-17	3.283557E-18
5.530000E+03	5.801618E-17	3.263876E-18
5.540000E+03	5.779334E-17	3.244790E-18
5.550000E+03	5.756414E-17	3.225184E-18
5.560000E+03	5.733858E-17	3.205611E-18
5.570000E+03	5.712651E-17	3.186611E-18
5.580000E+03	5.690852E-17	3.167091E-18
5.590000E+03	5.669447E-17	3.147594E-18
5.600000E+03	5.649411E-17	3.128652E-18
5.610000E+03	5.628824E-17	3.109193E-18
5.620000E+03	5.608660E-17	3.089752E-18
5.630000E+03	5.588931E-17	3.070327E-18
5.640000E+03	5.570595E-17	3.051438E-18
5.650000E+03	5.551758E-17	3.032040E-18
5.660000E+03	5.533383E-17	3.012657E-18
5.670000E+03	5.516419E-17	2.993800E-18
5.680000E+03	5.498989E-17	2.974444E-18
5.690000E+03	5.482047E-17	2.955105E-18
5.700000E+03	5.465603E-17	2.935783E-18
5.710000E+03	5.450591E-17	2.916978E-18
5.720000E+03	5.435161E-17	2.897694E-18
5.730000E+03	5.420253E-17	2.878433E-18
5.740000E+03	5.405875E-17	2.859198E-18
5.750000E+03	5.392036E-17	2.839993E-18
5.760000E+03	5.379659E-17	2.821300E-18
5.770000E+03	5.366918E-17	2.802160E-18
5.780000E+03	5.354740E-17	2.783060E-18
5.790000E+03	5.343133E-17	2.764006E-18
5.800000E+03	5.332106E-17	2.745001E-18
5.810000E+03	5.322574E-17	2.726516E-18
5.820000E+03	5.312730E-17	2.707625E-18
5.830000E+03	5.303490E-17	2.688802E-18
5.840000E+03	5.294863E-17	2.670053E-18
5.850000E+03	5.286857E-17	2.651385E-18
5.860000E+03	5.280382E-17	2.633255E-18
5.870000E+03	5.273643E-17	2.614771E-18
5.880000E+03	5.267551E-17	2.596392E-18
5.890000E+03	5.262116E-17	2.578130E-18
5.900000E+03	5.257345E-17	2.559993E-18
5.910000E+03	5.253248E-17	2.541992E-18
5.920000E+03	5.250728E-17	2.524568E-18
5.930000E+03	5.248005E-17	2.506871E-18
5.940000E+03	5.245984E-17	2.489346E-18
5.950000E+03	5.244672E-17	2.472007E-18
5.960000E+03	5.244080E-17	2.454867E-18
5.970000E+03	5.244218E-17	2.437943E-18
5.980000E+03	5.245096E-17	2.421250E-18
5.990000E+03	5.246723E-17	2.404805E-18
6.000000E+03	5.249109E-17	2.388627E-18
6.010000E+03	5.253157E-17	2.373138E-18
6.020000E+03	5.257093E-17	2.357548E-18
6.030000E+03	5.261818E-17	2.342286E-18
6.040000E+03	5.267344E-17	2.327373E-18
6.050000E+03	5.273681E-17	2.312834E-18
6.060000E+03	5.280839E-17	2.298694E-18
6.070000E+03	5.288830E-17	2.284980E-18
6.080000E+03	5.297666E-17	2.271720E-18
6.090000E+03	5.307356E-17	2.258944E-18
6.100000E+03	5.317911E-17	2.246681E-18
6.110000E+03	5.329344E-17	2.234966E-18
6.120000E+03	5.341664E-17	2.223832E-18
6.130000E+03	5.354882E-17	2.213315E-18
6.140000E+03	5.369010E-17	2.203453E-18
6.150000E+03	5.384060E-17	2.194285E-18
6.160000E+03	5.400039E-17	2.185851E-18
6.170000E+03	5.416962E-17	2.178195E-18
6.180000E+03	5.434834E-17	2.171358E-18
6.190000E+03	5.454598E-17	2.165757E-18
6.200000E+03	5.474406E-17	2.160698E-18
6.210000E+03	5.495193E-17	2.156600E-18
6.220000E+03	5.516966E-17	2.153512E-18
6.230000E+03	5.539730E-17	2.151484E-18
6.240000E+03	5.563489E-17	2.150564E-18
6.250000E+03	5.588245E-17	2.150805E-18
6.260000E+03	5.613037E-17	2.151888E-18
6.270000E+03	5.639769E-17	2.154597E-18
6.280000E+03	5.667473E-17	2.158610E-18
6.290000E+03	5.696119E-17	2.163948E-18
6.300000E+03	5.725669E-17	2.170601E-18
6.310000E+03	5.756085E-17	2.178552E-18
6.320000E+03	5.787324E-17	2.187787E-18
6.330000E+03	5.819346E-17	2.198287E-18
6.340000E+03	5.852105E-17	2.210033E-18
6.350000E+03	5.885557E-17	2.223004E-18
6.360000E+03	5.919653E-17	2.237180E-18
6.370000E+03	5.954345E-17	2.252536E-18
6.380000E+03	5.989583E-17	2.269050E-18
6.390000E+03	6.025316E-17	2.286695E-18
6.400000E+03	6.061488E-17	2.305445E-18
6.410000E+03	6.098046E-17	2.325272E-18
6.420000E+03	6.134932E-17	2.346147E-18
6.430000E+03	6.172089E-17	2.368041E-18
6.440000E+03	6.208400E-17	2.390516E-18
6.450000E+03	6.245911E-17	2.414349E-18
6.460000E+03	6.283510E-17	2.439105E-18
6.470000E+03	6.321134E-17	2.464750E-18
6.480000E+03	6.358716E-17	2.491248E-18
6.490000E+03	6.396194E-17	2.518565E-18
6.500000E+03	6.433500E-17	2.546664E-18
6.510000E+03	6.470571E-17	2.575509E-18
6.520000E+03	6.507342E-17	2.605064E-18
6.530000E+03	6.542639E-17	2.634844E-18
6.540000E+03	6.578630E-17	2.665708E-18
6.550000E+03	6.614155E-17	2.697180E-18
6.560000E+03	6.649168E-17	2.729227E-18
6.570000E+03	6.683632E-17	2.761824E-18
6.580000E+03	6.717517E-17	2.794943E-18
6.590000E+03	6.750809E-17	2.828554E-18
6.600000E+03	6.782339E-17	2.862122E-18
6.610000E+03	6.814405E-17	2.896566E-18
6.620000E+03	6.845843E-17	2.931351E-18
6.630000E+03	6.876648E-17	2.966430E-18
6.640000E+03	6.906810E-17	3.001750E-18
6.650000E+03	6.936320E-17	3.037262E-18
6.660000E+03	6.963986E-17	3.072392E-18
6.670000E+03	6.992167E-17	3.108133E-18
6.680000E+03	7.019677E-17	3.143918E-18
6.690000E+03	7.046510E-17	3.179699E-18
6.700000E+03	7.072657E-17	3.215427E-18
6.710000E+03	7.096905E-17	3.250504E-18
6.720000E+03	7.121664E-17	3.285984E-18
6.730000E+03	7.145723E-17	3.321274E-18
6.740000E+03	7.169079E-17	3.356330E-18
6.750000E+03	7.191726E-17	3.391109E-18
6.760000E+03	7.212434E-17	3.424986E-18
6.770000E+03	7.233652E-17	3.459079E-18
6.780000E+03	7.254151E-17	3.492770E-18
6.790000E+03	7.273930E-17	3.526021E-18
6.800000E+03	7.292987E-17	3.558794E-18
6.810000E+03	7.310072E-17	3.590439E-18
6.820000E+03	7.327674E-17	3.622139E-18
6.830000E+03	7.344547E-17	3.653252E-18
6.840000E+03	7.360691E-17	3.683744E-18
6.850000E+03	7.374846E-17	3.712950E-18
6.860000E+03	7.389527E-17	3.742100E-18
6.870000E+03	7.403477E-17	3.770536E-18
6.880000E+03	7.416696E-17	3.798226E-18
6.890000E+03	7.427918E-17	3.824493E-18
6.900000E+03	7.439673E-17	3.850608E-18
6.910000E+03	7.450701E-17	3.875898E-18
6.920000E+03	7.459728E-17	3.899674E-18
6.930000E+03	7.469299E-17	3.923239E-18
6.940000E+03	7.478146E-17	3.945908E-18
6.950000E+03	7.486270E-17	3.967662E-18
6.960000E+03	7.492396E-17	3.987800E-18
6.970000E+03	7.499080E-17	4.007659E-18
6.980000E+03	7.505049E-17	4.026547E-18
6.990000E+03	7.509024E-17	4.043755E-18
7.000000E+03	7.513571E-17	4.060647E-18
7.010000E+03	7.517412E-17	4.076520E-18
7.020000E+03	7.520549E-17	4.091361E-18
7.030000E+03	7.521705E-17	4.104458E-18
7.040000E+03	7.523450E-17	4.117200E-18
7.050000E+03	7.524505E-17	4.128878E-18
7.060000E+03	7.523590E-17	4.138776E-18
7.070000E+03	7.523277E-17	4.148298E-18
7.080000E+03	7.522289E-17	4.156735E-18
7.090000E+03	7.519346E-17	4.163368E-18
7.100000E+03	7.517020E-17	4.169615E-18
7.110000E+03	7.514033E-17	4.174763E-18
7.120000E+03	7.509109E-17	4.178095E-18
7.130000E+03	7.504818E-17	4.181037E-18
7.140000E+03	7.499883E-17	4.182877E-18
7.150000E+03	7.493031E-17	4.182902E-18
7.160000E+03	7.486826E-17	4.182540E-18
7.170000E+03	7.478720E-17	4.180369E-18
7.180000E+03	7.471272E-17	4.177820E-18
7.190000E+03	7.463212E-17	4.174185E-18
7.200000E+03	7.453272E-17	4.168756E-18
7.210000E+03	7.444007E-17	4.162967E-18
7.220000E+03	7.434149E-17	4.156113E-18
7.230000E+03	7.422438E-17	4.147495E-18
7.240000E+03	7.411416E-17	4.138540E-18
7.250000E+03	7.398560E-17	4.127847E-18
7.260000E+03	7.386404E-17	4.116838E-18
7.270000E+03	7.373691E-17	4.104821E-18
7.280000E+03	7.359170E-17	4.091111E-18
7.290000E+03	7.345365E-17	4.077123E-18
7.300000E+03	7.329774E-17	4.061478E-18
7.310000E+03	7.314908E-17	4.045584E-18
7.320000E+03	7.299523E-17	4.028764E-18
7.330000E+03	7.282379E-17	4.010350E-18
7.340000E+03	7.265978E-17	3.991738E-18
7.350000E+03	7.247839E-17	3.971579E-18
7.360000E+03	7.230454E-17	3.951261E-18
7.370000E+03	7.212585E-17	3.930121E-18
7.380000E+03	7.193012E-17	3.907518E-18
7.390000E+03	7.174205E-17	3.884816E-18
7.400000E+03	7.153714E-17	3.860710E-18
7.410000E+03	7.134000E-17	3.836552E-18
7.420000E+03	7.112624E-17	3.811054E-18
7.430000E+03	7.092033E-17	3.785553E-18
7.440000E+03	7.069804E-17	3.758783E-18
7.450000E+03	7.048367E-17	3.732066E-18
7.460000E+03	7.026518E-17	3.704785E-18
7.470000E+03	7.003064E-17	3.676348E-18
7.480000E+03	6.980415E-17	3.648051E-18
7.490000E+03	6.956184E-17	3.618678E-18
7.500000E+03	6.932766E-17	3.589511E-18
7.510000E+03	6.907790E-17	3.559354E-18
7.520000E+03	6.883634E-17	3.529471E-18
7.530000E+03	6.857943E-17	3.498691E-18
7.540000E+03	6.833078E-17	3.468259E-18
7.550000E+03	6.806701E-17	3.437025E-18
7.560000E+03	6.781157E-17	3.406217E-18
7.570000E+03	6.754124E-17	3.374710E-18
7.580000E+03	6.727930E-17	3.343712E-18
7.590000E+03	6.700270E-17	3.312121E-18
7.600000E+03	6.673454E-17	3.281127E-18
7.610000E+03	6.645196E-17	3.249652E-18
7.620000E+03	6.617786E-17	3.218867E-18
7.630000E+03	6.588957E-17	3.187717E-18
7.640000E+03	6.560980E-17	3.157355E-18
7.650000E+03	6.531608E-17	3.126749E-18
7.660000E+03	6.503089E-17	3.097032E-18
7.670000E+03	6.473200E-17	3.067197E-18
7.680000E+03	6.444167E-17	3.038357E-18
7.690000E+03	6.413785E-17	3.009526E-18
7.700000E+03	6.384263E-17	2.981800E-18
7.710000E+03	6.353413E-17	2.954213E-18
7.720000E+03	6.322339E-17	2.927340E-18
7.730000E+03	6.292130E-17	2.901742E-18
7.740000E+03	6.260625E-17	2.876477E-18
7.750000E+03	6.229982E-17	2.852599E-18
7.760000E+03	6.198066E-17	2.829185E-18
