#wls	flux	fluxerr
1.590182E+03	4.380102E-15	2.060303E-16
1.629937E+03	3.451092E-15	1.590528E-16
1.669691E+03	2.661166E-15	1.201073E-16
1.709446E+03	2.006920E-15	8.865766E-17
1.749200E+03	1.479257E-15	6.392892E-17
1.788955E+03	1.064370E-15	4.497773E-17
1.828710E+03	7.463277E-16	3.082302E-17
1.868464E+03	5.093207E-16	2.054831E-17
1.908219E+03	3.380710E-16	1.331809E-17
1.947973E+03	2.188368E-16	8.414496E-18
1.987728E+03	1.389720E-16	5.213762E-18
2.027482E+03	8.759702E-17	3.205484E-18
2.067237E+03	5.591627E-17	1.995324E-18
2.106991E+03	3.729225E-17	1.297438E-18
2.146746E+03	2.708530E-17	9.186556E-19
2.186501E+03	2.221083E-17	7.344035E-19
2.226255E+03	2.100388E-17	6.771242E-19
2.266010E+03	2.299160E-17	7.228326E-19
2.305764E+03	2.875337E-17	8.818948E-19
2.345519E+03	4.018008E-17	1.202857E-18
2.385273E+03	6.128353E-17	1.791670E-18
2.425028E+03	9.964227E-17	2.846518E-18
2.464782E+03	1.687042E-16	4.711998E-18
2.504537E+03	2.905837E-16	7.939793E-18
2.544292E+03	4.979084E-16	1.331603E-17
2.584046E+03	8.312514E-16	2.176952E-17
2.623801E+03	1.329063E-15	3.409808E-17
2.663555E+03	2.015423E-15	5.067204E-17
2.703310E+03	2.889796E-15	7.122137E-17
2.743064E+03	3.918568E-15	9.469142E-17
2.782819E+03	5.036275E-15	1.193465E-16
2.822573E+03	6.158603E-15	1.431394E-16
2.862328E+03	7.201086E-15	1.641717E-16
2.902083E+03	8.095763E-15	1.810593E-16
2.941837E+03	8.804464E-15	1.931822E-16
2.981592E+03	9.320802E-15	2.006612E-16
2.991530E+03	9.422210E-15	2.018867E-16
3.001469E+03	9.513355E-15	2.028791E-16
3.011408E+03	9.594866E-15	2.036552E-16
3.021346E+03	9.667979E-15	2.042441E-16
3.031285E+03	9.733983E-15	2.046759E-16
3.041223E+03	9.792991E-15	2.049552E-16
3.051162E+03	9.847523E-15	2.051369E-16
3.061101E+03	9.897972E-15	2.052308E-16
3.071039E+03	9.944976E-15	2.052513E-16
3.080978E+03	9.989626E-15	2.052223E-16
3.090917E+03	1.003220E-14	2.051498E-16
3.100855E+03	1.007361E-14	2.050530E-16
3.110794E+03	1.011439E-14	2.049423E-16
3.120733E+03	1.015587E-14	2.048448E-16
3.130671E+03	1.019816E-14	2.047621E-16
3.140610E+03	1.024221E-14	2.047126E-16
3.150549E+03	1.028891E-14	2.047134E-16
3.160487E+03	1.033897E-14	2.047775E-16
3.170426E+03	1.039269E-14	2.049096E-16
3.180364E+03	1.045131E-14	2.051328E-16
3.190303E+03	1.051508E-14	2.054506E-16
3.200242E+03	1.058479E-14	2.058768E-16
3.210180E+03	1.066082E-14	2.064169E-16
3.220119E+03	1.074389E-14	2.070828E-16
3.230058E+03	1.083447E-14	2.078817E-16
3.239996E+03	1.093297E-14	2.088191E-16
3.249935E+03	1.103956E-14	2.098961E-16
3.259874E+03	1.115467E-14	2.111189E-16
3.269812E+03	1.127851E-14	2.124886E-16
3.279751E+03	1.141095E-14	2.140008E-16
3.289689E+03	1.155214E-14	2.156560E-16
3.299628E+03	1.170173E-14	2.174451E-16
3.309567E+03	1.185960E-14	2.193638E-16
3.319505E+03	1.202507E-14	2.213974E-16
3.329444E+03	1.219748E-14	2.235320E-16
3.339383E+03	1.237599E-14	2.257502E-16
3.349321E+03	1.255952E-14	2.280309E-16
3.359260E+03	1.274677E-14	2.303493E-16
3.369199E+03	1.293600E-14	2.326736E-16
3.379137E+03	1.312562E-14	2.349743E-16
3.389076E+03	1.331318E-14	2.372080E-16
3.399014E+03	1.349675E-14	2.393409E-16
3.408953E+03	1.367336E-14	2.413219E-16
3.418892E+03	1.384020E-14	2.431032E-16
3.428830E+03	1.399424E-14	2.446345E-16
3.438769E+03	1.413209E-14	2.458602E-16
3.448708E+03	1.425069E-14	2.467315E-16
3.458646E+03	1.434668E-14	2.471954E-16
3.468585E+03	1.441691E-14	2.472034E-16
3.478524E+03	1.445873E-14	2.467163E-16
3.488462E+03	1.446969E-14	2.456983E-16
3.498401E+03	1.444824E-14	2.441295E-16
3.508340E+03	1.439266E-14	2.419881E-16
3.518278E+03	1.430271E-14	2.392774E-16
3.528217E+03	1.417858E-14	2.360079E-16
3.538155E+03	1.402143E-14	2.322067E-16
3.548094E+03	1.383290E-14	2.279081E-16
3.558033E+03	1.361554E-14	2.231614E-16
3.567971E+03	1.337290E-14	2.180308E-16
3.577910E+03	1.310843E-14	2.125786E-16
3.587849E+03	1.282741E-14	2.068950E-16
3.597787E+03	1.253700E-14	2.010993E-16
3.607726E+03	1.224480E-14	1.953148E-16
3.617665E+03	1.195869E-14	1.896673E-16
3.627603E+03	1.168752E-14	1.842947E-16
3.637542E+03	1.143961E-14	1.793232E-16
3.647480E+03	1.122286E-14	1.748697E-16
3.657419E+03	1.104415E-14	1.710323E-16
3.667358E+03	1.091018E-14	1.679029E-16
3.677296E+03	1.082676E-14	1.655576E-16
3.687235E+03	1.079883E-14	1.640563E-16
3.697174E+03	1.083083E-14	1.634488E-16
3.707112E+03	1.092702E-14	1.637804E-16
3.717051E+03	1.109034E-14	1.650739E-16
3.726990E+03	1.132363E-14	1.673494E-16
3.736928E+03	1.162959E-14	1.706225E-16
3.746867E+03	1.201015E-14	1.748960E-16
3.756805E+03	1.246680E-14	1.801646E-16
3.766744E+03	1.300071E-14	1.864171E-16
3.776683E+03	1.361252E-14	1.936332E-16
3.786621E+03	1.430131E-14	2.017697E-16
3.796560E+03	1.506556E-14	2.107745E-16
3.806499E+03	1.590215E-14	2.205729E-16
3.816437E+03	1.680564E-14	2.310593E-16
3.826376E+03	1.776883E-14	2.421060E-16
3.836315E+03	1.878248E-14	2.535605E-16
3.846253E+03	1.983478E-14	2.652402E-16
3.856192E+03	2.091179E-14	2.769396E-16
3.866131E+03	2.199802E-14	2.884405E-16
3.876069E+03	2.307695E-14	2.995184E-16
3.886008E+03	2.413135E-14	3.099497E-16
3.895946E+03	2.514597E-14	3.195448E-16
3.905885E+03	2.610673E-14	3.281385E-16
3.915824E+03	2.700138E-14	3.355962E-16
3.925762E+03	2.782195E-14	3.418442E-16
3.935701E+03	2.856318E-14	3.468470E-16
3.945640E+03	2.922219E-14	3.506019E-16
3.955578E+03	2.980050E-14	3.531610E-16
3.965517E+03	3.030138E-14	3.545972E-16
3.975456E+03	3.073013E-14	3.550061E-16
3.985394E+03	3.109276E-14	3.544890E-16
3.995333E+03	3.139565E-14	3.531487E-16
4.005271E+03	3.164479E-14	3.510809E-16
4.015210E+03	3.184108E-14	3.483224E-16
4.025149E+03	3.198409E-14	3.448960E-16
4.035087E+03	3.207119E-14	3.408021E-16
4.045026E+03	3.209525E-14	3.359963E-16
4.054965E+03	3.204755E-14	3.304230E-16
4.064903E+03	3.192001E-14	3.240392E-16
4.074842E+03	3.170480E-14	3.168102E-16
4.084781E+03	3.139569E-14	3.087223E-16
4.094719E+03	3.098972E-14	2.997980E-16
4.104658E+03	3.048764E-14	2.900970E-16
4.114596E+03	2.989400E-14	2.797139E-16
4.124535E+03	2.921553E-14	2.687603E-16
4.134474E+03	2.846207E-14	2.573713E-16
4.144412E+03	2.764526E-14	2.456911E-16
4.154351E+03	2.677817E-14	2.338681E-16
4.164290E+03	2.587566E-14	2.220573E-16
4.174228E+03	2.495291E-14	2.104061E-16
4.184167E+03	2.402536E-14	1.990543E-16
4.194106E+03	2.310981E-14	1.881423E-16
4.204044E+03	2.222190E-14	1.777909E-16
4.213983E+03	2.137629E-14	1.681041E-16
4.223922E+03	2.058795E-14	1.591798E-16
4.233860E+03	1.986994E-14	1.510939E-16
4.243799E+03	1.923222E-14	1.438933E-16
4.253737E+03	1.868242E-14	1.376044E-16
4.263676E+03	1.822616E-14	1.322371E-16
4.273615E+03	1.786615E-14	1.277809E-16
4.283553E+03	1.759951E-14	1.241873E-16
4.293492E+03	1.742154E-14	1.213992E-16
4.303431E+03	1.732648E-14	1.193581E-16
4.313369E+03	1.730348E-14	1.179758E-16
4.323308E+03	1.734103E-14	1.171667E-16
4.333247E+03	1.742677E-14	1.168453E-16
4.343185E+03	1.754635E-14	1.169177E-16
4.353124E+03	1.768698E-14	1.173047E-16
4.363062E+03	1.784034E-14	1.179591E-16
4.373001E+03	1.800450E-14	1.188738E-16
4.382940E+03	1.818046E-14	1.200531E-16
4.392878E+03	1.837044E-14	1.215077E-16
4.402817E+03	1.858001E-14	1.232697E-16
4.412756E+03	1.881635E-14	1.253824E-16
4.422694E+03	1.908602E-14	1.278862E-16
4.432633E+03	1.939470E-14	1.308164E-16
4.442572E+03	1.974620E-14	1.341981E-16
4.452510E+03	2.013794E-14	1.380136E-16
4.462449E+03	2.055654E-14	1.421709E-16
4.472387E+03	2.097978E-14	1.465129E-16
4.482326E+03	2.138268E-14	1.508568E-16
4.492265E+03	2.174402E-14	1.550386E-16
4.502203E+03	2.204394E-14	1.588967E-16
4.512142E+03	2.226577E-14	1.622853E-16
4.522081E+03	2.240205E-14	1.651204E-16
4.532019E+03	2.245007E-14	1.673499E-16
4.541958E+03	2.240971E-14	1.689406E-16
4.551897E+03	2.228459E-14	1.698876E-16
4.561835E+03	2.207987E-14	1.701997E-16
4.571774E+03	2.180242E-14	1.699016E-16
4.581713E+03	2.146028E-14	1.690309E-16
4.591651E+03	2.106217E-14	1.676343E-16
4.601590E+03	2.061726E-14	1.657663E-16
4.611528E+03	2.013699E-14	1.635047E-16
4.621467E+03	1.963166E-14	1.609225E-16
4.631406E+03	1.911248E-14	1.581047E-16
4.641344E+03	1.858975E-14	1.551333E-16
4.651283E+03	1.807298E-14	1.520877E-16
4.661222E+03	1.756995E-14	1.490356E-16
4.671160E+03	1.708567E-14	1.460238E-16
4.681099E+03	1.662402E-14	1.430911E-16
4.691038E+03	1.618736E-14	1.402639E-16
4.700976E+03	1.577669E-14	1.375575E-16
4.710915E+03	1.539245E-14	1.349823E-16
4.720853E+03	1.503392E-14	1.325384E-16
4.730792E+03	1.469996E-14	1.302217E-16
4.740731E+03	1.438811E-14	1.280160E-16
4.750669E+03	1.409645E-14	1.259091E-16
4.760608E+03	1.382224E-14	1.238811E-16
4.770547E+03	1.356243E-14	1.219086E-16
4.780485E+03	1.331476E-14	1.199748E-16
4.790424E+03	1.307752E-14	1.180676E-16
4.800363E+03	1.284903E-14	1.161748E-16
4.810301E+03	1.262917E-14	1.142980E-16
4.820240E+03	1.242033E-14	1.124619E-16
4.830178E+03	1.222566E-14	1.106974E-16
4.840117E+03	1.204855E-14	1.090376E-16
4.850056E+03	1.189293E-14	1.075201E-16
4.859994E+03	1.176248E-14	1.061795E-16
4.869933E+03	1.166040E-14	1.050453E-16
4.879872E+03	1.158793E-14	1.041286E-16
4.889810E+03	1.154609E-14	1.034377E-16
4.899749E+03	1.153535E-14	1.029750E-16
4.909688E+03	1.155500E-14	1.027315E-16
4.919626E+03	1.160419E-14	1.026967E-16
4.929565E+03	1.168202E-14	1.028588E-16
4.939504E+03	1.178839E-14	1.032124E-16
4.949442E+03	1.192313E-14	1.037512E-16
4.959381E+03	1.208632E-14	1.044701E-16
4.969319E+03	1.227814E-14	1.053644E-16
4.979258E+03	1.249922E-14	1.064326E-16
4.989197E+03	1.274925E-14	1.076648E-16
4.999135E+03	1.302717E-14	1.090438E-16
5.009074E+03	1.333139E-14	1.105483E-16
5.019013E+03	1.365912E-14	1.121472E-16
5.028951E+03	1.400567E-14	1.137946E-16
5.038890E+03	1.436510E-14	1.154358E-16
5.048829E+03	1.473026E-14	1.170089E-16
5.058767E+03	1.509188E-14	1.184382E-16
5.068706E+03	1.543966E-14	1.196436E-16
5.078644E+03	1.576311E-14	1.205488E-16
5.088583E+03	1.605164E-14	1.210815E-16
5.098522E+03	1.629571E-14	1.211826E-16
5.108460E+03	1.648613E-14	1.208008E-16
5.118399E+03	1.661715E-14	1.199150E-16
5.128338E+03	1.668447E-14	1.185179E-16
5.138276E+03	1.668581E-14	1.166194E-16
5.148215E+03	1.662111E-14	1.142469E-16
5.158154E+03	1.649209E-14	1.114405E-16
5.168092E+03	1.630274E-14	1.082552E-16
5.178031E+03	1.605941E-14	1.047603E-16
5.187969E+03	1.577048E-14	1.010348E-16
5.197908E+03	1.544497E-14	9.715820E-17
5.207847E+03	1.509465E-14	9.322239E-17
5.217785E+03	1.473153E-14	8.931522E-17
5.227724E+03	1.436778E-14	8.551940E-17
5.237663E+03	1.401637E-14	8.191675E-17
5.247601E+03	1.369003E-14	7.858195E-17
5.257540E+03	1.339892E-14	7.556987E-17
5.267479E+03	1.314998E-14	7.291408E-17
5.277417E+03	1.294824E-14	7.063561E-17
5.287356E+03	1.279679E-14	6.874470E-17
5.297295E+03	1.269422E-14	6.722816E-17
5.307233E+03	1.263775E-14	6.606786E-17
5.317172E+03	1.262247E-14	6.523743E-17
5.327110E+03	1.263897E-14	6.469033E-17
5.337049E+03	1.267538E-14	6.437098E-17
5.346988E+03	1.271785E-14	6.421651E-17
5.356926E+03	1.274586E-14	6.413193E-17
5.366865E+03	1.273749E-14	6.401335E-17
5.376804E+03	1.267432E-14	6.376424E-17
5.386742E+03	1.254780E-14	6.333117E-17
5.396681E+03	1.236349E-14	6.272684E-17
5.406620E+03	1.214034E-14	6.202885E-17
5.416558E+03	1.190720E-14	6.136609E-17
5.426497E+03	1.169493E-14	6.088228E-17
5.436435E+03	1.152982E-14	6.070466E-17
5.446374E+03	1.142716E-14	6.091037E-17
5.456313E+03	1.139760E-14	6.155805E-17
5.466251E+03	1.144785E-14	6.269055E-17
5.476190E+03	1.157229E-14	6.428671E-17
5.486129E+03	1.176122E-14	6.630251E-17
5.496067E+03	1.200320E-14	6.868196E-17
5.506006E+03	1.228446E-14	7.135270E-17
5.515945E+03	1.258903E-14	7.422468E-17
5.525883E+03	1.290171E-14	7.720718E-17
5.535822E+03	1.321126E-14	8.022804E-17
5.545760E+03	1.350820E-14	8.322173E-17
5.555699E+03	1.378363E-14	8.612309E-17
5.565638E+03	1.403168E-14	8.888314E-17
5.575576E+03	1.424750E-14	9.145762E-17
5.585515E+03	1.442771E-14	9.381052E-17
5.595454E+03	1.457105E-14	9.591932E-17
5.605392E+03	1.467751E-14	9.776995E-17
5.615331E+03	1.474803E-14	9.935559E-17
5.625270E+03	1.478399E-14	1.006735E-16
5.635208E+03	1.478770E-14	1.017288E-16
5.645147E+03	1.476192E-14	1.025309E-16
5.655086E+03	1.470952E-14	1.030919E-16
5.665024E+03	1.463355E-14	1.034267E-16
5.674963E+03	1.453735E-14	1.035538E-16
5.684901E+03	1.442495E-14	1.034981E-16
5.694840E+03	1.429984E-14	1.032821E-16
5.704779E+03	1.416661E-14	1.029376E-16
5.714717E+03	1.403104E-14	1.025064E-16
5.724656E+03	1.389899E-14	1.020319E-16
5.734595E+03	1.377616E-14	1.015577E-16
5.744533E+03	1.366795E-14	1.011255E-16
5.754472E+03	1.357887E-14	1.007711E-16
5.764411E+03	1.351249E-14	1.005234E-16
5.774349E+03	1.347061E-14	1.003979E-16
5.784288E+03	1.345344E-14	1.003977E-16
5.794226E+03	1.346073E-14	1.005225E-16
5.804165E+03	1.349062E-14	1.007591E-16
5.814104E+03	1.354045E-14	1.010879E-16
5.824042E+03	1.360707E-14	1.014857E-16
5.833981E+03	1.368608E-14	1.019193E-16
5.843920E+03	1.377306E-14	1.023560E-16
5.853858E+03	1.386259E-14	1.027555E-16
5.863797E+03	1.394862E-14	1.030738E-16
5.873736E+03	1.402463E-14	1.032640E-16
5.883674E+03	1.408369E-14	1.032774E-16
5.893613E+03	1.411838E-14	1.030632E-16
5.903551E+03	1.412074E-14	1.025683E-16
5.913490E+03	1.408328E-14	1.017452E-16
5.923429E+03	1.399895E-14	1.005513E-16
5.933367E+03	1.386135E-14	9.895113E-17
5.943306E+03	1.366517E-14	9.691876E-17
5.953245E+03	1.340756E-14	9.444748E-17
5.963183E+03	1.308686E-14	9.154029E-17
5.973122E+03	1.270467E-14	8.822359E-17
5.983061E+03	1.226441E-14	8.453617E-17
5.992999E+03	1.177213E-14	8.053432E-17
6.002938E+03	1.123657E-14	7.629077E-17
6.012877E+03	1.066953E-14	7.189662E-17
6.022815E+03	1.008389E-14	6.744695E-17
6.032754E+03	9.493087E-15	6.303690E-17
6.042692E+03	8.913004E-15	5.877412E-17
6.052631E+03	8.357549E-15	5.474939E-17
6.062570E+03	7.839274E-15	5.104145E-17
6.072508E+03	7.370033E-15	4.772208E-17
6.082447E+03	6.959305E-15	4.484601E-17
6.092386E+03	6.614094E-15	4.245143E-17
6.102324E+03	6.340111E-15	4.056861E-17
6.112263E+03	6.141992E-15	3.922225E-17
6.122202E+03	6.023275E-15	3.843210E-17
6.132140E+03	5.985652E-15	3.820909E-17
6.142079E+03	6.031132E-15	3.856978E-17
6.152017E+03	6.161559E-15	3.953394E-17
6.161956E+03	6.373794E-15	4.109407E-17
6.171895E+03	6.663016E-15	4.323642E-17
6.181833E+03	7.023016E-15	4.594162E-17
6.191772E+03	7.443578E-15	4.916378E-17
6.201711E+03	7.910397E-15	5.282944E-17
6.211649E+03	8.406056E-15	5.684203E-17
6.221588E+03	8.913285E-15	6.110106E-17
6.231527E+03	9.412766E-15	6.548517E-17
6.241465E+03	9.883791E-15	6.985402E-17
6.251404E+03	1.030760E-14	7.406995E-17
6.261342E+03	1.066697E-14	7.799463E-17
6.271281E+03	1.094786E-14	8.150140E-17
6.281220E+03	1.114322E-14	8.450561E-17
6.291158E+03	1.125099E-14	8.695341E-17
6.301097E+03	1.127450E-14	8.882926E-17
6.311036E+03	1.122406E-14	9.017303E-17
6.320974E+03	1.111343E-14	9.105713E-17
6.330913E+03	1.095936E-14	9.158634E-17
6.340852E+03	1.078150E-14	9.190049E-17
6.350790E+03	1.059878E-14	9.214611E-17
6.360729E+03	1.042684E-14	9.245362E-17
6.370667E+03	1.027637E-14	9.292022E-17
6.380606E+03	1.014839E-14	9.356204E-17
6.390545E+03	1.003892E-14	9.434948E-17
6.400483E+03	9.943918E-15	9.525037E-17
6.410422E+03	9.859366E-15	9.622995E-17
6.420361E+03	9.781515E-15	9.725374E-17
6.430299E+03	9.707979E-15	9.829858E-17
6.440238E+03	9.636958E-15	9.934582E-17
6.450177E+03	9.566399E-15	1.003731E-16
6.460115E+03	9.495512E-15	1.013701E-16
6.470054E+03	9.423502E-15	1.023262E-16
6.479993E+03	9.349524E-15	1.032298E-16
6.489931E+03	9.273274E-15	1.040747E-16
6.499870E+03	9.194446E-15	1.048549E-16
6.509808E+03	9.112797E-15	1.055648E-16
6.519747E+03	9.028212E-15	1.062006E-16
6.529686E+03	8.940773E-15	1.067605E-16
6.539624E+03	8.850363E-15	1.072408E-16
6.549563E+03	8.757121E-15	1.076409E-16
6.559502E+03	8.661399E-15	1.079630E-16
6.569440E+03	8.563445E-15	1.082085E-16
6.579379E+03	8.463472E-15	1.083786E-16
6.589318E+03	8.362018E-15	1.084788E-16
6.599256E+03	8.259349E-15	1.085118E-16
6.609195E+03	8.156147E-15	1.084859E-16
6.619133E+03	8.052558E-15	1.084027E-16
6.629072E+03	7.948986E-15	1.082676E-16
6.639011E+03	7.845917E-15	1.080873E-16
6.648949E+03	7.743693E-15	1.078671E-16
6.658888E+03	7.642509E-15	1.076101E-16
6.668827E+03	7.542662E-15	1.073215E-16
6.678765E+03	7.444567E-15	1.070080E-16
6.688704E+03	7.348370E-15	1.066728E-16
6.698643E+03	7.254475E-15	1.063231E-16
6.708581E+03	7.162899E-15	1.059603E-16
6.718520E+03	7.074158E-15	1.055937E-16
6.728458E+03	6.988232E-15	1.052243E-16
6.738397E+03	6.905587E-15	1.048608E-16
6.748336E+03	6.826158E-15	1.045040E-16
6.758274E+03	6.750200E-15	1.041592E-16
6.768213E+03	6.677804E-15	1.038297E-16
6.778152E+03	6.608913E-15	1.035162E-16
6.788090E+03	6.543665E-15	1.032225E-16
6.798029E+03	6.481916E-15	1.029478E-16
6.807968E+03	6.423746E-15	1.026951E-16
6.817906E+03	6.368829E-15	1.024605E-16
6.827845E+03	6.317304E-15	1.022475E-16
6.837784E+03	6.268946E-15	1.020538E-16
6.847722E+03	6.223634E-15	1.018787E-16
6.857661E+03	6.181129E-15	1.017193E-16
6.867599E+03	6.141556E-15	1.015786E-16
6.877538E+03	6.104458E-15	1.014502E-16
6.887477E+03	6.070090E-15	1.013389E-16
6.897415E+03	6.038114E-15	1.012401E-16
6.907354E+03	6.008394E-15	1.011521E-16
6.917293E+03	5.980896E-15	1.010750E-16
6.927231E+03	5.955349E-15	1.010048E-16
6.937170E+03	5.931571E-15	1.009389E-16
6.947109E+03	5.909368E-15	1.008745E-16
6.957047E+03	5.888547E-15	1.008086E-16
6.966986E+03	5.868897E-15	1.007380E-16
6.976924E+03	5.850086E-15	1.006572E-16
6.986863E+03	5.832137E-15	1.005668E-16
6.996802E+03	5.814502E-15	1.004576E-16
7.006740E+03	5.797328E-15	1.003322E-16
7.016679E+03	5.780084E-15	1.001817E-16
7.026618E+03	5.762831E-15	1.000072E-16
7.036556E+03	5.745294E-15	9.980414E-17
7.046495E+03	5.727325E-15	9.956995E-17
7.056434E+03	5.708900E-15	9.930441E-17
7.066372E+03	5.689661E-15	9.900147E-17
7.076311E+03	5.669595E-15	9.866106E-17
7.086249E+03	5.648448E-15	9.827894E-17
7.096188E+03	5.626191E-15	9.785487E-17
7.106127E+03	5.602683E-15	9.738668E-17
7.116065E+03	5.577656E-15	9.686997E-17
7.126004E+03	5.551070E-15	9.630443E-17
7.135943E+03	5.522554E-15	9.568404E-17
7.145881E+03	5.492199E-15	9.501086E-17
7.155820E+03	5.459769E-15	9.428130E-17
7.165759E+03	5.425042E-15	9.349219E-17
7.175697E+03	5.388036E-15	9.264447E-17
7.185636E+03	5.348669E-15	9.173750E-17
7.195575E+03	5.306770E-15	9.076920E-17
7.205513E+03	5.262301E-15	8.973976E-17
7.215452E+03	5.215243E-15	8.864991E-17
7.225390E+03	5.165612E-15	8.750092E-17
7.235329E+03	5.113471E-15	8.629499E-17
7.245268E+03	5.058705E-15	8.503135E-17
7.255206E+03	5.001662E-15	8.371710E-17
7.265145E+03	4.942434E-15	8.235502E-17
7.275084E+03	4.881155E-15	8.094860E-17
7.285022E+03	4.818195E-15	7.950529E-17
7.294961E+03	4.753680E-15	7.802841E-17
7.304900E+03	4.687969E-15	7.652509E-17
7.314838E+03	4.621435E-15	7.500260E-17
7.324777E+03	4.554379E-15	7.346694E-17
7.334715E+03	4.487303E-15	7.192723E-17
7.344654E+03	4.420334E-15	7.038640E-17
7.354593E+03	4.354078E-15	6.885492E-17
7.364531E+03	4.288761E-15	6.733701E-17
7.374470E+03	4.224890E-15	6.584117E-17
7.384409E+03	4.162793E-15	6.437286E-17
7.394347E+03	4.102884E-15	6.293867E-17
7.404286E+03	4.045660E-15	6.154618E-17
7.414225E+03	3.991463E-15	6.020039E-17
7.424163E+03	3.940968E-15	5.891099E-17
7.434102E+03	3.894391E-15	5.768049E-17
7.444040E+03	3.852264E-15	5.651580E-17
7.453979E+03	3.814831E-15	5.541932E-17
7.463918E+03	3.782606E-15	5.439707E-17
7.473856E+03	3.755652E-15	5.344834E-17
7.483795E+03	3.734061E-15	5.257265E-17
7.493734E+03	3.717938E-15	5.176960E-17
7.503672E+03	3.707169E-15	5.103563E-17
7.513611E+03	3.701744E-15	5.036864E-17
7.523550E+03	3.701298E-15	4.976169E-17
7.533488E+03	3.705662E-15	4.921065E-17
7.543427E+03	3.714644E-15	4.871117E-17
7.553366E+03	3.727886E-15	4.825689E-17
7.563304E+03	3.745208E-15	4.784396E-17
7.573243E+03	3.766264E-15	4.746660E-17
7.583181E+03	3.790955E-15	4.712234E-17
7.593120E+03	3.818829E-15	4.680456E-17
7.603059E+03	3.849769E-15	4.651101E-17
7.612997E+03	3.883296E-15	4.623537E-17
7.622936E+03	3.919274E-15	4.597572E-17
7.632875E+03	3.957192E-15	4.572608E-17
7.642813E+03	3.996886E-15	4.548489E-17
7.652752E+03	4.037923E-15	4.524786E-17
7.662691E+03	4.079941E-15	4.501198E-17
7.672629E+03	4.122531E-15	4.477417E-17
7.682568E+03	4.165238E-15	4.453130E-17
7.692506E+03	4.207550E-15	4.428024E-17
7.702445E+03	4.248765E-15	4.401641E-17
7.712384E+03	4.288290E-15	4.373705E-17
