#wls	flux	fluxerr
1.590182E+03	2.066557E-15	1.399396E-16
1.629937E+03	1.660992E-15	1.108321E-16
1.669691E+03	1.317468E-15	8.660280E-17
1.709446E+03	1.031822E-15	6.680127E-17
1.749200E+03	7.985914E-16	5.090880E-17
1.788955E+03	6.109347E-16	3.834055E-17
1.828710E+03	4.620226E-16	2.853892E-17
1.868464E+03	3.454871E-16	2.100110E-17
1.908219E+03	2.555199E-16	1.528293E-17
1.947973E+03	1.871628E-16	1.101340E-17
1.987728E+03	1.362585E-16	7.887654E-18
2.027482E+03	9.940769E-17	5.660626E-18
2.067237E+03	7.382526E-17	4.135278E-18
2.106991E+03	5.709393E-17	3.146000E-18
2.146746E+03	4.719182E-17	2.558227E-18
2.186501E+03	4.247713E-17	2.265622E-18
2.226255E+03	4.189440E-17	2.199014E-18
2.266010E+03	4.509017E-17	2.329653E-18
2.305764E+03	5.234656E-17	2.662778E-18
2.345519E+03	6.464706E-17	3.238416E-18
2.385273E+03	8.384879E-17	4.137245E-18
2.425028E+03	1.128921E-16	5.487679E-18
2.464782E+03	1.560095E-16	7.472262E-18
2.504537E+03	2.188184E-16	1.032785E-17
2.544292E+03	3.080728E-16	1.432972E-17
2.584046E+03	4.308415E-16	1.975043E-17
2.623801E+03	5.931393E-16	2.679724E-17
2.663555E+03	7.988090E-16	3.556589E-17
2.703310E+03	1.048386E-15	4.599772E-17
2.743064E+03	1.338121E-15	5.784772E-17
2.782819E+03	1.659217E-15	7.066530E-17
2.822573E+03	1.998036E-15	8.381882E-17
2.862328E+03	2.337740E-15	9.657828E-17
2.902083E+03	2.660712E-15	1.082244E-16
2.941837E+03	2.952012E-15	1.181892E-16
2.981592E+03	3.200430E-15	1.260898E-16
2.991530E+03	3.255032E-15	1.277204E-16
3.001469E+03	3.306471E-15	1.292097E-16
3.011408E+03	3.354767E-15	1.305600E-16
3.021346E+03	3.399908E-15	1.317722E-16
3.031285E+03	3.442140E-15	1.328574E-16
3.041223E+03	3.481300E-15	1.338107E-16
3.051162E+03	3.518009E-15	1.346574E-16
3.061101E+03	3.552127E-15	1.353932E-16
3.071039E+03	3.583783E-15	1.360244E-16
3.080978E+03	3.612878E-15	1.365484E-16
3.090917E+03	3.639570E-15	1.369723E-16
3.100855E+03	3.663790E-15	1.372948E-16
3.110794E+03	3.685732E-15	1.375242E-16
3.120733E+03	3.705359E-15	1.376601E-16
3.130671E+03	3.722807E-15	1.377085E-16
3.140610E+03	3.738222E-15	1.376758E-16
3.150549E+03	3.751609E-15	1.375630E-16
3.160487E+03	3.763209E-15	1.373797E-16
3.170426E+03	3.773119E-15	1.371302E-16
3.180364E+03	3.781444E-15	1.368190E-16
3.190303E+03	3.788373E-15	1.364536E-16
3.200242E+03	3.794020E-15	1.360386E-16
3.210180E+03	3.798579E-15	1.355815E-16
3.220119E+03	3.802177E-15	1.350873E-16
3.230058E+03	3.804946E-15	1.345608E-16
3.239996E+03	3.807079E-15	1.340093E-16
3.249935E+03	3.808782E-15	1.334402E-16
3.259874E+03	3.810117E-15	1.328557E-16
3.269812E+03	3.811223E-15	1.322608E-16
3.279751E+03	3.812363E-15	1.316646E-16
3.289689E+03	3.813609E-15	1.310695E-16
3.299628E+03	3.815156E-15	1.304820E-16
3.309567E+03	3.817133E-15	1.299063E-16
3.319505E+03	3.819622E-15	1.293448E-16
3.329444E+03	3.822813E-15	1.288036E-16
3.339383E+03	3.826894E-15	1.282887E-16
3.349321E+03	3.831880E-15	1.277999E-16
3.359260E+03	3.837964E-15	1.273432E-16
3.369199E+03	3.845269E-15	1.269220E-16
3.379137E+03	3.853933E-15	1.265400E-16
3.389076E+03	3.863973E-15	1.261972E-16
3.399014E+03	3.875631E-15	1.259006E-16
3.408953E+03	3.888935E-15	1.256500E-16
3.418892E+03	3.903970E-15	1.254475E-16
3.428830E+03	3.920923E-15	1.252979E-16
3.438769E+03	3.939793E-15	1.252002E-16
3.448708E+03	3.960719E-15	1.251575E-16
3.458646E+03	3.983816E-15	1.251725E-16
3.468585E+03	4.009175E-15	1.252466E-16
3.478524E+03	4.036891E-15	1.253815E-16
3.488462E+03	4.067084E-15	1.255795E-16
3.498401E+03	4.099745E-15	1.258390E-16
3.508340E+03	4.135058E-15	1.261638E-16
3.518278E+03	4.173079E-15	1.265541E-16
3.528217E+03	4.213792E-15	1.270075E-16
3.538155E+03	4.257238E-15	1.275234E-16
3.548094E+03	4.303505E-15	1.281028E-16
3.558033E+03	4.352567E-15	1.287429E-16
3.567971E+03	4.404445E-15	1.294425E-16
3.577910E+03	4.459213E-15	1.302018E-16
3.587849E+03	4.516896E-15	1.310196E-16
3.597787E+03	4.577750E-15	1.319011E-16
3.607726E+03	4.641930E-15	1.328487E-16
3.617665E+03	4.709771E-15	1.338696E-16
3.627603E+03	4.781466E-15	1.349667E-16
3.637542E+03	4.857298E-15	1.361452E-16
3.647480E+03	4.937590E-15	1.374113E-16
3.657419E+03	5.022562E-15	1.387679E-16
3.667358E+03	5.112561E-15	1.402213E-16
3.677296E+03	5.207800E-15	1.417738E-16
3.687235E+03	5.308509E-15	1.434279E-16
3.697174E+03	5.415000E-15	1.451880E-16
3.707112E+03	5.527482E-15	1.470557E-16
3.717051E+03	5.646183E-15	1.490327E-16
3.726990E+03	5.771260E-15	1.511186E-16
3.736928E+03	5.902897E-15	1.533136E-16
3.746867E+03	6.041235E-15	1.556165E-16
3.756805E+03	6.186294E-15	1.580229E-16
3.766744E+03	6.338253E-15	1.605323E-16
3.776683E+03	6.497097E-15	1.631392E-16
3.786621E+03	6.662764E-15	1.658370E-16
3.796560E+03	6.835247E-15	1.686201E-16
3.806499E+03	7.014392E-15	1.714797E-16
3.816437E+03	7.200039E-15	1.744067E-16
3.826376E+03	7.391909E-15	1.773893E-16
3.836315E+03	7.589793E-15	1.804177E-16
3.846253E+03	7.793301E-15	1.834778E-16
3.856192E+03	8.002052E-15	1.865564E-16
3.866131E+03	8.215599E-15	1.896387E-16
3.876069E+03	8.433391E-15	1.927082E-16
3.886008E+03	8.654882E-15	1.957491E-16
3.895946E+03	8.879475E-15	1.987449E-16
3.905885E+03	9.106545E-15	2.016790E-16
3.915824E+03	9.335276E-15	2.045313E-16
3.925762E+03	9.565113E-15	2.072883E-16
3.935701E+03	9.795119E-15	2.099288E-16
3.945640E+03	1.002470E-14	2.124400E-16
3.955578E+03	1.025296E-14	2.148031E-16
3.965517E+03	1.047914E-14	2.170037E-16
3.975456E+03	1.070243E-14	2.190265E-16
3.985394E+03	1.092218E-14	2.208609E-16
3.995333E+03	1.113744E-14	2.224907E-16
4.005271E+03	1.134768E-14	2.239097E-16
4.015210E+03	1.155202E-14	2.251046E-16
4.025149E+03	1.174990E-14	2.260703E-16
4.035087E+03	1.194070E-14	2.268003E-16
4.045026E+03	1.212387E-14	2.272910E-16
4.054965E+03	1.229866E-14	2.275354E-16
4.064903E+03	1.246484E-14	2.275369E-16
4.074842E+03	1.262181E-14	2.272932E-16
4.084781E+03	1.276917E-14	2.268055E-16
4.094719E+03	1.290664E-14	2.260779E-16
4.104658E+03	1.303385E-14	2.251141E-16
4.114596E+03	1.315055E-14	2.239193E-16
4.124535E+03	1.325667E-14	2.225032E-16
4.134474E+03	1.335182E-14	2.208693E-16
4.144412E+03	1.343603E-14	2.190296E-16
4.154351E+03	1.350918E-14	2.169928E-16
4.164290E+03	1.357117E-14	2.147690E-16
4.174228E+03	1.362216E-14	2.123719E-16
4.184167E+03	1.366202E-14	2.098109E-16
4.194106E+03	1.369097E-14	2.071011E-16
4.204044E+03	1.370893E-14	2.042527E-16
4.213983E+03	1.371630E-14	2.012831E-16
4.223922E+03	1.371317E-14	1.982050E-16
4.233860E+03	1.369977E-14	1.950329E-16
4.243799E+03	1.367640E-14	1.917818E-16
4.253737E+03	1.364344E-14	1.884679E-16
4.263676E+03	1.360127E-14	1.851065E-16
4.273615E+03	1.355037E-14	1.817142E-16
4.283553E+03	1.349108E-14	1.783049E-16
4.293492E+03	1.342422E-14	1.748985E-16
4.303431E+03	1.335015E-14	1.715079E-16
4.313369E+03	1.326960E-14	1.681502E-16
4.323308E+03	1.318337E-14	1.648427E-16
4.333247E+03	1.309208E-14	1.615992E-16
4.343185E+03	1.299680E-14	1.584385E-16
4.353124E+03	1.289870E-14	1.553786E-16
4.363062E+03	1.279901E-14	1.524378E-16
4.373001E+03	1.269907E-14	1.496347E-16
4.382940E+03	1.260010E-14	1.469853E-16
4.392878E+03	1.250330E-14	1.445043E-16
4.402817E+03	1.240981E-14	1.422053E-16
4.412756E+03	1.232078E-14	1.401011E-16
4.422694E+03	1.223710E-14	1.382011E-16
4.432633E+03	1.215965E-14	1.365138E-16
4.442572E+03	1.208948E-14	1.350467E-16
4.452510E+03	1.202694E-14	1.337950E-16
4.462449E+03	1.197191E-14	1.327488E-16
4.472387E+03	1.192367E-14	1.318912E-16
4.482326E+03	1.188162E-14	1.312073E-16
4.492265E+03	1.184494E-14	1.306801E-16
4.502203E+03	1.181296E-14	1.302944E-16
4.512142E+03	1.178481E-14	1.300327E-16
4.522081E+03	1.175968E-14	1.298788E-16
4.532019E+03	1.173688E-14	1.298175E-16
4.541958E+03	1.171552E-14	1.298318E-16
4.551897E+03	1.169503E-14	1.299085E-16
4.561835E+03	1.167449E-14	1.300303E-16
4.571774E+03	1.165332E-14	1.301840E-16
4.581713E+03	1.163092E-14	1.303561E-16
4.591651E+03	1.160672E-14	1.305340E-16
4.601590E+03	1.158026E-14	1.307061E-16
4.611528E+03	1.155115E-14	1.308618E-16
4.621467E+03	1.151889E-14	1.309897E-16
4.631406E+03	1.148335E-14	1.310825E-16
4.641344E+03	1.144442E-14	1.311337E-16
4.651283E+03	1.140173E-14	1.311339E-16
4.661222E+03	1.135544E-14	1.310801E-16
4.671160E+03	1.130555E-14	1.309679E-16
4.681099E+03	1.125242E-14	1.307973E-16
4.691038E+03	1.119651E-14	1.305699E-16
4.700976E+03	1.113820E-14	1.302867E-16
4.710915E+03	1.107801E-14	1.299508E-16
4.720853E+03	1.101622E-14	1.295628E-16
4.730792E+03	1.095342E-14	1.291274E-16
4.740731E+03	1.089003E-14	1.286472E-16
4.750669E+03	1.082657E-14	1.281268E-16
4.760608E+03	1.076346E-14	1.275697E-16
4.770547E+03	1.070123E-14	1.269808E-16
4.780485E+03	1.064039E-14	1.263651E-16
4.790424E+03	1.058115E-14	1.257243E-16
4.800363E+03	1.052408E-14	1.250645E-16
4.810301E+03	1.046947E-14	1.243885E-16
4.820240E+03	1.041785E-14	1.237020E-16
4.830178E+03	1.036926E-14	1.230051E-16
4.840117E+03	1.032428E-14	1.223043E-16
4.850056E+03	1.028309E-14	1.216015E-16
4.859994E+03	1.024586E-14	1.208981E-16
4.869933E+03	1.021289E-14	1.201977E-16
4.879872E+03	1.018442E-14	1.195022E-16
4.889810E+03	1.016060E-14	1.188135E-16
4.899749E+03	1.014153E-14	1.181320E-16
4.909688E+03	1.012742E-14	1.174598E-16
4.919626E+03	1.011842E-14	1.167979E-16
4.929565E+03	1.011442E-14	1.161446E-16
4.939504E+03	1.011580E-14	1.155036E-16
4.949442E+03	1.012236E-14	1.148716E-16
4.959381E+03	1.013430E-14	1.142504E-16
4.969319E+03	1.015159E-14	1.136385E-16
4.979258E+03	1.017422E-14	1.130351E-16
4.989197E+03	1.020208E-14	1.124380E-16
4.999135E+03	1.023533E-14	1.118482E-16
5.009074E+03	1.027372E-14	1.112618E-16
5.019013E+03	1.031717E-14	1.106771E-16
5.028951E+03	1.036567E-14	1.100932E-16
5.038890E+03	1.041909E-14	1.095078E-16
5.048829E+03	1.047706E-14	1.089166E-16
5.058767E+03	1.053961E-14	1.083192E-16
5.068706E+03	1.060631E-14	1.077110E-16
5.078644E+03	1.067703E-14	1.070904E-16
5.088583E+03	1.075149E-14	1.064548E-16
5.098522E+03	1.082940E-14	1.058020E-16
5.108460E+03	1.091034E-14	1.051284E-16
5.118399E+03	1.099397E-14	1.044323E-16
5.128338E+03	1.107993E-14	1.037119E-16
5.138276E+03	1.116786E-14	1.029659E-16
5.148215E+03	1.125736E-14	1.021935E-16
5.158154E+03	1.134804E-14	1.013947E-16
5.168092E+03	1.143951E-14	1.005699E-16
5.178031E+03	1.153126E-14	9.971949E-17
5.187969E+03	1.162291E-14	9.884560E-17
5.197908E+03	1.171419E-14	9.795233E-17
5.207847E+03	1.180462E-14	9.704271E-17
5.217785E+03	1.189384E-14	9.612177E-17
5.227724E+03	1.198143E-14	9.519470E-17
5.237663E+03	1.206729E-14	9.427051E-17
5.247601E+03	1.215090E-14	9.335542E-17
5.257540E+03	1.223210E-14	9.245945E-17
5.267479E+03	1.231064E-14	9.159261E-17
5.277417E+03	1.238606E-14	9.076397E-17
5.287356E+03	1.245834E-14	8.998670E-17
5.297295E+03	1.252719E-14	8.927203E-17
5.307233E+03	1.259239E-14	8.863234E-17
5.317172E+03	1.265377E-14	8.808017E-17
5.327110E+03	1.271118E-14	8.762814E-17
5.337049E+03	1.276437E-14	8.728765E-17
5.346988E+03	1.281340E-14	8.707154E-17
5.356926E+03	1.285815E-14	8.699038E-17
5.366865E+03	1.289884E-14	8.705528E-17
5.376804E+03	1.293559E-14	8.726765E-17
5.386742E+03	1.296865E-14	8.762237E-17
5.396681E+03	1.299661E-14	8.810126E-17
5.406620E+03	1.301748E-14	8.868060E-17
5.416558E+03	1.302985E-14	8.933904E-17
5.426497E+03	1.303343E-14	9.006149E-17
5.436435E+03	1.302824E-14	9.083443E-17
5.446374E+03	1.301449E-14	9.164515E-17
5.456313E+03	1.299217E-14	9.247916E-17
5.466251E+03	1.296166E-14	9.332472E-17
5.476190E+03	1.292340E-14	9.417108E-17
5.486129E+03	1.287794E-14	9.500859E-17
5.496067E+03	1.282586E-14	9.582855E-17
5.506006E+03	1.276764E-14	9.662244E-17
5.515945E+03	1.270378E-14	9.738263E-17
5.525883E+03	1.263516E-14	9.810536E-17
5.535822E+03	1.256214E-14	9.878395E-17
5.545760E+03	1.248534E-14	9.941449E-17
5.555699E+03	1.240536E-14	9.999391E-17
5.565638E+03	1.232287E-14	1.005208E-16
5.575576E+03	1.223816E-14	1.009916E-16
5.585515E+03	1.215188E-14	1.014060E-16
5.595454E+03	1.206448E-14	1.017635E-16
5.605392E+03	1.197627E-14	1.020627E-16
5.615331E+03	1.188776E-14	1.023048E-16
5.625270E+03	1.179917E-14	1.024888E-16
5.635208E+03	1.171094E-14	1.026164E-16
5.645147E+03	1.162303E-14	1.026856E-16
5.655086E+03	1.153592E-14	1.026993E-16
5.665024E+03	1.144972E-14	1.026574E-16
5.674963E+03	1.136429E-14	1.025583E-16
5.684901E+03	1.127991E-14	1.024039E-16
5.694840E+03	1.119644E-14	1.021929E-16
5.704779E+03	1.111392E-14	1.019259E-16
5.714717E+03	1.103212E-14	1.016011E-16
5.724656E+03	1.095088E-14	1.012175E-16
5.734595E+03	1.087011E-14	1.007750E-16
5.744533E+03	1.078955E-14	1.002722E-16
5.754472E+03	1.070882E-14	9.970657E-17
5.764411E+03	1.062773E-14	9.907755E-17
5.774349E+03	1.054607E-14	9.838464E-17
5.784288E+03	1.046326E-14	9.762412E-17
5.794226E+03	1.037910E-14	9.679585E-17
5.804165E+03	1.029336E-14	9.589969E-17
5.814104E+03	1.020558E-14	9.493383E-17
5.824042E+03	1.011560E-14	9.389907E-17
5.833981E+03	1.002313E-14	9.279559E-17
5.843920E+03	9.927939E-15	9.162411E-17
5.853858E+03	9.829709E-15	9.038509E-17
5.863797E+03	9.728527E-15	8.908278E-17
5.873736E+03	9.624310E-15	8.772018E-17
5.883674E+03	9.516907E-15	8.629988E-17
5.893613E+03	9.406470E-15	8.482748E-17
5.903551E+03	9.293091E-15	8.330823E-17
5.913490E+03	9.177041E-15	8.174914E-17
5.923429E+03	9.058329E-15	8.015505E-17
5.933367E+03	8.937559E-15	7.853617E-17
5.943306E+03	8.814956E-15	7.689945E-17
5.953245E+03	8.690904E-15	7.525328E-17
5.963183E+03	8.565934E-15	7.360733E-17
5.973122E+03	8.440513E-15	7.197067E-17
5.983061E+03	8.315126E-15	7.035248E-17
5.992999E+03	8.190269E-15	6.876197E-17
6.002938E+03	8.066661E-15	6.721010E-17
6.012877E+03	7.944820E-15	6.570603E-17
6.022815E+03	7.825141E-15	6.425775E-17
6.032754E+03	7.708312E-15	6.287556E-17
6.042692E+03	7.594803E-15	6.156777E-17
6.052631E+03	7.485039E-15	6.034226E-17
6.062570E+03	7.379618E-15	5.920808E-17
6.072508E+03	7.278716E-15	5.817079E-17
6.082447E+03	7.182837E-15	5.723843E-17
6.092386E+03	7.092256E-15	5.641708E-17
6.102324E+03	7.007205E-15	5.571232E-17
6.112263E+03	6.927858E-15	5.512912E-17
6.122202E+03	6.854269E-15	5.467136E-17
6.132140E+03	6.786610E-15	5.434366E-17
6.142079E+03	6.724832E-15	5.414867E-17
6.152017E+03	6.669191E-15	5.409132E-17
6.161956E+03	6.619455E-15	5.417044E-17
6.171895E+03	6.575789E-15	5.438416E-17
6.181833E+03	6.537863E-15	5.472620E-17
6.191772E+03	6.505500E-15	5.519152E-17
6.201711E+03	6.478552E-15	5.577548E-17
6.211649E+03	6.456659E-15	5.647172E-17
6.221588E+03	6.439520E-15	5.727446E-17
6.231527E+03	6.426868E-15	5.817835E-17
6.241465E+03	6.418161E-15	5.917562E-17
6.251404E+03	6.413170E-15	6.026134E-17
6.261342E+03	6.411380E-15	6.142801E-17
6.271281E+03	6.412436E-15	6.266957E-17
6.281220E+03	6.415782E-15	6.397796E-17
6.291158E+03	6.421144E-15	6.534778E-17
6.301097E+03	6.428058E-15	6.677171E-17
6.311036E+03	6.436197E-15	6.824364E-17
6.320974E+03	6.445148E-15	6.975654E-17
6.330913E+03	6.454762E-15	7.130605E-17
6.340852E+03	6.464685E-15	7.288559E-17
6.350790E+03	6.474938E-15	7.449272E-17
6.360729E+03	6.485558E-15	7.612536E-17
6.370667E+03	6.496166E-15	7.777666E-17
6.380606E+03	6.506232E-15	7.943767E-17
6.390545E+03	6.514871E-15	8.109470E-17
6.400483E+03	6.521686E-15	8.273948E-17
6.410422E+03	6.525996E-15	8.435985E-17
6.420361E+03	6.527599E-15	8.594935E-17
6.430299E+03	6.526075E-15	8.749857E-17
6.440238E+03	6.521159E-15	8.899985E-17
6.450177E+03	6.512845E-15	9.044906E-17
6.460115E+03	6.500962E-15	9.183977E-17
6.470054E+03	6.485271E-15	9.316458E-17
6.479993E+03	6.465879E-15	9.442098E-17
6.489931E+03	6.442823E-15	9.560564E-17
6.499870E+03	6.415939E-15	9.671238E-17
6.509808E+03	6.385517E-15	9.774193E-17
6.519747E+03	6.351459E-15	9.868934E-17
6.529686E+03	6.313885E-15	9.955314E-17
6.539624E+03	6.273036E-15	1.003341E-16
6.549563E+03	6.228978E-15	1.010303E-16
6.559502E+03	6.181895E-15	1.016421E-16
6.569440E+03	6.132081E-15	1.021719E-16
6.579379E+03	6.079539E-15	1.026176E-16
6.589318E+03	6.024702E-15	1.029845E-16
6.599256E+03	5.967702E-15	1.032733E-16
6.609195E+03	5.908672E-15	1.034845E-16
6.619133E+03	5.848060E-15	1.036250E-16
6.629072E+03	5.785915E-15	1.036946E-16
6.639011E+03	5.722685E-15	1.037005E-16
6.648949E+03	5.658418E-15	1.036431E-16
6.658888E+03	5.593549E-15	1.035299E-16
6.668827E+03	5.528216E-15	1.033635E-16
6.678765E+03	5.462552E-15	1.031463E-16
6.688704E+03	5.396962E-15	1.028862E-16
6.698643E+03	5.331559E-15	1.025857E-16
6.708581E+03	5.266533E-15	1.022490E-16
6.718520E+03	5.202066E-15	1.018803E-16
6.728458E+03	5.138321E-15	1.014834E-16
6.738397E+03	5.075538E-15	1.010640E-16
6.748336E+03	5.013674E-15	1.006222E-16
6.758274E+03	4.953027E-15	1.001647E-16
6.768213E+03	4.893612E-15	9.969317E-17
6.778152E+03	4.835520E-15	9.921032E-17
6.788090E+03	4.778913E-15	9.872061E-17
6.798029E+03	4.723765E-15	9.822466E-17
6.807968E+03	4.670125E-15	9.772458E-17
6.817906E+03	4.618030E-15	9.722224E-17
6.827845E+03	4.567586E-15	9.672099E-17
6.837784E+03	4.518724E-15	9.622043E-17
6.847722E+03	4.471444E-15	9.572165E-17
6.857661E+03	4.425741E-15	9.522552E-17
6.867599E+03	4.381679E-15	9.473446E-17
6.877538E+03	4.339233E-15	9.424887E-17
6.887477E+03	4.298210E-15	9.376548E-17
6.897415E+03	4.258733E-15	9.328783E-17
6.907354E+03	4.220678E-15	9.281404E-17
6.917293E+03	4.184073E-15	9.234556E-17
6.927231E+03	4.148786E-15	9.188019E-17
6.937170E+03	4.114758E-15	9.141733E-17
6.947109E+03	4.082006E-15	9.095801E-17
6.957047E+03	4.050385E-15	9.049964E-17
6.966986E+03	4.019906E-15	9.004305E-17
6.976924E+03	3.990422E-15	8.958548E-17
6.986863E+03	3.961859E-15	8.912581E-17
6.996802E+03	3.934223E-15	8.866461E-17
7.006740E+03	3.907361E-15	8.819894E-17
7.016679E+03	3.881200E-15	8.772754E-17
7.026618E+03	3.855741E-15	8.725082E-17
7.036556E+03	3.830831E-15	8.676576E-17
7.046495E+03	3.806474E-15	8.627276E-17
7.056434E+03	3.782519E-15	8.576876E-17
7.066372E+03	3.758970E-15	8.525422E-17
7.076311E+03	3.735680E-15	8.472611E-17
7.086249E+03	3.712581E-15	8.418324E-17
7.096188E+03	3.689683E-15	8.362615E-17
7.106127E+03	3.666921E-15	8.305371E-17
7.116065E+03	3.644160E-15	8.246320E-17
7.126004E+03	3.621345E-15	8.185369E-17
7.135943E+03	3.598572E-15	8.122773E-17
7.145881E+03	3.575568E-15	8.057953E-17
7.155820E+03	3.552514E-15	7.991352E-17
7.165759E+03	3.529149E-15	7.922423E-17
7.175697E+03	3.505662E-15	7.851630E-17
7.185636E+03	3.481877E-15	7.778625E-17
7.195575E+03	3.457847E-15	7.703566E-17
7.205513E+03	3.433557E-15	7.626465E-17
7.215452E+03	3.408922E-15	7.547183E-17
7.225390E+03	3.384014E-15	7.465928E-17
7.235329E+03	3.358835E-15	7.382753E-17
7.245268E+03	3.333320E-15	7.297568E-17
7.255206E+03	3.307558E-15	7.210621E-17
7.265145E+03	3.281570E-15	7.122010E-17
7.275084E+03	3.255381E-15	7.031843E-17
7.285022E+03	3.228950E-15	6.940086E-17
7.294961E+03	3.202385E-15	6.847028E-17
7.304900E+03	3.175728E-15	6.752809E-17
7.314838E+03	3.148949E-15	6.657423E-17
7.324777E+03	3.122097E-15	6.561027E-17
7.334715E+03	3.095294E-15	6.463929E-17
7.344654E+03	3.068520E-15	6.366140E-17
7.354593E+03	3.041900E-15	6.267967E-17
7.364531E+03	3.015417E-15	6.169426E-17
7.374470E+03	2.989197E-15	6.070814E-17
7.384409E+03	2.963293E-15	5.972285E-17
7.394347E+03	2.937757E-15	5.873983E-17
7.404286E+03	2.912710E-15	5.776181E-17
7.414225E+03	2.888130E-15	5.678869E-17
7.424163E+03	2.864132E-15	5.582302E-17
7.434102E+03	2.840757E-15	5.486584E-17
7.444040E+03	2.818044E-15	5.391814E-17
7.453979E+03	2.796027E-15	5.298074E-17
7.463918E+03	2.774671E-15	5.205313E-17
7.473856E+03	2.754133E-15	5.113849E-17
7.483795E+03	2.734302E-15	5.023481E-17
7.493734E+03	2.715328E-15	4.934501E-17
7.503672E+03	2.697087E-15	4.846693E-17
7.513611E+03	2.679652E-15	4.760202E-17
7.523550E+03	2.663024E-15	4.675039E-17
7.533488E+03	2.647131E-15	4.591093E-17
7.543427E+03	2.632031E-15	4.508480E-17
7.553366E+03	2.617642E-15	4.427074E-17
7.563304E+03	2.603943E-15	4.346867E-17
7.573243E+03	2.590977E-15	4.267951E-17
7.583181E+03	2.578647E-15	4.190196E-17
7.593120E+03	2.566917E-15	4.113580E-17
7.603059E+03	2.555748E-15	4.038083E-17
7.612997E+03	2.545163E-15	3.963786E-17
7.622936E+03	2.534979E-15	3.890466E-17
7.632875E+03	2.525278E-15	3.818310E-17
7.642813E+03	2.515937E-15	3.747208E-17
7.652752E+03	2.506895E-15	3.677155E-17
7.662691E+03	2.498090E-15	3.608153E-17
7.672629E+03	2.489455E-15	3.540218E-17
7.682568E+03	2.480920E-15	3.473371E-17
7.692506E+03	2.472483E-15	3.407739E-17
7.702445E+03	2.464068E-15	3.343363E-17
7.712384E+03	2.455470E-15	3.280122E-17
