#wls	flux	fluxerr
1.590182E+03	9.813827E-16	9.020520E-17
1.629937E+03	8.170024E-16	7.411979E-17
1.669691E+03	6.744303E-16	6.037769E-17
1.709446E+03	5.525336E-16	4.880255E-17
1.749200E+03	4.495901E-16	3.917115E-17
1.788955E+03	3.634482E-16	3.123101E-17
1.828710E+03	2.919307E-16	2.473732E-17
1.868464E+03	2.330130E-16	1.946823E-17
1.908219E+03	1.847970E-16	1.522188E-17
1.947973E+03	1.457652E-16	1.183637E-17
1.987728E+03	1.146484E-16	9.176991E-18
2.027482E+03	9.053441E-17	7.143363E-18
2.067237E+03	7.271845E-17	5.655799E-18
2.106991E+03	6.058365E-17	4.644981E-18
2.146746E+03	5.347384E-17	4.041891E-18
2.186501E+03	5.066445E-17	3.775847E-18
2.226255E+03	5.158244E-17	3.790987E-18
2.266010E+03	5.596207E-17	4.056671E-18
2.305764E+03	6.392794E-17	4.571723E-18
2.345519E+03	7.599055E-17	5.362236E-18
2.385273E+03	9.309180E-17	6.482890E-18
2.425028E+03	1.166252E-16	8.016451E-18
2.464782E+03	1.483969E-16	1.006921E-17
2.504537E+03	1.905487E-16	1.276417E-17
2.544292E+03	2.453529E-16	1.622611E-17
2.584046E+03	3.148919E-16	2.056025E-17
2.623801E+03	4.006996E-16	2.582982E-17
2.663555E+03	5.034004E-16	3.203537E-17
2.703310E+03	6.225737E-16	3.910971E-17
2.743064E+03	7.563376E-16	4.689616E-17
2.782819E+03	9.011616E-16	5.514280E-17
2.822573E+03	1.052386E-15	6.354038E-17
2.862328E+03	1.204290E-15	7.173095E-17
2.902083E+03	1.351044E-15	7.936811E-17
2.941837E+03	1.487524E-15	8.616506E-17
2.981592E+03	1.609418E-15	9.189813E-17
2.991530E+03	1.637286E-15	9.315054E-17
3.001469E+03	1.663992E-15	9.432495E-17
3.011408E+03	1.689596E-15	9.542551E-17
3.021346E+03	1.714031E-15	9.644903E-17
3.031285E+03	1.737454E-15	9.740510E-17
3.041223E+03	1.759722E-15	9.828632E-17
3.051162E+03	1.781139E-15	9.911019E-17
3.061101E+03	1.801702E-15	9.987714E-17
3.071039E+03	1.821316E-15	1.005824E-16
3.080978E+03	1.839995E-15	1.012273E-16
3.090917E+03	1.857755E-15	1.018133E-16
3.100855E+03	1.874572E-15	1.023395E-16
3.110794E+03	1.890427E-15	1.028054E-16
3.120733E+03	1.905405E-15	1.032161E-16
3.130671E+03	1.919449E-15	1.035690E-16
3.140610E+03	1.932557E-15	1.038645E-16
3.150549E+03	1.944875E-15	1.041108E-16
3.160487E+03	1.956314E-15	1.043037E-16
3.170426E+03	1.966979E-15	1.044493E-16
3.180364E+03	1.976840E-15	1.045463E-16
3.190303E+03	1.986007E-15	1.046009E-16
3.200242E+03	1.994503E-15	1.046148E-16
3.210180E+03	2.002353E-15	1.045895E-16
3.220119E+03	2.009631E-15	1.045293E-16
3.230058E+03	2.016409E-15	1.044382E-16
3.239996E+03	2.022679E-15	1.043160E-16
3.249935E+03	2.028520E-15	1.041670E-16
3.259874E+03	2.033970E-15	1.039934E-16
3.269812E+03	2.039111E-15	1.037996E-16
3.279751E+03	2.043985E-15	1.035878E-16
3.289689E+03	2.048637E-15	1.033603E-16
3.299628E+03	2.053152E-15	1.031216E-16
3.309567E+03	2.057501E-15	1.028702E-16
3.319505E+03	2.061850E-15	1.026145E-16
3.329444E+03	2.066174E-15	1.023531E-16
3.339383E+03	2.070529E-15	1.020887E-16
3.349321E+03	2.075008E-15	1.018259E-16
3.359260E+03	2.079635E-15	1.015656E-16
3.369199E+03	2.084437E-15	1.013090E-16
3.379137E+03	2.089480E-15	1.010592E-16
3.389076E+03	2.094798E-15	1.008175E-16
3.399014E+03	2.100496E-15	1.005887E-16
3.408953E+03	2.106551E-15	1.003713E-16
3.418892E+03	2.113043E-15	1.001689E-16
3.428830E+03	2.120023E-15	9.998355E-17
3.438769E+03	2.127519E-15	9.981606E-17
3.448708E+03	2.135594E-15	9.966899E-17
3.458646E+03	2.144319E-15	9.954514E-17
3.468585E+03	2.153745E-15	9.944632E-17
3.478524E+03	2.163905E-15	9.937343E-17
3.488462E+03	2.174895E-15	9.933029E-17
3.498401E+03	2.186792E-15	9.931969E-17
3.508340E+03	2.199652E-15	9.934335E-17
3.518278E+03	2.213568E-15	9.940456E-17
3.528217E+03	2.228638E-15	9.950677E-17
3.538155E+03	2.244970E-15	9.965371E-17
3.548094E+03	2.262652E-15	9.984819E-17
3.558033E+03	2.281807E-15	1.000944E-16
3.567971E+03	2.302543E-15	1.003957E-16
3.577910E+03	2.325055E-15	1.007592E-16
3.587849E+03	2.349472E-15	1.011887E-16
3.597787E+03	2.375960E-15	1.016898E-16
3.607726E+03	2.404669E-15	1.022669E-16
3.617665E+03	2.435793E-15	1.029262E-16
3.627603E+03	2.469538E-15	1.036742E-16
3.637542E+03	2.506123E-15	1.045176E-16
3.647480E+03	2.545809E-15	1.054647E-16
3.657419E+03	2.588845E-15	1.065229E-16
3.667358E+03	2.635545E-15	1.077019E-16
3.677296E+03	2.686179E-15	1.090093E-16
3.687235E+03	2.741108E-15	1.104560E-16
3.697174E+03	2.800644E-15	1.120504E-16
3.707112E+03	2.865095E-15	1.138006E-16
3.717051E+03	2.934819E-15	1.157159E-16
3.726990E+03	3.010132E-15	1.178037E-16
3.736928E+03	3.091324E-15	1.200701E-16
3.746867E+03	3.178648E-15	1.225190E-16
3.756805E+03	3.272370E-15	1.251547E-16
3.766744E+03	3.372604E-15	1.279754E-16
3.776683E+03	3.479444E-15	1.309781E-16
3.786621E+03	3.592928E-15	1.341578E-16
3.796560E+03	3.712853E-15	1.375002E-16
3.806499E+03	3.839059E-15	1.409931E-16
3.816437E+03	3.971153E-15	1.446157E-16
3.826376E+03	4.108599E-15	1.483425E-16
3.836315E+03	4.250780E-15	1.521460E-16
3.846253E+03	4.396875E-15	1.559917E-16
3.856192E+03	4.545947E-15	1.598426E-16
3.866131E+03	4.696906E-15	1.636571E-16
3.876069E+03	4.848645E-15	1.673948E-16
3.886008E+03	4.999854E-15	1.710094E-16
3.895946E+03	5.149304E-15	1.744595E-16
3.905885E+03	5.295684E-15	1.777021E-16
3.915824E+03	5.437768E-15	1.806992E-16
3.925762E+03	5.574394E-15	1.834165E-16
3.935701E+03	5.704422E-15	1.858218E-16
3.945640E+03	5.826957E-15	1.878927E-16
3.955578E+03	5.941327E-15	1.896150E-16
3.965517E+03	6.046852E-15	1.909753E-16
3.975456E+03	6.143315E-15	1.919759E-16
3.985394E+03	6.230452E-15	1.926175E-16
3.995333E+03	6.308412E-15	1.929146E-16
4.005271E+03	6.377426E-15	1.928836E-16
4.015210E+03	6.437901E-15	1.925460E-16
4.025149E+03	6.490370E-15	1.919269E-16
4.035087E+03	6.535554E-15	1.910558E-16
4.045026E+03	6.574127E-15	1.899604E-16
4.054965E+03	6.606980E-15	1.886734E-16
4.064903E+03	6.634863E-15	1.872226E-16
4.074842E+03	6.658556E-15	1.856356E-16
4.084781E+03	6.678807E-15	1.839381E-16
4.094719E+03	6.696359E-15	1.821549E-16
4.104658E+03	6.711824E-15	1.803060E-16
4.114596E+03	6.725665E-15	1.784070E-16
4.124535E+03	6.738363E-15	1.764731E-16
4.134474E+03	6.750234E-15	1.745149E-16
4.144412E+03	6.761458E-15	1.725391E-16
4.154351E+03	6.772262E-15	1.705534E-16
4.164290E+03	6.782586E-15	1.685579E-16
4.174228E+03	6.792447E-15	1.665552E-16
4.184167E+03	6.801810E-15	1.645462E-16
4.194106E+03	6.810484E-15	1.625287E-16
4.204044E+03	6.818302E-15	1.605008E-16
4.213983E+03	6.825151E-15	1.584627E-16
4.223922E+03	6.830797E-15	1.564116E-16
4.233860E+03	6.835215E-15	1.543502E-16
4.243799E+03	6.838315E-15	1.522795E-16
4.253737E+03	6.840001E-15	1.502006E-16
4.263676E+03	6.840476E-15	1.481214E-16
4.273615E+03	6.839817E-15	1.460468E-16
4.283553E+03	6.838305E-15	1.439859E-16
4.293492E+03	6.836377E-15	1.419510E-16
4.303431E+03	6.834543E-15	1.399550E-16
4.313369E+03	6.833432E-15	1.380132E-16
4.323308E+03	6.833858E-15	1.361435E-16
4.333247E+03	6.836624E-15	1.343632E-16
4.343185E+03	6.842930E-15	1.326963E-16
4.353124E+03	6.854352E-15	1.311730E-16
4.363062E+03	6.872652E-15	1.298257E-16
4.373001E+03	6.899377E-15	1.286813E-16
4.382940E+03	6.936176E-15	1.277674E-16
4.392878E+03	6.984374E-15	1.271047E-16
4.402817E+03	7.045065E-15	1.267090E-16
4.412756E+03	7.118963E-15	1.265890E-16
4.422694E+03	7.206481E-15	1.267487E-16
4.432633E+03	7.307679E-15	1.271861E-16
4.442572E+03	7.422354E-15	1.278956E-16
4.452510E+03	7.549939E-15	1.288665E-16
4.462449E+03	7.690046E-15	1.300923E-16
4.472387E+03	7.842179E-15	1.315655E-16
4.482326E+03	8.005347E-15	1.332719E-16
4.492265E+03	8.178331E-15	1.351938E-16
4.502203E+03	8.359190E-15	1.372995E-16
4.512142E+03	8.545682E-15	1.395517E-16
4.522081E+03	8.734872E-15	1.419024E-16
4.532019E+03	8.923590E-15	1.443006E-16
4.541958E+03	9.108198E-15	1.466879E-16
4.551897E+03	9.284841E-15	1.490029E-16
4.561835E+03	9.449772E-15	1.511857E-16
4.571774E+03	9.599220E-15	1.531759E-16
4.581713E+03	9.729824E-15	1.549190E-16
4.591651E+03	9.838714E-15	1.563680E-16
4.601590E+03	9.923525E-15	1.574831E-16
4.611528E+03	9.983018E-15	1.582415E-16
4.621467E+03	1.001655E-14	1.586294E-16
4.631406E+03	1.002448E-14	1.586477E-16
4.641344E+03	1.000786E-14	1.583084E-16
4.651283E+03	9.968549E-15	1.576356E-16
4.661222E+03	9.908989E-15	1.566624E-16
4.671160E+03	9.832189E-15	1.554310E-16
4.681099E+03	9.741266E-15	1.539854E-16
4.691038E+03	9.639637E-15	1.523747E-16
4.700976E+03	9.530426E-15	1.506435E-16
4.710915E+03	9.416786E-15	1.488375E-16
4.720853E+03	9.301602E-15	1.469985E-16
4.730792E+03	9.187337E-15	1.451618E-16
4.740731E+03	9.076166E-15	1.433589E-16
4.750669E+03	8.969776E-15	1.416135E-16
4.760608E+03	8.869534E-15	1.399446E-16
4.770547E+03	8.776332E-15	1.383642E-16
4.780485E+03	8.690845E-15	1.368806E-16
4.790424E+03	8.613169E-15	1.354933E-16
4.800363E+03	8.543400E-15	1.342020E-16
4.810301E+03	8.481125E-15	1.329982E-16
4.820240E+03	8.425762E-15	1.318711E-16
4.830178E+03	8.376531E-15	1.308067E-16
4.840117E+03	8.332480E-15	1.297888E-16
4.850056E+03	8.292541E-15	1.287991E-16
4.859994E+03	8.255561E-15	1.278187E-16
4.869933E+03	8.220457E-15	1.268298E-16
4.879872E+03	8.186002E-15	1.258127E-16
4.889810E+03	8.151224E-15	1.247521E-16
4.899749E+03	8.115141E-15	1.236330E-16
4.909688E+03	8.077185E-15	1.224471E-16
4.919626E+03	8.036832E-15	1.211870E-16
4.929565E+03	7.993838E-15	1.198499E-16
4.939504E+03	7.948559E-15	1.184425E-16
4.949442E+03	7.901253E-15	1.169698E-16
4.959381E+03	7.852933E-15	1.154481E-16
4.969319E+03	7.804545E-15	1.138927E-16
4.979258E+03	7.757540E-15	1.123255E-16
4.989197E+03	7.713428E-15	1.107692E-16
4.999135E+03	7.674125E-15	1.092512E-16
5.009074E+03	7.641377E-15	1.077956E-16
5.019013E+03	7.617273E-15	1.064306E-16
5.028951E+03	7.603632E-15	1.051791E-16
5.038890E+03	7.602526E-15	1.040664E-16
5.048829E+03	7.615731E-15	1.031126E-16
5.058767E+03	7.644894E-15	1.023344E-16
5.068706E+03	7.691736E-15	1.017487E-16
5.078644E+03	7.757552E-15	1.013652E-16
5.088583E+03	7.843473E-15	1.011907E-16
5.098522E+03	7.950280E-15	1.012263E-16
5.108460E+03	8.078626E-15	1.014712E-16
5.118399E+03	8.228462E-15	1.019153E-16
5.128338E+03	8.399506E-15	1.025458E-16
5.138276E+03	8.590846E-15	1.033429E-16
5.148215E+03	8.800874E-15	1.042793E-16
5.158154E+03	9.027477E-15	1.053237E-16
5.168092E+03	9.267629E-15	1.064364E-16
5.178031E+03	9.517679E-15	1.075739E-16
5.187969E+03	9.773256E-15	1.086880E-16
5.197908E+03	1.002947E-14	1.097293E-16
5.207847E+03	1.028065E-14	1.106448E-16
5.217785E+03	1.052114E-14	1.113867E-16
5.227724E+03	1.074506E-14	1.119101E-16
5.237663E+03	1.094699E-14	1.121796E-16
5.247601E+03	1.112203E-14	1.121696E-16
5.257540E+03	1.126591E-14	1.118645E-16
5.267479E+03	1.137605E-14	1.112673E-16
5.277417E+03	1.145079E-14	1.103913E-16
5.287356E+03	1.149035E-14	1.092677E-16
5.297295E+03	1.149633E-14	1.079386E-16
5.307233E+03	1.147192E-14	1.064584E-16
5.317172E+03	1.142180E-14	1.048915E-16
5.327110E+03	1.135141E-14	1.033048E-16
5.337049E+03	1.126727E-14	1.017707E-16
5.346988E+03	1.117614E-14	1.003594E-16
5.356926E+03	1.108481E-14	9.913791E-17
5.366865E+03	1.099957E-14	9.816543E-17
5.376804E+03	1.092554E-14	9.748031E-17
5.386742E+03	1.086618E-14	9.710057E-17
5.396681E+03	1.082154E-14	9.701380E-17
5.406620E+03	1.078866E-14	9.718076E-17
5.416558E+03	1.076384E-14	9.755570E-17
5.426497E+03	1.074281E-14	9.808705E-17
5.436435E+03	1.072089E-14	9.871887E-17
5.446374E+03	1.069363E-14	9.939575E-17
5.456313E+03	1.065706E-14	1.000657E-16
5.466251E+03	1.060763E-14	1.006788E-16
5.476190E+03	1.054254E-14	1.011914E-16
5.486129E+03	1.046007E-14	1.015693E-16
5.496067E+03	1.035929E-14	1.017855E-16
5.506006E+03	1.024010E-14	1.018214E-16
5.515945E+03	1.010340E-14	1.016695E-16
5.525883E+03	9.950665E-15	1.013290E-16
5.535822E+03	9.784104E-15	1.008086E-16
5.545760E+03	9.606487E-15	1.001248E-16
5.555699E+03	9.420741E-15	9.929823E-17
5.565638E+03	9.229973E-15	9.835399E-17
5.575576E+03	9.037635E-15	9.732322E-17
5.585515E+03	8.846853E-15	9.623603E-17
5.595454E+03	8.660594E-15	9.512292E-17
5.605392E+03	8.481884E-15	9.401698E-17
5.615331E+03	8.313124E-15	9.294600E-17
5.625270E+03	8.156678E-15	9.193864E-17
5.635208E+03	8.014508E-15	9.102002E-17
5.645147E+03	7.888243E-15	9.021212E-17
5.655086E+03	7.779131E-15	8.953291E-17
5.665024E+03	7.688354E-15	8.899973E-17
5.674963E+03	7.616470E-15	8.862253E-17
5.684901E+03	7.563997E-15	8.841049E-17
5.694840E+03	7.530987E-15	8.836682E-17
5.704779E+03	7.517484E-15	8.849399E-17
5.714717E+03	7.522984E-15	8.878737E-17
5.724656E+03	7.546673E-15	8.923786E-17
5.734595E+03	7.587682E-15	8.983491E-17
5.744533E+03	7.644582E-15	9.056063E-17
5.754472E+03	7.715675E-15	9.139319E-17
5.764411E+03	7.798933E-15	9.230635E-17
5.774349E+03	7.892078E-15	9.327045E-17
5.784288E+03	7.992344E-15	9.424985E-17
5.794226E+03	8.096867E-15	9.520781E-17
5.804165E+03	8.202438E-15	9.610385E-17
5.814104E+03	8.305708E-15	9.689644E-17
5.824042E+03	8.403118E-15	9.754254E-17
5.833981E+03	8.491419E-15	9.800397E-17
5.843920E+03	8.567286E-15	9.824312E-17
5.853858E+03	8.627493E-15	9.822530E-17
5.863797E+03	8.669348E-15	9.792384E-17
5.873736E+03	8.690480E-15	9.731770E-17
5.883674E+03	8.689138E-15	9.639481E-17
5.893613E+03	8.663937E-15	9.514907E-17
5.903551E+03	8.614317E-15	9.358528E-17
5.913490E+03	8.540350E-15	9.171653E-17
5.923429E+03	8.442534E-15	8.956158E-17
5.933367E+03	8.322154E-15	8.714837E-17
5.943306E+03	8.181008E-15	8.451040E-17
5.953245E+03	8.021130E-15	8.168346E-17
5.963183E+03	7.845203E-15	7.870940E-17
5.973122E+03	7.655961E-15	7.562948E-17
5.983061E+03	7.456283E-15	7.248513E-17
5.992999E+03	7.249198E-15	6.931761E-17
6.002938E+03	7.037726E-15	6.616627E-17
6.012877E+03	6.824591E-15	6.306574E-17
6.022815E+03	6.612747E-15	6.005089E-17
6.032754E+03	6.404579E-15	5.714942E-17
6.042692E+03	6.202445E-15	5.438708E-17
6.052631E+03	6.008532E-15	5.178647E-17
6.062570E+03	5.824461E-15	4.936391E-17
6.072508E+03	5.651990E-15	4.713582E-17
6.082447E+03	5.492394E-15	4.511369E-17
6.092386E+03	5.346777E-15	4.330712E-17
6.102324E+03	5.215940E-15	4.172301E-17
6.112263E+03	5.100524E-15	4.036711E-17
6.122202E+03	5.000886E-15	3.924323E-17
6.132140E+03	4.917236E-15	3.835464E-17
6.142079E+03	4.849449E-15	3.770271E-17
6.152017E+03	4.797198E-15	3.728814E-17
6.161956E+03	4.760154E-15	3.711244E-17
6.171895E+03	4.737471E-15	3.717389E-17
6.181833E+03	4.728436E-15	3.746993E-17
6.191772E+03	4.731898E-15	3.799010E-17
6.201711E+03	4.746732E-15	3.872394E-17
6.211649E+03	4.771539E-15	3.965886E-17
6.221588E+03	4.804867E-15	4.078166E-17
6.231527E+03	4.845053E-15	4.207684E-17
6.241465E+03	4.890676E-15	4.353023E-17
6.251404E+03	4.940080E-15	4.512464E-17
6.261342E+03	4.991839E-15	4.684383E-17
6.271281E+03	5.044633E-15	4.867137E-17
6.281220E+03	5.097451E-15	5.059267E-17
6.291158E+03	5.149591E-15	5.259535E-17
6.301097E+03	5.200556E-15	5.466853E-17
6.311036E+03	5.250450E-15	5.680740E-17
6.320974E+03	5.299446E-15	5.900821E-17
6.330913E+03	5.348328E-15	6.127468E-17
6.340852E+03	5.397924E-15	6.361225E-17
6.350790E+03	5.448984E-15	6.602680E-17
6.360729E+03	5.502260E-15	6.852548E-17
6.370667E+03	5.557821E-15	7.110795E-17
6.380606E+03	5.615689E-15	7.377361E-17
6.390545E+03	5.674878E-15	7.650849E-17
6.400483E+03	5.734423E-15	7.929771E-17
6.410422E+03	5.792711E-15	8.211603E-17
6.420361E+03	5.848373E-15	8.493959E-17
6.430299E+03	5.899869E-15	8.774025E-17
6.440238E+03	5.945723E-15	9.048877E-17
6.450177E+03	5.984572E-15	9.315571E-17
6.460115E+03	6.015196E-15	9.571221E-17
6.470054E+03	6.036458E-15	9.812918E-17
6.479993E+03	6.047691E-15	1.003839E-16
6.489931E+03	6.048068E-15	1.024504E-16
6.499870E+03	6.037257E-15	1.043102E-16
6.509808E+03	6.014966E-15	1.059454E-16
6.519747E+03	5.981212E-15	1.073435E-16
6.529686E+03	5.936324E-15	1.084980E-16
6.539624E+03	5.880552E-15	1.094019E-16
6.549563E+03	5.814518E-15	1.100555E-16
6.559502E+03	5.739095E-15	1.104653E-16
6.569440E+03	5.655198E-15	1.106401E-16
6.579379E+03	5.563674E-15	1.105887E-16
6.589318E+03	5.465800E-15	1.103299E-16
6.599256E+03	5.362548E-15	1.098781E-16
6.609195E+03	5.255254E-15	1.092568E-16
6.619133E+03	5.144815E-15	1.084819E-16
6.629072E+03	5.032600E-15	1.075808E-16
6.639011E+03	4.919503E-15	1.065722E-16
6.648949E+03	4.806592E-15	1.054798E-16
6.658888E+03	4.694610E-15	1.043214E-16
6.668827E+03	4.584595E-15	1.031224E-16
6.678765E+03	4.477024E-15	1.018962E-16
6.688704E+03	4.372650E-15	1.006635E-16
6.698643E+03	4.271972E-15	9.943968E-17
6.708581E+03	4.175254E-15	9.823491E-17
6.718520E+03	4.082949E-15	9.706422E-17
6.728458E+03	3.995215E-15	9.593581E-17
6.738397E+03	3.912269E-15	9.485939E-17
6.748336E+03	3.834058E-15	9.383812E-17
6.758274E+03	3.760729E-15	9.287999E-17
6.768213E+03	3.692245E-15	9.198829E-17
6.778152E+03	3.628459E-15	9.116343E-17
6.788090E+03	3.569249E-15	9.040623E-17
6.798029E+03	3.514463E-15	8.971644E-17
6.807968E+03	3.464041E-15	8.909595E-17
6.817906E+03	3.417604E-15	8.853816E-17
6.827845E+03	3.375059E-15	8.804354E-17
6.837784E+03	3.336183E-15	8.760899E-17
6.847722E+03	3.300691E-15	8.722938E-17
6.857661E+03	3.268413E-15	8.690246E-17
6.867599E+03	3.239123E-15	8.662417E-17
6.877538E+03	3.212546E-15	8.638891E-17
6.887477E+03	3.188527E-15	8.619406E-17
6.897415E+03	3.166865E-15	8.603560E-17
6.907354E+03	3.147314E-15	8.590805E-17
6.917293E+03	3.129813E-15	8.581079E-17
6.927231E+03	3.114083E-15	8.573717E-17
6.937170E+03	3.100091E-15	8.568703E-17
6.947109E+03	3.087588E-15	8.565420E-17
6.957047E+03	3.076565E-15	8.563903E-17
6.966986E+03	3.066796E-15	8.563577E-17
6.976924E+03	3.058295E-15	8.564525E-17
6.986863E+03	3.050912E-15	8.566361E-17
6.996802E+03	3.044563E-15	8.568880E-17
7.006740E+03	3.039222E-15	8.572039E-17
7.016679E+03	3.034757E-15	8.575479E-17
7.026618E+03	3.031090E-15	8.579000E-17
7.036556E+03	3.028203E-15	8.582561E-17
7.046495E+03	3.026021E-15	8.585956E-17
7.056434E+03	3.024404E-15	8.588793E-17
7.066372E+03	3.023331E-15	8.591013E-17
7.076311E+03	3.022716E-15	8.592370E-17
7.086249E+03	3.022472E-15	8.592617E-17
7.096188E+03	3.022449E-15	8.591319E-17
7.106127E+03	3.022673E-15	8.588549E-17
7.116065E+03	3.022989E-15	8.583862E-17
7.126004E+03	3.023303E-15	8.576980E-17
7.135943E+03	3.023576E-15	8.567794E-17
7.145881E+03	3.023651E-15	8.555855E-17
7.155820E+03	3.023429E-15	8.540881E-17
7.165759E+03	3.022935E-15	8.522948E-17
7.175697E+03	3.021885E-15	8.501260E-17
7.185636E+03	3.020368E-15	8.476078E-17
7.195575E+03	3.018227E-15	8.446972E-17
7.205513E+03	3.015303E-15	8.413522E-17
7.215452E+03	3.011569E-15	8.375674E-17
7.225390E+03	3.007001E-15	8.333395E-17
7.235329E+03	3.001455E-15	8.286323E-17
7.245268E+03	2.994795E-15	8.234126E-17
7.255206E+03	2.987084E-15	8.177034E-17
7.265145E+03	2.978207E-15	8.114793E-17
7.275084E+03	2.968130E-15	8.047371E-17
7.285022E+03	2.956894E-15	7.974959E-17
7.294961E+03	2.944305E-15	7.897113E-17
7.304900E+03	2.930572E-15	7.814482E-17
7.314838E+03	2.915604E-15	7.726914E-17
7.324777E+03	2.899458E-15	7.634659E-17
7.334715E+03	2.882212E-15	7.538022E-17
7.344654E+03	2.863898E-15	7.437192E-17
7.354593E+03	2.844632E-15	7.332573E-17
7.364531E+03	2.824546E-15	7.224607E-17
7.374470E+03	2.803718E-15	7.113596E-17
7.384409E+03	2.782304E-15	7.000033E-17
7.394347E+03	2.760404E-15	6.884260E-17
7.404286E+03	2.738372E-15	6.767242E-17
7.414225E+03	2.716246E-15	6.649143E-17
7.424163E+03	2.694312E-15	6.530725E-17
7.434102E+03	2.672726E-15	6.412405E-17
7.444040E+03	2.651692E-15	6.294704E-17
7.453979E+03	2.631278E-15	6.177805E-17
7.463918E+03	2.611665E-15	6.062135E-17
7.473856E+03	2.593012E-15	5.948060E-17
7.483795E+03	2.575281E-15	5.835472E-17
7.493734E+03	2.558719E-15	5.724909E-17
7.503672E+03	2.543252E-15	5.616165E-17
7.513611E+03	2.528910E-15	5.509268E-17
7.523550E+03	2.515828E-15	5.404468E-17
7.533488E+03	2.503882E-15	5.301445E-17
7.543427E+03	2.493055E-15	5.200122E-17
7.553366E+03	2.483444E-15	5.100648E-17
7.563304E+03	2.474888E-15	5.002645E-17
7.573243E+03	2.467339E-15	4.905981E-17
7.583181E+03	2.460810E-15	4.810643E-17
7.593120E+03	2.455244E-15	4.716493E-17
7.603059E+03	2.450524E-15	4.623285E-17
7.612997E+03	2.446654E-15	4.531018E-17
7.622936E+03	2.443580E-15	4.439590E-17
7.632875E+03	2.441129E-15	4.348698E-17
7.642813E+03	2.439436E-15	4.258613E-17
7.652752E+03	2.438273E-15	4.168972E-17
7.662691E+03	2.437784E-15	4.080079E-17
7.672629E+03	2.437746E-15	3.991627E-17
7.682568E+03	2.438308E-15	3.903950E-17
7.692506E+03	2.439307E-15	3.816888E-17
7.702445E+03	2.440699E-15	3.730509E-17
7.712384E+03	2.442563E-15	3.645085E-17
