#wls	flux	fluxerr
1.590182E+03	2.108427E-15	1.399798E-16
1.629937E+03	1.692967E-15	1.107323E-16
1.669691E+03	1.341270E-15	8.640665E-17
1.709446E+03	1.049055E-15	6.654657E-17
1.749200E+03	8.106928E-16	5.062639E-17
1.788955E+03	6.191318E-16	3.805408E-17
1.828710E+03	4.673342E-16	2.826544E-17
1.868464E+03	3.487331E-16	2.075169E-17
1.908219E+03	2.573395E-16	1.506371E-17
1.947973E+03	1.880392E-16	1.082642E-17
1.987728E+03	1.365450E-16	7.731843E-18
2.027482E+03	9.934976E-17	5.532488E-18
2.067237E+03	7.357734E-17	4.029373E-18
2.106991E+03	5.674498E-17	3.056138E-18
2.146746E+03	4.678447E-17	2.478179E-18
2.186501E+03	4.202644E-17	2.189752E-18
2.226255E+03	4.140224E-17	2.122353E-18
2.266010E+03	4.455521E-17	2.247565E-18
2.305764E+03	5.177330E-17	2.570635E-18
2.345519E+03	6.405611E-17	3.131242E-18
2.385273E+03	8.329374E-17	4.009452E-18
2.425028E+03	1.124897E-16	5.333148E-18
2.464782E+03	1.559856E-16	7.284846E-18
2.504537E+03	2.195692E-16	1.010238E-17
2.544292E+03	3.102277E-16	1.406318E-17
2.584046E+03	4.352901E-16	1.944246E-17
2.623801E+03	6.009992E-16	2.644948E-17
2.663555E+03	8.113523E-16	3.518108E-17
2.703310E+03	1.066952E-15	4.557957E-17
2.743064E+03	1.363973E-15	5.739993E-17
2.782819E+03	1.693350E-15	7.018958E-17
2.822573E+03	2.040989E-15	8.331314E-17
2.862328E+03	2.389462E-15	9.603612E-17
2.902083E+03	2.720549E-15	1.076358E-16
2.941837E+03	3.018801E-15	1.175425E-16
2.981592E+03	3.272659E-15	1.253745E-16
2.991530E+03	3.328366E-15	1.269867E-16
3.001469E+03	3.380801E-15	1.284571E-16
3.011408E+03	3.429988E-15	1.297880E-16
3.021346E+03	3.475917E-15	1.309807E-16
3.031285E+03	3.518839E-15	1.320461E-16
3.041223E+03	3.558587E-15	1.329794E-16
3.051162E+03	3.595802E-15	1.338060E-16
3.061101E+03	3.630343E-15	1.345217E-16
3.071039E+03	3.662339E-15	1.351327E-16
3.080978E+03	3.691693E-15	1.356366E-16
3.090917E+03	3.718571E-15	1.360407E-16
3.100855E+03	3.742904E-15	1.363437E-16
3.110794E+03	3.764890E-15	1.365539E-16
3.120733E+03	3.784496E-15	1.366712E-16
3.130671E+03	3.801862E-15	1.367015E-16
3.140610E+03	3.817140E-15	1.366513E-16
3.150549E+03	3.830336E-15	1.365215E-16
3.160487E+03	3.841702E-15	1.363220E-16
3.170426E+03	3.851339E-15	1.360572E-16
3.180364E+03	3.859354E-15	1.357314E-16
3.190303E+03	3.865945E-15	1.353522E-16
3.200242E+03	3.871229E-15	1.349244E-16
3.210180E+03	3.875406E-15	1.344553E-16
3.220119E+03	3.878606E-15	1.339499E-16
3.230058E+03	3.880967E-15	1.334132E-16
3.239996E+03	3.882693E-15	1.328526E-16
3.249935E+03	3.883984E-15	1.322750E-16
3.259874E+03	3.884916E-15	1.316832E-16
3.269812E+03	3.885628E-15	1.310820E-16
3.279751E+03	3.886386E-15	1.304802E-16
3.289689E+03	3.887270E-15	1.298805E-16
3.299628E+03	3.888476E-15	1.292893E-16
3.309567E+03	3.890140E-15	1.287107E-16
3.319505E+03	3.892342E-15	1.281472E-16
3.329444E+03	3.895277E-15	1.276048E-16
3.339383E+03	3.899138E-15	1.270893E-16
3.349321E+03	3.903943E-15	1.266009E-16
3.359260E+03	3.909882E-15	1.261451E-16
3.369199E+03	3.917088E-15	1.257256E-16
3.379137E+03	3.925691E-15	1.253457E-16
3.389076E+03	3.935716E-15	1.250057E-16
3.399014E+03	3.947402E-15	1.247121E-16
3.408953E+03	3.960777E-15	1.244651E-16
3.418892E+03	3.975927E-15	1.242663E-16
3.428830E+03	3.993035E-15	1.241205E-16
3.438769E+03	4.012099E-15	1.240266E-16
3.448708E+03	4.033268E-15	1.239880E-16
3.458646E+03	4.056646E-15	1.240069E-16
3.468585E+03	4.082319E-15	1.240845E-16
3.478524E+03	4.110387E-15	1.242227E-16
3.488462E+03	4.140969E-15	1.244238E-16
3.498401E+03	4.174047E-15	1.246856E-16
3.508340E+03	4.209805E-15	1.250122E-16
3.518278E+03	4.248304E-15	1.254037E-16
3.528217E+03	4.289517E-15	1.258575E-16
3.538155E+03	4.333482E-15	1.263730E-16
3.548094E+03	4.380297E-15	1.269513E-16
3.558033E+03	4.429920E-15	1.275893E-16
3.567971E+03	4.482383E-15	1.282862E-16
3.577910E+03	4.537748E-15	1.290418E-16
3.587849E+03	4.596050E-15	1.298552E-16
3.597787E+03	4.657545E-15	1.307315E-16
3.607726E+03	4.722386E-15	1.316731E-16
3.617665E+03	4.790923E-15	1.326872E-16
3.627603E+03	4.863359E-15	1.337771E-16
3.637542E+03	4.939974E-15	1.349478E-16
3.647480E+03	5.021103E-15	1.362055E-16
3.657419E+03	5.106976E-15	1.375535E-16
3.667358E+03	5.197951E-15	1.389981E-16
3.677296E+03	5.294242E-15	1.405416E-16
3.687235E+03	5.396094E-15	1.421868E-16
3.697174E+03	5.503831E-15	1.439385E-16
3.707112E+03	5.617661E-15	1.457980E-16
3.717051E+03	5.737833E-15	1.477675E-16
3.726990E+03	5.864504E-15	1.498467E-16
3.736928E+03	5.997865E-15	1.520359E-16
3.746867E+03	6.138075E-15	1.543343E-16
3.756805E+03	6.285152E-15	1.567377E-16
3.766744E+03	6.439283E-15	1.592457E-16
3.776683E+03	6.600455E-15	1.618529E-16
3.786621E+03	6.768612E-15	1.645528E-16
3.796560E+03	6.943754E-15	1.673405E-16
3.806499E+03	7.125718E-15	1.702067E-16
3.816437E+03	7.314353E-15	1.731430E-16
3.826376E+03	7.509376E-15	1.761375E-16
3.836315E+03	7.710570E-15	1.791805E-16
3.846253E+03	7.917550E-15	1.822583E-16
3.856192E+03	8.129915E-15	1.853573E-16
3.866131E+03	8.347223E-15	1.884633E-16
3.876069E+03	8.568899E-15	1.915596E-16
3.886008E+03	8.794397E-15	1.946304E-16
3.895946E+03	9.023102E-15	1.976593E-16
3.905885E+03	9.254375E-15	2.006296E-16
3.915824E+03	9.487384E-15	2.035213E-16
3.925762E+03	9.721559E-15	2.063209E-16
3.935701E+03	9.955933E-15	2.090068E-16
3.945640E+03	1.018991E-14	2.115662E-16
3.955578E+03	1.042255E-14	2.139804E-16
3.965517E+03	1.065311E-14	2.162347E-16
3.975456E+03	1.088072E-14	2.183136E-16
3.985394E+03	1.110472E-14	2.202062E-16
3.995333E+03	1.132413E-14	2.218962E-16
4.005271E+03	1.153842E-14	2.233770E-16
4.015210E+03	1.174666E-14	2.246351E-16
4.025149E+03	1.194830E-14	2.256654E-16
4.035087E+03	1.214266E-14	2.264607E-16
4.045026E+03	1.232920E-14	2.270175E-16
4.054965E+03	1.250713E-14	2.273284E-16
4.064903E+03	1.267621E-14	2.273965E-16
4.074842E+03	1.283583E-14	2.272193E-16
4.084781E+03	1.298557E-14	2.267976E-16
4.094719E+03	1.312512E-14	2.261356E-16
4.104658E+03	1.325413E-14	2.252366E-16
4.114596E+03	1.337231E-14	2.241057E-16
4.124535E+03	1.347961E-14	2.227524E-16
4.134474E+03	1.357562E-14	2.211803E-16
4.144412E+03	1.366038E-14	2.194010E-16
4.154351E+03	1.373377E-14	2.174234E-16
4.164290E+03	1.379569E-14	2.152575E-16
4.174228E+03	1.384631E-14	2.129169E-16
4.184167E+03	1.388549E-14	2.104111E-16
4.194106E+03	1.391348E-14	2.077549E-16
4.204044E+03	1.393021E-14	2.049588E-16
4.213983E+03	1.393608E-14	2.020401E-16
4.223922E+03	1.393119E-14	1.990112E-16
4.233860E+03	1.391580E-14	1.958869E-16
4.243799E+03	1.389019E-14	1.926818E-16
4.253737E+03	1.385479E-14	1.894121E-16
4.263676E+03	1.380994E-14	1.860929E-16
4.273615E+03	1.375615E-14	1.827407E-16
4.283553E+03	1.369377E-14	1.793691E-16
4.293492E+03	1.362362E-14	1.759978E-16
4.303431E+03	1.354605E-14	1.726392E-16
4.313369E+03	1.346179E-14	1.693104E-16
4.323308E+03	1.337168E-14	1.660286E-16
4.333247E+03	1.327635E-14	1.628076E-16
4.343185E+03	1.317696E-14	1.596667E-16
4.353124E+03	1.307462E-14	1.566232E-16
4.363062E+03	1.297060E-14	1.536953E-16
4.373001E+03	1.286627E-14	1.509018E-16
4.382940E+03	1.276287E-14	1.482585E-16
4.392878E+03	1.266164E-14	1.457805E-16
4.402817E+03	1.256373E-14	1.434811E-16
4.412756E+03	1.247031E-14	1.413733E-16
4.422694E+03	1.238228E-14	1.394662E-16
4.432633E+03	1.230050E-14	1.377681E-16
4.442572E+03	1.222601E-14	1.362854E-16
4.452510E+03	1.215902E-14	1.350118E-16
4.462449E+03	1.209950E-14	1.339383E-16
4.472387E+03	1.204680E-14	1.330492E-16
4.482326E+03	1.200035E-14	1.323302E-16
4.492265E+03	1.195933E-14	1.317643E-16
4.502203E+03	1.192308E-14	1.313366E-16
4.512142E+03	1.189074E-14	1.310300E-16
4.522081E+03	1.186151E-14	1.308285E-16
4.532019E+03	1.183469E-14	1.307174E-16
4.541958E+03	1.180940E-14	1.306799E-16
4.551897E+03	1.178509E-14	1.307030E-16
4.561835E+03	1.176083E-14	1.307698E-16
4.571774E+03	1.173604E-14	1.308673E-16
4.581713E+03	1.171011E-14	1.309824E-16
4.591651E+03	1.168251E-14	1.311027E-16
4.601590E+03	1.165275E-14	1.312169E-16
4.611528E+03	1.162046E-14	1.313149E-16
4.621467E+03	1.158513E-14	1.313853E-16
4.631406E+03	1.154665E-14	1.314214E-16
4.641344E+03	1.150490E-14	1.314167E-16
4.651283E+03	1.145953E-14	1.313623E-16
4.661222E+03	1.141067E-14	1.312553E-16
4.671160E+03	1.135835E-14	1.310916E-16
4.681099E+03	1.130294E-14	1.308716E-16
4.691038E+03	1.124488E-14	1.305969E-16
4.700976E+03	1.118456E-14	1.302686E-16
4.710915E+03	1.112252E-14	1.298902E-16
4.720853E+03	1.105903E-14	1.294623E-16
4.730792E+03	1.099468E-14	1.289897E-16
4.740731E+03	1.092988E-14	1.284751E-16
4.750669E+03	1.086517E-14	1.279232E-16
4.760608E+03	1.080096E-14	1.273375E-16
4.770547E+03	1.073779E-14	1.267231E-16
4.780485E+03	1.067616E-14	1.260849E-16
4.790424E+03	1.061629E-14	1.254247E-16
4.800363E+03	1.055877E-14	1.247486E-16
4.810301E+03	1.050385E-14	1.240592E-16
4.820240E+03	1.045208E-14	1.233624E-16
4.830178E+03	1.040351E-14	1.226584E-16
4.840117E+03	1.035870E-14	1.219534E-16
4.850056E+03	1.031785E-14	1.212494E-16
4.859994E+03	1.028111E-14	1.205477E-16
4.869933E+03	1.024881E-14	1.198519E-16
4.879872E+03	1.022114E-14	1.191639E-16
4.889810E+03	1.019828E-14	1.184853E-16
4.899749E+03	1.018030E-14	1.178164E-16
4.909688E+03	1.016744E-14	1.171594E-16
4.919626E+03	1.015980E-14	1.165149E-16
4.929565E+03	1.015729E-14	1.158813E-16
4.939504E+03	1.016026E-14	1.152618E-16
4.949442E+03	1.016850E-14	1.146532E-16
4.959381E+03	1.018221E-14	1.140570E-16
4.969319E+03	1.020132E-14	1.134716E-16
4.979258E+03	1.022580E-14	1.128957E-16
4.989197E+03	1.025555E-14	1.123272E-16
4.999135E+03	1.029069E-14	1.117665E-16
5.009074E+03	1.033094E-14	1.112098E-16
5.019013E+03	1.037620E-14	1.106551E-16
5.028951E+03	1.042645E-14	1.101012E-16
5.038890E+03	1.048152E-14	1.095457E-16
5.048829E+03	1.054103E-14	1.089840E-16
5.058767E+03	1.060498E-14	1.084157E-16
5.068706E+03	1.067292E-14	1.078359E-16
5.078644E+03	1.074470E-14	1.072431E-16
5.088583E+03	1.082002E-14	1.066345E-16
5.098522E+03	1.089859E-14	1.060078E-16
5.108460E+03	1.097996E-14	1.053597E-16
5.118399E+03	1.106381E-14	1.046882E-16
5.128338E+03	1.114974E-14	1.039917E-16
5.138276E+03	1.123740E-14	1.032690E-16
5.148215E+03	1.132640E-14	1.025194E-16
5.158154E+03	1.141636E-14	1.017431E-16
5.168092E+03	1.150691E-14	1.009405E-16
5.178031E+03	1.159754E-14	1.001123E-16
5.187969E+03	1.168789E-14	9.926071E-17
5.197908E+03	1.177772E-14	9.838988E-17
5.207847E+03	1.186658E-14	9.750303E-17
5.217785E+03	1.195414E-14	9.660521E-17
5.227724E+03	1.204000E-14	9.570169E-17
5.237663E+03	1.212410E-14	9.480136E-17
5.247601E+03	1.220597E-14	9.391050E-17
5.257540E+03	1.228549E-14	9.303895E-17
5.267479E+03	1.236243E-14	9.219650E-17
5.277417E+03	1.243638E-14	9.139197E-17
5.287356E+03	1.250737E-14	9.063826E-17
5.297295E+03	1.257513E-14	8.994624E-17
5.307233E+03	1.263951E-14	8.932788E-17
5.317172E+03	1.270034E-14	8.879522E-17
5.327110E+03	1.275751E-14	8.836039E-17
5.337049E+03	1.281079E-14	8.803433E-17
5.346988E+03	1.286025E-14	8.782931E-17
5.356926E+03	1.290574E-14	8.775529E-17
5.366865E+03	1.294749E-14	8.782302E-17
5.376804E+03	1.298549E-14	8.803334E-17
5.386742E+03	1.301967E-14	8.837925E-17
5.396681E+03	1.304869E-14	8.884356E-17
5.406620E+03	1.307098E-14	8.940586E-17
5.416558E+03	1.308498E-14	9.004434E-17
5.426497E+03	1.309030E-14	9.074395E-17
5.436435E+03	1.308693E-14	9.149167E-17
5.446374E+03	1.307509E-14	9.227549E-17
5.456313E+03	1.305473E-14	9.308133E-17
5.466251E+03	1.302623E-14	9.389815E-17
5.476190E+03	1.299002E-14	9.471559E-17
5.486129E+03	1.294664E-14	9.552448E-17
5.496067E+03	1.289664E-14	9.631651E-17
5.506006E+03	1.284048E-14	9.708333E-17
5.515945E+03	1.277864E-14	9.781748E-17
5.525883E+03	1.271200E-14	9.851547E-17
5.535822E+03	1.264088E-14	9.917052E-17
5.545760E+03	1.256588E-14	9.977885E-17
5.555699E+03	1.248758E-14	1.003373E-16
5.565638E+03	1.240665E-14	1.008445E-16
5.575576E+03	1.232334E-14	1.012965E-16
5.585515E+03	1.223830E-14	1.016932E-16
5.595454E+03	1.215194E-14	1.020336E-16
5.605392E+03	1.206458E-14	1.023164E-16
5.615331E+03	1.197672E-14	1.025425E-16
5.625270E+03	1.188856E-14	1.027109E-16
5.635208E+03	1.180051E-14	1.028229E-16
5.645147E+03	1.171257E-14	1.028767E-16
5.655086E+03	1.162517E-14	1.028747E-16
5.665024E+03	1.153847E-14	1.028170E-16
5.674963E+03	1.145230E-14	1.027018E-16
5.684901E+03	1.136696E-14	1.025312E-16
5.694840E+03	1.128231E-14	1.023037E-16
5.704779E+03	1.119841E-14	1.020200E-16
5.714717E+03	1.111505E-14	1.016785E-16
5.724656E+03	1.103207E-14	1.012782E-16
5.734595E+03	1.094941E-14	1.008193E-16
5.744533E+03	1.086684E-14	1.003005E-16
5.754472E+03	1.078397E-14	9.971932E-17
5.764411E+03	1.070066E-14	9.907561E-17
5.774349E+03	1.061673E-14	9.836905E-17
5.784288E+03	1.053161E-14	9.759613E-17
5.794226E+03	1.044512E-14	9.675690E-17
5.804165E+03	1.035705E-14	9.585147E-17
5.814104E+03	1.026698E-14	9.487818E-17
5.824042E+03	1.017476E-14	9.383810E-17
5.833981E+03	1.008011E-14	9.273143E-17
5.843920E+03	9.982833E-15	9.155914E-17
5.853858E+03	9.882619E-15	9.032173E-17
5.863797E+03	9.779567E-15	8.902350E-17
5.873736E+03	9.673600E-15	8.766739E-17
5.883674E+03	9.564585E-15	8.625609E-17
5.893613E+03	9.452664E-15	8.479501E-17
5.903551E+03	9.337951E-15	8.328943E-17
5.913490E+03	9.220702E-15	8.174610E-17
5.923429E+03	9.100932E-15	8.016978E-17
5.933367E+03	8.979239E-15	7.857045E-17
5.943306E+03	8.855848E-15	7.695489E-17
5.953245E+03	8.731132E-15	7.533121E-17
5.963183E+03	8.605625E-15	7.370890E-17
5.973122E+03	8.479772E-15	7.209668E-17
5.983061E+03	8.354063E-15	7.050358E-17
5.992999E+03	8.228981E-15	6.893850E-17
6.002938E+03	8.105243E-15	6.741220E-17
6.012877E+03	7.983349E-15	6.593348E-17
6.022815E+03	7.863702E-15	6.451024E-17
6.032754E+03	7.746975E-15	6.315245E-17
6.042692E+03	7.633626E-15	6.186816E-17
6.052631E+03	7.524097E-15	6.066518E-17
6.062570E+03	7.418968E-15	5.955229E-17
6.072508E+03	7.318405E-15	5.853477E-17
6.082447E+03	7.222926E-15	5.762066E-17
6.092386E+03	7.132790E-15	5.681574E-17
6.102324E+03	7.048230E-15	5.612549E-17
6.112263E+03	6.969435E-15	5.555487E-17
6.122202E+03	6.896426E-15	5.510743E-17
6.132140E+03	6.829398E-15	5.478787E-17
6.142079E+03	6.768293E-15	5.459876E-17
6.152017E+03	6.713364E-15	5.454496E-17
6.161956E+03	6.664386E-15	5.462557E-17
6.171895E+03	6.621511E-15	5.483892E-17
6.181833E+03	6.584421E-15	5.517897E-17
6.191772E+03	6.552921E-15	5.564077E-17
6.201711E+03	6.526874E-15	5.621997E-17
6.211649E+03	6.505907E-15	5.691029E-17
6.221588E+03	6.489716E-15	5.770614E-17
6.231527E+03	6.478043E-15	5.860238E-17
6.241465E+03	6.470323E-15	5.959124E-17
6.251404E+03	6.466327E-15	6.066793E-17
6.261342E+03	6.465544E-15	6.182513E-17
6.271281E+03	6.467593E-15	6.305665E-17
6.281220E+03	6.471915E-15	6.435453E-17
6.291158E+03	6.478223E-15	6.571333E-17
6.301097E+03	6.486041E-15	6.712566E-17
6.311036E+03	6.495008E-15	6.858518E-17
6.320974E+03	6.504705E-15	7.008479E-17
6.330913E+03	6.514965E-15	7.161997E-17
6.340852E+03	6.525396E-15	7.318371E-17
6.350790E+03	6.536003E-15	7.477336E-17
6.360729E+03	6.546769E-15	7.638614E-17
6.370667E+03	6.557239E-15	7.801422E-17
6.380606E+03	6.567002E-15	7.964998E-17
6.390545E+03	6.575182E-15	8.127984E-17
6.400483E+03	6.581432E-15	8.289613E-17
6.410422E+03	6.585087E-15	8.448692E-17
6.420361E+03	6.585971E-15	8.604613E-17
6.430299E+03	6.583686E-15	8.756469E-17
6.440238E+03	6.577993E-15	8.903538E-17
6.450177E+03	6.568907E-15	9.045437E-17
6.460115E+03	6.556270E-15	9.181553E-17
6.470054E+03	6.539860E-15	9.311180E-17
6.479993E+03	6.519791E-15	9.434085E-17
6.489931E+03	6.496110E-15	9.549958E-17
6.499870E+03	6.468665E-15	9.658211E-17
6.509808E+03	6.437746E-15	9.758924E-17
6.519747E+03	6.403261E-15	9.851621E-17
6.529686E+03	6.365329E-15	9.936164E-17
6.539624E+03	6.324193E-15	1.001263E-16
6.549563E+03	6.279926E-15	1.008086E-16
6.559502E+03	6.232699E-15	1.014087E-16
6.569440E+03	6.182804E-15	1.019290E-16
6.579379E+03	6.130248E-15	1.023675E-16
6.589318E+03	6.075455E-15	1.027293E-16
6.599256E+03	6.018542E-15	1.030148E-16
6.609195E+03	5.959646E-15	1.032249E-16
6.619133E+03	5.899212E-15	1.033662E-16
6.629072E+03	5.837269E-15	1.034381E-16
6.639011E+03	5.774265E-15	1.034478E-16
6.648949E+03	5.710238E-15	1.033956E-16
6.658888E+03	5.645617E-15	1.032887E-16
6.668827E+03	5.580532E-15	1.031295E-16
6.678765E+03	5.515109E-15	1.029203E-16
6.688704E+03	5.449748E-15	1.026687E-16
6.698643E+03	5.384553E-15	1.023771E-16
6.708581E+03	5.319711E-15	1.020496E-16
6.718520E+03	5.255398E-15	1.016900E-16
6.728458E+03	5.191775E-15	1.013021E-16
6.738397E+03	5.129078E-15	1.008915E-16
6.748336E+03	5.067259E-15	1.004580E-16
6.758274E+03	5.006616E-15	1.000084E-16
6.768213E+03	4.947162E-15	9.954409E-17
6.778152E+03	4.888987E-15	9.906777E-17
6.788090E+03	4.832253E-15	9.858383E-17
6.798029E+03	4.776934E-15	9.809280E-17
6.807968E+03	4.723080E-15	9.759678E-17
6.817906E+03	4.670727E-15	9.709760E-17
6.827845E+03	4.619985E-15	9.659859E-17
6.837784E+03	4.570784E-15	9.609935E-17
6.847722E+03	4.523128E-15	9.560096E-17
6.857661E+03	4.477011E-15	9.510433E-17
6.867599E+03	4.432503E-15	9.461185E-17
6.877538E+03	4.389579E-15	9.412399E-17
6.887477E+03	4.348048E-15	9.363751E-17
6.897415E+03	4.308036E-15	9.315598E-17
6.907354E+03	4.269419E-15	9.267757E-17
6.917293E+03	4.232232E-15	9.220375E-17
6.927231E+03	4.196340E-15	9.173238E-17
6.937170E+03	4.161688E-15	9.126293E-17
6.947109E+03	4.128295E-15	9.079645E-17
6.957047E+03	4.096019E-15	9.033044E-17
6.966986E+03	4.064871E-15	8.986574E-17
6.976924E+03	4.034705E-15	8.939965E-17
6.986863E+03	4.005450E-15	8.893111E-17
6.996802E+03	3.977112E-15	8.846074E-17
7.006740E+03	3.949540E-15	8.798563E-17
7.016679E+03	3.922660E-15	8.750454E-17
7.026618E+03	3.896475E-15	8.701799E-17
7.036556E+03	3.870835E-15	8.652294E-17
7.046495E+03	3.845741E-15	8.601986E-17
7.056434E+03	3.821044E-15	8.550572E-17
7.066372E+03	3.796750E-15	8.498100E-17
7.076311E+03	3.772710E-15	8.444275E-17
7.086249E+03	3.748856E-15	8.388976E-17
7.096188E+03	3.725201E-15	8.332264E-17
7.106127E+03	3.701679E-15	8.274026E-17
7.116065E+03	3.678154E-15	8.213996E-17
7.126004E+03	3.654572E-15	8.152082E-17
7.135943E+03	3.631032E-15	8.088544E-17
7.145881E+03	3.607257E-15	8.022803E-17
7.155820E+03	3.583433E-15	7.955308E-17
7.165759E+03	3.559295E-15	7.885512E-17
7.175697E+03	3.535036E-15	7.813886E-17
7.185636E+03	3.510480E-15	7.740079E-17
7.195575E+03	3.485680E-15	7.664257E-17
7.205513E+03	3.460622E-15	7.586433E-17
7.215452E+03	3.435222E-15	7.506471E-17
7.225390E+03	3.409554E-15	7.424581E-17
7.235329E+03	3.383620E-15	7.340818E-17
7.245268E+03	3.357357E-15	7.255098E-17
7.255206E+03	3.330854E-15	7.167667E-17
7.265145E+03	3.304134E-15	7.078627E-17
7.275084E+03	3.277224E-15	6.988089E-17
7.285022E+03	3.250083E-15	6.896020E-17
7.294961E+03	3.222821E-15	6.802710E-17
7.304900E+03	3.195481E-15	6.708302E-17
7.314838E+03	3.168035E-15	6.612790E-17
7.324777E+03	3.140532E-15	6.516334E-17
7.334715E+03	3.113095E-15	6.419239E-17
7.344654E+03	3.085705E-15	6.321519E-17
7.354593E+03	3.058490E-15	6.223482E-17
7.364531E+03	3.031432E-15	6.125139E-17
7.374470E+03	3.004658E-15	6.026792E-17
7.384409E+03	2.978222E-15	5.928591E-17
7.394347E+03	2.952177E-15	5.830677E-17
7.404286E+03	2.926643E-15	5.733326E-17
7.414225E+03	2.901599E-15	5.636523E-17
7.424163E+03	2.877160E-15	5.540521E-17
7.434102E+03	2.853368E-15	5.445426E-17
7.444040E+03	2.830260E-15	5.351331E-17
7.453979E+03	2.807872E-15	5.258320E-17
7.463918E+03	2.786166E-15	5.166339E-17
7.473856E+03	2.765302E-15	5.075701E-17
7.483795E+03	2.745165E-15	4.986209E-17
7.493734E+03	2.725905E-15	4.898146E-17
7.503672E+03	2.707400E-15	4.811301E-17
7.513611E+03	2.689719E-15	4.725813E-17
7.523550E+03	2.672864E-15	4.641693E-17
7.533488E+03	2.656762E-15	4.558830E-17
7.543427E+03	2.641470E-15	4.477335E-17
7.553366E+03	2.626904E-15	4.397085E-17
7.563304E+03	2.613044E-15	4.318068E-17
7.573243E+03	2.599931E-15	4.240375E-17
7.583181E+03	2.587467E-15	4.163875E-17
7.593120E+03	2.575616E-15	4.088547E-17
7.603059E+03	2.564338E-15	4.014369E-17
7.612997E+03	2.553654E-15	3.941420E-17
7.622936E+03	2.543383E-15	3.869476E-17
7.632875E+03	2.533605E-15	3.798726E-17
7.642813E+03	2.524197E-15	3.729055E-17
7.652752E+03	2.515098E-15	3.660459E-17
7.662691E+03	2.506245E-15	3.592941E-17
7.672629E+03	2.497571E-15	3.526513E-17
7.682568E+03	2.489009E-15	3.461196E-17
7.692506E+03	2.480553E-15	3.397113E-17
7.702445E+03	2.472132E-15	3.334307E-17
7.712384E+03	2.463538E-15	3.272652E-17
