#wls	flux	fluxerr
1.590182E+03	4.254392E-16	2.628901E-17
1.629937E+03	3.746443E-16	2.290250E-17
1.669691E+03	3.288954E-16	1.988642E-17
1.709446E+03	2.881139E-16	1.722688E-17
1.749200E+03	2.520325E-16	1.489885E-17
1.788955E+03	2.202039E-16	1.286728E-17
1.828710E+03	1.921151E-16	1.109435E-17
1.868464E+03	1.673547E-16	9.549327E-18
1.908219E+03	1.454621E-16	8.199690E-18
1.947973E+03	1.261716E-16	7.024956E-18
1.987728E+03	1.094042E-16	6.015556E-18
2.027482E+03	9.534261E-17	5.176277E-18
2.067237E+03	8.440960E-17	4.524234E-18
2.106991E+03	7.718631E-17	4.083713E-18
2.146746E+03	7.407502E-17	3.868061E-18
2.186501E+03	7.516042E-17	3.873184E-18
2.226255E+03	8.025175E-17	4.080828E-18
2.266010E+03	8.905678E-17	4.468220E-18
2.305764E+03	1.013481E-16	5.016629E-18
2.345519E+03	1.170948E-16	5.717613E-18
2.385273E+03	1.365055E-16	6.574392E-18
2.425028E+03	1.598953E-16	7.594745E-18
2.464782E+03	1.876958E-16	8.791125E-18
2.504537E+03	2.202042E-16	1.016869E-17
2.544292E+03	2.576492E-16	1.172874E-17
2.584046E+03	2.998490E-16	1.345362E-17
2.623801E+03	3.463623E-16	1.531473E-17
2.663555E+03	3.965051E-16	1.727412E-17
2.703310E+03	4.495038E-16	1.929184E-17
2.743064E+03	5.044521E-16	2.132443E-17
2.782819E+03	5.601022E-16	2.331660E-17
2.822573E+03	6.152496E-16	2.521818E-17
2.862328E+03	6.684907E-16	2.697412E-17
2.902083E+03	7.185693E-16	2.853887E-17
2.941837E+03	7.644482E-16	2.987870E-17
2.981592E+03	8.054225E-16	3.097524E-17
2.991530E+03	8.148788E-16	3.121166E-17
3.001469E+03	8.239589E-16	3.143094E-17
3.011408E+03	8.326968E-16	3.163453E-17
3.021346E+03	8.411356E-16	3.182422E-17
3.031285E+03	8.493359E-16	3.200241E-17
3.041223E+03	8.571927E-16	3.216528E-17
3.051162E+03	8.648741E-16	3.231925E-17
3.061101E+03	8.723573E-16	3.246354E-17
3.071039E+03	8.796217E-16	3.259746E-17
3.080978E+03	8.866891E-16	3.272193E-17
3.090917E+03	8.935030E-16	3.283493E-17
3.100855E+03	9.001281E-16	3.293894E-17
3.110794E+03	9.064725E-16	3.303069E-17
3.120733E+03	9.126437E-16	3.311419E-17
3.130671E+03	9.185138E-16	3.318490E-17
3.140610E+03	9.241924E-16	3.324689E-17
3.150549E+03	9.296341E-16	3.329859E-17
3.160487E+03	9.348726E-16	3.334132E-17
3.170426E+03	9.398653E-16	3.337365E-17
3.180364E+03	9.446484E-16	3.339695E-17
3.190303E+03	9.492577E-16	3.341257E-17
3.200242E+03	9.536555E-16	3.341927E-17
3.210180E+03	9.578800E-16	3.341845E-17
3.220119E+03	9.619687E-16	3.341150E-17
3.230058E+03	9.659233E-16	3.339853E-17
3.239996E+03	9.697109E-16	3.337844E-17
3.249935E+03	9.734071E-16	3.335391E-17
3.259874E+03	9.770149E-16	3.332507E-17
3.269812E+03	9.805051E-16	3.329096E-17
3.279751E+03	9.839521E-16	3.325414E-17
3.289689E+03	9.873611E-16	3.321479E-17
3.299628E+03	9.907714E-16	3.317425E-17
3.309567E+03	9.941568E-16	3.313163E-17
3.319505E+03	9.975255E-16	3.308720E-17
3.329444E+03	1.000982E-15	3.304442E-17
3.339383E+03	1.004471E-15	3.300142E-17
3.349321E+03	1.008033E-15	3.295952E-17
3.359260E+03	1.011680E-15	3.291904E-17
3.369199E+03	1.015453E-15	3.288129E-17
3.379137E+03	1.019396E-15	3.284758E-17
3.389076E+03	1.023462E-15	3.281637E-17
3.399014E+03	1.027727E-15	3.279002E-17
3.408953E+03	1.032211E-15	3.276900E-17
3.418892E+03	1.036904E-15	3.275296E-17
3.428830E+03	1.041831E-15	3.274256E-17
3.438769E+03	1.047076E-15	3.274029E-17
3.448708E+03	1.052586E-15	3.274436E-17
3.458646E+03	1.058424E-15	3.275660E-17
3.468585E+03	1.064633E-15	3.277815E-17
3.478524E+03	1.071208E-15	3.280870E-17
3.488462E+03	1.078201E-15	3.284966E-17
3.498401E+03	1.085619E-15	3.290101E-17
3.508340E+03	1.093523E-15	3.296439E-17
3.518278E+03	1.101955E-15	3.304074E-17
3.528217E+03	1.110933E-15	3.313036E-17
3.538155E+03	1.120505E-15	3.323437E-17
3.548094E+03	1.130748E-15	3.335469E-17
3.558033E+03	1.141692E-15	3.349184E-17
3.567971E+03	1.153392E-15	3.364708E-17
3.577910E+03	1.165885E-15	3.382103E-17
3.587849E+03	1.179207E-15	3.401435E-17
3.597787E+03	1.193445E-15	3.422904E-17
3.607726E+03	1.208637E-15	3.446574E-17
3.617665E+03	1.224871E-15	3.472639E-17
3.627603E+03	1.242232E-15	3.501285E-17
3.637542E+03	1.260806E-15	3.532690E-17
3.647480E+03	1.280677E-15	3.567024E-17
3.657419E+03	1.301926E-15	3.604440E-17
3.667358E+03	1.324632E-15	3.645085E-17
3.677296E+03	1.348872E-15	3.689087E-17
3.687235E+03	1.374693E-15	3.736491E-17
3.697174E+03	1.402209E-15	3.787520E-17
3.707112E+03	1.431433E-15	3.842115E-17
3.717051E+03	1.462416E-15	3.900318E-17
3.726990E+03	1.495202E-15	3.962150E-17
3.736928E+03	1.529847E-15	4.027659E-17
3.746867E+03	1.566323E-15	4.096668E-17
3.756805E+03	1.604661E-15	4.169154E-17
3.766744E+03	1.644854E-15	4.244995E-17
3.776683E+03	1.686851E-15	4.323954E-17
3.786621E+03	1.730610E-15	4.405822E-17
3.796560E+03	1.776068E-15	4.490339E-17
3.806499E+03	1.823144E-15	4.577202E-17
3.816437E+03	1.871708E-15	4.665996E-17
3.826376E+03	1.921665E-15	4.756396E-17
3.836315E+03	1.972845E-15	4.847900E-17
3.846253E+03	2.025086E-15	4.940039E-17
3.856192E+03	2.078238E-15	5.032386E-17
3.866131E+03	2.132047E-15	5.124272E-17
3.876069E+03	2.186304E-15	5.215157E-17
3.886008E+03	2.240821E-15	5.304564E-17
3.895946E+03	2.295375E-15	5.391948E-17
3.905885E+03	2.349709E-15	5.476703E-17
3.915824E+03	2.403600E-15	5.558316E-17
3.925762E+03	2.456829E-15	5.636311E-17
3.935701E+03	2.509191E-15	5.710250E-17
3.945640E+03	2.560494E-15	5.779747E-17
3.955578E+03	2.610568E-15	5.844477E-17
3.965517E+03	2.659229E-15	5.904100E-17
3.975456E+03	2.706385E-15	5.958497E-17
3.985394E+03	2.751941E-15	6.007542E-17
3.995333E+03	2.795794E-15	6.051107E-17
4.005271E+03	2.837903E-15	6.089205E-17
4.015210E+03	2.878257E-15	6.121916E-17
4.025149E+03	2.916908E-15	6.149455E-17
4.035087E+03	2.953826E-15	6.171868E-17
4.045026E+03	2.989148E-15	6.189543E-17
4.054965E+03	3.022888E-15	6.202612E-17
4.064903E+03	3.055183E-15	6.211458E-17
4.074842E+03	3.086114E-15	6.216337E-17
4.084781E+03	3.115841E-15	6.217664E-17
4.094719E+03	3.144459E-15	6.215713E-17
4.104658E+03	3.172101E-15	6.210828E-17
4.114596E+03	3.198901E-15	6.203339E-17
4.124535E+03	3.224950E-15	6.193495E-17
4.134474E+03	3.250405E-15	6.181660E-17
4.144412E+03	3.275342E-15	6.168037E-17
4.154351E+03	3.299861E-15	6.152866E-17
4.164290E+03	3.324011E-15	6.136294E-17
4.174228E+03	3.347866E-15	6.118504E-17
4.184167E+03	3.371483E-15	6.099649E-17
4.194106E+03	3.394865E-15	6.079783E-17
4.204044E+03	3.418038E-15	6.059002E-17
4.213983E+03	3.440939E-15	6.037243E-17
4.223922E+03	3.463637E-15	6.014683E-17
4.233860E+03	3.486000E-15	5.991149E-17
4.243799E+03	3.508001E-15	5.966654E-17
4.253737E+03	3.529595E-15	5.941193E-17
4.263676E+03	3.550699E-15	5.914693E-17
4.273615E+03	3.571220E-15	5.887080E-17
4.283553E+03	3.591101E-15	5.858343E-17
4.293492E+03	3.610212E-15	5.828358E-17
4.303431E+03	3.628538E-15	5.797195E-17
4.313369E+03	3.645919E-15	5.764701E-17
4.323308E+03	3.662431E-15	5.731098E-17
4.333247E+03	3.677895E-15	5.696213E-17
4.343185E+03	3.692502E-15	5.660450E-17
4.353124E+03	3.706599E-15	5.624438E-17
4.363062E+03	3.720676E-15	5.589000E-17
4.373001E+03	3.735233E-15	5.554946E-17
4.382940E+03	3.750890E-15	5.523235E-17
4.392878E+03	3.768161E-15	5.494634E-17
4.402817E+03	3.787600E-15	5.469942E-17
4.412756E+03	3.809766E-15	5.449928E-17
4.422694E+03	3.835213E-15	5.435337E-17
4.432633E+03	3.864500E-15	5.426894E-17
4.442572E+03	3.898114E-15	5.425204E-17
4.452510E+03	3.936550E-15	5.430873E-17
4.462449E+03	3.979678E-15	5.443635E-17
4.472387E+03	4.027118E-15	5.462907E-17
4.482326E+03	4.078309E-15	5.487889E-17
4.492265E+03	4.132908E-15	5.518108E-17
4.502203E+03	4.190302E-15	5.552756E-17
4.512142E+03	4.249933E-15	5.591131E-17
4.522081E+03	4.311307E-15	5.632638E-17
4.532019E+03	4.373833E-15	5.676516E-17
4.541958E+03	4.436819E-15	5.721845E-17
4.551897E+03	4.499712E-15	5.767890E-17
4.561835E+03	4.561928E-15	5.813891E-17
4.571774E+03	4.622865E-15	5.859074E-17
4.581713E+03	4.681957E-15	5.902715E-17
4.591651E+03	4.738729E-15	5.944212E-17
4.601590E+03	4.792718E-15	5.982976E-17
4.611528E+03	4.843477E-15	6.018442E-17
4.621467E+03	4.890678E-15	6.050189E-17
4.631406E+03	4.934065E-15	6.077886E-17
4.641344E+03	4.973414E-15	6.101235E-17
4.651283E+03	5.008526E-15	6.119965E-17
4.661222E+03	5.039422E-15	6.134072E-17
4.671160E+03	5.065943E-15	6.143324E-17
4.681099E+03	5.088235E-15	6.147859E-17
4.691038E+03	5.106396E-15	6.147750E-17
4.700976E+03	5.120612E-15	6.143175E-17
4.710915E+03	5.131200E-15	6.134458E-17
4.720853E+03	5.138591E-15	6.122062E-17
4.730792E+03	5.143174E-15	6.106388E-17
4.740731E+03	5.145233E-15	6.087712E-17
4.750669E+03	5.145186E-15	6.066466E-17
4.760608E+03	5.143331E-15	6.042937E-17
4.770547E+03	5.140038E-15	6.017496E-17
4.780485E+03	5.135446E-15	5.990241E-17
4.790424E+03	5.129862E-15	5.961469E-17
4.800363E+03	5.123358E-15	5.931204E-17
4.810301E+03	5.116179E-15	5.899673E-17
4.820240E+03	5.108390E-15	5.866895E-17
4.830178E+03	5.099987E-15	5.832816E-17
4.840117E+03	5.091148E-15	5.797591E-17
4.850056E+03	5.081843E-15	5.761145E-17
4.859994E+03	5.072090E-15	5.723457E-17
4.869933E+03	5.061964E-15	5.684579E-17
4.879872E+03	5.051505E-15	5.644524E-17
4.889810E+03	5.040770E-15	5.603330E-17
4.899749E+03	5.029898E-15	5.561127E-17
4.909688E+03	5.018908E-15	5.517916E-17
4.919626E+03	5.008057E-15	5.473958E-17
4.929565E+03	4.997539E-15	5.429450E-17
4.939504E+03	4.987545E-15	5.384577E-17
4.949442E+03	4.978349E-15	5.339617E-17
4.959381E+03	4.970269E-15	5.294889E-17
4.969319E+03	4.963705E-15	5.250790E-17
4.979258E+03	4.958988E-15	5.207637E-17
4.989197E+03	4.956526E-15	5.165820E-17
4.999135E+03	4.956743E-15	5.125729E-17
5.009074E+03	4.960123E-15	5.087810E-17
5.019013E+03	4.967005E-15	5.052343E-17
5.028951E+03	4.977875E-15	5.019739E-17
5.038890E+03	4.993150E-15	4.990334E-17
5.048829E+03	5.013233E-15	4.964426E-17
5.058767E+03	5.038497E-15	4.942272E-17
5.068706E+03	5.069278E-15	4.924081E-17
5.078644E+03	5.105774E-15	4.909913E-17
5.088583E+03	5.148382E-15	4.900014E-17
5.098522E+03	5.197197E-15	4.894330E-17
5.108460E+03	5.252353E-15	4.892841E-17
5.118399E+03	5.313925E-15	4.895474E-17
5.128338E+03	5.381919E-15	4.902092E-17
5.138276E+03	5.456273E-15	4.912507E-17
5.148215E+03	5.536912E-15	4.926525E-17
5.158154E+03	5.623471E-15	4.943718E-17
5.168092E+03	5.715848E-15	4.963908E-17
5.178031E+03	5.813596E-15	4.986644E-17
5.187969E+03	5.916380E-15	5.011607E-17
5.197908E+03	6.023696E-15	5.038366E-17
5.207847E+03	6.134989E-15	5.066497E-17
5.217785E+03	6.249851E-15	5.095737E-17
5.227724E+03	6.367667E-15	5.125702E-17
5.237663E+03	6.487863E-15	5.156096E-17
5.247601E+03	6.609796E-15	5.186617E-17
5.257540E+03	6.732883E-15	5.217068E-17
5.267479E+03	6.856620E-15	5.247363E-17
5.277417E+03	6.980296E-15	5.277312E-17
5.287356E+03	7.103498E-15	5.307000E-17
5.297295E+03	7.225530E-15	5.336347E-17
5.307233E+03	7.345809E-15	5.365407E-17
5.317172E+03	7.463813E-15	5.394313E-17
5.327110E+03	7.578824E-15	5.423098E-17
5.337049E+03	7.690028E-15	5.451758E-17
5.346988E+03	7.796765E-15	5.480422E-17
5.356926E+03	7.897820E-15	5.508846E-17
5.366865E+03	7.992156E-15	5.536922E-17
5.376804E+03	8.078466E-15	5.564351E-17
5.386742E+03	8.155223E-15	5.590666E-17
5.396681E+03	8.221715E-15	5.615921E-17
5.406620E+03	8.277700E-15	5.640323E-17
5.416558E+03	8.323485E-15	5.664034E-17
5.426497E+03	8.359245E-15	5.686967E-17
5.436435E+03	8.385240E-15	5.708996E-17
5.446374E+03	8.401682E-15	5.729905E-17
5.456313E+03	8.408424E-15	5.749169E-17
5.466251E+03	8.405835E-15	5.766574E-17
5.476190E+03	8.393814E-15	5.781548E-17
5.486129E+03	8.372671E-15	5.793776E-17
5.496067E+03	8.342793E-15	5.802982E-17
5.506006E+03	8.304494E-15	5.808835E-17
5.515945E+03	8.258303E-15	5.811158E-17
5.525883E+03	8.204916E-15	5.809909E-17
5.535822E+03	8.144998E-15	5.805046E-17
5.545760E+03	8.079462E-15	5.796737E-17
5.555699E+03	8.009217E-15	5.785184E-17
5.565638E+03	7.935253E-15	5.770691E-17
5.575576E+03	7.858670E-15	5.753686E-17
5.585515E+03	7.780352E-15	5.734491E-17
5.595454E+03	7.701494E-15	5.713701E-17
5.605392E+03	7.623115E-15	5.691831E-17
5.615331E+03	7.546092E-15	5.669333E-17
5.625270E+03	7.471405E-15	5.646778E-17
5.635208E+03	7.399861E-15	5.624644E-17
5.645147E+03	7.332170E-15	5.603368E-17
5.655086E+03	7.268931E-15	5.583328E-17
5.665024E+03	7.210619E-15	5.564831E-17
5.674963E+03	7.157668E-15	5.548168E-17
5.684901E+03	7.110227E-15	5.533420E-17
5.694840E+03	7.068448E-15	5.520683E-17
5.704779E+03	7.032288E-15	5.509901E-17
5.714717E+03	7.001568E-15	5.500914E-17
5.724656E+03	6.975908E-15	5.493404E-17
5.734595E+03	6.955023E-15	5.487126E-17
5.744533E+03	6.938290E-15	5.481566E-17
5.754472E+03	6.925053E-15	5.476181E-17
5.764411E+03	6.914631E-15	5.470409E-17
5.774349E+03	6.906184E-15	5.463564E-17
5.784288E+03	6.898733E-15	5.454853E-17
5.794226E+03	6.891464E-15	5.443621E-17
5.804165E+03	6.883239E-15	5.428969E-17
5.814104E+03	6.873131E-15	5.410181E-17
5.824042E+03	6.860228E-15	5.386568E-17
5.833981E+03	6.843506E-15	5.357378E-17
5.843920E+03	6.822152E-15	5.322052E-17
5.853858E+03	6.795367E-15	5.280066E-17
5.863797E+03	6.762386E-15	5.230957E-17
5.873736E+03	6.722795E-15	5.174564E-17
5.883674E+03	6.676028E-15	5.110641E-17
5.893613E+03	6.621976E-15	5.039320E-17
5.903551E+03	6.560543E-15	4.960773E-17
5.913490E+03	6.491732E-15	4.875269E-17
5.923429E+03	6.415855E-15	4.783332E-17
5.933367E+03	6.333311E-15	4.685560E-17
5.943306E+03	6.244641E-15	4.582670E-17
5.953245E+03	6.150586E-15	4.475525E-17
5.963183E+03	6.051857E-15	4.364964E-17
5.973122E+03	5.949320E-15	4.251931E-17
5.983061E+03	5.843974E-15	4.137446E-17
5.992999E+03	5.736789E-15	4.022493E-17
6.002938E+03	5.628752E-15	3.908043E-17
6.012877E+03	5.520785E-15	3.794999E-17
6.022815E+03	5.413977E-15	3.684351E-17
6.032754E+03	5.309127E-15	3.576865E-17
6.042692E+03	5.207169E-15	3.473376E-17
6.052631E+03	5.108911E-15	3.374606E-17
6.062570E+03	5.014975E-15	3.281137E-17
6.072508E+03	4.926085E-15	3.193603E-17
6.082447E+03	4.842714E-15	3.112459E-17
6.092386E+03	4.765374E-15	3.038181E-17
6.102324E+03	4.694333E-15	2.971083E-17
6.112263E+03	4.629899E-15	2.911510E-17
6.122202E+03	4.572310E-15	2.859767E-17
6.132140E+03	4.521627E-15	2.816056E-17
6.142079E+03	4.478064E-15	2.780688E-17
6.152017E+03	4.441770E-15	2.753945E-17
6.161956E+03	4.412892E-15	2.736123E-17
6.171895E+03	4.391573E-15	2.727535E-17
6.181833E+03	4.377808E-15	2.728416E-17
6.191772E+03	4.371600E-15	2.739029E-17
6.201711E+03	4.372812E-15	2.759545E-17
6.211649E+03	4.381320E-15	2.789961E-17
6.221588E+03	4.396915E-15	2.830120E-17
6.231527E+03	4.419460E-15	2.879924E-17
6.241465E+03	4.448623E-15	2.939165E-17
6.251404E+03	4.484089E-15	3.007647E-17
6.261342E+03	4.525504E-15	3.085161E-17
6.271281E+03	4.572536E-15	3.171507E-17
6.281220E+03	4.624693E-15	3.266380E-17
6.291158E+03	4.681554E-15	3.369509E-17
6.301097E+03	4.742531E-15	3.480495E-17
6.311036E+03	4.807033E-15	3.598912E-17
6.320974E+03	4.874475E-15	3.724311E-17
6.330913E+03	4.944081E-15	3.856066E-17
6.340852E+03	5.015130E-15	3.993550E-17
6.350790E+03	5.086704E-15	4.135930E-17
6.360729E+03	5.158005E-15	4.282415E-17
6.370667E+03	5.228083E-15	4.432027E-17
6.380606E+03	5.296333E-15	4.584021E-17
6.390545E+03	5.362085E-15	4.737551E-17
6.400483E+03	5.424566E-15	4.891627E-17
6.410422E+03	5.482981E-15	5.045183E-17
6.420361E+03	5.536521E-15	5.197084E-17
6.430299E+03	5.584313E-15	5.346066E-17
6.440238E+03	5.625793E-15	5.491111E-17
6.450177E+03	5.660071E-15	5.630833E-17
6.460115E+03	5.686536E-15	5.764065E-17
6.470054E+03	5.704571E-15	5.889595E-17
6.479993E+03	5.713883E-15	6.006509E-17
6.489931E+03	5.713973E-15	6.113660E-17
6.499870E+03	5.704612E-15	6.210167E-17
6.509808E+03	5.685770E-15	6.295360E-17
6.519747E+03	5.657389E-15	6.368552E-17
6.529686E+03	5.619693E-15	6.429383E-17
6.539624E+03	5.572951E-15	6.477578E-17
6.549563E+03	5.517552E-15	6.513037E-17
6.559502E+03	5.453990E-15	6.535831E-17
6.569440E+03	5.382930E-15	6.546289E-17
6.579379E+03	5.304966E-15	6.544713E-17
6.589318E+03	5.220908E-15	6.531735E-17
6.599256E+03	5.131536E-15	6.508018E-17
6.609195E+03	5.037661E-15	6.474332E-17
6.619133E+03	4.940176E-15	6.431623E-17
6.629072E+03	4.839831E-15	6.380721E-17
6.639011E+03	4.737501E-15	6.322679E-17
6.648949E+03	4.633891E-15	6.258388E-17
6.658888E+03	4.529868E-15	6.189016E-17
6.668827E+03	4.426050E-15	6.115442E-17
6.678765E+03	4.323066E-15	6.038609E-17
6.688704E+03	4.221486E-15	5.959415E-17
6.698643E+03	4.121876E-15	5.878791E-17
6.708581E+03	4.024621E-15	5.797436E-17
6.718520E+03	3.930159E-15	5.716153E-17
6.728458E+03	3.838750E-15	5.635507E-17
6.738397E+03	3.750769E-15	5.556240E-17
6.748336E+03	3.666308E-15	5.478691E-17
6.758274E+03	3.585579E-15	5.403381E-17
6.768213E+03	3.508690E-15	5.330678E-17
6.778152E+03	3.435658E-15	5.260810E-17
6.788090E+03	3.366619E-15	5.194184E-17
6.798029E+03	3.301519E-15	5.130914E-17
6.807968E+03	3.240331E-15	5.071143E-17
6.817906E+03	3.183002E-15	5.014971E-17
6.827845E+03	3.129464E-15	4.962456E-17
6.837784E+03	3.079629E-15	4.913625E-17
6.847722E+03	3.033399E-15	4.868473E-17
6.857661E+03	2.990667E-15	4.826967E-17
6.867599E+03	2.951316E-15	4.789052E-17
6.877538E+03	2.915226E-15	4.754657E-17
6.887477E+03	2.882321E-15	4.723769E-17
6.897415E+03	2.852384E-15	4.696135E-17
6.907354E+03	2.825381E-15	4.671795E-17
6.917293E+03	2.801143E-15	4.650555E-17
6.927231E+03	2.779549E-15	4.632287E-17
6.937170E+03	2.760434E-15	4.616788E-17
6.947109E+03	2.743772E-15	4.604073E-17
6.957047E+03	2.729405E-15	4.593928E-17
6.966986E+03	2.717222E-15	4.586218E-17
6.976924E+03	2.707118E-15	4.580799E-17
6.986863E+03	2.698987E-15	4.577530E-17
6.996802E+03	2.692729E-15	4.576266E-17
7.006740E+03	2.688246E-15	4.576864E-17
7.016679E+03	2.685395E-15	4.579098E-17
7.026618E+03	2.684174E-15	4.582975E-17
7.036556E+03	2.684443E-15	4.588266E-17
7.046495E+03	2.686111E-15	4.594819E-17
7.056434E+03	2.689040E-15	4.602397E-17
7.066372E+03	2.693232E-15	4.611001E-17
7.076311E+03	2.698502E-15	4.620308E-17
7.086249E+03	2.704853E-15	4.630315E-17
7.096188E+03	2.712147E-15	4.640771E-17
7.106127E+03	2.720242E-15	4.651425E-17
7.116065E+03	2.729143E-15	4.662266E-17
7.126004E+03	2.738708E-15	4.673037E-17
7.135943E+03	2.748842E-15	4.683558E-17
7.145881E+03	2.759451E-15	4.693652E-17
7.155820E+03	2.770492E-15	4.703226E-17
7.165759E+03	2.781820E-15	4.712017E-17
7.175697E+03	2.793394E-15	4.719937E-17
7.185636E+03	2.805070E-15	4.726729E-17
7.195575E+03	2.816813E-15	4.732313E-17
7.205513E+03	2.828535E-15	4.736531E-17
7.215452E+03	2.840206E-15	4.739319E-17
7.225390E+03	2.851644E-15	4.740360E-17
7.235329E+03	2.862879E-15	4.739700E-17
7.245268E+03	2.873845E-15	4.737221E-17
7.255206E+03	2.884482E-15	4.732818E-17
7.265145E+03	2.894682E-15	4.726313E-17
7.275084E+03	2.904563E-15	4.717901E-17
7.285022E+03	2.913980E-15	4.707347E-17
7.294961E+03	2.922903E-15	4.694612E-17
7.304900E+03	2.931429E-15	4.679855E-17
7.314838E+03	2.939492E-15	4.662982E-17
7.324777E+03	2.947152E-15	4.644097E-17
7.334715E+03	2.954364E-15	4.623143E-17
7.344654E+03	2.961150E-15	4.600167E-17
7.354593E+03	2.967599E-15	4.575324E-17
7.364531E+03	2.973750E-15	4.548687E-17
7.374470E+03	2.979593E-15	4.520257E-17
7.384409E+03	2.985182E-15	4.490134E-17
7.394347E+03	2.990580E-15	4.458426E-17
7.404286E+03	2.995852E-15	4.425245E-17
7.414225E+03	3.001125E-15	4.390796E-17
7.424163E+03	3.006356E-15	4.355023E-17
7.434102E+03	3.011674E-15	4.318130E-17
7.444040E+03	3.017153E-15	4.280233E-17
7.453979E+03	3.022864E-15	4.241437E-17
7.463918E+03	3.028752E-15	4.201676E-17
7.473856E+03	3.035001E-15	4.161212E-17
7.483795E+03	3.041544E-15	4.119961E-17
7.493734E+03	3.048490E-15	4.078078E-17
7.503672E+03	3.055818E-15	4.035540E-17
7.513611E+03	3.063557E-15	3.992397E-17
7.523550E+03	3.071727E-15	3.948686E-17
7.533488E+03	3.080274E-15	3.904351E-17
7.543427E+03	3.089258E-15	3.859486E-17
7.553366E+03	3.098537E-15	3.813938E-17
7.563304E+03	3.108211E-15	3.767859E-17
7.573243E+03	3.118113E-15	3.721084E-17
7.583181E+03	3.128254E-15	3.673674E-17
7.593120E+03	3.138574E-15	3.625612E-17
7.603059E+03	3.148930E-15	3.576800E-17
7.612997E+03	3.159304E-15	3.527297E-17
7.622936E+03	3.169464E-15	3.476943E-17
7.632875E+03	3.179502E-15	3.425949E-17
7.642813E+03	3.189102E-15	3.374101E-17
7.652752E+03	3.198270E-15	3.321556E-17
7.662691E+03	3.206735E-15	3.268200E-17
7.672629E+03	3.214489E-15	3.214218E-17
7.682568E+03	3.221313E-15	3.159600E-17
7.692506E+03	3.227046E-15	3.104430E-17
7.702445E+03	3.231592E-15	3.048875E-17
7.712384E+03	3.234641E-15	2.992930E-17
