#wls	flux	fluxerr
1.590182E+03	5.795265E-16	3.241816E-17
1.629937E+03	5.029699E-16	2.788465E-17
1.669691E+03	4.347179E-16	2.388179E-17
1.709446E+03	3.744806E-16	2.038233E-17
1.749200E+03	3.218575E-16	1.735335E-17
1.788955E+03	2.760329E-16	1.474032E-17
1.828710E+03	2.362107E-16	1.249122E-17
1.868464E+03	2.016063E-16	1.055608E-17
1.908219E+03	1.716087E-16	8.895432E-18
1.947973E+03	1.456585E-16	7.473631E-18
1.987728E+03	1.235387E-16	6.273466E-18
2.027482E+03	1.052573E-16	5.289434E-18
2.067237E+03	9.110237E-17	4.529873E-18
2.106991E+03	8.144893E-17	4.006740E-18
2.146746E+03	7.650651E-17	3.723123E-18
2.186501E+03	7.618439E-17	3.667210E-18
2.226255E+03	8.012462E-17	3.814659E-18
2.266010E+03	8.793942E-17	4.140457E-18
2.305764E+03	9.945777E-17	4.630509E-18
2.345519E+03	1.147112E-16	5.280393E-18
2.385273E+03	1.340385E-16	6.099595E-18
2.425028E+03	1.579259E-16	7.103472E-18
2.464782E+03	1.869525E-16	8.310458E-18
2.504537E+03	2.216739E-16	9.736646E-18
2.544292E+03	2.624287E-16	1.138748E-17
2.584046E+03	3.092817E-16	1.325582E-17
2.623801E+03	3.618525E-16	1.531548E-17
2.663555E+03	4.194177E-16	1.752662E-17
2.703310E+03	4.811139E-16	1.984508E-17
2.743064E+03	5.456420E-16	2.221072E-17
2.782819E+03	6.115769E-16	2.456115E-17
2.822573E+03	6.772019E-16	2.682546E-17
2.862328E+03	7.407029E-16	2.893274E-17
2.902083E+03	8.003793E-16	3.082048E-17
2.941837E+03	8.548289E-16	3.244137E-17
2.981592E+03	9.031381E-16	3.376961E-17
2.991530E+03	9.142174E-16	3.405565E-17
3.001469E+03	9.248504E-16	3.432184E-17
3.011408E+03	9.350669E-16	3.456944E-17
3.021346E+03	9.448671E-16	3.479863E-17
3.031285E+03	9.543571E-16	3.501345E-17
3.041223E+03	9.634640E-16	3.521135E-17
3.051162E+03	9.722898E-16	3.539620E-17
3.061101E+03	9.808864E-16	3.556996E-17
3.071039E+03	9.891908E-16	3.573045E-17
3.080978E+03	9.972201E-16	3.587839E-17
3.090917E+03	1.004955E-15	3.601320E-17
3.100855E+03	1.012417E-15	3.613573E-17
3.110794E+03	1.019553E-15	3.624419E-17
3.120733E+03	1.026426E-15	3.634095E-17
3.130671E+03	1.032949E-15	3.642305E-17
3.140610E+03	1.039226E-15	3.649424E-17
3.150549E+03	1.045212E-15	3.655307E-17
3.160487E+03	1.050902E-15	3.659944E-17
3.170426E+03	1.056327E-15	3.663459E-17
3.180364E+03	1.061522E-15	3.665976E-17
3.190303E+03	1.066448E-15	3.667377E-17
3.200242E+03	1.071142E-15	3.667792E-17
3.210180E+03	1.075605E-15	3.667237E-17
3.220119E+03	1.079907E-15	3.665960E-17
3.230058E+03	1.084018E-15	3.663860E-17
3.239996E+03	1.087942E-15	3.660962E-17
3.249935E+03	1.091750E-15	3.657510E-17
3.259874E+03	1.095416E-15	3.653420E-17
3.269812E+03	1.098979E-15	3.648827E-17
3.279751E+03	1.102447E-15	3.643761E-17
3.289689E+03	1.105860E-15	3.638356E-17
3.299628E+03	1.109227E-15	3.632644E-17
3.309567E+03	1.112588E-15	3.626758E-17
3.319505E+03	1.115926E-15	3.620638E-17
3.329444E+03	1.119311E-15	3.614512E-17
3.339383E+03	1.122728E-15	3.608329E-17
3.349321E+03	1.126219E-15	3.602222E-17
3.359260E+03	1.129801E-15	3.596238E-17
3.369199E+03	1.133463E-15	3.590340E-17
3.379137E+03	1.137281E-15	3.584757E-17
3.389076E+03	1.141220E-15	3.579379E-17
3.399014E+03	1.145358E-15	3.574437E-17
3.408953E+03	1.149667E-15	3.569839E-17
3.418892E+03	1.154203E-15	3.565744E-17
3.428830E+03	1.158947E-15	3.562083E-17
3.438769E+03	1.163959E-15	3.559032E-17
3.448708E+03	1.169257E-15	3.556626E-17
3.458646E+03	1.174837E-15	3.554845E-17
3.468585E+03	1.180753E-15	3.553835E-17
3.478524E+03	1.187018E-15	3.553615E-17
3.488462E+03	1.193652E-15	3.554228E-17
3.498401E+03	1.200725E-15	3.555865E-17
3.508340E+03	1.208246E-15	3.558527E-17
3.518278E+03	1.216295E-15	3.562425E-17
3.528217E+03	1.224869E-15	3.567522E-17
3.538155E+03	1.234079E-15	3.574110E-17
3.548094E+03	1.243930E-15	3.582174E-17
3.558033E+03	1.254499E-15	3.591897E-17
3.567971E+03	1.265845E-15	3.603407E-17
3.577910E+03	1.278007E-15	3.616778E-17
3.587849E+03	1.291033E-15	3.632098E-17
3.597787E+03	1.305033E-15	3.649631E-17
3.607726E+03	1.320102E-15	3.669589E-17
3.617665E+03	1.336357E-15	3.692237E-17
3.627603E+03	1.353917E-15	3.717839E-17
3.637542E+03	1.372903E-15	3.746657E-17
3.647480E+03	1.393439E-15	3.778949E-17
3.657419E+03	1.415648E-15	3.814964E-17
3.667358E+03	1.439675E-15	3.855003E-17
3.677296E+03	1.465645E-15	3.899296E-17
3.687235E+03	1.493658E-15	3.948005E-17
3.697174E+03	1.523852E-15	4.001383E-17
3.707112E+03	1.556341E-15	4.059607E-17
3.717051E+03	1.591207E-15	4.122764E-17
3.726990E+03	1.628587E-15	4.191080E-17
3.736928E+03	1.668517E-15	4.264508E-17
3.746867E+03	1.711082E-15	4.343119E-17
3.756805E+03	1.756323E-15	4.426876E-17
3.766744E+03	1.804235E-15	4.515614E-17
3.776683E+03	1.854850E-15	4.609269E-17
3.786621E+03	1.908079E-15	4.707465E-17
3.796560E+03	1.963890E-15	4.809979E-17
3.806499E+03	2.022114E-15	4.916256E-17
3.816437E+03	2.082617E-15	5.025832E-17
3.826376E+03	2.145196E-15	5.138096E-17
3.836315E+03	2.209634E-15	5.252411E-17
3.846253E+03	2.275593E-15	5.367872E-17
3.856192E+03	2.342804E-15	5.483763E-17
3.866131E+03	2.410856E-15	5.599053E-17
3.876069E+03	2.479421E-15	5.712937E-17
3.886008E+03	2.548097E-15	5.824464E-17
3.895946E+03	2.616408E-15	5.932548E-17
3.905885E+03	2.684031E-15	6.036475E-17
3.915824E+03	2.750496E-15	6.135239E-17
3.925762E+03	2.815416E-15	6.228045E-17
3.935701E+03	2.878496E-15	6.314333E-17
3.945640E+03	2.939353E-15	6.393375E-17
3.955578E+03	2.997748E-15	6.464779E-17
3.965517E+03	3.053494E-15	6.528292E-17
3.975456E+03	3.106364E-15	6.583584E-17
3.985394E+03	3.156326E-15	6.630754E-17
3.995333E+03	3.203340E-15	6.669890E-17
4.005271E+03	3.247355E-15	6.701063E-17
4.015210E+03	3.288549E-15	6.724813E-17
4.025149E+03	3.326976E-15	6.741420E-17
4.035087E+03	3.362801E-15	6.751382E-17
4.045026E+03	3.396295E-15	6.755399E-17
4.054965E+03	3.427614E-15	6.753922E-17
4.064903E+03	3.457037E-15	6.747636E-17
4.074842E+03	3.484818E-15	6.737153E-17
4.084781E+03	3.511211E-15	6.723071E-17
4.094719E+03	3.536465E-15	6.705958E-17
4.104658E+03	3.560815E-15	6.686340E-17
4.114596E+03	3.584442E-15	6.664625E-17
4.124535E+03	3.607578E-15	6.641304E-17
4.134474E+03	3.630356E-15	6.616669E-17
4.144412E+03	3.652955E-15	6.591089E-17
4.154351E+03	3.675416E-15	6.564676E-17
4.164290E+03	3.697863E-15	6.537680E-17
4.174228E+03	3.720354E-15	6.510238E-17
4.184167E+03	3.742854E-15	6.482315E-17
4.194106E+03	3.765375E-15	6.453964E-17
4.204044E+03	3.787914E-15	6.425215E-17
4.213983E+03	3.810381E-15	6.395949E-17
4.223922E+03	3.832750E-15	6.366163E-17
4.233860E+03	3.854952E-15	6.335791E-17
4.243799E+03	3.876922E-15	6.304773E-17
4.253737E+03	3.898559E-15	6.273004E-17
4.263676E+03	3.919813E-15	6.240461E-17
4.273615E+03	3.940609E-15	6.207093E-17
4.283553E+03	3.960967E-15	6.173001E-17
4.293492E+03	3.980783E-15	6.138092E-17
4.303431E+03	4.000132E-15	6.102559E-17
4.313369E+03	4.019024E-15	6.066488E-17
4.323308E+03	4.037603E-15	6.030172E-17
4.333247E+03	4.056152E-15	5.994092E-17
4.343185E+03	4.075001E-15	5.958791E-17
4.353124E+03	4.094732E-15	5.925152E-17
4.363062E+03	4.116066E-15	5.894224E-17
4.373001E+03	4.139808E-15	5.867138E-17
4.382940E+03	4.166762E-15	5.844981E-17
4.392878E+03	4.197618E-15	5.828636E-17
4.402817E+03	4.233077E-15	5.818972E-17
4.412756E+03	4.273790E-15	5.816757E-17
4.422694E+03	4.320187E-15	5.822429E-17
4.432633E+03	4.372615E-15	5.836308E-17
4.442572E+03	4.431286E-15	5.858534E-17
4.452510E+03	4.496321E-15	5.889124E-17
4.462449E+03	4.567567E-15	5.927754E-17
4.472387E+03	4.644769E-15	5.973983E-17
4.482326E+03	4.727590E-15	6.027300E-17
4.492265E+03	4.815407E-15	6.086856E-17
4.502203E+03	4.907418E-15	6.151620E-17
4.512142E+03	5.002777E-15	6.220548E-17
4.522081E+03	5.100341E-15	6.292272E-17
4.532019E+03	5.199013E-15	6.365462E-17
4.541958E+03	5.297501E-15	6.438554E-17
4.551897E+03	5.394417E-15	6.509899E-17
4.561835E+03	5.488417E-15	6.577938E-17
4.571774E+03	5.578288E-15	6.641302E-17
4.581713E+03	5.662691E-15	6.698496E-17
4.591651E+03	5.740521E-15	6.748322E-17
4.601590E+03	5.810832E-15	6.789787E-17
4.611528E+03	5.872878E-15	6.822136E-17
4.621467E+03	5.926076E-15	6.844807E-17
4.631406E+03	5.970090E-15	6.857521E-17
4.641344E+03	6.004878E-15	6.860328E-17
4.651283E+03	6.030575E-15	6.853468E-17
4.661222E+03	6.047411E-15	6.837273E-17
4.671160E+03	6.056043E-15	6.812540E-17
4.681099E+03	6.057034E-15	6.779942E-17
4.691038E+03	6.051197E-15	6.740409E-17
4.700976E+03	6.039452E-15	6.694973E-17
4.710915E+03	6.022768E-15	6.644698E-17
4.720853E+03	6.002099E-15	6.590610E-17
4.730792E+03	5.978314E-15	6.533628E-17
4.740731E+03	5.952372E-15	6.474750E-17
4.750669E+03	5.925043E-15	6.414755E-17
4.760608E+03	5.896990E-15	6.354297E-17
4.770547E+03	5.868867E-15	6.294009E-17
4.780485E+03	5.841054E-15	6.234222E-17
4.790424E+03	5.813911E-15	6.175246E-17
4.800363E+03	5.787758E-15	6.117343E-17
4.810301E+03	5.762633E-15	6.060477E-17
4.820240E+03	5.738598E-15	6.004641E-17
4.830178E+03	5.715573E-15	5.949681E-17
4.840117E+03	5.693486E-15	5.895459E-17
4.850056E+03	5.672205E-15	5.841780E-17
4.859994E+03	5.651536E-15	5.788394E-17
4.869933E+03	5.631217E-15	5.734985E-17
4.879872E+03	5.611173E-15	5.681440E-17
4.889810E+03	5.591245E-15	5.627568E-17
4.899749E+03	5.571285E-15	5.573195E-17
4.909688E+03	5.551372E-15	5.518381E-17
4.919626E+03	5.531458E-15	5.463062E-17
4.929565E+03	5.511800E-15	5.407480E-17
4.939504E+03	5.492651E-15	5.351868E-17
4.949442E+03	5.474259E-15	5.296452E-17
4.959381E+03	5.457237E-15	5.241807E-17
4.969319E+03	5.442028E-15	5.188328E-17
4.979258E+03	5.429317E-15	5.136632E-17
4.989197E+03	5.419807E-15	5.087334E-17
4.999135E+03	5.414203E-15	5.041031E-17
5.009074E+03	5.413353E-15	4.998431E-17
5.019013E+03	5.418074E-15	4.960188E-17
5.028951E+03	5.429129E-15	4.926883E-17
5.038890E+03	5.447369E-15	4.899148E-17
5.048829E+03	5.473502E-15	4.877463E-17
5.058767E+03	5.508284E-15	4.862324E-17
5.068706E+03	5.552346E-15	4.854092E-17
5.078644E+03	5.606113E-15	4.852930E-17
5.088583E+03	5.670170E-15	4.859123E-17
5.098522E+03	5.744638E-15	4.872544E-17
5.108460E+03	5.829702E-15	4.893121E-17
5.118399E+03	5.925320E-15	4.920587E-17
5.128338E+03	6.031310E-15	4.954575E-17
5.138276E+03	6.147105E-15	4.994414E-17
5.148215E+03	6.272025E-15	5.039378E-17
5.158154E+03	6.405277E-15	5.088687E-17
5.168092E+03	6.545524E-15	5.141180E-17
5.178031E+03	6.691502E-15	5.195819E-17
5.187969E+03	6.841553E-15	5.251328E-17
5.197908E+03	6.993896E-15	5.306420E-17
5.207847E+03	7.146624E-15	5.359798E-17
5.217785E+03	7.297670E-15	5.410139E-17
5.227724E+03	7.445104E-15	5.456312E-17
5.237663E+03	7.586925E-15	5.497221E-17
5.247601E+03	7.721432E-15	5.532073E-17
5.257540E+03	7.846905E-15	5.560133E-17
5.267479E+03	7.962177E-15	5.581114E-17
5.277417E+03	8.066351E-15	5.594964E-17
5.287356E+03	8.158850E-15	5.601874E-17
5.297295E+03	8.239586E-15	5.602382E-17
5.307233E+03	8.308973E-15	5.597354E-17
5.317172E+03	8.367563E-15	5.587724E-17
5.327110E+03	8.416383E-15	5.574707E-17
5.337049E+03	8.456842E-15	5.559726E-17
5.346988E+03	8.490412E-15	5.544188E-17
5.356926E+03	8.518479E-15	5.529395E-17
5.366865E+03	8.542614E-15	5.516718E-17
5.376804E+03	8.563926E-15	5.507184E-17
5.386742E+03	8.583204E-15	5.501570E-17
5.396681E+03	8.600292E-15	5.499899E-17
5.406620E+03	8.614708E-15	5.501686E-17
5.416558E+03	8.625412E-15	5.506021E-17
5.426497E+03	8.631166E-15	5.511833E-17
5.436435E+03	8.630785E-15	5.518049E-17
5.446374E+03	8.623036E-15	5.523537E-17
5.456313E+03	8.606878E-15	5.527257E-17
5.466251E+03	8.581520E-15	5.528299E-17
5.476190E+03	8.546297E-15	5.525812E-17
5.486129E+03	8.500804E-15	5.519091E-17
5.496067E+03	8.445010E-15	5.507666E-17
5.506006E+03	8.378931E-15	5.491090E-17
5.515945E+03	8.303245E-15	5.469360E-17
5.525883E+03	8.218734E-15	5.442556E-17
5.535822E+03	8.126376E-15	5.410913E-17
5.545760E+03	8.027527E-15	5.374950E-17
5.555699E+03	7.923574E-15	5.335248E-17
5.565638E+03	7.816184E-15	5.292621E-17
5.575576E+03	7.707026E-15	5.247933E-17
5.585515E+03	7.597774E-15	5.202101E-17
5.595454E+03	7.490107E-15	5.156095E-17
5.605392E+03	7.385529E-15	5.110809E-17
5.615331E+03	7.285691E-15	5.067282E-17
5.625270E+03	7.191891E-15	5.026348E-17
5.635208E+03	7.105332E-15	4.988804E-17
5.645147E+03	7.027126E-15	4.955411E-17
5.655086E+03	6.958068E-15	4.926726E-17
5.665024E+03	6.898835E-15	4.903235E-17
5.674963E+03	6.850053E-15	4.885398E-17
5.684901E+03	6.811870E-15	4.873337E-17
5.694840E+03	6.784383E-15	4.867136E-17
5.704779E+03	6.767638E-15	4.866834E-17
5.714717E+03	6.761269E-15	4.872169E-17
5.724656E+03	6.764786E-15	4.882779E-17
5.734595E+03	6.777582E-15	4.898204E-17
5.744533E+03	6.798638E-15	4.917677E-17
5.754472E+03	6.827113E-15	4.940550E-17
5.764411E+03	6.861623E-15	4.965773E-17
5.774349E+03	6.900765E-15	4.992278E-17
5.784288E+03	6.943138E-15	5.018997E-17
5.794226E+03	6.986990E-15	5.044614E-17
5.804165E+03	7.030555E-15	5.067810E-17
5.814104E+03	7.072005E-15	5.087238E-17
5.824042E+03	7.109562E-15	5.101612E-17
5.833981E+03	7.141405E-15	5.109637E-17
5.843920E+03	7.165725E-15	5.110062E-17
5.853858E+03	7.180980E-15	5.101866E-17
5.863797E+03	7.185809E-15	5.084193E-17
5.873736E+03	7.178920E-15	5.056281E-17
5.883674E+03	7.159362E-15	5.017649E-17
5.893613E+03	7.126553E-15	4.968118E-17
5.903551E+03	7.080069E-15	4.907656E-17
5.913490E+03	7.020041E-15	4.836645E-17
5.923429E+03	6.946696E-15	4.755561E-17
5.933367E+03	6.860639E-15	4.665157E-17
5.943306E+03	6.762757E-15	4.566383E-17
5.953245E+03	6.654267E-15	4.460416E-17
5.963183E+03	6.536516E-15	4.348509E-17
5.973122E+03	6.410938E-15	4.231952E-17
5.983061E+03	6.279310E-15	4.112241E-17
5.992999E+03	6.143175E-15	3.990685E-17
6.002938E+03	6.004398E-15	3.868766E-17
6.012877E+03	5.864535E-15	3.747728E-17
6.022815E+03	5.725373E-15	3.628921E-17
6.032754E+03	5.588404E-15	3.513470E-17
6.042692E+03	5.455082E-15	3.402435E-17
6.052631E+03	5.326797E-15	3.296802E-17
6.062570E+03	5.204672E-15	3.197362E-17
6.072508E+03	5.089809E-15	3.104869E-17
6.082447E+03	4.983159E-15	3.019963E-17
6.092386E+03	4.885339E-15	2.943071E-17
6.102324E+03	4.797123E-15	2.874713E-17
6.112263E+03	4.718958E-15	2.815211E-17
6.122202E+03	4.651218E-15	2.764853E-17
6.132140E+03	4.594091E-15	2.723833E-17
6.142079E+03	4.547589E-15	2.692260E-17
6.152017E+03	4.511727E-15	2.670271E-17
6.161956E+03	4.486247E-15	2.657868E-17
6.171895E+03	4.470903E-15	2.655090E-17
6.181833E+03	4.465249E-15	2.661888E-17
6.191772E+03	4.468976E-15	2.678319E-17
6.201711E+03	4.481535E-15	2.704304E-17
6.211649E+03	4.502364E-15	2.739617E-17
6.221588E+03	4.530844E-15	2.783923E-17
6.231527E+03	4.566315E-15	2.836865E-17
6.241465E+03	4.608146E-15	2.898105E-17
6.251404E+03	4.655514E-15	2.967176E-17
6.261342E+03	4.707900E-15	3.043790E-17
6.271281E+03	4.764499E-15	3.127463E-17
6.281220E+03	4.824725E-15	3.217828E-17
6.291158E+03	4.887970E-15	3.314485E-17
6.301097E+03	4.953675E-15	3.417042E-17
6.311036E+03	5.021332E-15	3.525116E-17
6.320974E+03	5.090548E-15	3.638383E-17
6.330913E+03	5.160833E-15	3.756427E-17
6.340852E+03	5.231924E-15	3.878975E-17
6.350790E+03	5.303272E-15	4.005523E-17
6.360729E+03	5.374493E-15	4.135661E-17
6.370667E+03	5.445049E-15	4.268834E-17
6.380606E+03	5.514293E-15	4.404373E-17
6.390545E+03	5.581551E-15	4.541542E-17
6.400483E+03	5.645769E-15	4.679249E-17
6.410422E+03	5.706287E-15	4.816672E-17
6.420361E+03	5.761951E-15	4.952522E-17
6.430299E+03	5.811829E-15	5.085629E-17
6.440238E+03	5.854997E-15	5.214778E-17
6.450177E+03	5.890580E-15	5.338733E-17
6.460115E+03	5.917683E-15	5.456194E-17
6.470054E+03	5.935503E-15	5.565891E-17
6.479993E+03	5.943439E-15	5.666700E-17
6.489931E+03	5.941110E-15	5.757679E-17
6.499870E+03	5.928043E-15	5.837776E-17
6.509808E+03	5.904262E-15	5.906419E-17
6.519747E+03	5.869545E-15	5.962796E-17
6.529686E+03	5.824259E-15	6.006699E-17
6.539624E+03	5.768769E-15	6.037955E-17
6.549563E+03	5.703510E-15	6.056498E-17
6.559502E+03	5.629141E-15	6.062544E-17
6.569440E+03	5.546516E-15	6.056578E-17
6.579379E+03	5.456426E-15	6.039079E-17
6.589318E+03	5.359896E-15	6.010845E-17
6.599256E+03	5.257839E-15	5.972625E-17
6.609195E+03	5.151426E-15	5.925528E-17
6.619133E+03	5.041519E-15	5.870382E-17
6.629072E+03	4.929195E-15	5.808326E-17
6.639011E+03	4.815415E-15	5.740430E-17
6.648949E+03	4.701088E-15	5.667763E-17
6.658888E+03	4.587125E-15	5.591452E-17
6.668827E+03	4.474160E-15	5.512333E-17
6.678765E+03	4.363018E-15	5.431522E-17
6.688704E+03	4.254305E-15	5.349897E-17
6.698643E+03	4.148476E-15	5.268183E-17
6.708581E+03	4.046035E-15	5.187184E-17
6.718520E+03	3.947280E-15	5.107465E-17
6.728458E+03	3.852556E-15	5.029661E-17
6.738397E+03	3.762077E-15	4.954249E-17
6.748336E+03	3.675992E-15	4.881626E-17
6.758274E+03	3.594395E-15	4.812116E-17
6.768213E+03	3.517271E-15	4.745896E-17
6.778152E+03	3.444729E-15	4.683305E-17
6.788090E+03	3.376675E-15	4.624402E-17
6.798029E+03	3.313034E-15	4.569265E-17
6.807968E+03	3.253658E-15	4.517858E-17
6.817906E+03	3.198585E-15	4.470394E-17
6.827845E+03	3.147521E-15	4.426618E-17
6.837784E+03	3.100421E-15	4.386606E-17
6.847722E+03	3.057029E-15	4.350127E-17
6.857661E+03	3.017283E-15	4.317215E-17
6.867599E+03	2.981018E-15	4.287746E-17
6.877538E+03	2.947971E-15	4.261444E-17
6.887477E+03	2.918076E-15	4.238309E-17
6.897415E+03	2.891176E-15	4.218194E-17
6.907354E+03	2.867017E-15	4.200808E-17
6.917293E+03	2.845547E-15	4.186142E-17
6.927231E+03	2.826622E-15	4.174046E-17
6.937170E+03	2.810057E-15	4.164300E-17
6.947109E+03	2.795722E-15	4.156759E-17
6.957047E+03	2.783492E-15	4.151278E-17
6.966986E+03	2.773298E-15	4.147790E-17
6.976924E+03	2.764976E-15	4.146083E-17
6.986863E+03	2.758469E-15	4.146094E-17
6.996802E+03	2.753624E-15	4.147614E-17
7.006740E+03	2.750389E-15	4.150584E-17
7.016679E+03	2.748618E-15	4.154796E-17
7.026618E+03	2.748215E-15	4.160113E-17
7.036556E+03	2.749134E-15	4.166474E-17
7.046495E+03	2.751233E-15	4.173663E-17
7.056434E+03	2.754467E-15	4.181614E-17
7.066372E+03	2.758692E-15	4.190107E-17
7.076311E+03	2.763861E-15	4.199066E-17
7.086249E+03	2.769878E-15	4.208340E-17
7.096188E+03	2.776596E-15	4.217695E-17
7.106127E+03	2.783914E-15	4.226970E-17
7.116065E+03	2.791832E-15	4.236156E-17
7.126004E+03	2.800094E-15	4.244853E-17
7.135943E+03	2.808751E-15	4.253128E-17
7.145881E+03	2.817647E-15	4.260735E-17
7.155820E+03	2.826624E-15	4.267422E-17
7.165759E+03	2.835682E-15	4.273182E-17
7.175697E+03	2.844608E-15	4.277684E-17
7.185636E+03	2.853408E-15	4.280930E-17
7.195575E+03	2.861925E-15	4.282679E-17
7.205513E+03	2.870116E-15	4.282863E-17
7.215452E+03	2.877829E-15	4.281254E-17
7.225390E+03	2.885031E-15	4.277804E-17
7.235329E+03	2.891638E-15	4.272392E-17
7.245268E+03	2.897632E-15	4.264997E-17
7.255206E+03	2.902888E-15	4.255445E-17
7.265145E+03	2.907407E-15	4.243749E-17
7.275084E+03	2.911143E-15	4.229858E-17
7.285022E+03	2.914063E-15	4.213739E-17
7.294961E+03	2.916204E-15	4.195469E-17
7.304900E+03	2.917623E-15	4.175148E-17
7.314838E+03	2.918266E-15	4.152724E-17
7.324777E+03	2.918218E-15	4.128341E-17
7.334715E+03	2.917515E-15	4.102079E-17
7.344654E+03	2.916270E-15	4.074119E-17
7.354593E+03	2.914546E-15	4.044576E-17
7.364531E+03	2.912420E-15	4.013584E-17
7.374470E+03	2.909918E-15	3.981202E-17
7.384409E+03	2.907257E-15	3.947751E-17
7.394347E+03	2.904417E-15	3.913226E-17
7.404286E+03	2.901504E-15	3.877792E-17
7.414225E+03	2.898692E-15	3.841698E-17
7.424163E+03	2.896028E-15	3.805024E-17
7.434102E+03	2.893561E-15	3.767849E-17
7.444040E+03	2.891397E-15	3.730324E-17
7.453979E+03	2.889575E-15	3.692512E-17
7.463918E+03	2.888252E-15	3.654620E-17
7.473856E+03	2.887387E-15	3.616607E-17
7.483795E+03	2.887120E-15	3.578653E-17
7.493734E+03	2.887516E-15	3.540843E-17
7.503672E+03	2.888503E-15	3.503094E-17
7.513611E+03	2.890121E-15	3.465460E-17
7.523550E+03	2.892461E-15	3.428060E-17
7.533488E+03	2.895543E-15	3.390919E-17
7.543427E+03	2.899240E-15	3.353901E-17
7.553366E+03	2.903611E-15	3.317087E-17
7.563304E+03	2.908636E-15	3.280470E-17
7.573243E+03	2.914284E-15	3.244037E-17
7.583181E+03	2.920518E-15	3.207771E-17
7.593120E+03	2.927225E-15	3.171580E-17
7.603059E+03	2.934411E-15	3.135515E-17
7.612997E+03	2.941949E-15	3.099484E-17
7.622936E+03	2.949766E-15	3.063471E-17
7.632875E+03	2.957852E-15	3.027533E-17
7.642813E+03	2.966123E-15	2.991659E-17
7.652752E+03	2.974422E-15	2.955782E-17
7.662691E+03	2.982651E-15	2.919904E-17
7.672629E+03	2.990775E-15	2.884108E-17
7.682568E+03	2.998683E-15	2.848412E-17
7.692506E+03	3.006186E-15	2.812779E-17
7.702445E+03	3.013151E-15	2.777243E-17
7.712384E+03	3.019508E-15	2.741913E-17
