#wls	flux	fluxerr
1.590182E+03	6.445449E-16	3.215328E-17
1.629937E+03	5.569593E-16	2.752068E-17
1.669691E+03	4.790804E-16	2.344383E-17
1.709446E+03	4.105543E-16	1.989282E-17
1.749200E+03	3.508909E-16	1.683161E-17
1.788955E+03	2.991383E-16	1.420289E-17
1.828710E+03	2.543664E-16	1.195199E-17
1.868464E+03	2.156615E-16	1.002663E-17
1.908219E+03	1.823013E-16	8.384985E-18
1.947973E+03	1.536235E-16	6.989252E-18
1.987728E+03	1.293306E-16	5.819262E-18
2.027482E+03	1.093588E-16	4.865749E-18
2.067237E+03	9.392903E-17	4.132035E-18
2.106991E+03	8.334213E-17	3.624430E-18
2.146746E+03	7.773784E-17	3.341682E-18
2.186501E+03	7.695442E-17	3.269448E-18
2.226255E+03	8.058657E-17	3.383481E-18
2.266010E+03	8.823788E-17	3.660704E-18
2.305764E+03	9.976434E-17	4.089190E-18
2.345519E+03	1.152504E-16	4.666562E-18
2.385273E+03	1.351101E-16	5.403438E-18
2.425028E+03	1.599254E-16	6.316256E-18
2.464782E+03	1.903926E-16	7.424708E-18
2.504537E+03	2.272006E-16	8.746806E-18
2.544292E+03	2.708277E-16	1.029115E-17
2.584046E+03	3.214685E-16	1.205469E-17
2.623801E+03	3.788053E-16	1.401504E-17
2.663555E+03	4.421310E-16	1.613614E-17
2.703310E+03	5.105325E-16	1.837597E-17
2.743064E+03	5.825460E-16	2.067478E-17
2.782819E+03	6.565129E-16	2.296897E-17
2.822573E+03	7.304176E-16	2.518602E-17
2.862328E+03	8.021118E-16	2.725303E-17
2.902083E+03	8.695608E-16	2.910535E-17
2.941837E+03	9.310611E-16	3.069344E-17
2.981592E+03	9.854641E-16	3.198932E-17
2.991530E+03	9.978995E-16	3.226709E-17
3.001469E+03	1.009815E-15	3.252498E-17
3.011408E+03	1.021241E-15	3.276415E-17
3.021346E+03	1.032177E-15	3.298477E-17
3.031285E+03	1.042739E-15	3.319068E-17
3.041223E+03	1.052845E-15	3.337945E-17
3.051162E+03	1.062607E-15	3.355476E-17
3.061101E+03	1.072082E-15	3.371851E-17
3.071039E+03	1.081199E-15	3.386861E-17
3.080978E+03	1.089979E-15	3.400578E-17
3.090917E+03	1.098400E-15	3.412948E-17
3.100855E+03	1.106485E-15	3.424056E-17
3.110794E+03	1.114177E-15	3.433736E-17
3.120733E+03	1.121544E-15	3.442211E-17
3.130671E+03	1.128494E-15	3.449210E-17
3.140610E+03	1.135139E-15	3.455091E-17
3.150549E+03	1.141431E-15	3.459717E-17
3.160487E+03	1.147365E-15	3.463086E-17
3.170426E+03	1.152978E-15	3.465320E-17
3.180364E+03	1.158305E-15	3.466538E-17
3.190303E+03	1.163308E-15	3.466635E-17
3.200242E+03	1.168026E-15	3.465740E-17
3.210180E+03	1.172463E-15	3.463871E-17
3.220119E+03	1.176696E-15	3.461267E-17
3.230058E+03	1.180693E-15	3.457839E-17
3.239996E+03	1.184461E-15	3.453615E-17
3.249935E+03	1.188077E-15	3.448831E-17
3.259874E+03	1.191514E-15	3.443411E-17
3.269812E+03	1.194816E-15	3.437490E-17
3.279751E+03	1.197993E-15	3.431098E-17
3.289689E+03	1.201090E-15	3.424368E-17
3.299628E+03	1.204119E-15	3.417334E-17
3.309567E+03	1.207123E-15	3.410126E-17
3.319505E+03	1.210084E-15	3.402690E-17
3.329444E+03	1.213081E-15	3.395249E-17
3.339383E+03	1.216097E-15	3.387753E-17
3.349321E+03	1.219181E-15	3.380336E-17
3.359260E+03	1.222350E-15	3.373041E-17
3.369199E+03	1.225594E-15	3.365840E-17
3.379137E+03	1.228994E-15	3.358947E-17
3.389076E+03	1.232515E-15	3.352264E-17
3.399014E+03	1.236240E-15	3.346008E-17
3.408953E+03	1.240140E-15	3.340092E-17
3.418892E+03	1.244274E-15	3.334667E-17
3.428830E+03	1.248618E-15	3.329664E-17
3.438769E+03	1.253239E-15	3.325244E-17
3.448708E+03	1.258148E-15	3.321430E-17
3.458646E+03	1.263338E-15	3.318191E-17
3.468585E+03	1.268869E-15	3.315672E-17
3.478524E+03	1.274757E-15	3.313900E-17
3.488462E+03	1.281025E-15	3.312919E-17
3.498401E+03	1.287747E-15	3.312907E-17
3.508340E+03	1.294934E-15	3.313865E-17
3.518278E+03	1.302670E-15	3.315993E-17
3.528217E+03	1.310951E-15	3.319251E-17
3.538155E+03	1.319896E-15	3.323916E-17
3.548094E+03	1.329510E-15	3.329973E-17
3.558033E+03	1.339877E-15	3.337597E-17
3.567971E+03	1.351060E-15	3.346915E-17
3.577910E+03	1.363107E-15	3.358004E-17
3.587849E+03	1.376069E-15	3.370957E-17
3.597787E+03	1.390072E-15	3.386039E-17
3.607726E+03	1.405227E-15	3.403467E-17
3.617665E+03	1.421666E-15	3.423515E-17
3.627603E+03	1.439531E-15	3.446465E-17
3.637542E+03	1.458969E-15	3.472600E-17
3.647480E+03	1.480127E-15	3.502205E-17
3.657419E+03	1.503164E-15	3.535572E-17
3.667358E+03	1.528260E-15	3.573042E-17
3.677296E+03	1.555578E-15	3.614903E-17
3.687235E+03	1.585260E-15	3.661383E-17
3.697174E+03	1.617491E-15	3.712805E-17
3.707112E+03	1.652434E-15	3.769424E-17
3.717051E+03	1.690219E-15	3.831415E-17
3.726990E+03	1.731038E-15	3.899081E-17
3.736928E+03	1.774973E-15	3.972473E-17
3.746867E+03	1.822158E-15	4.051746E-17
3.756805E+03	1.872676E-15	4.136938E-17
3.766744E+03	1.926555E-15	4.227959E-17
3.776683E+03	1.983858E-15	4.324793E-17
3.786621E+03	2.044504E-15	4.427105E-17
3.796560E+03	2.108460E-15	4.534675E-17
3.806499E+03	2.175534E-15	4.646939E-17
3.816437E+03	2.245551E-15	4.763380E-17
3.826376E+03	2.318244E-15	4.883300E-17
3.836315E+03	2.393312E-15	5.005941E-17
3.846253E+03	2.470300E-15	5.130248E-17
3.856192E+03	2.548813E-15	5.255311E-17
3.866131E+03	2.628280E-15	5.379891E-17
3.876069E+03	2.708211E-15	5.502939E-17
3.886008E+03	2.788024E-15	5.623258E-17
3.895946E+03	2.867054E-15	5.739516E-17
3.905885E+03	2.944799E-15	5.850751E-17
3.915824E+03	3.020610E-15	5.955734E-17
3.925762E+03	3.093938E-15	6.053477E-17
3.935701E+03	3.164353E-15	6.143261E-17
3.945640E+03	3.231353E-15	6.224249E-17
3.955578E+03	3.294620E-15	6.295988E-17
3.965517E+03	3.353922E-15	6.358217E-17
3.975456E+03	3.409012E-15	6.410654E-17
3.985394E+03	3.459886E-15	6.453489E-17
3.995333E+03	3.506560E-15	6.486950E-17
4.005271E+03	3.549061E-15	6.511288E-17
4.015210E+03	3.587686E-15	6.527244E-17
4.025149E+03	3.622609E-15	6.535320E-17
4.035087E+03	3.654139E-15	6.536245E-17
4.045026E+03	3.682701E-15	6.530946E-17
4.054965E+03	3.708595E-15	6.520096E-17
4.064903E+03	3.732250E-15	6.504579E-17
4.074842E+03	3.754057E-15	6.485188E-17
4.084781E+03	3.774393E-15	6.462668E-17
4.094719E+03	3.793614E-15	6.437709E-17
4.104658E+03	3.812045E-15	6.410923E-17
4.114596E+03	3.829933E-15	6.382777E-17
4.124535E+03	3.847561E-15	6.353783E-17
4.134474E+03	3.865089E-15	6.324232E-17
4.144412E+03	3.882706E-15	6.294459E-17
4.154351E+03	3.900440E-15	6.264526E-17
4.164290E+03	3.918394E-15	6.234613E-17
4.174228E+03	3.936591E-15	6.204774E-17
4.184167E+03	3.954944E-15	6.174886E-17
4.194106E+03	3.973417E-15	6.144913E-17
4.204044E+03	3.991955E-15	6.114793E-17
4.213983E+03	4.010411E-15	6.084332E-17
4.223922E+03	4.028717E-15	6.053458E-17
4.233860E+03	4.046769E-15	6.022059E-17
4.243799E+03	4.064481E-15	5.990049E-17
4.253737E+03	4.081749E-15	5.957327E-17
4.263676E+03	4.098543E-15	5.923902E-17
4.273615E+03	4.114832E-15	5.889787E-17
4.283553E+03	4.130705E-15	5.855170E-17
4.293492E+03	4.146147E-15	5.820080E-17
4.303431E+03	4.161341E-15	5.784834E-17
4.313369E+03	4.176401E-15	5.749637E-17
4.323308E+03	4.191550E-15	5.714843E-17
4.333247E+03	4.207077E-15	5.680878E-17
4.343185E+03	4.223361E-15	5.648279E-17
4.353124E+03	4.241402E-15	5.618390E-17
4.363062E+03	4.262309E-15	5.592645E-17
4.373001E+03	4.287179E-15	5.572414E-17
4.382940E+03	4.317037E-15	5.558923E-17
4.392878E+03	4.352737E-15	5.553139E-17
4.402817E+03	4.395102E-15	5.555955E-17
4.412756E+03	4.444872E-15	5.568127E-17
4.422694E+03	4.502520E-15	5.590056E-17
4.432633E+03	4.568402E-15	5.621994E-17
4.442572E+03	4.642705E-15	5.663982E-17
4.452510E+03	4.725484E-15	5.715908E-17
4.462449E+03	4.816544E-15	5.777376E-17
4.472387E+03	4.915554E-15	5.847851E-17
4.482326E+03	5.022069E-15	5.926688E-17
4.492265E+03	5.135261E-15	6.012828E-17
4.502203E+03	5.254058E-15	6.104974E-17
4.512142E+03	5.377238E-15	6.201704E-17
4.522081E+03	5.503209E-15	6.301214E-17
4.532019E+03	5.630310E-15	6.401608E-17
4.541958E+03	5.756620E-15	6.500733E-17
4.551897E+03	5.880048E-15	6.596290E-17
4.561835E+03	5.998525E-15	6.686058E-17
4.571774E+03	6.110123E-15	6.768019E-17
4.581713E+03	6.212831E-15	6.840096E-17
4.591651E+03	6.304954E-15	6.900597E-17
4.601590E+03	6.385087E-15	6.948168E-17
4.611528E+03	6.452185E-15	6.981861E-17
4.621467E+03	6.505539E-15	7.001099E-17
4.631406E+03	6.544876E-15	7.005765E-17
4.641344E+03	6.570398E-15	6.996245E-17
4.651283E+03	6.582651E-15	6.973267E-17
4.661222E+03	6.582402E-15	6.937771E-17
4.671160E+03	6.570959E-15	6.891237E-17
4.681099E+03	6.549586E-15	6.835069E-17
4.691038E+03	6.519818E-15	6.770922E-17
4.700976E+03	6.483319E-15	6.700552E-17
4.710915E+03	6.441719E-15	6.625646E-17
4.720853E+03	6.396597E-15	6.547810E-17
4.730792E+03	6.349340E-15	6.468428E-17
4.740731E+03	6.301348E-15	6.388872E-17
4.750669E+03	6.253719E-15	6.310186E-17
4.760608E+03	6.207346E-15	6.233195E-17
4.770547E+03	6.163048E-15	6.158633E-17
4.780485E+03	6.121237E-15	6.086820E-17
4.790424E+03	6.082276E-15	6.018023E-17
4.800363E+03	6.046374E-15	5.952356E-17
4.810301E+03	6.013424E-15	5.889618E-17
4.820240E+03	5.983280E-15	5.829581E-17
4.830178E+03	5.955619E-15	5.771847E-17
4.840117E+03	5.930072E-15	5.715986E-17
4.850056E+03	5.906211E-15	5.661518E-17
4.859994E+03	5.883507E-15	5.607885E-17
4.869933E+03	5.861359E-15	5.554468E-17
4.879872E+03	5.839369E-15	5.500861E-17
4.889810E+03	5.817070E-15	5.446604E-17
4.899749E+03	5.794034E-15	5.391286E-17
4.909688E+03	5.770114E-15	5.334773E-17
4.919626E+03	5.745081E-15	5.276862E-17
4.929565E+03	5.719090E-15	5.217707E-17
4.939504E+03	5.692358E-15	5.157522E-17
4.949442E+03	5.665166E-15	5.096579E-17
4.959381E+03	5.638250E-15	5.035547E-17
4.969319E+03	5.612233E-15	4.974984E-17
4.979258E+03	5.588051E-15	4.915709E-17
4.989197E+03	5.566706E-15	4.858573E-17
4.999135E+03	5.549248E-15	4.804446E-17
5.009074E+03	5.536898E-15	4.754314E-17
5.019013E+03	5.530867E-15	4.709121E-17
5.028951E+03	5.532320E-15	4.669735E-17
5.038890E+03	5.542509E-15	4.637066E-17
5.048829E+03	5.562537E-15	4.611858E-17
5.058767E+03	5.593543E-15	4.594853E-17
5.068706E+03	5.636518E-15	4.586635E-17
5.078644E+03	5.692224E-15	4.587572E-17
5.088583E+03	5.761548E-15	4.598111E-17
5.098522E+03	5.844872E-15	4.618271E-17
5.108460E+03	5.942586E-15	4.648070E-17
5.118399E+03	6.054784E-15	4.687286E-17
5.128338E+03	6.181332E-15	4.735529E-17
5.138276E+03	6.321598E-15	4.792046E-17
5.148215E+03	6.474707E-15	4.855929E-17
5.158154E+03	6.639521E-15	4.926122E-17
5.168092E+03	6.814176E-15	5.001089E-17
5.178031E+03	6.996708E-15	5.079299E-17
5.187969E+03	7.184576E-15	5.158893E-17
5.197908E+03	7.374944E-15	5.237903E-17
5.207847E+03	7.564690E-15	5.314276E-17
5.217785E+03	7.750447E-15	5.385904E-17
5.227724E+03	7.928966E-15	5.450887E-17
5.237663E+03	8.096933E-15	5.507395E-17
5.247601E+03	8.251475E-15	5.554003E-17
5.257540E+03	8.389915E-15	5.589507E-17
5.267479E+03	8.510399E-15	5.613323E-17
5.277417E+03	8.611714E-15	5.625324E-17
5.287356E+03	8.693332E-15	5.625848E-17
5.297295E+03	8.755652E-15	5.615815E-17
5.307233E+03	8.799927E-15	5.596653E-17
5.317172E+03	8.827887E-15	5.570033E-17
5.327110E+03	8.842018E-15	5.538029E-17
5.337049E+03	8.845326E-15	5.502953E-17
5.346988E+03	8.840994E-15	5.467143E-17
5.356926E+03	8.832098E-15	5.432793E-17
5.366865E+03	8.821889E-15	5.402133E-17
5.376804E+03	8.813228E-15	5.377101E-17
5.386742E+03	8.808694E-15	5.359408E-17
5.396681E+03	8.808057E-15	5.348839E-17
5.406620E+03	8.809245E-15	5.343902E-17
5.416558E+03	8.810288E-15	5.343155E-17
5.426497E+03	8.809121E-15	5.345082E-17
5.436435E+03	8.803613E-15	5.348111E-17
5.446374E+03	8.791528E-15	5.350586E-17
5.456313E+03	8.770800E-15	5.350923E-17
5.466251E+03	8.739726E-15	5.347734E-17
5.476190E+03	8.696846E-15	5.339750E-17
5.486129E+03	8.641149E-15	5.325955E-17
5.496067E+03	8.572216E-15	5.305679E-17
5.506006E+03	8.489900E-15	5.278410E-17
5.515945E+03	8.394917E-15	5.244178E-17
5.525883E+03	8.288303E-15	5.203222E-17
5.535822E+03	8.171425E-15	5.156017E-17
5.545760E+03	8.046170E-15	5.103399E-17
5.555699E+03	7.914514E-15	5.046302E-17
5.565638E+03	7.778775E-15	4.985929E-17
5.575576E+03	7.641256E-15	4.923523E-17
5.585515E+03	7.504262E-15	4.860386E-17
5.595454E+03	7.370032E-15	4.797825E-17
5.605392E+03	7.240619E-15	4.737080E-17
5.615331E+03	7.118111E-15	4.679455E-17
5.625270E+03	7.004186E-15	4.626026E-17
5.635208E+03	6.900377E-15	4.577808E-17
5.645147E+03	6.808057E-15	4.535732E-17
5.655086E+03	6.728223E-15	4.500501E-17
5.665024E+03	6.661711E-15	4.472722E-17
5.674963E+03	6.609262E-15	4.452943E-17
5.684901E+03	6.571110E-15	4.441376E-17
5.694840E+03	6.547402E-15	4.438165E-17
5.704779E+03	6.538193E-15	4.443386E-17
5.714717E+03	6.543100E-15	4.456808E-17
5.724656E+03	6.561577E-15	4.478072E-17
5.734595E+03	6.592906E-15	4.506689E-17
5.744533E+03	6.635913E-15	4.541841E-17
5.754472E+03	6.689530E-15	4.582770E-17
5.764411E+03	6.752088E-15	4.628291E-17
5.774349E+03	6.821819E-15	4.677141E-17
5.784288E+03	6.896878E-15	4.728001E-17
5.794226E+03	6.975004E-15	4.779261E-17
5.804165E+03	7.053844E-15	4.829254E-17
5.814104E+03	7.130919E-15	4.876238E-17
5.824042E+03	7.203789E-15	4.918512E-17
5.833981E+03	7.269912E-15	4.954332E-17
5.843920E+03	7.326770E-15	4.981996E-17
5.853858E+03	7.372142E-15	5.000044E-17
5.863797E+03	7.404041E-15	5.007207E-17
5.873736E+03	7.420622E-15	5.002359E-17
5.883674E+03	7.420466E-15	4.984699E-17
5.893613E+03	7.402665E-15	4.953815E-17
5.903551E+03	7.366583E-15	4.909509E-17
5.913490E+03	7.312291E-15	4.852089E-17
5.923429E+03	7.240068E-15	4.782026E-17
5.933367E+03	7.150712E-15	4.700148E-17
5.943306E+03	7.045418E-15	4.607557E-17
5.953245E+03	6.925790E-15	4.505615E-17
5.963183E+03	6.793650E-15	4.395820E-17
5.973122E+03	6.650946E-15	4.279729E-17
5.983061E+03	6.500007E-15	4.159118E-17
5.992999E+03	6.342926E-15	4.035583E-17
6.002938E+03	6.182117E-15	3.910883E-17
6.012877E+03	6.019659E-15	3.786527E-17
6.022815E+03	5.857829E-15	3.664112E-17
6.032754E+03	5.698568E-15	3.544981E-17
6.042692E+03	5.543735E-15	3.430393E-17
6.052631E+03	5.395082E-15	3.321505E-17
6.062570E+03	5.254043E-15	3.219252E-17
6.072508E+03	5.121990E-15	3.124510E-17
6.082447E+03	5.000097E-15	3.038015E-17
6.092386E+03	4.889164E-15	2.960271E-17
6.102324E+03	4.790109E-15	2.891848E-17
6.112263E+03	4.703485E-15	2.833105E-17
6.122202E+03	4.629732E-15	2.784341E-17
6.132140E+03	4.569065E-15	2.745740E-17
6.142079E+03	4.521489E-15	2.717383E-17
6.152017E+03	4.486966E-15	2.699353E-17
6.161956E+03	4.465141E-15	2.691574E-17
6.171895E+03	4.455630E-15	2.693984E-17
6.181833E+03	4.457798E-15	2.706401E-17
6.191772E+03	4.471099E-15	2.728727E-17
6.201711E+03	4.494697E-15	2.760709E-17
6.211649E+03	4.527706E-15	2.801972E-17
6.221588E+03	4.569146E-15	2.852006E-17
6.231527E+03	4.617969E-15	2.910254E-17
6.241465E+03	4.673149E-15	2.976166E-17
6.251404E+03	4.733475E-15	3.049055E-17
6.261342E+03	4.798072E-15	3.128427E-17
6.271281E+03	4.865834E-15	3.213609E-17
6.281220E+03	4.935944E-15	3.304087E-17
6.291158E+03	5.007657E-15	3.399364E-17
6.301097E+03	5.080385E-15	3.499016E-17
6.311036E+03	5.153693E-15	3.602702E-17
6.320974E+03	5.227370E-15	3.710214E-17
6.330913E+03	5.301189E-15	3.821320E-17
6.340852E+03	5.375222E-15	3.935991E-17
6.350790E+03	5.449302E-15	4.054022E-17
6.360729E+03	5.523468E-15	4.175350E-17
6.370667E+03	5.597512E-15	4.299723E-17
6.380606E+03	5.670821E-15	4.426559E-17
6.390545E+03	5.742687E-15	4.555172E-17
6.400483E+03	5.811963E-15	4.684480E-17
6.410422E+03	5.877856E-15	4.813631E-17
6.420361E+03	5.939009E-15	4.941260E-17
6.430299E+03	5.994248E-15	5.066084E-17
6.440238E+03	6.042393E-15	5.186752E-17
6.450177E+03	6.082303E-15	5.301880E-17
6.460115E+03	6.112834E-15	5.410024E-17
6.470054E+03	6.132962E-15	5.509785E-17
6.479993E+03	6.141906E-15	5.599934E-17
6.489931E+03	6.139158E-15	5.679456E-17
6.499870E+03	6.124154E-15	5.747263E-17
6.509808E+03	6.096896E-15	5.802781E-17
6.519747E+03	6.057176E-15	5.845241E-17
6.529686E+03	6.005436E-15	5.874510E-17
6.539624E+03	5.942149E-15	5.890519E-17
6.549563E+03	5.867897E-15	5.893344E-17
6.559502E+03	5.783511E-15	5.883359E-17
6.569440E+03	5.690048E-15	5.861224E-17
6.579379E+03	5.588503E-15	5.827602E-17
6.589318E+03	5.480118E-15	5.783482E-17
6.599256E+03	5.366015E-15	5.729795E-17
6.609195E+03	5.247572E-15	5.667819E-17
6.619133E+03	5.125838E-15	5.598547E-17
6.629072E+03	5.002059E-15	5.523255E-17
6.639011E+03	4.877343E-15	5.443128E-17
6.648949E+03	4.752722E-15	5.359325E-17
6.658888E+03	4.629207E-15	5.273037E-17
6.668827E+03	4.507502E-15	5.185150E-17
6.678765E+03	4.388486E-15	5.096786E-17
6.688704E+03	4.272787E-15	5.008816E-17
6.698643E+03	4.160872E-15	4.921946E-17
6.708581E+03	4.053232E-15	4.836932E-17
6.718520E+03	3.950140E-15	4.754283E-17
6.728458E+03	3.851907E-15	4.674563E-17
6.738397E+03	3.758699E-15	4.598171E-17
6.748336E+03	3.670612E-15	4.525418E-17
6.758274E+03	3.587679E-15	4.456537E-17
6.768213E+03	3.509824E-15	4.391623E-17
6.778152E+03	3.437093E-15	4.330911E-17
6.788090E+03	3.369326E-15	4.274376E-17
6.798029E+03	3.306386E-15	4.222008E-17
6.807968E+03	3.248062E-15	4.173694E-17
6.817906E+03	3.194331E-15	4.129546E-17
6.827845E+03	3.144844E-15	4.089254E-17
6.837784E+03	3.099503E-15	4.052812E-17
6.847722E+03	3.058000E-15	4.019933E-17
6.857661E+03	3.020230E-15	3.990583E-17
6.867599E+03	2.985984E-15	3.964584E-17
6.877538E+03	2.954964E-15	3.941628E-17
6.887477E+03	2.927075E-15	3.921661E-17
6.897415E+03	2.902128E-15	3.904505E-17
6.907354E+03	2.879849E-15	3.889853E-17
6.917293E+03	2.860168E-15	3.877665E-17
6.927231E+03	2.842927E-15	3.867776E-17
6.937170E+03	2.827931E-15	3.859965E-17
6.947109E+03	2.815046E-15	3.854084E-17
6.957047E+03	2.804143E-15	3.849991E-17
6.966986E+03	2.795155E-15	3.847621E-17
6.976924E+03	2.787922E-15	3.846777E-17
6.986863E+03	2.782392E-15	3.847406E-17
6.996802E+03	2.778417E-15	3.849321E-17
7.006740E+03	2.775954E-15	3.852474E-17
7.016679E+03	2.774865E-15	3.856681E-17
7.026618E+03	2.775060E-15	3.861826E-17
7.036556E+03	2.776502E-15	3.867859E-17
7.046495E+03	2.779054E-15	3.874592E-17
7.056434E+03	2.782675E-15	3.881966E-17
7.066372E+03	2.787225E-15	3.889782E-17
7.076311E+03	2.792661E-15	3.897979E-17
7.086249E+03	2.798888E-15	3.906415E-17
7.096188E+03	2.805756E-15	3.914875E-17
7.106127E+03	2.813164E-15	3.923209E-17
7.116065E+03	2.821113E-15	3.931409E-17
7.126004E+03	2.829340E-15	3.939102E-17
7.135943E+03	2.837894E-15	3.946346E-17
7.145881E+03	2.846614E-15	3.952907E-17
7.155820E+03	2.855336E-15	3.958549E-17
7.165759E+03	2.864054E-15	3.963258E-17
7.175697E+03	2.872548E-15	3.966721E-17
7.185636E+03	2.880814E-15	3.968930E-17
7.195575E+03	2.888686E-15	3.969652E-17
7.205513E+03	2.896111E-15	3.968813E-17
7.215452E+03	2.902924E-15	3.966189E-17
7.225390E+03	2.909079E-15	3.961722E-17
7.235329E+03	2.914481E-15	3.955288E-17
7.245268E+03	2.919096E-15	3.946851E-17
7.255206E+03	2.922787E-15	3.936240E-17
7.265145E+03	2.925545E-15	3.923456E-17
7.275084E+03	2.927312E-15	3.908443E-17
7.285022E+03	2.928049E-15	3.891167E-17
7.294961E+03	2.927788E-15	3.871700E-17
7.304900E+03	2.926583E-15	3.850136E-17
7.314838E+03	2.924386E-15	3.826440E-17
7.324777E+03	2.921285E-15	3.800758E-17
7.334715E+03	2.917328E-15	3.773185E-17
7.344654E+03	2.912643E-15	3.743914E-17
7.354593E+03	2.907312E-15	3.713083E-17
7.364531E+03	2.901434E-15	3.680849E-17
7.374470E+03	2.895060E-15	3.647306E-17
7.384409E+03	2.888435E-15	3.612791E-17
7.394347E+03	2.881570E-15	3.577342E-17
7.404286E+03	2.874602E-15	3.541154E-17
7.414225E+03	2.867733E-15	3.504497E-17
7.424163E+03	2.861043E-15	3.467488E-17
7.434102E+03	2.854611E-15	3.430235E-17
7.444040E+03	2.848569E-15	3.392913E-17
7.453979E+03	2.842982E-15	3.355609E-17
7.463918E+03	2.838025E-15	3.318538E-17
7.473856E+03	2.833679E-15	3.281682E-17
7.483795E+03	2.830095E-15	3.245221E-17
7.493734E+03	2.827346E-15	3.209239E-17
7.503672E+03	2.825369E-15	3.173666E-17
7.513611E+03	2.824207E-15	3.138553E-17
7.523550E+03	2.823948E-15	3.103996E-17
7.533488E+03	2.824603E-15	3.070014E-17
7.543427E+03	2.826046E-15	3.036469E-17
7.553366E+03	2.828322E-15	3.003419E-17
7.563304E+03	2.831401E-15	2.970843E-17
7.573243E+03	2.835244E-15	2.938714E-17
7.583181E+03	2.839802E-15	2.906998E-17
7.593120E+03	2.844954E-15	2.875598E-17
7.603059E+03	2.850702E-15	2.844546E-17
7.612997E+03	2.856915E-15	2.813749E-17
7.622936E+03	2.863520E-15	2.783183E-17
7.632875E+03	2.870510E-15	2.752895E-17
7.642813E+03	2.877809E-15	2.722872E-17
7.652752E+03	2.885277E-15	2.693053E-17
7.662691E+03	2.892833E-15	2.663444E-17
7.672629E+03	2.900463E-15	2.634121E-17
7.682568E+03	2.908079E-15	2.605105E-17
7.692506E+03	2.915524E-15	2.576366E-17
7.702445E+03	2.922697E-15	2.547936E-17
7.712384E+03	2.929552E-15	2.519911E-17
