#wls	flux	fluxerr
1.590182E+03	8.488604E-17	5.251441E-18
1.629937E+03	8.311169E-17	5.122833E-18
1.669691E+03	8.129252E-17	4.991809E-18
1.709446E+03	7.939760E-17	4.856530E-18
1.749200E+03	7.747493E-17	4.719999E-18
1.788955E+03	7.546827E-17	4.578851E-18
1.828710E+03	7.328416E-17	4.427530E-18
1.868464E+03	7.084527E-17	4.261554E-18
1.908219E+03	6.807739E-17	4.076718E-18
1.947973E+03	6.493620E-17	3.870693E-18
1.987728E+03	6.150349E-17	3.648694E-18
2.027482E+03	5.805216E-17	3.427141E-18
2.067237E+03	5.511242E-17	3.237259E-18
2.106991E+03	5.341547E-17	3.121377E-18
2.146746E+03	5.361755E-17	3.116536E-18
2.186501E+03	5.610404E-17	3.243236E-18
2.226255E+03	6.084954E-17	3.497776E-18
2.266010E+03	6.755533E-17	3.860770E-18
2.305764E+03	7.575323E-17	4.303505E-18
2.345519E+03	8.503977E-17	4.801482E-18
2.385273E+03	9.511005E-17	5.336233E-18
2.425028E+03	1.057574E-16	5.895152E-18
2.464782E+03	1.168944E-16	6.472508E-18
2.504537E+03	1.284510E-16	7.063623E-18
2.544292E+03	1.403980E-16	7.666126E-18
2.584046E+03	1.527133E-16	8.278051E-18
2.623801E+03	1.653730E-16	8.897367E-18
2.663555E+03	1.783494E-16	9.521828E-18
2.703310E+03	1.916093E-16	1.014894E-17
2.743064E+03	2.051133E-16	1.077593E-17
2.782819E+03	2.187843E-16	1.139809E-17
2.822573E+03	2.325970E-16	1.201351E-17
2.862328E+03	2.464261E-16	1.261523E-17
2.902083E+03	2.602707E-16	1.320279E-17
2.941837E+03	2.741018E-16	1.377432E-17
2.981592E+03	2.878948E-16	1.432824E-17
2.991530E+03	2.913122E-16	1.446270E-17
3.001469E+03	2.947776E-16	1.459852E-17
3.011408E+03	2.982175E-16	1.473207E-17
3.021346E+03	3.016708E-16	1.486526E-17
3.031285E+03	3.051611E-16	1.499923E-17
3.041223E+03	3.086294E-16	1.513109E-17
3.051162E+03	3.121973E-16	1.526676E-17
3.061101E+03	3.157825E-16	1.540221E-17
3.071039E+03	3.194540E-16	1.554076E-17
3.080978E+03	3.231679E-16	1.568026E-17
3.090917E+03	3.268799E-16	1.581853E-17
3.100855E+03	3.306615E-16	1.595903E-17
3.110794E+03	3.344698E-16	1.609964E-17
3.120733E+03	3.383384E-16	1.624198E-17
3.130671E+03	3.422247E-16	1.638396E-17
3.140610E+03	3.461249E-16	1.652540E-17
3.150549E+03	3.500748E-16	1.666798E-17
3.160487E+03	3.540314E-16	1.680965E-17
3.170426E+03	3.580718E-16	1.695403E-17
3.180364E+03	3.621135E-16	1.709720E-17
3.190303E+03	3.661941E-16	1.724091E-17
3.200242E+03	3.703117E-16	1.738506E-17
3.210180E+03	3.744642E-16	1.752952E-17
3.220119E+03	3.786499E-16	1.767420E-17
3.230058E+03	3.828678E-16	1.781903E-17
3.239996E+03	3.871565E-16	1.796577E-17
3.249935E+03	3.915153E-16	1.811437E-17
3.259874E+03	3.959025E-16	1.826286E-17
3.269812E+03	4.003577E-16	1.841304E-17
3.279751E+03	4.048804E-16	1.856486E-17
3.289689E+03	4.094701E-16	1.871825E-17
3.299628E+03	4.141258E-16	1.887314E-17
3.309567E+03	4.188880E-16	1.903134E-17
3.319505E+03	4.237152E-16	1.919090E-17
3.329444E+03	4.286483E-16	1.935364E-17
3.339383E+03	4.336867E-16	1.951948E-17
3.349321E+03	4.387885E-16	1.968649E-17
3.359260E+03	4.440359E-16	1.985831E-17
3.369199E+03	4.493872E-16	2.003301E-17
3.379137E+03	4.548829E-16	2.021233E-17
3.389076E+03	4.605231E-16	2.039622E-17
3.399014E+03	4.662657E-16	2.058274E-17
3.408953E+03	4.721927E-16	2.077544E-17
3.418892E+03	4.782210E-16	2.097059E-17
3.428830E+03	4.844331E-16	2.117175E-17
3.438769E+03	4.908283E-16	2.137879E-17
3.448708E+03	4.974055E-16	2.159157E-17
3.458646E+03	5.041653E-16	2.181003E-17
3.468585E+03	5.111063E-16	2.203402E-17
3.478524E+03	5.182697E-16	2.226522E-17
3.488462E+03	5.256140E-16	2.250175E-17
3.498401E+03	5.331787E-16	2.274518E-17
3.508340E+03	5.409644E-16	2.299545E-17
3.518278E+03	5.489694E-16	2.325236E-17
3.528217E+03	5.571932E-16	2.351579E-17
3.538155E+03	5.656753E-16	2.378728E-17
3.548094E+03	5.744143E-16	2.406664E-17
3.558033E+03	5.834076E-16	2.435365E-17
3.567971E+03	5.926134E-16	2.464642E-17
3.577910E+03	6.021095E-16	2.494809E-17
3.587849E+03	6.118523E-16	2.525668E-17
3.597787E+03	6.218783E-16	2.557359E-17
3.607726E+03	6.321431E-16	2.589684E-17
3.617665E+03	6.426818E-16	2.622775E-17
3.627603E+03	6.534877E-16	2.656590E-17
3.637542E+03	6.645148E-16	2.690929E-17
3.647480E+03	6.758351E-16	2.726070E-17
3.657419E+03	6.873996E-16	2.761801E-17
3.667358E+03	6.991984E-16	2.798071E-17
3.677296E+03	7.112207E-16	2.834823E-17
3.687235E+03	7.234940E-16	2.872154E-17
3.697174E+03	7.359645E-16	2.909838E-17
3.707112E+03	7.486175E-16	2.947807E-17
3.717051E+03	7.615154E-16	2.986295E-17
3.726990E+03	7.745225E-16	3.024760E-17
3.736928E+03	7.877363E-16	3.063573E-17
3.746867E+03	8.010193E-16	3.102191E-17
3.756805E+03	8.144664E-16	3.140975E-17
3.766744E+03	8.279750E-16	3.179522E-17
3.776683E+03	8.415213E-16	3.217738E-17
3.786621E+03	8.551550E-16	3.255807E-17
3.796560E+03	8.687343E-16	3.293188E-17
3.806499E+03	8.823446E-16	3.330203E-17
3.816437E+03	8.958429E-16	3.366315E-17
3.826376E+03	9.093127E-16	3.401838E-17
3.836315E+03	9.226111E-16	3.436242E-17
3.846253E+03	9.357830E-16	3.469701E-17
3.856192E+03	9.487606E-16	3.501971E-17
3.866131E+03	9.615148E-16	3.532952E-17
3.876069E+03	9.739808E-16	3.562421E-17
3.886008E+03	9.862047E-16	3.590557E-17
3.895946E+03	9.981236E-16	3.617145E-17
3.905885E+03	1.009678E-15	3.641985E-17
3.915824E+03	1.020847E-15	3.665024E-17
3.925762E+03	1.031648E-15	3.686337E-17
3.935701E+03	1.042029E-15	3.705761E-17
3.945640E+03	1.051978E-15	3.723275E-17
3.955578E+03	1.061451E-15	3.738747E-17
3.965517E+03	1.070511E-15	3.752422E-17
3.975456E+03	1.079055E-15	3.763960E-17
3.985394E+03	1.087151E-15	3.773627E-17
3.995333E+03	1.094772E-15	3.781352E-17
4.005271E+03	1.101896E-15	3.787084E-17
4.015210E+03	1.108568E-15	3.791003E-17
4.025149E+03	1.114774E-15	3.793086E-17
4.035087E+03	1.120565E-15	3.793530E-17
4.045026E+03	1.125903E-15	3.792230E-17
4.054965E+03	1.130815E-15	3.789304E-17
4.064903E+03	1.135363E-15	3.784974E-17
4.074842E+03	1.139546E-15	3.779265E-17
4.084781E+03	1.143401E-15	3.772314E-17
4.094719E+03	1.146934E-15	3.764161E-17
4.104658E+03	1.150212E-15	3.755041E-17
4.114596E+03	1.153217E-15	3.744913E-17
4.124535E+03	1.156017E-15	3.734010E-17
4.134474E+03	1.158626E-15	3.722389E-17
4.144412E+03	1.161110E-15	3.710273E-17
4.154351E+03	1.163456E-15	3.697631E-17
4.164290E+03	1.165731E-15	3.684680E-17
4.174228E+03	1.167948E-15	3.671471E-17
4.184167E+03	1.170147E-15	3.658127E-17
4.194106E+03	1.172365E-15	3.644772E-17
4.204044E+03	1.174613E-15	3.631437E-17
4.213983E+03	1.176928E-15	3.618237E-17
4.223922E+03	1.179343E-15	3.605273E-17
4.233860E+03	1.181891E-15	3.592639E-17
4.243799E+03	1.184579E-15	3.580354E-17
4.253737E+03	1.187415E-15	3.568437E-17
4.263676E+03	1.190473E-15	3.557103E-17
4.273615E+03	1.193737E-15	3.546293E-17
4.283553E+03	1.197211E-15	3.536013E-17
4.293492E+03	1.200966E-15	3.526464E-17
4.303431E+03	1.204986E-15	3.517584E-17
4.313369E+03	1.209319E-15	3.509500E-17
4.323308E+03	1.213947E-15	3.502153E-17
4.333247E+03	1.218920E-15	3.495669E-17
4.343185E+03	1.224267E-15	3.490115E-17
4.353124E+03	1.229992E-15	3.485491E-17
4.363062E+03	1.236126E-15	3.481863E-17
4.373001E+03	1.242695E-15	3.479288E-17
4.382940E+03	1.249706E-15	3.477768E-17
4.392878E+03	1.257205E-15	3.477408E-17
4.402817E+03	1.265216E-15	3.478253E-17
4.412756E+03	1.273737E-15	3.480279E-17
4.422694E+03	1.282786E-15	3.483510E-17
4.432633E+03	1.292394E-15	3.488008E-17
4.442572E+03	1.302528E-15	3.493657E-17
4.452510E+03	1.313186E-15	3.500437E-17
4.462449E+03	1.324383E-15	3.508359E-17
4.472387E+03	1.336085E-15	3.517315E-17
4.482326E+03	1.348253E-15	3.527182E-17
4.492265E+03	1.360861E-15	3.537878E-17
4.502203E+03	1.373879E-15	3.549304E-17
4.512142E+03	1.387271E-15	3.561355E-17
4.522081E+03	1.400978E-15	3.573867E-17
4.532019E+03	1.414976E-15	3.586765E-17
4.541958E+03	1.429202E-15	3.599877E-17
4.551897E+03	1.443588E-15	3.613024E-17
4.561835E+03	1.458106E-15	3.626131E-17
4.571774E+03	1.472711E-15	3.639078E-17
4.581713E+03	1.487336E-15	3.651697E-17
4.591651E+03	1.501934E-15	3.663878E-17
4.601590E+03	1.516443E-15	3.675470E-17
4.611528E+03	1.530841E-15	3.686423E-17
4.621467E+03	1.545089E-15	3.696654E-17
4.631406E+03	1.559131E-15	3.706035E-17
4.641344E+03	1.572936E-15	3.714501E-17
4.651283E+03	1.586473E-15	3.721996E-17
4.661222E+03	1.599717E-15	3.728473E-17
4.671160E+03	1.612647E-15	3.733894E-17
4.681099E+03	1.625223E-15	3.738187E-17
4.691038E+03	1.637450E-15	3.741378E-17
4.700976E+03	1.649297E-15	3.743412E-17
4.710915E+03	1.660775E-15	3.744333E-17
4.720853E+03	1.671856E-15	3.744096E-17
4.730792E+03	1.682538E-15	3.742715E-17
4.740731E+03	1.692819E-15	3.740203E-17
4.750669E+03	1.702679E-15	3.736535E-17
4.760608E+03	1.712141E-15	3.731782E-17
4.770547E+03	1.721230E-15	3.726014E-17
4.780485E+03	1.729931E-15	3.719219E-17
4.790424E+03	1.738292E-15	3.711518E-17
4.800363E+03	1.746282E-15	3.702858E-17
4.810301E+03	1.753953E-15	3.693367E-17
4.820240E+03	1.761317E-15	3.683087E-17
4.830178E+03	1.768369E-15	3.672019E-17
4.840117E+03	1.775146E-15	3.660260E-17
4.850056E+03	1.781669E-15	3.647860E-17
4.859994E+03	1.787960E-15	3.634880E-17
4.869933E+03	1.794045E-15	3.621384E-17
4.879872E+03	1.799976E-15	3.607485E-17
4.889810E+03	1.805786E-15	3.593259E-17
4.899749E+03	1.811512E-15	3.578787E-17
4.909688E+03	1.817197E-15	3.564160E-17
4.919626E+03	1.822909E-15	3.549513E-17
4.929565E+03	1.828700E-15	3.534947E-17
4.939504E+03	1.834626E-15	3.520571E-17
4.949442E+03	1.840767E-15	3.506537E-17
4.959381E+03	1.847170E-15	3.492924E-17
4.969319E+03	1.853923E-15	3.479895E-17
4.979258E+03	1.861122E-15	3.467615E-17
4.989197E+03	1.868801E-15	3.456135E-17
4.999135E+03	1.877104E-15	3.445703E-17
5.009074E+03	1.886071E-15	3.436373E-17
5.019013E+03	1.895807E-15	3.428314E-17
5.028951E+03	1.906422E-15	3.421695E-17
5.038890E+03	1.917979E-15	3.416605E-17
5.048829E+03	1.930569E-15	3.413169E-17
5.058767E+03	1.944298E-15	3.411543E-17
5.068706E+03	1.959255E-15	3.411843E-17
5.078644E+03	1.975523E-15	3.414177E-17
5.088583E+03	1.993188E-15	3.418647E-17
5.098522E+03	2.012350E-15	3.425382E-17
5.108460E+03	2.033045E-15	3.434396E-17
5.118399E+03	2.055411E-15	3.445877E-17
5.128338E+03	2.079452E-15	3.459779E-17
5.138276E+03	2.105277E-15	3.476234E-17
5.148215E+03	2.132946E-15	3.495290E-17
5.158154E+03	2.162511E-15	3.516982E-17
5.168092E+03	2.193997E-15	3.541299E-17
5.178031E+03	2.227463E-15	3.568287E-17
5.187969E+03	2.262943E-15	3.597950E-17
5.197908E+03	2.300434E-15	3.630234E-17
5.207847E+03	2.339995E-15	3.665191E-17
5.217785E+03	2.381605E-15	3.702740E-17
5.227724E+03	2.425230E-15	3.742789E-17
5.237663E+03	2.470897E-15	3.785344E-17
5.247601E+03	2.518519E-15	3.830237E-17
5.257540E+03	2.568073E-15	3.877407E-17
5.267479E+03	2.619519E-15	3.926769E-17
5.277417E+03	2.672723E-15	3.978105E-17
5.287356E+03	2.727611E-15	4.031295E-17
5.297295E+03	2.784065E-15	4.086159E-17
5.307233E+03	2.841976E-15	4.142541E-17
5.317172E+03	2.901131E-15	4.200139E-17
5.327110E+03	2.961380E-15	4.258758E-17
5.337049E+03	3.022525E-15	4.318139E-17
5.346988E+03	3.084350E-15	4.378009E-17
5.356926E+03	3.146618E-15	4.438077E-17
5.366865E+03	3.209077E-15	4.498043E-17
5.376804E+03	3.271425E-15	4.557543E-17
5.386742E+03	3.333445E-15	4.616349E-17
5.396681E+03	3.394780E-15	4.674045E-17
5.406620E+03	3.455196E-15	4.730396E-17
5.416558E+03	3.514320E-15	4.784983E-17
5.426497E+03	3.571913E-15	4.837584E-17
5.436435E+03	3.627596E-15	4.887786E-17
5.446374E+03	3.681105E-15	4.935316E-17
5.456313E+03	3.732148E-15	4.979847E-17
5.466251E+03	3.780483E-15	5.021115E-17
5.476190E+03	3.825772E-15	5.058731E-17
5.486129E+03	3.867804E-15	5.092475E-17
5.496067E+03	3.906396E-15	5.122161E-17
5.506006E+03	3.941272E-15	5.147481E-17
5.515945E+03	3.972301E-15	5.168313E-17
5.525883E+03	3.999385E-15	5.184576E-17
5.535822E+03	4.022420E-15	5.196177E-17
5.545760E+03	4.041259E-15	5.202962E-17
5.555699E+03	4.055946E-15	5.205021E-17
5.565638E+03	4.066480E-15	5.202383E-17
5.575576E+03	4.072857E-15	5.195063E-17
5.585515E+03	4.075142E-15	5.183163E-17
5.595454E+03	4.073470E-15	5.166872E-17
5.605392E+03	4.067925E-15	5.146303E-17
5.615331E+03	4.058651E-15	5.121647E-17
5.625270E+03	4.045856E-15	5.093166E-17
5.635208E+03	4.029680E-15	5.061038E-17
5.645147E+03	4.010319E-15	5.025504E-17
5.655086E+03	3.988016E-15	4.986860E-17
5.665024E+03	3.962940E-15	4.945310E-17
5.674963E+03	3.935263E-15	4.901058E-17
5.684901E+03	3.905272E-15	4.854447E-17
5.694840E+03	3.873135E-15	4.805675E-17
5.704779E+03	3.839054E-15	4.754976E-17
5.714717E+03	3.803220E-15	4.702572E-17
5.724656E+03	3.765785E-15	4.648637E-17
5.734595E+03	3.726998E-15	4.593460E-17
5.744533E+03	3.686916E-15	4.537099E-17
5.754472E+03	3.645806E-15	4.479867E-17
5.764411E+03	3.603709E-15	4.421799E-17
5.774349E+03	3.560836E-15	4.363142E-17
5.784288E+03	3.517286E-15	4.304001E-17
5.794226E+03	3.473182E-15	4.244519E-17
5.804165E+03	3.428646E-15	4.184830E-17
5.814104E+03	3.383791E-15	4.125064E-17
5.824042E+03	3.338697E-15	4.065305E-17
5.833981E+03	3.293502E-15	4.005717E-17
5.843920E+03	3.248282E-15	3.946381E-17
5.853858E+03	3.203142E-15	3.887417E-17
5.863797E+03	3.158215E-15	3.828983E-17
5.873736E+03	3.113543E-15	3.771123E-17
5.883674E+03	3.069232E-15	3.713959E-17
5.893613E+03	3.025413E-15	3.657647E-17
5.903551E+03	2.982189E-15	3.602307E-17
5.913490E+03	2.939605E-15	3.547991E-17
5.923429E+03	2.897794E-15	3.494856E-17
5.933367E+03	2.856854E-15	3.443020E-17
5.943306E+03	2.816861E-15	3.392570E-17
5.953245E+03	2.777910E-15	3.343625E-17
5.963183E+03	2.740100E-15	3.296299E-17
5.973122E+03	2.703521E-15	3.250704E-17
5.983061E+03	2.668239E-15	3.206919E-17
5.992999E+03	2.634364E-15	3.165078E-17
6.002938E+03	2.601954E-15	3.125253E-17
6.012877E+03	2.571058E-15	3.087507E-17
6.022815E+03	2.541777E-15	3.051964E-17
6.032754E+03	2.514176E-15	3.018707E-17
6.042692E+03	2.488292E-15	2.987788E-17
6.052631E+03	2.464160E-15	2.959254E-17
6.062570E+03	2.441877E-15	2.933230E-17
6.072508E+03	2.421465E-15	2.909753E-17
6.082447E+03	2.402941E-15	2.888853E-17
6.092386E+03	2.386362E-15	2.870612E-17
6.102324E+03	2.371781E-15	2.855105E-17
6.112263E+03	2.359198E-15	2.842350E-17
6.122202E+03	2.348652E-15	2.832410E-17
6.132140E+03	2.340224E-15	2.825404E-17
6.142079E+03	2.333922E-15	2.821360E-17
6.152017E+03	2.329791E-15	2.820358E-17
6.161956E+03	2.327758E-15	2.822336E-17
6.171895E+03	2.327792E-15	2.827283E-17
6.181833E+03	2.329807E-15	2.835125E-17
6.191772E+03	2.333779E-15	2.845865E-17
6.201711E+03	2.339676E-15	2.859500E-17
6.211649E+03	2.347460E-15	2.876017E-17
6.221588E+03	2.357082E-15	2.895396E-17
6.231527E+03	2.368462E-15	2.917577E-17
6.241465E+03	2.381554E-15	2.942548E-17
6.251404E+03	2.396304E-15	2.970273E-17
6.261342E+03	2.412621E-15	3.000651E-17
6.271281E+03	2.430402E-15	3.033560E-17
6.281220E+03	2.449529E-15	3.068861E-17
6.291158E+03	2.469897E-15	3.106427E-17
6.301097E+03	2.491388E-15	3.146114E-17
6.311036E+03	2.513819E-15	3.187695E-17
6.320974E+03	2.537070E-15	3.231018E-17
6.330913E+03	2.560931E-15	3.275816E-17
6.340852E+03	2.585260E-15	3.321897E-17
6.350790E+03	2.609847E-15	3.368985E-17
6.360729E+03	2.634447E-15	3.416750E-17
6.370667E+03	2.658883E-15	3.464945E-17
6.380606E+03	2.682921E-15	3.513241E-17
6.390545E+03	2.706345E-15	3.561327E-17
6.400483E+03	2.728854E-15	3.608774E-17
6.410422E+03	2.750257E-15	3.655288E-17
6.420361E+03	2.770309E-15	3.700499E-17
6.430299E+03	2.788684E-15	3.743919E-17
6.440238E+03	2.805206E-15	3.785255E-17
6.450177E+03	2.819596E-15	3.824065E-17
6.460115E+03	2.831677E-15	3.860041E-17
6.470054E+03	2.841321E-15	3.892936E-17
6.479993E+03	2.848363E-15	3.922447E-17
6.489931E+03	2.852725E-15	3.948386E-17
6.499870E+03	2.854292E-15	3.970515E-17
6.509808E+03	2.853041E-15	3.988718E-17
6.519747E+03	2.848855E-15	4.002750E-17
6.529686E+03	2.841771E-15	4.012579E-17
6.539624E+03	2.831765E-15	4.018088E-17
6.549563E+03	2.818931E-15	4.019334E-17
6.559502E+03	2.803276E-15	4.016244E-17
6.569440E+03	2.784952E-15	4.008965E-17
6.579379E+03	2.764048E-15	3.997553E-17
6.589318E+03	2.740736E-15	3.982191E-17
6.599256E+03	2.715147E-15	3.963010E-17
6.609195E+03	2.687491E-15	3.940260E-17
6.619133E+03	2.657992E-15	3.914220E-17
6.629072E+03	2.626823E-15	3.885103E-17
6.639011E+03	2.594196E-15	3.853185E-17
6.648949E+03	2.560357E-15	3.818798E-17
6.658888E+03	2.525521E-15	3.782242E-17
6.668827E+03	2.489903E-15	3.743818E-17
6.678765E+03	2.453715E-15	3.703829E-17
6.688704E+03	2.417158E-15	3.662574E-17
6.698643E+03	2.380455E-15	3.620387E-17
6.708581E+03	2.343764E-15	3.577509E-17
6.718520E+03	2.307284E-15	3.534248E-17
6.728458E+03	2.271175E-15	3.490862E-17
6.738397E+03	2.235584E-15	3.447586E-17
6.748336E+03	2.200619E-15	3.404602E-17
6.758274E+03	2.166452E-15	3.362194E-17
6.768213E+03	2.133163E-15	3.320506E-17
6.778152E+03	2.100847E-15	3.279707E-17
6.788090E+03	2.069609E-15	3.239982E-17
6.798029E+03	2.039495E-15	3.201426E-17
6.807968E+03	2.010564E-15	3.164155E-17
6.817906E+03	1.982888E-15	3.128306E-17
6.827845E+03	1.956484E-15	3.093929E-17
6.837784E+03	1.931406E-15	3.061132E-17
6.847722E+03	1.907655E-15	3.029938E-17
6.857661E+03	1.885271E-15	3.000434E-17
6.867599E+03	1.864265E-15	2.972659E-17
6.877538E+03	1.844621E-15	2.946608E-17
6.887477E+03	1.826365E-15	2.922339E-17
6.897415E+03	1.809474E-15	2.899834E-17
6.907354E+03	1.793965E-15	2.879139E-17
6.917293E+03	1.779830E-15	2.860257E-17
6.927231E+03	1.767042E-15	2.843157E-17
6.937170E+03	1.755591E-15	2.827837E-17
6.947109E+03	1.745486E-15	2.814323E-17
6.957047E+03	1.736695E-15	2.802574E-17
6.966986E+03	1.729226E-15	2.792615E-17
6.976924E+03	1.723047E-15	2.784398E-17
6.986863E+03	1.718122E-15	2.777875E-17
6.996802E+03	1.714481E-15	2.773099E-17
7.006740E+03	1.712088E-15	2.770017E-17
7.016679E+03	1.710911E-15	2.768579E-17
7.026618E+03	1.710977E-15	2.768830E-17
7.036556E+03	1.712208E-15	2.770647E-17
7.046495E+03	1.714632E-15	2.774074E-17
7.056434E+03	1.718235E-15	2.779087E-17
7.066372E+03	1.722959E-15	2.785590E-17
7.076311E+03	1.728808E-15	2.793587E-17
7.086249E+03	1.735768E-15	2.803049E-17
7.096188E+03	1.743819E-15	2.813941E-17
7.106127E+03	1.752922E-15	2.826192E-17
7.116065E+03	1.763035E-15	2.839729E-17
7.126004E+03	1.774180E-15	2.854581E-17
7.135943E+03	1.786292E-15	2.870633E-17
7.145881E+03	1.799369E-15	2.887874E-17
7.155820E+03	1.813340E-15	2.906184E-17
7.165759E+03	1.828202E-15	2.925546E-17
7.175697E+03	1.843925E-15	2.945905E-17
7.185636E+03	1.860435E-15	2.967131E-17
7.195575E+03	1.877745E-15	2.989239E-17
7.205513E+03	1.895777E-15	3.012091E-17
7.215452E+03	1.914497E-15	3.035626E-17
7.225390E+03	1.933842E-15	3.059738E-17
7.235329E+03	1.953802E-15	3.084399E-17
7.245268E+03	1.974312E-15	3.109502E-17
7.255206E+03	1.995335E-15	3.134981E-17
7.265145E+03	2.016779E-15	3.160688E-17
7.275084E+03	2.038656E-15	3.186632E-17
7.285022E+03	2.060873E-15	3.212667E-17
7.294961E+03	2.083362E-15	3.238687E-17
7.304900E+03	2.106134E-15	3.264705E-17
7.314838E+03	2.129094E-15	3.290578E-17
7.324777E+03	2.152176E-15	3.316202E-17
7.334715E+03	2.175365E-15	3.341561E-17
7.344654E+03	2.198594E-15	3.366555E-17
7.354593E+03	2.221849E-15	3.391175E-17
7.364531E+03	2.245037E-15	3.415285E-17
7.374470E+03	2.268148E-15	3.438882E-17
7.384409E+03	2.291143E-15	3.461921E-17
7.394347E+03	2.313986E-15	3.484363E-17
7.404286E+03	2.336610E-15	3.506126E-17
7.414225E+03	2.359039E-15	3.527263E-17
7.424163E+03	2.381174E-15	3.547650E-17
7.434102E+03	2.403009E-15	3.567302E-17
7.444040E+03	2.424503E-15	3.586185E-17
7.453979E+03	2.445647E-15	3.604314E-17
7.463918E+03	2.466367E-15	3.621610E-17
7.473856E+03	2.486649E-15	3.638087E-17
7.483795E+03	2.506412E-15	3.653661E-17
7.493734E+03	2.525666E-15	3.668386E-17
7.503672E+03	2.544355E-15	3.682222E-17
7.513611E+03	2.562384E-15	3.695071E-17
7.523550E+03	2.579719E-15	3.706932E-17
7.533488E+03	2.596320E-15	3.717794E-17
7.543427E+03	2.612074E-15	3.727548E-17
7.553366E+03	2.626965E-15	3.736220E-17
7.563304E+03	2.640835E-15	3.743643E-17
7.573243E+03	2.653622E-15	3.749784E-17
7.583181E+03	2.665259E-15	3.754608E-17
7.593120E+03	2.675643E-15	3.758031E-17
7.603059E+03	2.684628E-15	3.759910E-17
7.612997E+03	2.692173E-15	3.760252E-17
7.622936E+03	2.698096E-15	3.758865E-17
7.632875E+03	2.702355E-15	3.755755E-17
7.642813E+03	2.704802E-15	3.750781E-17
7.652752E+03	2.705330E-15	3.743856E-17
7.662691E+03	2.703869E-15	3.734947E-17
7.672629E+03	2.700288E-15	3.723929E-17
7.682568E+03	2.694532E-15	3.710785E-17
7.692506E+03	2.686486E-15	3.695409E-17
7.702445E+03	2.676120E-15	3.677804E-17
7.712384E+03	2.663342E-15	3.657890E-17
