#wls	flux	fluxerr
1.589729E+03	2.905573E-15	9.861946E-17
1.629472E+03	2.449184E-15	8.303865E-17
1.669215E+03	2.038512E-15	6.903809E-17
1.708958E+03	1.676279E-15	5.670572E-17
1.748702E+03	1.362869E-15	4.604982E-17
1.788445E+03	1.096016E-15	3.698893E-17
1.828188E+03	8.718898E-16	2.938905E-17
1.867931E+03	6.865271E-16	2.311204E-17
1.907675E+03	5.354438E-16	1.800274E-17
1.947418E+03	4.143127E-16	1.391182E-17
1.987161E+03	3.192017E-16	1.070383E-17
2.026904E+03	2.467528E-16	8.263061E-18
2.066647E+03	1.939969E-16	6.487317E-18
2.106391E+03	1.580755E-16	5.278528E-18
2.146134E+03	1.360365E-16	4.535948E-18
2.185877E+03	1.248382E-16	4.156333E-18
2.225620E+03	1.217543E-16	4.047464E-18
2.265363E+03	1.246934E-16	4.138700E-18
2.305107E+03	1.323031E-16	4.384275E-18
2.344850E+03	1.438749E-16	4.759983E-18
2.384593E+03	1.591160E-16	5.255476E-18
2.424336E+03	1.778987E-16	5.865889E-18
2.464080E+03	2.000608E-16	6.585231E-18
2.503823E+03	2.251787E-16	7.398931E-18
2.543566E+03	2.524787E-16	8.281017E-18
2.583309E+03	2.807434E-16	9.191165E-18
2.623052E+03	3.084019E-16	1.007777E-17
2.662796E+03	3.336644E-16	1.088249E-17
2.702539E+03	3.548028E-16	1.154944E-17
2.742282E+03	3.704406E-16	1.203462E-17
2.782025E+03	3.797774E-16	1.231309E-17
2.821769E+03	3.827165E-16	1.238293E-17
2.861512E+03	3.798596E-16	1.226485E-17
2.901255E+03	3.723171E-16	1.199581E-17
2.940998E+03	3.615754E-16	1.162458E-17
2.980741E+03	3.492107E-16	1.120243E-17
2.990677E+03	3.460611E-16	1.109524E-17
3.000613E+03	3.429265E-16	1.098862E-17
3.010549E+03	3.398298E-16	1.088331E-17
3.020485E+03	3.368114E-16	1.078060E-17
3.030420E+03	3.339134E-16	1.068182E-17
3.040356E+03	3.311238E-16	1.058659E-17
3.050292E+03	3.285260E-16	1.049758E-17
3.060228E+03	3.261225E-16	1.041485E-17
3.070164E+03	3.239235E-16	1.033871E-17
3.080099E+03	3.219537E-16	1.026994E-17
3.090035E+03	3.202117E-16	1.020849E-17
3.099971E+03	3.187168E-16	1.015496E-17
3.109907E+03	3.174763E-16	1.010957E-17
3.119843E+03	3.165238E-16	1.007337E-17
3.129779E+03	3.158555E-16	1.004623E-17
3.139714E+03	3.154943E-16	1.002885E-17
3.149650E+03	3.154633E-16	1.002197E-17
3.159586E+03	3.157806E-16	1.002612E-17
3.169522E+03	3.164537E-16	1.004154E-17
3.179458E+03	3.175207E-16	1.006940E-17
3.189393E+03	3.189913E-16	1.011001E-17
3.199329E+03	3.208941E-16	1.016422E-17
3.209265E+03	3.232472E-16	1.023261E-17
3.219201E+03	3.260814E-16	1.031611E-17
3.229137E+03	3.294228E-16	1.041551E-17
3.239072E+03	3.332984E-16	1.053166E-17
3.249008E+03	3.377303E-16	1.066520E-17
3.258944E+03	3.427524E-16	1.081719E-17
3.268880E+03	3.483928E-16	1.098846E-17
3.278816E+03	3.546731E-16	1.117968E-17
3.288751E+03	3.616248E-16	1.139177E-17
3.298687E+03	3.692633E-16	1.162521E-17
3.308623E+03	3.776099E-16	1.188061E-17
3.318559E+03	3.866640E-16	1.215791E-17
3.328495E+03	3.964169E-16	1.245680E-17
3.338430E+03	4.068424E-16	1.277641E-17
3.348366E+03	4.178956E-16	1.311529E-17
3.358302E+03	4.295074E-16	1.347123E-17
3.368238E+03	4.415782E-16	1.384109E-17
3.378174E+03	4.539938E-16	1.422125E-17
3.388109E+03	4.665929E-16	1.460664E-17
3.398045E+03	4.792123E-16	1.499215E-17
3.407981E+03	4.916365E-16	1.537103E-17
3.417917E+03	5.036425E-16	1.573633E-17
3.427853E+03	5.149941E-16	1.608070E-17
3.437788E+03	5.254440E-16	1.639645E-17
3.447724E+03	5.347676E-16	1.667665E-17
3.457660E+03	5.427499E-16	1.691465E-17
3.467596E+03	5.492141E-16	1.710502E-17
3.477532E+03	5.540443E-16	1.724426E-17
3.487467E+03	5.571822E-16	1.733065E-17
3.497403E+03	5.586599E-16	1.736529E-17
3.507339E+03	5.585596E-16	1.735083E-17
3.517275E+03	5.570708E-16	1.729325E-17
3.527211E+03	5.544405E-16	1.720031E-17
3.537146E+03	5.509841E-16	1.708185E-17
3.547082E+03	5.470501E-16	1.694871E-17
3.557018E+03	5.430273E-16	1.681297E-17
3.566954E+03	5.393338E-16	1.668758E-17
3.576890E+03	5.363674E-16	1.658479E-17
3.586826E+03	5.345434E-16	1.651743E-17
3.596761E+03	5.342532E-16	1.649748E-17
3.606697E+03	5.358680E-16	1.653633E-17
3.616633E+03	5.397519E-16	1.664507E-17
3.626569E+03	5.462649E-16	1.683466E-17
3.636505E+03	5.557494E-16	1.711549E-17
3.646440E+03	5.685665E-16	1.749848E-17
3.656376E+03	5.850566E-16	1.799390E-17
3.666312E+03	6.055855E-16	1.861277E-17
3.676248E+03	6.305204E-16	1.936610E-17
3.686184E+03	6.602407E-16	2.026527E-17
3.696119E+03	6.951125E-16	2.132123E-17
3.706055E+03	7.355080E-16	2.254504E-17
3.715991E+03	7.817696E-16	2.394686E-17
3.725927E+03	8.342090E-16	2.553586E-17
3.735863E+03	8.930698E-16	2.731911E-17
3.745798E+03	9.585206E-16	2.930136E-17
3.755734E+03	1.030609E-15	3.148368E-17
3.765670E+03	1.109244E-15	3.386285E-17
3.775606E+03	1.194207E-15	3.643178E-17
3.785542E+03	1.285039E-15	3.917614E-17
3.795477E+03	1.381138E-15	4.207716E-17
3.805413E+03	1.481706E-15	4.511027E-17
3.815349E+03	1.585726E-15	4.824424E-17
3.825285E+03	1.692050E-15	5.144395E-17
3.835221E+03	1.799433E-15	5.467145E-17
3.845156E+03	1.906555E-15	5.788657E-17
3.855092E+03	2.012094E-15	6.104926E-17
3.865028E+03	2.114771E-15	6.412080E-17
3.874964E+03	2.213465E-15	6.706748E-17
3.884900E+03	2.307214E-15	6.986033E-17
3.894835E+03	2.395261E-15	7.247685E-17
3.904771E+03	2.477085E-15	7.490158E-17
3.914707E+03	2.552395E-15	7.712616E-17
3.924643E+03	2.621144E-15	7.914957E-17
3.934579E+03	2.683452E-15	8.097583E-17
3.944514E+03	2.739558E-15	8.261260E-17
3.954450E+03	2.789874E-15	8.407264E-17
3.964386E+03	2.834776E-15	8.536765E-17
3.974322E+03	2.874674E-15	8.651034E-17
3.984258E+03	2.909887E-15	8.751057E-17
3.994194E+03	2.940595E-15	8.837411E-17
4.004129E+03	2.966920E-15	8.910482E-17
4.014065E+03	2.988745E-15	8.969955E-17
4.024001E+03	3.005859E-15	9.015221E-17
4.033937E+03	3.017898E-15	9.045219E-17
4.043873E+03	3.024408E-15	9.058621E-17
4.053808E+03	3.024897E-15	9.053989E-17
4.063744E+03	3.018913E-15	9.030007E-17
4.073680E+03	3.006022E-15	8.985417E-17
4.083616E+03	2.985930E-15	8.919387E-17
4.093552E+03	2.958553E-15	8.831705E-17
4.103487E+03	2.923883E-15	8.722391E-17
4.113423E+03	2.882189E-15	8.592290E-17
4.123359E+03	2.833918E-15	8.442780E-17
4.133295E+03	2.779722E-15	8.275837E-17
4.143231E+03	2.720441E-15	8.093997E-17
4.153166E+03	2.657089E-15	7.900303E-17
4.163102E+03	2.590823E-15	7.698219E-17
4.173038E+03	2.522917E-15	7.491536E-17
4.182974E+03	2.454710E-15	7.284245E-17
4.192910E+03	2.387574E-15	7.080413E-17
4.202845E+03	2.322840E-15	6.883976E-17
4.212781E+03	2.261790E-15	6.698715E-17
4.222717E+03	2.205614E-15	6.528133E-17
4.232653E+03	2.155335E-15	6.375226E-17
4.242589E+03	2.111765E-15	6.242359E-17
4.252524E+03	2.075585E-15	6.131506E-17
4.262460E+03	2.047265E-15	6.044013E-17
4.272396E+03	2.027094E-15	5.980686E-17
4.282332E+03	2.015182E-15	5.941807E-17
4.292268E+03	2.011466E-15	5.927143E-17
4.302203E+03	2.015794E-15	5.936198E-17
4.312139E+03	2.027808E-15	5.967880E-17
4.322075E+03	2.047104E-15	6.020957E-17
4.332011E+03	2.073131E-15	6.093772E-17
4.341947E+03	2.105248E-15	6.184408E-17
4.351882E+03	2.142694E-15	6.290596E-17
4.361818E+03	2.184621E-15	6.409825E-17
4.371754E+03	2.230065E-15	6.539242E-17
4.381690E+03	2.278001E-15	6.675830E-17
4.391626E+03	2.327278E-15	6.816205E-17
4.401562E+03	2.376664E-15	6.956758E-17
4.411497E+03	2.424922E-15	7.093868E-17
4.421433E+03	2.470759E-15	7.223765E-17
4.431369E+03	2.512943E-15	7.342863E-17
4.441305E+03	2.550357E-15	7.447917E-17
4.451241E+03	2.581960E-15	7.535919E-17
4.461176E+03	2.606984E-15	7.604653E-17
4.471112E+03	2.624869E-15	7.652526E-17
4.481048E+03	2.635289E-15	7.678621E-17
4.490984E+03	2.638199E-15	7.682844E-17
4.500920E+03	2.633791E-15	7.665790E-17
4.510855E+03	2.622464E-15	7.628655E-17
4.520791E+03	2.604778E-15	7.573102E-17
4.530727E+03	2.581390E-15	7.501066E-17
4.540663E+03	2.553028E-15	7.414692E-17
4.550599E+03	2.520531E-15	7.316433E-17
4.560534E+03	2.484641E-15	7.208463E-17
4.570470E+03	2.446110E-15	7.092977E-17
4.580406E+03	2.405704E-15	6.972203E-17
4.590342E+03	2.364117E-15	6.848160E-17
4.600278E+03	2.321923E-15	6.722514E-17
4.610213E+03	2.279772E-15	6.597148E-17
4.620149E+03	2.238092E-15	6.473296E-17
4.630085E+03	2.197366E-15	6.352354E-17
4.640021E+03	2.157933E-15	6.235292E-17
4.649957E+03	2.120042E-15	6.122824E-17
4.659892E+03	2.083849E-15	6.015392E-17
4.669828E+03	2.049415E-15	5.913165E-17
4.679764E+03	2.016755E-15	5.816177E-17
4.689700E+03	1.985741E-15	5.724053E-17
4.699636E+03	1.956207E-15	5.636301E-17
4.709571E+03	1.927964E-15	5.552377E-17
4.719507E+03	1.900756E-15	5.471532E-17
4.729443E+03	1.874437E-15	5.393346E-17
4.739379E+03	1.848801E-15	5.317215E-17
4.749315E+03	1.823810E-15	5.243034E-17
4.759250E+03	1.799497E-15	5.170891E-17
4.769186E+03	1.775974E-15	5.101106E-17
4.779122E+03	1.753535E-15	5.034516E-17
4.789058E+03	1.732587E-15	4.972285E-17
4.798994E+03	1.713577E-15	4.915693E-17
4.808930E+03	1.697072E-15	4.866354E-17
4.818865E+03	1.683644E-15	4.825900E-17
4.828801E+03	1.673831E-15	4.795862E-17
4.838737E+03	1.668131E-15	4.777655E-17
4.848673E+03	1.666968E-15	4.772474E-17
4.858609E+03	1.670617E-15	4.781096E-17
4.868544E+03	1.679264E-15	4.804034E-17
4.878480E+03	1.692915E-15	4.841292E-17
4.888416E+03	1.711511E-15	4.892687E-17
4.898352E+03	1.734876E-15	4.957701E-17
4.908288E+03	1.762735E-15	5.035535E-17
4.918223E+03	1.794783E-15	5.125306E-17
4.928159E+03	1.830633E-15	5.225901E-17
4.938095E+03	1.869901E-15	5.336212E-17
4.948031E+03	1.912138E-15	5.454950E-17
4.957967E+03	1.956890E-15	5.580819E-17
4.967902E+03	2.003660E-15	5.712397E-17
4.977838E+03	2.051987E-15	5.848366E-17
4.987774E+03	2.101296E-15	5.987084E-17
4.997710E+03	2.151014E-15	6.126923E-17
5.007646E+03	2.200551E-15	6.266209E-17
5.017581E+03	2.249240E-15	6.403039E-17
5.027517E+03	2.296402E-15	6.535489E-17
5.037453E+03	2.341341E-15	6.661587E-17
5.047389E+03	2.383367E-15	6.779377E-17
5.057325E+03	2.421792E-15	6.886914E-17
5.067260E+03	2.456007E-15	6.982476E-17
5.077196E+03	2.485511E-15	7.064648E-17
5.087132E+03	2.509827E-15	7.132093E-17
5.097068E+03	2.528699E-15	7.184090E-17
5.107004E+03	2.541854E-15	7.219878E-17
5.116939E+03	2.549264E-15	7.239390E-17
5.126875E+03	2.550925E-15	7.242626E-17
5.136811E+03	2.546952E-15	7.229926E-17
5.146747E+03	2.537548E-15	7.201870E-17
5.156683E+03	2.522974E-15	7.159209E-17
5.166618E+03	2.503606E-15	7.103021E-17
5.176554E+03	2.479893E-15	7.034582E-17
5.186490E+03	2.452447E-15	6.955635E-17
5.196426E+03	2.421845E-15	6.867820E-17
5.206362E+03	2.388831E-15	6.773248E-17
5.216298E+03	2.354159E-15	6.674058E-17
5.226233E+03	2.318579E-15	6.572376E-17
5.236169E+03	2.282749E-15	6.470065E-17
5.246105E+03	2.247309E-15	6.368937E-17
5.256041E+03	2.212731E-15	6.270332E-17
5.265977E+03	2.179370E-15	6.175245E-17
5.275912E+03	2.147408E-15	6.084194E-17
5.285848E+03	2.116934E-15	5.997429E-17
5.295784E+03	2.087858E-15	5.914687E-17
5.305720E+03	2.060051E-15	5.835607E-17
5.315656E+03	2.033325E-15	5.759650E-17
5.325591E+03	2.007535E-15	5.686402E-17
5.335527E+03	1.982488E-15	5.615320E-17
5.345463E+03	1.958141E-15	5.546275E-17
5.355399E+03	1.934493E-15	5.479263E-17
5.365335E+03	1.911633E-15	5.414536E-17
5.375270E+03	1.889697E-15	5.352475E-17
5.385206E+03	1.868929E-15	5.293767E-17
5.395142E+03	1.849611E-15	5.239215E-17
5.405078E+03	1.831968E-15	5.189446E-17
5.415014E+03	1.816273E-15	5.145240E-17
5.424949E+03	1.802697E-15	5.107076E-17
5.434885E+03	1.791371E-15	5.075325E-17
5.444821E+03	1.782428E-15	5.050365E-17
5.454757E+03	1.775835E-15	5.032102E-17
5.464693E+03	1.771540E-15	5.020389E-17
5.474628E+03	1.769368E-15	5.014734E-17
5.484564E+03	1.769122E-15	5.014577E-17
5.494500E+03	1.770451E-15	5.018923E-17
5.504436E+03	1.773000E-15	5.026768E-17
5.514372E+03	1.776337E-15	5.036889E-17
5.524307E+03	1.780062E-15	5.048150E-17
5.534243E+03	1.783692E-15	5.059184E-17
5.544179E+03	1.786790E-15	5.068746E-17
5.554115E+03	1.788922E-15	5.075611E-17
5.564051E+03	1.789734E-15	5.078767E-17
5.573986E+03	1.788872E-15	5.077208E-17
5.583922E+03	1.786086E-15	5.070224E-17
5.593858E+03	1.781213E-15	5.057344E-17
5.603794E+03	1.774152E-15	5.038281E-17
5.613730E+03	1.764911E-15	5.013051E-17
5.623665E+03	1.753543E-15	4.981801E-17
5.633601E+03	1.740209E-15	4.944984E-17
5.643537E+03	1.725130E-15	4.903220E-17
5.653473E+03	1.708551E-15	4.857205E-17
5.663409E+03	1.690751E-15	4.807726E-17
5.673345E+03	1.672026E-15	4.755623E-17
5.683280E+03	1.652712E-15	4.701845E-17
5.693216E+03	1.633062E-15	4.647112E-17
5.703152E+03	1.613369E-15	4.592255E-17
5.713088E+03	1.593842E-15	4.537869E-17
5.723024E+03	1.574608E-15	4.484313E-17
5.732959E+03	1.555745E-15	4.431807E-17
5.742895E+03	1.537231E-15	4.380292E-17
5.752831E+03	1.518911E-15	4.329326E-17
5.762767E+03	1.500549E-15	4.278229E-17
5.772703E+03	1.481844E-15	4.226147E-17
5.782638E+03	1.462363E-15	4.171842E-17
5.792574E+03	1.441679E-15	4.114091E-17
5.802510E+03	1.419342E-15	4.051605E-17
5.812446E+03	1.394934E-15	3.983185E-17
5.822382E+03	1.368123E-15	3.907878E-17
5.832317E+03	1.338642E-15	3.824909E-17
5.842253E+03	1.306416E-15	3.734056E-17
5.852189E+03	1.271477E-15	3.635404E-17
5.862125E+03	1.234034E-15	3.529540E-17
5.872061E+03	1.194448E-15	3.417487E-17
5.881996E+03	1.153219E-15	3.300667E-17
5.891932E+03	1.110969E-15	3.180857E-17
5.901868E+03	1.068360E-15	3.059948E-17
5.911804E+03	1.026120E-15	2.940021E-17
5.921740E+03	9.849870E-16	2.823190E-17
5.931675E+03	9.456462E-16	2.711424E-17
5.941611E+03	9.086891E-16	2.606423E-17
5.951547E+03	8.746559E-16	2.509743E-17
5.961483E+03	8.439303E-16	2.422493E-17
5.971419E+03	8.168505E-16	2.345656E-17
5.981354E+03	7.935974E-16	2.279760E-17
5.991290E+03	7.743000E-16	2.225188E-17
6.001226E+03	7.590302E-16	2.182160E-17
6.011162E+03	7.477933E-16	2.150704E-17
6.021098E+03	7.405768E-16	2.130798E-17
6.031033E+03	7.373360E-16	2.122326E-17
6.040969E+03	7.380607E-16	2.125272E-17
6.050905E+03	7.427043E-16	2.139515E-17
6.060841E+03	7.512751E-16	2.165095E-17
6.070777E+03	7.637635E-16	2.201996E-17
6.080713E+03	7.801674E-16	2.250228E-17
6.090648E+03	8.004878E-16	2.309807E-17
6.100584E+03	8.247219E-16	2.380741E-17
6.110520E+03	8.528146E-16	2.462884E-17
6.120456E+03	8.846723E-16	2.555981E-17
6.130392E+03	9.201589E-16	2.659654E-17
6.140327E+03	9.590117E-16	2.773157E-17
6.150263E+03	1.000906E-15	2.895564E-17
6.160199E+03	1.045419E-15	3.025664E-17
6.170135E+03	1.092030E-15	3.161960E-17
6.180071E+03	1.140100E-15	3.302611E-17
6.190006E+03	1.188933E-15	3.445606E-17
6.199942E+03	1.237800E-15	3.588833E-17
6.209878E+03	1.285923E-15	3.730040E-17
6.219814E+03	1.332567E-15	3.867092E-17
6.229750E+03	1.377027E-15	3.997933E-17
6.239685E+03	1.418681E-15	4.120752E-17
6.249621E+03	1.456983E-15	4.233950E-17
6.259557E+03	1.491491E-15	4.336232E-17
6.269493E+03	1.521903E-15	4.426700E-17
6.279429E+03	1.548034E-15	4.504805E-17
6.289364E+03	1.569778E-15	4.570218E-17
6.299300E+03	1.587177E-15	4.623044E-17
6.309236E+03	1.600370E-15	4.663673E-17
6.319172E+03	1.609533E-15	4.692598E-17
6.329108E+03	1.614975E-15	4.710705E-17
6.339043E+03	1.617013E-15	4.718899E-17
6.348979E+03	1.615996E-15	4.718193E-17
6.358915E+03	1.612306E-15	4.709681E-17
6.368851E+03	1.606382E-15	4.694640E-17
6.378787E+03	1.598602E-15	4.674164E-17
6.388722E+03	1.589412E-15	4.649549E-17
6.398658E+03	1.579196E-15	4.621911E-17
6.408594E+03	1.568303E-15	4.592272E-17
6.418530E+03	1.557054E-15	4.561563E-17
6.428466E+03	1.545670E-15	4.530431E-17
6.438401E+03	1.534312E-15	4.499351E-17
6.448337E+03	1.523005E-15	4.468393E-17
6.458273E+03	1.511817E-15	4.437758E-17
6.468209E+03	1.500736E-15	4.407410E-17
6.478145E+03	1.489702E-15	4.377172E-17
6.488081E+03	1.478687E-15	4.346961E-17
6.498016E+03	1.467631E-15	4.316603E-17
6.507952E+03	1.456474E-15	4.285922E-17
6.517888E+03	1.445162E-15	4.254752E-17
6.527824E+03	1.433669E-15	4.223021E-17
6.537760E+03	1.421939E-15	4.190561E-17
6.547695E+03	1.409949E-15	4.157305E-17
6.557631E+03	1.397718E-15	4.123301E-17
6.567567E+03	1.385249E-15	4.088566E-17
6.577503E+03	1.372540E-15	4.053084E-17
6.587439E+03	1.359635E-15	4.016991E-17
6.597374E+03	1.346543E-15	3.980308E-17
6.607310E+03	1.333341E-15	3.943260E-17
6.617246E+03	1.320013E-15	3.905805E-17
6.627182E+03	1.306591E-15	3.868031E-17
6.637118E+03	1.293124E-15	3.830088E-17
6.647053E+03	1.279642E-15	3.792060E-17
6.656989E+03	1.266151E-15	3.753965E-17
6.666925E+03	1.252682E-15	3.715900E-17
6.676861E+03	1.239292E-15	3.678026E-17
6.686797E+03	1.225997E-15	3.640397E-17
6.696732E+03	1.212860E-15	3.603195E-17
6.706668E+03	1.199880E-15	3.566424E-17
6.716604E+03	1.187143E-15	3.530338E-17
6.726540E+03	1.174651E-15	3.494939E-17
6.736476E+03	1.162483E-15	3.460470E-17
6.746411E+03	1.150633E-15	3.426912E-17
6.756347E+03	1.139152E-15	3.394414E-17
6.766283E+03	1.128063E-15	3.363054E-17
6.776219E+03	1.117366E-15	3.332828E-17
6.786155E+03	1.107097E-15	3.303849E-17
6.796090E+03	1.097250E-15	3.276094E-17
6.806026E+03	1.087853E-15	3.249657E-17
6.815962E+03	1.078872E-15	3.224435E-17
6.825898E+03	1.070352E-15	3.200560E-17
6.835834E+03	1.062271E-15	3.177975E-17
6.845769E+03	1.054625E-15	3.156666E-17
6.855705E+03	1.047385E-15	3.136550E-17
6.865641E+03	1.040578E-15	3.117709E-17
6.875577E+03	1.034126E-15	3.099910E-17
6.885513E+03	1.028065E-15	3.083262E-17
6.895449E+03	1.022330E-15	3.067572E-17
6.905384E+03	1.016893E-15	3.052761E-17
6.915320E+03	1.011750E-15	3.038814E-17
6.925256E+03	1.006855E-15	3.025598E-17
6.935192E+03	1.002189E-15	3.013051E-17
6.945128E+03	9.977317E-16	3.001119E-17
6.955063E+03	9.934660E-16	2.989748E-17
6.964999E+03	9.893711E-16	2.978876E-17
6.974935E+03	9.854078E-16	2.968388E-17
6.984871E+03	9.815880E-16	2.958318E-17
6.994807E+03	9.778249E-16	2.948407E-17
7.004742E+03	9.741412E-16	2.938722E-17
7.014678E+03	9.704397E-16	2.928971E-17
7.024614E+03	9.667164E-16	2.919142E-17
7.034550E+03	9.629084E-16	2.909043E-17
7.044486E+03	9.589713E-16	2.898542E-17
7.054421E+03	9.548839E-16	2.887573E-17
7.064357E+03	9.505718E-16	2.875910E-17
7.074293E+03	9.460261E-16	2.863525E-17
7.084229E+03	9.412078E-16	2.850300E-17
7.094165E+03	9.361267E-16	2.836263E-17
7.104100E+03	9.307848E-16	2.821419E-17
7.114036E+03	9.251749E-16	2.805744E-17
7.123972E+03	9.193351E-16	2.789354E-17
7.133908E+03	9.132573E-16	2.772223E-17
7.143844E+03	9.070123E-16	2.754564E-17
7.153779E+03	9.006175E-16	2.736430E-17
7.163715E+03	8.940926E-16	2.717881E-17
7.173651E+03	8.874933E-16	2.699085E-17
7.183587E+03	8.808527E-16	2.680142E-17
7.193523E+03	8.741838E-16	2.661093E-17
7.203458E+03	8.675116E-16	2.642012E-17
7.213394E+03	8.608591E-16	2.622971E-17
7.223330E+03	8.542427E-16	2.604020E-17
7.233266E+03	8.476770E-16	2.585202E-17
7.243202E+03	8.411361E-16	2.566440E-17
7.253137E+03	8.346626E-16	2.547862E-17
7.263073E+03	8.282449E-16	2.529436E-17
7.273009E+03	8.218678E-16	2.511114E-17
7.282945E+03	8.155507E-16	2.492956E-17
7.292881E+03	8.092605E-16	2.474860E-17
7.302817E+03	8.029984E-16	2.456831E-17
7.312752E+03	7.967626E-16	2.438864E-17
7.322688E+03	7.905353E-16	2.420904E-17
7.332624E+03	7.843287E-16	2.402988E-17
7.342560E+03	7.780887E-16	2.384951E-17
7.352496E+03	7.718416E-16	2.366873E-17
7.362431E+03	7.655461E-16	2.348628E-17
7.372367E+03	7.592089E-16	2.330237E-17
7.382303E+03	7.528069E-16	2.311627E-17
7.392239E+03	7.463325E-16	2.292776E-17
7.402175E+03	7.398000E-16	2.273727E-17
7.412110E+03	7.331965E-16	2.254441E-17
7.422046E+03	7.265764E-16	2.235084E-17
7.431982E+03	7.199187E-16	2.215592E-17
7.441918E+03	7.132690E-16	2.196106E-17
7.451854E+03	7.066244E-16	2.176616E-17
7.461789E+03	7.000377E-16	2.157285E-17
7.471725E+03	6.934961E-16	2.138074E-17
7.481661E+03	6.869893E-16	2.118951E-17
7.491597E+03	6.805138E-16	2.099907E-17
7.501533E+03	6.740366E-16	2.080838E-17
7.511468E+03	6.675421E-16	2.061698E-17
7.521404E+03	6.609389E-16	2.042204E-17
7.531340E+03	6.541666E-16	2.022168E-17
7.541276E+03	6.471487E-16	2.001353E-17
7.551212E+03	6.397639E-16	1.979383E-17
7.561147E+03	6.319045E-16	1.955924E-17
7.571083E+03	6.234207E-16	1.930510E-17
7.581019E+03	6.141910E-16	1.902761E-17
7.590955E+03	6.040259E-16	1.872087E-17
7.600891E+03	5.927858E-16	1.838053E-17
7.610826E+03	5.802741E-16	1.800043E-17
7.620762E+03	5.663589E-16	1.757643E-17
7.630698E+03	5.508795E-16	1.710349E-17
7.640634E+03	5.337692E-16	1.657947E-17
7.650570E+03	5.149807E-16	1.600284E-17
7.660505E+03	4.945501E-16	1.537465E-17
7.670441E+03	4.725915E-16	1.469838E-17
7.680377E+03	4.492982E-16	1.397999E-17
7.690313E+03	4.249369E-16	1.322773E-17
7.700249E+03	3.998255E-16	1.245144E-17
7.710184E+03	3.743533E-16	1.166324E-17
