#wls	flux	fluxerr
1.589729E+03	2.443923E-15	1.665062E-16
1.629472E+03	2.102753E-15	1.402980E-16
1.669215E+03	1.779322E-15	1.162040E-16
1.708958E+03	1.479516E-15	9.453152E-17
1.748702E+03	1.207744E-15	7.546014E-17
1.788445E+03	9.661072E-16	5.900092E-17
1.828188E+03	7.557301E-16	4.509298E-17
1.867931E+03	5.766700E-16	3.360568E-17
1.907675E+03	4.281373E-16	2.435936E-17
1.947418E+03	3.086788E-16	1.714219E-17
1.987161E+03	2.162056E-16	1.171689E-17
2.026904E+03	1.480164E-16	7.826808E-18
2.066647E+03	1.006056E-16	5.190539E-18
2.106391E+03	6.990486E-17	3.519215E-18
2.146134E+03	5.174373E-17	2.542332E-18
2.185877E+03	4.240612E-17	2.034175E-18
2.225620E+03	3.947481E-17	1.849620E-18
2.265363E+03	4.214141E-17	1.930040E-18
2.305107E+03	5.120181E-17	2.294083E-18
2.344850E+03	6.938329E-17	3.044394E-18
2.384593E+03	1.023942E-16	4.405352E-18
2.424336E+03	1.606206E-16	6.784904E-18
2.464080E+03	2.613754E-16	1.085471E-17
2.503823E+03	4.309574E-16	1.761735E-17
2.543566E+03	7.041374E-16	2.836705E-17
2.583309E+03	1.117636E-15	4.441768E-17
2.623052E+03	1.696555E-15	6.657559E-17
2.662796E+03	2.440897E-15	9.465062E-17
2.702539E+03	3.319237E-15	1.272669E-16
2.742282E+03	4.270185E-15	1.619735E-16
2.782025E+03	5.214680E-15	1.957514E-16
2.821769E+03	6.073803E-15	2.256953E-16
2.861512E+03	6.786659E-15	2.496637E-16
2.901255E+03	7.321290E-15	2.666425E-16
2.940998E+03	7.676371E-15	2.767585E-16
2.980741E+03	7.875919E-15	2.810416E-16
2.990677E+03	7.905975E-15	2.813774E-16
3.000613E+03	7.929401E-15	2.814692E-16
3.010549E+03	7.946907E-15	2.813436E-16
3.020485E+03	7.959479E-15	2.810369E-16
3.030420E+03	7.968545E-15	2.806004E-16
3.040356E+03	7.974077E-15	2.800339E-16
3.050292E+03	7.978177E-15	2.794118E-16
3.060228E+03	7.981361E-15	2.787521E-16
3.070164E+03	7.984163E-15	2.780736E-16
3.080099E+03	7.987288E-15	2.774005E-16
3.090035E+03	7.991299E-15	2.767516E-16
3.099971E+03	7.996610E-15	2.761400E-16
3.109907E+03	8.004124E-15	2.755960E-16
3.119843E+03	8.014120E-15	2.751276E-16
3.129779E+03	8.027372E-15	2.747601E-16
3.139714E+03	8.044663E-15	2.745183E-16
3.149650E+03	8.066487E-15	2.744173E-16
3.159586E+03	8.093674E-15	2.744829E-16
3.169522E+03	8.126782E-15	2.747318E-16
3.179458E+03	8.166706E-15	2.751912E-16
3.189393E+03	8.214240E-15	2.758851E-16
3.199329E+03	8.270088E-15	2.768335E-16
3.209265E+03	8.335315E-15	2.780685E-16
3.219201E+03	8.410907E-15	2.796186E-16
3.229137E+03	8.497907E-15	2.815140E-16
3.239072E+03	8.597417E-15	2.837859E-16
3.249008E+03	8.710573E-15	2.864661E-16
3.258944E+03	8.838547E-15	2.895869E-16
3.268880E+03	8.982361E-15	2.931750E-16
3.278816E+03	9.143477E-15	2.972705E-16
3.288751E+03	9.322752E-15	3.018930E-16
3.298687E+03	9.521445E-15	3.070744E-16
3.308623E+03	9.740477E-15	3.128348E-16
3.318559E+03	9.981034E-15	3.192019E-16
3.328495E+03	1.024411E-14	3.261964E-16
3.338430E+03	1.053031E-14	3.338261E-16
3.348366E+03	1.084083E-14	3.421159E-16
3.358302E+03	1.117611E-14	3.510668E-16
3.368238E+03	1.153692E-14	3.606889E-16
3.378174E+03	1.192366E-14	3.709797E-16
3.388109E+03	1.233603E-14	3.819150E-16
3.398045E+03	1.277392E-14	3.934762E-16
3.407981E+03	1.323585E-14	4.056014E-16
3.417917E+03	1.371975E-14	4.182121E-16
3.427853E+03	1.422236E-14	4.311943E-16
3.437788E+03	1.473875E-14	4.443857E-16
3.447724E+03	1.526259E-14	4.575846E-16
3.457660E+03	1.578495E-14	4.705160E-16
3.467596E+03	1.629503E-14	4.828559E-16
3.477532E+03	1.677970E-14	4.942191E-16
3.487467E+03	1.722440E-14	5.041887E-16
3.497403E+03	1.761273E-14	5.123043E-16
3.507339E+03	1.792803E-14	5.181122E-16
3.517275E+03	1.815474E-14	5.212028E-16
3.527211E+03	1.827839E-14	5.212115E-16
3.537146E+03	1.828840E-14	5.178969E-16
3.547082E+03	1.817876E-14	5.111563E-16
3.557018E+03	1.794858E-14	5.010370E-16
3.566954E+03	1.760344E-14	4.877690E-16
3.576890E+03	1.715452E-14	4.717338E-16
3.586826E+03	1.661853E-14	4.534563E-16
3.596761E+03	1.601644E-14	4.335646E-16
3.606697E+03	1.537120E-14	4.127235E-16
3.616633E+03	1.470724E-14	3.916182E-16
3.626569E+03	1.404769E-14	3.708781E-16
3.636505E+03	1.341371E-14	3.510603E-16
3.646440E+03	1.282328E-14	3.326200E-16
3.656376E+03	1.229120E-14	3.159128E-16
3.666312E+03	1.182866E-14	3.011878E-16
3.676248E+03	1.144360E-14	2.885995E-16
3.686184E+03	1.114156E-14	2.782337E-16
3.696119E+03	1.092600E-14	2.701178E-16
3.706055E+03	1.079894E-14	2.642385E-16
3.715991E+03	1.076206E-14	2.605700E-16
3.725927E+03	1.081614E-14	2.590622E-16
3.735863E+03	1.096225E-14	2.596691E-16
3.745798E+03	1.120176E-14	2.623481E-16
3.755734E+03	1.153581E-14	2.670483E-16
3.765670E+03	1.196625E-14	2.737325E-16
3.775606E+03	1.249456E-14	2.823501E-16
3.785542E+03	1.312222E-14	2.928477E-16
3.795477E+03	1.384983E-14	3.051489E-16
3.805413E+03	1.467645E-14	3.191410E-16
3.815349E+03	1.559906E-14	3.346660E-16
3.825285E+03	1.661174E-14	3.515064E-16
3.835221E+03	1.770451E-14	3.693652E-16
3.845156E+03	1.886346E-14	3.878753E-16
3.855092E+03	2.007019E-14	4.065938E-16
3.865028E+03	2.130292E-14	4.250327E-16
3.874964E+03	2.253700E-14	4.426735E-16
3.884900E+03	2.374641E-14	4.590025E-16
3.894835E+03	2.490578E-14	4.735513E-16
3.904771E+03	2.599146E-14	4.859169E-16
3.914707E+03	2.698408E-14	4.958068E-16
3.924643E+03	2.786956E-14	5.030510E-16
3.934579E+03	2.863926E-14	5.075956E-16
3.944514E+03	2.929219E-14	5.095344E-16
3.954450E+03	2.983258E-14	5.090532E-16
3.964386E+03	3.027024E-14	5.064277E-16
3.974322E+03	3.061922E-14	5.019924E-16
3.984258E+03	3.089534E-14	4.960927E-16
3.994194E+03	3.111559E-14	4.890729E-16
4.004129E+03	3.129485E-14	4.812230E-16
4.014065E+03	3.144482E-14	4.727657E-16
4.024001E+03	3.157267E-14	4.638424E-16
4.033937E+03	3.168155E-14	4.545277E-16
4.043873E+03	3.176920E-14	4.448173E-16
4.053808E+03	3.182908E-14	4.346523E-16
4.063744E+03	3.185138E-14	4.239404E-16
4.073680E+03	3.182441E-14	4.125795E-16
4.083616E+03	3.173640E-14	4.004838E-16
4.093552E+03	3.157629E-14	3.875932E-16
4.103487E+03	3.133599E-14	3.738993E-16
4.113423E+03	3.101018E-14	3.594372E-16
4.123359E+03	3.059669E-14	3.442848E-16
4.133295E+03	3.009641E-14	3.285563E-16
4.143231E+03	2.951310E-14	3.123943E-16
4.153166E+03	2.885342E-14	2.959651E-16
4.163102E+03	2.812585E-14	2.794428E-16
4.173038E+03	2.734211E-14	2.630196E-16
4.182974E+03	2.651629E-14	2.468931E-16
4.192910E+03	2.566403E-14	2.312545E-16
4.202845E+03	2.480331E-14	2.162948E-16
4.212781E+03	2.395278E-14	2.021874E-16
4.222717E+03	2.313183E-14	1.890895E-16
4.232653E+03	2.235889E-14	1.771298E-16
4.242589E+03	2.165100E-14	1.664087E-16
4.252524E+03	2.102350E-14	1.570007E-16
4.262460E+03	2.048771E-14	1.489423E-16
4.272396E+03	2.005194E-14	1.422466E-16
4.282332E+03	1.971981E-14	1.368966E-16
4.292268E+03	1.949119E-14	1.328577E-16
4.302203E+03	1.936227E-14	1.300809E-16
4.312139E+03	1.932635E-14	1.285101E-16
4.322075E+03	1.937363E-14	1.280800E-16
4.332011E+03	1.949135E-14	1.287044E-16
4.341947E+03	1.966478E-14	1.302704E-16
4.351882E+03	1.987631E-14	1.326451E-16
4.361818E+03	2.010673E-14	1.356813E-16
4.371754E+03	2.033578E-14	1.392164E-16
4.381690E+03	2.054567E-14	1.430937E-16
4.391626E+03	2.072502E-14	1.471890E-16
4.401562E+03	2.087736E-14	1.514759E-16
4.411497E+03	2.101460E-14	1.559899E-16
4.421433E+03	2.115210E-14	1.608003E-16
4.431369E+03	2.130548E-14	1.659911E-16
4.441305E+03	2.148656E-14	1.716305E-16
4.451241E+03	2.170207E-14	1.777579E-16
4.461176E+03	2.195253E-14	1.843690E-16
4.471112E+03	2.223235E-14	1.914107E-16
4.481048E+03	2.253068E-14	1.987808E-16
4.490984E+03	2.283334E-14	2.063398E-16
4.500920E+03	2.312399E-14	2.139175E-16
4.510855E+03	2.338604E-14	2.213287E-16
4.520791E+03	2.360453E-14	2.283912E-16
4.530727E+03	2.376757E-14	2.349422E-16
4.540663E+03	2.386619E-14	2.408403E-16
4.550599E+03	2.389416E-14	2.459675E-16
4.560534E+03	2.384903E-14	2.502429E-16
4.570470E+03	2.372967E-14	2.536010E-16
4.580406E+03	2.353793E-14	2.560109E-16
4.590342E+03	2.327731E-14	2.574645E-16
4.600278E+03	2.295283E-14	2.579772E-16
4.610213E+03	2.257147E-14	2.575932E-16
4.620149E+03	2.214124E-14	2.563767E-16
4.630085E+03	2.167213E-14	2.544234E-16
4.640021E+03	2.117372E-14	2.518330E-16
4.649957E+03	2.065644E-14	2.487236E-16
4.659892E+03	2.012967E-14	2.452081E-16
4.669828E+03	1.960187E-14	2.413944E-16
4.679764E+03	1.907972E-14	2.373741E-16
4.689700E+03	1.856883E-14	2.332285E-16
4.699636E+03	1.807304E-14	2.290197E-16
4.709571E+03	1.759549E-14	2.248020E-16
4.719507E+03	1.713757E-14	2.206087E-16
4.729443E+03	1.670047E-14	2.164696E-16
4.739379E+03	1.628459E-14	2.124047E-16
4.749315E+03	1.588985E-14	2.084268E-16
4.759250E+03	1.551630E-14	2.045499E-16
4.769186E+03	1.516372E-14	2.007834E-16
4.779122E+03	1.483228E-14	1.971409E-16
4.789058E+03	1.452256E-14	1.936408E-16
4.798994E+03	1.423567E-14	1.903081E-16
4.808930E+03	1.397327E-14	1.871739E-16
4.818865E+03	1.373809E-14	1.842829E-16
4.828801E+03	1.353251E-14	1.816745E-16
4.838737E+03	1.335960E-14	1.793958E-16
4.848673E+03	1.322152E-14	1.774803E-16
4.858609E+03	1.311961E-14	1.759494E-16
4.868544E+03	1.305328E-14	1.747964E-16
4.878480E+03	1.302051E-14	1.739944E-16
4.888416E+03	1.301753E-14	1.734915E-16
4.898352E+03	1.303928E-14	1.732181E-16
4.908288E+03	1.308051E-14	1.731020E-16
4.918223E+03	1.313613E-14	1.730728E-16
4.928159E+03	1.320255E-14	1.730809E-16
4.938095E+03	1.327771E-14	1.730965E-16
4.948031E+03	1.336217E-14	1.731248E-16
4.957967E+03	1.345801E-14	1.731896E-16
4.967902E+03	1.356928E-14	1.733391E-16
4.977838E+03	1.370073E-14	1.736279E-16
4.987774E+03	1.385747E-14	1.741133E-16
4.997710E+03	1.404391E-14	1.748404E-16
5.007646E+03	1.426297E-14	1.758331E-16
5.017581E+03	1.451631E-14	1.770978E-16
5.027517E+03	1.480338E-14	1.786119E-16
5.037453E+03	1.512128E-14	1.803247E-16
5.047389E+03	1.546429E-14	1.821524E-16
5.057325E+03	1.582472E-14	1.839920E-16
5.067260E+03	1.619226E-14	1.857146E-16
5.077196E+03	1.655425E-14	1.871711E-16
5.087132E+03	1.689778E-14	1.882190E-16
5.097068E+03	1.720869E-14	1.887117E-16
5.107004E+03	1.747364E-14	1.885229E-16
5.116939E+03	1.768061E-14	1.875513E-16
5.126875E+03	1.781937E-14	1.857253E-16
5.136811E+03	1.788246E-14	1.830112E-16
5.146747E+03	1.786474E-14	1.794068E-16
5.156683E+03	1.776413E-14	1.749460E-16
5.166618E+03	1.758145E-14	1.696938E-16
5.176554E+03	1.732013E-14	1.637412E-16
5.186490E+03	1.698737E-14	1.572122E-16
5.196426E+03	1.659290E-14	1.502490E-16
5.206362E+03	1.614948E-14	1.430127E-16
5.216298E+03	1.567273E-14	1.356789E-16
5.226233E+03	1.518036E-14	1.284281E-16
5.236169E+03	1.469113E-14	1.214346E-16
5.246105E+03	1.422396E-14	1.148591E-16
5.256041E+03	1.379593E-14	1.088328E-16
5.265977E+03	1.342213E-14	1.034589E-16
5.275912E+03	1.311414E-14	9.880477E-17
5.285848E+03	1.288044E-14	9.490830E-17
5.295784E+03	1.272543E-14	9.177582E-17
5.305720E+03	1.264964E-14	8.938745E-17
5.315656E+03	1.264924E-14	8.769814E-17
5.325591E+03	1.271559E-14	8.663768E-17
5.335527E+03	1.283589E-14	8.611797E-17
5.345463E+03	1.299276E-14	8.603158E-17
5.355399E+03	1.316529E-14	8.625784E-17
5.365335E+03	1.332992E-14	8.666625E-17
5.375270E+03	1.346319E-14	8.713060E-17
5.385206E+03	1.354318E-14	8.752940E-17
5.395142E+03	1.355338E-14	8.775410E-17
5.405078E+03	1.348536E-14	8.773223E-17
5.415014E+03	1.334126E-14	8.744861E-17
5.424949E+03	1.314187E-14	8.700244E-17
5.434885E+03	1.292000E-14	8.657270E-17
5.444821E+03	1.270989E-14	8.635627E-17
5.454757E+03	1.254103E-14	8.653139E-17
5.464693E+03	1.243547E-14	8.724021E-17
5.474628E+03	1.240718E-14	8.858230E-17
5.484564E+03	1.246239E-14	9.061275E-17
5.494500E+03	1.259998E-14	9.334005E-17
5.504436E+03	1.281309E-14	9.673220E-17
5.514372E+03	1.308920E-14	1.007122E-16
5.524307E+03	1.341227E-14	1.051694E-16
5.534243E+03	1.376439E-14	1.099698E-16
5.544179E+03	1.412664E-14	1.149605E-16
5.554115E+03	1.448125E-14	1.199867E-16
5.564051E+03	1.481274E-14	1.249025E-16
5.573986E+03	1.510849E-14	1.295776E-16
5.583922E+03	1.535938E-14	1.339054E-16
5.593858E+03	1.555940E-14	1.378027E-16
5.603794E+03	1.570549E-14	1.412106E-16
5.613730E+03	1.579720E-14	1.440940E-16
5.623665E+03	1.583567E-14	1.464343E-16
5.633601E+03	1.582399E-14	1.482337E-16
5.643537E+03	1.576534E-14	1.494986E-16
5.653473E+03	1.566400E-14	1.502501E-16
5.663409E+03	1.552436E-14	1.505138E-16
5.673345E+03	1.535102E-14	1.503215E-16
5.683280E+03	1.514964E-14	1.497190E-16
5.693216E+03	1.492602E-14	1.487574E-16
5.703152E+03	1.468707E-14	1.475021E-16
5.713088E+03	1.444028E-14	1.460280E-16
5.723024E+03	1.419382E-14	1.444197E-16
5.732959E+03	1.395579E-14	1.427637E-16
5.742895E+03	1.373445E-14	1.411499E-16
5.752831E+03	1.353674E-14	1.396559E-16
5.762767E+03	1.336872E-14	1.383509E-16
5.772703E+03	1.323479E-14	1.372862E-16
5.782638E+03	1.313738E-14	1.364919E-16
5.792574E+03	1.307688E-14	1.359759E-16
5.802510E+03	1.305228E-14	1.357296E-16
5.812446E+03	1.306120E-14	1.357288E-16
5.822382E+03	1.309990E-14	1.359341E-16
5.832317E+03	1.316454E-14	1.363034E-16
5.842253E+03	1.325096E-14	1.367912E-16
5.852189E+03	1.335447E-14	1.373459E-16
5.862125E+03	1.347096E-14	1.379220E-16
5.872061E+03	1.359595E-14	1.384704E-16
5.881996E+03	1.372453E-14	1.389390E-16
5.891932E+03	1.385203E-14	1.392786E-16
5.901868E+03	1.397329E-14	1.394374E-16
5.911804E+03	1.408202E-14	1.393543E-16
5.921740E+03	1.417149E-14	1.389669E-16
5.931675E+03	1.423380E-14	1.382049E-16
5.941611E+03	1.425976E-14	1.369901E-16
5.951547E+03	1.423931E-14	1.352418E-16
5.961483E+03	1.416166E-14	1.328789E-16
5.971419E+03	1.401573E-14	1.298245E-16
5.981354E+03	1.379152E-14	1.260199E-16
5.991290E+03	1.348088E-14	1.214304E-16
6.001226E+03	1.307958E-14	1.160630E-16
6.011162E+03	1.258839E-14	1.099728E-16
6.021098E+03	1.201505E-14	1.032760E-16
6.031033E+03	1.137335E-14	9.613675E-17
6.040969E+03	1.068380E-14	8.876708E-17
6.050905E+03	9.970449E-15	8.139562E-17
6.060841E+03	9.259794E-15	7.425529E-17
6.070777E+03	8.576990E-15	6.755126E-17
6.080713E+03	7.944570E-15	6.145222E-17
6.090648E+03	7.380405E-15	5.607722E-17
6.100584E+03	6.897259E-15	5.149663E-17
6.110520E+03	6.503255E-15	4.774029E-17
6.120456E+03	6.202846E-15	4.480900E-17
6.130392E+03	5.997725E-15	4.268478E-17
6.140327E+03	5.887993E-15	4.134221E-17
6.150263E+03	5.872948E-15	4.075620E-17
6.160199E+03	5.951534E-15	4.090695E-17
6.170135E+03	6.122061E-15	4.177951E-17
6.180071E+03	6.381503E-15	4.336047E-17
6.190006E+03	6.725143E-15	4.563644E-17
6.199942E+03	7.145166E-15	4.858484E-17
6.209878E+03	7.630315E-15	5.217047E-17
6.219814E+03	8.165696E-15	5.633907E-17
6.229750E+03	8.732510E-15	6.100369E-17
6.239685E+03	9.309190E-15	6.605112E-17
6.249621E+03	9.872568E-15	7.134524E-17
6.259557E+03	1.039978E-14	7.673499E-17
6.269493E+03	1.087057E-14	8.206760E-17
6.279429E+03	1.126780E-14	8.719153E-17
6.289364E+03	1.157975E-14	9.197544E-17
6.299300E+03	1.179943E-14	9.630725E-17
6.309236E+03	1.192533E-14	1.001060E-16
6.319172E+03	1.195995E-14	1.033165E-16
6.329108E+03	1.190995E-14	1.059168E-16
6.339043E+03	1.178515E-14	1.079164E-16
6.348979E+03	1.159742E-14	1.093515E-16
6.358915E+03	1.136141E-14	1.102967E-16
6.368851E+03	1.109303E-14	1.108548E-16
6.378787E+03	1.080920E-14	1.111578E-16
6.388722E+03	1.052728E-14	1.113630E-16
6.398658E+03	1.026398E-14	1.116426E-16
6.408594E+03	1.003419E-14	1.121700E-16
6.418530E+03	9.849739E-15	1.131031E-16
6.428466E+03	9.713749E-15	1.145135E-16
6.438401E+03	9.618742E-15	1.163493E-16
6.448337E+03	9.554737E-15	1.185197E-16
6.458273E+03	9.512209E-15	1.209279E-16
6.468209E+03	9.482111E-15	1.234722E-16
6.478145E+03	9.456707E-15	1.260575E-16
6.488081E+03	9.429868E-15	1.286012E-16
6.498016E+03	9.397034E-15	1.310356E-16
6.507952E+03	9.355297E-15	1.333112E-16
6.517888E+03	9.302772E-15	1.353898E-16
6.527824E+03	9.238946E-15	1.372521E-16
6.537760E+03	9.163986E-15	1.388883E-16
6.547695E+03	9.078536E-15	1.402971E-16
6.557631E+03	8.983952E-15	1.414889E-16
6.567567E+03	8.881657E-15	1.424776E-16
6.577503E+03	8.773165E-15	1.432802E-16
6.587439E+03	8.659968E-15	1.439157E-16
6.597374E+03	8.543437E-15	1.444028E-16
6.607310E+03	8.424781E-15	1.447593E-16
6.617246E+03	8.304838E-15	1.449979E-16
6.627182E+03	8.184521E-15	1.451338E-16
6.637118E+03	8.064243E-15	1.451746E-16
6.647053E+03	7.944503E-15	1.451297E-16
6.656989E+03	7.825515E-15	1.450038E-16
6.666925E+03	7.707271E-15	1.447981E-16
6.676861E+03	7.589855E-15	1.445154E-16
6.686797E+03	7.473521E-15	1.441617E-16
6.696732E+03	7.358169E-15	1.437369E-16
6.706668E+03	7.244330E-15	1.432530E-16
6.716604E+03	7.132245E-15	1.427167E-16
6.726540E+03	7.022291E-15	1.421379E-16
6.736476E+03	6.915145E-15	1.415328E-16
6.746411E+03	6.811407E-15	1.409168E-16
6.756347E+03	6.711555E-15	1.403031E-16
6.766283E+03	6.616253E-15	1.397092E-16
6.776219E+03	6.525834E-15	1.391461E-16
6.786155E+03	6.440769E-15	1.386278E-16
6.796090E+03	6.361044E-15	1.381583E-16
6.806026E+03	6.286989E-15	1.377486E-16
6.815962E+03	6.218345E-15	1.373971E-16
6.825898E+03	6.155217E-15	1.371098E-16
6.835834E+03	6.097172E-15	1.368808E-16
6.845769E+03	6.044073E-15	1.367101E-16
6.855705E+03	5.995521E-15	1.365917E-16
6.865641E+03	5.951318E-15	1.365239E-16
6.875577E+03	5.911035E-15	1.364992E-16
6.885513E+03	5.874459E-15	1.365148E-16
6.895449E+03	5.841040E-15	1.365599E-16
6.905384E+03	5.810675E-15	1.366337E-16
6.915320E+03	5.782920E-15	1.367272E-16
6.925256E+03	5.757324E-15	1.368309E-16
6.935192E+03	5.733760E-15	1.369429E-16
6.945128E+03	5.711648E-15	1.370500E-16
6.955063E+03	5.690738E-15	1.371470E-16
6.964999E+03	5.670567E-15	1.372231E-16
6.974935E+03	5.650921E-15	1.372737E-16
6.984871E+03	5.631404E-15	1.372892E-16
6.994807E+03	5.611895E-15	1.372670E-16
7.004742E+03	5.592003E-15	1.371976E-16
7.014678E+03	5.571829E-15	1.370836E-16
7.024614E+03	5.551084E-15	1.369181E-16
7.034550E+03	5.529954E-15	1.367058E-16
7.044486E+03	5.508205E-15	1.364411E-16
7.054421E+03	5.485952E-15	1.361269E-16
7.064357E+03	5.463092E-15	1.357610E-16
7.074293E+03	5.439753E-15	1.353467E-16
7.084229E+03	5.415952E-15	1.348848E-16
7.094165E+03	5.391497E-15	1.343707E-16
7.104100E+03	5.366628E-15	1.338108E-16
7.114036E+03	5.341361E-15	1.332058E-16
7.123972E+03	5.315482E-15	1.325508E-16
7.133908E+03	5.289079E-15	1.318484E-16
7.143844E+03	5.262097E-15	1.310976E-16
7.153779E+03	5.234333E-15	1.302938E-16
7.163715E+03	5.205854E-15	1.294393E-16
7.173651E+03	5.176254E-15	1.285244E-16
7.183587E+03	5.145294E-15	1.275440E-16
7.193523E+03	5.112804E-15	1.264944E-16
7.203458E+03	5.078270E-15	1.253638E-16
7.213394E+03	5.041592E-15	1.241508E-16
7.223330E+03	5.002353E-15	1.228461E-16
7.233266E+03	4.960269E-15	1.214440E-16
7.243202E+03	4.914988E-15	1.199374E-16
7.253137E+03	4.866327E-15	1.183235E-16
7.263073E+03	4.814280E-15	1.166040E-16
7.273009E+03	4.758735E-15	1.147782E-16
7.282945E+03	4.699695E-15	1.128482E-16
7.292881E+03	4.637378E-15	1.108216E-16
7.302817E+03	4.572113E-15	1.087086E-16
7.312752E+03	4.504321E-15	1.065215E-16
7.322688E+03	4.434393E-15	1.042719E-16
7.332624E+03	4.362765E-15	1.019721E-16
7.342560E+03	4.289971E-15	9.963691E-17
7.352496E+03	4.216347E-15	9.727591E-17
7.362431E+03	4.142550E-15	9.490608E-17
7.372367E+03	4.068747E-15	9.253280E-17
7.382303E+03	3.995343E-15	9.016678E-17
7.392239E+03	3.922817E-15	8.781999E-17
7.402175E+03	3.851663E-15	8.550442E-17
7.412110E+03	3.782250E-15	8.322893E-17
7.422046E+03	3.715255E-15	8.100869E-17
7.431982E+03	3.651249E-15	7.885596E-17
7.441918E+03	3.591008E-15	7.678681E-17
7.451854E+03	3.535085E-15	7.481184E-17
7.461789E+03	3.484254E-15	7.294555E-17
7.471725E+03	3.439078E-15	7.119723E-17
7.481661E+03	3.400034E-15	6.957370E-17
7.491597E+03	3.367564E-15	6.808032E-17
7.501533E+03	3.341834E-15	6.671634E-17
7.511468E+03	3.323106E-15	6.548246E-17
7.521404E+03	3.311297E-15	6.437212E-17
7.531340E+03	3.306295E-15	6.337811E-17
7.541276E+03	3.307982E-15	6.249292E-17
7.551212E+03	3.316106E-15	6.170652E-17
7.561147E+03	3.330382E-15	6.100827E-17
7.571083E+03	3.350421E-15	6.038585E-17
7.581019E+03	3.376045E-15	5.983093E-17
7.590955E+03	3.406748E-15	5.932954E-17
7.600891E+03	3.442297E-15	5.887286E-17
7.610826E+03	3.482095E-15	5.844612E-17
7.620762E+03	3.525801E-15	5.803947E-17
7.630698E+03	3.572705E-15	5.763745E-17
7.640634E+03	3.622403E-15	5.723038E-17
7.650570E+03	3.674251E-15	5.680540E-17
7.660505E+03	3.727702E-15	5.635205E-17
7.670441E+03	3.782145E-15	5.585973E-17
7.680377E+03	3.837241E-15	5.532271E-17
7.690313E+03	3.892361E-15	5.473188E-17
7.700249E+03	3.946893E-15	5.407939E-17
7.710184E+03	4.000006E-15	5.335563E-17
