#wls	flux	fluxerr
1.589729E+03	1.917156E-15	1.339362E-16
1.629472E+03	1.670730E-15	1.145397E-16
1.669215E+03	1.432729E-15	9.634699E-17
1.708958E+03	1.208450E-15	7.967959E-17
1.748702E+03	1.001618E-15	6.472780E-17
1.788445E+03	8.150268E-16	5.160185E-17
1.828188E+03	6.500033E-16	4.030492E-17
1.867931E+03	5.075121E-16	3.081026E-17
1.907675E+03	3.876098E-16	2.303153E-17
1.947418E+03	2.896530E-16	1.684135E-17
1.987161E+03	2.125252E-16	1.208910E-17
2.026904E+03	1.544619E-16	8.594664E-18
2.066647E+03	1.131405E-16	6.157718E-18
2.106391E+03	8.579628E-17	4.567393E-18
2.146134E+03	6.956928E-17	3.622927E-18
2.185877E+03	6.191146E-17	3.154588E-18
2.225620E+03	6.123225E-17	3.053638E-18
2.265363E+03	6.732557E-17	3.287549E-18
2.305107E+03	8.149679E-17	3.898823E-18
2.344850E+03	1.069722E-16	5.017306E-18
2.384593E+03	1.497498E-16	6.891870E-18
2.424336E+03	2.198011E-16	9.934849E-18
2.464080E+03	3.323347E-16	1.476557E-17
2.503823E+03	5.085187E-16	2.222737E-17
2.543566E+03	7.738549E-16	3.330327E-17
2.583309E+03	1.152456E-15	4.886638E-17
2.623052E+03	1.656563E-15	6.925245E-17
2.662796E+03	2.279528E-15	9.400801E-17
2.702539E+03	2.993106E-15	1.218302E-16
2.742282E+03	3.747113E-15	1.506020E-16
2.782025E+03	4.477676E-15	1.777648E-16
2.821769E+03	5.120384E-15	2.008553E-16
2.861512E+03	5.624370E-15	2.180438E-16
2.901255E+03	5.962667E-15	2.284946E-16
2.940998E+03	6.134922E-15	2.324149E-16
2.980741E+03	6.163021E-15	2.308354E-16
2.990677E+03	6.151549E-15	2.297524E-16
3.000613E+03	6.133818E-15	2.284411E-16
3.010549E+03	6.110720E-15	2.269362E-16
3.020485E+03	6.082671E-15	2.252550E-16
3.030420E+03	6.051098E-15	2.234514E-16
3.040356E+03	6.016037E-15	2.215277E-16
3.050292E+03	5.979254E-15	2.195497E-16
3.060228E+03	5.940928E-15	2.175244E-16
3.070164E+03	5.901861E-15	2.154812E-16
3.080099E+03	5.862255E-15	2.134270E-16
3.090035E+03	5.822783E-15	2.113860E-16
3.099971E+03	5.783882E-15	2.093734E-16
3.109907E+03	5.745869E-15	2.073998E-16
3.119843E+03	5.709394E-15	2.054881E-16
3.129779E+03	5.674776E-15	2.036486E-16
3.139714E+03	5.642541E-15	2.018992E-16
3.149650E+03	5.613110E-15	2.002537E-16
3.159586E+03	5.586909E-15	1.987260E-16
3.169522E+03	5.564473E-15	1.973335E-16
3.179458E+03	5.546271E-15	1.960913E-16
3.189393E+03	5.532730E-15	1.950127E-16
3.199329E+03	5.524668E-15	1.941245E-16
3.209265E+03	5.522731E-15	1.934470E-16
3.219201E+03	5.527868E-15	1.930111E-16
3.229137E+03	5.541052E-15	1.928478E-16
3.239072E+03	5.563245E-15	1.929873E-16
3.249008E+03	5.595751E-15	1.934712E-16
3.258944E+03	5.639545E-15	1.943290E-16
3.268880E+03	5.695957E-15	1.956017E-16
3.278816E+03	5.766136E-15	1.973238E-16
3.288751E+03	5.851011E-15	1.995212E-16
3.298687E+03	5.951824E-15	2.022301E-16
3.308623E+03	6.069593E-15	2.054782E-16
3.318559E+03	6.205199E-15	2.092879E-16
3.328495E+03	6.359573E-15	2.136828E-16
3.338430E+03	6.533588E-15	2.186837E-16
3.348366E+03	6.728081E-15	2.243094E-16
3.358302E+03	6.943836E-15	2.305766E-16
3.368238E+03	7.181560E-15	2.374984E-16
3.378174E+03	7.441769E-15	2.450811E-16
3.388109E+03	7.724824E-15	2.533254E-16
3.398045E+03	8.031170E-15	2.622340E-16
3.407981E+03	8.360460E-15	2.717835E-16
3.417917E+03	8.712321E-15	2.819493E-16
3.427853E+03	9.085625E-15	2.926825E-16
3.437788E+03	9.478618E-15	3.039144E-16
3.447724E+03	9.888426E-15	3.155412E-16
3.457660E+03	1.031119E-14	3.274294E-16
3.467596E+03	1.074192E-14	3.394123E-16
3.477532E+03	1.117405E-14	3.512756E-16
3.487467E+03	1.159981E-14	3.627726E-16
3.497403E+03	1.200961E-14	3.736043E-16
3.507339E+03	1.239327E-14	3.834607E-16
3.517275E+03	1.273960E-14	3.920066E-16
3.527211E+03	1.303747E-14	3.989183E-16
3.537146E+03	1.327651E-14	4.039023E-16
3.547082E+03	1.344763E-14	4.067128E-16
3.557018E+03	1.354474E-14	4.072012E-16
3.566954E+03	1.356440E-14	4.053039E-16
3.576890E+03	1.350667E-14	4.010653E-16
3.586826E+03	1.337562E-14	3.946485E-16
3.596761E+03	1.317814E-14	3.862981E-16
3.606697E+03	1.292424E-14	3.763452E-16
3.616633E+03	1.262605E-14	3.651757E-16
3.626569E+03	1.229706E-14	3.532056E-16
3.636505E+03	1.195127E-14	3.408547E-16
3.646440E+03	1.160244E-14	3.285266E-16
3.656376E+03	1.126366E-14	3.165931E-16
3.666312E+03	1.094671E-14	3.053797E-16
3.676248E+03	1.066170E-14	2.951556E-16
3.686184E+03	1.041754E-14	2.861468E-16
3.696119E+03	1.022107E-14	2.785162E-16
3.706055E+03	1.007823E-14	2.723938E-16
3.715991E+03	9.993661E-15	2.678706E-16
3.725927E+03	9.971314E-15	2.650129E-16
3.735863E+03	1.001476E-14	2.638732E-16
3.745798E+03	1.012685E-14	2.644803E-16
3.755734E+03	1.031070E-14	2.668671E-16
3.765670E+03	1.056940E-14	2.710611E-16
3.775606E+03	1.090582E-14	2.770805E-16
3.785542E+03	1.132310E-14	2.849469E-16
3.795477E+03	1.182402E-14	2.946683E-16
3.805413E+03	1.241042E-14	3.062260E-16
3.815349E+03	1.308284E-14	3.195667E-16
3.825285E+03	1.384000E-14	3.345918E-16
3.835221E+03	1.467718E-14	3.511201E-16
3.845156E+03	1.558658E-14	3.689026E-16
3.855092E+03	1.655651E-14	3.876058E-16
3.865028E+03	1.757177E-14	4.068266E-16
3.874964E+03	1.861384E-14	4.261017E-16
3.884900E+03	1.966130E-14	4.449216E-16
3.894835E+03	2.069148E-14	4.627714E-16
3.904771E+03	2.168170E-14	4.791613E-16
3.914707E+03	2.261038E-14	4.936494E-16
3.924643E+03	2.345890E-14	5.058825E-16
3.934579E+03	2.421317E-14	5.156249E-16
3.944514E+03	2.486428E-14	5.227658E-16
3.954450E+03	2.540933E-14	5.273305E-16
3.964386E+03	2.585107E-14	5.294640E-16
3.974322E+03	2.619707E-14	5.294071E-16
3.984258E+03	2.645816E-14	5.274574E-16
3.994194E+03	2.664768E-14	5.239515E-16
4.004129E+03	2.677955E-14	5.192231E-16
4.014065E+03	2.686689E-14	5.135755E-16
4.024001E+03	2.692079E-14	5.072602E-16
4.033937E+03	2.694984E-14	5.004700E-16
4.043873E+03	2.695998E-14	4.933405E-16
4.053808E+03	2.695408E-14	4.859460E-16
4.063744E+03	2.693269E-14	4.783161E-16
4.073680E+03	2.689403E-14	4.704402E-16
4.083616E+03	2.683515E-14	4.622889E-16
4.093552E+03	2.675223E-14	4.538217E-16
4.103487E+03	2.664140E-14	4.450014E-16
4.113423E+03	2.649908E-14	4.357995E-16
4.123359E+03	2.632162E-14	4.261895E-16
4.133295E+03	2.610566E-14	4.161533E-16
4.143231E+03	2.584758E-14	4.056710E-16
4.153166E+03	2.554449E-14	3.947370E-16
4.163102E+03	2.519380E-14	3.833516E-16
4.173038E+03	2.479481E-14	3.715443E-16
4.182974E+03	2.434815E-14	3.593635E-16
4.192910E+03	2.385741E-14	3.468973E-16
4.202845E+03	2.332847E-14	3.342617E-16
4.212781E+03	2.277091E-14	3.216172E-16
4.222717E+03	2.219618E-14	3.091407E-16
4.232653E+03	2.161828E-14	2.970324E-16
4.242589E+03	2.105122E-14	2.854812E-16
4.252524E+03	2.050902E-14	2.746648E-16
4.262460E+03	2.000500E-14	2.647424E-16
4.272396E+03	1.954974E-14	2.558296E-16
4.282332E+03	1.915232E-14	2.480180E-16
4.292268E+03	1.881850E-14	2.413539E-16
4.302203E+03	1.855223E-14	2.358612E-16
4.312139E+03	1.835434E-14	2.315262E-16
4.322075E+03	1.822288E-14	2.283043E-16
4.332011E+03	1.815320E-14	2.261222E-16
4.341947E+03	1.813733E-14	2.248694E-16
4.351882E+03	1.816458E-14	2.243985E-16
4.361818E+03	1.822117E-14	2.245255E-16
4.371754E+03	1.829250E-14	2.250591E-16
4.381690E+03	1.836513E-14	2.258246E-16
4.391626E+03	1.843302E-14	2.267378E-16
4.401562E+03	1.850341E-14	2.278773E-16
4.411497E+03	1.859227E-14	2.294294E-16
4.421433E+03	1.871706E-14	2.316002E-16
4.431369E+03	1.889346E-14	2.345778E-16
4.441305E+03	1.913262E-14	2.384979E-16
4.451241E+03	1.943971E-14	2.434257E-16
4.461176E+03	1.981289E-14	2.493418E-16
4.471112E+03	2.024400E-14	2.561477E-16
4.481048E+03	2.071928E-14	2.636728E-16
4.490984E+03	2.122107E-14	2.716933E-16
4.500920E+03	2.172839E-14	2.799367E-16
4.510855E+03	2.221932E-14	2.881114E-16
4.520791E+03	2.267235E-14	2.959232E-16
4.530727E+03	2.306755E-14	3.030900E-16
4.540663E+03	2.338884E-14	3.093730E-16
4.550599E+03	2.362370E-14	3.145747E-16
4.560534E+03	2.376424E-14	3.185548E-16
4.570470E+03	2.380579E-14	3.212140E-16
4.580406E+03	2.374741E-14	3.225028E-16
4.590342E+03	2.359051E-14	3.224044E-16
4.600278E+03	2.333885E-14	3.209364E-16
4.610213E+03	2.299899E-14	3.181586E-16
4.620149E+03	2.257973E-14	3.141654E-16
4.630085E+03	2.209153E-14	3.090802E-16
4.640021E+03	2.154615E-14	3.030498E-16
4.649957E+03	2.095694E-14	2.962492E-16
4.659892E+03	2.033695E-14	2.888548E-16
4.669828E+03	1.969838E-14	2.810361E-16
4.679764E+03	1.905285E-14	2.729593E-16
4.689700E+03	1.841072E-14	2.647758E-16
4.699636E+03	1.778042E-14	2.566127E-16
4.709571E+03	1.716939E-14	2.485849E-16
4.719507E+03	1.658334E-14	2.407835E-16
4.729443E+03	1.602693E-14	2.332855E-16
4.739379E+03	1.550344E-14	2.261482E-16
4.749315E+03	1.501506E-14	2.194126E-16
4.759250E+03	1.456339E-14	2.131109E-16
4.769186E+03	1.414917E-14	2.072620E-16
4.779122E+03	1.377296E-14	2.018812E-16
4.789058E+03	1.343484E-14	1.969760E-16
4.798994E+03	1.313501E-14	1.925545E-16
4.808930E+03	1.287387E-14	1.886265E-16
4.818865E+03	1.265214E-14	1.852058E-16
4.828801E+03	1.247054E-14	1.823042E-16
4.838737E+03	1.232982E-14	1.799335E-16
4.848673E+03	1.223019E-14	1.780956E-16
4.858609E+03	1.217104E-14	1.767792E-16
4.868544E+03	1.214952E-14	1.759396E-16
4.878480E+03	1.216063E-14	1.754999E-16
4.888416E+03	1.219737E-14	1.753547E-16
4.898352E+03	1.225195E-14	1.753877E-16
4.908288E+03	1.231627E-14	1.754793E-16
4.918223E+03	1.238323E-14	1.755266E-16
4.928159E+03	1.244768E-14	1.754553E-16
4.938095E+03	1.250675E-14	1.752255E-16
4.948031E+03	1.256043E-14	1.748378E-16
4.957967E+03	1.261126E-14	1.743291E-16
4.967902E+03	1.266438E-14	1.737705E-16
4.977838E+03	1.272657E-14	1.732541E-16
4.987774E+03	1.280548E-14	1.728802E-16
4.997710E+03	1.290914E-14	1.727508E-16
5.007646E+03	1.304513E-14	1.729574E-16
5.017581E+03	1.321980E-14	1.735709E-16
5.027517E+03	1.343795E-14	1.746382E-16
5.037453E+03	1.370199E-14	1.761715E-16
5.047389E+03	1.401122E-14	1.781413E-16
5.057325E+03	1.436216E-14	1.804829E-16
5.067260E+03	1.474792E-14	1.830905E-16
5.077196E+03	1.515844E-14	1.858231E-16
5.087132E+03	1.558108E-14	1.885151E-16
5.097068E+03	1.600120E-14	1.909849E-16
5.107004E+03	1.640304E-14	1.930482E-16
5.116939E+03	1.677051E-14	1.945285E-16
5.126875E+03	1.708855E-14	1.952733E-16
5.136811E+03	1.734316E-14	1.951541E-16
5.146747E+03	1.752308E-14	1.940839E-16
5.156683E+03	1.761942E-14	1.920114E-16
5.166618E+03	1.762657E-14	1.889283E-16
5.176554E+03	1.754246E-14	1.848690E-16
5.186490E+03	1.736910E-14	1.799123E-16
5.196426E+03	1.711269E-14	1.741791E-16
5.206362E+03	1.678469E-14	1.678380E-16
5.216298E+03	1.639997E-14	1.610830E-16
5.226233E+03	1.597647E-14	1.541259E-16
5.236169E+03	1.553358E-14	1.471794E-16
5.246105E+03	1.509109E-14	1.404453E-16
5.256041E+03	1.466780E-14	1.341021E-16
5.265977E+03	1.428029E-14	1.282959E-16
5.275912E+03	1.394203E-14	1.231352E-16
5.285848E+03	1.366249E-14	1.186862E-16
5.295784E+03	1.344732E-14	1.149790E-16
5.305720E+03	1.329753E-14	1.120040E-16
5.315656E+03	1.321049E-14	1.097240E-16
5.325591E+03	1.318014E-14	1.080784E-16
5.335527E+03	1.319626E-14	1.069791E-16
5.345463E+03	1.324575E-14	1.063220E-16
5.355399E+03	1.331195E-14	1.059816E-16
5.365335E+03	1.337608E-14	1.058208E-16
5.375270E+03	1.341785E-14	1.056944E-16
5.385206E+03	1.341797E-14	1.054639E-16
5.395142E+03	1.335975E-14	1.049995E-16
5.405078E+03	1.323337E-14	1.042111E-16
5.415014E+03	1.304032E-14	1.030899E-16
5.424949E+03	1.279965E-14	1.017600E-16
5.434885E+03	1.254202E-14	1.004375E-16
5.444821E+03	1.229959E-14	9.935599E-17
5.454757E+03	1.210085E-14	9.872897E-17
5.464693E+03	1.196794E-14	9.872985E-17
5.474628E+03	1.191652E-14	9.949042E-17
5.484564E+03	1.195587E-14	1.010992E-16
5.494500E+03	1.208858E-14	1.035958E-16
5.504436E+03	1.231120E-14	1.069725E-16
5.514372E+03	1.261396E-14	1.111670E-16
5.524307E+03	1.298258E-14	1.160741E-16
5.534243E+03	1.339807E-14	1.215394E-16
5.544179E+03	1.383813E-14	1.273689E-16
5.554115E+03	1.427872E-14	1.333401E-16
5.564051E+03	1.469580E-14	1.392171E-16
5.573986E+03	1.506722E-14	1.447689E-16
5.583922E+03	1.537540E-14	1.497970E-16
5.593858E+03	1.560789E-14	1.541440E-16
5.603794E+03	1.575896E-14	1.577138E-16
5.613730E+03	1.582782E-14	1.604585E-16
5.623665E+03	1.581891E-14	1.623844E-16
5.633601E+03	1.573973E-14	1.635342E-16
5.643537E+03	1.559986E-14	1.639776E-16
5.653473E+03	1.541037E-14	1.638069E-16
5.663409E+03	1.518253E-14	1.631230E-16
5.673345E+03	1.492750E-14	1.620330E-16
5.683280E+03	1.465566E-14	1.606414E-16
5.693216E+03	1.437658E-14	1.590492E-16
5.703152E+03	1.409961E-14	1.573599E-16
5.713088E+03	1.383323E-14	1.556713E-16
5.723024E+03	1.358509E-14	1.540750E-16
5.732959E+03	1.336233E-14	1.526597E-16
5.742895E+03	1.317108E-14	1.515043E-16
5.752831E+03	1.301605E-14	1.506729E-16
5.762767E+03	1.290023E-14	1.502098E-16
5.772703E+03	1.282507E-14	1.501415E-16
5.782638E+03	1.279013E-14	1.504715E-16
5.792574E+03	1.279297E-14	1.511785E-16
5.802510E+03	1.282927E-14	1.522177E-16
5.812446E+03	1.289378E-14	1.535311E-16
5.822382E+03	1.298046E-14	1.550502E-16
5.832317E+03	1.308330E-14	1.567050E-16
5.842253E+03	1.319643E-14	1.584265E-16
5.852189E+03	1.331431E-14	1.601486E-16
5.862125E+03	1.343229E-14	1.618161E-16
5.872061E+03	1.354612E-14	1.633775E-16
5.881996E+03	1.365263E-14	1.647957E-16
5.891932E+03	1.374813E-14	1.660270E-16
5.901868E+03	1.382962E-14	1.670365E-16
5.911804E+03	1.389379E-14	1.677863E-16
5.921740E+03	1.393638E-14	1.682280E-16
5.931675E+03	1.395236E-14	1.683047E-16
5.941611E+03	1.393584E-14	1.679496E-16
5.951547E+03	1.387946E-14	1.670798E-16
5.961483E+03	1.377539E-14	1.656078E-16
5.971419E+03	1.361491E-14	1.634371E-16
5.981354E+03	1.339041E-14	1.604849E-16
5.991290E+03	1.309516E-14	1.566810E-16
6.001226E+03	1.272590E-14	1.519972E-16
6.011162E+03	1.228283E-14	1.464465E-16
6.021098E+03	1.177218E-14	1.401137E-16
6.031033E+03	1.120560E-14	1.331465E-16
6.040969E+03	1.060006E-14	1.257538E-16
6.050905E+03	9.975607E-15	1.181783E-16
6.060841E+03	9.353738E-15	1.106770E-16
6.070777E+03	8.754229E-15	1.034841E-16
6.080713E+03	8.194797E-15	9.680775E-17
6.090648E+03	7.689182E-15	9.080786E-17
6.100584E+03	7.247787E-15	8.560487E-17
6.110520E+03	6.877546E-15	8.127894E-17
6.120456E+03	6.582673E-15	7.787947E-17
6.130392E+03	6.364985E-15	7.542963E-17
6.140327E+03	6.225136E-15	7.394127E-17
6.150263E+03	6.162781E-15	7.341740E-17
6.160199E+03	6.177050E-15	7.385807E-17
6.170135E+03	6.266564E-15	7.526096E-17
6.180071E+03	6.429440E-15	7.762143E-17
6.190006E+03	6.662819E-15	8.092706E-17
6.199942E+03	6.962129E-15	8.514824E-17
6.209878E+03	7.320757E-15	9.023238E-17
6.219814E+03	7.729451E-15	9.609199E-17
6.229750E+03	8.175954E-15	1.025999E-16
6.239685E+03	8.645302E-15	1.095907E-16
6.249621E+03	9.120234E-15	1.168626E-16
6.259557E+03	9.582262E-15	1.241885E-16
6.269493E+03	1.001323E-14	1.313329E-16
6.279429E+03	1.039641E-14	1.380662E-16
6.289364E+03	1.071834E-14	1.441886E-16
6.299300E+03	1.096897E-14	1.495338E-16
6.309236E+03	1.114288E-14	1.539891E-16
6.319172E+03	1.123896E-14	1.574944E-16
6.329108E+03	1.126042E-14	1.600467E-16
6.339043E+03	1.121379E-14	1.616906E-16
6.348979E+03	1.110871E-14	1.625195E-16
6.358915E+03	1.095694E-14	1.626643E-16
6.368851E+03	1.077160E-14	1.622859E-16
6.378787E+03	1.056680E-14	1.615709E-16
6.388722E+03	1.035698E-14	1.607238E-16
6.398658E+03	1.015602E-14	1.599534E-16
6.408594E+03	9.976203E-15	1.594567E-16
6.418530E+03	9.826848E-15	1.593946E-16
6.428466E+03	9.711296E-15	1.598392E-16
6.438401E+03	9.626306E-15	1.607568E-16
6.448337E+03	9.565583E-15	1.620592E-16
6.458273E+03	9.522580E-15	1.636484E-16
6.468209E+03	9.490678E-15	1.654190E-16
6.478145E+03	9.463772E-15	1.672687E-16
6.488081E+03	9.436927E-15	1.691101E-16
6.498016E+03	9.406045E-15	1.708663E-16
6.507952E+03	9.367868E-15	1.724723E-16
6.517888E+03	9.320277E-15	1.738808E-16
6.527824E+03	9.262315E-15	1.750649E-16
6.537760E+03	9.193072E-15	1.759977E-16
6.547695E+03	9.113015E-15	1.766785E-16
6.557631E+03	9.022813E-15	1.771108E-16
6.567567E+03	8.923189E-15	1.773003E-16
6.577503E+03	8.815679E-15	1.772701E-16
6.587439E+03	8.701341E-15	1.770350E-16
6.597374E+03	8.581848E-15	1.766238E-16
6.607310E+03	8.458214E-15	1.760533E-16
6.617246E+03	8.331811E-15	1.753490E-16
6.627182E+03	8.203728E-15	1.745318E-16
6.637118E+03	8.074760E-15	1.736175E-16
6.647053E+03	7.945693E-15	1.726223E-16
6.656989E+03	7.817273E-15	1.715627E-16
6.666925E+03	7.689831E-15	1.704465E-16
6.676861E+03	7.563680E-15	1.692815E-16
6.686797E+03	7.439067E-15	1.680745E-16
6.696732E+03	7.316135E-15	1.668302E-16
6.706668E+03	7.195024E-15	1.655531E-16
6.716604E+03	7.075902E-15	1.642487E-16
6.726540E+03	6.958847E-15	1.629208E-16
6.736476E+03	6.844245E-15	1.615802E-16
6.746411E+03	6.732403E-15	1.602363E-16
6.756347E+03	6.623554E-15	1.588969E-16
6.766283E+03	6.518205E-15	1.575767E-16
6.776219E+03	6.416632E-15	1.562851E-16
6.786155E+03	6.319228E-15	1.550344E-16
6.796090E+03	6.226344E-15	1.538363E-16
6.806026E+03	6.138261E-15	1.527008E-16
6.815962E+03	6.055274E-15	1.516384E-16
6.825898E+03	5.977250E-15	1.506489E-16
6.835834E+03	5.904298E-15	1.497382E-16
6.845769E+03	5.836330E-15	1.489069E-16
6.855705E+03	5.773065E-15	1.481508E-16
6.865641E+03	5.714348E-15	1.474684E-16
6.875577E+03	5.659834E-15	1.468532E-16
6.885513E+03	5.609000E-15	1.462939E-16
6.895449E+03	5.561391E-15	1.457804E-16
6.905384E+03	5.516630E-15	1.453045E-16
6.915320E+03	5.474130E-15	1.448521E-16
6.925256E+03	5.433423E-15	1.444120E-16
6.935192E+03	5.394066E-15	1.439734E-16
6.945128E+03	5.355652E-15	1.435261E-16
6.955063E+03	5.317700E-15	1.430580E-16
6.964999E+03	5.280082E-15	1.425661E-16
6.974935E+03	5.242296E-15	1.420373E-16
6.984871E+03	5.204208E-15	1.414682E-16
6.994807E+03	5.165535E-15	1.408516E-16
7.004742E+03	5.126158E-15	1.401844E-16
7.014678E+03	5.086110E-15	1.394679E-16
7.024614E+03	5.045271E-15	1.386991E-16
7.034550E+03	5.003567E-15	1.378763E-16
7.044486E+03	4.961255E-15	1.370071E-16
7.054421E+03	4.918330E-15	1.360916E-16
7.064357E+03	4.874822E-15	1.351312E-16
7.074293E+03	4.831004E-15	1.341339E-16
7.084229E+03	4.786993E-15	1.331038E-16
7.094165E+03	4.743125E-15	1.320506E-16
7.104100E+03	4.699548E-15	1.309791E-16
7.114036E+03	4.656579E-15	1.298989E-16
7.123972E+03	4.614217E-15	1.288105E-16
7.133908E+03	4.572698E-15	1.277214E-16
7.143844E+03	4.532200E-15	1.266371E-16
7.153779E+03	4.492562E-15	1.255537E-16
7.163715E+03	4.453757E-15	1.244712E-16
7.173651E+03	4.415797E-15	1.233906E-16
7.183587E+03	4.378548E-15	1.223086E-16
7.193523E+03	4.341735E-15	1.212182E-16
7.203458E+03	4.305213E-15	1.201159E-16
7.213394E+03	4.268597E-15	1.189916E-16
7.223330E+03	4.231530E-15	1.178360E-16
7.233266E+03	4.193680E-15	1.166405E-16
7.243202E+03	4.154484E-15	1.153903E-16
7.253137E+03	4.113533E-15	1.140747E-16
7.263073E+03	4.070242E-15	1.126787E-16
7.273009E+03	4.024162E-15	1.111907E-16
7.282945E+03	3.975118E-15	1.096073E-16
7.292881E+03	3.922713E-15	1.079190E-16
7.302817E+03	3.867058E-15	1.061301E-16
7.312752E+03	3.808167E-15	1.042427E-16
7.322688E+03	3.746387E-15	1.022681E-16
7.332624E+03	3.682203E-15	1.002210E-16
7.342560E+03	3.616037E-15	9.811446E-17
7.352496E+03	3.548634E-15	9.597034E-17
7.362431E+03	3.480607E-15	9.380650E-17
7.372367E+03	3.412645E-15	9.164277E-17
7.382303E+03	3.345341E-15	8.949606E-17
7.392239E+03	3.279262E-15	8.738234E-17
7.402175E+03	3.215029E-15	8.531881E-17
7.412110E+03	3.153031E-15	8.331615E-17
7.422046E+03	3.093800E-15	8.138860E-17
7.431982E+03	3.037791E-15	7.954806E-17
7.441918E+03	2.985589E-15	7.780951E-17
7.451854E+03	2.937601E-15	7.618302E-17
7.461789E+03	2.894191E-15	7.467712E-17
7.471725E+03	2.855716E-15	7.330001E-17
7.481661E+03	2.822459E-15	7.205759E-17
7.491597E+03	2.794549E-15	7.095173E-17
7.501533E+03	2.772174E-15	6.998551E-17
7.511468E+03	2.755252E-15	6.915509E-17
7.521404E+03	2.743910E-15	6.846181E-17
7.531340E+03	2.738030E-15	6.790080E-17
7.541276E+03	2.737528E-15	6.746800E-17
7.551212E+03	2.742226E-15	6.715706E-17
7.561147E+03	2.752052E-15	6.696432E-17
7.571083E+03	2.766844E-15	6.688393E-17
7.581019E+03	2.786406E-15	6.690934E-17
7.590955E+03	2.810426E-15	6.703130E-17
7.600891E+03	2.838657E-15	6.724241E-17
7.610826E+03	2.870619E-15	6.752991E-17
7.620762E+03	2.905938E-15	6.788393E-17
7.630698E+03	2.943805E-15	6.828475E-17
7.640634E+03	2.983813E-15	6.872258E-17
7.650570E+03	3.025292E-15	6.918192E-17
7.660505E+03	3.067639E-15	6.964935E-17
7.670441E+03	3.110519E-15	7.011802E-17
7.680377E+03	3.153667E-15	7.058286E-17
7.690313E+03	3.196934E-15	7.104178E-17
7.700249E+03	3.240251E-15	7.149458E-17
7.710184E+03	3.283663E-15	7.194372E-17
