#wls	flux	fluxerr
1.589729E+03	1.582276E-15	1.584655E-16
1.629472E+03	1.345274E-15	1.332601E-16
1.669215E+03	1.129204E-15	1.106187E-16
1.708958E+03	9.360547E-16	9.066874E-17
1.748702E+03	7.668878E-16	7.343859E-17
1.788445E+03	6.210797E-16	5.879166E-17
1.828188E+03	4.972967E-16	4.652686E-17
1.867931E+03	3.937824E-16	3.640933E-17
1.907675E+03	3.085319E-16	2.818889E-17
1.947418E+03	2.395993E-16	2.162938E-17
1.987161E+03	1.851505E-16	1.651312E-17
2.026904E+03	1.435477E-16	1.264788E-17
2.066647E+03	1.133377E-16	9.864876E-18
2.106391E+03	9.313655E-17	8.007910E-18
2.146134E+03	8.151454E-17	6.923247E-18
2.185877E+03	7.712315E-17	6.470494E-18
2.225620E+03	7.904884E-17	6.551397E-18
2.265363E+03	8.706127E-17	7.127826E-18
2.305107E+03	1.017070E-16	8.225908E-18
2.344850E+03	1.243620E-16	9.936319E-18
2.384593E+03	1.572726E-16	1.241337E-17
2.424336E+03	2.036006E-16	1.587434E-17
2.464080E+03	2.671038E-16	2.057053E-17
2.503823E+03	3.517140E-16	2.675214E-17
2.543566E+03	4.604539E-16	3.458594E-17
2.583309E+03	5.942328E-16	4.406977E-17
2.623052E+03	7.504701E-16	5.494141E-17
2.662796E+03	9.229230E-16	6.668225E-17
2.702539E+03	1.102245E-15	7.857451E-17
2.742282E+03	1.277221E-15	8.980346E-17
2.782025E+03	1.436254E-15	9.957041E-17
2.821769E+03	1.569721E-15	1.072569E-16
2.861512E+03	1.671172E-15	1.124974E-16
2.901255E+03	1.738705E-15	1.152560E-16
2.940998E+03	1.774669E-15	1.157850E-16
2.980741E+03	1.785012E-15	1.145606E-16
2.990677E+03	1.784540E-15	1.140502E-16
3.000613E+03	1.783059E-15	1.134736E-16
3.010549E+03	1.780742E-15	1.128426E-16
3.020485E+03	1.777784E-15	1.121700E-16
3.030420E+03	1.774463E-15	1.114741E-16
3.040356E+03	1.770736E-15	1.107521E-16
3.050292E+03	1.767123E-15	1.100370E-16
3.060228E+03	1.763654E-15	1.093304E-16
3.070164E+03	1.760410E-15	1.086372E-16
3.080099E+03	1.757562E-15	1.079677E-16
3.090035E+03	1.755195E-15	1.073268E-16
3.099971E+03	1.753441E-15	1.067221E-16
3.109907E+03	1.752309E-15	1.061535E-16
3.119843E+03	1.752059E-15	1.056362E-16
3.129779E+03	1.752707E-15	1.051703E-16
3.139714E+03	1.754392E-15	1.047633E-16
3.149650E+03	1.757257E-15	1.044229E-16
3.159586E+03	1.761407E-15	1.041541E-16
3.169522E+03	1.766989E-15	1.039644E-16
3.179458E+03	1.774114E-15	1.038591E-16
3.189393E+03	1.782935E-15	1.038455E-16
3.199329E+03	1.793573E-15	1.039291E-16
3.209265E+03	1.806187E-15	1.041175E-16
3.219201E+03	1.820908E-15	1.044161E-16
3.229137E+03	1.837872E-15	1.048309E-16
3.239072E+03	1.857256E-15	1.053696E-16
3.249008E+03	1.879210E-15	1.060385E-16
3.258944E+03	1.903923E-15	1.068456E-16
3.268880E+03	1.931561E-15	1.077976E-16
3.278816E+03	1.962294E-15	1.089009E-16
3.288751E+03	1.996303E-15	1.101626E-16
3.298687E+03	2.033811E-15	1.115915E-16
3.308623E+03	2.075013E-15	1.131949E-16
3.312990E+03	1.823887E-15	9.924067E-17
3.317480E+03	1.822749E-15	9.891625E-17
3.321970E+03	1.826984E-15	9.888228E-17
3.326460E+03	1.834089E-15	9.900138E-17
3.330950E+03	1.840253E-15	9.906720E-17
3.335440E+03	1.846286E-15	9.912350E-17
3.339931E+03	1.859552E-15	9.956462E-17
3.344421E+03	1.876241E-15	1.001841E-16
3.348911E+03	1.894386E-15	1.008756E-16
3.353401E+03	1.915767E-15	1.017329E-16
3.357891E+03	1.931423E-15	1.022802E-16
3.362381E+03	1.951859E-15	1.030745E-16
3.366871E+03	1.975330E-15	1.040221E-16
3.371361E+03	1.992085E-15	1.046092E-16
3.375851E+03	2.007566E-15	1.051241E-16
3.380341E+03	2.033390E-15	1.061737E-16
3.384831E+03	2.063150E-15	1.074198E-16
3.389322E+03	2.094829E-15	1.087559E-16
3.393812E+03	2.125900E-15	1.100504E-16
3.398302E+03	2.162659E-15	1.116284E-16
3.402792E+03	2.206849E-15	1.135772E-16
3.407282E+03	2.249881E-15	1.154523E-16
3.411772E+03	2.298580E-15	1.176037E-16
3.416262E+03	2.348214E-15	1.197872E-16
3.420752E+03	2.411061E-15	1.226269E-16
3.425242E+03	2.458427E-15	1.246616E-16
3.429732E+03	2.481926E-15	1.254744E-16
3.434222E+03	2.514270E-15	1.267250E-16
3.438712E+03	2.547095E-15	1.279891E-16
3.443202E+03	2.577048E-15	1.290984E-16
3.447692E+03	2.607470E-15	1.302210E-16
3.452182E+03	2.645609E-15	1.317176E-16
3.456672E+03	2.695027E-15	1.337612E-16
3.461162E+03	2.762706E-15	1.366923E-16
3.465652E+03	2.828773E-15	1.395219E-16
3.470143E+03	2.893215E-15	1.422499E-16
3.474633E+03	2.982309E-15	1.461653E-16
3.479123E+03	3.085079E-15	1.507201E-16
3.483613E+03	3.191075E-15	1.553987E-16
3.488103E+03	3.295604E-15	1.599719E-16
3.492593E+03	3.405415E-15	1.647666E-16
3.497083E+03	3.522842E-15	1.698930E-16
3.501573E+03	3.631780E-15	1.745732E-16
3.506063E+03	3.743088E-15	1.793313E-16
3.510553E+03	3.859609E-15	1.843018E-16
3.515044E+03	3.983313E-15	1.895759E-16
3.519534E+03	4.121492E-15	1.954960E-16
3.524024E+03	4.270473E-15	2.018815E-16
3.528514E+03	4.418237E-15	2.081607E-16
3.533004E+03	4.568810E-15	2.145231E-16
3.537494E+03	4.729258E-15	2.212978E-16
3.541984E+03	4.890084E-15	2.280372E-16
3.546474E+03	5.044857E-15	2.344420E-16
3.550964E+03	5.188412E-15	2.402759E-16
3.555455E+03	5.313952E-15	2.452302E-16
3.559945E+03	5.426763E-15	2.495571E-16
3.564435E+03	5.512202E-15	2.525914E-16
3.568925E+03	5.564399E-15	2.540785E-16
3.573415E+03	5.597479E-15	2.546771E-16
3.577905E+03	5.623700E-15	2.549522E-16
3.582395E+03	5.629412E-15	2.542908E-16
3.586885E+03	5.609135E-15	2.524561E-16
3.591375E+03	5.576237E-15	2.500604E-16
3.595865E+03	5.539499E-15	2.475023E-16
3.600355E+03	5.490299E-15	2.444000E-16
3.604846E+03	5.441629E-15	2.413356E-16
3.609336E+03	5.402686E-15	2.387158E-16
3.613826E+03	5.372047E-15	2.364728E-16
3.618316E+03	5.362650E-15	2.351700E-16
3.622806E+03	5.378436E-15	2.349691E-16
3.627296E+03	5.411255E-15	2.355027E-16
3.631786E+03	5.473356E-15	2.372934E-16
3.636276E+03	5.568337E-15	2.404819E-16
3.640766E+03	5.684341E-15	2.445416E-16
3.645257E+03	5.817917E-15	2.493138E-16
3.649747E+03	5.965869E-15	2.546535E-16
3.654237E+03	6.115589E-15	2.600172E-16
3.658727E+03	6.257415E-15	2.649948E-16
3.663217E+03	6.379390E-15	2.690857E-16
3.667707E+03	6.480976E-15	2.722773E-16
3.672197E+03	6.569833E-15	2.749004E-16
3.676687E+03	6.631260E-15	2.763487E-16
3.681177E+03	6.681975E-15	2.773301E-16
3.685668E+03	6.724997E-15	2.779744E-16
3.690158E+03	6.748085E-15	2.777823E-16
3.694648E+03	6.744670E-15	2.764943E-16
3.699138E+03	6.709812E-15	2.739223E-16
3.703628E+03	6.656442E-15	2.706081E-16
3.708118E+03	6.584864E-15	2.665736E-16
3.712608E+03	6.485228E-15	2.614310E-16
3.717098E+03	6.371683E-15	2.557629E-16
3.721588E+03	6.251254E-15	2.498572E-16
3.726079E+03	6.112813E-15	2.432745E-16
3.730569E+03	5.974637E-15	2.367489E-16
3.735059E+03	5.847164E-15	2.306920E-16
3.739549E+03	5.729172E-15	2.250502E-16
3.744039E+03	5.622004E-15	2.198713E-16
3.748529E+03	5.523859E-15	2.150798E-16
3.753019E+03	5.437530E-15	2.107792E-16
3.757509E+03	5.360774E-15	2.068769E-16
3.761999E+03	5.296538E-15	2.034813E-16
3.766489E+03	5.247642E-15	2.006938E-16
3.770979E+03	5.219247E-15	1.987029E-16
3.775470E+03	5.213216E-15	1.975685E-16
3.779960E+03	5.215117E-15	1.967348E-16
3.784450E+03	5.220334E-15	1.960242E-16
3.788940E+03	5.241443E-15	1.959052E-16
3.793430E+03	5.262000E-15	1.957576E-16
3.797920E+03	5.277459E-15	1.954134E-16
3.802410E+03	5.306733E-15	1.955724E-16
3.806900E+03	5.347249E-15	1.961329E-16
3.811390E+03	5.422200E-15	1.979358E-16
3.815881E+03	5.555842E-15	2.018440E-16
3.820371E+03	5.740939E-15	2.075657E-16
3.824861E+03	5.974064E-15	2.149502E-16
3.829351E+03	6.267790E-15	2.244227E-16
3.833841E+03	6.617234E-15	2.357773E-16
3.838331E+03	7.022090E-15	2.489738E-16
3.842821E+03	7.476671E-15	2.637826E-16
3.847311E+03	7.967337E-15	2.796987E-16
3.851801E+03	8.475546E-15	2.960554E-16
3.856291E+03	8.981131E-15	3.121427E-16
3.860781E+03	9.475956E-15	3.276801E-16
3.865271E+03	9.961751E-15	3.427337E-16
3.869761E+03	1.042850E-14	3.569652E-16
3.874251E+03	1.087778E-14	3.704378E-16
3.878741E+03	1.133034E-14	3.838645E-16
3.883231E+03	1.178544E-14	3.972184E-16
3.887721E+03	1.223823E-14	4.103358E-16
3.892211E+03	1.269035E-14	4.232727E-16
3.896701E+03	1.313737E-14	4.358827E-16
3.901192E+03	1.356675E-14	4.477543E-16
3.905682E+03	1.397043E-14	4.586330E-16
3.910172E+03	1.434153E-14	4.683077E-16
3.914662E+03	1.469015E-14	4.771237E-16
3.919152E+03	1.500941E-14	4.848708E-16
3.923642E+03	1.528961E-14	4.912531E-16
3.928132E+03	1.552931E-14	4.962451E-16
3.932622E+03	1.571595E-14	4.994690E-16
3.937112E+03	1.585049E-14	5.009834E-16
3.941603E+03	1.592338E-14	5.005146E-16
3.946093E+03	1.592652E-14	4.978437E-16
3.950583E+03	1.585960E-14	4.929961E-16
3.955073E+03	1.572536E-14	4.860939E-16
3.959563E+03	1.552285E-14	4.771430E-16
3.964053E+03	1.525393E-14	4.662357E-16
3.968543E+03	1.493738E-14	4.539769E-16
3.973033E+03	1.457970E-14	4.405884E-16
3.977523E+03	1.419546E-14	4.265288E-16
3.982013E+03	1.380247E-14	4.123438E-16
3.986503E+03	1.340825E-14	3.982616E-16
3.990994E+03	1.301345E-14	3.843008E-16
3.995484E+03	1.262138E-14	3.705599E-16
3.999974E+03	1.223761E-14	3.571996E-16
4.004464E+03	1.187581E-14	3.446122E-16
4.008954E+03	1.155278E-14	3.332704E-16
4.013444E+03	1.127618E-14	3.233744E-16
4.017934E+03	1.103652E-14	3.146296E-16
4.022424E+03	1.084100E-14	3.072212E-16
4.026914E+03	1.070150E-14	3.014612E-16
4.031405E+03	1.061028E-14	2.971047E-16
4.035895E+03	1.058039E-14	2.944907E-16
4.040385E+03	1.060393E-14	2.933698E-16
4.044875E+03	1.066330E-14	2.932315E-16
4.049365E+03	1.074996E-14	2.938247E-16
4.053855E+03	1.083600E-14	2.943775E-16
4.058345E+03	1.092625E-14	2.950213E-16
4.062835E+03	1.101295E-14	2.955460E-16
4.067325E+03	1.107471E-14	2.953833E-16
4.071815E+03	1.111012E-14	2.945083E-16
4.076306E+03	1.111191E-14	2.927424E-16
4.080796E+03	1.107294E-14	2.899160E-16
4.085286E+03	1.101892E-14	2.867179E-16
4.089776E+03	1.095828E-14	2.833734E-16
4.094266E+03	1.089344E-14	2.799481E-16
4.098756E+03	1.082455E-14	2.764480E-16
4.103246E+03	1.075487E-14	2.729577E-16
4.107736E+03	1.069458E-14	2.697346E-16
4.112227E+03	1.066362E-14	2.672734E-16
4.116717E+03	1.066966E-14	2.657527E-16
4.121207E+03	1.070925E-14	2.650694E-16
4.125697E+03	1.077379E-14	2.649964E-16
4.130187E+03	1.087015E-14	2.656907E-16
4.134677E+03	1.099384E-14	2.670290E-16
4.139167E+03	1.113435E-14	2.687456E-16
4.143657E+03	1.129490E-14	2.709109E-16
4.148147E+03	1.146526E-14	2.732728E-16
4.152637E+03	1.163383E-14	2.755525E-16
4.157127E+03	1.179391E-14	2.775945E-16
4.161618E+03	1.194315E-14	2.793473E-16
4.166108E+03	1.208096E-14	2.808044E-16
4.170598E+03	1.219997E-14	2.818003E-16
4.175088E+03	1.231095E-14	2.825917E-16
4.179578E+03	1.241004E-14	2.830943E-16
4.184068E+03	1.248709E-14	2.830840E-16
4.188558E+03	1.254537E-14	2.826447E-16
4.193048E+03	1.257472E-14	2.815569E-16
4.197538E+03	1.256454E-14	2.795978E-16
4.202029E+03	1.253209E-14	2.771651E-16
4.206519E+03	1.248675E-14	2.744752E-16
4.211009E+03	1.242033E-14	2.713545E-16
4.215499E+03	1.233481E-14	2.678541E-16
4.219989E+03	1.223944E-14	2.641816E-16
4.224479E+03	1.213980E-14	2.604603E-16
4.228969E+03	1.203384E-14	2.566483E-16
4.233459E+03	1.193993E-14	2.531374E-16
4.237949E+03	1.186035E-14	2.499708E-16
4.242440E+03	1.179378E-14	2.471155E-16
4.246930E+03	1.175480E-14	2.448709E-16
4.251420E+03	1.173582E-14	2.430696E-16
4.255910E+03	1.174170E-14	2.418050E-16
4.260400E+03	1.175914E-14	2.407963E-16
4.264890E+03	1.177736E-14	2.398205E-16
4.269380E+03	1.179207E-14	2.387906E-16
4.273870E+03	1.178980E-14	2.374375E-16
4.278360E+03	1.177448E-14	2.358455E-16
4.282850E+03	1.175934E-14	2.342831E-16
4.287340E+03	1.172747E-14	2.324148E-16
4.291830E+03	1.167462E-14	2.301633E-16
4.296320E+03	1.160041E-14	2.275271E-16
4.300810E+03	1.151343E-14	2.246803E-16
4.305300E+03	1.141034E-14	2.215617E-16
4.309790E+03	1.128658E-14	2.180876E-16
4.314280E+03	1.114798E-14	2.143759E-16
4.318770E+03	1.097885E-14	2.101292E-16
4.323260E+03	1.077577E-14	2.052904E-16
4.327750E+03	1.055087E-14	2.000972E-16
4.332241E+03	1.029621E-14	1.944041E-16
4.336731E+03	1.001382E-14	1.882557E-16
4.341221E+03	9.712708E-15	1.818256E-16
4.345711E+03	9.392839E-15	1.751155E-16
4.350201E+03	9.068198E-15	1.683876E-16
4.354691E+03	8.750546E-15	1.618584E-16
4.359181E+03	8.442016E-15	1.555635E-16
4.363671E+03	8.144932E-15	1.495417E-16
4.368162E+03	7.870605E-15	1.439955E-16
4.372652E+03	7.626513E-15	1.390551E-16
4.377142E+03	7.402163E-15	1.345225E-16
4.381632E+03	7.198502E-15	1.304096E-16
4.386122E+03	7.023726E-15	1.268593E-16
4.390612E+03	6.872787E-15	1.237744E-16
4.395102E+03	6.751241E-15	1.212495E-16
4.399592E+03	6.678131E-15	1.196202E-16
4.404082E+03	6.647915E-15	1.187798E-16
4.408572E+03	6.648102E-15	1.184993E-16
4.413062E+03	6.684453E-15	1.188771E-16
4.417553E+03	6.759377E-15	1.199514E-16
4.422043E+03	6.865136E-15	1.215811E-16
4.426533E+03	6.988624E-15	1.235314E-16
4.431023E+03	7.129169E-15	1.257892E-16
4.435513E+03	7.283781E-15	1.283008E-16
4.440003E+03	7.456588E-15	1.311380E-16
4.444493E+03	7.643342E-15	1.342255E-16
4.448983E+03	7.838895E-15	1.374726E-16
4.453474E+03	8.054700E-15	1.410799E-16
4.457964E+03	8.282209E-15	1.448975E-16
4.462454E+03	8.517679E-15	1.488600E-16
4.466944E+03	8.772601E-15	1.531683E-16
4.471434E+03	9.044848E-15	1.577852E-16
4.475924E+03	9.333555E-15	1.626958E-16
4.480414E+03	9.642889E-15	1.679729E-16
4.484904E+03	9.971981E-15	1.736015E-16
4.489394E+03	1.031924E-14	1.795544E-16
4.493884E+03	1.069479E-14	1.860079E-16
4.498375E+03	1.110534E-14	1.930792E-16
4.502865E+03	1.153399E-14	2.004750E-16
4.507355E+03	1.198708E-14	2.083063E-16
4.511845E+03	1.247225E-14	2.167063E-16
4.516335E+03	1.296478E-14	2.252468E-16
4.520825E+03	1.346702E-14	2.339695E-16
4.525315E+03	1.398388E-14	2.429605E-16
4.529805E+03	1.450141E-14	2.519786E-16
4.534295E+03	1.501075E-14	2.608703E-16
4.538785E+03	1.551403E-14	2.696736E-16
4.543276E+03	1.601360E-14	2.784297E-16
4.547766E+03	1.651250E-14	2.871921E-16
4.552256E+03	1.701129E-14	2.959705E-16
4.556746E+03	1.750558E-14	3.046893E-16
4.561236E+03	1.798501E-14	3.131679E-16
4.565726E+03	1.844171E-14	3.212692E-16
4.570216E+03	1.886983E-14	3.288905E-16
4.574706E+03	1.925638E-14	3.358045E-16
4.579196E+03	1.960129E-14	3.420087E-16
4.583686E+03	1.990631E-14	3.475321E-16
4.588177E+03	2.016591E-14	3.522762E-16
4.592667E+03	2.037455E-14	3.561423E-16
4.597157E+03	2.051937E-14	3.589032E-16
4.601647E+03	2.059664E-14	3.604907E-16
4.606137E+03	2.060624E-14	3.608999E-16
4.610627E+03	2.054444E-14	3.600620E-16
4.615117E+03	2.040383E-14	3.578437E-16
4.619607E+03	2.017150E-14	3.540149E-16
4.624097E+03	1.986199E-14	3.488266E-16
4.628588E+03	1.948617E-14	3.424663E-16
4.633078E+03	1.905679E-14	3.351551E-16
4.637568E+03	1.859209E-14	3.272115E-16
4.642058E+03	1.809739E-14	3.187268E-16
4.646548E+03	1.758381E-14	3.098960E-16
4.651038E+03	1.706256E-14	3.009151E-16
4.655528E+03	1.652866E-14	2.916961E-16
4.660018E+03	1.599535E-14	2.824717E-16
4.664508E+03	1.547822E-14	2.735177E-16
4.668998E+03	1.497034E-14	2.647116E-16
4.673489E+03	1.447119E-14	2.560445E-16
4.677979E+03	1.398958E-14	2.476730E-16
4.682469E+03	1.352796E-14	2.396407E-16
4.686959E+03	1.308616E-14	2.319456E-16
4.691449E+03	1.266752E-14	2.246477E-16
4.695939E+03	1.227522E-14	2.178039E-16
4.700429E+03	1.190504E-14	2.113406E-16
4.704919E+03	1.155482E-14	2.052200E-16
4.709409E+03	1.120982E-14	1.991810E-16
4.713899E+03	1.086253E-14	1.930902E-16
4.718389E+03	1.052897E-14	1.872332E-16
4.722879E+03	1.021450E-14	1.817057E-16
4.727369E+03	9.926721E-15	1.766435E-16
4.731859E+03	9.664551E-15	1.720283E-16
4.736349E+03	9.433182E-15	1.679531E-16
4.740839E+03	9.238554E-15	1.645243E-16
4.745329E+03	9.083646E-15	1.617957E-16
4.749819E+03	8.967766E-15	1.597555E-16
4.754310E+03	8.883177E-15	1.582662E-16
4.758800E+03	8.818449E-15	1.571243E-16
4.763290E+03	8.783953E-15	1.565148E-16
4.767780E+03	8.783778E-15	1.565105E-16
4.772270E+03	8.808151E-15	1.569371E-16
4.776760E+03	8.861522E-15	1.578736E-16
4.781250E+03	8.948351E-15	1.593992E-16
4.785740E+03	9.054414E-15	1.612599E-16
4.790230E+03	9.166766E-15	1.632247E-16
4.794720E+03	9.282082E-15	1.652339E-16
4.799210E+03	9.394620E-15	1.671850E-16
4.803701E+03	9.488826E-15	1.688008E-16
4.808191E+03	9.548941E-15	1.698013E-16
4.812681E+03	9.559204E-15	1.699068E-16
4.817171E+03	9.516997E-15	1.690718E-16
4.821661E+03	9.435821E-15	1.675374E-16
4.826151E+03	9.317687E-15	1.653408E-16
4.830641E+03	9.170557E-15	1.626243E-16
4.835131E+03	9.006842E-15	1.596095E-16
4.839622E+03	8.837474E-15	1.564906E-16
4.844112E+03	8.666531E-15	1.533407E-16
4.848602E+03	8.505883E-15	1.503700E-16
4.853092E+03	8.375582E-15	1.479325E-16
4.857582E+03	8.288067E-15	1.462467E-16
4.862072E+03	8.248556E-15	1.454025E-16
4.866562E+03	8.266161E-15	1.455579E-16
4.871052E+03	8.350368E-15	1.468765E-16
4.875542E+03	8.516429E-15	1.496221E-16
4.880032E+03	8.758621E-15	1.536886E-16
4.884523E+03	9.054867E-15	1.586836E-16
4.889013E+03	9.399430E-15	1.645023E-16
4.893503E+03	9.778206E-15	1.708937E-16
4.897993E+03	1.016484E-14	1.773943E-16
4.902483E+03	1.053591E-14	1.835944E-16
4.906973E+03	1.087674E-14	1.892389E-16
4.911463E+03	1.118064E-14	1.942128E-16
4.915953E+03	1.144034E-14	1.983926E-16
4.920443E+03	1.165174E-14	2.017104E-16
4.924933E+03	1.181036E-14	2.040925E-16
4.929424E+03	1.190244E-14	2.053059E-16
4.933914E+03	1.193800E-14	2.055295E-16
4.938404E+03	1.192055E-14	2.048291E-16
4.942894E+03	1.183782E-14	2.029995E-16
4.947384E+03	1.169444E-14	2.001270E-16
4.951874E+03	1.149653E-14	1.963231E-16
4.956364E+03	1.124781E-14	1.916576E-16
4.960854E+03	1.096090E-14	1.863517E-16
4.965344E+03	1.064417E-14	1.805524E-16
4.969834E+03	1.030135E-14	1.743271E-16
4.974325E+03	9.946000E-15	1.679089E-16
4.978815E+03	9.595790E-15	1.615981E-16
4.983305E+03	9.259105E-15	1.555357E-16
4.987795E+03	8.945801E-15	1.498860E-16
4.992285E+03	8.667608E-15	1.448431E-16
4.996775E+03	8.427882E-15	1.404589E-16
5.001265E+03	8.226072E-15	1.367197E-16
5.005755E+03	8.065908E-15	1.336828E-16
5.010246E+03	7.948886E-15	1.313675E-16
5.014736E+03	7.875194E-15	1.297713E-16
5.019226E+03	7.844471E-15	1.288822E-16
5.023716E+03	7.854494E-15	1.286577E-16
5.028206E+03	7.905635E-15	1.290979E-16
5.032696E+03	7.990646E-15	1.300786E-16
5.037186E+03	8.091105E-15	1.312956E-16
5.041676E+03	8.193237E-15	1.325237E-16
5.046166E+03	8.291087E-15	1.336665E-16
5.050656E+03	8.377776E-15	1.346140E-16
5.055146E+03	8.449012E-15	1.352994E-16
5.059637E+03	8.506848E-15	1.357579E-16
5.064127E+03	8.552208E-15	1.360065E-16
5.068617E+03	8.592543E-15	1.361655E-16
5.073107E+03	8.632510E-15	1.363093E-16
5.077597E+03	8.659253E-15	1.362359E-16
5.082087E+03	8.674452E-15	1.359739E-16
5.086577E+03	8.695798E-15	1.358019E-16
5.091067E+03	8.717518E-15	1.356291E-16
5.095557E+03	8.734030E-15	1.353691E-16
5.100047E+03	8.753893E-15	1.351551E-16
5.104538E+03	8.776926E-15	1.349839E-16
5.109028E+03	8.806852E-15	1.349124E-16
5.113518E+03	8.855779E-15	1.351240E-16
5.118008E+03	8.928740E-15	1.356921E-16
5.122498E+03	9.027226E-15	1.366350E-16
5.126988E+03	9.155714E-15	1.380157E-16
5.131478E+03	9.317001E-15	1.398707E-16
5.135968E+03	9.506434E-15	1.421246E-16
5.140458E+03	9.721600E-15	1.447362E-16
5.144948E+03	9.971440E-15	1.478339E-16
5.149438E+03	1.025056E-14	1.513315E-16
5.153928E+03	1.054667E-14	1.550431E-16
5.158418E+03	1.085809E-14	1.589414E-16
5.162908E+03	1.118595E-14	1.630401E-16
5.167398E+03	1.152393E-14	1.672449E-16
5.171888E+03	1.187537E-14	1.716026E-16
5.176378E+03	1.223767E-14	1.760740E-16
5.180868E+03	1.260003E-14	1.805026E-16
5.185358E+03	1.295741E-14	1.848173E-16
5.189849E+03	1.330629E-14	1.889697E-16
5.194339E+03	1.363790E-14	1.928382E-16
5.198829E+03	1.394385E-14	1.963089E-16
5.203319E+03	1.422135E-14	1.993480E-16
5.207809E+03	1.446890E-14	2.019408E-16
5.212299E+03	1.468836E-14	2.041195E-16
5.216789E+03	1.487619E-14	2.058412E-16
5.221279E+03	1.503108E-14	2.070943E-16
5.225769E+03	1.515825E-14	2.079573E-16
5.230260E+03	1.524892E-14	2.083160E-16
5.234750E+03	1.529283E-14	2.080383E-16
5.239240E+03	1.529819E-14	2.072441E-16
5.243730E+03	1.526890E-14	2.059933E-16
5.248220E+03	1.520513E-14	2.042948E-16
5.252710E+03	1.511546E-14	2.022697E-16
5.257200E+03	1.500363E-14	1.999725E-16
5.261690E+03	1.486681E-14	1.973697E-16
5.266180E+03	1.471713E-14	1.946260E-16
5.270671E+03	1.456002E-14	1.918150E-16
5.275161E+03	1.439881E-14	1.889822E-16
5.279651E+03	1.424509E-14	1.862797E-16
5.284141E+03	1.409680E-14	1.836800E-16
5.288631E+03	1.394386E-14	1.810514E-16
5.293121E+03	1.378533E-14	1.783826E-16
5.297611E+03	1.363671E-14	1.758746E-16
