#wls	flux	fluxerr
1.589729E+03	2.153673E-15	2.265399E-16
1.629472E+03	1.844249E-15	1.907545E-16
1.669215E+03	1.554476E-15	1.580575E-16
1.708958E+03	1.289309E-15	1.288429E-16
1.748702E+03	1.052166E-15	1.033161E-16
1.788445E+03	8.442088E-16	8.143997E-17
1.828188E+03	6.655365E-16	6.306724E-17
1.867931E+03	5.152939E-16	4.796133E-17
1.907675E+03	3.918376E-16	3.582027E-17
1.947418E+03	2.930488E-16	2.631220E-17
1.987161E+03	2.164606E-16	1.909090E-17
2.026904E+03	1.593962E-16	1.381094E-17
2.066647E+03	1.190155E-16	1.013324E-17
2.106391E+03	9.240798E-17	7.733808E-18
2.146134E+03	7.674935E-17	6.316505E-18
2.185877E+03	6.963809E-17	5.638828E-18
2.225620E+03	6.954211E-17	5.543643E-18
2.265363E+03	7.612602E-17	5.978547E-18
2.305107E+03	9.037006E-17	6.997416E-18
2.344850E+03	1.147598E-16	8.767883E-18
2.384593E+03	1.537264E-16	1.159803E-17
2.424336E+03	2.141672E-16	1.596742E-17
2.464080E+03	3.058553E-16	2.254891E-17
2.503823E+03	4.412474E-16	3.218585E-17
2.543566E+03	6.337940E-16	4.576266E-17
2.583309E+03	8.942562E-16	6.393997E-17
2.623052E+03	1.225378E-15	8.678694E-17
2.662796E+03	1.618558E-15	1.135721E-16
2.702539E+03	2.053467E-15	1.427695E-16
2.742282E+03	2.499238E-15	1.721727E-16
2.782025E+03	2.919458E-15	1.992666E-16
2.821769E+03	3.279151E-15	2.217165E-16
2.861512E+03	3.551902E-15	2.378453E-16
2.901255E+03	3.725090E-15	2.469595E-16
2.940998E+03	3.801443E-15	2.494124E-16
2.980741E+03	3.795664E-15	2.463380E-16
2.990677E+03	3.783841E-15	2.448834E-16
3.000613E+03	3.768773E-15	2.432170E-16
3.010549E+03	3.750644E-15	2.413524E-16
3.020485E+03	3.729955E-15	2.393233E-16
3.030420E+03	3.707570E-15	2.371864E-16
3.040356E+03	3.683329E-15	2.349323E-16
3.050292E+03	3.658394E-15	2.326361E-16
3.060228E+03	3.633009E-15	2.303136E-16
3.070164E+03	3.607433E-15	2.279814E-16
3.080099E+03	3.581929E-15	2.256563E-16
3.090035E+03	3.556915E-15	2.233642E-16
3.099971E+03	3.532589E-15	2.211172E-16
3.109907E+03	3.509295E-15	2.189362E-16
3.119843E+03	3.487318E-15	2.168382E-16
3.129779E+03	3.466943E-15	2.148400E-16
3.139714E+03	3.448535E-15	2.129630E-16
3.149650E+03	3.432458E-15	2.112282E-16
3.159586E+03	3.418905E-15	2.096459E-16
3.169522E+03	3.408392E-15	2.082458E-16
3.179458E+03	3.401205E-15	2.070431E-16
3.189393E+03	3.397770E-15	2.060614E-16
3.199329E+03	3.398471E-15	2.053211E-16
3.209265E+03	3.403668E-15	2.048408E-16
3.219201E+03	3.413970E-15	2.046535E-16
3.229137E+03	3.429674E-15	2.047731E-16
3.239072E+03	3.451444E-15	2.052350E-16
3.249008E+03	3.479805E-15	2.060653E-16
3.258944E+03	3.515192E-15	2.072843E-16
3.268880E+03	3.558351E-15	2.089302E-16
3.278816E+03	3.609759E-15	2.110243E-16
3.288751E+03	3.670082E-15	2.135983E-16
3.298687E+03	3.739935E-15	2.166800E-16
3.308623E+03	3.819987E-15	2.202999E-16
3.318559E+03	3.910806E-15	2.244811E-16
3.328495E+03	4.013002E-15	2.292487E-16
3.338430E+03	4.127163E-15	2.346255E-16
3.348366E+03	4.253923E-15	2.406361E-16
3.358302E+03	4.393755E-15	2.472948E-16
3.368238E+03	4.547148E-15	2.546162E-16
3.378174E+03	4.714502E-15	2.626090E-16
3.388109E+03	4.896051E-15	2.712716E-16
3.398045E+03	5.091950E-15	2.805981E-16
3.407981E+03	5.302166E-15	2.905712E-16
3.417917E+03	5.526364E-15	3.011568E-16
3.427853E+03	5.763964E-15	3.123081E-16
3.437788E+03	6.013963E-15	3.239556E-16
3.447724E+03	6.274907E-15	3.360064E-16
3.457660E+03	6.544840E-15	3.483429E-16
3.467596E+03	6.821172E-15	3.608159E-16
3.477532E+03	7.100858E-15	3.732557E-16
3.487467E+03	7.380097E-15	3.854570E-16
3.497403E+03	7.654439E-15	3.971858E-16
3.507339E+03	7.918870E-15	4.081854E-16
3.517275E+03	8.168348E-15	4.182045E-16
3.527211E+03	8.397530E-15	4.269840E-16
3.537146E+03	8.601147E-15	4.342764E-16
3.547082E+03	8.774744E-15	4.398832E-16
3.557018E+03	8.914685E-15	4.436537E-16
3.566954E+03	9.018400E-15	4.454960E-16
3.576890E+03	9.084589E-15	4.453850E-16
3.586826E+03	9.113770E-15	4.433871E-16
3.596761E+03	9.107727E-15	4.396299E-16
3.606697E+03	9.069600E-15	4.343040E-16
3.616633E+03	9.004083E-15	4.276699E-16
3.626569E+03	8.916538E-15	4.200131E-16
3.636505E+03	8.813032E-15	4.116439E-16
3.646440E+03	8.700072E-15	4.028842E-16
3.656376E+03	8.584279E-15	3.940507E-16
3.666312E+03	8.472071E-15	3.854405E-16
3.676248E+03	8.369800E-15	3.773370E-16
3.686184E+03	8.283101E-15	3.699811E-16
3.696119E+03	8.217384E-15	3.635942E-16
3.706055E+03	8.177672E-15	3.583707E-16
3.715991E+03	8.168223E-15	3.544633E-16
3.725927E+03	8.193429E-15	3.520223E-16
3.735863E+03	8.256933E-15	3.511579E-16
3.745798E+03	8.362549E-15	3.519803E-16
3.755734E+03	8.513737E-15	3.545774E-16
3.765670E+03	8.713799E-15	3.590237E-16
3.775606E+03	8.965945E-15	3.653831E-16
3.785542E+03	9.273044E-15	3.736990E-16
3.795477E+03	9.637617E-15	3.839946E-16
3.805413E+03	1.006148E-14	3.962601E-16
3.815349E+03	1.054537E-14	4.104386E-16
3.825285E+03	1.108866E-14	4.264199E-16
3.835221E+03	1.168895E-14	4.440249E-16
3.845156E+03	1.234159E-14	4.629956E-16
3.855092E+03	1.303973E-14	4.829996E-16
3.865028E+03	1.377418E-14	5.036317E-16
3.874964E+03	1.453345E-14	5.244208E-16
3.884900E+03	1.530428E-14	5.448559E-16
3.894835E+03	1.607204E-14	5.644024E-16
3.904771E+03	1.682179E-14	5.825444E-16
3.914707E+03	1.753864E-14	5.987982E-16
3.924643E+03	1.820909E-14	6.127556E-16
3.934579E+03	1.882139E-14	6.240953E-16
3.944514E+03	1.936717E-14	6.326298E-16
3.954450E+03	1.984073E-14	6.382758E-16
3.964386E+03	2.024011E-14	6.410808E-16
3.974322E+03	2.056648E-14	6.411944E-16
3.984258E+03	2.082418E-14	6.388633E-16
3.994194E+03	2.101935E-14	6.343791E-16
4.004129E+03	2.116000E-14	6.280792E-16
4.014065E+03	2.125440E-14	6.202917E-16
4.024001E+03	2.131124E-14	6.113415E-16
4.033937E+03	2.133816E-14	6.015070E-16
4.043873E+03	2.134209E-14	5.910322E-16
4.053808E+03	2.132872E-14	5.801129E-16
4.063744E+03	2.130229E-14	5.688969E-16
4.073680E+03	2.126536E-14	5.574789E-16
4.083616E+03	2.121951E-14	5.459239E-16
4.093552E+03	2.116504E-14	5.342619E-16
4.103487E+03	2.110145E-14	5.225032E-16
4.113423E+03	2.102741E-14	5.106389E-16
4.123359E+03	2.094055E-14	4.986384E-16
4.133295E+03	2.083839E-14	4.864731E-16
4.143231E+03	2.071761E-14	4.741001E-16
4.153166E+03	2.057513E-14	4.614881E-16
4.163102E+03	2.040815E-14	4.486169E-16
4.173038E+03	2.021424E-14	4.354785E-16
4.182974E+03	1.999237E-14	4.220984E-16
4.192910E+03	1.974278E-14	4.085286E-16
4.202845E+03	1.946770E-14	3.948594E-16
4.212781E+03	1.917048E-14	3.811982E-16
4.222717E+03	1.885668E-14	3.676883E-16
4.232653E+03	1.853274E-14	3.544794E-16
4.242589E+03	1.820640E-14	3.417342E-16
4.252524E+03	1.788518E-14	3.295996E-16
4.262460E+03	1.757692E-14	3.182168E-16
4.272396E+03	1.728886E-14	3.077064E-16
4.282332E+03	1.702690E-14	2.981573E-16
4.292268E+03	1.679624E-14	2.896409E-16
4.302203E+03	1.659996E-14	2.821895E-16
4.312139E+03	1.644020E-14	2.758189E-16
4.322075E+03	1.631657E-14	2.705046E-16
4.332011E+03	1.622756E-14	2.662071E-16
4.341947E+03	1.617041E-14	2.628709E-16
4.351882E+03	1.614066E-14	2.604178E-16
4.361818E+03	1.613331E-14	2.587641E-16
4.371754E+03	1.614331E-14	2.578165E-16
4.381690E+03	1.616666E-14	2.574916E-16
4.391626E+03	1.620297E-14	2.577638E-16
4.401562E+03	1.625815E-14	2.587083E-16
4.411497E+03	1.634167E-14	2.604572E-16
4.421433E+03	1.646331E-14	2.631505E-16
4.431369E+03	1.663200E-14	2.669189E-16
4.441305E+03	1.685429E-14	2.718608E-16
4.451241E+03	1.713433E-14	2.780413E-16
4.461176E+03	1.747261E-14	2.854716E-16
4.471112E+03	1.786639E-14	2.941126E-16
4.481048E+03	1.830980E-14	3.038752E-16
4.490984E+03	1.879312E-14	3.146042E-16
4.500920E+03	1.930406E-14	3.260962E-16
4.510855E+03	1.982773E-14	3.380957E-16
4.520791E+03	2.034687E-14	3.502967E-16
4.530727E+03	2.084333E-14	3.623646E-16
4.540663E+03	2.129832E-14	3.739405E-16
4.550599E+03	2.169414E-14	3.846700E-16
4.560534E+03	2.201459E-14	3.942125E-16
4.570470E+03	2.224596E-14	4.022606E-16
4.580406E+03	2.237761E-14	4.085533E-16
4.590342E+03	2.240322E-14	4.129035E-16
4.600278E+03	2.231991E-14	4.151849E-16
4.610213E+03	2.212957E-14	4.153623E-16
4.620149E+03	2.183794E-14	4.134777E-16
4.630085E+03	2.145408E-14	4.096442E-16
4.640021E+03	2.099038E-14	4.040491E-16
4.649957E+03	2.046038E-14	3.969140E-16
4.659892E+03	1.987915E-14	3.885027E-16
4.669828E+03	1.926206E-14	3.790969E-16
4.679764E+03	1.862334E-14	3.689680E-16
4.689700E+03	1.797644E-14	3.583817E-16
4.699636E+03	1.733330E-14	3.475820E-16
4.709571E+03	1.670399E-14	3.367823E-16
4.719507E+03	1.609682E-14	3.261655E-16
4.729443E+03	1.551867E-14	3.158889E-16
4.739379E+03	1.497426E-14	3.060677E-16
4.749315E+03	1.446745E-14	2.968005E-16
4.759250E+03	1.400058E-14	2.881544E-16
4.769186E+03	1.357487E-14	2.801727E-16
4.779122E+03	1.319106E-14	2.728875E-16
4.789058E+03	1.284889E-14	2.663083E-16
4.798994E+03	1.254777E-14	2.604357E-16
4.808930E+03	1.228673E-14	2.552608E-16
4.818865E+03	1.206459E-14	2.507675E-16
4.828801E+03	1.188010E-14	2.469371E-16
4.838737E+03	1.173121E-14	2.437312E-16
4.848673E+03	1.161596E-14	2.411126E-16
4.858609E+03	1.153152E-14	2.390233E-16
4.868544E+03	1.147453E-14	2.373936E-16
4.878480E+03	1.144066E-14	2.361325E-16
4.888416E+03	1.142514E-14	2.351398E-16
4.898352E+03	1.142307E-14	2.343124E-16
4.908288E+03	1.142945E-14	2.335457E-16
4.918223E+03	1.144023E-14	2.327559E-16
4.928159E+03	1.145236E-14	2.318803E-16
4.938095E+03	1.146415E-14	2.308852E-16
4.948031E+03	1.147541E-14	2.297676E-16
4.957967E+03	1.148768E-14	2.285591E-16
4.967902E+03	1.150412E-14	2.273227E-16
4.977838E+03	1.152883E-14	2.261383E-16
4.987774E+03	1.156730E-14	2.251102E-16
4.997710E+03	1.162511E-14	2.243406E-16
5.007646E+03	1.170812E-14	2.239328E-16
5.017581E+03	1.182186E-14	2.239787E-16
5.027517E+03	1.197073E-14	2.245437E-16
5.037453E+03	1.215791E-14	2.256665E-16
5.047389E+03	1.238477E-14	2.273481E-16
5.057325E+03	1.265099E-14	2.295565E-16
5.067260E+03	1.295408E-14	2.322205E-16
5.077196E+03	1.328938E-14	2.352306E-16
5.087132E+03	1.365073E-14	2.384556E-16
5.097068E+03	1.403022E-14	2.417392E-16
5.107004E+03	1.441860E-14	2.449104E-16
5.116939E+03	1.480541E-14	2.477876E-16
5.126875E+03	1.517966E-14	2.501921E-16
5.136811E+03	1.552988E-14	2.519498E-16
5.146747E+03	1.584512E-14	2.529095E-16
5.156683E+03	1.611444E-14	2.529331E-16
5.166618E+03	1.632826E-14	2.519176E-16
5.176554E+03	1.647868E-14	2.497982E-16
5.186490E+03	1.656037E-14	2.465588E-16
5.196426E+03	1.657055E-14	2.422280E-16
5.206362E+03	1.651021E-14	2.368932E-16
5.216298E+03	1.638431E-14	2.306968E-16
5.226233E+03	1.620029E-14	2.238107E-16
5.236169E+03	1.596917E-14	2.164470E-16
5.246105E+03	1.570337E-14	2.088239E-16
5.256041E+03	1.541629E-14	2.011587E-16
5.265977E+03	1.512126E-14	1.936534E-16
5.275912E+03	1.482992E-14	1.864745E-16
5.285848E+03	1.455228E-14	1.797574E-16
5.295784E+03	1.429561E-14	1.735951E-16
5.305720E+03	1.406444E-14	1.680425E-16
5.315656E+03	1.386076E-14	1.631215E-16
5.325591E+03	1.368361E-14	1.588201E-16
5.335527E+03	1.353020E-14	1.551074E-16
5.345463E+03	1.339569E-14	1.519317E-16
5.355399E+03	1.327366E-14	1.492265E-16
5.365335E+03	1.315727E-14	1.469232E-16
5.375270E+03	1.303935E-14	1.449495E-16
5.385206E+03	1.291360E-14	1.432405E-16
5.395142E+03	1.277567E-14	1.417348E-16
5.405078E+03	1.262399E-14	1.403880E-16
5.415014E+03	1.246018E-14	1.391872E-16
5.424949E+03	1.229175E-14	1.381837E-16
5.434885E+03	1.212994E-14	1.374718E-16
5.444821E+03	1.198658E-14	1.371576E-16
5.454757E+03	1.187327E-14	1.373517E-16
5.464693E+03	1.180020E-14	1.381574E-16
5.474628E+03	1.177498E-14	1.396578E-16
5.484564E+03	1.180225E-14	1.419085E-16
5.494500E+03	1.188311E-14	1.449296E-16
5.504436E+03	1.201521E-14	1.487024E-16
5.514372E+03	1.219201E-14	1.531570E-16
5.524307E+03	1.240439E-14	1.581871E-16
5.534243E+03	1.264063E-14	1.636474E-16
5.544179E+03	1.288756E-14	1.693647E-16
5.554115E+03	1.313134E-14	1.751471E-16
5.564051E+03	1.335833E-14	1.807943E-16
5.573986E+03	1.355638E-14	1.861160E-16
5.583922E+03	1.371514E-14	1.909381E-16
5.593858E+03	1.382698E-14	1.951178E-16
5.603794E+03	1.388779E-14	1.985579E-16
5.613730E+03	1.389611E-14	2.011986E-16
5.623665E+03	1.385339E-14	2.030238E-16
5.633601E+03	1.376384E-14	2.040615E-16
5.643537E+03	1.363365E-14	2.043749E-16
5.653473E+03	1.346995E-14	2.040480E-16
5.663409E+03	1.328121E-14	2.031924E-16
5.673345E+03	1.307629E-14	2.019322E-16
5.683280E+03	1.286381E-14	2.003951E-16
5.693216E+03	1.265240E-14	1.987146E-16
5.703152E+03	1.244988E-14	1.970168E-16
5.713088E+03	1.226368E-14	1.954253E-16
5.723024E+03	1.210014E-14	1.940496E-16
5.732959E+03	1.196467E-14	1.929863E-16
5.742895E+03	1.186108E-14	1.923067E-16
5.752831E+03	1.179243E-14	1.920705E-16
5.762767E+03	1.175971E-14	1.923020E-16
5.772703E+03	1.176273E-14	1.930058E-16
5.782638E+03	1.179969E-14	1.941577E-16
5.792574E+03	1.186739E-14	1.957083E-16
5.802510E+03	1.196149E-14	1.975880E-16
5.812446E+03	1.207660E-14	1.997074E-16
5.822382E+03	1.220662E-14	2.019647E-16
5.832317E+03	1.234503E-14	2.042497E-16
5.842253E+03	1.248567E-14	2.064589E-16
5.852189E+03	1.262220E-14	2.084853E-16
5.862125E+03	1.274901E-14	2.102354E-16
5.872061E+03	1.286071E-14	2.116212E-16
5.881996E+03	1.295283E-14	2.125710E-16
5.891932E+03	1.302128E-14	2.130222E-16
5.901868E+03	1.306248E-14	2.129223E-16
5.911804E+03	1.307313E-14	2.122267E-16
5.921740E+03	1.305013E-14	2.108964E-16
5.931675E+03	1.299069E-14	2.088997E-16
5.941611E+03	1.289161E-14	2.062018E-16
5.951547E+03	1.275053E-14	2.027839E-16
5.961483E+03	1.256497E-14	1.986277E-16
5.971419E+03	1.233330E-14	1.937308E-16
5.981354E+03	1.205501E-14	1.881104E-16
5.991290E+03	1.173063E-14	1.818006E-16
6.001226E+03	1.136304E-14	1.748723E-16
6.011162E+03	1.095666E-14	1.674188E-16
6.021098E+03	1.051852E-14	1.595702E-16
6.031033E+03	1.005751E-14	1.514813E-16
6.040969E+03	9.583965E-15	1.433229E-16
6.050905E+03	9.109225E-15	1.352752E-16
6.060841E+03	8.644671E-15	1.275123E-16
6.070777E+03	8.201044E-15	1.201931E-16
6.080713E+03	7.787841E-15	1.134529E-16
6.090648E+03	7.413032E-15	1.074010E-16
6.100584E+03	7.082873E-15	1.021192E-16
6.110520E+03	6.801997E-15	9.766519E-17
6.120456E+03	6.573658E-15	9.407717E-17
6.130392E+03	6.399848E-15	9.137722E-17
6.140327E+03	6.281614E-15	8.957693E-17
6.150263E+03	6.219182E-15	8.868024E-17
6.160199E+03	6.212181E-15	8.868741E-17
6.170135E+03	6.259610E-15	8.959518E-17
6.180071E+03	6.359917E-15	9.139830E-17
6.190006E+03	6.510751E-15	9.408607E-17
6.199942E+03	6.708626E-15	9.763709E-17
6.209878E+03	6.948899E-15	1.020143E-16
6.219814E+03	7.225477E-15	1.071559E-16
6.229750E+03	7.530288E-15	1.129701E-16
6.239685E+03	7.853744E-15	1.193389E-16
6.249621E+03	8.184923E-15	1.261173E-16
6.259557E+03	8.511578E-15	1.331300E-16
6.269493E+03	8.821571E-15	1.401901E-16
6.279429E+03	9.103029E-15	1.470999E-16
6.289364E+03	9.345127E-15	1.536623E-16
6.299300E+03	9.539674E-15	1.597077E-16
6.309236E+03	9.680993E-15	1.650946E-16
6.319172E+03	9.766390E-15	1.697215E-16
6.329108E+03	9.796561E-15	1.735392E-16
6.339043E+03	9.775618E-15	1.765575E-16
6.348979E+03	9.709823E-15	1.788283E-16
6.358915E+03	9.607912E-15	1.804569E-16
6.368851E+03	9.480271E-15	1.815917E-16
6.378787E+03	9.337399E-15	1.823980E-16
6.388722E+03	9.190060E-15	1.830626E-16
6.398658E+03	9.048516E-15	1.837792E-16
6.408594E+03	8.921673E-15	1.847304E-16
6.418530E+03	8.816160E-15	1.860656E-16
6.428466E+03	8.734899E-15	1.878665E-16
6.438401E+03	8.676074E-15	1.901164E-16
6.448337E+03	8.636044E-15	1.927560E-16
6.458273E+03	8.610025E-15	1.956946E-16
6.468209E+03	8.593009E-15	1.988289E-16
6.478145E+03	8.580073E-15	2.020500E-16
6.488081E+03	8.566571E-15	2.052477E-16
6.498016E+03	8.548743E-15	2.083260E-16
6.507952E+03	8.523426E-15	2.111977E-16
6.517888E+03	8.488139E-15	2.137880E-16
6.527824E+03	8.441459E-15	2.160453E-16
6.537760E+03	8.382454E-15	2.179289E-16
6.547695E+03	8.311019E-15	2.194187E-16
6.557631E+03	8.227744E-15	2.205134E-16
6.567567E+03	8.133273E-15	2.212146E-16
6.577503E+03	8.029247E-15	2.215527E-16
6.587439E+03	7.916711E-15	2.215445E-16
6.597374E+03	7.797487E-15	2.212311E-16
6.607310E+03	7.673012E-15	2.206453E-16
6.617246E+03	7.544798E-15	2.198248E-16
6.627182E+03	7.414372E-15	2.188105E-16
6.637118E+03	7.282848E-15	2.176332E-16
6.647053E+03	7.151335E-15	2.163257E-16
6.656989E+03	7.020732E-15	2.149160E-16
6.666925E+03	6.891902E-15	2.134324E-16
6.676861E+03	6.765196E-15	2.118886E-16
6.686797E+03	6.641285E-15	2.103090E-16
6.696732E+03	6.520393E-15	2.087046E-16
6.706668E+03	6.402750E-15	2.070870E-16
6.716604E+03	6.288553E-15	2.054670E-16
6.726540E+03	6.177955E-15	2.038541E-16
6.736476E+03	6.071207E-15	2.022613E-16
6.746411E+03	5.968229E-15	2.006909E-16
6.756347E+03	5.869274E-15	1.991560E-16
6.766283E+03	5.774491E-15	1.976667E-16
6.776219E+03	5.684035E-15	1.962333E-16
6.786155E+03	5.598056E-15	1.948660E-16
6.796090E+03	5.516692E-15	1.935744E-16
6.806026E+03	5.440047E-15	1.923674E-16
6.815962E+03	5.368082E-15	1.912484E-16
6.825898E+03	5.300901E-15	1.902259E-16
6.835834E+03	5.238444E-15	1.893023E-16
6.845769E+03	5.180484E-15	1.884739E-16
6.855705E+03	5.126918E-15	1.877411E-16
6.865641E+03	5.077474E-15	1.870976E-16
6.875577E+03	5.031722E-15	1.865312E-16
6.885513E+03	4.989269E-15	1.860302E-16
6.895449E+03	4.949773E-15	1.855846E-16
6.905384E+03	4.912673E-15	1.851757E-16
6.915320E+03	4.877493E-15	1.847873E-16
6.925256E+03	4.843849E-15	1.844066E-16
6.935192E+03	4.811187E-15	1.840136E-16
6.945128E+03	4.779075E-15	1.835928E-16
6.955063E+03	4.747027E-15	1.831261E-16
6.964999E+03	4.714881E-15	1.826081E-16
6.974935E+03	4.682255E-15	1.820241E-16
6.984871E+03	4.648920E-15	1.813656E-16
6.994807E+03	4.614624E-15	1.806232E-16
7.004742E+03	4.579359E-15	1.797968E-16
7.014678E+03	4.543000E-15	1.788817E-16
7.024614E+03	4.505749E-15	1.778863E-16
7.034550E+03	4.467411E-15	1.768034E-16
7.044486E+03	4.428291E-15	1.756455E-16
7.054421E+03	4.388475E-15	1.744167E-16
7.064357E+03	4.348271E-15	1.731300E-16
7.074293E+03	4.307771E-15	1.717898E-16
7.084229E+03	4.267455E-15	1.704163E-16
7.094165E+03	4.227473E-15	1.690162E-16
7.104100E+03	4.188236E-15	1.676070E-16
7.114036E+03	4.150047E-15	1.662020E-16
7.123972E+03	4.113169E-15	1.648125E-16
7.133908E+03	4.077717E-15	1.634442E-16
7.143844E+03	4.043824E-15	1.621034E-16
7.153779E+03	4.011632E-15	1.607966E-16
7.163715E+03	3.981028E-15	1.595200E-16
7.173651E+03	3.951989E-15	1.582734E-16
7.183587E+03	3.924160E-15	1.570432E-16
7.193523E+03	3.897442E-15	1.558262E-16
7.203458E+03	3.871410E-15	1.546058E-16
7.213394E+03	3.845656E-15	1.533664E-16
7.223330E+03	3.819708E-15	1.520900E-16
7.233266E+03	3.793046E-15	1.507565E-16
7.243202E+03	3.765111E-15	1.493446E-16
7.253137E+03	3.735415E-15	1.478362E-16
7.263073E+03	3.703235E-15	1.462040E-16
7.273009E+03	3.668307E-15	1.444393E-16
7.282945E+03	3.630125E-15	1.425239E-16
7.292881E+03	3.588298E-15	1.404448E-16
7.302817E+03	3.542902E-15	1.382075E-16
7.312752E+03	3.493762E-15	1.358077E-16
7.322688E+03	3.441257E-15	1.332632E-16
7.332624E+03	3.385594E-15	1.305847E-16
7.342560E+03	3.327264E-15	1.277942E-16
7.352496E+03	3.266858E-15	1.249171E-16
7.362431E+03	3.204962E-15	1.219785E-16
7.372367E+03	3.142350E-15	1.190101E-16
7.382303E+03	3.079733E-15	1.160409E-16
7.392239E+03	3.017672E-15	1.130935E-16
7.402175E+03	2.956788E-15	1.101925E-16
7.412110E+03	2.897675E-15	1.073608E-16
7.422046E+03	2.840826E-15	1.046169E-16
7.431982E+03	2.786699E-15	1.019778E-16
7.441918E+03	2.735710E-15	9.945805E-17
7.451854E+03	2.688288E-15	9.707242E-17
7.461789E+03	2.644741E-15	9.483060E-17
7.471725E+03	2.605310E-15	9.273954E-17
7.481661E+03	2.570305E-15	9.080811E-17
7.491597E+03	2.539780E-15	8.903583E-17
7.501533E+03	2.513864E-15	8.742448E-17
7.511468E+03	2.492634E-15	8.597382E-17
7.521404E+03	2.476126E-15	8.468191E-17
7.531340E+03	2.464339E-15	8.354537E-17
7.541276E+03	2.457180E-15	8.255761E-17
7.551212E+03	2.454587E-15	8.171305E-17
7.561147E+03	2.456534E-15	8.100721E-17
7.571083E+03	2.462839E-15	8.043050E-17
7.581019E+03	2.473409E-15	7.997636E-17
7.590955E+03	2.487923E-15	7.963099E-17
7.600891E+03	2.506264E-15	7.938740E-17
7.610826E+03	2.528070E-15	7.923109E-17
7.620762E+03	2.552990E-15	7.914841E-17
7.630698E+03	2.580636E-15	7.912502E-17
7.640634E+03	2.610670E-15	7.914874E-17
7.650570E+03	2.642625E-15	7.920412E-17
7.660505E+03	2.676140E-15	7.927945E-17
7.670441E+03	2.710974E-15	7.936734E-17
7.680377E+03	2.746885E-15	7.946076E-17
7.690313E+03	2.783614E-15	7.955272E-17
7.700249E+03	2.821087E-15	7.964203E-17
7.710184E+03	2.859169E-15	7.972611E-17
