#wls	flux	fluxerr
1.589729E+03	9.159695E-16	6.584553E-17
1.629472E+03	7.967364E-16	5.682273E-17
1.669215E+03	6.880581E-16	4.867542E-17
1.708958E+03	5.904551E-16	4.142490E-17
1.748702E+03	5.040760E-16	3.506481E-17
1.788445E+03	4.282149E-16	2.952886E-17
1.828188E+03	3.620299E-16	2.474258E-17
1.867931E+03	3.045601E-16	2.062496E-17
1.907675E+03	2.550007E-16	1.710734E-17
1.947418E+03	2.125368E-16	1.412198E-17
1.987161E+03	1.767871E-16	1.163131E-17
2.026904E+03	1.476236E-16	9.614895E-18
2.066647E+03	1.252476E-16	8.073456E-18
2.106391E+03	1.099147E-16	7.010290E-18
2.146134E+03	1.016215E-16	6.411222E-18
2.185877E+03	1.000031E-16	6.239140E-18
2.225620E+03	1.044438E-16	6.442094E-18
2.265363E+03	1.144080E-16	6.974374E-18
2.305107E+03	1.297281E-16	7.813641E-18
2.344850E+03	1.505341E-16	8.955426E-18
2.384593E+03	1.773413E-16	1.041713E-17
2.424336E+03	2.107820E-16	1.222104E-17
2.464080E+03	2.514577E-16	1.438531E-17
2.503823E+03	2.996888E-16	1.690991E-17
2.543566E+03	3.551708E-16	1.975851E-17
2.583309E+03	4.168808E-16	2.285588E-17
2.623052E+03	4.829459E-16	2.608371E-17
2.662796E+03	5.509185E-16	2.929886E-17
2.702539E+03	6.183156E-16	3.236426E-17
2.742282E+03	6.825666E-16	3.514665E-17
2.782025E+03	7.416276E-16	3.754830E-17
2.821769E+03	7.938762E-16	3.949986E-17
2.861512E+03	8.383745E-16	4.097153E-17
2.901255E+03	8.750191E-16	4.197741E-17
2.940998E+03	9.045493E-16	4.257219E-17
2.980741E+03	9.285035E-16	4.284530E-17
2.990677E+03	9.338795E-16	4.287689E-17
3.000613E+03	9.390410E-16	4.289553E-17
3.010549E+03	9.440556E-16	4.290443E-17
3.020485E+03	9.489616E-16	4.290540E-17
3.030420E+03	9.539108E-16	4.290535E-17
3.040356E+03	9.588398E-16	4.290139E-17
3.050292E+03	9.639044E-16	4.290047E-17
3.060228E+03	9.691871E-16	4.290614E-17
3.070164E+03	9.746569E-16	4.291686E-17
3.080099E+03	9.803607E-16	4.293455E-17
3.090035E+03	9.863096E-16	4.295952E-17
3.099971E+03	9.925541E-16	4.299375E-17
3.109907E+03	9.990695E-16	4.303598E-17
3.119843E+03	1.005946E-15	4.308987E-17
3.129779E+03	1.013126E-15	4.315265E-17
3.139714E+03	1.020736E-15	4.322950E-17
3.149650E+03	1.028757E-15	4.331928E-17
3.159586E+03	1.037208E-15	4.342246E-17
3.169522E+03	1.046144E-15	4.354100E-17
3.179458E+03	1.055620E-15	4.367679E-17
3.189393E+03	1.065618E-15	4.382877E-17
3.199329E+03	1.076196E-15	4.399878E-17
3.209265E+03	1.087373E-15	4.418722E-17
3.219201E+03	1.099237E-15	4.439719E-17
3.229137E+03	1.111773E-15	4.462756E-17
3.239072E+03	1.125002E-15	4.487860E-17
3.249008E+03	1.139010E-15	4.515322E-17
3.258944E+03	1.153781E-15	4.545020E-17
3.268880E+03	1.169369E-15	4.577100E-17
3.278816E+03	1.185788E-15	4.611560E-17
3.288751E+03	1.203090E-15	4.648534E-17
3.298687E+03	1.221291E-15	4.688010E-17
3.308623E+03	1.240438E-15	4.730101E-17
3.318559E+03	1.260513E-15	4.774662E-17
3.328495E+03	1.281595E-15	4.821918E-17
3.338430E+03	1.303664E-15	4.871712E-17
3.348366E+03	1.326765E-15	4.924138E-17
3.358302E+03	1.350911E-15	4.979157E-17
3.368238E+03	1.376081E-15	5.036613E-17
3.378174E+03	9.703869E-16	3.526769E-17
3.379167E+03	9.780589E-16	3.552134E-17
3.380161E+03	9.860117E-16	3.578477E-17
3.381154E+03	9.948913E-16	3.608141E-17
3.382148E+03	1.004421E-15	3.640115E-17
3.383142E+03	1.013310E-15	3.669718E-17
3.384135E+03	1.021650E-15	3.697287E-17
3.385129E+03	1.030271E-15	3.725831E-17
3.386122E+03	1.039082E-15	3.755013E-17
3.387116E+03	1.048082E-15	3.784834E-17
3.388109E+03	1.057271E-15	3.815292E-17
3.389103E+03	1.065633E-15	3.842717E-17
3.390097E+03	1.073167E-15	3.867115E-17
3.391090E+03	1.082278E-15	3.897151E-17
3.392084E+03	1.092781E-15	3.932152E-17
3.393077E+03	1.102920E-15	3.965786E-17
3.394071E+03	1.112787E-15	3.998389E-17
3.395064E+03	1.121176E-15	4.025635E-17
3.396058E+03	1.128272E-15	4.048200E-17
3.397052E+03	1.136021E-15	4.073065E-17
3.398045E+03	1.144329E-15	4.099896E-17
3.399039E+03	1.151807E-15	4.123711E-17
3.400032E+03	1.158640E-15	4.145176E-17
3.401026E+03	1.165011E-15	4.164958E-17
3.402020E+03	1.170829E-15	4.182727E-17
3.403013E+03	1.177671E-15	4.204122E-17
3.404007E+03	1.185352E-15	4.228474E-17
3.405000E+03	1.193036E-15	4.252798E-17
3.405994E+03	1.200446E-15	4.276102E-17
3.406987E+03	1.208602E-15	4.302027E-17
3.407981E+03	1.217321E-15	4.329908E-17
3.408975E+03	1.225579E-15	4.356106E-17
3.409968E+03	1.233469E-15	4.380952E-17
3.410962E+03	1.240525E-15	4.402798E-17
3.411955E+03	1.246839E-15	4.421976E-17
3.412949E+03	1.253250E-15	4.441462E-17
3.413943E+03	1.259663E-15	4.460924E-17
3.414936E+03	1.265520E-15	4.478384E-17
3.415930E+03	1.270914E-15	4.494174E-17
3.416923E+03	1.276123E-15	4.509284E-17
3.417917E+03	1.281148E-15	4.523717E-17
3.418910E+03	1.285616E-15	4.536155E-17
3.419904E+03	1.289526E-15	4.546602E-17
3.420898E+03	1.293623E-15	4.557690E-17
3.421891E+03	1.297816E-15	4.569091E-17
3.422885E+03	1.302197E-15	4.581132E-17
3.423878E+03	1.306860E-15	4.594140E-17
3.424872E+03	1.311058E-15	4.605490E-17
3.425865E+03	1.314790E-15	4.615181E-17
3.426859E+03	1.317775E-15	4.622235E-17
3.427853E+03	1.320013E-15	4.626652E-17
3.428846E+03	1.320287E-15	4.624180E-17
3.429840E+03	1.318783E-15	4.615480E-17
3.430833E+03	1.318587E-15	4.611366E-17
3.431827E+03	1.319421E-15	4.610846E-17
3.432821E+03	1.321003E-15	4.612938E-17
3.433814E+03	1.323241E-15	4.617309E-17
3.434808E+03	1.325105E-15	4.620363E-17
3.435801E+03	1.326689E-15	4.622429E-17
3.436795E+03	1.328366E-15	4.624812E-17
3.437788E+03	1.329949E-15	4.626859E-17
3.438782E+03	1.331064E-15	4.627269E-17
3.439776E+03	1.331897E-15	4.626694E-17
3.440769E+03	1.333668E-15	4.629370E-17
3.441763E+03	1.336190E-15	4.634643E-17
3.442756E+03	1.338807E-15	4.640229E-17
3.443750E+03	1.341332E-15	4.645479E-17
3.444744E+03	1.343480E-15	4.649416E-17
3.445737E+03	1.345160E-15	4.651719E-17
3.446731E+03	1.347403E-15	4.655961E-17
3.447724E+03	1.350023E-15	4.661491E-17
3.448718E+03	1.352926E-15	4.667983E-17
3.449711E+03	1.356113E-15	4.675437E-17
3.450705E+03	1.359018E-15	4.681903E-17
3.451699E+03	1.361735E-15	4.687709E-17
3.452692E+03	1.364453E-15	4.693502E-17
3.453686E+03	1.367078E-15	4.698959E-17
3.454679E+03	1.369421E-15	4.703434E-17
3.455673E+03	1.371294E-15	4.706280E-17
3.456666E+03	1.372978E-15	4.708471E-17
3.457660E+03	1.374474E-15	4.710008E-17
3.458654E+03	1.375970E-15	4.711535E-17
3.459647E+03	1.377654E-15	4.713700E-17
3.460641E+03	1.380283E-15	4.719084E-17
3.461634E+03	1.383950E-15	4.728001E-17
3.462628E+03	1.387902E-15	4.737870E-17
3.463622E+03	1.392045E-15	4.748367E-17
3.464615E+03	1.397795E-15	4.764321E-17
3.465609E+03	1.405058E-15	4.785400E-17
3.466602E+03	1.411380E-15	4.803235E-17
3.467596E+03	1.417043E-15	4.818795E-17
3.468589E+03	1.422897E-15	4.834975E-17
3.469583E+03	1.428848E-15	4.851453E-17
3.470577E+03	1.435463E-15	4.870153E-17
3.471570E+03	1.442744E-15	4.891074E-17
3.472564E+03	1.451164E-15	4.915815E-17
3.473557E+03	1.460440E-15	4.943408E-17
3.474551E+03	1.469247E-15	4.969364E-17
3.475545E+03	1.477678E-15	4.994006E-17
3.476538E+03	1.486113E-15	5.018615E-17
3.477532E+03	1.494742E-15	5.043831E-17
3.478525E+03	1.504701E-15	5.073489E-17
3.479519E+03	1.515044E-15	5.104387E-17
3.480512E+03	1.525676E-15	5.136204E-17
3.481506E+03	1.535080E-15	5.163832E-17
3.482500E+03	1.542496E-15	5.184725E-17
3.483493E+03	1.551622E-15	5.211327E-17
3.484487E+03	1.563601E-15	5.247454E-17
3.485480E+03	1.575491E-15	5.283217E-17
3.486474E+03	1.586816E-15	5.317025E-17
3.487467E+03	1.598812E-15	5.353017E-17
3.488461E+03	1.610527E-15	5.388009E-17
3.489455E+03	1.621678E-15	5.421050E-17
3.490448E+03	1.632072E-15	5.451507E-17
3.491442E+03	1.641616E-15	5.479066E-17
3.492435E+03	1.652210E-15	5.510079E-17
3.493429E+03	1.664046E-15	5.545174E-17
3.494423E+03	1.676458E-15	5.582126E-17
3.495416E+03	1.689828E-15	5.622197E-17
3.496410E+03	1.703013E-15	5.661584E-17
3.497403E+03	1.714966E-15	5.696807E-17
3.498397E+03	1.725400E-15	5.726924E-17
3.499390E+03	1.735457E-15	5.755735E-17
3.500384E+03	1.745614E-15	5.784825E-17
3.501378E+03	1.756347E-15	5.815768E-17
3.502371E+03	1.768993E-15	5.852981E-17
3.503365E+03	1.781453E-15	5.889514E-17
3.504358E+03	1.792011E-15	5.919696E-17
3.505352E+03	1.803241E-15	5.952040E-17
3.506346E+03	1.815144E-15	5.986545E-17
3.507339E+03	1.825620E-15	6.016284E-17
3.508333E+03	1.834763E-15	6.041577E-17
3.509326E+03	1.844197E-15	6.067778E-17
3.510320E+03	1.854399E-15	6.096454E-17
3.511313E+03	1.865084E-15	6.126660E-17
3.512307E+03	1.875486E-15	6.155884E-17
3.513301E+03	1.883980E-15	6.178791E-17
3.514294E+03	1.891521E-15	6.198531E-17
3.515288E+03	1.899544E-15	6.219807E-17
3.516281E+03	1.908909E-15	6.245433E-17
3.517275E+03	1.920193E-15	6.277282E-17
3.518268E+03	1.932056E-15	6.310962E-17
3.519262E+03	1.944978E-15	6.348035E-17
3.520256E+03	1.958385E-15	6.386620E-17
3.521249E+03	1.969786E-15	6.418594E-17
3.522243E+03	1.980616E-15	6.448650E-17
3.523236E+03	1.992026E-15	6.480536E-17
3.524230E+03	2.003824E-15	6.513623E-17
3.525224E+03	2.016011E-15	6.547909E-17
3.526217E+03	2.028299E-15	6.582459E-17
3.527211E+03	2.041168E-15	6.618826E-17
3.528204E+03	2.053371E-15	6.652965E-17
3.529198E+03	2.065196E-15	6.685814E-17
3.530191E+03	2.078465E-15	6.723275E-17
3.531185E+03	2.092797E-15	6.764098E-17
3.532179E+03	2.106270E-15	6.802072E-17
3.533172E+03	2.118693E-15	6.836582E-17
3.534166E+03	2.131120E-15	6.871042E-17
3.535159E+03	2.143457E-15	6.905144E-17
3.536153E+03	2.154933E-15	6.936410E-17
3.537146E+03	2.165356E-15	6.964226E-17
3.538140E+03	2.175591E-15	6.991382E-17
3.539134E+03	2.186407E-15	7.020350E-17
3.540127E+03	2.199249E-15	7.055761E-17
3.541121E+03	2.213060E-15	7.094207E-17
3.542114E+03	2.224373E-15	7.124577E-17
3.543108E+03	2.234438E-15	7.150895E-17
3.544102E+03	2.242387E-15	7.170391E-17
3.545095E+03	2.248123E-15	7.182774E-17
3.546089E+03	2.255211E-15	7.199440E-17
3.547082E+03	2.262783E-15	7.217614E-17
3.548076E+03	2.270069E-15	7.234834E-17
3.549069E+03	2.276779E-15	7.250181E-17
3.550063E+03	2.283394E-15	7.265192E-17
3.551057E+03	2.289820E-15	7.279562E-17
3.552050E+03	2.295475E-15	7.291451E-17
3.553044E+03	2.301229E-15	7.303621E-17
3.554037E+03	2.306406E-15	7.313931E-17
3.555031E+03	2.310232E-15	7.319931E-17
3.556025E+03	2.312996E-15	7.322550E-17
3.557018E+03	2.315664E-15	7.324850E-17
3.558012E+03	2.318236E-15	7.326830E-17
3.559005E+03	2.320906E-15	7.329105E-17
3.559999E+03	2.325026E-15	7.335943E-17
3.560992E+03	2.328761E-15	7.341543E-17
3.561986E+03	2.331433E-15	7.343773E-17
3.562980E+03	2.333815E-15	7.345076E-17
3.563973E+03	2.333584E-15	7.338148E-17
3.564967E+03	2.331222E-15	7.324525E-17
3.565960E+03	2.329439E-15	7.312732E-17
3.566954E+03	2.327946E-15	7.301856E-17
3.567947E+03	2.325966E-15	7.289465E-17
3.568941E+03	2.324470E-15	7.278596E-17
3.569935E+03	2.323651E-15	7.269854E-17
3.570928E+03	2.321958E-15	7.258383E-17
3.571922E+03	2.318713E-15	7.242072E-17
3.572915E+03	2.313913E-15	7.220925E-17
3.573909E+03	2.308916E-15	7.199190E-17
3.574903E+03	2.305567E-15	7.182611E-17
3.575896E+03	2.303865E-15	7.171181E-17
3.576890E+03	2.301774E-15	7.158546E-17
3.577883E+03	2.298807E-15	7.143202E-17
3.578877E+03	2.295353E-15	7.126359E-17
3.579870E+03	2.292382E-15	7.111033E-17
3.580864E+03	2.289118E-15	7.094813E-17
3.581858E+03	2.284977E-15	7.075894E-17
3.582851E+03	2.281222E-15	7.058194E-17
3.583845E+03	2.277952E-15	7.042008E-17
3.584838E+03	2.274582E-15	7.025532E-17
3.585832E+03	2.270042E-15	7.005464E-17
3.586826E+03	2.264430E-15	6.982111E-17
3.587819E+03	2.258425E-15	6.957578E-17
3.588813E+03	2.253390E-15	6.936064E-17
3.589806E+03	2.250106E-15	6.919959E-17
3.590800E+03	2.246137E-15	6.901768E-17
3.591793E+03	2.239926E-15	6.876712E-17
3.592787E+03	2.233224E-15	6.850183E-17
3.593781E+03	2.226713E-15	6.824276E-17
3.594774E+03	2.221662E-15	6.802871E-17
3.595768E+03	2.219241E-15	6.789540E-17
3.596761E+03	2.217306E-15	6.777707E-17
3.597755E+03	2.214101E-15	6.762005E-17
3.598748E+03	2.211089E-15	6.746911E-17
3.599742E+03	2.208955E-15	6.734505E-17
3.600736E+03	2.207600E-15	6.724484E-17
3.601729E+03	2.208392E-15	6.721005E-17
3.602723E+03	2.209477E-15	6.718413E-17
3.603716E+03	2.208609E-15	6.709878E-17
3.604710E+03	2.206957E-15	6.698971E-17
3.605704E+03	2.206869E-15	6.692812E-17
3.606697E+03	2.207366E-15	6.688429E-17
3.607691E+03	2.208059E-15	6.684634E-17
3.608684E+03	2.209633E-15	6.683498E-17
3.609678E+03	2.210521E-15	6.680284E-17
3.610671E+03	2.211410E-15	6.677063E-17
3.611665E+03	2.213179E-15	6.676496E-17
3.612659E+03	2.215047E-15	6.676215E-17
3.613652E+03	2.216818E-15	6.675629E-17
3.614646E+03	2.219078E-15	6.676509E-17
3.615639E+03	2.222809E-15	6.681794E-17
3.616633E+03	2.227422E-15	6.689712E-17
3.617627E+03	2.232528E-15	6.699080E-17
3.618620E+03	2.238517E-15	6.711071E-17
3.619614E+03	2.245784E-15	6.726855E-17
3.620607E+03	2.253642E-15	6.744369E-17
3.621601E+03	2.261307E-15	6.761263E-17
3.622594E+03	2.268386E-15	6.776366E-17
3.623588E+03	2.276646E-15	6.794954E-17
3.624582E+03	2.286283E-15	6.817605E-17
3.625575E+03	2.295924E-15	6.840215E-17
3.626569E+03	2.306060E-15	6.864247E-17
3.627562E+03	2.317576E-15	6.892327E-17
3.628556E+03	2.332043E-15	6.929116E-17
3.629549E+03	2.349661E-15	6.975180E-17
3.630543E+03	2.367484E-15	7.021755E-17
3.631537E+03	2.384527E-15	7.065926E-17
3.632530E+03	2.400988E-15	7.108280E-17
3.633524E+03	2.417358E-15	7.150275E-17
3.634517E+03	2.434422E-15	7.194237E-17
3.635511E+03	2.451790E-15	7.239001E-17
3.636505E+03	2.469361E-15	7.284272E-17
3.637498E+03	2.487235E-15	7.330343E-17
3.638492E+03	2.505905E-15	7.378659E-17
3.639485E+03	2.524976E-15	7.428056E-17
3.640479E+03	2.543366E-15	7.475349E-17
3.641472E+03	2.560384E-15	7.518513E-17
3.642466E+03	2.576818E-15	7.559873E-17
3.643460E+03	2.594344E-15	7.604343E-17
3.644453E+03	2.613355E-15	7.653071E-17
3.645447E+03	2.632967E-15	7.703452E-17
3.646440E+03	2.652093E-15	7.752309E-17
3.647434E+03	2.671524E-15	7.801953E-17
3.648428E+03	2.691160E-15	7.852091E-17
3.649421E+03	2.710508E-15	7.901284E-17
3.650415E+03	2.730062E-15	7.950972E-17
3.651408E+03	2.748834E-15	7.998281E-17
3.652402E+03	2.766627E-15	8.042640E-17
3.653395E+03	2.783439E-15	8.084056E-17
3.654389E+03	2.799764E-15	8.123968E-17
3.655383E+03	2.816590E-15	8.165244E-17
3.656376E+03	2.833719E-15	8.207310E-17
3.657370E+03	2.850461E-15	8.248159E-17
3.658363E+03	2.866813E-15	8.287795E-17
3.659357E+03	2.883865E-15	8.329362E-17
3.660350E+03	2.900528E-15	8.369716E-17
3.661344E+03	2.916802E-15	8.408859E-17
3.662338E+03	2.933381E-15	8.448791E-17
3.663331E+03	2.949174E-15	8.486372E-17
3.664325E+03	2.962597E-15	8.517055E-17
3.665318E+03	2.972954E-15	8.538861E-17
3.666312E+03	2.982721E-15	8.558918E-17
3.667306E+03	2.993285E-15	8.581206E-17
3.668299E+03	3.004052E-15	8.604017E-17
3.669293E+03	3.015219E-15	8.627917E-17
3.670286E+03	3.026292E-15	8.651487E-17
3.671280E+03	3.036576E-15	8.672743E-17
3.672273E+03	3.045673E-15	8.690559E-17
3.673267E+03	3.053485E-15	8.704659E-17
3.674261E+03	3.061596E-15	8.719573E-17
3.675254E+03	3.070307E-15	8.736147E-17
3.676248E+03	3.079717E-15	8.754660E-17
3.677241E+03	3.089924E-15	8.775389E-17
3.678235E+03	3.099640E-15	8.794666E-17
3.679229E+03	3.108564E-15	8.811647E-17
3.680222E+03	3.116895E-15	8.826904E-17
3.681216E+03	3.124137E-15	8.839029E-17
3.682209E+03	3.131083E-15	8.850281E-17
3.683203E+03	3.138131E-15	8.861784E-17
3.684196E+03	3.144485E-15	8.871292E-17
3.685190E+03	3.149748E-15	8.877688E-17
3.686184E+03	3.154216E-15	8.881819E-17
3.687177E+03	3.157691E-15	8.883130E-17
3.688171E+03	3.160968E-15	8.883867E-17
3.689164E+03	3.163748E-15	8.883191E-17
3.690158E+03	3.166230E-15	8.881664E-17
3.691151E+03	3.169212E-15	8.881522E-17
3.692145E+03	3.170500E-15	8.876624E-17
3.693139E+03	3.170393E-15	8.867816E-17
3.694132E+03	3.169289E-15	8.856222E-17
3.695126E+03	3.166389E-15	8.839621E-17
3.696119E+03	3.162591E-15	8.820529E-17
3.697113E+03	3.158092E-15	8.799505E-17
3.698107E+03	3.153491E-15	8.778220E-17
3.699100E+03	3.149986E-15	8.760008E-17
3.700094E+03	3.147277E-15	8.744027E-17
3.701087E+03	3.144367E-15	8.727503E-17
3.702081E+03	3.139858E-15	8.706558E-17
3.703074E+03	3.134248E-15	8.682590E-17
3.704068E+03	3.128835E-15	8.659195E-17
3.705062E+03	3.122920E-15	8.634441E-17
3.706055E+03	3.116802E-15	8.609159E-17
3.707049E+03	3.110781E-15	8.584178E-17
3.708042E+03	3.104557E-15	8.558669E-17
3.709036E+03	3.097630E-15	8.531257E-17
3.710029E+03	3.089600E-15	8.500845E-17
3.711023E+03	3.080865E-15	8.468543E-17
3.712017E+03	3.072727E-15	8.437924E-17
3.713010E+03	3.065386E-15	8.409534E-17
3.714004E+03	3.057941E-15	8.380901E-17
3.714997E+03	3.051094E-15	8.353944E-17
3.715991E+03	3.043442E-15	8.324821E-17
3.716985E+03	3.034585E-15	8.292446E-17
3.717978E+03	3.025823E-15	8.260380E-17
3.718972E+03	3.015354E-15	8.223703E-17
3.719965E+03	3.004378E-15	8.185705E-17
3.720959E+03	2.994702E-15	8.151299E-17
3.721952E+03	2.984519E-15	8.115570E-17
3.722946E+03	2.973629E-15	8.077975E-17
3.723940E+03	2.962133E-15	8.038792E-17
3.724933E+03	2.950430E-15	7.999111E-17
3.725927E+03	2.938421E-15	7.958664E-17
3.726920E+03	2.926608E-15	7.918811E-17
3.727914E+03	2.915994E-15	7.882263E-17
3.728908E+03	2.906681E-15	7.849286E-17
3.729901E+03	2.896359E-15	7.813636E-17
3.730895E+03	2.884425E-15	7.773697E-17
3.731888E+03	2.872586E-15	7.734079E-17
3.732882E+03	2.861948E-15	7.697754E-17
3.733875E+03	2.851205E-15	7.661203E-17
3.734869E+03	2.840557E-15	7.624967E-17
3.735863E+03	2.830307E-15	7.589855E-17
3.736856E+03	2.819550E-15	7.553438E-17
3.737850E+03	2.807579E-15	7.513833E-17
3.738843E+03	2.794798E-15	7.472125E-17
3.739837E+03	2.779696E-15	7.424286E-17
3.740830E+03	2.762371E-15	7.370598E-17
3.741824E+03	2.746348E-15	7.320474E-17
3.742818E+03	2.731326E-15	7.273099E-17
3.743811E+03	2.718917E-15	7.232758E-17
3.744805E+03	2.709727E-15	7.201040E-17
3.745798E+03	2.700332E-15	7.168825E-17
3.746792E+03	2.689320E-15	7.132371E-17
3.747786E+03	2.677697E-15	7.094359E-17
3.748779E+03	2.666372E-15	7.057197E-17
3.749773E+03	2.654638E-15	7.019016E-17
3.750766E+03	2.642798E-15	6.980618E-17
3.751760E+03	2.630952E-15	6.942270E-17
3.752753E+03	2.617890E-15	6.900777E-17
3.753747E+03	2.604519E-15	6.858542E-17
3.754741E+03	2.591546E-15	6.817426E-17
3.755734E+03	2.578770E-15	6.776896E-17
3.756728E+03	2.566695E-15	6.738277E-17
3.757721E+03	2.555423E-15	6.701829E-17
3.758715E+03	2.545157E-15	6.668077E-17
3.759709E+03	2.534280E-15	6.632782E-17
3.760702E+03	2.522791E-15	6.595945E-17
3.761696E+03	2.510893E-15	6.558100E-17
3.762689E+03	2.497876E-15	6.517402E-17
3.763683E+03	2.486473E-15	6.480978E-17
3.764676E+03	2.476887E-15	6.449348E-17
3.765670E+03	2.466183E-15	6.414862E-17
3.766664E+03	2.455372E-15	6.380158E-17
3.767657E+03	2.445165E-15	6.347076E-17
3.768651E+03	2.434447E-15	6.312726E-17
3.769644E+03	2.423419E-15	6.277632E-17
3.770638E+03	2.412691E-15	6.243373E-17
3.771631E+03	2.403277E-15	6.212566E-17
3.772625E+03	2.394872E-15	6.184417E-17
3.773619E+03	2.386260E-15	6.155781E-17
3.774612E+03	2.379065E-15	6.130842E-17
3.775606E+03	2.373287E-15	6.109590E-17
3.776599E+03	2.367608E-15	6.088624E-17
3.777593E+03	2.362434E-15	6.068986E-17
3.778587E+03	2.356649E-15	6.047807E-17
3.779580E+03	2.349439E-15	6.023008E-17
3.780574E+03	2.341718E-15	5.996939E-17
3.781567E+03	2.334095E-15	5.971162E-17
3.782561E+03	2.326774E-15	5.946197E-17
3.783554E+03	2.319855E-15	5.922301E-17
3.784548E+03	2.312934E-15	5.898435E-17
3.785542E+03	2.307027E-15	5.877189E-17
3.786535E+03	2.303049E-15	5.860887E-17
3.787529E+03	2.300291E-15	5.847705E-17
3.788522E+03	2.297836E-15	5.835310E-17
3.789516E+03	2.294973E-15	5.821892E-17
3.790510E+03	2.292414E-15	5.809261E-17
3.791503E+03	2.291381E-15	5.800508E-17
3.792497E+03	2.291468E-15	5.794592E-17
3.793490E+03	2.291963E-15	5.789706E-17
3.794484E+03	2.293272E-15	5.786873E-17
3.795477E+03	2.294582E-15	5.784036E-17
3.796471E+03	2.295382E-15	5.779910E-17
3.797465E+03	2.297407E-15	5.778858E-17
3.798458E+03	2.300656E-15	5.780873E-17
3.799452E+03	2.305028E-15	5.785690E-17
3.800445E+03	2.309708E-15	5.791256E-17
3.801439E+03	2.313675E-15	5.795013E-17
3.802432E+03	2.317338E-15	5.797987E-17
3.803426E+03	2.323147E-15	5.806305E-17
3.804420E+03	2.331816E-15	5.821735E-17
3.805413E+03	2.341000E-15	5.838402E-17
3.806407E+03	2.351516E-15	5.858340E-17
3.807400E+03	2.363467E-15	5.881792E-17
3.808394E+03	2.375626E-15	5.905701E-17
3.809388E+03	2.389836E-15	5.934635E-17
3.810381E+03	2.405994E-15	5.968328E-17
3.811375E+03	2.423590E-15	6.005499E-17
