#wls	flux	fluxerr
1.589729E+03	2.969836E-16	2.859966E-17
1.629472E+03	2.706354E-16	2.589106E-17
1.669215E+03	2.458428E-16	2.336028E-17
1.708958E+03	2.227937E-16	2.102301E-17
1.748702E+03	2.016054E-16	1.888770E-17
1.788445E+03	1.820640E-16	1.693156E-17
1.828188E+03	1.640484E-16	1.514083E-17
1.867931E+03	1.473823E-16	1.349687E-17
1.907675E+03	1.318660E-16	1.197936E-17
1.947418E+03	1.174822E-16	1.058487E-17
1.987161E+03	1.042989E-16	9.317579E-18
2.026904E+03	9.271212E-17	8.210374E-18
2.066647E+03	8.338343E-17	7.318121E-18
2.106391E+03	7.704449E-17	6.699487E-18
2.146134E+03	7.429284E-17	6.398973E-18
2.185877E+03	7.528655E-17	6.421307E-18
2.225620E+03	7.971298E-17	6.730580E-18
2.265363E+03	8.699508E-17	7.269520E-18
2.305107E+03	9.655479E-17	7.982474E-18
2.344850E+03	1.078649E-16	8.819756E-18
2.384593E+03	1.206349E-16	9.752516E-18
2.424336E+03	1.346521E-16	1.075903E-17
2.464080E+03	1.498124E-16	1.182680E-17
2.503823E+03	1.660361E-16	1.294547E-17
2.543566E+03	1.832039E-16	1.410187E-17
2.583309E+03	2.012020E-16	1.528358E-17
2.623052E+03	2.198586E-16	1.647415E-17
2.662796E+03	2.389513E-16	1.765407E-17
2.702539E+03	2.583041E-16	1.880807E-17
2.742282E+03	2.777509E-16	1.992226E-17
2.782025E+03	2.971773E-16	2.098715E-17
2.821769E+03	3.164719E-16	2.199395E-17
2.861512E+03	3.353642E-16	2.292347E-17
2.901255E+03	3.538197E-16	2.377372E-17
2.940998E+03	3.717211E-16	2.453741E-17
2.980741E+03	3.891403E-16	2.522016E-17
2.990677E+03	3.933967E-16	2.537680E-17
3.000613E+03	3.976815E-16	2.553221E-17
3.010549E+03	4.019250E-16	2.568191E-17
3.020485E+03	4.061695E-16	2.582859E-17
3.030420E+03	4.104182E-16	2.597245E-17
3.040356E+03	4.146699E-16	2.611340E-17
3.050292E+03	4.189999E-16	2.625614E-17
3.060228E+03	4.234010E-16	2.640013E-17
3.070164E+03	4.278308E-16	2.654266E-17
3.080099E+03	4.323576E-16	2.668791E-17
3.090035E+03	4.369400E-16	2.683322E-17
3.099971E+03	4.415375E-16	2.697605E-17
3.109907E+03	4.462199E-16	2.712063E-17
3.119843E+03	4.509480E-16	2.726447E-17
3.129779E+03	4.557191E-16	2.740737E-17
3.139714E+03	4.605317E-16	2.754917E-17
3.149650E+03	4.654210E-16	2.769191E-17
3.159586E+03	4.703493E-16	2.783328E-17
3.169522E+03	4.753523E-16	2.797533E-17
3.179458E+03	4.804301E-16	2.811797E-17
3.189393E+03	4.855454E-16	2.825894E-17
3.199329E+03	4.907350E-16	2.840032E-17
3.209265E+03	4.960372E-16	2.854423E-17
3.219201E+03	5.013768E-16	2.868623E-17
3.229137E+03	5.068301E-16	2.883063E-17
3.239072E+03	5.123975E-16	2.897730E-17
3.249008E+03	5.180418E-16	2.912404E-17
3.258944E+03	5.238015E-16	2.927289E-17
3.268880E+03	5.296388E-16	2.942164E-17
3.278816E+03	5.356312E-16	2.957447E-17
3.288751E+03	5.417792E-16	2.973122E-17
3.298687E+03	5.480449E-16	2.988966E-17
3.308623E+03	5.544668E-16	3.005175E-17
3.318559E+03	5.610454E-16	3.021733E-17
3.328495E+03	5.677803E-16	3.038622E-17
3.338430E+03	5.747101E-16	3.056027E-17
3.348366E+03	5.818344E-16	3.073926E-17
3.358302E+03	5.891530E-16	3.092296E-17
3.368238E+03	5.967425E-16	3.111515E-17
3.378174E+03	6.045241E-16	3.131145E-17
3.388109E+03	6.125359E-16	3.151359E-17
3.398045E+03	6.208543E-16	3.172524E-17
3.407981E+03	6.294391E-16	3.194400E-17
3.417917E+03	6.383278E-16	3.217148E-17
3.427853E+03	6.475190E-16	3.240727E-17
3.437788E+03	6.570892E-16	3.265483E-17
3.447724E+03	6.669987E-16	3.291179E-17
3.457660E+03	6.772850E-16	3.317960E-17
3.467596E+03	6.879868E-16	3.345973E-17
3.477532E+03	6.991036E-16	3.375169E-17
3.487467E+03	7.107144E-16	3.405882E-17
3.497403E+03	7.227790E-16	3.437864E-17
3.507339E+03	7.353385E-16	3.471260E-17
3.517275E+03	7.484326E-16	3.506200E-17
3.527211E+03	7.620631E-16	3.542634E-17
3.537146E+03	7.762330E-16	3.580515E-17
3.547082E+03	7.909065E-16	3.619619E-17
3.557018E+03	8.061690E-16	3.660279E-17
3.566954E+03	8.219481E-16	3.702100E-17
3.576890E+03	8.382544E-16	3.745074E-17
3.586826E+03	8.551007E-16	3.789198E-17
3.596761E+03	8.725034E-16	3.834484E-17
3.606697E+03	8.904825E-16	3.880955E-17
3.616633E+03	9.089803E-16	3.928299E-17
3.626569E+03	9.281044E-16	3.976918E-17
3.636505E+03	9.478058E-16	4.026534E-17
3.646440E+03	9.681623E-16	4.077410E-17
3.656376E+03	9.891788E-16	4.129495E-17
3.666312E+03	1.010909E-15	4.182937E-17
3.676248E+03	1.033379E-15	4.237760E-17
3.686184E+03	1.056668E-15	4.294209E-17
3.696119E+03	1.080912E-15	4.352738E-17
3.706055E+03	1.106144E-15	4.413379E-17
3.715991E+03	1.132507E-15	4.476581E-17
3.725927E+03	1.160164E-15	4.542859E-17
3.735863E+03	1.189297E-15	4.612781E-17
3.745798E+03	1.220071E-15	4.686810E-17
3.755734E+03	1.252702E-15	4.765597E-17
3.765670E+03	1.287412E-15	4.849770E-17
3.775606E+03	1.324371E-15	4.939732E-17
3.785542E+03	1.363777E-15	5.035970E-17
3.795477E+03	1.405755E-15	5.138671E-17
3.805413E+03	1.450412E-15	5.247945E-17
3.815349E+03	1.497802E-15	5.363690E-17
3.825285E+03	1.547906E-15	5.485538E-17
3.835221E+03	1.600507E-15	5.612443E-17
3.845156E+03	1.655425E-15	5.743501E-17
3.855092E+03	1.712319E-15	5.877308E-17
3.865028E+03	1.770614E-15	6.011697E-17
3.874964E+03	1.829698E-15	6.144474E-17
3.884900E+03	1.888892E-15	6.273313E-17
3.894835E+03	1.947252E-15	6.395122E-17
3.904771E+03	2.003893E-15	6.507135E-17
3.914707E+03	2.057733E-15	6.606100E-17
3.924643E+03	2.107795E-15	6.689244E-17
3.934579E+03	2.153187E-15	6.754210E-17
3.944514E+03	2.192958E-15	6.798590E-17
3.954450E+03	2.226430E-15	6.820953E-17
3.964386E+03	2.253108E-15	6.820518E-17
3.974322E+03	2.272732E-15	6.797277E-17
3.984258E+03	2.285244E-15	6.751848E-17
3.994194E+03	2.290991E-15	6.686045E-17
4.004129E+03	2.290379E-15	6.601794E-17
4.014065E+03	2.284226E-15	6.502131E-17
4.024001E+03	2.273242E-15	6.389663E-17
4.033937E+03	2.258440E-15	6.267743E-17
4.043873E+03	2.240668E-15	6.139113E-17
4.053808E+03	2.220855E-15	6.006620E-17
4.063744E+03	2.199893E-15	5.872870E-17
4.073680E+03	2.178563E-15	5.740055E-17
4.083616E+03	2.157618E-15	5.610190E-17
4.093552E+03	2.137734E-15	5.484976E-17
4.103487E+03	2.119496E-15	5.365802E-17
4.113423E+03	2.103323E-15	5.253563E-17
4.123359E+03	2.089700E-15	5.149255E-17
4.133295E+03	2.078850E-15	5.053186E-17
4.143231E+03	2.071020E-15	4.965690E-17
4.153166E+03	2.066289E-15	4.886683E-17
4.163102E+03	2.064684E-15	4.815947E-17
4.173038E+03	2.066145E-15	4.753077E-17
4.182974E+03	2.070577E-15	4.697597E-17
4.192910E+03	2.077705E-15	4.648652E-17
4.202845E+03	2.087333E-15	4.605599E-17
4.212781E+03	2.099091E-15	4.567457E-17
4.222717E+03	2.112556E-15	4.533174E-17
4.232653E+03	2.127377E-15	4.501916E-17
4.242589E+03	2.142945E-15	4.472355E-17
4.252524E+03	2.158694E-15	4.443326E-17
4.262460E+03	2.173838E-15	4.413292E-17
4.272396E+03	2.187724E-15	4.381067E-17
4.282332E+03	2.199522E-15	4.345186E-17
4.292268E+03	2.208488E-15	4.304440E-17
4.302203E+03	2.213933E-15	4.257797E-17
4.312139E+03	2.215401E-15	4.204728E-17
4.322075E+03	2.212516E-15	4.144882E-17
4.332011E+03	2.205257E-15	4.078593E-17
4.341947E+03	2.193904E-15	4.006722E-17
4.351882E+03	2.178963E-15	3.930494E-17
4.361818E+03	2.161131E-15	3.851416E-17
4.371754E+03	2.141215E-15	3.771105E-17
4.381690E+03	2.120036E-15	3.691126E-17
4.391626E+03	2.098729E-15	3.613505E-17
4.401562E+03	2.079825E-15	3.542557E-17
4.411497E+03	2.066294E-15	3.483150E-17
4.421433E+03	2.060695E-15	3.439278E-17
4.431369E+03	2.065265E-15	3.414267E-17
4.441305E+03	2.081992E-15	3.410939E-17
4.451241E+03	2.112623E-15	3.431673E-17
4.461176E+03	2.158428E-15	3.478029E-17
4.471112E+03	2.220380E-15	3.551047E-17
4.481048E+03	2.299054E-15	3.651149E-17
4.490984E+03	2.394419E-15	3.777856E-17
4.500920E+03	2.505765E-15	3.929691E-17
4.510855E+03	2.631763E-15	4.104302E-17
4.520791E+03	2.770400E-15	4.298375E-17
4.530727E+03	2.918788E-15	4.507341E-17
4.540663E+03	3.073203E-15	4.725457E-17
4.550599E+03	3.228975E-15	4.945626E-17
4.560534E+03	3.380775E-15	5.159848E-17
4.570470E+03	3.522791E-15	5.359471E-17
4.580406E+03	3.649302E-15	5.536039E-17
4.590342E+03	3.755146E-15	5.681987E-17
4.600278E+03	3.836137E-15	5.791228E-17
4.610213E+03	3.889742E-15	5.860153E-17
4.620149E+03	3.915268E-15	5.887882E-17
4.630085E+03	3.913294E-15	5.875389E-17
4.640021E+03	3.886242E-15	5.826361E-17
4.649957E+03	3.837403E-15	5.745721E-17
4.659892E+03	3.771139E-15	5.639951E-17
4.669828E+03	3.692112E-15	5.515939E-17
4.679764E+03	3.605197E-15	5.380861E-17
4.689700E+03	3.515033E-15	5.241521E-17
4.699636E+03	3.425544E-15	5.103642E-17
4.709571E+03	3.340148E-15	4.972195E-17
4.719507E+03	3.261595E-15	4.851148E-17
4.729443E+03	3.191896E-15	4.743374E-17
4.739379E+03	3.132650E-15	4.651135E-17
4.749315E+03	3.084910E-15	4.575881E-17
4.759250E+03	3.049342E-15	4.518485E-17
4.769186E+03	3.026295E-15	4.479351E-17
4.779122E+03	3.015807E-15	4.458414E-17
4.789058E+03	3.017521E-15	4.455022E-17
4.798994E+03	3.030839E-15	4.468161E-17
4.808930E+03	3.055035E-15	4.496624E-17
4.818865E+03	3.089270E-15	4.539032E-17
4.828801E+03	3.132590E-15	4.593834E-17
4.838737E+03	3.183862E-15	4.659217E-17
4.848673E+03	3.241873E-15	4.733249E-17
4.858609E+03	3.304990E-15	4.813397E-17
4.868544E+03	3.371086E-15	4.896422E-17
4.878480E+03	3.437199E-15	4.977902E-17
4.888416E+03	3.499714E-15	5.052523E-17
4.898352E+03	3.554789E-15	5.114718E-17
4.908288E+03	3.598609E-15	5.159039E-17
4.918223E+03	3.627552E-15	5.180426E-17
4.928159E+03	3.638735E-15	5.174972E-17
4.938095E+03	3.630372E-15	5.140432E-17
4.948031E+03	3.601630E-15	5.075994E-17
4.957967E+03	3.553045E-15	4.982829E-17
4.967902E+03	3.486425E-15	4.863920E-17
4.977838E+03	3.404696E-15	4.723786E-17
4.987774E+03	3.311292E-15	4.567604E-17
4.997710E+03	3.210054E-15	4.401019E-17
5.007646E+03	3.104938E-15	4.229733E-17
5.017581E+03	2.999597E-15	4.058914E-17
5.027517E+03	2.897254E-15	3.893018E-17
5.037453E+03	2.800763E-15	3.735889E-17
5.047389E+03	2.712349E-15	3.590415E-17
5.057325E+03	2.633695E-15	3.458669E-17
5.067260E+03	2.566184E-15	3.342244E-17
5.077196E+03	2.510764E-15	3.242089E-17
5.087132E+03	2.468191E-15	3.158844E-17
5.097068E+03	2.439096E-15	3.092935E-17
5.107004E+03	2.423988E-15	3.044582E-17
5.116939E+03	2.423288E-15	3.013845E-17
5.126875E+03	2.437358E-15	3.000676E-17
5.136811E+03	2.466586E-15	3.005015E-17
5.146747E+03	2.511119E-15	3.026480E-17
5.156683E+03	2.571099E-15	3.064654E-17
5.166618E+03	2.646347E-15	3.118729E-17
5.176554E+03	2.736236E-15	3.187374E-17
5.186490E+03	2.839734E-15	3.268823E-17
5.196426E+03	2.955321E-15	3.360812E-17
5.206362E+03	3.080932E-15	3.460561E-17
5.216298E+03	3.213979E-15	3.564834E-17
5.226233E+03	3.351380E-15	3.670018E-17
5.236169E+03	3.489781E-15	3.772407E-17
5.246105E+03	3.625623E-15	3.868285E-17
5.256041E+03	3.755295E-15	3.954109E-17
5.265977E+03	3.875491E-15	4.026884E-17
5.275912E+03	3.983422E-15	4.084348E-17
5.285848E+03	4.077219E-15	4.125343E-17
5.295784E+03	4.156348E-15	4.150157E-17
5.305720E+03	4.221676E-15	4.160488E-17
5.315656E+03	4.275488E-15	4.159373E-17
5.325591E+03	4.322026E-15	4.151604E-17
5.335527E+03	4.366834E-15	4.143002E-17
5.345463E+03	4.415958E-15	4.139605E-17
5.355399E+03	4.475887E-15	4.147610E-17
5.365335E+03	4.553086E-15	4.172963E-17
5.375270E+03	4.653919E-15	4.221330E-17
5.385206E+03	4.783993E-15	4.297566E-17
5.395142E+03	4.948525E-15	4.406131E-17
5.405078E+03	5.152104E-15	4.550953E-17
5.415014E+03	5.398362E-15	4.735212E-17
5.424949E+03	5.683609E-15	4.955882E-17
5.434885E+03	5.998211E-15	5.205122E-17
5.444821E+03	6.330570E-15	5.473785E-17
5.454757E+03	6.667377E-15	5.751504E-17
5.464693E+03	6.993818E-15	6.026414E-17
5.474628E+03	7.295889E-15	6.287140E-17
5.484564E+03	7.560547E-15	6.522915E-17
5.494500E+03	7.776640E-15	6.724271E-17
5.504436E+03	7.936497E-15	6.884351E-17
5.514372E+03	8.035955E-15	6.998938E-17
5.524307E+03	8.073663E-15	7.065897E-17
5.534243E+03	8.051348E-15	7.085503E-17
5.544179E+03	7.972782E-15	7.059639E-17
5.554115E+03	7.843185E-15	6.991385E-17
5.564051E+03	7.668299E-15	6.884292E-17
5.573986E+03	7.454235E-15	6.742316E-17
5.583922E+03	7.207858E-15	6.570238E-17
5.593858E+03	6.936278E-15	6.373264E-17
5.603794E+03	6.646842E-15	6.157065E-17
5.613730E+03	6.347353E-15	5.928013E-17
5.623665E+03	6.046371E-15	5.693500E-17
5.633601E+03	5.752162E-15	5.460978E-17
5.643537E+03	5.472048E-15	5.237326E-17
5.653473E+03	5.212855E-15	5.029235E-17
5.663409E+03	4.980115E-15	4.842403E-17
5.673345E+03	4.777967E-15	4.681371E-17
5.683280E+03	4.609153E-15	4.549441E-17
5.693216E+03	4.475473E-15	4.449066E-17
5.703152E+03	4.377620E-15	4.381624E-17
5.713088E+03	4.315113E-15	4.347311E-17
5.723024E+03	4.286882E-15	4.345667E-17
5.732959E+03	4.291095E-15	4.375386E-17
5.742895E+03	4.324541E-15	4.433647E-17
5.752831E+03	4.383346E-15	4.516822E-17
5.762767E+03	4.463037E-15	4.620525E-17
5.772703E+03	4.558383E-15	4.739449E-17
5.782638E+03	4.663576E-15	4.867549E-17
5.792574E+03	4.772641E-15	4.998488E-17
5.802510E+03	4.879981E-15	5.126223E-17
5.812446E+03	4.980090E-15	5.244740E-17
5.822382E+03	5.067805E-15	5.348345E-17
5.832317E+03	5.138960E-15	5.432389E-17
5.842253E+03	5.189974E-15	5.492856E-17
5.852189E+03	5.217993E-15	5.526548E-17
5.862125E+03	5.221001E-15	5.531210E-17
5.872061E+03	5.197927E-15	5.505672E-17
5.881996E+03	5.148763E-15	5.449967E-17
5.891932E+03	5.074608E-15	5.365387E-17
5.901868E+03	4.977443E-15	5.254229E-17
5.911804E+03	4.860350E-15	5.120015E-17
5.921740E+03	4.727338E-15	4.967281E-17
5.931675E+03	4.582847E-15	4.801024E-17
5.941611E+03	4.431435E-15	4.626355E-17
5.951547E+03	4.277548E-15	4.448222E-17
5.961483E+03	4.125236E-15	4.271107E-17
5.971419E+03	3.977787E-15	4.098633E-17
5.981354E+03	3.837494E-15	3.933325E-17
5.991290E+03	3.705933E-15	3.776911E-17
6.001226E+03	3.584157E-15	3.630532E-17
6.011162E+03	3.472422E-15	3.494475E-17
6.021098E+03	3.370517E-15	3.368529E-17
6.031033E+03	3.277798E-15	3.252039E-17
6.040969E+03	3.193043E-15	3.143777E-17
6.050905E+03	3.114800E-15	3.042310E-17
6.060841E+03	3.041784E-15	2.946402E-17
6.070777E+03	2.973042E-15	2.855164E-17
6.080713E+03	2.907906E-15	2.768010E-17
6.090648E+03	2.846098E-15	2.684731E-17
6.100584E+03	2.787992E-15	2.605738E-17
6.110520E+03	2.734249E-15	2.531692E-17
6.120456E+03	2.685789E-15	2.463464E-17
6.130392E+03	2.643847E-15	2.402182E-17
6.140327E+03	2.609667E-15	2.348939E-17
6.150263E+03	2.584432E-15	2.304740E-17
6.160199E+03	2.569139E-15	2.270399E-17
6.170135E+03	2.564637E-15	2.246584E-17
6.180071E+03	2.571352E-15	2.233599E-17
6.190006E+03	2.589084E-15	2.231232E-17
6.199942E+03	2.617429E-15	2.239142E-17
6.209878E+03	2.655738E-15	2.256841E-17
6.219814E+03	2.703400E-15	2.283945E-17
6.229750E+03	2.759724E-15	2.320069E-17
6.239685E+03	2.824073E-15	2.364950E-17
6.249621E+03	2.895799E-15	2.418385E-17
6.259557E+03	2.974353E-15	2.480324E-17
6.269493E+03	3.059257E-15	2.550834E-17
6.279429E+03	3.150340E-15	2.630303E-17
6.289364E+03	3.247487E-15	2.719216E-17
6.299300E+03	3.350550E-15	2.818082E-17
6.309236E+03	3.459043E-15	2.927148E-17
6.319172E+03	3.572319E-15	3.046359E-17
6.329108E+03	3.689487E-15	3.175337E-17
6.339043E+03	3.809364E-15	3.313411E-17
6.348979E+03	3.930720E-15	3.459799E-17
6.358915E+03	4.052593E-15	3.613875E-17
6.368851E+03	4.174614E-15	3.775471E-17
6.378787E+03	4.297120E-15	3.945003E-17
6.388722E+03	4.421655E-15	4.123998E-17
6.398658E+03	4.551900E-15	4.316074E-17
6.408594E+03	4.693171E-15	4.526642E-17
6.418530E+03	4.852954E-15	4.763606E-17
6.428466E+03	5.034433E-15	5.031119E-17
6.438401E+03	5.230265E-15	5.322893E-17
6.448337E+03	5.431895E-15	5.630878E-17
6.458273E+03	5.631989E-15	5.947656E-17
6.468209E+03	5.823738E-15	6.265777E-17
6.478145E+03	6.000375E-15	6.577255E-17
6.488081E+03	6.156079E-15	6.874558E-17
6.498016E+03	6.285721E-15	7.150411E-17
6.507952E+03	6.384809E-15	7.397796E-17
6.517888E+03	6.449918E-15	7.610530E-17
6.527824E+03	6.478745E-15	7.783451E-17
6.537760E+03	6.469996E-15	7.912409E-17
6.547695E+03	6.423723E-15	7.994801E-17
6.557631E+03	6.341122E-15	8.029481E-17
6.567567E+03	6.224624E-15	8.017007E-17
6.577503E+03	6.077824E-15	7.959693E-17
6.587439E+03	5.904923E-15	7.861001E-17
6.597374E+03	5.711106E-15	7.726122E-17
6.607310E+03	5.501747E-15	7.560993E-17
6.617246E+03	5.282584E-15	7.372554E-17
6.627182E+03	5.058918E-15	7.167658E-17
6.637118E+03	4.835855E-15	6.953350E-17
6.647053E+03	4.617839E-15	6.736173E-17
6.656989E+03	4.408478E-15	6.521814E-17
6.666925E+03	4.210505E-15	6.314961E-17
6.676861E+03	4.025718E-15	6.119108E-17
6.686797E+03	3.855354E-15	5.937031E-17
6.696732E+03	3.699518E-15	5.769826E-17
6.706668E+03	3.557992E-15	5.618083E-17
6.716604E+03	3.430066E-15	5.481571E-17
6.726540E+03	3.314894E-15	5.359775E-17
6.736476E+03	3.211373E-15	5.251675E-17
6.746411E+03	3.118433E-15	5.156209E-17
6.756347E+03	3.035038E-15	5.072283E-17
6.766283E+03	2.960130E-15	4.998670E-17
6.776219E+03	2.892872E-15	4.934441E-17
6.786155E+03	2.832592E-15	4.878873E-17
6.796090E+03	2.778700E-15	4.831334E-17
6.806026E+03	2.730732E-15	4.791358E-17
6.815962E+03	2.688251E-15	4.758489E-17
6.825898E+03	2.650740E-15	4.732086E-17
6.835834E+03	2.617799E-15	4.711685E-17
6.845769E+03	2.589001E-15	4.696731E-17
6.855705E+03	2.563883E-15	4.686574E-17
6.865641E+03	2.542053E-15	4.680659E-17
6.875577E+03	2.522952E-15	4.678095E-17
6.885513E+03	2.506024E-15	4.677961E-17
6.895449E+03	2.490711E-15	4.679295E-17
6.905384E+03	2.476458E-15	4.681113E-17
6.915320E+03	2.462727E-15	4.682436E-17
6.925256E+03	2.449036E-15	4.682368E-17
6.935192E+03	2.434997E-15	4.680168E-17
6.945128E+03	2.420266E-15	4.675173E-17
6.955063E+03	2.404710E-15	4.667112E-17
6.964999E+03	2.388228E-15	4.655778E-17
6.974935E+03	2.370955E-15	4.641428E-17
6.984871E+03	2.352991E-15	4.624253E-17
6.994807E+03	2.334609E-15	4.604794E-17
7.004742E+03	2.316212E-15	4.583858E-17
7.014678E+03	2.298071E-15	4.562005E-17
7.024614E+03	2.280676E-15	4.540235E-17
7.034550E+03	2.264364E-15	4.519249E-17
7.044486E+03	2.249501E-15	4.499819E-17
7.054421E+03	2.236402E-15	4.482611E-17
7.064357E+03	2.225377E-15	4.468282E-17
7.074293E+03	2.216624E-15	4.457265E-17
7.084229E+03	2.210404E-15	4.450115E-17
7.094165E+03	2.206958E-15	4.447336E-17
7.104100E+03	2.206337E-15	4.449052E-17
7.114036E+03	2.208678E-15	4.455547E-17
7.123972E+03	2.213872E-15	4.466599E-17
7.133908E+03	2.221938E-15	4.482236E-17
7.143844E+03	2.232769E-15	4.502221E-17
7.153779E+03	2.246274E-15	4.526347E-17
7.163715E+03	2.262335E-15	4.554336E-17
7.173651E+03	2.280863E-15	4.585967E-17
7.183587E+03	2.301812E-15	4.621097E-17
7.193523E+03	2.325092E-15	4.659483E-17
7.203458E+03	2.350631E-15	4.700919E-17
7.213394E+03	2.378451E-15	4.745376E-17
7.223330E+03	2.408502E-15	4.792674E-17
7.233266E+03	2.440907E-15	4.842973E-17
7.243202E+03	2.475676E-15	4.896195E-17
7.253137E+03	2.512865E-15	4.952348E-17
7.263073E+03	2.552431E-15	5.011237E-17
7.273009E+03	2.594364E-15	5.072725E-17
7.282945E+03	2.638536E-15	5.136433E-17
7.292881E+03	2.684777E-15	5.201908E-17
7.302817E+03	2.732817E-15	5.268496E-17
7.312752E+03	2.782301E-15	5.335388E-17
7.322688E+03	2.832820E-15	5.401679E-17
7.332624E+03	2.883732E-15	5.466045E-17
7.342560E+03	2.934450E-15	5.527284E-17
7.352496E+03	2.984012E-15	5.583530E-17
7.362431E+03	3.031565E-15	5.633167E-17
7.372367E+03	3.076068E-15	5.674282E-17
7.382303E+03	3.116652E-15	5.705344E-17
7.392239E+03	3.152425E-15	5.724847E-17
7.402175E+03	3.182777E-15	5.731857E-17
7.412110E+03	3.207397E-15	5.726027E-17
7.422046E+03	3.226242E-15	5.707526E-17
7.431982E+03	3.239562E-15	5.677061E-17
7.441918E+03	3.248023E-15	5.636062E-17
7.451854E+03	3.252630E-15	5.586506E-17
7.461789E+03	3.254231E-15	5.530056E-17
7.471725E+03	3.253823E-15	5.468573E-17
7.481661E+03	3.252257E-15	5.403606E-17
7.491597E+03	3.250263E-15	5.336451E-17
7.501533E+03	3.248490E-15	5.268219E-17
7.511468E+03	3.247271E-15	5.199464E-17
7.521404E+03	3.247021E-15	5.130842E-17
7.531340E+03	3.248088E-15	5.062875E-17
7.541276E+03	3.250724E-15	4.995908E-17
7.551212E+03	3.255155E-15	4.930218E-17
7.561147E+03	3.261627E-15	4.866100E-17
7.571083E+03	3.270263E-15	4.803641E-17
7.581019E+03	3.281256E-15	4.743023E-17
7.590955E+03	3.294655E-15	4.684205E-17
7.600891E+03	3.310602E-15	4.627273E-17
7.610826E+03	3.328916E-15	4.571862E-17
7.620762E+03	3.349182E-15	4.517311E-17
7.630698E+03	3.370834E-15	4.462810E-17
7.640634E+03	3.393025E-15	4.407251E-17
7.650570E+03	3.414733E-15	4.349400E-17
7.660505E+03	3.434860E-15	4.288047E-17
7.670441E+03	3.452228E-15	4.222016E-17
7.680377E+03	3.465896E-15	4.150550E-17
7.690313E+03	3.474903E-15	4.072989E-17
7.700249E+03	3.478425E-15	3.988949E-17
7.710184E+03	3.475759E-15	3.898287E-17
