#wls	flux	fluxerr
1.589729E+03	1.876658E-16	1.942793E-17
1.629472E+03	1.740883E-16	1.793449E-17
1.669215E+03	1.610841E-16	1.651167E-17
1.708958E+03	1.487711E-16	1.517104E-17
1.748702E+03	1.371884E-16	1.391586E-17
1.788445E+03	1.262850E-16	1.274020E-17
1.828188E+03	1.159506E-16	1.163224E-17
1.867931E+03	1.060891E-16	1.058181E-17
1.907675E+03	9.660174E-17	9.578621E-18
1.947418E+03	8.747478E-17	8.621021E-18
1.987161E+03	7.881722E-17	7.719365E-18
2.026904E+03	7.098332E-17	6.907583E-18
2.066647E+03	6.451777E-17	6.237078E-18
2.106391E+03	6.011876E-17	5.772505E-18
2.146134E+03	5.829294E-17	5.558290E-18
2.185877E+03	5.922401E-17	5.606734E-18
2.225620E+03	6.267968E-17	5.890325E-18
2.265363E+03	6.819002E-17	6.359812E-18
2.305107E+03	7.523034E-17	6.962022E-18
2.344850E+03	8.336342E-17	7.653173E-18
2.384593E+03	9.229254E-17	8.403459E-18
2.424336E+03	1.018155E-16	9.192411E-18
2.464080E+03	1.118713E-16	1.001276E-17
2.503823E+03	1.223787E-16	1.085557E-17
2.543566E+03	1.332969E-16	1.171566E-17
2.583309E+03	1.446005E-16	1.258930E-17
2.623052E+03	1.561969E-16	1.346699E-17
2.662796E+03	1.680770E-16	1.434665E-17
2.702539E+03	1.802001E-16	1.522350E-17
2.742282E+03	1.925052E-16	1.609123E-17
2.782025E+03	2.049577E-16	1.694586E-17
2.821769E+03	2.175299E-16	1.778410E-17
2.861512E+03	2.301497E-16	1.859918E-17
2.901255E+03	2.428084E-16	1.938963E-17
2.940998E+03	2.555134E-16	2.015531E-17
2.980741E+03	2.683489E-16	2.090203E-17
2.990677E+03	2.715879E-16	2.108638E-17
3.000613E+03	2.748255E-16	2.126873E-17
3.010549E+03	2.780928E-16	2.145145E-17
3.020485E+03	2.813636E-16	2.163252E-17
3.030420E+03	2.847251E-16	2.181858E-17
3.040356E+03	2.880600E-16	2.200062E-17
3.050292E+03	2.915117E-16	2.218954E-17
3.060228E+03	2.950136E-16	2.238021E-17
3.070164E+03	2.985923E-16	2.257458E-17
3.080099E+03	3.022438E-16	2.277228E-17
3.090035E+03	3.059648E-16	2.297300E-17
3.099971E+03	3.097522E-16	2.317644E-17
3.109907E+03	3.136034E-16	2.338235E-17
3.119843E+03	3.174838E-16	2.358809E-17
3.129779E+03	3.214883E-16	2.380065E-17
3.139714E+03	3.255184E-16	2.401266E-17
3.149650E+03	3.296378E-16	2.422877E-17
3.159586E+03	3.338130E-16	2.444644E-17
3.169522E+03	3.380431E-16	2.466555E-17
3.179458E+03	3.423941E-16	2.489085E-17
3.189393E+03	3.467996E-16	2.511742E-17
3.199329E+03	3.512932E-16	2.534761E-17
3.209265E+03	3.558414E-16	2.557895E-17
3.219201E+03	3.605122E-16	2.581625E-17
3.229137E+03	3.652732E-16	2.605707E-17
3.239072E+03	3.701590E-16	2.630380E-17
3.249008E+03	3.751373E-16	2.655404E-17
3.258944E+03	3.802081E-16	2.680768E-17
3.268880E+03	3.854433E-16	2.706970E-17
3.278816E+03	3.907745E-16	2.733516E-17
3.288751E+03	3.962735E-16	2.760897E-17
3.298687E+03	4.018713E-16	2.788619E-17
3.308623E+03	4.076767E-16	2.817423E-17
3.318559E+03	4.136202E-16	2.846813E-17
3.328495E+03	4.197395E-16	2.877034E-17
3.338430E+03	4.260371E-16	2.908086E-17
3.348366E+03	4.325504E-16	2.940209E-17
3.358302E+03	4.392826E-16	2.973402E-17
3.368238E+03	4.461990E-16	3.007411E-17
3.378174E+03	4.533744E-16	3.042723E-17
3.388109E+03	4.607750E-16	3.079086E-17
3.398045E+03	4.684019E-16	3.116487E-17
3.407981E+03	4.763315E-16	3.155411E-17
3.417917E+03	4.845659E-16	3.195844E-17
3.427853E+03	4.930694E-16	3.237522E-17
3.437788E+03	5.018436E-16	3.280432E-17
3.447724E+03	5.110034E-16	3.325295E-17
3.457660E+03	5.204370E-16	3.371352E-17
3.467596E+03	5.302600E-16	3.419321E-17
3.477532E+03	5.404360E-16	3.468933E-17
3.487467E+03	5.509659E-16	3.520161E-17
3.497403E+03	5.618903E-16	3.573229E-17
3.507339E+03	5.732101E-16	3.628105E-17
3.517275E+03	5.849269E-16	3.684763E-17
3.527211E+03	5.970810E-16	3.743417E-17
3.537146E+03	6.096350E-16	3.803794E-17
3.547082E+03	6.226296E-16	3.866107E-17
3.557018E+03	6.360674E-16	3.930331E-17
3.566954E+03	6.499916E-16	3.996689E-17
3.576890E+03	6.643275E-16	4.064678E-17
3.586826E+03	6.791199E-16	4.134532E-17
3.596761E+03	6.944170E-16	4.206498E-17
3.606697E+03	7.101891E-16	4.280349E-17
3.616633E+03	7.264491E-16	4.356118E-17
3.626569E+03	7.432541E-16	4.434099E-17
3.636505E+03	7.605833E-16	4.514116E-17
3.646440E+03	7.784618E-16	4.596266E-17
3.656376E+03	7.969189E-16	4.680670E-17
3.666312E+03	8.160307E-16	4.767717E-17
3.676248E+03	8.357971E-16	4.857344E-17
3.686184E+03	8.562642E-16	4.949755E-17
3.696119E+03	8.774842E-16	5.045184E-17
3.706055E+03	8.995560E-16	5.144125E-17
3.715991E+03	9.224161E-16	5.246135E-17
3.725927E+03	9.462543E-16	5.352213E-17
3.735863E+03	9.710521E-16	5.462163E-17
3.745798E+03	9.969160E-16	5.576490E-17
3.755734E+03	1.023863E-15	5.695187E-17
3.765670E+03	1.051989E-15	5.818678E-17
3.775606E+03	1.081245E-15	5.946591E-17
3.785542E+03	1.111741E-15	6.079418E-17
3.795477E+03	1.143347E-15	6.216329E-17
3.805413E+03	1.176169E-15	6.357799E-17
3.815349E+03	1.210061E-15	6.502923E-17
3.825285E+03	1.244883E-15	6.650858E-17
3.835221E+03	1.280592E-15	6.801285E-17
3.845156E+03	1.316919E-15	6.952706E-17
3.855092E+03	1.353644E-15	7.103910E-17
3.865028E+03	1.390550E-15	7.253725E-17
3.874964E+03	1.427289E-15	7.400328E-17
3.884900E+03	1.463426E-15	7.541508E-17
3.894835E+03	1.498741E-15	7.676194E-17
3.904771E+03	1.532712E-15	7.801808E-17
3.914707E+03	1.565003E-15	7.916783E-17
3.924643E+03	1.595193E-15	8.019172E-17
3.934579E+03	1.622985E-15	8.107687E-17
3.944514E+03	1.647975E-15	8.180568E-17
3.954450E+03	1.669962E-15	8.237080E-17
3.964386E+03	1.688710E-15	8.276367E-17
3.974322E+03	1.704109E-15	8.298205E-17
3.984258E+03	1.716082E-15	8.302545E-17
3.994194E+03	1.724728E-15	8.290189E-17
4.004129E+03	1.730085E-15	8.261643E-17
4.014065E+03	1.732404E-15	8.218411E-17
4.024001E+03	1.731908E-15	8.161835E-17
4.033937E+03	1.728916E-15	8.093687E-17
4.043873E+03	1.723788E-15	8.015876E-17
4.053808E+03	1.716864E-15	7.930181E-17
4.063744E+03	1.708581E-15	7.838777E-17
4.073680E+03	1.699210E-15	7.743033E-17
4.083616E+03	1.689251E-15	7.645321E-17
4.093552E+03	1.678943E-15	7.546772E-17
4.103487E+03	1.668688E-15	7.449217E-17
4.113423E+03	1.658698E-15	7.353599E-17
4.123359E+03	1.649255E-15	7.261141E-17
4.133295E+03	1.640523E-15	7.172515E-17
4.143231E+03	1.632624E-15	7.088188E-17
4.153166E+03	1.625736E-15	7.008857E-17
4.163102E+03	1.619887E-15	6.934557E-17
4.173038E+03	1.615066E-15	6.865151E-17
4.182974E+03	1.611289E-15	6.800619E-17
4.192910E+03	1.608468E-15	6.740510E-17
4.202845E+03	1.606520E-15	6.684395E-17
4.212781E+03	1.605367E-15	6.631882E-17
4.222717E+03	1.604815E-15	6.582117E-17
4.232653E+03	1.604785E-15	6.534727E-17
4.242589E+03	1.605126E-15	6.489069E-17
4.252524E+03	1.605634E-15	6.444293E-17
4.262460E+03	1.606231E-15	6.400094E-17
4.272396E+03	1.606804E-15	6.356016E-17
4.282332E+03	1.607236E-15	6.311614E-17
4.292268E+03	1.607476E-15	6.266718E-17
4.302203E+03	1.607550E-15	6.221441E-17
4.312139E+03	1.607498E-15	6.175973E-17
4.322075E+03	1.607394E-15	6.130608E-17
4.332011E+03	1.607447E-15	6.086152E-17
4.341947E+03	1.607815E-15	6.043197E-17
4.351882E+03	1.608792E-15	6.002823E-17
4.361818E+03	1.610670E-15	5.966073E-17
4.371754E+03	1.613863E-15	5.934402E-17
4.381690E+03	1.618713E-15	5.908971E-17
4.391626E+03	1.625672E-15	5.891292E-17
4.401562E+03	1.635353E-15	5.883420E-17
4.411497E+03	1.648414E-15	5.887502E-17
4.421433E+03	1.665480E-15	5.905518E-17
4.431369E+03	1.687106E-15	5.939126E-17
4.441305E+03	1.713825E-15	5.989867E-17
4.451241E+03	1.746026E-15	6.058740E-17
4.461176E+03	1.784040E-15	6.146502E-17
4.471112E+03	1.828037E-15	6.253321E-17
4.481048E+03	1.877976E-15	6.378637E-17
4.490984E+03	1.933744E-15	6.521662E-17
4.500920E+03	1.994948E-15	6.680688E-17
4.510855E+03	2.061009E-15	6.853422E-17
4.520791E+03	2.131119E-15	7.036885E-17
4.530727E+03	2.204245E-15	7.227436E-17
4.540663E+03	2.279113E-15	7.420744E-17
4.550599E+03	2.354297E-15	7.612106E-17
4.560534E+03	2.428236E-15	7.796513E-17
4.570470E+03	2.499272E-15	7.968786E-17
4.580406E+03	2.565822E-15	8.124121E-17
4.590342E+03	2.626335E-15	8.257956E-17
4.600278E+03	2.679480E-15	8.366542E-17
4.610213E+03	2.724159E-15	8.446956E-17
4.620149E+03	2.759671E-15	8.497596E-17
4.630085E+03	2.785583E-15	8.517718E-17
4.640021E+03	2.801991E-15	8.508220E-17
4.649957E+03	2.809218E-15	8.470674E-17
4.659892E+03	2.808033E-15	8.407941E-17
4.669828E+03	2.799408E-15	8.323425E-17
4.679764E+03	2.784557E-15	8.221156E-17
4.689700E+03	2.764823E-15	8.105436E-17
4.699636E+03	2.741634E-15	7.980704E-17
4.709571E+03	2.716299E-15	7.850932E-17
4.719507E+03	2.690154E-15	7.720064E-17
4.729443E+03	2.664347E-15	7.591403E-17
4.739379E+03	2.639905E-15	7.467811E-17
4.749315E+03	2.617684E-15	7.351585E-17
4.759250E+03	2.598349E-15	7.244428E-17
4.769186E+03	2.582348E-15	7.147386E-17
4.779122E+03	2.570004E-15	7.061131E-17
4.789058E+03	2.561397E-15	6.985643E-17
4.798994E+03	2.556500E-15	6.920609E-17
4.808930E+03	2.555090E-15	6.865192E-17
4.818865E+03	2.556795E-15	6.818179E-17
4.828801E+03	2.561132E-15	6.778096E-17
4.838737E+03	2.567409E-15	6.742951E-17
4.848673E+03	2.574941E-15	6.710841E-17
4.858609E+03	2.582903E-15	6.679544E-17
4.868544E+03	2.590380E-15	6.646678E-17
4.878480E+03	2.596489E-15	6.610021E-17
4.888416E+03	2.600332E-15	6.567382E-17
4.898352E+03	2.601092E-15	6.516848E-17
4.908288E+03	2.597994E-15	6.456675E-17
4.918223E+03	2.590434E-15	6.385601E-17
4.928159E+03	2.578012E-15	6.302926E-17
4.938095E+03	2.560512E-15	6.208412E-17
4.948031E+03	2.537914E-15	6.102324E-17
4.957967E+03	2.510510E-15	5.985666E-17
4.967902E+03	2.478726E-15	5.859745E-17
4.977838E+03	2.443210E-15	5.726349E-17
4.987774E+03	2.404796E-15	5.587644E-17
4.997710E+03	2.364407E-15	5.445939E-17
5.007646E+03	2.323009E-15	5.303570E-17
5.017581E+03	2.281652E-15	5.162977E-17
5.027517E+03	2.241346E-15	5.026433E-17
5.037453E+03	2.203079E-15	4.896079E-17
5.047389E+03	2.167723E-15	4.773717E-17
5.057325E+03	2.136082E-15	4.660939E-17
5.067260E+03	2.108889E-15	4.559113E-17
5.077196E+03	2.086727E-15	4.469231E-17
5.087132E+03	2.070142E-15	4.392160E-17
5.097068E+03	2.059495E-15	4.328335E-17
5.107004E+03	2.055116E-15	4.278101E-17
5.116939E+03	2.057217E-15	4.241542E-17
5.126875E+03	2.065950E-15	4.218597E-17
5.136811E+03	2.081331E-15	4.208928E-17
5.146747E+03	2.103311E-15	4.212069E-17
5.156683E+03	2.131749E-15	4.227386E-17
5.166618E+03	2.166464E-15	4.254176E-17
5.176554E+03	2.207065E-15	4.291357E-17
5.186490E+03	2.253186E-15	4.337930E-17
5.196426E+03	2.304328E-15	4.392681E-17
5.206362E+03	2.359921E-15	4.454305E-17
5.216298E+03	2.419332E-15	4.521437E-17
5.226233E+03	2.481870E-15	4.592662E-17
5.236169E+03	2.546894E-15	4.666711E-17
5.246105E+03	2.613770E-15	4.742391E-17
5.256041E+03	2.681920E-15	4.818662E-17
5.265977E+03	2.750970E-15	4.894896E-17
5.275912E+03	2.820634E-15	4.970654E-17
5.285848E+03	2.890829E-15	5.045884E-17
5.295784E+03	2.961796E-15	5.121103E-17
5.305720E+03	3.033911E-15	5.197057E-17
5.315656E+03	3.107896E-15	5.275060E-17
5.325591E+03	3.184720E-15	5.356811E-17
5.335527E+03	3.265475E-15	5.444169E-17
5.345463E+03	3.351525E-15	5.539394E-17
5.355399E+03	3.444360E-15	5.644899E-17
5.365335E+03	3.545425E-15	5.762962E-17
5.375270E+03	3.656243E-15	5.895946E-17
5.385206E+03	3.778186E-15	6.045932E-17
5.395142E+03	3.912445E-15	6.214689E-17
5.405078E+03	4.059763E-15	6.403278E-17
5.415014E+03	4.220559E-15	6.612273E-17
5.424949E+03	4.393890E-15	6.840170E-17
5.434885E+03	4.577656E-15	7.083776E-17
5.444821E+03	4.768840E-15	7.338613E-17
5.454757E+03	4.963680E-15	7.599219E-17
5.464693E+03	5.157791E-15	7.859298E-17
5.474628E+03	5.346246E-15	8.111715E-17
5.484564E+03	5.523864E-15	8.348984E-17
5.494500E+03	5.685430E-15	8.563631E-17
5.504436E+03	5.826176E-15	8.748875E-17
5.514372E+03	5.941847E-15	8.898703E-17
5.524307E+03	6.029316E-15	9.008754E-17
5.534243E+03	6.086187E-15	9.075694E-17
5.544179E+03	6.111569E-15	9.098360E-17
5.554115E+03	6.105569E-15	9.076981E-17
5.564051E+03	6.069775E-15	9.013903E-17
5.573986E+03	6.006465E-15	8.912408E-17
5.583922E+03	5.919069E-15	8.777425E-17
5.593858E+03	5.811525E-15	8.614580E-17
5.603794E+03	5.688042E-15	8.429862E-17
5.613730E+03	5.553200E-15	8.229799E-17
5.623665E+03	5.411393E-15	8.020639E-17
5.633601E+03	5.266712E-15	7.808191E-17
5.643537E+03	5.122912E-15	7.597792E-17
5.653473E+03	4.983310E-15	7.394156E-17
5.663409E+03	4.850625E-15	7.201139E-17
5.673345E+03	4.726962E-15	7.021721E-17
5.683280E+03	4.613917E-15	6.858151E-17
5.693216E+03	4.512592E-15	6.711970E-17
5.703152E+03	4.423546E-15	6.583936E-17
5.713088E+03	4.346838E-15	6.474077E-17
5.723024E+03	4.282212E-15	6.381963E-17
5.732959E+03	4.229007E-15	6.306567E-17
5.742895E+03	4.186208E-15	6.246340E-17
5.752831E+03	4.152571E-15	6.199391E-17
5.762767E+03	4.126670E-15	6.163556E-17
5.772703E+03	4.106822E-15	6.136285E-17
5.782638E+03	4.091296E-15	6.114955E-17
5.792574E+03	4.078249E-15	6.096775E-17
5.802510E+03	4.065787E-15	6.078878E-17
5.812446E+03	4.052105E-15	6.058532E-17
5.822382E+03	4.035516E-15	6.033189E-17
5.832317E+03	4.014506E-15	6.000568E-17
5.842253E+03	3.987838E-15	5.958812E-17
5.852189E+03	3.954476E-15	5.906377E-17
5.862125E+03	3.913703E-15	5.842211E-17
5.872061E+03	3.865249E-15	5.765944E-17
5.881996E+03	3.809027E-15	5.677491E-17
5.891932E+03	3.745381E-15	5.577427E-17
5.901868E+03	3.674900E-15	5.466699E-17
5.911804E+03	3.598342E-15	5.346513E-17
5.921740E+03	3.516788E-15	5.218560E-17
5.931675E+03	3.431366E-15	5.084602E-17
5.941611E+03	3.343201E-15	4.946391E-17
5.951547E+03	3.253487E-15	4.805778E-17
5.961483E+03	3.163433E-15	4.664630E-17
5.971419E+03	3.074007E-15	4.524440E-17
5.981354E+03	2.986184E-15	4.386710E-17
5.991290E+03	2.900774E-15	4.252683E-17
6.001226E+03	2.818421E-15	4.123346E-17
6.011162E+03	2.739657E-15	3.999516E-17
6.021098E+03	2.664888E-15	3.881814E-17
6.031033E+03	2.594353E-15	3.770609E-17
6.040969E+03	2.528275E-15	3.666243E-17
6.050905E+03	2.466727E-15	3.568833E-17
6.060841E+03	2.409797E-15	3.478516E-17
6.070777E+03	2.357441E-15	3.395234E-17
6.080713E+03	2.309666E-15	3.319002E-17
6.090648E+03	2.266463E-15	3.249812E-17
6.100584E+03	2.227758E-15	3.187563E-17
6.110520E+03	2.193521E-15	3.132220E-17
6.120456E+03	2.163750E-15	3.083789E-17
6.130392E+03	2.138383E-15	3.042192E-17
6.140327E+03	2.117400E-15	3.007418E-17
6.150263E+03	2.100796E-15	2.979482E-17
6.160199E+03	2.088561E-15	2.958395E-17
6.170135E+03	2.080669E-15	2.944157E-17
6.180071E+03	2.077165E-15	2.936872E-17
6.190006E+03	2.077975E-15	2.936489E-17
6.199942E+03	2.083077E-15	2.943039E-17
6.209878E+03	2.092439E-15	2.956551E-17
6.219814E+03	2.105987E-15	2.977006E-17
6.229750E+03	2.123664E-15	3.004427E-17
6.239685E+03	2.145447E-15	3.038892E-17
6.249621E+03	2.171278E-15	3.080453E-17
6.259557E+03	2.201118E-15	3.129196E-17
6.269493E+03	2.234988E-15	3.185316E-17
6.279429E+03	2.272891E-15	3.248993E-17
6.289364E+03	2.314873E-15	3.320495E-17
6.299300E+03	2.360964E-15	3.400077E-17
6.309236E+03	2.411290E-15	3.488154E-17
6.319172E+03	2.465965E-15	3.585066E-17
6.329108E+03	2.525168E-15	3.691223E-17
6.339043E+03	2.589062E-15	3.807036E-17
6.348979E+03	2.657937E-15	3.933109E-17
6.358915E+03	2.732039E-15	4.070010E-17
6.368851E+03	2.811732E-15	4.218495E-17
6.378787E+03	2.897300E-15	4.379225E-17
6.388722E+03	2.989053E-15	4.552925E-17
6.398658E+03	3.087189E-15	4.740167E-17
6.408594E+03	3.191815E-15	4.941402E-17
6.418530E+03	3.302682E-15	5.156530E-17
6.428466E+03	3.419188E-15	5.384892E-17
6.438401E+03	3.540002E-15	5.624639E-17
6.448337E+03	3.663353E-15	5.873134E-17
6.458273E+03	3.787080E-15	6.127004E-17
6.468209E+03	3.908782E-15	6.382350E-17
6.478145E+03	4.025675E-15	6.634476E-17
6.488081E+03	4.134994E-15	6.878538E-17
6.498016E+03	4.233975E-15	7.109498E-17
6.507952E+03	4.320023E-15	7.322412E-17
6.517888E+03	4.390847E-15	7.512675E-17
6.527824E+03	4.444628E-15	7.676329E-17
6.537760E+03	4.479905E-15	7.809908E-17
6.547695E+03	4.495933E-15	7.911102E-17
6.557631E+03	4.492563E-15	7.978602E-17
6.567567E+03	4.470131E-15	8.011951E-17
6.577503E+03	4.429561E-15	8.011787E-17
6.587439E+03	4.372302E-15	7.979768E-17
6.597374E+03	4.300135E-15	7.918264E-17
6.607310E+03	4.215067E-15	7.830200E-17
6.617246E+03	4.119428E-15	7.719245E-17
6.627182E+03	4.015421E-15	7.588996E-17
6.637118E+03	3.905414E-15	7.443521E-17
6.647053E+03	3.791528E-15	7.286582E-17
6.656989E+03	3.675807E-15	7.121938E-17
6.666925E+03	3.559996E-15	6.952902E-17
6.676861E+03	3.445727E-15	6.782687E-17
6.686797E+03	3.334214E-15	6.613783E-17
6.696732E+03	3.226585E-15	6.448591E-17
6.706668E+03	3.123611E-15	6.288859E-17
6.716604E+03	3.025922E-15	6.136101E-17
6.726540E+03	2.933880E-15	5.991314E-17
6.736476E+03	2.847752E-15	5.855326E-17
6.746411E+03	2.767594E-15	5.728535E-17
6.756347E+03	2.693444E-15	5.611301E-17
6.766283E+03	2.625150E-15	5.503581E-17
6.776219E+03	2.562519E-15	5.405234E-17
6.786155E+03	2.505303E-15	5.315984E-17
6.796090E+03	2.453247E-15	5.235520E-17
6.806026E+03	2.406007E-15	5.163321E-17
6.815962E+03	2.363252E-15	5.098870E-17
6.825898E+03	2.324698E-15	5.041736E-17
6.835834E+03	2.289918E-15	4.991144E-17
6.845769E+03	2.258657E-15	4.946683E-17
6.855705E+03	2.230526E-15	4.907622E-17
6.865641E+03	2.205231E-15	4.873424E-17
6.875577E+03	2.182465E-15	4.843503E-17
6.885513E+03	2.161938E-15	4.817296E-17
6.895449E+03	2.143381E-15	4.794275E-17
6.905384E+03	2.126521E-15	4.773882E-17
6.915320E+03	2.111190E-15	4.755792E-17
6.925256E+03	2.097143E-15	4.739492E-17
6.935192E+03	2.084242E-15	4.724706E-17
6.945128E+03	2.072354E-15	4.711159E-17
6.955063E+03	2.061376E-15	4.698644E-17
6.964999E+03	2.051212E-15	4.686961E-17
6.974935E+03	2.041847E-15	4.676094E-17
6.984871E+03	2.033268E-15	4.666029E-17
6.994807E+03	2.025462E-15	4.656753E-17
7.004742E+03	2.018492E-15	4.648420E-17
7.014678E+03	2.012412E-15	4.641174E-17
7.024614E+03	2.007244E-15	4.635067E-17
7.034550E+03	2.003120E-15	4.630421E-17
7.044486E+03	2.000105E-15	4.627390E-17
7.054421E+03	1.998292E-15	4.626197E-17
7.064357E+03	1.997775E-15	4.627061E-17
7.074293E+03	1.998618E-15	4.630131E-17
7.084229E+03	2.000930E-15	4.635658E-17
7.094165E+03	2.004788E-15	4.643811E-17
7.104100E+03	2.010230E-15	4.654670E-17
7.114036E+03	2.017283E-15	4.668282E-17
7.123972E+03	2.026016E-15	4.684786E-17
7.133908E+03	2.036455E-15	4.704221E-17
7.143844E+03	2.048590E-15	4.726536E-17
7.153779E+03	2.062426E-15	4.751705E-17
7.163715E+03	2.077953E-15	4.779669E-17
7.173651E+03	2.095124E-15	4.810281E-17
7.183587E+03	2.113935E-15	4.843485E-17
7.193523E+03	2.134291E-15	4.879011E-17
7.203458E+03	2.156138E-15	4.916688E-17
7.213394E+03	2.179416E-15	4.956319E-17
7.223330E+03	2.204050E-15	4.997682E-17
7.233266E+03	2.229902E-15	5.040403E-17
7.243202E+03	2.256935E-15	5.084335E-17
7.253137E+03	2.284954E-15	5.128984E-17
7.263073E+03	2.313869E-15	5.174088E-17
7.273009E+03	2.343517E-15	5.219224E-17
7.282945E+03	2.373722E-15	5.263947E-17
7.292881E+03	2.404322E-15	5.307849E-17
7.302817E+03	2.435113E-15	5.350435E-17
7.312752E+03	2.465914E-15	5.391268E-17
7.322688E+03	2.496499E-15	5.429826E-17
7.332624E+03	2.526640E-15	5.465591E-17
7.342560E+03	2.556107E-15	5.498056E-17
7.352496E+03	2.584709E-15	5.526811E-17
7.362431E+03	2.612265E-15	5.551483E-17
7.372367E+03	2.638545E-15	5.571604E-17
7.382303E+03	2.663408E-15	5.586919E-17
7.392239E+03	2.686747E-15	5.597246E-17
7.402175E+03	2.708483E-15	5.602483E-17
7.412110E+03	2.728616E-15	5.602698E-17
7.422046E+03	2.747151E-15	5.597969E-17
7.431982E+03	2.764129E-15	5.588465E-17
7.441918E+03	2.779707E-15	5.574579E-17
7.451854E+03	2.794003E-15	5.556630E-17
7.461789E+03	2.807167E-15	5.534994E-17
7.471725E+03	2.819445E-15	5.510235E-17
7.481661E+03	2.831030E-15	5.482793E-17
7.491597E+03	2.842120E-15	5.453120E-17
7.501533E+03	2.852955E-15	5.421732E-17
7.511468E+03	2.863731E-15	5.389046E-17
7.521404E+03	2.874705E-15	5.355588E-17
7.531340E+03	2.885956E-15	5.321541E-17
7.541276E+03	2.897729E-15	5.287387E-17
7.551212E+03	2.910082E-15	5.253251E-17
7.561147E+03	2.923064E-15	5.219254E-17
7.571083E+03	2.936720E-15	5.185502E-17
7.581019E+03	2.950966E-15	5.151880E-17
7.590955E+03	2.965825E-15	5.118474E-17
7.600891E+03	2.981024E-15	5.084865E-17
7.610826E+03	2.996436E-15	5.050918E-17
7.620762E+03	3.011845E-15	5.016360E-17
7.630698E+03	3.026817E-15	4.980593E-17
7.640634E+03	3.041129E-15	4.943399E-17
7.650570E+03	3.054394E-15	4.904334E-17
7.660505E+03	3.066121E-15	4.862821E-17
7.670441E+03	3.075932E-15	4.818513E-17
7.680377E+03	3.083453E-15	4.771106E-17
7.690313E+03	3.088240E-15	4.720228E-17
7.700249E+03	3.089927E-15	4.665661E-17
7.710184E+03	3.088191E-15	4.607284E-17
