#wls	flux	fluxerr
1.600000E+03	3.820761E-15	1.762528E-16
1.640000E+03	3.156394E-15	1.440096E-16
1.680000E+03	2.596346E-15	1.171370E-16
1.720000E+03	2.128540E-15	9.494324E-17
1.760000E+03	1.741490E-15	7.678504E-17
1.800000E+03	1.424374E-15	6.206955E-17
1.840000E+03	1.166675E-15	5.023802E-17
1.880000E+03	9.594709E-16	4.082034E-17
1.920000E+03	7.945457E-16	3.339368E-17
1.960000E+03	6.648426E-16	2.759998E-17
2.000000E+03	5.644135E-16	2.314099E-17
2.040000E+03	4.884427E-16	1.977650E-17
2.080000E+03	4.330765E-16	1.731473E-17
2.120000E+03	3.952265E-16	1.560215E-17
2.160000E+03	3.723299E-16	1.451223E-17
2.200000E+03	3.627001E-16	1.395762E-17
2.240000E+03	3.657531E-16	1.389660E-17
2.280000E+03	3.818758E-16	1.432532E-17
2.320000E+03	4.123454E-16	1.527230E-17
2.360000E+03	4.593088E-16	1.679582E-17
2.400000E+03	5.256708E-16	1.897791E-17
2.440000E+03	6.148773E-16	2.191484E-17
2.480000E+03	7.306060E-16	2.570499E-17
2.520000E+03	8.759823E-16	3.042113E-17
2.560000E+03	1.052941E-15	3.608970E-17
2.600000E+03	1.261436E-15	4.266667E-17
2.640000E+03	1.499197E-15	5.003391E-17
2.680000E+03	1.760107E-15	5.795049E-17
2.720000E+03	2.034476E-15	6.607021E-17
2.760000E+03	2.311319E-15	7.402261E-17
2.800000E+03	2.579957E-15	8.146623E-17
2.840000E+03	2.831519E-15	8.813509E-17
2.880000E+03	3.060257E-15	9.387488E-17
2.920000E+03	3.263963E-15	9.864877E-17
2.960000E+03	3.444656E-15	1.025501E-16
3.000000E+03	3.607399E-15	1.057579E-16
3.010000E+03	3.646250E-15	1.064827E-16
3.020000E+03	3.684549E-15	1.071823E-16
3.030000E+03	3.722435E-15	1.078610E-16
3.040000E+03	3.760217E-15	1.085280E-16
3.050000E+03	3.797961E-15	1.091851E-16
3.060000E+03	3.835819E-15	1.098366E-16
3.070000E+03	3.874028E-15	1.104893E-16
3.080000E+03	3.912663E-15	1.111452E-16
3.090000E+03	3.951883E-15	1.118087E-16
3.100000E+03	3.992012E-15	1.124886E-16
3.110000E+03	4.033047E-15	1.131843E-16
3.120000E+03	4.075227E-15	1.139023E-16
3.130000E+03	4.118633E-15	1.146442E-16
3.140000E+03	4.163664E-15	1.154208E-16
3.150000E+03	4.210232E-15	1.162287E-16
3.160000E+03	4.258571E-15	1.170739E-16
3.170000E+03	4.308911E-15	1.179620E-16
3.180000E+03	4.361396E-15	1.188962E-16
3.190000E+03	4.416005E-15	1.198749E-16
3.200000E+03	4.473118E-15	1.209077E-16
3.210000E+03	4.532701E-15	1.219925E-16
3.220000E+03	4.594957E-15	1.231340E-16
3.230000E+03	4.659921E-15	1.243321E-16
3.240000E+03	4.727780E-15	1.255905E-16
3.250000E+03	4.798633E-15	1.269108E-16
3.260000E+03	4.872567E-15	1.282941E-16
3.270000E+03	4.949574E-15	1.297390E-16
3.280000E+03	5.029800E-15	1.312480E-16
3.290000E+03	5.113294E-15	1.328212E-16
3.300000E+03	5.200008E-15	1.344560E-16
3.310000E+03	5.290042E-15	1.361536E-16
3.320000E+03	5.383309E-15	1.379106E-16
3.330000E+03	5.479866E-15	1.397270E-16
3.340000E+03	5.579568E-15	1.415978E-16
3.350000E+03	5.682296E-15	1.435187E-16
3.360000E+03	5.787818E-15	1.454826E-16
3.370000E+03	5.895701E-15	1.474774E-16
3.380000E+03	6.005223E-15	1.494841E-16
3.390000E+03	6.115248E-15	1.514739E-16
3.400000E+03	6.224457E-15	1.534138E-16
3.410000E+03	6.330872E-15	1.552553E-16
3.420000E+03	6.432512E-15	1.569511E-16
3.430000E+03	6.526739E-15	1.584387E-16
3.440000E+03	6.610854E-15	1.596555E-16
3.450000E+03	6.682010E-15	1.605368E-16
3.460000E+03	6.737233E-15	1.610161E-16
3.470000E+03	6.773860E-15	1.610362E-16
3.480000E+03	6.789384E-15	1.605446E-16
3.490000E+03	6.781946E-15	1.595057E-16
3.500000E+03	6.750674E-15	1.579078E-16
3.510000E+03	6.695611E-15	1.557611E-16
3.520000E+03	6.618057E-15	1.531048E-16
3.530000E+03	6.520095E-15	1.499959E-16
3.540000E+03	6.405090E-15	1.465191E-16
3.550000E+03	6.276982E-15	1.427710E-16
3.560000E+03	6.140354E-15	1.388605E-16
3.570000E+03	5.999933E-15	1.348974E-16
3.580000E+03	5.860576E-15	1.309919E-16
3.590000E+03	5.727174E-15	1.272525E-16
3.600000E+03	5.604099E-15	1.237736E-16
3.610000E+03	5.495647E-15	1.206456E-16
3.620000E+03	5.405612E-15	1.179455E-16
3.630000E+03	5.337389E-15	1.157398E-16
3.640000E+03	5.294119E-15	1.140874E-16
3.650000E+03	5.278743E-15	1.130412E-16
3.660000E+03	5.293943E-15	1.126472E-16
3.670000E+03	5.342517E-15	1.129519E-16
3.680000E+03	5.427025E-15	1.139955E-16
3.690000E+03	5.550273E-15	1.158216E-16
3.700000E+03	5.715065E-15	1.184722E-16
3.710000E+03	5.924272E-15	1.219890E-16
3.720000E+03	6.180616E-15	1.264091E-16
3.730000E+03	6.486824E-15	1.317678E-16
3.740000E+03	6.845242E-15	1.380913E-16
3.750000E+03	7.257813E-15	1.453961E-16
3.760000E+03	7.725730E-15	1.536828E-16
3.770000E+03	8.249293E-15	1.629335E-16
3.780000E+03	8.827501E-15	1.731043E-16
3.790000E+03	9.457898E-15	1.841238E-16
3.800000E+03	1.013667E-14	1.958951E-16
3.810000E+03	1.085776E-14	2.082814E-16
3.820000E+03	1.161374E-14	2.211221E-16
3.830000E+03	1.239571E-14	2.342336E-16
3.840000E+03	1.319302E-14	2.474046E-16
3.850000E+03	1.399434E-14	2.604171E-16
3.860000E+03	1.478806E-14	2.730550E-16
3.870000E+03	1.556263E-14	2.851095E-16
3.880000E+03	1.630727E-14	2.963928E-16
3.890000E+03	1.701243E-14	3.067459E-16
3.900000E+03	1.767069E-14	3.160532E-16
3.910000E+03	1.827641E-14	3.242355E-16
3.920000E+03	1.882613E-14	3.312549E-16
3.930000E+03	1.931848E-14	3.371127E-16
3.940000E+03	1.975401E-14	3.418438E-16
3.950000E+03	2.013514E-14	3.455154E-16
3.960000E+03	2.046549E-14	3.482135E-16
3.970000E+03	2.074936E-14	3.500336E-16
3.980000E+03	2.099204E-14	3.510856E-16
3.990000E+03	2.119814E-14	3.514646E-16
4.000000E+03	2.137178E-14	3.512555E-16
4.010000E+03	2.151551E-14	3.505148E-16
4.020000E+03	2.162986E-14	3.492655E-16
4.030000E+03	2.171380E-14	3.475049E-16
4.040000E+03	2.176339E-14	3.451849E-16
4.050000E+03	2.177318E-14	3.422359E-16
4.060000E+03	2.173639E-14	3.385705E-16
4.070000E+03	2.164578E-14	3.340982E-16
4.080000E+03	2.149458E-14	3.287394E-16
4.090000E+03	2.127762E-14	3.224422E-16
4.100000E+03	2.099154E-14	3.151849E-16
4.110000E+03	2.063564E-14	3.069865E-16
4.120000E+03	2.021194E-14	2.979066E-16
4.130000E+03	1.972426E-14	2.880289E-16
4.140000E+03	1.917918E-14	2.774749E-16
4.150000E+03	1.858517E-14	2.663887E-16
4.160000E+03	1.795247E-14	2.549349E-16
4.170000E+03	1.729260E-14	2.432902E-16
4.180000E+03	1.661792E-14	2.316362E-16
4.190000E+03	1.594121E-14	2.201535E-16
4.200000E+03	1.527519E-14	2.090157E-16
4.210000E+03	1.463230E-14	1.983851E-16
4.220000E+03	1.402441E-14	1.884107E-16
4.230000E+03	1.346231E-14	1.792211E-16
4.240000E+03	1.295566E-14	1.709253E-16
4.250000E+03	1.251284E-14	1.636110E-16
4.260000E+03	1.214044E-14	1.573398E-16
4.270000E+03	1.184277E-14	1.521411E-16
4.280000E+03	1.162230E-14	1.480203E-16
4.290000E+03	1.147950E-14	1.449572E-16
4.300000E+03	1.141308E-14	1.429106E-16
4.310000E+03	1.141990E-14	1.418177E-16
4.320000E+03	1.149512E-14	1.415975E-16
4.330000E+03	1.163283E-14	1.421589E-16
4.340000E+03	1.182519E-14	1.433906E-16
4.350000E+03	1.206367E-14	1.451774E-16
4.360000E+03	1.233901E-14	1.473991E-16
4.370000E+03	1.264195E-14	1.499399E-16
4.380000E+03	1.296344E-14	1.526900E-16
4.390000E+03	1.329514E-14	1.555515E-16
4.400000E+03	1.362959E-14	1.584399E-16
4.410000E+03	1.396044E-14	1.612854E-16
4.420000E+03	1.428147E-14	1.640218E-16
4.430000E+03	1.458662E-14	1.665845E-16
4.440000E+03	1.487000E-14	1.689108E-16
4.450000E+03	1.512528E-14	1.709343E-16
4.460000E+03	1.534604E-14	1.725879E-16
4.470000E+03	1.552602E-14	1.738071E-16
4.480000E+03	1.565892E-14	1.745275E-16
4.490000E+03	1.573981E-14	1.746999E-16
4.500000E+03	1.576501E-14	1.742895E-16
4.510000E+03	1.573282E-14	1.732826E-16
4.520000E+03	1.564424E-14	1.716947E-16
4.530000E+03	1.550259E-14	1.695659E-16
4.540000E+03	1.531308E-14	1.669557E-16
4.550000E+03	1.508241E-14	1.639387E-16
4.560000E+03	1.481792E-14	1.605949E-16
4.570000E+03	1.452697E-14	1.570039E-16
4.580000E+03	1.421700E-14	1.532447E-16
4.590000E+03	1.389422E-14	1.493826E-16
4.600000E+03	1.356439E-14	1.454773E-16
4.610000E+03	1.323289E-14	1.415840E-16
4.620000E+03	1.290441E-14	1.377502E-16
4.630000E+03	1.258277E-14	1.340140E-16
4.640000E+03	1.227219E-14	1.304175E-16
4.650000E+03	1.197555E-14	1.269884E-16
4.660000E+03	1.169595E-14	1.237568E-16
4.670000E+03	1.143548E-14	1.207420E-16
4.680000E+03	1.119553E-14	1.179559E-16
4.690000E+03	1.097644E-14	1.153995E-16
4.700000E+03	1.077751E-14	1.130629E-16
4.710000E+03	1.059716E-14	1.109273E-16
4.720000E+03	1.043251E-14	1.089602E-16
4.730000E+03	1.027989E-14	1.071218E-16
4.740000E+03	1.013521E-14	1.053678E-16
4.750000E+03	9.994042E-15	1.036512E-16
4.760000E+03	9.852861E-15	1.019348E-16
4.770000E+03	9.708225E-15	1.001827E-16
4.780000E+03	9.558263E-15	9.837540E-17
4.790000E+03	9.402303E-15	9.650636E-17
4.800000E+03	9.241082E-15	9.458346E-17
4.810000E+03	9.077467E-15	9.263637E-17
4.820000E+03	8.916169E-15	9.071329E-17
4.830000E+03	8.762829E-15	8.887136E-17
4.840000E+03	8.623742E-15	8.717358E-17
4.850000E+03	8.504906E-15	8.567913E-17
4.860000E+03	8.411538E-15	8.443847E-17
4.870000E+03	8.347703E-15	8.348963E-17
4.880000E+03	8.316005E-15	8.285536E-17
4.890000E+03	8.317465E-15	8.254213E-17
4.900000E+03	8.352016E-15	8.254523E-17
4.910000E+03	8.418149E-15	8.284561E-17
4.920000E+03	8.513786E-15	8.341867E-17
4.930000E+03	8.636378E-15	8.423540E-17
4.940000E+03	8.783188E-15	8.526525E-17
4.950000E+03	8.951683E-15	8.647999E-17
4.960000E+03	9.139295E-15	8.785144E-17
4.970000E+03	9.343868E-15	8.935575E-17
4.980000E+03	9.563219E-15	9.096920E-17
4.990000E+03	9.795313E-15	9.266988E-17
5.000000E+03	1.003796E-14	9.443485E-17
5.010000E+03	1.028907E-14	9.624253E-17
5.020000E+03	1.054568E-14	9.806374E-17
5.030000E+03	1.080435E-14	9.986584E-17
5.040000E+03	1.106112E-14	1.016119E-16
5.050000E+03	1.131103E-14	1.032571E-16
5.060000E+03	1.154861E-14	1.047534E-16
5.070000E+03	1.176810E-14	1.060515E-16
5.080000E+03	1.196401E-14	1.071060E-16
5.090000E+03	1.213144E-14	1.078785E-16
5.100000E+03	1.226659E-14	1.083414E-16
5.110000E+03	1.236685E-14	1.084791E-16
5.120000E+03	1.243048E-14	1.082839E-16
5.130000E+03	1.245727E-14	1.077622E-16
5.140000E+03	1.244714E-14	1.069217E-16
5.150000E+03	1.240127E-14	1.057807E-16
5.160000E+03	1.232092E-14	1.043582E-16
5.170000E+03	1.220783E-14	1.026766E-16
5.180000E+03	1.206410E-14	1.007611E-16
5.190000E+03	1.189225E-14	9.863937E-17
5.200000E+03	1.169574E-14	9.634659E-17
5.210000E+03	1.147903E-14	9.392459E-17
5.220000E+03	1.124785E-14	9.142467E-17
5.230000E+03	1.100829E-14	8.889935E-17
5.240000E+03	1.076759E-14	8.640898E-17
5.250000E+03	1.053296E-14	8.401200E-17
5.260000E+03	1.031094E-14	8.176001E-17
5.270000E+03	1.010669E-14	7.969261E-17
5.280000E+03	9.924190E-15	7.783907E-17
5.290000E+03	9.765282E-15	7.621171E-17
5.300000E+03	9.629833E-15	7.480733E-17
5.310000E+03	9.515865E-15	7.360880E-17
5.320000E+03	9.420263E-15	7.259079E-17
5.330000E+03	9.338642E-15	7.171884E-17
5.340000E+03	9.266344E-15	7.095706E-17
5.350000E+03	9.198801E-15	7.027082E-17
5.360000E+03	9.132327E-15	6.963252E-17
5.370000E+03	9.063901E-15	6.901980E-17
5.380000E+03	8.992278E-15	6.842273E-17
5.390000E+03	8.917669E-15	6.784072E-17
5.400000E+03	8.841787E-15	6.728433E-17
5.410000E+03	8.767399E-15	6.677206E-17
5.420000E+03	8.698385E-15	6.633097E-17
5.430000E+03	8.638956E-15	6.599084E-17
5.440000E+03	8.592533E-15	6.577583E-17
5.450000E+03	8.561901E-15	6.570566E-17
5.460000E+03	8.548410E-15	6.578952E-17
5.470000E+03	8.552240E-15	6.602795E-17
5.480000E+03	8.572529E-15	6.641372E-17
5.490000E+03	8.606840E-15	6.692749E-17
5.500000E+03	8.652178E-15	6.754548E-17
5.510000E+03	8.704762E-15	6.823748E-17
5.520000E+03	8.760875E-15	6.897341E-17
5.530000E+03	8.816722E-15	6.972211E-17
5.540000E+03	8.869515E-15	7.045987E-17
5.550000E+03	8.917004E-15	7.116690E-17
5.560000E+03	8.957751E-15	7.182955E-17
5.570000E+03	8.990380E-15	7.243450E-17
5.580000E+03	9.014050E-15	7.297254E-17
5.590000E+03	9.028142E-15	7.343614E-17
5.600000E+03	9.032508E-15	7.382161E-17
5.610000E+03	9.027008E-15	7.412533E-17
5.620000E+03	9.011961E-15	7.434752E-17
5.630000E+03	8.987952E-15	7.449075E-17
5.640000E+03	8.955657E-15	7.455854E-17
5.650000E+03	8.915912E-15	7.455593E-17
5.660000E+03	8.869362E-15	7.448662E-17
5.670000E+03	8.816805E-15	7.435578E-17
5.680000E+03	8.759000E-15	7.416851E-17
5.690000E+03	8.696600E-15	7.392917E-17
5.700000E+03	8.630352E-15	7.364318E-17
5.710000E+03	8.561281E-15	7.331852E-17
5.720000E+03	8.490969E-15	7.296817E-17
5.730000E+03	8.420988E-15	7.260532E-17
5.740000E+03	8.353565E-15	7.224906E-17
5.750000E+03	8.290913E-15	7.191867E-17
5.760000E+03	8.234940E-15	7.163103E-17
5.770000E+03	8.186990E-15	7.139827E-17
5.780000E+03	8.147293E-15	7.122292E-17
5.790000E+03	8.114702E-15	7.109544E-17
5.800000E+03	8.086899E-15	7.099589E-17
5.810000E+03	8.060484E-15	7.089465E-17
5.820000E+03	8.030752E-15	7.075041E-17
5.830000E+03	7.992765E-15	7.051961E-17
5.840000E+03	7.941431E-15	7.015715E-17
5.850000E+03	7.872091E-15	6.962173E-17
5.860000E+03	7.781249E-15	6.888232E-17
5.870000E+03	7.666657E-15	6.791911E-17
5.880000E+03	7.527914E-15	6.672879E-17
5.890000E+03	7.365705E-15	6.531799E-17
5.900000E+03	7.182017E-15	6.370507E-17
5.910000E+03	6.979775E-15	6.191697E-17
5.920000E+03	6.762588E-15	5.998688E-17
5.930000E+03	6.534616E-15	5.795296E-17
5.940000E+03	6.300074E-15	5.585395E-17
5.950000E+03	6.063459E-15	5.373105E-17
5.960000E+03	5.829322E-15	5.162585E-17
5.970000E+03	5.601899E-15	4.957703E-17
5.980000E+03	5.384859E-15	4.761808E-17
5.990000E+03	5.181566E-15	4.577957E-17
6.000000E+03	4.994445E-15	4.408360E-17
6.010000E+03	4.825590E-15	4.254912E-17
6.020000E+03	4.676061E-15	4.118581E-17
6.030000E+03	4.546575E-15	4.000019E-17
6.040000E+03	4.437521E-15	3.899580E-17
6.050000E+03	4.348928E-15	3.817292E-17
6.060000E+03	4.280795E-15	3.753155E-17
6.070000E+03	4.233128E-15	3.707174E-17
6.080000E+03	4.206331E-15	3.679703E-17
6.090000E+03	4.200793E-15	3.671086E-17
6.100000E+03	4.217391E-15	3.682102E-17
6.110000E+03	4.257047E-15	3.713576E-17
6.120000E+03	4.320747E-15	3.766404E-17
6.130000E+03	4.409377E-15	3.841410E-17
6.140000E+03	4.523500E-15	3.939164E-17
6.150000E+03	4.663051E-15	4.059719E-17
6.160000E+03	4.827318E-15	4.202597E-17
6.170000E+03	5.014801E-15	4.366677E-17
6.180000E+03	5.222772E-15	4.549809E-17
6.190000E+03	5.447727E-15	4.749208E-17
6.200000E+03	5.685260E-15	4.961332E-17
6.210000E+03	5.930168E-15	5.181972E-17
6.220000E+03	6.176604E-15	5.406358E-17
6.230000E+03	6.418635E-15	5.629640E-17
6.240000E+03	6.650556E-15	5.847134E-17
6.250000E+03	6.866993E-15	6.054400E-17
6.260000E+03	7.063611E-15	6.247845E-17
6.270000E+03	7.237013E-15	6.424631E-17
6.280000E+03	7.384962E-15	6.582865E-17
6.290000E+03	7.506247E-15	6.721480E-17
6.300000E+03	7.600687E-15	6.840171E-17
6.310000E+03	7.669102E-15	6.939342E-17
6.320000E+03	7.713044E-15	7.020000E-17
6.330000E+03	7.734413E-15	7.083432E-17
6.340000E+03	7.735645E-15	7.131406E-17
6.350000E+03	7.719314E-15	7.165822E-17
6.360000E+03	7.687804E-15	7.188430E-17
6.370000E+03	7.643759E-15	7.201254E-17
6.380000E+03	7.589467E-15	7.206030E-17
6.390000E+03	7.527060E-15	7.204395E-17
6.400000E+03	7.458531E-15	7.197905E-17
6.410000E+03	7.385965E-15	7.188264E-17
6.420000E+03	7.310972E-15	7.176773E-17
6.430000E+03	7.235326E-15	7.164954E-17
6.440000E+03	7.160414E-15	7.154006E-17
6.450000E+03	7.087423E-15	7.144985E-17
6.460000E+03	7.017386E-15	7.138838E-17
6.470000E+03	6.950947E-15	7.136163E-17
6.480000E+03	6.888582E-15	7.137418E-17
6.490000E+03	6.830199E-15	7.142492E-17
6.500000E+03	6.775874E-15	7.151457E-17
6.510000E+03	6.725273E-15	7.163963E-17
6.520000E+03	6.677809E-15	7.179380E-17
6.530000E+03	6.632990E-15	7.197165E-17
6.540000E+03	6.590130E-15	7.216551E-17
6.550000E+03	6.548496E-15	7.236695E-17
6.560000E+03	6.507332E-15	7.256705E-17
6.570000E+03	6.466020E-15	7.275819E-17
6.580000E+03	6.423824E-15	7.293123E-17
6.590000E+03	6.380270E-15	7.307971E-17
6.600000E+03	6.335142E-15	7.320008E-17
6.610000E+03	6.288301E-15	7.328960E-17
6.620000E+03	6.239676E-15	7.334634E-17
6.630000E+03	6.189541E-15	7.337247E-17
6.640000E+03	6.138029E-15	7.336862E-17
6.650000E+03	6.085613E-15	7.333964E-17
6.660000E+03	6.032358E-15	7.328562E-17
6.670000E+03	5.978522E-15	7.320910E-17
6.680000E+03	5.924436E-15	7.311366E-17
6.690000E+03	5.870319E-15	7.300165E-17
6.700000E+03	5.816293E-15	7.287433E-17
6.710000E+03	5.762605E-15	7.273459E-17
6.720000E+03	5.709626E-15	7.258703E-17
6.730000E+03	5.657552E-15	7.243419E-17
6.740000E+03	5.606802E-15	7.228156E-17
6.750000E+03	5.557497E-15	7.213092E-17
6.760000E+03	5.510117E-15	7.198882E-17
6.770000E+03	5.464681E-15	7.185590E-17
6.780000E+03	5.421523E-15	7.173699E-17
6.790000E+03	5.380482E-15	7.163045E-17
6.800000E+03	5.341578E-15	7.153698E-17
6.810000E+03	5.304642E-15	7.145478E-17
6.820000E+03	5.269349E-15	7.137985E-17
6.830000E+03	5.235534E-15	7.131029E-17
6.840000E+03	5.202832E-15	7.124139E-17
6.850000E+03	5.171099E-15	7.117138E-17
6.860000E+03	5.139945E-15	7.109510E-17
6.870000E+03	5.109427E-15	7.101341E-17
6.880000E+03	5.079369E-15	7.092402E-17
6.890000E+03	5.049754E-15	7.082681E-17
6.900000E+03	5.020510E-15	7.072084E-17
6.910000E+03	4.991868E-15	7.060950E-17
6.920000E+03	4.963578E-15	7.048941E-17
6.930000E+03	4.935956E-15	7.036514E-17
6.940000E+03	4.908828E-15	7.023442E-17
6.950000E+03	4.882200E-15	7.009745E-17
6.960000E+03	4.856170E-15	6.995580E-17
6.970000E+03	4.830663E-15	6.980855E-17
6.980000E+03	4.805722E-15	6.965648E-17
6.990000E+03	4.781421E-15	6.950081E-17
7.000000E+03	4.757853E-15	6.934310E-17
7.010000E+03	4.735132E-15	6.918516E-17
7.020000E+03	4.713280E-15	6.902753E-17
7.030000E+03	4.692579E-15	6.887453E-17
7.040000E+03	4.672802E-15	6.872303E-17
7.050000E+03	4.654230E-15	6.857735E-17
7.060000E+03	4.636518E-15	6.843262E-17
7.070000E+03	4.619705E-15	6.828953E-17
7.080000E+03	4.603479E-15	6.814367E-17
7.090000E+03	4.587564E-15	6.799108E-17
7.100000E+03	4.571719E-15	6.782828E-17
7.110000E+03	4.555399E-15	6.764732E-17
7.120000E+03	4.538330E-15	6.744422E-17
7.130000E+03	4.520071E-15	6.721255E-17
7.140000E+03	4.500393E-15	6.694901E-17
7.150000E+03	4.479022E-15	6.664965E-17
7.160000E+03	4.455652E-15	6.631011E-17
7.170000E+03	4.430227E-15	6.592971E-17
7.180000E+03	4.402486E-15	6.550482E-17
7.190000E+03	4.372609E-15	6.503838E-17
7.200000E+03	4.340572E-15	6.453033E-17
7.210000E+03	4.306411E-15	6.398152E-17
7.220000E+03	4.270385E-15	6.339618E-17
7.230000E+03	4.232694E-15	6.277768E-17
7.240000E+03	4.193476E-15	6.212843E-17
7.250000E+03	4.152954E-15	6.145221E-17
7.260000E+03	4.111355E-15	6.075277E-17
7.270000E+03	4.068894E-15	6.003373E-17
7.280000E+03	4.025768E-15	5.929846E-17
7.290000E+03	3.982003E-15	5.854776E-17
7.300000E+03	3.937943E-15	5.778715E-17
7.310000E+03	3.893684E-15	5.701846E-17
7.320000E+03	3.849319E-15	5.624347E-17
7.330000E+03	3.805109E-15	5.546640E-17
7.340000E+03	3.761073E-15	5.468794E-17
7.350000E+03	3.717386E-15	5.391102E-17
7.360000E+03	3.674215E-15	5.313843E-17
7.370000E+03	3.631632E-15	5.237154E-17
7.380000E+03	3.589838E-15	5.161361E-17
7.390000E+03	3.548714E-15	5.086322E-17
7.400000E+03	3.508494E-15	5.012403E-17
7.410000E+03	3.469107E-15	4.939532E-17
7.420000E+03	3.430723E-15	4.867978E-17
7.430000E+03	3.393397E-15	4.797842E-17
7.440000E+03	3.357302E-15	4.729393E-17
7.450000E+03	3.322737E-15	4.663072E-17
7.460000E+03	3.289924E-15	4.599201E-17
7.470000E+03	3.259414E-15	4.538558E-17
7.480000E+03	3.231423E-15	4.481443E-17
7.490000E+03	3.206443E-15	4.428531E-17
7.500000E+03	3.184717E-15	4.380140E-17
7.510000E+03	3.166659E-15	4.336819E-17
7.520000E+03	3.152274E-15	4.298548E-17
7.530000E+03	3.141490E-15	4.265200E-17
7.540000E+03	3.134152E-15	4.236540E-17
7.550000E+03	3.129882E-15	4.212035E-17
7.560000E+03	3.128304E-15	4.191165E-17
7.570000E+03	3.128659E-15	4.172913E-17
7.580000E+03	3.130299E-15	4.156422E-17
7.590000E+03	3.132496E-15	4.140753E-17
7.600000E+03	3.134304E-15	4.124699E-17
7.610000E+03	3.134841E-15	4.107156E-17
7.620000E+03	3.133017E-15	4.086774E-17
7.630000E+03	3.127882E-15	4.062412E-17
7.640000E+03	3.118152E-15	4.032514E-17
7.650000E+03	3.102782E-15	3.995863E-17
7.660000E+03	3.080445E-15	3.950897E-17
7.670000E+03	3.050127E-15	3.896475E-17
7.680000E+03	3.010628E-15	3.831235E-17
7.690000E+03	2.961187E-15	3.754382E-17
7.700000E+03	2.901064E-15	3.665150E-17
7.710000E+03	2.829864E-15	3.563200E-17
7.720000E+03	2.747515E-15	3.448588E-17
7.730000E+03	2.654301E-15	3.321794E-17
7.740000E+03	2.550899E-15	3.183756E-17
7.750000E+03	2.438343E-15	3.035821E-17
7.760000E+03	2.318243E-15	2.880016E-17
