#wls	flux	fluxerr
1.600000E+03	1.190899E-14	6.197159E-16
1.640000E+03	9.278056E-15	4.746775E-16
1.680000E+03	7.144463E-15	3.592465E-16
1.720000E+03	5.441381E-15	2.688289E-16
1.760000E+03	4.101859E-15	1.990492E-16
1.800000E+03	3.064684E-15	1.460343E-16
1.840000E+03	2.272215E-15	1.062906E-16
1.880000E+03	1.675103E-15	7.690600E-17
1.920000E+03	1.230698E-15	5.544399E-17
1.960000E+03	9.038162E-16	3.994784E-17
2.000000E+03	6.663754E-16	2.889257E-17
2.040000E+03	4.961683E-16	2.110153E-17
2.080000E+03	3.757381E-16	1.567379E-17
2.120000E+03	2.922692E-16	1.195878E-17
2.160000E+03	2.370137E-16	9.513310E-18
2.200000E+03	2.037029E-16	8.021929E-18
2.240000E+03	1.883412E-16	7.278672E-18
2.280000E+03	1.894132E-16	7.185730E-18
2.320000E+03	2.073406E-16	7.723818E-18
2.360000E+03	2.451988E-16	8.971922E-18
2.400000E+03	3.099053E-16	1.114157E-17
2.440000E+03	4.131938E-16	1.459962E-17
2.480000E+03	5.728842E-16	1.989889E-17
2.520000E+03	8.137219E-16	2.779073E-17
2.560000E+03	1.166453E-15	3.917625E-17
2.600000E+03	1.663588E-15	5.495233E-17
2.640000E+03	2.331017E-15	7.573669E-17
2.680000E+03	3.183343E-15	1.017384E-16
2.720000E+03	4.220201E-15	1.326723E-16
2.760000E+03	5.418751E-15	1.675653E-16
2.800000E+03	6.731430E-15	2.047440E-16
2.840000E+03	8.088607E-15	2.419743E-16
2.880000E+03	9.407603E-15	2.767788E-16
2.920000E+03	1.060961E-14	3.069557E-16
2.960000E+03	1.163084E-14	3.308830E-16
3.000000E+03	1.243080E-14	3.477112E-16
3.010000E+03	1.259378E-14	3.507805E-16
3.020000E+03	1.274215E-14	3.534114E-16
3.030000E+03	1.287527E-14	3.555919E-16
3.040000E+03	1.299410E-14	3.573538E-16
3.050000E+03	1.309848E-14	3.586978E-16
3.060000E+03	1.318862E-14	3.596354E-16
3.070000E+03	1.326509E-14	3.601872E-16
3.080000E+03	1.332855E-14	3.603759E-16
3.090000E+03	1.337908E-14	3.602088E-16
3.100000E+03	1.341775E-14	3.597189E-16
3.110000E+03	1.344476E-14	3.589160E-16
3.120000E+03	1.346092E-14	3.578260E-16
3.130000E+03	1.346711E-14	3.564754E-16
3.140000E+03	1.346392E-14	3.548826E-16
3.150000E+03	1.345171E-14	3.530602E-16
3.160000E+03	1.343192E-14	3.510480E-16
3.170000E+03	1.340468E-14	3.488518E-16
3.180000E+03	1.337115E-14	3.465037E-16
3.190000E+03	1.333200E-14	3.440225E-16
3.200000E+03	1.328788E-14	3.414266E-16
3.210000E+03	1.323944E-14	3.387336E-16
3.220000E+03	1.318780E-14	3.359733E-16
3.230000E+03	1.313336E-14	3.331562E-16
3.240000E+03	1.307673E-14	3.302989E-16
3.250000E+03	1.301874E-14	3.274222E-16
3.260000E+03	1.296020E-14	3.245466E-16
3.270000E+03	1.290146E-14	3.216807E-16
3.280000E+03	1.284329E-14	3.188435E-16
3.290000E+03	1.278621E-14	3.160474E-16
3.300000E+03	1.273094E-14	3.133095E-16
3.310000E+03	1.267778E-14	3.106361E-16
3.320000E+03	1.262721E-14	3.080383E-16
3.330000E+03	1.258006E-14	3.055353E-16
3.340000E+03	1.253641E-14	3.031273E-16
3.350000E+03	1.249684E-14	3.008276E-16
3.360000E+03	1.246197E-14	2.986490E-16
3.370000E+03	1.243180E-14	2.965903E-16
3.380000E+03	1.240706E-14	2.946668E-16
3.390000E+03	1.238776E-14	2.928771E-16
3.400000E+03	1.237423E-14	2.912272E-16
3.410000E+03	1.236696E-14	2.897262E-16
3.420000E+03	1.236607E-14	2.883753E-16
3.430000E+03	1.237184E-14	2.871788E-16
3.440000E+03	1.238422E-14	2.861332E-16
3.450000E+03	1.240363E-14	2.852457E-16
3.460000E+03	1.243013E-14	2.845160E-16
3.470000E+03	1.246370E-14	2.839408E-16
3.480000E+03	1.250455E-14	2.835228E-16
3.490000E+03	1.255247E-14	2.832546E-16
3.500000E+03	1.260736E-14	2.831321E-16
3.510000E+03	1.266918E-14	2.831515E-16
3.520000E+03	1.273762E-14	2.833034E-16
3.530000E+03	1.281249E-14	2.835805E-16
3.540000E+03	1.289351E-14	2.839737E-16
3.550000E+03	1.298033E-14	2.844728E-16
3.560000E+03	1.307275E-14	2.850706E-16
3.570000E+03	1.317064E-14	2.857620E-16
3.580000E+03	1.327387E-14	2.865413E-16
3.590000E+03	1.338242E-14	2.874058E-16
3.600000E+03	1.349666E-14	2.883609E-16
3.610000E+03	1.361668E-14	2.894054E-16
3.620000E+03	1.374306E-14	2.905492E-16
3.630000E+03	1.387698E-14	2.918140E-16
3.640000E+03	1.401945E-14	2.932174E-16
3.650000E+03	1.417179E-14	2.947834E-16
3.660000E+03	1.433539E-14	2.965363E-16
3.670000E+03	1.451181E-14	2.985033E-16
3.680000E+03	1.470249E-14	3.007086E-16
3.690000E+03	1.490878E-14	3.031735E-16
3.700000E+03	1.513251E-14	3.059284E-16
3.710000E+03	1.537483E-14	3.089896E-16
3.720000E+03	1.563741E-14	3.123819E-16
3.730000E+03	1.592151E-14	3.161228E-16
3.740000E+03	1.622851E-14	3.202294E-16
3.750000E+03	1.655948E-14	3.247137E-16
3.760000E+03	1.691538E-14	3.295839E-16
3.770000E+03	1.729727E-14	3.348496E-16
3.780000E+03	1.770574E-14	3.405110E-16
3.790000E+03	1.814132E-14	3.465666E-16
3.800000E+03	1.860400E-14	3.530039E-16
3.810000E+03	1.909409E-14	3.598169E-16
3.820000E+03	1.961106E-14	3.669827E-16
3.830000E+03	2.015448E-14	3.744811E-16
3.840000E+03	2.072318E-14	3.822782E-16
3.850000E+03	2.131628E-14	3.903459E-16
3.860000E+03	2.193180E-14	3.986361E-16
3.870000E+03	2.256823E-14	4.071109E-16
3.880000E+03	2.322328E-14	4.157186E-16
3.890000E+03	2.389436E-14	4.244035E-16
3.900000E+03	2.457880E-14	4.331101E-16
3.910000E+03	2.527368E-14	4.417800E-16
3.920000E+03	2.597594E-14	4.503543E-16
3.930000E+03	2.668217E-14	4.587696E-16
3.940000E+03	2.738885E-14	4.669627E-16
3.950000E+03	2.809284E-14	4.748792E-16
3.960000E+03	2.879081E-14	4.824637E-16
3.970000E+03	2.947879E-14	4.896523E-16
3.980000E+03	3.015406E-14	4.964038E-16
3.990000E+03	3.081333E-14	5.026703E-16
4.000000E+03	3.145369E-14	5.084121E-16
4.010000E+03	3.207198E-14	5.135875E-16
4.020000E+03	3.266569E-14	5.181673E-16
4.030000E+03	3.323280E-14	5.221321E-16
4.040000E+03	3.377076E-14	5.254561E-16
4.050000E+03	3.427777E-14	5.281264E-16
4.060000E+03	3.475198E-14	5.301314E-16
4.070000E+03	3.519207E-14	5.314687E-16
4.080000E+03	3.559663E-14	5.321361E-16
4.090000E+03	3.596480E-14	5.321404E-16
4.100000E+03	3.629563E-14	5.314882E-16
4.110000E+03	3.658841E-14	5.301905E-16
4.120000E+03	3.684292E-14	5.282661E-16
4.130000E+03	3.705915E-14	5.257370E-16
4.140000E+03	3.723676E-14	5.226212E-16
4.150000E+03	3.737647E-14	5.189516E-16
4.160000E+03	3.747834E-14	5.147517E-16
4.170000E+03	3.754322E-14	5.100559E-16
4.180000E+03	3.757217E-14	5.049012E-16
4.190000E+03	3.756611E-14	4.993221E-16
4.200000E+03	3.752616E-14	4.933549E-16
4.210000E+03	3.745389E-14	4.870414E-16
4.220000E+03	3.735070E-14	4.804199E-16
4.230000E+03	3.721836E-14	4.735327E-16
4.240000E+03	3.705875E-14	4.664224E-16
4.250000E+03	3.687351E-14	4.591268E-16
4.260000E+03	3.666399E-14	4.516795E-16
4.270000E+03	3.643272E-14	4.441271E-16
4.280000E+03	3.618102E-14	4.365002E-16
4.290000E+03	3.591074E-14	4.288344E-16
4.300000E+03	3.562313E-14	4.211568E-16
4.310000E+03	3.532018E-14	4.135024E-16
4.320000E+03	3.500329E-14	4.058973E-16
4.330000E+03	3.467380E-14	3.983662E-16
4.340000E+03	3.433332E-14	3.909356E-16
4.350000E+03	3.398338E-14	3.836289E-16
4.360000E+03	3.362650E-14	3.764785E-16
4.370000E+03	3.326470E-14	3.695096E-16
4.380000E+03	3.290198E-14	3.627676E-16
4.390000E+03	3.254251E-14	3.562985E-16
4.400000E+03	3.218978E-14	3.501387E-16
4.410000E+03	3.184752E-14	3.443261E-16
4.420000E+03	3.151879E-14	3.388903E-16
4.430000E+03	3.120596E-14	3.338523E-16
4.440000E+03	3.091169E-14	3.292360E-16
4.450000E+03	3.063734E-14	3.250489E-16
4.460000E+03	3.038408E-14	3.212887E-16
4.470000E+03	3.015251E-14	3.179462E-16
4.480000E+03	2.994350E-14	3.150155E-16
4.490000E+03	2.975482E-14	3.124590E-16
4.500000E+03	2.958264E-14	3.102228E-16
4.510000E+03	2.942414E-14	3.082644E-16
4.520000E+03	2.927578E-14	3.065347E-16
4.530000E+03	2.913429E-14	3.049877E-16
4.540000E+03	2.899667E-14	3.035804E-16
4.550000E+03	2.885981E-14	3.022694E-16
4.560000E+03	2.872051E-14	3.010102E-16
4.570000E+03	2.857605E-14	2.997638E-16
4.580000E+03	2.842425E-14	2.984968E-16
4.590000E+03	2.826302E-14	2.971769E-16
4.600000E+03	2.809013E-14	2.957711E-16
4.610000E+03	2.790474E-14	2.942605E-16
4.620000E+03	2.770596E-14	2.926264E-16
4.630000E+03	2.749281E-14	2.908495E-16
4.640000E+03	2.726546E-14	2.889229E-16
4.650000E+03	2.702420E-14	2.868415E-16
4.660000E+03	2.676946E-14	2.846026E-16
4.670000E+03	2.650270E-14	2.822144E-16
4.680000E+03	2.622492E-14	2.796814E-16
4.690000E+03	2.593785E-14	2.770163E-16
4.700000E+03	2.564314E-14	2.742316E-16
4.710000E+03	2.534281E-14	2.713446E-16
4.720000E+03	2.503852E-14	2.683693E-16
4.730000E+03	2.473262E-14	2.653276E-16
4.740000E+03	2.442680E-14	2.622350E-16
4.750000E+03	2.412357E-14	2.591164E-16
4.760000E+03	2.382433E-14	2.559849E-16
4.770000E+03	2.353096E-14	2.528597E-16
4.780000E+03	2.324550E-14	2.497615E-16
4.790000E+03	2.296921E-14	2.467032E-16
4.800000E+03	2.270382E-14	2.437029E-16
4.810000E+03	2.245015E-14	2.407688E-16
4.820000E+03	2.220966E-14	2.379163E-16
4.830000E+03	2.198328E-14	2.351550E-16
4.840000E+03	2.177161E-14	2.324911E-16
4.850000E+03	2.157555E-14	2.299335E-16
4.860000E+03	2.139584E-14	2.274898E-16
4.870000E+03	2.123257E-14	2.251602E-16
4.880000E+03	2.108631E-14	2.229501E-16
4.890000E+03	2.095754E-14	2.208634E-16
4.900000E+03	2.084609E-14	2.188971E-16
4.910000E+03	2.075226E-14	2.170532E-16
4.920000E+03	2.067613E-14	2.153308E-16
4.930000E+03	2.061772E-14	2.137283E-16
4.940000E+03	2.057693E-14	2.122428E-16
4.950000E+03	2.055348E-14	2.108690E-16
4.960000E+03	2.054734E-14	2.096045E-16
4.970000E+03	2.055806E-14	2.084422E-16
4.980000E+03	2.058530E-14	2.073759E-16
4.990000E+03	2.062865E-14	2.063988E-16
5.000000E+03	2.068758E-14	2.055029E-16
5.010000E+03	2.076148E-14	2.046794E-16
5.020000E+03	2.084964E-14	2.039185E-16
5.030000E+03	2.095106E-14	2.032077E-16
5.040000E+03	2.106476E-14	2.025353E-16
5.050000E+03	2.118967E-14	2.018890E-16
5.060000E+03	2.132465E-14	2.012558E-16
5.070000E+03	2.146837E-14	2.006222E-16
5.080000E+03	2.161946E-14	1.999742E-16
5.090000E+03	2.177597E-14	1.992939E-16
5.100000E+03	2.193677E-14	1.985714E-16
5.110000E+03	2.210021E-14	1.977930E-16
5.120000E+03	2.226422E-14	1.969424E-16
5.130000E+03	2.242713E-14	1.960080E-16
5.140000E+03	2.258753E-14	1.949815E-16
5.150000E+03	2.274383E-14	1.938545E-16
5.160000E+03	2.289414E-14	1.926171E-16
5.170000E+03	2.303732E-14	1.912670E-16
5.180000E+03	2.317242E-14	1.898046E-16
5.190000E+03	2.329801E-14	1.882274E-16
5.200000E+03	2.341331E-14	1.865396E-16
5.210000E+03	2.351773E-14	1.847477E-16
5.220000E+03	2.361121E-14	1.828631E-16
5.230000E+03	2.369342E-14	1.808959E-16
5.240000E+03	2.376452E-14	1.788608E-16
5.250000E+03	2.382463E-14	1.767723E-16
5.260000E+03	2.387456E-14	1.746507E-16
5.270000E+03	2.391503E-14	1.725158E-16
5.280000E+03	2.394671E-14	1.703870E-16
5.290000E+03	2.397083E-14	1.682881E-16
5.300000E+03	2.398824E-14	1.662396E-16
5.310000E+03	2.400006E-14	1.642642E-16
5.320000E+03	2.400769E-14	1.623859E-16
5.330000E+03	2.401200E-14	1.606250E-16
5.340000E+03	2.401411E-14	1.590030E-16
5.350000E+03	2.401505E-14	1.575402E-16
5.360000E+03	2.401577E-14	1.562560E-16
5.370000E+03	2.401715E-14	1.551685E-16
5.380000E+03	2.402003E-14	1.542946E-16
5.390000E+03	2.402520E-14	1.536502E-16
5.400000E+03	2.403323E-14	1.532482E-16
5.410000E+03	2.404512E-14	1.530953E-16
5.420000E+03	2.406204E-14	1.531894E-16
5.430000E+03	2.408037E-14	1.534964E-16
5.440000E+03	2.409400E-14	1.539649E-16
5.450000E+03	2.410033E-14	1.545645E-16
5.460000E+03	2.409875E-14	1.552767E-16
5.470000E+03	2.408850E-14	1.560807E-16
5.480000E+03	2.407003E-14	1.569637E-16
5.490000E+03	2.404283E-14	1.579061E-16
5.500000E+03	2.400742E-14	1.588951E-16
5.510000E+03	2.396412E-14	1.599167E-16
5.520000E+03	2.391298E-14	1.609557E-16
5.530000E+03	2.385431E-14	1.619989E-16
5.540000E+03	2.378811E-14	1.630318E-16
5.550000E+03	2.371464E-14	1.640421E-16
5.560000E+03	2.363408E-14	1.650178E-16
5.570000E+03	2.354665E-14	1.659479E-16
5.580000E+03	2.345224E-14	1.668202E-16
5.590000E+03	2.335105E-14	1.676249E-16
5.600000E+03	2.324324E-14	1.683532E-16
5.610000E+03	2.312906E-14	1.689975E-16
5.620000E+03	2.300846E-14	1.695491E-16
5.630000E+03	2.288173E-14	1.700024E-16
5.640000E+03	2.274944E-14	1.703546E-16
5.650000E+03	2.261170E-14	1.706004E-16
5.660000E+03	2.246869E-14	1.707359E-16
5.670000E+03	2.232133E-14	1.707633E-16
5.680000E+03	2.217011E-14	1.706824E-16
5.690000E+03	2.201507E-14	1.704903E-16
5.700000E+03	2.185695E-14	1.701900E-16
5.710000E+03	2.169650E-14	1.697853E-16
5.720000E+03	2.153397E-14	1.692767E-16
5.730000E+03	2.136981E-14	1.686668E-16
5.740000E+03	2.120466E-14	1.679601E-16
5.750000E+03	2.103859E-14	1.671572E-16
5.760000E+03	2.087231E-14	1.662641E-16
5.770000E+03	2.070552E-14	1.652790E-16
5.780000E+03	2.053850E-14	1.642052E-16
5.790000E+03	2.037116E-14	1.630435E-16
5.800000E+03	2.020356E-14	1.617962E-16
5.810000E+03	2.003521E-14	1.604610E-16
5.820000E+03	1.986592E-14	1.590389E-16
5.830000E+03	1.969524E-14	1.575288E-16
5.840000E+03	1.952236E-14	1.559271E-16
5.850000E+03	1.934711E-14	1.542356E-16
5.860000E+03	1.916859E-14	1.524507E-16
5.870000E+03	1.898633E-14	1.505725E-16
5.880000E+03	1.879942E-14	1.485981E-16
5.890000E+03	1.860740E-14	1.465283E-16
5.900000E+03	1.840966E-14	1.443633E-16
5.910000E+03	1.820565E-14	1.421044E-16
5.920000E+03	1.799514E-14	1.397553E-16
5.930000E+03	1.777743E-14	1.373169E-16
5.940000E+03	1.755273E-14	1.347972E-16
5.950000E+03	1.732108E-14	1.322035E-16
5.960000E+03	1.708264E-14	1.295439E-16
5.970000E+03	1.683761E-14	1.268273E-16
5.980000E+03	1.658672E-14	1.240667E-16
5.990000E+03	1.633095E-14	1.212768E-16
6.000000E+03	1.607082E-14	1.184692E-16
6.010000E+03	1.580785E-14	1.156624E-16
6.020000E+03	1.554306E-14	1.128714E-16
6.030000E+03	1.527805E-14	1.101149E-16
6.040000E+03	1.501389E-14	1.074075E-16
6.050000E+03	1.475250E-14	1.047697E-16
6.060000E+03	1.449545E-14	1.022188E-16
6.070000E+03	1.424411E-14	9.977046E-17
6.080000E+03	1.400002E-14	9.744123E-17
6.090000E+03	1.376482E-14	9.524788E-17
6.100000E+03	1.353971E-14	9.320369E-17
6.110000E+03	1.332611E-14	9.132339E-17
6.120000E+03	1.312499E-14	8.961813E-17
6.130000E+03	1.293744E-14	8.810000E-17
6.140000E+03	1.276444E-14	8.678006E-17
6.150000E+03	1.260641E-14	8.566560E-17
6.160000E+03	1.246394E-14	8.476512E-17
6.170000E+03	1.233758E-14	8.408688E-17
6.180000E+03	1.222737E-14	8.363594E-17
6.190000E+03	1.213334E-14	8.341720E-17
6.200000E+03	1.205503E-14	8.343246E-17
6.210000E+03	1.199197E-14	8.368113E-17
6.220000E+03	1.194336E-14	8.415502E-17
6.230000E+03	1.190846E-14	8.484543E-17
6.240000E+03	1.188650E-14	8.574390E-17
6.250000E+03	1.187633E-14	8.683906E-17
6.260000E+03	1.187683E-14	8.811977E-17
6.270000E+03	1.188695E-14	8.957543E-17
6.280000E+03	1.190560E-14	9.119490E-17
6.290000E+03	1.193146E-14	9.296505E-17
6.300000E+03	1.196318E-14	9.487212E-17
6.310000E+03	1.199990E-14	9.690585E-17
6.320000E+03	1.203989E-14	9.904865E-17
6.330000E+03	1.208245E-14	1.012907E-16
6.340000E+03	1.212604E-14	1.036147E-16
6.350000E+03	1.216946E-14	1.060056E-16
6.360000E+03	1.221188E-14	1.084511E-16
6.370000E+03	1.225201E-14	1.109341E-16
6.380000E+03	1.228883E-14	1.134396E-16
6.390000E+03	1.232150E-14	1.159531E-16
6.400000E+03	1.234962E-14	1.184647E-16
6.410000E+03	1.237249E-14	1.209605E-16
6.420000E+03	1.238921E-14	1.234250E-16
6.430000E+03	1.239937E-14	1.258466E-16
6.440000E+03	1.240274E-14	1.282159E-16
6.450000E+03	1.239929E-14	1.305251E-16
6.460000E+03	1.238880E-14	1.327648E-16
6.470000E+03	1.237128E-14	1.349281E-16
6.480000E+03	1.234675E-14	1.370082E-16
6.490000E+03	1.231540E-14	1.390006E-16
6.500000E+03	1.227727E-14	1.408995E-16
6.510000E+03	1.223238E-14	1.426986E-16
6.520000E+03	1.218116E-14	1.443972E-16
6.530000E+03	1.212347E-14	1.459881E-16
6.540000E+03	1.205977E-14	1.474712E-16
6.550000E+03	1.199017E-14	1.488430E-16
6.560000E+03	1.191514E-14	1.501046E-16
6.570000E+03	1.183485E-14	1.512537E-16
6.580000E+03	1.174960E-14	1.522903E-16
6.590000E+03	1.165974E-14	1.532152E-16
6.600000E+03	1.156584E-14	1.540324E-16
6.610000E+03	1.146787E-14	1.547388E-16
6.620000E+03	1.136657E-14	1.553416E-16
6.630000E+03	1.126215E-14	1.558414E-16
6.640000E+03	1.115495E-14	1.562411E-16
6.650000E+03	1.104554E-14	1.565470E-16
6.660000E+03	1.093390E-14	1.567573E-16
6.670000E+03	1.082073E-14	1.568813E-16
6.680000E+03	1.070622E-14	1.569207E-16
6.690000E+03	1.059067E-14	1.568796E-16
6.700000E+03	1.047458E-14	1.567651E-16
6.710000E+03	1.035806E-14	1.565789E-16
6.720000E+03	1.024141E-14	1.563255E-16
6.730000E+03	1.012488E-14	1.560092E-16
6.740000E+03	1.000890E-14	1.556371E-16
6.750000E+03	9.893509E-15	1.552106E-16
6.760000E+03	9.778944E-15	1.547341E-16
6.770000E+03	9.665557E-15	1.542141E-16
6.780000E+03	9.553354E-15	1.536518E-16
6.790000E+03	9.442486E-15	1.530506E-16
6.800000E+03	9.333280E-15	1.524172E-16
6.810000E+03	9.225523E-15	1.517492E-16
6.820000E+03	9.119652E-15	1.510552E-16
6.830000E+03	9.015762E-15	1.503380E-16
6.840000E+03	8.913611E-15	1.495949E-16
6.850000E+03	8.813589E-15	1.488339E-16
6.860000E+03	8.715590E-15	1.480546E-16
6.870000E+03	8.619658E-15	1.472590E-16
6.880000E+03	8.525823E-15	1.464491E-16
6.890000E+03	8.434111E-15	1.456266E-16
6.900000E+03	8.344684E-15	1.447956E-16
6.910000E+03	8.257234E-15	1.439522E-16
6.920000E+03	8.172065E-15	1.431029E-16
6.930000E+03	8.088853E-15	1.422433E-16
6.940000E+03	8.007878E-15	1.413794E-16
6.950000E+03	7.928806E-15	1.405066E-16
6.960000E+03	7.851897E-15	1.396306E-16
6.970000E+03	7.776806E-15	1.387464E-16
6.980000E+03	7.703625E-15	1.378567E-16
6.990000E+03	7.632293E-15	1.369613E-16
7.000000E+03	7.562594E-15	1.360574E-16
7.010000E+03	7.494744E-15	1.351498E-16
7.020000E+03	7.428366E-15	1.342325E-16
7.030000E+03	7.363372E-15	1.333049E-16
7.040000E+03	7.299809E-15	1.323687E-16
7.050000E+03	7.237575E-15	1.314226E-16
7.060000E+03	7.176416E-15	1.304630E-16
7.070000E+03	7.116220E-15	1.294885E-16
7.080000E+03	7.057010E-15	1.285002E-16
7.090000E+03	6.998521E-15	1.274940E-16
7.100000E+03	6.940628E-15	1.264683E-16
7.110000E+03	6.883204E-15	1.254214E-16
7.120000E+03	6.826259E-15	1.243542E-16
7.130000E+03	6.769385E-15	1.232599E-16
7.140000E+03	6.712735E-15	1.221421E-16
7.150000E+03	6.655905E-15	1.209939E-16
7.160000E+03	6.598916E-15	1.198165E-16
7.170000E+03	6.541652E-15	1.186085E-16
7.180000E+03	6.484005E-15	1.173688E-16
7.190000E+03	6.425743E-15	1.160937E-16
7.200000E+03	6.366914E-15	1.147851E-16
7.210000E+03	6.307442E-15	1.134424E-16
7.220000E+03	6.247130E-15	1.120628E-16
7.230000E+03	6.185929E-15	1.106466E-16
7.240000E+03	6.123942E-15	1.091963E-16
7.250000E+03	6.061019E-15	1.077103E-16
7.260000E+03	5.997159E-15	1.061897E-16
7.270000E+03	5.932513E-15	1.046380E-16
7.280000E+03	5.866985E-15	1.030547E-16
7.290000E+03	5.800626E-15	1.014418E-16
7.300000E+03	5.733760E-15	9.980599E-17
7.310000E+03	5.666089E-15	9.814318E-17
7.320000E+03	5.598091E-15	9.646273E-17
7.330000E+03	5.529628E-15	9.476333E-17
7.340000E+03	5.461069E-15	9.305239E-17
7.350000E+03	5.392427E-15	9.133110E-17
7.360000E+03	5.323963E-15	8.960486E-17
7.370000E+03	5.255945E-15	8.787909E-17
7.380000E+03	5.188401E-15	8.615509E-17
7.390000E+03	5.121842E-15	8.444209E-17
7.400000E+03	5.056295E-15	8.274115E-17
7.410000E+03	4.991908E-15	8.105528E-17
7.420000E+03	4.929288E-15	7.939476E-17
7.430000E+03	4.868217E-15	7.775639E-17
7.440000E+03	4.809167E-15	7.614794E-17
7.450000E+03	4.752255E-15	7.457129E-17
7.460000E+03	4.697357E-15	7.302454E-17
7.470000E+03	4.644463E-15	7.150753E-17
7.480000E+03	4.593665E-15	7.002160E-17
7.490000E+03	4.544930E-15	6.856619E-17
7.500000E+03	4.498325E-15	6.714217E-17
7.510000E+03	4.453798E-15	6.574855E-17
7.520000E+03	4.411283E-15	6.438418E-17
7.530000E+03	4.370809E-15	6.304933E-17
7.540000E+03	4.332394E-15	6.174400E-17
7.550000E+03	4.295934E-15	6.046647E-17
7.560000E+03	4.261524E-15	5.921787E-17
7.570000E+03	4.228930E-15	5.799470E-17
7.580000E+03	4.198327E-15	5.679917E-17
7.590000E+03	4.169563E-15	5.562901E-17
7.600000E+03	4.142475E-15	5.448189E-17
7.610000E+03	4.117097E-15	5.335824E-17
7.620000E+03	4.093249E-15	5.225566E-17
7.630000E+03	4.070946E-15	5.117444E-17
7.640000E+03	4.050094E-15	5.011350E-17
7.650000E+03	4.030485E-15	4.907054E-17
7.660000E+03	4.012118E-15	4.804589E-17
7.670000E+03	3.994773E-15	4.703742E-17
7.680000E+03	3.978437E-15	4.604563E-17
7.690000E+03	3.962989E-15	4.506989E-17
7.700000E+03	3.948200E-15	4.410856E-17
7.710000E+03	3.934051E-15	4.316256E-17
7.720000E+03	3.920414E-15	4.223181E-17
7.730000E+03	3.907162E-15	4.131647E-17
7.740000E+03	3.894173E-15	4.041695E-17
7.750000E+03	3.881320E-15	3.953391E-17
7.760000E+03	3.868486E-15	3.866830E-17
