#wls	flux	fluxerr
1.600000E+03	7.598352E-15	5.735004E-16
1.640000E+03	6.048491E-15	4.503024E-16
1.680000E+03	4.776541E-15	3.506843E-16
1.720000E+03	3.745589E-15	2.711291E-16
1.760000E+03	2.919144E-15	2.082946E-16
1.800000E+03	2.263907E-15	1.592090E-16
1.840000E+03	1.749978E-15	1.212708E-16
1.880000E+03	1.350606E-15	9.221551E-17
1.920000E+03	1.043179E-15	7.016693E-17
1.960000E+03	8.084577E-16	5.356579E-17
2.000000E+03	6.309069E-16	4.117400E-17
2.040000E+03	4.979814E-16	3.200982E-17
2.080000E+03	3.999600E-16	2.532207E-17
2.120000E+03	3.294242E-16	2.054317E-17
2.160000E+03	2.810676E-16	1.726579E-17
2.200000E+03	2.510755E-16	1.519489E-17
2.240000E+03	2.372187E-16	1.414598E-17
2.280000E+03	2.387005E-16	1.402862E-17
2.320000E+03	2.560815E-16	1.483557E-17
2.360000E+03	2.916097E-16	1.665627E-17
2.400000E+03	3.498033E-16	1.970277E-17
2.440000E+03	4.378406E-16	2.432259E-17
2.480000E+03	5.657878E-16	3.100172E-17
2.520000E+03	7.464626E-16	4.034693E-17
2.560000E+03	9.943756E-16	5.301981E-17
2.600000E+03	1.323402E-15	6.960859E-17
2.640000E+03	1.743982E-15	9.048509E-17
2.680000E+03	2.260308E-15	1.156724E-16
2.720000E+03	2.868566E-15	1.447774E-16
2.760000E+03	3.554969E-15	1.769188E-16
2.800000E+03	4.295318E-15	2.107407E-16
2.840000E+03	5.056811E-15	2.445350E-16
2.880000E+03	5.800950E-15	2.764111E-16
2.920000E+03	6.490424E-15	3.046403E-16
2.960000E+03	7.094510E-15	3.279036E-16
3.000000E+03	7.592726E-15	3.454373E-16
3.010000E+03	7.699229E-15	3.488823E-16
3.020000E+03	7.798362E-15	3.519527E-16
3.030000E+03	7.890229E-15	3.546568E-16
3.040000E+03	7.974796E-15	3.569970E-16
3.050000E+03	8.052036E-15	3.589760E-16
3.060000E+03	8.122387E-15	3.606170E-16
3.070000E+03	8.185499E-15	3.619083E-16
3.080000E+03	8.241873E-15	3.628758E-16
3.090000E+03	8.291621E-15	3.635280E-16
3.100000E+03	8.335089E-15	3.638836E-16
3.110000E+03	8.372450E-15	3.639535E-16
3.120000E+03	8.404096E-15	3.637581E-16
3.130000E+03	8.430233E-15	3.633092E-16
3.140000E+03	8.451098E-15	3.626198E-16
3.150000E+03	8.467140E-15	3.617118E-16
3.160000E+03	8.478786E-15	3.606056E-16
3.170000E+03	8.486321E-15	3.593155E-16
3.180000E+03	8.490013E-15	3.578550E-16
3.190000E+03	8.490334E-15	3.562457E-16
3.200000E+03	8.487741E-15	3.545085E-16
3.210000E+03	8.482519E-15	3.526564E-16
3.220000E+03	8.474974E-15	3.507036E-16
3.230000E+03	8.465394E-15	3.486630E-16
3.240000E+03	8.454399E-15	3.465609E-16
3.250000E+03	8.442274E-15	3.444097E-16
3.260000E+03	8.429305E-15	3.422215E-16
3.270000E+03	8.415779E-15	3.400080E-16
3.280000E+03	8.402127E-15	3.377869E-16
3.290000E+03	8.388484E-15	3.355634E-16
3.300000E+03	8.375552E-15	3.333653E-16
3.310000E+03	8.363314E-15	3.311914E-16
3.320000E+03	8.352043E-15	3.290518E-16
3.330000E+03	8.342271E-15	3.269667E-16
3.340000E+03	8.334128E-15	3.249401E-16
3.350000E+03	8.327857E-15	3.229802E-16
3.360000E+03	8.323728E-15	3.210963E-16
3.370000E+03	8.321991E-15	3.192963E-16
3.380000E+03	8.322893E-15	3.175882E-16
3.390000E+03	8.326570E-15	3.159753E-16
3.400000E+03	8.333526E-15	3.144747E-16
3.410000E+03	8.343652E-15	3.130801E-16
3.420000E+03	8.357221E-15	3.117994E-16
3.430000E+03	8.374615E-15	3.106446E-16
3.440000E+03	8.395884E-15	3.096148E-16
3.450000E+03	8.421105E-15	3.087102E-16
3.460000E+03	8.450686E-15	3.079428E-16
3.470000E+03	8.484734E-15	3.073135E-16
3.480000E+03	8.523381E-15	3.068238E-16
3.490000E+03	8.566904E-15	3.064804E-16
3.500000E+03	8.615493E-15	3.062866E-16
3.510000E+03	8.669185E-15	3.062401E-16
3.520000E+03	8.728333E-15	3.063494E-16
3.530000E+03	8.793013E-15	3.066130E-16
3.540000E+03	8.863435E-15	3.070339E-16
3.550000E+03	8.939540E-15	3.076055E-16
3.560000E+03	9.021590E-15	3.083322E-16
3.570000E+03	9.109653E-15	3.092117E-16
3.580000E+03	9.203733E-15	3.102391E-16
3.590000E+03	9.304135E-15	3.114199E-16
3.600000E+03	9.410969E-15	3.127524E-16
3.610000E+03	9.524360E-15	3.142354E-16
3.620000E+03	9.644722E-15	3.158772E-16
3.630000E+03	9.772438E-15	3.176841E-16
3.640000E+03	9.908091E-15	3.196690E-16
3.650000E+03	1.005196E-14	3.218341E-16
3.660000E+03	1.020460E-14	3.241900E-16
3.670000E+03	1.036646E-14	3.267433E-16
3.680000E+03	1.053823E-14	3.295080E-16
3.690000E+03	1.072013E-14	3.324823E-16
3.700000E+03	1.091290E-14	3.356802E-16
3.710000E+03	1.111679E-14	3.390996E-16
3.720000E+03	1.133228E-14	3.427460E-16
3.730000E+03	1.155983E-14	3.466223E-16
3.740000E+03	1.179973E-14	3.507270E-16
3.750000E+03	1.205224E-14	3.550565E-16
3.760000E+03	1.231773E-14	3.596104E-16
3.770000E+03	1.259621E-14	3.643774E-16
3.780000E+03	1.288806E-14	3.693559E-16
3.790000E+03	1.319299E-14	3.745262E-16
3.800000E+03	1.351119E-14	3.798813E-16
3.810000E+03	1.384232E-14	3.853993E-16
3.820000E+03	1.418625E-14	3.910645E-16
3.830000E+03	1.454266E-14	3.968560E-16
3.840000E+03	1.491086E-14	4.027431E-16
3.850000E+03	1.529052E-14	4.087058E-16
3.860000E+03	1.568087E-14	4.147120E-16
3.870000E+03	1.608097E-14	4.207271E-16
3.880000E+03	1.649005E-14	4.267212E-16
3.890000E+03	1.690683E-14	4.326524E-16
3.900000E+03	1.733049E-14	4.384917E-16
3.910000E+03	1.775952E-14	4.441944E-16
3.920000E+03	1.819279E-14	4.497268E-16
3.930000E+03	1.862881E-14	4.550474E-16
3.940000E+03	1.906602E-14	4.601152E-16
3.950000E+03	1.950308E-14	4.648968E-16
3.960000E+03	1.993824E-14	4.693502E-16
3.970000E+03	2.037014E-14	4.734451E-16
3.980000E+03	2.079715E-14	4.771469E-16
3.990000E+03	2.121764E-14	4.804230E-16
4.000000E+03	2.163018E-14	4.832479E-16
4.010000E+03	2.203342E-14	4.855992E-16
4.020000E+03	2.242570E-14	4.874501E-16
4.030000E+03	2.280581E-14	4.887860E-16
4.040000E+03	2.317260E-14	4.895949E-16
4.050000E+03	2.352487E-14	4.898657E-16
4.060000E+03	2.386130E-14	4.895868E-16
4.070000E+03	2.418124E-14	4.887621E-16
4.080000E+03	2.448378E-14	4.873911E-16
4.090000E+03	2.476811E-14	4.854772E-16
4.100000E+03	2.503350E-14	4.830267E-16
4.110000E+03	2.527934E-14	4.800493E-16
4.120000E+03	2.550511E-14	4.765572E-16
4.130000E+03	2.571075E-14	4.725730E-16
4.140000E+03	2.589571E-14	4.681097E-16
4.150000E+03	2.605972E-14	4.631870E-16
4.160000E+03	2.620254E-14	4.578259E-16
4.170000E+03	2.632445E-14	4.520565E-16
4.180000E+03	2.642513E-14	4.458993E-16
4.190000E+03	2.650479E-14	4.393833E-16
4.200000E+03	2.656341E-14	4.325350E-16
4.210000E+03	2.660127E-14	4.253853E-16
4.220000E+03	2.661851E-14	4.179625E-16
4.230000E+03	2.661570E-14	4.103023E-16
4.240000E+03	2.659307E-14	4.024341E-16
4.250000E+03	2.655131E-14	3.943943E-16
4.260000E+03	2.649076E-14	3.862135E-16
4.270000E+03	2.641223E-14	3.779285E-16
4.280000E+03	2.631664E-14	3.695768E-16
4.290000E+03	2.620473E-14	3.611925E-16
4.300000E+03	2.607755E-14	3.528129E-16
4.310000E+03	2.593649E-14	3.444784E-16
4.320000E+03	2.578259E-14	3.362232E-16
4.330000E+03	2.561725E-14	3.280851E-16
4.340000E+03	2.544203E-14	3.201018E-16
4.350000E+03	2.525800E-14	3.123035E-16
4.360000E+03	2.506713E-14	3.047297E-16
4.370000E+03	2.487109E-14	2.974137E-16
4.380000E+03	2.467200E-14	2.903917E-16
4.390000E+03	2.447217E-14	2.837001E-16
4.400000E+03	2.427384E-14	2.773720E-16
4.410000E+03	2.407905E-14	2.714361E-16
4.420000E+03	2.389024E-14	2.659238E-16
4.430000E+03	2.370913E-14	2.608565E-16
4.440000E+03	2.353768E-14	2.562564E-16
4.450000E+03	2.337781E-14	2.521444E-16
4.460000E+03	2.323092E-14	2.485337E-16
4.470000E+03	2.309792E-14	2.454318E-16
4.480000E+03	2.297931E-14	2.428324E-16
4.490000E+03	2.287468E-14	2.407099E-16
4.500000E+03	2.278309E-14	2.390327E-16
4.510000E+03	2.270369E-14	2.377700E-16
4.520000E+03	2.263475E-14	2.368829E-16
4.530000E+03	2.257460E-14	2.363326E-16
4.540000E+03	2.252151E-14	2.360803E-16
4.550000E+03	2.247364E-14	2.360865E-16
4.560000E+03	2.242941E-14	2.363140E-16
4.570000E+03	2.238708E-14	2.367248E-16
4.580000E+03	2.234500E-14	2.372817E-16
4.590000E+03	2.230158E-14	2.379485E-16
4.600000E+03	2.225561E-14	2.386932E-16
4.610000E+03	2.220580E-14	2.394836E-16
4.620000E+03	2.215082E-14	2.402871E-16
4.630000E+03	2.208992E-14	2.410781E-16
4.640000E+03	2.202232E-14	2.418313E-16
4.650000E+03	2.194745E-14	2.425242E-16
4.660000E+03	2.186454E-14	2.431328E-16
4.670000E+03	2.177357E-14	2.436424E-16
4.680000E+03	2.167413E-14	2.440347E-16
4.690000E+03	2.156657E-14	2.443009E-16
4.700000E+03	2.145136E-14	2.444346E-16
4.710000E+03	2.132877E-14	2.444282E-16
4.720000E+03	2.119972E-14	2.442826E-16
4.730000E+03	2.106507E-14	2.439991E-16
4.740000E+03	2.092575E-14	2.435811E-16
4.750000E+03	2.078273E-14	2.430334E-16
4.760000E+03	2.063706E-14	2.423628E-16
4.770000E+03	2.048943E-14	2.415726E-16
4.780000E+03	2.034088E-14	2.406713E-16
4.790000E+03	2.019248E-14	2.396685E-16
4.800000E+03	2.004505E-14	2.385716E-16
4.810000E+03	1.989943E-14	2.373887E-16
4.820000E+03	1.975658E-14	2.361298E-16
4.830000E+03	1.961705E-14	2.348007E-16
4.840000E+03	1.948169E-14	2.334112E-16
4.850000E+03	1.935116E-14	2.319686E-16
4.860000E+03	1.922583E-14	2.304776E-16
4.870000E+03	1.910644E-14	2.289471E-16
4.880000E+03	1.899346E-14	2.273830E-16
4.890000E+03	1.888734E-14	2.257911E-16
4.900000E+03	1.878846E-14	2.241761E-16
4.910000E+03	1.869705E-14	2.225410E-16
4.920000E+03	1.861373E-14	2.208937E-16
4.930000E+03	1.853849E-14	2.192342E-16
4.940000E+03	1.847177E-14	2.175675E-16
4.950000E+03	1.841383E-14	2.158967E-16
4.960000E+03	1.836470E-14	2.142222E-16
4.970000E+03	1.832479E-14	2.125480E-16
4.980000E+03	1.829429E-14	2.108760E-16
4.990000E+03	1.827335E-14	2.092072E-16
5.000000E+03	1.826181E-14	2.075388E-16
5.010000E+03	1.826029E-14	2.058769E-16
5.020000E+03	1.826839E-14	2.042158E-16
5.030000E+03	1.828651E-14	2.025586E-16
5.040000E+03	1.831471E-14	2.009044E-16
5.050000E+03	1.835263E-14	1.992477E-16
5.060000E+03	1.840038E-14	1.975885E-16
5.070000E+03	1.845808E-14	1.959261E-16
5.080000E+03	1.852519E-14	1.942535E-16
5.090000E+03	1.860169E-14	1.925692E-16
5.100000E+03	1.868731E-14	1.908690E-16
5.110000E+03	1.878169E-14	1.891486E-16
5.120000E+03	1.888425E-14	1.874017E-16
5.130000E+03	1.899452E-14	1.856237E-16
5.140000E+03	1.911211E-14	1.838115E-16
5.150000E+03	1.923623E-14	1.819589E-16
5.160000E+03	1.936619E-14	1.800619E-16
5.170000E+03	1.950126E-14	1.781169E-16
5.180000E+03	1.964063E-14	1.761214E-16
5.190000E+03	1.978328E-14	1.740718E-16
5.200000E+03	1.992854E-14	1.719699E-16
5.210000E+03	2.007552E-14	1.698170E-16
5.220000E+03	2.022312E-14	1.676145E-16
5.230000E+03	2.037045E-14	1.653676E-16
5.240000E+03	2.051683E-14	1.630856E-16
5.250000E+03	2.066119E-14	1.607767E-16
5.260000E+03	2.080251E-14	1.584519E-16
5.270000E+03	2.094020E-14	1.561282E-16
5.280000E+03	2.107354E-14	1.538235E-16
5.290000E+03	2.120181E-14	1.515584E-16
5.300000E+03	2.132418E-14	1.493547E-16
5.310000E+03	2.144003E-14	1.472380E-16
5.320000E+03	2.154879E-14	1.452359E-16
5.330000E+03	2.164996E-14	1.433780E-16
5.340000E+03	2.174303E-14	1.416945E-16
5.350000E+03	2.182736E-14	1.402152E-16
5.360000E+03	2.190273E-14	1.389721E-16
5.370000E+03	2.196859E-14	1.379935E-16
5.380000E+03	2.202465E-14	1.373071E-16
5.390000E+03	2.207043E-14	1.369361E-16
5.400000E+03	2.210591E-14	1.369002E-16
5.410000E+03	2.213050E-14	1.371915E-16
5.420000E+03	2.214349E-14	1.377854E-16
5.430000E+03	2.214388E-14	1.386508E-16
5.440000E+03	2.213079E-14	1.397531E-16
5.450000E+03	2.210337E-14	1.410546E-16
5.460000E+03	2.206147E-14	1.425199E-16
5.470000E+03	2.200444E-14	1.441094E-16
5.480000E+03	2.193265E-14	1.457895E-16
5.490000E+03	2.184631E-14	1.475262E-16
5.500000E+03	2.174628E-14	1.492909E-16
5.510000E+03	2.163351E-14	1.510574E-16
5.520000E+03	2.150884E-14	1.528008E-16
5.530000E+03	2.137385E-14	1.545037E-16
5.540000E+03	2.122947E-14	1.561469E-16
5.550000E+03	2.107666E-14	1.577139E-16
5.560000E+03	2.091660E-14	1.591924E-16
5.570000E+03	2.075066E-14	1.605740E-16
5.580000E+03	2.057978E-14	1.618495E-16
5.590000E+03	2.040508E-14	1.630137E-16
5.600000E+03	2.022764E-14	1.640629E-16
5.610000E+03	2.004849E-14	1.649954E-16
5.620000E+03	1.986860E-14	1.658104E-16
5.630000E+03	1.968889E-14	1.665090E-16
5.640000E+03	1.950997E-14	1.670906E-16
5.650000E+03	1.933281E-14	1.675593E-16
5.660000E+03	1.915788E-14	1.679160E-16
5.670000E+03	1.898594E-14	1.681652E-16
5.680000E+03	1.881723E-14	1.683077E-16
5.690000E+03	1.865214E-14	1.683461E-16
5.700000E+03	1.849108E-14	1.682841E-16
5.710000E+03	1.833397E-14	1.681215E-16
5.720000E+03	1.818103E-14	1.678610E-16
5.730000E+03	1.803195E-14	1.675007E-16
5.740000E+03	1.788650E-14	1.670402E-16
5.750000E+03	1.774437E-14	1.664779E-16
5.760000E+03	1.760552E-14	1.658154E-16
5.770000E+03	1.746884E-14	1.650441E-16
5.780000E+03	1.733431E-14	1.641662E-16
5.790000E+03	1.720070E-14	1.631723E-16
5.800000E+03	1.706784E-14	1.620636E-16
5.810000E+03	1.693476E-14	1.608336E-16
5.820000E+03	1.680051E-14	1.594765E-16
5.830000E+03	1.666465E-14	1.579916E-16
5.840000E+03	1.652620E-14	1.563735E-16
5.850000E+03	1.638459E-14	1.546212E-16
5.860000E+03	1.623874E-14	1.527290E-16
5.870000E+03	1.608854E-14	1.507014E-16
5.880000E+03	1.593305E-14	1.485352E-16
5.890000E+03	1.577216E-14	1.462358E-16
5.900000E+03	1.560514E-14	1.438031E-16
5.910000E+03	1.543210E-14	1.412456E-16
5.920000E+03	1.525290E-14	1.385702E-16
5.930000E+03	1.506757E-14	1.357852E-16
5.940000E+03	1.487603E-14	1.328990E-16
5.950000E+03	1.467894E-14	1.299269E-16
5.960000E+03	1.447667E-14	1.268818E-16
5.970000E+03	1.426957E-14	1.237768E-16
5.980000E+03	1.405859E-14	1.206304E-16
5.990000E+03	1.384429E-14	1.174579E-16
6.000000E+03	1.362764E-14	1.142780E-16
6.010000E+03	1.340965E-14	1.111099E-16
6.020000E+03	1.319106E-14	1.079701E-16
6.030000E+03	1.297298E-14	1.048785E-16
6.040000E+03	1.275651E-14	1.018543E-16
6.050000E+03	1.254275E-14	9.891672E-17
6.060000E+03	1.233247E-14	9.608193E-17
6.070000E+03	1.212669E-14	9.336797E-17
6.080000E+03	1.192658E-14	9.079368E-17
6.090000E+03	1.173274E-14	8.837333E-17
6.100000E+03	1.154617E-14	8.612400E-17
6.110000E+03	1.136738E-14	8.405860E-17
6.120000E+03	1.119732E-14	8.219341E-17
6.130000E+03	1.103634E-14	8.053954E-17
6.140000E+03	1.088480E-14	7.910812E-17
6.150000E+03	1.074329E-14	7.791126E-17
6.160000E+03	1.061187E-14	7.695690E-17
6.170000E+03	1.049052E-14	7.625168E-17
6.180000E+03	1.037959E-14	7.580406E-17
6.190000E+03	1.027904E-14	7.561892E-17
6.200000E+03	1.018861E-14	7.569466E-17
6.210000E+03	1.010830E-14	7.602281E-17
6.220000E+03	1.003756E-14	7.659012E-17
6.230000E+03	9.976231E-15	7.738595E-17
6.240000E+03	9.923947E-15	7.839840E-17
6.250000E+03	9.880127E-15	7.961409E-17
6.260000E+03	9.844318E-15	8.102096E-17
6.270000E+03	9.815831E-15	8.260538E-17
6.280000E+03	9.794245E-15	8.435631E-17
6.290000E+03	9.778944E-15	8.626146E-17
6.300000E+03	9.769310E-15	8.830888E-17
6.310000E+03	9.764384E-15	9.048366E-17
6.320000E+03	9.763920E-15	9.277763E-17
6.330000E+03	9.766961E-15	9.517613E-17
6.340000E+03	9.773127E-15	9.767005E-17
6.350000E+03	9.781630E-15	1.002463E-16
6.360000E+03	9.791869E-15	1.028935E-16
6.370000E+03	9.803450E-15	1.056025E-16
6.380000E+03	9.816012E-15	1.083644E-16
6.390000E+03	9.828949E-15	1.111677E-16
6.400000E+03	9.841924E-15	1.140037E-16
6.410000E+03	9.854387E-15	1.168612E-16
6.420000E+03	9.865555E-15	1.197258E-16
6.430000E+03	9.874581E-15	1.225818E-16
6.440000E+03	9.880931E-15	1.254168E-16
6.450000E+03	9.883694E-15	1.282131E-16
6.460000E+03	9.882344E-15	1.309574E-16
6.470000E+03	9.876443E-15	1.336371E-16
6.480000E+03	9.865478E-15	1.362385E-16
6.490000E+03	9.849158E-15	1.387505E-16
6.500000E+03	9.827274E-15	1.411631E-16
6.510000E+03	9.799378E-15	1.434629E-16
6.520000E+03	9.765517E-15	1.456435E-16
6.530000E+03	9.725672E-15	1.476977E-16
6.540000E+03	9.679850E-15	1.496190E-16
6.550000E+03	9.627818E-15	1.513975E-16
6.560000E+03	9.569852E-15	1.530310E-16
6.570000E+03	9.506115E-15	1.545163E-16
6.580000E+03	9.436685E-15	1.558492E-16
6.590000E+03	9.361804E-15	1.570282E-16
6.600000E+03	9.281925E-15	1.580564E-16
6.610000E+03	9.197238E-15	1.589324E-16
6.620000E+03	9.108114E-15	1.596589E-16
6.630000E+03	9.014942E-15	1.602391E-16
6.640000E+03	8.918144E-15	1.606775E-16
6.650000E+03	8.818154E-15	1.609795E-16
6.660000E+03	8.715275E-15	1.611485E-16
6.670000E+03	8.610107E-15	1.611939E-16
6.680000E+03	8.503102E-15	1.611232E-16
6.690000E+03	8.394711E-15	1.609440E-16
6.700000E+03	8.285233E-15	1.606618E-16
6.710000E+03	8.175374E-15	1.602905E-16
6.720000E+03	8.065266E-15	1.598329E-16
6.730000E+03	7.955300E-15	1.592977E-16
6.740000E+03	7.846112E-15	1.586984E-16
6.750000E+03	7.737771E-15	1.580380E-16
6.760000E+03	7.630723E-15	1.573270E-16
6.770000E+03	7.525120E-15	1.565702E-16
6.780000E+03	7.421476E-15	1.557802E-16
6.790000E+03	7.319754E-15	1.549583E-16
6.800000E+03	7.220278E-15	1.541134E-16
6.810000E+03	7.123213E-15	1.532513E-16
6.820000E+03	7.028696E-15	1.523772E-16
6.830000E+03	6.936834E-15	1.514958E-16
6.840000E+03	6.847715E-15	1.506111E-16
6.850000E+03	6.761277E-15	1.497240E-16
6.860000E+03	6.677799E-15	1.488431E-16
6.870000E+03	6.597059E-15	1.479656E-16
6.880000E+03	6.519294E-15	1.470989E-16
6.890000E+03	6.444363E-15	1.462420E-16
6.900000E+03	6.372115E-15	1.453934E-16
6.910000E+03	6.302737E-15	1.445592E-16
6.920000E+03	6.236046E-15	1.437372E-16
6.930000E+03	6.171973E-15	1.429276E-16
6.940000E+03	6.110432E-15	1.421299E-16
6.950000E+03	6.051448E-15	1.413463E-16
6.960000E+03	5.994695E-15	1.405707E-16
6.970000E+03	5.940295E-15	1.398074E-16
6.980000E+03	5.888026E-15	1.390523E-16
6.990000E+03	5.837775E-15	1.383042E-16
7.000000E+03	5.789424E-15	1.375612E-16
7.010000E+03	5.742966E-15	1.368242E-16
7.020000E+03	5.698169E-15	1.360888E-16
7.030000E+03	5.654909E-15	1.353529E-16
7.040000E+03	5.613174E-15	1.346170E-16
7.050000E+03	5.572732E-15	1.338764E-16
7.060000E+03	5.533568E-15	1.331314E-16
7.070000E+03	5.495452E-15	1.323773E-16
7.080000E+03	5.458263E-15	1.316116E-16
7.090000E+03	5.421991E-15	1.308350E-16
7.100000E+03	5.386517E-15	1.300449E-16
7.110000E+03	5.351623E-15	1.292368E-16
7.120000E+03	5.317409E-15	1.284137E-16
7.130000E+03	5.283450E-15	1.275657E-16
7.140000E+03	5.249961E-15	1.266987E-16
7.150000E+03	5.216630E-15	1.258055E-16
7.160000E+03	5.183470E-15	1.248871E-16
7.170000E+03	5.150500E-15	1.239445E-16
7.180000E+03	5.117424E-15	1.229711E-16
7.190000E+03	5.084272E-15	1.219681E-16
7.200000E+03	5.051080E-15	1.209371E-16
7.210000E+03	5.017576E-15	1.198720E-16
7.220000E+03	4.983916E-15	1.187773E-16
7.230000E+03	4.950053E-15	1.176524E-16
7.240000E+03	4.915844E-15	1.164947E-16
7.250000E+03	4.881259E-15	1.153042E-16
7.260000E+03	4.846279E-15	1.140810E-16
7.270000E+03	4.811098E-15	1.128305E-16
7.280000E+03	4.775402E-15	1.115460E-16
7.290000E+03	4.739507E-15	1.102359E-16
7.300000E+03	4.703117E-15	1.088939E-16
7.310000E+03	4.666564E-15	1.075285E-16
7.320000E+03	4.629571E-15	1.061343E-16
7.330000E+03	4.592382E-15	1.047175E-16
7.340000E+03	4.554940E-15	1.032779E-16
7.350000E+03	4.517300E-15	1.018173E-16
7.360000E+03	4.479518E-15	1.003381E-16
7.370000E+03	4.441459E-15	9.883790E-17
7.380000E+03	4.403394E-15	9.732369E-17
7.390000E+03	4.365096E-15	9.579130E-17
7.400000E+03	4.326843E-15	9.424766E-17
7.410000E+03	4.288514E-15	9.269099E-17
7.420000E+03	4.250093E-15	9.112180E-17
7.430000E+03	4.211662E-15	8.954272E-17
7.440000E+03	4.173498E-15	8.796041E-17
7.450000E+03	4.135578E-15	8.637516E-17
7.460000E+03	4.098270E-15	8.479524E-17
7.470000E+03	4.061447E-15	8.321859E-17
7.480000E+03	4.025368E-15	8.165103E-17
7.490000E+03	3.990185E-15	8.009601E-17
7.500000E+03	3.955951E-15	7.855490E-17
7.510000E+03	3.922711E-15	7.702883E-17
7.520000E+03	3.890503E-15	7.551875E-17
7.530000E+03	3.859455E-15	7.402728E-17
7.540000E+03	3.829497E-15	7.255318E-17
7.550000E+03	3.800739E-15	7.109864E-17
7.560000E+03	3.773193E-15	6.966389E-17
7.570000E+03	3.746767E-15	6.824726E-17
7.580000E+03	3.721456E-15	6.684881E-17
7.590000E+03	3.697342E-15	6.547004E-17
7.600000E+03	3.674405E-15	6.411066E-17
7.610000E+03	3.652432E-15	6.276709E-17
7.620000E+03	3.631575E-15	6.144219E-17
7.630000E+03	3.611700E-15	6.013390E-17
7.640000E+03	3.592760E-15	5.884177E-17
7.650000E+03	3.574607E-15	5.756386E-17
7.660000E+03	3.557366E-15	5.630271E-17
7.670000E+03	3.540875E-15	5.505643E-17
7.680000E+03	3.524970E-15	5.382324E-17
7.690000E+03	3.509757E-15	5.260577E-17
7.700000E+03	3.494965E-15	5.140106E-17
7.710000E+03	3.480597E-15	5.021055E-17
7.720000E+03	3.466557E-15	4.903438E-17
7.730000E+03	3.452747E-15	4.787294E-17
7.740000E+03	3.439063E-15	4.672680E-17
7.750000E+03	3.425492E-15	4.559803E-17
7.760000E+03	3.411738E-15	4.448525E-17
