#wls	flux	fluxerr
1.600000E+03	6.026588E-15	5.358094E-16
1.640000E+03	4.846250E-15	4.255342E-16
1.680000E+03	3.872793E-15	3.357815E-16
1.720000E+03	3.077545E-15	2.634262E-16
1.760000E+03	2.434758E-15	2.057102E-16
1.800000E+03	1.920114E-15	1.601037E-16
1.840000E+03	1.511724E-15	1.243819E-16
1.880000E+03	1.190355E-15	9.663050E-17
1.920000E+03	9.393729E-16	7.522807E-17
1.960000E+03	7.449800E-16	5.885068E-17
2.000000E+03	5.957110E-16	4.641713E-17
2.040000E+03	4.822553E-16	3.706273E-17
2.080000E+03	3.973358E-16	3.011829E-17
2.120000E+03	3.354484E-16	2.507943E-17
2.160000E+03	2.925722E-16	2.157577E-17
2.200000E+03	2.658569E-16	1.934010E-17
2.240000E+03	2.536834E-16	1.820674E-17
2.280000E+03	2.555816E-16	1.809916E-17
2.320000E+03	2.720927E-16	1.901486E-17
2.360000E+03	3.050152E-16	2.103782E-17
2.400000E+03	3.577499E-16	2.435602E-17
2.440000E+03	4.356494E-16	2.927804E-17
2.480000E+03	5.457838E-16	3.620923E-17
2.520000E+03	6.968979E-16	4.564169E-17
2.560000E+03	8.983684E-16	5.807981E-17
2.600000E+03	1.159014E-15	7.396139E-17
2.640000E+03	1.484873E-15	9.351943E-17
2.680000E+03	1.877838E-15	1.167079E-16
2.720000E+03	2.334194E-15	1.431282E-16
2.760000E+03	2.843684E-15	1.719946E-16
2.800000E+03	3.388929E-15	2.021263E-16
2.840000E+03	3.947567E-15	2.321034E-16
2.880000E+03	4.493723E-15	2.603741E-16
2.920000E+03	5.002552E-15	2.855312E-16
2.960000E+03	5.453150E-15	3.064742E-16
3.000000E+03	5.831234E-15	3.225442E-16
3.010000E+03	5.913508E-15	3.257700E-16
3.020000E+03	5.990559E-15	3.286672E-16
3.030000E+03	6.062469E-15	3.312436E-16
3.040000E+03	6.129351E-15	3.335086E-16
3.050000E+03	6.191178E-15	3.354638E-16
3.060000E+03	6.247933E-15	3.371116E-16
3.070000E+03	6.299963E-15	3.384737E-16
3.080000E+03	6.347146E-15	3.395469E-16
3.090000E+03	6.389538E-15	3.403370E-16
3.100000E+03	6.427531E-15	3.408682E-16
3.110000E+03	6.461225E-15	3.411486E-16
3.120000E+03	6.490871E-15	3.411942E-16
3.130000E+03	6.516304E-15	3.409989E-16
3.140000E+03	6.538258E-15	3.406037E-16
3.150000E+03	6.556583E-15	3.400030E-16
3.160000E+03	6.571593E-15	3.392153E-16
3.170000E+03	6.583593E-15	3.382583E-16
3.180000E+03	6.592756E-15	3.371428E-16
3.190000E+03	6.599411E-15	3.358873E-16
3.200000E+03	6.603730E-15	3.345023E-16
3.210000E+03	6.606044E-15	3.330057E-16
3.220000E+03	6.606537E-15	3.314081E-16
3.230000E+03	6.605533E-15	3.297269E-16
3.240000E+03	6.603222E-15	3.279723E-16
3.250000E+03	6.599795E-15	3.261547E-16
3.260000E+03	6.595574E-15	3.242904E-16
3.270000E+03	6.590748E-15	3.223893E-16
3.280000E+03	6.585631E-15	3.204669E-16
3.290000E+03	6.580410E-15	3.185323E-16
3.300000E+03	6.575276E-15	3.165947E-16
3.310000E+03	6.570420E-15	3.146629E-16
3.320000E+03	6.566145E-15	3.127512E-16
3.330000E+03	6.562636E-15	3.108676E-16
3.340000E+03	6.560085E-15	3.090206E-16
3.350000E+03	6.558681E-15	3.072179E-16
3.360000E+03	6.558514E-15	3.054629E-16
3.370000E+03	6.559884E-15	3.037684E-16
3.380000E+03	6.562890E-15	3.021374E-16
3.390000E+03	6.567835E-15	3.005824E-16
3.400000E+03	6.574826E-15	2.991065E-16
3.410000E+03	6.583889E-15	2.977092E-16
3.420000E+03	6.595437E-15	2.964071E-16
3.430000E+03	6.609422E-15	2.951959E-16
3.440000E+03	6.626089E-15	2.940841E-16
3.450000E+03	6.645600E-15	2.930766E-16
3.460000E+03	6.668132E-15	2.921785E-16
3.470000E+03	6.693791E-15	2.913917E-16
3.480000E+03	6.722792E-15	2.907225E-16
3.490000E+03	6.755209E-15	2.901710E-16
3.500000E+03	6.791396E-15	2.897492E-16
3.510000E+03	6.831473E-15	2.894585E-16
3.520000E+03	6.875589E-15	2.893016E-16
3.530000E+03	6.923990E-15	2.892847E-16
3.540000E+03	6.976707E-15	2.894049E-16
3.550000E+03	7.033953E-15	2.896666E-16
3.560000E+03	7.095955E-15	2.900746E-16
3.570000E+03	7.162884E-15	2.906308E-16
3.580000E+03	7.234925E-15	2.913378E-16
3.590000E+03	7.312200E-15	2.921950E-16
3.600000E+03	7.395148E-15	2.932146E-16
3.610000E+03	7.483914E-15	2.943963E-16
3.620000E+03	7.578871E-15	2.957484E-16
3.630000E+03	7.680400E-15	2.972792E-16
3.640000E+03	7.788877E-15	2.989961E-16
3.650000E+03	7.904678E-15	3.009061E-16
3.660000E+03	8.028247E-15	3.030179E-16
3.670000E+03	8.160096E-15	3.053424E-16
3.680000E+03	8.300649E-15	3.078864E-16
3.690000E+03	8.450233E-15	3.106521E-16
3.700000E+03	8.609465E-15	3.136523E-16
3.710000E+03	8.778622E-15	3.168863E-16
3.720000E+03	8.958179E-15	3.203600E-16
3.730000E+03	9.148512E-15	3.240750E-16
3.740000E+03	9.349995E-15	3.280323E-16
3.750000E+03	9.562813E-15	3.322256E-16
3.760000E+03	9.787246E-15	3.366515E-16
3.770000E+03	1.002358E-14	3.413063E-16
3.780000E+03	1.027175E-14	3.461742E-16
3.790000E+03	1.053180E-14	3.512427E-16
3.800000E+03	1.080366E-14	3.564952E-16
3.810000E+03	1.108715E-14	3.619118E-16
3.820000E+03	1.138186E-14	3.674654E-16
3.830000E+03	1.168739E-14	3.731293E-16
3.840000E+03	1.200328E-14	3.788756E-16
3.850000E+03	1.232866E-14	3.846641E-16
3.860000E+03	1.266281E-14	3.904608E-16
3.870000E+03	1.300480E-14	3.962260E-16
3.880000E+03	1.335347E-14	4.019141E-16
3.890000E+03	1.370765E-14	4.074817E-16
3.900000E+03	1.406607E-14	4.128835E-16
3.910000E+03	1.442726E-14	4.180708E-16
3.920000E+03	1.478994E-14	4.230022E-16
3.930000E+03	1.515240E-14	4.276263E-16
3.940000E+03	1.551328E-14	4.319045E-16
3.950000E+03	1.587112E-14	4.357972E-16
3.960000E+03	1.622422E-14	4.392609E-16
3.970000E+03	1.657117E-14	4.422627E-16
3.980000E+03	1.691066E-14	4.447745E-16
3.990000E+03	1.724146E-14	4.467727E-16
4.000000E+03	1.756219E-14	4.482319E-16
4.010000E+03	1.787185E-14	4.491389E-16
4.020000E+03	1.816959E-14	4.494858E-16
4.030000E+03	1.845457E-14	4.492666E-16
4.040000E+03	1.872609E-14	4.484801E-16
4.050000E+03	1.898370E-14	4.471333E-16
4.060000E+03	1.922701E-14	4.452342E-16
4.070000E+03	1.945555E-14	4.427909E-16
4.080000E+03	1.966942E-14	4.398252E-16
4.090000E+03	1.986842E-14	4.363522E-16
4.100000E+03	2.005268E-14	4.323950E-16
4.110000E+03	2.022229E-14	4.279757E-16
4.120000E+03	2.037722E-14	4.231145E-16
4.130000E+03	2.051797E-14	4.178425E-16
4.140000E+03	2.064458E-14	4.121811E-16
4.150000E+03	2.075727E-14	4.061558E-16
4.160000E+03	2.085643E-14	3.997950E-16
4.170000E+03	2.094228E-14	3.931239E-16
4.180000E+03	2.101505E-14	3.861676E-16
4.190000E+03	2.107511E-14	3.789543E-16
4.200000E+03	2.112248E-14	3.715052E-16
4.210000E+03	2.115772E-14	3.638515E-16
4.220000E+03	2.118084E-14	3.560144E-16
4.230000E+03	2.119237E-14	3.480243E-16
4.240000E+03	2.119236E-14	3.399034E-16
4.250000E+03	2.118155E-14	3.316850E-16
4.260000E+03	2.116019E-14	3.233944E-16
4.270000E+03	2.112877E-14	3.150602E-16
4.280000E+03	2.108780E-14	3.067115E-16
4.290000E+03	2.103822E-14	2.983829E-16
4.300000E+03	2.098085E-14	2.901066E-16
4.310000E+03	2.091643E-14	2.819133E-16
4.320000E+03	2.084614E-14	2.738385E-16
4.330000E+03	2.077102E-14	2.659157E-16
4.340000E+03	2.069243E-14	2.581809E-16
4.350000E+03	2.061178E-14	2.506699E-16
4.360000E+03	2.053023E-14	2.434145E-16
4.370000E+03	2.044906E-14	2.364472E-16
4.380000E+03	2.036937E-14	2.297976E-16
4.390000E+03	2.029309E-14	2.235038E-16
4.400000E+03	2.022151E-14	2.175952E-16
4.410000E+03	2.015653E-14	2.121072E-16
4.420000E+03	2.009949E-14	2.070681E-16
4.430000E+03	2.005195E-14	2.025077E-16
4.440000E+03	2.001534E-14	1.984536E-16
4.450000E+03	1.999101E-14	1.949317E-16
4.460000E+03	1.998012E-14	1.919649E-16
4.470000E+03	1.998384E-14	1.895754E-16
4.480000E+03	2.000302E-14	1.877809E-16
4.490000E+03	2.003626E-14	1.865766E-16
4.500000E+03	2.008205E-14	1.859452E-16
4.510000E+03	2.013832E-14	1.858486E-16
4.520000E+03	2.020272E-14	1.862433E-16
4.530000E+03	2.027312E-14	1.870862E-16
4.540000E+03	2.034714E-14	1.883299E-16
4.550000E+03	2.042257E-14	1.899270E-16
4.560000E+03	2.049682E-14	1.918248E-16
4.570000E+03	2.056784E-14	1.939747E-16
4.580000E+03	2.063320E-14	1.963231E-16
4.590000E+03	2.069106E-14	1.988212E-16
4.600000E+03	2.073907E-14	2.014150E-16
4.610000E+03	2.077600E-14	2.040608E-16
4.620000E+03	2.079996E-14	2.067087E-16
4.630000E+03	2.080989E-14	2.093174E-16
4.640000E+03	2.080505E-14	2.118494E-16
4.650000E+03	2.078482E-14	2.142696E-16
4.660000E+03	2.074876E-14	2.165459E-16
4.670000E+03	2.069727E-14	2.186566E-16
4.680000E+03	2.063037E-14	2.205778E-16
4.690000E+03	2.054922E-14	2.222997E-16
4.700000E+03	2.045419E-14	2.238061E-16
4.710000E+03	2.034673E-14	2.250949E-16
4.720000E+03	2.022811E-14	2.261642E-16
4.730000E+03	2.009973E-14	2.270156E-16
4.740000E+03	1.996305E-14	2.276538E-16
4.750000E+03	1.981977E-14	2.280885E-16
4.760000E+03	1.967136E-14	2.283283E-16
4.770000E+03	1.951929E-14	2.283839E-16
4.780000E+03	1.936511E-14	2.282685E-16
4.790000E+03	1.921010E-14	2.279936E-16
4.800000E+03	1.905544E-14	2.275706E-16
4.810000E+03	1.890214E-14	2.270102E-16
4.820000E+03	1.875115E-14	2.263230E-16
4.830000E+03	1.860339E-14	2.255201E-16
4.840000E+03	1.845937E-14	2.246081E-16
4.850000E+03	1.831978E-14	2.235965E-16
4.860000E+03	1.818489E-14	2.224895E-16
4.870000E+03	1.805521E-14	2.212951E-16
4.880000E+03	1.793102E-14	2.200181E-16
4.890000E+03	1.781239E-14	2.186611E-16
4.900000E+03	1.769966E-14	2.172301E-16
4.910000E+03	1.759283E-14	2.157268E-16
4.920000E+03	1.749243E-14	2.141593E-16
4.930000E+03	1.739832E-14	2.125275E-16
4.940000E+03	1.731088E-14	2.108378E-16
4.950000E+03	1.723040E-14	2.090950E-16
4.960000E+03	1.715719E-14	2.073042E-16
4.970000E+03	1.709166E-14	2.054712E-16
4.980000E+03	1.703404E-14	2.035998E-16
4.990000E+03	1.698518E-14	2.017004E-16
5.000000E+03	1.694528E-14	1.997759E-16
5.010000E+03	1.691509E-14	1.978345E-16
5.020000E+03	1.689522E-14	1.958831E-16
5.030000E+03	1.688625E-14	1.939271E-16
5.040000E+03	1.688884E-14	1.919726E-16
5.050000E+03	1.690338E-14	1.900218E-16
5.060000E+03	1.693058E-14	1.880803E-16
5.070000E+03	1.697091E-14	1.861502E-16
5.080000E+03	1.702457E-14	1.842303E-16
5.090000E+03	1.709200E-14	1.823214E-16
5.100000E+03	1.717318E-14	1.804191E-16
5.110000E+03	1.726822E-14	1.785203E-16
5.120000E+03	1.737679E-14	1.766172E-16
5.130000E+03	1.749866E-14	1.747035E-16
5.140000E+03	1.763294E-14	1.727663E-16
5.150000E+03	1.777916E-14	1.707982E-16
5.160000E+03	1.793599E-14	1.687841E-16
5.170000E+03	1.810258E-14	1.667152E-16
5.180000E+03	1.827722E-14	1.645763E-16
5.190000E+03	1.845848E-14	1.623573E-16
5.200000E+03	1.864450E-14	1.600466E-16
5.210000E+03	1.883359E-14	1.576374E-16
5.220000E+03	1.902387E-14	1.551244E-16
5.230000E+03	1.921301E-14	1.525025E-16
5.240000E+03	1.939946E-14	1.497768E-16
5.250000E+03	1.958117E-14	1.469531E-16
5.260000E+03	1.975622E-14	1.440426E-16
5.270000E+03	1.992320E-14	1.410650E-16
5.280000E+03	2.008079E-14	1.380452E-16
5.290000E+03	2.022785E-14	1.350145E-16
5.300000E+03	2.036312E-14	1.320075E-16
5.310000E+03	2.048637E-14	1.290705E-16
5.320000E+03	2.059707E-14	1.262511E-16
5.330000E+03	2.069502E-14	1.236025E-16
5.340000E+03	2.078001E-14	1.211802E-16
5.350000E+03	2.085231E-14	1.190431E-16
5.360000E+03	2.091174E-14	1.172471E-16
5.370000E+03	2.095845E-14	1.158466E-16
5.380000E+03	2.099175E-14	1.148866E-16
5.390000E+03	2.101123E-14	1.144055E-16
5.400000E+03	2.101594E-14	1.144226E-16
5.410000E+03	2.100418E-14	1.149107E-16
5.420000E+03	2.097428E-14	1.158211E-16
5.430000E+03	2.092585E-14	1.171032E-16
5.440000E+03	2.085914E-14	1.187027E-16
5.450000E+03	2.077614E-14	1.205714E-16
5.460000E+03	2.067845E-14	1.226582E-16
5.470000E+03	2.056728E-14	1.249112E-16
5.480000E+03	2.044377E-14	1.272807E-16
5.490000E+03	2.030918E-14	1.297219E-16
5.500000E+03	2.016387E-14	1.321886E-16
5.510000E+03	2.000846E-14	1.346408E-16
5.520000E+03	1.984383E-14	1.370448E-16
5.530000E+03	1.967026E-14	1.393674E-16
5.540000E+03	1.948871E-14	1.415842E-16
5.550000E+03	1.930010E-14	1.436750E-16
5.560000E+03	1.910542E-14	1.456239E-16
5.570000E+03	1.890560E-14	1.474184E-16
5.580000E+03	1.870193E-14	1.490520E-16
5.590000E+03	1.849574E-14	1.505219E-16
5.600000E+03	1.828865E-14	1.518309E-16
5.610000E+03	1.808177E-14	1.529800E-16
5.620000E+03	1.787693E-14	1.539790E-16
5.630000E+03	1.767522E-14	1.548336E-16
5.640000E+03	1.747803E-14	1.555540E-16
5.650000E+03	1.728705E-14	1.561546E-16
5.660000E+03	1.710307E-14	1.566435E-16
5.670000E+03	1.692735E-14	1.570338E-16
5.680000E+03	1.676058E-14	1.573343E-16
5.690000E+03	1.660344E-14	1.575546E-16
5.700000E+03	1.645661E-14	1.577041E-16
5.710000E+03	1.632039E-14	1.577891E-16
5.720000E+03	1.619465E-14	1.578121E-16
5.730000E+03	1.607925E-14	1.577746E-16
5.740000E+03	1.597402E-14	1.576782E-16
5.750000E+03	1.587820E-14	1.575181E-16
5.760000E+03	1.579117E-14	1.572905E-16
5.770000E+03	1.571196E-14	1.569881E-16
5.780000E+03	1.563925E-14	1.565993E-16
5.790000E+03	1.557187E-14	1.561145E-16
5.800000E+03	1.550839E-14	1.555205E-16
5.810000E+03	1.544720E-14	1.548030E-16
5.820000E+03	1.538666E-14	1.539471E-16
5.830000E+03	1.532504E-14	1.529376E-16
5.840000E+03	1.526062E-14	1.517596E-16
5.850000E+03	1.519183E-14	1.504003E-16
5.860000E+03	1.511686E-14	1.488455E-16
5.870000E+03	1.503429E-14	1.470857E-16
5.880000E+03	1.494272E-14	1.451124E-16
5.890000E+03	1.484084E-14	1.429196E-16
5.900000E+03	1.472779E-14	1.405064E-16
5.910000E+03	1.460239E-14	1.378703E-16
5.920000E+03	1.446456E-14	1.350204E-16
5.930000E+03	1.431382E-14	1.319633E-16
5.940000E+03	1.414994E-14	1.287089E-16
5.950000E+03	1.397368E-14	1.252770E-16
5.960000E+03	1.378520E-14	1.216830E-16
5.970000E+03	1.358541E-14	1.179495E-16
5.980000E+03	1.337544E-14	1.141013E-16
5.990000E+03	1.315647E-14	1.101641E-16
6.000000E+03	1.292987E-14	1.061647E-16
6.010000E+03	1.269708E-14	1.021309E-16
6.020000E+03	1.246002E-14	9.809389E-17
6.030000E+03	1.222014E-14	9.408049E-17
6.040000E+03	1.197926E-14	9.012014E-17
6.050000E+03	1.173916E-14	8.624134E-17
6.060000E+03	1.150142E-14	8.247061E-17
6.070000E+03	1.126771E-14	7.883469E-17
6.080000E+03	1.103958E-14	7.535919E-17
6.090000E+03	1.081821E-14	7.206688E-17
6.100000E+03	1.060515E-14	6.898319E-17
6.110000E+03	1.040133E-14	6.612924E-17
6.120000E+03	1.020799E-14	6.352864E-17
6.130000E+03	1.002587E-14	6.120168E-17
6.140000E+03	9.855662E-15	5.916854E-17
6.150000E+03	9.697930E-15	5.744822E-17
6.160000E+03	9.553341E-15	5.605964E-17
6.170000E+03	9.421916E-15	5.501656E-17
6.180000E+03	9.303688E-15	5.433087E-17
6.190000E+03	9.198205E-15	5.400896E-17
6.200000E+03	9.105299E-15	5.405229E-17
6.210000E+03	9.024702E-15	5.444591E-17
6.220000E+03	8.955947E-15	5.516876E-17
6.230000E+03	8.898367E-15	5.619758E-17
6.240000E+03	8.851731E-15	5.751169E-17
6.250000E+03	8.815259E-15	5.908758E-17
6.260000E+03	8.788370E-15	6.090410E-17
6.270000E+03	8.770582E-15	6.294228E-17
6.280000E+03	8.761012E-15	6.518194E-17
6.290000E+03	8.759262E-15	6.760795E-17
6.300000E+03	8.764418E-15	7.020280E-17
6.310000E+03	8.775935E-15	7.295301E-17
6.320000E+03	8.793002E-15	7.584400E-17
6.330000E+03	8.814912E-15	7.886278E-17
6.340000E+03	8.840941E-15	8.199671E-17
6.350000E+03	8.870324E-15	8.523306E-17
6.360000E+03	8.902250E-15	8.855870E-17
6.370000E+03	8.935713E-15	9.195830E-17
6.380000E+03	8.969756E-15	9.541645E-17
6.390000E+03	9.003195E-15	9.891458E-17
6.400000E+03	9.035036E-15	1.024352E-16
6.410000E+03	9.064402E-15	1.059612E-16
6.420000E+03	9.090995E-15	1.094817E-16
6.430000E+03	9.114465E-15	1.129852E-16
6.440000E+03	9.134657E-15	1.164624E-16
6.450000E+03	9.151345E-15	1.199032E-16
6.460000E+03	9.163821E-15	1.232910E-16
6.470000E+03	9.171897E-15	1.266158E-16
6.480000E+03	9.174940E-15	1.298611E-16
6.490000E+03	9.172318E-15	1.330098E-16
6.500000E+03	9.163697E-15	1.360487E-16
6.510000E+03	9.148645E-15	1.389628E-16
6.520000E+03	9.126501E-15	1.417333E-16
6.530000E+03	9.097102E-15	1.443486E-16
6.540000E+03	9.060226E-15	1.467961E-16
6.550000E+03	9.015746E-15	1.490651E-16
6.560000E+03	8.963347E-15	1.511413E-16
6.570000E+03	8.903386E-15	1.530222E-16
6.580000E+03	8.835751E-15	1.546976E-16
6.590000E+03	8.760852E-15	1.561671E-16
6.600000E+03	8.678910E-15	1.574272E-16
6.610000E+03	8.590368E-15	1.584794E-16
6.620000E+03	8.495880E-15	1.593297E-16
6.630000E+03	8.395885E-15	1.599813E-16
6.640000E+03	8.290874E-15	1.604391E-16
6.650000E+03	8.181778E-15	1.607173E-16
6.660000E+03	8.069014E-15	1.608212E-16
6.670000E+03	7.953281E-15	1.607628E-16
6.680000E+03	7.835538E-15	1.605598E-16
6.690000E+03	7.716203E-15	1.602204E-16
6.700000E+03	7.596071E-15	1.597610E-16
6.710000E+03	7.475644E-15	1.591929E-16
6.720000E+03	7.355644E-15	1.585325E-16
6.730000E+03	7.236500E-15	1.577909E-16
6.740000E+03	7.118842E-15	1.569840E-16
6.750000E+03	7.003004E-15	1.561216E-16
6.760000E+03	6.889512E-15	1.552183E-16
6.770000E+03	6.778601E-15	1.542825E-16
6.780000E+03	6.670691E-15	1.533271E-16
6.790000E+03	6.566033E-15	1.523612E-16
6.800000E+03	6.464716E-15	1.513906E-16
6.810000E+03	6.367013E-15	1.504251E-16
6.820000E+03	6.272931E-15	1.494685E-16
6.830000E+03	6.182654E-15	1.485287E-16
6.840000E+03	6.096226E-15	1.476102E-16
6.850000E+03	6.013546E-15	1.467141E-16
6.860000E+03	5.934701E-15	1.458458E-16
6.870000E+03	5.859645E-15	1.450072E-16
6.880000E+03	5.788309E-15	1.441998E-16
6.890000E+03	5.720504E-15	1.434216E-16
6.900000E+03	5.656331E-15	1.426780E-16
6.910000E+03	5.595470E-15	1.419634E-16
6.920000E+03	5.537895E-15	1.412796E-16
6.930000E+03	5.483472E-15	1.406253E-16
6.940000E+03	5.432059E-15	1.399990E-16
6.950000E+03	5.383509E-15	1.393989E-16
6.960000E+03	5.337673E-15	1.388227E-16
6.970000E+03	5.294398E-15	1.382683E-16
6.980000E+03	5.253633E-15	1.377357E-16
6.990000E+03	5.215027E-15	1.372171E-16
7.000000E+03	5.178628E-15	1.367150E-16
7.010000E+03	5.144187E-15	1.362239E-16
7.020000E+03	5.111556E-15	1.357410E-16
7.030000E+03	5.080590E-15	1.352632E-16
7.040000E+03	5.051246E-15	1.347902E-16
7.050000E+03	5.023283E-15	1.343163E-16
7.060000E+03	4.996661E-15	1.338413E-16
7.070000E+03	4.971147E-15	1.333593E-16
7.080000E+03	4.946705E-15	1.328701E-16
7.090000E+03	4.923107E-15	1.323679E-16
7.100000E+03	4.900324E-15	1.318524E-16
7.110000E+03	4.878230E-15	1.313207E-16
7.120000E+03	4.856701E-15	1.307698E-16
7.130000E+03	4.835620E-15	1.301969E-16
7.140000E+03	4.814772E-15	1.295966E-16
7.150000E+03	4.794239E-15	1.289715E-16
7.160000E+03	4.773814E-15	1.283163E-16
7.170000E+03	4.753393E-15	1.276287E-16
7.180000E+03	4.732874E-15	1.269062E-16
7.190000E+03	4.712262E-15	1.261493E-16
7.200000E+03	4.691464E-15	1.253560E-16
7.210000E+03	4.670301E-15	1.245220E-16
7.220000E+03	4.648791E-15	1.236481E-16
7.230000E+03	4.626769E-15	1.227306E-16
7.240000E+03	4.604367E-15	1.217734E-16
7.250000E+03	4.581335E-15	1.207705E-16
7.260000E+03	4.557825E-15	1.197265E-16
7.270000E+03	4.533604E-15	1.186359E-16
7.280000E+03	4.508845E-15	1.175041E-16
7.290000E+03	4.483431E-15	1.163286E-16
7.300000E+03	4.457359E-15	1.151102E-16
7.310000E+03	4.430635E-15	1.138498E-16
7.320000E+03	4.403275E-15	1.125487E-16
7.330000E+03	4.375305E-15	1.112084E-16
7.340000E+03	4.346670E-15	1.098284E-16
7.350000E+03	4.317414E-15	1.084109E-16
7.360000E+03	4.287600E-15	1.069582E-16
7.370000E+03	4.257292E-15	1.054730E-16
7.380000E+03	4.226282E-15	1.039511E-16
7.390000E+03	4.194845E-15	1.024003E-16
7.400000E+03	4.162786E-15	1.008170E-16
7.410000E+03	4.130203E-15	9.920448E-17
7.420000E+03	4.097104E-15	9.756415E-17
7.430000E+03	4.063594E-15	9.589961E-17
7.440000E+03	4.029684E-15	9.421220E-17
7.450000E+03	3.995855E-15	9.251410E-17
7.460000E+03	3.962112E-15	9.080629E-17
7.470000E+03	3.928646E-15	8.909386E-17
7.480000E+03	3.895736E-15	8.738372E-17
7.490000E+03	3.863464E-15	8.567815E-17
7.500000E+03	3.832003E-15	8.398129E-17
7.510000E+03	3.801421E-15	8.229484E-17
7.520000E+03	3.771782E-15	8.062030E-17
7.530000E+03	3.743319E-15	7.896268E-17
7.540000E+03	3.715898E-15	7.731901E-17
7.550000E+03	3.689732E-15	7.569363E-17
7.560000E+03	3.664760E-15	7.408499E-17
7.570000E+03	3.640906E-15	7.249137E-17
7.580000E+03	3.618360E-15	7.091630E-17
7.590000E+03	3.597032E-15	6.935764E-17
7.600000E+03	3.576911E-15	6.781488E-17
7.610000E+03	3.557890E-15	6.628574E-17
7.620000E+03	3.540123E-15	6.477283E-17
7.630000E+03	3.523397E-15	6.327197E-17
7.640000E+03	3.507672E-15	6.178235E-17
7.650000E+03	3.492990E-15	6.030464E-17
7.660000E+03	3.479295E-15	5.883788E-17
7.670000E+03	3.466438E-15	5.737963E-17
7.680000E+03	3.454440E-15	5.593052E-17
7.690000E+03	3.443138E-15	5.448833E-17
7.700000E+03	3.432450E-15	5.305241E-17
7.710000E+03	3.422381E-15	5.162366E-17
7.720000E+03	3.412748E-15	5.020036E-17
7.730000E+03	3.403543E-15	4.878373E-17
7.740000E+03	3.394569E-15	4.737260E-17
7.750000E+03	3.385807E-15	4.596868E-17
7.760000E+03	3.377140E-15	4.457274E-17
