#wls	flux	fluxerr
1.600000E+03	1.068892E-15	1.024740E-16
1.640000E+03	9.557126E-16	9.105902E-17
1.680000E+03	8.568969E-16	8.112804E-17
1.720000E+03	7.711541E-16	7.253699E-17
1.760000E+03	6.973563E-16	6.515935E-17
1.800000E+03	6.341237E-16	5.884719E-17
1.840000E+03	5.805242E-16	5.349662E-17
1.880000E+03	5.355433E-16	4.899793E-17
1.920000E+03	4.983925E-16	4.526401E-17
1.960000E+03	4.684099E-16	4.222072E-17
2.000000E+03	4.451274E-16	3.981253E-17
2.040000E+03	4.281301E-16	3.798948E-17
2.080000E+03	4.171801E-16	3.671788E-17
2.120000E+03	4.121145E-16	3.597088E-17
2.160000E+03	4.127676E-16	3.572141E-17
2.200000E+03	4.190604E-16	3.594995E-17
2.240000E+03	4.310210E-16	3.664592E-17
2.280000E+03	4.488319E-16	3.781118E-17
2.320000E+03	4.726416E-16	3.944368E-17
2.360000E+03	5.026931E-16	4.154829E-17
2.400000E+03	5.391589E-16	4.412280E-17
2.440000E+03	5.821318E-16	4.715751E-17
2.480000E+03	6.316231E-16	5.063530E-17
2.520000E+03	6.874356E-16	5.452191E-17
2.560000E+03	7.488820E-16	5.874477E-17
2.600000E+03	8.152556E-16	6.323163E-17
2.640000E+03	8.854377E-16	6.788071E-17
2.680000E+03	9.581106E-16	7.257873E-17
2.720000E+03	1.032100E-15	7.722770E-17
2.760000E+03	1.105730E-15	8.169662E-17
2.800000E+03	1.177737E-15	8.589108E-17
2.840000E+03	1.246522E-15	8.969718E-17
2.880000E+03	1.310565E-15	9.301317E-17
2.920000E+03	1.368591E-15	9.576095E-17
2.960000E+03	1.419644E-15	9.788994E-17
3.000000E+03	1.463129E-15	9.937828E-17
3.010000E+03	1.472765E-15	9.964911E-17
3.020000E+03	1.481915E-15	9.988074E-17
3.030000E+03	1.490668E-15	1.000794E-16
3.040000E+03	1.498927E-15	1.002390E-16
3.050000E+03	1.506691E-15	1.003597E-16
3.060000E+03	1.513959E-15	1.004419E-16
3.070000E+03	1.520823E-15	1.004921E-16
3.080000E+03	1.527285E-15	1.005105E-16
3.090000E+03	1.533254E-15	1.004917E-16
3.100000E+03	1.538825E-15	1.004421E-16
3.110000E+03	1.544000E-15	1.003622E-16
3.120000E+03	1.548784E-15	1.002526E-16
3.130000E+03	1.553181E-15	1.001139E-16
3.140000E+03	1.557285E-15	9.995237E-17
3.150000E+03	1.561013E-15	9.976300E-17
3.160000E+03	1.564373E-15	9.954656E-17
3.170000E+03	1.567459E-15	9.930925E-17
3.180000E+03	1.570276E-15	9.905168E-17
3.190000E+03	1.572915E-15	9.877978E-17
3.200000E+03	1.575217E-15	9.848370E-17
3.210000E+03	1.577356E-15	9.817454E-17
3.220000E+03	1.579257E-15	9.784788E-17
3.230000E+03	1.581012E-15	9.750946E-17
3.240000E+03	1.582627E-15	9.715981E-17
3.250000E+03	1.584109E-15	9.679954E-17
3.260000E+03	1.585546E-15	9.643402E-17
3.270000E+03	1.586867E-15	9.605908E-17
3.280000E+03	1.588159E-15	9.567995E-17
3.290000E+03	1.589428E-15	9.529708E-17
3.300000E+03	1.590754E-15	9.491531E-17
3.310000E+03	1.592074E-15	9.453074E-17
3.320000E+03	1.593466E-15	9.414802E-17
3.330000E+03	1.594938E-15	9.376761E-17
3.340000E+03	1.596569E-15	9.339398E-17
3.350000E+03	1.598292E-15	9.302320E-17
3.360000E+03	1.600256E-15	9.266372E-17
3.370000E+03	1.602397E-15	9.231166E-17
3.380000E+03	1.604791E-15	9.197122E-17
3.390000E+03	1.607444E-15	9.164254E-17
3.400000E+03	1.610431E-15	9.132957E-17
3.410000E+03	1.613758E-15	9.103249E-17
3.420000E+03	1.617437E-15	9.075154E-17
3.430000E+03	1.621544E-15	9.049062E-17
3.440000E+03	1.626152E-15	9.025351E-17
3.450000E+03	1.631217E-15	9.003721E-17
3.460000E+03	1.636881E-15	8.984915E-17
3.470000E+03	1.643105E-15	8.968667E-17
3.480000E+03	1.650040E-15	8.955737E-17
3.490000E+03	1.657773E-15	8.946534E-17
3.500000E+03	1.666225E-15	8.940558E-17
3.510000E+03	1.675612E-15	8.938893E-17
3.520000E+03	1.685923E-15	8.941391E-17
3.530000E+03	1.697267E-15	8.948540E-17
3.540000E+03	1.709643E-15	8.960238E-17
3.550000E+03	1.723223E-15	8.977284E-17
3.560000E+03	1.737909E-15	8.999048E-17
3.570000E+03	1.753775E-15	9.025808E-17
3.580000E+03	1.770953E-15	9.058125E-17
3.590000E+03	1.789365E-15	9.095480E-17
3.600000E+03	1.809159E-15	9.138490E-17
3.610000E+03	1.830325E-15	9.186980E-17
3.620000E+03	1.853024E-15	9.241610E-17
3.630000E+03	1.877266E-15	9.302286E-17
3.640000E+03	1.903126E-15	9.369227E-17
3.650000E+03	1.930744E-15	9.442945E-17
3.660000E+03	1.960269E-15	9.524004E-17
3.670000E+03	1.991763E-15	9.612511E-17
3.680000E+03	2.025407E-15	9.709134E-17
3.690000E+03	2.061342E-15	9.814336E-17
3.700000E+03	2.099777E-15	9.928873E-17
3.710000E+03	2.140878E-15	1.005328E-16
3.720000E+03	2.184876E-15	1.018836E-16
3.730000E+03	2.232006E-15	1.033493E-16
3.740000E+03	2.282404E-15	1.049329E-16
3.750000E+03	2.336306E-15	1.066418E-16
3.760000E+03	2.393933E-15	1.084827E-16
3.770000E+03	2.455542E-15	1.104633E-16
3.780000E+03	2.521150E-15	1.125805E-16
3.790000E+03	2.590943E-15	1.148383E-16
3.800000E+03	2.664945E-15	1.172338E-16
3.810000E+03	2.743226E-15	1.197657E-16
3.820000E+03	2.825607E-15	1.224219E-16
3.830000E+03	2.911987E-15	1.251940E-16
3.840000E+03	3.002049E-15	1.280645E-16
3.850000E+03	3.095359E-15	1.310112E-16
3.860000E+03	3.191483E-15	1.340127E-16
3.870000E+03	3.289749E-15	1.370382E-16
3.880000E+03	3.389365E-15	1.400528E-16
3.890000E+03	3.489560E-15	1.430235E-16
3.900000E+03	3.589352E-15	1.459100E-16
3.910000E+03	3.687688E-15	1.486703E-16
3.920000E+03	3.783617E-15	1.512679E-16
3.930000E+03	3.876051E-15	1.536621E-16
3.940000E+03	3.963931E-15	1.558151E-16
3.950000E+03	4.046404E-15	1.576982E-16
3.960000E+03	4.122581E-15	1.592828E-16
3.970000E+03	4.191774E-15	1.605491E-16
3.980000E+03	4.253388E-15	1.614816E-16
3.990000E+03	4.307078E-15	1.620752E-16
4.000000E+03	4.352696E-15	1.623327E-16
4.010000E+03	4.390292E-15	1.622642E-16
4.020000E+03	4.419968E-15	1.618817E-16
4.030000E+03	4.442280E-15	1.612137E-16
4.040000E+03	4.457656E-15	1.602832E-16
4.050000E+03	4.466783E-15	1.591218E-16
4.060000E+03	4.470435E-15	1.577634E-16
4.070000E+03	4.469442E-15	1.562428E-16
4.080000E+03	4.464596E-15	1.545922E-16
4.090000E+03	4.456757E-15	1.528452E-16
4.100000E+03	4.446761E-15	1.510336E-16
4.110000E+03	4.435275E-15	1.491821E-16
4.120000E+03	4.423166E-15	1.473213E-16
4.130000E+03	4.411035E-15	1.454720E-16
4.140000E+03	4.399407E-15	1.436516E-16
4.150000E+03	4.388778E-15	1.418759E-16
4.160000E+03	4.379494E-15	1.401553E-16
4.170000E+03	4.371929E-15	1.385007E-16
4.180000E+03	4.366309E-15	1.369178E-16
4.190000E+03	4.362659E-15	1.354058E-16
4.200000E+03	4.361114E-15	1.339674E-16
4.210000E+03	4.361624E-15	1.325994E-16
4.220000E+03	4.364205E-15	1.313008E-16
4.230000E+03	4.368660E-15	1.300640E-16
4.240000E+03	4.374990E-15	1.288878E-16
4.250000E+03	4.382943E-15	1.277637E-16
4.260000E+03	4.392489E-15	1.266896E-16
4.270000E+03	4.403370E-15	1.256573E-16
4.280000E+03	4.415513E-15	1.246640E-16
4.290000E+03	4.428875E-15	1.237080E-16
4.300000E+03	4.443354E-15	1.227859E-16
4.310000E+03	4.459083E-15	1.219009E-16
4.320000E+03	4.476060E-15	1.210526E-16
4.330000E+03	4.494723E-15	1.202521E-16
4.340000E+03	4.515293E-15	1.195047E-16
4.350000E+03	4.538335E-15	1.188242E-16
4.360000E+03	4.564528E-15	1.182269E-16
4.370000E+03	4.594600E-15	1.177296E-16
4.380000E+03	4.629362E-15	1.173505E-16
4.390000E+03	4.669723E-15	1.171095E-16
4.400000E+03	4.716654E-15	1.170274E-16
4.410000E+03	4.770921E-15	1.171187E-16
4.420000E+03	4.833310E-15	1.173981E-16
4.430000E+03	4.904359E-15	1.178737E-16
4.440000E+03	4.984429E-15	1.185488E-16
4.450000E+03	5.073659E-15	1.194219E-16
4.460000E+03	5.171977E-15	1.204864E-16
4.470000E+03	5.279141E-15	1.217320E-16
4.480000E+03	5.394811E-15	1.231471E-16
4.490000E+03	5.518774E-15	1.247233E-16
4.500000E+03	5.650739E-15	1.264511E-16
4.510000E+03	5.790334E-15	1.283197E-16
4.520000E+03	5.936677E-15	1.303078E-16
4.530000E+03	6.088344E-15	1.323832E-16
4.540000E+03	6.243621E-15	1.345091E-16
4.550000E+03	6.400188E-15	1.366371E-16
4.560000E+03	6.555321E-15	1.387123E-16
4.570000E+03	6.705987E-15	1.406754E-16
4.580000E+03	6.849063E-15	1.424670E-16
4.590000E+03	6.981283E-15	1.440251E-16
4.600000E+03	7.099810E-15	1.452982E-16
4.610000E+03	7.201902E-15	1.462381E-16
4.620000E+03	7.285714E-15	1.468155E-16
4.630000E+03	7.349912E-15	1.470121E-16
4.640000E+03	7.394070E-15	1.468275E-16
4.650000E+03	7.418617E-15	1.462779E-16
4.660000E+03	7.424865E-15	1.453960E-16
4.670000E+03	7.414750E-15	1.442252E-16
4.680000E+03	7.390775E-15	1.428187E-16
4.690000E+03	7.355773E-15	1.412341E-16
4.700000E+03	7.313142E-15	1.395384E-16
4.710000E+03	7.266057E-15	1.377924E-16
4.720000E+03	7.217871E-15	1.360589E-16
4.730000E+03	7.171599E-15	1.343927E-16
4.740000E+03	7.130117E-15	1.328447E-16
4.750000E+03	7.095997E-15	1.314593E-16
4.760000E+03	7.071234E-15	1.302691E-16
4.770000E+03	7.057515E-15	1.293005E-16
4.780000E+03	7.056070E-15	1.285710E-16
4.790000E+03	7.067519E-15	1.280867E-16
4.800000E+03	7.092182E-15	1.278483E-16
4.810000E+03	7.129777E-15	1.278456E-16
4.820000E+03	7.179741E-15	1.280638E-16
4.830000E+03	7.240787E-15	1.284752E-16
4.840000E+03	7.311606E-15	1.290527E-16
4.850000E+03	7.390203E-15	1.297573E-16
4.860000E+03	7.474288E-15	1.305459E-16
4.870000E+03	7.561291E-15	1.313711E-16
4.880000E+03	7.648136E-15	1.321779E-16
4.890000E+03	7.731588E-15	1.329098E-16
4.900000E+03	7.808081E-15	1.335056E-16
4.910000E+03	7.873907E-15	1.339032E-16
4.920000E+03	7.925305E-15	1.340408E-16
4.930000E+03	7.958926E-15	1.338653E-16
4.940000E+03	7.971833E-15	1.333317E-16
4.950000E+03	7.961831E-15	1.324085E-16
4.960000E+03	7.927665E-15	1.310808E-16
4.970000E+03	7.869095E-15	1.293512E-16
4.980000E+03	7.787261E-15	1.272449E-16
4.990000E+03	7.684165E-15	1.248011E-16
5.000000E+03	7.562776E-15	1.220740E-16
5.010000E+03	7.427057E-15	1.191326E-16
5.020000E+03	7.281238E-15	1.160490E-16
5.030000E+03	7.129793E-15	1.128974E-16
5.040000E+03	6.977411E-15	1.097538E-16
5.050000E+03	6.828348E-15	1.066854E-16
5.060000E+03	6.686641E-15	1.037545E-16
5.070000E+03	6.555662E-15	1.010112E-16
5.080000E+03	6.438490E-15	9.849965E-17
5.090000E+03	6.337691E-15	9.625501E-17
5.100000E+03	6.255233E-15	9.430202E-17
5.110000E+03	6.192726E-15	9.265921E-17
5.120000E+03	6.151477E-15	9.133979E-17
5.130000E+03	6.132297E-15	9.034895E-17
5.140000E+03	6.135983E-15	8.969124E-17
5.150000E+03	6.162907E-15	8.936464E-17
5.160000E+03	6.213295E-15	8.936478E-17
5.170000E+03	6.287156E-15	8.968407E-17
5.180000E+03	6.384276E-15	9.031180E-17
5.190000E+03	6.504193E-15	9.123392E-17
5.200000E+03	6.646242E-15	9.243380E-17
5.210000E+03	6.809264E-15	9.388850E-17
5.220000E+03	6.991994E-15	9.557429E-17
5.230000E+03	7.192798E-15	9.746328E-17
5.240000E+03	7.409765E-15	9.952487E-17
5.250000E+03	7.640666E-15	1.017254E-16
5.260000E+03	7.883254E-15	1.040324E-16
5.270000E+03	8.135118E-15	1.064125E-16
5.280000E+03	8.393776E-15	1.088331E-16
5.290000E+03	8.656950E-15	1.112655E-16
5.300000E+03	8.922715E-15	1.136871E-16
5.310000E+03	9.189287E-15	1.160783E-16
5.320000E+03	9.455792E-15	1.184320E-16
5.330000E+03	9.721686E-15	1.207459E-16
5.340000E+03	9.987531E-15	1.230319E-16
5.350000E+03	1.025470E-14	1.253120E-16
5.360000E+03	1.052541E-14	1.276183E-16
5.370000E+03	1.080283E-14	1.299938E-16
5.380000E+03	1.109085E-14	1.324896E-16
5.390000E+03	1.139396E-14	1.351629E-16
5.400000E+03	1.171634E-14	1.380665E-16
5.410000E+03	1.206172E-14	1.412478E-16
5.420000E+03	1.243152E-14	1.447265E-16
5.430000E+03	1.282376E-14	1.484841E-16
5.440000E+03	1.323231E-14	1.524557E-16
5.450000E+03	1.364793E-14	1.565431E-16
5.460000E+03	1.405941E-14	1.606277E-16
5.470000E+03	1.445442E-14	1.645771E-16
5.480000E+03	1.482033E-14	1.682521E-16
5.490000E+03	1.514480E-14	1.715171E-16
5.500000E+03	1.541706E-14	1.742530E-16
5.510000E+03	1.562755E-14	1.763535E-16
5.520000E+03	1.576917E-14	1.777386E-16
5.530000E+03	1.583775E-14	1.783594E-16
5.540000E+03	1.583132E-14	1.781903E-16
5.550000E+03	1.575058E-14	1.772339E-16
5.560000E+03	1.559924E-14	1.755256E-16
5.570000E+03	1.538291E-14	1.731210E-16
5.580000E+03	1.510872E-14	1.700928E-16
5.590000E+03	1.478601E-14	1.665379E-16
5.600000E+03	1.442427E-14	1.625557E-16
5.610000E+03	1.403391E-14	1.582564E-16
5.620000E+03	1.362521E-14	1.537496E-16
5.630000E+03	1.320811E-14	1.491419E-16
5.640000E+03	1.279186E-14	1.445333E-16
5.650000E+03	1.238488E-14	1.400156E-16
5.660000E+03	1.199441E-14	1.356676E-16
5.670000E+03	1.162640E-14	1.315548E-16
5.680000E+03	1.128592E-14	1.277330E-16
5.690000E+03	1.097696E-14	1.242462E-16
5.700000E+03	1.070227E-14	1.211243E-16
5.710000E+03	1.046405E-14	1.183916E-16
5.720000E+03	1.026385E-14	1.160643E-16
5.730000E+03	1.010233E-14	1.141486E-16
5.740000E+03	9.979783E-15	1.126463E-16
5.750000E+03	9.895812E-15	1.115505E-16
5.760000E+03	9.849278E-15	1.108460E-16
5.770000E+03	9.838559E-15	1.105113E-16
5.780000E+03	9.861184E-15	1.105151E-16
5.790000E+03	9.913897E-15	1.108169E-16
5.800000E+03	9.992643E-15	1.113671E-16
5.810000E+03	1.009260E-14	1.121077E-16
5.820000E+03	1.020825E-14	1.129731E-16
5.830000E+03	1.033348E-14	1.138918E-16
5.840000E+03	1.046185E-14	1.147898E-16
5.850000E+03	1.058646E-14	1.155890E-16
5.860000E+03	1.070052E-14	1.162145E-16
5.870000E+03	1.079755E-14	1.165964E-16
5.880000E+03	1.087139E-14	1.166706E-16
5.890000E+03	1.091683E-14	1.163854E-16
5.900000E+03	1.092946E-14	1.156997E-16
5.910000E+03	1.090619E-14	1.145892E-16
5.920000E+03	1.084547E-14	1.130468E-16
5.930000E+03	1.074692E-14	1.110801E-16
5.940000E+03	1.061178E-14	1.087137E-16
5.950000E+03	1.044268E-14	1.059873E-16
5.960000E+03	1.024313E-14	1.029493E-16
5.970000E+03	1.001753E-14	9.965652E-17
5.980000E+03	9.770904E-15	9.617056E-17
5.990000E+03	9.508082E-15	9.254975E-17
6.000000E+03	9.234104E-15	8.885257E-17
6.010000E+03	8.953566E-15	8.513130E-17
6.020000E+03	8.670588E-15	8.143173E-17
6.030000E+03	8.388653E-15	7.779184E-17
6.040000E+03	8.110788E-15	7.424370E-17
6.050000E+03	7.839582E-15	7.081384E-17
6.060000E+03	7.576903E-15	6.752089E-17
6.070000E+03	7.324562E-15	6.438195E-17
6.080000E+03	7.083730E-15	6.140743E-17
6.090000E+03	6.855505E-15	5.860641E-17
6.100000E+03	6.640880E-15	5.598644E-17
6.110000E+03	6.440583E-15	5.355225E-17
6.120000E+03	6.255412E-15	5.130881E-17
6.130000E+03	6.085973E-15	4.925919E-17
6.140000E+03	5.932905E-15	4.740660E-17
6.150000E+03	5.796928E-15	4.575485E-17
6.160000E+03	5.678551E-15	4.430612E-17
6.170000E+03	5.578236E-15	4.306255E-17
6.180000E+03	5.496227E-15	4.202500E-17
6.190000E+03	5.432585E-15	4.119365E-17
6.200000E+03	5.387238E-15	4.056846E-17
6.210000E+03	5.359817E-15	4.014816E-17
6.220000E+03	5.349940E-15	3.993246E-17
6.230000E+03	5.356967E-15	3.992027E-17
6.240000E+03	5.380478E-15	4.011327E-17
6.250000E+03	5.419841E-15	4.051268E-17
6.260000E+03	5.474743E-15	4.112312E-17
6.270000E+03	5.544847E-15	4.194864E-17
6.280000E+03	5.629791E-15	4.299023E-17
6.290000E+03	5.729637E-15	4.425203E-17
6.300000E+03	5.844139E-15	4.573648E-17
6.310000E+03	5.973511E-15	4.745013E-17
6.320000E+03	6.117670E-15	4.939779E-17
6.330000E+03	6.276743E-15	5.158649E-17
6.340000E+03	6.450780E-15	5.402319E-17
6.350000E+03	6.639743E-15	5.671453E-17
6.360000E+03	6.843757E-15	5.966893E-17
6.370000E+03	7.062736E-15	6.289338E-17
6.380000E+03	7.296862E-15	6.639755E-17
6.390000E+03	7.546025E-15	7.018871E-17
6.400000E+03	7.809495E-15	7.426838E-17
6.410000E+03	8.085255E-15	7.862505E-17
6.420000E+03	8.369298E-15	8.322568E-17
6.430000E+03	8.656297E-15	8.802022E-17
6.440000E+03	8.940381E-15	9.294790E-17
6.450000E+03	9.215287E-15	9.793812E-17
6.460000E+03	9.475588E-15	1.029231E-16
6.470000E+03	9.715913E-15	1.078303E-16
6.480000E+03	9.931850E-15	1.125923E-16
6.490000E+03	1.011969E-14	1.171456E-16
6.500000E+03	1.027641E-14	1.214308E-16
6.510000E+03	1.039970E-14	1.253942E-16
6.520000E+03	1.048790E-14	1.289876E-16
6.530000E+03	1.054000E-14	1.321695E-16
6.540000E+03	1.055550E-14	1.349040E-16
6.550000E+03	1.053457E-14	1.371643E-16
6.560000E+03	1.047793E-14	1.389305E-16
6.570000E+03	1.038707E-14	1.401950E-16
6.580000E+03	1.026370E-14	1.409545E-16
6.590000E+03	1.011029E-14	1.412190E-16
6.600000E+03	9.929776E-15	1.410078E-16
6.610000E+03	9.725230E-15	1.403454E-16
6.620000E+03	9.500255E-15	1.392675E-16
6.630000E+03	9.258495E-15	1.378144E-16
6.640000E+03	9.003777E-15	1.360328E-16
6.650000E+03	8.739646E-15	1.339690E-16
6.660000E+03	8.469637E-15	1.316727E-16
6.670000E+03	8.197292E-15	1.291972E-16
6.680000E+03	7.925434E-15	1.265874E-16
6.690000E+03	7.656894E-15	1.238912E-16
6.700000E+03	7.394136E-15	1.211528E-16
6.710000E+03	7.139052E-15	1.184090E-16
6.720000E+03	6.893266E-15	1.156937E-16
6.730000E+03	6.658048E-15	1.130359E-16
6.740000E+03	6.434426E-15	1.104615E-16
6.750000E+03	6.223035E-15	1.079901E-16
6.760000E+03	6.024164E-15	1.056354E-16
6.770000E+03	5.837969E-15	1.034092E-16
6.780000E+03	5.664571E-15	1.013220E-16
6.790000E+03	5.503614E-15	9.937589E-17
6.800000E+03	5.354774E-15	9.757297E-17
6.810000E+03	5.217774E-15	9.591570E-17
6.820000E+03	5.091957E-15	9.439905E-17
6.830000E+03	4.976826E-15	9.302037E-17
6.840000E+03	4.871697E-15	9.177290E-17
6.850000E+03	4.776066E-15	9.065263E-17
6.860000E+03	4.689133E-15	8.964942E-17
6.870000E+03	4.610301E-15	8.875634E-17
6.880000E+03	4.538910E-15	8.796474E-17
6.890000E+03	4.474249E-15	8.726438E-17
6.900000E+03	4.415762E-15	8.664762E-17
6.910000E+03	4.362858E-15	8.610566E-17
6.920000E+03	4.314922E-15	8.562874E-17
6.930000E+03	4.271511E-15	8.521023E-17
6.940000E+03	4.232170E-15	8.484287E-17
6.950000E+03	4.196432E-15	8.451893E-17
6.960000E+03	4.164022E-15	8.423421E-17
6.970000E+03	4.134657E-15	8.398423E-17
6.980000E+03	4.108056E-15	8.376432E-17
6.990000E+03	4.084061E-15	8.357216E-17
7.000000E+03	4.062627E-15	8.340770E-17
7.010000E+03	4.043705E-15	8.327063E-17
7.020000E+03	4.027161E-15	8.315884E-17
7.030000E+03	4.013144E-15	8.307600E-17
7.040000E+03	4.001707E-15	8.302369E-17
7.050000E+03	3.992796E-15	8.300128E-17
7.060000E+03	3.986614E-15	8.301333E-17
7.070000E+03	3.983177E-15	8.306048E-17
7.080000E+03	3.982555E-15	8.314440E-17
7.090000E+03	3.984865E-15	8.326771E-17
7.100000E+03	3.990013E-15	8.342850E-17
7.110000E+03	3.998130E-15	8.362944E-17
7.120000E+03	4.009059E-15	8.386716E-17
7.130000E+03	4.022863E-15	8.414274E-17
7.140000E+03	4.039311E-15	8.445104E-17
7.150000E+03	4.058330E-15	8.479017E-17
7.160000E+03	4.079815E-15	8.515743E-17
7.170000E+03	4.103435E-15	8.554543E-17
7.180000E+03	4.129035E-15	8.595033E-17
7.190000E+03	4.156386E-15	8.636672E-17
7.200000E+03	4.185249E-15	8.678899E-17
7.210000E+03	4.215391E-15	8.721162E-17
7.220000E+03	4.246518E-15	8.762787E-17
7.230000E+03	4.278560E-15	8.803560E-17
7.240000E+03	4.311179E-15	8.842720E-17
7.250000E+03	4.344266E-15	8.879978E-17
7.260000E+03	4.377650E-15	8.914924E-17
7.270000E+03	4.411172E-15	8.947173E-17
7.280000E+03	4.444669E-15	8.976344E-17
7.290000E+03	4.477978E-15	9.002057E-17
7.300000E+03	4.510844E-15	9.023757E-17
7.310000E+03	4.543230E-15	9.041337E-17
7.320000E+03	4.574851E-15	9.054197E-17
7.330000E+03	4.605393E-15	9.061707E-17
7.340000E+03	4.634761E-15	9.063674E-17
7.350000E+03	4.662604E-15	9.059421E-17
7.360000E+03	4.688637E-15	9.048424E-17
7.370000E+03	4.712572E-15	9.030174E-17
7.380000E+03	4.734128E-15	9.004199E-17
7.390000E+03	4.753132E-15	8.970256E-17
7.400000E+03	4.769285E-15	8.927886E-17
7.410000E+03	4.782593E-15	8.877226E-17
7.420000E+03	4.792806E-15	8.817952E-17
7.430000E+03	4.800094E-15	8.750536E-17
7.440000E+03	4.804569E-15	8.675340E-17
7.450000E+03	4.806447E-15	8.592919E-17
7.460000E+03	4.805884E-15	8.503719E-17
7.470000E+03	4.803313E-15	8.408667E-17
7.480000E+03	4.799349E-15	8.308980E-17
7.490000E+03	4.794421E-15	8.205520E-17
7.500000E+03	4.789352E-15	8.099786E-17
7.510000E+03	4.784642E-15	7.992679E-17
7.520000E+03	4.780954E-15	7.885326E-17
7.530000E+03	4.778906E-15	7.778728E-17
7.540000E+03	4.779128E-15	7.673854E-17
7.550000E+03	4.781981E-15	7.571192E-17
7.560000E+03	4.787790E-15	7.471144E-17
7.570000E+03	4.796749E-15	7.373873E-17
7.580000E+03	4.808906E-15	7.279312E-17
7.590000E+03	4.824165E-15	7.187172E-17
7.600000E+03	4.842204E-15	7.096846E-17
7.610000E+03	4.862741E-15	7.007826E-17
7.620000E+03	4.885291E-15	6.919347E-17
7.630000E+03	4.909263E-15	6.830557E-17
7.640000E+03	4.933985E-15	6.740568E-17
7.650000E+03	4.958628E-15	6.648363E-17
7.660000E+03	4.982419E-15	6.553105E-17
7.670000E+03	5.004764E-15	6.454289E-17
7.680000E+03	5.024715E-15	6.351049E-17
7.690000E+03	5.041555E-15	6.242929E-17
7.700000E+03	5.054743E-15	6.129788E-17
7.710000E+03	5.063732E-15	6.011568E-17
7.720000E+03	5.068000E-15	5.888321E-17
7.730000E+03	5.067237E-15	5.760429E-17
7.740000E+03	5.061361E-15	5.628584E-17
7.750000E+03	5.050310E-15	5.493541E-17
7.760000E+03	5.034041E-15	5.356104E-17
