#wls	flux	fluxerr
1.600000E+03	2.417405E-16	1.562898E-17
1.640000E+03	2.406707E-16	1.551718E-17
1.680000E+03	2.402011E-16	1.544326E-17
1.720000E+03	2.402466E-16	1.540140E-17
1.760000E+03	2.408174E-16	1.539196E-17
1.800000E+03	2.420188E-16	1.542132E-17
1.840000E+03	2.438648E-16	1.548994E-17
1.880000E+03	2.463232E-16	1.559534E-17
1.920000E+03	2.494101E-16	1.573812E-17
1.960000E+03	2.532410E-16	1.592506E-17
2.000000E+03	2.577889E-16	1.615388E-17
2.040000E+03	2.631264E-16	1.642856E-17
2.080000E+03	2.692281E-16	1.674686E-17
2.120000E+03	2.762235E-16	1.711614E-17
2.160000E+03	2.840368E-16	1.753092E-17
2.200000E+03	2.928031E-16	1.799877E-17
2.240000E+03	3.025557E-16	1.852081E-17
2.280000E+03	3.133273E-16	1.909807E-17
2.320000E+03	3.250910E-16	1.972789E-17
2.360000E+03	3.379340E-16	2.041448E-17
2.400000E+03	3.519482E-16	2.116222E-17
2.440000E+03	3.671653E-16	2.197169E-17
2.480000E+03	3.834792E-16	2.283521E-17
2.520000E+03	4.011090E-16	2.376443E-17
2.560000E+03	4.200078E-16	2.475501E-17
2.600000E+03	4.402613E-16	2.581038E-17
2.640000E+03	4.618045E-16	2.692501E-17
2.680000E+03	4.847898E-16	2.810599E-17
2.720000E+03	5.091357E-16	2.934667E-17
2.760000E+03	5.349894E-16	3.065355E-17
2.800000E+03	5.623329E-16	3.202345E-17
2.840000E+03	5.912204E-16	3.345722E-17
2.880000E+03	6.216985E-16	3.495512E-17
2.920000E+03	6.538958E-16	3.652187E-17
2.960000E+03	6.878398E-16	3.815630E-17
3.000000E+03	7.236369E-16	3.986144E-17
3.010000E+03	7.329627E-16	4.030320E-17
3.020000E+03	7.423966E-16	4.074871E-17
3.030000E+03	7.518362E-16	4.119230E-17
3.040000E+03	7.614790E-16	4.164476E-17
3.050000E+03	7.713237E-16	4.210595E-17
3.060000E+03	7.812676E-16	4.257018E-17
3.070000E+03	7.913073E-16	4.303724E-17
3.080000E+03	8.015433E-16	4.351253E-17
3.090000E+03	8.118699E-16	4.399025E-17
3.100000E+03	8.223869E-16	4.447576E-17
3.110000E+03	8.329883E-16	4.496325E-17
3.120000E+03	8.437746E-16	4.545810E-17
3.130000E+03	8.547433E-16	4.596010E-17
3.140000E+03	8.657856E-16	4.646334E-17
3.150000E+03	8.771075E-16	4.697882E-17
3.160000E+03	8.884954E-16	4.749500E-17
3.170000E+03	9.000500E-16	4.801722E-17
3.180000E+03	9.118747E-16	4.855092E-17
3.190000E+03	9.237501E-16	4.908434E-17
3.200000E+03	9.358865E-16	4.962858E-17
3.210000E+03	9.481712E-16	5.017759E-17
3.220000E+03	9.605983E-16	5.073099E-17
3.230000E+03	9.732707E-16	5.129413E-17
3.240000E+03	9.860733E-16	5.186086E-17
3.250000E+03	9.991097E-16	5.243656E-17
3.260000E+03	1.012262E-15	5.301497E-17
3.270000E+03	1.025634E-15	5.360141E-17
3.280000E+03	1.039217E-15	5.419538E-17
3.290000E+03	1.053004E-15	5.479641E-17
3.300000E+03	1.066986E-15	5.540394E-17
3.310000E+03	1.081155E-15	5.601743E-17
3.320000E+03	1.095500E-15	5.663629E-17
3.330000E+03	1.110121E-15	5.726563E-17
3.340000E+03	1.124900E-15	5.789912E-17
3.350000E+03	1.139822E-15	5.853603E-17
3.360000E+03	1.154987E-15	5.918141E-17
3.370000E+03	1.170385E-15	5.983457E-17
3.380000E+03	1.186000E-15	6.049463E-17
3.390000E+03	1.201708E-15	6.115520E-17
3.400000E+03	1.217718E-15	6.182682E-17
3.410000E+03	1.233902E-15	6.250283E-17
3.420000E+03	1.250355E-15	6.318802E-17
3.430000E+03	1.266838E-15	6.387018E-17
3.440000E+03	1.283667E-15	6.456518E-17
3.450000E+03	1.300600E-15	6.526076E-17
3.460000E+03	1.317729E-15	6.596140E-17
3.470000E+03	1.335034E-15	6.666601E-17
3.480000E+03	1.352492E-15	6.737342E-17
3.490000E+03	1.370082E-15	6.808241E-17
3.500000E+03	1.387889E-15	6.879721E-17
3.510000E+03	1.405889E-15	6.951650E-17
3.520000E+03	1.423945E-15	7.023343E-17
3.530000E+03	1.442142E-15	7.095209E-17
3.540000E+03	1.460450E-15	7.167102E-17
3.550000E+03	1.478841E-15	7.238869E-17
3.560000E+03	1.497393E-15	7.310884E-17
3.570000E+03	1.515965E-15	7.382463E-17
3.580000E+03	1.534526E-15	7.453445E-17
3.590000E+03	1.553256E-15	7.524698E-17
3.600000E+03	1.571906E-15	7.595017E-17
3.610000E+03	1.590653E-15	7.665246E-17
3.620000E+03	1.609352E-15	7.734688E-17
3.630000E+03	1.627965E-15	7.803164E-17
3.640000E+03	1.646559E-15	7.870988E-17
3.650000E+03	1.665090E-15	7.937950E-17
3.660000E+03	1.683518E-15	8.003858E-17
3.670000E+03	1.701799E-15	8.068509E-17
3.680000E+03	1.719889E-15	8.131704E-17
3.690000E+03	1.737844E-15	8.193701E-17
3.700000E+03	1.755617E-15	8.254287E-17
3.710000E+03	1.773064E-15	8.312792E-17
3.720000E+03	1.790332E-15	8.369910E-17
3.730000E+03	1.807178E-15	8.424524E-17
3.740000E+03	1.823749E-15	8.477321E-17
3.750000E+03	1.839992E-15	8.528073E-17
3.760000E+03	1.855764E-15	8.576124E-17
3.770000E+03	1.871109E-15	8.621698E-17
3.780000E+03	1.885976E-15	8.664578E-17
3.790000E+03	1.900406E-15	8.704962E-17
3.800000E+03	1.914169E-15	8.741824E-17
3.810000E+03	1.927395E-15	8.775780E-17
3.820000E+03	1.940033E-15	8.806620E-17
3.830000E+03	1.952037E-15	8.834152E-17
3.840000E+03	1.963272E-15	8.857805E-17
3.850000E+03	1.973864E-15	8.878164E-17
3.860000E+03	1.983685E-15	8.894692E-17
3.870000E+03	1.992696E-15	8.907238E-17
3.880000E+03	2.000860E-15	8.915675E-17
3.890000E+03	2.008222E-15	8.920237E-17
3.900000E+03	2.014751E-15	8.920820E-17
3.910000E+03	2.020345E-15	8.917014E-17
3.920000E+03	2.025135E-15	8.909424E-17
3.930000E+03	2.028957E-15	8.897378E-17
3.940000E+03	2.031879E-15	8.881206E-17
3.950000E+03	2.033902E-15	8.860953E-17
3.960000E+03	2.035099E-15	8.836980E-17
3.970000E+03	2.035351E-15	8.808803E-17
3.980000E+03	2.034751E-15	8.776866E-17
3.990000E+03	2.033395E-15	8.741621E-17
4.000000E+03	2.031195E-15	8.702724E-17
4.010000E+03	2.028326E-15	8.660963E-17
4.020000E+03	2.024783E-15	8.616341E-17
4.030000E+03	2.020570E-15	8.568909E-17
4.040000E+03	2.015817E-15	8.519251E-17
4.050000E+03	2.010601E-15	8.467712E-17
4.060000E+03	2.005002E-15	8.414651E-17
4.070000E+03	1.999051E-15	8.360214E-17
4.080000E+03	1.992836E-15	8.304792E-17
4.090000E+03	1.986452E-15	8.248784E-17
4.100000E+03	1.979942E-15	8.192383E-17
4.110000E+03	1.973449E-15	8.136185E-17
4.120000E+03	1.967068E-15	8.080577E-17
4.130000E+03	1.960749E-15	8.025359E-17
4.140000E+03	1.954727E-15	7.971482E-17
4.150000E+03	1.948956E-15	7.918753E-17
4.160000E+03	1.943573E-15	7.867712E-17
4.170000E+03	1.938622E-15	7.818521E-17
4.180000E+03	1.934146E-15	7.771342E-17
4.190000E+03	1.930232E-15	7.726495E-17
4.200000E+03	1.926920E-15	7.684121E-17
4.210000E+03	1.924292E-15	7.644514E-17
4.220000E+03	1.922381E-15	7.607786E-17
4.230000E+03	1.921228E-15	7.574059E-17
4.240000E+03	1.920903E-15	7.543577E-17
4.250000E+03	1.921404E-15	7.516294E-17
4.260000E+03	1.922761E-15	7.492298E-17
4.270000E+03	1.925080E-15	7.471953E-17
4.280000E+03	1.928316E-15	7.455050E-17
4.290000E+03	1.932532E-15	7.441790E-17
4.300000E+03	1.937754E-15	7.432225E-17
4.310000E+03	1.943972E-15	7.426278E-17
4.320000E+03	1.951277E-15	7.424244E-17
4.330000E+03	1.959620E-15	7.425897E-17
4.340000E+03	1.969019E-15	7.431253E-17
4.350000E+03	1.979555E-15	7.440570E-17
4.360000E+03	1.991141E-15	7.453471E-17
4.370000E+03	2.003848E-15	7.470180E-17
4.380000E+03	2.017679E-15	7.490647E-17
4.390000E+03	2.032596E-15	7.514694E-17
4.400000E+03	2.048622E-15	7.542348E-17
4.410000E+03	2.065708E-15	7.573381E-17
4.420000E+03	2.083825E-15	7.607645E-17
4.430000E+03	2.102939E-15	7.644965E-17
4.440000E+03	2.123000E-15	7.685118E-17
4.450000E+03	2.143978E-15	7.727959E-17
4.460000E+03	2.165800E-15	7.773179E-17
4.470000E+03	2.188376E-15	7.820425E-17
4.480000E+03	2.211665E-15	7.869516E-17
4.490000E+03	2.235546E-15	7.919996E-17
4.500000E+03	2.259948E-15	7.971586E-17
4.510000E+03	2.284689E-15	8.023630E-17
4.520000E+03	2.309698E-15	8.075866E-17
4.530000E+03	2.334764E-15	8.127552E-17
4.540000E+03	2.359764E-15	8.178258E-17
4.550000E+03	2.384527E-15	8.227400E-17
4.560000E+03	2.408881E-15	8.274401E-17
4.570000E+03	2.432683E-15	8.318789E-17
4.580000E+03	2.455756E-15	8.359988E-17
4.590000E+03	2.477959E-15	8.397559E-17
4.600000E+03	2.499095E-15	8.430879E-17
4.610000E+03	2.519075E-15	8.459694E-17
4.620000E+03	2.537758E-15	8.483590E-17
4.630000E+03	2.555053E-15	8.502326E-17
4.640000E+03	2.570857E-15	8.515624E-17
4.650000E+03	2.585151E-15	8.523495E-17
4.660000E+03	2.597842E-15	8.525705E-17
4.670000E+03	2.608993E-15	8.522529E-17
4.680000E+03	2.618588E-15	8.513991E-17
4.690000E+03	2.626669E-15	8.500300E-17
4.700000E+03	2.633296E-15	8.481721E-17
4.710000E+03	2.638551E-15	8.458580E-17
4.720000E+03	2.642526E-15	8.431239E-17
4.730000E+03	2.645331E-15	8.400106E-17
4.740000E+03	2.647115E-15	8.365707E-17
4.750000E+03	2.648001E-15	8.328478E-17
4.760000E+03	2.648118E-15	8.288863E-17
4.770000E+03	2.647592E-15	8.247292E-17
4.780000E+03	2.646548E-15	8.204185E-17
4.790000E+03	2.645012E-15	8.159650E-17
4.800000E+03	2.643132E-15	8.114158E-17
4.810000E+03	2.640919E-15	8.067768E-17
4.820000E+03	2.638443E-15	8.020707E-17
4.830000E+03	2.635794E-15	7.973260E-17
4.840000E+03	2.632960E-15	7.925402E-17
4.850000E+03	2.630044E-15	7.877453E-17
4.860000E+03	2.626987E-15	7.829243E-17
4.870000E+03	2.623908E-15	7.781136E-17
4.880000E+03	2.620767E-15	7.733013E-17
4.890000E+03	2.617612E-15	7.685024E-17
4.900000E+03	2.614429E-15	7.637129E-17
4.910000E+03	2.611260E-15	7.589458E-17
4.920000E+03	2.608096E-15	7.541984E-17
4.930000E+03	2.605015E-15	7.494938E-17
4.940000E+03	2.601984E-15	7.448225E-17
4.950000E+03	2.599070E-15	7.402031E-17
4.960000E+03	2.596285E-15	7.356396E-17
4.970000E+03	2.593742E-15	7.311634E-17
4.980000E+03	2.591478E-15	7.267841E-17
4.990000E+03	2.589541E-15	7.225144E-17
5.000000E+03	2.588077E-15	7.183939E-17
5.010000E+03	2.587157E-15	7.144404E-17
5.020000E+03	2.586921E-15	7.106907E-17
5.030000E+03	2.587432E-15	7.071595E-17
5.040000E+03	2.588876E-15	7.038944E-17
5.050000E+03	2.591359E-15	7.009213E-17
5.060000E+03	2.595049E-15	6.982812E-17
5.070000E+03	2.600063E-15	6.960011E-17
5.080000E+03	2.606573E-15	6.941218E-17
5.090000E+03	2.614726E-15	6.926767E-17
5.100000E+03	2.624635E-15	6.916896E-17
5.110000E+03	2.636441E-15	6.911909E-17
5.120000E+03	2.650305E-15	6.912160E-17
5.130000E+03	2.666356E-15	6.917907E-17
5.140000E+03	2.684715E-15	6.929384E-17
5.150000E+03	2.705462E-15	6.946715E-17
5.160000E+03	2.728727E-15	6.970147E-17
5.170000E+03	2.754600E-15	6.999821E-17
5.180000E+03	2.783126E-15	7.035766E-17
5.190000E+03	2.814427E-15	7.078196E-17
5.200000E+03	2.848493E-15	7.126995E-17
5.210000E+03	2.885354E-15	7.182148E-17
5.220000E+03	2.925087E-15	7.243758E-17
5.230000E+03	2.967629E-15	7.311581E-17
5.240000E+03	3.012989E-15	7.385555E-17
5.250000E+03	3.061097E-15	7.465425E-17
5.260000E+03	3.111921E-15	7.551043E-17
5.270000E+03	3.165384E-15	7.642142E-17
5.280000E+03	3.221381E-15	7.738411E-17
5.290000E+03	3.279754E-15	7.839405E-17
5.300000E+03	3.340355E-15	7.944722E-17
5.310000E+03	3.403043E-15	8.053982E-17
5.320000E+03	3.467588E-15	8.166611E-17
5.330000E+03	3.533802E-15	8.282137E-17
5.340000E+03	3.601404E-15	8.399893E-17
5.350000E+03	3.670119E-15	8.519231E-17
5.360000E+03	3.739687E-15	8.639558E-17
5.370000E+03	3.809709E-15	8.759970E-17
5.380000E+03	3.879911E-15	8.879877E-17
5.390000E+03	3.949883E-15	8.998383E-17
5.400000E+03	4.019188E-15	9.114555E-17
5.410000E+03	4.087493E-15	9.227708E-17
5.420000E+03	4.154283E-15	9.336766E-17
5.430000E+03	4.219153E-15	9.440922E-17
5.440000E+03	4.281650E-15	9.539269E-17
5.450000E+03	4.341321E-15	9.630923E-17
5.460000E+03	4.397668E-15	9.714913E-17
5.470000E+03	4.450347E-15	9.790607E-17
5.480000E+03	4.498854E-15	9.857022E-17
5.490000E+03	4.542851E-15	9.913544E-17
5.500000E+03	4.581947E-15	9.959459E-17
5.510000E+03	4.615892E-15	9.994359E-17
5.520000E+03	4.644398E-15	1.001776E-16
5.530000E+03	4.667337E-15	1.002952E-16
5.540000E+03	4.684557E-15	1.002946E-16
5.550000E+03	4.696075E-15	1.001774E-16
5.560000E+03	4.701987E-15	9.994695E-17
5.570000E+03	4.702325E-15	9.960512E-17
5.580000E+03	4.697342E-15	9.915837E-17
5.590000E+03	4.687313E-15	9.861352E-17
5.600000E+03	4.672624E-15	9.797960E-17
5.610000E+03	4.653582E-15	9.726381E-17
5.620000E+03	4.630720E-15	9.647800E-17
5.630000E+03	4.604429E-15	9.563079E-17
5.640000E+03	4.575297E-15	9.473486E-17
5.650000E+03	4.543743E-15	9.379918E-17
5.660000E+03	4.510361E-15	9.283618E-17
5.670000E+03	4.475593E-15	9.185507E-17
5.680000E+03	4.439853E-15	9.086431E-17
5.690000E+03	4.403603E-15	8.987333E-17
5.700000E+03	4.367258E-15	8.889039E-17
5.710000E+03	4.331048E-15	8.791999E-17
5.720000E+03	4.295270E-15	8.696790E-17
5.730000E+03	4.260073E-15	8.603687E-17
5.740000E+03	4.225666E-15	8.513084E-17
5.750000E+03	4.192027E-15	8.424903E-17
5.760000E+03	4.159154E-15	8.339115E-17
5.770000E+03	4.127030E-15	8.255654E-17
5.780000E+03	4.095541E-15	8.174270E-17
5.790000E+03	4.064450E-15	8.094468E-17
5.800000E+03	4.033648E-15	8.016008E-17
5.810000E+03	4.002876E-15	7.938360E-17
5.820000E+03	3.971901E-15	7.861049E-17
5.830000E+03	3.940485E-15	7.783596E-17
5.840000E+03	3.908359E-15	7.705459E-17
5.850000E+03	3.875345E-15	7.626288E-17
5.860000E+03	3.841216E-15	7.545631E-17
5.870000E+03	3.805856E-15	7.463260E-17
5.880000E+03	3.769109E-15	7.378870E-17
5.890000E+03	3.730873E-15	7.292263E-17
5.900000E+03	3.691162E-15	7.203467E-17
5.910000E+03	3.650005E-15	7.112540E-17
5.920000E+03	3.607445E-15	7.019561E-17
5.930000E+03	3.563606E-15	6.924774E-17
5.940000E+03	3.518689E-15	6.828563E-17
5.950000E+03	3.472797E-15	6.731122E-17
5.960000E+03	3.426262E-15	6.633087E-17
5.970000E+03	3.379246E-15	6.534762E-17
5.980000E+03	3.332085E-15	6.436784E-17
5.990000E+03	3.284999E-15	6.339564E-17
6.000000E+03	3.238304E-15	6.243699E-17
6.010000E+03	3.192248E-15	6.149648E-17
6.020000E+03	3.147103E-15	6.057919E-17
6.030000E+03	3.103123E-15	5.968982E-17
6.040000E+03	3.060513E-15	5.883215E-17
6.050000E+03	3.019519E-15	5.801072E-17
6.060000E+03	2.980301E-15	5.722843E-17
6.070000E+03	2.942997E-15	5.648777E-17
6.080000E+03	2.907778E-15	5.579189E-17
6.090000E+03	2.874763E-15	5.514289E-17
6.100000E+03	2.844015E-15	5.454191E-17
6.110000E+03	2.815611E-15	5.399026E-17
6.120000E+03	2.789603E-15	5.348890E-17
6.130000E+03	2.766029E-15	5.303848E-17
6.140000E+03	2.744909E-15	5.263932E-17
6.150000E+03	2.726226E-15	5.229111E-17
6.160000E+03	2.710007E-15	5.199431E-17
6.170000E+03	2.696216E-15	5.174829E-17
6.180000E+03	2.684811E-15	5.155228E-17
6.190000E+03	2.675774E-15	5.140600E-17
6.200000E+03	2.669112E-15	5.130967E-17
6.210000E+03	2.664801E-15	5.126293E-17
6.220000E+03	2.662847E-15	5.126603E-17
6.230000E+03	2.663229E-15	5.131872E-17
6.240000E+03	2.665927E-15	5.142080E-17
6.250000E+03	2.670948E-15	5.157259E-17
6.260000E+03	2.678273E-15	5.177399E-17
6.270000E+03	2.687854E-15	5.202421E-17
6.280000E+03	2.699746E-15	5.232441E-17
6.290000E+03	2.713836E-15	5.267248E-17
6.300000E+03	2.730163E-15	5.306927E-17
6.310000E+03	2.748643E-15	5.351325E-17
6.320000E+03	2.769232E-15	5.400370E-17
6.330000E+03	2.791809E-15	5.453836E-17
6.340000E+03	2.816338E-15	5.511668E-17
6.350000E+03	2.842613E-15	5.573474E-17
6.360000E+03	2.870508E-15	5.639023E-17
6.370000E+03	2.899806E-15	5.707895E-17
6.380000E+03	2.930245E-15	5.779585E-17
6.390000E+03	2.961585E-15	5.853627E-17
6.400000E+03	2.993455E-15	5.929287E-17
6.410000E+03	3.025528E-15	6.005920E-17
6.420000E+03	3.057414E-15	6.082741E-17
6.430000E+03	3.088652E-15	6.158819E-17
6.440000E+03	3.118751E-15	6.233159E-17
6.450000E+03	3.147292E-15	6.304891E-17
6.460000E+03	3.173708E-15	6.372848E-17
6.470000E+03	3.197531E-15	6.436044E-17
6.480000E+03	3.218190E-15	6.493280E-17
6.490000E+03	3.235240E-15	6.543592E-17
6.500000E+03	3.248157E-15	6.585855E-17
6.510000E+03	3.256531E-15	6.619157E-17
6.520000E+03	3.259903E-15	6.642481E-17
6.530000E+03	3.258020E-15	6.655218E-17
6.540000E+03	3.250598E-15	6.656693E-17
6.550000E+03	3.237444E-15	6.646405E-17
6.560000E+03	3.218454E-15	6.624041E-17
6.570000E+03	3.193690E-15	6.589620E-17
6.580000E+03	3.163238E-15	6.543215E-17
6.590000E+03	3.127315E-15	6.485175E-17
6.600000E+03	3.086186E-15	6.415953E-17
6.610000E+03	3.040236E-15	6.336254E-17
6.620000E+03	2.989912E-15	6.246928E-17
6.630000E+03	2.935721E-15	6.148955E-17
6.640000E+03	2.878208E-15	6.043412E-17
6.650000E+03	2.817949E-15	5.931452E-17
6.660000E+03	2.755531E-15	5.814264E-17
6.670000E+03	2.691544E-15	5.693055E-17
6.680000E+03	2.626535E-15	5.568958E-17
6.690000E+03	2.561086E-15	5.443192E-17
6.700000E+03	2.495747E-15	5.316917E-17
6.710000E+03	2.430967E-15	5.191098E-17
6.720000E+03	2.367159E-15	5.066620E-17
6.730000E+03	2.304762E-15	4.944445E-17
6.740000E+03	2.244111E-15	4.825314E-17
6.750000E+03	2.185467E-15	4.709816E-17
6.760000E+03	2.129064E-15	4.598493E-17
6.770000E+03	2.075117E-15	4.491840E-17
6.780000E+03	2.023743E-15	4.390156E-17
6.790000E+03	1.975095E-15	4.293806E-17
6.800000E+03	1.929188E-15	4.202870E-17
6.810000E+03	1.886079E-15	4.117513E-17
6.820000E+03	1.845793E-15	4.037834E-17
6.830000E+03	1.808265E-15	3.963728E-17
6.840000E+03	1.773475E-15	3.895195E-17
6.850000E+03	1.741384E-15	3.832188E-17
6.860000E+03	1.711899E-15	3.774541E-17
6.870000E+03	1.684937E-15	3.722106E-17
6.880000E+03	1.660407E-15	3.674719E-17
6.890000E+03	1.638232E-15	3.632239E-17
6.900000E+03	1.618293E-15	3.594435E-17
6.910000E+03	1.600490E-15	3.561116E-17
6.920000E+03	1.584746E-15	3.532132E-17
6.930000E+03	1.570940E-15	3.507244E-17
6.940000E+03	1.558999E-15	3.486311E-17
6.950000E+03	1.548816E-15	3.469115E-17
6.960000E+03	1.540305E-15	3.455483E-17
6.970000E+03	1.533405E-15	3.445301E-17
6.980000E+03	1.528045E-15	3.438422E-17
6.990000E+03	1.524119E-15	3.434629E-17
7.000000E+03	1.521622E-15	3.433921E-17
7.010000E+03	1.520444E-15	3.436066E-17
7.020000E+03	1.520570E-15	3.441043E-17
7.030000E+03	1.521955E-15	3.448763E-17
7.040000E+03	1.524522E-15	3.459061E-17
7.050000E+03	1.528267E-15	3.471940E-17
7.060000E+03	1.533137E-15	3.487291E-17
7.070000E+03	1.539115E-15	3.505083E-17
7.080000E+03	1.546148E-15	3.525204E-17
7.090000E+03	1.554202E-15	3.547585E-17
7.100000E+03	1.563241E-15	3.572151E-17
7.110000E+03	1.573225E-15	3.598816E-17
7.120000E+03	1.584113E-15	3.627497E-17
7.130000E+03	1.595878E-15	3.658135E-17
7.140000E+03	1.608432E-15	3.690537E-17
7.150000E+03	1.621760E-15	3.724669E-17
7.160000E+03	1.635764E-15	3.760316E-17
7.170000E+03	1.650399E-15	3.797374E-17
7.180000E+03	1.665618E-15	3.835741E-17
7.190000E+03	1.681308E-15	3.875163E-17
7.200000E+03	1.697413E-15	3.915508E-17
7.210000E+03	1.713853E-15	3.956601E-17
7.220000E+03	1.730547E-15	3.998254E-17
7.230000E+03	1.747393E-15	4.040233E-17
7.240000E+03	1.764348E-15	4.082443E-17
7.250000E+03	1.781287E-15	4.124594E-17
7.260000E+03	1.798149E-15	4.166551E-17
7.270000E+03	1.814833E-15	4.208079E-17
7.280000E+03	1.831309E-15	4.249110E-17
7.290000E+03	1.847459E-15	4.289373E-17
7.300000E+03	1.863237E-15	4.328764E-17
7.310000E+03	1.878581E-15	4.367140E-17
7.320000E+03	1.893411E-15	4.404317E-17
7.330000E+03	1.907723E-15	4.440291E-17
7.340000E+03	1.921403E-15	4.474794E-17
7.350000E+03	1.934482E-15	4.507909E-17
7.360000E+03	1.946909E-15	4.539513E-17
7.370000E+03	1.958633E-15	4.569494E-17
7.380000E+03	1.969662E-15	4.597874E-17
7.390000E+03	1.979962E-15	4.624576E-17
7.400000E+03	1.989555E-15	4.649661E-17
7.410000E+03	1.998448E-15	4.673145E-17
7.420000E+03	2.006602E-15	4.694943E-17
7.430000E+03	2.014089E-15	4.715228E-17
7.440000E+03	2.020885E-15	4.733951E-17
7.450000E+03	2.027053E-15	4.751267E-17
7.460000E+03	2.032637E-15	4.767281E-17
7.470000E+03	2.037713E-15	4.782181E-17
7.480000E+03	2.042314E-15	4.796052E-17
7.490000E+03	2.046502E-15	4.809045E-17
7.500000E+03	2.050372E-15	4.821393E-17
7.510000E+03	2.053968E-15	4.833206E-17
7.520000E+03	2.057362E-15	4.844666E-17
7.530000E+03	2.060652E-15	4.856009E-17
7.540000E+03	2.063881E-15	4.867350E-17
7.550000E+03	2.067140E-15	4.878909E-17
7.560000E+03	2.070431E-15	4.890707E-17
7.570000E+03	2.073857E-15	4.902997E-17
7.580000E+03	2.077424E-15	4.915807E-17
7.590000E+03	2.081158E-15	4.929207E-17
7.600000E+03	2.085062E-15	4.943219E-17
7.610000E+03	2.089125E-15	4.957831E-17
7.620000E+03	2.093319E-15	4.972988E-17
7.630000E+03	2.097564E-15	4.988513E-17
7.640000E+03	2.101847E-15	5.004391E-17
7.650000E+03	2.106051E-15	5.020354E-17
7.660000E+03	2.110038E-15	5.036085E-17
7.670000E+03	2.113709E-15	5.051359E-17
7.680000E+03	2.116922E-15	5.065844E-17
7.690000E+03	2.119518E-15	5.079172E-17
7.700000E+03	2.121330E-15	5.090945E-17
7.710000E+03	2.122154E-15	5.100678E-17
7.720000E+03	2.121839E-15	5.108007E-17
7.730000E+03	2.120204E-15	5.112500E-17
7.740000E+03	2.117077E-15	5.113729E-17
7.750000E+03	2.112289E-15	5.111282E-17
7.760000E+03	2.105661E-15	5.104708E-17
