#wls	flux	fluxerr
1.572591E+03	1.679735E-02	1.638386E-03
1.611906E+03	1.651126E-02	1.553283E-03
1.651221E+03	1.619933E-02	1.468195E-03
1.690536E+03	1.585989E-02	1.383405E-03
1.729850E+03	1.549283E-02	1.299358E-03
1.769165E+03	1.509932E-02	1.216602E-03
1.808480E+03	1.467552E-02	1.135282E-03
1.847795E+03	1.422427E-02	1.056076E-03
1.887110E+03	1.374500E-02	9.793633E-04
1.926424E+03	1.323788E-02	9.055557E-04
1.965739E+03	1.270328E-02	8.350300E-04
2.005054E+03	1.214436E-02	7.682751E-04
2.044369E+03	1.156651E-02	7.058080E-04
2.083683E+03	1.098511E-02	6.485900E-04
2.122998E+03	1.043600E-02	5.984330E-04
2.162313E+03	9.957068E-03	5.568111E-04
2.201628E+03	9.581108E-03	5.247574E-04
2.240943E+03	9.331055E-03	5.027325E-04
2.280257E+03	9.208823E-03	4.900365E-04
2.319572E+03	9.203359E-03	4.854103E-04
2.358887E+03	9.302928E-03	4.877276E-04
2.398202E+03	9.497281E-03	4.960630E-04
2.437517E+03	9.778609E-03	5.097031E-04
2.476831E+03	1.013837E-02	5.279522E-04
2.516146E+03	1.056853E-02	5.501790E-04
2.555461E+03	1.105918E-02	5.756786E-04
2.594776E+03	1.160134E-02	6.038150E-04
2.634090E+03	1.219151E-02	6.342566E-04
2.673405E+03	1.283237E-02	6.670153E-04
2.712720E+03	1.352876E-02	7.022394E-04
2.752035E+03	1.428599E-02	7.401307E-04
2.791350E+03	1.510968E-02	7.809221E-04
2.830664E+03	1.600604E-02	8.247316E-04
2.869979E+03	1.698042E-02	8.714875E-04
2.909294E+03	1.804046E-02	9.212055E-04
2.948609E+03	1.919258E-02	9.738153E-04
2.958437E+03	1.949640E-02	9.874430E-04
2.968266E+03	1.980626E-02	1.001234E-03
2.978095E+03	2.012224E-02	1.015187E-03
2.987923E+03	2.044530E-02	1.029342E-03
2.997752E+03	2.077506E-02	1.043676E-03
3.007581E+03	2.111157E-02	1.058183E-03
3.017410E+03	2.145534E-02	1.072885E-03
3.027238E+03	2.180599E-02	1.087755E-03
3.037067E+03	2.216355E-02	1.102790E-03
3.046896E+03	2.252900E-02	1.118032E-03
3.056724E+03	2.290146E-02	1.133434E-03
3.066553E+03	2.328142E-02	1.149014E-03
3.076382E+03	2.366846E-02	1.164747E-03
3.086210E+03	2.406400E-02	1.180698E-03
3.096039E+03	2.446666E-02	1.196797E-03
3.105868E+03	2.487692E-02	1.213062E-03
3.115697E+03	2.529526E-02	1.229515E-03
3.125525E+03	2.572167E-02	1.246153E-03
3.135354E+03	2.615518E-02	1.262928E-03
3.145183E+03	2.659723E-02	1.279906E-03
3.155011E+03	2.704680E-02	1.297040E-03
3.164840E+03	2.750434E-02	1.314352E-03
3.174669E+03	2.796928E-02	1.331816E-03
3.184497E+03	2.844206E-02	1.349455E-03
3.194326E+03	2.892258E-02	1.367267E-03
3.204155E+03	2.941075E-02	1.385254E-03
3.213983E+03	2.990593E-02	1.403391E-03
3.223812E+03	3.040850E-02	1.421702E-03
3.233641E+03	3.091829E-02	1.440189E-03
3.243470E+03	3.143462E-02	1.458828E-03
3.253298E+03	3.195779E-02	1.477646E-03
3.263127E+03	3.248708E-02	1.496621E-03
3.272956E+03	3.302274E-02	1.515779E-03
3.282784E+03	3.356397E-02	1.535100E-03
3.292613E+03	3.411048E-02	1.554588E-03
3.302442E+03	3.466191E-02	1.574246E-03
3.312270E+03	3.521792E-02	1.594080E-03
3.322099E+03	3.577807E-02	1.614093E-03
3.331928E+03	3.634140E-02	1.634266E-03
3.341757E+03	3.690792E-02	1.654627E-03
3.351585E+03	3.747604E-02	1.675132E-03
3.361414E+03	3.804617E-02	1.695830E-03
3.371243E+03	3.861655E-02	1.716675E-03
3.381071E+03	3.918634E-02	1.737664E-03
3.390900E+03	3.975455E-02	1.758787E-03
3.400729E+03	4.031942E-02	1.780003E-03
3.410557E+03	4.087987E-02	1.801303E-03
3.420386E+03	4.143317E-02	1.822605E-03
3.430215E+03	4.197531E-02	1.843775E-03
3.440043E+03	4.250218E-02	1.864671E-03
3.449872E+03	4.300888E-02	1.885121E-03
3.459701E+03	4.349157E-02	1.904998E-03
3.469530E+03	4.394448E-02	1.924089E-03
3.479358E+03	4.436618E-02	1.942356E-03
3.489187E+03	4.475594E-02	1.959784E-03
3.499016E+03	4.511454E-02	1.976416E-03
3.508844E+03	4.544260E-02	1.992276E-03
3.518673E+03	4.574187E-02	2.007425E-03
3.528502E+03	4.601539E-02	2.021977E-03
3.538330E+03	4.626424E-02	2.035957E-03
3.548159E+03	4.649175E-02	2.049488E-03
3.557988E+03	4.670028E-02	2.062650E-03
3.567817E+03	4.689169E-02	2.075497E-03
3.577645E+03	4.706838E-02	2.088108E-03
3.587474E+03	4.723327E-02	2.100586E-03
3.597303E+03	4.738814E-02	2.112982E-03
3.607131E+03	4.753621E-02	2.125411E-03
3.616960E+03	4.767848E-02	2.137894E-03
3.626789E+03	4.781732E-02	2.150507E-03
3.636617E+03	4.795434E-02	2.163300E-03
3.646446E+03	4.809144E-02	2.176332E-03
3.656275E+03	4.822928E-02	2.189611E-03
3.666103E+03	4.836930E-02	2.203178E-03
3.675932E+03	4.851223E-02	2.217045E-03
3.685761E+03	4.865904E-02	2.231235E-03
3.695590E+03	4.881003E-02	2.245741E-03
3.705418E+03	4.896577E-02	2.260569E-03
3.715247E+03	4.912613E-02	2.275695E-03
3.725076E+03	4.929082E-02	2.291087E-03
3.734904E+03	4.946087E-02	2.306775E-03
3.744733E+03	4.963471E-02	2.322667E-03
3.754562E+03	4.981262E-02	2.338760E-03
3.764390E+03	4.999472E-02	2.355043E-03
3.774219E+03	5.017960E-02	2.371434E-03
3.784048E+03	5.036675E-02	2.387891E-03
3.793877E+03	5.055601E-02	2.404392E-03
3.803705E+03	5.074668E-02	2.420888E-03
3.813534E+03	5.093806E-02	2.437330E-03
3.823363E+03	5.112891E-02	2.453644E-03
3.833191E+03	5.131899E-02	2.469803E-03
3.843020E+03	5.150759E-02	2.485760E-03
3.852849E+03	5.169407E-02	2.501470E-03
3.862677E+03	5.187783E-02	2.516890E-03
3.872506E+03	5.205830E-02	2.531979E-03
3.882335E+03	5.223543E-02	2.546723E-03
3.892163E+03	5.240868E-02	2.561084E-03
3.901992E+03	5.257707E-02	2.575002E-03
3.911821E+03	5.274100E-02	2.588488E-03
3.921650E+03	5.289945E-02	2.601480E-03
3.931478E+03	5.305232E-02	2.613964E-03
3.941307E+03	5.319904E-02	2.625905E-03
3.951136E+03	5.333855E-02	2.637242E-03
3.960964E+03	5.347124E-02	2.647987E-03
3.970793E+03	5.359605E-02	2.658082E-03
3.980622E+03	5.371290E-02	2.667518E-03
3.990450E+03	5.382124E-02	2.676262E-03
4.000279E+03	5.392055E-02	2.684285E-03
4.010108E+03	5.401037E-02	2.691561E-03
4.019937E+03	5.409083E-02	2.698096E-03
4.029765E+03	5.416120E-02	2.703851E-03
4.039594E+03	5.422142E-02	2.708825E-03
4.049423E+03	5.427252E-02	2.713069E-03
4.059251E+03	5.431379E-02	2.716551E-03
4.069080E+03	5.434608E-02	2.719315E-03
4.078909E+03	5.436985E-02	2.721391E-03
4.088737E+03	5.438568E-02	2.722810E-03
4.098566E+03	5.439416E-02	2.723609E-03
4.108395E+03	5.439584E-02	2.723823E-03
4.118223E+03	5.439128E-02	2.723488E-03
4.128052E+03	5.438097E-02	2.722636E-03
4.137881E+03	5.436537E-02	2.721301E-03
4.147710E+03	5.434489E-02	2.719513E-03
4.157538E+03	5.431942E-02	2.717278E-03
4.167367E+03	5.428926E-02	2.714623E-03
4.177196E+03	5.425512E-02	2.711596E-03
4.187024E+03	5.421712E-02	2.708216E-03
4.196853E+03	5.417425E-02	2.704448E-03
4.206682E+03	5.412676E-02	2.700317E-03
4.216510E+03	5.407413E-02	2.695816E-03
4.226339E+03	5.401561E-02	2.690921E-03
4.236168E+03	5.395012E-02	2.685596E-03
4.245997E+03	5.387582E-02	2.679769E-03
4.255825E+03	5.379201E-02	2.673422E-03
4.265654E+03	5.369584E-02	2.666434E-03
4.275483E+03	5.358628E-02	2.658767E-03
4.285311E+03	5.346142E-02	2.650336E-03
4.295140E+03	5.332045E-02	2.641112E-03
4.304969E+03	5.316366E-02	2.631121E-03
4.314797E+03	5.299211E-02	2.620427E-03
4.324626E+03	5.280628E-02	2.609066E-03
4.334455E+03	5.260749E-02	2.597117E-03
4.344283E+03	5.239594E-02	2.584603E-03
4.354112E+03	5.217168E-02	2.571539E-03
4.363941E+03	5.193550E-02	2.557979E-03
4.373770E+03	5.168708E-02	2.543921E-03
4.383598E+03	5.142637E-02	2.529379E-03
4.393427E+03	5.115372E-02	2.514384E-03
4.403256E+03	5.086793E-02	2.498893E-03
4.413084E+03	5.056917E-02	2.482930E-03
4.422913E+03	5.025712E-02	2.466495E-03
4.432742E+03	4.993102E-02	2.449566E-03
4.442570E+03	4.959060E-02	2.432145E-03
4.452399E+03	4.923565E-02	2.414239E-03
4.462228E+03	4.886609E-02	2.395857E-03
4.472057E+03	4.848190E-02	2.377014E-03
4.481885E+03	4.808275E-02	2.357707E-03
4.491714E+03	4.766848E-02	2.337943E-03
4.501543E+03	4.724045E-02	2.317799E-03
4.511371E+03	4.679837E-02	2.297275E-03
4.521200E+03	4.634265E-02	2.276399E-03
4.531029E+03	4.587473E-02	2.255253E-03
4.540857E+03	4.539588E-02	2.233907E-03
4.550686E+03	4.490626E-02	2.212376E-03
4.560515E+03	4.440890E-02	2.190816E-03
4.570343E+03	4.390398E-02	2.169239E-03
4.580172E+03	4.339445E-02	2.147797E-03
4.590001E+03	4.288206E-02	2.126576E-03
4.599830E+03	4.236864E-02	2.105671E-03
4.609658E+03	4.185606E-02	2.085176E-03
4.619487E+03	4.134619E-02	2.065184E-03
4.629316E+03	4.084176E-02	2.045831E-03
4.639144E+03	4.034425E-02	2.027191E-03
4.648973E+03	3.985554E-02	2.009359E-03
4.658802E+03	3.937785E-02	1.992445E-03
4.668630E+03	3.891208E-02	1.976481E-03
4.678459E+03	3.846084E-02	1.961570E-03
4.688288E+03	3.802416E-02	1.947692E-03
4.698117E+03	3.760378E-02	1.934911E-03
4.707945E+03	3.720046E-02	1.923245E-03
4.717774E+03	3.681407E-02	1.912669E-03
4.727603E+03	3.644549E-02	1.903211E-03
4.737431E+03	3.609551E-02	1.894898E-03
4.747260E+03	3.576378E-02	1.887697E-03
4.757089E+03	3.545100E-02	1.881636E-03
4.766917E+03	3.515745E-02	1.876717E-03
4.776746E+03	3.488298E-02	1.872927E-03
4.786575E+03	3.462779E-02	1.870269E-03
4.796403E+03	3.439234E-02	1.868764E-03
4.806232E+03	3.417632E-02	1.868393E-03
4.816061E+03	3.398007E-02	1.869172E-03
4.825890E+03	3.380274E-02	1.871054E-03
4.835718E+03	3.364446E-02	1.874048E-03
4.845547E+03	3.350488E-02	1.878135E-03
4.855376E+03	3.338322E-02	1.883274E-03
4.865204E+03	3.327930E-02	1.889458E-03
4.875033E+03	3.319218E-02	1.896635E-03
4.884862E+03	3.312153E-02	1.904792E-03
4.894690E+03	3.306631E-02	1.913870E-03
4.904519E+03	3.302576E-02	1.923828E-03
4.914348E+03	3.299872E-02	1.934603E-03
4.924177E+03	3.298507E-02	1.946188E-03
4.934005E+03	3.298323E-02	1.958495E-03
4.943834E+03	3.299234E-02	1.971470E-03
4.953663E+03	3.301179E-02	1.985080E-03
4.963491E+03	3.304028E-02	1.999246E-03
4.973320E+03	3.307681E-02	2.013907E-03
4.983149E+03	3.312036E-02	2.028999E-03
4.992977E+03	3.316987E-02	2.044454E-03
5.002806E+03	3.322395E-02	2.060183E-03
5.012635E+03	3.328156E-02	2.076117E-03
5.022463E+03	3.334204E-02	2.092210E-03
5.032292E+03	3.340377E-02	2.108353E-03
5.042121E+03	3.346654E-02	2.124526E-03
5.051950E+03	3.352849E-02	2.140603E-03
5.061778E+03	3.358953E-02	2.156570E-03
5.071607E+03	3.364859E-02	2.172349E-03
5.081436E+03	3.370499E-02	2.187886E-03
5.091264E+03	3.375810E-02	2.203131E-03
5.101093E+03	3.380702E-02	2.218014E-03
5.110922E+03	3.385124E-02	2.232493E-03
5.120750E+03	3.389004E-02	2.246506E-03
5.130579E+03	3.392377E-02	2.260069E-03
5.140408E+03	3.395118E-02	2.273086E-03
5.150237E+03	3.397247E-02	2.285559E-03
5.160065E+03	3.398753E-02	2.297472E-03
5.169894E+03	3.399635E-02	2.308813E-03
5.179723E+03	3.399822E-02	2.319524E-03
5.189551E+03	3.399352E-02	2.329623E-03
5.199380E+03	3.398196E-02	2.339078E-03
5.209209E+03	3.396361E-02	2.347888E-03
5.219037E+03	3.393818E-02	2.356023E-03
5.228866E+03	3.390611E-02	2.363506E-03
5.238695E+03	3.386681E-02	2.370288E-03
5.248523E+03	3.382038E-02	2.376370E-03
5.258352E+03	3.376655E-02	2.381725E-03
5.268181E+03	3.370575E-02	2.386379E-03
5.278010E+03	3.363702E-02	2.390257E-03
5.287838E+03	3.356072E-02	2.393378E-03
5.297667E+03	3.347651E-02	2.395713E-03
5.307496E+03	3.338400E-02	2.397230E-03
5.317324E+03	3.328211E-02	2.397845E-03
5.327153E+03	3.317043E-02	2.397524E-03
5.336982E+03	3.304861E-02	2.396233E-03
5.346810E+03	3.291506E-02	2.393851E-03
5.356639E+03	3.276984E-02	2.390373E-03
5.366468E+03	3.261212E-02	2.385732E-03
5.376297E+03	3.244177E-02	2.379912E-03
5.386125E+03	3.226033E-02	2.373019E-03
5.395954E+03	3.206801E-02	2.365064E-03
5.405783E+03	3.186634E-02	2.356156E-03
5.415611E+03	3.165617E-02	2.346356E-03
5.425440E+03	3.143931E-02	2.335795E-03
5.435269E+03	3.121595E-02	2.324489E-03
5.445097E+03	3.098723E-02	2.312521E-03
5.454926E+03	3.075366E-02	2.299932E-03
5.464755E+03	3.051664E-02	2.286828E-03
5.474583E+03	3.027633E-02	2.273222E-03
5.484412E+03	3.003346E-02	2.259175E-03
5.494241E+03	2.978846E-02	2.244720E-03
5.504070E+03	2.954233E-02	2.229937E-03
5.513898E+03	2.929515E-02	2.214837E-03
5.523727E+03	2.904755E-02	2.199472E-03
5.533556E+03	2.880017E-02	2.183897E-03
5.543384E+03	2.855333E-02	2.168140E-03
5.553213E+03	2.830761E-02	2.152251E-03
5.563042E+03	2.806299E-02	2.136234E-03
5.572870E+03	2.782002E-02	2.120136E-03
5.582699E+03	2.757921E-02	2.104004E-03
5.592528E+03	2.734078E-02	2.087860E-03
5.602357E+03	2.710491E-02	2.071723E-03
5.612185E+03	2.687176E-02	2.055613E-03
5.622014E+03	2.664206E-02	2.039591E-03
5.631843E+03	2.641535E-02	2.023628E-03
5.641671E+03	2.619227E-02	2.007780E-03
5.651500E+03	2.597289E-02	1.992059E-03
5.661329E+03	2.575697E-02	1.976452E-03
5.671157E+03	2.554480E-02	1.960987E-03
5.680986E+03	2.533665E-02	1.945692E-03
5.690815E+03	2.513223E-02	1.930550E-03
5.700643E+03	2.493150E-02	1.915564E-03
5.710472E+03	2.473497E-02	1.900779E-03
5.720301E+03	2.454206E-02	1.886157E-03
5.730130E+03	2.435299E-02	1.871719E-03
5.739958E+03	2.416772E-02	1.857470E-03
5.749787E+03	2.398620E-02	1.843409E-03
5.759616E+03	2.380864E-02	1.829560E-03
5.769444E+03	2.363448E-02	1.815885E-03
5.779273E+03	2.346418E-02	1.802424E-03
5.789102E+03	2.329744E-02	1.789160E-03
5.798930E+03	2.313422E-02	1.776094E-03
5.808759E+03	2.297444E-02	1.763228E-03
5.818588E+03	2.281805E-02	1.750560E-03
5.828417E+03	2.266520E-02	1.738109E-03
5.838245E+03	2.251530E-02	1.725833E-03
5.848074E+03	2.236821E-02	1.713729E-03
5.857903E+03	2.222410E-02	1.701813E-03
5.867731E+03	2.208283E-02	1.690079E-03
5.877560E+03	2.194377E-02	1.678487E-03
5.887389E+03	2.180734E-02	1.667070E-03
5.897217E+03	2.167269E-02	1.655771E-03
5.907046E+03	2.154050E-02	1.644646E-03
5.916875E+03	2.140997E-02	1.633639E-03
5.926703E+03	2.128104E-02	1.622751E-03
5.936532E+03	2.115394E-02	1.612004E-03
5.946361E+03	2.102838E-02	1.601381E-03
5.956190E+03	2.090433E-02	1.590886E-03
5.966018E+03	2.078129E-02	1.580483E-03
5.975847E+03	2.065974E-02	1.570217E-03
5.985676E+03	2.053895E-02	1.560035E-03
5.995504E+03	2.041946E-02	1.549984E-03
6.005333E+03	2.030107E-02	1.540054E-03
6.015162E+03	2.018361E-02	1.530236E-03
6.024990E+03	2.006721E-02	1.520546E-03
6.034819E+03	1.995223E-02	1.511015E-03
6.044648E+03	1.983858E-02	1.501641E-03
6.054477E+03	1.972645E-02	1.492443E-03
6.064305E+03	1.961651E-02	1.483478E-03
6.074134E+03	1.950848E-02	1.474727E-03
6.083963E+03	1.940282E-02	1.466230E-03
6.093791E+03	1.930000E-02	1.458027E-03
6.103620E+03	1.920051E-02	1.450159E-03
6.113449E+03	1.910435E-02	1.442631E-03
6.123277E+03	1.901176E-02	1.435464E-03
6.133106E+03	1.892324E-02	1.428701E-03
6.142935E+03	1.883879E-02	1.422345E-03
6.152763E+03	1.875889E-02	1.416439E-03
6.162592E+03	1.868375E-02	1.410999E-03
6.172421E+03	1.861374E-02	1.406061E-03
6.182250E+03	1.854899E-02	1.401638E-03
6.192078E+03	1.848951E-02	1.397734E-03
6.201907E+03	1.843550E-02	1.394369E-03
6.211736E+03	1.838705E-02	1.391556E-03
6.221564E+03	1.834366E-02	1.389260E-03
6.231393E+03	1.830524E-02	1.387480E-03
6.241222E+03	1.827159E-02	1.386205E-03
6.251050E+03	1.824192E-02	1.385373E-03
6.260879E+03	1.821613E-02	1.384973E-03
6.270708E+03	1.819353E-02	1.384950E-03
6.280537E+03	1.817341E-02	1.385242E-03
6.290365E+03	1.815500E-02	1.385790E-03
6.300194E+03	1.813808E-02	1.386568E-03
6.310023E+03	1.812161E-02	1.387495E-03
6.319851E+03	1.810536E-02	1.388548E-03
6.329680E+03	1.808860E-02	1.389664E-03
6.339509E+03	1.807062E-02	1.390784E-03
6.349337E+03	1.805103E-02	1.391872E-03
6.359166E+03	1.802920E-02	1.392875E-03
6.368995E+03	1.800486E-02	1.393763E-03
6.378823E+03	1.797694E-02	1.394447E-03
6.388652E+03	1.794555E-02	1.394930E-03
6.398481E+03	1.791031E-02	1.395174E-03
6.408310E+03	1.787065E-02	1.395128E-03
6.418138E+03	1.782661E-02	1.394787E-03
6.427967E+03	1.777806E-02	1.394133E-03
6.437796E+03	1.772492E-02	1.393154E-03
6.447624E+03	1.766718E-02	1.391839E-03
6.457453E+03	1.760518E-02	1.390209E-03
6.467282E+03	1.753875E-02	1.388242E-03
6.477110E+03	1.746803E-02	1.385942E-03
6.486939E+03	1.739348E-02	1.383339E-03
6.496768E+03	1.731531E-02	1.380442E-03
6.506597E+03	1.723345E-02	1.377239E-03
6.516425E+03	1.714842E-02	1.373766E-03
6.526254E+03	1.706020E-02	1.370014E-03
6.536083E+03	1.696958E-02	1.366041E-03
6.545911E+03	1.687626E-02	1.361818E-03
6.555740E+03	1.678049E-02	1.357359E-03
6.565569E+03	1.668283E-02	1.352704E-03
6.575397E+03	1.658353E-02	1.347870E-03
6.585226E+03	1.648257E-02	1.342850E-03
6.595055E+03	1.638024E-02	1.337664E-03
6.604883E+03	1.627708E-02	1.332353E-03
6.614712E+03	1.617308E-02	1.326912E-03
6.624541E+03	1.606882E-02	1.321385E-03
6.634370E+03	1.596398E-02	1.315745E-03
6.644198E+03	1.585943E-02	1.310059E-03
6.654027E+03	1.575485E-02	1.304299E-03
6.663856E+03	1.565108E-02	1.298535E-03
6.673684E+03	1.554783E-02	1.292738E-03
6.683513E+03	1.544565E-02	1.286955E-03
6.693342E+03	1.534481E-02	1.281205E-03
6.703170E+03	1.524531E-02	1.275490E-03
6.712999E+03	1.514771E-02	1.269856E-03
6.722828E+03	1.505204E-02	1.264302E-03
6.732657E+03	1.495882E-02	1.258876E-03
6.742485E+03	1.486776E-02	1.253551E-03
6.752314E+03	1.477967E-02	1.248396E-03
6.762143E+03	1.469446E-02	1.243404E-03
6.771971E+03	1.461231E-02	1.238591E-03
6.781800E+03	1.453305E-02	1.233944E-03
6.791629E+03	1.445731E-02	1.229516E-03
6.801457E+03	1.438427E-02	1.225239E-03
6.811286E+03	1.431470E-02	1.221180E-03
6.821115E+03	1.424797E-02	1.217284E-03
6.830943E+03	1.418391E-02	1.213539E-03
6.840772E+03	1.412260E-02	1.209953E-03
6.850601E+03	1.406353E-02	1.206482E-03
6.860430E+03	1.400642E-02	1.203102E-03
6.870258E+03	1.395095E-02	1.199788E-03
6.880087E+03	1.389680E-02	1.196511E-03
6.889916E+03	1.384361E-02	1.193241E-03
6.899744E+03	1.379075E-02	1.189926E-03
6.909573E+03	1.373842E-02	1.186580E-03
6.919402E+03	1.368543E-02	1.183105E-03
6.929230E+03	1.363229E-02	1.179541E-03
6.939059E+03	1.357784E-02	1.175791E-03
6.948888E+03	1.352237E-02	1.171879E-03
6.958717E+03	1.346533E-02	1.167759E-03
6.968545E+03	1.340652E-02	1.163412E-03
6.978374E+03	1.334602E-02	1.158847E-03
6.988203E+03	1.328315E-02	1.154007E-03
6.998031E+03	1.321811E-02	1.148908E-03
7.007860E+03	1.315057E-02	1.143522E-03
7.017689E+03	1.308080E-02	1.137875E-03
7.027517E+03	1.300884E-02	1.131971E-03
7.037346E+03	1.293451E-02	1.125795E-03
7.047175E+03	1.285818E-02	1.119382E-03
7.057003E+03	1.277947E-02	1.112699E-03
7.066832E+03	1.269907E-02	1.105809E-03
7.076661E+03	1.261692E-02	1.098708E-03
7.086490E+03	1.253297E-02	1.091393E-03
7.096318E+03	1.244770E-02	1.083909E-03
7.106147E+03	1.236134E-02	1.076278E-03
7.115976E+03	1.227390E-02	1.068502E-03
7.125804E+03	1.218564E-02	1.060606E-03
7.135633E+03	1.209685E-02	1.052618E-03
7.145462E+03	1.200781E-02	1.044566E-03
7.155290E+03	1.191885E-02	1.036478E-03
7.165119E+03	1.182979E-02	1.028343E-03
7.174948E+03	1.174146E-02	1.020235E-03
7.184777E+03	1.165397E-02	1.012165E-03
7.194605E+03	1.156740E-02	1.004144E-03
7.204434E+03	1.148235E-02	9.962253E-04
7.214263E+03	1.139866E-02	9.883977E-04
7.224091E+03	1.131667E-02	9.806931E-04
7.233920E+03	1.123669E-02	9.731407E-04
7.243749E+03	1.115879E-02	9.657478E-04
7.253577E+03	1.108348E-02	9.585617E-04
7.263406E+03	1.101033E-02	9.515461E-04
7.273235E+03	1.094003E-02	9.447648E-04
7.283063E+03	1.087235E-02	9.381985E-04
7.292892E+03	1.080772E-02	9.318859E-04
7.302721E+03	1.074606E-02	9.258236E-04
7.312550E+03	1.068753E-02	9.200260E-04
7.322378E+03	1.063246E-02	9.145242E-04
7.332207E+03	1.058071E-02	9.093079E-04
7.342036E+03	1.053301E-02	9.044417E-04
7.351864E+03	1.048893E-02	8.998905E-04
7.361693E+03	1.044892E-02	8.956944E-04
7.371522E+03	1.041269E-02	8.918318E-04
7.381350E+03	1.038090E-02	8.883595E-04
7.391179E+03	1.035323E-02	8.852520E-04
7.401008E+03	1.032957E-02	8.825038E-04
7.410837E+03	1.031008E-02	8.801282E-04
7.420665E+03	1.029461E-02	8.781164E-04
7.430494E+03	1.028350E-02	8.764991E-04
7.440323E+03	1.027617E-02	8.752295E-04
7.450151E+03	1.027270E-02	8.743164E-04
7.459980E+03	1.027317E-02	8.737689E-04
7.469809E+03	1.027716E-02	8.735556E-04
7.479637E+03	1.028473E-02	8.736828E-04
7.489466E+03	1.029541E-02	8.741153E-04
7.499295E+03	1.030943E-02	8.748751E-04
7.509123E+03	1.032606E-02	8.759031E-04
7.518952E+03	1.034545E-02	8.772175E-04
7.528781E+03	1.036682E-02	8.787552E-04
7.538610E+03	1.039030E-02	8.805312E-04
7.548438E+03	1.041506E-02	8.824795E-04
7.558267E+03	1.044122E-02	8.846145E-04
7.568096E+03	1.046819E-02	8.868911E-04
7.577924E+03	1.049561E-02	8.892841E-04
7.587753E+03	1.052317E-02	8.917709E-04
7.597582E+03	1.055055E-02	8.943292E-04
7.607410E+03	1.057744E-02	8.969383E-04
7.617239E+03	1.060331E-02	8.995588E-04
7.627068E+03	1.062839E-02	9.022135E-04
