#wls	flux	fluxerr
1.572591E+03	1.593644E-02	6.352406E-04
1.611906E+03	1.574949E-02	6.269358E-04
1.651221E+03	1.553996E-02	6.177301E-04
1.690536E+03	1.530721E-02	6.076030E-04
1.729850E+03	1.505244E-02	5.966053E-04
1.769165E+03	1.477842E-02	5.848525E-04
1.808480E+03	1.448355E-02	5.722845E-04
1.847795E+03	1.417321E-02	5.591191E-04
1.887110E+03	1.385003E-02	5.454634E-04
1.926424E+03	1.351793E-02	5.314753E-04
1.965739E+03	1.318129E-02	5.173296E-04
2.005054E+03	1.284693E-02	5.032962E-04
2.044369E+03	1.252127E-02	4.896263E-04
2.083683E+03	1.221044E-02	4.765591E-04
2.122998E+03	1.192360E-02	4.644488E-04
2.162313E+03	1.166685E-02	4.535287E-04
2.201628E+03	1.144638E-02	4.440327E-04
2.240943E+03	1.126808E-02	4.361808E-04
2.280257E+03	1.113688E-02	4.301534E-04
2.319572E+03	1.105693E-02	4.260990E-04
2.358887E+03	1.103056E-02	4.240935E-04
2.398202E+03	1.105820E-02	4.241389E-04
2.437517E+03	1.114033E-02	4.262375E-04
2.476831E+03	1.127509E-02	4.303019E-04
2.516146E+03	1.146114E-02	4.362643E-04
2.555461E+03	1.169581E-02	4.440061E-04
2.594776E+03	1.197726E-02	4.534402E-04
2.634090E+03	1.230341E-02	4.644706E-04
2.673405E+03	1.267300E-02	4.770324E-04
2.712720E+03	1.308568E-02	4.910942E-04
2.752035E+03	1.354162E-02	5.066442E-04
2.791350E+03	1.404191E-02	5.237030E-04
2.830664E+03	1.458931E-02	5.423521E-04
2.869979E+03	1.518653E-02	5.626699E-04
2.909294E+03	1.583901E-02	5.848321E-04
2.948609E+03	1.655163E-02	6.089902E-04
2.958437E+03	1.674037E-02	6.153819E-04
2.968266E+03	1.693314E-02	6.219053E-04
2.978095E+03	1.712999E-02	6.285626E-04
2.987923E+03	1.733177E-02	6.353839E-04
2.997752E+03	1.753815E-02	6.423568E-04
3.007581E+03	1.774923E-02	6.494838E-04
3.017410E+03	1.796544E-02	6.567807E-04
3.027238E+03	1.818649E-02	6.642356E-04
3.037067E+03	1.841244E-02	6.718504E-04
3.046896E+03	1.864414E-02	6.796555E-04
3.056724E+03	1.888090E-02	6.876247E-04
3.066553E+03	1.912318E-02	6.957741E-04
3.076382E+03	1.937067E-02	7.040919E-04
3.086210E+03	1.962459E-02	7.126217E-04
3.096039E+03	1.988387E-02	7.213234E-04
3.105868E+03	2.014896E-02	7.302132E-04
3.115697E+03	2.042032E-02	7.393064E-04
3.125525E+03	2.069803E-02	7.486051E-04
3.135354E+03	2.098137E-02	7.580824E-04
3.145183E+03	2.127157E-02	7.677821E-04
3.155011E+03	2.156791E-02	7.776771E-04
3.164840E+03	2.187085E-02	7.877829E-04
3.174669E+03	2.218004E-02	7.980862E-04
3.184497E+03	2.249592E-02	8.086020E-04
3.194326E+03	2.281853E-02	8.193306E-04
3.204155E+03	2.314792E-02	8.302727E-04
3.213983E+03	2.348371E-02	8.414140E-04
3.223812E+03	2.382634E-02	8.527687E-04
3.233641E+03	2.417582E-02	8.643366E-04
3.243470E+03	2.453176E-02	8.761025E-04
3.253298E+03	2.489457E-02	8.880802E-04
3.263127E+03	2.526386E-02	9.002542E-04
3.272956E+03	2.563999E-02	9.126372E-04
3.282784E+03	2.602257E-02	9.252134E-04
3.292613E+03	2.641157E-02	9.379806E-04
3.302442E+03	2.680694E-02	9.509370E-04
3.312270E+03	2.720867E-02	9.640800E-04
3.322099E+03	2.761669E-02	9.774070E-04
3.331928E+03	2.803056E-02	9.909008E-04
3.341757E+03	2.845063E-02	1.004572E-03
3.351585E+03	2.887601E-02	1.018390E-03
3.361414E+03	2.930746E-02	1.032379E-03
3.371243E+03	2.974410E-02	1.046508E-03
3.381071E+03	3.018585E-02	1.060773E-03
3.390900E+03	3.063264E-02	1.075170E-03
3.400729E+03	3.108399E-02	1.089681E-03
3.410557E+03	3.154025E-02	1.104318E-03
3.420386E+03	3.200095E-02	1.119063E-03
3.430215E+03	3.246560E-02	1.133899E-03
3.440043E+03	3.293414E-02	1.148822E-03
3.449872E+03	3.340612E-02	1.163815E-03
3.459701E+03	3.388191E-02	1.178892E-03
3.469530E+03	3.436022E-02	1.194005E-03
3.479358E+03	3.484144E-02	1.209169E-03
3.489187E+03	3.532513E-02	1.224366E-03
3.499016E+03	3.581131E-02	1.239597E-03
3.508844E+03	3.629910E-02	1.254832E-03
3.518673E+03	3.678810E-02	1.270054E-03
3.528502E+03	3.727877E-02	1.285280E-03
3.538330E+03	3.776982E-02	1.300464E-03
3.548159E+03	3.826173E-02	1.315623E-03
3.557988E+03	3.875410E-02	1.330743E-03
3.567817E+03	3.924608E-02	1.345793E-03
3.577645E+03	3.973729E-02	1.360761E-03
3.587474E+03	4.022775E-02	1.375646E-03
3.597303E+03	4.071659E-02	1.390419E-03
3.607131E+03	4.120428E-02	1.405096E-03
3.616960E+03	4.168948E-02	1.419630E-03
3.626789E+03	4.217218E-02	1.434022E-03
3.636617E+03	4.265188E-02	1.448255E-03
3.646446E+03	4.312854E-02	1.462326E-03
3.656275E+03	4.360116E-02	1.476202E-03
3.666103E+03	4.406962E-02	1.489880E-03
3.675932E+03	4.453333E-02	1.503339E-03
3.685761E+03	4.499209E-02	1.516574E-03
3.695590E+03	4.544523E-02	1.529562E-03
3.705418E+03	4.589250E-02	1.542294E-03
3.715247E+03	4.633315E-02	1.554747E-03
3.725076E+03	4.676637E-02	1.566895E-03
3.734904E+03	4.719273E-02	1.578755E-03
3.744733E+03	4.761040E-02	1.590269E-03
3.754562E+03	4.801941E-02	1.601439E-03
3.764390E+03	4.841974E-02	1.612264E-03
3.774219E+03	4.880995E-02	1.622698E-03
3.784048E+03	4.918950E-02	1.632723E-03
3.793877E+03	4.955828E-02	1.642339E-03
3.803705E+03	4.991570E-02	1.651526E-03
3.813534E+03	5.026117E-02	1.660267E-03
3.823363E+03	5.059363E-02	1.668527E-03
3.833191E+03	5.091293E-02	1.676306E-03
3.843020E+03	5.121848E-02	1.683583E-03
3.852849E+03	5.150971E-02	1.690344E-03
3.862677E+03	5.178607E-02	1.696571E-03
3.872506E+03	5.204705E-02	1.702251E-03
3.882335E+03	5.229266E-02	1.707386E-03
3.892163E+03	5.252250E-02	1.711965E-03
3.901992E+03	5.273576E-02	1.715964E-03
3.911821E+03	5.293317E-02	1.719411E-03
3.921650E+03	5.311413E-02	1.722286E-03
3.931478E+03	5.327911E-02	1.724610E-03
3.941307E+03	5.342828E-02	1.726388E-03
3.951136E+03	5.356148E-02	1.727620E-03
3.960964E+03	5.368017E-02	1.728355E-03
3.970793E+03	5.378463E-02	1.728603E-03
3.980622E+03	5.387625E-02	1.728412E-03
3.990450E+03	5.395619E-02	1.727822E-03
4.000279E+03	5.402581E-02	1.726877E-03
4.010108E+03	5.408667E-02	1.725629E-03
4.019937E+03	5.414096E-02	1.724149E-03
4.029765E+03	5.419007E-02	1.722483E-03
4.039594E+03	5.423598E-02	1.720695E-03
4.049423E+03	5.428172E-02	1.718880E-03
4.059251E+03	5.432845E-02	1.717076E-03
4.069080E+03	5.437882E-02	1.715366E-03
4.078909E+03	5.443500E-02	1.713816E-03
4.088737E+03	5.449914E-02	1.712495E-03
4.098566E+03	5.457335E-02	1.711466E-03
4.108395E+03	5.465971E-02	1.710793E-03
4.118223E+03	5.476024E-02	1.710536E-03
4.128052E+03	5.487684E-02	1.710752E-03
4.137881E+03	5.501138E-02	1.711495E-03
4.147710E+03	5.516558E-02	1.712817E-03
4.157538E+03	5.534060E-02	1.714749E-03
4.167367E+03	5.553800E-02	1.717334E-03
4.177196E+03	5.575967E-02	1.720628E-03
4.187024E+03	5.600699E-02	1.724667E-03
4.196853E+03	5.628018E-02	1.729453E-03
4.206682E+03	5.658090E-02	1.735032E-03
4.216510E+03	5.691015E-02	1.741429E-03
4.226339E+03	5.726887E-02	1.748666E-03
4.236168E+03	5.765786E-02	1.756762E-03
4.245997E+03	5.807725E-02	1.765715E-03
4.255825E+03	5.852858E-02	1.775565E-03
4.265654E+03	5.901113E-02	1.786284E-03
4.275483E+03	5.952610E-02	1.797901E-03
4.285311E+03	6.007337E-02	1.810405E-03
4.295140E+03	6.065316E-02	1.823796E-03
4.304969E+03	6.126485E-02	1.838049E-03
4.314797E+03	6.190806E-02	1.853145E-03
4.324626E+03	6.258151E-02	1.869039E-03
4.334455E+03	6.328463E-02	1.885708E-03
4.344283E+03	6.401534E-02	1.903082E-03
4.354112E+03	6.477106E-02	1.921079E-03
4.363941E+03	6.554990E-02	1.939638E-03
4.373770E+03	6.634828E-02	1.958646E-03
4.383598E+03	6.716283E-02	1.978001E-03
4.393427E+03	6.799016E-02	1.997598E-03
4.403256E+03	6.882464E-02	2.017269E-03
4.413084E+03	6.966223E-02	2.036894E-03
4.422913E+03	7.049761E-02	2.056317E-03
4.432742E+03	7.132498E-02	2.075368E-03
4.442570E+03	7.213852E-02	2.093879E-03
4.452399E+03	7.293268E-02	2.111692E-03
4.462228E+03	7.370164E-02	2.128643E-03
4.472057E+03	7.443983E-02	2.144575E-03
4.481885E+03	7.514116E-02	2.159322E-03
4.491714E+03	7.579967E-02	2.172717E-03
4.501543E+03	7.641208E-02	2.184678E-03
4.511371E+03	7.697260E-02	2.195048E-03
4.521200E+03	7.747660E-02	2.203706E-03
4.531029E+03	7.792168E-02	2.210598E-03
4.540857E+03	7.830523E-02	2.215661E-03
4.550686E+03	7.862302E-02	2.218790E-03
4.560515E+03	7.887608E-02	2.220029E-03
4.570343E+03	7.906085E-02	2.219291E-03
4.580172E+03	7.917901E-02	2.216640E-03
4.590001E+03	7.923077E-02	2.212096E-03
4.599830E+03	7.921682E-02	2.205693E-03
4.609658E+03	7.913866E-02	2.197489E-03
4.619487E+03	7.899834E-02	2.187555E-03
4.629316E+03	7.879996E-02	2.176018E-03
4.639144E+03	7.854589E-02	2.162957E-03
4.648973E+03	7.823959E-02	2.148481E-03
4.658802E+03	7.788570E-02	2.132730E-03
4.668630E+03	7.748683E-02	2.115785E-03
4.678459E+03	7.704959E-02	2.097838E-03
4.688288E+03	7.657631E-02	2.078961E-03
4.698117E+03	7.607313E-02	2.059330E-03
4.707945E+03	7.554472E-02	2.039078E-03
4.717774E+03	7.499447E-02	2.018302E-03
4.727603E+03	7.442822E-02	1.997167E-03
4.737431E+03	7.385189E-02	1.975833E-03
4.747260E+03	7.326949E-02	1.954411E-03
4.757089E+03	7.268704E-02	1.933064E-03
4.766917E+03	7.210998E-02	1.911935E-03
4.776746E+03	7.154276E-02	1.891142E-03
4.786575E+03	7.099007E-02	1.870807E-03
4.796403E+03	7.045740E-02	1.851070E-03
4.806232E+03	6.994821E-02	1.832017E-03
4.816061E+03	6.946722E-02	1.813767E-03
4.825890E+03	6.901666E-02	1.796371E-03
4.835718E+03	6.860065E-02	1.779928E-03
4.845547E+03	6.822230E-02	1.764512E-03
4.855376E+03	6.788359E-02	1.750163E-03
4.865204E+03	6.758786E-02	1.736959E-03
4.875033E+03	6.733665E-02	1.724927E-03
4.884862E+03	6.713289E-02	1.714133E-03
4.894690E+03	6.697770E-02	1.704593E-03
4.904519E+03	6.687284E-02	1.696340E-03
4.914348E+03	6.681930E-02	1.689386E-03
4.924177E+03	6.681975E-02	1.683785E-03
4.934005E+03	6.687412E-02	1.679523E-03
4.943834E+03	6.698351E-02	1.676613E-03
4.953663E+03	6.714934E-02	1.675077E-03
4.963491E+03	6.737161E-02	1.674900E-03
4.973320E+03	6.765050E-02	1.676073E-03
4.983149E+03	6.798601E-02	1.678580E-03
4.992977E+03	6.837779E-02	1.682399E-03
5.002806E+03	6.882447E-02	1.687481E-03
5.012635E+03	6.932488E-02	1.693783E-03
5.022463E+03	6.987824E-02	1.701272E-03
5.032292E+03	7.048129E-02	1.709856E-03
5.042121E+03	7.113313E-02	1.719499E-03
5.051950E+03	7.182902E-02	1.730075E-03
5.061778E+03	7.256731E-02	1.741531E-03
5.071607E+03	7.334397E-02	1.753760E-03
5.081436E+03	7.415515E-02	1.766660E-03
5.091264E+03	7.499693E-02	1.780128E-03
5.101093E+03	7.586403E-02	1.794032E-03
5.110922E+03	7.675179E-02	1.808254E-03
5.120750E+03	7.765462E-02	1.822657E-03
5.130579E+03	7.856876E-02	1.837150E-03
5.140408E+03	7.948668E-02	1.851554E-03
5.150237E+03	8.040366E-02	1.865757E-03
5.160065E+03	8.131412E-02	1.879631E-03
5.169894E+03	8.221248E-02	1.893049E-03
5.179723E+03	8.309149E-02	1.905848E-03
5.189551E+03	8.394655E-02	1.917927E-03
5.199380E+03	8.477143E-02	1.929152E-03
5.209209E+03	8.556097E-02	1.939414E-03
5.219037E+03	8.630939E-02	1.948591E-03
5.228866E+03	8.701291E-02	1.956610E-03
5.238695E+03	8.766565E-02	1.963351E-03
5.248523E+03	8.826366E-02	1.968741E-03
5.258352E+03	8.880267E-02	1.972700E-03
5.268181E+03	8.928067E-02	1.975199E-03
5.278010E+03	8.969239E-02	1.976140E-03
5.287838E+03	9.003684E-02	1.975520E-03
5.297667E+03	9.031166E-02	1.973305E-03
5.307496E+03	9.051497E-02	1.969474E-03
5.317324E+03	9.064371E-02	1.963982E-03
5.327153E+03	9.069710E-02	1.956833E-03
5.336982E+03	9.067489E-02	1.948043E-03
5.346810E+03	9.057382E-02	1.937563E-03
5.356639E+03	9.039480E-02	1.925435E-03
5.366468E+03	9.013643E-02	1.911653E-03
5.376297E+03	8.979986E-02	1.896262E-03
5.386125E+03	8.939106E-02	1.879412E-03
5.395954E+03	8.891275E-02	1.861180E-03
5.405783E+03	8.837172E-02	1.841727E-03
5.415611E+03	8.777302E-02	1.821176E-03
5.425440E+03	8.712473E-02	1.799712E-03
5.435269E+03	8.643035E-02	1.777421E-03
5.445097E+03	8.569637E-02	1.754449E-03
5.454926E+03	8.492741E-02	1.730903E-03
5.464755E+03	8.413067E-02	1.706939E-03
5.474583E+03	8.330994E-02	1.682642E-03
5.484412E+03	8.247043E-02	1.658125E-03
5.494241E+03	8.161655E-02	1.633482E-03
5.504070E+03	8.075419E-02	1.608834E-03
5.513898E+03	7.988652E-02	1.584250E-03
5.523727E+03	7.901815E-02	1.559820E-03
5.533556E+03	7.815337E-02	1.535632E-03
5.543384E+03	7.729553E-02	1.511749E-03
5.553213E+03	7.644826E-02	1.488243E-03
5.563042E+03	7.561349E-02	1.465148E-03
5.572870E+03	7.479424E-02	1.442519E-03
5.582699E+03	7.399329E-02	1.420407E-03
5.592528E+03	7.321221E-02	1.398838E-03
5.602357E+03	7.245233E-02	1.377832E-03
5.612185E+03	7.171445E-02	1.357400E-03
5.622014E+03	7.100072E-02	1.337576E-03
5.631843E+03	7.030986E-02	1.318331E-03
5.641671E+03	6.964326E-02	1.299686E-03
5.651500E+03	6.900052E-02	1.281628E-03
5.661329E+03	6.838023E-02	1.264125E-03
5.671157E+03	6.778223E-02	1.247169E-03
5.680986E+03	6.720598E-02	1.230746E-03
5.690815E+03	6.664939E-02	1.214811E-03
5.700643E+03	6.611087E-02	1.199333E-03
5.710472E+03	6.559022E-02	1.184304E-03
5.720301E+03	6.508422E-02	1.169662E-03
5.730130E+03	6.459179E-02	1.155384E-03
5.739958E+03	6.411112E-02	1.141437E-03
5.749787E+03	6.364056E-02	1.127790E-03
5.759616E+03	6.317917E-02	1.114423E-03
5.769444E+03	6.272408E-02	1.101285E-03
5.779273E+03	6.227528E-02	1.088375E-03
5.789102E+03	6.183091E-02	1.075660E-03
5.798930E+03	6.139000E-02	1.063124E-03
5.808759E+03	6.095169E-02	1.050752E-03
5.818588E+03	6.051535E-02	1.038532E-03
5.828417E+03	6.008115E-02	1.026469E-03
5.838245E+03	5.964740E-02	1.014533E-03
5.848074E+03	5.921395E-02	1.002724E-03
5.857903E+03	5.878147E-02	9.910533E-04
5.867731E+03	5.835011E-02	9.795238E-04
5.877560E+03	5.791887E-02	9.681194E-04
5.887389E+03	5.748962E-02	9.568718E-04
5.897217E+03	5.706106E-02	9.457601E-04
5.907046E+03	5.663615E-02	9.348334E-04
5.916875E+03	5.621407E-02	9.240783E-04
5.926703E+03	5.579622E-02	9.135178E-04
5.936532E+03	5.538489E-02	9.031890E-04
5.946361E+03	5.498125E-02	8.931103E-04
5.956190E+03	5.458731E-02	8.833134E-04
5.966018E+03	5.420389E-02	8.738102E-04
5.975847E+03	5.383452E-02	8.646562E-04
5.985676E+03	5.347950E-02	8.558542E-04
5.995504E+03	5.314234E-02	8.474584E-04
6.005333E+03	5.282454E-02	8.394905E-04
6.015162E+03	5.252751E-02	8.319700E-04
6.024990E+03	5.225311E-02	8.249241E-04
6.034819E+03	5.200368E-02	8.183868E-04
6.044648E+03	5.178005E-02	8.123684E-04
6.054477E+03	5.158346E-02	8.068855E-04
6.064305E+03	5.141619E-02	8.019713E-04
6.074134E+03	5.127767E-02	7.976142E-04
6.083963E+03	5.116900E-02	7.938289E-04
6.093791E+03	5.109099E-02	7.906260E-04
6.103620E+03	5.104420E-02	7.880121E-04
6.113449E+03	5.102756E-02	7.859693E-04
6.123277E+03	5.104040E-02	7.844862E-04
6.133106E+03	5.108241E-02	7.835572E-04
6.142935E+03	5.115168E-02	7.831529E-04
6.152763E+03	5.124734E-02	7.832600E-04
6.162592E+03	5.136759E-02	7.838517E-04
6.172421E+03	5.151104E-02	7.849081E-04
6.182250E+03	5.167540E-02	7.863955E-04
6.192078E+03	5.185812E-02	7.882773E-04
6.201907E+03	5.205723E-02	7.905255E-04
6.211736E+03	5.227060E-02	7.931106E-04
6.221564E+03	5.249462E-02	7.959809E-04
6.231393E+03	5.272714E-02	7.991067E-04
6.241222E+03	5.296607E-02	8.024597E-04
6.251050E+03	5.320802E-02	8.059919E-04
6.260879E+03	5.345206E-02	8.096927E-04
6.270708E+03	5.369606E-02	8.135327E-04
6.280537E+03	5.393819E-02	8.174850E-04
6.290365E+03	5.417696E-02	8.215270E-04
6.300194E+03	5.441272E-02	8.256642E-04
6.310023E+03	5.464369E-02	8.298693E-04
6.319851E+03	5.487050E-02	8.341516E-04
6.329680E+03	5.509204E-02	8.384936E-04
6.339509E+03	5.530680E-02	8.428718E-04
6.349337E+03	5.551367E-02	8.472684E-04
6.359166E+03	5.571032E-02	8.516461E-04
6.368995E+03	5.589498E-02	8.559768E-04
6.378823E+03	5.606322E-02	8.601903E-04
6.388652E+03	5.621396E-02	8.642674E-04
6.398481E+03	5.634445E-02	8.681630E-04
6.408310E+03	5.645119E-02	8.718192E-04
6.418138E+03	5.653254E-02	8.752065E-04
6.427967E+03	5.658617E-02	8.782841E-04
6.437796E+03	5.661000E-02	8.810143E-04
6.447624E+03	5.660222E-02	8.833626E-04
6.457453E+03	5.656221E-02	8.853130E-04
6.467282E+03	5.648792E-02	8.868261E-04
6.477110E+03	5.637851E-02	8.878809E-04
6.486939E+03	5.623448E-02	8.884772E-04
6.496768E+03	5.605576E-02	8.886055E-04
6.506597E+03	5.584176E-02	8.882476E-04
6.516425E+03	5.559411E-02	8.874202E-04
6.526254E+03	5.531295E-02	8.861163E-04
6.536083E+03	5.500153E-02	8.843791E-04
6.545911E+03	5.465973E-02	8.821970E-04
6.555740E+03	5.428954E-02	8.795933E-04
6.565569E+03	5.389417E-02	8.766110E-04
6.575397E+03	5.347609E-02	8.732817E-04
6.585226E+03	5.303702E-02	8.696253E-04
6.595055E+03	5.257976E-02	8.656798E-04
6.604883E+03	5.210808E-02	8.615001E-04
6.614712E+03	5.162398E-02	8.571127E-04
6.624541E+03	5.113127E-02	8.525746E-04
6.634370E+03	5.063102E-02	8.478982E-04
6.644198E+03	5.012782E-02	8.431556E-04
6.654027E+03	4.962256E-02	8.383577E-04
6.663856E+03	4.911958E-02	8.335741E-04
6.673684E+03	4.861949E-02	8.288125E-04
6.683513E+03	4.812541E-02	8.241238E-04
6.693342E+03	4.763935E-02	8.195409E-04
6.703170E+03	4.716230E-02	8.150798E-04
6.712999E+03	4.669674E-02	8.107830E-04
6.722828E+03	4.624326E-02	8.066606E-04
6.732657E+03	4.580392E-02	8.027493E-04
6.742485E+03	4.537803E-02	7.990378E-04
6.752314E+03	4.496806E-02	7.955709E-04
6.762143E+03	4.457377E-02	7.923457E-04
6.771971E+03	4.419549E-02	7.893704E-04
6.781800E+03	4.383259E-02	7.866355E-04
6.791629E+03	4.348670E-02	7.841725E-04
6.801457E+03	4.315515E-02	7.819354E-04
6.811286E+03	4.284005E-02	7.799649E-04
6.821115E+03	4.253927E-02	7.782242E-04
6.830943E+03	4.225218E-02	7.767043E-04
6.840772E+03	4.197886E-02	7.754088E-04
6.850601E+03	4.171769E-02	7.743098E-04
6.860430E+03	4.146781E-02	7.733930E-04
6.870258E+03	4.122830E-02	7.726432E-04
6.880087E+03	4.099823E-02	7.720443E-04
6.889916E+03	4.077666E-02	7.715799E-04
6.899744E+03	4.056189E-02	7.712188E-04
6.909573E+03	4.035461E-02	7.709752E-04
6.919402E+03	4.015159E-02	7.707879E-04
6.929230E+03	3.995444E-02	7.706881E-04
6.939059E+03	3.976006E-02	7.706165E-04
6.948888E+03	3.956940E-02	7.705917E-04
6.958717E+03	3.938113E-02	7.705875E-04
6.968545E+03	3.919482E-02	7.705952E-04
6.978374E+03	3.901090E-02	7.706234E-04
6.988203E+03	3.882756E-02	7.706359E-04
6.998031E+03	3.864546E-02	7.706453E-04
7.007860E+03	3.846376E-02	7.706342E-04
7.017689E+03	3.828327E-02	7.706188E-04
7.027517E+03	3.810408E-02	7.706002E-04
7.037346E+03	3.792556E-02	7.705655E-04
7.047175E+03	3.774864E-02	7.705333E-04
7.057003E+03	3.757196E-02	7.704756E-04
7.066832E+03	3.739722E-02	7.704268E-04
7.076661E+03	3.722379E-02	7.703740E-04
7.086490E+03	3.705099E-02	7.703030E-04
7.096318E+03	3.687964E-02	7.702306E-04
7.106147E+03	3.670973E-02	7.701565E-04
7.115976E+03	3.654047E-02	7.700638E-04
7.125804E+03	3.637173E-02	7.699501E-04
7.135633E+03	3.620340E-02	7.698123E-04
7.145462E+03	3.603529E-02	7.696462E-04
7.155290E+03	3.586722E-02	7.694479E-04
7.165119E+03	3.569751E-02	7.691807E-04
7.174948E+03	3.552747E-02	7.688722E-04
7.184777E+03	3.535623E-02	7.685029E-04
7.194605E+03	3.518295E-02	7.680542E-04
7.204434E+03	3.500836E-02	7.675409E-04
7.214263E+03	3.483108E-02	7.669322E-04
7.224091E+03	3.465128E-02	7.662309E-04
7.233920E+03	3.446927E-02	7.654429E-04
7.243749E+03	3.428477E-02	7.645611E-04
7.253577E+03	3.409904E-02	7.636130E-04
7.263406E+03	3.391062E-02	7.625651E-04
7.273235E+03	3.372176E-02	7.614671E-04
7.283063E+03	3.353193E-02	7.603072E-04
7.292892E+03	3.334287E-02	7.591242E-04
7.302721E+03	3.315494E-02	7.579265E-04
7.312550E+03	3.296928E-02	7.567407E-04
7.322378E+03	3.278776E-02	7.556104E-04
7.332207E+03	3.261088E-02	7.545478E-04
7.342036E+03	3.244190E-02	7.536304E-04
7.351864E+03	3.228059E-02	7.528546E-04
7.361693E+03	3.212945E-02	7.522812E-04
7.371522E+03	3.198886E-02	7.519217E-04
7.381350E+03	3.186191E-02	7.518519E-04
7.391179E+03	3.174883E-02	7.520812E-04
7.401008E+03	3.165049E-02	7.526336E-04
7.410837E+03	3.156838E-02	7.535486E-04
7.420665E+03	3.150316E-02	7.548470E-04
7.430494E+03	3.145686E-02	7.565813E-04
7.440323E+03	3.142858E-02	7.587355E-04
7.450151E+03	3.141942E-02	7.613409E-04
7.459980E+03	3.143038E-02	7.644268E-04
7.469809E+03	3.146093E-02	7.679853E-04
7.479637E+03	3.151178E-02	7.720394E-04
7.489466E+03	3.158208E-02	7.765734E-04
7.499295E+03	3.167295E-02	7.816198E-04
7.509123E+03	3.178242E-02	7.871352E-04
7.518952E+03	3.191117E-02	7.931415E-04
7.528781E+03	3.205674E-02	7.995822E-04
7.538610E+03	3.221935E-02	8.064668E-04
7.548438E+03	3.239599E-02	8.137244E-04
7.558267E+03	3.258639E-02	8.213516E-04
7.568096E+03	3.278784E-02	8.292830E-04
7.577924E+03	3.299814E-02	8.374658E-04
7.587753E+03	3.321494E-02	8.458419E-04
7.597582E+03	3.343574E-02	8.543491E-04
7.607410E+03	3.365790E-02	8.629206E-04
7.617239E+03	3.387797E-02	8.714674E-04
7.627068E+03	3.409473E-02	8.799580E-04
