#wls	flux	fluxerr
1.572591E+03	3.653659E-04	1.357332E-05
1.611906E+03	3.602791E-04	1.337610E-05
1.651221E+03	3.554390E-04	1.318804E-05
1.690536E+03	3.507797E-04	1.300668E-05
1.729850E+03	3.464383E-04	1.283708E-05
1.769165E+03	3.423481E-04	1.267677E-05
1.808480E+03	3.385111E-04	1.252578E-05
1.847795E+03	3.349290E-04	1.238418E-05
1.887110E+03	3.317299E-04	1.225667E-05
1.926424E+03	3.287871E-04	1.213856E-05
1.965739E+03	3.262259E-04	1.203443E-05
2.005054E+03	3.239238E-04	1.193974E-05
2.044369E+03	3.220642E-04	1.186123E-05
2.083683E+03	3.205263E-04	1.179440E-05
2.122998E+03	3.193714E-04	1.174147E-05
2.162313E+03	3.186590E-04	1.170460E-05
2.201628E+03	3.183324E-04	1.168165E-05
2.240943E+03	3.185089E-04	1.167688E-05
2.280257E+03	3.190771E-04	1.168614E-05
2.319572E+03	3.201546E-04	1.171369E-05
2.358887E+03	3.218015E-04	1.176167E-05
2.398202E+03	3.239121E-04	1.182613E-05
2.437517E+03	3.266602E-04	1.191335E-05
2.476831E+03	3.299987E-04	1.202152E-05
2.516146E+03	3.339930E-04	1.215293E-05
2.555461E+03	3.387099E-04	1.230991E-05
2.594776E+03	3.441640E-04	1.249287E-05
2.634090E+03	3.504266E-04	1.270427E-05
2.673405E+03	3.576263E-04	1.294864E-05
2.712720E+03	3.657866E-04	1.322665E-05
2.752035E+03	3.749893E-04	1.354110E-05
2.791350E+03	3.853749E-04	1.389686E-05
2.830664E+03	3.970898E-04	1.429898E-05
2.869979E+03	4.101781E-04	1.474878E-05
2.909294E+03	4.249093E-04	1.525569E-05
2.948609E+03	4.413435E-04	1.582152E-05
2.958437E+03	4.457379E-04	1.597285E-05
2.968266E+03	4.502823E-04	1.612939E-05
2.978095E+03	4.549778E-04	1.629119E-05
2.987923E+03	4.597704E-04	1.645629E-05
2.997752E+03	4.647169E-04	1.662672E-05
3.007581E+03	4.698187E-04	1.680253E-05
3.017410E+03	4.750215E-04	1.698177E-05
3.027238E+03	4.804385E-04	1.716847E-05
3.037067E+03	4.859594E-04	1.735870E-05
3.046896E+03	4.916419E-04	1.755448E-05
3.056724E+03	4.974875E-04	1.775589E-05
3.066553E+03	5.034981E-04	1.796296E-05
3.076382E+03	5.097319E-04	1.817778E-05
3.086210E+03	5.160779E-04	1.839637E-05
3.096039E+03	5.226511E-04	1.862282E-05
3.105868E+03	5.293970E-04	1.885518E-05
3.115697E+03	5.363176E-04	1.909351E-05
3.125525E+03	5.434721E-04	1.933992E-05
3.135354E+03	5.508631E-04	1.959447E-05
3.145183E+03	5.583780E-04	1.985315E-05
3.155011E+03	5.661918E-04	2.012217E-05
3.164840E+03	5.741919E-04	2.039752E-05
3.174669E+03	5.824386E-04	2.068133E-05
3.184497E+03	5.909349E-04	2.097369E-05
3.194326E+03	5.996251E-04	2.127261E-05
3.204155E+03	6.086290E-04	2.158233E-05
3.213983E+03	6.178914E-04	2.190087E-05
3.223812E+03	6.273565E-04	2.222624E-05
3.233641E+03	6.372043E-04	2.256480E-05
3.243470E+03	6.472611E-04	2.291039E-05
3.253298E+03	6.576491E-04	2.326731E-05
3.263127E+03	6.683127E-04	2.363359E-05
3.272956E+03	6.793144E-04	2.401140E-05
3.282784E+03	6.906589E-04	2.440090E-05
3.292613E+03	7.022908E-04	2.480010E-05
3.302442E+03	7.142734E-04	2.521124E-05
3.312270E+03	7.266721E-04	2.563660E-05
3.322099E+03	7.393709E-04	2.607205E-05
3.331928E+03	7.524339E-04	2.651984E-05
3.341757E+03	7.659282E-04	2.698232E-05
3.351585E+03	7.798587E-04	2.745962E-05
3.361414E+03	7.941068E-04	2.794755E-05
3.371243E+03	8.088645E-04	2.845284E-05
3.381071E+03	8.240124E-04	2.897127E-05
3.390900E+03	8.396197E-04	2.950523E-05
3.400729E+03	8.556905E-04	3.005485E-05
3.410557E+03	8.722327E-04	3.062038E-05
3.420386E+03	8.893155E-04	3.120421E-05
3.430215E+03	9.068818E-04	3.180430E-05
3.440043E+03	9.249383E-04	3.242087E-05
3.449872E+03	9.435566E-04	3.305639E-05
3.459701E+03	9.626791E-04	3.370880E-05
3.469530E+03	9.824414E-04	3.438281E-05
3.479358E+03	1.002789E-03	3.507649E-05
3.489187E+03	1.023728E-03	3.579001E-05
3.499016E+03	1.045267E-03	3.652363E-05
3.508844E+03	1.067480E-03	3.727990E-05
3.518673E+03	1.090311E-03	3.805680E-05
3.528502E+03	1.113834E-03	3.885689E-05
3.538330E+03	1.138058E-03	3.968045E-05
3.548159E+03	1.162993E-03	4.052776E-05
3.557988E+03	1.188649E-03	4.139912E-05
3.567817E+03	1.215104E-03	4.229720E-05
3.577645E+03	1.242299E-03	4.321993E-05
3.587474E+03	1.270315E-03	4.417001E-05
3.597303E+03	1.299092E-03	4.514536E-05
3.607131E+03	1.328781E-03	4.615112E-05
3.616960E+03	1.359322E-03	4.718522E-05
3.626789E+03	1.390730E-03	4.824805E-05
3.636617E+03	1.423015E-03	4.933990E-05
3.646446E+03	1.456258E-03	5.046358E-05
3.656275E+03	1.490475E-03	5.161952E-05
3.666103E+03	1.525677E-03	5.280806E-05
3.675932E+03	1.561878E-03	5.402960E-05
3.685761E+03	1.599091E-03	5.528453E-05
3.695590E+03	1.637331E-03	5.657328E-05
3.705418E+03	1.676683E-03	5.789873E-05
3.715247E+03	1.717088E-03	5.925879E-05
3.725076E+03	1.758635E-03	6.065641E-05
3.734904E+03	1.801339E-03	6.209203E-05
3.744733E+03	1.845215E-03	6.356610E-05
3.754562E+03	1.890278E-03	6.507903E-05
3.764390E+03	1.936543E-03	6.663130E-05
3.774219E+03	1.984102E-03	6.822593E-05
3.784048E+03	2.032895E-03	6.986081E-05
3.793877E+03	2.083014E-03	7.153897E-05
3.803705E+03	2.134401E-03	7.325833E-05
3.813534E+03	2.187146E-03	7.502191E-05
3.823363E+03	2.241191E-03	7.682759E-05
3.833191E+03	2.296628E-03	7.867846E-05
3.843020E+03	2.353553E-03	8.057766E-05
3.852849E+03	2.411828E-03	8.252036E-05
3.862677E+03	2.471546E-03	8.450970E-05
3.872506E+03	2.532726E-03	8.654613E-05
3.882335E+03	2.595304E-03	8.862744E-05
3.892163E+03	2.659458E-03	9.075951E-05
3.901992E+03	2.725043E-03	9.293734E-05
3.911821E+03	2.792157E-03	9.516415E-05
3.921650E+03	2.860816E-03	9.744035E-05
3.931478E+03	2.930956E-03	9.976366E-05
3.941307E+03	3.002676E-03	1.021373E-04
3.951136E+03	3.075906E-03	1.045588E-04
3.960964E+03	3.150748E-03	1.070314E-04
3.970793E+03	3.227049E-03	1.095500E-04
3.980622E+03	3.304909E-03	1.121177E-04
3.990450E+03	3.384340E-03	1.147348E-04
4.000279E+03	3.465272E-03	1.173988E-04
4.010108E+03	3.547719E-03	1.201101E-04
4.019937E+03	3.631693E-03	1.228690E-04
4.029765E+03	3.717120E-03	1.256728E-04
4.039594E+03	3.804011E-03	1.285218E-04
4.049423E+03	3.892376E-03	1.314162E-04
4.059251E+03	3.982137E-03	1.343533E-04
4.069080E+03	4.073305E-03	1.373332E-04
4.078909E+03	4.165796E-03	1.403531E-04
4.088737E+03	4.259618E-03	1.434131E-04
4.098566E+03	4.354777E-03	1.465133E-04
4.108395E+03	4.451097E-03	1.496476E-04
4.118223E+03	4.548582E-03	1.528162E-04
4.128052E+03	4.647234E-03	1.560189E-04
4.137881E+03	4.746961E-03	1.592526E-04
4.147710E+03	4.847764E-03	1.625171E-04
4.157538E+03	4.949365E-03	1.658032E-04
4.167367E+03	5.051944E-03	1.691167E-04
4.177196E+03	5.155310E-03	1.724512E-04
4.187024E+03	5.259363E-03	1.758032E-04
4.196853E+03	5.364001E-03	1.791692E-04
4.206682E+03	5.469214E-03	1.825490E-04
4.216510E+03	5.574990E-03	1.859419E-04
4.226339E+03	5.681031E-03	1.893380E-04
4.236168E+03	5.787321E-03	1.927368E-04
4.245997E+03	5.893843E-03	1.961377E-04
4.255825E+03	6.000483E-03	1.995367E-04
4.265654E+03	6.107125E-03	2.029301E-04
4.275483E+03	6.213650E-03	2.063138E-04
4.285311E+03	6.319937E-03	2.096839E-04
4.295140E+03	6.425964E-03	2.130396E-04
4.304969E+03	6.531800E-03	2.163833E-04
4.314797E+03	6.637226E-03	2.197076E-04
4.324626E+03	6.742312E-03	2.230148E-04
4.334455E+03	6.847039E-03	2.263045E-04
4.344283E+03	6.951475E-03	2.295788E-04
4.354112E+03	7.055802E-03	2.328437E-04
4.363941E+03	7.159999E-03	2.360986E-04
4.373770E+03	7.264447E-03	2.393560E-04
4.383598E+03	7.368829E-03	2.426054E-04
4.393427E+03	7.472900E-03	2.458389E-04
4.403256E+03	7.576544E-03	2.490525E-04
4.413084E+03	7.679418E-03	2.522350E-04
4.422913E+03	7.781380E-03	2.553819E-04
4.432742E+03	7.882194E-03	2.584854E-04
4.442570E+03	7.981818E-03	2.615443E-04
4.452399E+03	8.080009E-03	2.645506E-04
4.462228E+03	8.176830E-03	2.675067E-04
4.472057E+03	8.272146E-03	2.704081E-04
4.481885E+03	8.365909E-03	2.732533E-04
4.491714E+03	8.457982E-03	2.760382E-04
4.501543E+03	8.548535E-03	2.787682E-04
4.511371E+03	8.637431E-03	2.814391E-04
4.521200E+03	8.724511E-03	2.840459E-04
4.531029E+03	8.809968E-03	2.865949E-04
4.540857E+03	8.893759E-03	2.890849E-04
4.550686E+03	8.975855E-03	2.915151E-04
4.560515E+03	9.056208E-03	2.938840E-04
4.570343E+03	9.134794E-03	2.961910E-04
4.580172E+03	9.211793E-03	2.984422E-04
4.590001E+03	9.287070E-03	3.006332E-04
4.599830E+03	9.360801E-03	3.027699E-04
4.609658E+03	9.432855E-03	3.048483E-04
4.619487E+03	9.503309E-03	3.068708E-04
4.629316E+03	9.572362E-03	3.088442E-04
4.639144E+03	9.639865E-03	3.107636E-04
4.648973E+03	9.706025E-03	3.126360E-04
4.658802E+03	9.770921E-03	3.144640E-04
4.668630E+03	9.834532E-03	3.162469E-04
4.678459E+03	9.897066E-03	3.179917E-04
4.688288E+03	9.958495E-03	3.196975E-04
4.698117E+03	1.001904E-02	3.213713E-04
4.707945E+03	1.007854E-02	3.230085E-04
4.717774E+03	1.013723E-02	3.246164E-04
4.727603E+03	1.019485E-02	3.261869E-04
4.737431E+03	1.025151E-02	3.277234E-04
4.747260E+03	1.030707E-02	3.292215E-04
4.757089E+03	1.036150E-02	3.306810E-04
4.766917E+03	1.041481E-02	3.321014E-04
4.776746E+03	1.046697E-02	3.334826E-04
4.786575E+03	1.051786E-02	3.348201E-04
4.796403E+03	1.056756E-02	3.361175E-04
4.806232E+03	1.061596E-02	3.373708E-04
4.816061E+03	1.066316E-02	3.385837E-04
4.825890E+03	1.070903E-02	3.397518E-04
4.835718E+03	1.075368E-02	3.408788E-04
4.845547E+03	1.079709E-02	3.419645E-04
4.855376E+03	1.083926E-02	3.430087E-04
4.865204E+03	1.088030E-02	3.440151E-04
4.875033E+03	1.091996E-02	3.449756E-04
4.884862E+03	1.095847E-02	3.458979E-04
4.894690E+03	1.099582E-02	3.467819E-04
4.904519E+03	1.103200E-02	3.476274E-04
4.914348E+03	1.106690E-02	3.484304E-04
4.924177E+03	1.110074E-02	3.491986E-04
4.934005E+03	1.113339E-02	3.499279E-04
4.943834E+03	1.116486E-02	3.506188E-04
4.953663E+03	1.119526E-02	3.512742E-04
4.963491E+03	1.122445E-02	3.518909E-04
4.973320E+03	1.125257E-02	3.524725E-04
4.983149E+03	1.127961E-02	3.530190E-04
4.992977E+03	1.130557E-02	3.535306E-04
5.002806E+03	1.133043E-02	3.540069E-04
5.012635E+03	1.135420E-02	3.544484E-04
5.022463E+03	1.137689E-02	3.548550E-04
5.032292E+03	1.139848E-02	3.552267E-04
5.042121E+03	1.141911E-02	3.555675E-04
5.051950E+03	1.143863E-02	3.558735E-04
5.061778E+03	1.145720E-02	3.561490E-04
5.071607E+03	1.147479E-02	3.563937E-04
5.081436E+03	1.149129E-02	3.566042E-04
5.091264E+03	1.150683E-02	3.567842E-04
5.101093E+03	1.152140E-02	3.569343E-04
5.110922E+03	1.153489E-02	3.570506E-04
5.120750E+03	1.154755E-02	3.571408E-04
5.130579E+03	1.155925E-02	3.572014E-04
5.140408E+03	1.156999E-02	3.572325E-04
5.150237E+03	1.157979E-02	3.572347E-04
5.160065E+03	1.158865E-02	3.572079E-04
5.169894E+03	1.159657E-02	3.571523E-04
5.179723E+03	1.160368E-02	3.570722E-04
5.189551E+03	1.160998E-02	3.569675E-04
5.199380E+03	1.161525E-02	3.568314E-04
5.209209E+03	1.161983E-02	3.566749E-04
5.219037E+03	1.162351E-02	3.564913E-04
5.228866E+03	1.162629E-02	3.562805E-04
5.238695E+03	1.162829E-02	3.560469E-04
5.248523E+03	1.162953E-02	3.557905E-04
5.258352E+03	1.163001E-02	3.555117E-04
5.268181E+03	1.162962E-02	3.552074E-04
5.278010E+03	1.162849E-02	3.548813E-04
5.287838E+03	1.162662E-02	3.545338E-04
5.297667E+03	1.162403E-02	3.541654E-04
5.307496E+03	1.162060E-02	3.537728E-04
5.317324E+03	1.161658E-02	3.533633E-04
5.327153E+03	1.161175E-02	3.529306E-04
5.336982E+03	1.160623E-02	3.524782E-04
5.346810E+03	1.160003E-02	3.520067E-04
5.356639E+03	1.159304E-02	3.515128E-04
5.366468E+03	1.158551E-02	3.510042E-04
5.376297E+03	1.157723E-02	3.504742E-04
5.386125E+03	1.156819E-02	3.499230E-04
5.395954E+03	1.155852E-02	3.493547E-04
5.405783E+03	1.154824E-02	3.487698E-04
5.415611E+03	1.153724E-02	3.481649E-04
5.425440E+03	1.152553E-02	3.475407E-04
5.435269E+03	1.151313E-02	3.468977E-04
5.445097E+03	1.150016E-02	3.462397E-04
5.454926E+03	1.148653E-02	3.455637E-04
5.464755E+03	1.147234E-02	3.448735E-04
5.474583E+03	1.145763E-02	3.441697E-04
5.484412E+03	1.144228E-02	3.434493E-04
5.494241E+03	1.142643E-02	3.427158E-04
5.504070E+03	1.140997E-02	3.419668E-04
5.513898E+03	1.139314E-02	3.412092E-04
5.523727E+03	1.137561E-02	3.404333E-04
5.533556E+03	1.135763E-02	3.396464E-04
5.543384E+03	1.133920E-02	3.388490E-04
5.553213E+03	1.132022E-02	3.380378E-04
5.563042E+03	1.130084E-02	3.372172E-04
5.572870E+03	1.128081E-02	3.363806E-04
5.582699E+03	1.126039E-02	3.355350E-04
5.592528E+03	1.123949E-02	3.346779E-04
5.602357E+03	1.121811E-02	3.338096E-04
5.612185E+03	1.119625E-02	3.329305E-04
5.622014E+03	1.117384E-02	3.320378E-04
5.631843E+03	1.115109E-02	3.311384E-04
5.641671E+03	1.112782E-02	3.302267E-04
5.651500E+03	1.110402E-02	3.293026E-04
5.661329E+03	1.107983E-02	3.283701E-04
5.671157E+03	1.105513E-02	3.274262E-04
5.680986E+03	1.103007E-02	3.264749E-04
5.690815E+03	1.100444E-02	3.255102E-04
5.700643E+03	1.097835E-02	3.245356E-04
5.710472E+03	1.095183E-02	3.235517E-04
5.720301E+03	1.092487E-02	3.225587E-04
5.730130E+03	1.089740E-02	3.215543E-04
5.739958E+03	1.086953E-02	3.205418E-04
5.749787E+03	1.084118E-02	3.195188E-04
5.759616E+03	1.081234E-02	3.184855E-04
5.769444E+03	1.078315E-02	3.174455E-04
5.779273E+03	1.075340E-02	3.163932E-04
5.789102E+03	1.072322E-02	3.153320E-04
5.798930E+03	1.069262E-02	3.142624E-04
5.808759E+03	1.066150E-02	3.131818E-04
5.818588E+03	1.063009E-02	3.120968E-04
5.828417E+03	1.059809E-02	3.109986E-04
5.838245E+03	1.056572E-02	3.098939E-04
5.848074E+03	1.053289E-02	3.087798E-04
5.857903E+03	1.049962E-02	3.076569E-04
5.867731E+03	1.046602E-02	3.065287E-04
5.877560E+03	1.043189E-02	3.053895E-04
5.887389E+03	1.039746E-02	3.042456E-04
5.897217E+03	1.036252E-02	3.030916E-04
5.907046E+03	1.032721E-02	3.019308E-04
5.916875E+03	1.029162E-02	3.007666E-04
5.926703E+03	1.025557E-02	2.995933E-04
5.936532E+03	1.021917E-02	2.984142E-04
5.946361E+03	1.018243E-02	2.972299E-04
5.956190E+03	1.014537E-02	2.960407E-04
5.966018E+03	1.010798E-02	2.948467E-04
5.975847E+03	1.007019E-02	2.936455E-04
5.985676E+03	1.003221E-02	2.924432E-04
5.995504E+03	9.993827E-03	2.912342E-04
6.005333E+03	9.955177E-03	2.900219E-04
6.015162E+03	9.916248E-03	2.888062E-04
6.024990E+03	9.876970E-03	2.875850E-04
6.034819E+03	9.837533E-03	2.863640E-04
6.044648E+03	9.797657E-03	2.851348E-04
6.054477E+03	9.757646E-03	2.839065E-04
6.064305E+03	9.717400E-03	2.826762E-04
6.074134E+03	9.676936E-03	2.814442E-04
6.083963E+03	9.636261E-03	2.802109E-04
6.093791E+03	9.595368E-03	2.789760E-04
6.103620E+03	9.554282E-03	2.777402E-04
6.113449E+03	9.512990E-03	2.765033E-04
6.123277E+03	9.471517E-03	2.752658E-04
6.133106E+03	9.429946E-03	2.740303E-04
6.142935E+03	9.388098E-03	2.727915E-04
6.152763E+03	9.346170E-03	2.715552E-04
6.162592E+03	9.304169E-03	2.703214E-04
6.172421E+03	9.261992E-03	2.690873E-04
6.182250E+03	9.219657E-03	2.678534E-04
6.192078E+03	9.177249E-03	2.666221E-04
6.201907E+03	9.134683E-03	2.653909E-04
6.211736E+03	9.092151E-03	2.641654E-04
6.221564E+03	9.049467E-03	2.629402E-04
6.231393E+03	9.006721E-03	2.617178E-04
6.241222E+03	8.963919E-03	2.604985E-04
6.251050E+03	8.921066E-03	2.592823E-04
6.260879E+03	8.878157E-03	2.580690E-04
6.270708E+03	8.835201E-03	2.568588E-04
6.280537E+03	8.792277E-03	2.556538E-04
6.290365E+03	8.749311E-03	2.544518E-04
6.300194E+03	8.706381E-03	2.532548E-04
6.310023E+03	8.663407E-03	2.520605E-04
6.319851E+03	8.620563E-03	2.508738E-04
6.329680E+03	8.577674E-03	2.496895E-04
6.339509E+03	8.534830E-03	2.485100E-04
6.349337E+03	8.492124E-03	2.473381E-04
6.359166E+03	8.449562E-03	2.461737E-04
6.368995E+03	8.407048E-03	2.450139E-04
6.378823E+03	8.364856E-03	2.438666E-04
6.388652E+03	8.322812E-03	2.427266E-04
6.398481E+03	8.281093E-03	2.415991E-04
6.408310E+03	8.239611E-03	2.404812E-04
6.418138E+03	8.198280E-03	2.393705E-04
6.427967E+03	8.157101E-03	2.382668E-04
6.437796E+03	8.116257E-03	2.371754E-04
6.447624E+03	8.075485E-03	2.360885E-04
6.457453E+03	8.035047E-03	2.350137E-04
6.467282E+03	7.994769E-03	2.339458E-04
6.477110E+03	7.954741E-03	2.328873E-04
6.486939E+03	7.915051E-03	2.318408E-04
6.496768E+03	7.875519E-03	2.308008E-04
6.506597E+03	7.836330E-03	2.297728E-04
6.516425E+03	7.797478E-03	2.287564E-04
6.526254E+03	7.758872E-03	2.277489E-04
6.536083E+03	7.720524E-03	2.267506E-04
6.545911E+03	7.682595E-03	2.257661E-04
6.555740E+03	7.644999E-03	2.247928E-04
6.565569E+03	7.607732E-03	2.238306E-04
6.575397E+03	7.570803E-03	2.228797E-04
6.585226E+03	7.534202E-03	2.219397E-04
6.595055E+03	7.498016E-03	2.210131E-04
6.604883E+03	7.462157E-03	2.200971E-04
6.614712E+03	7.426706E-03	2.191943E-04
6.624541E+03	7.391581E-03	2.183021E-04
6.634370E+03	7.356858E-03	2.174227E-04
6.644198E+03	7.322536E-03	2.165559E-04
6.654027E+03	7.288611E-03	2.157017E-04
6.663856E+03	7.255086E-03	2.148601E-04
6.673684E+03	7.221873E-03	2.140284E-04
6.683513E+03	7.189131E-03	2.132113E-04
6.693342E+03	7.156778E-03	2.124063E-04
6.703170E+03	7.124812E-03	2.116134E-04
6.712999E+03	7.093222E-03	2.108321E-04
6.722828E+03	7.062013E-03	2.100625E-04
6.732657E+03	7.031263E-03	2.093070E-04
6.742485E+03	7.000887E-03	2.085631E-04
6.752314E+03	6.970874E-03	2.078302E-04
6.762143E+03	6.941306E-03	2.071108E-04
6.771971E+03	6.912106E-03	2.064027E-04
6.781800E+03	6.883340E-03	2.057078E-04
6.791629E+03	6.855012E-03	2.050261E-04
6.801457E+03	6.827034E-03	2.043549E-04
6.811286E+03	6.799404E-03	2.036943E-04
6.821115E+03	6.772279E-03	2.030489E-04
6.830943E+03	6.745496E-03	2.024138E-04
6.840772E+03	6.719133E-03	2.017913E-04
6.850601E+03	6.693095E-03	2.011784E-04
6.860430E+03	6.667476E-03	2.005782E-04
6.870258E+03	6.642342E-03	1.999924E-04
6.880087E+03	6.617526E-03	1.994162E-04
6.889916E+03	6.593118E-03	1.988520E-04
6.899744E+03	6.569020E-03	1.982971E-04
6.909573E+03	6.545396E-03	1.977563E-04
6.919402E+03	6.522160E-03	1.972271E-04
6.929230E+03	6.499313E-03	1.967094E-04
6.939059E+03	6.476843E-03	1.962028E-04
6.948888E+03	6.454755E-03	1.957076E-04
6.958717E+03	6.433049E-03	1.952238E-04
6.968545E+03	6.411708E-03	1.947507E-04
6.978374E+03	6.390737E-03	1.942885E-04
6.988203E+03	6.370214E-03	1.938396E-04
6.998031E+03	6.350056E-03	1.934015E-04
7.007860E+03	6.330255E-03	1.929740E-04
7.017689E+03	6.310812E-03	1.925570E-04
7.027517E+03	6.291805E-03	1.921530E-04
7.037346E+03	6.273150E-03	1.917593E-04
7.047175E+03	6.254918E-03	1.913782E-04
7.057003E+03	6.237038E-03	1.910075E-04
7.066832E+03	6.219576E-03	1.906492E-04
7.076661E+03	6.202537E-03	1.903034E-04
7.086490E+03	6.185832E-03	1.899675E-04
7.096318E+03	6.169467E-03	1.896416E-04
7.106147E+03	6.153591E-03	1.893303E-04
7.115976E+03	6.138043E-03	1.890287E-04
7.125804E+03	6.122907E-03	1.887394E-04
7.135633E+03	6.108176E-03	1.884621E-04
7.145462E+03	6.093850E-03	1.881969E-04
7.155290E+03	6.079925E-03	1.879437E-04
7.165119E+03	6.066314E-03	1.876997E-04
7.174948E+03	6.053182E-03	1.874701E-04
7.184777E+03	6.040449E-03	1.872525E-04
7.194605E+03	6.028105E-03	1.870465E-04
7.204434E+03	6.016075E-03	1.868498E-04
7.214263E+03	6.004518E-03	1.866674E-04
7.224091E+03	5.993347E-03	1.864966E-04
7.233920E+03	5.982563E-03	1.863374E-04
7.243749E+03	5.972244E-03	1.861923E-04
7.253577E+03	5.962230E-03	1.860563E-04
7.263406E+03	5.952678E-03	1.859344E-04
7.273235E+03	5.943508E-03	1.858239E-04
7.283063E+03	5.934878E-03	1.857300E-04
7.292892E+03	5.926628E-03	1.856476E-04
7.302721E+03	5.918836E-03	1.855792E-04
7.312550E+03	5.911580E-03	1.855272E-04
7.322378E+03	5.904703E-03	1.854868E-04
7.332207E+03	5.898201E-03	1.854579E-04
7.342036E+03	5.892076E-03	1.854404E-04
7.351864E+03	5.886404E-03	1.854370E-04
7.361693E+03	5.881028E-03	1.854425E-04
7.371522E+03	5.876027E-03	1.854596E-04
7.381350E+03	5.871319E-03	1.854856E-04
7.391179E+03	5.866905E-03	1.855207E-04
7.401008E+03	5.862864E-03	1.855672E-04
7.410837E+03	5.859037E-03	1.856202E-04
7.420665E+03	5.855583E-03	1.856848E-04
7.430494E+03	5.852421E-03	1.857583E-04
7.440323E+03	5.849472E-03	1.858384E-04
7.450151E+03	5.846816E-03	1.859275E-04
7.459980E+03	5.844453E-03	1.860257E-04
7.469809E+03	5.842302E-03	1.861303E-04
7.479637E+03	5.840445E-03	1.862441E-04
7.489466E+03	5.838800E-03	1.863644E-04
7.499295E+03	5.837369E-03	1.864912E-04
7.509123E+03	5.836230E-03	1.866272E-04
7.518952E+03	5.835386E-03	1.867723E-04
7.528781E+03	5.834675E-03	1.869215E-04
7.538610E+03	5.834260E-03	1.870799E-04
7.548438E+03	5.834058E-03	1.872449E-04
7.558267E+03	5.834072E-03	1.874166E-04
7.568096E+03	5.834300E-03	1.875950E-04
7.577924E+03	5.834745E-03	1.877802E-04
7.587753E+03	5.835407E-03	1.879721E-04
7.597582E+03	5.836366E-03	1.881733E-04
7.607410E+03	5.837543E-03	1.883814E-04
7.617239E+03	5.838939E-03	1.885963E-04
7.627068E+03	5.840553E-03	1.888181E-04
