#wls	flux	fluxerr
1.570321E+03	2.785561E-05	9.694517E-07
1.609579E+03	2.760727E-05	9.566388E-07
1.648837E+03	2.743741E-05	9.465240E-07
1.688095E+03	2.734637E-05	9.390832E-07
1.727353E+03	2.733750E-05	9.343953E-07
1.766611E+03	2.741695E-05	9.326284E-07
1.805869E+03	2.758222E-05	9.336546E-07
1.845127E+03	2.784326E-05	9.377639E-07
1.884385E+03	2.820410E-05	9.450405E-07
1.923643E+03	2.867020E-05	9.556104E-07
1.962901E+03	2.924655E-05	9.695799E-07
2.002159E+03	2.994207E-05	9.871786E-07
2.041417E+03	3.076385E-05	1.008568E-06
2.080675E+03	3.171774E-05	1.033861E-06
2.119933E+03	3.281828E-05	1.063447E-06
2.159191E+03	3.407563E-05	1.097559E-06
2.198449E+03	3.550559E-05	1.136602E-06
2.237707E+03	3.713192E-05	1.181219E-06
2.276965E+03	3.898725E-05	1.232310E-06
2.316223E+03	4.111609E-05	1.291120E-06
2.355481E+03	4.357310E-05	1.359170E-06
2.394739E+03	4.642341E-05	1.438257E-06
2.433997E+03	4.975185E-05	1.530721E-06
2.473255E+03	5.365503E-05	1.639187E-06
2.512513E+03	5.825652E-05	1.767008E-06
2.551772E+03	6.370295E-05	1.918115E-06
2.591030E+03	7.018094E-05	2.097498E-06
2.630288E+03	7.792143E-05	2.311288E-06
2.669546E+03	8.721876E-05	2.567264E-06
2.708804E+03	9.845108E-05	2.875378E-06
2.748062E+03	1.121043E-04	3.248352E-06
2.787320E+03	1.288118E-04	3.702687E-06
2.826578E+03	1.494131E-04	4.260179E-06
2.865836E+03	1.750122E-04	4.949314E-06
2.905094E+03	2.071072E-04	5.808617E-06
2.944352E+03	2.477028E-04	6.889312E-06
2.954166E+03	2.594883E-04	7.201945E-06
2.963981E+03	2.720193E-04	7.533854E-06
2.973795E+03	2.853506E-04	7.886421E-06
2.983610E+03	2.995546E-04	8.261505E-06
2.993424E+03	3.146898E-04	8.660567E-06
3.003239E+03	3.308264E-04	9.085375E-06
3.013053E+03	3.480480E-04	9.538045E-06
3.022868E+03	3.664300E-04	1.002046E-05
3.032682E+03	3.860615E-04	1.053484E-05
3.042497E+03	4.070571E-04	1.108411E-05
3.052311E+03	4.295067E-04	1.167047E-05
3.062126E+03	4.535333E-04	1.229700E-05
3.071940E+03	4.792531E-04	1.296659E-05
3.081755E+03	5.068313E-04	1.368342E-05
3.091569E+03	5.363872E-04	1.445037E-05
3.101384E+03	5.680915E-04	1.527170E-05
3.111198E+03	6.021310E-04	1.615208E-05
3.121013E+03	6.386975E-04	1.709623E-05
3.130827E+03	6.779747E-04	1.810865E-05
3.140642E+03	7.202258E-04	1.919589E-05
3.150456E+03	7.656715E-04	2.036335E-05
3.160271E+03	8.145929E-04	2.161794E-05
3.170085E+03	8.672663E-04	2.296641E-05
3.179900E+03	9.240223E-04	2.441689E-05
3.189714E+03	9.852046E-04	2.597777E-05
3.199529E+03	1.051187E-03	2.765818E-05
3.209343E+03	1.122356E-03	2.946746E-05
3.219158E+03	1.199168E-03	3.141673E-05
3.228972E+03	1.282097E-03	3.351751E-05
3.238787E+03	1.371635E-03	3.578165E-05
3.248601E+03	1.468358E-03	3.822306E-05
3.258416E+03	1.572839E-03	4.085550E-05
3.268230E+03	1.685743E-03	4.369502E-05
3.278045E+03	1.807734E-03	4.675744E-05
3.287859E+03	1.939547E-03	5.006033E-05
3.297674E+03	2.081968E-03	5.362239E-05
3.307488E+03	2.235830E-03	5.746342E-05
3.317303E+03	2.402017E-03	6.160434E-05
3.327117E+03	2.581421E-03	6.606612E-05
3.336932E+03	2.775050E-03	7.087248E-05
3.346746E+03	2.983830E-03	7.604488E-05
3.356561E+03	3.208872E-03	8.160939E-05
3.366376E+03	3.451134E-03	8.758788E-05
3.376190E+03	3.711649E-03	9.400399E-05
3.386005E+03	3.991420E-03	1.008805E-04
3.395819E+03	4.291325E-03	1.082367E-04
3.405634E+03	4.612241E-03	1.160918E-04
3.415448E+03	4.954757E-03	1.244578E-04
3.425263E+03	5.319194E-03	1.333397E-04
3.435077E+03	5.705636E-03	1.427365E-04
3.444892E+03	6.113754E-03	1.526372E-04
3.454706E+03	6.543070E-03	1.630270E-04
3.464521E+03	6.992496E-03	1.738762E-04
3.474335E+03	7.460993E-03	1.851564E-04
3.484150E+03	7.947141E-03	1.968302E-04
3.493964E+03	8.449404E-03	2.088578E-04
3.503779E+03	8.965898E-03	2.211907E-04
3.513593E+03	9.494688E-03	2.337801E-04
3.523408E+03	1.003397E-02	2.465806E-04
3.533222E+03	1.058146E-02	2.595350E-04
3.543037E+03	1.113525E-02	2.725968E-04
3.552851E+03	1.169324E-02	2.857140E-04
3.562666E+03	1.225319E-02	2.988326E-04
3.572480E+03	1.281302E-02	3.119022E-04
3.582295E+03	1.337085E-02	3.248782E-04
3.592109E+03	1.392460E-02	3.377112E-04
3.601924E+03	1.447278E-02	3.503665E-04
3.611738E+03	1.501345E-02	3.627990E-04
3.621553E+03	1.554537E-02	3.749800E-04
3.631367E+03	1.606740E-02	3.868843E-04
3.641182E+03	1.657891E-02	3.984984E-04
3.650996E+03	1.707928E-02	4.098091E-04
3.660811E+03	1.756850E-02	4.208183E-04
3.670625E+03	1.804666E-02	4.315301E-04
3.680440E+03	1.851428E-02	4.419584E-04
3.690254E+03	1.897185E-02	4.521168E-04
3.700069E+03	1.942012E-02	4.620249E-04
3.709883E+03	1.985975E-02	4.716994E-04
3.719698E+03	2.029132E-02	4.811559E-04
3.729512E+03	2.071599E-02	4.904228E-04
3.739327E+03	2.113376E-02	4.995014E-04
3.749141E+03	2.154530E-02	5.084087E-04
3.758956E+03	2.195108E-02	5.171564E-04
3.768770E+03	2.235070E-02	5.257362E-04
3.778585E+03	2.274393E-02	5.341434E-04
3.788399E+03	2.313044E-02	5.423716E-04
3.798214E+03	2.350945E-02	5.504029E-04
3.808028E+03	2.387986E-02	5.582132E-04
3.817843E+03	2.424014E-02	5.657675E-04
3.827657E+03	2.458895E-02	5.730356E-04
3.837472E+03	2.492453E-02	5.799785E-04
3.847286E+03	2.524501E-02	5.865536E-04
3.857101E+03	2.554840E-02	5.927166E-04
3.866915E+03	2.583269E-02	5.984229E-04
3.876730E+03	2.609615E-02	6.036345E-04
3.886544E+03	2.633693E-02	6.083106E-04
3.896359E+03	2.655309E-02	6.124088E-04
3.906173E+03	2.674361E-02	6.159082E-04
3.915988E+03	2.690704E-02	6.187780E-04
3.925802E+03	2.704269E-02	6.210047E-04
3.935617E+03	2.714998E-02	6.225778E-04
3.945431E+03	2.722840E-02	6.234883E-04
3.955246E+03	2.727854E-02	6.237525E-04
3.965060E+03	2.730060E-02	6.233775E-04
3.974875E+03	2.729561E-02	6.223891E-04
3.984689E+03	2.726466E-02	6.208147E-04
3.994504E+03	2.720915E-02	6.186887E-04
4.004318E+03	2.713076E-02	6.160508E-04
4.014133E+03	2.703163E-02	6.129521E-04
4.023947E+03	2.691365E-02	6.094365E-04
4.033762E+03	2.677906E-02	6.055569E-04
4.043576E+03	2.663070E-02	6.013783E-04
4.053391E+03	2.647047E-02	5.969446E-04
4.063205E+03	2.630096E-02	5.923154E-04
4.073020E+03	2.612448E-02	5.875429E-04
4.082834E+03	2.594324E-02	5.826773E-04
4.092649E+03	2.575935E-02	5.777661E-04
4.102463E+03	2.557481E-02	5.728544E-04
4.112278E+03	2.539151E-02	5.679843E-04
4.122092E+03	2.521127E-02	5.631958E-04
4.131907E+03	2.503580E-02	5.585269E-04
4.141721E+03	2.486674E-02	5.540136E-04
4.151536E+03	2.470548E-02	5.496858E-04
4.161350E+03	2.455354E-02	5.455768E-04
4.171165E+03	2.441264E-02	5.417236E-04
4.180979E+03	2.428425E-02	5.381577E-04
4.190794E+03	2.416937E-02	5.349000E-04
4.200608E+03	2.406963E-02	5.319853E-04
4.210423E+03	2.398641E-02	5.294423E-04
4.220238E+03	2.392104E-02	5.272991E-04
4.230052E+03	2.387480E-02	5.255822E-04
4.239867E+03	2.384869E-02	5.243117E-04
4.249681E+03	2.384425E-02	5.235198E-04
4.259496E+03	2.386206E-02	5.232170E-04
4.269310E+03	2.390341E-02	5.234296E-04
4.279125E+03	2.396897E-02	5.241701E-04
4.288939E+03	2.405941E-02	5.254510E-04
4.298754E+03	2.417494E-02	5.272748E-04
4.308568E+03	2.431571E-02	5.296425E-04
4.318383E+03	2.448133E-02	5.325435E-04
4.328197E+03	2.467152E-02	5.359693E-04
4.338012E+03	2.488518E-02	5.398940E-04
4.347826E+03	2.512084E-02	5.442838E-04
4.357641E+03	2.537707E-02	5.491056E-04
4.367455E+03	2.565158E-02	5.543082E-04
4.377270E+03	2.594187E-02	5.598362E-04
4.387084E+03	2.624526E-02	5.656306E-04
4.396899E+03	2.655800E-02	5.716091E-04
4.406713E+03	2.687663E-02	5.776971E-04
4.416528E+03	2.719719E-02	5.838086E-04
4.426342E+03	2.751518E-02	5.898472E-04
4.436157E+03	2.782618E-02	5.957186E-04
4.445971E+03	2.812570E-02	6.013274E-04
4.455786E+03	2.840923E-02	6.065782E-04
4.465600E+03	2.867239E-02	6.113789E-04
4.475415E+03	2.891072E-02	6.156365E-04
4.485229E+03	2.912006E-02	6.192649E-04
4.495044E+03	2.929751E-02	6.222045E-04
4.504858E+03	2.943954E-02	6.243837E-04
4.514673E+03	2.954350E-02	6.257490E-04
4.524487E+03	2.960789E-02	6.262726E-04
4.534302E+03	2.963167E-02	6.259351E-04
4.544116E+03	2.961356E-02	6.247138E-04
4.553931E+03	2.955471E-02	6.226361E-04
4.563745E+03	2.945491E-02	6.197010E-04
4.573560E+03	2.931628E-02	6.159570E-04
4.583374E+03	2.914065E-02	6.114456E-04
4.593189E+03	2.893035E-02	6.062188E-04
4.603003E+03	2.868819E-02	6.003383E-04
4.612818E+03	2.841734E-02	5.938733E-04
4.622632E+03	2.812187E-02	5.869110E-04
4.632447E+03	2.780527E-02	5.795264E-04
4.642261E+03	2.747149E-02	5.718035E-04
4.652076E+03	2.712492E-02	5.638350E-04
4.661890E+03	2.676915E-02	5.556965E-04
4.671705E+03	2.640912E-02	5.474913E-04
4.681519E+03	2.604804E-02	5.392862E-04
4.691334E+03	2.569028E-02	5.311716E-04
4.701148E+03	2.533935E-02	5.232199E-04
4.710963E+03	2.499796E-02	5.154862E-04
4.720777E+03	2.466919E-02	5.080333E-04
4.730592E+03	2.435569E-02	5.009149E-04
4.740406E+03	2.405907E-02	4.941624E-04
4.750221E+03	2.378132E-02	4.878158E-04
4.760035E+03	2.352396E-02	4.819042E-04
4.769850E+03	2.328800E-02	4.764472E-04
4.779664E+03	2.307448E-02	4.714637E-04
4.789479E+03	2.288433E-02	4.669716E-04
4.799293E+03	2.271780E-02	4.629734E-04
4.809108E+03	2.257529E-02	4.594759E-04
4.818922E+03	2.245626E-02	4.564657E-04
4.828737E+03	2.236061E-02	4.539393E-04
4.838551E+03	2.228791E-02	4.518861E-04
4.848366E+03	2.223738E-02	4.502883E-04
4.858180E+03	2.220870E-02	4.491380E-04
4.867995E+03	2.220114E-02	4.484189E-04
4.877809E+03	2.221453E-02	4.481258E-04
4.887624E+03	2.224836E-02	4.482469E-04
4.897438E+03	2.230247E-02	4.487776E-04
4.907253E+03	2.237659E-02	4.497109E-04
4.917067E+03	2.247121E-02	4.510554E-04
4.926882E+03	2.258595E-02	4.528021E-04
4.936696E+03	2.272084E-02	4.549501E-04
4.946511E+03	2.287607E-02	4.575020E-04
4.956325E+03	2.305124E-02	4.604483E-04
4.966140E+03	2.324597E-02	4.637803E-04
4.975954E+03	2.345968E-02	4.674852E-04
4.985769E+03	2.369153E-02	4.715452E-04
4.995583E+03	2.394015E-02	4.759319E-04
5.005398E+03	2.420411E-02	4.806160E-04
5.015212E+03	2.448194E-02	4.855676E-04
5.025027E+03	2.477113E-02	4.907361E-04
5.034841E+03	2.506986E-02	4.960853E-04
5.044656E+03	2.537479E-02	5.015486E-04
5.054471E+03	2.568363E-02	5.070807E-04
5.064285E+03	2.599312E-02	5.126174E-04
5.074100E+03	2.630012E-02	5.180974E-04
5.083914E+03	2.660143E-02	5.234578E-04
5.093729E+03	2.689351E-02	5.286301E-04
5.103543E+03	2.717312E-02	5.335515E-04
5.113358E+03	2.743681E-02	5.381553E-04
5.123172E+03	2.768209E-02	5.423945E-04
5.132987E+03	2.790534E-02	5.461994E-04
5.142801E+03	2.810436E-02	5.495287E-04
5.152616E+03	2.827705E-02	5.523434E-04
5.162430E+03	2.842173E-02	5.546124E-04
5.172245E+03	2.853662E-02	5.563032E-04
5.182059E+03	2.862130E-02	5.574092E-04
5.191874E+03	2.867523E-02	5.579222E-04
5.201688E+03	2.869865E-02	5.578489E-04
5.211503E+03	2.869198E-02	5.571987E-04
5.221317E+03	2.865654E-02	5.559990E-04
5.231132E+03	2.859308E-02	5.542655E-04
5.240946E+03	2.850314E-02	5.520295E-04
5.250761E+03	2.838810E-02	5.493188E-04
5.260575E+03	2.825000E-02	5.461740E-04
5.270390E+03	2.808975E-02	5.426134E-04
5.280204E+03	2.790934E-02	5.386765E-04
5.290019E+03	2.771011E-02	5.343897E-04
5.299833E+03	2.749327E-02	5.297769E-04
5.309648E+03	2.725933E-02	5.248485E-04
5.319462E+03	2.700919E-02	5.196226E-04
5.329277E+03	2.674367E-02	5.141151E-04
5.339091E+03	2.646240E-02	5.083197E-04
5.348906E+03	2.616608E-02	5.022497E-04
5.358720E+03	2.585461E-02	4.959038E-04
5.368535E+03	2.552847E-02	4.892916E-04
5.378349E+03	2.518949E-02	4.824485E-04
5.388164E+03	2.483858E-02	4.753921E-04
5.397978E+03	2.447779E-02	4.681617E-04
5.407793E+03	2.410883E-02	4.607901E-04
5.417607E+03	2.373432E-02	4.533274E-04
5.427422E+03	2.335585E-02	4.458039E-04
5.437236E+03	2.297591E-02	4.382670E-04
5.447051E+03	2.259674E-02	4.307590E-04
5.456865E+03	2.222141E-02	4.233383E-04
5.466680E+03	2.185224E-02	4.160485E-04
5.476494E+03	2.149212E-02	4.089440E-04
5.486309E+03	2.114379E-02	4.020767E-04
5.496123E+03	2.081046E-02	3.955065E-04
5.505938E+03	2.049461E-02	3.892803E-04
5.515752E+03	2.019902E-02	3.834498E-04
5.525567E+03	1.992628E-02	3.780633E-04
5.535381E+03	1.967845E-02	3.731591E-04
5.545196E+03	1.945754E-02	3.687741E-04
5.555010E+03	1.926473E-02	3.649299E-04
5.564825E+03	1.910124E-02	3.616487E-04
5.574639E+03	1.896788E-02	3.589449E-04
5.584454E+03	1.886484E-02	3.568212E-04
5.594268E+03	1.879189E-02	3.552720E-04
5.604083E+03	1.874837E-02	3.542844E-04
5.613897E+03	1.873360E-02	3.538446E-04
5.623712E+03	1.874571E-02	3.539167E-04
5.633526E+03	1.878325E-02	3.544725E-04
5.643341E+03	1.884403E-02	3.554703E-04
5.653155E+03	1.892530E-02	3.568576E-04
5.662970E+03	1.902440E-02	3.585842E-04
5.672784E+03	1.913846E-02	3.605954E-04
5.682599E+03	1.926393E-02	3.628241E-04
5.692413E+03	1.939731E-02	3.652048E-04
5.702228E+03	1.953548E-02	3.676784E-04
5.712042E+03	1.967445E-02	3.701697E-04
5.721857E+03	1.981088E-02	3.726164E-04
5.731671E+03	1.994139E-02	3.749550E-04
5.741486E+03	2.006279E-02	3.771258E-04
5.751300E+03	2.017236E-02	3.790782E-04
5.761115E+03	2.026708E-02	3.807554E-04
5.770929E+03	2.034510E-02	3.821235E-04
5.780744E+03	2.040434E-02	3.831434E-04
5.790558E+03	2.044326E-02	3.837869E-04
5.800373E+03	2.046073E-02	3.840331E-04
5.810187E+03	2.045596E-02	3.838672E-04
5.820002E+03	2.042874E-02	3.832861E-04
5.829816E+03	2.037849E-02	3.822790E-04
5.839631E+03	2.030537E-02	3.808492E-04
5.849445E+03	2.021004E-02	3.790094E-04
5.859260E+03	2.009317E-02	3.767721E-04
5.869074E+03	1.995519E-02	3.741456E-04
5.878889E+03	1.979766E-02	3.711595E-04
5.888704E+03	1.962125E-02	3.678261E-04
5.898518E+03	1.942818E-02	3.641872E-04
5.908333E+03	1.921953E-02	3.602628E-04
5.918147E+03	1.899724E-02	3.560895E-04
5.927962E+03	1.876363E-02	3.517106E-04
5.937776E+03	1.852070E-02	3.471634E-04
5.947591E+03	1.827079E-02	3.424915E-04
5.957405E+03	1.801580E-02	3.377305E-04
5.967220E+03	1.775852E-02	3.329327E-04
5.977034E+03	1.750059E-02	3.281283E-04
5.986849E+03	1.724458E-02	3.233653E-04
5.996663E+03	1.699222E-02	3.186763E-04
6.006478E+03	1.674500E-02	3.140890E-04
6.016292E+03	1.650438E-02	3.096303E-04
6.026107E+03	1.627168E-02	3.053249E-04
6.035921E+03	1.604756E-02	3.011845E-04
6.045736E+03	1.583258E-02	2.972196E-04
6.055550E+03	1.562751E-02	2.934440E-04
6.065365E+03	1.543211E-02	2.898535E-04
6.075179E+03	1.524665E-02	2.864524E-04
6.084994E+03	1.507126E-02	2.832431E-04
6.094808E+03	1.490603E-02	2.802272E-04
6.104623E+03	1.475063E-02	2.773982E-04
6.114437E+03	1.460484E-02	2.747523E-04
6.124252E+03	1.446864E-02	2.722884E-04
6.134066E+03	1.434155E-02	2.699978E-04
6.143881E+03	1.422341E-02	2.678773E-04
6.153695E+03	1.411382E-02	2.659194E-04
6.163510E+03	1.401250E-02	2.641186E-04
6.173324E+03	1.391890E-02	2.624647E-04
6.183139E+03	1.383243E-02	2.609464E-04
6.192953E+03	1.375265E-02	2.595555E-04
6.202768E+03	1.367910E-02	2.582831E-04
6.212582E+03	1.361093E-02	2.571134E-04
6.222397E+03	1.354773E-02	2.560382E-04
6.232211E+03	1.348908E-02	2.550500E-04
6.242026E+03	1.343426E-02	2.541349E-04
6.251840E+03	1.338318E-02	2.532911E-04
6.261655E+03	1.333541E-02	2.525105E-04
6.271469E+03	1.329061E-02	2.517866E-04
6.281284E+03	1.324851E-02	2.511143E-04
6.291098E+03	1.320932E-02	2.504973E-04
6.300913E+03	1.317274E-02	2.499301E-04
6.310727E+03	1.313910E-02	2.494186E-04
6.320542E+03	1.310838E-02	2.489628E-04
6.330356E+03	1.308056E-02	2.485620E-04
6.340171E+03	1.305577E-02	2.482188E-04
6.349985E+03	1.303391E-02	2.479310E-04
6.359800E+03	1.301495E-02	2.476984E-04
6.369614E+03	1.299822E-02	2.475080E-04
6.379429E+03	1.298370E-02	2.473593E-04
6.389243E+03	1.297091E-02	2.472433E-04
6.399058E+03	1.295909E-02	2.471453E-04
6.408872E+03	1.294784E-02	2.470579E-04
6.418687E+03	1.293653E-02	2.469686E-04
6.428501E+03	1.292453E-02	2.468656E-04
6.438316E+03	1.291120E-02	2.467364E-04
6.448130E+03	1.289616E-02	2.465735E-04
6.457945E+03	1.287861E-02	2.463619E-04
6.467759E+03	1.285803E-02	2.460910E-04
6.477574E+03	1.283415E-02	2.457560E-04
6.487388E+03	1.280659E-02	2.453488E-04
6.497203E+03	1.277477E-02	2.448588E-04
6.507017E+03	1.273867E-02	2.442849E-04
6.516832E+03	1.269784E-02	2.436186E-04
6.526646E+03	1.265258E-02	2.428654E-04
6.536461E+03	1.260236E-02	2.420149E-04
6.546275E+03	1.254715E-02	2.410663E-04
6.556090E+03	1.248718E-02	2.400241E-04
6.565904E+03	1.242255E-02	2.388899E-04
6.575719E+03	1.235319E-02	2.376623E-04
6.585533E+03	1.227936E-02	2.363460E-04
6.595348E+03	1.220155E-02	2.349504E-04
6.605162E+03	1.211992E-02	2.334784E-04
6.614977E+03	1.203512E-02	2.319427E-04
6.624791E+03	1.194725E-02	2.303448E-04
6.634606E+03	1.185730E-02	2.287039E-04
6.644420E+03	1.176549E-02	2.270244E-04
6.654235E+03	1.167293E-02	2.253273E-04
6.664049E+03	1.157991E-02	2.236183E-04
6.673864E+03	1.148733E-02	2.219150E-04
6.683678E+03	1.139586E-02	2.202301E-04
6.693493E+03	1.130590E-02	2.185717E-04
6.703307E+03	1.121822E-02	2.169546E-04
6.713122E+03	1.113309E-02	2.153841E-04
6.722937E+03	1.105112E-02	2.138721E-04
6.732751E+03	1.097220E-02	2.124166E-04
6.742566E+03	1.089697E-02	2.110300E-04
6.752380E+03	1.082535E-02	2.097108E-04
6.762195E+03	1.075739E-02	2.084602E-04
6.772009E+03	1.069288E-02	2.072742E-04
6.781824E+03	1.063215E-02	2.061595E-04
6.791638E+03	1.057451E-02	2.051024E-04
6.801453E+03	1.052043E-02	2.041123E-04
6.811267E+03	1.046937E-02	2.031790E-04
6.821082E+03	1.042121E-02	2.023001E-04
6.830896E+03	1.037602E-02	2.014769E-04
6.840711E+03	1.033349E-02	2.007037E-04
6.850525E+03	1.029354E-02	1.999790E-04
6.860340E+03	1.025611E-02	1.993015E-04
6.870154E+03	1.022113E-02	1.986702E-04
6.879969E+03	1.018852E-02	1.980836E-04
6.889783E+03	1.015802E-02	1.975363E-04
6.899598E+03	1.012990E-02	1.970343E-04
6.909412E+03	1.010341E-02	1.965627E-04
6.919227E+03	1.007896E-02	1.961294E-04
6.929041E+03	1.005572E-02	1.957185E-04
6.938856E+03	1.003385E-02	1.953333E-04
6.948670E+03	1.001289E-02	1.949647E-04
6.958485E+03	9.992602E-03	1.946084E-04
6.968299E+03	9.972932E-03	1.942631E-04
6.978114E+03	9.953257E-03	1.939168E-04
6.987928E+03	9.933543E-03	1.935691E-04
6.997743E+03	9.913367E-03	1.932116E-04
7.007557E+03	9.892688E-03	1.928436E-04
7.017372E+03	9.871265E-03	1.924605E-04
7.027186E+03	9.848625E-03	1.920531E-04
7.037001E+03	9.824662E-03	1.916194E-04
7.046815E+03	9.798640E-03	1.911450E-04
7.056630E+03	9.770580E-03	1.906306E-04
7.066444E+03	9.739882E-03	1.900643E-04
7.076259E+03	9.705905E-03	1.894337E-04
7.086073E+03	9.668407E-03	1.887342E-04
7.095888E+03	9.626928E-03	1.879568E-04
7.105702E+03	9.580854E-03	1.870895E-04
7.115517E+03	9.529826E-03	1.861253E-04
7.125331E+03	9.473560E-03	1.850587E-04
7.135146E+03	9.411911E-03	1.838870E-04
7.144960E+03	9.344914E-03	1.826107E-04
7.154775E+03	9.272382E-03	1.812263E-04
7.164589E+03	9.195096E-03	1.797491E-04
7.174404E+03	9.113426E-03	1.781862E-04
7.184218E+03	9.027895E-03	1.765479E-04
7.194033E+03	8.939466E-03	1.748531E-04
7.203847E+03	8.848588E-03	1.731105E-04
7.213662E+03	8.756083E-03	1.713364E-04
7.223476E+03	8.662759E-03	1.695465E-04
7.233291E+03	8.569209E-03	1.677525E-04
7.243105E+03	8.476348E-03	1.659723E-04
7.252920E+03	8.384332E-03	1.642090E-04
7.262734E+03	8.294166E-03	1.624825E-04
7.272549E+03	8.206099E-03	1.607976E-04
7.282363E+03	8.120862E-03	1.591687E-04
7.292178E+03	8.038792E-03	1.576025E-04
7.301992E+03	7.960351E-03	1.561082E-04
7.311807E+03	7.886135E-03	1.546976E-04
7.321621E+03	7.816316E-03	1.533740E-04
7.331436E+03	7.751696E-03	1.521535E-04
7.341250E+03	7.692155E-03	1.510338E-04
7.351065E+03	7.638180E-03	1.500245E-04
7.360879E+03	7.589646E-03	1.491233E-04
7.370694E+03	7.547018E-03	1.483397E-04
7.380508E+03	7.509978E-03	1.476674E-04
7.390323E+03	7.478293E-03	1.471020E-04
7.400137E+03	7.451792E-03	1.466405E-04
7.409952E+03	7.430061E-03	1.462748E-04
7.419766E+03	7.412915E-03	1.460014E-04
7.429581E+03	7.399479E-03	1.458032E-04
7.439395E+03	7.389306E-03	1.456715E-04
7.449210E+03	7.381937E-03	1.455972E-04
7.459024E+03	7.376554E-03	1.455643E-04
7.468839E+03	7.372688E-03	1.455634E-04
7.478653E+03	7.369569E-03	1.455793E-04
7.488468E+03	7.366971E-03	1.456076E-04
7.498282E+03	7.364057E-03	1.456316E-04
7.508097E+03	7.360752E-03	1.456499E-04
7.517911E+03	7.356396E-03	1.456493E-04
7.527726E+03	7.351073E-03	1.456314E-04
7.537540E+03	7.344288E-03	1.455862E-04
7.547355E+03	7.336287E-03	1.455187E-04
7.557169E+03	7.326863E-03	1.454244E-04
7.566984E+03	7.316029E-03	1.453038E-04
7.576799E+03	7.303849E-03	1.451578E-04
7.586613E+03	7.290389E-03	1.449877E-04
7.596428E+03	7.275758E-03	1.447955E-04
7.606242E+03	7.259884E-03	1.445799E-04
7.616057E+03	7.243224E-03	1.443496E-04
