#wls	flux	fluxerr
1.570321E+03	2.983937E-05	9.800413E-07
1.609579E+03	2.959611E-05	9.680895E-07
1.648837E+03	2.942997E-05	9.586304E-07
1.688095E+03	2.935301E-05	9.520237E-07
1.727353E+03	2.936337E-05	9.481714E-07
1.766611E+03	2.946542E-05	9.471761E-07
1.805869E+03	2.966662E-05	9.492346E-07
1.845127E+03	2.997019E-05	9.544022E-07
1.884385E+03	3.038294E-05	9.628452E-07
1.923643E+03	3.091295E-05	9.747627E-07
1.962901E+03	3.156532E-05	9.902539E-07
2.002159E+03	3.235387E-05	1.009684E-06
2.041417E+03	3.328359E-05	1.033134E-06
2.080675E+03	3.436246E-05	1.060769E-06
2.119933E+03	3.560380E-05	1.092912E-06
2.159191E+03	3.701808E-05	1.129786E-06
2.198449E+03	3.861356E-05	1.171536E-06
2.237707E+03	4.041982E-05	1.218941E-06
2.276965E+03	4.246737E-05	1.272783E-06
2.316223E+03	4.481019E-05	1.334517E-06
2.355481E+03	4.751327E-05	1.405875E-06
2.394739E+03	5.065308E-05	1.488873E-06
2.433997E+03	5.432346E-05	1.585967E-06
2.473255E+03	5.862842E-05	1.699823E-06
2.512513E+03	6.370598E-05	1.833994E-06
2.551772E+03	6.971384E-05	1.992470E-06
2.591030E+03	7.685219E-05	2.180299E-06
2.630288E+03	8.536741E-05	2.403648E-06
2.669546E+03	9.557523E-05	2.670387E-06
2.708804E+03	1.078721E-04	2.990329E-06
2.748062E+03	1.227636E-04	3.375916E-06
2.787320E+03	1.409114E-04	3.843359E-06
2.826578E+03	1.631724E-04	4.413521E-06
2.865836E+03	1.906842E-04	5.113972E-06
2.905094E+03	2.249614E-04	5.981198E-06
2.944352E+03	2.680343E-04	7.063813E-06
2.954166E+03	2.804769E-04	7.375267E-06
2.963981E+03	2.936871E-04	7.705360E-06
2.973795E+03	3.077187E-04	8.055367E-06
2.983610E+03	3.226370E-04	8.426840E-06
2.993424E+03	3.384982E-04	8.821086E-06
3.003239E+03	3.553702E-04	9.239695E-06
3.013053E+03	3.733415E-04	9.684782E-06
3.022868E+03	3.924766E-04	1.015781E-05
3.032682E+03	4.128781E-04	1.066122E-05
3.042497E+03	4.346309E-04	1.119697E-05
3.052311E+03	4.578357E-04	1.176739E-05
3.062126E+03	4.826203E-04	1.237550E-05
3.071940E+03	5.090852E-04	1.302359E-05
3.081755E+03	5.373678E-04	1.371483E-05
3.091569E+03	5.676067E-04	1.445245E-05
3.101384E+03	5.999640E-04	1.524018E-05
3.111198E+03	6.345920E-04	1.608151E-05
3.121013E+03	6.716783E-04	1.698075E-05
3.130827E+03	7.114158E-04	1.794233E-05
3.140642E+03	7.539981E-04	1.897062E-05
3.150456E+03	7.996625E-04	2.007106E-05
3.160271E+03	8.486670E-04	2.124953E-05
3.170085E+03	9.012452E-04	2.251126E-05
3.179900E+03	9.577118E-04	2.386343E-05
3.189714E+03	1.018342E-03	2.531217E-05
3.199529E+03	1.083518E-03	2.686619E-05
3.209343E+03	1.153548E-03	2.853227E-05
3.219158E+03	1.228835E-03	3.031946E-05
3.228972E+03	1.309816E-03	3.223755E-05
3.238787E+03	1.396921E-03	3.429604E-05
3.248601E+03	1.490656E-03	3.650622E-05
3.258416E+03	1.591495E-03	3.887843E-05
3.268230E+03	1.700018E-03	4.142549E-05
3.278045E+03	1.816821E-03	4.416049E-05
3.287859E+03	1.942544E-03	4.709740E-05
3.297674E+03	2.077867E-03	5.025107E-05
3.307488E+03	2.223488E-03	5.363653E-05
3.317303E+03	2.380171E-03	5.727033E-05
3.327117E+03	2.548731E-03	6.116993E-05
3.336932E+03	2.730023E-03	6.535370E-05
3.346746E+03	2.924909E-03	6.983984E-05
3.356561E+03	3.134321E-03	7.464808E-05
3.366376E+03	3.359227E-03	7.979880E-05
3.376190E+03	3.600578E-03	8.531165E-05
3.386005E+03	3.859379E-03	9.120743E-05
3.395819E+03	4.136632E-03	9.750660E-05
3.405634E+03	4.433227E-03	1.042267E-04
3.415448E+03	4.750150E-03	1.113874E-04
3.425263E+03	5.088220E-03	1.190041E-04
3.435077E+03	5.448176E-03	1.270903E-04
3.444892E+03	5.830696E-03	1.356579E-04
3.454706E+03	6.236199E-03	1.447124E-04
3.464521E+03	6.665088E-03	1.542592E-04
3.474335E+03	7.117548E-03	1.642984E-04
3.484150E+03	7.593589E-03	1.748259E-04
3.493964E+03	8.093057E-03	1.858342E-04
3.503779E+03	8.615612E-03	1.973112E-04
3.513593E+03	9.160648E-03	2.092392E-04
3.523408E+03	9.727572E-03	2.216007E-04
3.533222E+03	1.031542E-02	2.343701E-04
3.543037E+03	1.092330E-02	2.475235E-04
3.552851E+03	1.154981E-02	2.610260E-04
3.562666E+03	1.219391E-02	2.748509E-04
3.572480E+03	1.285382E-02	2.889554E-04
3.582295E+03	1.352814E-02	3.033058E-04
3.592109E+03	1.421518E-02	3.178614E-04
3.601924E+03	1.491341E-02	3.325867E-04
3.611738E+03	1.562088E-02	3.474362E-04
3.621553E+03	1.633600E-02	3.623740E-04
3.631367E+03	1.705688E-02	3.773567E-04
3.641182E+03	1.778197E-02	3.923493E-04
3.650996E+03	1.850938E-02	4.073100E-04
3.660811E+03	1.923780E-02	4.222095E-04
3.670625E+03	1.996523E-02	4.370043E-04
3.680440E+03	2.069043E-02	4.516676E-04
3.690254E+03	2.141183E-02	4.661657E-04
3.700069E+03	2.212806E-02	4.804701E-04
3.709883E+03	2.283762E-02	4.945488E-04
3.719698E+03	2.353936E-02	5.083788E-04
3.729512E+03	2.423154E-02	5.219237E-04
3.739327E+03	2.491301E-02	5.351607E-04
3.749141E+03	2.558236E-02	5.480620E-04
3.758956E+03	2.623816E-02	5.605987E-04
3.768770E+03	2.687890E-02	5.727412E-04
3.778585E+03	2.750274E-02	5.844531E-04
3.788399E+03	2.810849E-02	5.957124E-04
3.798214E+03	2.869441E-02	6.064854E-04
3.808028E+03	2.925842E-02	6.167315E-04
3.817843E+03	2.979886E-02	6.264197E-04
3.827657E+03	3.031376E-02	6.355130E-04
3.837472E+03	3.080137E-02	6.439790E-04
3.847286E+03	3.125938E-02	6.517743E-04
3.857101E+03	3.168630E-02	6.588727E-04
3.866915E+03	3.207983E-02	6.652323E-04
3.876730E+03	3.243859E-02	6.708301E-04
3.886544E+03	3.276048E-02	6.756285E-04
3.896359E+03	3.304381E-02	6.795991E-04
3.906173E+03	3.328764E-02	6.827293E-04
3.915988E+03	3.349048E-02	6.849949E-04
3.925802E+03	3.365168E-02	6.863900E-04
3.935617E+03	3.377073E-02	6.869111E-04
3.945431E+03	3.384786E-02	6.865697E-04
3.955246E+03	3.388353E-02	6.853827E-04
3.965060E+03	3.387878E-02	6.833775E-04
3.974875E+03	3.383543E-02	6.805976E-04
3.984689E+03	3.375578E-02	6.770960E-04
3.994504E+03	3.364171E-02	6.729159E-04
4.004318E+03	3.349675E-02	6.681338E-04
4.014133E+03	3.332330E-02	6.628023E-04
4.023947E+03	3.312498E-02	6.569981E-04
4.033762E+03	3.290466E-02	6.507821E-04
4.043576E+03	3.266579E-02	6.442261E-04
4.053391E+03	3.241151E-02	6.373947E-04
4.063205E+03	3.214493E-02	6.303515E-04
4.073020E+03	3.186905E-02	6.231573E-04
4.082834E+03	3.158681E-02	6.158710E-04
4.092649E+03	3.130130E-02	6.085536E-04
4.102463E+03	3.101524E-02	6.012582E-04
4.112278E+03	3.073100E-02	5.940308E-04
4.122092E+03	3.045109E-02	5.869197E-04
4.131907E+03	3.017797E-02	5.799711E-04
4.141721E+03	2.991424E-02	5.732338E-04
4.151536E+03	2.966194E-02	5.667451E-04
4.161350E+03	2.942332E-02	5.605462E-04
4.171165E+03	2.920035E-02	5.546719E-04
4.180979E+03	2.899546E-02	5.491659E-04
4.190794E+03	2.881059E-02	5.440617E-04
4.200608E+03	2.864791E-02	5.393968E-04
4.210423E+03	2.850957E-02	5.352081E-04
4.220238E+03	2.839724E-02	5.315225E-04
4.230052E+03	2.831351E-02	5.283842E-04
4.239867E+03	2.825999E-02	5.258185E-04
4.249681E+03	2.823874E-02	5.238585E-04
4.259496E+03	2.825154E-02	5.225319E-04
4.269310E+03	2.830085E-02	5.218784E-04
4.279125E+03	2.838787E-02	5.219143E-04
4.288939E+03	2.851496E-02	5.226762E-04
4.298754E+03	2.868386E-02	5.241899E-04
4.308568E+03	2.889648E-02	5.264829E-04
4.318383E+03	2.915476E-02	5.295839E-04
4.328197E+03	2.946026E-02	5.335132E-04
4.338012E+03	2.981475E-02	5.382954E-04
4.347826E+03	3.021866E-02	5.439303E-04
4.357641E+03	3.067303E-02	5.504287E-04
4.367455E+03	3.117759E-02	5.577774E-04
4.377270E+03	3.173162E-02	5.659559E-04
4.387084E+03	3.233418E-02	5.749395E-04
4.396899E+03	3.298203E-02	5.846629E-04
4.406713E+03	3.367255E-02	5.950730E-04
4.416528E+03	3.440024E-02	6.060663E-04
4.426342E+03	3.515986E-02	6.175448E-04
4.436157E+03	3.594399E-02	6.293740E-04
4.445971E+03	3.674426E-02	6.414043E-04
4.455786E+03	3.755116E-02	6.534679E-04
4.465600E+03	3.835348E-02	6.653698E-04
4.475415E+03	3.914056E-02	6.769268E-04
4.485229E+03	3.989983E-02	6.879252E-04
4.495044E+03	4.061923E-02	6.981627E-04
4.504858E+03	4.128687E-02	7.074425E-04
4.514673E+03	4.189153E-02	7.155816E-04
4.524487E+03	4.242269E-02	7.224115E-04
4.534302E+03	4.287130E-02	7.277908E-04
4.544116E+03	4.323052E-02	7.316172E-04
4.553931E+03	4.349565E-02	7.338259E-04
4.563745E+03	4.366417E-02	7.343898E-04
4.573560E+03	4.373494E-02	7.333054E-04
4.583374E+03	4.371009E-02	7.306238E-04
4.593189E+03	4.359284E-02	7.264136E-04
4.603003E+03	4.338797E-02	7.207691E-04
4.612818E+03	4.310202E-02	7.138121E-04
4.622632E+03	4.274214E-02	7.056733E-04
4.632447E+03	4.231618E-02	6.964933E-04
4.642261E+03	4.183244E-02	6.864184E-04
4.652076E+03	4.129937E-02	6.755955E-04
4.661890E+03	4.072533E-02	6.641683E-04
4.671705E+03	4.011835E-02	6.522733E-04
4.681519E+03	3.948599E-02	6.400380E-04
4.691334E+03	3.883482E-02	6.275720E-04
4.701148E+03	3.817144E-02	6.149843E-04
4.710963E+03	3.750051E-02	6.023511E-04
4.720777E+03	3.682730E-02	5.897578E-04
4.730592E+03	3.615475E-02	5.772513E-04
4.740406E+03	3.548610E-02	5.648827E-04
4.750221E+03	3.482370E-02	5.526885E-04
4.760035E+03	3.416901E-02	5.406907E-04
4.769850E+03	3.352533E-02	5.289394E-04
4.779664E+03	3.289816E-02	5.175198E-04
4.789479E+03	3.229559E-02	5.065555E-04
4.799293E+03	3.172358E-02	4.961358E-04
4.809108E+03	3.118867E-02	4.863574E-04
4.818922E+03	3.069432E-02	4.772684E-04
4.828737E+03	3.024344E-02	4.689076E-04
4.838551E+03	2.983709E-02	4.612847E-04
4.848366E+03	2.947590E-02	4.544029E-04
4.858180E+03	2.915883E-02	4.482397E-04
4.867995E+03	2.888518E-02	4.427782E-04
4.877809E+03	2.865391E-02	4.379961E-04
4.887624E+03	2.846293E-02	4.338558E-04
4.897438E+03	2.831076E-02	4.303290E-04
4.907253E+03	2.819635E-02	4.273946E-04
4.917067E+03	2.811869E-02	4.250321E-04
4.926882E+03	2.807665E-02	4.232196E-04
4.936696E+03	2.807040E-02	4.219550E-04
4.946511E+03	2.810038E-02	4.212400E-04
4.956325E+03	2.816741E-02	4.210823E-04
4.966140E+03	2.827237E-02	4.214902E-04
4.975954E+03	2.841660E-02	4.224788E-04
4.985769E+03	2.860174E-02	4.240674E-04
4.995583E+03	2.882838E-02	4.262597E-04
5.005398E+03	2.909761E-02	4.290667E-04
5.015212E+03	2.940947E-02	4.324837E-04
5.025027E+03	2.976360E-02	4.365002E-04
5.034841E+03	3.015895E-02	4.410958E-04
5.044656E+03	3.059370E-02	4.462389E-04
5.054471E+03	3.106497E-02	4.518830E-04
5.064285E+03	3.156971E-02	4.579796E-04
5.074100E+03	3.210324E-02	4.644570E-04
5.083914E+03	3.266110E-02	4.712475E-04
5.093729E+03	3.323760E-02	4.782663E-04
5.103543E+03	3.382682E-02	4.854263E-04
5.113358E+03	3.442240E-02	4.926353E-04
5.123172E+03	3.501771E-02	4.997976E-04
5.132987E+03	3.560524E-02	5.068066E-04
5.142801E+03	3.617887E-02	5.135763E-04
5.152616E+03	3.673087E-02	5.199989E-04
5.162430E+03	3.725564E-02	5.259979E-04
5.172245E+03	3.774666E-02	5.314847E-04
5.182059E+03	3.819919E-02	5.363966E-04
5.191874E+03	3.860854E-02	5.406723E-04
5.201688E+03	3.897096E-02	5.442643E-04
5.211503E+03	3.928444E-02	5.471503E-04
5.221317E+03	3.954689E-02	5.493066E-04
5.231132E+03	3.975843E-02	5.507406E-04
5.240946E+03	3.991942E-02	5.514631E-04
5.250761E+03	4.003121E-02	5.514984E-04
5.260575E+03	4.009644E-02	5.508880E-04
5.270390E+03	4.011850E-02	5.496836E-04
5.280204E+03	4.010139E-02	5.479447E-04
5.290019E+03	4.004859E-02	5.457230E-04
5.299833E+03	3.996466E-02	5.430843E-04
5.309648E+03	3.985263E-02	5.400733E-04
5.319462E+03	3.971410E-02	5.367145E-04
5.329277E+03	3.954544E-02	5.329620E-04
5.339091E+03	3.934363E-02	5.287788E-04
5.348906E+03	3.910463E-02	5.241139E-04
5.358720E+03	3.882666E-02	5.189480E-04
5.368535E+03	3.850557E-02	5.132299E-04
5.378349E+03	3.813629E-02	5.068972E-04
5.388164E+03	3.771568E-02	4.999135E-04
5.397978E+03	3.724294E-02	4.922740E-04
5.407793E+03	3.671988E-02	4.840084E-04
5.417607E+03	3.614752E-02	4.751354E-04
5.427422E+03	3.553008E-02	4.657159E-04
5.437236E+03	3.487087E-02	4.557982E-04
5.447051E+03	3.417512E-02	4.454550E-04
5.456865E+03	3.344882E-02	4.347681E-04
5.466680E+03	3.269860E-02	4.238270E-04
5.476494E+03	3.193104E-02	4.127191E-04
5.486309E+03	3.115392E-02	4.015466E-04
5.496123E+03	3.037546E-02	3.904161E-04
5.505938E+03	2.960383E-02	3.794326E-04
5.515752E+03	2.884745E-02	3.687028E-04
5.525567E+03	2.811531E-02	3.583395E-04
5.535381E+03	2.741535E-02	3.484412E-04
5.545196E+03	2.675570E-02	3.391073E-04
5.555010E+03	2.614366E-02	3.304257E-04
5.564825E+03	2.558599E-02	3.224768E-04
5.574639E+03	2.508837E-02	3.153258E-04
5.584454E+03	2.465547E-02	3.090251E-04
5.594268E+03	2.429117E-02	3.036166E-04
5.604083E+03	2.399830E-02	2.991283E-04
5.613897E+03	2.377810E-02	2.955684E-04
5.623712E+03	2.363132E-02	2.929389E-04
5.633526E+03	2.355747E-02	2.912263E-04
5.643341E+03	2.355517E-02	2.904066E-04
5.653155E+03	2.362270E-02	2.904516E-04
5.662970E+03	2.375661E-02	2.913125E-04
5.672784E+03	2.395373E-02	2.929442E-04
5.682599E+03	2.420947E-02	2.952852E-04
5.692413E+03	2.451904E-02	2.982720E-04
5.702228E+03	2.487671E-02	3.018306E-04
5.712042E+03	2.527606E-02	3.058795E-04
5.721857E+03	2.571026E-02	3.103330E-04
5.731671E+03	2.617134E-02	3.150928E-04
5.741486E+03	2.665137E-02	3.200622E-04
5.751300E+03	2.714177E-02	3.251377E-04
5.761115E+03	2.763348E-02	3.302111E-04
5.770929E+03	2.811829E-02	3.351856E-04
5.780744E+03	2.858695E-02	3.399530E-04
5.790558E+03	2.903178E-02	3.444246E-04
5.800373E+03	2.944466E-02	3.485077E-04
5.810187E+03	2.981844E-02	3.521214E-04
5.820002E+03	3.014705E-02	3.551987E-04
5.829816E+03	3.042433E-02	3.576719E-04
5.839631E+03	3.064607E-02	3.594966E-04
5.849445E+03	3.080912E-02	3.606413E-04
5.859260E+03	3.091039E-02	3.610751E-04
5.869074E+03	3.094892E-02	3.607921E-04
5.878889E+03	3.092452E-02	3.597953E-04
5.888704E+03	3.083775E-02	3.580960E-04
5.898518E+03	3.069057E-02	3.557216E-04
5.908333E+03	3.048593E-02	3.527106E-04
5.918147E+03	3.022733E-02	3.491070E-04
5.927962E+03	2.991936E-02	3.449673E-04
5.937776E+03	2.956763E-02	3.403585E-04
5.947591E+03	2.917684E-02	3.353370E-04
5.957405E+03	2.875378E-02	3.299827E-04
5.967220E+03	2.830378E-02	3.243575E-04
5.977034E+03	2.783385E-02	3.185426E-04
5.986849E+03	2.734921E-02	3.125979E-04
5.996663E+03	2.685608E-02	3.065943E-04
6.006478E+03	2.635921E-02	3.005853E-04
6.016292E+03	2.586366E-02	2.946281E-04
6.026107E+03	2.537278E-02	2.887594E-04
6.035921E+03	2.488943E-02	2.830099E-04
6.045736E+03	2.441623E-02	2.774070E-04
6.055550E+03	2.395407E-02	2.719587E-04
6.065365E+03	2.350407E-02	2.666756E-04
6.075179E+03	2.306658E-02	2.615597E-04
6.084994E+03	2.264178E-02	2.566110E-04
6.094808E+03	2.223104E-02	2.518434E-04
6.104623E+03	2.183823E-02	2.472989E-04
6.114437E+03	2.146656E-02	2.430121E-04
6.124252E+03	2.111897E-02	2.390147E-04
6.134066E+03	2.079766E-02	2.353302E-04
6.143881E+03	2.050469E-02	2.319805E-04
6.153695E+03	2.024033E-02	2.289673E-04
6.163510E+03	2.000477E-02	2.262917E-04
6.173324E+03	1.979791E-02	2.239517E-04
6.183139E+03	1.961886E-02	2.219362E-04
6.192953E+03	1.946597E-02	2.202259E-04
6.202768E+03	1.933718E-02	2.187968E-04
6.212582E+03	1.923057E-02	2.176267E-04
6.222397E+03	1.914319E-02	2.166815E-04
6.232211E+03	1.907242E-02	2.159311E-04
6.242026E+03	1.901529E-02	2.153415E-04
6.251840E+03	1.896889E-02	2.148793E-04
6.261655E+03	1.893048E-02	2.145130E-04
6.271469E+03	1.889751E-02	2.142134E-04
6.281284E+03	1.886779E-02	2.139550E-04
6.291098E+03	1.883920E-02	2.137136E-04
6.300913E+03	1.881061E-02	2.134757E-04
6.310727E+03	1.878104E-02	2.132298E-04
6.320542E+03	1.875022E-02	2.129725E-04
6.330356E+03	1.871832E-02	2.127052E-04
6.340171E+03	1.868535E-02	2.124275E-04
6.349985E+03	1.865247E-02	2.121521E-04
6.359800E+03	1.862052E-02	2.118884E-04
6.369614E+03	1.859080E-02	2.116507E-04
6.379429E+03	1.856415E-02	2.114482E-04
6.389243E+03	1.854224E-02	2.112996E-04
6.399058E+03	1.852588E-02	2.112139E-04
6.408872E+03	1.851634E-02	2.112053E-04
6.418687E+03	1.851418E-02	2.112800E-04
6.428501E+03	1.852035E-02	2.114487E-04
6.438316E+03	1.853559E-02	2.117197E-04
6.448130E+03	1.855954E-02	2.120885E-04
6.457945E+03	1.859244E-02	2.125578E-04
6.467759E+03	1.863425E-02	2.131272E-04
6.477574E+03	1.868380E-02	2.137827E-04
6.487388E+03	1.874082E-02	2.145213E-04
6.497203E+03	1.880359E-02	2.153232E-04
6.507017E+03	1.887139E-02	2.161797E-04
6.516832E+03	1.894202E-02	2.170655E-04
6.526646E+03	1.901405E-02	2.179641E-04
6.536461E+03	1.908561E-02	2.188537E-04
6.546275E+03	1.915438E-02	2.197072E-04
6.556090E+03	1.921861E-02	2.205047E-04
6.565904E+03	1.927595E-02	2.212185E-04
6.575719E+03	1.932439E-02	2.218255E-04
6.585533E+03	1.936238E-02	2.223077E-04
6.595348E+03	1.938793E-02	2.226417E-04
6.605162E+03	1.939922E-02	2.228066E-04
6.614977E+03	1.939575E-02	2.227962E-04
6.624791E+03	1.937597E-02	2.225927E-04
6.634606E+03	1.933964E-02	2.221931E-04
6.644420E+03	1.928657E-02	2.215951E-04
6.654235E+03	1.921654E-02	2.207961E-04
6.664049E+03	1.913000E-02	2.198012E-04
6.673864E+03	1.902771E-02	2.186192E-04
6.683678E+03	1.891104E-02	2.172659E-04
6.693493E+03	1.878088E-02	2.157516E-04
6.703307E+03	1.863830E-02	2.140887E-04
6.713122E+03	1.848519E-02	2.122990E-04
6.722937E+03	1.832318E-02	2.104015E-04
6.732751E+03	1.815407E-02	2.084171E-04
6.742566E+03	1.797952E-02	2.063650E-04
6.752380E+03	1.780180E-02	2.042714E-04
6.762195E+03	1.762372E-02	2.021689E-04
6.772009E+03	1.744744E-02	2.000824E-04
6.781824E+03	1.727533E-02	1.980394E-04
6.791638E+03	1.710945E-02	1.960635E-04
6.801453E+03	1.695152E-02	1.941746E-04
6.811267E+03	1.680287E-02	1.923880E-04
6.821082E+03	1.666446E-02	1.907149E-04
6.830896E+03	1.653657E-02	1.891583E-04
6.840711E+03	1.641945E-02	1.877212E-04
6.850525E+03	1.631334E-02	1.864066E-04
6.860340E+03	1.621791E-02	1.852104E-04
6.870154E+03	1.613195E-02	1.841188E-04
6.879969E+03	1.605526E-02	1.831297E-04
6.889783E+03	1.598662E-02	1.822291E-04
6.899598E+03	1.592499E-02	1.814051E-04
6.909412E+03	1.586895E-02	1.806417E-04
6.919227E+03	1.581775E-02	1.799303E-04
6.929041E+03	1.577033E-02	1.792591E-04
6.938856E+03	1.572573E-02	1.786172E-04
6.948670E+03	1.568278E-02	1.779914E-04
6.958485E+03	1.564072E-02	1.773733E-04
6.968299E+03	1.559924E-02	1.767596E-04
6.978114E+03	1.555752E-02	1.761412E-04
6.987928E+03	1.551483E-02	1.755100E-04
6.997743E+03	1.547145E-02	1.748696E-04
7.007557E+03	1.542675E-02	1.742131E-04
7.017372E+03	1.538044E-02	1.735373E-04
7.027186E+03	1.533188E-02	1.728355E-04
7.037001E+03	1.528103E-02	1.721076E-04
7.046815E+03	1.522750E-02	1.713495E-04
7.056630E+03	1.517057E-02	1.705533E-04
7.066444E+03	1.510981E-02	1.697147E-04
7.076259E+03	1.504513E-02	1.688330E-04
7.086073E+03	1.497585E-02	1.679011E-04
7.095888E+03	1.490165E-02	1.669158E-04
7.105702E+03	1.482228E-02	1.658746E-04
7.115517E+03	1.473753E-02	1.647756E-04
7.125331E+03	1.464696E-02	1.636145E-04
7.135146E+03	1.455115E-02	1.623982E-04
7.144960E+03	1.444984E-02	1.611241E-04
7.154775E+03	1.434259E-02	1.597878E-04
7.164589E+03	1.423060E-02	1.584031E-04
7.174404E+03	1.411337E-02	1.569647E-04
7.184218E+03	1.399199E-02	1.554853E-04
7.194033E+03	1.386677E-02	1.539687E-04
7.203847E+03	1.373839E-02	1.524227E-04
7.213662E+03	1.360730E-02	1.508525E-04
7.223476E+03	1.347428E-02	1.492672E-04
7.233291E+03	1.334014E-02	1.476760E-04
7.243105E+03	1.320572E-02	1.460882E-04
7.252920E+03	1.307131E-02	1.445073E-04
7.262734E+03	1.293804E-02	1.429461E-04
7.272549E+03	1.280629E-02	1.414088E-04
7.282363E+03	1.267675E-02	1.399031E-04
7.292178E+03	1.255017E-02	1.384374E-04
7.301992E+03	1.242789E-02	1.370266E-04
7.311807E+03	1.231097E-02	1.356824E-04
7.321621E+03	1.220100E-02	1.344225E-04
7.331436E+03	1.209949E-02	1.332633E-04
7.341250E+03	1.200700E-02	1.322113E-04
7.351065E+03	1.192444E-02	1.312764E-04
7.360879E+03	1.185277E-02	1.304693E-04
7.370694E+03	1.179158E-02	1.297856E-04
7.380508E+03	1.174122E-02	1.292292E-04
7.390323E+03	1.170115E-02	1.287945E-04
7.400137E+03	1.167050E-02	1.284719E-04
7.409952E+03	1.164808E-02	1.282486E-04
7.419766E+03	1.163237E-02	1.281076E-04
7.429581E+03	1.162179E-02	1.280311E-04
7.439395E+03	1.161394E-02	1.279927E-04
7.449210E+03	1.160671E-02	1.279688E-04
7.459024E+03	1.159726E-02	1.279277E-04
7.468839E+03	1.158315E-02	1.278424E-04
7.478653E+03	1.156177E-02	1.276837E-04
7.488468E+03	1.153045E-02	1.274215E-04
7.498282E+03	1.148751E-02	1.270369E-04
7.508097E+03	1.143225E-02	1.265215E-04
7.517911E+03	1.136529E-02	1.258814E-04
7.527726E+03	1.128833E-02	1.251351E-04
7.537540E+03	1.120281E-02	1.242977E-04
7.547355E+03	1.111101E-02	1.233939E-04
7.557169E+03	1.101406E-02	1.224359E-04
7.566984E+03	1.091380E-02	1.214435E-04
7.576799E+03	1.081132E-02	1.204286E-04
7.586613E+03	1.070814E-02	1.194074E-04
7.596428E+03	1.060530E-02	1.183915E-04
7.606242E+03	1.050372E-02	1.173908E-04
7.616057E+03	1.040389E-02	1.164103E-04
