#wls	flux	fluxerr
1.570321E+03	5.955435E-05	4.401724E-06
1.609579E+03	5.910001E-05	4.350931E-06
1.648837E+03	5.879274E-05	4.310778E-06
1.688095E+03	5.863056E-05	4.280984E-06
1.727353E+03	5.862501E-05	4.262253E-06
1.766611E+03	5.877616E-05	4.254435E-06
1.805869E+03	5.910312E-05	4.258745E-06
1.845127E+03	5.960284E-05	4.274775E-06
1.884385E+03	6.030251E-05	4.304275E-06
1.923643E+03	6.120843E-05	4.347459E-06
1.962901E+03	6.233508E-05	4.405104E-06
2.002159E+03	6.370504E-05	4.478523E-06
2.041417E+03	6.534404E-05	4.569206E-06
2.080675E+03	6.727657E-05	4.678501E-06
2.119933E+03	6.952663E-05	4.807672E-06
2.159191E+03	7.214969E-05	4.960089E-06
2.198449E+03	7.519767E-05	5.138772E-06
2.237707E+03	7.878250E-05	5.350707E-06
2.276965E+03	8.296592E-05	5.599279E-06
2.316223E+03	8.782360E-05	5.888663E-06
2.355481E+03	9.346343E-05	6.225014E-06
2.394739E+03	1.000092E-04	6.615294E-06
2.433997E+03	1.076379E-04	7.069693E-06
2.473255E+03	1.165391E-04	7.598807E-06
2.512513E+03	1.269609E-04	8.216608E-06
2.551772E+03	1.391876E-04	8.938801E-06
2.591030E+03	1.535813E-04	9.785388E-06
2.630288E+03	1.705758E-04	1.078003E-05
2.669546E+03	1.907163E-04	1.195233E-05
2.708804E+03	2.146673E-04	1.333793E-05
2.748062E+03	2.432355E-04	1.497961E-05
2.787320E+03	2.774505E-04	1.693166E-05
2.826578E+03	3.185613E-04	1.925902E-05
2.865836E+03	3.682143E-04	2.204712E-05
2.905094E+03	4.286930E-04	2.541484E-05
2.944352E+03	5.029471E-04	2.951405E-05
2.954166E+03	5.240965E-04	3.067534E-05
2.963981E+03	5.464109E-04	3.189783E-05
2.973795E+03	5.699601E-04	3.318498E-05
2.983610E+03	5.948463E-04	3.454214E-05
2.993424E+03	6.211364E-04	3.597249E-05
3.003239E+03	6.489311E-04	3.748114E-05
3.013053E+03	6.783219E-04	3.907262E-05
3.022868E+03	7.094239E-04	4.075272E-05
3.032682E+03	7.423435E-04	4.252666E-05
3.042497E+03	7.772103E-04	4.440091E-05
3.052311E+03	8.141479E-04	4.638154E-05
3.062126E+03	8.532861E-04	4.847483E-05
3.071940E+03	8.947838E-04	5.068866E-05
3.081755E+03	9.387905E-04	5.303025E-05
3.091569E+03	9.855076E-04	5.550964E-05
3.101384E+03	1.035070E-03	5.813300E-05
3.111198E+03	1.087702E-03	6.091140E-05
3.121013E+03	1.143606E-03	6.385449E-05
3.130827E+03	1.203018E-03	6.697373E-05
3.140642E+03	1.266144E-03	7.027871E-05
3.150456E+03	1.333279E-03	7.378375E-05
3.160271E+03	1.404689E-03	7.750139E-05
3.170085E+03	1.480634E-03	8.144367E-05
3.179900E+03	1.561469E-03	8.562764E-05
3.189714E+03	1.647553E-03	9.007028E-05
3.199529E+03	1.739185E-03	9.478500E-05
3.209343E+03	1.836800E-03	9.979246E-05
3.219158E+03	1.940807E-03	1.051116E-04
3.228972E+03	2.051648E-03	1.107628E-04
3.238787E+03	2.169791E-03	1.167674E-04
3.248601E+03	2.295781E-03	1.231508E-04
3.258416E+03	2.430168E-03	1.299379E-04
3.268230E+03	2.573540E-03	1.371555E-04
3.278045E+03	2.726538E-03	1.448327E-04
3.287859E+03	2.889845E-03	1.530002E-04
3.297674E+03	3.064248E-03	1.616939E-04
3.307488E+03	3.250506E-03	1.709474E-04
3.317303E+03	3.449483E-03	1.807994E-04
3.327117E+03	3.662113E-03	1.912914E-04
3.336932E+03	3.889403E-03	2.024683E-04
3.346746E+03	4.132441E-03	2.143781E-04
3.356561E+03	4.392342E-03	2.270695E-04
3.366376E+03	4.670295E-03	2.405942E-04
3.376190E+03	4.967682E-03	2.550128E-04
3.386005E+03	5.285849E-03	2.703829E-04
3.395819E+03	5.626124E-03	2.867604E-04
3.405634E+03	5.990000E-03	3.042083E-04
3.415448E+03	6.378919E-03	3.227858E-04
3.425263E+03	6.794234E-03	3.425466E-04
3.435077E+03	7.237228E-03	3.635398E-04
3.444892E+03	7.709301E-03	3.858193E-04
3.454706E+03	8.211315E-03	4.094109E-04
3.464521E+03	8.744374E-03	4.343518E-04
3.474335E+03	9.308969E-03	4.606479E-04
3.484150E+03	9.905485E-03	4.882994E-04
3.493964E+03	1.053411E-02	5.172963E-04
3.503779E+03	1.119467E-02	5.476109E-04
3.513593E+03	1.188684E-02	5.792082E-04
3.523408E+03	1.260980E-02	6.120290E-04
3.533222E+03	1.336239E-02	6.459983E-04
3.543037E+03	1.414350E-02	6.810447E-04
3.552851E+03	1.495187E-02	7.170894E-04
3.562666E+03	1.578610E-02	7.540486E-04
3.572480E+03	1.664467E-02	7.918342E-04
3.582295E+03	1.752616E-02	8.303632E-04
3.592109E+03	1.842864E-02	8.695293E-04
3.601924E+03	1.935026E-02	9.092321E-04
3.611738E+03	2.028884E-02	9.493572E-04
3.621553E+03	2.124220E-02	9.897919E-04
3.631367E+03	2.220783E-02	1.030408E-03
3.641182E+03	2.318321E-02	1.071083E-03
3.650996E+03	2.416573E-02	1.111688E-03
3.660811E+03	2.515247E-02	1.152084E-03
3.670625E+03	2.614055E-02	1.192135E-03
3.680440E+03	2.712707E-02	1.231708E-03
3.690254E+03	2.810855E-02	1.270646E-03
3.700069E+03	2.908240E-02	1.308834E-03
3.709883E+03	3.004480E-02	1.346103E-03
3.719698E+03	3.099336E-02	1.382353E-03
3.729512E+03	3.192421E-02	1.417420E-03
3.739327E+03	3.283449E-02	1.451187E-03
3.749141E+03	3.372087E-02	1.483518E-03
3.758956E+03	3.458030E-02	1.514295E-03
3.768770E+03	3.540981E-02	1.543403E-03
3.778585E+03	3.620655E-02	1.570736E-03
3.788399E+03	3.696745E-02	1.596182E-03
3.798214E+03	3.768986E-02	1.619647E-03
3.808028E+03	3.837129E-02	1.641049E-03
3.817843E+03	3.900940E-02	1.660313E-03
3.827657E+03	3.960143E-02	1.677348E-03
3.837472E+03	4.014604E-02	1.692126E-03
3.847286E+03	4.064090E-02	1.704579E-03
3.857101E+03	4.108452E-02	1.714676E-03
3.866915E+03	4.147600E-02	1.722411E-03
3.876730E+03	4.181347E-02	1.727739E-03
3.886544E+03	4.209692E-02	1.730695E-03
3.896359E+03	4.232575E-02	1.731286E-03
3.906173E+03	4.249933E-02	1.729523E-03
3.915988E+03	4.261869E-02	1.725482E-03
3.925802E+03	4.268392E-02	1.719202E-03
3.935617E+03	4.269584E-02	1.710749E-03
3.945431E+03	4.265624E-02	1.700230E-03
3.955246E+03	4.256667E-02	1.687738E-03
3.965060E+03	4.242872E-02	1.673368E-03
3.974875E+03	4.224559E-02	1.657278E-03
3.984689E+03	4.201918E-02	1.639570E-03
3.994504E+03	4.175295E-02	1.620408E-03
4.004318E+03	4.144962E-02	1.599921E-03
4.014133E+03	4.111308E-02	1.578284E-03
4.023947E+03	4.074638E-02	1.555635E-03
4.033762E+03	4.035360E-02	1.532149E-03
4.043576E+03	3.993768E-02	1.507953E-03
4.053391E+03	3.950276E-02	1.483219E-03
4.063205E+03	3.905240E-02	1.458093E-03
4.073020E+03	3.859041E-02	1.432726E-03
4.082834E+03	3.811993E-02	1.407242E-03
4.092649E+03	3.764491E-02	1.381794E-03
4.102463E+03	3.716862E-02	1.356502E-03
4.112278E+03	3.669419E-02	1.331483E-03
4.122092E+03	3.622464E-02	1.306846E-03
4.131907E+03	3.576340E-02	1.282710E-03
4.141721E+03	3.531314E-02	1.259167E-03
4.151536E+03	3.487668E-02	1.236309E-03
4.161350E+03	3.445636E-02	1.214211E-03
4.171165E+03	3.405462E-02	1.192950E-03
4.180979E+03	3.367374E-02	1.172594E-03
4.190794E+03	3.331556E-02	1.153194E-03
4.200608E+03	3.298232E-02	1.134812E-03
4.210423E+03	3.267559E-02	1.117489E-03
4.220238E+03	3.239730E-02	1.101274E-03
4.230052E+03	3.214855E-02	1.086187E-03
4.239867E+03	3.193131E-02	1.072276E-03
4.249681E+03	3.174670E-02	1.059561E-03
4.259496E+03	3.159623E-02	1.048071E-03
4.269310E+03	3.148130E-02	1.037833E-03
4.279125E+03	3.140295E-02	1.028861E-03
4.288939E+03	3.136212E-02	1.021162E-03
4.298754E+03	3.135887E-02	1.014718E-03
4.308568E+03	3.139388E-02	1.009528E-03
4.318383E+03	3.146667E-02	1.005556E-03
4.328197E+03	3.157781E-02	1.002798E-03
4.338012E+03	3.172667E-02	1.001213E-03
4.347826E+03	3.191288E-02	1.000767E-03
4.357641E+03	3.213551E-02	1.001413E-03
4.367455E+03	3.239383E-02	1.003107E-03
4.377270E+03	3.268649E-02	1.005790E-03
4.387084E+03	3.301121E-02	1.009372E-03
4.396899E+03	3.336574E-02	1.013771E-03
4.406713E+03	3.374789E-02	1.018905E-03
4.416528E+03	3.415386E-02	1.024647E-03
4.426342E+03	3.457982E-02	1.030872E-03
4.436157E+03	3.502161E-02	1.037449E-03
4.445971E+03	3.547398E-02	1.044217E-03
4.455786E+03	3.593169E-02	1.051022E-03
4.465600E+03	3.638873E-02	1.057687E-03
4.475415E+03	3.683807E-02	1.064016E-03
4.485229E+03	3.727387E-02	1.069848E-03
4.495044E+03	3.768831E-02	1.074971E-03
4.504858E+03	3.807535E-02	1.079229E-03
4.514673E+03	3.842722E-02	1.082422E-03
4.524487E+03	3.873802E-02	1.084408E-03
4.534302E+03	3.900138E-02	1.085033E-03
4.544116E+03	3.921190E-02	1.084177E-03
4.553931E+03	3.936497E-02	1.081742E-03
4.563745E+03	3.945658E-02	1.077653E-03
4.573560E+03	3.948405E-02	1.071869E-03
4.583374E+03	3.944579E-02	1.064382E-03
4.593189E+03	3.934164E-02	1.055221E-03
4.603003E+03	3.917187E-02	1.044427E-03
4.612818E+03	3.893842E-02	1.032084E-03
4.622632E+03	3.864392E-02	1.018291E-03
4.632447E+03	3.829216E-02	1.003177E-03
4.642261E+03	3.788736E-02	9.868766E-04
4.652076E+03	3.743497E-02	9.695544E-04
4.661890E+03	3.693993E-02	9.513574E-04
4.671705E+03	3.640876E-02	9.324695E-04
4.681519E+03	3.584683E-02	9.130407E-04
4.691334E+03	3.526050E-02	8.932430E-04
4.701148E+03	3.465511E-02	8.732177E-04
4.710963E+03	3.403674E-02	8.531222E-04
4.720777E+03	3.341027E-02	8.330796E-04
4.730592E+03	3.278088E-02	8.132184E-04
4.740406E+03	3.215305E-02	7.936463E-04
4.750221E+03	3.153121E-02	7.744660E-04
4.760035E+03	3.091889E-02	7.557543E-04
4.769850E+03	3.031981E-02	7.375916E-04
4.779664E+03	2.973870E-02	7.200803E-04
4.789479E+03	2.918002E-02	7.033152E-04
4.799293E+03	2.864823E-02	6.873899E-04
4.809108E+03	2.814658E-02	6.723670E-04
4.818922E+03	2.767802E-02	6.583014E-04
4.828737E+03	2.724419E-02	6.452164E-04
4.838551E+03	2.684628E-02	6.331244E-04
4.848366E+03	2.648502E-02	6.220276E-04
4.858180E+03	2.616013E-02	6.119042E-04
4.867995E+03	2.587110E-02	6.027280E-04
4.877809E+03	2.561714E-02	5.944670E-04
4.887624E+03	2.539696E-02	5.870784E-04
4.897438E+03	2.520988E-02	5.805343E-04
4.907253E+03	2.505400E-02	5.747796E-04
4.917067E+03	2.492884E-02	5.697925E-04
4.926882E+03	2.483263E-02	5.655223E-04
4.936696E+03	2.476489E-02	5.619486E-04
4.946511E+03	2.472434E-02	5.590335E-04
4.956325E+03	2.471085E-02	5.567651E-04
4.966140E+03	2.472352E-02	5.551151E-04
4.975954E+03	2.476233E-02	5.540750E-04
4.985769E+03	2.482691E-02	5.536291E-04
4.995583E+03	2.491723E-02	5.537689E-04
5.005398E+03	2.503355E-02	5.544929E-04
5.015212E+03	2.517538E-02	5.557832E-04
5.025027E+03	2.534287E-02	5.576359E-04
5.034841E+03	2.553583E-02	5.600398E-04
5.044656E+03	2.575365E-02	5.629749E-04
5.054471E+03	2.599604E-02	5.664281E-04
5.064285E+03	2.626176E-02	5.703658E-04
5.074100E+03	2.655034E-02	5.747718E-04
5.083914E+03	2.686036E-02	5.796092E-04
5.093729E+03	2.719015E-02	5.848363E-04
5.103543E+03	2.753835E-02	5.904185E-04
5.113358E+03	2.790286E-02	5.963056E-04
5.123172E+03	2.828190E-02	6.024551E-04
5.132987E+03	2.867271E-02	6.088037E-04
5.142801E+03	2.907347E-02	6.153092E-04
5.152616E+03	2.948139E-02	6.219089E-04
5.162430E+03	2.989387E-02	6.285452E-04
5.172245E+03	3.030794E-02	6.351533E-04
5.182059E+03	3.072114E-02	6.416801E-04
5.191874E+03	3.113073E-02	6.480667E-04
5.201688E+03	3.153363E-02	6.542483E-04
5.211503E+03	3.192705E-02	6.601675E-04
5.221317E+03	3.230858E-02	6.657743E-04
5.231132E+03	3.267521E-02	6.710080E-04
5.240946E+03	3.302464E-02	6.758229E-04
5.250761E+03	3.335370E-02	6.801569E-04
5.260575E+03	3.366070E-02	6.839777E-04
5.270390E+03	3.394276E-02	6.872306E-04
5.280204E+03	3.419826E-02	6.898863E-04
5.290019E+03	3.442540E-02	6.919135E-04
5.299833E+03	3.462263E-02	6.932857E-04
5.309648E+03	3.478775E-02	6.939643E-04
5.319462E+03	3.491970E-02	6.939349E-04
5.329277E+03	3.501575E-02	6.931493E-04
5.339091E+03	3.507269E-02	6.915518E-04
5.348906E+03	3.508882E-02	6.891172E-04
5.358720E+03	3.506130E-02	6.857993E-04
5.368535E+03	3.498830E-02	6.815718E-04
5.378349E+03	3.486835E-02	6.764172E-04
5.388164E+03	3.470038E-02	6.703260E-04
5.397978E+03	3.448381E-02	6.632989E-04
5.407793E+03	3.421786E-02	6.553335E-04
5.417607E+03	3.390375E-02	6.464655E-04
5.427422E+03	3.354226E-02	6.367229E-04
5.437236E+03	3.313486E-02	6.261467E-04
5.447051E+03	3.268448E-02	6.148044E-04
5.456865E+03	3.219377E-02	6.027582E-04
5.466680E+03	3.166717E-02	5.901033E-04
5.476494E+03	3.110961E-02	5.769416E-04
5.486309E+03	3.052611E-02	5.633763E-04
5.496123E+03	2.992373E-02	5.495456E-04
5.505938E+03	2.930886E-02	5.355734E-04
5.515752E+03	2.868936E-02	5.216081E-04
5.525567E+03	2.807314E-02	5.077959E-04
5.535381E+03	2.746797E-02	4.942778E-04
5.545196E+03	2.688218E-02	4.812019E-04
5.555010E+03	2.632298E-02	4.686931E-04
5.564825E+03	2.579828E-02	4.568856E-04
5.574639E+03	2.531451E-02	4.458849E-04
5.584454E+03	2.487789E-02	4.357899E-04
5.594268E+03	2.449302E-02	4.266689E-04
5.604083E+03	2.416469E-02	4.185911E-04
5.613897E+03	2.389603E-02	4.115957E-04
5.623712E+03	2.368965E-02	4.057114E-04
5.633526E+03	2.354769E-02	4.009575E-04
5.643341E+03	2.347140E-02	3.973380E-04
5.653155E+03	2.346095E-02	3.948374E-04
5.662970E+03	2.351722E-02	3.934524E-04
5.672784E+03	2.363927E-02	3.931493E-04
5.682599E+03	2.382640E-02	3.938983E-04
5.692413E+03	2.407725E-02	3.956597E-04
5.702228E+03	2.438905E-02	3.983713E-04
5.712042E+03	2.475933E-02	4.019767E-04
5.721857E+03	2.518399E-02	4.063952E-04
5.731671E+03	2.565863E-02	4.115428E-04
5.741486E+03	2.617735E-02	4.173135E-04
5.751300E+03	2.673421E-02	4.236039E-04
5.761115E+03	2.732117E-02	4.302799E-04
5.770929E+03	2.793057E-02	4.372168E-04
5.780744E+03	2.855303E-02	4.442669E-04
5.790558E+03	2.917919E-02	4.512866E-04
5.800373E+03	2.979855E-02	4.581185E-04
5.810187E+03	3.040104E-02	4.646163E-04
5.820002E+03	3.097620E-02	4.706316E-04
5.829816E+03	3.151423E-02	4.760297E-04
5.839631E+03	3.200475E-02	4.806708E-04
5.849445E+03	3.244002E-02	4.844582E-04
5.859260E+03	3.281152E-02	4.872861E-04
5.869074E+03	3.311315E-02	4.890862E-04
5.878889E+03	3.333987E-02	4.898079E-04
5.888704E+03	3.348824E-02	4.894247E-04
5.898518E+03	3.355690E-02	4.879401E-04
5.908333E+03	3.354574E-02	4.853755E-04
5.918147E+03	3.345626E-02	4.817743E-04
5.927962E+03	3.329144E-02	4.771992E-04
5.937776E+03	3.305596E-02	4.717351E-04
5.947591E+03	3.275474E-02	4.654678E-04
5.957405E+03	3.239431E-02	4.585033E-04
5.967220E+03	3.198139E-02	4.509476E-04
5.977034E+03	3.152345E-02	4.429137E-04
5.986849E+03	3.102729E-02	4.345034E-04
5.996663E+03	3.050094E-02	4.258323E-04
6.006478E+03	2.995071E-02	4.169903E-04
6.016292E+03	2.938428E-02	4.080839E-04
6.026107E+03	2.880789E-02	3.991979E-04
6.035921E+03	2.822818E-02	3.904211E-04
6.045736E+03	2.765062E-02	3.818229E-04
6.055550E+03	2.708136E-02	3.734775E-04
6.065365E+03	2.652522E-02	3.654409E-04
6.075179E+03	2.598654E-02	3.577618E-04
6.084994E+03	2.546897E-02	3.504804E-04
6.094808E+03	2.497548E-02	3.436282E-04
6.104623E+03	2.450754E-02	3.372159E-04
6.114437E+03	2.406566E-02	3.312427E-04
6.124252E+03	2.365062E-02	3.257116E-04
6.134066E+03	2.326218E-02	3.206127E-04
6.143881E+03	2.290045E-02	3.159414E-04
6.153695E+03	2.256499E-02	3.116861E-04
6.163510E+03	2.225507E-02	3.078319E-04
6.173324E+03	2.196947E-02	3.043580E-04
6.183139E+03	2.170803E-02	3.012582E-04
6.192953E+03	2.146917E-02	2.985074E-04
6.202768E+03	2.125178E-02	2.960873E-04
6.212582E+03	2.105464E-02	2.939783E-04
6.222397E+03	2.087643E-02	2.921598E-04
6.232211E+03	2.071548E-02	2.906064E-04
6.242026E+03	2.057071E-02	2.893011E-04
6.251840E+03	2.044076E-02	2.882230E-04
6.261655E+03	2.032436E-02	2.873527E-04
6.271469E+03	2.022000E-02	2.866674E-04
6.281284E+03	2.012667E-02	2.861512E-04
6.291098E+03	2.004261E-02	2.857779E-04
6.300913E+03	1.996751E-02	2.855414E-04
6.310727E+03	1.989978E-02	2.854179E-04
6.320542E+03	1.983904E-02	2.854003E-04
6.330356E+03	1.978457E-02	2.854772E-04
6.340171E+03	1.973627E-02	2.856457E-04
6.349985E+03	1.969429E-02	2.859072E-04
6.359800E+03	1.965940E-02	2.862714E-04
6.369614E+03	1.963191E-02	2.867424E-04
6.379429E+03	1.961295E-02	2.873358E-04
6.389243E+03	1.960345E-02	2.880648E-04
6.399058E+03	1.960468E-02	2.889481E-04
6.408872E+03	1.961767E-02	2.900006E-04
6.418687E+03	1.964396E-02	2.912455E-04
6.428501E+03	1.968410E-02	2.926912E-04
6.438316E+03	1.973966E-02	2.943618E-04
6.448130E+03	1.981077E-02	2.962598E-04
6.457945E+03	1.989786E-02	2.983923E-04
6.467759E+03	2.000130E-02	3.007659E-04
6.477574E+03	2.012044E-02	3.033713E-04
6.487388E+03	2.025481E-02	3.062023E-04
6.497203E+03	2.040282E-02	3.092355E-04
6.507017E+03	2.056313E-02	3.124506E-04
6.516832E+03	2.073327E-02	3.158106E-04
6.526646E+03	2.091075E-02	3.192773E-04
6.536461E+03	2.109313E-02	3.228127E-04
6.546275E+03	2.127738E-02	3.263690E-04
6.556090E+03	2.145994E-02	3.298898E-04
6.565904E+03	2.163747E-02	3.333220E-04
6.575719E+03	2.180700E-02	3.366175E-04
6.585533E+03	2.196488E-02	3.397174E-04
6.595348E+03	2.210834E-02	3.425760E-04
6.605162E+03	2.223447E-02	3.451454E-04
6.614977E+03	2.234022E-02	3.473754E-04
6.624791E+03	2.242370E-02	3.492337E-04
6.634606E+03	2.248306E-02	3.506885E-04
6.644420E+03	2.251653E-02	3.517094E-04
6.654235E+03	2.252325E-02	3.522804E-04
6.664049E+03	2.250372E-02	3.524072E-04
6.673864E+03	2.245741E-02	3.520794E-04
6.683678E+03	2.238560E-02	3.513150E-04
6.693493E+03	2.228964E-02	3.501344E-04
6.703307E+03	2.217104E-02	3.485598E-04
6.713122E+03	2.203252E-02	3.466337E-04
6.722937E+03	2.187641E-02	3.443922E-04
6.732751E+03	2.170649E-02	3.418951E-04
6.742566E+03	2.152522E-02	3.391811E-04
6.752380E+03	2.133594E-02	3.363038E-04
6.762195E+03	2.114279E-02	3.333289E-04
6.772009E+03	2.094827E-02	3.302970E-04
6.781824E+03	2.075591E-02	3.272644E-04
6.791638E+03	2.056813E-02	3.242705E-04
6.801453E+03	2.038782E-02	3.213620E-04
6.811267E+03	2.021705E-02	3.185722E-04
6.821082E+03	2.005705E-02	3.159217E-04
6.830896E+03	1.990940E-02	3.134361E-04
6.840711E+03	1.977444E-02	3.111213E-04
6.850525E+03	1.965288E-02	3.089895E-04
6.860340E+03	1.954466E-02	3.070402E-04
6.870154E+03	1.944904E-02	3.052622E-04
6.879969E+03	1.936572E-02	3.036513E-04
6.889783E+03	1.929341E-02	3.021876E-04
6.899598E+03	1.923099E-02	3.008539E-04
6.909412E+03	1.917757E-02	2.996369E-04
6.919227E+03	1.913176E-02	2.985153E-04
6.929041E+03	1.909138E-02	2.974556E-04
6.938856E+03	1.905572E-02	2.964474E-04
6.948670E+03	1.902336E-02	2.954694E-04
6.958485E+03	1.899253E-02	2.944949E-04
6.968299E+03	1.896196E-02	2.935054E-04
6.978114E+03	1.893048E-02	2.924836E-04
6.987928E+03	1.889741E-02	2.914209E-04
6.997743E+03	1.886112E-02	2.902931E-04
7.007557E+03	1.882162E-02	2.891022E-04
7.017372E+03	1.877826E-02	2.878400E-04
7.027186E+03	1.872981E-02	2.864893E-04
7.037001E+03	1.867621E-02	2.850514E-04
7.046815E+03	1.861720E-02	2.835242E-04
7.056630E+03	1.855294E-02	2.819124E-04
7.066444E+03	1.848251E-02	2.802042E-04
7.076259E+03	1.840664E-02	2.784131E-04
7.086073E+03	1.832456E-02	2.765294E-04
7.095888E+03	1.823708E-02	2.745681E-04
7.105702E+03	1.814354E-02	2.725214E-04
7.115517E+03	1.804446E-02	2.703996E-04
7.125331E+03	1.794039E-02	2.682132E-04
7.135146E+03	1.783076E-02	2.659561E-04
7.144960E+03	1.771615E-02	2.636395E-04
7.154775E+03	1.759684E-02	2.612695E-04
7.164589E+03	1.747307E-02	2.588522E-04
7.174404E+03	1.734514E-02	2.563942E-04
7.184218E+03	1.721378E-02	2.539083E-04
7.194033E+03	1.707859E-02	2.513906E-04
7.203847E+03	1.694074E-02	2.488607E-04
7.213662E+03	1.680031E-02	2.463212E-04
7.223476E+03	1.665819E-02	2.437869E-04
7.233291E+03	1.651456E-02	2.412623E-04
7.243105E+03	1.637078E-02	2.387687E-04
7.252920E+03	1.622750E-02	2.363170E-04
7.262734E+03	1.608544E-02	2.339189E-04
7.272549E+03	1.594569E-02	2.315915E-04
7.282363E+03	1.580901E-02	2.293468E-04
7.292178E+03	1.567688E-02	2.272073E-04
7.301992E+03	1.554928E-02	2.251737E-04
7.311807E+03	1.542759E-02	2.232668E-04
7.321621E+03	1.531203E-02	2.214904E-04
7.331436E+03	1.520267E-02	2.198466E-04
7.341250E+03	1.510016E-02	2.183456E-04
7.351065E+03	1.500354E-02	2.169743E-04
7.360879E+03	1.491344E-02	2.157429E-04
7.370694E+03	1.482921E-02	2.146425E-04
7.380508E+03	1.474994E-02	2.136610E-04
7.390323E+03	1.467523E-02	2.127916E-04
7.400137E+03	1.460372E-02	2.120121E-04
7.409952E+03	1.453379E-02	2.112970E-04
7.419766E+03	1.446474E-02	2.106338E-04
7.429581E+03	1.439457E-02	2.099911E-04
7.439395E+03	1.432117E-02	2.093357E-04
7.449210E+03	1.424309E-02	2.086437E-04
7.459024E+03	1.415815E-02	2.078799E-04
7.468839E+03	1.406459E-02	2.070159E-04
7.478653E+03	1.396119E-02	2.060299E-04
7.488468E+03	1.384666E-02	2.048993E-04
7.498282E+03	1.371942E-02	2.035967E-04
7.508097E+03	1.358014E-02	2.021283E-04
7.517911E+03	1.342942E-02	2.004988E-04
7.527726E+03	1.326863E-02	1.987248E-04
7.537540E+03	1.309969E-02	1.968312E-04
7.547355E+03	1.292388E-02	1.948337E-04
7.557169E+03	1.274280E-02	1.927536E-04
7.566984E+03	1.255834E-02	1.906162E-04
7.576799E+03	1.237158E-02	1.884355E-04
7.586613E+03	1.218415E-02	1.862343E-04
7.596428E+03	1.199691E-02	1.840236E-04
7.606242E+03	1.181120E-02	1.818224E-04
7.616057E+03	1.162759E-02	1.796382E-04
