#wls	flux	fluxerr
1.570321E+03	4.706431E-05	2.988782E-06
1.609579E+03	4.624388E-05	2.931450E-06
1.648837E+03	4.552052E-05	2.880308E-06
1.688095E+03	4.489306E-05	2.835254E-06
1.727353E+03	4.436679E-05	2.796590E-06
1.766611E+03	4.394705E-05	2.764615E-06
1.805869E+03	4.363377E-05	2.739286E-06
1.845127E+03	4.343868E-05	2.721298E-06
1.884385E+03	4.336281E-05	2.710666E-06
1.923643E+03	4.341887E-05	2.708133E-06
1.962901E+03	4.362008E-05	2.714463E-06
2.002159E+03	4.398057E-05	2.730465E-06
2.041417E+03	4.451069E-05	2.756703E-06
2.080675E+03	4.523772E-05	2.794778E-06
2.119933E+03	4.617587E-05	2.845463E-06
2.159191E+03	4.736710E-05	2.911222E-06
2.198449E+03	4.883190E-05	2.993171E-06
2.237707E+03	5.061517E-05	3.093897E-06
2.276965E+03	5.275250E-05	3.215384E-06
2.316223E+03	5.529643E-05	3.360607E-06
2.355481E+03	5.828780E-05	3.531789E-06
2.394739E+03	6.179253E-05	3.732623E-06
2.433997E+03	6.587310E-05	3.966534E-06
2.473255E+03	7.061112E-05	4.238031E-06
2.512513E+03	7.611632E-05	4.553222E-06
2.551772E+03	8.250311E-05	4.918387E-06
2.591030E+03	8.992848E-05	5.342212E-06
2.630288E+03	9.856978E-05	5.834431E-06
2.669546E+03	1.086555E-04	6.407606E-06
2.708804E+03	1.204437E-04	7.075789E-06
2.748062E+03	1.342714E-04	7.857375E-06
2.787320E+03	1.505523E-04	8.774856E-06
2.826578E+03	1.697874E-04	9.855331E-06
2.865836E+03	1.926049E-04	1.113268E-05
2.905094E+03	2.198419E-04	1.265208E-05
2.944352E+03	2.525791E-04	1.447169E-05
2.954166E+03	2.617771E-04	1.498178E-05
2.963981E+03	2.714347E-04	1.551685E-05
2.973795E+03	2.815761E-04	1.607821E-05
2.983610E+03	2.922276E-04	1.666724E-05
2.993424E+03	3.034167E-04	1.728539E-05
3.003239E+03	3.151846E-04	1.793489E-05
3.013053E+03	3.275631E-04	1.861743E-05
3.022868E+03	3.405987E-04	1.933550E-05
3.032682E+03	3.543155E-04	2.009033E-05
3.042497E+03	3.687647E-04	2.088466E-05
3.052311E+03	3.840016E-04	2.172146E-05
3.062126E+03	4.000577E-04	2.260233E-05
3.071940E+03	4.169941E-04	2.353054E-05
3.081755E+03	4.348768E-04	2.450960E-05
3.091569E+03	4.537466E-04	2.554159E-05
3.101384E+03	4.736922E-04	2.663129E-05
3.111198E+03	4.947780E-04	2.778205E-05
3.121013E+03	5.170564E-04	2.899655E-05
3.130827E+03	5.406327E-04	3.028042E-05
3.140642E+03	5.655859E-04	3.163777E-05
3.150456E+03	5.920009E-04	3.307303E-05
3.160271E+03	6.199674E-04	3.459085E-05
3.170085E+03	6.496197E-04	3.619836E-05
3.179900E+03	6.810627E-04	3.790100E-05
3.189714E+03	7.143903E-04	3.970356E-05
3.199529E+03	7.497613E-04	4.161441E-05
3.209343E+03	7.873064E-04	4.364031E-05
3.219158E+03	8.271639E-04	4.578839E-05
3.228972E+03	8.694819E-04	4.806627E-05
3.238787E+03	9.144646E-04	5.048465E-05
3.248601E+03	9.622602E-04	5.305104E-05
3.258416E+03	1.013075E-03	5.577609E-05
3.268230E+03	1.067102E-03	5.866975E-05
3.278045E+03	1.124576E-03	6.174408E-05
3.287859E+03	1.185692E-03	6.500888E-05
3.297674E+03	1.250712E-03	6.847762E-05
3.307488E+03	1.319854E-03	7.216128E-05
3.317303E+03	1.393442E-03	7.607648E-05
3.327117E+03	1.471726E-03	8.023570E-05
3.336932E+03	1.554998E-03	8.465376E-05
3.346746E+03	1.643532E-03	8.934426E-05
3.356561E+03	1.737686E-03	9.432523E-05
3.366376E+03	1.837761E-03	9.961155E-05
3.376190E+03	1.944066E-03	1.052185E-04
3.386005E+03	2.056963E-03	1.111640E-04
3.395819E+03	2.176823E-03	1.174664E-04
3.405634E+03	2.303902E-03	1.241376E-04
3.415448E+03	2.438581E-03	1.311963E-04
3.425263E+03	2.581204E-03	1.386589E-04
3.435077E+03	2.732066E-03	1.465392E-04
3.444892E+03	2.891503E-03	1.548529E-04
3.454706E+03	3.059738E-03	1.636098E-04
3.464521E+03	3.237137E-03	1.728269E-04
3.474335E+03	3.423888E-03	1.825119E-04
3.484150E+03	3.620264E-03	1.926766E-04
3.493964E+03	3.826455E-03	2.033287E-04
3.503779E+03	4.042554E-03	2.144703E-04
3.513593E+03	4.268737E-03	2.261079E-04
3.523408E+03	4.505077E-03	2.382427E-04
3.533222E+03	4.751522E-03	2.508691E-04
3.543037E+03	5.008109E-03	2.639861E-04
3.552851E+03	5.274742E-03	2.775858E-04
3.562666E+03	5.551344E-03	2.916614E-04
3.572480E+03	5.837864E-03	3.062070E-04
3.582295E+03	6.134110E-03	3.212100E-04
3.592109E+03	6.439830E-03	3.366543E-04
3.601924E+03	6.754882E-03	3.525295E-04
3.611738E+03	7.078995E-03	3.688188E-04
3.621553E+03	7.411722E-03	3.854963E-04
3.631367E+03	7.752657E-03	4.025380E-04
3.641182E+03	8.101322E-03	4.199169E-04
3.650996E+03	8.457293E-03	4.376084E-04
3.660811E+03	8.819859E-03	4.555736E-04
3.670625E+03	9.188373E-03	4.737768E-04
3.680440E+03	9.562212E-03	4.921840E-04
3.690254E+03	9.940612E-03	5.107542E-04
3.700069E+03	1.032261E-02	5.294364E-04
3.709883E+03	1.070744E-02	5.481897E-04
3.719698E+03	1.109418E-02	5.669660E-04
3.729512E+03	1.148196E-02	5.857204E-04
3.739327E+03	1.186952E-02	6.043873E-04
3.749141E+03	1.225606E-02	6.229263E-04
3.758956E+03	1.264051E-02	6.412829E-04
3.768770E+03	1.302163E-02	6.593944E-04
3.778585E+03	1.339860E-02	6.772199E-04
3.788399E+03	1.377017E-02	6.946972E-04
3.798214E+03	1.413505E-02	7.117629E-04
3.808028E+03	1.449264E-02	7.283877E-04
3.817843E+03	1.484153E-02	7.445028E-04
3.827657E+03	1.518100E-02	7.600747E-04
3.837472E+03	1.550971E-02	7.750386E-04
3.847286E+03	1.582704E-02	7.893667E-04
3.857101E+03	1.613192E-02	8.030083E-04
3.866915E+03	1.642386E-02	8.159427E-04
3.876730E+03	1.670175E-02	8.281178E-04
3.886544E+03	1.696507E-02	8.395125E-04
3.896359E+03	1.721340E-02	8.501100E-04
3.906173E+03	1.744625E-02	8.598902E-04
3.915988E+03	1.766303E-02	8.688284E-04
3.925802E+03	1.786362E-02	8.769231E-04
3.935617E+03	1.804800E-02	8.841789E-04
3.945431E+03	1.821592E-02	8.905871E-04
3.955246E+03	1.836738E-02	8.961532E-04
3.965060E+03	1.850270E-02	9.008975E-04
3.974875E+03	1.862212E-02	9.048367E-04
3.984689E+03	1.872597E-02	9.079916E-04
3.994504E+03	1.881471E-02	9.103882E-04
4.004318E+03	1.888906E-02	9.120667E-04
4.014133E+03	1.894944E-02	9.130519E-04
4.023947E+03	1.899659E-02	9.133825E-04
4.033762E+03	1.903146E-02	9.131094E-04
4.043576E+03	1.905472E-02	9.122677E-04
4.053391E+03	1.906747E-02	9.109141E-04
4.063205E+03	1.907048E-02	9.090882E-04
4.073020E+03	1.906495E-02	9.068504E-04
4.082834E+03	1.905173E-02	9.042438E-04
4.092649E+03	1.903190E-02	9.013216E-04
4.102463E+03	1.900651E-02	8.981363E-04
4.112278E+03	1.897669E-02	8.947422E-04
4.122092E+03	1.894351E-02	8.911914E-04
4.131907E+03	1.890769E-02	8.875192E-04
4.141721E+03	1.887050E-02	8.837855E-04
4.151536E+03	1.883262E-02	8.800227E-04
4.161350E+03	1.879507E-02	8.762790E-04
4.171165E+03	1.875865E-02	8.725919E-04
4.180979E+03	1.872433E-02	8.690053E-04
4.190794E+03	1.869248E-02	8.655359E-04
4.200608E+03	1.866378E-02	8.622149E-04
4.210423E+03	1.863885E-02	8.590698E-04
4.220238E+03	1.861825E-02	8.561255E-04
4.230052E+03	1.860199E-02	8.533806E-04
4.239867E+03	1.859067E-02	8.508615E-04
4.249681E+03	1.858433E-02	8.485685E-04
4.259496E+03	1.858325E-02	8.465130E-04
4.269310E+03	1.858733E-02	8.446886E-04
4.279125E+03	1.859668E-02	8.430990E-04
4.288939E+03	1.861153E-02	8.417527E-04
4.298754E+03	1.863233E-02	8.406685E-04
4.308568E+03	1.865913E-02	8.398467E-04
4.318383E+03	1.869270E-02	8.393203E-04
4.328197E+03	1.873308E-02	8.390882E-04
4.338012E+03	1.878052E-02	8.391601E-04
4.347826E+03	1.883521E-02	8.395424E-04
4.357641E+03	1.889725E-02	8.402363E-04
4.367455E+03	1.896612E-02	8.412175E-04
4.377270E+03	1.904189E-02	8.424866E-04
4.387084E+03	1.912424E-02	8.440270E-04
4.396899E+03	1.921238E-02	8.458015E-04
4.406713E+03	1.930593E-02	8.477927E-04
4.416528E+03	1.940412E-02	8.499646E-04
4.426342E+03	1.950590E-02	8.522697E-04
4.436157E+03	1.961049E-02	8.546726E-04
4.445971E+03	1.971683E-02	8.571277E-04
4.455786E+03	1.982367E-02	8.595787E-04
4.465600E+03	1.992982E-02	8.619755E-04
4.475415E+03	2.003390E-02	8.642582E-04
4.485229E+03	2.013467E-02	8.663740E-04
4.495044E+03	2.023048E-02	8.682542E-04
4.504858E+03	2.032027E-02	8.698543E-04
4.514673E+03	2.040221E-02	8.710990E-04
4.524487E+03	2.047549E-02	8.719560E-04
4.534302E+03	2.053818E-02	8.723467E-04
4.544116E+03	2.058959E-02	8.722456E-04
4.553931E+03	2.062819E-02	8.715917E-04
4.563745E+03	2.065331E-02	8.703616E-04
4.573560E+03	2.066370E-02	8.685069E-04
4.583374E+03	2.065901E-02	8.660184E-04
4.593189E+03	2.063869E-02	8.628785E-04
4.603003E+03	2.060224E-02	8.590710E-04
4.612818E+03	2.054952E-02	8.545961E-04
4.622632E+03	2.048042E-02	8.494551E-04
4.632447E+03	2.039491E-02	8.436516E-04
4.642261E+03	2.029350E-02	8.372130E-04
4.652076E+03	2.017640E-02	8.301529E-04
4.661890E+03	2.004476E-02	8.225238E-04
4.671705E+03	1.989916E-02	8.143547E-04
4.681519E+03	1.974110E-02	8.057116E-04
4.691334E+03	1.957204E-02	7.966578E-04
4.701148E+03	1.939336E-02	7.872532E-04
4.710963E+03	1.920688E-02	7.775752E-04
4.720777E+03	1.901430E-02	7.676949E-04
4.730592E+03	1.881753E-02	7.576909E-04
4.740406E+03	1.861809E-02	7.476260E-04
4.750221E+03	1.841782E-02	7.375753E-04
4.760035E+03	1.821835E-02	7.276035E-04
4.769850E+03	1.802152E-02	7.177838E-04
4.779664E+03	1.782836E-02	7.081563E-04
4.789479E+03	1.764062E-02	6.987888E-04
4.799293E+03	1.745906E-02	6.897097E-04
4.809108E+03	1.728501E-02	6.809690E-04
4.818922E+03	1.711917E-02	6.725916E-04
4.828737E+03	1.696260E-02	6.646167E-04
4.838551E+03	1.681561E-02	6.570529E-04
4.848366E+03	1.667918E-02	6.499357E-04
4.858180E+03	1.655327E-02	6.432593E-04
4.867995E+03	1.643862E-02	6.370498E-04
4.877809E+03	1.633530E-02	6.313055E-04
4.887624E+03	1.624357E-02	6.260330E-04
4.897438E+03	1.616314E-02	6.212175E-04
4.907253E+03	1.609427E-02	6.168654E-04
4.917067E+03	1.603685E-02	6.129687E-04
4.926882E+03	1.599055E-02	6.095113E-04
4.936696E+03	1.595532E-02	6.064871E-04
4.946511E+03	1.593073E-02	6.038772E-04
4.956325E+03	1.591666E-02	6.016731E-04
4.966140E+03	1.591280E-02	5.998601E-04
4.975954E+03	1.591883E-02	5.984230E-04
4.985769E+03	1.593427E-02	5.973405E-04
4.995583E+03	1.595894E-02	5.966035E-04
5.005398E+03	1.599253E-02	5.961967E-04
5.015212E+03	1.603454E-02	5.960996E-04
5.025027E+03	1.608482E-02	5.963036E-04
5.034841E+03	1.614273E-02	5.967828E-04
5.044656E+03	1.620843E-02	5.975407E-04
5.054471E+03	1.628114E-02	5.985466E-04
5.064285E+03	1.636086E-02	5.997981E-04
5.074100E+03	1.644713E-02	6.012760E-04
5.083914E+03	1.653946E-02	6.029613E-04
5.093729E+03	1.663785E-02	6.048521E-04
5.103543E+03	1.674166E-02	6.069232E-04
5.113358E+03	1.685054E-02	6.091603E-04
5.123172E+03	1.696429E-02	6.115552E-04
5.132987E+03	1.708240E-02	6.140879E-04
5.142801E+03	1.720448E-02	6.167436E-04
5.152616E+03	1.733013E-02	6.195071E-04
5.162430E+03	1.745897E-02	6.223633E-04
5.172245E+03	1.759041E-02	6.252908E-04
5.182059E+03	1.772418E-02	6.282799E-04
5.191874E+03	1.785971E-02	6.313091E-04
5.201688E+03	1.799654E-02	6.343625E-04
5.211503E+03	1.813407E-02	6.374189E-04
5.221317E+03	1.827206E-02	6.404696E-04
5.231132E+03	1.841010E-02	6.435004E-04
5.240946E+03	1.854743E-02	6.464851E-04
5.250761E+03	1.868387E-02	6.494179E-04
5.260575E+03	1.881907E-02	6.522875E-04
5.270390E+03	1.895253E-02	6.550768E-04
5.280204E+03	1.908416E-02	6.577835E-04
5.290019E+03	1.921325E-02	6.603842E-04
5.299833E+03	1.933964E-02	6.628745E-04
5.309648E+03	1.946263E-02	6.652311E-04
5.319462E+03	1.958156E-02	6.674332E-04
5.329277E+03	1.969453E-02	6.694175E-04
5.339091E+03	1.980020E-02	6.711402E-04
5.348906E+03	1.989635E-02	6.725286E-04
5.358720E+03	1.998139E-02	6.735319E-04
5.368535E+03	2.005349E-02	6.740911E-04
5.378349E+03	2.011114E-02	6.741601E-04
5.388164E+03	2.015288E-02	6.736940E-04
5.397978E+03	2.017775E-02	6.726649E-04
5.407793E+03	2.018525E-02	6.710609E-04
5.417607E+03	2.017459E-02	6.688610E-04
5.427422E+03	2.014595E-02	6.660755E-04
5.437236E+03	2.009962E-02	6.627194E-04
5.447051E+03	2.003624E-02	6.588185E-04
5.456865E+03	1.995679E-02	6.544094E-04
5.466680E+03	1.986279E-02	6.495457E-04
5.476494E+03	1.975564E-02	6.442771E-04
5.486309E+03	1.963702E-02	6.386622E-04
5.496123E+03	1.950968E-02	6.327923E-04
5.505938E+03	1.937535E-02	6.267263E-04
5.515752E+03	1.923715E-02	6.205662E-04
5.525567E+03	1.909732E-02	6.143852E-04
5.535381E+03	1.895858E-02	6.082705E-04
5.545196E+03	1.882387E-02	6.023160E-04
5.555010E+03	1.869592E-02	5.966079E-04
5.564825E+03	1.857740E-02	5.912289E-04
5.574639E+03	1.847088E-02	5.862587E-04
5.584454E+03	1.837881E-02	5.817712E-04
5.594268E+03	1.830347E-02	5.778348E-04
5.604083E+03	1.824695E-02	5.745111E-04
5.613897E+03	1.821115E-02	5.718549E-04
5.623712E+03	1.819793E-02	5.699193E-04
5.633526E+03	1.820875E-02	5.687443E-04
5.643341E+03	1.824461E-02	5.683555E-04
5.653155E+03	1.830647E-02	5.687762E-04
5.662970E+03	1.839542E-02	5.700344E-04
5.672784E+03	1.851147E-02	5.721240E-04
5.682599E+03	1.865519E-02	5.750555E-04
5.692413E+03	1.882596E-02	5.788044E-04
5.702228E+03	1.902369E-02	5.833613E-04
5.712042E+03	1.924733E-02	5.886878E-04
5.721857E+03	1.949583E-02	5.947468E-04
5.731671E+03	1.976757E-02	6.014834E-04
5.741486E+03	2.006027E-02	6.088233E-04
5.751300E+03	2.037168E-02	6.166941E-04
5.761115E+03	2.069908E-02	6.250105E-04
5.770929E+03	2.103870E-02	6.336552E-04
5.780744E+03	2.138744E-02	6.425338E-04
5.790558E+03	2.174072E-02	6.515070E-04
5.800373E+03	2.209402E-02	6.604400E-04
5.810187E+03	2.244309E-02	6.692070E-04
5.820002E+03	2.278273E-02	6.776547E-04
5.829816E+03	2.310787E-02	6.856359E-04
5.839631E+03	2.341373E-02	6.930130E-04
5.849445E+03	2.369510E-02	6.996373E-04
5.859260E+03	2.394754E-02	7.053842E-04
5.869074E+03	2.416699E-02	7.101415E-04
5.878889E+03	2.434905E-02	7.137876E-04
5.888704E+03	2.449100E-02	7.162517E-04
5.898518E+03	2.458996E-02	7.174585E-04
5.908333E+03	2.464467E-02	7.173809E-04
5.918147E+03	2.465319E-02	7.159723E-04
5.927962E+03	2.461618E-02	7.132609E-04
5.937776E+03	2.453392E-02	7.092647E-04
5.947591E+03	2.440777E-02	7.040318E-04
5.957405E+03	2.423981E-02	6.976306E-04
5.967220E+03	2.403277E-02	6.901480E-04
5.977034E+03	2.379023E-02	6.816933E-04
5.986849E+03	2.351592E-02	6.723798E-04
5.996663E+03	2.321419E-02	6.623373E-04
6.006478E+03	2.288906E-02	6.516848E-04
6.016292E+03	2.254550E-02	6.405674E-04
6.026107E+03	2.218847E-02	6.291284E-04
6.035921E+03	2.182255E-02	6.174992E-04
6.045736E+03	2.145296E-02	6.058278E-04
6.055550E+03	2.108430E-02	5.942441E-04
6.065365E+03	2.071923E-02	5.828220E-04
6.075179E+03	2.036062E-02	5.716396E-04
6.084994E+03	2.001032E-02	5.607470E-04
6.094808E+03	1.967004E-02	5.501890E-04
6.104623E+03	1.934090E-02	5.399945E-04
6.114437E+03	1.902441E-02	5.302026E-04
6.124252E+03	1.872095E-02	5.208210E-04
6.134066E+03	1.843137E-02	5.118701E-04
6.143881E+03	1.815575E-02	5.033494E-04
6.153695E+03	1.789448E-02	4.952669E-04
6.163510E+03	1.764732E-02	4.876127E-04
6.173324E+03	1.741411E-02	4.803799E-04
6.183139E+03	1.719462E-02	4.735591E-04
6.192953E+03	1.698873E-02	4.671451E-04
6.202768E+03	1.679607E-02	4.611249E-04
6.212582E+03	1.661599E-02	4.554784E-04
6.222397E+03	1.644829E-02	4.501979E-04
6.232211E+03	1.629252E-02	4.452691E-04
6.242026E+03	1.614825E-02	4.406781E-04
6.251840E+03	1.601505E-02	4.364118E-04
6.261655E+03	1.589278E-02	4.324642E-04
6.271469E+03	1.578085E-02	4.288178E-04
6.281284E+03	1.567898E-02	4.254634E-04
6.291098E+03	1.558691E-02	4.223924E-04
6.300913E+03	1.550467E-02	4.196043E-04
6.310727E+03	1.543169E-02	4.170822E-04
6.320542E+03	1.536810E-02	4.148286E-04
6.330356E+03	1.531387E-02	4.128415E-04
6.340171E+03	1.526905E-02	4.111207E-04
6.349985E+03	1.523326E-02	4.096554E-04
6.359800E+03	1.520706E-02	4.084591E-04
6.369614E+03	1.519016E-02	4.075229E-04
6.379429E+03	1.518270E-02	4.068501E-04
6.389243E+03	1.518508E-02	4.064499E-04
6.399058E+03	1.519701E-02	4.063137E-04
6.408872E+03	1.521884E-02	4.064503E-04
6.418687E+03	1.525067E-02	4.068610E-04
6.428501E+03	1.529212E-02	4.075351E-04
6.438316E+03	1.534362E-02	4.084829E-04
6.448130E+03	1.540464E-02	4.096902E-04
6.457945E+03	1.547549E-02	4.111636E-04
6.467759E+03	1.555545E-02	4.128841E-04
6.477574E+03	1.564441E-02	4.148478E-04
6.487388E+03	1.574192E-02	4.170422E-04
6.497203E+03	1.584739E-02	4.194515E-04
6.507017E+03	1.596016E-02	4.220574E-04
6.516832E+03	1.607918E-02	4.248322E-04
6.526646E+03	1.620378E-02	4.277577E-04
6.536461E+03	1.633318E-02	4.308133E-04
6.546275E+03	1.646574E-02	4.339559E-04
6.556090E+03	1.660051E-02	4.371601E-04
6.565904E+03	1.673617E-02	4.403913E-04
6.575719E+03	1.687135E-02	4.436142E-04
6.585533E+03	1.700489E-02	4.467981E-04
6.595348E+03	1.713484E-02	4.498921E-04
6.605162E+03	1.726028E-02	4.528724E-04
6.614977E+03	1.737954E-02	4.556951E-04
6.624791E+03	1.749151E-02	4.583317E-04
6.634606E+03	1.759467E-02	4.607422E-04
6.644420E+03	1.768780E-02	4.628957E-04
6.654235E+03	1.777014E-02	4.647722E-04
6.664049E+03	1.784080E-02	4.663489E-04
6.673864E+03	1.789876E-02	4.675996E-04
6.683678E+03	1.794377E-02	4.685186E-04
6.693493E+03	1.797520E-02	4.690893E-04
6.703307E+03	1.799351E-02	4.693242E-04
6.713122E+03	1.799818E-02	4.692105E-04
6.722937E+03	1.798981E-02	4.687640E-04
6.732751E+03	1.796858E-02	4.679896E-04
6.742566E+03	1.793582E-02	4.669222E-04
6.752380E+03	1.789218E-02	4.655792E-04
6.762195E+03	1.783864E-02	4.639860E-04
6.772009E+03	1.777717E-02	4.621940E-04
6.781824E+03	1.770860E-02	4.602249E-04
6.791638E+03	1.763496E-02	4.581317E-04
6.801453E+03	1.755710E-02	4.559360E-04
6.811267E+03	1.747695E-02	4.536884E-04
6.821082E+03	1.739549E-02	4.514137E-04
6.830896E+03	1.731356E-02	4.491339E-04
6.840711E+03	1.723308E-02	4.468984E-04
6.850525E+03	1.715404E-02	4.447072E-04
6.860340E+03	1.707749E-02	4.425870E-04
6.870154E+03	1.700434E-02	4.405614E-04
6.879969E+03	1.693446E-02	4.386267E-04
6.889783E+03	1.686880E-02	4.368076E-04
6.899598E+03	1.680728E-02	4.351014E-04
6.909412E+03	1.675031E-02	4.335192E-04
6.919227E+03	1.669760E-02	4.320530E-04
6.929041E+03	1.664906E-02	4.307005E-04
6.938856E+03	1.660452E-02	4.294571E-04
6.948670E+03	1.656377E-02	4.283171E-04
6.958485E+03	1.652677E-02	4.272799E-04
6.968299E+03	1.649320E-02	4.263371E-04
6.978114E+03	1.646238E-02	4.254706E-04
6.987928E+03	1.643389E-02	4.246701E-04
6.997743E+03	1.640730E-02	4.239244E-04
7.007557E+03	1.638279E-02	4.232383E-04
7.017372E+03	1.635901E-02	4.225767E-04
7.027186E+03	1.633615E-02	4.219446E-04
7.037001E+03	1.631377E-02	4.213311E-04
7.046815E+03	1.629150E-02	4.207261E-04
7.056630E+03	1.626862E-02	4.201120E-04
7.066444E+03	1.624512E-02	4.194879E-04
7.076259E+03	1.622066E-02	4.188452E-04
7.086073E+03	1.619494E-02	4.181767E-04
7.095888E+03	1.616736E-02	4.174670E-04
7.105702E+03	1.613833E-02	4.167263E-04
7.115517E+03	1.610731E-02	4.159413E-04
7.125331E+03	1.607442E-02	4.151152E-04
7.135146E+03	1.603919E-02	4.142359E-04
7.144960E+03	1.600148E-02	4.132997E-04
7.154775E+03	1.596180E-02	4.123204E-04
7.164589E+03	1.591943E-02	4.112790E-04
7.174404E+03	1.587493E-02	4.101906E-04
7.184218E+03	1.582793E-02	4.090455E-04
7.194033E+03	1.577873E-02	4.078513E-04
7.203847E+03	1.572763E-02	4.066165E-04
7.213662E+03	1.567433E-02	4.053330E-04
7.223476E+03	1.561950E-02	4.040183E-04
7.233291E+03	1.556284E-02	4.026650E-04
7.243105E+03	1.550473E-02	4.012830E-04
7.252920E+03	1.544556E-02	3.998822E-04
7.262734E+03	1.538539E-02	3.984644E-04
7.272549E+03	1.532458E-02	3.970390E-04
7.282363E+03	1.526317E-02	3.956075E-04
7.292178E+03	1.520150E-02	3.941786E-04
7.301992E+03	1.513892E-02	3.927355E-04
7.311807E+03	1.507538E-02	3.912769E-04
7.321621E+03	1.501080E-02	3.898010E-04
7.331436E+03	1.494471E-02	3.882957E-04
7.341250E+03	1.487662E-02	3.867483E-04
7.351065E+03	1.480599E-02	3.851447E-04
7.360879E+03	1.473253E-02	3.834773E-04
7.370694E+03	1.465594E-02	3.817385E-04
7.380508E+03	1.457586E-02	3.799184E-04
7.390323E+03	1.449125E-02	3.779897E-04
7.400137E+03	1.440202E-02	3.759495E-04
7.409952E+03	1.430774E-02	3.737852E-04
7.419766E+03	1.420766E-02	3.714768E-04
7.429581E+03	1.410136E-02	3.690122E-04
7.439395E+03	1.398845E-02	3.663803E-04
7.449210E+03	1.386891E-02	3.635794E-04
7.459024E+03	1.374184E-02	3.605847E-04
7.468839E+03	1.360732E-02	3.573977E-04
7.478653E+03	1.346497E-02	3.540071E-04
7.488468E+03	1.331543E-02	3.504281E-04
7.498282E+03	1.315826E-02	3.466482E-04
7.508097E+03	1.299414E-02	3.426847E-04
7.517911E+03	1.282344E-02	3.385455E-04
7.527726E+03	1.264723E-02	3.342580E-04
7.537540E+03	1.246636E-02	3.298436E-04
7.547355E+03	1.228172E-02	3.253251E-04
7.557169E+03	1.209394E-02	3.207185E-04
7.566984E+03	1.190424E-02	3.160548E-04
7.576799E+03	1.171349E-02	3.113571E-04
7.586613E+03	1.152256E-02	3.066474E-04
7.596428E+03	1.133224E-02	3.019469E-04
7.606242E+03	1.114303E-02	2.972679E-04
7.616057E+03	1.095613E-02	2.926425E-04
