#wls	flux	fluxerr
1.570321E+03	4.870025E-05	5.302422E-06
1.609579E+03	4.806650E-05	5.229660E-06
1.648837E+03	4.749590E-05	5.163747E-06
1.688095E+03	4.699818E-05	5.105724E-06
1.727353E+03	4.657385E-05	5.055633E-06
1.766611E+03	4.622372E-05	5.013539E-06
1.805869E+03	4.595786E-05	4.980515E-06
1.845127E+03	4.575977E-05	4.954751E-06
1.884385E+03	4.565804E-05	4.939319E-06
1.923643E+03	4.564591E-05	4.933457E-06
1.962901E+03	4.572612E-05	4.937433E-06
2.002159E+03	4.590199E-05	4.951571E-06
2.041417E+03	4.618631E-05	4.977215E-06
2.080675E+03	4.658384E-05	5.014836E-06
2.119933E+03	4.710021E-05	5.064993E-06
2.159191E+03	4.774205E-05	5.128348E-06
2.198449E+03	4.852609E-05	5.206644E-06
2.237707E+03	4.945239E-05	5.299821E-06
2.276965E+03	5.054982E-05	5.410903E-06
2.316223E+03	5.181229E-05	5.539157E-06
2.355481E+03	5.327263E-05	5.688002E-06
2.394739E+03	5.493789E-05	5.858092E-06
2.433997E+03	5.684665E-05	6.053421E-06
2.473255E+03	5.900133E-05	6.274117E-06
2.512513E+03	6.144740E-05	6.524867E-06
2.551772E+03	6.421468E-05	6.808663E-06
2.591030E+03	6.733728E-05	7.128927E-06
2.630288E+03	7.086567E-05	7.490777E-06
2.669546E+03	7.484560E-05	7.898789E-06
2.708804E+03	7.935402E-05	8.360778E-06
2.748062E+03	8.445348E-05	8.882984E-06
2.787320E+03	9.022891E-05	9.473928E-06
2.826578E+03	9.679164E-05	1.014482E-05
2.865836E+03	1.042402E-04	1.090542E-05
2.905094E+03	1.127334E-04	1.177169E-05
2.944352E+03	1.224221E-04	1.275858E-05
2.954166E+03	1.250670E-04	1.302779E-05
2.963981E+03	1.277982E-04	1.330567E-05
2.973795E+03	1.306184E-04	1.359250E-05
2.983610E+03	1.335303E-04	1.388851E-05
2.993424E+03	1.365543E-04	1.419585E-05
3.003239E+03	1.396763E-04	1.451299E-05
3.013053E+03	1.429173E-04	1.484212E-05
3.022868E+03	1.462627E-04	1.518169E-05
3.032682E+03	1.497345E-04	1.553396E-05
3.042497E+03	1.533367E-04	1.589933E-05
3.052311E+03	1.570541E-04	1.627620E-05
3.062126E+03	1.609100E-04	1.666695E-05
3.071940E+03	1.649086E-04	1.707199E-05
3.081755E+03	1.690342E-04	1.748968E-05
3.091569E+03	1.733319E-04	1.792464E-05
3.101384E+03	1.777862E-04	1.837526E-05
3.111198E+03	1.823810E-04	1.883982E-05
3.121013E+03	1.871636E-04	1.932318E-05
3.130827E+03	1.921178E-04	1.982365E-05
3.140642E+03	1.972717E-04	2.034407E-05
3.150456E+03	2.025860E-04	2.088036E-05
3.160271E+03	2.081115E-04	2.143771E-05
3.170085E+03	2.138549E-04	2.201679E-05
3.179900E+03	2.197993E-04	2.261578E-05
3.189714E+03	2.259748E-04	2.323777E-05
3.199529E+03	2.323638E-04	2.388089E-05
3.209343E+03	2.389977E-04	2.454831E-05
3.219158E+03	2.459096E-04	2.524339E-05
3.228972E+03	2.530563E-04	2.596162E-05
3.238787E+03	2.604705E-04	2.670633E-05
3.248601E+03	2.681603E-04	2.747827E-05
3.258416E+03	2.761610E-04	2.828101E-05
3.268230E+03	2.844542E-04	2.911260E-05
3.278045E+03	2.930765E-04	2.997670E-05
3.287859E+03	3.020086E-04	3.087130E-05
3.297674E+03	3.112590E-04	3.179716E-05
3.307488E+03	3.208959E-04	3.276120E-05
3.317303E+03	3.308699E-04	3.375829E-05
3.327117E+03	3.412515E-04	3.479554E-05
3.336932E+03	3.519893E-04	3.586762E-05
3.346746E+03	3.631562E-04	3.698187E-05
3.356561E+03	3.747311E-04	3.813606E-05
3.366376E+03	3.867576E-04	3.933451E-05
3.376190E+03	3.992135E-04	4.057489E-05
3.386005E+03	4.121435E-04	4.186161E-05
3.395819E+03	4.255592E-04	4.319575E-05
3.405634E+03	4.394724E-04	4.457840E-05
3.415448E+03	4.538944E-04	4.601059E-05
3.425263E+03	4.688736E-04	4.749709E-05
3.435077E+03	4.843482E-04	4.903152E-05
3.444892E+03	5.004414E-04	5.062623E-05
3.454706E+03	5.170904E-04	5.227471E-05
3.464521E+03	5.343448E-04	5.398186E-05
3.474335E+03	5.522168E-04	5.574874E-05
3.484150E+03	5.707178E-04	5.757636E-05
3.493964E+03	5.898591E-04	5.946572E-05
3.503779E+03	6.096935E-04	6.142195E-05
3.513593E+03	6.302331E-04	6.344612E-05
3.523408E+03	6.514459E-04	6.553484E-05
3.533222E+03	6.734293E-04	6.769771E-05
3.543037E+03	6.961057E-04	6.992675E-05
3.552851E+03	7.195736E-04	7.223169E-05
3.562666E+03	7.437975E-04	7.460875E-05
3.572480E+03	7.688318E-04	7.706318E-05
3.582295E+03	7.946859E-04	7.959572E-05
3.592109E+03	8.213674E-04	8.220693E-05
3.601924E+03	8.488331E-04	8.489226E-05
3.611738E+03	8.772370E-04	8.766689E-05
3.621553E+03	9.064351E-04	9.051621E-05
3.631367E+03	9.365826E-04	9.345548E-05
3.641182E+03	9.675809E-04	9.647461E-05
3.650996E+03	9.994821E-04	9.957858E-05
3.660811E+03	1.032342E-03	1.027727E-04
3.670625E+03	1.066106E-03	1.060512E-04
3.680440E+03	1.100773E-03	1.094138E-04
3.690254E+03	1.136449E-03	1.128708E-04
3.700069E+03	1.173019E-03	1.164104E-04
3.709883E+03	1.210533E-03	1.200375E-04
3.719698E+03	1.248983E-03	1.237508E-04
3.729512E+03	1.288418E-03	1.275551E-04
3.739327E+03	1.328830E-03	1.314491E-04
3.749141E+03	1.370147E-03	1.354255E-04
3.758956E+03	1.412414E-03	1.394885E-04
3.768770E+03	1.455616E-03	1.436364E-04
3.778585E+03	1.499737E-03	1.478673E-04
3.788399E+03	1.544758E-03	1.521790E-04
3.798214E+03	1.590721E-03	1.565752E-04
3.808028E+03	1.637606E-03	1.610541E-04
3.817843E+03	1.685327E-03	1.656065E-04
3.827657E+03	1.733924E-03	1.702362E-04
3.837472E+03	1.783435E-03	1.749468E-04
3.847286E+03	1.833706E-03	1.797229E-04
3.857101E+03	1.884775E-03	1.845677E-04
3.866915E+03	1.936611E-03	1.894781E-04
3.876730E+03	1.989252E-03	1.944577E-04
3.886544E+03	2.042604E-03	1.994967E-04
3.896359E+03	2.096634E-03	2.045920E-04
3.906173E+03	2.151381E-03	2.097469E-04
3.915988E+03	2.206747E-03	2.149517E-04
3.925802E+03	2.262701E-03	2.202031E-04
3.935617E+03	2.319282E-03	2.255047E-04
3.945431E+03	2.376392E-03	2.308468E-04
3.955246E+03	2.434003E-03	2.362264E-04
3.965060E+03	2.492156E-03	2.416474E-04
3.974875E+03	2.550688E-03	2.470936E-04
3.984689E+03	2.609712E-03	2.525759E-04
3.994504E+03	2.669067E-03	2.580786E-04
4.004318E+03	2.728802E-03	2.636060E-04
4.014133E+03	2.788829E-03	2.691497E-04
4.023947E+03	2.849200E-03	2.747145E-04
4.033762E+03	2.909765E-03	2.802857E-04
4.043576E+03	2.970580E-03	2.858687E-04
4.053391E+03	3.031569E-03	2.914559E-04
4.063205E+03	3.092727E-03	2.970469E-04
4.073020E+03	3.154054E-03	3.026414E-04
4.082834E+03	3.215412E-03	3.082260E-04
4.092649E+03	3.276875E-03	3.138080E-04
4.102463E+03	3.338314E-03	3.193747E-04
4.112278E+03	3.399811E-03	3.249340E-04
4.122092E+03	3.461315E-03	3.304810E-04
4.131907E+03	3.522777E-03	3.360107E-04
4.141721E+03	3.584079E-03	3.415121E-04
4.151536E+03	3.645323E-03	3.469947E-04
4.161350E+03	3.706471E-03	3.524548E-04
4.171165E+03	3.767418E-03	3.578826E-04
4.180979E+03	3.828135E-03	3.632753E-04
4.190794E+03	3.888669E-03	3.686371E-04
4.200608E+03	3.948924E-03	3.739592E-04
4.210423E+03	4.008883E-03	3.792399E-04
4.220238E+03	4.068530E-03	3.844777E-04
4.230052E+03	4.127852E-03	3.896713E-04
4.239867E+03	4.186838E-03	3.948200E-04
4.249681E+03	4.245340E-03	3.999096E-04
4.259496E+03	4.303421E-03	4.049462E-04
4.269310E+03	4.361005E-03	4.099228E-04
4.279125E+03	4.418087E-03	4.148390E-04
4.288939E+03	4.474730E-03	4.197007E-04
4.298754E+03	4.530789E-03	4.244946E-04
4.308568E+03	4.586327E-03	4.292266E-04
4.318383E+03	4.641335E-03	4.338959E-04
4.328197E+03	4.695869E-03	4.385080E-04
4.338012E+03	4.749844E-03	4.430549E-04
4.347826E+03	4.803449E-03	4.475545E-04
4.357641E+03	4.856660E-03	4.520045E-04
4.367455E+03	4.909516E-03	4.564088E-04
4.377270E+03	4.961912E-03	4.607574E-04
4.387084E+03	5.013874E-03	4.650531E-04
4.396899E+03	5.065281E-03	4.692846E-04
4.406713E+03	5.116002E-03	4.734401E-04
4.416528E+03	5.166111E-03	4.775264E-04
4.426342E+03	5.215526E-03	4.815363E-04
4.436157E+03	5.264161E-03	4.854619E-04
4.445971E+03	5.312057E-03	4.893072E-04
4.455786E+03	5.359104E-03	4.930624E-04
4.465600E+03	5.405323E-03	4.967296E-04
4.475415E+03	5.450725E-03	5.003100E-04
4.485229E+03	5.495167E-03	5.037909E-04
4.495044E+03	5.538711E-03	5.071781E-04
4.504858E+03	5.581337E-03	5.104701E-04
4.514673E+03	5.622946E-03	5.136580E-04
4.524487E+03	5.663500E-03	5.167389E-04
4.534302E+03	5.702959E-03	5.197094E-04
4.544116E+03	5.741275E-03	5.225652E-04
4.553931E+03	5.778469E-03	5.253090E-04
4.563745E+03	5.814418E-03	5.279297E-04
4.573560E+03	5.849145E-03	5.304299E-04
4.583374E+03	5.882529E-03	5.327991E-04
4.593189E+03	5.914601E-03	5.350404E-04
4.603003E+03	5.945328E-03	5.371514E-04
4.612818E+03	5.974685E-03	5.391302E-04
4.622632E+03	6.002730E-03	5.409824E-04
4.632447E+03	6.029462E-03	5.427086E-04
4.642261E+03	6.054822E-03	5.443037E-04
4.652076E+03	6.078981E-03	5.457837E-04
4.661890E+03	6.101911E-03	5.471463E-04
4.671705E+03	6.123744E-03	5.484040E-04
4.681519E+03	6.144481E-03	5.495572E-04
4.691334E+03	6.164216E-03	5.506146E-04
4.701148E+03	6.182911E-03	5.515732E-04
4.710963E+03	6.200763E-03	5.524509E-04
4.720777E+03	6.217617E-03	5.532343E-04
4.730592E+03	6.233777E-03	5.539507E-04
4.740406E+03	6.249118E-03	5.545893E-04
4.750221E+03	6.263821E-03	5.551664E-04
4.760035E+03	6.278005E-03	5.556929E-04
4.769850E+03	6.291802E-03	5.561805E-04
4.779664E+03	6.305277E-03	5.566352E-04
4.789479E+03	6.318646E-03	5.570761E-04
4.799293E+03	6.331988E-03	5.575104E-04
4.809108E+03	6.345456E-03	5.579514E-04
4.818922E+03	6.359280E-03	5.584193E-04
4.828737E+03	6.373469E-03	5.589149E-04
4.838551E+03	6.388252E-03	5.594580E-04
4.848366E+03	6.403777E-03	5.600614E-04
4.858180E+03	6.420191E-03	5.607378E-04
4.867995E+03	6.437559E-03	5.614925E-04
4.877809E+03	6.456082E-03	5.623428E-04
4.887624E+03	6.475881E-03	5.632986E-04
4.897438E+03	6.496989E-03	5.643625E-04
4.907253E+03	6.519575E-03	5.655486E-04
4.917067E+03	6.543649E-03	5.668572E-04
4.926882E+03	6.569277E-03	5.682935E-04
4.936696E+03	6.596586E-03	5.698678E-04
4.946511E+03	6.625614E-03	5.715830E-04
4.956325E+03	6.656240E-03	5.734277E-04
4.966140E+03	6.688621E-03	5.754151E-04
4.975954E+03	6.722756E-03	5.775442E-04
4.985769E+03	6.758484E-03	5.798008E-04
4.995583E+03	6.795930E-03	5.821949E-04
5.005398E+03	6.835063E-03	5.847233E-04
5.015212E+03	6.875696E-03	5.873693E-04
5.025027E+03	6.918010E-03	5.901477E-04
5.034841E+03	6.961732E-03	5.930347E-04
5.044656E+03	7.006956E-03	5.960379E-04
5.054471E+03	7.053553E-03	5.991455E-04
5.064285E+03	7.101535E-03	6.023582E-04
5.074100E+03	7.150757E-03	6.056632E-04
5.083914E+03	7.201231E-03	6.090609E-04
5.093729E+03	7.252788E-03	6.125367E-04
5.103543E+03	7.305343E-03	6.160829E-04
5.113358E+03	7.358873E-03	6.196972E-04
5.123172E+03	7.413194E-03	6.233639E-04
5.132987E+03	7.468255E-03	6.270782E-04
5.142801E+03	7.523851E-03	6.308227E-04
5.152616E+03	7.579824E-03	6.345841E-04
5.162430E+03	7.636090E-03	6.383550E-04
5.172245E+03	7.692471E-03	6.421206E-04
5.182059E+03	7.748613E-03	6.458512E-04
5.191874E+03	7.804465E-03	6.495428E-04
5.201688E+03	7.859739E-03	6.531713E-04
5.211503E+03	7.914270E-03	6.567235E-04
5.221317E+03	7.967740E-03	6.601733E-04
5.231132E+03	8.019902E-03	6.635005E-04
5.240946E+03	8.070481E-03	6.666828E-04
5.250761E+03	8.119229E-03	6.697006E-04
5.260575E+03	8.165870E-03	6.725317E-04
5.270390E+03	8.210131E-03	6.751545E-04
5.280204E+03	8.251757E-03	6.775488E-04
5.290019E+03	8.290395E-03	6.796870E-04
5.299833E+03	8.325956E-03	6.815626E-04
5.309648E+03	8.358044E-03	6.831446E-04
5.319462E+03	8.386428E-03	6.844153E-04
5.329277E+03	8.410990E-03	6.853667E-04
5.339091E+03	8.431469E-03	6.859789E-04
5.348906E+03	8.447698E-03	6.862399E-04
5.358720E+03	8.459665E-03	6.861505E-04
5.368535E+03	8.467181E-03	6.856969E-04
5.378349E+03	8.470200E-03	6.848770E-04
5.388164E+03	8.468800E-03	6.836991E-04
5.397978E+03	8.462928E-03	6.821605E-04
5.407793E+03	8.452820E-03	6.802818E-04
5.417607E+03	8.438492E-03	6.780661E-04
5.427422E+03	8.420271E-03	6.755411E-04
5.437236E+03	8.398244E-03	6.727155E-04
5.447051E+03	8.372546E-03	6.696015E-04
5.456865E+03	8.343421E-03	6.662200E-04
5.466680E+03	8.311145E-03	6.625943E-04
5.476494E+03	8.276016E-03	6.587495E-04
5.486309E+03	8.238360E-03	6.547125E-04
5.496123E+03	8.198434E-03	6.505048E-04
5.505938E+03	8.156753E-03	6.461681E-04
5.515752E+03	8.113552E-03	6.417216E-04
5.525567E+03	8.069275E-03	6.372012E-04
5.535381E+03	8.024426E-03	6.326468E-04
5.545196E+03	7.979229E-03	6.280766E-04
5.555010E+03	7.934187E-03	6.235302E-04
5.564825E+03	7.889716E-03	6.190402E-04
5.574639E+03	7.846225E-03	6.146385E-04
5.584454E+03	7.804123E-03	6.103569E-04
5.594268E+03	7.763884E-03	6.062317E-04
5.604083E+03	7.725739E-03	6.022804E-04
5.613897E+03	7.690124E-03	5.985362E-04
5.623712E+03	7.657387E-03	5.950252E-04
5.633526E+03	7.627828E-03	5.917698E-04
5.643341E+03	7.601737E-03	5.887911E-04
5.653155E+03	7.579346E-03	5.861060E-04
5.662970E+03	7.560774E-03	5.837221E-04
5.672784E+03	7.546259E-03	5.816567E-04
5.682599E+03	7.535887E-03	5.799147E-04
5.692413E+03	7.529648E-03	5.784941E-04
5.702228E+03	7.527607E-03	5.773981E-04
5.712042E+03	7.529628E-03	5.766150E-04
5.721857E+03	7.535605E-03	5.761352E-04
5.731671E+03	7.545368E-03	5.759444E-04
5.741486E+03	7.558692E-03	5.760240E-04
5.751300E+03	7.575295E-03	5.763513E-04
5.761115E+03	7.594858E-03	5.769011E-04
5.770929E+03	7.616930E-03	5.776382E-04
5.780744E+03	7.641167E-03	5.785356E-04
5.790558E+03	7.666961E-03	5.795467E-04
5.800373E+03	7.693969E-03	5.806452E-04
5.810187E+03	7.721519E-03	5.817800E-04
5.820002E+03	7.749147E-03	5.829164E-04
5.829816E+03	7.776233E-03	5.840076E-04
5.839631E+03	7.802206E-03	5.850114E-04
5.849445E+03	7.826517E-03	5.858870E-04
5.859260E+03	7.848560E-03	5.865899E-04
5.869074E+03	7.867828E-03	5.870833E-04
5.878889E+03	7.883918E-03	5.873382E-04
5.888704E+03	7.896190E-03	5.873084E-04
5.898518E+03	7.904418E-03	5.869785E-04
5.908333E+03	7.908236E-03	5.863229E-04
5.918147E+03	7.907425E-03	5.853272E-04
5.927962E+03	7.901695E-03	5.839717E-04
5.937776E+03	7.891061E-03	5.822592E-04
5.947591E+03	7.875564E-03	5.801948E-04
5.957405E+03	7.855254E-03	5.777838E-04
5.967220E+03	7.830257E-03	5.750372E-04
5.977034E+03	7.800953E-03	5.719847E-04
5.986849E+03	7.767623E-03	5.686484E-04
5.996663E+03	7.730712E-03	5.650622E-04
6.006478E+03	7.690699E-03	5.612624E-04
6.016292E+03	7.648118E-03	5.572890E-04
6.026107E+03	7.603457E-03	5.531785E-04
6.035921E+03	7.557448E-03	5.489847E-04
6.045736E+03	7.510669E-03	5.447500E-04
6.055550E+03	7.463621E-03	5.405112E-04
6.065365E+03	7.416925E-03	5.363129E-04
6.075179E+03	7.371150E-03	5.321963E-04
6.084994E+03	7.326629E-03	5.281846E-04
6.094808E+03	7.283889E-03	5.243155E-04
6.104623E+03	7.243240E-03	5.206106E-04
6.114437E+03	7.204782E-03	5.170760E-04
6.124252E+03	7.168767E-03	5.137293E-04
6.134066E+03	7.135302E-03	5.105771E-04
6.143881E+03	7.104421E-03	5.076210E-04
6.153695E+03	7.076175E-03	5.048637E-04
6.163510E+03	7.050480E-03	5.022983E-04
6.173324E+03	7.027124E-03	4.999089E-04
6.183139E+03	7.006125E-03	4.976960E-04
6.192953E+03	6.987105E-03	4.956321E-04
6.202768E+03	6.969927E-03	4.937066E-04
6.212582E+03	6.954210E-03	4.918920E-04
6.222397E+03	6.939829E-03	4.901792E-04
6.232211E+03	6.926295E-03	4.885331E-04
6.242026E+03	6.913387E-03	4.869378E-04
6.251840E+03	6.900746E-03	4.853679E-04
6.261655E+03	6.888091E-03	4.838036E-04
6.271469E+03	6.875021E-03	4.822167E-04
6.281284E+03	6.861435E-03	4.806002E-04
6.291098E+03	6.847060E-03	4.789351E-04
6.300913E+03	6.831587E-03	4.772000E-04
6.310727E+03	6.814963E-03	4.753917E-04
6.320542E+03	6.797113E-03	4.735050E-04
6.330356E+03	6.777942E-03	4.715338E-04
6.340171E+03	6.757476E-03	4.694801E-04
6.349985E+03	6.735720E-03	4.673447E-04
6.359800E+03	6.712868E-03	4.651412E-04
6.369614E+03	6.689015E-03	4.628766E-04
6.379429E+03	6.664294E-03	4.605603E-04
6.389243E+03	6.638870E-03	4.582039E-04
6.399058E+03	6.612935E-03	4.558208E-04
6.408872E+03	6.586628E-03	4.534206E-04
6.418687E+03	6.560172E-03	4.510187E-04
6.428501E+03	6.533725E-03	4.486260E-04
6.438316E+03	6.507585E-03	4.462630E-04
6.448130E+03	6.481837E-03	4.439352E-04
6.457945E+03	6.456765E-03	4.416620E-04
6.467759E+03	6.432567E-03	4.394568E-04
6.477574E+03	6.409357E-03	4.373270E-04
6.487388E+03	6.387296E-03	4.352834E-04
6.497203E+03	6.366525E-03	4.333353E-04
6.507017E+03	6.347088E-03	4.314853E-04
6.516832E+03	6.329213E-03	4.297485E-04
6.526646E+03	6.312892E-03	4.281241E-04
6.536461E+03	6.298157E-03	4.266139E-04
6.546275E+03	6.284946E-03	4.252131E-04
6.556090E+03	6.273371E-03	4.239291E-04
6.565904E+03	6.263244E-03	4.227488E-04
6.575719E+03	6.254624E-03	4.216758E-04
6.585533E+03	6.247269E-03	4.206935E-04
6.595348E+03	6.241192E-03	4.198025E-04
6.605162E+03	6.236175E-03	4.189879E-04
6.614977E+03	6.232126E-03	4.182430E-04
6.624791E+03	6.228798E-03	4.175512E-04
6.634606E+03	6.226002E-03	4.168995E-04
6.644420E+03	6.223620E-03	4.162799E-04
6.654235E+03	6.221389E-03	4.156747E-04
6.664049E+03	6.219193E-03	4.150760E-04
6.673864E+03	6.216853E-03	4.144719E-04
6.683678E+03	6.214205E-03	4.138516E-04
6.693493E+03	6.211027E-03	4.132002E-04
6.703307E+03	6.207263E-03	4.125140E-04
6.713122E+03	6.202808E-03	4.117864E-04
6.722937E+03	6.197657E-03	4.110169E-04
6.732751E+03	6.191622E-03	4.101933E-04
6.742566E+03	6.184767E-03	4.093200E-04
6.752380E+03	6.177152E-03	4.084010E-04
6.762195E+03	6.168901E-03	4.074447E-04
6.772009E+03	6.160177E-03	4.064620E-04
6.781824E+03	6.151238E-03	4.054699E-04
6.791638E+03	6.142209E-03	4.044766E-04
6.801453E+03	6.133224E-03	4.034910E-04
6.811267E+03	6.124633E-03	4.025362E-04
6.821082E+03	6.116569E-03	4.016205E-04
6.830896E+03	6.109295E-03	4.007614E-04
6.840711E+03	6.102848E-03	3.999609E-04
6.850525E+03	6.097537E-03	3.992393E-04
6.860340E+03	6.093360E-03	3.985961E-04
6.870154E+03	6.090588E-03	3.980488E-04
6.879969E+03	6.089317E-03	3.976035E-04
6.889783E+03	6.089472E-03	3.972550E-04
6.899598E+03	6.091246E-03	3.970157E-04
6.909412E+03	6.094506E-03	3.968767E-04
6.919227E+03	6.099389E-03	3.968465E-04
6.929041E+03	6.105779E-03	3.969176E-04
6.938856E+03	6.113609E-03	3.970852E-04
6.948670E+03	6.122783E-03	3.973430E-04
6.958485E+03	6.133257E-03	3.976878E-04
6.968299E+03	6.144734E-03	3.981004E-04
6.978114E+03	6.157204E-03	3.985799E-04
6.987928E+03	6.170329E-03	3.991045E-04
6.997743E+03	6.184065E-03	3.996712E-04
7.007557E+03	6.198127E-03	4.002615E-04
7.017372E+03	6.212298E-03	4.008616E-04
7.027186E+03	6.226358E-03	4.014572E-04
7.037001E+03	6.240086E-03	4.020343E-04
7.046815E+03	6.253268E-03	4.025791E-04
7.056630E+03	6.265696E-03	4.030785E-04
7.066444E+03	6.277254E-03	4.035252E-04
7.076259E+03	6.287599E-03	4.038973E-04
7.086073E+03	6.296723E-03	4.041946E-04
7.095888E+03	6.304313E-03	4.043974E-04
7.105702E+03	6.310393E-03	4.045073E-04
7.115517E+03	6.314762E-03	4.045118E-04
7.125331E+03	6.317313E-03	4.044044E-04
7.135146E+03	6.317949E-03	4.041791E-04
7.144960E+03	6.316668E-03	4.038362E-04
7.154775E+03	6.313231E-03	4.033606E-04
7.164589E+03	6.307729E-03	4.027586E-04
7.174404E+03	6.300016E-03	4.020211E-04
7.184218E+03	6.290030E-03	4.011444E-04
7.194033E+03	6.277792E-03	4.001303E-04
7.203847E+03	6.263165E-03	3.989703E-04
7.213662E+03	6.246092E-03	3.976611E-04
7.223476E+03	6.226523E-03	3.961997E-04
7.233291E+03	6.204490E-03	3.945886E-04
7.243105E+03	6.179790E-03	3.928151E-04
7.252920E+03	6.152549E-03	3.908875E-04
7.262734E+03	6.122740E-03	3.888043E-04
7.272549E+03	6.090189E-03	3.865547E-04
7.282363E+03	6.054971E-03	3.841438E-04
7.292178E+03	6.017097E-03	3.815724E-04
7.301992E+03	5.976672E-03	3.788474E-04
7.311807E+03	5.933581E-03	3.759617E-04
7.321621E+03	5.887960E-03	3.729241E-04
7.331436E+03	5.839883E-03	3.697394E-04
7.341250E+03	5.789440E-03	3.664135E-04
7.351065E+03	5.736738E-03	3.629531E-04
7.360879E+03	5.681895E-03	3.593658E-04
7.370694E+03	5.625043E-03	3.556600E-04
7.380508E+03	5.566325E-03	3.518448E-04
7.390323E+03	5.505822E-03	3.479253E-04
7.400137E+03	5.443841E-03	3.439208E-04
7.409952E+03	5.380404E-03	3.398326E-04
7.419766E+03	5.315755E-03	3.356756E-04
7.429581E+03	5.250069E-03	3.314608E-04
7.439395E+03	5.183452E-03	3.271946E-04
7.449210E+03	5.116086E-03	3.228881E-04
7.459024E+03	5.048285E-03	3.185609E-04
7.468839E+03	4.980087E-03	3.142151E-04
7.478653E+03	4.911670E-03	3.098616E-04
7.488468E+03	4.843207E-03	3.055110E-04
7.498282E+03	4.774929E-03	3.011777E-04
7.508097E+03	4.707005E-03	2.968719E-04
7.517911E+03	4.639476E-03	2.925959E-04
7.527726E+03	4.572629E-03	2.883677E-04
7.537540E+03	4.506557E-03	2.841928E-04
7.547355E+03	4.441404E-03	2.800801E-04
7.557169E+03	4.377364E-03	2.760414E-04
7.566984E+03	4.314499E-03	2.720804E-04
7.576799E+03	4.252921E-03	2.682041E-04
7.586613E+03	4.192729E-03	2.644184E-04
7.596428E+03	4.134068E-03	2.607324E-04
7.606242E+03	4.076958E-03	2.571468E-04
7.616057E+03	4.021462E-03	2.536658E-04
