#wls	flux	fluxerr
1.570321E+03	1.905911E-04	1.197157E-05
1.609579E+03	1.952992E-04	1.226423E-05
1.648837E+03	2.003636E-04	1.257903E-05
1.688095E+03	2.058063E-04	1.291731E-05
1.727353E+03	2.116873E-04	1.328282E-05
1.766611E+03	2.179589E-04	1.367252E-05
1.805869E+03	2.247223E-04	1.409274E-05
1.845127E+03	2.320090E-04	1.454540E-05
1.884385E+03	2.398524E-04	1.503256E-05
1.923643E+03	2.482466E-04	1.555381E-05
1.962901E+03	2.573121E-04	1.611664E-05
2.002159E+03	2.670487E-04	1.672097E-05
2.041417E+03	2.775446E-04	1.737228E-05
2.080675E+03	2.888492E-04	1.807358E-05
2.119933E+03	3.010148E-04	1.882807E-05
2.159191E+03	3.140961E-04	1.963908E-05
2.198449E+03	3.282020E-04	2.051334E-05
2.237707E+03	3.433979E-04	2.145482E-05
2.276965E+03	3.598063E-04	2.247108E-05
2.316223E+03	3.774457E-04	2.356312E-05
2.355481E+03	3.964473E-04	2.473902E-05
2.394739E+03	4.169520E-04	2.600740E-05
2.433997E+03	4.390467E-04	2.737353E-05
2.473255E+03	4.628851E-04	2.884679E-05
2.512513E+03	4.884924E-04	3.042857E-05
2.551772E+03	5.161672E-04	3.213723E-05
2.591030E+03	5.458662E-04	3.396984E-05
2.630288E+03	5.778264E-04	3.594087E-05
2.669546E+03	6.122199E-04	3.806074E-05
2.708804E+03	6.491379E-04	4.033481E-05
2.748062E+03	6.888301E-04	4.277824E-05
2.787320E+03	7.312878E-04	4.539012E-05
2.826578E+03	7.768364E-04	4.819025E-05
2.865836E+03	8.255291E-04	5.118148E-05
2.905094E+03	8.773888E-04	5.436476E-05
2.944352E+03	9.327048E-04	5.775754E-05
2.954166E+03	9.471422E-04	5.864264E-05
2.963981E+03	9.616788E-04	5.953356E-05
2.973795E+03	9.765180E-04	6.044288E-05
2.983610E+03	9.915561E-04	6.136417E-05
2.993424E+03	1.006791E-03	6.229729E-05
3.003239E+03	1.022328E-03	6.324877E-05
3.013053E+03	1.038059E-03	6.421188E-05
3.022868E+03	1.053982E-03	6.518652E-05
3.032682E+03	1.070094E-03	6.617247E-05
3.042497E+03	1.086503E-03	6.717639E-05
3.052311E+03	1.103095E-03	6.819129E-05
3.062126E+03	1.119980E-03	6.922388E-05
3.071940E+03	1.137044E-03	7.026713E-05
3.081755E+03	1.154283E-03	7.132077E-05
3.091569E+03	1.171807E-03	7.239159E-05
3.101384E+03	1.189612E-03	7.347940E-05
3.111198E+03	1.207581E-03	7.457688E-05
3.121013E+03	1.225709E-03	7.568378E-05
3.130827E+03	1.244225E-03	7.681411E-05
3.140642E+03	1.262774E-03	7.794608E-05
3.150456E+03	1.281702E-03	7.910097E-05
3.160271E+03	1.300770E-03	8.026405E-05
3.170085E+03	1.320091E-03	8.144223E-05
3.179900E+03	1.339539E-03	8.262780E-05
3.189714E+03	1.359350E-03	8.383523E-05
3.199529E+03	1.379275E-03	8.504922E-05
3.209343E+03	1.399431E-03	8.627691E-05
3.219158E+03	1.419687E-03	8.751026E-05
3.228972E+03	1.440281E-03	8.876397E-05
3.238787E+03	1.461085E-03	9.003006E-05
3.248601E+03	1.481968E-03	9.130043E-05
3.258416E+03	1.503168E-03	9.258980E-05
3.268230E+03	1.524429E-03	9.388241E-05
3.278045E+03	1.545993E-03	9.519310E-05
3.287859E+03	1.567726E-03	9.651359E-05
3.297674E+03	1.589618E-03	9.784336E-05
3.307488E+03	1.611534E-03	9.917398E-05
3.317303E+03	1.633846E-03	1.005283E-04
3.327117E+03	1.656159E-03	1.018822E-04
3.336932E+03	1.678722E-03	1.032508E-04
3.346746E+03	1.701394E-03	1.046255E-04
3.356561E+03	1.724165E-03	1.060057E-04
3.366376E+03	1.747023E-03	1.073905E-04
3.376190E+03	1.770087E-03	1.087874E-04
3.386005E+03	1.793346E-03	1.101957E-04
3.395819E+03	1.816657E-03	1.116064E-04
3.405634E+03	1.840008E-03	1.130190E-04
3.415448E+03	1.863517E-03	1.144407E-04
3.425263E+03	1.887173E-03	1.158706E-04
3.435077E+03	1.910830E-03	1.173000E-04
3.444892E+03	1.934608E-03	1.187361E-04
3.454706E+03	1.958360E-03	1.201699E-04
3.464521E+03	1.982338E-03	1.216169E-04
3.474335E+03	2.006264E-03	1.230600E-04
3.484150E+03	2.030123E-03	1.244983E-04
3.493964E+03	2.054168E-03	1.259472E-04
3.503779E+03	2.078251E-03	1.273978E-04
3.513593E+03	2.102224E-03	1.288409E-04
3.523408E+03	2.126340E-03	1.302921E-04
3.533222E+03	2.150319E-03	1.317341E-04
3.543037E+03	2.174411E-03	1.331823E-04
3.552851E+03	2.198338E-03	1.346197E-04
3.562666E+03	2.222348E-03	1.360614E-04
3.572480E+03	2.246296E-03	1.374986E-04
3.582295E+03	2.270166E-03	1.389302E-04
3.592109E+03	2.293945E-03	1.403556E-04
3.601924E+03	2.317751E-03	1.417818E-04
3.611738E+03	2.341436E-03	1.431999E-04
3.621553E+03	2.364986E-03	1.446090E-04
3.631367E+03	2.388389E-03	1.460083E-04
3.641182E+03	2.411762E-03	1.474050E-04
3.650996E+03	2.434959E-03	1.487902E-04
3.660811E+03	2.458099E-03	1.501712E-04
3.670625E+03	2.481036E-03	1.515390E-04
3.680440E+03	2.503889E-03	1.529009E-04
3.690254E+03	2.526516E-03	1.542483E-04
3.700069E+03	2.548905E-03	1.555804E-04
3.709883E+03	2.571301E-03	1.569121E-04
3.719698E+03	2.593307E-03	1.582193E-04
3.729512E+03	2.615297E-03	1.595248E-04
3.739327E+03	2.637004E-03	1.608122E-04
3.749141E+03	2.658546E-03	1.620889E-04
3.758956E+03	2.679787E-03	1.633464E-04
3.768770E+03	2.700843E-03	1.645919E-04
3.778585E+03	2.721581E-03	1.658173E-04
3.788399E+03	2.742242E-03	1.670373E-04
3.798214E+03	2.762570E-03	1.682362E-04
3.808028E+03	2.782559E-03	1.694139E-04
3.817843E+03	2.802448E-03	1.705846E-04
3.827657E+03	2.821988E-03	1.717334E-04
3.837472E+03	2.841173E-03	1.728599E-04
3.847286E+03	2.860122E-03	1.739713E-04
3.857101E+03	2.878830E-03	1.750674E-04
3.866915E+03	2.897295E-03	1.761480E-04
3.876730E+03	2.915395E-03	1.772057E-04
3.886544E+03	2.933248E-03	1.782477E-04
3.896359E+03	2.950736E-03	1.792669E-04
3.906173E+03	2.967978E-03	1.802704E-04
3.915988E+03	2.984857E-03	1.812512E-04
3.925802E+03	3.001492E-03	1.822165E-04
3.935617E+03	3.017770E-03	1.831595E-04
3.945431E+03	3.033697E-03	1.840806E-04
3.955246E+03	3.049390E-03	1.849868E-04
3.965060E+03	3.064741E-03	1.858717E-04
3.974875E+03	3.079757E-03	1.867357E-04
3.984689E+03	3.094556E-03	1.875858E-04
3.994504E+03	3.108926E-03	1.884093E-04
4.004318E+03	3.122987E-03	1.892136E-04
4.014133E+03	3.136747E-03	1.899990E-04
4.023947E+03	3.150217E-03	1.907662E-04
4.033762E+03	3.163408E-03	1.915160E-04
4.043576E+03	3.176228E-03	1.922427E-04
4.053391E+03	3.188793E-03	1.929535E-04
4.063205E+03	3.201118E-03	1.936492E-04
4.073020E+03	3.213012E-03	1.943183E-04
4.082834E+03	3.224699E-03	1.949743E-04
4.092649E+03	3.236091E-03	1.956120E-04
4.102463E+03	3.247209E-03	1.962326E-04
4.112278E+03	3.257973E-03	1.968314E-04
4.122092E+03	3.268602E-03	1.974214E-04
4.131907E+03	3.278823E-03	1.979864E-04
4.141721E+03	3.288951E-03	1.985452E-04
4.151536E+03	3.298720E-03	1.990819E-04
4.161350E+03	3.308346E-03	1.996095E-04
4.171165E+03	3.317758E-03	2.001237E-04
4.180979E+03	3.326982E-03	2.006261E-04
4.190794E+03	3.335949E-03	2.011126E-04
4.200608E+03	3.344779E-03	2.015904E-04
4.210423E+03	3.353403E-03	2.020554E-04
4.220238E+03	3.361846E-03	2.025090E-04
4.230052E+03	3.370223E-03	2.029582E-04
4.239867E+03	3.378374E-03	2.033934E-04
4.249681E+03	3.386414E-03	2.038214E-04
4.259496E+03	3.394362E-03	2.042436E-04
4.269310E+03	3.402153E-03	2.046559E-04
4.279125E+03	3.409810E-03	2.050598E-04
4.288939E+03	3.417352E-03	2.054563E-04
4.298754E+03	3.424799E-03	2.058467E-04
4.308568E+03	3.432168E-03	2.062321E-04
4.318383E+03	3.439393E-03	2.066084E-04
4.328197E+03	3.446490E-03	2.069767E-04
4.338012E+03	3.453555E-03	2.073427E-04
4.347826E+03	3.460515E-03	2.077020E-04
4.357641E+03	3.467381E-03	2.080553E-04
4.367455E+03	3.474082E-03	2.083983E-04
4.377270E+03	3.480707E-03	2.087365E-04
4.387084E+03	3.487184E-03	2.090654E-04
4.396899E+03	3.493605E-03	2.093906E-04
4.406713E+03	3.499900E-03	2.097080E-04
4.416528E+03	3.506083E-03	2.100183E-04
4.426342E+03	3.512090E-03	2.103177E-04
4.436157E+03	3.518090E-03	2.106164E-04
4.445971E+03	3.523941E-03	2.109058E-04
4.455786E+03	3.529656E-03	2.111868E-04
4.465600E+03	3.535321E-03	2.114646E-04
4.475415E+03	3.540870E-03	2.117351E-04
4.485229E+03	3.546311E-03	2.119988E-04
4.495044E+03	3.551652E-03	2.122562E-04
4.504858E+03	3.556969E-03	2.125120E-04
4.514673E+03	3.562119E-03	2.127574E-04
4.524487E+03	3.567177E-03	2.129972E-04
4.534302E+03	3.572142E-03	2.132311E-04
4.544116E+03	3.576941E-03	2.134549E-04
4.553931E+03	3.581645E-03	2.136727E-04
4.563745E+03	3.586250E-03	2.138843E-04
4.573560E+03	3.590684E-03	2.140856E-04
4.583374E+03	3.595019E-03	2.142807E-04
4.593189E+03	3.599188E-03	2.144657E-04
4.603003E+03	3.603266E-03	2.146450E-04
4.612818E+03	3.607187E-03	2.148148E-04
4.622632E+03	3.610958E-03	2.149755E-04
4.632447E+03	3.614655E-03	2.151315E-04
4.642261E+03	3.618209E-03	2.152789E-04
4.652076E+03	3.621694E-03	2.154220E-04
4.661890E+03	3.625041E-03	2.155567E-04
4.671705E+03	3.628249E-03	2.156830E-04
4.681519E+03	3.631385E-03	2.158048E-04
4.691334E+03	3.634376E-03	2.159179E-04
4.701148E+03	3.637290E-03	2.160262E-04
4.710963E+03	3.640054E-03	2.161255E-04
4.720777E+03	3.642668E-03	2.162158E-04
4.730592E+03	3.645267E-03	2.163050E-04
4.740406E+03	3.647650E-03	2.163813E-04
4.750221E+03	3.650027E-03	2.164572E-04
4.760035E+03	3.652276E-03	2.165254E-04
4.769850E+03	3.654481E-03	2.165909E-04
4.779664E+03	3.656668E-03	2.166552E-04
4.789479E+03	3.658867E-03	2.167201E-04
4.799293E+03	3.661050E-03	2.167841E-04
4.809108E+03	3.663392E-03	2.168573E-04
4.818922E+03	3.665804E-03	2.169347E-04
4.828737E+03	3.668462E-03	2.170265E-04
4.838551E+03	3.671348E-03	2.171316E-04
4.848366E+03	3.674506E-03	2.172528E-04
4.858180E+03	3.677977E-03	2.173923E-04
4.867995E+03	3.681863E-03	2.175563E-04
4.877809E+03	3.686133E-03	2.177428E-04
4.887624E+03	3.690881E-03	2.179574E-04
4.897438E+03	3.696059E-03	2.181972E-04
4.907253E+03	3.701747E-03	2.184669E-04
4.917067E+03	3.707947E-03	2.187666E-04
4.926882E+03	3.714592E-03	2.190924E-04
4.936696E+03	3.721735E-03	2.194473E-04
4.946511E+03	3.729356E-03	2.198302E-04
4.956325E+03	3.737432E-03	2.202396E-04
4.966140E+03	3.745932E-03	2.206737E-04
4.975954E+03	3.754760E-03	2.211268E-04
4.985769E+03	3.764006E-03	2.216042E-04
4.995583E+03	3.773569E-03	2.221000E-04
5.005398E+03	3.783406E-03	2.226116E-04
5.015212E+03	3.793479E-03	2.231368E-04
5.025027E+03	3.803750E-03	2.236732E-04
5.034841E+03	3.814249E-03	2.242227E-04
5.044656E+03	3.824883E-03	2.247798E-04
5.054471E+03	3.835632E-03	2.253433E-04
5.064285E+03	3.846483E-03	2.259124E-04
5.074100E+03	3.857497E-03	2.264908E-04
5.083914E+03	3.868614E-03	2.270748E-04
5.093729E+03	3.879839E-03	2.276648E-04
5.103543E+03	3.891243E-03	2.282650E-04
5.113358E+03	3.902764E-03	2.288716E-04
5.123172E+03	3.914396E-03	2.294844E-04
5.132987E+03	3.926194E-03	2.301066E-04
5.142801E+03	3.938071E-03	2.307330E-04
5.152616E+03	3.950063E-03	2.313658E-04
5.162430E+03	3.961998E-03	2.319949E-04
5.172245E+03	3.974019E-03	2.326287E-04
5.182059E+03	3.985863E-03	2.332517E-04
5.191874E+03	3.997580E-03	2.338669E-04
5.201688E+03	4.009012E-03	2.344651E-04
5.211503E+03	4.020057E-03	2.350404E-04
5.221317E+03	4.030671E-03	2.355902E-04
5.231132E+03	4.040673E-03	2.361038E-04
5.240946E+03	4.050018E-03	2.365789E-04
5.250761E+03	4.058471E-03	2.370016E-04
5.260575E+03	4.066077E-03	2.373747E-04
5.270390E+03	4.072691E-03	2.376897E-04
5.280204E+03	4.078322E-03	2.379472E-04
5.290019E+03	4.082787E-03	2.381366E-04
5.299833E+03	4.086180E-03	2.382634E-04
5.309648E+03	4.088399E-03	2.383218E-04
5.319462E+03	4.089410E-03	2.383098E-04
5.329277E+03	4.089245E-03	2.382295E-04
5.339091E+03	4.087802E-03	2.380747E-04
5.348906E+03	4.085039E-03	2.378433E-04
5.358720E+03	4.080913E-03	2.375328E-04
5.368535E+03	4.075449E-03	2.371448E-04
5.378349E+03	4.068537E-03	2.366728E-04
5.388164E+03	4.060137E-03	2.361145E-04
5.397978E+03	4.050277E-03	2.354720E-04
5.407793E+03	4.038864E-03	2.347396E-04
5.417607E+03	4.025936E-03	2.339197E-04
5.427422E+03	4.011348E-03	2.330040E-04
5.437236E+03	3.995286E-03	2.320034E-04
5.447051E+03	3.977616E-03	2.309101E-04
5.456865E+03	3.958345E-03	2.297247E-04
5.466680E+03	3.937552E-03	2.284517E-04
5.476494E+03	3.915257E-03	2.270926E-04
5.486309E+03	3.891489E-03	2.256490E-04
5.496123E+03	3.866229E-03	2.241198E-04
5.505938E+03	3.839591E-03	2.225118E-04
5.515752E+03	3.811644E-03	2.208291E-04
5.525567E+03	3.782411E-03	2.190730E-04
5.535381E+03	3.752123E-03	2.172569E-04
5.545196E+03	3.720847E-03	2.153849E-04
5.555010E+03	3.688740E-03	2.134660E-04
5.564825E+03	3.655985E-03	2.115109E-04
5.574639E+03	3.622793E-03	2.095317E-04
5.584454E+03	3.589458E-03	2.075457E-04
5.594268E+03	3.556179E-03	2.055641E-04
5.604083E+03	3.523225E-03	2.036026E-04
5.613897E+03	3.490934E-03	2.016807E-04
5.623712E+03	3.459525E-03	1.998110E-04
5.633526E+03	3.429329E-03	1.980126E-04
5.643341E+03	3.400550E-03	1.962972E-04
5.653155E+03	3.373490E-03	1.946821E-04
5.662970E+03	3.348376E-03	1.931804E-04
5.672784E+03	3.325414E-03	1.918038E-04
5.682599E+03	3.304728E-03	1.905595E-04
5.692413E+03	3.286528E-03	1.894593E-04
5.702228E+03	3.270934E-03	1.885102E-04
5.712042E+03	3.258030E-03	1.877168E-04
5.721857E+03	3.247863E-03	1.870817E-04
5.731671E+03	3.240441E-03	1.866052E-04
5.741486E+03	3.235685E-03	1.862828E-04
5.751300E+03	3.233648E-03	1.861173E-04
5.761115E+03	3.234202E-03	1.861012E-04
5.770929E+03	3.237253E-03	1.862291E-04
5.780744E+03	3.242692E-03	1.864945E-04
5.790558E+03	3.250395E-03	1.868902E-04
5.800373E+03	3.260220E-03	1.874080E-04
5.810187E+03	3.272065E-03	1.880420E-04
5.820002E+03	3.285650E-03	1.887759E-04
5.829816E+03	3.300893E-03	1.896050E-04
5.839631E+03	3.317542E-03	1.905148E-04
5.849445E+03	3.335391E-03	1.914933E-04
5.859260E+03	3.354239E-03	1.925291E-04
5.869074E+03	3.373898E-03	1.936113E-04
5.878889E+03	3.394202E-03	1.947303E-04
5.888704E+03	3.415075E-03	1.958819E-04
5.898518E+03	3.436307E-03	1.970538E-04
5.908333E+03	3.457958E-03	1.982497E-04
5.918147E+03	3.479961E-03	1.994656E-04
5.927962E+03	3.502297E-03	2.007004E-04
5.937776E+03	3.525171E-03	2.019659E-04
5.947591E+03	3.548718E-03	2.032699E-04
5.957405E+03	3.572996E-03	2.046155E-04
5.967220E+03	3.598272E-03	2.060183E-04
5.977034E+03	3.624783E-03	2.074916E-04
5.986849E+03	3.652784E-03	2.090500E-04
5.996663E+03	3.682601E-03	2.107121E-04
6.006478E+03	3.714379E-03	2.124863E-04
6.016292E+03	3.748447E-03	2.143913E-04
6.026107E+03	3.785133E-03	2.164457E-04
6.035921E+03	3.824560E-03	2.186565E-04
6.045736E+03	3.867028E-03	2.210410E-04
6.055550E+03	3.912760E-03	2.236116E-04
6.065365E+03	3.962021E-03	2.263834E-04
6.075179E+03	4.014847E-03	2.293585E-04
6.084994E+03	4.071441E-03	2.325484E-04
6.094808E+03	4.131895E-03	2.359582E-04
6.104623E+03	4.196252E-03	2.395902E-04
6.114437E+03	4.264500E-03	2.434439E-04
6.124252E+03	4.336564E-03	2.475147E-04
6.134066E+03	4.412304E-03	2.517945E-04
6.143881E+03	4.491499E-03	2.562708E-04
6.153695E+03	4.573845E-03	2.609262E-04
6.163510E+03	4.658942E-03	2.657376E-04
6.173324E+03	4.746284E-03	2.706762E-04
6.183139E+03	4.835249E-03	2.757067E-04
6.192953E+03	4.925102E-03	2.807870E-04
6.202768E+03	5.014988E-03	2.858684E-04
6.212582E+03	5.104028E-03	2.909009E-04
6.222397E+03	5.190971E-03	2.958133E-04
6.232211E+03	5.274827E-03	3.005491E-04
6.242026E+03	5.354159E-03	3.050267E-04
6.251840E+03	5.427850E-03	3.091827E-04
6.261655E+03	5.494476E-03	3.129359E-04
6.271469E+03	5.552816E-03	3.162172E-04
6.281284E+03	5.601519E-03	3.189497E-04
6.291098E+03	5.639441E-03	3.210686E-04
6.300913E+03	5.665604E-03	3.225185E-04
6.310727E+03	5.679349E-03	3.232622E-04
6.320542E+03	5.680180E-03	3.232715E-04
6.330356E+03	5.667688E-03	3.225235E-04
6.340171E+03	5.642279E-03	3.210417E-04
6.349985E+03	5.604157E-03	3.188377E-04
6.359800E+03	5.554096E-03	3.159558E-04
6.369614E+03	5.492885E-03	3.124412E-04
6.379429E+03	5.421673E-03	3.083594E-04
6.389243E+03	5.341608E-03	3.037757E-04
6.399058E+03	5.253888E-03	2.987584E-04
6.408872E+03	5.159712E-03	2.933758E-04
6.418687E+03	5.060255E-03	2.876947E-04
6.428501E+03	4.956545E-03	2.817736E-04
6.438316E+03	4.849820E-03	2.756829E-04
6.448130E+03	4.740956E-03	2.694724E-04
6.457945E+03	4.630836E-03	2.631922E-04
6.467759E+03	4.520331E-03	2.568918E-04
6.477574E+03	4.410048E-03	2.506056E-04
6.487388E+03	4.300587E-03	2.443677E-04
6.497203E+03	4.192459E-03	2.382071E-04
6.507017E+03	4.086170E-03	2.321525E-04
6.516832E+03	3.982077E-03	2.262239E-04
6.526646E+03	3.880402E-03	2.204341E-04
6.536461E+03	3.781468E-03	2.148013E-04
6.546275E+03	3.685407E-03	2.093329E-04
6.556090E+03	3.592526E-03	2.040462E-04
6.565904E+03	3.502819E-03	1.989409E-04
6.575719E+03	3.416456E-03	1.940266E-04
6.585533E+03	3.333509E-03	1.893072E-04
6.595348E+03	3.254023E-03	1.847853E-04
6.605162E+03	3.178014E-03	1.804617E-04
6.614977E+03	3.105419E-03	1.763327E-04
6.624791E+03	3.036390E-03	1.724070E-04
6.634606E+03	2.970712E-03	1.686723E-04
6.644420E+03	2.908395E-03	1.651291E-04
6.654235E+03	2.849442E-03	1.617776E-04
6.664049E+03	2.793740E-03	1.586111E-04
6.673864E+03	2.741232E-03	1.556266E-04
6.683678E+03	2.691861E-03	1.528207E-04
6.693493E+03	2.645622E-03	1.501931E-04
6.703307E+03	2.602409E-03	1.477378E-04
6.713122E+03	2.562217E-03	1.454545E-04
6.722937E+03	2.524947E-03	1.433374E-04
6.732751E+03	2.490551E-03	1.413839E-04
6.742566E+03	2.459032E-03	1.395941E-04
6.752380E+03	2.430353E-03	1.379659E-04
6.762195E+03	2.404429E-03	1.364945E-04
6.772009E+03	2.381234E-03	1.351783E-04
6.781824E+03	2.360789E-03	1.340186E-04
6.791638E+03	2.343027E-03	1.330116E-04
6.801453E+03	2.327976E-03	1.321587E-04
6.811267E+03	2.315620E-03	1.314592E-04
6.821082E+03	2.305902E-03	1.309098E-04
6.830896E+03	2.298810E-03	1.305098E-04
6.840711E+03	2.294376E-03	1.302611E-04
6.850525E+03	2.292543E-03	1.301603E-04
6.860340E+03	2.293339E-03	1.302092E-04
6.870154E+03	2.296701E-03	1.304041E-04
6.879969E+03	2.302653E-03	1.307465E-04
6.889783E+03	2.311127E-03	1.312324E-04
6.899598E+03	2.322095E-03	1.318604E-04
6.909412E+03	2.335573E-03	1.326313E-04
6.919227E+03	2.351484E-03	1.335408E-04
6.929041E+03	2.369788E-03	1.345867E-04
6.938856E+03	2.390491E-03	1.357692E-04
6.948670E+03	2.413451E-03	1.370806E-04
6.958485E+03	2.438712E-03	1.385231E-04
6.968299E+03	2.466164E-03	1.400906E-04
6.978114E+03	2.495738E-03	1.417793E-04
6.987928E+03	2.527357E-03	1.435847E-04
6.997743E+03	2.560928E-03	1.455017E-04
7.007557E+03	2.596343E-03	1.475242E-04
7.017372E+03	2.633478E-03	1.496452E-04
7.027186E+03	2.672137E-03	1.518534E-04
7.037001E+03	2.712208E-03	1.541428E-04
7.046815E+03	2.753514E-03	1.565031E-04
7.056630E+03	2.795865E-03	1.589237E-04
7.066444E+03	2.839003E-03	1.613900E-04
7.076259E+03	2.882778E-03	1.638933E-04
7.086073E+03	2.926915E-03	1.664182E-04
7.095888E+03	2.971256E-03	1.689557E-04
7.105702E+03	3.015448E-03	1.714858E-04
7.115517E+03	3.059439E-03	1.740054E-04
7.125331E+03	3.102793E-03	1.764898E-04
7.135146E+03	3.145372E-03	1.789313E-04
7.144960E+03	3.186775E-03	1.813070E-04
7.154775E+03	3.226842E-03	1.836077E-04
7.164589E+03	3.265211E-03	1.858129E-04
7.174404E+03	3.301503E-03	1.879011E-04
7.184218E+03	3.335533E-03	1.898616E-04
7.194033E+03	3.366838E-03	1.916682E-04
7.203847E+03	3.395156E-03	1.933057E-04
7.213662E+03	3.420153E-03	1.947552E-04
7.223476E+03	3.441502E-03	1.959980E-04
7.233291E+03	3.458813E-03	1.970118E-04
7.243105E+03	3.471777E-03	1.977788E-04
7.252920E+03	3.480179E-03	1.982869E-04
7.262734E+03	3.483759E-03	1.985211E-04
7.272549E+03	3.482220E-03	1.984641E-04
7.282363E+03	3.475443E-03	1.981094E-04
7.292178E+03	3.463223E-03	1.974448E-04
7.301992E+03	3.445486E-03	1.964662E-04
7.311807E+03	3.422235E-03	1.951734E-04
7.321621E+03	3.393640E-03	1.935761E-04
7.331436E+03	3.359832E-03	1.916814E-04
7.341250E+03	3.321130E-03	1.895076E-04
7.351065E+03	3.277959E-03	1.870786E-04
7.360879E+03	3.230900E-03	1.844275E-04
7.370694E+03	3.180389E-03	1.815789E-04
7.380508E+03	3.127154E-03	1.785743E-04
7.390323E+03	3.071726E-03	1.754440E-04
7.400137E+03	3.014627E-03	1.722176E-04
7.409952E+03	2.956540E-03	1.689342E-04
7.419766E+03	2.897928E-03	1.656199E-04
7.429581E+03	2.839276E-03	1.623026E-04
7.439395E+03	2.781028E-03	1.590076E-04
7.449210E+03	2.723587E-03	1.557579E-04
7.459024E+03	2.667254E-03	1.525707E-04
7.468839E+03	2.612452E-03	1.494703E-04
7.478653E+03	2.559395E-03	1.464687E-04
7.488468E+03	2.508301E-03	1.435787E-04
7.498282E+03	2.459294E-03	1.408073E-04
7.508097E+03	2.412594E-03	1.381671E-04
7.517911E+03	2.368165E-03	1.356561E-04
7.527726E+03	2.326082E-03	1.332789E-04
7.537540E+03	2.286394E-03	1.310380E-04
7.547355E+03	2.248978E-03	1.289268E-04
7.557169E+03	2.213798E-03	1.269431E-04
7.566984E+03	2.180892E-03	1.250891E-04
7.576799E+03	2.150148E-03	1.233585E-04
7.586613E+03	2.121445E-03	1.217445E-04
7.596428E+03	2.094794E-03	1.202478E-04
7.606242E+03	2.070019E-03	1.188584E-04
7.616057E+03	2.047035E-03	1.175713E-04
