#wls	flux	fluxerr
1.570321E+03	4.468648E-04	1.555647E-05
1.609579E+03	4.672874E-04	1.626214E-05
1.648837E+03	4.890751E-04	1.701470E-05
1.688095E+03	5.125019E-04	1.782361E-05
1.727353E+03	5.376043E-04	1.869004E-05
1.766611E+03	5.644119E-04	1.961494E-05
1.805869E+03	5.933480E-04	2.061292E-05
1.845127E+03	6.242681E-04	2.167886E-05
1.884385E+03	6.575329E-04	2.282515E-05
1.923643E+03	6.932062E-04	2.405388E-05
1.962901E+03	7.314634E-04	2.537100E-05
2.002159E+03	7.726180E-04	2.678721E-05
2.041417E+03	8.168863E-04	2.830984E-05
2.080675E+03	8.644955E-04	2.994657E-05
2.119933E+03	9.155388E-04	3.170041E-05
2.159191E+03	9.704029E-04	3.358453E-05
2.198449E+03	1.029185E-03	3.560202E-05
2.237707E+03	1.092482E-03	3.777328E-05
2.276965E+03	1.160420E-03	4.010236E-05
2.316223E+03	1.233095E-03	4.259220E-05
2.355481E+03	1.311181E-03	4.526575E-05
2.394739E+03	1.395004E-03	4.813391E-05
2.433997E+03	1.484438E-03	5.119187E-05
2.473255E+03	1.580216E-03	5.446445E-05
2.512513E+03	1.682651E-03	5.796194E-05
2.551772E+03	1.791770E-03	6.168474E-05
2.591030E+03	1.908087E-03	6.564997E-05
2.630288E+03	2.031837E-03	6.986513E-05
2.669546E+03	2.162898E-03	7.432539E-05
2.708804E+03	2.302022E-03	7.905590E-05
2.748062E+03	2.448624E-03	8.403589E-05
2.787320E+03	2.603370E-03	8.928743E-05
2.826578E+03	2.765806E-03	9.479424E-05
2.865836E+03	2.935693E-03	1.005474E-04
2.905094E+03	3.113081E-03	1.065477E-04
2.944352E+03	3.297055E-03	1.127632E-04
2.954166E+03	3.344013E-03	1.143484E-04
2.963981E+03	3.391241E-03	1.159422E-04
2.973795E+03	3.439184E-03	1.175597E-04
2.983610E+03	3.487375E-03	1.191849E-04
2.993424E+03	3.535794E-03	1.208173E-04
3.003239E+03	3.584424E-03	1.224561E-04
3.013053E+03	3.633245E-03	1.241007E-04
3.022868E+03	3.682721E-03	1.257670E-04
3.032682E+03	3.732357E-03	1.274380E-04
3.042497E+03	3.782130E-03	1.291129E-04
3.052311E+03	3.832016E-03	1.307909E-04
3.062126E+03	3.882499E-03	1.324885E-04
3.071940E+03	3.933056E-03	1.341879E-04
3.081755E+03	3.983662E-03	1.358881E-04
3.091569E+03	4.034292E-03	1.375884E-04
3.101384E+03	4.085442E-03	1.393056E-04
3.111198E+03	4.136041E-03	1.410033E-04
3.121013E+03	4.187111E-03	1.427162E-04
3.130827E+03	4.238638E-03	1.444438E-04
3.140642E+03	4.289517E-03	1.461486E-04
3.150456E+03	4.340799E-03	1.478662E-04
3.160271E+03	4.391913E-03	1.495773E-04
3.170085E+03	4.442824E-03	1.512807E-04
3.179900E+03	4.493499E-03	1.529752E-04
3.189714E+03	4.544467E-03	1.546788E-04
3.199529E+03	4.595135E-03	1.563714E-04
3.209343E+03	4.645467E-03	1.580517E-04
3.219158E+03	4.695425E-03	1.597185E-04
3.228972E+03	4.745551E-03	1.613901E-04
3.238787E+03	4.795234E-03	1.630459E-04
3.248601E+03	4.844433E-03	1.646843E-04
3.258416E+03	4.893107E-03	1.663040E-04
3.268230E+03	4.941812E-03	1.679240E-04
3.278045E+03	4.989916E-03	1.695227E-04
3.287859E+03	5.037378E-03	1.710987E-04
3.297674E+03	5.084153E-03	1.726506E-04
3.307488E+03	5.130808E-03	1.741976E-04
3.317303E+03	5.176696E-03	1.757178E-04
3.327117E+03	5.221773E-03	1.772095E-04
3.336932E+03	5.265993E-03	1.786714E-04
3.346746E+03	5.309312E-03	1.801020E-04
3.356561E+03	5.352307E-03	1.815208E-04
3.366376E+03	5.394317E-03	1.829053E-04
3.376190E+03	5.435924E-03	1.842754E-04
3.386005E+03	5.475827E-03	1.855870E-04
3.395819E+03	5.515239E-03	1.868812E-04
3.405634E+03	5.553489E-03	1.881353E-04
3.415448E+03	5.590529E-03	1.893477E-04
3.425263E+03	5.626315E-03	1.905169E-04
3.435077E+03	5.661443E-03	1.916631E-04
3.444892E+03	5.695233E-03	1.927633E-04
3.454706E+03	5.727640E-03	1.938161E-04
3.464521E+03	5.758622E-03	1.948200E-04
3.474335E+03	5.788782E-03	1.957954E-04
3.484150E+03	5.817436E-03	1.967193E-04
3.493964E+03	5.844544E-03	1.975903E-04
3.503779E+03	5.870066E-03	1.984072E-04
3.513593E+03	5.894612E-03	1.991904E-04
3.523408E+03	5.916853E-03	1.998953E-04
3.533222E+03	5.938045E-03	2.005643E-04
3.543037E+03	5.957509E-03	2.011744E-04
3.552851E+03	5.975858E-03	2.017464E-04
3.562666E+03	5.991772E-03	2.022357E-04
3.572480E+03	6.006510E-03	2.026850E-04
3.582295E+03	6.019401E-03	2.030715E-04
3.592109E+03	6.030421E-03	2.033946E-04
3.601924E+03	6.040187E-03	2.036750E-04
3.611738E+03	6.047399E-03	2.038691E-04
3.621553E+03	6.053316E-03	2.040192E-04
3.631367E+03	6.057283E-03	2.041034E-04
3.641182E+03	6.059918E-03	2.041425E-04
3.650996E+03	6.059948E-03	2.040937E-04
3.660811E+03	6.058624E-03	2.039991E-04
3.670625E+03	6.054689E-03	2.038165E-04
3.680440E+03	6.049390E-03	2.035879E-04
3.690254E+03	6.042100E-03	2.032923E-04
3.700069E+03	6.033439E-03	2.029505E-04
3.709883E+03	6.022186E-03	2.025216E-04
3.719698E+03	6.009572E-03	2.020470E-04
3.729512E+03	5.994999E-03	2.015065E-04
3.739327E+03	5.978485E-03	2.009010E-04
3.749141E+03	5.960049E-03	2.002311E-04
3.758956E+03	5.939717E-03	1.994976E-04
3.768770E+03	5.918097E-03	1.987211E-04
3.778585E+03	5.894050E-03	1.978634E-04
3.788399E+03	5.868771E-03	1.969646E-04
3.798214E+03	5.841714E-03	1.960064E-04
3.808028E+03	5.812919E-03	1.949903E-04
3.817843E+03	5.782428E-03	1.939177E-04
3.827657E+03	5.750842E-03	1.928087E-04
3.837472E+03	5.717097E-03	1.916279E-04
3.847286E+03	5.682346E-03	1.904138E-04
3.857101E+03	5.645556E-03	1.891319E-04
3.866915E+03	5.607862E-03	1.878202E-04
3.876730E+03	5.568783E-03	1.864627E-04
3.886544E+03	5.528379E-03	1.850614E-04
3.896359E+03	5.486717E-03	1.836186E-04
3.906173E+03	5.443864E-03	1.821366E-04
3.915988E+03	5.400389E-03	1.806345E-04
3.925802E+03	5.355355E-03	1.790809E-04
3.935617E+03	5.309342E-03	1.774953E-04
3.945431E+03	5.262906E-03	1.758962E-04
3.955246E+03	5.215151E-03	1.742538E-04
3.965060E+03	5.167112E-03	1.726027E-04
3.974875E+03	5.118381E-03	1.709293E-04
3.984689E+03	5.068582E-03	1.692209E-04
3.994504E+03	5.018710E-03	1.675110E-04
4.004318E+03	4.968381E-03	1.657866E-04
4.014133E+03	4.917674E-03	1.640505E-04
4.023947E+03	4.866663E-03	1.623050E-04
4.033762E+03	4.815429E-03	1.605530E-04
4.043576E+03	4.763625E-03	1.587828E-04
4.053391E+03	4.712174E-03	1.570252E-04
4.063205E+03	4.660723E-03	1.552685E-04
4.073020E+03	4.609344E-03	1.535151E-04
4.082834E+03	4.558109E-03	1.517674E-04
4.092649E+03	4.507088E-03	1.500276E-04
4.102463E+03	4.456348E-03	1.482981E-04
4.112278E+03	4.405956E-03	1.465810E-04
4.122092E+03	4.355975E-03	1.448785E-04
4.131907E+03	4.306100E-03	1.431804E-04
4.141721E+03	4.257132E-03	1.415133E-04
4.151536E+03	4.208752E-03	1.398666E-04
4.161350E+03	4.160669E-03	1.382305E-04
4.171165E+03	4.113637E-03	1.366303E-04
4.180979E+03	4.067014E-03	1.350444E-04
4.190794E+03	4.021529E-03	1.334972E-04
4.200608E+03	3.976554E-03	1.319677E-04
4.210423E+03	3.932467E-03	1.304685E-04
4.220238E+03	3.889629E-03	1.290114E-04
4.230052E+03	3.847430E-03	1.275764E-04
4.239867E+03	3.806227E-03	1.261750E-04
4.249681E+03	3.765743E-03	1.247983E-04
4.259496E+03	3.726621E-03	1.234674E-04
4.269310E+03	3.688575E-03	1.221729E-04
4.279125E+03	3.651332E-03	1.209056E-04
4.288939E+03	3.615502E-03	1.196858E-04
4.298754E+03	3.580515E-03	1.184946E-04
4.308568E+03	3.546678E-03	1.173421E-04
4.318383E+03	3.514002E-03	1.162285E-04
4.328197E+03	3.482493E-03	1.151542E-04
4.338012E+03	3.451884E-03	1.141101E-04
4.347826E+03	3.422725E-03	1.131146E-04
4.357641E+03	3.394475E-03	1.121497E-04
4.367455E+03	3.367405E-03	1.112242E-04
4.377270E+03	3.341510E-03	1.103381E-04
4.387084E+03	3.316784E-03	1.094910E-04
4.396899E+03	3.292963E-03	1.086743E-04
4.406713E+03	3.270298E-03	1.078962E-04
4.416528E+03	3.248779E-03	1.071563E-04
4.426342E+03	3.228389E-03	1.064540E-04
4.436157E+03	3.209115E-03	1.057889E-04
4.445971E+03	3.190696E-03	1.051524E-04
4.455786E+03	3.173602E-03	1.045599E-04
4.465600E+03	3.157090E-03	1.039869E-04
4.475415E+03	3.141861E-03	1.034565E-04
4.485229E+03	3.127651E-03	1.029599E-04
4.495044E+03	3.114201E-03	1.024887E-04
4.504858E+03	3.101722E-03	1.020496E-04
4.514673E+03	3.090186E-03	1.016419E-04
4.524487E+03	3.079334E-03	1.012569E-04
4.534302E+03	3.069367E-03	1.009012E-04
4.544116E+03	3.060252E-03	1.005737E-04
4.553931E+03	3.051955E-03	1.002734E-04
4.563745E+03	3.044216E-03	9.999150E-05
4.573560E+03	3.037224E-03	9.973437E-05
4.583374E+03	3.030942E-03	9.950070E-05
4.593189E+03	3.025329E-03	9.928917E-05
4.603003E+03	3.020124E-03	9.909118E-05
4.612818E+03	3.015508E-03	9.891266E-05
4.622632E+03	3.011220E-03	9.874504E-05
4.632447E+03	3.007656E-03	9.860127E-05
4.642261E+03	3.004334E-03	9.846560E-05
4.652076E+03	3.001432E-03	9.834377E-05
4.661890E+03	2.998689E-03	9.822728E-05
4.671705E+03	2.996278E-03	9.812178E-05
4.681519E+03	2.994158E-03	9.802593E-05
4.691334E+03	2.992072E-03	9.793133E-05
4.701148E+03	2.990196E-03	9.784369E-05
4.710963E+03	2.988491E-03	9.776172E-05
4.720777E+03	2.986920E-03	9.768427E-05
4.730592E+03	2.985235E-03	9.760321E-05
4.740406E+03	2.983410E-03	9.751768E-05
4.750221E+03	2.981840E-03	9.744059E-05
4.760035E+03	2.980085E-03	9.735756E-05
4.769850E+03	2.978347E-03	9.727519E-05
4.779664E+03	2.976419E-03	9.718672E-05
4.789479E+03	2.974523E-03	9.709940E-05
4.799293E+03	2.972680E-03	9.701395E-05
4.809108E+03	2.970710E-03	9.692444E-05
4.818922E+03	2.969056E-03	9.684533E-05
4.828737E+03	2.967129E-03	9.675743E-05
4.838551E+03	2.965578E-03	9.668191E-05
4.848366E+03	2.964023E-03	9.660634E-05
4.858180E+03	2.962494E-03	9.653173E-05
4.867995E+03	2.961224E-03	9.646564E-05
4.877809E+03	2.960236E-03	9.640884E-05
4.887624E+03	2.959554E-03	9.636208E-05
4.897438E+03	2.958995E-03	9.631939E-05
4.907253E+03	2.958776E-03	9.628790E-05
4.917067E+03	2.958914E-03	9.626804E-05
4.926882E+03	2.959213E-03	9.625352E-05
4.936696E+03	2.959682E-03	9.624459E-05
4.946511E+03	2.960727E-03	9.625444E-05
4.956325E+03	2.961945E-03	9.626997E-05
4.966140E+03	2.963534E-03	9.629759E-05
4.975954E+03	2.965286E-03	9.633055E-05
4.985769E+03	2.967393E-03	9.637512E-05
4.995583E+03	2.969844E-03	9.643085E-05
5.005398E+03	2.972425E-03	9.649086E-05
5.015212E+03	2.975320E-03	9.656107E-05
5.025027E+03	2.978312E-03	9.663444E-05
5.034841E+03	2.981782E-03	9.672335E-05
5.044656E+03	2.985108E-03	9.680764E-05
5.054471E+03	2.988870E-03	9.690605E-05
5.064285E+03	2.992645E-03	9.700488E-05
5.074100E+03	2.996607E-03	9.710980E-05
5.083914E+03	3.000529E-03	9.721344E-05
5.093729E+03	3.004585E-03	9.732142E-05
5.103543E+03	3.008743E-03	9.743270E-05
5.113358E+03	3.012771E-03	9.753979E-05
5.123172E+03	3.016835E-03	9.764807E-05
5.132987E+03	3.020898E-03	9.775631E-05
5.142801E+03	3.024721E-03	9.785682E-05
5.152616E+03	3.028465E-03	9.795477E-05
5.162430E+03	3.032087E-03	9.804879E-05
5.172245E+03	3.035343E-03	9.813102E-05
5.182059E+03	3.038390E-03	9.820650E-05
5.191874E+03	3.041183E-03	9.827381E-05
5.201688E+03	3.043477E-03	9.832502E-05
5.211503E+03	3.045426E-03	9.836515E-05
5.221317E+03	3.046986E-03	9.839275E-05
5.231132E+03	3.047913E-03	9.840000E-05
5.240946E+03	3.048364E-03	9.839191E-05
5.250761E+03	3.048096E-03	9.836075E-05
5.260575E+03	3.047470E-03	9.831807E-05
5.270390E+03	3.046044E-03	9.824973E-05
5.280204E+03	3.043784E-03	9.815456E-05
5.290019E+03	3.041051E-03	9.804425E-05
5.299833E+03	3.037413E-03	9.790492E-05
5.309648E+03	3.032840E-03	9.773561E-05
5.319462E+03	3.027700E-03	9.754816E-05
5.329277E+03	3.021572E-03	9.732907E-05
5.339091E+03	3.014436E-03	9.707767E-05
5.348906E+03	3.006664E-03	9.680599E-05
5.358720E+03	2.997847E-03	9.650089E-05
5.368535E+03	2.988170E-03	9.616831E-05
5.378349E+03	2.977430E-03	9.580175E-05
5.388164E+03	2.965814E-03	9.540727E-05
5.397978E+03	2.953320E-03	9.498480E-05
5.407793E+03	2.939947E-03	9.453433E-05
5.417607E+03	2.925509E-03	9.404994E-05
5.427422E+03	2.910206E-03	9.353801E-05
5.437236E+03	2.894047E-03	9.299888E-05
5.447051E+03	2.876860E-03	9.242705E-05
5.456865E+03	2.858852E-03	9.182917E-05
5.466680E+03	2.840045E-03	9.120597E-05
5.476494E+03	2.820465E-03	9.055831E-05
5.486309E+03	2.799964E-03	8.988145E-05
5.496123E+03	2.778762E-03	8.918248E-05
5.505938E+03	2.756904E-03	8.846283E-05
5.515752E+03	2.734440E-03	8.772411E-05
5.525567E+03	2.711250E-03	8.696252E-05
5.535381E+03	2.687578E-03	8.618588E-05
5.545196E+03	2.663321E-03	8.539092E-05
5.555010E+03	2.638906E-03	8.459126E-05
5.564825E+03	2.614073E-03	8.377867E-05
5.574639E+03	2.589087E-03	8.296157E-05
5.584454E+03	2.564043E-03	8.214303E-05
5.594268E+03	2.538878E-03	8.132108E-05
5.604083E+03	2.514027E-03	8.050956E-05
5.613897E+03	2.489267E-03	7.970139E-05
5.623712E+03	2.464711E-03	7.890015E-05
5.633526E+03	2.440781E-03	7.811937E-05
5.643341E+03	2.417266E-03	7.735228E-05
5.653155E+03	2.394425E-03	7.660711E-05
5.662970E+03	2.372352E-03	7.588695E-05
5.672784E+03	2.351140E-03	7.519466E-05
5.682599E+03	2.330725E-03	7.452821E-05
5.692413E+03	2.311338E-03	7.389502E-05
5.702228E+03	2.293056E-03	7.329745E-05
5.712042E+03	2.275946E-03	7.273769E-05
5.721857E+03	2.259926E-03	7.221306E-05
5.731671E+03	2.245345E-03	7.173470E-05
5.741486E+03	2.231965E-03	7.129498E-05
5.751300E+03	2.219978E-03	7.090005E-05
5.761115E+03	2.209285E-03	7.054668E-05
5.770929E+03	2.200210E-03	7.024519E-05
5.780744E+03	2.192504E-03	6.998763E-05
5.790558E+03	2.186341E-03	6.977952E-05
5.800373E+03	2.181750E-03	6.962178E-05
5.810187E+03	2.178758E-03	6.951523E-05
5.820002E+03	2.177250E-03	6.945621E-05
5.829816E+03	2.177533E-03	6.945443E-05
5.839631E+03	2.179347E-03	6.950165E-05
5.849445E+03	2.182857E-03	6.960306E-05
5.859260E+03	2.188086E-03	6.975936E-05
5.869074E+03	2.195055E-03	6.997125E-05
5.878889E+03	2.203648E-03	7.023497E-05
5.888704E+03	2.214030E-03	7.055576E-05
5.898518E+03	2.226370E-03	7.093902E-05
5.908333E+03	2.240408E-03	7.137643E-05
5.918147E+03	2.256318E-03	7.187350E-05
5.927962E+03	2.273983E-03	7.242649E-05
5.937776E+03	2.293726E-03	7.304569E-05
5.947591E+03	2.315288E-03	7.372279E-05
5.957405E+03	2.338998E-03	7.446830E-05
5.967220E+03	2.364591E-03	7.527375E-05
5.977034E+03	2.392252E-03	7.614498E-05
5.986849E+03	2.422013E-03	7.708305E-05
5.996663E+03	2.453747E-03	7.808387E-05
6.006478E+03	2.487799E-03	7.915841E-05
6.016292E+03	2.523871E-03	8.029719E-05
6.026107E+03	2.562308E-03	8.151116E-05
6.035921E+03	2.602790E-03	8.279012E-05
6.045736E+03	2.645481E-03	8.413930E-05
6.055550E+03	2.690370E-03	8.555836E-05
6.065365E+03	2.737431E-03	8.704641E-05
6.075179E+03	2.786619E-03	8.860206E-05
6.084994E+03	2.837679E-03	9.021718E-05
6.094808E+03	2.890875E-03	9.190016E-05
6.104623E+03	2.945700E-03	9.363493E-05
6.114437E+03	3.002366E-03	9.542815E-05
6.124252E+03	3.060279E-03	9.726103E-05
6.134066E+03	3.119396E-03	9.913215E-05
6.143881E+03	3.179445E-03	1.010329E-04
6.153695E+03	3.240124E-03	1.029537E-04
6.163510E+03	3.301097E-03	1.048839E-04
6.173324E+03	3.361774E-03	1.068047E-04
6.183139E+03	3.422193E-03	1.087173E-04
6.192953E+03	3.481483E-03	1.105942E-04
6.202768E+03	3.539644E-03	1.124353E-04
6.212582E+03	3.595743E-03	1.142110E-04
6.222397E+03	3.649757E-03	1.159206E-04
6.232211E+03	3.700718E-03	1.175334E-04
6.242026E+03	3.748363E-03	1.190411E-04
6.251840E+03	3.792201E-03	1.204281E-04
6.261655E+03	3.831760E-03	1.216794E-04
6.271469E+03	3.866595E-03	1.227809E-04
6.281284E+03	3.896298E-03	1.237197E-04
6.291098E+03	3.920248E-03	1.244761E-04
6.300913E+03	3.938655E-03	1.250568E-04
6.310727E+03	3.951019E-03	1.254459E-04
6.320542E+03	3.956906E-03	1.256297E-04
6.330356E+03	3.956737E-03	1.256216E-04
6.340171E+03	3.949967E-03	1.254042E-04
6.349985E+03	3.936907E-03	1.249874E-04
6.359800E+03	3.917938E-03	1.243834E-04
6.369614E+03	3.892733E-03	1.235818E-04
6.379429E+03	3.861807E-03	1.225988E-04
6.389243E+03	3.825466E-03	1.214443E-04
6.399058E+03	3.784314E-03	1.201374E-04
6.408872E+03	3.738242E-03	1.186746E-04
6.418687E+03	3.687921E-03	1.170772E-04
6.428501E+03	3.633791E-03	1.153591E-04
6.438316E+03	3.576064E-03	1.135272E-04
6.448130E+03	3.515673E-03	1.116109E-04
6.457945E+03	3.452827E-03	1.096169E-04
6.467759E+03	3.387966E-03	1.075592E-04
6.477574E+03	3.321516E-03	1.054512E-04
6.487388E+03	3.253667E-03	1.032990E-04
6.497203E+03	3.185241E-03	1.011286E-04
6.507017E+03	3.116377E-03	9.894452E-05
6.516832E+03	3.047205E-03	9.675077E-05
6.526646E+03	2.978443E-03	9.457016E-05
6.536461E+03	2.909969E-03	9.239877E-05
6.546275E+03	2.842426E-03	9.025702E-05
6.556090E+03	2.775654E-03	8.813986E-05
6.565904E+03	2.710226E-03	8.606541E-05
6.575719E+03	2.645949E-03	8.402755E-05
6.585533E+03	2.583155E-03	8.203682E-05
6.595348E+03	2.522141E-03	8.010263E-05
6.605162E+03	2.462669E-03	7.821742E-05
6.614977E+03	2.404998E-03	7.638945E-05
6.624791E+03	2.349197E-03	7.462085E-05
6.634606E+03	2.295473E-03	7.291820E-05
6.644420E+03	2.243553E-03	7.127284E-05
6.654235E+03	2.193619E-03	6.969056E-05
6.664049E+03	2.145687E-03	6.817185E-05
6.673864E+03	2.099761E-03	6.671684E-05
6.683678E+03	2.055837E-03	6.532540E-05
6.693493E+03	2.013904E-03	6.399720E-05
6.703307E+03	1.973946E-03	6.273170E-05
6.713122E+03	1.935938E-03	6.152817E-05
6.722937E+03	1.899856E-03	6.038578E-05
6.732751E+03	1.865668E-03	5.930359E-05
6.742566E+03	1.833344E-03	5.828060E-05
6.752380E+03	1.802850E-03	5.731573E-05
6.762195E+03	1.774150E-03	5.640791E-05
6.772009E+03	1.747091E-03	5.555221E-05
6.781824E+03	1.721874E-03	5.475506E-05
6.791638E+03	1.698343E-03	5.401149E-05
6.801453E+03	1.676459E-03	5.332034E-05
6.811267E+03	1.656075E-03	5.267682E-05
6.821082E+03	1.637378E-03	5.208698E-05
6.830896E+03	1.620217E-03	5.154603E-05
6.840711E+03	1.604447E-03	5.104932E-05
6.850525E+03	1.590249E-03	5.060264E-05
6.860340E+03	1.577371E-03	5.019797E-05
6.870154E+03	1.565990E-03	4.984098E-05
6.879969E+03	1.555857E-03	4.952372E-05
6.889783E+03	1.547149E-03	4.925187E-05
6.899598E+03	1.539617E-03	4.901750E-05
6.909412E+03	1.533332E-03	4.882289E-05
6.919227E+03	1.528361E-03	4.867018E-05
6.929041E+03	1.524459E-03	4.855156E-05
6.938856E+03	1.521691E-03	4.846915E-05
6.948670E+03	1.520020E-03	4.842178E-05
6.958485E+03	1.519406E-03	4.840814E-05
6.968299E+03	1.519912E-03	4.843029E-05
6.978114E+03	1.521284E-03	4.848018E-05
6.987928E+03	1.523584E-03	4.855970E-05
6.997743E+03	1.526762E-03	4.866737E-05
7.007557E+03	1.530769E-03	4.880160E-05
7.017372E+03	1.535447E-03	4.895735E-05
7.027186E+03	1.540951E-03	4.913956E-05
7.037001E+03	1.547116E-03	4.934302E-05
7.046815E+03	1.553881E-03	4.956580E-05
7.056630E+03	1.561074E-03	4.980239E-05
7.066444E+03	1.568841E-03	5.005747E-05
7.076259E+03	1.577005E-03	5.032536E-05
7.086073E+03	1.585379E-03	5.060019E-05
7.095888E+03	1.594108E-03	5.088650E-05
7.105702E+03	1.602887E-03	5.117461E-05
7.115517E+03	1.611743E-03	5.146539E-05
7.125331E+03	1.620589E-03	5.175605E-05
7.135146E+03	1.629449E-03	5.204736E-05
7.144960E+03	1.638005E-03	5.232917E-05
7.154775E+03	1.646276E-03	5.260204E-05
7.164589E+03	1.654165E-03	5.286295E-05
7.174404E+03	1.661578E-03	5.310881E-05
7.184218E+03	1.668300E-03	5.333281E-05
7.194033E+03	1.674469E-03	5.353931E-05
7.203847E+03	1.679874E-03	5.372156E-05
7.213662E+03	1.684425E-03	5.387668E-05
7.223476E+03	1.687914E-03	5.399802E-05
7.233291E+03	1.690378E-03	5.408670E-05
7.243105E+03	1.691859E-03	5.414409E-05
7.252920E+03	1.692051E-03	5.416036E-05
7.262734E+03	1.691013E-03	5.413740E-05
7.272549E+03	1.688698E-03	5.407362E-05
7.282363E+03	1.685067E-03	5.396781E-05
7.292178E+03	1.680095E-03	5.381914E-05
7.301992E+03	1.673772E-03	5.362723E-05
7.311807E+03	1.666099E-03	5.339211E-05
7.321621E+03	1.656976E-03	5.311054E-05
7.331436E+03	1.646669E-03	5.279103E-05
7.341250E+03	1.634988E-03	5.242747E-05
7.351065E+03	1.622225E-03	5.202916E-05
7.360879E+03	1.608219E-03	5.159093E-05
7.370694E+03	1.593167E-03	5.111907E-05
7.380508E+03	1.577160E-03	5.061649E-05
7.390323E+03	1.560298E-03	5.008635E-05
7.400137E+03	1.542575E-03	4.952847E-05
7.409952E+03	1.524323E-03	4.895343E-05
7.419766E+03	1.505540E-03	4.836124E-05
7.429581E+03	1.486234E-03	4.775208E-05
7.439395E+03	1.466624E-03	4.713297E-05
7.449210E+03	1.446923E-03	4.651075E-05
7.459024E+03	1.427024E-03	4.588198E-05
7.468839E+03	1.407130E-03	4.525318E-05
7.478653E+03	1.387232E-03	4.462405E-05
7.488468E+03	1.367614E-03	4.400371E-05
7.498282E+03	1.348246E-03	4.339122E-05
7.508097E+03	1.329098E-03	4.278557E-05
7.517911E+03	1.310415E-03	4.219469E-05
7.527726E+03	1.292050E-03	4.161385E-05
7.537540E+03	1.274137E-03	4.104735E-05
7.547355E+03	1.256704E-03	4.049607E-05
7.557169E+03	1.239773E-03	3.996080E-05
7.566984E+03	1.223272E-03	3.943919E-05
7.576799E+03	1.207393E-03	3.893743E-05
7.586613E+03	1.191967E-03	3.845005E-05
7.596428E+03	1.177084E-03	3.798003E-05
7.606242E+03	1.162831E-03	3.753017E-05
7.616057E+03	1.148950E-03	3.709211E-05
