#wls	flux	fluxerr
1.600000E+03	4.495531E-15	2.913361E-16
1.640000E+03	4.190841E-15	2.703938E-16
1.680000E+03	3.902230E-15	2.506321E-16
1.720000E+03	3.630633E-15	2.321018E-16
1.760000E+03	3.377155E-15	2.148633E-16
1.800000E+03	3.142926E-15	1.989765E-16
1.840000E+03	2.927815E-15	1.844196E-16
1.880000E+03	2.732882E-15	1.712450E-16
1.920000E+03	2.558265E-15	1.594456E-16
1.960000E+03	2.404073E-15	1.490111E-16
2.000000E+03	2.270231E-15	1.399194E-16
2.040000E+03	2.156853E-15	1.321588E-16
2.080000E+03	2.063784E-15	1.257002E-16
2.120000E+03	1.990709E-15	1.205043E-16
2.160000E+03	1.937784E-15	1.165597E-16
2.200000E+03	1.904743E-15	1.138283E-16
2.240000E+03	1.891505E-15	1.122827E-16
2.280000E+03	1.898176E-15	1.119056E-16
2.320000E+03	1.924964E-15	1.126846E-16
2.360000E+03	1.972197E-15	1.146128E-16
2.400000E+03	2.040060E-15	1.176733E-16
2.440000E+03	2.128441E-15	1.218312E-16
2.480000E+03	2.237120E-15	1.270443E-16
2.520000E+03	2.365135E-15	1.332280E-16
2.560000E+03	2.511148E-15	1.402773E-16
2.600000E+03	2.672916E-15	1.480389E-16
2.640000E+03	2.847644E-15	1.563322E-16
2.680000E+03	3.031731E-15	1.649378E-16
2.720000E+03	3.221071E-15	1.736155E-16
2.760000E+03	3.411232E-15	1.821156E-16
2.800000E+03	3.597575E-15	1.901866E-16
2.840000E+03	3.775606E-15	1.975946E-16
2.880000E+03	3.941442E-15	2.041469E-16
2.920000E+03	4.091598E-15	2.096808E-16
2.960000E+03	4.223891E-15	2.141076E-16
3.000000E+03	4.336686E-15	2.173725E-16
3.010000E+03	4.361879E-15	2.180129E-16
3.020000E+03	4.385755E-15	2.185781E-16
3.030000E+03	4.408309E-15	2.190684E-16
3.040000E+03	4.429738E-15	2.194942E-16
3.050000E+03	4.449939E-15	2.198509E-16
3.060000E+03	4.468919E-15	2.201393E-16
3.070000E+03	4.486778E-15	2.203648E-16
3.080000E+03	4.503430E-15	2.205237E-16
3.090000E+03	4.518887E-15	2.206172E-16
3.100000E+03	4.533352E-15	2.206555E-16
3.110000E+03	4.546654E-15	2.206309E-16
3.120000E+03	4.558905E-15	2.205493E-16
3.130000E+03	4.570035E-15	2.204077E-16
3.140000E+03	4.580341E-15	2.202210E-16
3.150000E+03	4.589577E-15	2.199777E-16
3.160000E+03	4.597863E-15	2.196841E-16
3.170000E+03	4.605315E-15	2.193461E-16
3.180000E+03	4.611963E-15	2.189655E-16
3.190000E+03	4.617669E-15	2.185362E-16
3.200000E+03	4.622726E-15	2.180723E-16
3.210000E+03	4.626997E-15	2.175680E-16
3.220000E+03	4.630608E-15	2.170293E-16
3.230000E+03	4.633513E-15	2.164544E-16
3.240000E+03	4.635837E-15	2.158496E-16
3.250000E+03	4.637622E-15	2.152170E-16
3.260000E+03	4.638911E-15	2.145590E-16
3.270000E+03	4.639671E-15	2.138743E-16
3.280000E+03	4.640027E-15	2.131688E-16
3.290000E+03	4.640027E-15	2.124450E-16
3.300000E+03	4.639644E-15	2.117019E-16
3.310000E+03	4.639006E-15	2.109454E-16
3.320000E+03	4.638089E-15	2.101748E-16
3.330000E+03	4.637025E-15	2.093960E-16
3.340000E+03	4.635793E-15	2.086082E-16
3.350000E+03	4.634454E-15	2.078143E-16
3.360000E+03	4.633067E-15	2.070171E-16
3.370000E+03	4.631693E-15	2.062193E-16
3.380000E+03	4.630397E-15	2.054238E-16
3.390000E+03	4.629177E-15	2.046304E-16
3.400000E+03	4.628168E-15	2.038453E-16
3.410000E+03	4.627307E-15	2.030656E-16
3.420000E+03	4.626802E-15	2.023002E-16
3.430000E+03	4.626595E-15	2.015467E-16
3.440000E+03	4.626768E-15	2.008083E-16
3.450000E+03	4.627398E-15	2.000883E-16
3.460000E+03	4.628505E-15	1.993875E-16
3.470000E+03	4.630232E-15	1.987117E-16
3.480000E+03	4.632603E-15	1.980618E-16
3.490000E+03	4.635643E-15	1.974384E-16
3.500000E+03	4.639445E-15	1.968454E-16
3.510000E+03	4.644049E-15	1.962840E-16
3.520000E+03	4.649619E-15	1.957609E-16
3.530000E+03	4.656098E-15	1.952732E-16
3.540000E+03	4.663672E-15	1.948283E-16
3.550000E+03	4.672428E-15	1.944294E-16
3.560000E+03	4.682519E-15	1.940822E-16
3.570000E+03	4.694007E-15	1.937887E-16
3.580000E+03	4.707021E-15	1.935536E-16
3.590000E+03	4.721819E-15	1.933868E-16
3.600000E+03	4.738450E-15	1.932894E-16
3.610000E+03	4.757196E-15	1.932722E-16
3.620000E+03	4.778242E-15	1.933415E-16
3.630000E+03	4.801728E-15	1.935020E-16
3.640000E+03	4.827852E-15	1.937604E-16
3.650000E+03	4.856871E-15	1.941259E-16
3.660000E+03	4.888932E-15	1.946030E-16
3.670000E+03	4.924339E-15	1.952022E-16
3.680000E+03	4.963171E-15	1.959251E-16
3.690000E+03	5.005652E-15	1.967789E-16
3.700000E+03	5.051927E-15	1.977677E-16
3.710000E+03	5.102169E-15	1.988963E-16
3.720000E+03	5.156407E-15	2.001641E-16
3.730000E+03	5.214730E-15	2.015726E-16
3.740000E+03	5.277129E-15	2.031197E-16
3.750000E+03	5.343589E-15	2.048028E-16
3.760000E+03	5.413981E-15	2.066153E-16
3.770000E+03	5.488166E-15	2.085500E-16
3.780000E+03	5.565880E-15	2.105953E-16
3.790000E+03	5.646793E-15	2.127372E-16
3.800000E+03	5.730667E-15	2.149654E-16
3.810000E+03	5.816918E-15	2.172569E-16
3.820000E+03	5.905125E-15	2.195950E-16
3.830000E+03	5.994801E-15	2.219611E-16
3.840000E+03	6.085245E-15	2.243287E-16
3.850000E+03	6.175819E-15	2.266744E-16
3.860000E+03	6.265914E-15	2.289761E-16
3.870000E+03	6.354839E-15	2.312092E-16
3.880000E+03	6.441892E-15	2.333492E-16
3.890000E+03	6.526313E-15	2.353697E-16
3.900000E+03	6.607474E-15	2.372499E-16
3.910000E+03	6.684712E-15	2.389679E-16
3.920000E+03	6.757400E-15	2.405035E-16
3.930000E+03	6.824954E-15	2.418386E-16
3.940000E+03	6.886837E-15	2.429570E-16
3.950000E+03	6.942633E-15	2.438470E-16
3.960000E+03	6.991915E-15	2.444968E-16
3.970000E+03	7.034246E-15	2.448948E-16
3.980000E+03	7.069437E-15	2.450376E-16
3.990000E+03	7.097155E-15	2.449176E-16
4.000000E+03	7.117241E-15	2.445330E-16
4.010000E+03	7.129519E-15	2.438814E-16
4.020000E+03	7.133794E-15	2.429602E-16
4.030000E+03	7.130105E-15	2.417743E-16
4.040000E+03	7.118344E-15	2.403241E-16
4.050000E+03	7.098581E-15	2.386157E-16
4.060000E+03	7.070877E-15	2.366547E-16
4.070000E+03	7.035345E-15	2.344487E-16
4.080000E+03	6.992169E-15	2.320073E-16
4.090000E+03	6.941657E-15	2.293441E-16
4.100000E+03	6.884068E-15	2.264708E-16
4.110000E+03	6.819795E-15	2.234033E-16
4.120000E+03	6.749422E-15	2.201635E-16
4.130000E+03	6.673363E-15	2.167675E-16
4.140000E+03	6.592283E-15	2.132390E-16
4.150000E+03	6.506841E-15	2.096012E-16
4.160000E+03	6.417753E-15	2.058788E-16
4.170000E+03	6.325786E-15	2.020976E-16
4.180000E+03	6.231746E-15	1.982844E-16
4.190000E+03	6.136477E-15	1.944662E-16
4.200000E+03	6.040846E-15	1.906710E-16
4.210000E+03	5.945743E-15	1.869266E-16
4.220000E+03	5.852065E-15	1.832607E-16
4.230000E+03	5.760651E-15	1.796987E-16
4.240000E+03	5.672376E-15	1.762666E-16
4.250000E+03	5.588124E-15	1.729907E-16
4.260000E+03	5.508674E-15	1.698932E-16
4.270000E+03	5.434641E-15	1.669911E-16
4.280000E+03	5.366691E-15	1.643028E-16
4.290000E+03	5.305339E-15	1.618419E-16
4.300000E+03	5.250980E-15	1.596179E-16
4.310000E+03	5.203877E-15	1.576367E-16
4.320000E+03	5.164112E-15	1.558981E-16
4.330000E+03	5.131763E-15	1.544020E-16
4.340000E+03	5.106584E-15	1.531387E-16
4.350000E+03	5.088369E-15	1.520997E-16
4.360000E+03	5.076684E-15	1.512700E-16
4.370000E+03	5.071015E-15	1.506323E-16
4.380000E+03	5.070672E-15	1.501645E-16
4.390000E+03	5.074979E-15	1.498453E-16
4.400000E+03	5.083246E-15	1.496531E-16
4.410000E+03	5.094783E-15	1.495668E-16
4.420000E+03	5.108711E-15	1.495598E-16
4.430000E+03	5.124064E-15	1.496035E-16
4.440000E+03	5.139894E-15	1.496702E-16
4.450000E+03	5.155107E-15	1.497279E-16
4.460000E+03	5.168617E-15	1.497455E-16
4.470000E+03	5.179377E-15	1.496932E-16
4.480000E+03	5.186224E-15	1.495381E-16
4.490000E+03	5.188196E-15	1.492535E-16
4.500000E+03	5.184374E-15	1.488138E-16
4.510000E+03	5.173919E-15	1.481963E-16
4.520000E+03	5.156200E-15	1.473840E-16
4.530000E+03	5.130759E-15	1.463650E-16
4.540000E+03	5.097340E-15	1.451333E-16
4.550000E+03	5.055882E-15	1.436880E-16
4.560000E+03	5.006483E-15	1.420332E-16
4.570000E+03	4.949435E-15	1.401777E-16
4.580000E+03	4.885353E-15	1.381399E-16
4.590000E+03	4.814822E-15	1.359367E-16
4.600000E+03	4.738611E-15	1.335902E-16
4.610000E+03	4.657685E-15	1.311277E-16
4.620000E+03	4.573030E-15	1.285770E-16
4.630000E+03	4.485541E-15	1.259630E-16
4.640000E+03	4.396377E-15	1.233179E-16
4.650000E+03	4.306365E-15	1.206645E-16
4.660000E+03	4.216531E-15	1.180310E-16
4.670000E+03	4.127690E-15	1.154393E-16
4.680000E+03	4.040562E-15	1.129088E-16
4.690000E+03	3.955763E-15	1.104557E-16
4.700000E+03	3.873803E-15	1.080935E-16
4.710000E+03	3.795165E-15	1.058349E-16
4.720000E+03	3.720119E-15	1.036865E-16
4.730000E+03	3.648896E-15	1.016540E-16
4.740000E+03	3.581683E-15	9.974191E-17
4.750000E+03	3.518502E-15	9.795023E-17
4.760000E+03	3.459516E-15	9.628282E-17
4.770000E+03	3.404664E-15	9.473748E-17
4.780000E+03	3.354040E-15	9.331626E-17
4.790000E+03	3.307631E-15	9.201840E-17
4.800000E+03	3.265341E-15	9.084085E-17
4.810000E+03	3.227165E-15	8.978308E-17
4.820000E+03	3.193086E-15	8.884433E-17
4.830000E+03	3.162989E-15	8.802119E-17
4.840000E+03	3.136862E-15	8.731304E-17
4.850000E+03	3.114660E-15	8.671855E-17
4.860000E+03	3.096315E-15	8.623565E-17
4.870000E+03	3.081788E-15	8.586319E-17
4.880000E+03	3.071072E-15	8.560090E-17
4.890000E+03	3.064089E-15	8.544658E-17
4.900000E+03	3.060811E-15	8.539950E-17
4.910000E+03	3.061101E-15	8.545585E-17
4.920000E+03	3.064900E-15	8.561403E-17
4.930000E+03	3.072091E-15	8.587091E-17
4.940000E+03	3.082506E-15	8.622186E-17
4.950000E+03	3.096017E-15	8.666343E-17
4.960000E+03	3.112410E-15	8.718981E-17
4.970000E+03	3.131518E-15	8.779642E-17
4.980000E+03	3.153091E-15	8.847641E-17
4.990000E+03	3.176894E-15	8.922332E-17
5.000000E+03	3.202644E-15	9.002941E-17
5.010000E+03	3.230148E-15	9.088930E-17
5.020000E+03	3.259063E-15	9.179353E-17
5.030000E+03	3.289104E-15	9.273412E-17
5.040000E+03	3.320003E-15	9.370368E-17
5.050000E+03	3.351419E-15	9.469260E-17
5.060000E+03	3.383034E-15	9.569198E-17
5.070000E+03	3.414527E-15	9.669268E-17
5.080000E+03	3.445573E-15	9.768555E-17
5.090000E+03	3.475819E-15	9.866050E-17
5.100000E+03	3.504953E-15	9.960860E-17
5.110000E+03	3.532722E-15	1.005225E-16
5.120000E+03	3.558783E-15	1.013923E-16
5.130000E+03	3.582970E-15	1.022131E-16
5.140000E+03	3.604965E-15	1.029755E-16
5.150000E+03	3.624672E-15	1.036767E-16
5.160000E+03	3.641926E-15	1.043115E-16
5.170000E+03	3.656643E-15	1.048772E-16
5.180000E+03	3.668782E-15	1.053724E-16
5.190000E+03	3.678315E-15	1.057959E-16
5.200000E+03	3.685298E-15	1.061490E-16
5.210000E+03	3.689795E-15	1.064332E-16
5.220000E+03	3.692025E-15	1.066545E-16
5.230000E+03	3.692062E-15	1.068146E-16
5.240000E+03	3.690160E-15	1.069207E-16
5.250000E+03	3.686562E-15	1.069794E-16
5.260000E+03	3.681527E-15	1.069981E-16
5.270000E+03	3.675245E-15	1.069821E-16
5.280000E+03	3.668018E-15	1.069400E-16
5.290000E+03	3.660068E-15	1.068780E-16
5.300000E+03	3.651635E-15	1.068031E-16
5.310000E+03	3.642914E-15	1.067209E-16
5.320000E+03	3.634154E-15	1.066387E-16
5.330000E+03	3.625482E-15	1.065600E-16
5.340000E+03	3.617088E-15	1.064906E-16
5.350000E+03	3.609116E-15	1.064346E-16
5.360000E+03	3.601778E-15	1.063985E-16
5.370000E+03	3.595143E-15	1.063842E-16
5.380000E+03	3.589417E-15	1.063981E-16
5.390000E+03	3.584740E-15	1.064443E-16
5.400000E+03	3.581249E-15	1.065269E-16
5.410000E+03	3.578988E-15	1.066474E-16
5.420000E+03	3.578052E-15	1.068087E-16
5.430000E+03	3.578503E-15	1.070128E-16
5.440000E+03	3.580220E-15	1.072563E-16
5.450000E+03	3.583180E-15	1.075385E-16
5.460000E+03	3.587205E-15	1.078542E-16
5.470000E+03	3.592135E-15	1.081987E-16
5.480000E+03	3.597947E-15	1.085715E-16
5.490000E+03	3.604432E-15	1.089662E-16
5.500000E+03	3.611491E-15	1.093800E-16
5.510000E+03	3.618931E-15	1.098070E-16
5.520000E+03	3.626656E-15	1.102443E-16
5.530000E+03	3.634375E-15	1.106830E-16
5.540000E+03	3.641916E-15	1.111178E-16
5.550000E+03	3.649035E-15	1.115413E-16
5.560000E+03	3.655616E-15	1.119496E-16
5.570000E+03	3.661408E-15	1.123350E-16
5.580000E+03	3.666257E-15	1.126926E-16
5.590000E+03	3.669993E-15	1.130168E-16
5.600000E+03	3.672540E-15	1.133053E-16
5.610000E+03	3.673741E-15	1.135527E-16
5.620000E+03	3.673534E-15	1.137570E-16
5.630000E+03	3.671886E-15	1.139168E-16
5.640000E+03	3.668749E-15	1.140304E-16
5.650000E+03	3.664138E-15	1.140979E-16
5.660000E+03	3.658017E-15	1.141179E-16
5.670000E+03	3.650440E-15	1.140919E-16
5.680000E+03	3.641486E-15	1.140219E-16
5.690000E+03	3.631203E-15	1.139094E-16
5.700000E+03	3.619655E-15	1.137559E-16
5.710000E+03	3.606910E-15	1.135634E-16
5.720000E+03	3.593115E-15	1.133364E-16
5.730000E+03	3.578264E-15	1.130743E-16
5.740000E+03	3.562496E-15	1.127816E-16
5.750000E+03	3.545868E-15	1.124596E-16
5.760000E+03	3.528388E-15	1.121086E-16
5.770000E+03	3.510126E-15	1.117307E-16
5.780000E+03	3.491141E-15	1.113276E-16
5.790000E+03	3.471407E-15	1.108982E-16
5.800000E+03	3.450922E-15	1.104425E-16
5.810000E+03	3.429754E-15	1.099624E-16
5.820000E+03	3.407815E-15	1.094550E-16
5.830000E+03	3.385129E-15	1.089210E-16
5.840000E+03	3.361681E-15	1.083597E-16
5.850000E+03	3.337463E-15	1.077709E-16
5.860000E+03	3.312510E-15	1.071553E-16
5.870000E+03	3.286754E-15	1.065109E-16
5.880000E+03	3.260287E-15	1.058403E-16
5.890000E+03	3.233101E-15	1.051433E-16
5.900000E+03	3.205244E-15	1.044213E-16
5.910000E+03	3.176776E-15	1.036761E-16
5.920000E+03	3.147778E-15	1.029103E-16
5.930000E+03	3.118384E-15	1.021283E-16
5.940000E+03	3.088643E-15	1.013315E-16
5.950000E+03	3.058702E-15	1.005248E-16
5.960000E+03	3.028759E-15	9.971463E-17
5.970000E+03	2.999000E-15	9.890717E-17
5.980000E+03	2.969560E-15	9.810695E-17
5.990000E+03	2.940731E-15	9.732370E-17
6.000000E+03	2.912643E-15	9.656185E-17
6.010000E+03	2.885638E-15	9.583288E-17
6.020000E+03	2.859859E-15	9.514178E-17
6.030000E+03	2.835543E-15	9.449668E-17
6.040000E+03	2.812955E-15	9.390668E-17
6.050000E+03	2.792279E-15	9.337827E-17
6.060000E+03	2.773714E-15	9.291847E-17
6.070000E+03	2.757376E-15	9.253158E-17
6.080000E+03	2.743488E-15	9.222548E-17
6.090000E+03	2.732085E-15	9.200181E-17
6.100000E+03	2.723338E-15	9.186680E-17
6.110000E+03	2.717291E-15	9.182243E-17
6.120000E+03	2.713956E-15	9.186962E-17
6.130000E+03	2.713343E-15	9.200921E-17
6.140000E+03	2.715461E-15	9.224203E-17
6.150000E+03	2.720216E-15	9.256539E-17
6.160000E+03	2.727514E-15	9.297659E-17
6.170000E+03	2.737293E-15	9.347401E-17
6.180000E+03	2.749322E-15	9.405026E-17
6.190000E+03	2.763444E-15	9.470037E-17
6.200000E+03	2.779473E-15	9.541840E-17
6.210000E+03	2.797198E-15	9.619754E-17
6.220000E+03	2.816321E-15	9.702777E-17
6.230000E+03	2.836554E-15	9.789947E-17
6.240000E+03	2.857641E-15	9.880395E-17
6.250000E+03	2.879252E-15	9.972992E-17
6.260000E+03	2.901143E-15	1.006690E-16
6.270000E+03	2.923037E-15	1.016116E-16
6.280000E+03	2.944711E-15	1.025499E-16
6.290000E+03	2.965915E-15	1.034751E-16
6.300000E+03	2.986419E-15	1.043792E-16
6.310000E+03	3.006057E-15	1.052561E-16
6.320000E+03	3.024683E-15	1.061006E-16
6.330000E+03	3.042096E-15	1.069053E-16
6.340000E+03	3.058201E-15	1.076667E-16
6.350000E+03	3.072925E-15	1.083819E-16
6.360000E+03	3.086138E-15	1.090460E-16
6.370000E+03	3.097858E-15	1.096594E-16
6.380000E+03	3.108041E-15	1.102202E-16
6.390000E+03	3.116658E-15	1.107271E-16
6.400000E+03	3.123703E-15	1.111794E-16
6.410000E+03	3.129270E-15	1.115803E-16
6.420000E+03	3.133338E-15	1.119287E-16
6.430000E+03	3.136032E-15	1.122286E-16
6.440000E+03	3.137398E-15	1.124816E-16
6.450000E+03	3.137489E-15	1.126892E-16
6.460000E+03	3.136413E-15	1.128550E-16
6.470000E+03	3.134233E-15	1.129811E-16
6.480000E+03	3.131065E-15	1.130714E-16
6.490000E+03	3.126882E-15	1.131248E-16
6.500000E+03	3.121846E-15	1.131468E-16
6.510000E+03	3.116026E-15	1.131398E-16
6.520000E+03	3.109440E-15	1.131043E-16
6.530000E+03	3.102200E-15	1.130443E-16
6.540000E+03	3.094369E-15	1.129618E-16
6.550000E+03	3.086006E-15	1.128588E-16
6.560000E+03	3.077169E-15	1.127376E-16
6.570000E+03	3.067962E-15	1.126016E-16
6.580000E+03	3.058388E-15	1.124510E-16
6.590000E+03	3.048500E-15	1.122876E-16
6.600000E+03	3.038394E-15	1.121149E-16
6.610000E+03	3.028119E-15	1.119347E-16
6.620000E+03	3.017669E-15	1.117466E-16
6.630000E+03	3.007137E-15	1.115542E-16
6.640000E+03	2.996516E-15	1.113572E-16
6.650000E+03	2.985945E-15	1.111606E-16
6.660000E+03	2.975362E-15	1.109623E-16
6.670000E+03	2.964806E-15	1.107635E-16
6.680000E+03	2.954362E-15	1.105676E-16
6.690000E+03	2.944064E-15	1.103759E-16
6.700000E+03	2.933893E-15	1.101876E-16
6.710000E+03	2.923877E-15	1.100039E-16
6.720000E+03	2.914098E-15	1.098278E-16
6.730000E+03	2.904530E-15	1.096584E-16
6.740000E+03	2.895245E-15	1.094986E-16
6.750000E+03	2.886163E-15	1.093453E-16
6.760000E+03	2.877401E-15	1.092031E-16
6.770000E+03	2.868869E-15	1.090685E-16
6.780000E+03	2.860683E-15	1.089461E-16
6.790000E+03	2.852743E-15	1.088321E-16
6.800000E+03	2.845106E-15	1.087288E-16
6.810000E+03	2.837769E-15	1.086361E-16
6.820000E+03	2.830677E-15	1.085520E-16
6.830000E+03	2.823878E-15	1.084783E-16
6.840000E+03	2.817307E-15	1.084128E-16
6.850000E+03	2.811007E-15	1.083570E-16
6.860000E+03	2.804859E-15	1.083065E-16
6.870000E+03	2.798953E-15	1.082648E-16
6.880000E+03	2.793220E-15	1.082292E-16
6.890000E+03	2.787640E-15	1.081991E-16
6.900000E+03	2.782142E-15	1.081718E-16
6.910000E+03	2.776811E-15	1.081505E-16
6.920000E+03	2.771465E-15	1.081283E-16
6.930000E+03	2.766243E-15	1.081106E-16
6.940000E+03	2.761014E-15	1.080923E-16
6.950000E+03	2.755758E-15	1.080726E-16
6.960000E+03	2.750501E-15	1.080527E-16
6.970000E+03	2.745170E-15	1.080296E-16
6.980000E+03	2.739741E-15	1.080024E-16
6.990000E+03	2.734192E-15	1.079703E-16
7.000000E+03	2.728502E-15	1.079323E-16
7.010000E+03	2.722651E-15	1.078878E-16
7.020000E+03	2.716565E-15	1.078337E-16
7.030000E+03	2.710331E-15	1.077736E-16
7.040000E+03	2.703774E-15	1.077004E-16
7.050000E+03	2.697035E-15	1.076197E-16
7.060000E+03	2.689940E-15	1.075245E-16
7.070000E+03	2.682580E-15	1.074185E-16
7.080000E+03	2.674893E-15	1.072991E-16
7.090000E+03	2.666863E-15	1.071657E-16
7.100000E+03	2.658539E-15	1.070202E-16
7.110000E+03	2.649804E-15	1.068577E-16
7.120000E+03	2.640708E-15	1.066803E-16
7.130000E+03	2.631193E-15	1.064856E-16
7.140000E+03	2.621312E-15	1.062757E-16
7.150000E+03	2.611065E-15	1.060504E-16
7.160000E+03	2.600403E-15	1.058078E-16
7.170000E+03	2.589385E-15	1.055502E-16
7.180000E+03	2.577912E-15	1.052735E-16
7.190000E+03	2.566103E-15	1.049825E-16
7.200000E+03	2.553918E-15	1.046754E-16
7.210000E+03	2.541322E-15	1.043509E-16
7.220000E+03	2.528390E-15	1.040118E-16
7.230000E+03	2.515144E-15	1.036590E-16
7.240000E+03	2.501560E-15	1.032916E-16
7.250000E+03	2.487668E-15	1.029107E-16
7.260000E+03	2.473502E-15	1.025175E-16
7.270000E+03	2.459097E-15	1.021136E-16
7.280000E+03	2.444493E-15	1.017006E-16
7.290000E+03	2.429634E-15	1.012760E-16
7.300000E+03	2.414665E-15	1.008460E-16
7.310000E+03	2.399586E-15	1.004104E-16
7.320000E+03	2.384401E-15	9.996945E-17
7.330000E+03	2.369214E-15	9.952750E-17
7.340000E+03	2.353986E-15	9.908287E-17
7.350000E+03	2.338776E-15	9.863804E-17
7.360000E+03	2.323642E-15	9.819553E-17
7.370000E+03	2.308595E-15	9.775577E-17
7.380000E+03	2.293741E-15	9.732335E-17
7.390000E+03	2.278987E-15	9.689434E-17
7.400000E+03	2.264481E-15	9.647504E-17
7.410000E+03	2.250169E-15	9.606323E-17
7.420000E+03	2.236136E-15	9.566261E-17
7.430000E+03	2.222364E-15	9.527250E-17
7.440000E+03	2.208870E-15	9.489369E-17
7.450000E+03	2.195714E-15	9.452877E-17
7.460000E+03	2.182844E-15	9.417565E-17
7.470000E+03	2.170388E-15	9.383978E-17
7.480000E+03	2.158230E-15	9.351623E-17
7.490000E+03	2.146427E-15	9.320750E-17
7.500000E+03	2.134891E-15	9.290978E-17
7.510000E+03	2.123714E-15	9.262707E-17
7.520000E+03	2.112792E-15	9.235498E-17
7.530000E+03	2.102073E-15	9.209110E-17
7.540000E+03	2.091541E-15	9.183488E-17
7.550000E+03	2.081128E-15	9.158322E-17
7.560000E+03	2.070848E-15	9.133673E-17
7.570000E+03	2.060533E-15	9.108804E-17
7.580000E+03	2.050160E-15	9.083599E-17
7.590000E+03	2.039705E-15	9.057950E-17
7.600000E+03	2.029056E-15	9.031352E-17
7.610000E+03	2.018201E-15	9.003733E-17
7.620000E+03	2.007039E-15	8.974637E-17
7.630000E+03	1.995616E-15	8.944251E-17
7.640000E+03	1.983801E-15	8.911978E-17
7.650000E+03	1.971654E-15	8.878068E-17
7.660000E+03	1.959067E-15	8.842018E-17
7.670000E+03	1.946115E-15	8.804149E-17
7.680000E+03	1.932705E-15	8.764025E-17
7.690000E+03	1.918929E-15	8.722047E-17
7.700000E+03	1.904755E-15	8.678043E-17
7.710000E+03	1.890200E-15	8.632082E-17
7.720000E+03	1.875285E-15	8.584240E-17
7.730000E+03	1.860036E-15	8.534624E-17
7.740000E+03	1.844486E-15	8.483365E-17
7.750000E+03	1.828625E-15	8.430401E-17
7.760000E+03	1.812571E-15	8.376272E-17
