#wls	flux	fluxerr
1.600000E+03	4.023586E-15	2.660563E-16
1.640000E+03	3.756144E-15	2.473677E-16
1.680000E+03	3.503448E-15	2.297665E-16
1.720000E+03	3.266200E-15	2.132911E-16
1.760000E+03	3.045258E-15	1.979886E-16
1.800000E+03	2.841513E-15	1.839067E-16
1.840000E+03	2.654715E-15	1.710181E-16
1.880000E+03	2.485706E-15	1.593650E-16
1.920000E+03	2.334493E-15	1.489347E-16
1.960000E+03	2.201062E-15	1.397125E-16
2.000000E+03	2.085232E-15	1.316726E-16
2.040000E+03	1.986991E-15	1.247989E-16
2.080000E+03	1.906073E-15	1.190593E-16
2.120000E+03	1.842060E-15	1.144115E-16
2.160000E+03	1.794956E-15	1.108389E-16
2.200000E+03	1.764358E-15	1.082997E-16
2.240000E+03	1.750018E-15	1.067611E-16
2.280000E+03	1.751850E-15	1.061995E-16
2.320000E+03	1.769849E-15	1.065959E-16
2.360000E+03	1.804110E-15	1.079364E-16
2.400000E+03	1.854602E-15	1.101986E-16
2.440000E+03	1.921037E-15	1.133440E-16
2.480000E+03	2.003076E-15	1.173312E-16
2.520000E+03	2.099770E-15	1.220828E-16
2.560000E+03	2.209935E-15	1.275088E-16
2.600000E+03	2.331700E-15	1.334813E-16
2.640000E+03	2.462832E-15	1.398546E-16
2.680000E+03	2.600524E-15	1.464541E-16
2.720000E+03	2.741632E-15	1.530915E-16
2.760000E+03	2.882817E-15	1.595735E-16
2.800000E+03	3.020601E-15	1.657056E-16
2.840000E+03	3.151641E-15	1.713075E-16
2.880000E+03	3.273074E-15	1.762322E-16
2.920000E+03	3.382321E-15	1.803541E-16
2.960000E+03	3.477813E-15	1.836067E-16
3.000000E+03	3.558358E-15	1.859479E-16
3.010000E+03	3.576204E-15	1.863957E-16
3.020000E+03	3.593041E-15	1.867844E-16
3.030000E+03	3.608866E-15	1.871142E-16
3.040000E+03	3.623838E-15	1.873938E-16
3.050000E+03	3.637877E-15	1.876194E-16
3.060000E+03	3.650985E-15	1.877914E-16
3.070000E+03	3.663245E-15	1.879145E-16
3.080000E+03	3.674585E-15	1.879853E-16
3.090000E+03	3.685016E-15	1.880048E-16
3.100000E+03	3.694701E-15	1.879816E-16
3.110000E+03	3.703499E-15	1.879090E-16
3.120000E+03	3.711504E-15	1.877920E-16
3.130000E+03	3.718655E-15	1.876279E-16
3.140000E+03	3.725194E-15	1.874293E-16
3.150000E+03	3.730919E-15	1.871862E-16
3.160000E+03	3.735926E-15	1.869039E-16
3.170000E+03	3.740310E-15	1.865873E-16
3.180000E+03	3.744094E-15	1.862379E-16
3.190000E+03	3.747164E-15	1.858504E-16
3.200000E+03	3.749756E-15	1.854367E-16
3.210000E+03	3.751762E-15	1.849917E-16
3.220000E+03	3.753278E-15	1.845204E-16
3.230000E+03	3.754271E-15	1.840214E-16
3.240000E+03	3.754839E-15	1.834997E-16
3.250000E+03	3.755015E-15	1.829573E-16
3.260000E+03	3.754835E-15	1.823959E-16
3.270000E+03	3.754271E-15	1.818145E-16
3.280000E+03	3.753426E-15	1.812182E-16
3.290000E+03	3.752336E-15	1.806089E-16
3.300000E+03	3.750981E-15	1.799857E-16
3.310000E+03	3.749464E-15	1.793538E-16
3.320000E+03	3.747769E-15	1.787123E-16
3.330000E+03	3.745997E-15	1.780664E-16
3.340000E+03	3.744137E-15	1.774155E-16
3.350000E+03	3.742235E-15	1.767619E-16
3.360000E+03	3.740342E-15	1.761079E-16
3.370000E+03	3.738507E-15	1.754560E-16
3.380000E+03	3.736783E-15	1.748086E-16
3.390000E+03	3.735168E-15	1.741656E-16
3.400000E+03	3.733772E-15	1.735321E-16
3.410000E+03	3.732546E-15	1.729058E-16
3.420000E+03	3.731655E-15	1.722941E-16
3.430000E+03	3.731054E-15	1.716951E-16
3.440000E+03	3.730808E-15	1.711115E-16
3.450000E+03	3.730982E-15	1.705461E-16
3.460000E+03	3.731591E-15	1.699996E-16
3.470000E+03	3.732759E-15	1.694773E-16
3.480000E+03	3.734505E-15	1.689799E-16
3.490000E+03	3.736858E-15	1.685085E-16
3.500000E+03	3.739899E-15	1.680665E-16
3.510000E+03	3.743664E-15	1.676552E-16
3.520000E+03	3.748294E-15	1.672805E-16
3.530000E+03	3.753744E-15	1.669403E-16
3.540000E+03	3.760166E-15	1.666408E-16
3.550000E+03	3.767627E-15	1.663845E-16
3.560000E+03	3.776245E-15	1.661763E-16
3.570000E+03	3.786059E-15	1.660174E-16
3.580000E+03	3.797159E-15	1.659111E-16
3.590000E+03	3.809735E-15	1.658652E-16
3.600000E+03	3.823804E-15	1.658798E-16
3.610000E+03	3.839565E-15	1.659628E-16
3.620000E+03	3.857134E-15	1.661186E-16
3.630000E+03	3.876587E-15	1.663494E-16
3.640000E+03	3.898043E-15	1.666597E-16
3.650000E+03	3.921664E-15	1.670554E-16
3.660000E+03	3.947521E-15	1.675386E-16
3.670000E+03	3.975807E-15	1.681165E-16
3.680000E+03	4.006530E-15	1.687883E-16
3.690000E+03	4.039816E-15	1.695582E-16
3.700000E+03	4.075727E-15	1.704278E-16
3.710000E+03	4.114348E-15	1.713993E-16
3.720000E+03	4.155653E-15	1.724706E-16
3.730000E+03	4.199667E-15	1.736415E-16
3.740000E+03	4.246347E-15	1.749090E-16
3.750000E+03	4.295649E-15	1.762702E-16
3.760000E+03	4.347450E-15	1.777190E-16
3.770000E+03	4.401630E-15	1.792494E-16
3.780000E+03	4.457980E-15	1.808519E-16
3.790000E+03	4.516249E-15	1.825156E-16
3.800000E+03	4.576273E-15	1.842331E-16
3.810000E+03	4.637629E-15	1.859867E-16
3.820000E+03	4.700027E-15	1.877644E-16
3.830000E+03	4.763143E-15	1.895530E-16
3.840000E+03	4.826487E-15	1.913329E-16
3.850000E+03	4.889630E-15	1.930873E-16
3.860000E+03	4.952169E-15	1.948006E-16
3.870000E+03	5.013641E-15	1.964551E-16
3.880000E+03	5.073574E-15	1.980331E-16
3.890000E+03	5.131450E-15	1.995153E-16
3.900000E+03	5.186849E-15	2.008867E-16
3.910000E+03	5.239318E-15	2.021311E-16
3.920000E+03	5.288425E-15	2.032335E-16
3.930000E+03	5.333760E-15	2.041798E-16
3.940000E+03	5.374941E-15	2.049576E-16
3.950000E+03	5.411671E-15	2.055575E-16
3.960000E+03	5.443638E-15	2.059701E-16
3.970000E+03	5.470518E-15	2.061852E-16
3.980000E+03	5.492172E-15	2.062004E-16
3.990000E+03	5.508352E-15	2.060087E-16
4.000000E+03	5.518948E-15	2.056086E-16
4.010000E+03	5.523842E-15	2.049985E-16
4.020000E+03	5.522903E-15	2.041761E-16
4.030000E+03	5.516189E-15	2.031462E-16
4.040000E+03	5.503653E-15	2.019097E-16
4.050000E+03	5.485387E-15	2.004725E-16
4.060000E+03	5.461476E-15	1.988405E-16
4.070000E+03	5.432054E-15	1.970207E-16
4.080000E+03	5.397297E-15	1.950221E-16
4.090000E+03	5.357478E-15	1.928567E-16
4.100000E+03	5.312823E-15	1.905346E-16
4.110000E+03	5.263651E-15	1.880694E-16
4.120000E+03	5.210419E-15	1.854791E-16
4.130000E+03	5.153443E-15	1.827766E-16
4.140000E+03	5.093217E-15	1.799806E-16
4.150000E+03	5.030225E-15	1.771096E-16
4.160000E+03	4.964986E-15	1.741827E-16
4.170000E+03	4.898042E-15	1.712197E-16
4.180000E+03	4.829959E-15	1.682408E-16
4.190000E+03	4.761315E-15	1.652664E-16
4.200000E+03	4.692698E-15	1.623169E-16
4.210000E+03	4.624696E-15	1.594125E-16
4.220000E+03	4.557887E-15	1.565727E-16
4.230000E+03	4.492796E-15	1.538149E-16
4.240000E+03	4.429960E-15	1.511567E-16
4.250000E+03	4.369925E-15	1.486157E-16
4.260000E+03	4.313148E-15	1.462065E-16
4.270000E+03	4.259962E-15	1.439389E-16
4.280000E+03	4.210754E-15	1.418247E-16
4.290000E+03	4.165804E-15	1.398721E-16
4.300000E+03	4.125318E-15	1.380865E-16
4.310000E+03	4.089428E-15	1.364707E-16
4.320000E+03	4.058143E-15	1.350238E-16
4.330000E+03	4.031502E-15	1.337453E-16
4.340000E+03	4.009314E-15	1.326277E-16
4.350000E+03	3.991452E-15	1.316653E-16
4.360000E+03	3.977637E-15	1.308476E-16
4.370000E+03	3.967559E-15	1.301634E-16
4.380000E+03	3.960812E-15	1.295983E-16
4.390000E+03	3.956974E-15	1.291377E-16
4.400000E+03	3.955549E-15	1.287648E-16
4.410000E+03	3.956068E-15	1.284637E-16
4.420000E+03	3.957950E-15	1.282153E-16
4.430000E+03	3.960574E-15	1.279991E-16
4.440000E+03	3.963359E-15	1.277963E-16
4.450000E+03	3.965631E-15	1.275854E-16
4.460000E+03	3.966739E-15	1.273455E-16
4.470000E+03	3.966081E-15	1.270577E-16
4.480000E+03	3.962962E-15	1.267001E-16
4.490000E+03	3.956841E-15	1.262560E-16
4.500000E+03	3.947198E-15	1.257095E-16
4.510000E+03	3.933550E-15	1.250456E-16
4.520000E+03	3.915541E-15	1.242539E-16
4.530000E+03	3.892917E-15	1.233269E-16
4.540000E+03	3.865532E-15	1.222607E-16
4.550000E+03	3.833355E-15	1.210548E-16
4.560000E+03	3.796432E-15	1.197112E-16
4.570000E+03	3.754925E-15	1.182354E-16
4.580000E+03	3.709199E-15	1.166394E-16
4.590000E+03	3.659574E-15	1.149333E-16
4.600000E+03	3.606481E-15	1.131310E-16
4.610000E+03	3.550482E-15	1.112499E-16
4.620000E+03	3.492150E-15	1.093081E-16
4.630000E+03	3.431980E-15	1.073207E-16
4.640000E+03	3.370678E-15	1.053097E-16
4.650000E+03	3.308710E-15	1.032893E-16
4.660000E+03	3.246714E-15	1.012790E-16
4.670000E+03	3.185196E-15	9.929395E-17
4.680000E+03	3.124614E-15	9.734796E-17
4.690000E+03	3.065381E-15	9.545324E-17
4.700000E+03	3.007855E-15	9.362036E-17
4.710000E+03	2.952399E-15	9.186005E-17
4.720000E+03	2.899234E-15	9.017862E-17
4.730000E+03	2.848561E-15	8.858182E-17
4.740000E+03	2.800568E-15	8.707498E-17
4.750000E+03	2.755316E-15	8.565957E-17
4.760000E+03	2.712978E-15	8.434053E-17
4.770000E+03	2.673530E-15	8.311677E-17
4.780000E+03	2.637068E-15	8.199093E-17
4.790000E+03	2.603609E-15	8.096327E-17
4.800000E+03	2.573106E-15	8.003204E-17
4.810000E+03	2.545575E-15	7.919759E-17
4.820000E+03	2.521026E-15	7.846001E-17
4.830000E+03	2.499380E-15	7.781673E-17
4.840000E+03	2.480635E-15	7.726755E-17
4.850000E+03	2.464754E-15	7.681130E-17
4.860000E+03	2.451676E-15	7.644601E-17
4.870000E+03	2.441359E-15	7.617038E-17
4.880000E+03	2.433784E-15	7.598377E-17
4.890000E+03	2.428871E-15	7.588382E-17
4.900000E+03	2.426587E-15	7.586950E-17
4.910000E+03	2.426814E-15	7.593724E-17
4.920000E+03	2.429498E-15	7.608545E-17
4.930000E+03	2.434550E-15	7.631144E-17
4.940000E+03	2.441843E-15	7.661139E-17
4.950000E+03	2.451287E-15	7.698259E-17
4.960000E+03	2.462733E-15	7.742049E-17
4.970000E+03	2.476063E-15	7.792160E-17
4.980000E+03	2.491103E-15	7.848055E-17
4.990000E+03	2.507690E-15	7.909238E-17
5.000000E+03	2.525625E-15	7.975093E-17
5.010000E+03	2.544776E-15	8.045221E-17
5.020000E+03	2.564900E-15	8.118858E-17
5.030000E+03	2.585796E-15	8.195381E-17
5.040000E+03	2.607283E-15	8.274227E-17
5.050000E+03	2.629124E-15	8.354648E-17
5.060000E+03	2.651104E-15	8.435962E-17
5.070000E+03	2.673008E-15	8.517487E-17
5.080000E+03	2.694623E-15	8.598541E-17
5.090000E+03	2.715713E-15	8.678368E-17
5.100000E+03	2.736078E-15	8.756318E-17
5.110000E+03	2.755560E-15	8.831872E-17
5.120000E+03	2.773929E-15	8.904277E-17
5.130000E+03	2.791088E-15	8.973210E-17
5.140000E+03	2.806820E-15	9.037943E-17
5.150000E+03	2.821073E-15	9.098294E-17
5.160000E+03	2.833738E-15	9.153879E-17
5.170000E+03	2.844761E-15	9.204497E-17
5.180000E+03	2.854118E-15	9.250042E-17
5.190000E+03	2.861783E-15	9.290402E-17
5.200000E+03	2.867791E-15	9.325657E-17
5.210000E+03	2.872176E-15	9.355887E-17
5.220000E+03	2.875083E-15	9.381532E-17
5.230000E+03	2.876535E-15	9.402643E-17
5.240000E+03	2.876692E-15	9.419715E-17
5.250000E+03	2.875705E-15	9.433211E-17
5.260000E+03	2.873733E-15	9.443633E-17
5.270000E+03	2.870886E-15	9.451322E-17
5.280000E+03	2.867368E-15	9.456929E-17
5.290000E+03	2.863324E-15	9.460921E-17
5.300000E+03	2.858928E-15	9.463857E-17
5.310000E+03	2.854323E-15	9.466201E-17
5.320000E+03	2.849702E-15	9.468587E-17
5.330000E+03	2.845166E-15	9.471346E-17
5.340000E+03	2.840867E-15	9.474988E-17
5.350000E+03	2.836920E-15	9.479893E-17
5.360000E+03	2.833490E-15	9.486621E-17
5.370000E+03	2.830617E-15	9.495314E-17
5.380000E+03	2.828447E-15	9.506466E-17
5.390000E+03	2.827058E-15	9.520349E-17
5.400000E+03	2.826511E-15	9.537183E-17
5.410000E+03	2.826798E-15	9.556946E-17
5.420000E+03	2.827951E-15	9.579755E-17
5.430000E+03	2.829976E-15	9.605647E-17
5.440000E+03	2.832746E-15	9.634199E-17
5.450000E+03	2.836221E-15	9.665284E-17
5.460000E+03	2.840253E-15	9.698406E-17
5.470000E+03	2.844723E-15	9.733166E-17
5.480000E+03	2.849634E-15	9.769575E-17
5.490000E+03	2.854850E-15	9.807172E-17
5.500000E+03	2.860336E-15	9.845838E-17
5.510000E+03	2.865982E-15	9.885192E-17
5.520000E+03	2.871756E-15	9.925124E-17
5.530000E+03	2.877476E-15	9.965002E-17
5.540000E+03	2.883045E-15	1.000448E-16
5.550000E+03	2.888306E-15	1.004302E-16
5.560000E+03	2.893201E-15	1.008039E-16
5.570000E+03	2.897556E-15	1.011598E-16
5.580000E+03	2.901270E-15	1.014942E-16
5.590000E+03	2.904223E-15	1.018027E-16
5.600000E+03	2.906370E-15	1.020836E-16
5.610000E+03	2.907587E-15	1.023322E-16
5.620000E+03	2.907831E-15	1.025468E-16
5.630000E+03	2.907069E-15	1.027261E-16
5.640000E+03	2.905260E-15	1.028682E-16
5.650000E+03	2.902401E-15	1.029730E-16
5.660000E+03	2.898450E-15	1.030385E-16
5.670000E+03	2.893433E-15	1.030655E-16
5.680000E+03	2.887389E-15	1.030551E-16
5.690000E+03	2.880337E-15	1.030078E-16
5.700000E+03	2.872302E-15	1.029242E-16
5.710000E+03	2.863315E-15	1.028051E-16
5.720000E+03	2.853470E-15	1.026539E-16
5.730000E+03	2.842744E-15	1.024693E-16
5.740000E+03	2.831230E-15	1.022546E-16
5.750000E+03	2.818960E-15	1.020107E-16
5.760000E+03	2.805934E-15	1.017375E-16
5.770000E+03	2.792209E-15	1.014369E-16
5.780000E+03	2.777833E-15	1.011105E-16
5.790000E+03	2.762796E-15	1.007577E-16
5.800000E+03	2.747109E-15	1.003788E-16
5.810000E+03	2.730844E-15	9.997633E-17
5.820000E+03	2.713951E-15	9.954827E-17
5.830000E+03	2.696468E-15	9.909593E-17
5.840000E+03	2.678406E-15	9.861957E-17
5.850000E+03	2.659781E-15	9.811967E-17
5.860000E+03	2.640639E-15	9.759780E-17
5.870000E+03	2.620948E-15	9.705265E-17
5.880000E+03	2.600798E-15	9.648748E-17
5.890000E+03	2.580200E-15	9.590264E-17
5.900000E+03	2.559208E-15	9.529997E-17
5.910000E+03	2.537883E-15	9.468174E-17
5.920000E+03	2.516299E-15	9.405063E-17
5.930000E+03	2.494570E-15	9.341086E-17
5.940000E+03	2.472739E-15	9.276401E-17
5.950000E+03	2.450914E-15	9.211419E-17
5.960000E+03	2.429250E-15	9.146717E-17
5.970000E+03	2.407876E-15	9.082791E-17
5.980000E+03	2.386879E-15	9.019978E-17
5.990000E+03	2.366466E-15	8.959066E-17
6.000000E+03	2.346708E-15	8.900339E-17
6.010000E+03	2.327843E-15	8.844719E-17
6.020000E+03	2.309947E-15	8.792516E-17
6.030000E+03	2.293174E-15	8.744332E-17
6.040000E+03	2.277699E-15	8.700867E-17
6.050000E+03	2.263636E-15	8.662579E-17
6.060000E+03	2.251113E-15	8.629994E-17
6.070000E+03	2.240194E-15	8.603389E-17
6.080000E+03	2.231035E-15	8.583396E-17
6.090000E+03	2.223640E-15	8.570071E-17
6.100000E+03	2.218130E-15	8.563920E-17
6.110000E+03	2.214526E-15	8.565060E-17
6.120000E+03	2.212830E-15	8.573539E-17
6.130000E+03	2.213045E-15	8.589415E-17
6.140000E+03	2.215184E-15	8.612772E-17
6.150000E+03	2.219180E-15	8.643399E-17
6.160000E+03	2.224975E-15	8.681098E-17
6.170000E+03	2.232539E-15	8.725800E-17
6.180000E+03	2.241717E-15	8.776931E-17
6.190000E+03	2.252413E-15	8.834147E-17
6.200000E+03	2.264514E-15	8.897047E-17
6.210000E+03	2.277896E-15	8.965163E-17
6.220000E+03	2.292360E-15	9.037746E-17
6.230000E+03	2.307724E-15	9.114098E-17
6.240000E+03	2.323834E-15	9.193621E-17
6.250000E+03	2.340464E-15	9.275445E-17
6.260000E+03	2.357454E-15	9.358935E-17
6.270000E+03	2.374612E-15	9.443337E-17
6.280000E+03	2.391785E-15	9.528041E-17
6.290000E+03	2.408794E-15	9.612332E-17
6.300000E+03	2.425469E-15	9.695525E-17
6.310000E+03	2.441681E-15	9.777103E-17
6.320000E+03	2.457320E-15	9.856603E-17
6.330000E+03	2.472220E-15	9.933348E-17
6.340000E+03	2.486295E-15	1.000698E-16
6.350000E+03	2.499479E-15	1.007721E-16
6.360000E+03	2.511649E-15	1.014352E-16
6.370000E+03	2.522805E-15	1.020590E-16
6.380000E+03	2.532890E-15	1.026407E-16
6.390000E+03	2.541860E-15	1.031786E-16
6.400000E+03	2.549687E-15	1.036711E-16
6.410000E+03	2.556429E-15	1.041204E-16
6.420000E+03	2.562041E-15	1.045245E-16
6.430000E+03	2.566605E-15	1.048863E-16
6.440000E+03	2.570137E-15	1.052064E-16
6.450000E+03	2.572656E-15	1.054854E-16
6.460000E+03	2.574232E-15	1.057257E-16
6.470000E+03	2.574898E-15	1.059288E-16
6.480000E+03	2.574732E-15	1.060975E-16
6.490000E+03	2.573696E-15	1.062301E-16
6.500000E+03	2.571912E-15	1.063314E-16
6.510000E+03	2.569425E-15	1.064032E-16
6.520000E+03	2.566242E-15	1.064457E-16
6.530000E+03	2.562447E-15	1.064621E-16
6.540000E+03	2.558086E-15	1.064542E-16
6.550000E+03	2.553204E-15	1.064239E-16
6.560000E+03	2.547846E-15	1.063728E-16
6.570000E+03	2.542096E-15	1.063044E-16
6.580000E+03	2.535956E-15	1.062187E-16
6.590000E+03	2.529466E-15	1.061174E-16
6.600000E+03	2.522708E-15	1.060037E-16
6.610000E+03	2.515720E-15	1.058792E-16
6.620000E+03	2.508501E-15	1.057439E-16
6.630000E+03	2.501127E-15	1.056009E-16
6.640000E+03	2.493591E-15	1.054498E-16
6.650000E+03	2.486013E-15	1.052958E-16
6.660000E+03	2.478339E-15	1.051366E-16
6.670000E+03	2.470602E-15	1.049734E-16
6.680000E+03	2.462872E-15	1.048094E-16
6.690000E+03	2.455178E-15	1.046457E-16
6.700000E+03	2.447505E-15	1.044817E-16
6.710000E+03	2.439876E-15	1.043185E-16
6.720000E+03	2.432359E-15	1.041589E-16
6.730000E+03	2.424929E-15	1.040019E-16
6.740000E+03	2.417650E-15	1.038503E-16
6.750000E+03	2.410451E-15	1.037011E-16
6.760000E+03	2.403434E-15	1.035586E-16
6.770000E+03	2.396522E-15	1.034197E-16
6.780000E+03	2.389813E-15	1.032885E-16
6.790000E+03	2.383226E-15	1.031617E-16
6.800000E+03	2.376808E-15	1.030412E-16
6.810000E+03	2.370563E-15	1.029274E-16
6.820000E+03	2.364445E-15	1.028182E-16
6.830000E+03	2.358497E-15	1.027157E-16
6.840000E+03	2.352668E-15	1.026175E-16
6.850000E+03	2.346997E-15	1.025255E-16
6.860000E+03	2.341390E-15	1.024355E-16
6.870000E+03	2.335923E-15	1.023509E-16
6.880000E+03	2.330541E-15	1.022694E-16
6.890000E+03	2.325232E-15	1.021905E-16
6.900000E+03	2.319940E-15	1.021117E-16
6.910000E+03	2.314738E-15	1.020363E-16
6.920000E+03	2.309478E-15	1.019577E-16
6.930000E+03	2.304279E-15	1.018813E-16
6.940000E+03	2.299035E-15	1.018023E-16
6.950000E+03	2.293731E-15	1.017201E-16
6.960000E+03	2.288396E-15	1.016361E-16
6.970000E+03	2.282968E-15	1.015473E-16
6.980000E+03	2.277431E-15	1.014533E-16
6.990000E+03	2.271771E-15	1.013532E-16
7.000000E+03	2.265972E-15	1.012464E-16
7.010000E+03	2.260021E-15	1.011324E-16
7.020000E+03	2.253858E-15	1.010083E-16
7.030000E+03	2.247559E-15	1.008776E-16
7.040000E+03	2.240981E-15	1.007339E-16
7.050000E+03	2.234244E-15	1.005824E-16
7.060000E+03	2.227206E-15	1.004169E-16
7.070000E+03	2.219947E-15	1.002408E-16
7.080000E+03	2.212414E-15	1.000518E-16
7.090000E+03	2.204603E-15	9.984953E-17
7.100000E+03	2.196552E-15	9.963580E-17
7.110000E+03	2.188170E-15	9.940644E-17
7.120000E+03	2.179499E-15	9.916329E-17
7.130000E+03	2.170497E-15	9.890436E-17
7.140000E+03	2.161210E-15	9.863170E-17
7.150000E+03	2.151640E-15	9.834541E-17
7.160000E+03	2.141751E-15	9.804375E-17
7.170000E+03	2.131594E-15	9.772902E-17
7.180000E+03	2.121092E-15	9.739765E-17
7.190000E+03	2.110344E-15	9.705416E-17
7.200000E+03	2.099322E-15	9.669715E-17
7.210000E+03	2.088000E-15	9.632545E-17
7.220000E+03	2.076440E-15	9.594186E-17
7.230000E+03	2.064665E-15	9.554733E-17
7.240000E+03	2.052655E-15	9.514100E-17
7.250000E+03	2.040437E-15	9.472404E-17
7.260000E+03	2.028041E-15	9.429779E-17
7.270000E+03	2.015497E-15	9.386369E-17
7.280000E+03	2.002840E-15	9.342325E-17
7.290000E+03	1.990022E-15	9.297426E-17
7.300000E+03	1.977162E-15	9.252227E-17
7.310000E+03	1.964260E-15	9.206724E-17
7.320000E+03	1.951315E-15	9.160917E-17
7.330000E+03	1.938409E-15	9.115190E-17
7.340000E+03	1.925503E-15	9.069361E-17
7.350000E+03	1.912642E-15	9.023636E-17
7.360000E+03	1.899866E-15	8.978215E-17
7.370000E+03	1.887177E-15	8.933106E-17
7.380000E+03	1.874654E-15	8.888686E-17
7.390000E+03	1.862216E-15	8.844570E-17
7.400000E+03	1.849972E-15	8.801291E-17
7.410000E+03	1.837877E-15	8.758626E-17
7.420000E+03	1.825992E-15	8.716877E-17
7.430000E+03	1.814298E-15	8.675959E-17
7.440000E+03	1.802808E-15	8.635937E-17
7.450000E+03	1.791569E-15	8.597038E-17
7.460000E+03	1.780541E-15	8.559084E-17
7.470000E+03	1.769836E-15	8.522603E-17
7.480000E+03	1.759363E-15	8.487164E-17
7.490000E+03	1.749181E-15	8.453056E-17
7.500000E+03	1.739228E-15	8.419982E-17
7.510000E+03	1.729587E-15	8.388348E-17
7.520000E+03	1.720188E-15	8.357814E-17
7.530000E+03	1.710992E-15	8.328200E-17
7.540000E+03	1.701993E-15	8.299470E-17
7.550000E+03	1.693145E-15	8.271407E-17
7.560000E+03	1.684473E-15	8.244130E-17
7.570000E+03	1.675850E-15	8.217019E-17
7.580000E+03	1.667262E-15	8.190007E-17
7.590000E+03	1.658694E-15	8.163017E-17
7.600000E+03	1.650064E-15	8.135638E-17
7.610000E+03	1.641363E-15	8.107819E-17
7.620000E+03	1.632512E-15	8.079171E-17
7.630000E+03	1.623549E-15	8.049875E-17
7.640000E+03	1.614369E-15	8.019400E-17
7.650000E+03	1.605021E-15	7.987977E-17
7.660000E+03	1.595409E-15	7.955127E-17
7.670000E+03	1.585594E-15	7.921139E-17
7.680000E+03	1.575492E-15	7.885588E-17
7.690000E+03	1.565172E-15	7.848808E-17
7.700000E+03	1.554599E-15	7.810615E-17
7.710000E+03	1.543779E-15	7.771024E-17
7.720000E+03	1.532723E-15	7.730082E-17
7.730000E+03	1.521441E-15	7.687838E-17
7.740000E+03	1.509953E-15	7.644372E-17
7.750000E+03	1.498242E-15	7.599599E-17
7.760000E+03	1.486399E-15	7.553969E-17
