#wls	flux	fluxerr
1.600000E+03	3.717765E-16	3.609144E-17
1.640000E+03	3.683279E-16	3.564696E-17
1.680000E+03	3.650052E-16	3.521386E-17
1.720000E+03	3.618110E-16	3.479230E-17
1.760000E+03	3.588871E-16	3.439578E-17
1.800000E+03	3.561625E-16	3.401727E-17
1.840000E+03	3.537060E-16	3.366310E-17
1.880000E+03	3.514468E-16	3.332634E-17
1.920000E+03	3.494519E-16	3.301308E-17
1.960000E+03	3.477182E-16	3.272276E-17
2.000000E+03	3.463093E-16	3.246105E-17
2.040000E+03	3.452200E-16	3.222707E-17
2.080000E+03	3.444450E-16	3.201995E-17
2.120000E+03	3.439785E-16	3.183874E-17
2.160000E+03	3.438146E-16	3.168248E-17
2.200000E+03	3.440759E-16	3.156201E-17
2.240000E+03	3.446245E-16	3.146414E-17
2.280000E+03	3.455169E-16	3.139356E-17
2.320000E+03	3.468074E-16	3.135465E-17
2.360000E+03	3.484220E-16	3.134012E-17
2.400000E+03	3.503504E-16	3.134849E-17
2.440000E+03	3.526437E-16	3.138377E-17
2.480000E+03	3.552271E-16	3.143869E-17
2.520000E+03	3.581491E-16	3.151694E-17
2.560000E+03	3.613949E-16	3.161658E-17
2.600000E+03	3.648874E-16	3.173026E-17
2.640000E+03	3.687313E-16	3.186647E-17
2.680000E+03	3.729072E-16	3.202279E-17
2.720000E+03	3.773337E-16	3.219157E-17
2.760000E+03	3.820488E-16	3.237541E-17
2.800000E+03	3.870873E-16	3.257655E-17
2.840000E+03	3.924218E-16	3.279191E-17
2.880000E+03	3.981398E-16	3.302801E-17
2.920000E+03	4.042079E-16	3.328118E-17
2.960000E+03	4.107628E-16	3.356168E-17
3.000000E+03	4.177626E-16	3.386498E-17
3.010000E+03	4.196321E-16	3.394828E-17
3.020000E+03	4.214795E-16	3.402887E-17
3.030000E+03	4.234178E-16	3.411586E-17
3.040000E+03	4.253892E-16	3.420456E-17
3.050000E+03	4.273930E-16	3.429488E-17
3.060000E+03	4.294281E-16	3.438673E-17
3.070000E+03	4.315502E-16	3.448452E-17
3.080000E+03	4.337017E-16	3.458363E-17
3.090000E+03	4.358820E-16	3.468397E-17
3.100000E+03	4.380900E-16	3.478545E-17
3.110000E+03	4.404362E-16	3.489680E-17
3.120000E+03	4.427523E-16	3.500464E-17
3.130000E+03	4.452039E-16	3.512205E-17
3.140000E+03	4.476237E-16	3.523577E-17
3.150000E+03	4.501762E-16	3.535875E-17
3.160000E+03	4.527500E-16	3.548217E-17
3.170000E+03	4.554534E-16	3.561449E-17
3.180000E+03	4.581755E-16	3.574699E-17
3.190000E+03	4.609698E-16	3.588380E-17
3.200000E+03	4.638346E-16	3.602477E-17
3.210000E+03	4.668228E-16	3.617393E-17
3.220000E+03	4.698245E-16	3.632273E-17
3.230000E+03	4.729462E-16	3.647936E-17
3.240000E+03	4.761858E-16	3.664360E-17
3.250000E+03	4.794880E-16	3.681113E-17
3.260000E+03	4.828511E-16	3.698177E-17
3.270000E+03	4.863267E-16	3.715943E-17
3.280000E+03	4.899128E-16	3.734389E-17
3.290000E+03	4.935543E-16	3.753089E-17
3.300000E+03	4.973550E-16	3.772827E-17
3.310000E+03	5.012597E-16	3.793176E-17
3.320000E+03	5.052137E-16	3.813717E-17
3.330000E+03	5.093721E-16	3.835612E-17
3.340000E+03	5.135754E-16	3.857653E-17
3.350000E+03	5.179254E-16	3.880599E-17
3.360000E+03	5.223679E-16	3.904036E-17
3.370000E+03	5.270033E-16	3.928705E-17
3.380000E+03	5.317258E-16	3.953810E-17
3.390000E+03	5.365839E-16	3.979702E-17
3.400000E+03	5.415746E-16	4.006353E-17
3.410000E+03	5.466951E-16	4.033733E-17
3.420000E+03	5.519930E-16	4.062182E-17
3.430000E+03	5.574139E-16	4.091293E-17
3.440000E+03	5.630054E-16	4.121403E-17
3.450000E+03	5.687636E-16	4.152474E-17
3.460000E+03	5.746350E-16	4.184107E-17
3.470000E+03	5.807155E-16	4.216990E-17
3.480000E+03	5.869516E-16	4.250721E-17
3.490000E+03	5.933392E-16	4.285262E-17
3.500000E+03	5.998749E-16	4.320577E-17
3.510000E+03	6.066033E-16	4.356978E-17
3.520000E+03	6.135199E-16	4.394419E-17
3.530000E+03	6.206203E-16	4.432858E-17
3.540000E+03	6.278999E-16	4.472248E-17
3.550000E+03	6.354020E-16	4.512886E-17
3.560000E+03	6.430262E-16	4.554046E-17
3.570000E+03	6.508633E-16	4.596361E-17
3.580000E+03	6.589082E-16	4.639781E-17
3.590000E+03	6.671554E-16	4.684254E-17
3.600000E+03	6.755999E-16	4.729730E-17
3.610000E+03	6.842363E-16	4.776160E-17
3.620000E+03	6.931054E-16	4.823814E-17
3.630000E+03	7.021554E-16	4.872318E-17
3.640000E+03	7.114269E-16	4.921939E-17
3.650000E+03	7.209137E-16	4.972621E-17
3.660000E+03	7.305647E-16	5.023997E-17
3.670000E+03	7.404647E-16	5.076638E-17
3.680000E+03	7.506072E-16	5.130483E-17
3.690000E+03	7.608962E-16	5.184860E-17
3.700000E+03	7.714598E-16	5.240631E-17
3.710000E+03	7.822023E-16	5.297128E-17
3.720000E+03	7.932059E-16	5.354894E-17
3.730000E+03	8.043758E-16	5.413274E-17
3.740000E+03	8.157932E-16	5.472801E-17
3.750000E+03	8.274077E-16	5.533121E-17
3.760000E+03	8.392560E-16	5.594465E-17
3.770000E+03	8.513311E-16	5.656772E-17
3.780000E+03	8.635834E-16	5.719696E-17
3.790000E+03	8.760912E-16	5.783743E-17
3.800000E+03	8.887630E-16	5.848294E-17
3.810000E+03	9.016763E-16	5.913845E-17
3.820000E+03	9.147821E-16	5.980061E-17
3.830000E+03	9.281151E-16	6.047153E-17
3.840000E+03	9.416681E-16	6.115060E-17
3.850000E+03	9.553931E-16	6.183458E-17
3.860000E+03	9.693244E-16	6.252554E-17
3.870000E+03	9.834553E-16	6.322292E-17
3.880000E+03	9.977388E-16	6.392358E-17
3.890000E+03	1.012249E-15	6.463213E-17
3.900000E+03	1.026938E-15	6.534543E-17
3.910000E+03	1.041839E-15	6.606544E-17
3.920000E+03	1.056869E-15	6.678673E-17
3.930000E+03	1.072098E-15	6.751363E-17
3.940000E+03	1.087481E-15	6.824329E-17
3.950000E+03	1.103014E-15	6.897520E-17
3.960000E+03	1.118728E-15	6.971133E-17
3.970000E+03	1.134579E-15	7.044880E-17
3.980000E+03	1.150562E-15	7.118726E-17
3.990000E+03	1.166711E-15	7.192859E-17
4.000000E+03	1.182945E-15	7.266781E-17
4.010000E+03	1.199334E-15	7.340916E-17
4.020000E+03	1.215835E-15	7.414997E-17
4.030000E+03	1.232411E-15	7.488778E-17
4.040000E+03	1.249128E-15	7.562674E-17
4.050000E+03	1.265911E-15	7.636211E-17
4.060000E+03	1.282794E-15	7.709596E-17
4.070000E+03	1.299737E-15	7.782583E-17
4.080000E+03	1.316738E-15	7.855164E-17
4.090000E+03	1.333797E-15	7.927326E-17
4.100000E+03	1.350909E-15	7.999054E-17
4.110000E+03	1.368042E-15	8.070141E-17
4.120000E+03	1.385193E-15	8.140583E-17
4.130000E+03	1.402363E-15	8.210386E-17
4.140000E+03	1.419552E-15	8.279549E-17
4.150000E+03	1.436726E-15	8.347880E-17
4.160000E+03	1.453855E-15	8.415201E-17
4.170000E+03	1.470973E-15	8.481726E-17
4.180000E+03	1.488017E-15	8.547094E-17
4.190000E+03	1.505022E-15	8.611515E-17
4.200000E+03	1.521960E-15	8.674838E-17
4.210000E+03	1.538803E-15	8.736904E-17
4.220000E+03	1.555555E-15	8.797758E-17
4.230000E+03	1.572190E-15	8.857257E-17
4.240000E+03	1.588683E-15	8.915282E-17
4.250000E+03	1.605072E-15	8.972049E-17
4.260000E+03	1.621302E-15	9.027274E-17
4.270000E+03	1.637380E-15	9.081009E-17
4.280000E+03	1.653253E-15	9.132976E-17
4.290000E+03	1.668962E-15	9.183422E-17
4.300000E+03	1.684457E-15	9.232083E-17
4.310000E+03	1.699745E-15	9.279033E-17
4.320000E+03	1.714810E-15	9.324192E-17
4.330000E+03	1.729603E-15	9.367323E-17
4.340000E+03	1.744136E-15	9.408512E-17
4.350000E+03	1.758424E-15	9.447867E-17
4.360000E+03	1.772420E-15	9.485157E-17
4.370000E+03	1.786110E-15	9.520332E-17
4.380000E+03	1.799479E-15	9.553345E-17
4.390000E+03	1.812513E-15	9.584152E-17
4.400000E+03	1.825231E-15	9.612874E-17
4.410000E+03	1.837588E-15	9.639312E-17
4.420000E+03	1.849575E-15	9.663444E-17
4.430000E+03	1.861208E-15	9.685390E-17
4.440000E+03	1.872448E-15	9.704976E-17
4.450000E+03	1.883341E-15	9.722473E-17
4.460000E+03	1.893848E-15	9.737716E-17
4.470000E+03	1.904016E-15	9.750965E-17
4.480000E+03	1.913834E-15	9.762198E-17
4.490000E+03	1.923319E-15	9.771523E-17
4.500000E+03	1.932488E-15	9.779050E-17
4.510000E+03	1.941385E-15	9.785029E-17
4.520000E+03	1.949974E-15	9.789288E-17
4.530000E+03	1.958324E-15	9.792198E-17
4.540000E+03	1.966424E-15	9.793727E-17
4.550000E+03	1.974316E-15	9.794099E-17
4.560000E+03	1.982015E-15	9.793400E-17
4.570000E+03	1.989536E-15	9.791723E-17
4.580000E+03	1.996893E-15	9.789148E-17
4.590000E+03	2.004125E-15	9.785879E-17
4.600000E+03	2.011248E-15	9.782003E-17
4.610000E+03	2.018271E-15	9.777575E-17
4.620000E+03	2.025208E-15	9.772675E-17
4.630000E+03	2.032123E-15	9.767615E-17
4.640000E+03	2.038974E-15	9.762199E-17
4.650000E+03	2.045824E-15	9.756739E-17
4.660000E+03	2.052684E-15	9.751285E-17
4.670000E+03	2.059561E-15	9.745880E-17
4.680000E+03	2.066467E-15	9.740576E-17
4.690000E+03	2.073408E-15	9.735410E-17
4.700000E+03	2.080444E-15	9.730667E-17
4.710000E+03	2.087532E-15	9.726137E-17
4.720000E+03	2.094727E-15	9.722089E-17
4.730000E+03	2.101987E-15	9.718316E-17
4.740000E+03	2.109392E-15	9.715194E-17
4.750000E+03	2.116896E-15	9.712512E-17
4.760000E+03	2.124505E-15	9.710290E-17
4.770000E+03	2.132246E-15	9.708659E-17
4.780000E+03	2.140149E-15	9.707745E-17
4.790000E+03	2.148189E-15	9.707443E-17
4.800000E+03	2.156369E-15	9.707753E-17
4.810000E+03	2.164741E-15	9.708916E-17
4.820000E+03	2.173304E-15	9.710924E-17
4.830000E+03	2.182034E-15	9.713662E-17
4.840000E+03	2.190981E-15	9.717351E-17
4.850000E+03	2.200143E-15	9.721983E-17
4.860000E+03	2.209519E-15	9.727545E-17
4.870000E+03	2.219132E-15	9.734126E-17
4.880000E+03	2.228977E-15	9.741700E-17
4.890000E+03	2.239078E-15	9.750355E-17
4.900000E+03	2.249403E-15	9.759940E-17
4.910000E+03	2.259998E-15	9.770651E-17
4.920000E+03	2.270835E-15	9.782348E-17
4.930000E+03	2.281905E-15	9.794988E-17
4.940000E+03	2.293256E-15	9.808760E-17
4.950000E+03	2.304828E-15	9.823405E-17
4.960000E+03	2.316668E-15	9.839108E-17
4.970000E+03	2.328766E-15	9.855821E-17
4.980000E+03	2.341090E-15	9.873394E-17
4.990000E+03	2.353657E-15	9.891894E-17
5.000000E+03	2.366461E-15	9.911281E-17
5.010000E+03	2.379489E-15	9.931503E-17
5.020000E+03	2.392761E-15	9.952628E-17
5.030000E+03	2.406241E-15	9.974499E-17
5.040000E+03	2.419918E-15	9.997068E-17
5.050000E+03	2.433834E-15	1.002050E-16
5.060000E+03	2.447898E-15	1.004442E-16
5.070000E+03	2.462181E-15	1.006910E-16
5.080000E+03	2.476642E-15	1.009439E-16
5.090000E+03	2.491243E-15	1.012011E-16
5.100000E+03	2.505999E-15	1.014633E-16
5.110000E+03	2.520922E-15	1.017310E-16
5.120000E+03	2.535947E-15	1.020015E-16
5.130000E+03	2.551086E-15	1.022753E-16
5.140000E+03	2.566352E-15	1.025529E-16
5.150000E+03	2.581675E-15	1.028315E-16
5.160000E+03	2.597097E-15	1.031129E-16
5.170000E+03	2.612575E-15	1.033953E-16
5.180000E+03	2.628092E-15	1.036780E-16
5.190000E+03	2.643633E-15	1.039607E-16
5.200000E+03	2.659180E-15	1.042425E-16
5.210000E+03	2.674747E-15	1.045241E-16
5.220000E+03	2.690259E-15	1.048027E-16
5.230000E+03	2.705757E-15	1.050799E-16
5.240000E+03	2.721194E-15	1.053540E-16
5.250000E+03	2.736553E-15	1.056243E-16
5.260000E+03	2.751788E-15	1.058893E-16
5.270000E+03	2.766937E-15	1.061505E-16
5.280000E+03	2.781955E-15	1.064064E-16
5.290000E+03	2.796825E-15	1.066563E-16
5.300000E+03	2.811498E-15	1.068985E-16
5.310000E+03	2.825986E-15	1.071337E-16
5.320000E+03	2.840301E-15	1.073625E-16
5.330000E+03	2.854368E-15	1.075821E-16
5.340000E+03	2.868168E-15	1.077921E-16
5.350000E+03	2.881714E-15	1.079931E-16
5.360000E+03	2.894992E-15	1.081847E-16
5.370000E+03	2.907984E-15	1.083665E-16
5.380000E+03	2.920615E-15	1.085359E-16
5.390000E+03	2.932932E-15	1.086948E-16
5.400000E+03	2.944919E-15	1.088428E-16
5.410000E+03	2.956535E-15	1.089785E-16
5.420000E+03	2.967739E-15	1.091004E-16
5.430000E+03	2.978579E-15	1.092104E-16
5.440000E+03	2.989017E-15	1.093072E-16
5.450000E+03	2.999042E-15	1.093903E-16
5.460000E+03	3.008618E-15	1.094586E-16
5.470000E+03	3.017765E-15	1.095127E-16
5.480000E+03	3.026447E-15	1.095516E-16
5.490000E+03	3.034686E-15	1.095760E-16
5.500000E+03	3.042478E-15	1.095858E-16
5.510000E+03	3.049785E-15	1.095798E-16
5.520000E+03	3.056602E-15	1.095578E-16
5.530000E+03	3.062957E-15	1.095210E-16
5.540000E+03	3.068844E-15	1.094691E-16
5.550000E+03	3.074230E-15	1.094010E-16
5.560000E+03	3.079111E-15	1.093167E-16
5.570000E+03	3.083548E-15	1.092184E-16
5.580000E+03	3.087476E-15	1.091039E-16
5.590000E+03	3.090924E-15	1.089743E-16
5.600000E+03	3.093890E-15	1.088296E-16
5.610000E+03	3.096346E-15	1.086688E-16
5.620000E+03	3.098350E-15	1.084941E-16
5.630000E+03	3.099874E-15	1.083046E-16
5.640000E+03	3.100916E-15	1.081003E-16
5.650000E+03	3.101481E-15	1.078815E-16
5.660000E+03	3.101566E-15	1.076480E-16
5.670000E+03	3.101176E-15	1.074003E-16
5.680000E+03	3.100313E-15	1.071384E-16
5.690000E+03	3.098949E-15	1.068615E-16
5.700000E+03	3.097149E-15	1.065719E-16
5.710000E+03	3.094854E-15	1.062676E-16
5.720000E+03	3.092099E-15	1.059500E-16
5.730000E+03	3.088859E-15	1.056184E-16
5.740000E+03	3.085168E-15	1.052739E-16
5.750000E+03	3.081002E-15	1.049159E-16
5.760000E+03	3.076365E-15	1.045446E-16
5.770000E+03	3.071293E-15	1.041614E-16
5.780000E+03	3.065763E-15	1.037655E-16
5.790000E+03	3.059753E-15	1.033564E-16
5.800000E+03	3.053296E-15	1.029353E-16
5.810000E+03	3.046403E-15	1.025026E-16
5.820000E+03	3.039049E-15	1.020578E-16
5.830000E+03	3.031273E-15	1.016021E-16
5.840000E+03	3.023054E-15	1.011350E-16
5.850000E+03	3.014370E-15	1.006559E-16
5.860000E+03	3.005288E-15	1.001672E-16
5.870000E+03	2.995790E-15	9.966838E-17
5.880000E+03	2.985854E-15	9.915887E-17
5.890000E+03	2.975490E-15	9.863911E-17
5.900000E+03	2.964737E-15	9.811055E-17
5.910000E+03	2.953578E-15	9.757272E-17
5.920000E+03	2.942021E-15	9.702601E-17
5.930000E+03	2.930078E-15	9.647099E-17
5.940000E+03	2.917730E-15	9.590714E-17
5.950000E+03	2.905018E-15	9.533594E-17
5.960000E+03	2.891952E-15	9.475785E-17
5.970000E+03	2.878516E-15	9.417244E-17
5.980000E+03	2.864693E-15	9.357934E-17
5.990000E+03	2.850579E-15	9.298172E-17
6.000000E+03	2.836102E-15	9.237744E-17
6.010000E+03	2.821275E-15	9.176700E-17
6.020000E+03	2.806166E-15	9.115269E-17
6.030000E+03	2.790756E-15	9.053407E-17
6.040000E+03	2.775034E-15	8.991086E-17
6.050000E+03	2.759012E-15	8.928352E-17
6.060000E+03	2.742755E-15	8.865428E-17
6.070000E+03	2.726196E-15	8.802107E-17
6.080000E+03	2.709402E-15	8.738613E-17
6.090000E+03	2.692385E-15	8.674994E-17
6.100000E+03	2.675105E-15	8.611128E-17
6.110000E+03	2.657629E-15	8.547239E-17
6.120000E+03	2.639917E-15	8.483203E-17
6.130000E+03	2.622009E-15	8.419158E-17
6.140000E+03	2.603891E-15	8.355065E-17
6.150000E+03	2.585556E-15	8.290901E-17
6.160000E+03	2.567017E-15	8.226712E-17
6.170000E+03	2.548292E-15	8.162553E-17
6.180000E+03	2.529347E-15	8.098310E-17
6.190000E+03	2.510226E-15	8.034116E-17
6.200000E+03	2.490922E-15	7.969946E-17
6.210000E+03	2.471527E-15	7.906081E-17
6.220000E+03	2.452032E-15	7.842495E-17
6.230000E+03	2.432505E-15	7.779391E-17
6.240000E+03	2.412961E-15	7.716813E-17
6.250000E+03	2.393416E-15	7.654803E-17
6.260000E+03	2.373914E-15	7.593492E-17
6.270000E+03	2.354468E-15	7.532917E-17
6.280000E+03	2.335096E-15	7.473122E-17
6.290000E+03	2.315814E-15	7.414154E-17
6.300000E+03	2.296684E-15	7.356199E-17
6.310000E+03	2.277675E-15	7.299154E-17
6.320000E+03	2.258847E-15	7.243200E-17
6.330000E+03	2.240193E-15	7.188301E-17
6.340000E+03	2.221746E-15	7.134545E-17
6.350000E+03	2.203536E-15	7.081997E-17
6.360000E+03	2.185528E-15	7.030515E-17
6.370000E+03	2.167774E-15	6.980243E-17
6.380000E+03	2.150261E-15	6.931106E-17
6.390000E+03	2.133038E-15	6.883241E-17
6.400000E+03	2.116089E-15	6.836570E-17
6.410000E+03	2.099440E-15	6.791155E-17
6.420000E+03	2.083076E-15	6.746920E-17
6.430000E+03	2.067020E-15	6.703925E-17
6.440000E+03	2.051297E-15	6.662223E-17
6.450000E+03	2.035887E-15	6.621734E-17
6.460000E+03	2.020792E-15	6.582445E-17
6.470000E+03	2.006054E-15	6.544472E-17
6.480000E+03	1.991630E-15	6.507663E-17
6.490000E+03	1.977539E-15	6.472060E-17
6.500000E+03	1.963801E-15	6.437716E-17
6.510000E+03	1.950413E-15	6.404606E-17
6.520000E+03	1.937371E-15	6.372705E-17
6.530000E+03	1.924650E-15	6.341917E-17
6.540000E+03	1.912309E-15	6.312424E-17
6.550000E+03	1.900281E-15	6.283995E-17
6.560000E+03	1.888623E-15	6.256808E-17
6.570000E+03	1.877286E-15	6.230694E-17
6.580000E+03	1.866308E-15	6.205767E-17
6.590000E+03	1.855661E-15	6.181928E-17
6.600000E+03	1.845359E-15	6.159217E-17
6.610000E+03	1.835377E-15	6.137541E-17
6.620000E+03	1.825727E-15	6.116938E-17
6.630000E+03	1.816405E-15	6.097384E-17
6.640000E+03	1.807383E-15	6.078782E-17
6.650000E+03	1.798694E-15	6.061238E-17
6.660000E+03	1.790313E-15	6.044665E-17
6.670000E+03	1.782232E-15	6.029030E-17
6.680000E+03	1.774446E-15	6.014313E-17
6.690000E+03	1.766967E-15	6.000551E-17
6.700000E+03	1.759771E-15	5.987658E-17
6.710000E+03	1.752869E-15	5.975674E-17
6.720000E+03	1.746235E-15	5.964507E-17
6.730000E+03	1.739884E-15	5.954201E-17
6.740000E+03	1.733808E-15	5.944734E-17
6.750000E+03	1.728003E-15	5.936086E-17
6.760000E+03	1.722441E-15	5.928164E-17
6.770000E+03	1.717138E-15	5.921014E-17
6.780000E+03	1.712104E-15	5.914683E-17
6.790000E+03	1.707299E-15	5.909019E-17
6.800000E+03	1.702733E-15	5.904065E-17
6.810000E+03	1.698421E-15	5.899870E-17
6.820000E+03	1.694319E-15	5.896279E-17
6.830000E+03	1.690459E-15	5.893411E-17
6.840000E+03	1.686817E-15	5.891176E-17
6.850000E+03	1.683387E-15	5.889556E-17
6.860000E+03	1.680185E-15	5.888604E-17
6.870000E+03	1.677183E-15	5.888232E-17
6.880000E+03	1.674379E-15	5.888425E-17
6.890000E+03	1.671767E-15	5.889165E-17
6.900000E+03	1.669360E-15	5.890503E-17
6.910000E+03	1.667134E-15	5.892354E-17
6.920000E+03	1.665085E-15	5.894704E-17
6.930000E+03	1.663228E-15	5.897607E-17
6.940000E+03	1.661538E-15	5.900977E-17
6.950000E+03	1.660010E-15	5.904801E-17
6.960000E+03	1.658640E-15	5.909060E-17
6.970000E+03	1.657441E-15	5.913812E-17
6.980000E+03	1.656392E-15	5.918976E-17
6.990000E+03	1.655485E-15	5.924531E-17
7.000000E+03	1.654718E-15	5.930468E-17
7.010000E+03	1.654084E-15	5.936769E-17
7.020000E+03	1.653581E-15	5.943424E-17
7.030000E+03	1.653204E-15	5.950419E-17
7.040000E+03	1.652928E-15	5.957670E-17
7.050000E+03	1.652788E-15	5.965306E-17
7.060000E+03	1.652740E-15	5.973167E-17
7.070000E+03	1.652800E-15	5.981318E-17
7.080000E+03	1.652965E-15	5.989746E-17
7.090000E+03	1.653207E-15	5.998359E-17
7.100000E+03	1.653523E-15	6.007149E-17
7.110000E+03	1.653931E-15	6.016180E-17
7.120000E+03	1.654403E-15	6.025358E-17
7.130000E+03	1.654938E-15	6.034678E-17
7.140000E+03	1.655528E-15	6.044122E-17
7.150000E+03	1.656170E-15	6.053680E-17
7.160000E+03	1.656860E-15	6.063340E-17
7.170000E+03	1.657593E-15	6.073089E-17
7.180000E+03	1.658344E-15	6.082835E-17
7.190000E+03	1.659129E-15	6.092651E-17
7.200000E+03	1.659943E-15	6.102516E-17
7.210000E+03	1.660740E-15	6.112270E-17
7.220000E+03	1.661558E-15	6.122051E-17
7.230000E+03	1.662370E-15	6.131771E-17
7.240000E+03	1.663192E-15	6.141493E-17
7.250000E+03	1.663978E-15	6.151052E-17
7.260000E+03	1.664744E-15	6.160508E-17
7.270000E+03	1.665486E-15	6.169857E-17
7.280000E+03	1.666197E-15	6.179079E-17
7.290000E+03	1.666852E-15	6.188083E-17
7.300000E+03	1.667468E-15	6.196941E-17
7.310000E+03	1.668017E-15	6.205554E-17
7.320000E+03	1.668517E-15	6.213996E-17
7.330000E+03	1.668940E-15	6.222168E-17
7.340000E+03	1.669303E-15	6.230138E-17
7.350000E+03	1.669579E-15	6.237816E-17
7.360000E+03	1.669764E-15	6.245190E-17
7.370000E+03	1.669874E-15	6.252324E-17
7.380000E+03	1.669880E-15	6.259126E-17
7.390000E+03	1.669780E-15	6.265585E-17
7.400000E+03	1.669611E-15	6.271851E-17
7.410000E+03	1.669303E-15	6.277668E-17
7.420000E+03	1.668915E-15	6.283266E-17
7.430000E+03	1.668401E-15	6.288474E-17
7.440000E+03	1.667776E-15	6.293362E-17
7.450000E+03	1.667056E-15	6.297997E-17
7.460000E+03	1.666219E-15	6.302297E-17
7.470000E+03	1.665236E-15	6.306166E-17
7.480000E+03	1.664103E-15	6.309594E-17
7.490000E+03	1.662839E-15	6.312661E-17
7.500000E+03	1.661419E-15	6.315275E-17
7.510000E+03	1.659838E-15	6.317430E-17
7.520000E+03	1.658095E-15	6.319121E-17
7.530000E+03	1.656189E-15	6.320347E-17
7.540000E+03	1.654099E-15	6.321018E-17
7.550000E+03	1.651866E-15	6.321295E-17
7.560000E+03	1.649448E-15	6.321016E-17
7.570000E+03	1.646848E-15	6.320180E-17
7.580000E+03	1.644108E-15	6.318956E-17
7.590000E+03	1.641189E-15	6.317181E-17
7.600000E+03	1.638111E-15	6.314940E-17
7.610000E+03	1.634856E-15	6.312156E-17
7.620000E+03	1.631449E-15	6.308920E-17
7.630000E+03	1.627890E-15	6.305236E-17
7.640000E+03	1.624162E-15	6.301027E-17
7.650000E+03	1.620288E-15	6.296388E-17
7.660000E+03	1.616272E-15	6.291329E-17
7.670000E+03	1.612116E-15	6.285852E-17
7.680000E+03	1.607800E-15	6.279885E-17
7.690000E+03	1.603373E-15	6.273610E-17
7.700000E+03	1.598794E-15	6.266863E-17
7.710000E+03	1.594087E-15	6.259743E-17
7.720000E+03	1.589255E-15	6.252257E-17
7.730000E+03	1.584281E-15	6.244333E-17
7.740000E+03	1.579210E-15	6.236149E-17
7.750000E+03	1.574023E-15	6.227628E-17
7.760000E+03	1.568725E-15	6.218787E-17
