#wls	flux	fluxerr
1.581966E+03	1.298569E-02	4.513144E-04
1.621515E+03	1.323560E-02	4.592326E-04
1.661064E+03	1.348213E-02	4.669849E-04
1.700613E+03	1.371877E-02	4.743454E-04
1.740162E+03	1.394620E-02	4.813384E-04
1.779711E+03	1.416519E-02	4.879901E-04
1.819260E+03	1.437129E-02	4.941476E-04
1.858810E+03	1.457040E-02	5.000151E-04
1.898359E+03	1.475532E-02	5.053453E-04
1.937908E+03	1.492930E-02	5.102513E-04
1.977457E+03	1.509025E-02	5.146628E-04
2.017006E+03	1.524143E-02	5.186920E-04
2.056555E+03	1.537789E-02	5.221717E-04
2.096104E+03	1.550001E-02	5.251173E-04
2.135654E+03	1.561083E-02	5.276334E-04
2.175203E+03	1.570242E-02	5.294543E-04
2.214752E+03	1.578034E-02	5.307711E-04
2.254301E+03	1.583665E-02	5.313191E-04
2.293850E+03	1.586887E-02	5.310207E-04
2.333399E+03	1.587728E-02	5.298904E-04
2.372948E+03	1.585457E-02	5.276911E-04
2.412498E+03	1.580403E-02	5.245401E-04
2.452047E+03	1.571679E-02	5.201513E-04
2.491596E+03	1.559692E-02	5.146698E-04
2.531145E+03	1.543938E-02	5.079393E-04
2.570694E+03	1.524690E-02	5.000611E-04
2.610243E+03	1.502252E-02	4.911466E-04
2.649792E+03	1.476349E-02	4.811166E-04
2.689342E+03	1.447421E-02	4.701268E-04
2.728891E+03	1.415562E-02	4.582188E-04
2.768440E+03	1.381314E-02	4.455789E-04
2.807989E+03	1.344892E-02	4.322864E-04
2.847538E+03	1.306584E-02	4.184433E-04
2.887087E+03	1.266737E-02	4.041694E-04
2.926636E+03	1.226032E-02	3.896892E-04
2.966185E+03	1.185383E-02	3.752975E-04
2.976073E+03	1.175244E-02	3.717186E-04
2.985960E+03	1.165075E-02	3.681347E-04
2.995847E+03	1.155016E-02	3.645903E-04
3.005735E+03	1.145070E-02	3.610861E-04
3.015622E+03	1.135240E-02	3.576229E-04
3.025509E+03	1.125402E-02	3.541621E-04
3.035396E+03	1.115689E-02	3.507451E-04
3.045284E+03	1.105981E-02	3.473344E-04
3.055171E+03	1.096526E-02	3.440075E-04
3.065058E+03	1.087083E-02	3.406893E-04
3.074946E+03	1.077893E-02	3.374545E-04
3.084833E+03	1.068723E-02	3.342305E-04
3.094720E+03	1.059804E-02	3.310896E-04
3.104607E+03	1.050911E-02	3.279611E-04
3.114495E+03	1.042269E-02	3.249149E-04
3.124382E+03	1.033872E-02	3.219494E-04
3.134269E+03	1.025504E-02	3.189974E-04
3.144157E+03	1.017380E-02	3.161248E-04
3.154044E+03	1.009494E-02	3.133303E-04
3.163931E+03	1.001739E-02	3.105804E-04
3.173818E+03	9.942156E-03	3.079058E-04
3.183706E+03	9.869168E-03	3.053045E-04
3.193593E+03	9.798377E-03	3.027746E-04
3.203480E+03	9.729714E-03	3.003139E-04
3.213368E+03	9.664067E-03	2.979495E-04
3.223255E+03	9.599465E-03	2.956205E-04
3.233142E+03	9.537710E-03	2.933821E-04
3.243029E+03	9.478695E-03	2.912308E-04
3.252917E+03	9.422300E-03	2.891628E-04
3.262804E+03	9.368412E-03	2.871741E-04
3.272691E+03	9.316048E-03	2.852347E-04
3.282579E+03	9.266826E-03	2.833936E-04
3.292466E+03	9.220587E-03	2.816459E-04
3.302353E+03	9.176338E-03	2.799608E-04
3.312240E+03	9.134767E-03	2.783593E-04
3.322128E+03	9.096512E-03	2.768603E-04
3.332015E+03	9.059791E-03	2.754094E-04
3.341902E+03	9.026025E-03	2.740496E-04
3.351790E+03	8.995011E-03	2.727744E-04
3.361677E+03	8.966547E-03	2.715774E-04
3.371564E+03	8.940432E-03	2.704523E-04
3.381451E+03	8.917196E-03	2.694148E-04
3.391339E+03	8.895882E-03	2.684357E-04
3.401226E+03	8.877718E-03	2.675519E-04
3.411113E+03	8.861744E-03	2.667341E-04
3.421001E+03	8.847737E-03	2.659753E-04
3.430888E+03	8.836158E-03	2.652892E-04
3.440775E+03	8.826767E-03	2.646683E-04
3.450662E+03	8.819991E-03	2.641252E-04
3.460550E+03	8.814924E-03	2.636324E-04
3.470437E+03	8.811990E-03	2.632025E-04
3.480324E+03	8.810960E-03	2.628283E-04
3.490212E+03	8.812235E-03	2.625217E-04
3.500099E+03	8.814975E-03	2.622572E-04
3.509986E+03	8.819600E-03	2.620473E-04
3.519873E+03	8.825324E-03	2.618684E-04
3.529761E+03	8.833184E-03	2.617511E-04
3.539648E+03	8.842440E-03	2.616732E-04
3.549535E+03	8.853561E-03	2.616485E-04
3.559423E+03	8.865908E-03	2.616578E-04
3.569310E+03	8.879470E-03	2.617007E-04
3.579197E+03	8.895360E-03	2.618099E-04
3.589084E+03	8.912571E-03	2.619553E-04
3.598972E+03	8.931784E-03	2.621569E-04
3.608859E+03	8.952693E-03	2.624054E-04
3.618746E+03	8.976589E-03	2.627385E-04
3.628634E+03	9.003270E-03	2.631498E-04
3.638521E+03	9.033101E-03	2.636496E-04
3.648408E+03	9.066001E-03	2.642352E-04
3.658295E+03	9.103355E-03	2.649466E-04
3.668183E+03	9.144679E-03	2.657690E-04
3.678070E+03	9.191370E-03	2.667425E-04
3.687957E+03	9.243011E-03	2.678544E-04
3.697845E+03	9.300567E-03	2.691320E-04
3.707732E+03	9.364550E-03	2.705892E-04
3.717619E+03	9.435036E-03	2.722275E-04
3.727506E+03	9.512961E-03	2.740730E-04
3.737394E+03	9.598372E-03	2.761260E-04
3.747281E+03	9.692129E-03	2.784104E-04
3.757168E+03	9.794202E-03	2.809240E-04
3.767056E+03	9.904918E-03	2.836754E-04
3.776943E+03	1.002494E-02	2.866820E-04
3.786830E+03	1.015360E-02	2.899241E-04
3.796717E+03	1.029098E-02	2.934022E-04
3.806605E+03	1.043741E-02	2.971249E-04
3.816492E+03	1.059230E-02	3.010744E-04
3.826379E+03	1.075574E-02	3.052517E-04
3.836267E+03	1.092649E-02	3.096205E-04
3.846154E+03	1.110433E-02	3.141741E-04
3.856041E+03	1.128856E-02	3.188911E-04
3.865928E+03	1.147753E-02	3.237247E-04
3.875816E+03	1.167106E-02	3.286688E-04
3.885703E+03	1.186769E-02	3.336816E-04
3.895590E+03	1.206588E-02	3.387195E-04
3.905478E+03	1.226439E-02	3.437477E-04
3.915365E+03	1.246194E-02	3.487304E-04
3.925252E+03	1.265720E-02	3.536300E-04
3.935139E+03	1.284842E-02	3.583982E-04
3.945027E+03	1.303458E-02	3.630072E-04
3.954914E+03	1.321353E-02	3.673979E-04
3.964801E+03	1.338430E-02	3.715442E-04
3.974689E+03	1.354520E-02	3.754005E-04
3.984576E+03	1.369502E-02	3.789343E-04
3.994463E+03	1.383264E-02	3.821164E-04
4.004350E+03	1.395671E-02	3.849114E-04
4.014238E+03	1.406644E-02	3.872990E-04
4.024125E+03	1.416120E-02	3.892639E-04
4.034012E+03	1.424021E-02	3.907869E-04
4.043900E+03	1.430360E-02	3.918736E-04
4.053787E+03	1.435101E-02	3.925165E-04
4.063674E+03	1.438229E-02	3.927138E-04
4.073561E+03	1.439822E-02	3.924885E-04
4.083449E+03	1.439906E-02	3.918502E-04
4.093336E+03	1.438563E-02	3.908232E-04
4.103223E+03	1.435860E-02	3.894276E-04
4.113111E+03	1.431945E-02	3.877054E-04
4.122998E+03	1.426914E-02	3.856844E-04
4.132885E+03	1.420906E-02	3.834037E-04
4.142772E+03	1.414067E-02	3.809039E-04
4.152660E+03	1.406546E-02	3.782264E-04
4.162547E+03	1.398466E-02	3.754050E-04
4.172434E+03	1.390003E-02	3.724881E-04
4.182322E+03	1.381277E-02	3.695079E-04
4.192209E+03	1.372429E-02	3.665025E-04
4.202096E+03	1.363594E-02	3.635086E-04
4.211983E+03	1.354929E-02	3.605676E-04
4.221871E+03	1.346506E-02	3.576984E-04
4.231758E+03	1.338470E-02	3.549393E-04
4.241645E+03	1.330934E-02	3.523198E-04
4.251533E+03	1.324006E-02	3.498675E-04
4.261420E+03	1.317763E-02	3.476021E-04
4.271307E+03	1.312348E-02	3.455606E-04
4.281194E+03	1.307804E-02	3.437527E-04
4.291082E+03	1.304236E-02	3.422051E-04
4.300969E+03	1.301719E-02	3.409358E-04
4.310856E+03	1.300296E-02	3.399550E-04
4.320744E+03	1.300049E-02	3.392822E-04
4.330631E+03	1.301027E-02	3.389290E-04
4.340518E+03	1.303252E-02	3.388992E-04
4.350405E+03	1.306760E-02	3.392004E-04
4.360293E+03	1.311577E-02	3.398376E-04
4.370180E+03	1.317697E-02	3.408074E-04
4.380067E+03	1.325141E-02	3.421138E-04
4.389955E+03	1.333877E-02	3.437461E-04
4.399842E+03	1.343874E-02	3.456952E-04
4.409729E+03	1.355067E-02	3.479422E-04
4.419616E+03	1.367412E-02	3.504744E-04
4.429504E+03	1.380805E-02	3.532638E-04
4.439391E+03	1.395144E-02	3.562825E-04
4.449278E+03	1.410346E-02	3.595084E-04
4.459166E+03	1.426226E-02	3.628932E-04
4.469053E+03	1.442619E-02	3.663941E-04
4.478940E+03	1.459362E-02	3.699691E-04
4.488827E+03	1.476232E-02	3.735612E-04
4.498715E+03	1.493009E-02	3.771151E-04
4.508602E+03	1.509462E-02	3.805726E-04
4.518489E+03	1.525348E-02	3.838731E-04
4.528377E+03	1.540397E-02	3.869493E-04
4.538264E+03	1.554356E-02	3.897393E-04
4.548151E+03	1.566976E-02	3.921824E-04
4.558038E+03	1.578020E-02	3.942211E-04
4.567926E+03	1.587222E-02	3.957917E-04
4.577813E+03	1.594428E-02	3.968582E-04
4.587700E+03	1.599451E-02	3.973769E-04
4.597588E+03	1.602141E-02	3.973138E-04
4.607475E+03	1.602435E-02	3.966564E-04
4.617362E+03	1.600254E-02	3.953888E-04
4.627249E+03	1.595656E-02	3.935286E-04
4.637137E+03	1.588670E-02	3.910861E-04
4.647024E+03	1.579419E-02	3.880950E-04
4.656911E+03	1.568098E-02	3.846064E-04
4.666798E+03	1.554911E-02	3.806725E-04
4.676686E+03	1.540140E-02	3.763653E-04
4.686573E+03	1.524044E-02	3.717499E-04
4.696460E+03	1.506983E-02	3.669159E-04
4.706348E+03	1.489295E-02	3.619466E-04
4.716235E+03	1.471306E-02	3.569219E-04
4.726122E+03	1.453396E-02	3.519341E-04
4.736009E+03	1.435880E-02	3.470593E-04
4.745897E+03	1.419059E-02	3.423700E-04
4.755784E+03	1.403268E-02	3.379452E-04
4.765671E+03	1.388731E-02	3.338376E-04
4.775559E+03	1.375727E-02	3.301128E-04
4.785446E+03	1.364455E-02	3.268163E-04
4.795333E+03	1.355096E-02	3.239887E-04
4.805220E+03	1.347773E-02	3.216574E-04
4.815108E+03	1.342617E-02	3.198507E-04
4.824995E+03	1.339649E-02	3.185709E-04
4.834882E+03	1.338889E-02	3.178200E-04
4.844770E+03	1.340304E-02	3.175872E-04
4.854657E+03	1.343776E-02	3.178418E-04
4.864544E+03	1.349164E-02	3.185484E-04
4.874431E+03	1.356253E-02	3.196536E-04
4.884319E+03	1.364814E-02	3.211017E-04
4.894206E+03	1.374588E-02	3.228298E-04
4.904093E+03	1.385259E-02	3.247628E-04
4.913981E+03	1.396518E-02	3.268270E-04
4.923868E+03	1.408068E-02	3.289527E-04
4.933755E+03	1.419622E-02	3.310725E-04
4.943642E+03	1.430865E-02	3.331133E-04
4.953530E+03	1.441560E-02	3.350205E-04
4.963417E+03	1.451524E-02	3.367523E-04
4.973304E+03	1.460543E-02	3.382603E-04
4.983192E+03	1.468554E-02	3.395310E-04
4.993079E+03	1.475489E-02	3.405504E-04
5.002966E+03	1.481359E-02	3.413221E-04
5.012853E+03	1.486230E-02	3.418625E-04
5.022741E+03	1.490229E-02	3.422022E-04
5.032628E+03	1.493486E-02	3.423724E-04
5.042515E+03	1.496192E-02	3.424171E-04
5.052403E+03	1.498532E-02	3.423798E-04
5.062290E+03	1.500699E-02	3.423051E-04
5.072177E+03	1.502886E-02	3.422367E-04
5.082064E+03	1.505291E-02	3.422201E-04
5.091952E+03	1.508068E-02	3.422902E-04
5.101839E+03	1.511372E-02	3.424813E-04
5.111726E+03	1.515351E-02	3.428267E-04
5.121614E+03	1.520099E-02	3.433470E-04
5.131501E+03	1.525722E-02	3.440654E-04
5.141388E+03	1.532291E-02	3.449968E-04
5.151275E+03	1.539841E-02	3.461486E-04
5.161163E+03	1.548443E-02	3.475355E-04
5.171050E+03	1.558089E-02	3.491549E-04
5.180937E+03	1.568823E-02	3.510155E-04
5.190825E+03	1.580611E-02	3.531090E-04
5.200712E+03	1.593458E-02	3.554357E-04
5.210599E+03	1.607356E-02	3.579926E-04
5.220486E+03	1.622234E-02	3.607631E-04
5.230374E+03	1.638072E-02	3.637424E-04
5.240261E+03	1.654789E-02	3.669113E-04
5.250148E+03	1.672303E-02	3.702515E-04
5.260036E+03	1.690521E-02	3.737416E-04
5.269923E+03	1.709352E-02	3.773613E-04
5.279810E+03	1.728640E-02	3.810759E-04
5.289697E+03	1.748287E-02	3.848637E-04
5.299585E+03	1.768128E-02	3.886882E-04
5.309472E+03	1.788013E-02	3.925170E-04
5.319359E+03	1.807718E-02	3.963009E-04
5.329247E+03	1.827058E-02	4.000000E-04
5.339134E+03	1.845790E-02	4.035618E-04
5.349021E+03	1.863612E-02	4.069212E-04
5.358908E+03	1.880286E-02	4.100270E-04
5.368796E+03	1.895525E-02	4.128177E-04
5.378683E+03	1.908994E-02	4.152220E-04
5.388570E+03	1.920451E-02	4.171888E-04
5.398458E+03	1.929555E-02	4.186459E-04
5.408345E+03	1.936009E-02	4.195308E-04
5.418232E+03	1.939546E-02	4.197880E-04
5.428119E+03	1.939905E-02	4.193630E-04
5.438007E+03	1.936838E-02	4.182054E-04
5.447894E+03	1.930193E-02	4.162842E-04
5.457781E+03	1.919839E-02	4.135742E-04
5.467669E+03	1.905783E-02	4.100792E-04
5.477556E+03	1.888060E-02	4.058097E-04
5.487443E+03	1.866801E-02	4.007959E-04
5.497330E+03	1.842289E-02	3.951012E-04
5.507218E+03	1.814846E-02	3.887960E-04
5.517105E+03	1.784892E-02	3.819721E-04
5.526992E+03	1.752914E-02	3.747351E-04
5.536880E+03	1.719462E-02	3.672036E-04
5.546767E+03	1.685085E-02	3.594950E-04
5.556654E+03	1.650373E-02	3.517355E-04
5.566541E+03	1.615881E-02	3.440432E-04
5.576429E+03	1.582182E-02	3.365392E-04
5.586316E+03	1.549788E-02	3.293317E-04
5.596203E+03	1.519214E-02	3.225287E-04
5.606091E+03	1.490902E-02	3.162226E-04
5.615978E+03	1.465282E-02	3.105030E-04
5.625865E+03	1.442708E-02	3.054430E-04
5.635752E+03	1.423517E-02	3.011118E-04
5.645640E+03	1.407970E-02	2.975623E-04
5.655527E+03	1.396307E-02	2.948432E-04
5.665414E+03	1.388704E-02	2.929896E-04
5.675302E+03	1.385274E-02	2.920228E-04
5.685189E+03	1.386080E-02	2.919536E-04
5.695076E+03	1.391121E-02	2.927800E-04
5.704963E+03	1.400277E-02	2.944746E-04
5.714851E+03	1.413350E-02	2.969937E-04
5.724738E+03	1.430015E-02	3.002675E-04
5.734625E+03	1.449893E-02	3.042146E-04
5.744513E+03	1.472505E-02	3.087334E-04
5.754400E+03	1.497327E-02	3.137132E-04
5.764287E+03	1.523787E-02	3.190333E-04
5.774174E+03	1.551274E-02	3.245656E-04
5.784062E+03	1.579172E-02	3.301808E-04
5.793949E+03	1.606815E-02	3.357402E-04
5.803836E+03	1.633600E-02	3.411181E-04
5.813724E+03	1.658960E-02	3.461971E-04
5.823611E+03	1.682336E-02	3.508609E-04
5.833498E+03	1.703266E-02	3.550146E-04
5.843385E+03	1.721414E-02	3.585893E-04
5.853273E+03	1.736466E-02	3.615207E-04
5.863160E+03	1.748305E-02	3.637859E-04
5.873047E+03	1.756890E-02	3.653775E-04
5.882935E+03	1.762244E-02	3.663013E-04
5.892822E+03	1.764519E-02	3.665905E-04
5.902709E+03	1.763919E-02	3.662881E-04
5.912596E+03	1.760682E-02	3.654444E-04
5.922484E+03	1.755118E-02	3.641246E-04
5.932371E+03	1.747527E-02	3.623916E-04
5.942258E+03	1.738241E-02	3.603144E-04
5.952146E+03	1.727589E-02	3.579620E-04
5.962033E+03	1.715879E-02	3.553982E-04
5.971920E+03	1.703435E-02	3.526904E-04
5.981807E+03	1.690513E-02	3.498917E-04
5.991695E+03	1.677379E-02	3.470567E-04
6.001582E+03	1.664285E-02	3.442381E-04
6.011469E+03	1.651409E-02	3.414722E-04
6.021357E+03	1.638928E-02	3.387956E-04
6.031244E+03	1.626975E-02	3.362355E-04
6.041131E+03	1.615682E-02	3.338191E-04
6.051018E+03	1.605090E-02	3.315546E-04
6.060906E+03	1.595258E-02	3.294544E-04
6.070793E+03	1.586190E-02	3.275187E-04
6.080680E+03	1.577895E-02	3.257493E-04
6.090568E+03	1.570313E-02	3.241338E-04
6.100455E+03	1.563393E-02	3.226617E-04
6.110342E+03	1.557018E-02	3.213085E-04
6.120229E+03	1.551114E-02	3.200589E-04
6.130117E+03	1.545585E-02	3.188932E-04
6.140004E+03	1.540368E-02	3.177983E-04
6.149891E+03	1.535359E-02	3.167526E-04
6.159779E+03	1.530478E-02	3.157394E-04
6.169666E+03	1.525600E-02	3.147325E-04
6.179553E+03	1.520647E-02	3.137163E-04
6.189440E+03	1.515501E-02	3.126657E-04
6.199328E+03	1.510107E-02	3.115695E-04
6.209215E+03	1.504411E-02	3.104164E-04
6.219102E+03	1.498419E-02	3.092073E-04
6.228990E+03	1.492135E-02	3.079430E-04
6.238877E+03	1.485581E-02	3.066278E-04
6.248764E+03	1.478794E-02	3.052692E-04
6.258651E+03	1.471862E-02	3.038853E-04
6.268539E+03	1.464786E-02	3.024760E-04
6.278426E+03	1.457652E-02	3.010589E-04
6.288313E+03	1.450496E-02	2.996413E-04
6.298201E+03	1.443333E-02	2.982261E-04
6.308088E+03	1.436211E-02	2.968234E-04
6.317975E+03	1.429130E-02	2.954326E-04
6.327862E+03	1.422106E-02	2.940572E-04
6.337750E+03	1.415135E-02	2.926963E-04
6.347637E+03	1.408241E-02	2.913543E-04
6.357524E+03	1.401387E-02	2.900240E-04
6.367412E+03	1.394622E-02	2.887151E-04
6.377299E+03	1.387967E-02	2.874318E-04
6.387186E+03	1.381465E-02	2.861831E-04
6.397073E+03	1.375220E-02	2.849905E-04
6.406961E+03	1.369361E-02	2.838804E-04
6.416848E+03	1.364006E-02	2.828776E-04
6.426735E+03	1.359283E-02	2.820085E-04
6.436623E+03	1.355290E-02	2.812936E-04
6.446510E+03	1.352156E-02	2.807596E-04
6.456397E+03	1.349951E-02	2.804214E-04
6.466284E+03	1.348708E-02	2.802861E-04
6.476172E+03	1.348444E-02	2.803572E-04
6.486059E+03	1.349089E-02	2.806204E-04
6.495946E+03	1.350536E-02	2.810537E-04
6.505833E+03	1.352645E-02	2.816284E-04
6.515721E+03	1.355208E-02	2.823011E-04
6.525608E+03	1.358019E-02	2.830289E-04
6.535495E+03	1.360836E-02	2.837617E-04
6.545383E+03	1.363417E-02	2.844487E-04
6.555270E+03	1.365526E-02	2.850408E-04
6.565157E+03	1.366949E-02	2.854929E-04
6.575044E+03	1.367533E-02	2.857730E-04
6.584932E+03	1.367099E-02	2.858431E-04
6.594819E+03	1.365549E-02	2.856827E-04
6.604706E+03	1.362826E-02	2.852791E-04
6.614594E+03	1.358879E-02	2.846212E-04
6.624481E+03	1.353716E-02	2.837103E-04
6.634368E+03	1.347401E-02	2.825590E-04
6.644255E+03	1.340017E-02	2.811847E-04
6.654143E+03	1.331691E-02	2.796133E-04
6.664030E+03	1.322525E-02	2.778658E-04
6.673917E+03	1.312699E-02	2.759797E-04
6.683805E+03	1.302361E-02	2.739859E-04
6.693692E+03	1.291706E-02	2.719249E-04
6.703579E+03	1.280921E-02	2.698362E-04
6.713466E+03	1.270204E-02	2.677612E-04
6.723354E+03	1.259755E-02	2.657423E-04
6.733241E+03	1.249781E-02	2.638228E-04
6.743128E+03	1.240485E-02	2.620461E-04
6.753016E+03	1.232085E-02	2.604585E-04
6.762903E+03	1.224752E-02	2.590966E-04
6.772790E+03	1.218725E-02	2.580112E-04
6.782677E+03	1.214158E-02	2.572358E-04
6.792565E+03	1.211236E-02	2.568099E-04
6.802452E+03	1.210085E-02	2.567614E-04
6.812339E+03	1.210829E-02	2.571176E-04
6.822227E+03	1.213540E-02	2.578941E-04
6.832114E+03	1.218239E-02	2.590971E-04
6.842001E+03	1.224899E-02	2.607214E-04
6.851888E+03	1.233418E-02	2.627466E-04
6.861776E+03	1.243679E-02	2.651488E-04
6.871663E+03	1.255443E-02	2.678777E-04
6.881550E+03	1.268457E-02	2.708806E-04
6.891438E+03	1.282427E-02	2.740950E-04
6.901325E+03	1.296980E-02	2.774423E-04
6.911212E+03	1.311768E-02	2.808476E-04
6.921099E+03	1.326486E-02	2.842466E-04
6.930987E+03	1.340801E-02	2.875677E-04
6.940874E+03	1.354483E-02	2.907612E-04
6.950761E+03	1.367343E-02	2.937868E-04
6.960649E+03	1.379249E-02	2.966151E-04
6.970536E+03	1.390168E-02	2.992389E-04
6.980423E+03	1.400098E-02	3.016573E-04
6.990310E+03	1.409127E-02	3.038890E-04
7.000198E+03	1.417341E-02	3.059515E-04
7.010085E+03	1.424926E-02	3.078853E-04
7.019972E+03	1.432042E-02	3.097243E-04
7.029860E+03	1.438856E-02	3.115047E-04
7.039747E+03	1.445567E-02	3.132692E-04
7.049634E+03	1.452336E-02	3.150531E-04
7.059521E+03	1.459280E-02	3.168819E-04
7.069409E+03	1.466478E-02	3.187729E-04
7.079296E+03	1.474025E-02	3.207469E-04
7.089183E+03	1.481892E-02	3.227984E-04
7.099071E+03	1.490065E-02	3.249243E-04
7.108958E+03	1.498446E-02	3.271036E-04
7.118845E+03	1.506902E-02	3.293075E-04
7.128732E+03	1.515307E-02	3.315090E-04
7.138620E+03	1.523502E-02	3.336730E-04
7.148507E+03	1.531273E-02	3.357526E-04
7.158394E+03	1.538457E-02	3.377120E-04
7.168282E+03	1.544830E-02	3.395017E-04
7.178169E+03	1.550249E-02	3.410893E-04
7.188056E+03	1.554499E-02	3.424275E-04
7.197943E+03	1.557420E-02	3.434798E-04
7.207831E+03	1.558855E-02	3.442106E-04
7.217718E+03	1.558693E-02	3.445943E-04
7.227605E+03	1.556837E-02	3.446085E-04
7.237493E+03	1.553270E-02	3.442479E-04
7.247380E+03	1.547937E-02	3.434986E-04
7.257267E+03	1.540919E-02	3.423776E-04
7.267154E+03	1.532237E-02	3.408881E-04
7.277042E+03	1.522020E-02	3.390572E-04
7.286929E+03	1.510358E-02	3.369035E-04
7.296816E+03	1.497414E-02	3.344624E-04
7.306704E+03	1.483299E-02	3.317574E-04
7.316591E+03	1.468183E-02	3.288253E-04
7.326478E+03	1.452154E-02	3.256850E-04
7.336365E+03	1.435369E-02	3.223707E-04
7.346253E+03	1.417938E-02	3.189064E-04
7.356140E+03	1.399999E-02	3.153222E-04
7.366027E+03	1.381628E-02	3.116348E-04
7.375915E+03	1.362969E-02	3.078761E-04
7.385802E+03	1.344144E-02	3.040735E-04
7.395689E+03	1.325239E-02	3.002456E-04
7.405576E+03	1.306369E-02	2.964188E-04
7.415464E+03	1.287666E-02	2.926222E-04
7.425351E+03	1.269187E-02	2.888694E-04
7.435238E+03	1.251075E-02	2.851921E-04
7.445126E+03	1.233415E-02	2.816104E-04
7.455013E+03	1.216300E-02	2.781454E-04
7.464900E+03	1.199846E-02	2.748240E-04
7.474787E+03	1.184158E-02	2.716710E-04
7.484675E+03	1.169340E-02	2.687106E-04
7.494562E+03	1.155520E-02	2.659731E-04
7.504449E+03	1.142774E-02	2.634770E-04
7.514337E+03	1.131187E-02	2.612428E-04
7.524224E+03	1.120867E-02	2.592966E-04
7.534111E+03	1.111868E-02	2.576524E-04
7.543998E+03	1.104267E-02	2.563291E-04
7.553886E+03	1.098112E-02	2.553398E-04
7.563773E+03	1.093438E-02	2.546940E-04
7.573660E+03	1.090259E-02	2.543968E-04
7.583548E+03	1.088564E-02	2.544472E-04
7.593435E+03	1.088340E-02	2.548439E-04
7.603322E+03	1.089466E-02	2.555603E-04
7.613209E+03	1.091871E-02	2.565812E-04
7.623097E+03	1.095374E-02	2.578657E-04
7.632984E+03	1.099808E-02	2.593757E-04
7.642871E+03	1.104964E-02	2.610631E-04
7.652759E+03	1.110603E-02	2.628720E-04
7.662646E+03	1.116523E-02	2.647551E-04
7.672533E+03	1.122463E-02	2.666510E-04
