#wls	flux	fluxerr
1.581966E+03	1.474617E-02	6.904640E-04
1.621515E+03	1.504982E-02	7.039871E-04
1.661064E+03	1.534429E-02	7.170358E-04
1.700613E+03	1.563291E-02	7.297641E-04
1.740162E+03	1.591088E-02	7.419493E-04
1.779711E+03	1.618152E-02	7.537448E-04
1.819260E+03	1.643693E-02	7.647834E-04
1.858810E+03	1.668310E-02	7.753446E-04
1.898359E+03	1.691757E-02	7.853141E-04
1.937908E+03	1.713770E-02	7.945699E-04
1.977457E+03	1.734652E-02	8.032536E-04
2.017006E+03	1.754114E-02	8.112325E-04
2.056555E+03	1.772436E-02	8.186365E-04
2.096104E+03	1.789295E-02	8.253175E-04
2.135654E+03	1.804929E-02	8.313874E-04
2.175203E+03	1.819549E-02	8.369438E-04
2.214752E+03	1.832184E-02	8.415417E-04
2.254301E+03	1.843002E-02	8.452608E-04
2.293850E+03	1.851022E-02	8.476550E-04
2.333399E+03	1.856125E-02	8.486744E-04
2.372948E+03	1.857383E-02	8.479017E-04
2.412498E+03	1.854475E-02	8.451971E-04
2.452047E+03	1.847123E-02	8.404444E-04
2.491596E+03	1.835115E-02	8.335566E-04
2.531145E+03	1.818310E-02	8.244810E-04
2.570694E+03	1.796422E-02	8.131000E-04
2.610243E+03	1.769515E-02	7.994553E-04
2.649792E+03	1.737752E-02	7.836341E-04
2.689342E+03	1.701800E-02	7.659506E-04
2.728891E+03	1.661776E-02	7.464695E-04
2.768440E+03	1.618473E-02	7.255586E-04
2.807989E+03	1.572176E-02	7.033575E-04
2.847538E+03	1.523290E-02	6.800562E-04
2.887087E+03	1.472163E-02	6.558203E-04
2.926636E+03	1.419399E-02	6.309273E-04
2.966185E+03	1.365781E-02	6.057319E-04
2.976073E+03	1.352418E-02	5.994643E-04
2.985960E+03	1.339003E-02	5.931785E-04
2.995847E+03	1.325676E-02	5.869366E-04
3.005735E+03	1.312320E-02	5.806873E-04
3.015622E+03	1.299070E-02	5.744904E-04
3.025509E+03	1.285935E-02	5.683490E-04
3.035396E+03	1.272803E-02	5.622146E-04
3.045284E+03	1.259804E-02	5.561435E-04
3.055171E+03	1.246942E-02	5.501386E-04
3.065058E+03	1.234113E-02	5.441535E-04
3.074946E+03	1.221547E-02	5.382896E-04
3.084833E+03	1.209031E-02	5.324524E-04
3.094720E+03	1.196783E-02	5.267389E-04
3.104607E+03	1.184599E-02	5.210583E-04
3.114495E+03	1.172690E-02	5.155037E-04
3.124382E+03	1.160956E-02	5.100308E-04
3.134269E+03	1.149400E-02	5.046411E-04
3.144157E+03	1.138122E-02	4.993781E-04
3.154044E+03	1.127025E-02	4.941994E-04
3.163931E+03	1.116204E-02	4.891464E-04
3.173818E+03	1.105566E-02	4.841778E-04
3.183706E+03	1.095291E-02	4.793726E-04
3.193593E+03	1.085194E-02	4.746498E-04
3.203480E+03	1.075362E-02	4.700473E-04
3.213368E+03	1.065876E-02	4.656001E-04
3.223255E+03	1.056644E-02	4.612674E-04
3.233142E+03	1.047658E-02	4.570464E-04
3.243029E+03	1.039076E-02	4.530051E-04
3.252917E+03	1.030723E-02	4.490671E-04
3.262804E+03	1.022671E-02	4.452635E-04
3.272691E+03	1.014906E-02	4.415886E-04
3.282579E+03	1.007494E-02	4.380702E-04
3.292466E+03	1.000417E-02	4.347005E-04
3.302353E+03	9.935858E-03	4.314401E-04
3.312240E+03	9.871291E-03	4.283452E-04
3.322128E+03	9.810259E-03	4.254062E-04
3.332015E+03	9.751838E-03	4.225826E-04
3.341902E+03	9.696520E-03	4.198957E-04
3.351790E+03	9.644748E-03	4.173643E-04
3.361677E+03	9.596247E-03	4.149763E-04
3.371564E+03	9.550087E-03	4.126911E-04
3.381451E+03	9.507947E-03	4.105811E-04
3.391339E+03	9.468213E-03	4.085763E-04
3.401226E+03	9.431838E-03	4.067176E-04
3.411113E+03	9.398475E-03	4.049898E-04
3.421001E+03	9.368374E-03	4.034032E-04
3.430888E+03	9.340560E-03	4.019158E-04
3.440775E+03	9.315853E-03	4.005625E-04
3.450662E+03	9.293851E-03	3.993257E-04
3.460550E+03	9.274163E-03	3.981886E-04
3.470437E+03	9.256961E-03	3.971582E-04
3.480324E+03	9.242389E-03	3.962405E-04
3.490212E+03	9.230043E-03	3.954179E-04
3.500099E+03	9.219536E-03	3.946737E-04
3.509986E+03	9.211024E-03	3.940143E-04
3.519873E+03	9.203654E-03	3.934031E-04
3.529761E+03	9.198137E-03	3.928705E-04
3.539648E+03	9.193214E-03	3.923623E-04
3.549535E+03	9.188717E-03	3.918716E-04
3.559423E+03	9.185025E-03	3.914143E-04
3.569310E+03	9.182097E-03	3.909887E-04
3.579197E+03	9.179083E-03	3.905584E-04
3.589084E+03	9.177075E-03	3.901700E-04
3.598972E+03	9.175472E-03	3.897978E-04
3.608859E+03	9.175118E-03	3.894777E-04
3.618746E+03	9.176110E-03	3.892135E-04
3.628634E+03	9.179487E-03	3.890493E-04
3.638521E+03	9.185150E-03	3.889805E-04
3.648408E+03	9.194327E-03	3.890590E-04
3.658295E+03	9.207894E-03	3.893213E-04
3.668183E+03	9.226798E-03	3.898071E-04
3.678070E+03	9.251287E-03	3.905263E-04
3.687957E+03	9.283157E-03	3.915540E-04
3.697845E+03	9.322739E-03	3.929034E-04
3.707732E+03	9.371132E-03	3.946201E-04
3.717619E+03	9.429769E-03	3.967634E-04
3.727506E+03	9.499003E-03	3.993471E-04
3.737394E+03	9.580200E-03	4.024273E-04
3.747281E+03	9.673982E-03	4.060290E-04
3.757168E+03	9.781229E-03	4.101877E-04
3.767056E+03	9.902395E-03	4.149210E-04
3.776943E+03	1.003848E-02	4.202692E-04
3.786830E+03	1.018935E-02	4.262251E-04
3.796717E+03	1.035569E-02	4.328160E-04
3.806605E+03	1.053769E-02	4.400478E-04
3.816492E+03	1.073467E-02	4.478904E-04
3.826379E+03	1.094671E-02	4.563454E-04
3.836267E+03	1.117299E-02	4.653772E-04
3.846154E+03	1.141244E-02	4.749398E-04
3.856041E+03	1.166440E-02	4.850037E-04
3.865928E+03	1.192727E-02	4.955016E-04
3.875816E+03	1.219954E-02	5.063694E-04
3.885703E+03	1.247912E-02	5.175191E-04
3.895590E+03	1.276402E-02	5.288677E-04
3.905478E+03	1.305171E-02	5.403095E-04
3.915365E+03	1.334015E-02	5.517599E-04
3.925252E+03	1.362615E-02	5.630868E-04
3.935139E+03	1.390706E-02	5.741814E-04
3.945027E+03	1.418055E-02	5.849474E-04
3.954914E+03	1.444288E-02	5.952320E-04
3.964801E+03	1.469210E-02	6.049558E-04
3.974689E+03	1.492535E-02	6.140027E-04
3.984576E+03	1.513996E-02	6.222646E-04
3.994463E+03	1.533351E-02	6.296440E-04
4.004350E+03	1.550492E-02	6.360992E-04
4.014238E+03	1.565175E-02	6.415327E-04
4.024125E+03	1.577333E-02	6.459194E-04
4.034012E+03	1.586904E-02	6.492375E-04
4.043900E+03	1.593803E-02	6.514544E-04
4.053787E+03	1.598116E-02	6.526092E-04
4.063674E+03	1.599807E-02	6.526891E-04
4.073561E+03	1.599037E-02	6.517636E-04
4.083449E+03	1.595905E-02	6.498753E-04
4.093336E+03	1.590538E-02	6.470788E-04
4.103223E+03	1.583152E-02	6.434648E-04
4.113111E+03	1.573921E-02	6.391059E-04
4.122998E+03	1.563035E-02	6.340813E-04
4.132885E+03	1.550781E-02	6.285100E-04
4.142772E+03	1.537335E-02	6.224641E-04
4.152660E+03	1.522931E-02	6.160399E-04
4.162547E+03	1.507825E-02	6.093423E-04
4.172434E+03	1.492238E-02	6.024611E-04
4.182322E+03	1.476354E-02	5.954712E-04
4.192209E+03	1.460399E-02	5.884644E-04
4.202096E+03	1.444536E-02	5.815061E-04
4.211983E+03	1.428967E-02	5.746778E-04
4.221871E+03	1.413885E-02	5.680561E-04
4.231758E+03	1.399396E-02	5.616837E-04
4.241645E+03	1.385722E-02	5.556487E-04
4.251533E+03	1.372956E-02	5.499874E-04
4.261420E+03	1.361279E-02	5.447711E-04
4.271307E+03	1.350795E-02	5.400404E-04
4.281194E+03	1.341669E-02	5.358599E-04
4.291082E+03	1.333994E-02	5.322645E-04
4.300969E+03	1.327917E-02	5.293120E-04
4.310856E+03	1.323537E-02	5.270391E-04
4.320744E+03	1.320941E-02	5.254791E-04
4.330631E+03	1.320250E-02	5.246778E-04
4.340518E+03	1.321514E-02	5.246523E-04
4.350405E+03	1.324809E-02	5.254312E-04
4.360293E+03	1.330203E-02	5.270386E-04
4.370180E+03	1.337728E-02	5.294844E-04
4.380067E+03	1.347399E-02	5.327727E-04
4.389955E+03	1.359238E-02	5.369088E-04
4.399842E+03	1.373204E-02	5.418750E-04
4.409729E+03	1.389280E-02	5.476610E-04
4.419616E+03	1.407382E-02	5.542316E-04
4.429504E+03	1.427422E-02	5.615497E-04
4.439391E+03	1.449281E-02	5.695669E-04
4.449278E+03	1.472772E-02	5.782063E-04
4.459166E+03	1.497729E-02	5.874021E-04
4.469053E+03	1.523912E-02	5.970579E-04
4.478940E+03	1.551041E-02	6.070624E-04
4.488827E+03	1.578814E-02	6.172973E-04
4.498715E+03	1.606873E-02	6.276211E-04
4.508602E+03	1.634818E-02	6.378779E-04
4.518489E+03	1.662260E-02	6.479164E-04
4.528377E+03	1.688717E-02	6.575488E-04
4.538264E+03	1.713727E-02	6.665977E-04
4.548151E+03	1.736822E-02	6.748824E-04
4.558038E+03	1.757490E-02	6.822065E-04
4.567926E+03	1.775327E-02	6.884164E-04
4.577813E+03	1.789871E-02	6.933366E-04
4.587700E+03	1.800755E-02	6.968293E-04
4.597588E+03	1.807678E-02	6.987828E-04
4.607475E+03	1.810423E-02	6.991173E-04
4.617362E+03	1.808839E-02	6.977806E-04
4.627249E+03	1.802952E-02	6.947872E-04
4.637137E+03	1.792783E-02	6.901508E-04
4.647024E+03	1.778600E-02	6.839797E-04
4.656911E+03	1.760669E-02	6.763809E-04
4.666798E+03	1.739404E-02	6.675172E-04
4.676686E+03	1.715325E-02	6.575931E-04
4.686573E+03	1.688987E-02	6.468235E-04
4.696460E+03	1.661036E-02	6.354588E-04
4.706348E+03	1.632110E-02	6.237447E-04
4.716235E+03	1.602859E-02	6.119305E-04
4.726122E+03	1.573963E-02	6.002754E-04
4.736009E+03	1.546018E-02	5.890070E-04
4.745897E+03	1.519638E-02	5.783572E-04
4.755784E+03	1.495347E-02	5.685235E-04
4.765671E+03	1.473659E-02	5.596987E-04
4.775559E+03	1.454984E-02	5.520353E-04
4.785446E+03	1.439643E-02	5.456512E-04
4.795333E+03	1.427914E-02	5.406477E-04
4.805220E+03	1.419996E-02	5.370962E-04
4.815108E+03	1.415976E-02	5.350248E-04
4.824995E+03	1.415889E-02	5.344424E-04
4.834882E+03	1.419670E-02	5.353198E-04
4.844770E+03	1.427147E-02	5.375880E-04
4.854657E+03	1.438093E-02	5.411569E-04
4.864544E+03	1.452172E-02	5.458968E-04
4.874431E+03	1.468965E-02	5.516464E-04
4.884319E+03	1.487957E-02	5.582097E-04
4.894206E+03	1.508616E-02	5.653850E-04
4.904093E+03	1.530314E-02	5.729347E-04
4.913981E+03	1.552408E-02	5.806180E-04
4.923868E+03	1.574253E-02	5.881935E-04
4.933755E+03	1.595229E-02	5.954300E-04
4.943642E+03	1.614785E-02	6.021230E-04
4.953530E+03	1.632413E-02	6.080853E-04
4.963417E+03	1.647745E-02	6.131818E-04
4.973304E+03	1.660495E-02	6.173093E-04
4.983192E+03	1.670546E-02	6.204271E-04
4.993079E+03	1.677896E-02	6.225378E-04
5.002966E+03	1.682653E-02	6.236841E-04
5.012853E+03	1.685088E-02	6.239696E-04
5.022741E+03	1.685508E-02	6.235103E-04
5.032628E+03	1.684283E-02	6.224453E-04
5.042515E+03	1.681893E-02	6.209538E-04
5.052403E+03	1.678723E-02	6.191791E-04
5.062290E+03	1.675242E-02	6.172946E-04
5.072177E+03	1.671860E-02	6.154516E-04
5.082064E+03	1.668949E-02	6.137872E-04
5.091952E+03	1.666823E-02	6.124161E-04
5.101839E+03	1.665781E-02	6.114475E-04
5.111726E+03	1.666058E-02	6.109659E-04
5.121614E+03	1.667839E-02	6.110385E-04
5.131501E+03	1.671266E-02	6.117152E-04
5.141388E+03	1.676440E-02	6.130318E-04
5.151275E+03	1.683446E-02	6.150173E-04
5.161163E+03	1.692285E-02	6.176703E-04
5.171050E+03	1.703001E-02	6.210053E-04
5.180937E+03	1.715580E-02	6.250154E-04
5.190825E+03	1.729970E-02	6.296798E-04
5.200712E+03	1.746118E-02	6.349774E-04
5.210599E+03	1.763953E-02	6.408811E-04
5.220486E+03	1.783405E-02	6.473643E-04
5.230374E+03	1.804377E-02	6.543896E-04
5.240261E+03	1.826737E-02	6.619087E-04
5.250148E+03	1.850362E-02	6.698758E-04
5.260036E+03	1.875142E-02	6.782500E-04
5.269923E+03	1.900942E-02	6.869813E-04
5.279810E+03	1.927600E-02	6.960112E-04
5.289697E+03	1.954969E-02	7.052863E-04
5.299585E+03	1.982916E-02	7.147573E-04
5.309472E+03	2.011253E-02	7.243570E-04
5.319359E+03	2.039811E-02	7.340242E-04
5.329247E+03	2.068339E-02	7.436692E-04
5.339134E+03	2.096573E-02	7.531971E-04
5.349021E+03	2.124230E-02	7.625070E-04
5.358908E+03	2.150944E-02	7.714683E-04
5.368796E+03	2.176323E-02	7.799412E-04
5.378683E+03	2.199943E-02	7.877755E-04
5.388570E+03	2.221283E-02	7.947867E-04
5.398458E+03	2.239816E-02	8.007882E-04
5.408345E+03	2.254929E-02	8.055635E-04
5.418232E+03	2.266005E-02	8.088953E-04
5.428119E+03	2.272452E-02	8.105754E-04
5.438007E+03	2.273661E-02	8.103918E-04
5.447894E+03	2.269122E-02	8.081657E-04
5.457781E+03	2.258429E-02	8.037581E-04
5.467669E+03	2.241347E-02	7.970900E-04
5.477556E+03	2.217798E-02	7.881383E-04
5.487443E+03	2.187902E-02	7.769507E-04
5.497330E+03	2.152012E-02	7.636570E-04
5.507218E+03	2.110644E-02	7.484444E-04
5.517105E+03	2.064542E-02	7.315807E-04
5.526992E+03	2.014586E-02	7.133807E-04
5.536880E+03	1.961778E-02	6.942006E-04
5.546767E+03	1.907171E-02	6.744157E-04
5.556654E+03	1.851898E-02	6.544263E-04
5.566541E+03	1.797062E-02	6.346224E-04
5.576429E+03	1.743731E-02	6.153797E-04
5.586316E+03	1.692919E-02	5.970552E-04
5.596203E+03	1.645508E-02	5.799568E-04
5.606091E+03	1.602327E-02	5.643744E-04
5.615978E+03	1.564100E-02	5.505591E-04
5.625865E+03	1.531406E-02	5.387113E-04
5.635752E+03	1.504736E-02	5.289995E-04
5.645640E+03	1.484475E-02	5.215550E-04
5.655527E+03	1.470925E-02	5.164794E-04
5.665414E+03	1.464261E-02	5.138295E-04
5.675302E+03	1.464588E-02	5.136381E-04
5.685189E+03	1.471880E-02	5.158917E-04
5.695076E+03	1.486026E-02	5.205467E-04
5.704963E+03	1.506755E-02	5.275046E-04
5.714851E+03	1.533690E-02	5.366293E-04
5.724738E+03	1.566277E-02	5.477239E-04
5.734625E+03	1.603852E-02	5.605534E-04
5.744513E+03	1.645585E-02	5.748248E-04
5.754400E+03	1.690555E-02	5.902149E-04
5.764287E+03	1.737706E-02	6.063535E-04
5.774174E+03	1.785920E-02	6.228500E-04
5.784062E+03	1.834056E-02	6.393067E-04
5.793949E+03	1.880941E-02	6.553146E-04
5.803836E+03	1.925459E-02	6.704872E-04
5.813724E+03	1.966591E-02	6.844704E-04
5.823611E+03	2.003446E-02	6.969573E-04
5.833498E+03	2.035305E-02	7.076998E-04
5.843385E+03	2.061645E-02	7.165193E-04
5.853273E+03	2.082136E-02	7.233038E-04
5.863160E+03	2.096683E-02	7.280234E-04
5.873047E+03	2.105412E-02	7.307251E-04
5.882935E+03	2.108586E-02	7.315024E-04
5.892822E+03	2.106605E-02	7.304973E-04
5.902709E+03	2.100041E-02	7.279101E-04
5.912596E+03	2.089430E-02	7.239284E-04
5.922484E+03	2.075449E-02	7.187889E-04
5.932371E+03	2.058723E-02	7.127087E-04
5.942258E+03	2.039860E-02	7.058995E-04
5.952146E+03	2.019475E-02	6.985749E-04
5.962033E+03	1.998096E-02	6.909178E-04
5.971920E+03	1.976215E-02	6.830988E-04
5.981807E+03	1.954247E-02	6.752607E-04
5.991695E+03	1.932582E-02	6.675389E-04
6.001582E+03	1.911496E-02	6.600276E-04
6.011469E+03	1.891262E-02	6.528216E-04
6.021357E+03	1.872045E-02	6.459767E-04
6.031244E+03	1.854032E-02	6.395572E-04
6.041131E+03	1.837288E-02	6.335848E-04
6.051018E+03	1.821870E-02	6.280788E-04
6.060906E+03	1.807794E-02	6.230443E-04
6.070793E+03	1.795018E-02	6.184665E-04
6.080680E+03	1.783485E-02	6.143248E-04
6.090568E+03	1.773103E-02	6.105871E-04
6.100455E+03	1.763748E-02	6.072112E-04
6.110342E+03	1.755241E-02	6.041340E-04
6.120229E+03	1.747448E-02	6.013102E-04
6.130117E+03	1.740175E-02	5.986721E-04
6.140004E+03	1.733253E-02	5.961618E-04
6.149891E+03	1.726484E-02	5.937109E-04
6.159779E+03	1.719732E-02	5.912724E-04
6.169666E+03	1.712826E-02	5.887874E-04
6.179553E+03	1.705617E-02	5.862049E-04
6.189440E+03	1.698007E-02	5.834907E-04
6.199328E+03	1.689866E-02	5.806004E-04
6.209215E+03	1.681179E-02	5.775288E-04
6.219102E+03	1.671925E-02	5.742684E-04
6.228990E+03	1.662157E-02	5.708372E-04
6.238877E+03	1.651954E-02	5.672629E-04
6.248764E+03	1.641365E-02	5.635619E-04
6.258651E+03	1.630517E-02	5.597774E-04
6.268539E+03	1.619499E-02	5.559402E-04
6.278426E+03	1.608394E-02	5.520784E-04
6.288313E+03	1.597291E-02	5.482225E-04
6.298201E+03	1.586231E-02	5.443867E-04
6.308088E+03	1.575278E-02	5.405926E-04
6.317975E+03	1.564488E-02	5.368591E-04
6.327862E+03	1.553891E-02	5.331969E-04
6.337750E+03	1.543523E-02	5.296174E-04
6.347637E+03	1.533440E-02	5.261403E-04
6.357524E+03	1.523700E-02	5.227849E-04
6.367412E+03	1.514413E-02	5.195894E-04
6.377299E+03	1.505671E-02	5.165848E-04
6.387186E+03	1.497628E-02	5.138243E-04
6.397073E+03	1.490455E-02	5.113656E-04
6.406961E+03	1.484358E-02	5.092803E-04
6.416848E+03	1.479543E-02	5.076383E-04
6.426735E+03	1.476212E-02	5.065091E-04
6.436623E+03	1.474550E-02	5.059562E-04
6.446510E+03	1.474706E-02	5.060310E-04
6.456397E+03	1.476783E-02	5.067682E-04
6.466284E+03	1.480815E-02	5.081803E-04
6.476172E+03	1.486766E-02	5.102545E-04
6.486059E+03	1.494533E-02	5.129560E-04
6.495946E+03	1.503901E-02	5.162109E-04
6.505833E+03	1.514628E-02	5.199363E-04
6.515721E+03	1.526337E-02	5.240030E-04
6.525608E+03	1.538664E-02	5.282864E-04
6.535495E+03	1.551158E-02	5.326312E-04
6.545383E+03	1.563379E-02	5.368872E-04
6.555270E+03	1.574873E-02	5.408979E-04
6.565157E+03	1.585203E-02	5.445133E-04
6.575044E+03	1.593969E-02	5.475957E-04
6.584932E+03	1.600839E-02	5.500314E-04
6.594819E+03	1.605525E-02	5.517210E-04
6.604706E+03	1.607809E-02	5.525888E-04
6.614594E+03	1.607527E-02	5.525786E-04
6.624481E+03	1.604654E-02	5.516810E-04
6.634368E+03	1.599201E-02	5.498999E-04
6.644255E+03	1.591238E-02	5.472579E-04
6.654143E+03	1.580934E-02	5.438137E-04
6.664030E+03	1.568482E-02	5.396326E-04
6.673917E+03	1.554182E-02	5.348174E-04
6.683805E+03	1.538320E-02	5.294660E-04
6.693692E+03	1.521259E-02	5.237030E-04
6.703579E+03	1.503337E-02	5.176444E-04
6.713466E+03	1.485011E-02	5.114474E-04
6.723354E+03	1.466662E-02	5.052431E-04
6.733241E+03	1.448741E-02	4.991864E-04
6.743128E+03	1.431662E-02	4.934205E-04
6.753016E+03	1.415893E-02	4.881065E-04
6.762903E+03	1.401817E-02	4.833764E-04
6.772790E+03	1.389866E-02	4.793802E-04
6.782677E+03	1.380388E-02	4.762382E-04
6.792565E+03	1.373687E-02	4.740559E-04
6.802452E+03	1.370063E-02	4.729374E-04
6.812339E+03	1.369709E-02	4.729508E-04
6.822227E+03	1.372704E-02	4.741238E-04
6.832114E+03	1.379106E-02	4.764775E-04
6.842001E+03	1.388816E-02	4.799793E-04
6.851888E+03	1.401650E-02	4.845662E-04
6.861776E+03	1.417329E-02	4.901433E-04
6.871663E+03	1.435431E-02	4.965657E-04
6.881550E+03	1.455456E-02	5.036608E-04
6.891438E+03	1.476842E-02	5.112352E-04
6.901325E+03	1.498937E-02	5.190636E-04
6.911212E+03	1.521088E-02	5.269206E-04
6.921099E+03	1.542683E-02	5.345942E-04
6.930987E+03	1.563107E-02	5.418712E-04
6.940874E+03	1.581920E-02	5.485985E-04
6.950761E+03	1.598740E-02	5.546434E-04
6.960649E+03	1.613344E-02	5.599279E-04
6.970536E+03	1.625654E-02	5.644240E-04
6.980423E+03	1.635732E-02	5.681524E-04
6.990310E+03	1.643742E-02	5.711693E-04
7.000198E+03	1.650018E-02	5.735900E-04
7.010085E+03	1.654881E-02	5.755254E-04
7.019972E+03	1.658740E-02	5.771177E-04
7.029860E+03	1.662044E-02	5.785223E-04
7.039747E+03	1.665205E-02	5.798828E-04
7.049634E+03	1.668552E-02	5.813137E-04
7.059521E+03	1.672447E-02	5.829413E-04
7.069409E+03	1.677114E-02	5.848439E-04
7.079296E+03	1.682695E-02	5.870719E-04
7.089183E+03	1.689296E-02	5.896628E-04
7.099071E+03	1.696895E-02	5.926094E-04
7.108958E+03	1.705417E-02	5.958859E-04
7.118845E+03	1.714717E-02	5.994429E-04
7.128732E+03	1.724598E-02	6.032111E-04
7.138620E+03	1.734813E-02	6.071056E-04
7.148507E+03	1.745040E-02	6.110130E-04
7.158394E+03	1.755026E-02	6.148456E-04
7.168282E+03	1.764415E-02	6.184781E-04
7.178169E+03	1.772895E-02	6.218014E-04
7.188056E+03	1.780171E-02	6.247109E-04
7.197943E+03	1.785966E-02	6.271092E-04
7.207831E+03	1.790015E-02	6.289026E-04
7.217718E+03	1.792123E-02	6.300211E-04
7.227605E+03	1.792122E-02	6.304046E-04
7.237493E+03	1.789902E-02	6.300132E-04
7.247380E+03	1.785489E-02	6.288546E-04
7.257267E+03	1.778843E-02	6.269132E-04
7.267154E+03	1.770050E-02	6.242178E-04
7.277042E+03	1.759264E-02	6.208216E-04
7.286929E+03	1.746598E-02	6.167625E-04
7.296816E+03	1.732231E-02	6.121031E-04
7.306704E+03	1.716332E-02	6.069010E-04
7.316591E+03	1.699113E-02	6.012306E-04
7.326478E+03	1.680709E-02	5.951386E-04
7.336365E+03	1.661291E-02	5.886842E-04
7.346253E+03	1.641039E-02	5.819306E-04
7.356140E+03	1.620073E-02	5.749193E-04
7.366027E+03	1.598501E-02	5.676884E-04
7.375915E+03	1.576496E-02	5.602980E-04
7.385802E+03	1.554154E-02	5.527824E-04
7.395689E+03	1.531641E-02	5.451997E-04
7.405576E+03	1.509034E-02	5.375773E-04
7.415464E+03	1.486525E-02	5.299832E-04
7.425351E+03	1.464224E-02	5.224565E-04
7.435238E+03	1.442293E-02	5.150545E-04
7.445126E+03	1.420877E-02	5.078295E-04
7.455013E+03	1.400148E-02	5.008425E-04
7.464900E+03	1.380248E-02	4.941452E-04
7.474787E+03	1.361321E-02	4.877894E-04
7.484675E+03	1.343533E-02	4.818354E-04
7.494562E+03	1.327054E-02	4.763447E-04
7.504449E+03	1.312013E-02	4.713652E-04
7.514337E+03	1.298596E-02	4.669643E-04
7.524224E+03	1.286902E-02	4.631793E-04
7.534111E+03	1.277095E-02	4.600707E-04
7.543998E+03	1.269264E-02	4.576721E-04
7.553886E+03	1.263529E-02	4.560291E-04
7.563773E+03	1.259909E-02	4.551500E-04
7.573660E+03	1.258458E-02	4.550566E-04
7.583548E+03	1.259113E-02	4.557285E-04
7.593435E+03	1.261857E-02	4.571614E-04
7.603322E+03	1.266508E-02	4.592912E-04
7.613209E+03	1.272921E-02	4.620677E-04
7.623097E+03	1.280864E-02	4.654082E-04
7.632984E+03	1.290038E-02	4.692056E-04
7.642871E+03	1.300124E-02	4.733451E-04
7.652759E+03	1.310799E-02	4.777100E-04
7.662646E+03	1.321709E-02	4.821715E-04
7.672533E+03	1.332463E-02	4.865875E-04
