#wls	flux	fluxerr
1.581966E+03	1.315985E-02	5.693625E-04
1.621515E+03	1.343020E-02	5.797469E-04
1.661064E+03	1.369512E-02	5.898114E-04
1.700613E+03	1.395041E-02	5.993742E-04
1.740162E+03	1.419918E-02	6.085692E-04
1.779711E+03	1.443959E-02	6.173170E-04
1.819260E+03	1.466705E-02	6.254222E-04
1.858810E+03	1.488729E-02	6.331296E-04
1.898359E+03	1.509559E-02	6.402395E-04
1.937908E+03	1.529238E-02	6.467714E-04
1.977457E+03	1.547803E-02	6.527428E-04
2.017006E+03	1.565016E-02	6.580551E-04
2.056555E+03	1.581168E-02	6.628328E-04
2.096104E+03	1.596270E-02	6.670821E-04
2.135654E+03	1.610045E-02	6.706901E-04
2.175203E+03	1.622474E-02	6.736517E-04
2.214752E+03	1.633254E-02	6.758453E-04
2.254301E+03	1.642077E-02	6.771484E-04
2.293850E+03	1.648634E-02	6.774410E-04
2.333399E+03	1.652626E-02	6.766088E-04
2.372948E+03	1.653516E-02	6.744436E-04
2.412498E+03	1.650818E-02	6.707604E-04
2.452047E+03	1.644588E-02	6.655987E-04
2.491596E+03	1.634440E-02	6.588197E-04
2.531145E+03	1.620076E-02	6.503228E-04
2.570694E+03	1.601950E-02	6.403114E-04
2.610243E+03	1.579684E-02	6.286559E-04
2.649792E+03	1.553649E-02	6.155263E-04
2.689342E+03	1.524066E-02	6.010322E-04
2.728891E+03	1.491415E-02	5.853844E-04
2.768440E+03	1.455859E-02	5.686665E-04
2.807989E+03	1.417661E-02	5.510003E-04
2.847538E+03	1.377324E-02	5.326007E-04
2.887087E+03	1.335246E-02	5.136366E-04
2.926636E+03	1.291874E-02	4.942951E-04
2.966185E+03	1.247959E-02	4.748742E-04
2.976073E+03	1.237036E-02	4.700613E-04
2.985960E+03	1.226203E-02	4.652904E-04
2.995847E+03	1.215210E-02	4.604676E-04
3.005735E+03	1.204447E-02	4.557406E-04
3.015622E+03	1.193669E-02	4.510162E-04
3.025509E+03	1.182884E-02	4.462980E-04
3.035396E+03	1.172222E-02	4.416349E-04
3.045284E+03	1.161688E-02	4.370281E-04
3.055171E+03	1.151283E-02	4.324788E-04
3.065058E+03	1.141013E-02	4.279884E-04
3.074946E+03	1.130768E-02	4.235158E-04
3.084833E+03	1.120777E-02	4.191467E-04
3.094720E+03	1.110821E-02	4.147989E-04
3.104607E+03	1.101121E-02	4.105547E-04
3.114495E+03	1.091463E-02	4.063345E-04
3.124382E+03	1.082062E-02	4.022177E-04
3.134269E+03	1.072811E-02	3.981650E-04
3.144157E+03	1.063814E-02	3.942136E-04
3.154044E+03	1.054967E-02	3.903254E-04
3.163931E+03	1.046270E-02	3.865003E-04
3.173818E+03	1.037915E-02	3.828087E-04
3.183706E+03	1.029706E-02	3.791775E-04
3.193593E+03	1.021732E-02	3.756400E-04
3.203480E+03	1.013990E-02	3.721942E-04
3.213368E+03	1.006474E-02	3.688376E-04
3.223255E+03	9.992655E-03	3.656000E-04
3.233142E+03	9.922674E-03	3.624451E-04
3.243029E+03	9.854729E-03	3.593703E-04
3.252917E+03	9.790440E-03	3.564341E-04
3.262804E+03	9.728817E-03	3.536000E-04
3.272691E+03	9.668924E-03	3.508336E-04
3.282579E+03	9.612289E-03	3.481899E-04
3.292466E+03	9.558756E-03	3.456628E-04
3.302353E+03	9.507366E-03	3.432172E-04
3.312240E+03	9.459540E-03	3.409039E-04
3.322128E+03	9.414302E-03	3.386870E-04
3.332015E+03	9.371483E-03	3.365603E-04
3.341902E+03	9.331640E-03	3.345430E-04
3.351790E+03	9.295288E-03	3.326533E-04
3.361677E+03	9.260743E-03	3.308303E-04
3.371564E+03	9.229942E-03	3.291426E-04
3.381451E+03	9.201207E-03	3.275301E-04
3.391339E+03	9.175694E-03	3.260332E-04
3.401226E+03	9.153117E-03	3.246414E-04
3.411113E+03	9.132534E-03	3.233207E-04
3.421001E+03	9.115667E-03	3.221315E-04
3.430888E+03	9.100247E-03	3.209932E-04
3.440775E+03	9.087942E-03	3.199642E-04
3.450662E+03	9.078440E-03	3.190329E-04
3.460550E+03	9.070810E-03	3.181662E-04
3.470437E+03	9.066000E-03	3.173968E-04
3.480324E+03	9.063101E-03	3.166925E-04
3.490212E+03	9.062430E-03	3.160639E-04
3.500099E+03	9.063712E-03	3.155011E-04
3.509986E+03	9.066690E-03	3.149946E-04
3.519873E+03	9.071692E-03	3.145556E-04
3.529761E+03	9.077931E-03	3.141564E-04
3.539648E+03	9.086320E-03	3.138282E-04
3.549535E+03	9.095629E-03	3.135284E-04
3.559423E+03	9.105782E-03	3.132539E-04
3.569310E+03	9.117788E-03	3.130394E-04
3.579197E+03	9.131151E-03	3.128674E-04
3.589084E+03	9.145458E-03	3.127235E-04
3.598972E+03	9.161386E-03	3.126306E-04
3.608859E+03	9.179254E-03	3.125993E-04
3.618746E+03	9.199447E-03	3.126422E-04
3.628634E+03	9.221944E-03	3.127581E-04
3.638521E+03	9.247731E-03	3.129800E-04
3.648408E+03	9.277358E-03	3.133256E-04
3.658295E+03	9.310957E-03	3.137985E-04
3.668183E+03	9.349181E-03	3.144200E-04
3.678070E+03	9.392695E-03	3.152113E-04
3.687957E+03	9.442177E-03	3.161939E-04
3.697845E+03	9.498780E-03	3.174050E-04
3.707732E+03	9.562413E-03	3.188402E-04
3.717619E+03	9.633811E-03	3.205221E-04
3.727506E+03	9.714112E-03	3.224871E-04
3.737394E+03	9.803611E-03	3.247427E-04
3.747281E+03	9.902955E-03	3.273083E-04
3.757168E+03	1.001275E-02	3.302016E-04
3.767056E+03	1.013313E-02	3.334249E-04
3.776943E+03	1.026454E-02	3.369902E-04
3.786830E+03	1.040766E-02	3.409174E-04
3.796717E+03	1.056229E-02	3.451972E-04
3.806605E+03	1.072773E-02	3.498041E-04
3.816492E+03	1.090496E-02	3.547674E-04
3.826379E+03	1.109255E-02	3.600378E-04
3.836267E+03	1.129037E-02	3.656094E-04
3.846154E+03	1.149740E-02	3.714460E-04
3.856041E+03	1.171313E-02	3.775291E-04
3.865928E+03	1.193576E-02	3.837994E-04
3.875816E+03	1.216449E-02	3.902287E-04
3.885703E+03	1.239756E-02	3.967597E-04
3.895590E+03	1.263348E-02	4.033434E-04
3.905478E+03	1.287032E-02	4.099180E-04
3.915365E+03	1.310683E-02	4.164432E-04
3.925252E+03	1.334053E-02	4.228401E-04
3.935139E+03	1.356999E-02	4.290644E-04
3.945027E+03	1.379299E-02	4.350469E-04
3.954914E+03	1.400731E-02	4.407190E-04
3.964801E+03	1.421150E-02	4.460376E-04
3.974689E+03	1.440383E-02	4.509502E-04
3.984576E+03	1.458154E-02	4.553736E-04
3.994463E+03	1.474426E-02	4.592998E-04
4.004350E+03	1.488958E-02	4.626574E-04
4.014238E+03	1.501678E-02	4.654278E-04
4.024125E+03	1.512507E-02	4.675911E-04
4.034012E+03	1.521322E-02	4.691139E-04
4.043900E+03	1.528166E-02	4.700141E-04
4.053787E+03	1.532938E-02	4.702654E-04
4.063674E+03	1.535736E-02	4.699030E-04
4.073561E+03	1.536579E-02	4.689370E-04
4.083449E+03	1.535519E-02	4.673883E-04
4.093336E+03	1.532698E-02	4.653044E-04
4.103223E+03	1.528207E-02	4.627174E-04
4.113111E+03	1.522201E-02	4.596782E-04
4.122998E+03	1.514847E-02	4.562405E-04
4.132885E+03	1.506288E-02	4.524508E-04
4.142772E+03	1.496742E-02	4.483774E-04
4.152660E+03	1.486368E-02	4.440704E-04
4.162547E+03	1.475352E-02	4.395874E-04
4.172434E+03	1.463906E-02	4.349926E-04
4.182322E+03	1.452149E-02	4.303226E-04
4.192209E+03	1.440303E-02	4.256442E-04
4.202096E+03	1.428500E-02	4.209962E-04
4.211983E+03	1.416915E-02	4.164306E-04
4.221871E+03	1.405665E-02	4.119805E-04
4.231758E+03	1.394887E-02	4.076857E-04
4.241645E+03	1.384736E-02	4.035901E-04
4.251533E+03	1.375333E-02	3.997276E-04
4.261420E+03	1.366773E-02	3.961238E-04
4.271307E+03	1.359215E-02	3.928231E-04
4.281194E+03	1.352737E-02	3.898454E-04
4.291082E+03	1.347460E-02	3.872226E-04
4.300969E+03	1.343448E-02	3.849705E-04
4.310856E+03	1.340803E-02	3.831150E-04
4.320744E+03	1.339614E-02	3.816785E-04
4.330631E+03	1.339899E-02	3.806625E-04
4.340518E+03	1.341755E-02	3.800908E-04
4.350405E+03	1.345206E-02	3.799664E-04
4.360293E+03	1.350309E-02	3.803018E-04
4.370180E+03	1.357067E-02	3.810935E-04
4.380067E+03	1.365464E-02	3.823335E-04
4.389955E+03	1.375536E-02	3.840274E-04
4.399842E+03	1.387259E-02	3.861647E-04
4.409729E+03	1.400543E-02	3.887163E-04
4.419616E+03	1.415319E-02	3.916599E-04
4.429504E+03	1.431544E-02	3.949796E-04
4.439391E+03	1.449060E-02	3.986283E-04
4.449278E+03	1.467724E-02	4.025645E-04
4.459166E+03	1.487397E-02	4.067467E-04
4.469053E+03	1.507880E-02	4.111189E-04
4.478940E+03	1.528909E-02	4.156071E-04
4.488827E+03	1.550261E-02	4.201497E-04
4.498715E+03	1.571642E-02	4.246669E-04
4.508602E+03	1.592784E-02	4.290866E-04
4.518489E+03	1.613335E-02	4.333149E-04
4.528377E+03	1.632994E-02	4.372726E-04
4.538264E+03	1.651428E-02	4.408736E-04
4.548151E+03	1.668283E-02	4.440265E-04
4.558038E+03	1.683214E-02	4.466439E-04
4.567926E+03	1.695935E-02	4.486550E-04
4.577813E+03	1.706143E-02	4.499853E-04
4.587700E+03	1.713603E-02	4.505796E-04
4.597588E+03	1.718104E-02	4.503890E-04
4.607475E+03	1.719551E-02	4.493960E-04
4.617362E+03	1.717817E-02	4.475751E-04
4.627249E+03	1.712949E-02	4.449461E-04
4.637137E+03	1.704990E-02	4.415282E-04
4.647024E+03	1.694106E-02	4.373711E-04
4.656911E+03	1.680522E-02	4.325399E-04
4.666798E+03	1.664499E-02	4.271081E-04
4.676686E+03	1.646421E-02	4.211800E-04
4.686573E+03	1.626651E-02	4.148527E-04
4.696460E+03	1.605637E-02	4.082439E-04
4.706348E+03	1.583839E-02	4.014738E-04
4.716235E+03	1.561683E-02	3.946512E-04
4.726122E+03	1.539623E-02	3.878913E-04
4.736009E+03	1.518102E-02	3.813056E-04
4.745897E+03	1.497521E-02	3.749931E-04
4.755784E+03	1.478287E-02	3.690527E-04
4.765671E+03	1.460755E-02	3.635702E-04
4.775559E+03	1.445263E-02	3.586253E-04
4.785446E+03	1.432069E-02	3.542769E-04
4.795333E+03	1.421424E-02	3.505822E-04
4.805220E+03	1.413473E-02	3.475710E-04
4.815108E+03	1.408396E-02	3.452812E-04
4.824995E+03	1.406206E-02	3.437101E-04
4.834882E+03	1.406941E-02	3.428603E-04
4.844770E+03	1.410537E-02	3.427102E-04
4.854657E+03	1.416818E-02	3.432111E-04
4.864544E+03	1.425573E-02	3.443062E-04
4.874431E+03	1.436516E-02	3.459220E-04
4.884319E+03	1.449304E-02	3.479713E-04
4.894206E+03	1.463535E-02	3.503543E-04
4.904093E+03	1.478789E-02	3.529682E-04
4.913981E+03	1.494630E-02	3.557074E-04
4.923868E+03	1.510616E-02	3.584662E-04
4.933755E+03	1.526314E-02	3.611421E-04
4.943642E+03	1.541357E-02	3.636496E-04
4.953530E+03	1.555374E-02	3.659032E-04
4.963417E+03	1.568071E-02	3.678365E-04
4.973304E+03	1.579225E-02	3.694002E-04
4.983192E+03	1.588704E-02	3.705669E-04
4.993079E+03	1.596429E-02	3.713220E-04
5.002966E+03	1.602470E-02	3.716858E-04
5.012853E+03	1.606970E-02	3.716944E-04
5.022741E+03	1.610110E-02	3.713934E-04
5.032628E+03	1.612136E-02	3.708417E-04
5.042515E+03	1.613338E-02	3.701084E-04
5.052403E+03	1.613998E-02	3.692600E-04
5.062290E+03	1.614381E-02	3.683579E-04
5.072177E+03	1.614780E-02	3.674697E-04
5.082064E+03	1.615461E-02	3.666560E-04
5.091952E+03	1.616655E-02	3.659685E-04
5.101839E+03	1.618555E-02	3.654506E-04
5.111726E+03	1.621384E-02	3.651510E-04
5.121614E+03	1.625255E-02	3.650942E-04
5.131501E+03	1.630274E-02	3.653022E-04
5.141388E+03	1.636542E-02	3.657961E-04
5.151275E+03	1.644099E-02	3.665831E-04
5.161163E+03	1.652981E-02	3.676698E-04
5.171050E+03	1.663231E-02	3.690633E-04
5.180937E+03	1.674839E-02	3.707603E-04
5.190825E+03	1.687819E-02	3.727622E-04
5.200712E+03	1.702137E-02	3.750599E-04
5.210599E+03	1.717777E-02	3.776483E-04
5.220486E+03	1.734692E-02	3.805160E-04
5.230374E+03	1.752825E-02	3.836493E-04
5.240261E+03	1.772074E-02	3.870247E-04
5.250148E+03	1.792362E-02	3.906248E-04
5.260036E+03	1.813563E-02	3.944218E-04
5.269923E+03	1.835572E-02	3.983922E-04
5.279810E+03	1.858253E-02	4.025064E-04
5.289697E+03	1.881459E-02	4.067329E-04
5.299585E+03	1.905018E-02	4.110347E-04
5.309472E+03	1.928782E-02	4.153804E-04
5.319359E+03	1.952555E-02	4.197289E-04
5.329247E+03	1.976080E-02	4.240259E-04
5.339134E+03	1.999046E-02	4.282058E-04
5.349021E+03	2.021161E-02	4.322073E-04
5.358908E+03	2.042078E-02	4.359575E-04
5.368796E+03	2.061474E-02	4.393895E-04
5.378683E+03	2.078988E-02	4.424280E-04
5.388570E+03	2.094234E-02	4.449935E-04
5.398458E+03	2.106799E-02	4.470007E-04
5.408345E+03	2.116330E-02	4.483772E-04
5.418232E+03	2.122368E-02	4.490291E-04
5.428119E+03	2.124561E-02	4.488846E-04
5.438007E+03	2.122532E-02	4.478677E-04
5.447894E+03	2.116018E-02	4.459258E-04
5.457781E+03	2.104802E-02	4.430165E-04
5.467669E+03	2.088765E-02	4.391180E-04
5.477556E+03	2.067940E-02	4.342403E-04
5.487443E+03	2.042490E-02	4.284199E-04
5.497330E+03	2.012656E-02	4.217101E-04
5.507218E+03	1.978905E-02	4.142102E-04
5.517105E+03	1.941780E-02	4.060355E-04
5.526992E+03	1.901953E-02	3.973273E-04
5.536880E+03	1.860144E-02	3.882360E-04
5.546767E+03	1.817099E-02	3.789176E-04
5.556654E+03	1.773617E-02	3.695379E-04
5.566541E+03	1.730450E-02	3.602522E-04
5.576429E+03	1.688328E-02	3.512113E-04
5.586316E+03	1.647951E-02	3.425590E-04
5.596203E+03	1.609942E-02	3.344229E-04
5.606091E+03	1.574927E-02	3.269307E-04
5.615978E+03	1.543424E-02	3.201879E-04
5.625865E+03	1.515877E-02	3.142843E-04
5.635752E+03	1.492682E-02	3.092998E-04
5.645640E+03	1.474188E-02	3.053042E-04
5.655527E+03	1.460638E-02	3.023462E-04
5.665414E+03	1.452264E-02	3.004716E-04
5.675302E+03	1.449221E-02	2.997107E-04
5.685189E+03	1.451600E-02	3.000804E-04
5.695076E+03	1.459445E-02	3.015889E-04
5.704963E+03	1.472698E-02	3.042226E-04
5.714851E+03	1.491003E-02	3.079069E-04
5.724738E+03	1.513863E-02	3.125387E-04
5.734625E+03	1.540764E-02	3.180112E-04
5.744513E+03	1.571076E-02	3.241942E-04
5.754400E+03	1.604083E-02	3.309401E-04
5.764287E+03	1.639029E-02	3.380929E-04
5.774174E+03	1.675115E-02	3.454881E-04
5.784062E+03	1.711474E-02	3.529476E-04
5.793949E+03	1.747210E-02	3.602868E-04
5.803836E+03	1.781530E-02	3.673429E-04
5.813724E+03	1.813668E-02	3.739584E-04
5.823611E+03	1.842921E-02	3.799890E-04
5.833498E+03	1.868679E-02	3.853092E-04
5.843385E+03	1.890488E-02	3.898259E-04
5.853273E+03	1.907942E-02	3.934552E-04
5.863160E+03	1.920973E-02	3.961832E-04
5.873047E+03	1.929631E-02	3.980199E-04
5.882935E+03	1.934036E-02	3.989901E-04
5.892822E+03	1.934470E-02	3.991511E-04
5.902709E+03	1.931225E-02	3.985633E-04
5.912596E+03	1.924702E-02	3.973084E-04
5.922484E+03	1.915336E-02	3.954758E-04
5.932371E+03	1.903585E-02	3.931591E-04
5.942258E+03	1.889867E-02	3.904447E-04
5.952146E+03	1.874663E-02	3.874307E-04
5.962033E+03	1.858339E-02	3.841928E-04
5.971920E+03	1.841332E-02	3.808204E-04
5.981807E+03	1.823978E-02	3.773825E-04
5.991695E+03	1.806563E-02	3.739385E-04
6.001582E+03	1.789397E-02	3.705517E-04
6.011469E+03	1.772696E-02	3.672670E-04
6.021357E+03	1.756646E-02	3.641227E-04
6.031244E+03	1.741401E-02	3.611505E-04
6.041131E+03	1.727069E-02	3.583732E-04
6.051018E+03	1.713715E-02	3.558043E-04
6.060906E+03	1.701364E-02	3.534491E-04
6.070793E+03	1.690042E-02	3.513130E-04
6.080680E+03	1.679688E-02	3.493837E-04
6.090568E+03	1.670291E-02	3.476592E-04
6.100455E+03	1.661767E-02	3.461222E-04
6.110342E+03	1.654019E-02	3.447529E-04
6.120229E+03	1.646970E-02	3.435353E-04
6.130117E+03	1.640484E-02	3.424414E-04
6.140004E+03	1.634416E-02	3.414406E-04
6.149891E+03	1.628617E-02	3.405023E-04
6.159779E+03	1.622947E-02	3.395965E-04
6.169666E+03	1.617241E-02	3.386888E-04
6.179553E+03	1.611358E-02	3.377490E-04
6.189440E+03	1.605162E-02	3.367484E-04
6.199328E+03	1.598554E-02	3.356659E-04
6.209215E+03	1.591466E-02	3.344864E-04
6.219102E+03	1.583920E-02	3.332142E-04
6.228990E+03	1.575953E-02	3.318563E-04
6.238877E+03	1.567627E-02	3.304257E-04
6.248764E+03	1.559029E-02	3.289397E-04
6.258651E+03	1.550237E-02	3.274145E-04
6.268539E+03	1.541356E-02	3.258723E-04
6.278426E+03	1.532415E-02	3.243184E-04
6.288313E+03	1.523515E-02	3.227742E-04
6.298201E+03	1.514707E-02	3.212502E-04
6.308088E+03	1.506003E-02	3.197490E-04
6.317975E+03	1.497462E-02	3.182826E-04
6.327862E+03	1.489100E-02	3.168548E-04
6.337750E+03	1.480926E-02	3.154670E-04
6.347637E+03	1.472910E-02	3.141128E-04
6.357524E+03	1.465058E-02	3.127934E-04
6.367412E+03	1.457385E-02	3.115123E-04
6.377299E+03	1.449879E-02	3.102666E-04
6.387186E+03	1.442569E-02	3.090624E-04
6.397073E+03	1.435569E-02	3.079243E-04
6.406961E+03	1.429045E-02	3.068878E-04
6.416848E+03	1.423147E-02	3.059855E-04
6.426735E+03	1.418054E-02	3.052565E-04
6.436623E+03	1.414019E-02	3.047557E-04
6.446510E+03	1.411178E-02	3.045128E-04
6.456397E+03	1.409675E-02	3.045604E-04
6.466284E+03	1.409586E-02	3.049153E-04
6.476172E+03	1.410978E-02	3.055934E-04
6.486059E+03	1.413742E-02	3.065721E-04
6.495946E+03	1.417686E-02	3.078106E-04
6.505833E+03	1.422643E-02	3.092739E-04
6.515721E+03	1.428329E-02	3.109005E-04
6.525608E+03	1.434407E-02	3.126178E-04
6.535495E+03	1.440560E-02	3.143569E-04
6.545383E+03	1.446429E-02	3.160394E-04
6.555270E+03	1.451684E-02	3.175927E-04
6.565157E+03	1.456000E-02	3.189453E-04
6.575044E+03	1.459127E-02	3.200411E-04
6.584932E+03	1.460897E-02	3.208428E-04
6.594819E+03	1.461125E-02	3.213083E-04
6.604706E+03	1.459700E-02	3.214114E-04
6.614594E+03	1.456563E-02	3.211384E-04
6.624481E+03	1.451673E-02	3.204780E-04
6.634368E+03	1.445120E-02	3.194491E-04
6.644255E+03	1.437027E-02	3.180771E-04
6.654143E+03	1.427525E-02	3.163898E-04
6.664030E+03	1.416810E-02	3.144295E-04
6.673917E+03	1.405049E-02	3.122321E-04
6.683805E+03	1.392466E-02	3.098462E-04
6.693692E+03	1.379277E-02	3.073198E-04
6.703579E+03	1.365749E-02	3.047116E-04
6.713466E+03	1.352125E-02	3.020753E-04
6.723354E+03	1.338708E-02	2.994789E-04
6.733241E+03	1.325737E-02	2.969759E-04
6.743128E+03	1.313513E-02	2.946344E-04
6.753016E+03	1.302292E-02	2.925123E-04
6.762903E+03	1.292337E-02	2.906696E-04
6.772790E+03	1.283898E-02	2.891642E-04
6.782677E+03	1.277252E-02	2.880596E-04
6.792565E+03	1.272629E-02	2.874095E-04
6.802452E+03	1.270256E-02	2.872672E-04
6.812339E+03	1.270269E-02	2.876656E-04
6.822227E+03	1.272755E-02	2.886266E-04
6.832114E+03	1.277789E-02	2.901695E-04
6.842001E+03	1.285302E-02	2.922815E-04
6.851888E+03	1.295233E-02	2.949508E-04
6.861776E+03	1.307394E-02	2.981371E-04
6.871663E+03	1.321471E-02	3.017708E-04
6.881550E+03	1.337117E-02	3.057746E-04
6.891438E+03	1.353879E-02	3.100466E-04
6.901325E+03	1.371291E-02	3.144809E-04
6.911212E+03	1.388835E-02	3.189596E-04
6.921099E+03	1.405992E-02	3.233634E-04
6.930987E+03	1.422420E-02	3.276135E-04
6.940874E+03	1.437729E-02	3.316194E-04
6.950761E+03	1.451694E-02	3.353281E-04
6.960649E+03	1.464155E-02	3.387015E-04
6.970536E+03	1.475139E-02	3.417447E-04
6.980423E+03	1.484618E-02	3.444494E-04
6.990310E+03	1.492772E-02	3.468564E-04
7.000198E+03	1.499781E-02	3.490064E-04
7.010085E+03	1.505875E-02	3.509520E-04
7.019972E+03	1.511330E-02	3.527564E-04
7.029860E+03	1.516438E-02	3.544879E-04
7.039747E+03	1.521486E-02	3.562132E-04
7.049634E+03	1.526683E-02	3.579815E-04
7.059521E+03	1.532236E-02	3.598416E-04
7.069409E+03	1.538341E-02	3.618404E-04
7.079296E+03	1.545029E-02	3.639860E-04
7.089183E+03	1.552375E-02	3.662967E-04
7.099071E+03	1.560309E-02	3.687572E-04
7.108958E+03	1.568777E-02	3.713552E-04
7.118845E+03	1.577556E-02	3.740391E-04
7.128732E+03	1.586489E-02	3.767720E-04
7.138620E+03	1.595358E-02	3.795026E-04
7.148507E+03	1.603973E-02	3.821859E-04
7.158394E+03	1.612092E-02	3.847638E-04
7.168282E+03	1.619445E-02	3.871714E-04
7.178169E+03	1.625844E-02	3.893632E-04
7.188056E+03	1.631041E-02	3.912790E-04
7.197943E+03	1.634816E-02	3.928641E-04
7.207831E+03	1.636959E-02	3.940668E-04
7.217718E+03	1.637331E-02	3.948518E-04
7.227605E+03	1.635818E-02	3.951892E-04
7.237493E+03	1.632338E-02	3.950570E-04
7.247380E+03	1.626847E-02	3.944421E-04
7.257267E+03	1.619436E-02	3.933641E-04
7.267154E+03	1.610167E-02	3.918355E-04
7.277042E+03	1.599146E-02	3.898798E-04
7.286929E+03	1.586555E-02	3.875391E-04
7.296816E+03	1.572550E-02	3.848491E-04
7.306704E+03	1.557268E-02	3.818416E-04
7.316591E+03	1.540898E-02	3.785610E-04
7.326478E+03	1.523565E-02	3.750366E-04
7.336365E+03	1.505450E-02	3.713112E-04
7.346253E+03	1.486613E-02	3.673989E-04
7.356140E+03	1.467231E-02	3.633417E-04
7.366027E+03	1.447377E-02	3.591573E-04
7.375915E+03	1.427163E-02	3.548719E-04
7.385802E+03	1.406755E-02	3.505264E-04
7.395689E+03	1.386223E-02	3.461381E-04
7.405576E+03	1.365733E-02	3.417477E-04
7.415464E+03	1.345358E-02	3.373729E-04
7.425351E+03	1.325260E-02	3.330547E-04
7.435238E+03	1.305529E-02	3.288151E-04
7.445126E+03	1.286309E-02	3.246905E-04
7.455013E+03	1.267690E-02	3.207044E-04
7.464900E+03	1.249800E-02	3.168898E-04
7.474787E+03	1.232786E-02	3.132845E-04
7.484675E+03	1.216724E-02	3.099092E-04
7.494562E+03	1.201756E-02	3.068014E-04
7.504449E+03	1.188005E-02	3.039939E-04
7.514337E+03	1.175537E-02	3.015054E-04
7.524224E+03	1.164494E-02	2.993746E-04
7.534111E+03	1.154929E-02	2.976174E-04
7.543998E+03	1.146955E-02	2.962653E-04
7.553886E+03	1.140640E-02	2.953387E-04
7.563773E+03	1.136030E-02	2.948526E-04
7.573660E+03	1.133187E-02	2.948256E-04
7.583548E+03	1.132098E-02	2.952576E-04
7.593435E+03	1.132734E-02	2.961444E-04
7.603322E+03	1.135054E-02	2.974784E-04
7.613209E+03	1.138879E-02	2.992158E-04
7.623097E+03	1.144018E-02	3.013088E-04
7.632984E+03	1.150275E-02	3.037085E-04
7.642871E+03	1.157359E-02	3.063398E-04
7.652759E+03	1.164976E-02	3.091265E-04
7.662646E+03	1.172848E-02	3.119954E-04
7.672533E+03	1.180690E-02	3.148712E-04
