#wls	flux	fluxerr
1.581966E+03	1.295999E-02	4.808317E-04
1.621515E+03	1.320828E-02	4.896109E-04
1.661064E+03	1.345318E-02	4.982369E-04
1.700613E+03	1.368821E-02	5.064695E-04
1.740162E+03	1.391408E-02	5.143353E-04
1.779711E+03	1.413155E-02	5.218628E-04
1.819260E+03	1.433623E-02	5.288892E-04
1.858810E+03	1.453402E-02	5.356335E-04
1.898359E+03	1.471776E-02	5.418317E-04
1.937908E+03	1.489075E-02	5.476056E-04
1.977457E+03	1.505092E-02	5.528804E-04
2.017006E+03	1.520157E-02	5.577778E-04
2.056555E+03	1.533781E-02	5.621187E-04
2.096104E+03	1.546006E-02	5.659203E-04
2.135654E+03	1.557141E-02	5.692962E-04
2.175203E+03	1.566401E-02	5.719608E-04
2.214752E+03	1.574348E-02	5.741208E-04
2.254301E+03	1.580192E-02	5.754904E-04
2.293850E+03	1.583696E-02	5.759852E-04
2.333399E+03	1.584890E-02	5.756199E-04
2.372948E+03	1.583052E-02	5.741355E-04
2.412498E+03	1.578515E-02	5.716571E-04
2.452047E+03	1.570397E-02	5.678696E-04
2.491596E+03	1.559106E-02	5.629268E-04
2.531145E+03	1.544138E-02	5.566521E-04
2.570694E+03	1.525764E-02	5.491495E-04
2.610243E+03	1.504287E-02	5.405341E-04
2.649792E+03	1.479421E-02	5.307097E-04
2.689342E+03	1.451599E-02	5.198379E-04
2.728891E+03	1.420902E-02	5.079542E-04
2.768440E+03	1.387858E-02	4.952530E-04
2.807989E+03	1.352664E-02	4.818105E-04
2.847538E+03	1.315586E-02	4.677270E-04
2.887087E+03	1.276952E-02	4.531231E-04
2.926636E+03	1.237419E-02	4.382369E-04
2.966185E+03	1.197883E-02	4.233882E-04
2.976073E+03	1.188011E-02	4.196864E-04
2.985960E+03	1.178103E-02	4.159744E-04
2.995847E+03	1.168300E-02	4.123020E-04
3.005735E+03	1.158604E-02	4.086700E-04
3.015622E+03	1.149018E-02	4.050793E-04
3.025509E+03	1.139418E-02	4.014862E-04
3.035396E+03	1.129937E-02	3.979372E-04
3.045284E+03	1.120453E-02	3.943899E-04
3.055171E+03	1.111215E-02	3.909320E-04
3.065058E+03	1.101983E-02	3.874782E-04
3.074946E+03	1.092997E-02	3.841136E-04
3.084833E+03	1.084022E-02	3.807552E-04
3.094720E+03	1.075292E-02	3.774854E-04
3.104607E+03	1.066578E-02	3.742237E-04
3.114495E+03	1.058109E-02	3.710498E-04
3.124382E+03	1.049878E-02	3.679620E-04
3.134269E+03	1.041666E-02	3.648831E-04
3.144157E+03	1.033690E-02	3.618890E-04
3.154044E+03	1.025944E-02	3.589778E-04
3.163931E+03	1.018321E-02	3.561115E-04
3.173818E+03	1.010921E-02	3.533252E-04
3.183706E+03	1.003738E-02	3.506168E-04
3.193593E+03	9.967661E-03	3.479841E-04
3.203480E+03	9.899991E-03	3.454248E-04
3.213368E+03	9.835266E-03	3.429700E-04
3.223255E+03	9.771487E-03	3.405498E-04
3.233142E+03	9.710486E-03	3.382282E-04
3.243029E+03	9.652152E-03	3.360010E-04
3.252917E+03	9.596373E-03	3.338643E-04
3.262804E+03	9.543028E-03	3.318135E-04
3.272691E+03	9.491123E-03	3.298142E-04
3.282579E+03	9.442305E-03	3.279234E-04
3.292466E+03	9.396417E-03	3.261355E-04
3.302353E+03	9.352456E-03	3.244155E-04
3.312240E+03	9.311124E-03	3.227876E-04
3.322128E+03	9.273078E-03	3.212745E-04
3.332015E+03	9.236505E-03	3.198132E-04
3.341902E+03	9.202864E-03	3.184542E-04
3.351790E+03	9.171957E-03	3.171902E-04
3.361677E+03	9.143585E-03	3.160144E-04
3.371564E+03	9.117548E-03	3.149197E-04
3.381451E+03	9.094403E-03	3.139251E-04
3.391339E+03	9.073183E-03	3.129972E-04
3.401226E+03	9.055154E-03	3.121793E-04
3.411113E+03	9.039342E-03	3.114379E-04
3.421001E+03	9.025539E-03	3.107656E-04
3.430888E+03	9.014226E-03	3.101787E-04
3.440775E+03	9.005175E-03	3.096694E-04
3.450662E+03	8.998830E-03	3.092527E-04
3.460550E+03	8.994284E-03	3.088973E-04
3.470437E+03	8.991985E-03	3.086184E-04
3.480324E+03	8.991710E-03	3.084083E-04
3.490212E+03	8.993887E-03	3.082815E-04
3.500099E+03	8.997668E-03	3.082087E-04
3.509986E+03	9.003500E-03	3.082053E-04
3.519873E+03	9.010594E-03	3.082440E-04
3.529761E+03	9.020020E-03	3.083613E-04
3.539648E+03	9.031036E-03	3.085318E-04
3.549535E+03	9.044128E-03	3.087719E-04
3.559423E+03	9.058651E-03	3.090595E-04
3.569310E+03	9.074594E-03	3.093941E-04
3.579197E+03	9.093097E-03	3.098143E-04
3.589084E+03	9.113113E-03	3.102845E-04
3.598972E+03	9.135319E-03	3.108276E-04
3.608859E+03	9.159370E-03	3.114315E-04
3.618746E+03	9.186540E-03	3.121396E-04
3.628634E+03	9.216575E-03	3.129430E-04
3.638521E+03	9.249786E-03	3.138519E-04
3.648408E+03	9.286036E-03	3.148616E-04
3.658295E+03	9.326683E-03	3.160178E-04
3.668183E+03	9.371162E-03	3.173010E-04
3.678070E+03	9.420850E-03	3.187576E-04
3.687957E+03	9.475240E-03	3.203701E-04
3.697845E+03	9.535250E-03	3.221691E-04
3.707732E+03	9.601322E-03	3.241692E-04
3.717619E+03	9.673459E-03	3.263699E-04
3.727506E+03	9.752531E-03	3.288001E-04
3.737394E+03	9.838503E-03	3.314583E-04
3.747281E+03	9.932179E-03	3.343708E-04
3.757168E+03	1.003344E-02	3.375332E-04
3.767056E+03	1.014256E-02	3.409538E-04
3.776943E+03	1.026013E-02	3.446524E-04
3.786830E+03	1.038543E-02	3.486038E-04
3.796717E+03	1.051847E-02	3.528078E-04
3.806605E+03	1.065958E-02	3.572747E-04
3.816492E+03	1.080812E-02	3.619830E-04
3.826379E+03	1.096419E-02	3.669346E-04
3.836267E+03	1.112652E-02	3.720874E-04
3.846154E+03	1.129496E-02	3.774351E-04
3.856041E+03	1.146882E-02	3.829544E-04
3.865928E+03	1.164650E-02	3.885920E-04
3.875816E+03	1.182791E-02	3.943438E-04
3.885703E+03	1.201166E-02	4.001636E-04
3.895590E+03	1.219630E-02	4.060025E-04
3.905478E+03	1.238069E-02	4.118232E-04
3.915365E+03	1.256366E-02	4.175863E-04
3.925252E+03	1.274399E-02	4.232514E-04
3.935139E+03	1.292005E-02	4.287647E-04
3.945027E+03	1.309096E-02	4.340975E-04
3.954914E+03	1.325474E-02	4.391840E-04
3.964801E+03	1.341054E-02	4.439972E-04
3.974689E+03	1.355683E-02	4.484869E-04
3.984576E+03	1.369256E-02	4.526188E-04
3.994463E+03	1.381673E-02	4.563612E-04
4.004350E+03	1.392815E-02	4.596754E-04
4.014238E+03	1.402612E-02	4.625394E-04
4.024125E+03	1.411011E-02	4.649367E-04
4.034012E+03	1.417941E-02	4.668453E-04
4.043900E+03	1.423422E-02	4.682725E-04
4.053787E+03	1.427419E-02	4.692085E-04
4.063674E+03	1.429922E-02	4.696505E-04
4.073561E+03	1.431004E-02	4.696245E-04
4.083449E+03	1.430692E-02	4.691397E-04
4.093336E+03	1.429061E-02	4.682225E-04
4.103223E+03	1.426172E-02	4.668936E-04
4.113111E+03	1.422165E-02	4.651997E-04
4.122998E+03	1.417125E-02	4.631698E-04
4.132885E+03	1.411181E-02	4.608467E-04
4.142772E+03	1.404467E-02	4.582748E-04
4.152660E+03	1.397120E-02	4.554998E-04
4.162547E+03	1.389252E-02	4.525583E-04
4.172434E+03	1.381030E-02	4.495052E-04
4.182322E+03	1.372562E-02	4.463760E-04
4.192209E+03	1.363982E-02	4.432143E-04
4.202096E+03	1.355417E-02	4.400620E-04
4.211983E+03	1.347017E-02	4.369674E-04
4.221871E+03	1.338848E-02	4.339516E-04
4.231758E+03	1.331048E-02	4.310592E-04
4.241645E+03	1.323722E-02	4.283243E-04
4.251533E+03	1.316973E-02	4.257791E-04
4.261420E+03	1.310869E-02	4.234461E-04
4.271307E+03	1.305548E-02	4.213685E-04
4.281194E+03	1.301045E-02	4.195572E-04
4.291082E+03	1.297457E-02	4.180428E-04
4.300969E+03	1.294851E-02	4.168466E-04
4.310856E+03	1.293267E-02	4.159797E-04
4.320744E+03	1.292778E-02	4.154656E-04
4.330631E+03	1.293428E-02	4.153172E-04
4.340518E+03	1.295232E-02	4.155386E-04
4.350405E+03	1.298221E-02	4.161382E-04
4.360293E+03	1.302412E-02	4.171212E-04
4.370180E+03	1.307793E-02	4.184824E-04
4.380067E+03	1.314381E-02	4.202265E-04
4.389955E+03	1.322139E-02	4.223403E-04
4.399842E+03	1.331034E-02	4.248127E-04
4.409729E+03	1.341000E-02	4.276213E-04
4.419616E+03	1.351992E-02	4.307513E-04
4.429504E+03	1.363909E-02	4.341696E-04
4.439391E+03	1.376653E-02	4.378443E-04
4.449278E+03	1.390149E-02	4.417506E-04
4.459166E+03	1.404220E-02	4.458322E-04
4.469053E+03	1.418715E-02	4.500401E-04
4.478940E+03	1.433485E-02	4.543273E-04
4.488827E+03	1.448326E-02	4.586288E-04
4.498715E+03	1.463040E-02	4.628818E-04
4.508602E+03	1.477419E-02	4.670210E-04
4.518489E+03	1.491247E-02	4.709782E-04
4.528377E+03	1.504283E-02	4.746778E-04
4.538264E+03	1.516306E-02	4.780509E-04
4.548151E+03	1.527100E-02	4.810305E-04
4.558038E+03	1.536461E-02	4.835531E-04
4.567926E+03	1.544157E-02	4.855474E-04
4.577813E+03	1.550064E-02	4.869756E-04
4.587700E+03	1.554023E-02	4.877890E-04
4.597588E+03	1.555908E-02	4.879503E-04
4.607475E+03	1.555672E-02	4.874465E-04
4.617362E+03	1.553252E-02	4.862591E-04
4.627249E+03	1.548708E-02	4.844091E-04
4.637137E+03	1.542065E-02	4.819063E-04
4.647024E+03	1.533436E-02	4.787873E-04
4.656911E+03	1.522995E-02	4.751084E-04
4.666798E+03	1.510919E-02	4.709258E-04
4.676686E+03	1.497454E-02	4.663181E-04
4.686573E+03	1.482823E-02	4.613551E-04
4.696460E+03	1.467340E-02	4.561362E-04
4.706348E+03	1.451299E-02	4.507529E-04
4.716235E+03	1.434982E-02	4.452932E-04
4.726122E+03	1.418723E-02	4.398613E-04
4.736009E+03	1.402799E-02	4.345423E-04
4.745897E+03	1.387472E-02	4.294176E-04
4.755784E+03	1.373039E-02	4.245783E-04
4.765671E+03	1.359692E-02	4.200831E-04
4.775559E+03	1.347682E-02	4.160083E-04
4.785446E+03	1.337181E-02	4.124060E-04
4.795333E+03	1.328346E-02	4.093236E-04
4.805220E+03	1.321284E-02	4.067925E-04
4.815108E+03	1.316112E-02	4.048471E-04
4.824995E+03	1.312843E-02	4.034903E-04
4.834882E+03	1.311496E-02	4.027261E-04
4.844770E+03	1.312045E-02	4.025450E-04
4.854657E+03	1.314389E-02	4.029146E-04
4.864544E+03	1.318416E-02	4.037993E-04
4.874431E+03	1.323944E-02	4.051421E-04
4.884319E+03	1.330789E-02	4.068853E-04
4.894206E+03	1.338738E-02	4.089630E-04
4.904093E+03	1.347529E-02	4.112946E-04
4.913981E+03	1.356906E-02	4.138011E-04
4.923868E+03	1.366625E-02	4.164076E-04
4.933755E+03	1.376447E-02	4.190417E-04
4.943642E+03	1.386108E-02	4.216224E-04
4.953530E+03	1.395409E-02	4.240900E-04
4.963417E+03	1.404203E-02	4.263997E-04
4.973304E+03	1.412301E-02	4.284948E-04
4.983192E+03	1.419653E-02	4.303608E-04
4.993079E+03	1.426195E-02	4.319786E-04
5.002966E+03	1.431922E-02	4.333480E-04
5.012853E+03	1.436878E-02	4.344822E-04
5.022741E+03	1.441157E-02	4.354106E-04
5.032628E+03	1.444854E-02	4.361625E-04
5.042515E+03	1.448117E-02	4.367830E-04
5.052403E+03	1.451095E-02	4.373174E-04
5.062290E+03	1.453944E-02	4.378127E-04
5.072177E+03	1.456820E-02	4.383161E-04
5.082064E+03	1.459892E-02	4.388783E-04
5.091952E+03	1.463286E-02	4.395372E-04
5.101839E+03	1.467133E-02	4.403321E-04
5.111726E+03	1.471564E-02	4.413016E-04
5.121614E+03	1.476661E-02	4.424702E-04
5.131501E+03	1.482523E-02	4.438667E-04
5.141388E+03	1.489213E-02	4.455101E-04
5.151275E+03	1.496768E-02	4.474103E-04
5.161163E+03	1.505254E-02	4.495868E-04
5.171050E+03	1.514664E-02	4.520368E-04
5.180937E+03	1.525041E-02	4.547723E-04
5.190825E+03	1.536352E-02	4.577834E-04
5.200712E+03	1.548603E-02	4.610705E-04
5.210599E+03	1.561783E-02	4.646307E-04
5.220486E+03	1.575825E-02	4.684429E-04
5.230374E+03	1.590712E-02	4.725015E-04
5.240261E+03	1.606363E-02	4.767826E-04
5.250148E+03	1.622705E-02	4.812633E-04
5.260036E+03	1.639646E-02	4.859165E-04
5.269923E+03	1.657100E-02	4.907166E-04
5.279810E+03	1.674919E-02	4.956191E-04
5.289697E+03	1.693006E-02	5.005954E-04
5.299585E+03	1.711200E-02	5.055978E-04
5.309472E+03	1.729358E-02	5.105843E-04
5.319359E+03	1.747265E-02	5.154915E-04
5.329247E+03	1.764749E-02	5.202692E-04
5.339134E+03	1.781585E-02	5.248513E-04
5.349021E+03	1.797497E-02	5.291568E-04
5.358908E+03	1.812267E-02	5.331228E-04
5.368796E+03	1.825636E-02	5.366736E-04
5.378683E+03	1.837302E-02	5.397212E-04
5.388570E+03	1.847053E-02	5.422048E-04
5.398458E+03	1.854588E-02	5.440375E-04
5.408345E+03	1.859654E-02	5.451461E-04
5.418232E+03	1.862031E-02	5.454680E-04
5.428119E+03	1.861507E-02	5.449427E-04
5.438007E+03	1.857890E-02	5.435154E-04
5.447894E+03	1.851067E-02	5.411556E-04
5.457781E+03	1.840952E-02	5.378395E-04
5.467669E+03	1.827578E-02	5.335785E-04
5.477556E+03	1.810996E-02	5.283897E-04
5.487443E+03	1.791337E-02	5.223131E-04
5.497330E+03	1.768866E-02	5.154271E-04
5.507218E+03	1.743865E-02	5.078157E-04
5.517105E+03	1.716702E-02	4.995874E-04
5.526992E+03	1.687799E-02	4.908658E-04
5.536880E+03	1.657635E-02	4.817908E-04
5.546767E+03	1.626680E-02	4.724996E-04
5.556654E+03	1.595449E-02	4.631421E-04
5.566541E+03	1.564423E-02	4.538579E-04
5.576429E+03	1.534104E-02	4.447922E-04
5.586316E+03	1.504942E-02	4.360746E-04
5.596203E+03	1.477389E-02	4.278357E-04
5.606091E+03	1.451835E-02	4.201870E-04
5.615978E+03	1.428660E-02	4.132377E-04
5.625865E+03	1.408179E-02	4.070771E-04
5.635752E+03	1.390689E-02	4.017900E-04
5.645640E+03	1.376419E-02	3.974407E-04
5.655527E+03	1.365580E-02	3.940884E-04
5.665414E+03	1.358321E-02	3.917745E-04
5.675302E+03	1.354726E-02	3.905216E-04
5.685189E+03	1.354835E-02	3.903392E-04
5.695076E+03	1.358634E-02	3.912215E-04
5.704963E+03	1.366008E-02	3.931338E-04
5.714851E+03	1.376790E-02	3.960263E-04
5.724738E+03	1.390709E-02	3.998200E-04
5.734625E+03	1.407451E-02	4.044232E-04
5.744513E+03	1.426614E-02	4.097189E-04
5.754400E+03	1.447754E-02	4.155791E-04
5.764287E+03	1.470386E-02	4.218639E-04
5.774174E+03	1.493995E-02	4.284247E-04
5.784062E+03	1.518058E-02	4.351120E-04
5.793949E+03	1.542010E-02	4.417632E-04
5.803836E+03	1.565337E-02	4.482319E-04
5.813724E+03	1.587558E-02	4.543805E-04
5.823611E+03	1.608189E-02	4.600710E-04
5.833498E+03	1.626832E-02	4.651908E-04
5.843385E+03	1.643198E-02	4.696579E-04
5.853273E+03	1.656998E-02	4.733909E-04
5.863160E+03	1.668113E-02	4.763570E-04
5.873047E+03	1.676480E-02	4.785388E-04
5.882935E+03	1.682083E-02	4.799333E-04
5.892822E+03	1.685027E-02	4.805712E-04
5.902709E+03	1.685459E-02	4.804961E-04
5.912596E+03	1.683562E-02	4.797601E-04
5.922484E+03	1.679585E-02	4.784357E-04
5.932371E+03	1.673771E-02	4.765925E-04
5.942258E+03	1.666396E-02	4.743096E-04
5.952146E+03	1.657738E-02	4.716671E-04
5.962033E+03	1.648061E-02	4.687398E-04
5.971920E+03	1.637648E-02	4.656088E-04
5.981807E+03	1.626722E-02	4.623376E-04
5.991695E+03	1.615519E-02	4.589934E-04
6.001582E+03	1.604268E-02	4.556414E-04
6.011469E+03	1.593129E-02	4.523266E-04
6.021357E+03	1.582265E-02	4.490959E-04
6.031244E+03	1.571801E-02	4.459841E-04
6.041131E+03	1.561865E-02	4.430273E-04
6.051018E+03	1.552496E-02	4.402369E-04
6.060906E+03	1.543758E-02	4.376304E-04
6.070793E+03	1.535658E-02	4.352097E-04
6.080680E+03	1.528211E-02	4.329792E-04
6.090568E+03	1.521368E-02	4.309243E-04
6.100455E+03	1.515086E-02	4.290330E-04
6.110342E+03	1.509260E-02	4.272758E-04
6.120229E+03	1.503830E-02	4.256347E-04
6.130117E+03	1.498714E-02	4.240873E-04
6.140004E+03	1.493866E-02	4.226200E-04
6.149891E+03	1.489198E-02	4.212082E-04
6.159779E+03	1.484649E-02	4.198341E-04
6.169666E+03	1.480113E-02	4.184679E-04
6.179553E+03	1.475535E-02	4.170937E-04
6.189440E+03	1.470815E-02	4.156835E-04
6.199328E+03	1.465913E-02	4.142259E-04
6.209215E+03	1.460781E-02	4.127074E-04
6.219102E+03	1.455421E-02	4.111283E-04
6.228990E+03	1.449826E-02	4.094864E-04
6.238877E+03	1.444004E-02	4.077844E-04
6.248764E+03	1.437976E-02	4.060278E-04
6.258651E+03	1.431813E-02	4.042367E-04
6.268539E+03	1.425501E-02	4.024072E-04
6.278426E+03	1.419113E-02	4.005598E-04
6.288313E+03	1.412675E-02	3.987019E-04
6.298201E+03	1.406195E-02	3.968352E-04
6.308088E+03	1.399715E-02	3.949722E-04
6.317975E+03	1.393232E-02	3.931113E-04
6.327862E+03	1.386762E-02	3.912577E-04
6.337750E+03	1.380307E-02	3.894111E-04
6.347637E+03	1.373896E-02	3.875798E-04
6.357524E+03	1.367502E-02	3.857566E-04
6.367412E+03	1.361181E-02	3.839569E-04
6.377299E+03	1.354959E-02	3.821879E-04
6.387186E+03	1.348879E-02	3.804618E-04
6.397073E+03	1.343032E-02	3.788043E-04
6.406961E+03	1.337528E-02	3.772459E-04
6.416848E+03	1.332458E-02	3.758127E-04
6.426735E+03	1.327921E-02	3.745324E-04
6.436623E+03	1.323984E-02	3.734239E-04
6.446510E+03	1.320745E-02	3.725146E-04
6.456397E+03	1.318249E-02	3.718176E-04
6.466284E+03	1.316515E-02	3.713377E-04
6.476172E+03	1.315549E-02	3.710770E-04
6.486059E+03	1.315291E-02	3.710184E-04
6.495946E+03	1.315654E-02	3.711372E-04
6.505833E+03	1.316528E-02	3.714026E-04
6.515721E+03	1.317743E-02	3.717667E-04
6.525608E+03	1.319136E-02	3.721834E-04
6.535495E+03	1.320516E-02	3.725987E-04
6.545383E+03	1.321686E-02	3.729573E-04
6.555270E+03	1.322458E-02	3.732060E-04
6.565157E+03	1.322658E-02	3.732957E-04
6.575044E+03	1.322167E-02	3.731923E-04
6.584932E+03	1.320829E-02	3.728526E-04
6.594819E+03	1.318570E-02	3.722547E-04
6.604706E+03	1.315344E-02	3.713861E-04
6.614594E+03	1.311111E-02	3.702353E-04
6.624481E+03	1.305881E-02	3.688047E-04
6.634368E+03	1.299709E-02	3.671100E-04
6.644255E+03	1.292666E-02	3.651710E-04
6.654143E+03	1.284862E-02	3.630185E-04
6.664030E+03	1.276381E-02	3.606766E-04
6.673917E+03	1.267387E-02	3.581907E-04
6.683805E+03	1.258008E-02	3.555976E-04
6.693692E+03	1.248416E-02	3.529455E-04
6.703579E+03	1.238776E-02	3.502813E-04
6.713466E+03	1.229262E-02	3.476535E-04
6.723354E+03	1.220049E-02	3.451120E-04
6.733241E+03	1.211315E-02	3.427074E-04
6.743128E+03	1.203240E-02	3.404901E-04
6.753016E+03	1.196014E-02	3.385143E-04
6.762903E+03	1.189780E-02	3.368206E-04
6.772790E+03	1.184746E-02	3.354679E-04
6.782677E+03	1.181036E-02	3.344916E-04
6.792565E+03	1.178801E-02	3.339348E-04
6.802452E+03	1.178141E-02	3.338260E-04
6.812339E+03	1.179155E-02	3.341938E-04
6.822227E+03	1.181897E-02	3.350532E-04
6.832114E+03	1.186377E-02	3.364082E-04
6.842001E+03	1.192564E-02	3.382500E-04
6.851888E+03	1.200365E-02	3.405529E-04
6.861776E+03	1.209682E-02	3.432893E-04
6.871663E+03	1.220311E-02	3.464015E-04
6.881550E+03	1.232048E-02	3.498325E-04
6.891438E+03	1.244659E-02	3.535155E-04
6.901325E+03	1.257838E-02	3.573646E-04
6.911212E+03	1.271306E-02	3.613002E-04
6.921099E+03	1.284825E-02	3.652548E-04
6.930987E+03	1.298116E-02	3.691496E-04
6.940874E+03	1.310988E-02	3.729298E-04
6.950761E+03	1.323279E-02	3.765499E-04
6.960649E+03	1.334866E-02	3.799739E-04
6.970536E+03	1.345709E-02	3.831911E-04
6.980423E+03	1.355788E-02	3.861954E-04
6.990310E+03	1.365163E-02	3.890037E-04
7.000198E+03	1.373881E-02	3.916294E-04
7.010085E+03	1.382087E-02	3.941134E-04
7.019972E+03	1.389894E-02	3.964881E-04
7.029860E+03	1.397423E-02	3.987877E-04
7.039747E+03	1.404825E-02	4.010559E-04
7.049634E+03	1.412225E-02	4.033277E-04
7.059521E+03	1.419704E-02	4.056269E-04
7.069409E+03	1.427318E-02	4.079693E-04
7.079296E+03	1.435143E-02	4.103767E-04
7.089183E+03	1.443145E-02	4.128398E-04
7.099071E+03	1.451310E-02	4.153544E-04
7.108958E+03	1.459553E-02	4.178965E-04
7.118845E+03	1.467757E-02	4.204326E-04
7.128732E+03	1.475818E-02	4.229333E-04
7.138620E+03	1.483597E-02	4.253584E-04
7.148507E+03	1.490903E-02	4.276530E-04
7.158394E+03	1.497594E-02	4.297765E-04
7.168282E+03	1.503469E-02	4.316711E-04
7.178169E+03	1.508407E-02	4.333015E-04
7.188056E+03	1.512218E-02	4.346128E-04
7.197943E+03	1.514764E-02	4.355653E-04
7.207831E+03	1.515910E-02	4.361192E-04
7.217718E+03	1.515563E-02	4.362471E-04
7.227605E+03	1.513640E-02	4.359248E-04
7.237493E+03	1.510131E-02	4.351486E-04
7.247380E+03	1.504981E-02	4.339020E-04
7.257267E+03	1.498267E-02	4.322061E-04
7.267154E+03	1.489997E-02	4.300630E-04
7.277042E+03	1.480285E-02	4.275042E-04
7.286929E+03	1.469204E-02	4.245505E-04
7.296816E+03	1.456900E-02	4.212431E-04
7.306704E+03	1.443469E-02	4.176094E-04
7.316591E+03	1.429066E-02	4.136935E-04
7.326478E+03	1.413772E-02	4.095181E-04
7.336365E+03	1.397737E-02	4.051261E-04
7.346253E+03	1.381067E-02	4.005480E-04
7.356140E+03	1.363899E-02	3.958229E-04
7.366027E+03	1.346310E-02	3.909732E-04
7.375915E+03	1.328445E-02	3.860402E-04
7.385802E+03	1.310424E-02	3.810586E-04
7.395689E+03	1.292330E-02	3.760522E-04
7.405576E+03	1.274275E-02	3.710539E-04
7.415464E+03	1.256385E-02	3.661000E-04
7.425351E+03	1.238715E-02	3.612066E-04
7.435238E+03	1.221401E-02	3.564128E-04
7.445126E+03	1.204523E-02	3.517426E-04
7.455013E+03	1.188165E-02	3.472203E-04
7.464900E+03	1.172439E-02	3.428790E-04
7.474787E+03	1.157447E-02	3.387485E-04
7.484675E+03	1.143285E-02	3.348574E-04
7.494562E+03	1.130074E-02	3.312417E-04
7.504449E+03	1.117884E-02	3.279222E-04
7.514337E+03	1.106791E-02	3.249218E-04
7.524224E+03	1.096893E-02	3.222703E-04
7.534111E+03	1.088236E-02	3.199814E-04
7.543998E+03	1.080884E-02	3.180747E-04
7.553886E+03	1.074872E-02	3.165620E-04
7.563773E+03	1.070223E-02	3.154503E-04
7.573660E+03	1.066939E-02	3.147413E-04
7.583548E+03	1.065000E-02	3.144299E-04
7.593435E+03	1.064387E-02	3.145117E-04
7.603322E+03	1.064982E-02	3.149528E-04
7.613209E+03	1.066725E-02	3.157358E-04
7.623097E+03	1.069453E-02	3.168134E-04
7.632984E+03	1.073021E-02	3.181437E-04
7.642871E+03	1.077252E-02	3.196745E-04
7.652759E+03	1.081938E-02	3.213445E-04
7.662646E+03	1.086909E-02	3.231037E-04
7.672533E+03	1.091939E-02	3.248848E-04
