#wls	flux	fluxerr
1.581966E+03	7.704393E-03	8.661968E-04
1.621515E+03	7.871960E-03	8.836509E-04
1.661064E+03	8.037361E-03	9.007646E-04
1.700613E+03	8.201429E-03	9.176291E-04
1.740162E+03	8.365056E-03	9.343415E-04
1.779711E+03	8.526023E-03	9.506512E-04
1.819260E+03	8.683574E-03	9.664721E-04
1.858810E+03	8.838546E-03	9.818959E-04
1.898359E+03	8.990157E-03	9.968341E-04
1.937908E+03	9.135925E-03	1.011010E-03
1.977457E+03	9.279994E-03	1.024883E-03
2.017006E+03	9.416457E-03	1.037799E-03
2.056555E+03	9.549477E-03	1.050217E-03
2.096104E+03	9.674711E-03	1.061660E-03
2.135654E+03	9.794619E-03	1.072399E-03
2.175203E+03	9.908221E-03	1.082328E-03
2.214752E+03	1.001275E-02	1.091148E-03
2.254301E+03	1.011063E-02	1.099125E-03
2.293850E+03	1.020078E-02	1.106144E-03
2.333399E+03	1.028206E-02	1.112086E-03
2.372948E+03	1.035506E-02	1.117019E-03
2.412498E+03	1.041857E-02	1.120817E-03
2.452047E+03	1.047306E-02	1.123536E-03
2.491596E+03	1.051724E-02	1.125045E-03
2.531145E+03	1.055147E-02	1.125388E-03
2.570694E+03	1.057599E-02	1.124600E-03
2.610243E+03	1.059093E-02	1.122703E-03
2.649792E+03	1.059634E-02	1.119707E-03
2.689342E+03	1.059211E-02	1.115612E-03
2.728891E+03	1.057657E-02	1.110251E-03
2.768440E+03	1.055240E-02	1.103915E-03
2.807989E+03	1.051769E-02	1.096414E-03
2.847538E+03	1.047465E-02	1.087990E-03
2.887087E+03	1.042248E-02	1.078570E-03
2.926636E+03	1.036160E-02	1.068208E-03
2.966185E+03	1.029224E-02	1.056938E-03
2.976073E+03	1.027449E-02	1.054074E-03
2.985960E+03	1.025543E-02	1.051074E-03
2.995847E+03	1.023621E-02	1.048055E-03
3.005735E+03	1.021677E-02	1.045014E-03
3.015622E+03	1.019593E-02	1.041828E-03
3.025509E+03	1.017593E-02	1.038727E-03
3.035396E+03	1.015447E-02	1.035476E-03
3.045284E+03	1.013264E-02	1.032186E-03
3.055171E+03	1.011147E-02	1.028963E-03
3.065058E+03	1.008876E-02	1.025582E-03
3.074946E+03	1.006661E-02	1.022258E-03
3.084833E+03	1.004390E-02	1.018877E-03
3.094720E+03	1.002061E-02	1.015435E-03
3.104607E+03	9.996681E-03	1.011930E-03
3.114495E+03	9.973102E-03	1.008460E-03
3.124382E+03	9.948805E-03	1.004917E-03
3.134269E+03	9.924742E-03	1.001398E-03
3.144157E+03	9.899884E-03	9.977989E-04
3.154044E+03	9.874204E-03	9.941173E-04
3.163931E+03	9.849553E-03	9.905398E-04
3.173818E+03	9.823984E-03	9.868703E-04
3.183706E+03	9.798390E-03	9.831989E-04
3.193593E+03	9.772711E-03	9.795196E-04
3.203480E+03	9.746898E-03	9.758276E-04
3.213368E+03	9.720024E-03	9.720302E-04
3.223255E+03	9.693795E-03	9.682984E-04
3.233142E+03	9.667277E-03	9.645386E-04
3.243029E+03	9.640428E-03	9.607468E-04
3.252917E+03	9.614020E-03	9.570001E-04
3.262804E+03	9.587167E-03	9.532103E-04
3.272691E+03	9.559827E-03	9.493734E-04
3.282579E+03	9.533530E-03	9.456414E-04
3.292466E+03	9.505850E-03	9.417736E-04
3.302353E+03	9.479065E-03	9.379958E-04
3.312240E+03	9.451579E-03	9.341503E-04
3.322128E+03	9.424091E-03	9.303062E-04
3.332015E+03	9.396539E-03	9.264576E-04
3.341902E+03	9.369571E-03	9.226682E-04
3.351790E+03	9.341693E-03	9.187909E-04
3.361677E+03	9.314260E-03	9.149594E-04
3.371564E+03	9.286508E-03	9.110985E-04
3.381451E+03	9.259054E-03	9.072687E-04
3.391339E+03	9.231821E-03	9.034626E-04
3.401226E+03	9.204097E-03	8.996105E-04
3.411113E+03	9.176484E-03	8.957713E-04
3.421001E+03	9.148926E-03	8.919398E-04
3.430888E+03	9.121377E-03	8.881113E-04
3.440775E+03	9.094399E-03	8.843407E-04
3.450662E+03	9.066761E-03	8.805082E-04
3.460550E+03	9.039638E-03	8.767281E-04
3.470437E+03	9.012997E-03	8.729971E-04
3.480324E+03	8.986265E-03	8.692594E-04
3.490212E+03	8.960007E-03	8.655700E-04
3.500099E+03	8.934232E-03	8.619295E-04
3.509986E+03	8.908961E-03	8.583397E-04
3.519873E+03	8.884738E-03	8.548530E-04
3.529761E+03	8.860562E-03	8.513727E-04
3.539648E+03	8.837513E-03	8.480026E-04
3.549535E+03	8.815627E-03	8.447457E-04
3.559423E+03	8.794475E-03	8.415605E-04
3.569310E+03	8.774619E-03	8.385005E-04
3.579197E+03	8.756591E-03	8.356160E-04
3.589084E+03	8.739553E-03	8.328265E-04
3.598972E+03	8.724071E-03	8.301855E-04
3.608859E+03	8.710698E-03	8.277449E-04
3.618746E+03	8.699532E-03	8.255133E-04
3.628634E+03	8.690262E-03	8.234604E-04
3.638521E+03	8.683451E-03	8.216387E-04
3.648408E+03	8.679225E-03	8.200590E-04
3.658295E+03	8.677723E-03	8.187336E-04
3.668183E+03	8.679476E-03	8.177114E-04
3.678070E+03	8.683835E-03	8.169300E-04
3.687957E+03	8.691718E-03	8.164745E-04
3.697845E+03	8.703240E-03	8.163544E-04
3.707732E+03	8.718508E-03	8.165783E-04
3.717619E+03	8.737262E-03	8.171202E-04
3.727506E+03	8.760312E-03	8.180542E-04
3.737394E+03	8.787005E-03	8.193179E-04
3.747281E+03	8.818089E-03	8.209792E-04
3.757168E+03	8.853225E-03	8.230049E-04
3.767056E+03	8.892738E-03	8.254233E-04
3.776943E+03	8.936237E-03	8.281963E-04
3.786830E+03	8.983968E-03	8.313451E-04
3.796717E+03	9.035801E-03	8.348558E-04
3.806605E+03	9.091248E-03	8.386816E-04
3.816492E+03	9.150424E-03	8.428317E-04
3.826379E+03	9.213389E-03	8.473098E-04
3.836267E+03	9.279216E-03	8.520291E-04
3.846154E+03	9.348194E-03	8.570150E-04
3.856041E+03	9.419323E-03	8.621745E-04
3.865928E+03	9.492799E-03	8.675246E-04
3.875816E+03	9.567863E-03	8.729950E-04
3.885703E+03	9.644029E-03	8.785406E-04
3.895590E+03	9.721076E-03	8.841410E-04
3.905478E+03	9.797885E-03	8.896942E-04
3.915365E+03	9.874491E-03	8.952033E-04
3.925252E+03	9.950044E-03	9.005915E-04
3.935139E+03	1.002399E-02	9.058091E-04
3.945027E+03	1.009577E-02	9.108070E-04
3.954914E+03	1.016458E-02	9.155132E-04
3.964801E+03	1.023046E-02	9.199322E-04
3.974689E+03	1.029238E-02	9.239732E-04
3.984576E+03	1.035015E-02	9.276220E-04
3.994463E+03	1.040312E-02	9.308209E-04
4.004350E+03	1.045094E-02	9.335412E-04
4.014238E+03	1.049357E-02	9.357828E-04
4.024125E+03	1.053029E-02	9.374823E-04
4.034012E+03	1.056095E-02	9.386297E-04
4.043900E+03	1.058571E-02	9.392428E-04
4.053787E+03	1.060433E-02	9.393023E-04
4.063674E+03	1.061689E-02	9.388177E-04
4.073561E+03	1.062330E-02	9.377848E-04
4.083449E+03	1.062357E-02	9.362071E-04
4.093336E+03	1.061847E-02	9.341549E-04
4.103223E+03	1.060791E-02	9.316234E-04
4.113111E+03	1.059212E-02	9.286350E-04
4.122998E+03	1.057203E-02	9.252729E-04
4.132885E+03	1.054751E-02	9.215298E-04
4.142772E+03	1.051917E-02	9.174587E-04
4.152660E+03	1.048781E-02	9.131323E-04
4.162547E+03	1.045363E-02	9.085704E-04
4.172434E+03	1.041748E-02	9.038461E-04
4.182322E+03	1.037958E-02	8.989812E-04
4.192209E+03	1.034057E-02	8.940310E-04
4.202096E+03	1.030087E-02	8.890325E-04
4.211983E+03	1.026107E-02	8.840372E-04
4.221871E+03	1.022173E-02	8.790935E-04
4.231758E+03	1.018303E-02	8.742170E-04
4.241645E+03	1.014566E-02	8.694658E-04
4.251533E+03	1.010990E-02	8.648649E-04
4.261420E+03	1.007587E-02	8.604227E-04
4.271307E+03	1.004416E-02	8.561882E-04
4.281194E+03	1.001495E-02	8.521781E-04
4.291082E+03	9.988611E-03	8.484208E-04
4.300969E+03	9.965135E-03	8.449155E-04
4.310856E+03	9.944972E-03	8.416988E-04
4.320744E+03	9.928231E-03	8.387786E-04
4.330631E+03	9.914991E-03	8.361601E-04
4.340518E+03	9.905604E-03	8.338717E-04
4.350405E+03	9.899948E-03	8.319014E-04
4.360293E+03	9.898152E-03	8.302585E-04
4.370180E+03	9.900453E-03	8.289612E-04
4.380067E+03	9.906755E-03	8.280000E-04
4.389955E+03	9.916910E-03	8.273608E-04
4.399842E+03	9.931004E-03	8.270492E-04
4.409729E+03	9.948778E-03	8.270420E-04
4.419616E+03	9.969918E-03	8.273119E-04
4.429504E+03	9.994184E-03	8.278374E-04
4.439391E+03	1.002127E-02	8.285921E-04
4.449278E+03	1.005053E-02	8.295223E-04
4.459166E+03	1.008167E-02	8.306021E-04
4.469053E+03	1.011406E-02	8.317794E-04
4.478940E+03	1.014715E-02	8.330091E-04
4.488827E+03	1.018021E-02	8.342309E-04
4.498715E+03	1.021260E-02	8.353935E-04
4.508602E+03	1.024381E-02	8.364541E-04
4.518489E+03	1.027289E-02	8.373375E-04
4.528377E+03	1.029917E-02	8.379902E-04
4.538264E+03	1.032213E-02	8.383710E-04
4.548151E+03	1.034102E-02	8.384212E-04
4.558038E+03	1.035527E-02	8.380965E-04
4.567926E+03	1.036451E-02	8.373691E-04
4.577813E+03	1.036807E-02	8.361874E-04
4.587700E+03	1.036588E-02	8.345484E-04
4.597588E+03	1.035772E-02	8.324373E-04
4.607475E+03	1.034336E-02	8.298385E-04
4.617362E+03	1.032283E-02	8.267569E-04
4.627249E+03	1.029649E-02	8.232248E-04
4.637137E+03	1.026449E-02	8.192553E-04
4.647024E+03	1.022717E-02	8.148794E-04
4.656911E+03	1.018511E-02	8.101449E-04
4.666798E+03	1.013896E-02	8.051059E-04
4.676686E+03	1.008922E-02	7.998031E-04
4.686573E+03	1.003665E-02	7.942998E-04
4.696460E+03	9.981868E-03	7.886439E-04
4.706348E+03	9.925688E-03	7.829021E-04
4.716235E+03	9.868846E-03	7.771326E-04
4.726122E+03	9.812058E-03	7.713920E-04
4.736009E+03	9.756025E-03	7.657354E-04
4.745897E+03	9.701416E-03	7.602150E-04
4.755784E+03	9.648856E-03	7.548793E-04
4.765671E+03	9.598816E-03	7.497645E-04
4.775559E+03	9.551812E-03	7.449097E-04
4.785446E+03	9.508392E-03	7.403568E-04
4.795333E+03	9.468930E-03	7.361336E-04
4.805220E+03	9.433611E-03	7.322531E-04
4.815108E+03	9.402846E-03	7.287458E-04
4.824995E+03	9.376543E-03	7.256032E-04
4.834882E+03	9.354829E-03	7.228336E-04
4.844770E+03	9.337738E-03	7.204383E-04
4.854657E+03	9.325116E-03	7.184040E-04
4.864544E+03	9.316621E-03	7.167031E-04
4.874431E+03	9.312135E-03	7.153254E-04
4.884319E+03	9.311174E-03	7.142327E-04
4.894206E+03	9.313387E-03	7.133973E-04
4.904093E+03	9.318287E-03	7.127811E-04
4.913981E+03	9.325353E-03	7.123438E-04
4.923868E+03	9.334157E-03	7.120525E-04
4.933755E+03	9.344168E-03	7.118664E-04
4.943642E+03	9.354888E-03	7.117476E-04
4.953530E+03	9.365948E-03	7.116684E-04
4.963417E+03	9.376838E-03	7.115901E-04
4.973304E+03	9.387409E-03	7.115020E-04
4.983192E+03	9.397288E-03	7.113762E-04
4.993079E+03	9.406278E-03	7.111984E-04
5.002966E+03	9.414349E-03	7.109670E-04
5.012853E+03	9.421453E-03	7.106788E-04
5.022741E+03	9.427601E-03	7.103355E-04
5.032628E+03	9.432960E-03	7.099500E-04
5.042515E+03	9.437550E-03	7.095246E-04
5.052403E+03	9.441512E-03	7.090702E-04
5.062290E+03	9.445118E-03	7.086078E-04
5.072177E+03	9.448638E-03	7.081581E-04
5.082064E+03	9.452063E-03	7.077207E-04
5.091952E+03	9.455656E-03	7.073157E-04
5.101839E+03	9.459671E-03	7.069623E-04
5.111726E+03	9.464144E-03	7.066635E-04
5.121614E+03	9.469275E-03	7.064346E-04
5.131501E+03	9.475044E-03	7.062742E-04
5.141388E+03	9.481594E-03	7.061931E-04
5.151275E+03	9.488832E-03	7.061848E-04
5.161163E+03	9.496929E-03	7.062622E-04
5.171050E+03	9.505633E-03	7.064067E-04
5.180937E+03	9.514948E-03	7.066190E-04
5.190825E+03	9.524850E-03	7.068976E-04
5.200712E+03	9.534992E-03	7.072171E-04
5.210599E+03	9.545393E-03	7.075792E-04
5.220486E+03	9.555756E-03	7.079623E-04
5.230374E+03	9.565957E-03	7.083575E-04
5.240261E+03	9.575763E-03	7.087480E-04
5.250148E+03	9.584829E-03	7.091089E-04
5.260036E+03	9.592987E-03	7.094281E-04
5.269923E+03	9.599972E-03	7.096863E-04
5.279810E+03	9.605606E-03	7.098710E-04
5.289697E+03	9.609610E-03	7.099620E-04
5.299585E+03	9.611601E-03	7.099309E-04
5.309472E+03	9.611373E-03	7.097623E-04
5.319359E+03	9.608648E-03	7.094357E-04
5.329247E+03	9.602839E-03	7.089073E-04
5.339134E+03	9.593485E-03	7.081431E-04
5.349021E+03	9.580130E-03	7.071088E-04
5.358908E+03	9.562153E-03	7.057586E-04
5.368796E+03	9.539158E-03	7.040626E-04
5.378683E+03	9.510697E-03	7.019872E-04
5.388570E+03	9.476375E-03	6.995030E-04
5.398458E+03	9.436053E-03	6.965989E-04
5.408345E+03	9.389277E-03	6.932405E-04
5.418232E+03	9.335954E-03	6.894203E-04
5.428119E+03	9.276075E-03	6.851366E-04
5.438007E+03	9.209435E-03	6.803733E-04
5.447894E+03	9.136292E-03	6.751484E-04
5.457781E+03	9.056731E-03	6.694669E-04
5.467669E+03	8.971012E-03	6.633468E-04
5.477556E+03	8.879496E-03	6.568134E-04
5.487443E+03	8.782641E-03	6.498993E-04
5.497330E+03	8.680897E-03	6.426366E-04
5.507218E+03	8.574885E-03	6.350696E-04
5.517105E+03	8.465295E-03	6.272484E-04
5.526992E+03	8.352879E-03	6.192271E-04
5.536880E+03	8.238350E-03	6.110575E-04
5.546767E+03	8.122620E-03	6.028061E-04
5.556654E+03	8.006390E-03	5.945237E-04
5.566541E+03	7.890593E-03	5.862788E-04
5.576429E+03	7.776018E-03	5.781290E-04
5.586316E+03	7.663502E-03	5.701361E-04
5.596203E+03	7.553856E-03	5.623597E-04
5.606091E+03	7.447852E-03	5.548570E-04
5.615978E+03	7.346130E-03	5.476754E-04
5.625865E+03	7.249350E-03	5.408643E-04
5.635752E+03	7.158172E-03	5.344728E-04
5.645640E+03	7.072961E-03	5.285286E-04
5.655527E+03	6.994281E-03	5.230743E-04
5.665414E+03	6.922340E-03	5.181260E-04
5.675302E+03	6.857388E-03	5.137032E-04
5.685189E+03	6.799656E-03	5.098240E-04
5.695076E+03	6.749151E-03	5.064899E-04
5.704963E+03	6.705924E-03	5.037058E-04
5.714851E+03	6.669758E-03	5.014564E-04
5.724738E+03	6.640615E-03	4.997399E-04
5.734625E+03	6.618192E-03	4.985350E-04
5.744513E+03	6.602125E-03	4.978152E-04
5.754400E+03	6.592129E-03	4.975601E-04
5.764287E+03	6.587804E-03	4.977408E-04
5.774174E+03	6.588715E-03	4.983254E-04
5.784062E+03	6.594334E-03	4.992750E-04
5.793949E+03	6.604239E-03	5.005587E-04
5.803836E+03	6.617810E-03	5.021302E-04
5.813724E+03	6.634740E-03	5.039670E-04
5.823611E+03	6.654348E-03	5.060181E-04
5.833498E+03	6.676286E-03	5.082576E-04
5.843385E+03	6.699976E-03	5.106418E-04
5.853273E+03	6.725124E-03	5.131489E-04
5.863160E+03	6.751281E-03	5.157446E-04
5.873047E+03	6.778034E-03	5.183977E-04
5.882935E+03	6.805224E-03	5.210960E-04
5.892822E+03	6.832470E-03	5.238105E-04
5.902709E+03	6.859648E-03	5.265314E-04
5.912596E+03	6.886621E-03	5.292483E-04
5.922484E+03	6.913304E-03	5.319544E-04
5.932371E+03	6.939676E-03	5.346479E-04
5.942258E+03	6.965762E-03	5.373307E-04
5.952146E+03	6.991643E-03	5.400087E-04
5.962033E+03	7.017452E-03	5.426921E-04
5.971920E+03	7.043360E-03	5.453942E-04
5.981807E+03	7.069653E-03	5.481369E-04
5.991695E+03	7.096514E-03	5.509347E-04
6.001582E+03	7.124288E-03	5.538142E-04
6.011469E+03	7.153274E-03	5.567992E-04
6.021357E+03	7.183780E-03	5.599137E-04
6.031244E+03	7.216186E-03	5.631881E-04
6.041131E+03	7.250655E-03	5.666353E-04
6.051018E+03	7.287608E-03	5.702892E-04
6.060906E+03	7.327229E-03	5.741646E-04
6.070793E+03	7.369592E-03	5.782683E-04
6.080680E+03	7.415007E-03	5.826255E-04
6.090568E+03	7.463364E-03	5.872285E-04
6.100455E+03	7.514778E-03	5.920872E-04
6.110342E+03	7.569148E-03	5.971945E-04
6.120229E+03	7.626286E-03	6.025367E-04
6.130117E+03	7.686234E-03	6.081179E-04
6.140004E+03	7.748640E-03	6.139112E-04
6.149891E+03	7.813231E-03	6.198955E-04
6.159779E+03	7.879653E-03	6.260437E-04
6.169666E+03	7.947332E-03	6.323105E-04
6.179553E+03	8.015795E-03	6.386587E-04
6.189440E+03	8.084448E-03	6.450409E-04
6.199328E+03	8.152652E-03	6.514063E-04
6.209215E+03	8.219724E-03	6.576999E-04
6.219102E+03	8.284781E-03	6.638506E-04
6.228990E+03	8.347336E-03	6.698184E-04
6.238877E+03	8.406387E-03	6.755220E-04
6.248764E+03	8.461280E-03	6.809074E-04
6.258651E+03	8.511287E-03	6.859145E-04
6.268539E+03	8.555726E-03	6.904864E-04
6.278426E+03	8.593868E-03	6.945622E-04
6.288313E+03	8.625312E-03	6.981071E-04
6.298201E+03	8.649370E-03	7.010630E-04
6.308088E+03	8.665712E-03	7.034003E-04
6.317975E+03	8.673995E-03	7.050884E-04
6.327862E+03	8.673978E-03	7.061046E-04
6.337750E+03	8.665608E-03	7.064417E-04
6.347637E+03	8.648655E-03	7.060778E-04
6.357524E+03	8.623353E-03	7.050288E-04
6.367412E+03	8.589757E-03	7.032961E-04
6.377299E+03	8.548199E-03	7.009041E-04
6.387186E+03	8.498917E-03	6.978691E-04
6.397073E+03	8.442492E-03	6.942362E-04
6.406961E+03	8.379218E-03	6.900269E-04
6.416848E+03	8.309636E-03	6.852832E-04
6.426735E+03	8.234493E-03	6.800645E-04
6.436623E+03	8.154315E-03	6.744122E-04
6.446510E+03	8.069736E-03	6.683769E-04
6.456397E+03	7.981393E-03	6.620097E-04
6.466284E+03	7.889914E-03	6.553615E-04
6.476172E+03	7.795999E-03	6.484892E-04
6.486059E+03	7.700141E-03	6.414328E-04
6.495946E+03	7.603053E-03	6.342512E-04
6.505833E+03	7.505148E-03	6.269782E-04
6.515721E+03	7.406885E-03	6.196520E-04
6.525608E+03	7.308675E-03	6.123067E-04
6.535495E+03	7.211047E-03	6.049868E-04
6.545383E+03	7.114100E-03	5.977007E-04
6.555270E+03	7.018375E-03	5.904940E-04
6.565157E+03	6.924070E-03	5.833840E-04
6.575044E+03	6.831452E-03	5.763934E-04
6.584932E+03	6.740768E-03	5.695439E-04
6.594819E+03	6.652407E-03	5.628689E-04
6.604706E+03	6.566379E-03	5.563702E-04
6.614594E+03	6.483137E-03	5.500869E-04
6.624481E+03	6.402830E-03	5.440327E-04
6.634368E+03	6.325681E-03	5.382276E-04
6.644255E+03	6.251908E-03	5.326912E-04
6.654143E+03	6.181795E-03	5.274490E-04
6.664030E+03	6.115549E-03	5.225200E-04
6.673917E+03	6.053298E-03	5.179164E-04
6.683805E+03	5.995381E-03	5.136688E-04
6.693692E+03	5.941916E-03	5.097887E-04
6.703579E+03	5.893084E-03	5.062933E-04
6.713466E+03	5.849058E-03	5.031991E-04
6.723354E+03	5.810142E-03	5.005339E-04
6.733241E+03	5.776357E-03	4.983015E-04
6.743128E+03	5.747927E-03	4.965228E-04
6.753016E+03	5.724988E-03	4.952116E-04
6.762903E+03	5.707671E-03	4.943811E-04
6.772790E+03	5.696090E-03	4.940432E-04
6.782677E+03	5.690409E-03	4.942141E-04
6.792565E+03	5.690636E-03	4.948966E-04
6.802452E+03	5.696895E-03	4.961035E-04
6.812339E+03	5.709144E-03	4.978331E-04
6.822227E+03	5.727444E-03	5.000930E-04
6.832114E+03	5.751683E-03	5.028754E-04
6.842001E+03	5.781922E-03	5.061876E-04
6.851888E+03	5.817910E-03	5.100099E-04
6.861776E+03	5.859556E-03	5.143360E-04
6.871663E+03	5.906737E-03	5.191571E-04
6.881550E+03	5.959080E-03	5.244422E-04
6.891438E+03	6.016389E-03	5.301759E-04
6.901325E+03	6.078370E-03	5.363339E-04
6.911212E+03	6.144708E-03	5.428899E-04
6.921099E+03	6.215074E-03	5.498162E-04
6.930987E+03	6.289138E-03	5.570849E-04
6.940874E+03	6.366649E-03	5.646751E-04
6.950761E+03	6.447138E-03	5.725461E-04
6.960649E+03	6.530397E-03	5.806804E-04
6.970536E+03	6.616163E-03	5.890556E-04
6.980423E+03	6.704203E-03	5.976516E-04
6.990310E+03	6.794321E-03	6.064517E-04
7.000198E+03	6.886346E-03	6.154413E-04
7.010085E+03	6.980044E-03	6.246000E-04
7.019972E+03	7.075366E-03	6.339239E-04
7.029860E+03	7.172181E-03	6.434017E-04
7.039747E+03	7.270343E-03	6.530209E-04
7.049634E+03	7.369595E-03	6.627586E-04
7.059521E+03	7.469727E-03	6.725964E-04
7.069409E+03	7.570575E-03	6.825197E-04
7.079296E+03	7.671824E-03	6.925001E-04
7.089183E+03	7.772893E-03	7.024853E-04
7.099071E+03	7.873506E-03	7.124503E-04
7.108958E+03	7.973021E-03	7.223367E-04
7.118845E+03	8.070810E-03	7.320869E-04
7.128732E+03	8.166070E-03	7.416277E-04
7.138620E+03	8.258238E-03	7.509069E-04
7.148507E+03	8.346271E-03	7.598285E-04
7.158394E+03	8.429406E-03	7.683215E-04
7.168282E+03	8.506742E-03	7.763020E-04
7.178169E+03	8.577271E-03	7.836762E-04
7.188056E+03	8.640214E-03	7.903703E-04
7.197943E+03	8.694728E-03	7.963049E-04
7.207831E+03	8.739929E-03	8.013959E-04
7.217718E+03	8.775131E-03	8.055775E-04
7.227605E+03	8.799878E-03	8.088044E-04
7.237493E+03	8.813745E-03	8.110343E-04
7.247380E+03	8.816451E-03	8.122375E-04
7.257267E+03	8.807754E-03	8.123882E-04
7.267154E+03	8.788047E-03	8.115191E-04
7.277042E+03	8.757298E-03	8.096237E-04
7.286929E+03	8.715982E-03	8.067423E-04
7.296816E+03	8.664705E-03	8.029279E-04
7.306704E+03	8.604194E-03	7.982446E-04
7.316591E+03	8.535283E-03	7.927670E-04
7.326478E+03	8.458766E-03	7.865663E-04
7.336365E+03	8.375617E-03	7.797308E-04
7.346253E+03	8.286735E-03	7.723421E-04
7.356140E+03	8.193045E-03	7.644850E-04
7.366027E+03	8.095378E-03	7.562353E-04
7.375915E+03	7.994450E-03	7.476590E-04
7.385802E+03	7.891180E-03	7.388412E-04
7.395689E+03	7.786259E-03	7.298457E-04
7.405576E+03	7.680647E-03	7.207624E-04
7.415464E+03	7.574862E-03	7.116397E-04
7.425351E+03	7.469777E-03	7.025595E-04
7.435238E+03	7.366110E-03	6.935898E-04
7.445126E+03	7.264331E-03	6.847752E-04
7.455013E+03	7.165244E-03	6.761923E-04
7.464900E+03	7.069218E-03	6.678768E-04
7.474787E+03	6.976863E-03	6.598873E-04
7.484675E+03	6.888523E-03	6.522578E-04
7.494562E+03	6.804662E-03	6.450331E-04
7.504449E+03	6.725569E-03	6.382424E-04
7.514337E+03	6.651377E-03	6.318997E-04
7.524224E+03	6.582226E-03	6.260200E-04
7.534111E+03	6.518281E-03	6.206204E-04
7.543998E+03	6.459450E-03	6.156939E-04
7.553886E+03	6.405758E-03	6.112445E-04
7.563773E+03	6.357068E-03	6.072606E-04
7.573660E+03	6.313098E-03	6.037169E-04
7.583548E+03	6.273681E-03	6.005989E-04
7.593435E+03	6.238592E-03	5.978865E-04
7.603322E+03	6.207299E-03	5.955298E-04
7.613209E+03	6.179474E-03	5.934986E-04
7.623097E+03	6.154670E-03	5.917510E-04
7.632984E+03	6.132399E-03	5.902409E-04
7.642871E+03	6.112150E-03	5.889199E-04
7.652759E+03	6.093467E-03	5.877447E-04
7.662646E+03	6.075726E-03	5.866553E-04
7.672533E+03	6.058464E-03	5.856074E-04
