#wls	flux	fluxerr
1.581966E+03	8.619926E-03	1.314295E-03
1.621515E+03	8.813398E-03	1.341076E-03
1.661064E+03	9.005046E-03	1.367386E-03
1.700613E+03	9.197395E-03	1.393603E-03
1.740162E+03	9.388138E-03	1.419371E-03
1.779711E+03	9.576487E-03	1.444566E-03
1.819260E+03	9.763325E-03	1.469318E-03
1.858810E+03	9.947828E-03	1.493497E-03
1.898359E+03	1.012911E-02	1.516966E-03
1.937908E+03	1.030622E-02	1.539581E-03
1.977457E+03	1.047815E-02	1.561189E-03
2.017006E+03	1.064566E-02	1.581902E-03
2.056555E+03	1.080949E-02	1.601829E-03
2.096104E+03	1.096487E-02	1.620262E-03
2.135654E+03	1.111425E-02	1.637566E-03
2.175203E+03	1.125641E-02	1.653563E-03
2.214752E+03	1.139004E-02	1.668067E-03
2.254301E+03	1.151381E-02	1.680886E-03
2.293850E+03	1.163000E-02	1.692362E-03
2.333399E+03	1.173532E-02	1.702021E-03
2.372948E+03	1.183009E-02	1.709923E-03
2.412498E+03	1.191457E-02	1.716113E-03
2.452047E+03	1.198534E-02	1.720111E-03
2.491596E+03	1.204607E-02	1.722462E-03
2.531145E+03	1.209149E-02	1.722426E-03
2.570694E+03	1.212505E-02	1.720513E-03
2.610243E+03	1.214317E-02	1.716237E-03
2.649792E+03	1.214898E-02	1.710061E-03
2.689342E+03	1.213881E-02	1.701491E-03
2.728891E+03	1.211389E-02	1.690725E-03
2.768440E+03	1.207367E-02	1.677715E-03
2.807989E+03	1.201753E-02	1.662404E-03
2.847538E+03	1.194482E-02	1.644733E-03
2.887087E+03	1.185757E-02	1.625014E-03
2.926636E+03	1.175347E-02	1.602966E-03
2.966185E+03	1.163425E-02	1.578856E-03
2.976073E+03	1.160169E-02	1.572459E-03
2.985960E+03	1.156870E-02	1.566005E-03
2.995847E+03	1.153402E-02	1.559325E-03
3.005735E+03	1.149884E-02	1.552580E-03
3.015622E+03	1.146310E-02	1.545763E-03
3.025509E+03	1.142558E-02	1.538710E-03
3.035396E+03	1.138744E-02	1.531578E-03
3.045284E+03	1.134862E-02	1.524359E-03
3.055171E+03	1.130909E-02	1.517050E-03
3.065058E+03	1.126769E-02	1.509495E-03
3.074946E+03	1.122552E-02	1.501843E-03
3.084833E+03	1.118362E-02	1.494235E-03
3.094720E+03	1.113978E-02	1.486374E-03
3.104607E+03	1.109506E-02	1.478402E-03
3.114495E+03	1.104943E-02	1.470318E-03
3.124382E+03	1.100389E-02	1.462253E-03
3.134269E+03	1.095635E-02	1.453931E-03
3.144157E+03	1.090881E-02	1.445619E-03
3.154044E+03	1.086024E-02	1.437179E-03
3.163931E+03	1.081061E-02	1.428610E-03
3.173818E+03	1.075992E-02	1.419909E-03
3.183706E+03	1.070909E-02	1.411202E-03
3.193593E+03	1.065806E-02	1.402480E-03
3.203480E+03	1.060498E-02	1.393499E-03
3.213368E+03	1.055257E-02	1.384618E-03
3.223255E+03	1.049811E-02	1.375480E-03
3.233142E+03	1.044424E-02	1.366433E-03
3.243029E+03	1.038919E-02	1.357244E-03
3.252917E+03	1.033381E-02	1.348026E-03
3.262804E+03	1.027808E-02	1.338776E-03
3.272691E+03	1.022116E-02	1.329385E-03
3.282579E+03	1.016468E-02	1.320067E-03
3.292466E+03	1.010702E-02	1.310609E-03
3.302353E+03	1.004974E-02	1.301217E-03
3.312240E+03	9.991302E-03	1.291689E-03
3.322128E+03	9.933214E-03	1.282222E-03
3.332015E+03	9.874713E-03	1.272718E-03
3.341902E+03	9.816518E-03	1.263270E-03
3.351790E+03	9.757188E-03	1.253692E-03
3.361677E+03	9.698846E-03	1.244258E-03
3.371564E+03	9.639386E-03	1.234698E-03
3.381451E+03	9.580858E-03	1.225273E-03
3.391339E+03	9.521231E-03	1.215726E-03
3.401226E+03	9.462492E-03	1.206309E-03
3.411113E+03	9.403944E-03	1.196934E-03
3.421001E+03	9.344955E-03	1.187520E-03
3.430888E+03	9.286148E-03	1.178148E-03
3.440775E+03	9.228106E-03	1.168890E-03
3.450662E+03	9.169612E-03	1.159593E-03
3.460550E+03	9.111842E-03	1.150406E-03
3.470437E+03	9.054198E-03	1.141252E-03
3.480324E+03	8.996682E-03	1.132133E-03
3.490212E+03	8.939844E-03	1.123117E-03
3.500099E+03	8.883138E-03	1.114136E-03
3.509986E+03	8.827109E-03	1.105258E-03
3.519873E+03	8.771758E-03	1.096483E-03
3.529761E+03	8.716602E-03	1.087750E-03
3.539648E+03	8.662672E-03	1.079188E-03
3.549535E+03	8.609023E-03	1.070678E-03
3.559423E+03	8.556674E-03	1.062348E-03
3.569310E+03	8.504755E-03	1.054088E-03
3.579197E+03	8.454284E-03	1.046025E-03
3.589084E+03	8.404906E-03	1.038113E-03
3.598972E+03	8.357189E-03	1.030423E-03
3.608859E+03	8.310844E-03	1.022918E-03
3.618746E+03	8.266469E-03	1.015670E-03
3.628634E+03	8.223838E-03	1.008651E-03
3.638521E+03	8.183984E-03	1.001986E-03
3.648408E+03	8.146328E-03	9.956032E-04
3.658295E+03	8.111527E-03	9.895806E-04
3.668183E+03	8.080228E-03	9.839957E-04
3.678070E+03	8.051949E-03	9.787876E-04
3.687957E+03	8.027722E-03	9.740797E-04
3.697845E+03	8.007817E-03	9.699022E-04
3.707732E+03	7.991801E-03	9.662000E-04
3.717619E+03	7.981003E-03	9.631310E-04
3.727506E+03	7.974967E-03	9.606367E-04
3.737394E+03	7.974261E-03	9.587826E-04
3.747281E+03	7.978750E-03	9.575489E-04
3.757168E+03	7.989256E-03	9.570308E-04
3.767056E+03	8.005246E-03	9.571605E-04
3.776943E+03	8.027442E-03	9.580206E-04
3.786830E+03	8.055554E-03	9.595724E-04
3.796717E+03	8.089561E-03	9.618096E-04
3.806605E+03	8.129697E-03	9.647560E-04
3.816492E+03	8.175517E-03	9.683549E-04
3.826379E+03	8.226829E-03	9.725797E-04
3.836267E+03	8.283668E-03	9.774310E-04
3.846154E+03	8.345697E-03	9.828653E-04
3.856041E+03	8.412208E-03	9.887960E-04
3.865928E+03	8.483012E-03	9.951978E-04
3.875816E+03	8.557538E-03	1.002001E-03
3.885703E+03	8.634856E-03	1.009095E-03
3.895590E+03	8.714821E-03	1.016460E-03
3.905478E+03	8.796073E-03	1.023937E-03
3.915365E+03	8.878054E-03	1.031460E-03
3.925252E+03	8.959871E-03	1.038924E-03
3.935139E+03	9.040603E-03	1.046224E-03
3.945027E+03	9.119320E-03	1.053254E-03
3.954914E+03	9.195096E-03	1.059906E-03
3.964801E+03	9.266769E-03	1.066052E-03
3.974689E+03	9.334035E-03	1.071657E-03
3.984576E+03	9.395583E-03	1.076575E-03
3.994463E+03	9.450998E-03	1.080763E-03
4.004350E+03	9.499696E-03	1.084158E-03
4.014238E+03	9.540958E-03	1.086684E-03
4.024125E+03	9.574716E-03	1.088337E-03
4.034012E+03	9.600777E-03	1.089102E-03
4.043900E+03	9.618584E-03	1.088920E-03
4.053787E+03	9.628734E-03	1.087865E-03
4.063674E+03	9.630965E-03	1.085913E-03
4.073561E+03	9.626114E-03	1.083164E-03
4.083449E+03	9.614172E-03	1.079621E-03
4.093336E+03	9.595937E-03	1.075379E-03
4.103223E+03	9.571822E-03	1.070489E-03
4.113111E+03	9.542311E-03	1.065009E-03
4.122998E+03	9.508593E-03	1.059075E-03
4.132885E+03	9.470993E-03	1.052726E-03
4.142772E+03	9.430287E-03	1.046052E-03
4.152660E+03	9.387232E-03	1.039139E-03
4.162547E+03	9.342368E-03	1.032047E-03
4.172434E+03	9.296605E-03	1.024879E-03
4.182322E+03	9.250222E-03	1.017665E-03
4.192209E+03	9.204047E-03	1.010499E-03
4.202096E+03	9.158292E-03	1.003402E-03
4.211983E+03	9.113885E-03	9.964759E-04
4.221871E+03	9.070784E-03	9.897158E-04
4.231758E+03	9.029650E-03	9.831926E-04
4.241645E+03	8.990757E-03	9.769350E-04
4.251533E+03	8.954362E-03	9.709695E-04
4.261420E+03	8.921036E-03	9.653564E-04
4.271307E+03	8.890844E-03	9.601006E-04
4.281194E+03	8.864167E-03	9.552415E-04
4.291082E+03	8.841390E-03	9.508181E-04
4.300969E+03	8.822730E-03	9.468512E-04
4.310856E+03	8.808398E-03	9.433612E-04
4.320744E+03	8.798765E-03	9.403847E-04
4.330631E+03	8.794158E-03	9.379538E-04
4.340518E+03	8.794565E-03	9.360640E-04
4.350405E+03	8.800342E-03	9.347499E-04
4.360293E+03	8.811515E-03	9.340107E-04
4.370180E+03	8.828065E-03	9.338411E-04
4.380067E+03	8.850100E-03	9.342489E-04
4.389955E+03	8.877532E-03	9.352215E-04
4.399842E+03	8.910378E-03	9.367570E-04
4.409729E+03	8.948599E-03	9.388480E-04
4.419616E+03	8.991929E-03	9.414634E-04
4.429504E+03	9.040171E-03	9.445794E-04
4.439391E+03	9.093030E-03	9.481622E-04
4.449278E+03	9.149825E-03	9.521382E-04
4.459166E+03	9.210314E-03	9.564798E-04
4.469053E+03	9.273723E-03	9.611048E-04
4.478940E+03	9.339019E-03	9.659044E-04
4.488827E+03	9.405744E-03	9.708306E-04
4.498715E+03	9.472507E-03	9.757393E-04
4.508602E+03	9.538378E-03	9.805351E-04
4.518489E+03	9.602219E-03	9.851021E-04
4.528377E+03	9.662716E-03	9.893070E-04
4.538264E+03	9.718950E-03	9.930584E-04
4.548151E+03	9.769339E-03	9.961978E-04
4.558038E+03	9.813045E-03	9.986436E-04
4.567926E+03	9.849050E-03	1.000297E-03
4.577813E+03	9.876182E-03	1.001043E-03
4.587700E+03	9.893983E-03	1.000843E-03
4.597588E+03	9.901896E-03	9.996441E-04
4.607475E+03	9.899297E-03	9.973910E-04
4.617362E+03	9.886319E-03	9.941033E-04
4.627249E+03	9.862900E-03	9.897810E-04
4.637137E+03	9.829459E-03	9.844723E-04
4.647024E+03	9.786229E-03	9.782064E-04
4.656911E+03	9.734267E-03	9.710947E-04
4.666798E+03	9.674027E-03	9.631874E-04
4.676686E+03	9.606863E-03	9.546241E-04
4.686573E+03	9.533611E-03	9.454914E-04
4.696460E+03	9.455573E-03	9.359220E-04
4.706348E+03	9.374009E-03	9.260427E-04
4.716235E+03	9.290251E-03	9.159867E-04
4.726122E+03	9.205644E-03	9.058873E-04
4.736009E+03	9.121619E-03	8.958854E-04
4.745897E+03	9.039415E-03	8.861018E-04
4.755784E+03	8.960076E-03	8.766375E-04
4.765671E+03	8.884878E-03	8.676151E-04
4.775559E+03	8.814630E-03	8.591110E-04
4.785446E+03	8.750231E-03	8.512095E-04
4.795333E+03	8.692321E-03	8.439696E-04
4.805220E+03	8.641397E-03	8.374356E-04
4.815108E+03	8.597907E-03	8.316468E-04
4.824995E+03	8.561931E-03	8.266068E-04
4.834882E+03	8.533713E-03	8.223348E-04
4.844770E+03	8.513029E-03	8.188051E-04
4.854657E+03	8.499717E-03	8.159980E-04
4.864544E+03	8.493466E-03	8.138797E-04
4.874431E+03	8.493516E-03	8.123739E-04
4.884319E+03	8.499507E-03	8.114425E-04
4.894206E+03	8.510450E-03	8.109885E-04
4.904093E+03	8.525685E-03	8.109464E-04
4.913981E+03	8.544182E-03	8.112164E-04
4.923868E+03	8.565199E-03	8.117264E-04
4.933755E+03	8.587590E-03	8.123669E-04
4.943642E+03	8.610770E-03	8.130820E-04
4.953530E+03	8.633624E-03	8.137663E-04
4.963417E+03	8.655766E-03	8.143840E-04
4.973304E+03	8.676551E-03	8.148747E-04
4.983192E+03	8.695593E-03	8.152032E-04
4.993079E+03	8.712782E-03	8.153602E-04
5.002966E+03	8.727971E-03	8.153330E-04
5.012853E+03	8.741476E-03	8.151524E-04
5.022741E+03	8.753339E-03	8.148230E-04
5.032628E+03	8.764121E-03	8.143979E-04
5.042515E+03	8.774150E-03	8.139083E-04
5.052403E+03	8.783894E-03	8.133982E-04
5.062290E+03	8.793946E-03	8.129223E-04
5.072177E+03	8.804769E-03	8.125238E-04
5.082064E+03	8.816687E-03	8.122319E-04
5.091952E+03	8.830167E-03	8.120895E-04
5.101839E+03	8.845502E-03	8.121228E-04
5.111726E+03	8.862806E-03	8.123416E-04
5.121614E+03	8.882311E-03	8.127666E-04
5.131501E+03	8.904073E-03	8.134018E-04
5.141388E+03	8.928069E-03	8.142446E-04
5.151275E+03	8.954103E-03	8.152762E-04
5.161163E+03	8.982124E-03	8.164915E-04
5.171050E+03	9.011819E-03	8.178612E-04
5.180937E+03	9.043027E-03	8.193705E-04
5.190825E+03	9.075345E-03	8.209826E-04
5.200712E+03	9.108428E-03	8.226660E-04
5.210599E+03	9.141909E-03	8.243877E-04
5.220486E+03	9.175382E-03	8.261114E-04
5.230374E+03	9.208322E-03	8.277901E-04
5.240261E+03	9.240286E-03	8.293846E-04
5.250148E+03	9.270923E-03	8.308644E-04
5.260036E+03	9.299662E-03	8.321792E-04
5.269923E+03	9.325923E-03	8.332783E-04
5.279810E+03	9.349221E-03	8.341198E-04
5.289697E+03	9.369190E-03	8.346725E-04
5.299585E+03	9.385241E-03	8.348855E-04
5.309472E+03	9.396800E-03	8.347093E-04
5.319359E+03	9.403404E-03	8.341045E-04
5.329247E+03	9.404600E-03	8.330332E-04
5.339134E+03	9.400065E-03	8.314685E-04
5.349021E+03	9.389072E-03	8.293486E-04
5.358908E+03	9.371454E-03	8.266608E-04
5.368796E+03	9.346755E-03	8.233675E-04
5.378683E+03	9.314669E-03	8.194441E-04
5.388570E+03	9.274937E-03	8.148703E-04
5.398458E+03	9.227240E-03	8.096207E-04
5.408345E+03	9.171526E-03	8.036934E-04
5.418232E+03	9.107599E-03	7.970736E-04
5.428119E+03	9.035532E-03	7.897703E-04
5.438007E+03	8.955270E-03	7.817810E-04
5.447894E+03	8.867139E-03	7.731367E-04
5.457781E+03	8.771147E-03	7.638401E-04
5.467669E+03	8.667697E-03	7.539284E-04
5.477556E+03	8.557181E-03	7.434377E-04
5.487443E+03	8.440097E-03	7.324128E-04
5.497330E+03	8.317224E-03	7.209229E-04
5.507218E+03	8.189055E-03	7.090119E-04
5.517105E+03	8.056550E-03	6.967638E-04
5.526992E+03	7.920467E-03	6.842448E-04
5.536880E+03	7.781815E-03	6.715425E-04
5.546767E+03	7.641556E-03	6.587400E-04
5.556654E+03	7.500858E-03	6.459376E-04
5.566541E+03	7.360551E-03	6.332064E-04
5.576429E+03	7.221715E-03	6.206385E-04
5.586316E+03	7.085395E-03	6.083225E-04
5.596203E+03	6.952578E-03	5.963421E-04
5.606091E+03	6.823950E-03	5.847546E-04
5.615978E+03	6.700439E-03	5.736377E-04
5.625865E+03	6.582714E-03	5.630471E-04
5.635752E+03	6.471350E-03	5.530300E-04
5.645640E+03	6.366822E-03	5.436250E-04
5.655527E+03	6.269569E-03	5.348677E-04
5.665414E+03	6.179850E-03	5.267782E-04
5.675302E+03	6.097747E-03	5.193614E-04
5.685189E+03	6.023451E-03	5.126319E-04
5.695076E+03	5.956844E-03	5.065776E-04
5.704963E+03	5.897780E-03	5.011845E-04
5.714851E+03	5.846096E-03	4.964372E-04
5.724738E+03	5.801407E-03	4.923014E-04
5.734625E+03	5.763392E-03	4.887485E-04
5.744513E+03	5.731593E-03	4.857387E-04
5.754400E+03	5.705431E-03	4.832218E-04
5.764287E+03	5.684406E-03	4.811544E-04
5.774174E+03	5.667917E-03	4.794853E-04
5.784062E+03	5.655338E-03	4.781607E-04
5.793949E+03	5.645958E-03	4.771202E-04
5.803836E+03	5.639193E-03	4.763141E-04
5.813724E+03	5.634410E-03	4.756888E-04
5.823611E+03	5.630924E-03	4.751864E-04
5.833498E+03	5.628213E-03	4.747630E-04
5.843385E+03	5.625675E-03	4.743678E-04
5.853273E+03	5.622880E-03	4.739648E-04
5.863160E+03	5.619333E-03	4.735124E-04
5.873047E+03	5.614606E-03	4.729749E-04
5.882935E+03	5.608533E-03	4.723385E-04
5.892822E+03	5.600832E-03	4.715798E-04
5.902709E+03	5.591301E-03	4.706819E-04
5.912596E+03	5.579943E-03	4.696455E-04
5.922484E+03	5.566720E-03	4.684674E-04
5.932371E+03	5.551734E-03	4.671564E-04
5.942258E+03	5.535177E-03	4.657288E-04
5.952146E+03	5.517311E-03	4.642068E-04
5.962033E+03	5.498422E-03	4.626146E-04
5.971920E+03	5.478998E-03	4.609931E-04
5.981807E+03	5.459469E-03	4.593787E-04
5.991695E+03	5.440463E-03	4.578244E-04
6.001582E+03	5.422478E-03	4.563718E-04
6.011469E+03	5.406257E-03	4.550840E-04
6.021357E+03	5.392465E-03	4.540168E-04
6.031244E+03	5.381927E-03	4.532400E-04
6.041131E+03	5.375366E-03	4.528148E-04
6.051018E+03	5.373584E-03	4.528093E-04
6.060906E+03	5.377445E-03	4.532968E-04
6.070793E+03	5.387611E-03	4.543340E-04
6.080680E+03	5.404847E-03	4.559863E-04
6.090568E+03	5.429994E-03	4.583260E-04
6.100455E+03	5.463520E-03	4.613938E-04
6.110342E+03	5.506196E-03	4.652567E-04
6.120229E+03	5.558302E-03	4.699404E-04
6.130117E+03	5.620324E-03	4.754880E-04
6.140004E+03	5.692399E-03	4.819132E-04
6.149891E+03	5.774538E-03	4.892192E-04
6.159779E+03	5.866597E-03	4.973964E-04
6.169666E+03	5.967999E-03	5.063980E-04
6.179553E+03	6.077842E-03	5.161503E-04
6.189440E+03	6.194805E-03	5.265434E-04
6.199328E+03	6.317248E-03	5.374403E-04
6.209215E+03	6.443264E-03	5.486808E-04
6.219102E+03	6.570829E-03	5.600938E-04
6.228990E+03	6.697625E-03	5.714829E-04
6.238877E+03	6.821341E-03	5.826515E-04
6.248764E+03	6.939760E-03	5.934097E-04
6.258651E+03	7.050572E-03	6.035589E-04
6.268539E+03	7.151690E-03	6.129188E-04
6.278426E+03	7.241333E-03	6.213342E-04
6.288313E+03	7.317894E-03	6.286640E-04
6.298201E+03	7.379997E-03	6.347858E-04
6.308088E+03	7.426770E-03	6.396203E-04
6.317975E+03	7.457618E-03	6.431108E-04
6.327862E+03	7.472193E-03	6.452220E-04
6.337750E+03	7.470764E-03	6.459714E-04
6.347637E+03	7.453630E-03	6.453786E-04
6.357524E+03	7.421456E-03	6.434953E-04
6.367412E+03	7.375132E-03	6.403929E-04
6.377299E+03	7.315735E-03	6.361589E-04
6.387186E+03	7.244570E-03	6.309012E-04
6.397073E+03	7.162929E-03	6.247273E-04
6.406961E+03	7.072074E-03	6.177422E-04
6.416848E+03	6.973447E-03	6.100678E-04
6.426735E+03	6.868380E-03	6.018166E-04
6.436623E+03	6.758242E-03	5.931051E-04
6.446510E+03	6.644071E-03	5.840215E-04
6.456397E+03	6.527160E-03	5.746769E-04
6.466284E+03	6.408530E-03	5.651593E-04
6.476172E+03	6.289104E-03	5.555486E-04
6.486059E+03	6.169688E-03	5.459149E-04
6.495946E+03	6.050988E-03	5.363196E-04
6.505833E+03	5.933606E-03	5.268159E-04
6.515721E+03	5.818123E-03	5.174550E-04
6.525608E+03	5.704952E-03	5.082740E-04
6.535495E+03	5.594436E-03	4.993037E-04
6.545383E+03	5.486847E-03	4.905688E-04
6.555270E+03	5.382475E-03	4.820962E-04
6.565157E+03	5.281496E-03	4.739025E-04
6.575044E+03	5.183985E-03	4.659954E-04
6.584932E+03	5.090190E-03	4.583983E-04
6.594819E+03	5.000144E-03	4.511155E-04
6.604706E+03	4.913992E-03	4.441614E-04
6.614594E+03	4.831738E-03	4.375378E-04
6.624481E+03	4.753574E-03	4.312636E-04
6.634368E+03	4.679431E-03	4.253342E-04
6.644255E+03	4.609487E-03	4.197674E-04
6.654143E+03	4.543730E-03	4.145639E-04
6.664030E+03	4.482264E-03	4.097350E-04
6.673917E+03	4.425138E-03	4.052871E-04
6.683805E+03	4.372393E-03	4.012259E-04
6.693692E+03	4.324076E-03	3.975578E-04
6.703579E+03	4.280294E-03	3.942946E-04
6.713466E+03	4.241033E-03	3.914373E-04
6.723354E+03	4.206349E-03	3.889934E-04
6.733241E+03	4.176353E-03	3.869751E-04
6.743128E+03	4.151104E-03	3.853906E-04
6.753016E+03	4.130605E-03	3.842424E-04
6.762903E+03	4.115033E-03	3.835496E-04
6.772790E+03	4.104338E-03	3.833099E-04
6.782677E+03	4.098691E-03	3.835420E-04
6.792565E+03	4.098097E-03	3.842491E-04
6.802452E+03	4.102597E-03	3.854379E-04
6.812339E+03	4.112289E-03	3.871201E-04
6.822227E+03	4.127138E-03	3.892956E-04
6.832114E+03	4.147144E-03	3.919670E-04
6.842001E+03	4.172349E-03	3.951413E-04
6.851888E+03	4.202649E-03	3.988117E-04
6.861776E+03	4.237979E-03	4.029746E-04
6.871663E+03	4.278303E-03	4.076298E-04
6.881550E+03	4.323499E-03	4.127683E-04
6.891438E+03	4.373309E-03	4.183683E-04
6.901325E+03	4.427759E-03	4.244353E-04
6.911212E+03	4.486496E-03	4.309377E-04
6.921099E+03	4.549482E-03	4.378746E-04
6.930987E+03	4.616560E-03	4.452334E-04
6.940874E+03	4.687466E-03	4.529910E-04
6.950761E+03	4.762222E-03	4.611519E-04
6.960649E+03	4.840694E-03	4.697055E-04
6.970536E+03	4.922861E-03	4.786518E-04
6.980423E+03	5.008742E-03	4.879954E-04
6.990310E+03	5.098410E-03	4.977451E-04
7.000198E+03	5.191971E-03	5.079143E-04
7.010085E+03	5.289561E-03	5.185182E-04
7.019972E+03	5.391250E-03	5.295666E-04
7.029860E+03	5.497177E-03	5.410755E-04
7.039747E+03	5.607527E-03	5.530659E-04
7.049634E+03	5.722271E-03	5.655380E-04
7.059521E+03	5.841391E-03	5.784924E-04
7.069409E+03	5.964749E-03	5.919184E-04
7.079296E+03	6.092091E-03	6.057936E-04
7.089183E+03	6.222922E-03	6.200711E-04
7.099071E+03	6.356761E-03	6.347053E-04
7.108958E+03	6.492776E-03	6.496148E-04
7.118845E+03	6.630033E-03	6.647077E-04
7.128732E+03	6.767330E-03	6.798640E-04
7.138620E+03	6.903476E-03	6.949642E-04
7.148507E+03	7.037041E-03	7.098634E-04
7.158394E+03	7.166356E-03	7.243915E-04
7.168282E+03	7.289650E-03	7.383667E-04
7.178169E+03	7.405420E-03	7.516328E-04
7.188056E+03	7.511628E-03	7.639782E-04
7.197943E+03	7.606832E-03	7.752499E-04
7.207831E+03	7.689377E-03	7.852723E-04
7.217718E+03	7.757895E-03	7.938975E-04
7.227605E+03	7.811132E-03	8.009883E-04
7.237493E+03	7.848334E-03	8.064575E-04
7.247380E+03	7.868710E-03	8.102138E-04
7.257267E+03	7.872247E-03	8.122453E-04
7.267154E+03	7.858807E-03	8.125268E-04
7.277042E+03	7.828901E-03	8.111008E-04
7.286929E+03	7.783103E-03	8.080160E-04
7.296816E+03	7.722342E-03	8.033592E-04
7.306704E+03	7.647765E-03	7.972400E-04
7.316591E+03	7.560660E-03	7.897843E-04
7.326478E+03	7.462438E-03	7.811314E-04
7.336365E+03	7.354459E-03	7.714167E-04
7.346253E+03	7.238335E-03	7.608034E-04
7.356140E+03	7.115556E-03	7.494427E-04
7.366027E+03	6.987486E-03	7.374742E-04
7.375915E+03	6.855640E-03	7.250546E-04
7.385802E+03	6.721274E-03	7.123143E-04
7.395689E+03	6.585770E-03	6.993982E-04
7.405576E+03	6.450335E-03	6.864338E-04
7.415464E+03	6.316099E-03	6.735414E-04
7.425351E+03	6.184017E-03	6.608235E-04
7.435238E+03	6.055143E-03	6.483940E-04
7.445126E+03	5.930351E-03	6.363485E-04
7.455013E+03	5.810404E-03	6.247714E-04
7.464900E+03	5.696031E-03	6.137442E-04
7.474787E+03	5.587670E-03	6.033176E-04
7.484675E+03	5.485753E-03	5.935421E-04
7.494562E+03	5.390704E-03	5.844677E-04
7.504449E+03	5.302767E-03	5.761255E-04
7.514337E+03	5.222113E-03	5.685386E-04
7.524224E+03	5.148824E-03	5.617204E-04
7.534111E+03	5.082833E-03	5.556688E-04
7.543998E+03	5.024225E-03	5.503978E-04
7.553886E+03	4.972864E-03	5.458970E-04
7.563773E+03	4.928466E-03	5.421402E-04
7.573660E+03	4.890759E-03	5.391021E-04
7.583548E+03	4.859476E-03	5.367573E-04
7.593435E+03	4.834132E-03	5.350568E-04
7.603322E+03	4.814407E-03	5.339688E-04
7.613209E+03	4.799618E-03	5.334210E-04
7.623097E+03	4.789252E-03	5.333599E-04
7.632984E+03	4.782599E-03	5.337089E-04
7.642871E+03	4.779124E-03	5.344107E-04
7.652759E+03	4.777984E-03	5.353730E-04
7.662646E+03	4.778525E-03	5.365238E-04
7.672533E+03	4.780030E-03	5.377836E-04
