#wls	flux	fluxerr
1.581966E+03	7.725866E-03	6.321549E-04
1.621515E+03	7.898467E-03	6.449821E-04
1.661064E+03	8.070825E-03	6.576993E-04
1.700613E+03	8.242341E-03	6.702549E-04
1.740162E+03	8.412360E-03	6.825934E-04
1.779711E+03	8.581720E-03	6.947807E-04
1.819260E+03	8.748179E-03	7.066330E-04
1.858810E+03	8.914098E-03	7.183396E-04
1.898359E+03	9.075548E-03	7.295815E-04
1.937908E+03	9.233246E-03	7.404163E-04
1.977457E+03	9.387936E-03	7.509028E-04
2.017006E+03	9.538719E-03	7.609681E-04
2.056555E+03	9.682982E-03	7.704040E-04
2.096104E+03	9.823026E-03	7.793943E-04
2.135654E+03	9.956141E-03	7.877247E-04
2.175203E+03	1.008459E-02	7.955755E-04
2.214752E+03	1.020387E-02	8.025939E-04
2.254301E+03	1.031617E-02	8.089546E-04
2.293850E+03	1.042193E-02	8.146950E-04
2.333399E+03	1.051819E-02	8.195870E-04
2.372948E+03	1.060529E-02	8.236620E-04
2.412498E+03	1.068186E-02	8.268189E-04
2.452047E+03	1.074975E-02	8.292072E-04
2.491596E+03	1.080582E-02	8.305914E-04
2.531145E+03	1.085336E-02	8.312307E-04
2.570694E+03	1.088753E-02	8.307629E-04
2.610243E+03	1.091139E-02	8.294303E-04
2.649792E+03	1.092315E-02	8.271058E-04
2.689342E+03	1.092250E-02	8.237773E-04
2.728891E+03	1.091049E-02	8.195336E-04
2.768440E+03	1.088513E-02	8.142373E-04
2.807989E+03	1.084722E-02	8.079608E-04
2.847538E+03	1.079604E-02	8.006631E-04
2.887087E+03	1.073334E-02	7.924874E-04
2.926636E+03	1.065686E-02	7.832819E-04
2.966185E+03	1.056806E-02	7.731671E-04
2.976073E+03	1.054395E-02	7.704996E-04
2.985960E+03	1.051947E-02	7.678048E-04
2.995847E+03	1.049455E-02	7.650791E-04
3.005735E+03	1.046804E-02	7.622389E-04
3.015622E+03	1.044103E-02	7.593632E-04
3.025509E+03	1.041348E-02	7.564492E-04
3.035396E+03	1.038428E-02	7.534164E-04
3.045284E+03	1.035551E-02	7.504176E-04
3.055171E+03	1.032504E-02	7.472964E-04
3.065058E+03	1.029490E-02	7.442018E-04
3.074946E+03	1.026300E-02	7.409819E-04
3.084833E+03	1.023135E-02	7.377818E-04
3.094720E+03	1.019887E-02	7.345251E-04
3.104607E+03	1.016457E-02	7.311398E-04
3.114495E+03	1.013134E-02	7.278341E-04
3.124382E+03	1.009623E-02	7.243962E-04
3.134269E+03	1.006112E-02	7.209618E-04
3.144157E+03	1.002503E-02	7.174603E-04
3.154044E+03	9.987939E-03	7.138908E-04
3.163931E+03	9.950722E-03	7.103160E-04
3.173818E+03	9.913327E-03	7.067324E-04
3.183706E+03	9.874831E-03	7.030741E-04
3.193593E+03	9.836080E-03	6.994020E-04
3.203480E+03	9.796187E-03	6.956529E-04
3.213368E+03	9.756802E-03	6.919444E-04
3.223255E+03	9.716215E-03	6.881552E-04
3.233142E+03	9.675232E-03	6.843428E-04
3.243029E+03	9.633817E-03	6.805048E-04
3.252917E+03	9.591937E-03	6.766391E-04
3.262804E+03	9.549567E-03	6.727439E-04
3.272691E+03	9.507434E-03	6.688709E-04
3.282579E+03	9.464000E-03	6.649118E-04
3.292466E+03	9.420738E-03	6.609704E-04
3.302353E+03	9.376881E-03	6.569931E-04
3.312240E+03	9.333125E-03	6.530287E-04
3.322128E+03	9.288731E-03	6.490257E-04
3.332015E+03	9.244378E-03	6.450317E-04
3.341902E+03	9.200029E-03	6.410442E-04
3.351790E+03	9.155001E-03	6.370157E-04
3.361677E+03	9.110588E-03	6.330364E-04
3.371564E+03	9.065468E-03	6.290143E-04
3.381451E+03	9.020281E-03	6.249943E-04
3.391339E+03	8.975014E-03	6.209755E-04
3.401226E+03	8.930263E-03	6.169990E-04
3.411113E+03	8.885399E-03	6.130215E-04
3.421001E+03	8.840434E-03	6.090439E-04
3.430888E+03	8.795939E-03	6.051055E-04
3.440775E+03	8.751347E-03	6.011674E-04
3.450662E+03	8.707224E-03	5.972684E-04
3.460550E+03	8.663573E-03	5.934087E-04
3.470437E+03	8.620398E-03	5.895885E-04
3.480324E+03	8.577720E-03	5.858091E-04
3.490212E+03	8.535054E-03	5.820374E-04
3.500099E+03	8.493455E-03	5.783453E-04
3.509986E+03	8.452936E-03	5.747334E-04
3.519873E+03	8.412567E-03	5.711383E-04
3.529761E+03	8.373377E-03	5.676298E-04
3.539648E+03	8.335404E-03	5.642102E-04
3.549535E+03	8.298708E-03	5.608833E-04
3.559423E+03	8.262913E-03	5.576232E-04
3.569310E+03	8.228552E-03	5.544658E-04
3.579197E+03	8.196139E-03	5.514452E-04
3.589084E+03	8.165325E-03	5.485374E-04
3.598972E+03	8.136224E-03	5.457497E-04
3.608859E+03	8.108943E-03	5.430888E-04
3.618746E+03	8.084002E-03	5.405891E-04
3.628634E+03	8.061121E-03	5.382309E-04
3.638521E+03	8.041195E-03	5.360736E-04
3.648408E+03	8.023572E-03	5.340727E-04
3.658295E+03	8.009129E-03	5.322861E-04
3.668183E+03	7.997243E-03	5.306713E-04
3.678070E+03	7.988763E-03	5.292841E-04
3.687957E+03	7.983436E-03	5.281065E-04
3.697845E+03	7.981715E-03	5.271675E-04
3.707732E+03	7.983345E-03	5.264494E-04
3.717619E+03	7.989079E-03	5.260007E-04
3.727506E+03	7.998308E-03	5.257802E-04
3.737394E+03	8.011407E-03	5.258114E-04
3.747281E+03	8.028402E-03	5.260950E-04
3.757168E+03	8.049605E-03	5.266502E-04
3.767056E+03	8.074366E-03	5.274332E-04
3.776943E+03	8.103555E-03	5.284997E-04
3.786830E+03	8.136471E-03	5.298030E-04
3.796717E+03	8.172999E-03	5.313343E-04
3.806605E+03	8.213585E-03	5.331215E-04
3.816492E+03	8.257444E-03	5.351127E-04
3.826379E+03	8.304935E-03	5.373300E-04
3.836267E+03	8.355219E-03	5.397184E-04
3.846154E+03	8.408567E-03	5.422943E-04
3.856041E+03	8.464357E-03	5.450170E-04
3.865928E+03	8.522492E-03	5.478795E-04
3.875816E+03	8.582291E-03	5.508374E-04
3.885703E+03	8.643319E-03	5.538626E-04
3.895590E+03	8.705645E-03	5.569591E-04
3.905478E+03	8.767981E-03	5.600444E-04
3.915365E+03	8.830617E-03	5.631371E-04
3.925252E+03	8.892511E-03	5.661708E-04
3.935139E+03	8.953657E-03	5.691456E-04
3.945027E+03	9.013021E-03	5.719961E-04
3.954914E+03	9.070356E-03	5.747074E-04
3.964801E+03	9.125166E-03	5.772489E-04
3.974689E+03	9.176751E-03	5.795772E-04
3.984576E+03	9.225176E-03	5.816977E-04
3.994463E+03	9.269571E-03	5.835565E-04
4.004350E+03	9.309849E-03	5.851496E-04
4.014238E+03	9.345730E-03	5.864608E-04
4.024125E+03	9.377001E-03	5.874784E-04
4.034012E+03	9.403283E-03	5.881799E-04
4.043900E+03	9.424723E-03	5.885764E-04
4.053787E+03	9.440858E-03	5.886405E-04
4.063674E+03	9.452416E-03	5.884193E-04
4.073561E+03	9.458856E-03	5.878805E-04
4.083449E+03	9.460586E-03	5.870514E-04
4.093336E+03	9.457639E-03	5.859353E-04
4.103223E+03	9.450535E-03	5.845659E-04
4.113111E+03	9.439613E-03	5.829657E-04
4.122998E+03	9.424866E-03	5.811352E-04
4.132885E+03	9.406735E-03	5.791030E-04
4.142772E+03	9.385877E-03	5.769105E-04
4.152660E+03	9.362398E-03	5.745651E-04
4.162547E+03	9.336995E-03	5.721103E-04
4.172434E+03	9.310002E-03	5.695674E-04
4.182322E+03	9.281768E-03	5.669582E-04
4.192209E+03	9.252833E-03	5.643159E-04
4.202096E+03	9.223724E-03	5.616731E-04
4.211983E+03	9.194636E-03	5.590417E-04
4.221871E+03	9.166261E-03	5.564638E-04
4.231758E+03	9.138628E-03	5.539410E-04
4.241645E+03	9.112573E-03	5.515240E-04
4.251533E+03	9.088277E-03	5.492232E-04
4.261420E+03	9.065919E-03	5.470492E-04
4.271307E+03	9.046135E-03	5.450397E-04
4.281194E+03	9.029234E-03	5.432128E-04
4.291082E+03	9.015368E-03	5.415769E-04
4.300969E+03	9.004971E-03	5.401575E-04
4.310856E+03	8.998307E-03	5.389695E-04
4.320744E+03	8.995483E-03	5.380185E-04
4.330631E+03	8.996978E-03	5.373321E-04
4.340518E+03	9.002585E-03	5.368973E-04
4.350405E+03	9.012379E-03	5.367174E-04
4.360293E+03	9.026341E-03	5.367904E-04
4.370180E+03	9.044145E-03	5.370959E-04
4.380067E+03	9.065704E-03	5.376280E-04
4.389955E+03	9.090623E-03	5.383626E-04
4.399842E+03	9.118867E-03	5.392968E-04
4.409729E+03	9.150105E-03	5.404104E-04
4.419616E+03	9.183962E-03	5.416808E-04
4.429504E+03	9.220277E-03	5.430982E-04
4.439391E+03	9.258467E-03	5.446276E-04
4.449278E+03	9.298164E-03	5.462474E-04
4.459166E+03	9.339083E-03	5.479406E-04
4.469053E+03	9.380651E-03	5.496736E-04
4.478940E+03	9.422515E-03	5.514258E-04
4.488827E+03	9.464161E-03	5.531674E-04
4.498715E+03	9.504813E-03	5.548531E-04
4.508602E+03	9.544294E-03	5.564732E-04
4.518489E+03	9.581807E-03	5.579818E-04
4.528377E+03	9.616924E-03	5.593545E-04
4.538264E+03	9.649235E-03	5.605683E-04
4.548151E+03	9.677985E-03	5.615801E-04
4.558038E+03	9.702945E-03	5.623776E-04
4.567926E+03	9.723568E-03	5.629301E-04
4.577813E+03	9.739598E-03	5.632239E-04
4.587700E+03	9.750609E-03	5.632352E-04
4.597588E+03	9.756487E-03	5.629588E-04
4.607475E+03	9.757071E-03	5.623864E-04
4.617362E+03	9.752162E-03	5.615077E-04
4.627249E+03	9.741887E-03	5.603311E-04
4.637137E+03	9.726213E-03	5.588558E-04
4.647024E+03	9.705426E-03	5.570992E-04
4.656911E+03	9.679766E-03	5.550761E-04
4.666798E+03	9.649428E-03	5.527984E-04
4.676686E+03	9.614792E-03	5.502888E-04
4.686573E+03	9.576291E-03	5.475726E-04
4.696460E+03	9.534517E-03	5.446844E-04
4.706348E+03	9.490027E-03	5.416565E-04
4.716235E+03	9.443233E-03	5.385126E-04
4.726122E+03	9.395142E-03	5.353102E-04
4.736009E+03	9.346306E-03	5.320808E-04
4.745897E+03	9.297269E-03	5.288554E-04
4.755784E+03	9.248965E-03	5.256869E-04
4.765671E+03	9.201748E-03	5.225951E-04
4.775559E+03	9.156343E-03	5.196208E-04
4.785446E+03	9.113100E-03	5.167836E-04
4.795333E+03	9.072608E-03	5.141165E-04
4.805220E+03	9.035184E-03	5.116368E-04
4.815108E+03	9.001070E-03	5.093579E-04
4.824995E+03	8.970636E-03	5.073001E-04
4.834882E+03	8.943887E-03	5.054633E-04
4.844770E+03	8.920948E-03	5.038541E-04
4.854657E+03	8.901882E-03	5.024754E-04
4.864544E+03	8.886598E-03	5.013218E-04
4.874431E+03	8.874940E-03	5.003841E-04
4.884319E+03	8.866813E-03	4.996565E-04
4.894206E+03	8.862075E-03	4.991308E-04
4.904093E+03	8.860456E-03	4.987914E-04
4.913981E+03	8.861570E-03	4.986163E-04
4.923868E+03	8.865400E-03	4.986045E-04
4.933755E+03	8.871352E-03	4.987224E-04
4.943642E+03	8.879408E-03	4.989688E-04
4.953530E+03	8.889277E-03	4.993274E-04
4.963417E+03	8.900596E-03	4.997776E-04
4.973304E+03	8.913210E-03	5.003108E-04
4.983192E+03	8.926815E-03	5.009099E-04
4.993079E+03	8.941420E-03	5.015755E-04
5.002966E+03	8.956882E-03	5.022995E-04
5.012853E+03	8.972996E-03	5.030706E-04
5.022741E+03	8.989782E-03	5.038899E-04
5.032628E+03	9.007201E-03	5.047553E-04
5.042515E+03	9.025232E-03	5.056658E-04
5.052403E+03	9.043881E-03	5.066216E-04
5.062290E+03	9.063167E-03	5.076240E-04
5.072177E+03	9.083217E-03	5.086803E-04
5.082064E+03	9.103976E-03	5.097874E-04
5.091952E+03	9.125568E-03	5.109523E-04
5.101839E+03	9.148022E-03	5.121769E-04
5.111726E+03	9.171253E-03	5.134564E-04
5.121614E+03	9.195360E-03	5.147966E-04
5.131501E+03	9.220223E-03	5.161909E-04
5.141388E+03	9.245993E-03	5.176478E-04
5.151275E+03	9.272404E-03	5.191527E-04
5.161163E+03	9.299463E-03	5.207061E-04
5.171050E+03	9.326951E-03	5.222959E-04
5.180937E+03	9.354913E-03	5.239247E-04
5.190825E+03	9.382884E-03	5.255667E-04
5.200712E+03	9.410859E-03	5.272218E-04
5.210599E+03	9.438612E-03	5.288775E-04
5.220486E+03	9.465795E-03	5.305145E-04
5.230374E+03	9.492042E-03	5.321123E-04
5.240261E+03	9.517259E-03	5.336658E-04
5.250148E+03	9.540940E-03	5.351467E-04
5.260036E+03	9.562862E-03	5.365427E-04
5.269923E+03	9.582489E-03	5.378237E-04
5.279810E+03	9.599679E-03	5.389817E-04
5.289697E+03	9.613779E-03	5.399800E-04
5.299585E+03	9.624635E-03	5.408097E-04
5.309472E+03	9.631696E-03	5.414396E-04
5.319359E+03	9.634716E-03	5.418553E-04
5.329247E+03	9.633067E-03	5.420211E-04
5.339134E+03	9.626630E-03	5.419296E-04
5.349021E+03	9.614817E-03	5.415471E-04
5.358908E+03	9.597457E-03	5.408633E-04
5.368796E+03	9.574116E-03	5.398530E-04
5.378683E+03	9.544705E-03	5.385103E-04
5.388570E+03	9.508769E-03	5.368086E-04
5.398458E+03	9.466310E-03	5.347470E-04
5.408345E+03	9.417274E-03	5.323216E-04
5.418232E+03	9.361480E-03	5.295209E-04
5.428119E+03	9.298999E-03	5.263479E-04
5.438007E+03	9.230155E-03	5.228197E-04
5.447894E+03	9.154951E-03	5.189354E-04
5.457781E+03	9.073932E-03	5.147247E-04
5.467669E+03	8.987229E-03	5.101939E-04
5.477556E+03	8.895500E-03	5.053792E-04
5.487443E+03	8.799083E-03	5.002986E-04
5.497330E+03	8.698733E-03	4.949941E-04
5.507218E+03	8.594880E-03	4.894893E-04
5.517105E+03	8.488174E-03	4.838201E-04
5.526992E+03	8.379379E-03	4.780293E-04
5.536880E+03	8.269097E-03	4.721506E-04
5.546767E+03	8.158029E-03	4.662232E-04
5.556654E+03	8.046798E-03	4.602823E-04
5.566541E+03	7.936015E-03	4.543626E-04
5.576429E+03	7.826443E-03	4.485071E-04
5.586316E+03	7.718575E-03	4.427442E-04
5.596203E+03	7.613117E-03	4.371142E-04
5.606091E+03	7.510416E-03	4.316369E-04
5.615978E+03	7.411170E-03	4.263528E-04
5.625865E+03	7.315645E-03	4.212774E-04
5.635752E+03	7.224281E-03	4.164362E-04
5.645640E+03	7.137464E-03	4.118521E-04
5.655527E+03	7.055382E-03	4.075364E-04
5.665414E+03	6.978228E-03	4.035008E-04
5.675302E+03	6.906298E-03	3.997630E-04
5.685189E+03	6.839535E-03	3.963205E-04
5.695076E+03	6.778043E-03	3.931800E-04
5.704963E+03	6.721739E-03	3.903375E-04
5.714851E+03	6.670696E-03	3.877979E-04
5.724738E+03	6.624736E-03	3.855518E-04
5.734625E+03	6.583709E-03	3.835912E-04
5.744513E+03	6.547353E-03	3.819016E-04
5.754400E+03	6.515587E-03	3.804790E-04
5.764287E+03	6.488091E-03	3.793056E-04
5.774174E+03	6.464526E-03	3.783622E-04
5.784062E+03	6.444742E-03	3.776407E-04
5.793949E+03	6.428296E-03	3.771157E-04
5.803836E+03	6.414957E-03	3.767743E-04
5.813724E+03	6.404411E-03	3.765985E-04
5.823611E+03	6.396291E-03	3.765672E-04
5.833498E+03	6.390309E-03	3.766639E-04
5.843385E+03	6.386188E-03	3.768726E-04
5.853273E+03	6.383742E-03	3.771826E-04
5.863160E+03	6.382618E-03	3.775733E-04
5.873047E+03	6.382683E-03	3.780370E-04
5.882935E+03	6.383717E-03	3.785610E-04
5.892822E+03	6.385662E-03	3.791418E-04
5.902709E+03	6.388376E-03	3.797713E-04
5.912596E+03	6.391760E-03	3.804435E-04
5.922484E+03	6.395823E-03	3.811591E-04
5.932371E+03	6.400690E-03	3.819258E-04
5.942258E+03	6.406329E-03	3.827416E-04
5.952146E+03	6.412953E-03	3.836195E-04
5.962033E+03	6.420686E-03	3.845670E-04
5.971920E+03	6.429754E-03	3.855979E-04
5.981807E+03	6.440358E-03	3.867246E-04
5.991695E+03	6.452795E-03	3.879652E-04
6.001582E+03	6.467386E-03	3.893393E-04
6.011469E+03	6.484405E-03	3.908641E-04
6.021357E+03	6.504213E-03	3.925617E-04
6.031244E+03	6.527102E-03	3.944505E-04
6.041131E+03	6.553501E-03	3.965570E-04
6.051018E+03	6.583689E-03	3.988990E-04
6.060906E+03	6.617925E-03	4.014932E-04
6.070793E+03	6.656583E-03	4.043630E-04
6.080680E+03	6.699771E-03	4.075162E-04
6.090568E+03	6.747838E-03	4.109750E-04
6.100455E+03	6.800857E-03	4.147450E-04
6.110342E+03	6.858817E-03	4.188268E-04
6.120229E+03	6.921776E-03	4.232250E-04
6.130117E+03	6.989614E-03	4.279336E-04
6.140004E+03	7.062107E-03	4.329400E-04
6.149891E+03	7.138849E-03	4.382203E-04
6.159779E+03	7.219463E-03	4.437524E-04
6.169666E+03	7.303382E-03	4.495023E-04
6.179553E+03	7.389954E-03	4.554307E-04
6.189440E+03	7.478438E-03	4.614924E-04
6.199328E+03	7.568079E-03	4.676411E-04
6.209215E+03	7.657873E-03	4.738151E-04
6.219102E+03	7.746894E-03	4.799569E-04
6.228990E+03	7.834072E-03	4.860001E-04
6.238877E+03	7.918217E-03	4.918701E-04
6.248764E+03	7.998469E-03	4.975127E-04
6.258651E+03	8.073459E-03	5.028417E-04
6.268539E+03	8.142283E-03	5.077992E-04
6.278426E+03	8.203845E-03	5.123154E-04
6.288313E+03	8.257407E-03	5.163421E-04
6.298201E+03	8.301879E-03	5.198091E-04
6.308088E+03	8.336848E-03	5.226883E-04
6.317975E+03	8.361581E-03	5.249312E-04
6.327862E+03	8.375869E-03	5.265220E-04
6.337750E+03	8.379189E-03	5.274252E-04
6.347637E+03	8.371732E-03	5.276500E-04
6.357524E+03	8.353463E-03	5.271915E-04
6.367412E+03	8.324502E-03	5.260546E-04
6.377299E+03	8.285273E-03	5.242633E-04
6.387186E+03	8.236324E-03	5.218497E-04
6.397073E+03	8.177931E-03	5.188289E-04
6.406961E+03	8.111011E-03	5.152567E-04
6.416848E+03	8.036177E-03	5.111700E-04
6.426735E+03	7.954179E-03	5.066145E-04
6.436623E+03	7.865896E-03	5.016443E-04
6.446510E+03	7.772035E-03	4.963032E-04
6.456397E+03	7.673398E-03	4.906409E-04
6.466284E+03	7.570949E-03	4.847180E-04
6.476172E+03	7.465367E-03	4.785769E-04
6.486059E+03	7.357391E-03	4.722643E-04
6.495946E+03	7.247887E-03	4.658353E-04
6.505833E+03	7.137425E-03	4.593262E-04
6.515721E+03	7.026619E-03	4.527761E-04
6.525608E+03	6.916192E-03	4.462318E-04
6.535495E+03	6.806585E-03	4.397218E-04
6.545383E+03	6.698340E-03	4.332813E-04
6.555270E+03	6.591884E-03	4.269383E-04
6.565157E+03	6.487675E-03	4.207230E-04
6.575044E+03	6.385980E-03	4.146533E-04
6.584932E+03	6.287252E-03	4.087591E-04
6.594819E+03	6.191690E-03	4.030543E-04
6.604706E+03	6.099679E-03	3.975647E-04
6.614594E+03	6.011290E-03	3.922958E-04
6.624481E+03	5.926851E-03	3.872699E-04
6.634368E+03	5.846529E-03	3.824990E-04
6.644255E+03	5.770403E-03	3.779892E-04
6.654143E+03	5.698743E-03	3.737592E-04
6.664030E+03	5.631664E-03	3.698178E-04
6.673917E+03	5.569197E-03	3.661680E-04
6.683805E+03	5.511506E-03	3.628219E-04
6.693692E+03	5.458668E-03	3.597856E-04
6.703579E+03	5.410763E-03	3.570656E-04
6.713466E+03	5.367918E-03	3.546716E-04
6.723354E+03	5.330125E-03	3.526041E-04
6.733241E+03	5.297502E-03	3.508723E-04
6.743128E+03	5.270098E-03	3.494806E-04
6.753016E+03	5.247952E-03	3.484330E-04
6.762903E+03	5.231031E-03	3.477284E-04
6.772790E+03	5.219563E-03	3.473833E-04
6.782677E+03	5.213373E-03	3.473874E-04
6.792565E+03	5.212544E-03	3.477473E-04
6.802452E+03	5.217152E-03	3.484696E-04
6.812339E+03	5.227198E-03	3.495555E-04
6.822227E+03	5.242616E-03	3.510019E-04
6.832114E+03	5.263388E-03	3.528089E-04
6.842001E+03	5.289632E-03	3.549856E-04
6.851888E+03	5.321114E-03	3.575177E-04
6.861776E+03	5.358004E-03	3.604176E-04
6.871663E+03	5.400122E-03	3.636746E-04
6.881550E+03	5.447485E-03	3.672911E-04
6.891438E+03	5.499964E-03	3.712595E-04
6.901325E+03	5.557559E-03	3.755811E-04
6.911212E+03	5.620207E-03	3.802526E-04
6.921099E+03	5.687749E-03	3.852646E-04
6.930987E+03	5.760183E-03	3.906180E-04
6.940874E+03	5.837342E-03	3.963024E-04
6.950761E+03	5.919208E-03	4.023179E-04
6.960649E+03	6.005680E-03	4.086585E-04
6.970536E+03	6.096489E-03	4.153070E-04
6.980423E+03	6.191674E-03	4.222669E-04
6.990310E+03	6.291100E-03	4.295301E-04
7.000198E+03	6.394443E-03	4.370754E-04
7.010085E+03	6.501694E-03	4.449028E-04
7.019972E+03	6.612474E-03	4.529874E-04
7.029860E+03	6.726622E-03	4.613190E-04
7.039747E+03	6.843854E-03	4.698785E-04
7.049634E+03	6.963834E-03	4.786437E-04
7.059521E+03	7.086082E-03	4.875821E-04
7.069409E+03	7.210147E-03	4.966631E-04
7.079296E+03	7.335503E-03	5.058508E-04
7.089183E+03	7.461670E-03	5.151123E-04
7.099071E+03	7.587794E-03	5.243886E-04
7.108958E+03	7.713144E-03	5.336293E-04
7.118845E+03	7.837027E-03	5.427860E-04
7.128732E+03	7.958491E-03	5.517925E-04
7.138620E+03	8.076632E-03	5.605852E-04
7.148507E+03	8.190390E-03	5.690899E-04
7.158394E+03	8.298796E-03	5.772380E-04
7.168282E+03	8.400985E-03	5.849683E-04
7.178169E+03	8.495763E-03	5.921959E-04
7.188056E+03	8.582197E-03	5.988542E-04
7.197943E+03	8.659401E-03	6.048793E-04
7.207831E+03	8.726453E-03	6.102049E-04
7.217718E+03	8.782763E-03	6.147872E-04
7.227605E+03	8.827503E-03	6.185659E-04
7.237493E+03	8.860324E-03	6.215140E-04
7.247380E+03	8.880678E-03	6.235904E-04
7.257267E+03	8.888514E-03	6.247887E-04
7.267154E+03	8.883596E-03	6.250898E-04
7.277042E+03	8.866197E-03	6.245099E-04
7.286929E+03	8.836508E-03	6.230599E-04
7.296816E+03	8.794870E-03	6.207612E-04
7.306704E+03	8.741995E-03	6.176616E-04
7.316591E+03	8.678482E-03	6.138009E-04
7.326478E+03	8.605032E-03	6.092266E-04
7.336365E+03	8.522553E-03	6.040010E-04
7.346253E+03	8.432241E-03	5.982069E-04
7.356140E+03	8.334771E-03	5.918907E-04
7.366027E+03	8.231411E-03	5.851409E-04
7.375915E+03	8.123101E-03	5.780233E-04
7.385802E+03	8.010986E-03	5.706184E-04
7.395689E+03	7.895978E-03	5.629905E-04
7.405576E+03	7.779270E-03	5.552241E-04
7.415464E+03	7.661786E-03	5.473849E-04
7.425351E+03	7.544297E-03	5.395279E-04
7.435238E+03	7.427804E-03	5.317248E-04
7.445126E+03	7.312947E-03	5.240217E-04
7.455013E+03	7.200491E-03	5.164737E-04
7.464900E+03	7.091029E-03	5.091241E-04
7.474787E+03	6.985191E-03	5.020186E-04
7.484675E+03	6.883418E-03	4.951899E-04
7.494562E+03	6.786079E-03	4.886654E-04
7.504449E+03	6.693553E-03	4.824734E-04
7.514337E+03	6.606051E-03	4.766301E-04
7.524224E+03	6.523705E-03	4.711460E-04
7.534111E+03	6.446585E-03	4.660275E-04
7.543998E+03	6.374772E-03	4.612814E-04
7.553886E+03	6.308114E-03	4.568979E-04
7.563773E+03	6.246571E-03	4.528751E-04
7.573660E+03	6.190042E-03	4.492068E-04
7.583548E+03	6.138127E-03	4.458650E-04
7.593435E+03	6.090709E-03	4.428422E-04
7.603322E+03	6.047381E-03	4.401097E-04
7.613209E+03	6.007866E-03	4.376481E-04
7.623097E+03	5.971684E-03	4.354233E-04
7.632984E+03	5.938500E-03	4.334114E-04
7.642871E+03	5.907866E-03	4.315804E-04
7.652759E+03	5.879244E-03	4.298915E-04
7.662646E+03	5.852166E-03	4.283108E-04
7.672533E+03	5.826322E-03	4.268160E-04
