#wls	flux	fluxerr
1.581966E+03	8.569763E-03	1.323296E-03
1.621515E+03	8.761150E-03	1.350196E-03
1.661064E+03	8.950710E-03	1.376625E-03
1.700613E+03	9.140938E-03	1.402963E-03
1.740162E+03	9.329549E-03	1.428853E-03
1.779711E+03	9.515773E-03	1.454171E-03
1.819260E+03	9.700470E-03	1.479047E-03
1.858810E+03	9.882829E-03	1.503351E-03
1.898359E+03	1.006197E-02	1.526945E-03
1.937908E+03	1.023695E-02	1.549684E-03
1.977457E+03	1.040854E-02	1.571683E-03
2.017006E+03	1.057396E-02	1.592519E-03
2.056555E+03	1.073388E-02	1.612294E-03
2.096104E+03	1.088718E-02	1.630841E-03
2.135654E+03	1.103448E-02	1.648254E-03
2.175203E+03	1.117275E-02	1.664083E-03
2.214752E+03	1.130432E-02	1.678680E-03
2.254301E+03	1.142606E-02	1.691585E-03
2.293850E+03	1.153840E-02	1.702868E-03
2.333399E+03	1.164171E-02	1.712591E-03
2.372948E+03	1.173270E-02	1.720281E-03
2.412498E+03	1.181341E-02	1.726250E-03
2.452047E+03	1.188050E-02	1.730020E-03
2.491596E+03	1.193584E-02	1.731882E-03
2.531145E+03	1.197945E-02	1.731851E-03
2.570694E+03	1.200786E-02	1.729446E-03
2.610243E+03	1.202103E-02	1.724681E-03
2.649792E+03	1.202205E-02	1.718023E-03
2.689342E+03	1.200577E-02	1.708758E-03
2.728891E+03	1.197506E-02	1.697324E-03
2.768440E+03	1.192794E-02	1.683464E-03
2.807989E+03	1.186686E-02	1.667556E-03
2.847538E+03	1.178689E-02	1.648936E-03
2.887087E+03	1.169304E-02	1.628341E-03
2.926636E+03	1.158182E-02	1.605315E-03
2.966185E+03	1.145386E-02	1.579986E-03
2.976073E+03	1.142022E-02	1.573430E-03
2.985960E+03	1.138498E-02	1.566658E-03
2.995847E+03	1.134814E-02	1.559669E-03
3.005735E+03	1.131087E-02	1.552624E-03
3.015622E+03	1.127312E-02	1.545518E-03
3.025509E+03	1.123369E-02	1.538185E-03
3.035396E+03	1.119370E-02	1.530783E-03
3.045284E+03	1.115312E-02	1.523304E-03
3.055171E+03	1.111080E-02	1.515593E-03
3.065058E+03	1.106782E-02	1.507799E-03
3.074946E+03	1.102416E-02	1.499918E-03
3.084833E+03	1.097870E-02	1.491801E-03
3.094720E+03	1.093355E-02	1.483734E-03
3.104607E+03	1.088658E-02	1.475427E-03
3.114495E+03	1.083881E-02	1.467020E-03
3.124382E+03	1.079121E-02	1.458647E-03
3.134269E+03	1.074174E-02	1.450029E-03
3.144157E+03	1.069140E-02	1.441303E-03
3.154044E+03	1.064113E-02	1.432597E-03
3.163931E+03	1.058896E-02	1.423646E-03
3.173818E+03	1.053680E-02	1.414708E-03
3.183706E+03	1.048367E-02	1.405651E-03
3.193593E+03	1.042956E-02	1.396475E-03
3.203480E+03	1.037537E-02	1.387300E-03
3.213368E+03	1.032017E-02	1.378003E-03
3.223255E+03	1.026397E-02	1.368585E-03
3.233142E+03	1.020762E-02	1.359161E-03
3.243029E+03	1.015109E-02	1.349727E-03
3.252917E+03	1.009354E-02	1.340171E-03
3.262804E+03	1.003499E-02	1.330497E-03
3.272691E+03	9.976255E-03	1.320814E-03
3.282579E+03	9.917331E-03	1.311121E-03
3.292466E+03	9.858210E-03	1.301418E-03
3.302353E+03	9.798896E-03	1.291704E-03
3.312240E+03	9.738639E-03	1.281883E-03
3.322128E+03	9.678950E-03	1.272153E-03
3.332015E+03	9.618362E-03	1.262321E-03
3.341902E+03	9.558336E-03	1.252580E-03
3.351790E+03	9.497454E-03	1.242744E-03
3.361677E+03	9.437131E-03	1.232998E-03
3.371564E+03	9.376670E-03	1.223251E-03
3.381451E+03	9.316736E-03	1.213591E-03
3.391339E+03	9.256662E-03	1.203929E-03
3.401226E+03	9.196449E-03	1.194268E-03
3.411113E+03	9.136725E-03	1.184688E-03
3.421001E+03	9.076840E-03	1.175104E-03
3.430888E+03	9.017392E-03	1.165596E-03
3.440775E+03	8.958337E-03	1.156156E-03
3.450662E+03	8.899632E-03	1.146780E-03
3.460550E+03	8.840677E-03	1.137389E-03
3.470437E+03	8.782024E-03	1.128056E-03
3.480324E+03	8.724182E-03	1.118845E-03
3.490212E+03	8.666028E-03	1.109612E-03
3.500099E+03	8.608609E-03	1.100492E-03
3.509986E+03	8.551370E-03	1.091413E-03
3.519873E+03	8.494294E-03	1.082374E-03
3.529761E+03	8.437865E-03	1.073435E-03
3.539648E+03	8.381571E-03	1.064532E-03
3.549535E+03	8.325417E-03	1.055665E-03
3.559423E+03	8.269890E-03	1.046897E-03
3.569310E+03	8.214993E-03	1.038226E-03
3.579197E+03	8.160757E-03	1.029657E-03
3.589084E+03	8.106799E-03	1.021142E-03
3.598972E+03	8.054084E-03	1.012802E-03
3.608859E+03	8.001873E-03	1.004542E-03
3.618746E+03	7.951165E-03	9.964889E-04
3.628634E+03	7.901338E-03	9.885635E-04
3.638521E+03	7.853452E-03	9.808976E-04
3.648408E+03	7.807784E-03	9.735248E-04
3.658295E+03	7.764281E-03	9.664371E-04
3.668183E+03	7.723328E-03	9.596812E-04
3.678070E+03	7.685713E-03	9.533532E-04
3.687957E+03	7.651507E-03	9.474601E-04
3.697845E+03	7.621530E-03	9.421009E-04
3.707732E+03	7.596227E-03	9.373280E-04
3.717619E+03	7.576045E-03	9.331937E-04
3.727506E+03	7.561411E-03	9.297470E-04
3.737394E+03	7.552715E-03	9.270324E-04
3.747281E+03	7.550309E-03	9.250891E-04
3.757168E+03	7.554489E-03	9.239494E-04
3.767056E+03	7.565494E-03	9.236382E-04
3.776943E+03	7.583815E-03	9.242109E-04
3.786830E+03	7.609257E-03	9.256390E-04
3.796717E+03	7.642185E-03	9.279622E-04
3.806605E+03	7.682004E-03	9.311037E-04
3.816492E+03	7.729556E-03	9.351606E-04
3.826379E+03	7.784127E-03	9.400417E-04
3.836267E+03	7.845828E-03	9.457557E-04
3.846154E+03	7.914097E-03	9.522304E-04
3.856041E+03	7.988875E-03	9.594544E-04
3.865928E+03	8.069699E-03	9.673677E-04
3.875816E+03	8.155984E-03	9.758965E-04
3.885703E+03	8.246724E-03	9.849170E-04
3.895590E+03	8.341330E-03	9.943561E-04
3.905478E+03	8.438791E-03	1.004091E-03
3.915365E+03	8.537953E-03	1.013983E-03
3.925252E+03	8.637571E-03	1.023882E-03
3.935139E+03	8.736051E-03	1.033602E-03
3.945027E+03	8.832340E-03	1.043017E-03
3.954914E+03	8.925109E-03	1.051972E-03
3.964801E+03	9.013087E-03	1.060322E-03
3.974689E+03	9.095075E-03	1.067928E-03
3.984576E+03	9.169719E-03	1.074635E-03
3.994463E+03	9.236343E-03	1.080370E-03
4.004350E+03	9.293876E-03	1.085014E-03
4.014238E+03	9.341696E-03	1.088500E-03
4.024125E+03	9.379625E-03	1.090813E-03
4.034012E+03	9.407420E-03	1.091933E-03
4.043900E+03	9.424540E-03	1.091804E-03
4.053787E+03	9.431452E-03	1.090488E-03
4.063674E+03	9.428585E-03	1.088040E-03
4.073561E+03	9.416568E-03	1.084540E-03
4.083449E+03	9.395964E-03	1.080059E-03
4.093336E+03	9.367964E-03	1.074740E-03
4.103223E+03	9.333367E-03	1.068679E-03
4.113111E+03	9.293036E-03	1.061980E-03
4.122998E+03	9.248533E-03	1.054825E-03
4.132885E+03	9.200481E-03	1.047287E-03
4.142772E+03	9.149910E-03	1.039486E-03
4.152660E+03	9.097574E-03	1.031509E-03
4.162547E+03	9.044772E-03	1.023506E-03
4.172434E+03	8.991875E-03	1.015517E-03
4.182322E+03	8.939589E-03	1.007623E-03
4.192209E+03	8.888532E-03	9.998936E-04
4.202096E+03	8.839034E-03	9.923647E-04
4.211983E+03	8.791554E-03	9.850866E-04
4.221871E+03	8.746278E-03	9.780793E-04
4.231758E+03	8.703705E-03	9.713970E-04
4.241645E+03	8.663906E-03	9.650459E-04
4.251533E+03	8.627101E-03	9.590490E-04
4.261420E+03	8.593138E-03	9.533874E-04
4.271307E+03	8.562556E-03	9.481191E-04
4.281194E+03	8.535037E-03	9.432069E-04
4.291082E+03	8.511136E-03	9.387102E-04
4.300969E+03	8.490760E-03	9.346165E-04
4.310856E+03	8.474198E-03	9.309554E-04
4.320744E+03	8.461768E-03	9.277596E-04
4.330631E+03	8.453669E-03	9.250481E-04
4.340518E+03	8.450251E-03	9.228566E-04
4.350405E+03	8.451706E-03	9.212032E-04
4.360293E+03	8.458392E-03	9.201237E-04
4.370180E+03	8.470685E-03	9.196554E-04
4.380067E+03	8.488827E-03	9.198212E-04
4.389955E+03	8.513350E-03	9.206749E-04
4.399842E+03	8.544162E-03	9.222026E-04
4.409729E+03	8.581857E-03	9.244644E-04
4.419616E+03	8.626493E-03	9.274623E-04
4.429504E+03	8.678163E-03	9.312021E-04
4.439391E+03	8.736517E-03	9.356419E-04
4.449278E+03	8.801613E-03	9.407840E-04
4.459166E+03	8.872860E-03	9.465615E-04
4.469053E+03	8.949441E-03	9.528834E-04
4.478940E+03	9.030438E-03	9.596494E-04
4.488827E+03	9.114843E-03	9.667498E-04
4.498715E+03	9.200974E-03	9.740051E-04
4.508602E+03	9.287389E-03	9.812616E-04
4.518489E+03	9.372316E-03	9.883329E-04
4.528377E+03	9.453723E-03	9.950062E-04
4.538264E+03	9.529645E-03	1.001077E-03
4.548151E+03	9.598116E-03	1.006344E-03
4.558038E+03	9.657394E-03	1.010628E-03
4.567926E+03	9.705596E-03	1.013740E-03
4.577813E+03	9.741062E-03	1.015511E-03
4.587700E+03	9.762858E-03	1.015854E-03
4.597588E+03	9.769811E-03	1.014655E-03
4.607475E+03	9.761552E-03	1.011884E-03
4.617362E+03	9.737955E-03	1.007536E-03
4.627249E+03	9.699272E-03	1.001649E-03
4.637137E+03	9.645982E-03	9.942781E-04
4.647024E+03	9.579305E-03	9.855591E-04
4.656911E+03	9.500192E-03	9.755967E-04
4.666798E+03	9.410366E-03	9.645748E-04
4.676686E+03	9.311202E-03	9.526399E-04
4.686573E+03	9.204716E-03	9.400032E-04
4.696460E+03	9.092624E-03	9.268434E-04
4.706348E+03	8.976817E-03	9.133559E-04
4.716235E+03	8.859204E-03	8.997363E-04
4.726122E+03	8.741908E-03	8.862004E-04
4.736009E+03	8.626483E-03	8.729049E-04
4.745897E+03	8.514739E-03	8.600315E-04
4.755784E+03	8.408232E-03	8.477344E-04
4.765671E+03	8.308347E-03	8.361501E-04
4.775559E+03	8.216411E-03	8.254079E-04
4.785446E+03	8.133314E-03	8.155925E-04
4.795333E+03	8.059968E-03	8.067901E-04
4.805220E+03	7.997068E-03	7.990648E-04
4.815108E+03	7.944800E-03	7.924293E-04
4.824995E+03	7.903597E-03	7.869210E-04
4.834882E+03	7.873496E-03	7.825376E-04
4.844770E+03	7.854368E-03	7.792603E-04
4.854657E+03	7.845880E-03	7.770504E-04
4.864544E+03	7.847600E-03	7.758596E-04
4.874431E+03	7.858648E-03	7.755957E-04
4.884319E+03	7.878097E-03	7.761627E-04
4.894206E+03	7.904772E-03	7.774408E-04
4.904093E+03	7.936978E-03	7.792598E-04
4.913981E+03	7.973346E-03	7.814831E-04
4.923868E+03	8.011878E-03	7.839130E-04
4.933755E+03	8.050846E-03	7.863800E-04
4.943642E+03	8.088477E-03	7.887111E-04
4.953530E+03	8.123262E-03	7.907602E-04
4.963417E+03	8.153769E-03	7.923897E-04
4.973304E+03	8.179239E-03	7.935282E-04
4.983192E+03	8.198928E-03	7.941063E-04
4.993079E+03	8.212843E-03	7.941276E-04
5.002966E+03	8.221302E-03	7.936259E-04
5.012853E+03	8.225082E-03	7.926786E-04
5.022741E+03	8.225128E-03	7.913790E-04
5.032628E+03	8.222457E-03	7.898268E-04
5.042515E+03	8.218272E-03	7.881386E-04
5.052403E+03	8.213978E-03	7.864498E-04
5.062290E+03	8.210484E-03	7.848475E-04
5.072177E+03	8.208971E-03	7.834440E-04
5.082064E+03	8.210018E-03	7.822937E-04
5.091952E+03	8.214292E-03	7.814592E-04
5.101839E+03	8.222258E-03	7.809833E-04
5.111726E+03	8.233875E-03	7.808603E-04
5.121614E+03	8.249349E-03	7.811087E-04
5.131501E+03	8.268459E-03	7.817059E-04
5.141388E+03	8.290882E-03	7.826200E-04
5.151275E+03	8.316532E-03	7.838418E-04
5.161163E+03	8.344865E-03	7.853188E-04
5.171050E+03	8.375701E-03	7.870334E-04
5.180937E+03	8.408422E-03	7.889268E-04
5.190825E+03	8.442583E-03	7.909566E-04
5.200712E+03	8.477926E-03	7.930987E-04
5.210599E+03	8.513654E-03	7.952784E-04
5.220486E+03	8.549475E-03	7.974685E-04
5.230374E+03	8.584776E-03	7.996124E-04
5.240261E+03	8.619151E-03	8.016729E-04
5.250148E+03	8.651881E-03	8.035838E-04
5.260036E+03	8.682458E-03	8.052991E-04
5.269923E+03	8.710590E-03	8.067930E-04
5.279810E+03	8.735468E-03	8.079919E-04
5.289697E+03	8.756822E-03	8.088723E-04
5.299585E+03	8.774067E-03	8.093817E-04
5.309472E+03	8.786737E-03	8.094788E-04
5.319359E+03	8.794255E-03	8.091121E-04
5.329247E+03	8.796364E-03	8.082600E-04
5.339134E+03	8.792280E-03	8.068526E-04
5.349021E+03	8.781774E-03	8.048710E-04
5.358908E+03	8.764332E-03	8.022703E-04
5.368796E+03	8.739583E-03	7.990192E-04
5.378683E+03	8.707197E-03	7.950897E-04
5.388570E+03	8.666900E-03	7.904593E-04
5.398458E+03	8.618454E-03	7.851089E-04
5.408345E+03	8.561566E-03	7.790142E-04
5.418232E+03	8.496293E-03	7.721830E-04
5.428119E+03	8.422319E-03	7.645889E-04
5.438007E+03	8.339692E-03	7.562388E-04
5.447894E+03	8.248406E-03	7.471344E-04
5.457781E+03	8.148525E-03	7.372838E-04
5.467669E+03	8.040209E-03	7.267035E-04
5.477556E+03	7.923810E-03	7.154275E-04
5.487443E+03	7.799620E-03	7.034838E-04
5.497330E+03	7.668164E-03	6.909216E-04
5.507218E+03	7.530211E-03	6.778112E-04
5.517105E+03	7.386574E-03	6.642274E-04
5.526992E+03	7.238316E-03	6.502662E-04
5.536880E+03	7.086364E-03	6.360114E-04
5.546767E+03	6.932198E-03	6.215962E-04
5.556654E+03	6.776959E-03	6.071225E-04
5.566541E+03	6.622085E-03	5.927188E-04
5.576429E+03	6.468941E-03	5.785061E-04
5.586316E+03	6.318920E-03	5.646079E-04
5.596203E+03	6.173174E-03	5.511256E-04
5.606091E+03	6.032900E-03	5.381645E-04
5.615978E+03	5.899163E-03	5.258175E-04
5.625865E+03	5.772749E-03	5.141527E-04
5.635752E+03	5.654383E-03	5.032325E-04
5.645640E+03	5.544723E-03	4.931132E-04
5.655527E+03	5.444220E-03	4.838328E-04
5.665414E+03	5.353181E-03	4.754163E-04
5.675302E+03	5.271773E-03	4.678764E-04
5.685189E+03	5.200083E-03	4.612188E-04
5.695076E+03	5.137940E-03	4.554263E-04
5.704963E+03	5.085105E-03	4.504760E-04
5.714851E+03	5.041293E-03	4.463410E-04
5.724738E+03	5.006106E-03	4.429846E-04
5.734625E+03	4.978801E-03	4.403397E-04
5.744513E+03	4.958908E-03	4.383638E-04
5.754400E+03	4.945630E-03	4.369853E-04
5.764287E+03	4.938154E-03	4.361318E-04
5.774174E+03	4.935613E-03	4.357262E-04
5.784062E+03	4.937095E-03	4.356876E-04
5.793949E+03	4.941669E-03	4.359336E-04
5.803836E+03	4.948410E-03	4.363826E-04
5.813724E+03	4.956413E-03	4.369549E-04
5.823611E+03	4.964882E-03	4.375804E-04
5.833498E+03	4.972909E-03	4.381793E-04
5.843385E+03	4.979848E-03	4.386950E-04
5.853273E+03	4.985082E-03	4.390734E-04
5.863160E+03	4.988091E-03	4.392692E-04
5.873047E+03	4.988397E-03	4.392404E-04
5.882935E+03	4.985741E-03	4.389646E-04
5.892822E+03	4.979901E-03	4.384226E-04
5.902709E+03	4.970687E-03	4.375977E-04
5.912596E+03	4.958063E-03	4.364870E-04
5.922484E+03	4.942140E-03	4.351003E-04
5.932371E+03	4.922987E-03	4.334437E-04
5.942258E+03	4.900822E-03	4.315364E-04
5.952146E+03	4.875943E-03	4.294045E-04
5.962033E+03	4.848680E-03	4.270771E-04
5.971920E+03	4.819629E-03	4.246064E-04
5.981807E+03	4.789180E-03	4.220267E-04
5.991695E+03	4.758177E-03	4.194121E-04
6.001582E+03	4.727198E-03	4.168135E-04
6.011469E+03	4.697201E-03	4.143153E-04
6.021357E+03	4.669051E-03	4.119938E-04
6.031244E+03	4.643733E-03	4.099359E-04
6.041131E+03	4.622292E-03	4.082345E-04
6.051018E+03	4.605812E-03	4.069856E-04
6.060906E+03	4.595345E-03	4.062828E-04
6.070793E+03	4.592072E-03	4.062317E-04
6.080680E+03	4.597065E-03	4.069285E-04
6.090568E+03	4.611492E-03	4.084782E-04
6.100455E+03	4.636385E-03	4.109742E-04
6.110342E+03	4.672827E-03	4.145153E-04
6.120229E+03	4.721695E-03	4.191818E-04
6.130117E+03	4.783778E-03	4.250474E-04
6.140004E+03	4.859666E-03	4.321679E-04
6.149891E+03	4.949671E-03	4.405748E-04
6.159779E+03	5.053808E-03	4.502736E-04
6.169666E+03	5.171448E-03	4.612126E-04
6.179553E+03	5.301588E-03	4.733070E-04
6.189440E+03	5.442385E-03	4.863965E-04
6.199328E+03	5.591453E-03	5.002716E-04
6.209215E+03	5.746190E-03	5.147033E-04
6.219102E+03	5.903442E-03	5.294114E-04
6.228990E+03	6.059885E-03	5.440996E-04
6.238877E+03	6.212074E-03	5.584590E-04
6.248764E+03	6.356661E-03	5.721880E-04
6.258651E+03	6.490232E-03	5.849773E-04
6.268539E+03	6.610029E-03	5.965748E-04
6.278426E+03	6.713498E-03	6.067453E-04
6.288313E+03	6.798784E-03	6.153156E-04
6.298201E+03	6.864416E-03	6.221458E-04
6.308088E+03	6.909573E-03	6.271539E-04
6.317975E+03	6.934073E-03	6.303150E-04
6.327862E+03	6.938056E-03	6.316336E-04
6.337750E+03	6.922411E-03	6.311817E-04
6.347637E+03	6.888049E-03	6.290339E-04
6.357524E+03	6.836485E-03	6.253200E-04
6.367412E+03	6.769373E-03	6.201833E-04
6.377299E+03	6.688433E-03	6.137739E-04
6.387186E+03	6.595815E-03	6.062823E-04
6.397073E+03	6.493138E-03	5.978512E-04
6.406961E+03	6.382416E-03	5.886606E-04
6.416848E+03	6.265307E-03	5.788588E-04
6.426735E+03	6.143524E-03	5.686004E-04
6.436623E+03	6.018559E-03	5.580201E-04
6.446510E+03	5.891682E-03	5.472333E-04
6.456397E+03	5.764257E-03	5.363651E-04
6.466284E+03	5.637192E-03	5.254986E-04
6.476172E+03	5.511632E-03	5.147401E-04
6.486059E+03	5.388115E-03	5.041395E-04
6.495946E+03	5.267392E-03	4.937676E-04
6.505833E+03	5.149906E-03	4.836665E-04
6.515721E+03	5.035949E-03	4.738644E-04
6.525608E+03	4.925685E-03	4.643779E-04
6.535495E+03	4.819258E-03	4.552219E-04
6.545383E+03	4.716551E-03	4.463867E-04
6.555270E+03	4.617750E-03	4.378913E-04
6.565157E+03	4.522699E-03	4.297224E-04
6.575044E+03	4.431435E-03	4.218850E-04
6.584932E+03	4.343934E-03	4.143783E-04
6.594819E+03	4.260182E-03	4.072027E-04
6.604706E+03	4.180234E-03	4.003651E-04
6.614594E+03	4.104039E-03	3.938621E-04
6.624481E+03	4.031675E-03	3.877031E-04
6.634368E+03	3.963165E-03	3.818922E-04
6.644255E+03	3.898535E-03	3.764336E-04
6.654143E+03	3.837813E-03	3.713321E-04
6.664030E+03	3.781017E-03	3.665914E-04
6.673917E+03	3.728220E-03	3.622204E-04
6.683805E+03	3.679378E-03	3.582173E-04
6.693692E+03	3.634568E-03	3.545915E-04
6.703579E+03	3.593759E-03	3.513422E-04
6.713466E+03	3.557039E-03	3.484802E-04
6.723354E+03	3.524497E-03	3.460166E-04
6.733241E+03	3.496090E-03	3.439496E-04
6.743128E+03	3.471937E-03	3.422932E-04
6.753016E+03	3.452168E-03	3.410628E-04
6.762903E+03	3.436830E-03	3.402656E-04
6.772790E+03	3.426037E-03	3.399155E-04
6.782677E+03	3.419960E-03	3.400324E-04
6.792565E+03	3.418678E-03	3.406269E-04
6.802452E+03	3.422372E-03	3.417201E-04
6.812339E+03	3.431105E-03	3.433213E-04
6.822227E+03	3.445030E-03	3.454492E-04
6.832114E+03	3.464228E-03	3.481150E-04
6.842001E+03	3.488683E-03	3.513204E-04
6.851888E+03	3.518393E-03	3.550688E-04
6.861776E+03	3.553404E-03	3.593679E-04
6.871663E+03	3.593486E-03	3.641980E-04
6.881550E+03	3.638511E-03	3.695493E-04
6.891438E+03	3.688170E-03	3.753936E-04
6.901325E+03	3.742214E-03	3.817086E-04
6.911212E+03	3.800289E-03	3.884607E-04
6.921099E+03	3.861963E-03	3.956086E-04
6.930987E+03	3.926918E-03	4.031219E-04
6.940874E+03	3.994745E-03	4.109607E-04
6.950761E+03	4.065218E-03	4.191035E-04
6.960649E+03	4.138027E-03	4.275203E-04
6.970536E+03	4.213293E-03	4.362249E-04
6.980423E+03	4.290906E-03	4.452077E-04
6.990310E+03	4.371226E-03	4.545077E-04
7.000198E+03	4.454565E-03	4.641591E-04
7.010085E+03	4.541348E-03	4.742084E-04
7.019972E+03	4.632286E-03	4.847323E-04
7.029860E+03	4.727857E-03	4.957837E-04
7.039747E+03	4.828724E-03	5.074355E-04
7.049634E+03	4.935342E-03	5.197390E-04
7.059521E+03	5.048198E-03	5.327495E-04
7.069409E+03	5.167474E-03	5.464905E-04
7.079296E+03	5.293325E-03	5.609829E-04
7.089183E+03	5.425440E-03	5.761979E-04
7.099071E+03	5.563488E-03	5.921046E-04
7.108958E+03	5.706785E-03	6.086341E-04
7.118845E+03	5.854270E-03	6.256764E-04
7.128732E+03	6.004751E-03	6.431071E-04
7.138620E+03	6.156497E-03	6.607421E-04
7.148507E+03	6.307856E-03	6.784048E-04
7.158394E+03	6.456664E-03	6.958617E-04
7.168282E+03	6.600517E-03	7.128516E-04
7.178169E+03	6.737056E-03	7.291157E-04
7.188056E+03	6.863719E-03	7.443715E-04
7.197943E+03	6.977740E-03	7.583115E-04
7.207831E+03	7.076895E-03	7.706850E-04
7.217718E+03	7.158789E-03	7.812208E-04
7.227605E+03	7.221739E-03	7.897231E-04
7.237493E+03	7.264449E-03	7.960369E-04
7.247380E+03	7.286063E-03	8.000546E-04
7.257267E+03	7.286432E-03	8.017454E-04
7.267154E+03	7.265968E-03	8.011405E-04
7.277042E+03	7.225602E-03	7.983284E-04
7.286929E+03	7.166686E-03	7.934451E-04
7.296816E+03	7.090884E-03	7.866628E-04
7.306704E+03	6.999969E-03	7.781670E-04
7.316591E+03	6.896028E-03	7.681796E-04
7.326478E+03	6.780953E-03	7.569033E-04
7.336365E+03	6.656800E-03	7.445601E-04
7.346253E+03	6.525311E-03	7.313392E-04
7.356140E+03	6.388212E-03	7.174293E-04
7.366027E+03	6.247168E-03	7.030137E-04
7.375915E+03	6.103406E-03	6.882284E-04
7.385802E+03	5.958400E-03	6.732376E-04
7.395689E+03	5.813225E-03	6.581625E-04
7.405576E+03	5.669068E-03	6.431374E-04
7.415464E+03	5.526787E-03	6.282604E-04
7.425351E+03	5.387582E-03	6.136695E-04
7.435238E+03	5.252355E-03	5.994694E-04
7.445126E+03	5.122062E-03	5.857722E-04
7.455013E+03	4.997657E-03	5.726903E-04
7.464900E+03	4.879817E-03	5.603054E-04
7.474787E+03	4.769243E-03	5.487029E-04
7.484675E+03	4.666358E-03	5.379360E-04
7.494562E+03	4.571601E-03	5.280607E-04
7.504449E+03	4.485211E-03	5.191104E-04
7.514337E+03	4.407258E-03	5.110988E-04
7.524224E+03	4.337859E-03	5.040451E-04
7.534111E+03	4.276984E-03	4.979518E-04
7.543998E+03	4.224546E-03	4.928145E-04
7.553886E+03	4.180406E-03	4.886226E-04
7.563773E+03	4.144372E-03	4.853594E-04
7.573660E+03	4.116201E-03	4.830018E-04
7.583548E+03	4.095580E-03	4.815184E-04
7.593435E+03	4.082119E-03	4.808684E-04
7.603322E+03	4.075381E-03	4.810050E-04
7.613209E+03	4.074633E-03	4.818462E-04
7.623097E+03	4.079289E-03	4.833265E-04
7.632984E+03	4.088471E-03	4.853453E-04
7.642871E+03	4.101353E-03	4.878074E-04
7.652759E+03	4.116852E-03	4.905862E-04
7.662646E+03	4.134124E-03	4.935827E-04
7.672533E+03	4.152122E-03	4.966726E-04
