#wls	flux	fluxerr
1.581966E+03	6.475077E-03	5.164998E-04
1.621515E+03	6.627299E-03	5.282032E-04
1.661064E+03	6.779853E-03	5.399018E-04
1.700613E+03	6.932254E-03	5.515561E-04
1.740162E+03	7.083967E-03	5.631225E-04
1.779711E+03	7.235684E-03	5.746553E-04
1.819260E+03	7.385558E-03	5.860069E-04
1.858810E+03	7.534224E-03	5.972271E-04
1.898359E+03	7.681019E-03	6.082626E-04
1.937908E+03	7.825240E-03	6.190572E-04
1.977457E+03	7.966125E-03	6.295504E-04
2.017006E+03	8.104227E-03	6.397856E-04
2.056555E+03	8.238732E-03	6.496982E-04
2.096104E+03	8.368773E-03	6.592201E-04
2.135654E+03	8.493431E-03	6.682791E-04
2.175203E+03	8.613138E-03	6.769094E-04
2.214752E+03	8.726904E-03	6.850342E-04
2.254301E+03	8.833698E-03	6.925731E-04
2.293850E+03	8.933831E-03	6.995517E-04
2.333399E+03	9.026196E-03	7.058846E-04
2.372948E+03	9.111020E-03	7.115910E-04
2.412498E+03	9.187106E-03	7.165794E-04
2.452047E+03	9.254584E-03	7.208616E-04
2.491596E+03	9.310841E-03	7.242368E-04
2.531145E+03	9.358605E-03	7.269200E-04
2.570694E+03	9.393883E-03	7.286038E-04
2.610243E+03	9.419256E-03	7.294920E-04
2.649792E+03	9.433289E-03	7.294768E-04
2.689342E+03	9.434577E-03	7.284535E-04
2.728891E+03	9.424167E-03	7.265075E-04
2.768440E+03	9.401776E-03	7.236209E-04
2.807989E+03	9.365932E-03	7.196856E-04
2.847538E+03	9.317475E-03	7.147711E-04
2.887087E+03	9.256031E-03	7.088541E-04
2.926636E+03	9.181240E-03	7.019125E-04
2.966185E+03	9.094730E-03	6.940766E-04
2.976073E+03	9.070824E-03	6.919444E-04
2.985960E+03	9.045781E-03	6.897259E-04
2.995847E+03	9.020539E-03	6.874927E-04
3.005735E+03	8.994117E-03	6.851701E-04
3.015622E+03	8.967444E-03	6.828290E-04
3.025509E+03	8.939556E-03	6.803961E-04
3.035396E+03	8.911361E-03	6.779407E-04
3.045284E+03	8.881928E-03	6.753918E-04
3.055171E+03	8.852136E-03	6.728165E-04
3.065058E+03	8.821080E-03	6.701461E-04
3.074946E+03	8.789625E-03	6.674465E-04
3.084833E+03	8.757744E-03	6.647156E-04
3.094720E+03	8.724560E-03	6.618870E-04
3.104607E+03	8.690915E-03	6.590246E-04
3.114495E+03	8.656782E-03	6.561264E-04
3.124382E+03	8.622141E-03	6.531911E-04
3.134269E+03	8.586162E-03	6.501560E-04
3.144157E+03	8.549650E-03	6.470819E-04
3.154044E+03	8.512587E-03	6.439678E-04
3.163931E+03	8.475726E-03	6.408705E-04
3.173818E+03	8.437503E-03	6.376719E-04
3.183706E+03	8.398685E-03	6.344301E-04
3.193593E+03	8.359260E-03	6.311443E-04
3.203480E+03	8.319218E-03	6.278137E-04
3.213368E+03	8.278556E-03	6.244383E-04
3.223255E+03	8.237973E-03	6.210709E-04
3.233142E+03	8.196047E-03	6.176044E-04
3.243029E+03	8.154181E-03	6.141444E-04
3.252917E+03	8.111674E-03	6.106383E-04
3.262804E+03	8.069201E-03	6.071370E-04
3.272691E+03	8.025446E-03	6.035415E-04
3.282579E+03	7.982384E-03	6.000005E-04
3.292466E+03	7.938095E-03	5.963697E-04
3.302353E+03	7.894510E-03	5.927941E-04
3.312240E+03	7.849771E-03	5.891343E-04
3.322128E+03	7.805765E-03	5.855321E-04
3.332015E+03	7.761292E-03	5.818972E-04
3.341902E+03	7.716981E-03	5.782771E-04
3.351790E+03	7.672283E-03	5.746306E-04
3.361677E+03	7.627805E-03	5.710031E-04
3.371564E+03	7.583558E-03	5.673955E-04
3.381451E+03	7.540094E-03	5.638491E-04
3.391339E+03	7.495785E-03	5.602421E-04
3.401226E+03	7.452261E-03	5.566965E-04
3.411113E+03	7.408965E-03	5.531705E-04
3.421001E+03	7.366385E-03	5.497005E-04
3.430888E+03	7.323465E-03	5.462078E-04
3.440775E+03	7.280691E-03	5.427285E-04
3.450662E+03	7.238501E-03	5.392956E-04
3.460550E+03	7.196362E-03	5.358689E-04
3.470437E+03	7.154708E-03	5.324811E-04
3.480324E+03	7.113032E-03	5.290942E-04
3.490212E+03	7.071310E-03	5.257065E-04
3.500099E+03	7.029959E-03	5.223492E-04
3.509986E+03	6.988934E-03	5.190187E-04
3.519873E+03	6.947770E-03	5.156805E-04
3.529761E+03	6.906866E-03	5.123643E-04
3.539648E+03	6.866177E-03	5.090668E-04
3.549535E+03	6.825666E-03	5.057852E-04
3.559423E+03	6.784903E-03	5.024876E-04
3.569310E+03	6.744661E-03	4.992312E-04
3.579197E+03	6.704149E-03	4.959577E-04
3.589084E+03	6.664140E-03	4.927241E-04
3.598972E+03	6.624291E-03	4.895052E-04
3.608859E+03	6.584673E-03	4.863059E-04
3.618746E+03	6.545402E-03	4.831351E-04
3.628634E+03	6.506987E-03	4.800302E-04
3.638521E+03	6.469287E-03	4.769807E-04
3.648408E+03	6.432575E-03	4.740066E-04
3.658295E+03	6.397502E-03	4.711559E-04
3.668183E+03	6.364429E-03	4.684549E-04
3.678070E+03	6.333456E-03	4.659106E-04
3.687957E+03	6.305345E-03	4.635790E-04
3.697845E+03	6.280256E-03	4.614714E-04
3.707732E+03	6.258988E-03	4.596460E-04
3.717619E+03	6.242019E-03	4.581377E-04
3.727506E+03	6.229840E-03	4.569817E-04
3.737394E+03	6.222908E-03	4.562111E-04
3.747281E+03	6.221654E-03	4.558568E-04
3.757168E+03	6.226437E-03	4.559443E-04
3.767056E+03	6.237576E-03	4.564963E-04
3.776943E+03	6.255049E-03	4.575104E-04
3.786830E+03	6.279596E-03	4.590397E-04
3.796717E+03	6.311344E-03	4.610929E-04
3.806605E+03	6.349849E-03	4.636364E-04
3.816492E+03	6.395654E-03	4.667091E-04
3.826379E+03	6.448202E-03	4.702695E-04
3.836267E+03	6.508170E-03	4.743659E-04
3.846154E+03	6.574597E-03	4.789277E-04
3.856041E+03	6.647743E-03	4.839727E-04
3.865928E+03	6.726986E-03	4.894550E-04
3.875816E+03	6.811836E-03	4.953380E-04
3.885703E+03	6.901922E-03	5.015942E-04
3.895590E+03	6.995924E-03	5.081269E-04
3.905478E+03	7.093613E-03	5.149192E-04
3.915365E+03	7.193060E-03	5.218306E-04
3.925252E+03	7.293509E-03	5.288061E-04
3.935139E+03	7.393375E-03	5.357307E-04
3.945027E+03	7.491298E-03	5.425059E-04
3.954914E+03	7.586192E-03	5.490536E-04
3.964801E+03	7.676261E-03	5.552442E-04
3.974689E+03	7.760805E-03	5.610277E-04
3.984576E+03	7.838475E-03	5.663074E-04
3.994463E+03	7.908066E-03	5.709971E-04
4.004350E+03	7.969281E-03	5.750767E-04
4.014238E+03	8.020970E-03	5.784641E-04
4.024125E+03	8.062905E-03	5.811442E-04
4.034012E+03	8.094799E-03	5.830976E-04
4.043900E+03	8.116357E-03	5.843045E-04
4.053787E+03	8.128039E-03	5.847992E-04
4.063674E+03	8.129828E-03	5.845817E-04
4.073561E+03	8.122885E-03	5.837369E-04
4.083449E+03	8.108086E-03	5.823288E-04
4.093336E+03	8.085778E-03	5.803833E-04
4.103223E+03	8.057747E-03	5.780295E-04
4.113111E+03	8.024686E-03	5.753179E-04
4.122998E+03	7.987943E-03	5.723456E-04
4.132885E+03	7.948375E-03	5.691747E-04
4.142772E+03	7.906770E-03	5.658617E-04
4.152660E+03	7.864452E-03	5.625019E-04
4.162547E+03	7.821827E-03	5.591240E-04
4.172434E+03	7.779813E-03	5.557941E-04
4.182322E+03	7.738655E-03	5.525294E-04
4.192209E+03	7.699279E-03	5.493958E-04
4.202096E+03	7.661756E-03	5.463984E-04
4.211983E+03	7.626640E-03	5.435763E-04
4.221871E+03	7.594020E-03	5.409356E-04
4.231758E+03	7.564093E-03	5.384901E-04
4.241645E+03	7.536812E-03	5.362360E-04
4.251533E+03	7.512430E-03	5.341911E-04
4.261420E+03	7.490817E-03	5.323458E-04
4.271307E+03	7.471842E-03	5.306905E-04
4.281194E+03	7.455867E-03	5.292506E-04
4.291082E+03	7.442447E-03	5.279941E-04
4.300969E+03	7.431984E-03	5.269492E-04
4.310856E+03	7.424285E-03	5.261021E-04
4.320744E+03	7.419704E-03	5.254774E-04
4.330631E+03	7.418347E-03	5.250823E-04
4.340518E+03	7.420564E-03	5.249412E-04
4.350405E+03	7.426627E-03	5.250729E-04
4.360293E+03	7.437194E-03	5.255234E-04
4.370180E+03	7.452537E-03	5.263116E-04
4.380067E+03	7.473565E-03	5.275009E-04
4.389955E+03	7.500613E-03	5.291144E-04
4.399842E+03	7.534290E-03	5.311944E-04
4.409729E+03	7.575133E-03	5.337779E-04
4.419616E+03	7.623733E-03	5.369058E-04
4.429504E+03	7.679967E-03	5.405685E-04
4.439391E+03	7.744271E-03	5.447959E-04
4.449278E+03	7.816442E-03	5.495728E-04
4.459166E+03	7.896156E-03	5.548757E-04
4.469053E+03	7.982787E-03	5.606597E-04
4.478940E+03	8.075251E-03	5.668481E-04
4.488827E+03	8.172451E-03	5.733633E-04
4.498715E+03	8.272687E-03	5.800857E-04
4.508602E+03	8.373986E-03	5.868766E-04
4.518489E+03	8.474566E-03	5.936114E-04
4.528377E+03	8.572004E-03	6.001204E-04
4.538264E+03	8.663744E-03	6.062253E-04
4.548151E+03	8.747489E-03	6.117662E-04
4.558038E+03	8.820705E-03	6.165670E-04
4.567926E+03	8.881172E-03	6.204736E-04
4.577813E+03	8.927104E-03	6.233628E-04
4.587700E+03	8.956796E-03	6.251174E-04
4.597588E+03	8.969293E-03	6.256725E-04
4.607475E+03	8.963676E-03	6.249659E-04
4.617362E+03	8.940142E-03	6.230131E-04
4.627249E+03	8.898793E-03	6.198233E-04
4.637137E+03	8.840774E-03	6.154780E-04
4.647024E+03	8.767215E-03	6.100575E-04
4.656911E+03	8.679585E-03	6.036656E-04
4.666798E+03	8.580044E-03	5.964539E-04
4.676686E+03	8.470511E-03	5.885567E-04
4.686573E+03	8.353286E-03	5.801349E-04
4.696460E+03	8.230304E-03	5.713235E-04
4.706348E+03	8.104011E-03	5.622926E-04
4.716235E+03	7.976414E-03	5.531817E-04
4.726122E+03	7.849688E-03	5.441416E-04
4.736009E+03	7.725633E-03	5.352968E-04
4.745897E+03	7.606050E-03	5.267717E-04
4.755784E+03	7.492808E-03	5.186951E-04
4.765671E+03	7.387142E-03	5.111519E-04
4.775559E+03	7.290442E-03	5.042374E-04
4.785446E+03	7.203739E-03	4.980219E-04
4.795333E+03	7.127803E-03	4.925577E-04
4.805220E+03	7.063293E-03	4.878894E-04
4.815108E+03	7.010464E-03	4.840333E-04
4.824995E+03	6.969520E-03	4.810027E-04
4.834882E+03	6.940634E-03	4.788082E-04
4.844770E+03	6.923858E-03	4.774524E-04
4.854657E+03	6.918684E-03	4.768993E-04
4.864544E+03	6.925140E-03	4.771499E-04
4.874431E+03	6.942276E-03	4.781376E-04
4.884319E+03	6.969299E-03	4.798070E-04
4.894206E+03	7.004791E-03	4.820599E-04
4.904093E+03	7.047227E-03	4.847907E-04
4.913981E+03	7.094594E-03	4.878603E-04
4.923868E+03	7.144968E-03	4.911362E-04
4.933755E+03	7.195987E-03	4.944559E-04
4.943642E+03	7.245273E-03	4.976561E-04
4.953530E+03	7.291003E-03	5.006120E-04
4.963417E+03	7.331106E-03	5.031814E-04
4.973304E+03	7.364586E-03	5.052967E-04
4.983192E+03	7.390821E-03	5.069158E-04
4.993079E+03	7.409810E-03	5.080390E-04
5.002966E+03	7.422035E-03	5.087001E-04
5.012853E+03	7.428666E-03	5.089796E-04
5.022741E+03	7.431181E-03	5.089793E-04
5.032628E+03	7.430906E-03	5.087903E-04
5.042515E+03	7.429663E-03	5.085373E-04
5.052403E+03	7.428890E-03	5.083190E-04
5.062290E+03	7.429988E-03	5.082312E-04
5.072177E+03	7.434140E-03	5.083547E-04
5.082064E+03	7.442328E-03	5.087563E-04
5.091952E+03	7.454968E-03	5.094643E-04
5.101839E+03	7.472274E-03	5.104931E-04
5.111726E+03	7.494322E-03	5.118477E-04
5.121614E+03	7.520896E-03	5.135129E-04
5.131501E+03	7.551546E-03	5.154580E-04
5.141388E+03	7.585845E-03	5.176535E-04
5.151275E+03	7.623326E-03	5.200675E-04
5.161163E+03	7.663608E-03	5.226738E-04
5.171050E+03	7.706179E-03	5.254375E-04
5.180937E+03	7.750308E-03	5.283086E-04
5.190825E+03	7.795674E-03	5.312653E-04
5.200712E+03	7.841629E-03	5.342635E-04
5.210599E+03	7.887623E-03	5.372657E-04
5.220486E+03	7.933219E-03	5.402423E-04
5.230374E+03	7.977658E-03	5.431417E-04
5.240261E+03	8.020532E-03	5.459361E-04
5.250148E+03	8.061336E-03	5.485915E-04
5.260036E+03	8.099596E-03	5.510757E-04
5.269923E+03	8.134859E-03	5.533582E-04
5.279810E+03	8.166695E-03	5.554099E-04
5.289697E+03	8.194584E-03	5.571955E-04
5.299585E+03	8.218244E-03	5.586963E-04
5.309472E+03	8.237157E-03	5.598769E-04
5.319359E+03	8.251005E-03	5.607162E-04
5.329247E+03	8.259189E-03	5.611737E-04
5.339134E+03	8.261195E-03	5.612145E-04
5.349021E+03	8.256633E-03	5.608123E-04
5.358908E+03	8.244924E-03	5.599281E-04
5.368796E+03	8.225653E-03	5.585340E-04
5.378683E+03	8.198464E-03	5.566059E-04
5.388570E+03	8.163182E-03	5.541321E-04
5.398458E+03	8.119466E-03	5.510898E-04
5.408345E+03	8.067020E-03	5.474590E-04
5.418232E+03	8.005916E-03	5.432447E-04
5.428119E+03	7.936037E-03	5.384391E-04
5.438007E+03	7.857076E-03	5.330216E-04
5.447894E+03	7.769191E-03	5.270030E-04
5.457781E+03	7.672272E-03	5.203759E-04
5.467669E+03	7.566512E-03	5.131534E-04
5.477556E+03	7.451899E-03	5.053349E-04
5.487443E+03	7.329062E-03	4.969629E-04
5.497330E+03	7.198285E-03	4.880568E-04
5.507218E+03	7.060338E-03	4.786687E-04
5.517105E+03	6.915961E-03	4.688487E-04
5.526992E+03	6.766369E-03	4.586791E-04
5.536880E+03	6.612566E-03	4.482279E-04
5.546767E+03	6.456086E-03	4.375988E-04
5.556654E+03	6.298309E-03	4.268855E-04
5.566541E+03	6.140811E-03	4.161943E-04
5.576429E+03	5.985266E-03	4.056385E-04
5.586316E+03	5.833100E-03	3.953149E-04
5.596203E+03	5.685777E-03	3.853221E-04
5.606091E+03	5.544540E-03	3.757443E-04
5.615978E+03	5.410480E-03	3.666554E-04
5.625865E+03	5.284549E-03	3.581196E-04
5.635752E+03	5.167641E-03	3.501972E-04
5.645640E+03	5.060304E-03	3.429255E-04
5.655527E+03	4.963242E-03	3.363520E-04
5.665414E+03	4.876881E-03	3.305054E-04
5.675302E+03	4.801417E-03	3.253989E-04
5.685189E+03	4.737010E-03	3.210434E-04
5.695076E+03	4.683588E-03	3.174341E-04
5.704963E+03	4.640953E-03	3.145574E-04
5.714851E+03	4.608764E-03	3.123904E-04
5.724738E+03	4.586562E-03	3.109020E-04
5.734625E+03	4.573738E-03	3.100509E-04
5.744513E+03	4.569541E-03	3.097865E-04
5.754400E+03	4.573077E-03	3.100481E-04
5.764287E+03	4.583388E-03	3.107710E-04
5.774174E+03	4.599264E-03	3.118732E-04
5.784062E+03	4.619473E-03	3.132712E-04
5.793949E+03	4.642796E-03	3.148826E-04
5.803836E+03	4.667872E-03	3.166152E-04
5.813724E+03	4.693524E-03	3.183891E-04
5.823611E+03	4.718531E-03	3.201215E-04
5.833498E+03	4.741893E-03	3.217446E-04
5.843385E+03	4.762834E-03	3.232059E-04
5.853273E+03	4.780617E-03	3.244552E-04
5.863160E+03	4.794738E-03	3.254582E-04
5.873047E+03	4.804909E-03	3.261953E-04
5.882935E+03	4.810846E-03	3.266473E-04
5.892822E+03	4.812520E-03	3.268119E-04
5.902709E+03	4.809790E-03	3.266795E-04
5.912596E+03	4.802873E-03	3.262647E-04
5.922484E+03	4.791836E-03	3.255719E-04
5.932371E+03	4.776879E-03	3.246145E-04
5.942258E+03	4.758261E-03	3.234101E-04
5.952146E+03	4.736308E-03	3.219805E-04
5.962033E+03	4.711492E-03	3.203577E-04
5.971920E+03	4.684174E-03	3.185663E-04
5.981807E+03	4.654963E-03	3.166473E-04
5.991695E+03	4.624711E-03	3.146588E-04
6.001582E+03	4.594197E-03	3.126536E-04
6.011469E+03	4.564332E-03	3.106938E-04
6.021357E+03	4.536201E-03	3.088531E-04
6.031244E+03	4.511118E-03	3.072212E-04
6.041131E+03	4.490216E-03	3.058753E-04
6.051018E+03	4.474820E-03	3.049060E-04
6.060906E+03	4.466356E-03	3.044107E-04
6.070793E+03	4.466156E-03	3.044805E-04
6.080680E+03	4.475619E-03	3.052115E-04
6.090568E+03	4.496220E-03	3.067048E-04
6.100455E+03	4.529279E-03	3.090510E-04
6.110342E+03	4.576220E-03	3.123484E-04
6.120229E+03	4.638170E-03	3.166747E-04
6.130117E+03	4.716369E-03	3.221157E-04
6.140004E+03	4.811618E-03	3.287272E-04
6.149891E+03	4.924380E-03	3.365422E-04
6.159779E+03	5.054547E-03	3.455546E-04
6.169666E+03	5.201398E-03	3.557165E-04
6.179553E+03	5.363634E-03	3.669402E-04
6.189440E+03	5.539017E-03	3.790740E-04
6.199328E+03	5.724943E-03	3.919408E-04
6.209215E+03	5.917960E-03	4.053051E-04
6.219102E+03	6.114166E-03	4.189003E-04
6.228990E+03	6.309233E-03	4.324302E-04
6.238877E+03	6.498582E-03	4.455811E-04
6.248764E+03	6.677703E-03	4.580433E-04
6.258651E+03	6.842105E-03	4.695079E-04
6.268539E+03	6.987907E-03	4.797076E-04
6.278426E+03	7.112016E-03	4.884283E-04
6.288313E+03	7.212259E-03	4.955193E-04
6.298201E+03	7.287007E-03	5.008663E-04
6.308088E+03	7.335441E-03	5.044110E-04
6.317975E+03	7.357527E-03	5.061487E-04
6.327862E+03	7.353779E-03	5.061125E-04
6.337750E+03	7.325221E-03	5.043704E-04
6.347637E+03	7.273623E-03	5.010419E-04
6.357524E+03	7.201070E-03	4.962687E-04
6.367412E+03	7.109845E-03	4.902059E-04
6.377299E+03	7.002625E-03	4.830365E-04
6.387186E+03	6.882028E-03	4.749392E-04
6.397073E+03	6.750627E-03	4.660904E-04
6.406961E+03	6.610960E-03	4.566641E-04
6.416848E+03	6.465085E-03	4.468017E-04
6.426735E+03	6.315240E-03	4.366570E-04
6.436623E+03	6.163137E-03	4.263479E-04
6.446510E+03	6.010476E-03	4.159916E-04
6.456397E+03	5.858556E-03	4.056779E-04
6.466284E+03	5.708676E-03	3.954967E-04
6.476172E+03	5.561873E-03	3.855199E-04
6.486059E+03	5.418937E-03	3.758026E-04
6.495946E+03	5.280698E-03	3.664025E-04
6.505833E+03	5.147408E-03	3.573375E-04
6.515721E+03	5.019378E-03	3.486296E-04
6.525608E+03	4.896490E-03	3.402710E-04
6.535495E+03	4.778613E-03	3.322531E-04
6.545383E+03	4.665669E-03	3.245708E-04
6.555270E+03	4.557493E-03	3.172133E-04
6.565157E+03	4.453868E-03	3.101657E-04
6.575044E+03	4.354741E-03	3.034247E-04
6.584932E+03	4.260006E-03	2.969834E-04
6.594819E+03	4.169576E-03	2.908362E-04
6.604706E+03	4.083392E-03	2.849794E-04
6.614594E+03	4.001423E-03	2.794111E-04
6.624481E+03	3.923720E-03	2.741354E-04
6.634368E+03	3.850232E-03	2.691491E-04
6.644255E+03	3.780978E-03	2.644539E-04
6.654143E+03	3.716021E-03	2.600548E-04
6.664030E+03	3.655335E-03	2.559504E-04
6.673917E+03	3.598823E-03	2.521343E-04
6.683805E+03	3.546565E-03	2.486125E-04
6.693692E+03	3.498411E-03	2.453750E-04
6.703579E+03	3.454408E-03	2.424255E-04
6.713466E+03	3.414610E-03	2.397684E-04
6.723354E+03	3.378933E-03	2.373981E-04
6.733241E+03	3.347526E-03	2.353256E-04
6.743128E+03	3.320402E-03	2.335523E-04
6.753016E+03	3.297650E-03	2.320850E-04
6.762903E+03	3.279436E-03	2.309358E-04
6.772790E+03	3.265851E-03	2.301117E-04
6.782677E+03	3.257069E-03	2.296255E-04
6.792565E+03	3.253337E-03	2.294952E-04
6.802452E+03	3.254802E-03	2.297318E-04
6.812339E+03	3.261699E-03	2.303525E-04
6.822227E+03	3.274204E-03	2.313704E-04
6.832114E+03	3.292406E-03	2.327925E-04
6.842001E+03	3.316413E-03	2.346270E-04
6.851888E+03	3.346338E-03	2.368828E-04
6.861776E+03	3.382165E-03	2.395595E-04
6.871663E+03	3.423784E-03	2.426499E-04
6.881550E+03	3.470867E-03	2.461315E-04
6.891438E+03	3.523283E-03	2.499958E-04
6.901325E+03	3.580522E-03	2.542071E-04
6.911212E+03	3.642110E-03	2.587324E-04
6.921099E+03	3.707588E-03	2.635397E-04
6.930987E+03	3.776415E-03	2.685909E-04
6.940874E+03	3.848011E-03	2.738452E-04
6.950761E+03	3.921943E-03	2.792722E-04
6.960649E+03	3.997910E-03	2.848506E-04
6.970536E+03	4.075861E-03	2.905771E-04
6.980423E+03	4.155818E-03	2.964534E-04
6.990310E+03	4.238187E-03	3.025090E-04
7.000198E+03	4.323378E-03	3.087733E-04
7.010085E+03	4.412199E-03	3.153045E-04
7.019972E+03	4.505522E-03	3.221653E-04
7.029860E+03	4.604371E-03	3.294295E-04
7.039747E+03	4.709421E-03	3.371464E-04
7.049634E+03	4.821714E-03	3.453911E-04
7.059521E+03	4.941735E-03	3.541995E-04
7.069409E+03	5.070035E-03	3.636121E-04
7.079296E+03	5.206772E-03	3.736412E-04
7.089183E+03	5.352007E-03	3.842923E-04
7.099071E+03	5.505285E-03	3.955338E-04
7.108958E+03	5.665850E-03	4.073125E-04
7.118845E+03	5.832452E-03	4.195391E-04
7.128732E+03	6.003767E-03	4.321194E-04
7.138620E+03	6.177812E-03	4.449111E-04
7.148507E+03	6.352244E-03	4.577457E-04
7.158394E+03	6.524599E-03	4.704455E-04
7.168282E+03	6.691988E-03	4.828019E-04
7.178169E+03	6.851137E-03	4.945779E-04
7.188056E+03	6.998692E-03	5.055301E-04
7.197943E+03	7.131214E-03	5.154084E-04
7.207831E+03	7.245364E-03	5.239695E-04
7.217718E+03	7.338292E-03	5.310047E-04
7.227605E+03	7.407359E-03	5.363203E-04
7.237493E+03	7.451013E-03	5.398007E-04
7.247380E+03	7.468270E-03	5.413712E-04
7.257267E+03	7.459278E-03	5.410393E-04
7.267154E+03	7.424868E-03	5.388618E-04
7.277042E+03	7.366424E-03	5.349361E-04
7.286929E+03	7.286026E-03	5.294099E-04
7.296816E+03	7.186257E-03	5.224685E-04
7.306704E+03	7.069630E-03	5.142921E-04
7.316591E+03	6.938824E-03	5.050734E-04
7.326478E+03	6.796326E-03	4.949919E-04
7.336365E+03	6.644840E-03	4.842431E-04
7.346253E+03	6.486516E-03	4.729826E-04
7.356140E+03	6.323393E-03	4.613582E-04
7.366027E+03	6.157158E-03	4.494926E-04
7.375915E+03	5.989566E-03	4.375135E-04
7.385802E+03	5.821722E-03	4.255016E-04
7.395689E+03	5.654894E-03	4.135495E-04
7.405576E+03	5.490109E-03	4.017325E-04
7.415464E+03	5.328260E-03	3.901163E-04
7.425351E+03	5.170453E-03	3.787822E-04
7.435238E+03	5.017748E-03	3.678086E-04
7.445126E+03	4.871212E-03	3.572742E-04
7.455013E+03	4.731734E-03	3.472452E-04
7.464900E+03	4.600240E-03	3.377904E-04
7.474787E+03	4.477410E-03	3.289608E-04
7.484675E+03	4.363670E-03	3.207888E-04
7.494562E+03	4.259497E-03	3.133108E-04
7.504449E+03	4.164913E-03	3.065294E-04
7.514337E+03	4.079969E-03	3.004497E-04
7.524224E+03	4.004755E-03	2.950796E-04
7.534111E+03	3.939006E-03	2.904008E-04
7.543998E+03	3.882623E-03	2.864071E-04
7.553886E+03	3.835405E-03	2.830848E-04
7.563773E+03	3.797124E-03	2.804184E-04
7.573660E+03	3.767525E-03	2.783901E-04
7.583548E+03	3.746243E-03	2.769739E-04
7.593435E+03	3.732970E-03	2.761481E-04
7.603322E+03	3.727209E-03	2.758770E-04
7.613209E+03	3.728299E-03	2.761127E-04
7.623097E+03	3.735442E-03	2.767965E-04
7.632984E+03	3.747725E-03	2.778619E-04
7.642871E+03	3.764081E-03	2.792300E-04
7.652759E+03	3.783508E-03	2.808272E-04
7.662646E+03	3.804907E-03	2.825721E-04
7.672533E+03	3.827164E-03	2.843823E-04
