#wls	flux	fluxerr
1.581966E+03	4.311723E-03	1.751785E-04
1.621515E+03	4.412463E-03	1.791960E-04
1.661064E+03	4.513039E-03	1.832014E-04
1.700613E+03	4.614726E-03	1.872464E-04
1.740162E+03	4.715662E-03	1.912551E-04
1.779711E+03	4.816311E-03	1.952462E-04
1.819260E+03	4.916334E-03	1.992058E-04
1.858810E+03	5.016206E-03	2.031529E-04
1.898359E+03	5.114715E-03	2.070384E-04
1.937908E+03	5.212312E-03	2.108804E-04
1.977457E+03	5.307713E-03	2.146269E-04
2.017006E+03	5.402223E-03	2.183304E-04
2.056555E+03	5.493622E-03	2.219013E-04
2.096104E+03	5.583205E-03	2.253917E-04
2.135654E+03	5.669581E-03	2.287456E-04
2.175203E+03	5.752234E-03	2.319420E-04
2.214752E+03	5.832452E-03	2.350331E-04
2.254301E+03	5.908788E-03	2.379605E-04
2.293850E+03	5.980691E-03	2.407022E-04
2.333399E+03	6.047598E-03	2.432357E-04
2.372948E+03	6.110780E-03	2.456123E-04
2.412498E+03	6.167835E-03	2.477356E-04
2.452047E+03	6.220938E-03	2.496933E-04
2.491596E+03	6.267698E-03	2.513898E-04
2.531145E+03	6.308474E-03	2.528397E-04
2.570694E+03	6.342734E-03	2.540223E-04
2.610243E+03	6.371725E-03	2.549877E-04
2.649792E+03	6.394060E-03	2.556811E-04
2.689342E+03	6.409281E-03	2.560846E-04
2.728891E+03	6.418673E-03	2.562502E-04
2.768440E+03	6.421816E-03	2.561616E-04
2.807989E+03	6.418363E-03	2.558055E-04
2.847538E+03	6.408047E-03	2.551720E-04
2.887087E+03	6.392233E-03	2.543161E-04
2.926636E+03	6.370743E-03	2.532313E-04
2.966185E+03	6.343512E-03	2.519157E-04
2.976073E+03	6.336014E-03	2.515590E-04
2.985960E+03	6.328383E-03	2.511969E-04
2.995847E+03	6.320618E-03	2.508294E-04
3.005735E+03	6.312009E-03	2.504282E-04
3.015622E+03	6.303275E-03	2.500219E-04
3.025509E+03	6.294415E-03	2.496106E-04
3.035396E+03	6.285424E-03	2.491939E-04
3.045284E+03	6.276310E-03	2.487723E-04
3.055171E+03	6.266389E-03	2.483186E-04
3.065058E+03	6.256355E-03	2.478603E-04
3.074946E+03	6.246879E-03	2.474241E-04
3.084833E+03	6.236621E-03	2.469568E-04
3.094720E+03	6.226260E-03	2.464854E-04
3.104607E+03	6.215801E-03	2.460100E-04
3.114495E+03	6.204598E-03	2.455050E-04
3.124382E+03	6.193958E-03	2.450224E-04
3.134269E+03	6.183238E-03	2.445365E-04
3.144157E+03	6.172440E-03	2.440474E-04
3.154044E+03	6.160948E-03	2.435309E-04
3.163931E+03	6.150024E-03	2.430368E-04
3.173818E+03	6.139050E-03	2.425406E-04
3.183706E+03	6.127422E-03	2.420186E-04
3.193593E+03	6.116375E-03	2.415195E-04
3.203480E+03	6.105308E-03	2.410195E-04
3.213368E+03	6.093632E-03	2.404955E-04
3.223255E+03	6.082558E-03	2.399952E-04
3.233142E+03	6.071491E-03	2.394952E-04
3.243029E+03	6.060449E-03	2.389961E-04
3.252917E+03	6.049443E-03	2.384984E-04
3.262804E+03	6.038487E-03	2.380026E-04
3.272691E+03	6.027591E-03	2.375092E-04
3.282579E+03	6.017327E-03	2.370406E-04
3.292466E+03	6.006590E-03	2.365534E-04
3.302353E+03	5.996503E-03	2.360917E-04
3.312240E+03	5.986518E-03	2.356340E-04
3.322128E+03	5.976655E-03	2.351811E-04
3.332015E+03	5.966922E-03	2.347332E-04
3.341902E+03	5.957336E-03	2.342911E-04
3.351790E+03	5.948427E-03	2.338755E-04
3.361677E+03	5.939676E-03	2.334661E-04
3.371564E+03	5.931099E-03	2.330634E-04
3.381451E+03	5.923212E-03	2.326878E-04
3.391339E+03	5.915008E-03	2.322997E-04
3.401226E+03	5.907504E-03	2.319390E-04
3.411113E+03	5.900207E-03	2.315863E-04
3.421001E+03	5.893609E-03	2.312610E-04
3.430888E+03	5.887226E-03	2.309440E-04
3.440775E+03	5.881065E-03	2.306356E-04
3.450662E+03	5.875609E-03	2.303547E-04
3.460550E+03	5.870379E-03	2.300826E-04
3.470437E+03	5.865387E-03	2.298196E-04
3.480324E+03	5.861100E-03	2.295842E-04
3.490212E+03	5.857052E-03	2.293580E-04
3.500099E+03	5.853254E-03	2.291414E-04
3.509986E+03	5.850162E-03	2.289522E-04
3.519873E+03	5.847324E-03	2.287729E-04
3.529761E+03	5.845194E-03	2.286211E-04
3.539648E+03	5.843334E-03	2.284796E-04
3.549535E+03	5.841752E-03	2.283488E-04
3.559423E+03	5.840895E-03	2.282462E-04
3.569310E+03	5.840767E-03	2.281718E-04
3.579197E+03	5.840949E-03	2.281093E-04
3.589084E+03	5.841469E-03	2.280597E-04
3.598972E+03	5.842765E-03	2.280402E-04
3.608859E+03	5.844440E-03	2.280352E-04
3.618746E+03	5.846934E-03	2.280619E-04
3.628634E+03	5.849872E-03	2.281056E-04
3.638521E+03	5.853687E-03	2.281833E-04
3.648408E+03	5.858415E-03	2.282961E-04
3.658295E+03	5.863305E-03	2.284150E-04
3.668183E+03	5.869584E-03	2.285875E-04
3.678070E+03	5.876509E-03	2.287849E-04
3.687957E+03	5.884130E-03	2.290089E-04
3.697845E+03	5.892885E-03	2.292767E-04
3.707732E+03	5.902435E-03	2.295750E-04
3.717619E+03	5.913209E-03	2.299203E-04
3.727506E+03	5.925248E-03	2.303144E-04
3.737394E+03	5.938218E-03	2.307441E-04
3.747281E+03	5.952157E-03	2.312110E-04
3.757168E+03	5.967463E-03	2.317303E-04
3.767056E+03	5.983791E-03	2.322888E-04
3.776943E+03	6.001519E-03	2.329009E-04
3.786830E+03	6.020637E-03	2.335663E-04
3.796717E+03	6.040775E-03	2.342706E-04
3.806605E+03	6.061902E-03	2.350125E-04
3.816492E+03	6.084337E-03	2.358043E-04
3.826379E+03	6.107663E-03	2.366299E-04
3.836267E+03	6.132153E-03	2.374997E-04
3.846154E+03	6.157366E-03	2.383967E-04
3.856041E+03	6.183194E-03	2.393167E-04
3.865928E+03	6.209853E-03	2.402679E-04
3.875816E+03	6.237204E-03	2.412451E-04
3.885703E+03	6.264407E-03	2.422156E-04
3.895590E+03	6.291986E-03	2.431997E-04
3.905478E+03	6.319760E-03	2.441904E-04
3.915365E+03	6.346875E-03	2.451548E-04
3.925252E+03	6.373827E-03	2.461120E-04
3.935139E+03	6.400427E-03	2.470547E-04
3.945027E+03	6.425834E-03	2.479505E-04
3.954914E+03	6.450538E-03	2.488183E-04
3.964801E+03	6.473718E-03	2.496265E-04
3.974689E+03	6.495878E-03	2.503945E-04
3.984576E+03	6.516882E-03	2.511173E-04
3.994463E+03	6.535959E-03	2.517651E-04
4.004350E+03	6.553334E-03	2.523467E-04
4.014238E+03	6.568936E-03	2.528594E-04
4.024125E+03	6.583021E-03	2.533132E-04
4.034012E+03	6.594927E-03	2.536826E-04
4.043900E+03	6.604960E-03	2.539795E-04
4.053787E+03	6.613142E-03	2.542048E-04
4.063674E+03	6.619512E-03	2.543602E-04
4.073561E+03	6.624133E-03	2.544480E-04
4.083449E+03	6.627087E-03	2.544715E-04
4.093336E+03	6.628187E-03	2.544237E-04
4.103223E+03	6.627857E-03	2.543208E-04
4.113111E+03	6.625944E-03	2.541570E-04
4.122998E+03	6.623192E-03	2.539610E-04
4.132885E+03	6.618892E-03	2.537057E-04
4.142772E+03	6.614092E-03	2.534311E-04
4.152660E+03	6.608113E-03	2.531114E-04
4.162547E+03	6.602000E-03	2.527867E-04
4.172434E+03	6.595093E-03	2.524316E-04
4.182322E+03	6.588147E-03	2.520751E-04
4.192209E+03	6.581064E-03	2.517134E-04
4.202096E+03	6.574035E-03	2.513539E-04
4.211983E+03	6.567503E-03	2.510135E-04
4.221871E+03	6.561100E-03	2.506781E-04
4.231758E+03	6.555520E-03	2.503743E-04
4.241645E+03	6.550642E-03	2.500973E-04
4.251533E+03	6.546345E-03	2.498426E-04
4.261420E+03	6.543277E-03	2.496348E-04
4.271307E+03	6.541028E-03	2.494583E-04
4.281194E+03	6.539956E-03	2.493266E-04
4.291082E+03	6.540138E-03	2.492427E-04
4.300969E+03	6.541392E-03	2.491996E-04
4.310856E+03	6.544265E-03	2.492180E-04
4.320744E+03	6.548037E-03	2.492706E-04
4.330631E+03	6.553226E-03	2.493769E-04
4.340518E+03	6.559820E-03	2.495366E-04
4.350405E+03	6.567552E-03	2.497392E-04
4.360293E+03	6.576622E-03	2.499925E-04
4.370180E+03	6.586485E-03	2.502757E-04
4.380067E+03	6.597546E-03	2.506041E-04
4.389955E+03	6.609461E-03	2.509646E-04
4.399842E+03	6.622356E-03	2.513620E-04
4.409729E+03	6.635616E-03	2.517728E-04
4.419616E+03	6.649330E-03	2.522006E-04
4.429504E+03	6.663559E-03	2.526474E-04
4.439391E+03	6.677655E-03	2.530890E-04
4.449278E+03	6.691882E-03	2.535351E-04
4.459166E+03	6.705566E-03	2.539602E-04
4.469053E+03	6.718719E-03	2.543649E-04
4.478940E+03	6.730886E-03	2.547320E-04
4.488827E+03	6.742290E-03	2.550699E-04
4.498715E+03	6.752241E-03	2.553527E-04
4.508602E+03	6.760741E-03	2.555804E-04
4.518489E+03	6.767343E-03	2.557361E-04
4.528377E+03	6.772057E-03	2.558205E-04
4.538264E+03	6.774473E-03	2.558181E-04
4.548151E+03	6.774643E-03	2.557309E-04
4.558038E+03	6.772193E-03	2.555449E-04
4.567926E+03	6.767228E-03	2.552642E-04
4.577813E+03	6.759446E-03	2.548776E-04
4.587700E+03	6.749012E-03	2.543914E-04
4.597588E+03	6.735698E-03	2.537970E-04
4.607475E+03	6.719530E-03	2.530956E-04
4.617362E+03	6.700575E-03	2.522899E-04
4.627249E+03	6.679141E-03	2.513916E-04
4.637137E+03	6.655158E-03	2.503981E-04
4.647024E+03	6.628796E-03	2.493159E-04
4.656911E+03	6.600260E-03	2.481529E-04
4.666798E+03	6.569978E-03	2.469252E-04
4.676686E+03	6.537802E-03	2.456273E-04
4.686573E+03	6.504403E-03	2.442846E-04
4.696460E+03	6.469870E-03	2.429004E-04
4.706348E+03	6.434506E-03	2.414862E-04
4.716235E+03	6.398637E-03	2.400541E-04
4.726122E+03	6.362784E-03	2.386238E-04
4.736009E+03	6.326886E-03	2.371930E-04
4.745897E+03	6.291454E-03	2.357808E-04
4.755784E+03	6.256976E-03	2.344054E-04
4.765671E+03	6.223363E-03	2.330636E-04
4.775559E+03	6.191253E-03	2.317792E-04
4.785446E+03	6.160699E-03	2.305540E-04
4.795333E+03	6.131747E-03	2.293897E-04
4.805220E+03	6.104944E-03	2.283068E-04
4.815108E+03	6.080271E-03	2.273044E-04
4.824995E+03	6.057866E-03	2.263877E-04
4.834882E+03	6.037828E-03	2.255601E-04
4.844770E+03	6.020233E-03	2.248245E-04
4.854657E+03	6.005124E-03	2.241824E-04
4.864544E+03	5.992516E-03	2.236342E-04
4.874431E+03	5.982394E-03	2.231793E-04
4.884319E+03	5.974718E-03	2.228160E-04
4.894206E+03	5.969423E-03	2.225420E-04
4.904093E+03	5.966594E-03	2.223602E-04
4.913981E+03	5.965795E-03	2.222544E-04
4.923868E+03	5.967240E-03	2.222323E-04
4.933755E+03	5.970640E-03	2.222832E-04
4.943642E+03	5.975858E-03	2.224020E-04
4.953530E+03	5.982759E-03	2.225834E-04
4.963417E+03	5.991209E-03	2.228225E-04
4.973304E+03	6.001073E-03	2.231143E-04
4.983192E+03	6.012393E-03	2.234601E-04
4.993079E+03	6.024715E-03	2.238431E-04
5.002966E+03	6.038261E-03	2.242715E-04
5.012853E+03	6.052761E-03	2.247353E-04
5.022741E+03	6.068126E-03	2.252311E-04
5.032628E+03	6.084433E-03	2.257617E-04
5.042515E+03	6.101275E-03	2.263121E-04
5.052403E+03	6.118904E-03	2.268914E-04
5.062290E+03	6.137088E-03	2.274912E-04
5.072177E+03	6.155916E-03	2.281148E-04
5.082064E+03	6.174992E-03	2.287473E-04
5.091952E+03	6.194566E-03	2.293981E-04
5.101839E+03	6.214397E-03	2.300582E-04
5.111726E+03	6.234560E-03	2.307305E-04
5.121614E+03	6.254795E-03	2.314053E-04
5.131501E+03	6.274999E-03	2.320787E-04
5.141388E+03	6.295058E-03	2.327467E-04
5.151275E+03	6.315015E-03	2.334107E-04
5.161163E+03	6.334572E-03	2.340598E-04
5.171050E+03	6.353581E-03	2.346886E-04
5.180937E+03	6.372060E-03	2.352977E-04
5.190825E+03	6.389677E-03	2.358749E-04
5.200712E+03	6.406433E-03	2.364202E-04
5.210599E+03	6.421981E-03	2.369210E-04
5.220486E+03	6.436138E-03	2.373705E-04
5.230374E+03	6.448885E-03	2.377681E-04
5.240261E+03	6.459865E-03	2.381007E-04
5.250148E+03	6.469058E-03	2.383675E-04
5.260036E+03	6.476097E-03	2.385552E-04
5.269923E+03	6.480793E-03	2.386569E-04
5.279810E+03	6.483132E-03	2.386721E-04
5.289697E+03	6.482930E-03	2.385942E-04
5.299585E+03	6.479840E-03	2.384104E-04
5.309472E+03	6.473688E-03	2.381145E-04
5.319359E+03	6.464470E-03	2.377063E-04
5.329247E+03	6.451988E-03	2.371788E-04
5.339134E+03	6.435884E-03	2.365189E-04
5.349021E+03	6.416144E-03	2.357261E-04
5.358908E+03	6.392446E-03	2.347888E-04
5.368796E+03	6.364662E-03	2.337023E-04
5.378683E+03	6.333019E-03	2.324752E-04
5.388570E+03	6.297117E-03	2.310928E-04
5.398458E+03	6.256923E-03	2.295541E-04
5.408345E+03	6.212600E-03	2.278651E-04
5.418232E+03	6.164186E-03	2.260275E-04
5.428119E+03	6.111598E-03	2.240382E-04
5.438007E+03	6.055116E-03	2.219076E-04
5.447894E+03	5.994891E-03	2.196414E-04
5.457781E+03	5.931119E-03	2.172468E-04
5.467669E+03	5.863874E-03	2.147267E-04
5.477556E+03	5.793582E-03	2.120967E-04
5.487443E+03	5.720384E-03	2.093622E-04
5.497330E+03	5.644912E-03	2.065461E-04
5.507218E+03	5.567217E-03	2.036506E-04
5.517105E+03	5.487819E-03	2.006946E-04
5.526992E+03	5.406966E-03	1.976873E-04
5.536880E+03	5.325338E-03	1.946534E-04
5.546767E+03	5.243063E-03	1.915978E-04
5.556654E+03	5.160677E-03	1.885401E-04
5.566541E+03	5.078585E-03	1.854948E-04
5.576429E+03	4.997166E-03	1.824760E-04
5.586316E+03	4.916791E-03	1.794972E-04
5.596203E+03	4.837810E-03	1.765709E-04
5.606091E+03	4.760544E-03	1.737090E-04
5.615978E+03	4.685167E-03	1.709176E-04
5.625865E+03	4.612185E-03	1.682153E-04
5.635752E+03	4.541588E-03	1.656014E-04
5.645640E+03	4.473811E-03	1.630919E-04
5.655527E+03	4.408895E-03	1.606882E-04
5.665414E+03	4.346854E-03	1.583906E-04
5.675302E+03	4.288015E-03	1.562111E-04
5.685189E+03	4.232327E-03	1.541475E-04
5.695076E+03	4.179831E-03	1.522014E-04
5.704963E+03	4.130531E-03	1.503729E-04
5.714851E+03	4.084425E-03	1.486617E-04
5.724738E+03	4.041472E-03	1.470662E-04
5.734625E+03	4.001630E-03	1.455849E-04
5.744513E+03	3.964929E-03	1.442188E-04
5.754400E+03	3.931195E-03	1.429615E-04
5.764287E+03	3.900339E-03	1.418097E-04
5.774174E+03	3.872272E-03	1.407600E-04
5.784062E+03	3.846901E-03	1.398090E-04
5.793949E+03	3.824228E-03	1.389567E-04
5.803836E+03	3.804062E-03	1.381961E-04
5.813724E+03	3.786314E-03	1.375240E-04
5.823611E+03	3.770905E-03	1.369374E-04
5.833498E+03	3.757860E-03	1.364371E-04
5.843385E+03	3.747016E-03	1.360173E-04
5.853273E+03	3.738326E-03	1.356760E-04
5.863160E+03	3.731844E-03	1.354154E-04
5.873047E+03	3.727456E-03	1.352311E-04
5.882935E+03	3.725250E-03	1.351263E-04
5.892822E+03	3.725034E-03	1.350941E-04
5.902709E+03	3.727025E-03	1.351423E-04
5.912596E+03	3.731266E-03	1.352723E-04
5.922484E+03	3.737711E-03	1.354825E-04
5.932371E+03	3.746421E-03	1.357751E-04
5.942258E+03	3.757583E-03	1.361567E-04
5.952146E+03	3.771189E-03	1.366271E-04
5.962033E+03	3.787444E-03	1.371937E-04
5.971920E+03	3.806366E-03	1.378570E-04
5.981807E+03	3.828178E-03	1.386252E-04
5.991695E+03	3.852911E-03	1.394992E-04
6.001582E+03	3.880802E-03	1.404877E-04
6.011469E+03	3.911880E-03	1.415916E-04
6.021357E+03	3.946281E-03	1.428158E-04
6.031244E+03	3.984233E-03	1.441686E-04
6.041131E+03	4.025858E-03	1.456543E-04
6.051018E+03	4.071154E-03	1.472728E-04
6.060906E+03	4.120310E-03	1.490309E-04
6.070793E+03	4.173280E-03	1.509269E-04
6.080680E+03	4.230203E-03	1.529659E-04
6.090568E+03	4.290960E-03	1.551433E-04
6.100455E+03	4.355619E-03	1.574618E-04
6.110342E+03	4.424087E-03	1.599179E-04
6.120229E+03	4.496101E-03	1.625021E-04
6.130117E+03	4.571573E-03	1.652112E-04
6.140004E+03	4.650114E-03	1.680311E-04
6.149891E+03	4.731506E-03	1.709539E-04
6.159779E+03	4.815347E-03	1.739652E-04
6.169666E+03	4.901018E-03	1.770425E-04
6.179553E+03	4.988051E-03	1.801690E-04
6.189440E+03	5.075752E-03	1.833197E-04
6.199328E+03	5.163210E-03	1.864615E-04
6.209215E+03	5.249727E-03	1.895694E-04
6.219102E+03	5.334434E-03	1.926120E-04
6.228990E+03	5.416277E-03	1.955514E-04
6.238877E+03	5.494637E-03	1.983651E-04
6.248764E+03	5.568320E-03	2.010102E-04
6.258651E+03	5.636440E-03	2.034547E-04
6.268539E+03	5.698482E-03	2.056801E-04
6.278426E+03	5.753379E-03	2.076479E-04
6.288313E+03	5.800617E-03	2.093398E-04
6.298201E+03	5.839622E-03	2.107349E-04
6.308088E+03	5.869782E-03	2.118113E-04
6.317975E+03	5.891076E-03	2.125684E-04
6.327862E+03	5.902975E-03	2.129870E-04
6.337750E+03	5.905555E-03	2.130699E-04
6.347637E+03	5.898864E-03	2.128190E-04
6.357524E+03	5.883060E-03	2.122399E-04
6.367412E+03	5.858415E-03	2.113426E-04
6.377299E+03	5.825303E-03	2.101405E-04
6.387186E+03	5.784025E-03	2.086445E-04
6.397073E+03	5.735434E-03	2.068854E-04
6.406961E+03	5.679962E-03	2.048787E-04
6.416848E+03	5.618085E-03	2.026417E-04
6.426735E+03	5.550783E-03	2.002097E-04
6.436623E+03	5.478423E-03	1.975960E-04
6.446510E+03	5.402000E-03	1.948363E-04
6.456397E+03	5.321879E-03	1.919439E-04
6.466284E+03	5.239024E-03	1.889534E-04
6.476172E+03	5.153765E-03	1.858768E-04
6.486059E+03	5.066998E-03	1.827464E-04
6.495946E+03	4.979135E-03	1.795770E-04
6.505833E+03	4.890701E-03	1.763874E-04
6.515721E+03	4.802184E-03	1.731954E-04
6.525608E+03	4.714023E-03	1.700166E-04
6.535495E+03	4.626624E-03	1.668657E-04
6.545383E+03	4.540477E-03	1.637603E-04
6.555270E+03	4.455660E-03	1.607033E-04
6.565157E+03	4.372718E-03	1.577142E-04
6.575044E+03	4.291788E-03	1.547980E-04
6.584932E+03	4.213110E-03	1.519633E-04
6.594819E+03	4.137012E-03	1.492220E-04
6.604706E+03	4.063442E-03	1.465721E-04
6.614594E+03	3.992801E-03	1.440281E-04
6.624481E+03	3.925119E-03	1.415911E-04
6.634368E+03	3.860632E-03	1.392695E-04
6.644255E+03	3.799344E-03	1.370635E-04
6.654143E+03	3.741247E-03	1.349729E-04
6.664030E+03	3.686749E-03	1.330122E-04
6.673917E+03	3.635604E-03	1.311727E-04
6.683805E+03	3.588088E-03	1.294644E-04
6.693692E+03	3.544156E-03	1.278855E-04
6.703579E+03	3.503961E-03	1.264417E-04
6.713466E+03	3.467443E-03	1.251307E-04
6.723354E+03	3.434644E-03	1.239541E-04
6.733241E+03	3.405704E-03	1.229169E-04
6.743128E+03	3.380450E-03	1.220131E-04
6.753016E+03	3.359217E-03	1.212545E-04
6.762903E+03	3.341732E-03	1.206315E-04
6.772790E+03	3.328218E-03	1.201520E-04
6.782677E+03	3.318701E-03	1.198171E-04
6.792565E+03	3.313005E-03	1.196204E-04
6.802452E+03	3.311346E-03	1.195698E-04
6.812339E+03	3.313739E-03	1.196658E-04
6.822227E+03	3.320101E-03	1.199055E-04
6.832114E+03	3.330438E-03	1.202891E-04
6.842001E+03	3.344757E-03	1.208170E-04
6.851888E+03	3.363154E-03	1.214925E-04
6.861776E+03	3.385626E-03	1.223158E-04
6.871663E+03	3.411962E-03	1.232791E-04
6.881550E+03	3.442345E-03	1.243892E-04
6.891438E+03	3.476647E-03	1.256415E-04
6.901325E+03	3.514946E-03	1.270388E-04
6.911212E+03	3.557099E-03	1.285762E-04
6.921099E+03	3.603173E-03	1.302559E-04
6.930987E+03	3.652903E-03	1.320685E-04
6.940874E+03	3.706454E-03	1.340201E-04
6.950761E+03	3.763649E-03	1.361043E-04
6.960649E+03	3.824535E-03	1.383229E-04
6.970536E+03	3.888919E-03	1.406689E-04
6.980423E+03	3.956707E-03	1.431391E-04
6.990310E+03	4.027788E-03	1.457294E-04
7.000198E+03	4.102156E-03	1.484398E-04
7.010085E+03	4.179532E-03	1.512603E-04
7.019972E+03	4.259732E-03	1.541841E-04
7.029860E+03	4.342651E-03	1.572076E-04
7.039747E+03	4.427759E-03	1.603118E-04
7.049634E+03	4.514992E-03	1.634942E-04
7.059521E+03	4.603827E-03	1.667361E-04
7.069409E+03	4.693808E-03	1.700211E-04
7.079296E+03	4.784408E-03	1.733299E-04
7.089183E+03	4.875022E-03	1.766409E-04
7.099071E+03	4.965129E-03	1.799351E-04
7.108958E+03	5.053830E-03	1.831800E-04
7.118845E+03	5.140158E-03	1.863405E-04
7.128732E+03	5.223545E-03	1.893960E-04
7.138620E+03	5.302922E-03	1.923077E-04
7.148507E+03	5.377338E-03	1.950412E-04
7.158394E+03	5.445669E-03	1.975556E-04
7.168282E+03	5.507304E-03	1.998285E-04
7.178169E+03	5.561176E-03	2.018212E-04
7.188056E+03	5.606444E-03	2.035030E-04
7.197943E+03	5.642365E-03	2.048469E-04
7.207831E+03	5.668128E-03	2.058230E-04
7.217718E+03	5.683598E-03	2.064264E-04
7.227605E+03	5.688085E-03	2.066318E-04
7.237493E+03	5.681776E-03	2.064457E-04
7.247380E+03	5.664328E-03	2.058554E-04
7.257267E+03	5.636101E-03	2.048738E-04
7.267154E+03	5.597445E-03	2.035132E-04
7.277042E+03	5.548865E-03	2.017919E-04
7.286929E+03	5.490831E-03	1.997267E-04
7.296816E+03	5.424275E-03	1.973511E-04
7.306704E+03	5.350048E-03	1.946960E-04
7.316591E+03	5.269068E-03	1.917946E-04
7.326478E+03	5.182289E-03	1.886813E-04
7.336365E+03	5.090536E-03	1.853861E-04
7.346253E+03	4.994946E-03	1.819502E-04
7.356140E+03	4.896320E-03	1.784026E-04
7.366027E+03	4.795733E-03	1.747824E-04
7.375915E+03	4.694052E-03	1.711211E-04
7.385802E+03	4.592081E-03	1.674480E-04
7.395689E+03	4.490419E-03	1.637849E-04
7.405576E+03	4.389877E-03	1.601612E-04
7.415464E+03	4.290918E-03	1.565939E-04
7.425351E+03	4.194200E-03	1.531070E-04
7.435238E+03	4.100038E-03	1.497120E-04
7.445126E+03	4.008951E-03	1.464279E-04
7.455013E+03	3.921255E-03	1.432663E-04
7.464900E+03	3.837101E-03	1.402328E-04
7.474787E+03	3.756710E-03	1.373355E-04
7.484675E+03	3.680493E-03	1.345895E-04
7.494562E+03	3.608208E-03	1.319862E-04
7.504449E+03	3.540163E-03	1.295368E-04
7.514337E+03	3.476376E-03	1.272422E-04
7.524224E+03	3.416726E-03	1.250980E-04
7.534111E+03	3.361166E-03	1.231025E-04
7.543998E+03	3.309726E-03	1.212572E-04
7.553886E+03	3.262193E-03	1.195541E-04
7.563773E+03	3.218547E-03	1.179928E-04
7.573660E+03	3.178529E-03	1.165638E-04
7.583548E+03	3.141977E-03	1.152613E-04
7.593435E+03	3.108805E-03	1.140824E-04
7.603322E+03	3.078714E-03	1.130160E-04
7.613209E+03	3.051599E-03	1.120584E-04
7.623097E+03	3.027039E-03	1.111943E-04
7.632984E+03	3.005102E-03	1.104263E-04
7.642871E+03	2.985262E-03	1.097350E-04
7.652759E+03	2.967478E-03	1.091191E-04
7.662646E+03	2.951505E-03	1.085697E-04
7.672533E+03	2.936919E-03	1.080711E-04
