#wls	flux	fluxerr
1.581966E+03	2.472413E-03	7.255645E-05
1.621515E+03	2.528706E-03	7.420676E-05
1.661064E+03	2.585694E-03	7.587733E-05
1.700613E+03	2.643307E-03	7.756612E-05
1.740162E+03	2.701471E-03	7.927097E-05
1.779711E+03	2.760104E-03	8.098943E-05
1.819260E+03	2.819118E-03	8.271892E-05
1.858810E+03	2.877934E-03	8.444248E-05
1.898359E+03	2.937422E-03	8.618559E-05
1.937908E+03	2.996994E-03	8.793103E-05
1.977457E+03	3.056542E-03	8.967561E-05
2.017006E+03	3.116471E-03	9.143119E-05
2.056555E+03	3.175630E-03	9.316401E-05
2.096104E+03	3.234943E-03	9.490118E-05
2.135654E+03	3.293759E-03	9.662363E-05
2.175203E+03	3.352501E-03	9.834369E-05
2.214752E+03	3.409942E-03	1.000254E-04
2.254301E+03	3.467615E-03	1.017138E-04
2.293850E+03	3.524288E-03	1.033726E-04
2.333399E+03	3.579820E-03	1.049978E-04
2.372948E+03	3.635240E-03	1.066194E-04
2.412498E+03	3.688688E-03	1.081831E-04
2.452047E+03	3.741792E-03	1.097364E-04
2.491596E+03	3.793261E-03	1.112416E-04
2.531145E+03	3.844171E-03	1.127302E-04
2.570694E+03	3.893224E-03	1.141641E-04
2.610243E+03	3.940906E-03	1.155577E-04
2.649792E+03	3.987127E-03	1.169082E-04
2.689342E+03	4.031798E-03	1.182130E-04
2.728891E+03	4.074832E-03	1.194696E-04
2.768440E+03	4.116155E-03	1.206758E-04
2.807989E+03	4.156305E-03	1.218475E-04
2.847538E+03	4.194616E-03	1.229650E-04
2.887087E+03	4.231030E-03	1.240267E-04
2.926636E+03	4.265496E-03	1.250311E-04
2.966185E+03	4.297976E-03	1.259771E-04
2.976073E+03	4.306198E-03	1.262165E-04
2.985960E+03	4.314218E-03	1.264501E-04
2.995847E+03	4.321425E-03	1.266597E-04
3.005735E+03	4.329038E-03	1.268813E-04
3.015622E+03	4.337052E-03	1.271146E-04
3.025509E+03	4.344254E-03	1.273241E-04
3.035396E+03	4.351254E-03	1.275277E-04
3.045284E+03	4.358650E-03	1.277428E-04
3.055171E+03	4.365239E-03	1.279343E-04
3.065058E+03	4.372225E-03	1.281374E-04
3.074946E+03	4.379003E-03	1.283344E-04
3.084833E+03	4.386178E-03	1.285431E-04
3.094720E+03	4.392543E-03	1.287280E-04
3.104607E+03	4.398703E-03	1.289068E-04
3.114495E+03	4.405257E-03	1.290972E-04
3.124382E+03	4.411601E-03	1.292814E-04
3.134269E+03	4.417740E-03	1.294596E-04
3.144157E+03	4.423670E-03	1.296317E-04
3.154044E+03	4.429393E-03	1.297977E-04
3.163931E+03	4.434908E-03	1.299576E-04
3.173818E+03	4.440812E-03	1.301289E-04
3.183706E+03	4.445914E-03	1.302766E-04
3.193593E+03	4.451399E-03	1.304356E-04
3.203480E+03	4.456680E-03	1.305886E-04
3.213368E+03	4.461755E-03	1.307356E-04
3.223255E+03	4.467211E-03	1.308937E-04
3.233142E+03	4.471868E-03	1.310283E-04
3.243029E+03	4.476908E-03	1.311742E-04
3.252917E+03	4.481155E-03	1.312968E-04
3.262804E+03	4.485782E-03	1.314306E-04
3.272691E+03	4.490204E-03	1.315584E-04
3.282579E+03	4.494421E-03	1.316801E-04
3.292466E+03	4.499017E-03	1.318129E-04
3.302353E+03	4.502824E-03	1.319226E-04
3.312240E+03	4.507009E-03	1.320433E-04
3.322128E+03	4.510988E-03	1.321581E-04
3.332015E+03	4.514188E-03	1.322499E-04
3.341902E+03	4.517765E-03	1.323529E-04
3.351790E+03	4.521718E-03	1.324668E-04
3.361677E+03	4.524893E-03	1.325579E-04
3.371564E+03	4.528444E-03	1.326600E-04
3.381451E+03	4.531227E-03	1.327397E-04
3.391339E+03	4.534384E-03	1.328302E-04
3.401226E+03	4.537346E-03	1.329150E-04
3.411113E+03	4.540116E-03	1.329943E-04
3.421001E+03	4.542691E-03	1.330678E-04
3.430888E+03	4.545080E-03	1.331358E-04
3.440775E+03	4.547844E-03	1.332148E-04
3.450662E+03	4.550423E-03	1.332884E-04
3.460550E+03	4.552255E-03	1.333401E-04
3.470437E+03	4.554470E-03	1.334030E-04
3.480324E+03	4.556502E-03	1.334605E-04
3.490212E+03	4.558363E-03	1.335130E-04
3.500099E+03	4.560603E-03	1.335766E-04
3.509986E+03	4.562118E-03	1.336190E-04
3.519873E+03	4.564021E-03	1.336727E-04
3.529761E+03	4.565209E-03	1.337055E-04
3.539648E+03	4.566790E-03	1.337498E-04
3.549535E+03	4.568211E-03	1.337893E-04
3.559423E+03	4.569484E-03	1.338246E-04
3.569310E+03	4.570609E-03	1.338555E-04
3.579197E+03	4.571594E-03	1.338823E-04
3.589084E+03	4.572983E-03	1.339209E-04
3.598972E+03	4.573699E-03	1.339398E-04
3.608859E+03	4.574824E-03	1.339707E-04
3.618746E+03	4.575830E-03	1.339980E-04
3.628634E+03	4.576718E-03	1.340220E-04
3.638521E+03	4.577500E-03	1.340428E-04
3.648408E+03	4.578176E-03	1.340604E-04
3.658295E+03	4.578755E-03	1.340753E-04
3.668183E+03	4.579246E-03	1.340876E-04
3.678070E+03	4.579658E-03	1.340975E-04
3.687957E+03	4.580520E-03	1.341206E-04
3.697845E+03	4.581312E-03	1.341417E-04
3.707732E+03	4.581521E-03	1.341456E-04
3.717619E+03	4.582201E-03	1.341634E-04
3.727506E+03	4.582839E-03	1.341800E-04
3.737394E+03	4.583442E-03	1.341955E-04
3.747281E+03	4.584019E-03	1.342102E-04
3.757168E+03	4.584577E-03	1.342244E-04
3.767056E+03	4.585129E-03	1.342384E-04
3.776943E+03	4.586196E-03	1.342674E-04
3.786830E+03	4.586759E-03	1.342817E-04
3.796717E+03	4.587346E-03	1.342967E-04
3.806605E+03	4.588469E-03	1.343274E-04
3.816492E+03	4.589125E-03	1.343444E-04
3.826379E+03	4.590336E-03	1.343776E-04
3.836267E+03	4.591605E-03	1.344126E-04
3.846154E+03	4.592940E-03	1.344495E-04
3.856041E+03	4.593855E-03	1.344740E-04
3.865928E+03	4.595358E-03	1.345158E-04
3.875816E+03	4.596960E-03	1.345605E-04
3.885703E+03	4.598666E-03	1.346082E-04
3.895590E+03	4.600492E-03	1.346594E-04
3.905478E+03	4.602441E-03	1.347142E-04
3.915365E+03	4.605018E-03	1.347874E-04
3.925252E+03	4.607248E-03	1.348504E-04
3.935139E+03	4.609631E-03	1.349179E-04
3.945027E+03	4.612176E-03	1.349901E-04
3.954914E+03	4.614894E-03	1.350674E-04
3.964801E+03	4.618278E-03	1.351642E-04
3.974689E+03	4.621362E-03	1.352521E-04
3.984576E+03	4.624645E-03	1.353459E-04
3.994463E+03	4.628612E-03	1.354598E-04
4.004350E+03	4.632308E-03	1.355656E-04
4.014238E+03	4.636225E-03	1.356780E-04
4.024125E+03	4.640846E-03	1.358109E-04
4.034012E+03	4.645221E-03	1.359366E-04
4.043900E+03	4.650310E-03	1.360832E-04
4.053787E+03	4.655170E-03	1.362231E-04
4.063674E+03	4.660281E-03	1.363703E-04
4.073561E+03	4.666118E-03	1.365388E-04
4.083449E+03	4.671743E-03	1.367011E-04
4.093336E+03	4.677631E-03	1.368710E-04
4.103223E+03	4.684258E-03	1.370626E-04
4.113111E+03	4.690681E-03	1.372482E-04
4.122998E+03	4.697374E-03	1.374417E-04
4.132885E+03	4.704336E-03	1.376430E-04
4.142772E+03	4.712039E-03	1.378660E-04
4.152660E+03	4.719539E-03	1.380830E-04
4.162547E+03	4.727305E-03	1.383079E-04
4.172434E+03	4.735333E-03	1.385404E-04
4.182322E+03	4.743619E-03	1.387804E-04
4.192209E+03	4.752155E-03	1.390277E-04
4.202096E+03	4.760936E-03	1.392822E-04
4.211983E+03	4.769955E-03	1.395437E-04
4.221871E+03	4.779200E-03	1.398117E-04
4.231758E+03	4.788197E-03	1.400725E-04
4.241645E+03	4.797865E-03	1.403529E-04
4.251533E+03	4.807730E-03	1.406391E-04
4.261420E+03	4.817316E-03	1.409170E-04
4.271307E+03	4.827536E-03	1.412135E-04
4.281194E+03	4.837455E-03	1.415012E-04
4.291082E+03	4.847522E-03	1.417933E-04
4.300969E+03	4.857726E-03	1.420893E-04
4.310856E+03	4.868055E-03	1.423889E-04
4.320744E+03	4.878498E-03	1.426919E-04
4.330631E+03	4.889045E-03	1.429980E-04
4.340518E+03	4.899688E-03	1.433068E-04
4.350405E+03	4.910419E-03	1.436182E-04
4.360293E+03	4.920766E-03	1.439183E-04
4.370180E+03	4.931646E-03	1.442340E-04
4.380067E+03	4.942127E-03	1.445380E-04
4.389955E+03	4.952666E-03	1.448438E-04
4.399842E+03	4.963250E-03	1.451508E-04
4.409729E+03	4.973876E-03	1.454591E-04
4.419616E+03	4.984532E-03	1.457682E-04
4.429504E+03	4.995207E-03	1.460779E-04
4.439391E+03	5.005889E-03	1.463878E-04
4.449278E+03	5.016108E-03	1.466841E-04
4.459166E+03	5.026306E-03	1.469798E-04
4.469053E+03	5.036469E-03	1.472744E-04
4.478940E+03	5.046578E-03	1.475675E-04
4.488827E+03	5.056610E-03	1.478584E-04
4.498715E+03	5.066547E-03	1.481464E-04
4.508602E+03	5.076363E-03	1.484309E-04
4.518489E+03	5.085574E-03	1.486977E-04
4.528377E+03	5.094613E-03	1.489594E-04
4.538264E+03	5.103451E-03	1.492153E-04
4.548151E+03	5.112058E-03	1.494644E-04
4.558038E+03	5.120403E-03	1.497059E-04
4.567926E+03	5.128458E-03	1.499389E-04
4.577813E+03	5.135732E-03	1.501491E-04
4.587700E+03	5.142652E-03	1.503488E-04
4.597588E+03	5.149189E-03	1.505374E-04
4.607475E+03	5.155309E-03	1.507138E-04
4.617362E+03	5.160988E-03	1.508773E-04
4.627249E+03	5.165739E-03	1.510137E-04
4.637137E+03	5.170450E-03	1.511490E-04
4.647024E+03	5.174189E-03	1.512557E-04
4.656911E+03	5.177392E-03	1.513469E-04
4.666798E+03	5.180044E-03	1.514219E-04
4.676686E+03	5.181681E-03	1.514673E-04
4.686573E+03	5.183203E-03	1.515093E-04
4.696460E+03	5.183702E-03	1.515214E-04
4.706348E+03	5.183633E-03	1.515170E-04
4.716235E+03	5.182555E-03	1.514830E-04
4.726122E+03	5.181379E-03	1.514462E-04
4.736009E+03	5.179222E-03	1.513807E-04
4.745897E+03	5.176998E-03	1.513133E-04
4.755784E+03	5.173834E-03	1.512184E-04
4.765671E+03	5.169761E-03	1.510969E-04
4.775559E+03	5.165686E-03	1.509754E-04
4.785446E+03	5.160753E-03	1.508288E-04
4.795333E+03	5.155425E-03	1.506708E-04
4.805220E+03	5.149730E-03	1.505020E-04
4.815108E+03	5.143689E-03	1.503230E-04
4.824995E+03	5.136889E-03	1.501220E-04
4.834882E+03	5.130221E-03	1.499248E-04
4.844770E+03	5.122829E-03	1.497064E-04
4.854657E+03	5.114734E-03	1.494676E-04
4.864544E+03	5.106809E-03	1.492337E-04
4.874431E+03	5.098203E-03	1.489799E-04
4.884319E+03	5.089777E-03	1.487314E-04
4.894206E+03	5.080678E-03	1.484632E-04
4.904093E+03	5.070910E-03	1.481755E-04
4.913981E+03	5.061317E-03	1.478930E-04
4.923868E+03	5.051051E-03	1.475908E-04
4.933755E+03	5.040521E-03	1.472809E-04
4.943642E+03	5.029720E-03	1.469631E-04
4.953530E+03	5.018633E-03	1.466370E-04
4.963417E+03	5.006830E-03	1.462900E-04
4.973304E+03	4.994712E-03	1.459338E-04
4.983192E+03	4.982259E-03	1.455678E-04
4.993079E+03	4.969455E-03	1.451915E-04
5.002966E+03	4.955867E-03	1.447924E-04
5.012853E+03	4.941885E-03	1.443818E-04
5.022741E+03	4.927487E-03	1.439591E-04
5.032628E+03	4.912648E-03	1.435235E-04
5.042515E+03	4.897345E-03	1.430744E-04
5.052403E+03	4.881149E-03	1.425992E-04
5.062290E+03	4.864439E-03	1.421090E-04
5.072177E+03	4.847195E-03	1.416032E-04
5.082064E+03	4.829382E-03	1.410809E-04
5.091952E+03	4.810584E-03	1.405298E-04
5.101839E+03	4.791565E-03	1.399722E-04
5.111726E+03	4.771510E-03	1.393844E-04
5.121614E+03	4.750403E-03	1.387659E-04
5.131501E+03	4.728992E-03	1.381386E-04
5.141388E+03	4.706484E-03	1.374792E-04
5.151275E+03	4.683243E-03	1.367985E-04
5.161163E+03	4.659249E-03	1.360958E-04
5.171050E+03	4.634479E-03	1.353705E-04
5.180937E+03	4.608548E-03	1.346112E-04
5.190825E+03	4.582188E-03	1.338395E-04
5.200712E+03	4.554643E-03	1.330332E-04
5.210599E+03	4.525918E-03	1.321925E-04
5.220486E+03	4.496737E-03	1.313384E-04
5.230374E+03	4.466372E-03	1.304499E-04
5.240261E+03	4.435191E-03	1.295375E-04
5.250148E+03	4.403197E-03	1.286014E-04
5.260036E+03	4.370405E-03	1.276421E-04
5.269923E+03	4.336825E-03	1.266597E-04
5.279810E+03	4.302125E-03	1.256447E-04
5.289697E+03	4.266677E-03	1.246079E-04
5.299585E+03	4.230503E-03	1.235499E-04
5.309472E+03	4.193289E-03	1.224616E-04
5.319359E+03	4.155734E-03	1.213634E-04
5.329247E+03	4.117200E-03	1.202365E-04
5.339134E+03	4.078050E-03	1.190918E-04
5.349021E+03	4.038319E-03	1.179301E-04
5.358908E+03	3.998037E-03	1.167524E-04
5.368796E+03	3.956930E-03	1.155506E-04
5.378683E+03	3.915359E-03	1.143353E-04
5.388570E+03	3.873368E-03	1.131078E-04
5.398458E+03	3.831003E-03	1.118694E-04
5.408345E+03	3.788317E-03	1.106216E-04
5.418232E+03	3.745065E-03	1.093574E-04
5.428119E+03	3.701607E-03	1.080872E-04
5.438007E+03	3.658004E-03	1.068128E-04
5.447894E+03	3.614316E-03	1.055359E-04
5.457781E+03	3.570607E-03	1.042585E-04
5.467669E+03	3.526664E-03	1.029743E-04
5.477556E+03	3.483118E-03	1.017017E-04
5.487443E+03	3.439476E-03	1.004263E-04
5.497330E+03	3.396093E-03	9.915856E-05
5.507218E+03	3.352765E-03	9.789246E-05
5.517105E+03	3.310101E-03	9.664576E-05
5.526992E+03	3.267637E-03	9.540493E-05
5.536880E+03	3.225709E-03	9.417978E-05
5.546767E+03	3.184382E-03	9.297223E-05
5.556654E+03	3.143722E-03	9.178416E-05
5.566541E+03	3.103789E-03	9.061737E-05
5.576429E+03	3.064405E-03	8.946662E-05
5.586316E+03	3.026113E-03	8.834780E-05
5.596203E+03	2.988492E-03	8.724860E-05
5.606091E+03	2.951839E-03	8.617767E-05
5.615978E+03	2.916200E-03	8.513640E-05
5.625865E+03	2.881398E-03	8.411958E-05
5.635752E+03	2.847934E-03	8.314182E-05
5.645640E+03	2.815396E-03	8.219116E-05
5.655527E+03	2.784047E-03	8.127520E-05
5.665414E+03	2.753920E-03	8.039497E-05
5.675302E+03	2.725045E-03	7.955131E-05
5.685189E+03	2.697447E-03	7.874493E-05
5.695076E+03	2.670935E-03	7.797029E-05
5.704963E+03	2.645955E-03	7.724041E-05
5.714851E+03	2.622102E-03	7.654342E-05
5.724738E+03	2.599600E-03	7.588588E-05
5.734625E+03	2.578459E-03	7.526812E-05
5.744513E+03	2.558690E-03	7.469040E-05
5.754400E+03	2.540299E-03	7.415296E-05
5.764287E+03	2.523097E-03	7.365021E-05
5.774174E+03	2.507291E-03	7.318823E-05
5.784062E+03	2.493085E-03	7.277296E-05
5.793949E+03	2.480091E-03	7.239310E-05
5.803836E+03	2.468516E-03	7.205466E-05
5.813724E+03	2.458368E-03	7.175791E-05
5.823611E+03	2.449467E-03	7.149755E-05
5.833498E+03	2.442212E-03	7.128525E-05
5.843385E+03	2.436233E-03	7.111019E-05
5.853273E+03	2.431931E-03	7.098412E-05
5.863160E+03	2.428944E-03	7.089641E-05
5.873047E+03	2.427486E-03	7.085335E-05
5.882935E+03	2.427581E-03	7.085566E-05
5.892822E+03	2.429260E-03	7.090416E-05
5.902709E+03	2.432359E-03	7.099415E-05
5.912596E+03	2.437296E-03	7.113776E-05
5.922484E+03	2.443720E-03	7.132480E-05
5.932371E+03	2.452054E-03	7.156759E-05
5.942258E+03	2.461949E-03	7.185595E-05
5.952146E+03	2.473637E-03	7.219664E-05
5.962033E+03	2.487158E-03	7.259083E-05
5.971920E+03	2.502550E-03	7.303964E-05
5.981807E+03	2.519852E-03	7.354420E-05
5.991695E+03	2.538900E-03	7.409971E-05
6.001582E+03	2.560127E-03	7.471882E-05
6.011469E+03	2.583364E-03	7.539661E-05
6.021357E+03	2.608430E-03	7.612778E-05
6.031244E+03	2.635547E-03	7.691879E-05
6.041131E+03	2.664936E-03	7.777614E-05
6.051018E+03	2.696179E-03	7.868756E-05
6.060906E+03	2.729475E-03	7.965893E-05
6.070793E+03	2.764806E-03	8.068969E-05
6.080680E+03	2.801914E-03	8.177231E-05
6.090568E+03	2.841185E-03	8.291805E-05
6.100455E+03	2.882334E-03	8.411861E-05
6.110342E+03	2.925038E-03	8.536456E-05
6.120229E+03	2.969650E-03	8.666618E-05
6.130117E+03	3.015567E-03	8.800590E-05
6.140004E+03	3.063104E-03	8.939288E-05
6.149891E+03	3.111597E-03	9.080778E-05
6.159779E+03	3.161073E-03	9.225136E-05
6.169666E+03	3.211297E-03	9.371680E-05
6.179553E+03	3.262006E-03	9.519638E-05
6.189440E+03	3.312907E-03	9.668158E-05
6.199328E+03	3.363689E-03	9.816328E-05
6.209215E+03	3.414017E-03	9.963177E-05
6.219102E+03	3.463261E-03	1.010686E-04
6.228990E+03	3.511603E-03	1.024792E-04
6.238877E+03	3.558386E-03	1.038442E-04
6.248764E+03	3.602940E-03	1.051442E-04
6.258651E+03	3.645455E-03	1.063848E-04
6.268539E+03	3.684975E-03	1.075379E-04
6.278426E+03	3.721423E-03	1.086014E-04
6.288313E+03	3.754749E-03	1.095738E-04
6.298201E+03	3.784042E-03	1.104285E-04
6.308088E+03	3.809305E-03	1.111656E-04
6.317975E+03	3.830288E-03	1.117778E-04
6.327862E+03	3.846771E-03	1.122587E-04
6.337750E+03	3.858590E-03	1.126036E-04
6.347637E+03	3.865620E-03	1.128087E-04
6.357524E+03	3.867784E-03	1.128718E-04
6.367412E+03	3.864747E-03	1.127831E-04
6.377299E+03	3.857151E-03	1.125614E-04
6.387186E+03	3.844752E-03	1.121996E-04
6.397073E+03	3.827664E-03	1.117009E-04
6.406961E+03	3.805734E-03	1.110610E-04
6.416848E+03	3.779769E-03	1.103033E-04
6.426735E+03	3.749382E-03	1.094166E-04
6.436623E+03	3.715436E-03	1.084260E-04
6.446510E+03	3.677609E-03	1.073222E-04
6.456397E+03	3.636500E-03	1.061226E-04
6.466284E+03	3.592709E-03	1.048448E-04
6.476172E+03	3.545985E-03	1.034813E-04
6.486059E+03	3.496946E-03	1.020504E-04
6.495946E+03	3.445925E-03	1.005616E-04
6.505833E+03	3.393251E-03	9.902455E-05
6.515721E+03	3.339247E-03	9.744872E-05
6.525608E+03	3.284233E-03	9.584343E-05
6.535495E+03	3.228517E-03	9.421763E-05
6.545383E+03	3.172392E-03	9.257994E-05
6.555270E+03	3.116138E-03	9.093844E-05
6.565157E+03	3.060019E-03	8.930091E-05
6.575044E+03	3.004289E-03	8.767473E-05
6.584932E+03	2.949174E-03	8.606652E-05
6.594819E+03	2.894893E-03	8.448263E-05
6.604706E+03	2.841416E-03	8.292223E-05
6.614594E+03	2.789384E-03	8.140396E-05
6.624481E+03	2.738728E-03	7.992588E-05
6.634368E+03	2.689380E-03	7.848597E-05
6.644255E+03	2.641911E-03	7.710089E-05
6.654143E+03	2.596009E-03	7.576153E-05
6.664030E+03	2.552202E-03	7.448331E-05
6.673917E+03	2.510164E-03	7.325676E-05
6.683805E+03	2.470388E-03	7.209618E-05
6.693692E+03	2.432539E-03	7.099184E-05
6.703579E+03	2.397075E-03	6.995713E-05
6.713466E+03	2.363657E-03	6.898210E-05
6.723354E+03	2.332526E-03	6.807383E-05
6.733241E+03	2.303908E-03	6.723892E-05
6.743128E+03	2.277459E-03	6.646727E-05
6.753016E+03	2.253395E-03	6.576526E-05
6.762903E+03	2.231741E-03	6.513358E-05
6.772790E+03	2.212697E-03	6.457807E-05
6.782677E+03	2.195919E-03	6.408870E-05
6.792565E+03	2.181604E-03	6.367122E-05
6.802452E+03	2.169765E-03	6.332602E-05
6.812339E+03	2.160416E-03	6.305346E-05
6.822227E+03	2.153565E-03	6.285385E-05
6.832114E+03	2.149224E-03	6.272747E-05
6.842001E+03	2.147399E-03	6.267456E-05
6.851888E+03	2.148100E-03	6.269534E-05
6.861776E+03	2.151153E-03	6.278482E-05
6.871663E+03	2.156917E-03	6.295341E-05
6.881550E+03	2.165217E-03	6.319602E-05
6.891438E+03	2.176052E-03	6.351263E-05
6.901325E+03	2.189237E-03	6.389787E-05
6.911212E+03	2.205125E-03	6.436198E-05
6.921099E+03	2.223521E-03	6.489934E-05
6.930987E+03	2.244224E-03	6.550402E-05
6.940874E+03	2.267573E-03	6.618596E-05
6.950761E+03	2.293162E-03	6.693331E-05
6.960649E+03	2.321322E-03	6.775570E-05
6.970536E+03	2.351616E-03	6.864042E-05
6.980423E+03	2.384361E-03	6.959668E-05
6.990310E+03	2.419082E-03	7.061065E-05
7.000198E+03	2.455873E-03	7.168505E-05
7.010085E+03	2.494822E-03	7.282248E-05
7.019972E+03	2.535383E-03	7.400700E-05
7.029860E+03	2.577601E-03	7.523989E-05
7.039747E+03	2.621295E-03	7.651592E-05
7.049634E+03	2.666484E-03	7.783560E-05
7.059521E+03	2.712500E-03	7.917947E-05
7.069409E+03	2.759308E-03	8.054646E-05
7.079296E+03	2.806632E-03	8.192857E-05
7.089183E+03	2.854172E-03	8.331702E-05
7.099071E+03	2.901603E-03	8.470232E-05
7.108958E+03	2.948334E-03	8.606720E-05
7.118845E+03	2.994495E-03	8.741548E-05
7.128732E+03	3.039462E-03	8.872895E-05
7.138620E+03	3.082847E-03	8.999627E-05
7.148507E+03	3.124002E-03	9.119854E-05
7.158394E+03	3.163051E-03	9.233934E-05
7.168282E+03	3.199348E-03	9.339984E-05
7.178169E+03	3.232253E-03	9.436137E-05
7.188056E+03	3.261683E-03	9.522145E-05
7.197943E+03	3.287586E-03	9.597860E-05
7.207831E+03	3.309128E-03	9.660846E-05
7.217718E+03	3.326613E-03	9.711991E-05
7.227605E+03	3.339284E-03	9.749086E-05
7.237493E+03	3.347267E-03	9.772494E-05
7.247380E+03	3.350469E-03	9.781944E-05
7.257267E+03	3.348852E-03	9.777327E-05
7.267154E+03	3.342429E-03	9.758681E-05
7.277042E+03	3.331280E-03	9.726238E-05
7.286929E+03	3.315534E-03	9.680371E-05
7.296816E+03	3.295366E-03	9.621594E-05
7.306704E+03	3.271004E-03	9.550575E-05
7.316591E+03	3.242437E-03	9.467274E-05
7.326478E+03	3.210521E-03	9.374195E-05
7.336365E+03	3.175038E-03	9.270701E-05
7.346253E+03	3.136875E-03	9.159380E-05
7.356140E+03	3.095865E-03	9.039743E-05
7.366027E+03	3.052909E-03	8.914427E-05
7.375915E+03	3.007860E-03	8.782994E-05
7.385802E+03	2.961349E-03	8.647289E-05
7.395689E+03	2.913734E-03	8.508361E-05
7.405576E+03	2.865611E-03	8.367945E-05
7.415464E+03	2.816813E-03	8.225558E-05
7.425351E+03	2.767891E-03	8.082803E-05
7.435238E+03	2.718891E-03	7.939820E-05
7.445126E+03	2.670538E-03	7.798724E-05
7.455013E+03	2.622812E-03	7.659456E-05
7.464900E+03	2.575906E-03	7.522580E-05
7.474787E+03	2.529764E-03	7.387931E-05
7.484675E+03	2.484956E-03	7.257175E-05
7.494562E+03	2.441161E-03	7.129376E-05
7.504449E+03	2.398683E-03	7.005421E-05
7.514337E+03	2.357792E-03	6.886099E-05
7.524224E+03	2.318128E-03	6.770357E-05
7.534111E+03	2.279931E-03	6.658897E-05
7.543998E+03	2.243222E-03	6.551778E-05
7.553886E+03	2.208006E-03	6.449021E-05
7.563773E+03	2.174282E-03	6.350617E-05
7.573660E+03	2.141851E-03	6.255988E-05
7.583548E+03	2.111066E-03	6.166167E-05
7.593435E+03	2.081713E-03	6.080524E-05
7.603322E+03	2.053579E-03	5.998441E-05
7.613209E+03	2.026811E-03	5.920343E-05
7.623097E+03	2.001539E-03	5.846618E-05
7.632984E+03	1.977370E-03	5.776111E-05
7.642871E+03	1.954434E-03	5.709201E-05
7.652759E+03	1.932680E-03	5.645747E-05
7.662646E+03	1.912060E-03	5.585603E-05
7.672533E+03	1.892525E-03	5.528626E-05
