#wls	flux	fluxerr
1.581966E+03	2.727646E-03	1.682938E-04
1.621515E+03	2.789985E-03	1.721237E-04
1.661064E+03	2.852954E-03	1.759913E-04
1.700613E+03	2.916463E-03	1.798910E-04
1.740162E+03	2.979896E-03	1.837848E-04
1.779711E+03	3.044161E-03	1.877286E-04
1.819260E+03	3.108636E-03	1.916841E-04
1.858810E+03	3.173202E-03	1.956438E-04
1.898359E+03	3.238273E-03	1.996332E-04
1.937908E+03	3.303180E-03	2.036110E-04
1.977457E+03	3.367781E-03	2.075685E-04
2.017006E+03	3.431924E-03	2.114962E-04
2.056555E+03	3.496030E-03	2.154200E-04
2.096104E+03	3.559958E-03	2.193313E-04
2.135654E+03	3.622977E-03	2.231849E-04
2.175203E+03	3.684915E-03	2.269703E-04
2.214752E+03	3.746814E-03	2.307515E-04
2.254301E+03	3.807311E-03	2.344446E-04
2.293850E+03	3.866851E-03	2.380771E-04
2.333399E+03	3.925281E-03	2.416394E-04
2.372948E+03	3.982441E-03	2.451217E-04
2.412498E+03	4.038183E-03	2.485149E-04
2.452047E+03	4.092355E-03	2.518096E-04
2.491596E+03	4.144813E-03	2.549971E-04
2.531145E+03	4.196059E-03	2.581080E-04
2.570694E+03	4.245323E-03	2.610952E-04
2.610243E+03	4.292488E-03	2.639514E-04
2.649792E+03	4.338083E-03	2.667092E-04
2.689342E+03	4.381363E-03	2.693228E-04
2.728891E+03	4.422886E-03	2.718266E-04
2.768440E+03	4.462574E-03	2.742157E-04
2.807989E+03	4.500361E-03	2.764862E-04
2.847538E+03	4.535542E-03	2.785948E-04
2.887087E+03	4.569365E-03	2.806182E-04
2.926636E+03	4.600510E-03	2.824753E-04
2.966185E+03	4.629597E-03	2.842044E-04
2.976073E+03	4.636564E-03	2.846176E-04
2.985960E+03	4.643919E-03	2.850547E-04
2.995847E+03	4.650389E-03	2.854372E-04
3.005735E+03	4.657244E-03	2.858433E-04
3.015622E+03	4.663850E-03	2.862340E-04
3.025509E+03	4.670210E-03	2.866096E-04
3.035396E+03	4.676319E-03	2.869695E-04
3.045284E+03	4.682181E-03	2.873143E-04
3.055171E+03	4.688424E-03	2.876823E-04
3.065058E+03	4.694418E-03	2.880350E-04
3.074946E+03	4.700166E-03	2.883724E-04
3.084833E+03	4.705668E-03	2.886946E-04
3.094720E+03	4.711545E-03	2.890398E-04
3.104607E+03	4.716555E-03	2.893316E-04
3.114495E+03	4.721942E-03	2.896466E-04
3.124382E+03	4.727081E-03	2.899461E-04
3.134269E+03	4.731976E-03	2.902307E-04
3.144157E+03	4.737243E-03	2.905380E-04
3.154044E+03	4.742268E-03	2.908302E-04
3.163931E+03	4.746432E-03	2.910697E-04
3.173818E+03	4.750970E-03	2.913319E-04
3.183706E+03	4.755874E-03	2.916165E-04
3.193593E+03	4.759927E-03	2.918489E-04
3.203480E+03	4.764347E-03	2.921036E-04
3.213368E+03	4.768527E-03	2.923435E-04
3.223255E+03	4.772466E-03	2.925686E-04
3.233142E+03	4.776166E-03	2.927789E-04
3.243029E+03	4.780231E-03	2.930116E-04
3.252917E+03	4.783459E-03	2.931927E-04
3.262804E+03	4.787048E-03	2.933960E-04
3.272691E+03	4.790999E-03	2.936214E-04
3.282579E+03	4.794114E-03	2.937955E-04
3.292466E+03	4.796997E-03	2.939552E-04
3.302353E+03	4.800242E-03	2.941370E-04
3.312240E+03	4.803252E-03	2.943044E-04
3.322128E+03	4.806029E-03	2.944574E-04
3.332015E+03	4.809165E-03	2.946323E-04
3.341902E+03	4.811484E-03	2.947571E-04
3.351790E+03	4.814160E-03	2.949037E-04
3.361677E+03	4.816607E-03	2.950361E-04
3.371564E+03	4.818831E-03	2.951548E-04
3.381451E+03	4.821406E-03	2.952950E-04
3.391339E+03	4.823185E-03	2.953863E-04
3.401226E+03	4.825314E-03	2.954990E-04
3.411113E+03	4.827226E-03	2.955983E-04
3.421001E+03	4.828920E-03	2.956842E-04
3.430888E+03	4.830967E-03	2.957917E-04
3.440775E+03	4.832233E-03	2.958512E-04
3.450662E+03	4.833853E-03	2.959324E-04
3.460550E+03	4.835265E-03	2.960007E-04
3.470437E+03	4.836471E-03	2.960564E-04
3.480324E+03	4.837471E-03	2.960994E-04
3.490212E+03	4.838830E-03	2.961644E-04
3.500099E+03	4.839990E-03	2.962170E-04
3.509986E+03	4.840954E-03	2.962576E-04
3.519873E+03	4.841727E-03	2.962864E-04
3.529761E+03	4.842312E-03	2.963038E-04
3.539648E+03	4.843263E-03	2.963434E-04
3.549535E+03	4.843483E-03	2.963382E-04
3.559423E+03	4.844076E-03	2.963559E-04
3.569310E+03	4.844499E-03	2.963630E-04
3.579197E+03	4.844751E-03	2.963596E-04
3.589084E+03	4.845384E-03	2.963795E-04
3.598972E+03	4.845323E-03	2.963569E-04
3.608859E+03	4.845647E-03	2.963577E-04
3.618746E+03	4.845825E-03	2.963497E-04
3.628634E+03	4.845863E-03	2.963329E-04
3.638521E+03	4.845770E-03	2.963082E-04
3.648408E+03	4.846077E-03	2.963078E-04
3.658295E+03	4.845741E-03	2.962680E-04
3.668183E+03	4.845818E-03	2.962535E-04
3.678070E+03	4.845789E-03	2.962325E-04
3.687957E+03	4.845666E-03	2.962056E-04
3.697845E+03	4.845453E-03	2.961732E-04
3.707732E+03	4.845164E-03	2.961361E-04
3.717619E+03	4.845318E-03	2.961260E-04
3.727506E+03	4.844899E-03	2.960809E-04
3.737394E+03	4.844939E-03	2.960637E-04
3.747281E+03	4.844938E-03	2.960441E-04
3.757168E+03	4.844901E-03	2.960222E-04
3.767056E+03	4.844843E-03	2.959989E-04
3.776943E+03	4.845273E-03	2.960055E-04
3.786830E+03	4.845200E-03	2.959812E-04
3.796717E+03	4.845632E-03	2.959878E-04
3.806605E+03	4.845589E-03	2.959653E-04
3.816492E+03	4.846068E-03	2.959747E-04
3.826379E+03	4.846586E-03	2.959864E-04
3.836267E+03	4.847152E-03	2.960009E-04
3.846154E+03	4.847776E-03	2.960190E-04
3.856041E+03	4.848471E-03	2.960414E-04
3.865928E+03	4.849243E-03	2.960685E-04
3.875816E+03	4.850588E-03	2.961304E-04
3.885703E+03	4.851546E-03	2.961687E-04
3.895590E+03	4.853089E-03	2.962427E-04
3.905478E+03	4.854265E-03	2.962942E-04
3.915365E+03	4.856040E-03	2.963823E-04
3.925252E+03	4.857944E-03	2.964781E-04
3.935139E+03	4.859980E-03	2.965820E-04
3.945027E+03	4.862161E-03	2.966947E-04
3.954914E+03	4.864018E-03	2.967876E-04
3.964801E+03	4.866973E-03	2.969474E-04
3.974689E+03	4.869620E-03	2.970883E-04
3.984576E+03	4.872436E-03	2.972396E-04
3.994463E+03	4.875428E-03	2.974015E-04
4.004350E+03	4.878605E-03	2.975747E-04
4.014238E+03	4.881974E-03	2.977594E-04
4.024125E+03	4.885541E-03	2.979563E-04
4.034012E+03	4.889778E-03	2.981939E-04
4.043900E+03	4.893768E-03	2.984165E-04
4.053787E+03	4.897982E-03	2.986526E-04
4.063674E+03	4.902889E-03	2.989310E-04
4.073561E+03	4.907583E-03	2.991962E-04
4.083449E+03	4.912532E-03	2.994770E-04
4.093336E+03	4.918196E-03	2.998013E-04
4.103223E+03	4.923681E-03	3.001146E-04
4.113111E+03	4.929449E-03	3.004451E-04
4.122998E+03	4.935510E-03	3.007935E-04
4.132885E+03	4.942319E-03	3.011873E-04
4.142772E+03	4.948992E-03	3.015727E-04
4.152660E+03	4.955977E-03	3.019772E-04
4.162547E+03	4.963285E-03	3.024012E-04
4.172434E+03	4.970917E-03	3.028449E-04
4.182322E+03	4.978877E-03	3.033085E-04
4.192209E+03	4.987163E-03	3.037919E-04
4.202096E+03	4.995778E-03	3.042953E-04
4.211983E+03	5.004715E-03	3.048182E-04
4.221871E+03	5.013968E-03	3.053603E-04
4.231758E+03	5.023527E-03	3.059209E-04
4.241645E+03	5.032948E-03	3.064731E-04
4.251533E+03	5.043092E-03	3.070691E-04
4.261420E+03	5.053067E-03	3.076548E-04
4.271307E+03	5.063732E-03	3.082825E-04
4.281194E+03	5.074194E-03	3.088977E-04
4.291082E+03	5.084874E-03	3.095261E-04
4.300969E+03	5.095750E-03	3.101664E-04
4.310856E+03	5.106806E-03	3.108175E-04
4.320744E+03	5.118026E-03	3.114785E-04
4.330631E+03	5.128959E-03	3.121219E-04
4.340518E+03	5.140469E-03	3.128004E-04
4.350405E+03	5.151683E-03	3.134609E-04
4.360293E+03	5.163466E-03	3.141558E-04
4.370180E+03	5.174957E-03	3.148329E-04
4.380067E+03	5.186587E-03	3.155184E-04
4.389955E+03	5.198362E-03	3.162127E-04
4.399842E+03	5.209848E-03	3.168892E-04
4.409729E+03	5.221910E-03	3.176008E-04
4.419616E+03	5.233679E-03	3.182944E-04
4.429504E+03	5.245580E-03	3.189960E-04
4.439391E+03	5.257599E-03	3.197047E-04
4.449278E+03	5.269722E-03	3.204197E-04
4.459166E+03	5.281928E-03	3.211396E-04
4.469053E+03	5.293764E-03	3.218370E-04
4.478940E+03	5.305630E-03	3.225362E-04
4.488827E+03	5.317496E-03	3.232352E-04
4.498715E+03	5.329326E-03	3.239321E-04
4.508602E+03	5.341083E-03	3.246243E-04
4.518489E+03	5.352293E-03	3.252834E-04
4.528377E+03	5.363770E-03	3.259586E-04
4.538264E+03	5.374615E-03	3.265953E-04
4.548151E+03	5.384772E-03	3.271902E-04
4.558038E+03	5.395057E-03	3.277928E-04
4.567926E+03	5.404553E-03	3.283476E-04
4.577813E+03	5.413645E-03	3.288776E-04
4.587700E+03	5.422277E-03	3.293798E-04
4.597588E+03	5.430397E-03	3.298508E-04
4.607475E+03	5.437523E-03	3.302614E-04
4.617362E+03	5.444031E-03	3.306345E-04
4.627249E+03	5.449872E-03	3.309672E-04
4.637137E+03	5.454996E-03	3.312562E-04
4.647024E+03	5.458930E-03	3.314731E-04
4.656911E+03	5.462057E-03	3.316410E-04
4.666798E+03	5.464338E-03	3.317575E-04
4.676686E+03	5.465749E-03	3.318213E-04
4.686573E+03	5.465848E-03	3.318055E-04
4.696460E+03	5.465056E-03	3.317357E-04
4.706348E+03	5.463388E-03	3.316128E-04
4.716235E+03	5.460878E-03	3.314389E-04
4.726122E+03	5.457155E-03	3.311914E-04
4.736009E+03	5.452699E-03	3.308996E-04
4.745897E+03	5.447161E-03	3.305422E-04
4.755784E+03	5.441451E-03	3.301745E-04
4.765671E+03	5.434811E-03	3.297505E-04
4.775559E+03	5.427729E-03	3.292998E-04
4.785446E+03	5.419867E-03	3.288020E-04
4.795333E+03	5.412111E-03	3.283106E-04
4.805220E+03	5.403705E-03	3.277801E-04
4.815108E+03	5.394710E-03	3.272138E-04
4.824995E+03	5.385983E-03	3.266640E-04
4.834882E+03	5.376761E-03	3.260843E-04
4.844770E+03	5.367485E-03	3.255015E-04
4.854657E+03	5.357789E-03	3.248934E-04
4.864544E+03	5.348099E-03	3.242857E-04
4.874431E+03	5.338430E-03	3.236795E-04
4.884319E+03	5.328796E-03	3.230756E-04
4.894206E+03	5.318815E-03	3.224508E-04
4.904093E+03	5.308883E-03	3.218291E-04
4.913981E+03	5.299000E-03	3.212105E-04
4.923868E+03	5.288769E-03	3.205709E-04
4.933755E+03	5.278571E-03	3.199335E-04
4.943642E+03	5.268392E-03	3.192975E-04
4.953530E+03	5.258219E-03	3.186619E-04
4.963417E+03	5.247642E-03	3.180020E-04
4.973304E+03	5.237025E-03	3.173398E-04
4.983192E+03	5.225964E-03	3.166509E-04
4.993079E+03	5.215191E-03	3.159796E-04
5.002966E+03	5.203918E-03	3.152782E-04
5.012853E+03	5.192115E-03	3.145448E-04
5.022741E+03	5.180123E-03	3.138001E-04
5.032628E+03	5.168286E-03	3.130650E-04
5.042515E+03	5.155439E-03	3.122689E-04
5.052403E+03	5.142666E-03	3.114773E-04
5.062290E+03	5.129179E-03	3.106428E-04
5.072177E+03	5.115311E-03	3.097853E-04
5.082064E+03	5.100651E-03	3.088801E-04
5.091952E+03	5.085519E-03	3.079464E-04
5.101839E+03	5.069869E-03	3.069817E-04
5.111726E+03	5.053655E-03	3.059829E-04
5.121614E+03	5.036467E-03	3.049254E-04
5.131501E+03	5.018618E-03	3.038280E-04
5.141388E+03	5.000061E-03	3.026879E-04
5.151275E+03	4.980393E-03	3.014809E-04
5.161163E+03	4.959926E-03	3.002257E-04
5.171050E+03	4.938612E-03	2.989194E-04
5.180937E+03	4.916060E-03	2.975385E-04
5.190825E+03	4.892929E-03	2.961227E-04
5.200712E+03	4.868487E-03	2.946279E-04
5.210599E+03	4.842705E-03	2.930522E-04
5.220486E+03	4.815901E-03	2.914149E-04
5.230374E+03	4.788052E-03	2.897147E-04
5.240261E+03	4.759135E-03	2.879501E-04
5.250148E+03	4.729138E-03	2.861204E-04
5.260036E+03	4.697717E-03	2.842049E-04
5.269923E+03	4.665209E-03	2.822238E-04
5.279810E+03	4.631282E-03	2.801573E-04
5.289697E+03	4.596279E-03	2.780259E-04
5.299585E+03	4.560210E-03	2.758305E-04
5.309472E+03	4.523086E-03	2.735714E-04
5.319359E+03	4.484930E-03	2.712503E-04
5.329247E+03	4.445449E-03	2.688493E-04
5.339134E+03	4.404989E-03	2.663895E-04
5.349021E+03	4.363272E-03	2.638540E-04
5.358908E+03	4.320954E-03	2.612824E-04
5.368796E+03	4.277465E-03	2.586404E-04
5.378683E+03	4.233156E-03	2.559491E-04
5.388570E+03	4.187792E-03	2.531944E-04
5.398458E+03	4.141733E-03	2.503980E-04
5.408345E+03	4.095041E-03	2.475637E-04
5.418232E+03	4.047791E-03	2.446960E-04
5.428119E+03	4.000056E-03	2.417993E-04
5.438007E+03	3.951648E-03	2.388623E-04
5.447894E+03	3.902930E-03	2.359069E-04
5.457781E+03	3.853997E-03	2.329387E-04
5.467669E+03	3.804675E-03	2.299475E-04
5.477556E+03	3.755331E-03	2.269553E-04
5.487443E+03	3.706065E-03	2.239681E-04
5.497330E+03	3.656976E-03	2.209919E-04
5.507218E+03	3.607911E-03	2.180175E-04
5.517105E+03	3.559472E-03	2.150813E-04
5.526992E+03	3.511264E-03	2.121593E-04
5.536880E+03	3.463392E-03	2.092580E-04
5.546767E+03	3.416434E-03	2.064122E-04
5.556654E+03	3.370008E-03	2.035989E-04
5.566541E+03	3.324437E-03	2.008375E-04
5.576429E+03	3.279807E-03	1.981332E-04
5.586316E+03	3.236202E-03	1.954911E-04
5.596203E+03	3.193473E-03	1.929023E-04
5.606091E+03	3.151916E-03	1.903845E-04
5.615978E+03	3.111599E-03	1.879418E-04
5.625865E+03	3.072577E-03	1.855777E-04
5.635752E+03	3.034908E-03	1.832955E-04
5.645640E+03	2.998429E-03	1.810854E-04
5.655527E+03	2.963392E-03	1.789626E-04
5.665414E+03	2.929838E-03	1.769296E-04
5.675302E+03	2.897792E-03	1.749879E-04
5.685189E+03	2.867082E-03	1.731270E-04
5.695076E+03	2.837934E-03	1.713607E-04
5.704963E+03	2.810551E-03	1.697012E-04
5.714851E+03	2.784364E-03	1.681140E-04
5.724738E+03	2.759965E-03	1.666349E-04
5.734625E+03	2.737159E-03	1.652522E-04
5.744513E+03	2.715764E-03	1.639549E-04
5.754400E+03	2.695967E-03	1.627542E-04
5.764287E+03	2.677770E-03	1.616502E-04
5.774174E+03	2.661168E-03	1.606426E-04
5.784062E+03	2.645975E-03	1.597202E-04
5.793949E+03	2.632558E-03	1.589051E-04
5.803836E+03	2.620549E-03	1.581751E-04
5.813724E+03	2.610132E-03	1.575414E-04
5.823611E+03	2.601310E-03	1.570040E-04
5.833498E+03	2.594088E-03	1.565633E-04
5.843385E+03	2.588294E-03	1.562089E-04
5.853273E+03	2.584300E-03	1.559631E-04
5.863160E+03	2.581761E-03	1.558053E-04
5.873047E+03	2.580874E-03	1.557472E-04
5.882935E+03	2.581663E-03	1.557903E-04
5.892822E+03	2.584152E-03	1.559361E-04
5.902709E+03	2.588193E-03	1.561756E-04
5.912596E+03	2.594177E-03	1.565324E-04
5.922484E+03	2.601782E-03	1.569871E-04
5.932371E+03	2.611229E-03	1.575529E-04
5.942258E+03	2.622562E-03	1.582326E-04
5.952146E+03	2.635828E-03	1.590290E-04
5.962033E+03	2.651075E-03	1.599449E-04
5.971920E+03	2.668355E-03	1.609834E-04
5.981807E+03	2.687533E-03	1.621366E-04
5.991695E+03	2.708845E-03	1.634184E-04
6.001582E+03	2.732532E-03	1.648436E-04
6.011469E+03	2.758265E-03	1.663923E-04
6.021357E+03	2.786276E-03	1.680783E-04
6.031244E+03	2.816610E-03	1.699045E-04
6.041131E+03	2.849100E-03	1.718608E-04
6.051018E+03	2.884166E-03	1.739724E-04
6.060906E+03	2.921425E-03	1.762164E-04
6.070793E+03	2.961282E-03	1.786171E-04
6.080680E+03	3.003321E-03	1.811494E-04
6.090568E+03	3.047708E-03	1.838233E-04
6.100455E+03	3.094401E-03	1.866363E-04
6.110342E+03	3.143322E-03	1.895837E-04
6.120229E+03	3.194373E-03	1.926595E-04
6.130117E+03	3.247432E-03	1.958565E-04
6.140004E+03	3.302337E-03	1.991648E-04
6.149891E+03	3.358667E-03	2.025591E-04
6.159779E+03	3.416653E-03	2.060533E-04
6.169666E+03	3.475558E-03	2.096029E-04
6.179553E+03	3.535310E-03	2.132037E-04
6.189440E+03	3.595564E-03	2.168348E-04
6.199328E+03	3.655939E-03	2.204732E-04
6.209215E+03	3.716023E-03	2.240941E-04
6.219102E+03	3.775374E-03	2.276708E-04
6.228990E+03	3.833531E-03	2.311756E-04
6.238877E+03	3.890015E-03	2.345797E-04
6.248764E+03	3.944067E-03	2.378371E-04
6.258651E+03	3.995755E-03	2.409520E-04
6.268539E+03	4.044334E-03	2.438796E-04
6.278426E+03	4.089066E-03	2.465752E-04
6.288313E+03	4.129800E-03	2.490300E-04
6.298201E+03	4.166441E-03	2.512380E-04
6.308088E+03	4.198056E-03	2.531430E-04
6.317975E+03	4.224627E-03	2.547441E-04
6.327862E+03	4.245909E-03	2.560263E-04
6.337750E+03	4.261705E-03	2.569778E-04
6.347637E+03	4.271881E-03	2.575906E-04
6.357524E+03	4.276361E-03	2.578601E-04
6.367412E+03	4.275127E-03	2.577851E-04
6.377299E+03	4.268227E-03	2.573687E-04
6.387186E+03	4.255452E-03	2.565981E-04
6.397073E+03	4.237551E-03	2.555186E-04
6.406961E+03	4.214426E-03	2.541242E-04
6.416848E+03	4.186014E-03	2.524112E-04
6.426735E+03	4.153181E-03	2.504317E-04
6.436623E+03	4.115648E-03	2.481689E-04
6.446510E+03	4.074041E-03	2.456605E-04
6.456397E+03	4.028991E-03	2.429447E-04
6.466284E+03	3.980295E-03	2.400091E-04
6.476172E+03	3.928607E-03	2.368933E-04
6.486059E+03	3.874311E-03	2.336202E-04
6.495946E+03	3.818053E-03	2.302289E-04
6.505833E+03	3.759653E-03	2.267086E-04
6.515721E+03	3.699760E-03	2.230983E-04
6.525608E+03	3.638723E-03	2.194190E-04
6.535495E+03	3.576885E-03	2.156916E-04
6.545383E+03	3.514570E-03	2.119354E-04
6.555270E+03	3.452094E-03	2.081695E-04
6.565157E+03	3.389743E-03	2.044112E-04
6.575044E+03	3.327558E-03	2.006631E-04
6.584932E+03	3.266275E-03	1.969693E-04
6.594819E+03	3.205885E-03	1.933293E-04
6.604706E+03	3.146605E-03	1.897564E-04
6.614594E+03	3.088415E-03	1.862492E-04
6.624481E+03	3.031943E-03	1.828456E-04
6.634368E+03	2.977124E-03	1.795417E-04
6.644255E+03	2.923900E-03	1.763340E-04
6.654143E+03	2.872818E-03	1.732556E-04
6.664030E+03	2.823581E-03	1.702883E-04
6.673917E+03	2.776701E-03	1.674633E-04
6.683805E+03	2.731865E-03	1.647615E-04
6.693692E+03	2.689545E-03	1.622114E-04
6.703579E+03	2.649422E-03	1.597939E-04
6.713466E+03	2.611747E-03	1.575241E-04
6.723354E+03	2.576757E-03	1.554161E-04
6.733241E+03	2.544121E-03	1.534502E-04
6.743128E+03	2.514063E-03	1.516397E-04
6.753016E+03	2.486614E-03	1.499867E-04
6.762903E+03	2.461977E-03	1.485032E-04
6.772790E+03	2.439819E-03	1.471693E-04
6.782677E+03	2.420337E-03	1.459969E-04
6.792565E+03	2.403549E-03	1.449870E-04
6.802452E+03	2.389468E-03	1.441405E-04
6.812339E+03	2.378108E-03	1.434580E-04
6.822227E+03	2.369478E-03	1.429404E-04
6.832114E+03	2.363590E-03	1.425881E-04
6.842001E+03	2.360450E-03	1.424018E-04
6.851888E+03	2.360067E-03	1.423818E-04
6.861776E+03	2.362445E-03	1.425285E-04
6.871663E+03	2.367589E-03	1.428420E-04
6.881550E+03	2.375499E-03	1.433226E-04
6.891438E+03	2.386001E-03	1.439597E-04
6.901325E+03	2.399435E-03	1.447738E-04
6.911212E+03	2.415620E-03	1.457539E-04
6.921099E+03	2.434364E-03	1.468886E-04
6.930987E+03	2.455999E-03	1.481979E-04
6.940874E+03	2.480320E-03	1.496694E-04
6.950761E+03	2.507107E-03	1.512899E-04
6.960649E+03	2.536675E-03	1.530784E-04
6.970536E+03	2.568596E-03	1.550090E-04
6.980423E+03	2.603168E-03	1.570998E-04
6.990310E+03	2.639924E-03	1.593226E-04
7.000198E+03	2.678942E-03	1.616821E-04
7.010085E+03	2.720297E-03	1.641829E-04
7.019972E+03	2.763445E-03	1.667922E-04
7.029860E+03	2.808409E-03	1.695113E-04
7.039747E+03	2.855209E-03	1.723415E-04
7.049634E+03	2.903204E-03	1.752441E-04
7.059521E+03	2.952361E-03	1.782172E-04
7.069409E+03	3.002401E-03	1.812438E-04
7.079296E+03	3.053025E-03	1.843060E-04
7.089183E+03	3.103910E-03	1.873842E-04
7.099071E+03	3.154703E-03	1.904572E-04
7.108958E+03	3.205031E-03	1.935025E-04
7.118845E+03	3.254263E-03	1.964819E-04
7.128732E+03	3.302461E-03	1.993992E-04
7.138620E+03	3.348972E-03	2.022149E-04
7.148507E+03	3.393115E-03	2.048880E-04
7.158394E+03	3.434963E-03	2.074229E-04
7.168282E+03	3.473846E-03	2.097790E-04
7.178169E+03	3.509099E-03	2.119161E-04
7.188056E+03	3.540593E-03	2.138266E-04
7.197943E+03	3.568239E-03	2.155049E-04
7.207831E+03	3.591188E-03	2.168998E-04
7.217718E+03	3.609433E-03	2.180109E-04
7.227605E+03	3.622747E-03	2.188243E-04
7.237493E+03	3.630962E-03	2.193299E-04
7.247380E+03	3.633970E-03	2.195211E-04
7.257267E+03	3.631716E-03	2.193947E-04
7.267154E+03	3.624220E-03	2.189516E-04
7.277042E+03	3.611557E-03	2.181964E-04
7.286929E+03	3.593857E-03	2.171371E-04
7.296816E+03	3.571050E-03	2.157691E-04
7.306704E+03	3.543916E-03	2.141398E-04
7.316591E+03	3.512213E-03	2.122343E-04
7.326478E+03	3.476806E-03	2.101049E-04
7.336365E+03	3.437532E-03	2.077418E-04
7.346253E+03	3.395047E-03	2.051845E-04
7.356140E+03	3.349762E-03	2.024579E-04
7.366027E+03	3.302098E-03	1.995873E-04
7.375915E+03	3.252475E-03	1.965982E-04
7.385802E+03	3.201319E-03	1.935162E-04
7.395689E+03	3.149036E-03	1.903659E-04
7.405576E+03	3.096021E-03	1.871711E-04
7.415464E+03	3.042417E-03	1.839405E-04
7.425351E+03	2.989035E-03	1.807230E-04
7.435238E+03	2.935728E-03	1.775099E-04
7.445126E+03	2.883232E-03	1.743455E-04
7.455013E+03	2.831345E-03	1.712178E-04
7.464900E+03	2.780499E-03	1.681527E-04
7.474787E+03	2.730867E-03	1.651609E-04
7.484675E+03	2.682586E-03	1.622504E-04
7.494562E+03	2.635768E-03	1.594282E-04
7.504449E+03	2.590496E-03	1.566993E-04
7.514337E+03	2.546638E-03	1.540557E-04
7.524224E+03	2.504627E-03	1.515236E-04
7.534111E+03	2.464103E-03	1.490811E-04
7.543998E+03	2.425269E-03	1.467408E-04
7.553886E+03	2.388304E-03	1.445133E-04
7.563773E+03	2.352826E-03	1.423756E-04
7.573660E+03	2.318995E-03	1.403373E-04
7.583548E+03	2.286778E-03	1.383966E-04
7.593435E+03	2.255959E-03	1.365403E-04
7.603322E+03	2.226844E-03	1.347869E-04
7.613209E+03	2.199034E-03	1.331124E-04
7.623097E+03	2.172815E-03	1.315339E-04
7.632984E+03	2.147789E-03	1.300276E-04
7.642871E+03	2.124065E-03	1.286000E-04
7.652759E+03	2.101580E-03	1.272473E-04
7.662646E+03	2.080270E-03	1.259656E-04
7.672533E+03	2.060071E-03	1.247510E-04
