#wls	flux	fluxerr
1.581966E+03	1.901935E-03	9.398017E-05
1.621515E+03	1.945837E-03	9.612032E-05
1.661064E+03	1.990227E-03	9.828242E-05
1.700613E+03	2.035060E-03	1.004643E-04
1.740162E+03	2.081014E-03	1.026991E-04
1.779711E+03	2.127347E-03	1.049504E-04
1.819260E+03	2.174007E-03	1.072152E-04
1.858810E+03	2.221705E-03	1.095287E-04
1.898359E+03	2.269647E-03	1.118516E-04
1.937908E+03	2.317772E-03	1.141807E-04
1.977457E+03	2.366825E-03	1.165527E-04
2.017006E+03	2.415960E-03	1.189257E-04
2.056555E+03	2.465528E-03	1.213169E-04
2.096104E+03	2.515478E-03	1.237238E-04
2.135654E+03	2.565326E-03	1.261224E-04
2.175203E+03	2.615877E-03	1.285521E-04
2.214752E+03	2.666201E-03	1.309672E-04
2.254301E+03	2.717126E-03	1.334081E-04
2.293850E+03	2.767693E-03	1.358278E-04
2.333399E+03	2.818288E-03	1.382450E-04
2.372948E+03	2.868849E-03	1.406566E-04
2.412498E+03	2.919315E-03	1.430596E-04
2.452047E+03	2.970104E-03	1.454741E-04
2.491596E+03	3.020190E-03	1.478500E-04
2.531145E+03	3.069988E-03	1.502075E-04
2.570694E+03	3.119939E-03	1.525680E-04
2.610243E+03	3.168977E-03	1.548794E-04
2.649792E+03	3.218050E-03	1.571877E-04
2.689342E+03	3.266076E-03	1.594403E-04
2.728891E+03	3.314022E-03	1.616840E-04
2.768440E+03	3.361313E-03	1.638911E-04
2.807989E+03	3.407891E-03	1.660583E-04
2.847538E+03	3.454230E-03	1.682088E-04
2.887087E+03	3.499206E-03	1.702878E-04
2.926636E+03	3.543836E-03	1.723449E-04
2.966185E+03	3.587525E-03	1.743509E-04
2.976073E+03	3.598345E-03	1.748466E-04
2.985960E+03	3.609070E-03	1.753374E-04
2.995847E+03	3.619695E-03	1.758230E-04
3.005735E+03	3.630222E-03	1.763034E-04
3.015622E+03	3.640649E-03	1.767787E-04
3.025509E+03	3.651522E-03	1.772754E-04
3.035396E+03	3.661748E-03	1.777402E-04
3.045284E+03	3.671872E-03	1.781998E-04
3.055171E+03	3.682439E-03	1.786806E-04
3.065058E+03	3.692907E-03	1.791562E-04
3.074946E+03	3.702716E-03	1.795995E-04
3.084833E+03	3.712973E-03	1.800642E-04
3.094720E+03	3.723124E-03	1.805234E-04
3.104607E+03	3.733168E-03	1.809771E-04
3.114495E+03	3.743103E-03	1.814252E-04
3.124382E+03	3.752931E-03	1.818677E-04
3.134269E+03	3.762651E-03	1.823046E-04
3.144157E+03	3.772260E-03	1.827359E-04
3.154044E+03	3.781756E-03	1.831614E-04
3.163931E+03	3.791144E-03	1.835813E-04
3.173818E+03	3.800975E-03	1.840222E-04
3.183706E+03	3.810137E-03	1.844305E-04
3.193593E+03	3.819741E-03	1.848598E-04
3.203480E+03	3.828678E-03	1.852565E-04
3.213368E+03	3.838053E-03	1.856741E-04
3.223255E+03	3.847316E-03	1.860859E-04
3.233142E+03	3.855906E-03	1.864648E-04
3.243029E+03	3.864937E-03	1.868647E-04
3.252917E+03	3.873854E-03	1.872587E-04
3.262804E+03	3.882652E-03	1.876467E-04
3.272691E+03	3.891332E-03	1.880286E-04
3.282579E+03	3.899896E-03	1.884046E-04
3.292466E+03	3.908900E-03	1.888015E-04
3.302353E+03	3.917228E-03	1.891654E-04
3.312240E+03	3.925435E-03	1.895232E-04
3.322128E+03	3.934085E-03	1.899019E-04
3.332015E+03	3.942056E-03	1.902476E-04
3.341902E+03	3.950467E-03	1.906141E-04
3.351790E+03	3.958199E-03	1.909476E-04
3.361677E+03	3.966371E-03	1.913020E-04
3.371564E+03	3.973865E-03	1.916233E-04
3.381451E+03	3.981798E-03	1.919655E-04
3.391339E+03	3.989612E-03	1.923016E-04
3.401226E+03	3.997309E-03	1.926317E-04
3.411113E+03	4.004885E-03	1.929557E-04
3.421001E+03	4.012342E-03	1.932736E-04
3.430888E+03	4.019682E-03	1.935856E-04
3.440775E+03	4.026905E-03	1.938916E-04
3.450662E+03	4.034008E-03	1.941915E-04
3.460550E+03	4.040998E-03	1.944856E-04
3.470437E+03	4.048427E-03	1.948005E-04
3.480324E+03	4.055183E-03	1.950827E-04
3.490212E+03	4.061822E-03	1.953590E-04
3.500099E+03	4.068907E-03	1.956564E-04
3.509986E+03	4.075320E-03	1.959211E-04
3.519873E+03	4.082180E-03	1.962071E-04
3.529761E+03	4.088927E-03	1.964873E-04
3.539648E+03	4.095008E-03	1.967351E-04
3.549535E+03	4.101535E-03	1.970041E-04
3.559423E+03	4.107955E-03	1.972676E-04
3.569310E+03	4.113713E-03	1.974991E-04
3.579197E+03	4.119924E-03	1.977519E-04
3.589084E+03	4.126028E-03	1.979993E-04
3.598972E+03	4.132034E-03	1.982418E-04
3.608859E+03	4.137940E-03	1.984790E-04
3.618746E+03	4.143747E-03	1.987113E-04
3.628634E+03	4.149460E-03	1.989388E-04
3.638521E+03	4.155078E-03	1.991613E-04
3.648408E+03	4.160606E-03	1.993793E-04
3.658295E+03	4.166600E-03	1.996193E-04
3.668183E+03	4.171950E-03	1.998281E-04
3.678070E+03	4.177220E-03	2.000328E-04
3.687957E+03	4.182409E-03	2.002333E-04
3.697845E+03	4.188072E-03	2.004563E-04
3.707732E+03	4.193107E-03	2.006489E-04
3.717619E+03	4.198071E-03	2.008378E-04
3.727506E+03	4.203520E-03	2.010495E-04
3.737394E+03	4.208352E-03	2.012316E-04
3.747281E+03	4.213672E-03	2.014366E-04
3.757168E+03	4.218388E-03	2.016125E-04
3.767056E+03	4.223599E-03	2.018117E-04
3.776943E+03	4.228213E-03	2.019822E-04
3.786830E+03	4.233333E-03	2.021765E-04
3.796717E+03	4.237863E-03	2.023424E-04
3.806605E+03	4.242909E-03	2.025326E-04
3.816492E+03	4.247378E-03	2.026950E-04
3.826379E+03	4.252370E-03	2.028820E-04
3.836267E+03	4.257343E-03	2.030679E-04
3.846154E+03	4.261761E-03	2.032270E-04
3.856041E+03	4.266716E-03	2.034115E-04
3.865928E+03	4.271673E-03	2.035958E-04
3.875816E+03	4.276094E-03	2.037542E-04
3.885703E+03	4.281075E-03	2.039390E-04
3.895590E+03	4.286075E-03	2.041245E-04
3.905478E+03	4.290565E-03	2.042854E-04
3.915365E+03	4.295634E-03	2.044737E-04
3.925252E+03	4.300749E-03	2.046637E-04
3.935139E+03	4.305920E-03	2.048562E-04
3.945027E+03	4.310616E-03	2.050258E-04
3.954914E+03	4.315925E-03	2.052243E-04
3.964801E+03	4.321316E-03	2.054263E-04
3.974689E+03	4.326801E-03	2.056326E-04
3.984576E+03	4.331852E-03	2.058179E-04
3.994463E+03	4.337550E-03	2.060338E-04
4.004350E+03	4.343365E-03	2.062548E-04
4.014238E+03	4.348765E-03	2.064559E-04
4.024125E+03	4.354836E-03	2.066885E-04
4.034012E+03	4.361039E-03	2.069271E-04
4.043900E+03	4.366849E-03	2.071467E-04
4.053787E+03	4.373340E-03	2.073984E-04
4.063674E+03	4.379981E-03	2.076568E-04
4.073561E+03	4.386239E-03	2.078968E-04
4.083449E+03	4.393187E-03	2.081691E-04
4.093336E+03	4.399758E-03	2.084233E-04
4.103223E+03	4.407022E-03	2.087100E-04
4.113111E+03	4.413905E-03	2.089783E-04
4.122998E+03	4.421474E-03	2.092788E-04
4.132885E+03	4.428654E-03	2.095606E-04
4.142772E+03	4.436508E-03	2.098739E-04
4.152660E+03	4.443959E-03	2.101678E-04
4.162547E+03	4.452062E-03	2.104922E-04
4.172434E+03	4.459742E-03	2.107963E-04
4.182322E+03	4.467514E-03	2.111044E-04
4.192209E+03	4.475369E-03	2.114160E-04
4.202096E+03	4.483823E-03	2.117557E-04
4.211983E+03	4.491783E-03	2.120717E-04
4.221871E+03	4.499768E-03	2.123885E-04
4.231758E+03	4.507750E-03	2.127048E-04
4.241645E+03	4.515705E-03	2.130196E-04
4.251533E+03	4.523606E-03	2.133315E-04
4.261420E+03	4.531424E-03	2.136391E-04
4.271307E+03	4.539130E-03	2.139411E-04
4.281194E+03	4.546691E-03	2.142360E-04
4.291082E+03	4.554078E-03	2.145224E-04
4.300969E+03	4.561261E-03	2.147989E-04
4.310856E+03	4.567673E-03	2.150388E-04
4.320744E+03	4.574355E-03	2.152911E-04
4.330631E+03	4.580755E-03	2.155299E-04
4.340518E+03	4.586327E-03	2.157295E-04
4.350405E+03	4.592147E-03	2.159404E-04
4.360293E+03	4.597156E-03	2.161130E-04
4.370180E+03	4.601910E-03	2.162734E-04
4.380067E+03	4.606961E-03	2.164476E-04
4.389955E+03	4.611261E-03	2.165862E-04
4.399842E+03	4.615363E-03	2.167154E-04
4.409729E+03	4.619280E-03	2.168357E-04
4.419616E+03	4.623028E-03	2.169478E-04
4.429504E+03	4.626618E-03	2.170524E-04
4.439391E+03	4.630062E-03	2.171499E-04
4.449278E+03	4.633371E-03	2.172410E-04
4.459166E+03	4.636553E-03	2.173259E-04
4.469053E+03	4.639086E-03	2.173803E-04
4.478940E+03	4.642027E-03	2.174537E-04
4.488827E+03	4.644848E-03	2.175213E-04
4.498715E+03	4.647020E-03	2.175584E-04
4.508602E+03	4.649067E-03	2.175895E-04
4.518489E+03	4.651510E-03	2.176390E-04
4.528377E+03	4.653291E-03	2.176575E-04
4.538264E+03	4.654935E-03	2.176694E-04
4.548151E+03	4.656432E-03	2.176744E-04
4.558038E+03	4.657784E-03	2.176726E-04
4.567926E+03	4.658989E-03	2.176638E-04
4.577813E+03	4.660049E-03	2.176481E-04
4.587700E+03	4.660970E-03	2.176259E-04
4.597588E+03	4.661233E-03	2.175730E-04
4.607475E+03	4.661887E-03	2.175382E-04
4.617362E+03	4.661896E-03	2.174734E-04
4.627249E+03	4.662306E-03	2.174272E-04
4.637137E+03	4.662081E-03	2.173514E-04
4.647024E+03	4.661745E-03	2.172703E-04
4.656911E+03	4.661298E-03	2.171842E-04
4.666798E+03	4.660735E-03	2.170926E-04
4.676686E+03	4.660060E-03	2.169958E-04
4.686573E+03	4.659260E-03	2.168933E-04
4.696460E+03	4.657825E-03	2.167612E-04
4.706348E+03	4.656774E-03	2.166470E-04
4.716235E+03	4.655592E-03	2.165268E-04
4.726122E+03	4.653771E-03	2.163769E-04
4.736009E+03	4.651821E-03	2.162211E-04
4.745897E+03	4.649741E-03	2.160593E-04
4.755784E+03	4.648039E-03	2.159151E-04
4.765671E+03	4.645687E-03	2.157408E-04
4.775559E+03	4.642681E-03	2.155363E-04
4.785446E+03	4.640027E-03	2.153482E-04
4.795333E+03	4.637198E-03	2.151521E-04
4.805220E+03	4.634180E-03	2.149473E-04
4.815108E+03	4.630442E-03	2.147093E-04
4.824995E+03	4.626469E-03	2.144604E-04
4.834882E+03	4.622738E-03	2.142230E-04
4.844770E+03	4.618219E-03	2.139492E-04
4.854657E+03	4.613390E-03	2.136613E-04
4.864544E+03	4.608233E-03	2.133583E-04
4.874431E+03	4.602723E-03	2.130392E-04
4.884319E+03	4.596845E-03	2.127032E-04
4.894206E+03	4.590078E-03	2.123264E-04
4.904093E+03	4.583396E-03	2.119538E-04
4.913981E+03	4.575783E-03	2.115383E-04
4.923868E+03	4.567697E-03	2.111013E-04
4.933755E+03	4.559597E-03	2.106639E-04
4.943642E+03	4.550456E-03	2.101787E-04
4.953530E+03	4.540716E-03	2.096662E-04
4.963417E+03	4.530334E-03	2.091244E-04
4.973304E+03	4.518783E-03	2.085291E-04
4.983192E+03	4.506993E-03	2.079231E-04
4.993079E+03	4.494448E-03	2.072827E-04
5.002966E+03	4.480638E-03	2.065845E-04
5.012853E+03	4.466032E-03	2.058500E-04
5.022741E+03	4.451089E-03	2.051005E-04
5.032628E+03	4.434846E-03	2.042916E-04
5.042515E+03	4.417776E-03	2.034452E-04
5.052403E+03	4.399874E-03	2.025611E-04
5.062290E+03	4.381138E-03	2.016392E-04
5.072177E+03	4.361103E-03	2.006581E-04
5.082064E+03	4.340683E-03	1.996600E-04
5.091952E+03	4.318952E-03	1.986024E-04
5.101839E+03	4.296809E-03	1.975264E-04
5.111726E+03	4.273335E-03	1.963901E-04
5.121614E+03	4.248987E-03	1.952143E-04
5.131501E+03	4.223765E-03	1.939992E-04
5.141388E+03	4.197674E-03	1.927450E-04
5.151275E+03	4.170719E-03	1.914521E-04
5.161163E+03	4.142474E-03	1.901008E-04
5.171050E+03	4.113823E-03	1.887317E-04
5.180937E+03	4.084335E-03	1.873252E-04
5.190825E+03	4.053608E-03	1.858628E-04
5.200712E+03	4.022085E-03	1.843649E-04
5.210599E+03	3.989798E-03	1.828330E-04
5.220486E+03	3.956777E-03	1.812685E-04
5.230374E+03	3.923065E-03	1.796733E-04
5.240261E+03	3.888715E-03	1.780501E-04
5.250148E+03	3.853795E-03	1.764017E-04
5.260036E+03	3.818375E-03	1.747316E-04
5.269923E+03	3.782151E-03	1.730258E-04
5.279810E+03	3.746015E-03	1.713252E-04
5.289697E+03	3.709273E-03	1.695979E-04
5.299585E+03	3.672409E-03	1.678662E-04
5.309472E+03	3.635496E-03	1.661334E-04
5.319359E+03	3.598579E-03	1.644015E-04
5.329247E+03	3.561671E-03	1.626711E-04
5.339134E+03	3.524759E-03	1.609417E-04
5.349021E+03	3.487823E-03	1.592122E-04
5.358908E+03	3.450469E-03	1.574648E-04
5.368796E+03	3.413397E-03	1.557315E-04
5.378683E+03	3.375870E-03	1.539784E-04
5.388570E+03	3.338232E-03	1.522214E-04
5.398458E+03	3.300477E-03	1.504602E-04
5.408345E+03	3.262952E-03	1.487106E-04
5.418232E+03	3.225004E-03	1.469428E-04
5.428119E+03	3.186677E-03	1.451588E-04
5.438007E+03	3.148682E-03	1.433911E-04
5.447894E+03	3.110729E-03	1.416265E-04
5.457781E+03	3.072868E-03	1.398671E-04
5.467669E+03	3.034836E-03	1.381010E-04
5.477556E+03	2.997008E-03	1.363453E-04
5.487443E+03	2.959742E-03	1.346162E-04
5.497330E+03	2.922477E-03	1.328882E-04
5.507218E+03	2.885575E-03	1.311778E-04
5.517105E+03	2.849086E-03	1.294873E-04
5.526992E+03	2.813063E-03	1.278189E-04
5.536880E+03	2.777555E-03	1.261749E-04
5.546767E+03	2.742611E-03	1.245576E-04
5.556654E+03	2.707992E-03	1.229560E-04
5.566541E+03	2.674310E-03	1.213979E-04
5.576429E+03	2.641046E-03	1.198597E-04
5.586316E+03	2.608791E-03	1.183683E-04
5.596203E+03	2.577041E-03	1.169007E-04
5.606091E+03	2.546108E-03	1.154710E-04
5.615978E+03	2.516289E-03	1.140927E-04
5.625865E+03	2.487098E-03	1.127437E-04
5.635752E+03	2.458835E-03	1.114376E-04
5.645640E+03	2.431283E-03	1.101645E-04
5.655527E+03	2.404972E-03	1.089484E-04
5.665414E+03	2.379673E-03	1.077789E-04
5.675302E+03	2.355403E-03	1.066568E-04
5.685189E+03	2.331933E-03	1.055716E-04
5.695076E+03	2.309753E-03	1.045454E-04
5.704963E+03	2.288384E-03	1.035566E-04
5.714851E+03	2.268062E-03	1.026159E-04
5.724738E+03	2.249010E-03	1.017332E-04
5.734625E+03	2.230752E-03	1.008870E-04
5.744513E+03	2.213508E-03	1.000872E-04
5.754400E+03	2.197261E-03	9.933311E-05
5.764287E+03	2.181997E-03	9.862395E-05
5.774174E+03	2.167699E-03	9.795898E-05
5.784062E+03	2.154133E-03	9.732755E-05
5.793949E+03	2.141731E-03	9.674922E-05
5.803836E+03	2.130266E-03	9.621369E-05
5.813724E+03	2.119520E-03	9.571107E-05
5.823611E+03	2.109933E-03	9.526120E-05
5.833498E+03	2.101076E-03	9.484474E-05
5.843385E+03	2.093178E-03	9.447197E-05
5.853273E+03	2.086468E-03	9.415318E-05
5.863160E+03	2.080535E-03	9.386983E-05
5.873047E+03	2.075617E-03	9.363266E-05
5.882935E+03	2.071744E-03	9.344300E-05
5.892822E+03	2.068954E-03	9.330252E-05
5.902709E+03	2.067291E-03	9.321316E-05
5.912596E+03	2.066800E-03	9.317696E-05
5.922484E+03	2.067530E-03	9.319613E-05
5.932371E+03	2.069319E-03	9.326330E-05
5.942258E+03	2.072644E-03	9.340002E-05
5.952146E+03	2.077348E-03	9.359911E-05
5.962033E+03	2.083272E-03	9.385343E-05
5.971920E+03	2.090902E-03	9.418484E-05
5.981807E+03	2.099867E-03	9.457665E-05
5.991695E+03	2.110661E-03	9.505103E-05
6.001582E+03	2.122912E-03	9.559126E-05
6.011469E+03	2.136899E-03	9.620989E-05
6.021357E+03	2.152686E-03	9.690975E-05
6.031244E+03	2.170336E-03	9.769367E-05
6.041131E+03	2.190134E-03	9.857447E-05
6.051018E+03	2.211689E-03	9.953452E-05
6.060906E+03	2.235276E-03	1.005863E-04
6.070793E+03	2.260711E-03	1.017213E-04
6.080680E+03	2.288496E-03	1.029623E-04
6.090568E+03	2.318436E-03	1.043004E-04
6.100455E+03	2.350558E-03	1.057369E-04
6.110342E+03	2.384878E-03	1.072725E-04
6.120229E+03	2.421155E-03	1.088963E-04
6.130117E+03	2.459878E-03	1.106303E-04
6.140004E+03	2.500521E-03	1.124510E-04
6.149891E+03	2.543541E-03	1.143787E-04
6.159779E+03	2.588320E-03	1.163859E-04
6.169666E+03	2.635230E-03	1.184892E-04
6.179553E+03	2.683502E-03	1.206540E-04
6.189440E+03	2.733088E-03	1.228783E-04
6.199328E+03	2.783887E-03	1.251574E-04
6.209215E+03	2.834886E-03	1.274459E-04
6.219102E+03	2.885878E-03	1.297344E-04
6.228990E+03	2.936325E-03	1.319989E-04
6.238877E+03	2.985673E-03	1.342144E-04
6.248764E+03	3.033343E-03	1.363550E-04
6.258651E+03	3.078749E-03	1.383942E-04
6.268539E+03	3.121324E-03	1.403067E-04
6.278426E+03	3.160541E-03	1.420688E-04
6.288313E+03	3.195921E-03	1.436590E-04
6.298201E+03	3.227026E-03	1.450575E-04
6.308088E+03	3.253477E-03	1.462475E-04
6.317975E+03	3.274629E-03	1.471998E-04
6.327862E+03	3.290914E-03	1.479339E-04
6.337750E+03	3.301847E-03	1.484280E-04
6.347637E+03	3.307029E-03	1.486641E-04
6.357524E+03	3.307149E-03	1.486732E-04
6.367412E+03	3.301963E-03	1.484443E-04
6.377299E+03	3.291285E-03	1.479690E-04
6.387186E+03	3.276013E-03	1.472877E-04
6.397073E+03	3.255719E-03	1.463810E-04
6.406961E+03	3.231036E-03	1.452775E-04
6.416848E+03	3.202616E-03	1.440062E-04
6.426735E+03	3.170121E-03	1.425522E-04
6.436623E+03	3.134241E-03	1.409462E-04
6.446510E+03	3.095645E-03	1.392184E-04
6.456397E+03	3.054037E-03	1.373553E-04
6.466284E+03	3.010096E-03	1.353876E-04
6.476172E+03	2.964160E-03	1.333303E-04
6.486059E+03	2.916563E-03	1.311984E-04
6.495946E+03	2.867925E-03	1.290198E-04
6.505833E+03	2.817943E-03	1.267808E-04
6.515721E+03	2.767192E-03	1.245073E-04
6.525608E+03	2.715929E-03	1.222107E-04
6.535495E+03	2.664398E-03	1.199020E-04
6.545383E+03	2.612827E-03	1.175915E-04
6.555270E+03	2.561170E-03	1.152771E-04
6.565157E+03	2.510177E-03	1.129925E-04
6.575044E+03	2.459781E-03	1.107347E-04
6.584932E+03	2.410174E-03	1.085122E-04
6.594819E+03	2.361538E-03	1.063333E-04
6.604706E+03	2.313806E-03	1.041950E-04
6.614594E+03	2.267629E-03	1.021265E-04
6.624481E+03	2.222907E-03	1.001234E-04
6.634368E+03	2.179775E-03	9.819181E-05
6.644255E+03	2.138127E-03	9.632682E-05
6.654143E+03	2.098502E-03	9.455281E-05
6.664030E+03	2.060509E-03	9.285218E-05
6.673917E+03	2.024614E-03	9.124592E-05
6.683805E+03	1.990410E-03	8.971573E-05
6.693692E+03	1.958334E-03	8.828128E-05
6.703579E+03	1.927984E-03	8.692453E-05
6.713466E+03	1.899779E-03	8.566434E-05
6.723354E+03	1.873330E-03	8.448319E-05
6.733241E+03	1.849042E-03	8.339943E-05
6.743128E+03	1.826539E-03	8.239608E-05
6.753016E+03	1.806031E-03	8.148260E-05
6.762903E+03	1.787718E-03	8.066816E-05
6.772790E+03	1.771239E-03	7.993639E-05
6.782677E+03	1.756792E-03	7.929637E-05
6.792565E+03	1.744389E-03	7.874853E-05
6.802452E+03	1.734036E-03	7.829333E-05
6.812339E+03	1.725924E-03	7.793933E-05
6.822227E+03	1.719697E-03	7.767051E-05
6.832114E+03	1.715545E-03	7.749556E-05
6.842001E+03	1.713479E-03	7.741492E-05
6.851888E+03	1.713508E-03	7.742912E-05
6.861776E+03	1.715644E-03	7.753868E-05
6.871663E+03	1.719897E-03	7.774416E-05
6.881550E+03	1.726277E-03	7.804604E-05
6.891438E+03	1.734794E-03	7.844481E-05
6.901325E+03	1.745455E-03	7.894086E-05
6.911212E+03	1.758080E-03	7.952611E-05
6.921099E+03	1.773044E-03	8.021752E-05
6.930987E+03	1.790162E-03	8.100686E-05
6.940874E+03	1.809434E-03	8.189409E-05
6.950761E+03	1.830852E-03	8.287902E-05
6.960649E+03	1.854210E-03	8.395229E-05
6.970536E+03	1.879879E-03	8.513077E-05
6.980423E+03	1.907637E-03	8.640451E-05
6.990310E+03	1.937238E-03	8.776239E-05
7.000198E+03	1.969032E-03	8.922037E-05
7.010085E+03	2.002537E-03	9.075663E-05
7.019972E+03	2.038087E-03	9.238638E-05
7.029860E+03	2.075370E-03	9.409554E-05
7.039747E+03	2.114040E-03	9.586848E-05
7.049634E+03	2.154171E-03	9.770859E-05
7.059521E+03	2.195831E-03	9.961904E-05
7.069409E+03	2.238371E-03	1.015703E-04
7.079296E+03	2.282044E-03	1.035741E-04
7.089183E+03	2.326126E-03	1.055975E-04
7.099071E+03	2.370582E-03	1.076390E-04
7.108958E+03	2.415105E-03	1.096846E-04
7.118845E+03	2.459619E-03	1.117309E-04
7.128732E+03	2.503234E-03	1.137374E-04
7.138620E+03	2.545797E-03	1.156972E-04
7.148507E+03	2.586867E-03	1.175902E-04
7.158394E+03	2.625980E-03	1.193953E-04
7.168282E+03	2.662655E-03	1.210906E-04
7.178169E+03	2.696400E-03	1.226536E-04
7.188056E+03	2.726738E-03	1.240625E-04
7.197943E+03	2.753201E-03	1.252960E-04
7.207831E+03	2.775360E-03	1.263344E-04
7.217718E+03	2.792837E-03	1.271603E-04
7.227605E+03	2.805345E-03	1.277605E-04
7.237493E+03	2.812669E-03	1.281251E-04
7.247380E+03	2.814694E-03	1.282486E-04
7.257267E+03	2.811105E-03	1.281165E-04
7.267154E+03	2.802597E-03	1.277604E-04
7.277042E+03	2.789031E-03	1.271737E-04
7.286929E+03	2.770359E-03	1.263541E-04
7.296816E+03	2.747492E-03	1.253428E-04
7.306704E+03	2.720191E-03	1.241290E-04
7.316591E+03	2.689427E-03	1.227566E-04
7.326478E+03	2.655020E-03	1.212175E-04
7.336365E+03	2.617964E-03	1.195568E-04
7.346253E+03	2.578113E-03	1.177677E-04
7.356140E+03	2.536447E-03	1.158949E-04
7.366027E+03	2.492834E-03	1.139325E-04
7.375915E+03	2.447970E-03	1.119119E-04
7.385802E+03	2.402523E-03	1.098638E-04
7.395689E+03	2.356358E-03	1.077819E-04
7.405576E+03	2.310111E-03	1.056954E-04
7.415464E+03	2.264132E-03	1.036201E-04
7.425351E+03	2.218741E-03	1.015708E-04
7.435238E+03	2.174232E-03	9.956094E-05
7.445126E+03	2.130859E-03	9.760208E-05
7.455013E+03	2.088817E-03	9.570328E-05
7.464900E+03	2.048230E-03	9.387024E-05
7.474787E+03	2.009163E-03	9.210598E-05
7.484675E+03	1.971650E-03	9.041209E-05
7.494562E+03	1.935708E-03	8.878941E-05
7.504449E+03	1.901137E-03	8.722881E-05
7.514337E+03	1.868351E-03	8.574935E-05
7.524224E+03	1.837125E-03	8.434076E-05
7.534111E+03	1.807238E-03	8.299295E-05
7.543998E+03	1.779062E-03	8.172299E-05
7.553886E+03	1.752167E-03	8.051128E-05
7.563773E+03	1.726901E-03	7.937384E-05
7.573660E+03	1.702841E-03	7.829121E-05
7.583548E+03	1.680314E-03	7.727853E-05
7.593435E+03	1.658899E-03	7.631649E-05
7.603322E+03	1.638729E-03	7.541125E-05
7.613209E+03	1.619926E-03	7.456843E-05
7.623097E+03	1.602073E-03	7.376893E-05
7.632984E+03	1.585292E-03	7.301840E-05
7.642871E+03	1.569528E-03	7.231427E-05
7.652759E+03	1.554724E-03	7.165408E-05
7.662646E+03	1.540830E-03	7.103546E-05
7.672533E+03	1.527798E-03	7.045624E-05
