#wls	flux	fluxerr
1.581966E+03	1.036267E-03	1.895649E-04
1.621515E+03	1.060283E-03	1.939434E-04
1.661064E+03	1.084839E-03	1.984198E-04
1.700613E+03	1.110139E-03	2.030312E-04
1.740162E+03	1.136001E-03	2.077441E-04
1.779711E+03	1.162430E-03	2.125596E-04
1.819260E+03	1.189432E-03	2.174787E-04
1.858810E+03	1.217012E-03	2.225021E-04
1.898359E+03	1.245395E-03	2.276709E-04
1.937908E+03	1.274151E-03	2.329066E-04
1.977457E+03	1.303729E-03	2.382910E-04
2.017006E+03	1.334148E-03	2.438277E-04
2.056555E+03	1.364950E-03	2.494327E-04
2.096104E+03	1.396612E-03	2.551932E-04
2.135654E+03	1.428904E-03	2.610672E-04
2.175203E+03	1.461831E-03	2.670552E-04
2.214752E+03	1.495656E-03	2.732056E-04
2.254301E+03	1.530134E-03	2.794732E-04
2.293850E+03	1.565269E-03	2.858585E-04
2.333399E+03	1.601062E-03	2.923622E-04
2.372948E+03	1.637802E-03	2.990364E-04
2.412498E+03	1.674928E-03	3.057789E-04
2.452047E+03	1.713314E-03	3.127490E-04
2.491596E+03	1.752091E-03	3.197879E-04
2.531145E+03	1.791861E-03	3.270054E-04
2.570694E+03	1.832011E-03	3.342897E-04
2.610243E+03	1.873490E-03	3.418137E-04
2.649792E+03	1.915353E-03	3.494048E-04
2.689342E+03	1.958249E-03	3.571813E-04
2.728891E+03	2.001854E-03	3.650841E-04
2.768440E+03	2.046167E-03	3.731129E-04
2.807989E+03	2.091542E-03	3.813319E-04
2.847538E+03	2.137270E-03	3.896119E-04
2.887087E+03	2.184060E-03	3.980819E-04
2.926636E+03	2.231928E-03	4.067448E-04
2.966185E+03	2.280120E-03	4.154628E-04
2.976073E+03	2.292564E-03	4.177138E-04
2.985960E+03	2.304665E-03	4.199021E-04
2.995847E+03	2.316808E-03	4.220979E-04
3.005735E+03	2.329381E-03	4.243717E-04
3.015622E+03	2.341607E-03	4.265822E-04
3.025509E+03	2.354267E-03	4.288713E-04
3.035396E+03	2.366575E-03	4.310960E-04
3.045284E+03	2.379320E-03	4.334002E-04
3.055171E+03	2.391709E-03	4.356393E-04
3.065058E+03	2.404539E-03	4.379583E-04
3.074946E+03	2.417411E-03	4.402849E-04
3.084833E+03	2.429920E-03	4.425449E-04
3.094720E+03	2.442873E-03	4.448857E-04
3.104607E+03	2.455459E-03	4.471592E-04
3.114495E+03	2.468492E-03	4.495140E-04
3.124382E+03	2.481568E-03	4.518763E-04
3.134269E+03	2.494267E-03	4.541697E-04
3.144157E+03	2.507418E-03	4.565451E-04
3.154044E+03	2.520189E-03	4.588510E-04
3.163931E+03	2.533417E-03	4.612399E-04
3.173818E+03	2.546681E-03	4.636351E-04
3.183706E+03	2.559984E-03	4.660371E-04
3.193593E+03	2.572896E-03	4.683676E-04
3.203480E+03	2.586268E-03	4.707814E-04
3.213368E+03	2.599676E-03	4.732017E-04
3.223255E+03	2.612685E-03	4.755490E-04
3.233142E+03	2.626160E-03	4.779809E-04
3.243029E+03	2.639666E-03	4.804179E-04
3.252917E+03	2.653206E-03	4.828611E-04
3.262804E+03	2.666775E-03	4.853091E-04
3.272691E+03	2.679934E-03	4.876822E-04
3.282579E+03	2.693561E-03	4.901402E-04
3.292466E+03	2.707218E-03	4.926034E-04
3.302353E+03	2.720902E-03	4.950712E-04
3.312240E+03	2.734611E-03	4.975432E-04
3.322128E+03	2.748346E-03	5.000197E-04
3.332015E+03	2.761650E-03	5.024174E-04
3.341902E+03	2.775428E-03	5.049012E-04
3.351790E+03	2.789230E-03	5.073889E-04
3.361677E+03	2.803051E-03	5.098796E-04
3.371564E+03	2.816889E-03	5.123733E-04
3.381451E+03	2.830745E-03	5.148700E-04
3.391339E+03	2.844617E-03	5.173691E-04
3.401226E+03	2.858503E-03	5.198706E-04
3.411113E+03	2.872401E-03	5.223738E-04
3.421001E+03	2.886308E-03	5.248785E-04
3.430888E+03	2.900225E-03	5.273847E-04
3.440775E+03	2.913674E-03	5.298053E-04
3.450662E+03	2.927601E-03	5.323125E-04
3.460550E+03	2.941529E-03	5.348197E-04
3.470437E+03	2.955458E-03	5.373268E-04
3.480324E+03	2.969387E-03	5.398335E-04
3.490212E+03	2.983311E-03	5.423389E-04
3.500099E+03	2.997227E-03	5.448427E-04
3.509986E+03	3.011135E-03	5.473446E-04
3.519873E+03	3.025031E-03	5.498439E-04
3.529761E+03	3.038913E-03	5.523404E-04
3.539648E+03	3.052777E-03	5.548335E-04
3.549535E+03	3.066622E-03	5.573225E-04
3.559423E+03	3.080942E-03	5.598977E-04
3.569310E+03	3.094737E-03	5.623770E-04
3.579197E+03	3.108504E-03	5.648511E-04
3.589084E+03	3.122236E-03	5.673183E-04
3.598972E+03	3.135932E-03	5.697787E-04
3.608859E+03	3.149587E-03	5.722314E-04
3.618746E+03	3.163196E-03	5.746754E-04
3.628634E+03	3.176758E-03	5.771105E-04
3.638521E+03	3.190266E-03	5.795354E-04
3.648408E+03	3.203717E-03	5.819498E-04
3.658295E+03	3.217108E-03	5.843529E-04
3.668183E+03	3.230433E-03	5.867436E-04
3.678070E+03	3.243687E-03	5.891211E-04
3.687957E+03	3.256864E-03	5.914844E-04
3.697845E+03	3.269963E-03	5.938330E-04
3.707732E+03	3.282975E-03	5.961656E-04
3.717619E+03	3.296424E-03	5.985774E-04
3.727506E+03	3.309251E-03	6.008756E-04
3.737394E+03	3.321974E-03	6.031549E-04
3.747281E+03	3.334591E-03	6.054145E-04
3.757168E+03	3.347094E-03	6.076532E-04
3.767056E+03	3.359478E-03	6.098699E-04
3.776943E+03	3.371737E-03	6.120636E-04
3.786830E+03	3.383863E-03	6.142328E-04
3.796717E+03	3.395852E-03	6.163770E-04
3.806605E+03	3.407696E-03	6.184944E-04
3.816492E+03	3.419392E-03	6.205847E-04
3.826379E+03	3.430929E-03	6.226459E-04
3.836267E+03	3.442850E-03	6.247765E-04
3.846154E+03	3.454056E-03	6.267771E-04
3.856041E+03	3.465088E-03	6.287457E-04
3.865928E+03	3.475936E-03	6.306806E-04
3.875816E+03	3.486596E-03	6.325814E-04
3.885703E+03	3.497063E-03	6.344467E-04
3.895590E+03	3.507331E-03	6.362756E-04
3.905478E+03	3.517393E-03	6.380670E-04
3.915365E+03	3.527245E-03	6.398200E-04
3.925252E+03	3.536883E-03	6.415338E-04
3.935139E+03	3.546302E-03	6.432078E-04
3.945027E+03	3.555497E-03	6.448408E-04
3.954914E+03	3.564466E-03	6.464326E-04
3.964801E+03	3.573205E-03	6.479827E-04
3.974689E+03	3.581713E-03	6.494904E-04
3.984576E+03	3.589988E-03	6.509557E-04
3.994463E+03	3.598028E-03	6.523783E-04
4.004350E+03	3.605833E-03	6.537580E-04
4.014238E+03	3.613404E-03	6.550949E-04
4.024125E+03	3.620742E-03	6.563896E-04
4.034012E+03	3.627846E-03	6.576416E-04
4.043900E+03	3.634721E-03	6.588519E-04
4.053787E+03	3.641367E-03	6.600204E-04
4.063674E+03	3.647788E-03	6.611482E-04
4.073561E+03	3.653986E-03	6.622351E-04
4.083449E+03	3.659968E-03	6.632828E-04
4.093336E+03	3.665732E-03	6.642909E-04
4.103223E+03	3.671285E-03	6.652607E-04
4.113111E+03	3.676632E-03	6.661928E-04
4.122998E+03	3.681774E-03	6.670878E-04
4.132885E+03	3.686714E-03	6.679459E-04
4.142772E+03	3.691456E-03	6.687682E-04
4.152660E+03	3.695424E-03	6.694500E-04
4.162547E+03	3.699773E-03	6.702009E-04
4.172434E+03	3.703929E-03	6.709165E-04
4.182322E+03	3.707891E-03	6.715969E-04
4.192209E+03	3.711658E-03	6.722420E-04
4.202096E+03	3.715229E-03	6.728513E-04
4.211983E+03	3.718600E-03	6.734245E-04
4.221871E+03	3.721190E-03	6.738561E-04
4.231758E+03	3.724153E-03	6.743552E-04
4.241645E+03	3.726902E-03	6.748155E-04
4.251533E+03	3.729436E-03	6.752366E-04
4.261420E+03	3.731166E-03	6.755123E-04
4.271307E+03	3.733242E-03	6.758506E-04
4.281194E+03	3.735079E-03	6.761455E-04
4.291082E+03	3.736669E-03	6.763956E-04
4.300969E+03	3.737425E-03	6.764948E-04
4.310856E+03	3.738494E-03	6.766506E-04
4.320744E+03	3.739290E-03	6.767570E-04
4.330631E+03	3.739226E-03	6.767077E-04
4.340518E+03	3.739446E-03	6.767099E-04
4.350405E+03	3.739369E-03	6.766581E-04
4.360293E+03	3.738405E-03	6.764462E-04
4.370180E+03	3.737701E-03	6.762812E-04
4.380067E+03	3.736097E-03	6.759533E-04
4.389955E+03	3.734737E-03	6.756696E-04
4.399842E+03	3.732463E-03	6.752206E-04
4.409729E+03	3.730417E-03	6.748132E-04
4.419616E+03	3.727450E-03	6.742390E-04
4.429504E+03	3.724698E-03	6.737038E-04
4.439391E+03	3.721016E-03	6.730005E-04
4.449278E+03	3.717541E-03	6.723347E-04
4.459166E+03	3.713132E-03	6.715002E-04
4.469053E+03	3.708925E-03	6.707023E-04
4.478940E+03	3.703782E-03	6.697354E-04
4.488827E+03	3.698844E-03	6.688055E-04
4.498715E+03	3.692975E-03	6.677075E-04
4.508602E+03	3.686748E-03	6.665450E-04
4.518489E+03	3.680730E-03	6.654203E-04
4.528377E+03	3.673801E-03	6.641313E-04
4.538264E+03	3.666535E-03	6.627815E-04
4.548151E+03	3.659498E-03	6.614732E-04
4.558038E+03	3.651584E-03	6.600066E-04
4.567926E+03	3.643364E-03	6.584850E-04
4.577813E+03	3.634853E-03	6.569111E-04
4.587700E+03	3.626618E-03	6.553872E-04
4.597588E+03	3.617569E-03	6.537164E-04
4.607475E+03	3.608279E-03	6.520024E-04
4.617362E+03	3.598766E-03	6.502482E-04
4.627249E+03	3.589047E-03	6.484572E-04
4.637137E+03	3.579143E-03	6.466330E-04
4.647024E+03	3.569073E-03	6.447792E-04
4.656911E+03	3.558861E-03	6.428999E-04
4.666798E+03	3.548522E-03	6.409979E-04
4.676686E+03	3.538076E-03	6.390771E-04
4.686573E+03	3.528078E-03	6.372373E-04
4.696460E+03	3.516941E-03	6.351920E-04
4.706348E+03	3.506285E-03	6.332341E-04
4.716235E+03	3.495591E-03	6.312694E-04
4.726122E+03	3.484874E-03	6.293010E-04
4.736009E+03	3.474143E-03	6.273303E-04
4.745897E+03	3.463414E-03	6.253601E-04
4.755784E+03	3.452694E-03	6.233920E-04
4.765671E+03	3.441991E-03	6.214273E-04
4.775559E+03	3.431314E-03	6.194674E-04
4.785446E+03	3.420151E-03	6.174202E-04
4.795333E+03	3.409541E-03	6.154730E-04
4.805220E+03	3.398971E-03	6.135334E-04
4.815108E+03	3.388441E-03	6.116011E-04
4.824995E+03	3.377446E-03	6.095853E-04
4.834882E+03	3.367002E-03	6.076692E-04
4.844770E+03	3.356600E-03	6.057609E-04
4.854657E+03	3.345732E-03	6.037689E-04
4.864544E+03	3.335406E-03	6.018749E-04
4.874431E+03	3.324611E-03	5.998964E-04
4.884319E+03	3.314344E-03	5.980137E-04
4.894206E+03	3.304095E-03	5.961344E-04
4.904093E+03	3.293366E-03	5.941687E-04
4.913981E+03	3.283137E-03	5.922935E-04
4.923868E+03	3.272410E-03	5.903287E-04
4.933755E+03	3.261669E-03	5.883618E-04
4.943642E+03	3.251391E-03	5.864785E-04
4.953530E+03	3.240587E-03	5.845008E-04
4.963417E+03	3.230215E-03	5.826010E-04
4.973304E+03	3.219292E-03	5.806023E-04
4.983192E+03	3.208287E-03	5.785891E-04
4.993079E+03	3.197661E-03	5.766444E-04
5.002966E+03	3.186440E-03	5.745927E-04
5.012853E+03	3.175083E-03	5.725167E-04
5.022741E+03	3.163572E-03	5.704133E-04
5.032628E+03	3.152359E-03	5.683638E-04
5.042515E+03	3.140478E-03	5.661942E-04
5.052403E+03	3.128382E-03	5.639862E-04
5.062290E+03	3.116048E-03	5.617356E-04
5.072177E+03	3.103459E-03	5.594391E-04
5.082064E+03	3.090591E-03	5.570929E-04
5.091952E+03	3.077426E-03	5.546932E-04
5.101839E+03	3.063941E-03	5.522362E-04
5.111726E+03	3.050119E-03	5.497190E-04
5.121614E+03	3.035943E-03	5.471381E-04
5.131501E+03	3.021396E-03	5.444906E-04
5.141388E+03	3.006463E-03	5.417741E-04
5.151275E+03	2.991133E-03	5.389863E-04
5.161163E+03	2.975397E-03	5.361255E-04
5.171050E+03	2.959244E-03	5.331901E-04
5.180937E+03	2.942671E-03	5.301795E-04
5.190825E+03	2.925676E-03	5.270930E-04
5.200712E+03	2.907828E-03	5.238532E-04
5.210599E+03	2.889995E-03	5.206167E-04
5.220486E+03	2.871753E-03	5.173068E-04
5.230374E+03	2.853109E-03	5.139248E-04
5.240261E+03	2.833656E-03	5.103975E-04
5.250148E+03	2.814253E-03	5.068798E-04
5.260036E+03	2.794496E-03	5.032984E-04
5.269923E+03	2.773991E-03	4.995830E-04
5.279810E+03	2.753592E-03	4.958869E-04
5.289697E+03	2.732904E-03	4.921392E-04
5.299585E+03	2.711556E-03	4.882732E-04
5.309472E+03	2.690382E-03	4.844389E-04
5.319359E+03	2.668608E-03	4.804971E-04
5.329247E+03	2.647063E-03	4.765970E-04
5.339134E+03	2.624990E-03	4.726020E-04
5.349021E+03	2.603200E-03	4.686586E-04
5.358908E+03	2.580950E-03	4.646328E-04
5.368796E+03	2.558665E-03	4.606011E-04
5.378683E+03	2.536748E-03	4.566360E-04
5.388570E+03	2.514477E-03	4.526077E-04
5.398458E+03	2.492631E-03	4.486564E-04
5.408345E+03	2.470502E-03	4.446545E-04
5.418232E+03	2.448489E-03	4.406739E-04
5.428119E+03	2.426623E-03	4.367204E-04
5.438007E+03	2.405290E-03	4.328630E-04
5.447894E+03	2.383801E-03	4.289780E-04
5.457781E+03	2.362542E-03	4.251349E-04
5.467669E+03	2.341542E-03	4.213388E-04
5.477556E+03	2.320828E-03	4.175945E-04
5.487443E+03	2.300423E-03	4.139063E-04
5.497330E+03	2.280691E-03	4.103396E-04
5.507218E+03	2.260980E-03	4.067768E-04
5.517105E+03	2.241652E-03	4.032835E-04
5.526992E+03	2.222733E-03	3.998642E-04
5.536880E+03	2.204245E-03	3.965228E-04
5.546767E+03	2.186210E-03	3.932632E-04
5.556654E+03	2.168649E-03	3.900892E-04
5.566541E+03	2.151585E-03	3.870051E-04
5.576429E+03	2.135037E-03	3.840141E-04
5.586316E+03	2.119027E-03	3.811200E-04
5.596203E+03	2.103260E-03	3.782701E-04
5.606091E+03	2.088381E-03	3.755802E-04
5.615978E+03	2.074093E-03	3.729969E-04
5.625865E+03	2.060412E-03	3.705231E-04
5.635752E+03	2.047354E-03	3.681618E-04
5.645640E+03	2.034938E-03	3.659159E-04
5.655527E+03	2.022876E-03	3.637341E-04
5.665414E+03	2.011782E-03	3.617266E-04
5.675302E+03	2.001370E-03	3.598420E-04
5.685189E+03	1.991357E-03	3.580295E-04
5.695076E+03	1.982346E-03	3.563971E-04
5.704963E+03	1.974052E-03	3.548941E-04
5.714851E+03	1.966196E-03	3.534701E-04
5.724738E+03	1.959374E-03	3.522321E-04
5.734625E+03	1.953304E-03	3.511293E-04
5.744513E+03	1.947707E-03	3.501121E-04
5.754400E+03	1.943176E-03	3.492864E-04
5.764287E+03	1.939143E-03	3.485507E-04
5.774174E+03	1.936195E-03	3.480101E-04
5.784062E+03	1.933773E-03	3.475641E-04
5.793949E+03	1.932462E-03	3.473179E-04
5.803836E+03	1.931702E-03	3.471712E-04
5.813724E+03	1.932079E-03	3.472287E-04
5.823611E+03	1.933038E-03	3.473912E-04
5.833498E+03	1.934883E-03	3.477129E-04
5.843385E+03	1.937912E-03	3.482474E-04
5.853273E+03	1.941575E-03	3.488961E-04
5.863160E+03	1.946460E-03	3.497645E-04
5.873047E+03	1.952015E-03	3.507536E-04
5.882935E+03	1.958545E-03	3.519178E-04
5.892822E+03	1.966073E-03	3.532614E-04
5.902709E+03	1.974908E-03	3.548401E-04
5.912596E+03	1.984494E-03	3.565537E-04
5.922484E+03	1.995140E-03	3.584579E-04
5.932371E+03	2.006868E-03	3.605565E-04
5.942258E+03	2.019996E-03	3.629068E-04
5.952146E+03	2.033950E-03	3.654056E-04
5.962033E+03	2.049047E-03	3.681098E-04
5.971920E+03	2.065301E-03	3.710220E-04
5.981807E+03	2.082732E-03	3.741456E-04
5.991695E+03	2.101349E-03	3.774825E-04
6.001582E+03	2.121163E-03	3.810344E-04
6.011469E+03	2.142179E-03	3.848024E-04
6.021357E+03	2.164721E-03	3.888445E-04
6.031244E+03	2.188152E-03	3.930463E-04
6.041131E+03	2.212776E-03	3.974627E-04
6.051018E+03	2.238583E-03	4.020915E-04
6.060906E+03	2.265550E-03	4.069288E-04
6.070793E+03	2.293649E-03	4.119696E-04
6.080680E+03	2.322843E-03	4.172072E-04
6.090568E+03	2.352740E-03	4.225712E-04
6.100455E+03	2.383973E-03	4.281753E-04
6.110342E+03	2.416134E-03	4.339461E-04
6.120229E+03	2.449148E-03	4.398703E-04
6.130117E+03	2.482923E-03	4.459313E-04
6.140004E+03	2.517358E-03	4.521111E-04
6.149891E+03	2.552342E-03	4.583897E-04
6.159779E+03	2.587747E-03	4.647441E-04
6.169666E+03	2.623048E-03	4.710801E-04
6.179553E+03	2.658860E-03	4.775080E-04
6.189440E+03	2.694638E-03	4.839301E-04
6.199328E+03	2.730209E-03	4.903153E-04
6.209215E+03	2.764979E-03	4.965570E-04
6.219102E+03	2.799566E-03	5.027663E-04
6.228990E+03	2.833373E-03	5.088357E-04
6.238877E+03	2.866197E-03	5.147288E-04
6.248764E+03	2.897409E-03	5.203330E-04
6.258651E+03	2.927661E-03	5.257648E-04
6.268539E+03	2.956333E-03	5.309136E-04
6.278426E+03	2.982799E-03	5.356665E-04
6.288313E+03	3.007757E-03	5.401489E-04
6.298201E+03	3.030607E-03	5.442532E-04
6.308088E+03	3.050751E-03	5.478719E-04
6.317975E+03	3.068956E-03	5.511428E-04
6.327862E+03	3.084209E-03	5.538839E-04
6.337750E+03	3.097325E-03	5.562418E-04
6.347637E+03	3.107333E-03	5.580417E-04
6.357524E+03	3.115097E-03	5.594392E-04
6.367412E+03	3.119684E-03	5.602663E-04
6.377299E+03	3.122017E-03	5.606892E-04
6.387186E+03	3.121201E-03	5.605467E-04
6.397073E+03	3.118202E-03	5.600127E-04
6.406961E+03	3.112172E-03	5.589347E-04
6.416848E+03	3.104113E-03	5.574924E-04
6.426735E+03	3.093214E-03	5.555407E-04
6.436623E+03	3.080507E-03	5.532643E-04
6.446510E+03	3.065211E-03	5.505233E-04
6.456397E+03	3.048376E-03	5.475061E-04
6.466284E+03	3.029245E-03	5.440770E-04
6.476172E+03	3.008434E-03	5.403461E-04
6.486059E+03	2.986537E-03	5.364206E-04
6.495946E+03	2.962837E-03	5.321713E-04
6.505833E+03	2.937940E-03	5.277072E-04
6.515721E+03	2.912442E-03	5.231353E-04
6.525608E+03	2.885637E-03	5.183289E-04
6.535495E+03	2.858122E-03	5.133949E-04
6.545383E+03	2.830049E-03	5.083609E-04
6.555270E+03	2.801982E-03	5.033281E-04
6.565157E+03	2.773235E-03	4.981733E-04
6.575044E+03	2.744363E-03	4.929961E-04
6.584932E+03	2.715502E-03	4.878209E-04
6.594819E+03	2.687170E-03	4.827408E-04
6.604706E+03	2.658692E-03	4.776346E-04
6.614594E+03	2.630581E-03	4.725943E-04
6.624481E+03	2.602942E-03	4.676387E-04
6.634368E+03	2.575876E-03	4.627863E-04
6.644255E+03	2.549848E-03	4.581202E-04
6.654143E+03	2.524192E-03	4.535211E-04
6.664030E+03	2.499365E-03	4.490710E-04
6.673917E+03	2.475442E-03	4.447832E-04
6.683805E+03	2.452494E-03	4.406707E-04
6.693692E+03	2.430581E-03	4.367442E-04
6.703579E+03	2.409761E-03	4.330141E-04
6.713466E+03	2.390092E-03	4.294907E-04
6.723354E+03	2.371617E-03	4.261822E-04
6.733241E+03	2.354384E-03	4.230967E-04
6.743128E+03	2.338780E-03	4.203040E-04
6.753016E+03	2.324147E-03	4.176858E-04
6.762903E+03	2.310868E-03	4.153111E-04
6.772790E+03	2.298972E-03	4.131850E-04
6.782677E+03	2.288489E-03	4.113128E-04
6.792565E+03	2.279442E-03	4.096990E-04
6.802452E+03	2.271516E-03	4.082866E-04
6.812339E+03	2.265405E-03	4.072006E-04
6.822227E+03	2.260787E-03	4.063830E-04
6.832114E+03	2.257676E-03	4.058365E-04
6.842001E+03	2.256081E-03	4.055627E-04
6.851888E+03	2.256014E-03	4.055637E-04
6.861776E+03	2.257477E-03	4.058398E-04
6.871663E+03	2.260475E-03	4.063922E-04
6.881550E+03	2.265006E-03	4.072206E-04
6.891438E+03	2.271068E-03	4.083242E-04
6.901325E+03	2.278651E-03	4.097017E-04
6.911212E+03	2.287408E-03	4.112904E-04
6.921099E+03	2.298000E-03	4.132094E-04
6.930987E+03	2.310068E-03	4.153942E-04
6.940874E+03	2.323592E-03	4.178411E-04
6.950761E+03	2.338540E-03	4.205444E-04
6.960649E+03	2.354529E-03	4.234354E-04
6.970536E+03	2.372216E-03	4.266319E-04
6.980423E+03	2.391206E-03	4.300634E-04
6.990310E+03	2.411446E-03	4.337201E-04
7.000198E+03	2.432513E-03	4.375260E-04
7.010085E+03	2.455057E-03	4.415981E-04
7.019972E+03	2.478646E-03	4.458585E-04
7.029860E+03	2.503191E-03	4.502916E-04
7.039747E+03	2.528223E-03	4.548126E-04
7.049634E+03	2.554386E-03	4.595377E-04
7.059521E+03	2.581195E-03	4.643796E-04
7.069409E+03	2.608139E-03	4.692464E-04
7.079296E+03	2.635861E-03	4.742538E-04
7.089183E+03	2.663440E-03	4.792359E-04
7.099071E+03	2.691517E-03	4.843084E-04
7.108958E+03	2.719544E-03	4.893724E-04
7.118845E+03	2.746952E-03	4.943258E-04
7.128732E+03	2.774389E-03	4.992848E-04
7.138620E+03	2.800859E-03	5.040706E-04
7.148507E+03	2.827023E-03	5.088018E-04
7.158394E+03	2.852292E-03	5.133726E-04
7.168282E+03	2.876067E-03	5.176751E-04
7.178169E+03	2.899029E-03	5.218319E-04
7.188056E+03	2.920160E-03	5.256595E-04
7.197943E+03	2.940166E-03	5.292852E-04
7.207831E+03	2.958029E-03	5.325258E-04
7.217718E+03	2.974493E-03	5.355149E-04
7.227605E+03	2.988553E-03	5.380715E-04
7.237493E+03	3.000990E-03	5.403366E-04
7.247380E+03	3.010822E-03	5.421330E-04
7.257267E+03	3.018423E-03	5.435280E-04
7.267154E+03	3.024190E-03	5.445930E-04
7.277042E+03	3.027186E-03	5.451594E-04
7.286929E+03	3.028299E-03	5.453869E-04
7.296816E+03	3.026627E-03	5.451131E-04
7.306704E+03	3.022644E-03	5.444231E-04
7.316591E+03	3.016841E-03	5.434055E-04
7.326478E+03	3.008368E-03	5.419071E-04
7.336365E+03	2.998201E-03	5.401035E-04
7.346253E+03	2.985525E-03	5.378479E-04
7.356140E+03	2.970885E-03	5.352385E-04
7.366027E+03	2.954834E-03	5.323748E-04
7.375915E+03	2.936601E-03	5.291179E-04
7.385802E+03	2.916755E-03	5.255701E-04
7.395689E+03	2.895424E-03	5.217546E-04
7.405576E+03	2.873175E-03	5.177734E-04
7.415464E+03	2.849275E-03	5.134946E-04
7.425351E+03	2.824295E-03	5.090207E-04
7.435238E+03	2.798372E-03	5.043764E-04
7.445126E+03	2.772049E-03	4.996600E-04
7.455013E+03	2.744622E-03	4.947440E-04
7.464900E+03	2.716635E-03	4.897268E-04
7.474787E+03	2.688209E-03	4.846300E-04
7.484675E+03	2.659457E-03	4.794739E-04
7.494562E+03	2.630485E-03	4.742779E-04
7.504449E+03	2.601783E-03	4.691300E-04
7.514337E+03	2.572663E-03	4.639062E-04
7.524224E+03	2.543603E-03	4.586930E-04
7.534111E+03	2.514685E-03	4.535047E-04
7.543998E+03	2.485979E-03	4.483543E-04
7.553886E+03	2.457551E-03	4.432535E-04
7.563773E+03	2.429459E-03	4.382129E-04
7.573660E+03	2.401756E-03	4.332417E-04
7.583548E+03	2.374484E-03	4.283481E-04
7.593435E+03	2.347685E-03	4.235393E-04
7.603322E+03	2.321393E-03	4.188214E-04
7.613209E+03	2.295635E-03	4.141994E-04
7.623097E+03	2.270433E-03	4.096771E-04
7.632984E+03	2.245805E-03	4.052582E-04
7.642871E+03	2.221767E-03	4.009453E-04
7.652759E+03	2.198328E-03	3.967399E-04
7.662646E+03	2.175493E-03	3.926431E-04
7.672533E+03	2.153268E-03	3.886559E-04
