#wls	flux	fluxerr
1.600000E+03	6.010592E-17	0.000000E+00
1.640000E+03	6.197629E-17	0.000000E+00
1.680000E+03	6.399492E-17	0.000000E+00
1.720000E+03	6.616347E-17	0.000000E+00
1.760000E+03	6.850896E-17	0.000000E+00
1.800000E+03	7.103354E-17	0.000000E+00
1.840000E+03	7.375233E-17	0.000000E+00
1.880000E+03	7.669349E-17	0.000000E+00
1.920000E+03	7.986037E-17	0.000000E+00
1.960000E+03	8.327585E-17	0.000000E+00
2.000000E+03	8.695071E-17	0.000000E+00
2.040000E+03	9.090924E-17	0.000000E+00
2.080000E+03	9.515089E-17	0.000000E+00
2.120000E+03	9.968232E-17	0.000000E+00
2.160000E+03	1.045047E-16	0.000000E+00
2.200000E+03	1.095875E-16	0.000000E+00
2.240000E+03	1.148947E-16	0.000000E+00
2.280000E+03	1.204168E-16	0.000000E+00
2.320000E+03	1.261721E-16	0.000000E+00
2.360000E+03	1.322533E-16	0.000000E+00
2.400000E+03	1.387439E-16	0.000000E+00
2.440000E+03	1.457247E-16	0.000000E+00
2.480000E+03	1.532951E-16	0.000000E+00
2.520000E+03	1.615195E-16	0.000000E+00
2.560000E+03	1.704829E-16	0.000000E+00
2.600000E+03	1.802642E-16	0.000000E+00
2.640000E+03	1.909582E-16	0.000000E+00
2.680000E+03	2.026498E-16	0.000000E+00
2.720000E+03	2.154368E-16	0.000000E+00
2.760000E+03	2.294239E-16	0.000000E+00
2.800000E+03	2.447265E-16	0.000000E+00
2.840000E+03	2.614794E-16	0.000000E+00
2.880000E+03	2.798561E-16	0.000000E+00
2.920000E+03	3.000726E-16	0.000000E+00
2.960000E+03	3.224089E-16	0.000000E+00
3.000000E+03	3.472071E-16	0.000000E+00
3.010000E+03	3.538466E-16	0.000000E+00
3.020000E+03	3.606638E-16	0.000000E+00
3.030000E+03	3.676799E-16	0.000000E+00
3.040000E+03	3.748920E-16	0.000000E+00
3.050000E+03	3.823137E-16	0.000000E+00
3.060000E+03	3.899587E-16	0.000000E+00
3.070000E+03	3.978164E-16	0.000000E+00
3.080000E+03	4.059173E-16	0.000000E+00
3.090000E+03	4.142506E-16	0.000000E+00
3.100000E+03	4.228390E-16	0.000000E+00
3.110000E+03	4.316803E-16	0.000000E+00
3.120000E+03	4.407799E-16	0.000000E+00
3.130000E+03	4.501614E-16	0.000000E+00
3.140000E+03	4.598131E-16	0.000000E+00
3.150000E+03	4.697667E-16	0.000000E+00
3.160000E+03	4.800015E-16	0.000000E+00
3.170000E+03	4.905489E-16	0.000000E+00
3.180000E+03	5.013958E-16	0.000000E+00
3.190000E+03	5.125644E-16	0.000000E+00
3.200000E+03	5.240491E-16	0.000000E+00
3.210000E+03	5.358621E-16	0.000000E+00
3.220000E+03	5.480052E-16	0.000000E+00
3.230000E+03	5.604795E-16	0.000000E+00
3.240000E+03	5.732751E-16	0.000000E+00
3.250000E+03	5.864092E-16	0.000000E+00
3.260000E+03	5.998691E-16	0.000000E+00
3.270000E+03	6.136590E-16	0.000000E+00
3.280000E+03	6.277625E-16	0.000000E+00
3.290000E+03	6.421698E-16	0.000000E+00
3.300000E+03	6.568787E-16	0.000000E+00
3.310000E+03	6.718645E-16	0.000000E+00
3.320000E+03	6.871195E-16	0.000000E+00
3.330000E+03	7.026227E-16	0.000000E+00
3.340000E+03	7.183289E-16	0.000000E+00
3.350000E+03	7.342302E-16	0.000000E+00
3.360000E+03	7.502841E-16	0.000000E+00
3.370000E+03	7.664541E-16	0.000000E+00
3.380000E+03	7.826998E-16	0.000000E+00
3.390000E+03	7.989550E-16	0.000000E+00
3.400000E+03	8.151920E-16	0.000000E+00
3.410000E+03	8.313472E-16	0.000000E+00
3.420000E+03	8.473530E-16	0.000000E+00
3.430000E+03	8.631489E-16	0.000000E+00
3.440000E+03	8.786715E-16	0.000000E+00
3.450000E+03	8.938328E-16	0.000000E+00
3.460000E+03	9.085758E-16	0.000000E+00
3.470000E+03	9.228095E-16	0.000000E+00
3.480000E+03	9.364645E-16	0.000000E+00
3.490000E+03	9.494615E-16	0.000000E+00
3.500000E+03	9.617226E-16	0.000000E+00
3.510000E+03	9.731732E-16	0.000000E+00
3.520000E+03	9.837427E-16	0.000000E+00
3.530000E+03	9.933552E-16	0.000000E+00
3.540000E+03	1.001941E-15	0.000000E+00
3.550000E+03	1.009450E-15	0.000000E+00
3.560000E+03	1.015829E-15	0.000000E+00
3.570000E+03	1.021046E-15	0.000000E+00
3.580000E+03	1.025059E-15	0.000000E+00
3.590000E+03	1.027858E-15	0.000000E+00
3.600000E+03	1.029433E-15	0.000000E+00
3.610000E+03	1.029809E-15	0.000000E+00
3.620000E+03	1.028988E-15	0.000000E+00
3.630000E+03	1.027009E-15	0.000000E+00
3.640000E+03	1.023887E-15	0.000000E+00
3.650000E+03	1.019682E-15	0.000000E+00
3.660000E+03	1.014450E-15	0.000000E+00
3.670000E+03	1.008258E-15	0.000000E+00
3.680000E+03	1.001188E-15	0.000000E+00
3.690000E+03	9.933285E-16	0.000000E+00
3.700000E+03	9.847619E-16	0.000000E+00
3.710000E+03	9.755918E-16	0.000000E+00
3.720000E+03	9.659046E-16	0.000000E+00
3.730000E+03	9.558122E-16	0.000000E+00
3.740000E+03	9.454066E-16	0.000000E+00
3.750000E+03	9.347770E-16	0.000000E+00
3.760000E+03	9.240158E-16	0.000000E+00
3.770000E+03	9.132172E-16	0.000000E+00
3.780000E+03	9.024529E-16	0.000000E+00
3.790000E+03	8.918025E-16	0.000000E+00
3.800000E+03	8.813220E-16	0.000000E+00
3.810000E+03	8.710661E-16	0.000000E+00
3.820000E+03	8.610888E-16	0.000000E+00
3.830000E+03	8.514337E-16	0.000000E+00
3.840000E+03	8.421212E-16	0.000000E+00
3.850000E+03	8.331843E-16	0.000000E+00
3.860000E+03	8.246189E-16	0.000000E+00
3.870000E+03	8.164472E-16	0.000000E+00
3.880000E+03	8.086492E-16	0.000000E+00
3.890000E+03	8.012312E-16	0.000000E+00
3.900000E+03	7.941663E-16	0.000000E+00
3.910000E+03	7.874345E-16	0.000000E+00
3.920000E+03	7.810045E-16	0.000000E+00
3.930000E+03	7.748470E-16	0.000000E+00
3.940000E+03	7.689231E-16	0.000000E+00
3.950000E+03	7.632039E-16	0.000000E+00
3.960000E+03	7.576406E-16	0.000000E+00
3.970000E+03	7.521961E-16	0.000000E+00
3.980000E+03	7.468280E-16	0.000000E+00
3.990000E+03	7.415072E-16	0.000000E+00
4.000000E+03	7.361945E-16	0.000000E+00
4.010000E+03	7.308545E-16	0.000000E+00
4.020000E+03	7.254548E-16	0.000000E+00
4.030000E+03	7.199790E-16	0.000000E+00
4.040000E+03	7.143980E-16	0.000000E+00
4.050000E+03	7.087045E-16	0.000000E+00
4.060000E+03	7.028790E-16	0.000000E+00
4.070000E+03	6.969181E-16	0.000000E+00
4.080000E+03	6.908229E-16	0.000000E+00
4.090000E+03	6.845932E-16	0.000000E+00
4.100000E+03	6.782329E-16	0.000000E+00
4.110000E+03	6.717491E-16	0.000000E+00
4.120000E+03	6.651626E-16	0.000000E+00
4.130000E+03	6.584802E-16	0.000000E+00
4.140000E+03	6.517214E-16	0.000000E+00
4.150000E+03	6.448960E-16	0.000000E+00
4.160000E+03	6.380253E-16	0.000000E+00
4.170000E+03	6.311301E-16	0.000000E+00
4.180000E+03	6.242216E-16	0.000000E+00
4.190000E+03	6.173200E-16	0.000000E+00
4.200000E+03	6.104351E-16	0.000000E+00
4.210000E+03	6.035858E-16	0.000000E+00
4.220000E+03	5.967803E-16	0.000000E+00
4.230000E+03	5.900357E-16	0.000000E+00
4.240000E+03	5.833586E-16	0.000000E+00
4.250000E+03	5.767597E-16	0.000000E+00
4.260000E+03	5.702449E-16	0.000000E+00
4.270000E+03	5.638285E-16	0.000000E+00
4.280000E+03	5.575159E-16	0.000000E+00
4.290000E+03	5.513168E-16	0.000000E+00
4.300000E+03	5.452369E-16	0.000000E+00
4.310000E+03	5.392821E-16	0.000000E+00
4.320000E+03	5.334632E-16	0.000000E+00
4.330000E+03	5.277909E-16	0.000000E+00
4.340000E+03	5.222726E-16	0.000000E+00
4.350000E+03	5.169193E-16	0.000000E+00
4.360000E+03	5.117384E-16	0.000000E+00
4.370000E+03	5.067452E-16	0.000000E+00
4.380000E+03	5.019500E-16	0.000000E+00
4.390000E+03	4.973741E-16	0.000000E+00
4.400000E+03	4.930259E-16	0.000000E+00
4.410000E+03	4.889195E-16	0.000000E+00
4.420000E+03	4.850628E-16	0.000000E+00
4.430000E+03	4.814695E-16	0.000000E+00
4.440000E+03	4.781383E-16	0.000000E+00
4.450000E+03	4.750684E-16	0.000000E+00
4.460000E+03	4.722601E-16	0.000000E+00
4.470000E+03	4.697058E-16	0.000000E+00
4.480000E+03	4.673940E-16	0.000000E+00
4.490000E+03	4.653056E-16	0.000000E+00
4.500000E+03	4.634254E-16	0.000000E+00
4.510000E+03	4.617265E-16	0.000000E+00
4.520000E+03	4.601827E-16	0.000000E+00
4.530000E+03	4.587645E-16	0.000000E+00
4.540000E+03	4.574316E-16	0.000000E+00
4.550000E+03	4.561534E-16	0.000000E+00
4.560000E+03	4.548899E-16	0.000000E+00
4.570000E+03	4.536041E-16	0.000000E+00
4.580000E+03	4.522508E-16	0.000000E+00
4.590000E+03	4.507980E-16	0.000000E+00
4.600000E+03	4.492031E-16	0.000000E+00
4.610000E+03	4.474380E-16	0.000000E+00
4.620000E+03	4.454665E-16	0.000000E+00
4.630000E+03	4.432642E-16	0.000000E+00
4.640000E+03	4.408082E-16	0.000000E+00
4.650000E+03	4.380888E-16	0.000000E+00
4.660000E+03	4.350908E-16	0.000000E+00
4.670000E+03	4.318170E-16	0.000000E+00
4.680000E+03	4.282689E-16	0.000000E+00
4.690000E+03	4.244548E-16	0.000000E+00
4.700000E+03	4.203964E-16	0.000000E+00
4.710000E+03	4.161100E-16	0.000000E+00
4.720000E+03	4.116251E-16	0.000000E+00
4.730000E+03	4.069679E-16	0.000000E+00
4.740000E+03	4.021763E-16	0.000000E+00
4.750000E+03	3.972802E-16	0.000000E+00
4.760000E+03	3.923230E-16	0.000000E+00
4.770000E+03	3.873423E-16	0.000000E+00
4.780000E+03	3.823835E-16	0.000000E+00
4.790000E+03	3.774850E-16	0.000000E+00
4.800000E+03	3.726877E-16	0.000000E+00
4.810000E+03	3.680316E-16	0.000000E+00
4.820000E+03	3.635542E-16	0.000000E+00
4.830000E+03	3.592913E-16	0.000000E+00
4.840000E+03	3.552722E-16	0.000000E+00
4.850000E+03	3.515299E-16	0.000000E+00
4.860000E+03	3.480910E-16	0.000000E+00
4.870000E+03	3.449755E-16	0.000000E+00
4.880000E+03	3.422036E-16	0.000000E+00
4.890000E+03	3.397950E-16	0.000000E+00
4.900000E+03	3.377568E-16	0.000000E+00
4.910000E+03	3.361059E-16	0.000000E+00
4.920000E+03	3.348464E-16	0.000000E+00
4.930000E+03	3.339799E-16	0.000000E+00
4.940000E+03	3.335118E-16	0.000000E+00
4.950000E+03	3.334419E-16	0.000000E+00
4.960000E+03	3.337651E-16	0.000000E+00
4.970000E+03	3.344806E-16	0.000000E+00
4.980000E+03	3.355765E-16	0.000000E+00
4.990000E+03	3.370528E-16	0.000000E+00
5.000000E+03	3.388982E-16	0.000000E+00
5.010000E+03	3.411011E-16	0.000000E+00
5.020000E+03	3.436553E-16	0.000000E+00
5.030000E+03	3.465478E-16	0.000000E+00
5.040000E+03	3.497682E-16	0.000000E+00
5.050000E+03	3.533063E-16	0.000000E+00
5.060000E+03	3.571512E-16	0.000000E+00
5.070000E+03	3.612881E-16	0.000000E+00
5.080000E+03	3.657094E-16	0.000000E+00
5.090000E+03	3.703997E-16	0.000000E+00
5.100000E+03	3.753467E-16	0.000000E+00
5.110000E+03	3.805340E-16	0.000000E+00
5.120000E+03	3.859515E-16	0.000000E+00
5.130000E+03	3.915770E-16	0.000000E+00
5.140000E+03	3.974024E-16	0.000000E+00
5.150000E+03	4.034030E-16	0.000000E+00
5.160000E+03	4.095642E-16	0.000000E+00
5.170000E+03	4.158623E-16	0.000000E+00
5.180000E+03	4.222713E-16	0.000000E+00
5.190000E+03	4.287719E-16	0.000000E+00
5.200000E+03	4.353348E-16	0.000000E+00
5.210000E+03	4.419332E-16	0.000000E+00
5.220000E+03	4.485385E-16	0.000000E+00
5.230000E+03	4.551162E-16	0.000000E+00
5.240000E+03	4.616348E-16	0.000000E+00
5.250000E+03	4.680567E-16	0.000000E+00
5.260000E+03	4.743532E-16	0.000000E+00
5.270000E+03	4.804851E-16	0.000000E+00
5.280000E+03	4.864175E-16	0.000000E+00
5.290000E+03	4.921161E-16	0.000000E+00
5.300000E+03	4.975414E-16	0.000000E+00
5.310000E+03	5.026600E-16	0.000000E+00
5.320000E+03	5.074392E-16	0.000000E+00
5.330000E+03	5.118484E-16	0.000000E+00
5.340000E+03	5.158541E-16	0.000000E+00
5.350000E+03	5.194359E-16	0.000000E+00
5.360000E+03	5.225715E-16	0.000000E+00
5.370000E+03	5.252443E-16	0.000000E+00
5.380000E+03	5.274390E-16	0.000000E+00
5.390000E+03	5.291681E-16	0.000000E+00
5.400000E+03	5.304362E-16	0.000000E+00
5.410000E+03	5.312680E-16	0.000000E+00
5.420000E+03	5.316765E-16	0.000000E+00
5.430000E+03	5.316879E-16	0.000000E+00
5.440000E+03	5.313254E-16	0.000000E+00
5.450000E+03	5.306239E-16	0.000000E+00
5.460000E+03	5.296036E-16	0.000000E+00
5.470000E+03	5.282850E-16	0.000000E+00
5.480000E+03	5.266836E-16	0.000000E+00
5.490000E+03	5.248255E-16	0.000000E+00
5.500000E+03	5.227257E-16	0.000000E+00
5.510000E+03	5.204047E-16	0.000000E+00
5.520000E+03	5.178819E-16	0.000000E+00
5.530000E+03	5.151762E-16	0.000000E+00
5.540000E+03	5.123063E-16	0.000000E+00
5.550000E+03	5.092952E-16	0.000000E+00
5.560000E+03	5.061601E-16	0.000000E+00
5.570000E+03	5.029279E-16	0.000000E+00
5.580000E+03	4.996101E-16	0.000000E+00
5.590000E+03	4.962378E-16	0.000000E+00
5.600000E+03	4.928218E-16	0.000000E+00
5.610000E+03	4.893878E-16	0.000000E+00
5.620000E+03	4.859614E-16	0.000000E+00
5.630000E+03	4.825528E-16	0.000000E+00
5.640000E+03	4.791973E-16	0.000000E+00
5.650000E+03	4.759104E-16	0.000000E+00
5.660000E+03	4.727069E-16	0.000000E+00
5.670000E+03	4.696212E-16	0.000000E+00
5.680000E+03	4.666625E-16	0.000000E+00
5.690000E+03	4.638546E-16	0.000000E+00
5.700000E+03	4.612195E-16	0.000000E+00
5.710000E+03	4.587736E-16	0.000000E+00
5.720000E+03	4.565319E-16	0.000000E+00
5.730000E+03	4.545074E-16	0.000000E+00
5.740000E+03	4.527155E-16	0.000000E+00
5.750000E+03	4.511698E-16	0.000000E+00
5.760000E+03	4.498663E-16	0.000000E+00
5.770000E+03	4.488218E-16	0.000000E+00
5.780000E+03	4.480262E-16	0.000000E+00
5.790000E+03	4.474846E-16	0.000000E+00
5.800000E+03	4.471843E-16	0.000000E+00
5.810000E+03	4.471182E-16	0.000000E+00
5.820000E+03	4.472709E-16	0.000000E+00
5.830000E+03	4.476281E-16	0.000000E+00
5.840000E+03	4.481619E-16	0.000000E+00
5.850000E+03	4.488464E-16	0.000000E+00
5.860000E+03	4.496575E-16	0.000000E+00
5.870000E+03	4.505687E-16	0.000000E+00
5.880000E+03	4.515374E-16	0.000000E+00
5.890000E+03	4.525388E-16	0.000000E+00
5.900000E+03	4.535333E-16	0.000000E+00
5.910000E+03	4.544912E-16	0.000000E+00
5.920000E+03	4.553790E-16	0.000000E+00
5.930000E+03	4.561597E-16	0.000000E+00
5.940000E+03	4.568091E-16	0.000000E+00
5.950000E+03	4.573004E-16	0.000000E+00
5.960000E+03	4.576056E-16	0.000000E+00
5.970000E+03	4.577160E-16	0.000000E+00
5.980000E+03	4.576063E-16	0.000000E+00
5.990000E+03	4.572714E-16	0.000000E+00
6.000000E+03	4.567045E-16	0.000000E+00
6.010000E+03	4.558984E-16	0.000000E+00
6.020000E+03	4.548600E-16	0.000000E+00
6.030000E+03	4.535841E-16	0.000000E+00
6.040000E+03	4.520893E-16	0.000000E+00
6.050000E+03	4.503762E-16	0.000000E+00
6.060000E+03	4.484628E-16	0.000000E+00
6.070000E+03	4.463586E-16	0.000000E+00
6.080000E+03	4.440793E-16	0.000000E+00
6.090000E+03	4.416360E-16	0.000000E+00
6.100000E+03	4.390405E-16	0.000000E+00
6.110000E+03	4.363148E-16	0.000000E+00
6.120000E+03	4.334602E-16	0.000000E+00
6.130000E+03	4.304982E-16	0.000000E+00
6.140000E+03	4.274345E-16	0.000000E+00
6.150000E+03	4.242851E-16	0.000000E+00
6.160000E+03	4.210444E-16	0.000000E+00
6.170000E+03	4.177329E-16	0.000000E+00
6.180000E+03	4.143501E-16	0.000000E+00
6.190000E+03	4.109054E-16	0.000000E+00
6.200000E+03	4.074034E-16	0.000000E+00
6.210000E+03	4.038683E-16	0.000000E+00
6.220000E+03	4.003295E-16	0.000000E+00
6.230000E+03	3.968158E-16	0.000000E+00
6.240000E+03	3.933548E-16	0.000000E+00
6.250000E+03	3.899585E-16	0.000000E+00
6.260000E+03	3.866631E-16	0.000000E+00
6.270000E+03	3.834731E-16	0.000000E+00
6.280000E+03	3.804118E-16	0.000000E+00
6.290000E+03	3.774954E-16	0.000000E+00
6.300000E+03	3.747235E-16	0.000000E+00
6.310000E+03	3.721083E-16	0.000000E+00
6.320000E+03	3.696549E-16	0.000000E+00
6.330000E+03	3.673661E-16	0.000000E+00
6.340000E+03	3.652323E-16	0.000000E+00
6.350000E+03	3.632517E-16	0.000000E+00
6.360000E+03	3.614154E-16	0.000000E+00
6.370000E+03	3.597125E-16	0.000000E+00
6.380000E+03	3.581256E-16	0.000000E+00
6.390000E+03	3.566360E-16	0.000000E+00
6.400000E+03	3.552240E-16	0.000000E+00
6.410000E+03	3.538744E-16	0.000000E+00
6.420000E+03	3.525670E-16	0.000000E+00
6.430000E+03	3.512717E-16	0.000000E+00
6.440000E+03	3.499896E-16	0.000000E+00
6.450000E+03	3.487080E-16	0.000000E+00
6.460000E+03	3.474208E-16	0.000000E+00
6.470000E+03	3.461287E-16	0.000000E+00
6.480000E+03	3.448192E-16	0.000000E+00
6.490000E+03	3.434970E-16	0.000000E+00
6.500000E+03	3.421589E-16	0.000000E+00
6.510000E+03	3.408083E-16	0.000000E+00
6.520000E+03	3.394355E-16	0.000000E+00
6.530000E+03	3.380578E-16	0.000000E+00
6.540000E+03	3.366680E-16	0.000000E+00
6.550000E+03	3.352755E-16	0.000000E+00
6.560000E+03	3.338854E-16	0.000000E+00
6.570000E+03	3.324977E-16	0.000000E+00
6.580000E+03	3.311228E-16	0.000000E+00
6.590000E+03	3.297658E-16	0.000000E+00
6.600000E+03	3.284262E-16	0.000000E+00
6.610000E+03	3.271075E-16	0.000000E+00
6.620000E+03	3.258126E-16	0.000000E+00
6.630000E+03	3.245490E-16	0.000000E+00
6.640000E+03	3.233065E-16	0.000000E+00
6.650000E+03	3.220905E-16	0.000000E+00
6.660000E+03	3.208994E-16	0.000000E+00
6.670000E+03	3.197256E-16	0.000000E+00
6.680000E+03	3.185715E-16	0.000000E+00
6.690000E+03	3.174280E-16	0.000000E+00
6.700000E+03	3.162964E-16	0.000000E+00
6.710000E+03	3.151614E-16	0.000000E+00
6.720000E+03	3.140239E-16	0.000000E+00
6.730000E+03	3.128854E-16	0.000000E+00
6.740000E+03	3.117310E-16	0.000000E+00
6.750000E+03	3.105630E-16	0.000000E+00
6.760000E+03	3.093735E-16	0.000000E+00
6.770000E+03	3.081663E-16	0.000000E+00
6.780000E+03	3.069353E-16	0.000000E+00
6.790000E+03	3.056813E-16	0.000000E+00
6.800000E+03	3.044111E-16	0.000000E+00
6.810000E+03	3.031166E-16	0.000000E+00
6.820000E+03	3.018126E-16	0.000000E+00
6.830000E+03	3.004930E-16	0.000000E+00
6.840000E+03	2.991747E-16	0.000000E+00
6.850000E+03	2.978531E-16	0.000000E+00
6.860000E+03	2.965354E-16	0.000000E+00
6.870000E+03	2.952349E-16	0.000000E+00
6.880000E+03	2.939594E-16	0.000000E+00
6.890000E+03	2.927062E-16	0.000000E+00
6.900000E+03	2.914940E-16	0.000000E+00
6.910000E+03	2.903250E-16	0.000000E+00
6.920000E+03	2.892122E-16	0.000000E+00
6.930000E+03	2.881508E-16	0.000000E+00
6.940000E+03	2.871523E-16	0.000000E+00
6.950000E+03	2.862214E-16	0.000000E+00
6.960000E+03	2.853561E-16	0.000000E+00
6.970000E+03	2.845647E-16	0.000000E+00
6.980000E+03	2.838483E-16	0.000000E+00
6.990000E+03	2.832013E-16	0.000000E+00
7.000000E+03	2.826223E-16	0.000000E+00
7.010000E+03	2.821087E-16	0.000000E+00
7.020000E+03	2.816618E-16	0.000000E+00
7.030000E+03	2.812655E-16	0.000000E+00
7.040000E+03	2.809244E-16	0.000000E+00
7.050000E+03	2.806201E-16	0.000000E+00
7.060000E+03	2.803501E-16	0.000000E+00
7.070000E+03	2.800999E-16	0.000000E+00
7.080000E+03	2.798660E-16	0.000000E+00
7.090000E+03	2.796388E-16	0.000000E+00
7.100000E+03	2.794031E-16	0.000000E+00
7.110000E+03	2.791440E-16	0.000000E+00
7.120000E+03	2.788638E-16	0.000000E+00
7.130000E+03	2.785482E-16	0.000000E+00
7.140000E+03	2.781897E-16	0.000000E+00
7.150000E+03	2.777815E-16	0.000000E+00
7.160000E+03	2.773119E-16	0.000000E+00
7.170000E+03	2.767822E-16	0.000000E+00
7.180000E+03	2.761828E-16	0.000000E+00
7.190000E+03	2.755114E-16	0.000000E+00
7.200000E+03	2.747724E-16	0.000000E+00
7.210000E+03	2.739601E-16	0.000000E+00
7.220000E+03	2.730812E-16	0.000000E+00
7.230000E+03	2.721260E-16	0.000000E+00
7.240000E+03	2.711034E-16	0.000000E+00
7.250000E+03	2.700172E-16	0.000000E+00
7.260000E+03	2.688720E-16	0.000000E+00
7.270000E+03	2.676729E-16	0.000000E+00
7.280000E+03	2.664262E-16	0.000000E+00
7.290000E+03	2.651327E-16	0.000000E+00
7.300000E+03	2.638048E-16	0.000000E+00
7.310000E+03	2.624505E-16	0.000000E+00
7.320000E+03	2.610775E-16	0.000000E+00
7.330000E+03	2.596888E-16	0.000000E+00
7.340000E+03	2.582985E-16	0.000000E+00
7.350000E+03	2.569217E-16	0.000000E+00
7.360000E+03	2.555564E-16	0.000000E+00
7.370000E+03	2.542181E-16	0.000000E+00
7.380000E+03	2.529170E-16	0.000000E+00
7.390000E+03	2.516689E-16	0.000000E+00
7.400000E+03	2.504788E-16	0.000000E+00
7.410000E+03	2.493630E-16	0.000000E+00
7.420000E+03	2.483377E-16	0.000000E+00
7.430000E+03	2.474082E-16	0.000000E+00
7.440000E+03	2.465962E-16	0.000000E+00
7.450000E+03	2.459014E-16	0.000000E+00
7.460000E+03	2.453394E-16	0.000000E+00
7.470000E+03	2.449148E-16	0.000000E+00
7.480000E+03	2.446426E-16	0.000000E+00
7.490000E+03	2.445207E-16	0.000000E+00
7.500000E+03	2.445627E-16	0.000000E+00
7.510000E+03	2.447761E-16	0.000000E+00
7.520000E+03	2.451613E-16	0.000000E+00
7.530000E+03	2.457343E-16	0.000000E+00
7.540000E+03	2.464870E-16	0.000000E+00
7.550000E+03	2.474261E-16	0.000000E+00
7.560000E+03	2.485455E-16	0.000000E+00
7.570000E+03	2.498489E-16	0.000000E+00
7.580000E+03	2.513269E-16	0.000000E+00
7.590000E+03	2.529812E-16	0.000000E+00
7.600000E+03	2.548006E-16	0.000000E+00
7.610000E+03	2.567793E-16	0.000000E+00
7.620000E+03	2.589170E-16	0.000000E+00
7.630000E+03	2.612009E-16	0.000000E+00
7.640000E+03	2.636239E-16	0.000000E+00
7.650000E+03	2.661851E-16	0.000000E+00
7.660000E+03	2.688709E-16	0.000000E+00
7.670000E+03	2.716800E-16	0.000000E+00
7.680000E+03	2.745916E-16	0.000000E+00
7.690000E+03	2.776114E-16	0.000000E+00
7.700000E+03	2.807315E-16	0.000000E+00
7.710000E+03	2.839373E-16	0.000000E+00
7.720000E+03	2.872274E-16	0.000000E+00
7.730000E+03	2.905863E-16	0.000000E+00
7.740000E+03	2.940055E-16	0.000000E+00
7.750000E+03	2.974830E-16	0.000000E+00
7.760000E+03	3.010095E-16	0.000000E+00
