#wls	flux	fluxerr
1.600000E+03	4.247782E-17	2.841616E-18
1.640000E+03	4.224594E-17	2.801533E-18
1.680000E+03	4.202393E-17	2.761832E-18
1.720000E+03	4.181115E-17	2.722457E-18
1.760000E+03	4.160697E-17	2.683354E-18
1.800000E+03	4.142372E-17	2.645295E-18
1.840000E+03	4.125387E-17	2.607771E-18
1.880000E+03	4.111557E-17	2.571892E-18
1.920000E+03	4.100095E-17	2.537113E-18
1.960000E+03	4.091485E-17	2.503681E-18
2.000000E+03	4.087393E-17	2.472550E-18
2.040000E+03	4.088188E-17	2.443843E-18
2.080000E+03	4.093610E-17	2.417303E-18
2.120000E+03	4.104571E-17	2.393357E-18
2.160000E+03	4.122487E-17	2.372694E-18
2.200000E+03	4.147545E-17	2.355257E-18
2.240000E+03	4.178775E-17	2.340331E-18
2.280000E+03	4.217447E-17	2.328464E-18
2.320000E+03	4.262560E-17	2.318923E-18
2.360000E+03	4.313683E-17	2.311310E-18
2.400000E+03	4.371443E-17	2.305795E-18
2.440000E+03	4.434330E-17	2.301415E-18
2.480000E+03	4.502437E-17	2.298076E-18
2.520000E+03	4.575330E-17	2.295413E-18
2.560000E+03	4.652582E-17	2.293081E-18
2.600000E+03	4.733775E-17	2.290751E-18
2.640000E+03	4.818979E-17	2.288345E-18
2.680000E+03	4.908243E-17	2.285773E-18
2.720000E+03	5.000679E-17	2.282518E-18
2.760000E+03	5.096803E-17	2.278726E-18
2.800000E+03	5.196639E-17	2.274313E-18
2.840000E+03	5.299771E-17	2.269010E-18
2.880000E+03	5.405387E-17	2.262404E-18
2.920000E+03	5.512328E-17	2.253979E-18
2.960000E+03	5.621180E-17	2.243966E-18
3.000000E+03	5.731321E-17	2.232117E-18
3.010000E+03	5.759329E-17	2.228975E-18
3.020000E+03	5.787679E-17	2.225818E-18
3.030000E+03	5.815972E-17	2.222494E-18
3.040000E+03	5.844603E-17	2.219154E-18
3.050000E+03	5.873570E-17	2.215794E-18
3.060000E+03	5.902479E-17	2.212268E-18
3.070000E+03	5.932111E-17	2.208866E-18
3.080000E+03	5.961688E-17	2.205298E-18
3.090000E+03	5.991981E-17	2.201848E-18
3.100000E+03	6.022226E-17	2.198234E-18
3.110000E+03	6.053189E-17	2.194735E-18
3.120000E+03	6.084865E-17	2.191346E-18
3.130000E+03	6.116883E-17	2.187930E-18
3.140000E+03	6.149246E-17	2.184487E-18
3.150000E+03	6.182336E-17	2.181153E-18
3.160000E+03	6.216158E-17	2.177924E-18
3.170000E+03	6.250720E-17	2.174800E-18
3.180000E+03	6.286033E-17	2.171782E-18
3.190000E+03	6.322110E-17	2.168870E-18
3.200000E+03	6.358968E-17	2.166066E-18
3.210000E+03	6.396988E-17	2.163497E-18
3.220000E+03	6.435829E-17	2.161041E-18
3.230000E+03	6.476240E-17	2.158945E-18
3.240000E+03	6.517531E-17	2.156970E-18
3.250000E+03	6.560454E-17	2.155361E-18
3.260000E+03	6.604339E-17	2.153890E-18
3.270000E+03	6.650298E-17	2.152913E-18
3.280000E+03	6.697684E-17	2.152208E-18
3.290000E+03	6.746912E-17	2.151903E-18
3.300000E+03	6.798063E-17	2.152011E-18
3.310000E+03	6.851571E-17	2.152659E-18
3.320000E+03	6.907193E-17	2.153759E-18
3.330000E+03	6.965395E-17	2.155442E-18
3.340000E+03	7.026653E-17	2.157840E-18
3.350000E+03	7.090782E-17	2.160879E-18
3.360000E+03	7.158299E-17	2.164700E-18
3.370000E+03	7.229408E-17	2.169343E-18
3.380000E+03	7.304678E-17	2.174958E-18
3.390000E+03	7.384363E-17	2.181597E-18
3.400000E+03	7.468754E-17	2.189317E-18
3.410000E+03	7.558507E-17	2.198283E-18
3.420000E+03	7.653974E-17	2.208565E-18
3.430000E+03	7.755870E-17	2.220335E-18
3.440000E+03	7.864601E-17	2.233671E-18
3.450000E+03	7.980926E-17	2.248746E-18
3.460000E+03	8.105613E-17	2.265732E-18
3.470000E+03	8.239068E-17	2.284693E-18
3.480000E+03	8.381920E-17	2.305750E-18
3.490000E+03	8.534206E-17	2.328862E-18
3.500000E+03	8.696357E-17	2.354091E-18
3.510000E+03	8.867987E-17	2.381280E-18
3.520000E+03	9.048995E-17	2.410350E-18
3.530000E+03	9.238898E-17	2.441125E-18
3.540000E+03	9.437600E-17	2.473535E-18
3.550000E+03	9.644310E-17	2.507329E-18
3.560000E+03	9.858984E-17	2.542461E-18
3.570000E+03	1.008060E-16	2.578630E-18
3.580000E+03	1.030888E-16	2.615738E-18
3.590000E+03	1.054332E-16	2.653615E-18
3.600000E+03	1.078421E-16	2.692310E-18
3.610000E+03	1.103058E-16	2.731544E-18
3.620000E+03	1.128338E-16	2.771525E-18
3.630000E+03	1.154196E-16	2.812060E-18
3.640000E+03	1.180727E-16	2.853350E-18
3.650000E+03	1.207941E-16	2.895383E-18
3.660000E+03	1.235941E-16	2.938369E-18
3.670000E+03	1.264818E-16	2.982478E-18
3.680000E+03	1.294758E-16	3.028103E-18
3.690000E+03	1.325834E-16	3.075352E-18
3.700000E+03	1.358288E-16	3.124720E-18
3.710000E+03	1.392321E-16	3.176591E-18
3.720000E+03	1.428160E-16	3.231394E-18
3.730000E+03	1.466105E-16	3.289700E-18
3.740000E+03	1.506488E-16	3.352133E-18
3.750000E+03	1.549635E-16	3.419279E-18
3.760000E+03	1.595905E-16	3.491774E-18
3.770000E+03	1.645730E-16	3.570384E-18
3.780000E+03	1.699619E-16	3.656009E-18
3.790000E+03	1.757953E-16	3.749238E-18
3.800000E+03	1.821302E-16	3.851040E-18
3.810000E+03	1.890228E-16	3.962320E-18
3.820000E+03	1.965279E-16	4.083913E-18
3.830000E+03	2.047065E-16	4.216747E-18
3.840000E+03	2.136168E-16	4.361646E-18
3.850000E+03	2.233219E-16	4.519495E-18
3.860000E+03	2.338802E-16	4.691034E-18
3.870000E+03	2.453581E-16	4.877129E-18
3.880000E+03	2.578038E-16	5.078235E-18
3.890000E+03	2.712755E-16	5.294971E-18
3.900000E+03	2.858136E-16	5.527565E-18
3.910000E+03	3.014535E-16	5.776123E-18
3.920000E+03	3.182112E-16	6.040365E-18
3.930000E+03	3.360919E-16	6.319784E-18
3.940000E+03	3.550741E-16	6.613381E-18
3.950000E+03	3.751257E-16	6.919975E-18
3.960000E+03	3.961681E-16	7.237556E-18
3.970000E+03	4.181212E-16	7.564142E-18
3.980000E+03	4.408376E-16	7.896605E-18
3.990000E+03	4.641668E-16	8.231867E-18
4.000000E+03	4.879119E-16	8.566142E-18
4.010000E+03	5.118549E-16	8.895415E-18
4.020000E+03	5.357537E-16	9.215417E-18
4.030000E+03	5.593500E-16	9.521772E-18
4.040000E+03	5.823589E-16	9.809841E-18
4.050000E+03	6.045237E-16	1.007567E-17
4.060000E+03	6.255788E-16	1.031532E-17
4.070000E+03	6.452879E-16	1.052554E-17
4.080000E+03	6.634322E-16	1.070353E-17
4.090000E+03	6.798505E-16	1.084755E-17
4.100000E+03	6.943956E-16	1.095623E-17
4.110000E+03	7.070051E-16	1.102959E-17
4.120000E+03	7.176606E-16	1.106842E-17
4.130000E+03	7.264145E-16	1.107456E-17
4.140000E+03	7.334027E-16	1.105110E-17
4.150000E+03	7.387977E-16	1.100158E-17
4.160000E+03	7.427850E-16	1.092959E-17
4.170000E+03	7.455913E-16	1.083923E-17
4.180000E+03	7.474578E-16	1.073460E-17
4.190000E+03	7.485943E-16	1.061921E-17
4.200000E+03	7.492064E-16	1.049638E-17
4.210000E+03	7.494810E-16	1.036901E-17
4.220000E+03	7.495716E-16	1.023941E-17
4.230000E+03	7.496289E-16	1.010976E-17
4.240000E+03	7.497674E-16	9.981663E-18
4.250000E+03	7.500644E-16	9.856135E-18
4.260000E+03	7.505787E-16	9.733919E-18
4.270000E+03	7.513467E-16	9.615432E-18
4.280000E+03	7.523692E-16	9.500623E-18
4.290000E+03	7.535903E-16	9.388740E-18
4.300000E+03	7.549267E-16	9.278734E-18
4.310000E+03	7.562849E-16	9.169498E-18
4.320000E+03	7.574843E-16	9.058949E-18
4.330000E+03	7.583594E-16	8.945305E-18
4.340000E+03	7.586813E-16	8.826159E-18
4.350000E+03	7.582070E-16	8.699086E-18
4.360000E+03	7.566359E-16	8.561169E-18
4.370000E+03	7.536623E-16	8.409610E-18
4.380000E+03	7.489379E-16	8.241325E-18
4.390000E+03	7.421629E-16	8.053950E-18
4.400000E+03	7.330892E-16	7.845833E-18
4.410000E+03	7.215897E-16	7.616709E-18
4.420000E+03	7.077763E-16	7.368840E-18
4.430000E+03	6.921500E-16	7.108373E-18
4.440000E+03	6.755607E-16	6.844663E-18
4.450000E+03	6.590562E-16	6.588549E-18
4.460000E+03	6.436716E-16	6.350155E-18
4.470000E+03	6.303163E-16	6.137851E-18
4.480000E+03	6.196802E-16	5.957443E-18
4.490000E+03	6.122392E-16	5.812312E-18
4.500000E+03	6.082907E-16	5.703953E-18
4.510000E+03	6.080254E-16	5.632815E-18
4.520000E+03	6.115750E-16	5.598798E-18
4.530000E+03	6.189781E-16	5.600984E-18
4.540000E+03	6.302626E-16	5.638423E-18
4.550000E+03	6.453555E-16	5.709339E-18
4.560000E+03	6.641416E-16	5.811689E-18
4.570000E+03	6.863983E-16	5.942618E-18
4.580000E+03	7.118049E-16	6.098579E-18
4.590000E+03	7.399164E-16	6.275147E-18
4.600000E+03	7.701535E-16	6.466978E-18
4.610000E+03	8.017709E-16	6.667587E-18
4.620000E+03	8.338538E-16	6.869366E-18
4.630000E+03	8.653715E-16	7.064069E-18
4.640000E+03	8.951566E-16	7.242657E-18
4.650000E+03	9.220063E-16	7.396132E-18
4.660000E+03	9.447881E-16	7.516359E-18
4.670000E+03	9.625414E-16	7.596804E-18
4.680000E+03	9.746184E-16	7.633560E-18
4.690000E+03	9.807676E-16	7.625867E-18
4.700000E+03	9.812879E-16	7.577184E-18
4.710000E+03	9.769124E-16	7.494133E-18
4.720000E+03	9.686930E-16	7.385531E-18
4.730000E+03	9.578980E-16	7.261562E-18
4.740000E+03	9.457779E-16	7.131995E-18
4.750000E+03	9.334158E-16	7.005110E-18
4.760000E+03	9.213163E-16	6.884697E-18
4.770000E+03	9.093409E-16	6.769694E-18
4.780000E+03	8.969242E-16	6.655889E-18
4.790000E+03	8.835134E-16	6.539208E-18
4.800000E+03	8.686631E-16	6.416378E-18
4.810000E+03	8.521799E-16	6.285915E-18
4.820000E+03	8.341264E-16	6.148145E-18
4.830000E+03	8.148097E-16	6.005147E-18
4.840000E+03	7.946641E-16	5.859891E-18
4.850000E+03	7.742335E-16	5.716128E-18
4.860000E+03	7.541119E-16	5.577979E-18
4.870000E+03	7.349439E-16	5.449973E-18
4.880000E+03	7.173732E-16	5.336689E-18
4.890000E+03	7.019530E-16	5.242131E-18
4.900000E+03	6.891574E-16	5.169821E-18
4.910000E+03	6.793048E-16	5.122202E-18
4.920000E+03	6.726292E-16	5.101055E-18
4.930000E+03	6.692570E-16	5.107432E-18
4.940000E+03	6.692224E-16	5.141792E-18
4.950000E+03	6.725143E-16	5.204332E-18
4.960000E+03	6.790600E-16	5.294841E-18
4.970000E+03	6.887072E-16	5.412524E-18
4.980000E+03	7.011891E-16	5.555693E-18
4.990000E+03	7.161198E-16	5.721678E-18
5.000000E+03	7.328762E-16	5.905820E-18
5.010000E+03	7.506619E-16	6.101891E-18
5.020000E+03	7.685555E-16	6.302422E-18
5.030000E+03	7.855148E-16	6.498668E-18
5.040000E+03	8.005115E-16	6.681688E-18
5.050000E+03	8.126352E-16	6.843216E-18
5.060000E+03	8.211888E-16	6.976516E-18
5.070000E+03	8.257885E-16	7.077327E-18
5.080000E+03	8.263768E-16	7.144091E-18
5.090000E+03	8.232211E-16	7.178079E-18
5.100000E+03	8.168641E-16	7.183081E-18
5.110000E+03	8.080148E-16	7.164544E-18
5.120000E+03	7.974401E-16	7.128666E-18
5.130000E+03	7.859280E-16	7.082080E-18
5.140000E+03	7.742310E-16	7.031347E-18
5.150000E+03	7.630015E-16	6.982343E-18
5.160000E+03	7.527962E-16	6.940252E-18
5.170000E+03	7.440083E-16	6.908898E-18
5.180000E+03	7.368808E-16	6.890806E-18
5.190000E+03	7.315273E-16	6.887344E-18
5.200000E+03	7.280250E-16	6.899553E-18
5.210000E+03	7.264206E-16	6.928194E-18
5.220000E+03	7.267770E-16	6.974181E-18
5.230000E+03	7.291529E-16	7.038389E-18
5.240000E+03	7.336278E-16	7.121891E-18
5.250000E+03	7.402853E-16	7.225799E-18
5.260000E+03	7.492003E-16	7.351138E-18
5.270000E+03	7.603968E-16	7.498424E-18
5.280000E+03	7.738656E-16	7.667828E-18
5.290000E+03	7.895459E-16	7.858981E-18
5.300000E+03	8.073113E-16	8.070827E-18
5.310000E+03	8.269725E-16	8.301632E-18
5.320000E+03	8.482832E-16	8.549042E-18
5.330000E+03	8.709342E-16	8.810010E-18
5.340000E+03	8.945995E-16	9.081259E-18
5.350000E+03	9.189347E-16	9.359271E-18
5.360000E+03	9.436428E-16	9.640962E-18
5.370000E+03	9.684570E-16	9.923521E-18
5.380000E+03	9.931763E-16	1.020478E-17
5.390000E+03	1.017689E-15	1.048348E-17
5.400000E+03	1.041835E-15	1.075784E-17
5.410000E+03	1.065319E-15	1.102465E-17
5.420000E+03	1.087694E-15	1.127908E-17
5.430000E+03	1.108416E-15	1.151518E-17
5.440000E+03	1.127006E-15	1.172766E-17
5.450000E+03	1.143081E-15	1.191222E-17
5.460000E+03	1.156459E-15	1.206665E-17
5.470000E+03	1.167091E-15	1.219014E-17
5.480000E+03	1.175019E-15	1.228289E-17
5.490000E+03	1.180404E-15	1.234637E-17
5.500000E+03	1.183415E-15	1.238217E-17
5.510000E+03	1.184232E-15	1.239204E-17
5.520000E+03	1.182961E-15	1.237700E-17
5.530000E+03	1.179654E-15	1.233754E-17
5.540000E+03	1.174281E-15	1.227333E-17
5.550000E+03	1.166752E-15	1.218344E-17
5.560000E+03	1.156905E-15	1.206625E-17
5.570000E+03	1.144565E-15	1.192005E-17
5.580000E+03	1.129529E-15	1.174288E-17
5.590000E+03	1.111648E-15	1.153345E-17
5.600000E+03	1.090815E-15	1.129092E-17
5.610000E+03	1.067014E-15	1.101551E-17
5.620000E+03	1.040298E-15	1.070821E-17
5.630000E+03	1.010875E-15	1.037160E-17
5.640000E+03	9.790400E-16	1.000923E-17
5.650000E+03	9.451918E-16	9.625710E-18
5.660000E+03	9.098104E-16	9.226458E-18
5.670000E+03	8.734683E-16	8.817773E-18
5.680000E+03	8.367926E-16	8.406429E-18
5.690000E+03	8.004198E-16	7.999186E-18
5.700000E+03	7.650210E-16	7.603016E-18
5.710000E+03	7.312205E-16	7.224270E-18
5.720000E+03	6.995871E-16	6.868584E-18
5.730000E+03	6.706374E-16	6.540908E-18
5.740000E+03	6.447926E-16	6.245089E-18
5.750000E+03	6.224041E-16	5.984138E-18
5.760000E+03	6.037434E-16	5.760139E-18
5.770000E+03	5.889829E-16	5.574098E-18
5.780000E+03	5.782392E-16	5.426375E-18
5.790000E+03	5.715737E-16	5.316717E-18
5.800000E+03	5.690208E-16	5.244534E-18
5.810000E+03	5.705927E-16	5.208958E-18
5.820000E+03	5.762837E-16	5.208898E-18
5.830000E+03	5.860277E-16	5.242671E-18
5.840000E+03	5.997142E-16	5.308177E-18
5.850000E+03	6.171375E-16	5.402483E-18
5.860000E+03	6.380084E-16	5.521982E-18
5.870000E+03	6.619346E-16	5.662279E-18
5.880000E+03	6.883828E-16	5.817934E-18
5.890000E+03	7.167280E-16	5.982967E-18
5.900000E+03	7.462038E-16	6.150506E-18
5.910000E+03	7.759704E-16	6.313434E-18
5.920000E+03	8.050838E-16	6.464195E-18
5.930000E+03	8.325964E-16	6.595657E-18
5.940000E+03	8.575706E-16	6.701227E-18
5.950000E+03	8.791485E-16	6.775382E-18
5.960000E+03	8.966092E-16	6.814061E-18
5.970000E+03	9.094250E-16	6.814996E-18
5.980000E+03	9.172818E-16	6.777746E-18
5.990000E+03	9.201086E-16	6.703778E-18
6.000000E+03	9.180198E-16	6.595902E-18
6.010000E+03	9.113314E-16	6.458279E-18
6.020000E+03	9.004914E-16	6.295804E-18
6.030000E+03	8.860430E-16	6.113791E-18
6.040000E+03	8.686264E-16	5.917922E-18
6.050000E+03	8.489034E-16	5.713707E-18
6.060000E+03	8.275765E-16	5.506610E-18
6.070000E+03	8.053296E-16	5.301655E-18
6.080000E+03	7.827802E-16	5.103156E-18
6.090000E+03	7.605130E-16	4.914981E-18
6.100000E+03	7.390306E-16	4.740282E-18
6.110000E+03	7.187651E-16	4.581632E-18
6.120000E+03	7.000533E-16	4.440914E-18
6.130000E+03	6.831687E-16	4.319584E-18
6.140000E+03	6.683035E-16	4.218592E-18
6.150000E+03	6.556022E-16	4.138605E-18
6.160000E+03	6.451498E-16	4.079794E-18
6.170000E+03	6.369769E-16	4.042010E-18
6.180000E+03	6.310906E-16	4.025062E-18
6.190000E+03	6.274510E-16	4.028568E-18
6.200000E+03	6.258801E-16	4.051263E-18
6.210000E+03	6.259845E-16	4.090502E-18
6.220000E+03	6.270864E-16	4.141745E-18
6.230000E+03	6.283830E-16	4.199475E-18
6.240000E+03	6.291448E-16	4.258439E-18
6.250000E+03	6.288740E-16	4.314702E-18
6.260000E+03	6.273081E-16	4.365755E-18
6.270000E+03	6.243934E-16	4.410424E-18
6.280000E+03	6.201919E-16	4.448317E-18
6.290000E+03	6.148712E-16	4.479816E-18
6.300000E+03	6.086461E-16	4.505727E-18
6.310000E+03	6.017836E-16	4.527353E-18
6.320000E+03	5.945543E-16	4.546167E-18
6.330000E+03	5.872323E-16	4.563826E-18
6.340000E+03	5.800729E-16	4.582002E-18
6.350000E+03	5.732721E-16	4.602050E-18
6.360000E+03	5.670102E-16	4.625325E-18
6.370000E+03	5.613985E-16	4.652731E-18
6.380000E+03	5.565174E-16	4.684997E-18
6.390000E+03	5.524016E-16	4.722521E-18
6.400000E+03	5.490554E-16	4.765475E-18
6.410000E+03	5.464354E-16	4.813624E-18
6.420000E+03	5.444906E-16	4.866659E-18
6.430000E+03	5.431186E-16	4.923781E-18
6.440000E+03	5.422332E-16	4.984298E-18
6.450000E+03	5.417143E-16	5.047163E-18
6.460000E+03	5.414571E-16	5.111419E-18
6.470000E+03	5.413557E-16	5.176050E-18
6.480000E+03	5.413201E-16	5.240148E-18
6.490000E+03	5.412798E-16	5.302958E-18
6.500000E+03	5.412042E-16	5.364095E-18
6.510000E+03	5.410824E-16	5.423360E-18
6.520000E+03	5.409425E-16	5.480952E-18
6.530000E+03	5.408534E-16	5.537507E-18
6.540000E+03	5.409231E-16	5.594095E-18
6.550000E+03	5.412863E-16	5.652115E-18
6.560000E+03	5.421185E-16	5.713448E-18
6.570000E+03	5.435997E-16	5.780085E-18
6.580000E+03	5.459112E-16	5.854094E-18
6.590000E+03	5.492223E-16	5.937460E-18
6.600000E+03	5.536908E-16	6.032091E-18
6.610000E+03	5.594083E-16	6.139197E-18
6.620000E+03	5.664083E-16	6.259352E-18
6.630000E+03	5.746751E-16	6.392565E-18
6.640000E+03	5.841392E-16	6.538211E-18
6.650000E+03	5.946880E-16	6.695137E-18
6.660000E+03	6.061793E-16	6.861797E-18
6.670000E+03	6.184160E-16	7.035965E-18
6.680000E+03	6.312048E-16	7.215394E-18
6.690000E+03	6.443119E-16	7.397317E-18
6.700000E+03	6.574816E-16	7.578658E-18
6.710000E+03	6.704316E-16	7.755985E-18
6.720000E+03	6.828855E-16	7.925891E-18
6.730000E+03	6.945563E-16	8.084811E-18
6.740000E+03	7.051632E-16	8.229238E-18
6.750000E+03	7.144428E-16	8.355853E-18
6.760000E+03	7.221691E-16	8.461786E-18
6.770000E+03	7.281264E-16	8.544302E-18
6.780000E+03	7.321851E-16	8.601708E-18
6.790000E+03	7.342324E-16	8.632550E-18
6.800000E+03	7.342570E-16	8.636612E-18
6.810000E+03	7.322904E-16	8.614236E-18
6.820000E+03	7.284043E-16	8.566286E-18
6.830000E+03	7.227682E-16	8.494825E-18
6.840000E+03	7.155690E-16	8.402162E-18
6.850000E+03	7.070505E-16	8.291307E-18
6.860000E+03	6.974622E-16	8.165356E-18
6.870000E+03	6.870802E-16	8.027727E-18
6.880000E+03	6.761883E-16	7.881925E-18
6.890000E+03	6.650790E-16	7.731541E-18
6.900000E+03	6.540175E-16	7.579820E-18
6.910000E+03	6.432647E-16	7.429922E-18
6.920000E+03	6.330610E-16	7.284726E-18
6.930000E+03	6.236336E-16	7.146909E-18
6.940000E+03	6.151566E-16	7.018481E-18
6.950000E+03	6.078117E-16	6.901486E-18
6.960000E+03	6.017265E-16	6.797294E-18
6.970000E+03	5.970102E-16	6.707011E-18
6.980000E+03	5.937501E-16	6.631445E-18
6.990000E+03	5.919789E-16	6.570745E-18
7.000000E+03	5.917241E-16	6.524966E-18
7.010000E+03	5.929668E-16	6.493614E-18
7.020000E+03	5.956528E-16	6.475796E-18
7.030000E+03	5.996898E-16	6.470196E-18
7.040000E+03	6.049310E-16	6.474927E-18
7.050000E+03	6.112171E-16	6.487996E-18
7.060000E+03	6.183143E-16	6.506674E-18
7.070000E+03	6.259776E-16	6.528191E-18
7.080000E+03	6.339151E-16	6.549382E-18
7.090000E+03	6.418374E-16	6.567227E-18
7.100000E+03	6.494303E-16	6.578576E-18
7.110000E+03	6.564083E-16	6.580709E-18
7.120000E+03	6.625040E-16	6.571227E-18
7.130000E+03	6.674711E-16	6.548070E-18
7.140000E+03	6.711649E-16	6.510297E-18
7.150000E+03	6.734322E-16	6.456973E-18
7.160000E+03	6.742275E-16	6.388275E-18
7.170000E+03	6.735195E-16	6.304563E-18
7.180000E+03	6.713723E-16	6.207108E-18
7.190000E+03	6.678665E-16	6.097324E-18
7.200000E+03	6.631360E-16	5.977080E-18
7.210000E+03	6.573609E-16	5.848607E-18
7.220000E+03	6.507160E-16	5.714012E-18
7.230000E+03	6.434265E-16	5.575764E-18
7.240000E+03	6.357071E-16	5.436138E-18
7.250000E+03	6.278027E-16	5.297571E-18
7.260000E+03	6.199082E-16	5.161971E-18
7.270000E+03	6.122354E-16	5.031300E-18
7.280000E+03	6.049103E-16	4.906739E-18
7.290000E+03	5.980830E-16	4.789612E-18
7.300000E+03	5.918107E-16	4.680458E-18
7.310000E+03	5.861306E-16	4.579648E-18
7.320000E+03	5.810204E-16	4.487097E-18
7.330000E+03	5.764426E-16	4.402624E-18
7.340000E+03	5.723073E-16	4.325688E-18
7.350000E+03	5.685312E-16	4.255834E-18
7.360000E+03	5.650310E-16	4.192644E-18
7.370000E+03	5.617248E-16	4.135740E-18
7.380000E+03	5.586025E-16	4.085284E-18
7.390000E+03	5.556244E-16	4.041218E-18
7.400000E+03	5.528308E-16	4.004018E-18
7.410000E+03	5.502331E-16	3.973910E-18
7.420000E+03	5.478699E-16	3.951305E-18
7.430000E+03	5.457449E-16	3.936347E-18
7.440000E+03	5.438612E-16	3.929164E-18
7.450000E+03	5.421396E-16	3.929272E-18
7.460000E+03	5.404636E-16	3.935866E-18
7.470000E+03	5.386731E-16	3.947611E-18
7.480000E+03	5.365422E-16	3.962547E-18
7.490000E+03	5.338282E-16	3.978491E-18
7.500000E+03	5.302434E-16	3.992812E-18
7.510000E+03	5.255402E-16	4.003038E-18
7.520000E+03	5.194599E-16	4.006464E-18
7.530000E+03	5.118308E-16	4.000902E-18
7.540000E+03	5.025776E-16	3.984794E-18
7.550000E+03	4.917674E-16	3.957640E-18
7.560000E+03	4.795862E-16	3.919901E-18
7.570000E+03	4.662751E-16	3.872561E-18
7.580000E+03	4.521159E-16	3.817067E-18
7.590000E+03	4.373827E-16	3.754958E-18
7.600000E+03	4.223350E-16	3.687820E-18
7.610000E+03	4.072089E-16	3.617212E-18
7.620000E+03	3.922056E-16	3.544553E-18
7.630000E+03	3.775124E-16	3.471297E-18
7.640000E+03	3.632846E-16	3.398751E-18
7.650000E+03	3.496527E-16	3.328130E-18
7.660000E+03	3.367399E-16	3.260696E-18
7.670000E+03	3.246052E-16	3.197196E-18
7.680000E+03	3.132909E-16	3.138279E-18
7.690000E+03	3.028034E-16	3.084284E-18
7.700000E+03	2.931500E-16	3.035591E-18
7.710000E+03	2.843046E-16	2.992248E-18
7.720000E+03	2.762499E-16	2.954402E-18
7.730000E+03	2.689575E-16	2.922074E-18
7.740000E+03	2.623900E-16	2.895186E-18
7.750000E+03	2.565172E-16	2.873716E-18
7.760000E+03	2.513010E-16	2.857542E-18
