#wls	flux	fluxerr
1.600000E+03	2.403547E-17	2.258635E-18
1.640000E+03	2.370807E-17	2.216024E-18
1.680000E+03	2.338539E-17	2.173894E-18
1.720000E+03	2.306291E-17	2.131828E-18
1.760000E+03	2.274500E-17	2.090233E-18
1.800000E+03	2.243582E-17	2.049491E-18
1.840000E+03	2.213506E-17	2.009565E-18
1.880000E+03	2.183830E-17	1.970050E-18
1.920000E+03	2.155366E-17	1.931674E-18
1.960000E+03	2.128067E-17	1.894382E-18
2.000000E+03	2.101892E-17	1.858124E-18
2.040000E+03	2.076802E-17	1.822851E-18
2.080000E+03	2.053526E-17	1.789185E-18
2.120000E+03	2.031615E-17	1.756709E-18
2.160000E+03	2.011391E-17	1.725677E-18
2.200000E+03	1.992422E-17	1.695695E-18
2.240000E+03	1.975385E-17	1.667313E-18
2.280000E+03	1.959857E-17	1.640139E-18
2.320000E+03	1.945791E-17	1.614109E-18
2.360000E+03	1.933152E-17	1.589164E-18
2.400000E+03	1.921910E-17	1.565251E-18
2.440000E+03	1.912052E-17	1.542331E-18
2.480000E+03	1.903895E-17	1.520629E-18
2.520000E+03	1.896808E-17	1.499605E-18
2.560000E+03	1.891146E-17	1.479515E-18
2.600000E+03	1.886960E-17	1.460364E-18
2.640000E+03	1.884028E-17	1.441946E-18
2.680000E+03	1.883042E-17	1.424754E-18
2.720000E+03	1.883543E-17	1.408394E-18
2.760000E+03	1.885982E-17	1.393160E-18
2.800000E+03	1.890274E-17	1.378938E-18
2.840000E+03	1.896932E-17	1.366044E-18
2.880000E+03	1.906487E-17	1.354788E-18
2.920000E+03	1.918977E-17	1.345113E-18
2.960000E+03	1.935530E-17	1.337709E-18
3.000000E+03	1.956763E-17	1.332875E-18
3.010000E+03	1.962704E-17	1.331984E-18
3.020000E+03	1.969318E-17	1.331500E-18
3.030000E+03	1.976103E-17	1.331079E-18
3.040000E+03	1.983319E-17	1.330896E-18
3.050000E+03	1.990972E-17	1.330949E-18
3.060000E+03	1.999067E-17	1.331240E-18
3.070000E+03	2.007611E-17	1.331768E-18
3.080000E+03	2.016861E-17	1.332702E-18
3.090000E+03	2.026320E-17	1.333707E-18
3.100000E+03	2.036245E-17	1.334950E-18
3.110000E+03	2.046892E-17	1.336596E-18
3.120000E+03	2.058015E-17	1.338477E-18
3.130000E+03	2.069618E-17	1.340593E-18
3.140000E+03	2.081956E-17	1.343104E-18
3.150000E+03	2.094785E-17	1.345848E-18
3.160000E+03	2.108353E-17	1.348978E-18
3.170000E+03	2.122416E-17	1.352335E-18
3.180000E+03	2.137472E-17	1.356228E-18
3.190000E+03	2.153024E-17	1.360337E-18
3.200000E+03	2.169074E-17	1.364658E-18
3.210000E+03	2.186115E-17	1.369495E-18
3.220000E+03	2.203896E-17	1.374685E-18
3.230000E+03	2.222413E-17	1.380217E-18
3.240000E+03	2.241660E-17	1.386083E-18
3.250000E+03	2.261878E-17	1.392423E-18
3.260000E+03	2.282809E-17	1.399073E-18
3.270000E+03	2.304689E-17	1.406170E-18
3.280000E+03	2.327258E-17	1.413547E-18
3.290000E+03	2.350995E-17	1.421488E-18
3.300000E+03	2.375385E-17	1.429674E-18
3.310000E+03	2.400658E-17	1.438236E-18
3.320000E+03	2.426790E-17	1.447153E-18
3.330000E+03	2.454004E-17	1.456549E-18
3.340000E+03	2.482024E-17	1.466252E-18
3.350000E+03	2.511071E-17	1.476384E-18
3.360000E+03	2.540861E-17	1.486771E-18
3.370000E+03	2.571613E-17	1.497533E-18
3.380000E+03	2.603291E-17	1.508641E-18
3.390000E+03	2.636112E-17	1.520212E-18
3.400000E+03	2.669790E-17	1.532072E-18
3.410000E+03	2.704289E-17	1.544192E-18
3.420000E+03	2.739828E-17	1.556690E-18
3.430000E+03	2.776125E-17	1.569397E-18
3.440000E+03	2.813653E-17	1.582572E-18
3.450000E+03	2.852139E-17	1.596052E-18
3.460000E+03	2.891567E-17	1.609818E-18
3.470000E+03	2.931932E-17	1.623860E-18
3.480000E+03	2.973752E-17	1.638455E-18
3.490000E+03	3.016582E-17	1.653346E-18
3.500000E+03	3.060776E-17	1.668716E-18
3.510000E+03	3.106461E-17	1.684623E-18
3.520000E+03	3.153788E-17	1.701134E-18
3.530000E+03	3.203172E-17	1.718458E-18
3.540000E+03	3.254797E-17	1.736676E-18
3.550000E+03	3.308614E-17	1.755739E-18
3.560000E+03	3.365341E-17	1.776009E-18
3.570000E+03	3.424713E-17	1.797320E-18
3.580000E+03	3.487480E-17	1.820040E-18
3.590000E+03	3.553919E-17	1.844282E-18
3.600000E+03	3.624066E-17	1.870031E-18
3.610000E+03	3.698487E-17	1.897542E-18
3.620000E+03	3.777512E-17	1.926947E-18
3.630000E+03	3.861246E-17	1.958255E-18
3.640000E+03	3.950826E-17	1.991997E-18
3.650000E+03	4.045896E-17	2.027941E-18
3.660000E+03	4.147396E-17	2.066504E-18
3.670000E+03	4.255786E-17	2.107856E-18
3.680000E+03	4.371295E-17	2.152047E-18
3.690000E+03	4.494965E-17	2.199520E-18
3.700000E+03	4.626821E-17	2.250211E-18
3.710000E+03	4.767708E-17	2.304455E-18
3.720000E+03	4.918514E-17	2.362594E-18
3.730000E+03	5.079622E-17	2.424719E-18
3.740000E+03	5.251716E-17	2.491059E-18
3.750000E+03	5.435794E-17	2.561981E-18
3.760000E+03	5.632325E-17	2.637595E-18
3.770000E+03	5.842377E-17	2.718281E-18
3.780000E+03	6.066468E-17	2.804151E-18
3.790000E+03	6.305722E-17	2.895591E-18
3.800000E+03	6.560991E-17	2.992848E-18
3.810000E+03	6.833142E-17	3.096163E-18
3.820000E+03	7.122718E-17	3.205622E-18
3.830000E+03	7.431212E-17	3.321727E-18
3.840000E+03	7.758807E-17	3.444383E-18
3.850000E+03	8.106620E-17	3.573900E-18
3.860000E+03	8.475396E-17	3.710412E-18
3.870000E+03	8.865435E-17	3.853851E-18
3.880000E+03	9.278016E-17	4.004566E-18
3.890000E+03	9.712844E-17	4.162216E-18
3.900000E+03	1.017054E-16	4.326852E-18
3.910000E+03	1.065120E-16	4.498296E-18
3.920000E+03	1.115426E-16	4.676087E-18
3.930000E+03	1.167966E-16	4.859990E-18
3.940000E+03	1.222627E-16	5.049321E-18
3.950000E+03	1.279343E-16	5.243599E-18
3.960000E+03	1.337923E-16	5.441855E-18
3.970000E+03	1.398183E-16	5.643157E-18
3.980000E+03	1.459895E-16	5.846433E-18
3.990000E+03	1.522795E-16	6.050486E-18
4.000000E+03	1.586576E-16	6.253989E-18
4.010000E+03	1.650846E-16	6.455320E-18
4.020000E+03	1.715279E-16	6.653158E-18
4.030000E+03	1.779363E-16	6.845519E-18
4.040000E+03	1.842769E-16	7.031172E-18
4.050000E+03	1.904995E-16	7.208279E-18
4.060000E+03	1.965524E-16	7.375007E-18
4.070000E+03	2.023948E-16	7.530002E-18
4.080000E+03	2.079767E-16	7.671609E-18
4.090000E+03	2.132561E-16	7.798549E-18
4.100000E+03	2.181957E-16	7.909757E-18
4.110000E+03	2.227591E-16	8.004245E-18
4.120000E+03	2.269228E-16	8.081543E-18
4.130000E+03	2.306722E-16	8.141517E-18
4.140000E+03	2.339961E-16	8.184181E-18
4.150000E+03	2.369044E-16	8.210291E-18
4.160000E+03	2.394046E-16	8.220503E-18
4.170000E+03	2.415119E-16	8.215735E-18
4.180000E+03	2.432590E-16	8.197474E-18
4.190000E+03	2.446724E-16	8.166956E-18
4.200000E+03	2.457814E-16	8.125481E-18
4.210000E+03	2.466275E-16	8.074710E-18
4.220000E+03	2.472364E-16	8.015733E-18
4.230000E+03	2.476482E-16	7.950078E-18
4.240000E+03	2.478907E-16	7.878829E-18
4.250000E+03	2.479892E-16	7.802957E-18
4.260000E+03	2.479762E-16	7.723622E-18
4.270000E+03	2.478712E-16	7.641543E-18
4.280000E+03	2.476950E-16	7.557459E-18
4.290000E+03	2.474557E-16	7.471694E-18
4.300000E+03	2.471724E-16	7.384890E-18
4.310000E+03	2.468507E-16	7.297273E-18
4.320000E+03	2.464979E-16	7.209103E-18
4.330000E+03	2.461130E-16	7.120399E-18
4.340000E+03	2.457019E-16	7.031376E-18
4.350000E+03	2.452506E-16	6.941679E-18
4.360000E+03	2.447665E-16	6.851565E-18
4.370000E+03	2.442438E-16	6.760929E-18
4.380000E+03	2.436743E-16	6.669594E-18
4.390000E+03	2.430689E-16	6.577919E-18
4.400000E+03	2.424294E-16	6.486002E-18
4.410000E+03	2.417626E-16	6.394076E-18
4.420000E+03	2.410859E-16	6.302641E-18
4.430000E+03	2.404255E-16	6.212398E-18
4.440000E+03	2.398173E-16	6.124277E-18
4.450000E+03	2.392993E-16	6.039206E-18
4.460000E+03	2.389228E-16	5.958406E-18
4.470000E+03	2.387212E-16	5.882600E-18
4.480000E+03	2.387418E-16	5.812806E-18
4.490000E+03	2.390220E-16	5.749761E-18
4.500000E+03	2.396036E-16	5.694258E-18
4.510000E+03	2.405134E-16	5.646690E-18
4.520000E+03	2.417802E-16	5.607466E-18
4.530000E+03	2.434302E-16	5.576906E-18
4.540000E+03	2.454719E-16	5.554910E-18
4.550000E+03	2.479198E-16	5.541509E-18
4.560000E+03	2.507694E-16	5.536309E-18
4.570000E+03	2.540069E-16	5.538725E-18
4.580000E+03	2.576127E-16	5.548072E-18
4.590000E+03	2.615611E-16	5.563563E-18
4.600000E+03	2.658092E-16	5.584095E-18
4.610000E+03	2.703090E-16	5.608504E-18
4.620000E+03	2.750038E-16	5.635513E-18
4.630000E+03	2.798307E-16	5.663780E-18
4.640000E+03	2.847217E-16	5.691941E-18
4.650000E+03	2.896071E-16	5.718665E-18
4.660000E+03	2.944106E-16	5.742566E-18
4.670000E+03	2.990739E-16	5.762687E-18
4.680000E+03	3.035325E-16	5.778005E-18
4.690000E+03	3.077274E-16	5.787665E-18
4.700000E+03	3.116142E-16	5.791132E-18
4.710000E+03	3.151483E-16	5.787904E-18
4.720000E+03	3.182973E-16	5.777736E-18
4.730000E+03	3.210374E-16	5.760556E-18
4.740000E+03	3.233477E-16	5.736358E-18
4.750000E+03	3.252115E-16	5.705213E-18
4.760000E+03	3.265810E-16	5.666654E-18
4.770000E+03	3.273548E-16	5.619317E-18
4.780000E+03	3.274117E-16	5.561562E-18
4.790000E+03	3.266606E-16	5.492312E-18
4.800000E+03	3.250538E-16	5.411248E-18
4.810000E+03	3.225821E-16	5.318682E-18
4.820000E+03	3.192924E-16	5.215811E-18
4.830000E+03	3.152780E-16	5.104518E-18
4.840000E+03	3.106662E-16	4.987136E-18
4.850000E+03	3.056251E-16	4.866547E-18
4.860000E+03	3.003470E-16	4.745897E-18
4.870000E+03	2.950176E-16	4.628101E-18
4.880000E+03	2.898270E-16	4.516017E-18
4.890000E+03	2.849566E-16	4.412279E-18
4.900000E+03	2.805829E-16	4.319384E-18
4.910000E+03	2.768505E-16	4.239298E-18
4.920000E+03	2.738939E-16	4.173812E-18
4.930000E+03	2.718171E-16	4.124245E-18
4.940000E+03	2.706883E-16	4.091388E-18
4.950000E+03	2.705501E-16	4.075668E-18
4.960000E+03	2.714226E-16	4.077208E-18
4.970000E+03	2.732891E-16	4.095617E-18
4.980000E+03	2.761137E-16	4.130218E-18
4.990000E+03	2.798354E-16	4.179985E-18
5.000000E+03	2.843725E-16	4.243621E-18
5.010000E+03	2.896240E-16	4.319568E-18
5.020000E+03	2.954721E-16	4.406044E-18
5.030000E+03	3.017786E-16	4.500974E-18
5.040000E+03	3.083913E-16	4.602085E-18
5.050000E+03	3.151513E-16	4.706998E-18
5.060000E+03	3.218999E-16	4.813327E-18
5.070000E+03	3.284894E-16	4.918834E-18
5.080000E+03	3.347825E-16	5.021410E-18
5.090000E+03	3.406583E-16	5.119174E-18
5.100000E+03	3.460300E-16	5.210726E-18
5.110000E+03	3.508394E-16	5.295074E-18
5.120000E+03	3.550632E-16	5.371739E-18
5.130000E+03	3.587144E-16	5.440773E-18
5.140000E+03	3.618396E-16	5.502737E-18
5.150000E+03	3.645186E-16	5.558696E-18
5.160000E+03	3.668404E-16	5.609871E-18
5.170000E+03	3.689254E-16	5.657971E-18
5.180000E+03	3.708732E-16	5.704414E-18
5.190000E+03	3.728005E-16	5.750896E-18
5.200000E+03	3.748096E-16	5.798917E-18
5.210000E+03	3.769898E-16	5.849792E-18
5.220000E+03	3.794245E-16	5.904768E-18
5.230000E+03	3.821915E-16	5.965018E-18
5.240000E+03	3.853515E-16	6.031465E-18
5.250000E+03	3.889641E-16	6.105025E-18
5.260000E+03	3.930763E-16	6.186427E-18
5.270000E+03	3.977179E-16	6.276134E-18
5.280000E+03	4.029288E-16	6.374775E-18
5.290000E+03	4.087172E-16	6.482478E-18
5.300000E+03	4.150859E-16	6.599283E-18
5.310000E+03	4.220222E-16	6.724976E-18
5.320000E+03	4.295001E-16	6.859133E-18
5.330000E+03	4.374695E-16	7.000929E-18
5.340000E+03	4.458498E-16	7.149038E-18
5.350000E+03	4.545562E-16	7.302057E-18
5.360000E+03	4.634698E-16	7.458017E-18
5.370000E+03	4.724606E-16	7.614755E-18
5.380000E+03	4.814012E-16	7.770141E-18
5.390000E+03	4.901684E-16	7.922096E-18
5.400000E+03	4.986502E-16	8.068716E-18
5.410000E+03	5.067596E-16	8.208499E-18
5.420000E+03	5.144092E-16	8.339919E-18
5.430000E+03	5.215271E-16	8.461697E-18
5.440000E+03	5.280518E-16	8.572717E-18
5.450000E+03	5.339327E-16	8.672041E-18
5.460000E+03	5.391319E-16	8.758940E-18
5.470000E+03	5.436251E-16	8.832916E-18
5.480000E+03	5.474076E-16	8.893802E-18
5.490000E+03	5.504710E-16	8.941387E-18
5.500000E+03	5.528385E-16	8.975983E-18
5.510000E+03	5.545255E-16	8.997792E-18
5.520000E+03	5.555315E-16	9.006772E-18
5.530000E+03	5.558516E-16	9.002823E-18
5.540000E+03	5.554621E-16	8.985560E-18
5.550000E+03	5.543057E-16	8.954070E-18
5.560000E+03	5.523014E-16	8.907085E-18
5.570000E+03	5.493322E-16	8.842782E-18
5.580000E+03	5.452772E-16	8.759314E-18
5.590000E+03	5.400098E-16	8.654784E-18
5.600000E+03	5.334138E-16	8.527503E-18
5.610000E+03	5.254098E-16	8.376426E-18
5.620000E+03	5.159703E-16	8.201377E-18
5.630000E+03	5.051147E-16	8.002959E-18
5.640000E+03	4.929300E-16	7.782876E-18
5.650000E+03	4.795698E-16	7.543893E-18
5.660000E+03	4.652293E-16	7.289419E-18
5.670000E+03	4.501641E-16	7.023785E-18
5.680000E+03	4.346373E-16	6.751388E-18
5.690000E+03	4.189406E-16	6.477011E-18
5.700000E+03	4.033486E-16	6.205092E-18
5.710000E+03	3.881388E-16	5.940032E-18
5.720000E+03	3.735656E-16	5.685790E-18
5.730000E+03	3.598708E-16	5.446031E-18
5.740000E+03	3.472681E-16	5.223904E-18
5.750000E+03	3.359434E-16	5.022036E-18
5.760000E+03	3.260590E-16	4.842615E-18
5.770000E+03	3.177537E-16	4.687387E-18
5.780000E+03	3.111312E-16	4.557507E-18
5.790000E+03	3.062854E-16	4.453904E-18
5.800000E+03	3.032792E-16	4.376992E-18
5.810000E+03	3.021655E-16	4.326988E-18
5.820000E+03	3.029915E-16	4.303966E-18
5.830000E+03	3.057780E-16	4.307583E-18
5.840000E+03	3.105474E-16	4.337485E-18
5.850000E+03	3.172949E-16	4.392900E-18
5.860000E+03	3.259866E-16	4.472647E-18
5.870000E+03	3.365563E-16	4.575103E-18
5.880000E+03	3.488887E-16	4.698004E-18
5.890000E+03	3.628139E-16	4.838419E-18
5.900000E+03	3.781084E-16	4.992789E-18
5.910000E+03	3.944868E-16	5.156877E-18
5.920000E+03	4.115951E-16	5.325720E-18
5.930000E+03	4.290249E-16	5.493869E-18
5.940000E+03	4.463074E-16	5.655344E-18
5.950000E+03	4.629468E-16	5.804118E-18
5.960000E+03	4.784243E-16	5.934165E-18
5.970000E+03	4.922522E-16	6.040148E-18
5.980000E+03	5.039832E-16	6.117506E-18
5.990000E+03	5.132599E-16	6.163008E-18
6.000000E+03	5.198196E-16	6.174741E-18
6.010000E+03	5.235262E-16	6.152413E-18
6.020000E+03	5.243717E-16	6.097273E-18
6.030000E+03	5.224735E-16	6.011982E-18
6.040000E+03	5.180356E-16	5.900088E-18
6.050000E+03	5.113556E-16	5.766051E-18
6.060000E+03	5.027801E-16	5.614679E-18
6.070000E+03	4.926842E-16	5.450882E-18
6.080000E+03	4.814517E-16	5.279445E-18
6.090000E+03	4.694683E-16	5.104964E-18
6.100000E+03	4.570830E-16	4.931442E-18
6.110000E+03	4.446384E-16	4.762648E-18
6.120000E+03	4.324402E-16	4.601814E-18
6.130000E+03	4.207689E-16	4.451800E-18
6.140000E+03	4.098670E-16	4.314984E-18
6.150000E+03	3.999530E-16	4.193450E-18
6.160000E+03	3.912110E-16	4.088907E-18
6.170000E+03	3.837746E-16	4.002547E-18
6.180000E+03	3.777544E-16	3.935326E-18
6.190000E+03	3.732073E-16	3.887626E-18
6.200000E+03	3.701432E-16	3.859402E-18
6.210000E+03	3.684527E-16	3.849449E-18
6.220000E+03	3.678699E-16	3.854948E-18
6.230000E+03	3.680766E-16	3.872480E-18
6.240000E+03	3.687647E-16	3.898710E-18
6.250000E+03	3.697145E-16	3.931199E-18
6.260000E+03	3.707989E-16	3.968460E-18
6.270000E+03	3.719462E-16	4.009567E-18
6.280000E+03	3.730859E-16	4.053584E-18
6.290000E+03	3.741627E-16	4.099714E-18
6.300000E+03	3.751302E-16	4.147235E-18
6.310000E+03	3.759385E-16	4.195361E-18
6.320000E+03	3.765452E-16	4.243370E-18
6.330000E+03	3.769123E-16	4.290566E-18
6.340000E+03	3.770117E-16	4.336347E-18
6.350000E+03	3.768139E-16	4.380081E-18
6.360000E+03	3.763038E-16	4.421292E-18
6.370000E+03	3.754700E-16	4.459540E-18
6.380000E+03	3.743073E-16	4.494462E-18
6.390000E+03	3.728179E-16	4.525781E-18
6.400000E+03	3.710135E-16	4.553349E-18
6.410000E+03	3.689049E-16	4.577015E-18
6.420000E+03	3.665114E-16	4.596756E-18
6.430000E+03	3.638647E-16	4.612720E-18
6.440000E+03	3.609888E-16	4.624989E-18
6.450000E+03	3.579183E-16	4.633800E-18
6.460000E+03	3.546832E-16	4.639364E-18
6.470000E+03	3.513305E-16	4.642140E-18
6.480000E+03	3.478996E-16	4.642523E-18
6.490000E+03	3.444307E-16	4.640950E-18
6.500000E+03	3.409841E-16	4.638157E-18
6.510000E+03	3.376055E-16	4.634724E-18
6.520000E+03	3.343661E-16	4.631612E-18
6.530000E+03	3.313315E-16	4.629743E-18
6.540000E+03	3.285880E-16	4.630367E-18
6.550000E+03	3.262168E-16	4.634708E-18
6.560000E+03	3.243127E-16	4.644217E-18
6.570000E+03	3.229558E-16	4.660173E-18
6.580000E+03	3.222389E-16	4.684073E-18
6.590000E+03	3.222318E-16	4.717104E-18
6.600000E+03	3.229946E-16	4.760330E-18
6.610000E+03	3.245771E-16	4.814672E-18
6.620000E+03	3.269976E-16	4.880583E-18
6.630000E+03	3.302585E-16	4.958271E-18
6.640000E+03	3.343351E-16	5.047509E-18
6.650000E+03	3.391824E-16	5.147743E-18
6.660000E+03	3.447302E-16	5.257999E-18
6.670000E+03	3.508893E-16	5.376972E-18
6.680000E+03	3.575579E-16	5.503122E-18
6.690000E+03	3.646126E-16	5.634533E-18
6.700000E+03	3.719209E-16	5.769109E-18
6.710000E+03	3.793484E-16	5.904686E-18
6.720000E+03	3.867405E-16	6.038746E-18
6.730000E+03	3.939414E-16	6.168729E-18
6.740000E+03	4.007944E-16	6.292032E-18
6.750000E+03	4.071496E-16	6.406151E-18
6.760000E+03	4.128606E-16	6.508619E-18
6.770000E+03	4.177873E-16	6.597077E-18
6.780000E+03	4.218168E-16	6.669600E-18
6.790000E+03	4.248491E-16	6.724484E-18
6.800000E+03	4.268257E-16	6.760704E-18
6.810000E+03	4.277024E-16	6.777495E-18
6.820000E+03	4.274648E-16	6.774588E-18
6.830000E+03	4.261424E-16	6.752451E-18
6.840000E+03	4.237785E-16	6.711796E-18
6.850000E+03	4.204475E-16	6.653864E-18
6.860000E+03	4.162479E-16	6.580300E-18
6.870000E+03	4.112996E-16	6.493108E-18
6.880000E+03	4.057410E-16	6.394598E-18
6.890000E+03	3.997300E-16	6.287389E-18
6.900000E+03	3.934252E-16	6.174110E-18
6.910000E+03	3.869955E-16	6.057536E-18
6.920000E+03	3.806108E-16	5.940440E-18
6.930000E+03	3.744387E-16	5.825524E-18
6.940000E+03	3.686407E-16	5.715363E-18
6.950000E+03	3.633689E-16	5.612345E-18
6.960000E+03	3.587629E-16	5.518611E-18
6.970000E+03	3.549451E-16	5.435996E-18
6.980000E+03	3.520228E-16	5.366050E-18
6.990000E+03	3.500651E-16	5.309689E-18
7.000000E+03	3.491429E-16	5.267817E-18
7.010000E+03	3.492812E-16	5.240603E-18
7.020000E+03	3.504904E-16	5.227962E-18
7.030000E+03	3.527464E-16	5.229279E-18
7.040000E+03	3.559888E-16	5.243384E-18
7.050000E+03	3.601299E-16	5.268717E-18
7.060000E+03	3.650529E-16	5.303314E-18
7.070000E+03	3.706151E-16	5.344871E-18
7.080000E+03	3.766509E-16	5.390809E-18
7.090000E+03	3.829780E-16	5.438383E-18
7.100000E+03	3.894032E-16	5.484776E-18
7.110000E+03	3.957207E-16	5.527086E-18
7.120000E+03	4.017551E-16	5.562942E-18
7.130000E+03	4.073177E-16	5.589886E-18
7.140000E+03	4.122626E-16	5.606152E-18
7.150000E+03	4.164652E-16	5.610349E-18
7.160000E+03	4.198516E-16	5.601843E-18
7.170000E+03	4.223601E-16	5.580222E-18
7.180000E+03	4.239869E-16	5.545872E-18
7.190000E+03	4.247625E-16	5.499652E-18
7.200000E+03	4.247283E-16	5.442548E-18
7.210000E+03	4.239813E-16	5.376248E-18
7.220000E+03	4.226070E-16	5.302249E-18
7.230000E+03	4.207232E-16	5.222412E-18
7.240000E+03	4.184429E-16	5.138481E-18
7.250000E+03	4.158877E-16	5.052251E-18
7.260000E+03	4.131573E-16	4.965189E-18
7.270000E+03	4.103608E-16	4.878827E-18
7.280000E+03	4.075666E-16	4.794167E-18
7.290000E+03	4.048508E-16	4.712268E-18
7.300000E+03	4.022532E-16	4.633741E-18
7.310000E+03	3.997977E-16	4.558998E-18
7.320000E+03	3.974781E-16	4.488112E-18
7.330000E+03	3.952915E-16	4.421196E-18
7.340000E+03	3.932062E-16	4.358059E-18
7.350000E+03	3.911855E-16	4.298466E-18
7.360000E+03	3.891822E-16	4.242088E-18
7.370000E+03	3.871507E-16	4.188633E-18
7.380000E+03	3.850501E-16	4.137866E-18
7.390000E+03	3.828319E-16	4.089479E-18
7.400000E+03	3.804566E-16	4.043258E-18
7.410000E+03	3.778896E-16	3.999032E-18
7.420000E+03	3.751032E-16	3.956688E-18
7.430000E+03	3.720777E-16	3.916139E-18
7.440000E+03	3.688027E-16	3.877300E-18
7.450000E+03	3.652770E-16	3.840139E-18
7.460000E+03	3.615009E-16	3.804607E-18
7.470000E+03	3.574712E-16	3.770584E-18
7.480000E+03	3.531755E-16	3.737815E-18
7.490000E+03	3.485875E-16	3.705863E-18
7.500000E+03	3.436637E-16	3.674052E-18
7.510000E+03	3.383364E-16	3.641318E-18
7.520000E+03	3.325330E-16	3.606441E-18
7.530000E+03	3.261625E-16	3.567944E-18
7.540000E+03	3.191947E-16	3.524957E-18
7.550000E+03	3.116951E-16	3.477632E-18
7.560000E+03	3.038021E-16	3.426958E-18
7.570000E+03	2.956663E-16	3.374119E-18
7.580000E+03	2.874208E-16	3.320178E-18
7.590000E+03	2.791923E-16	3.266210E-18
7.600000E+03	2.710884E-16	3.213162E-18
7.610000E+03	2.632028E-16	3.161897E-18
7.620000E+03	2.556160E-16	3.113214E-18
7.630000E+03	2.483958E-16	3.067832E-18
7.640000E+03	2.415953E-16	3.026365E-18
7.650000E+03	2.352211E-16	2.988908E-18
7.660000E+03	2.292446E-16	2.955128E-18
7.670000E+03	2.236240E-16	2.924529E-18
7.680000E+03	2.183341E-16	2.896824E-18
7.690000E+03	2.133500E-16	2.871731E-18
7.700000E+03	2.086674E-16	2.849248E-18
7.710000E+03	2.042926E-16	2.829531E-18
7.720000E+03	2.002312E-16	2.812748E-18
7.730000E+03	1.965054E-16	2.799313E-18
7.740000E+03	1.931305E-16	2.789574E-18
7.750000E+03	1.901233E-16	2.783922E-18
7.760000E+03	1.874966E-16	2.782707E-18
