#wls	flux	fluxerr
1.600000E+03	2.912427E-17	2.631754E-18
1.640000E+03	2.875181E-17	2.586564E-18
1.680000E+03	2.837835E-17	2.541290E-18
1.720000E+03	2.800914E-17	2.496403E-18
1.760000E+03	2.764398E-17	2.451889E-18
1.800000E+03	2.728773E-17	2.408177E-18
1.840000E+03	2.693502E-17	2.364789E-18
1.880000E+03	2.659557E-17	2.322576E-18
1.920000E+03	2.626391E-17	2.281051E-18
1.960000E+03	2.594929E-17	2.241007E-18
2.000000E+03	2.565093E-17	2.202356E-18
2.040000E+03	2.536806E-17	2.165017E-18
2.080000E+03	2.510449E-17	2.129291E-18
2.120000E+03	2.485927E-17	2.095075E-18
2.160000E+03	2.463591E-17	2.062635E-18
2.200000E+03	2.443761E-17	2.032206E-18
2.240000E+03	2.425459E-17	2.002939E-18
2.280000E+03	2.409860E-17	1.975774E-18
2.320000E+03	2.395598E-17	1.949553E-18
2.360000E+03	2.383418E-17	1.924855E-18
2.400000E+03	2.372833E-17	1.901250E-18
2.440000E+03	2.363400E-17	1.878356E-18
2.480000E+03	2.355854E-17	1.856731E-18
2.520000E+03	2.349041E-17	1.835434E-18
2.560000E+03	2.343725E-17	1.815040E-18
2.600000E+03	2.339927E-17	1.795533E-18
2.640000E+03	2.336996E-17	1.776384E-18
2.680000E+03	2.335731E-17	1.758173E-18
2.720000E+03	2.335912E-17	1.740697E-18
2.760000E+03	2.337705E-17	1.724043E-18
2.800000E+03	2.341002E-17	1.708089E-18
2.840000E+03	2.346083E-17	1.693000E-18
2.880000E+03	2.353585E-17	1.679183E-18
2.920000E+03	2.363272E-17	1.666405E-18
2.960000E+03	2.376203E-17	1.655345E-18
3.000000E+03	2.393458E-17	1.646654E-18
3.010000E+03	2.398508E-17	1.644879E-18
3.020000E+03	2.403723E-17	1.643170E-18
3.030000E+03	2.409696E-17	1.641931E-18
3.040000E+03	2.415851E-17	1.640765E-18
3.050000E+03	2.422488E-17	1.639873E-18
3.060000E+03	2.429616E-17	1.639258E-18
3.070000E+03	2.436956E-17	1.638730E-18
3.080000E+03	2.445090E-17	1.638676E-18
3.090000E+03	2.453454E-17	1.638714E-18
3.100000E+03	2.462628E-17	1.639228E-18
3.110000E+03	2.472051E-17	1.639841E-18
3.120000E+03	2.482297E-17	1.640930E-18
3.130000E+03	2.493092E-17	1.642308E-18
3.140000E+03	2.504443E-17	1.643976E-18
3.150000E+03	2.516356E-17	1.645934E-18
3.160000E+03	2.529117E-17	1.648364E-18
3.170000E+03	2.542734E-17	1.651264E-18
3.180000E+03	2.556927E-17	1.654447E-18
3.190000E+03	2.571701E-17	1.657913E-18
3.200000E+03	2.587616E-17	1.662016E-18
3.210000E+03	2.604113E-17	1.666389E-18
3.220000E+03	2.621468E-17	1.671205E-18
3.230000E+03	2.639677E-17	1.676453E-18
3.240000E+03	2.659013E-17	1.682300E-18
3.250000E+03	2.679187E-17	1.688555E-18
3.260000E+03	2.700184E-17	1.695203E-18
3.270000E+03	2.721991E-17	1.702228E-18
3.280000E+03	2.745140E-17	1.709955E-18
3.290000E+03	2.769052E-17	1.718015E-18
3.300000E+03	2.793974E-17	1.726554E-18
3.310000E+03	2.819871E-17	1.735542E-18
3.320000E+03	2.846980E-17	1.745116E-18
3.330000E+03	2.874977E-17	1.755069E-18
3.340000E+03	2.903808E-17	1.765362E-18
3.350000E+03	2.933693E-17	1.776118E-18
3.360000E+03	2.964563E-17	1.787290E-18
3.370000E+03	2.996624E-17	1.798991E-18
3.380000E+03	3.029243E-17	1.810835E-18
3.390000E+03	3.062894E-17	1.823096E-18
3.400000E+03	3.097484E-17	1.835714E-18
3.410000E+03	3.132650E-17	1.848463E-18
3.420000E+03	3.168853E-17	1.861611E-18
3.430000E+03	3.205729E-17	1.874935E-18
3.440000E+03	3.243195E-17	1.888381E-18
3.450000E+03	3.281732E-17	1.902222E-18
3.460000E+03	3.320729E-17	1.916097E-18
3.470000E+03	3.360431E-17	1.930141E-18
3.480000E+03	3.400836E-17	1.944348E-18
3.490000E+03	3.442264E-17	1.958892E-18
3.500000E+03	3.484809E-17	1.973818E-18
3.510000E+03	3.528605E-17	1.989191E-18
3.520000E+03	3.573821E-17	2.005097E-18
3.530000E+03	3.620656E-17	2.021632E-18
3.540000E+03	3.669603E-17	2.039058E-18
3.550000E+03	3.720646E-17	2.057346E-18
3.560000E+03	3.774590E-17	2.076924E-18
3.570000E+03	3.831194E-17	2.097632E-18
3.580000E+03	3.891306E-17	2.119911E-18
3.590000E+03	3.954993E-17	2.143767E-18
3.600000E+03	4.022876E-17	2.169503E-18
3.610000E+03	4.095068E-17	2.197144E-18
3.620000E+03	4.172235E-17	2.227009E-18
3.630000E+03	4.254801E-17	2.259279E-18
3.640000E+03	4.343219E-17	2.294148E-18
3.650000E+03	4.438239E-17	2.331958E-18
3.660000E+03	4.539839E-17	2.372640E-18
3.670000E+03	4.649103E-17	2.416701E-18
3.680000E+03	4.766347E-17	2.464237E-18
3.690000E+03	4.892466E-17	2.515639E-18
3.700000E+03	5.027858E-17	2.571031E-18
3.710000E+03	5.173231E-17	2.630694E-18
3.720000E+03	5.329620E-17	2.695062E-18
3.730000E+03	5.497840E-17	2.764448E-18
3.740000E+03	5.678754E-17	2.839178E-18
3.750000E+03	5.872989E-17	2.919453E-18
3.760000E+03	6.081501E-17	3.005625E-18
3.770000E+03	6.305594E-17	3.098209E-18
3.780000E+03	6.546336E-17	3.197587E-18
3.790000E+03	6.804837E-17	3.304149E-18
3.800000E+03	7.081615E-17	3.417987E-18
3.810000E+03	7.378781E-17	3.539949E-18
3.820000E+03	7.696564E-17	3.669962E-18
3.830000E+03	8.036801E-17	3.808709E-18
3.840000E+03	8.400684E-17	3.956549E-18
3.850000E+03	8.788668E-17	4.113483E-18
3.860000E+03	9.202167E-17	4.279948E-18
3.870000E+03	9.642546E-17	4.456344E-18
3.880000E+03	1.010993E-16	4.642486E-18
3.890000E+03	1.060502E-16	4.838443E-18
3.900000E+03	1.112909E-16	5.044543E-18
3.910000E+03	1.168120E-16	5.260096E-18
3.920000E+03	1.226211E-16	5.485189E-18
3.930000E+03	1.287104E-16	5.719206E-18
3.940000E+03	1.350719E-16	5.961541E-18
3.950000E+03	1.416891E-16	6.211212E-18
3.960000E+03	1.485498E-16	6.467460E-18
3.970000E+03	1.556275E-16	6.728909E-18
3.980000E+03	1.629003E-16	6.994423E-18
3.990000E+03	1.703262E-16	7.262023E-18
4.000000E+03	1.778681E-16	7.529994E-18
4.010000E+03	1.854893E-16	7.796690E-18
4.020000E+03	1.931386E-16	8.059897E-18
4.030000E+03	2.007668E-16	8.317545E-18
4.040000E+03	2.083219E-16	8.567519E-18
4.050000E+03	2.157451E-16	8.807481E-18
4.060000E+03	2.229889E-16	9.035624E-18
4.070000E+03	2.299895E-16	9.249548E-18
4.080000E+03	2.366975E-16	9.447506E-18
4.090000E+03	2.430745E-16	9.628244E-18
4.100000E+03	2.490818E-16	9.790549E-18
4.110000E+03	2.546750E-16	9.933033E-18
4.120000E+03	2.598307E-16	1.005517E-17
4.130000E+03	2.645404E-16	1.015705E-17
4.140000E+03	2.687924E-16	1.023864E-17
4.150000E+03	2.725837E-16	1.030024E-17
4.160000E+03	2.759331E-16	1.034301E-17
4.170000E+03	2.788601E-16	1.036806E-17
4.180000E+03	2.813788E-16	1.037633E-17
4.190000E+03	2.835267E-16	1.036957E-17
4.200000E+03	2.853391E-16	1.034941E-17
4.210000E+03	2.868410E-16	1.031707E-17
4.220000E+03	2.880827E-16	1.027463E-17
4.230000E+03	2.890951E-16	1.022344E-17
4.240000E+03	2.899077E-16	1.016476E-17
4.250000E+03	2.905585E-16	1.010011E-17
4.260000E+03	2.910647E-16	1.003024E-17
4.270000E+03	2.914615E-16	9.956489E-18
4.280000E+03	2.917567E-16	9.879249E-18
4.290000E+03	2.919645E-16	9.799099E-18
4.300000E+03	2.920988E-16	9.716597E-18
4.310000E+03	2.921575E-16	9.631762E-18
4.320000E+03	2.921396E-16	9.544637E-18
4.330000E+03	2.920395E-16	9.455135E-18
4.340000E+03	2.918435E-16	9.362906E-18
4.350000E+03	2.915410E-16	9.267713E-18
4.360000E+03	2.911206E-16	9.169314E-18
4.370000E+03	2.905768E-16	9.067653E-18
4.380000E+03	2.898865E-16	8.962151E-18
4.390000E+03	2.890613E-16	8.853301E-18
4.400000E+03	2.880940E-16	8.741023E-18
4.410000E+03	2.869911E-16	8.625653E-18
4.420000E+03	2.857829E-16	8.508228E-18
4.430000E+03	2.844943E-16	8.389588E-18
4.440000E+03	2.831770E-16	8.271328E-18
4.450000E+03	2.818868E-16	8.155105E-18
4.460000E+03	2.806801E-16	8.042528E-18
4.470000E+03	2.796147E-16	7.935188E-18
4.480000E+03	2.787601E-16	7.834942E-18
4.490000E+03	2.781651E-16	7.742995E-18
4.500000E+03	2.778817E-16	7.660593E-18
4.510000E+03	2.779586E-16	7.588827E-18
4.520000E+03	2.784240E-16	7.528193E-18
4.530000E+03	2.793132E-16	7.479344E-18
4.540000E+03	2.806314E-16	7.442110E-18
4.550000E+03	2.823978E-16	7.416686E-18
4.560000E+03	2.845966E-16	7.402352E-18
4.570000E+03	2.872179E-16	7.398558E-18
4.580000E+03	2.902332E-16	7.404301E-18
4.590000E+03	2.936124E-16	7.418569E-18
4.600000E+03	2.973118E-16	7.440054E-18
4.610000E+03	3.012721E-16	7.467109E-18
4.620000E+03	3.054390E-16	7.498268E-18
4.630000E+03	3.097451E-16	7.531813E-18
4.640000E+03	3.141285E-16	7.566220E-18
4.650000E+03	3.185138E-16	7.599705E-18
4.660000E+03	3.228440E-16	7.630991E-18
4.670000E+03	3.270492E-16	7.658549E-18
4.680000E+03	3.310733E-16	7.681239E-18
4.690000E+03	3.348724E-16	7.698240E-18
4.700000E+03	3.384023E-16	7.708764E-18
4.710000E+03	3.416321E-16	7.712356E-18
4.720000E+03	3.445392E-16	7.708762E-18
4.730000E+03	3.471073E-16	7.697890E-18
4.740000E+03	3.493196E-16	7.679637E-18
4.750000E+03	3.511698E-16	7.654132E-18
4.760000E+03	3.526298E-16	7.621039E-18
4.770000E+03	3.536450E-16	7.579456E-18
4.780000E+03	3.541634E-16	7.528570E-18
4.790000E+03	3.541366E-16	7.467670E-18
4.800000E+03	3.535342E-16	7.396428E-18
4.810000E+03	3.523487E-16	7.315010E-18
4.820000E+03	3.506004E-16	7.224134E-18
4.830000E+03	3.483425E-16	7.125158E-18
4.840000E+03	3.456425E-16	7.019686E-18
4.850000E+03	3.426011E-16	6.909934E-18
4.860000E+03	3.393471E-16	6.798611E-18
4.870000E+03	3.360105E-16	6.688360E-18
4.880000E+03	3.327378E-16	6.582057E-18
4.890000E+03	3.296838E-16	6.482657E-18
4.900000E+03	3.269841E-16	6.392668E-18
4.910000E+03	3.247655E-16	6.314385E-18
4.920000E+03	3.231422E-16	6.249805E-18
4.930000E+03	3.222003E-16	6.200367E-18
4.940000E+03	3.220120E-16	6.167220E-18
4.950000E+03	3.226268E-16	6.151081E-18
4.960000E+03	3.240634E-16	6.152086E-18
4.970000E+03	3.263250E-16	6.170097E-18
4.980000E+03	3.293847E-16	6.204410E-18
4.990000E+03	3.332051E-16	6.254128E-18
5.000000E+03	3.377210E-16	6.317876E-18
5.010000E+03	3.428451E-16	6.393888E-18
5.020000E+03	3.484815E-16	6.480273E-18
5.030000E+03	3.545210E-16	6.574923E-18
5.040000E+03	3.608328E-16	6.675362E-18
5.050000E+03	3.673011E-16	6.779410E-18
5.060000E+03	3.737900E-16	6.884544E-18
5.070000E+03	3.801811E-16	6.988572E-18
5.080000E+03	3.863631E-16	7.089452E-18
5.090000E+03	3.922404E-16	7.185433E-18
5.100000E+03	3.977427E-16	7.275230E-18
5.110000E+03	4.028146E-16	7.357833E-18
5.120000E+03	4.074354E-16	7.432858E-18
5.130000E+03	4.116059E-16	7.500311E-18
5.140000E+03	4.153476E-16	7.560562E-18
5.150000E+03	4.187175E-16	7.614624E-18
5.160000E+03	4.217778E-16	7.663596E-18
5.170000E+03	4.246098E-16	7.708915E-18
5.180000E+03	4.273044E-16	7.752185E-18
5.190000E+03	4.299626E-16	7.795189E-18
5.200000E+03	4.326735E-16	7.839488E-18
5.210000E+03	4.355470E-16	7.887020E-18
5.220000E+03	4.386661E-16	7.939229E-18
5.230000E+03	4.421168E-16	7.997612E-18
5.240000E+03	4.459814E-16	8.063602E-18
5.250000E+03	4.503289E-16	8.138387E-18
5.260000E+03	4.552133E-16	8.222881E-18
5.270000E+03	4.606865E-16	8.317965E-18
5.280000E+03	4.667791E-16	8.424128E-18
5.290000E+03	4.735221E-16	8.541873E-18
5.300000E+03	4.809128E-16	8.671089E-18
5.310000E+03	4.889420E-16	8.811546E-18
5.320000E+03	4.975930E-16	8.962882E-18
5.330000E+03	5.068103E-16	9.124037E-18
5.340000E+03	5.165348E-16	9.293880E-18
5.350000E+03	5.266768E-16	9.470736E-18
5.360000E+03	5.371385E-16	9.652787E-18
5.370000E+03	5.478051E-16	9.837910E-18
5.380000E+03	5.585253E-16	1.002333E-17
5.390000E+03	5.691725E-16	1.020674E-17
5.400000E+03	5.795888E-16	1.038525E-17
5.410000E+03	5.896478E-16	1.055656E-17
5.420000E+03	5.992124E-16	1.071817E-17
5.430000E+03	6.081929E-16	1.086843E-17
5.440000E+03	6.164862E-16	1.100546E-17
5.450000E+03	6.239989E-16	1.112753E-17
5.460000E+03	6.306591E-16	1.123333E-17
5.470000E+03	6.363975E-16	1.132161E-17
5.480000E+03	6.411467E-16	1.139115E-17
5.490000E+03	6.448595E-16	1.144112E-17
5.500000E+03	6.474874E-16	1.147068E-17
5.510000E+03	6.489855E-16	1.147905E-17
5.520000E+03	6.493162E-16	1.146563E-17
5.530000E+03	6.484222E-16	1.142948E-17
5.540000E+03	6.462708E-16	1.137009E-17
5.550000E+03	6.428156E-16	1.128677E-17
5.560000E+03	6.380000E-16	1.117865E-17
5.570000E+03	6.317985E-16	1.104544E-17
5.580000E+03	6.241790E-16	1.088676E-17
5.590000E+03	6.151341E-16	1.070267E-17
5.600000E+03	6.046820E-16	1.049372E-17
5.610000E+03	5.928780E-16	1.026110E-17
5.620000E+03	5.798015E-16	1.000644E-17
5.630000E+03	5.655818E-16	9.732227E-18
5.640000E+03	5.503737E-16	9.441369E-18
5.650000E+03	5.343772E-16	9.137543E-18
5.660000E+03	5.178094E-16	8.824678E-18
5.670000E+03	5.009127E-16	8.507099E-18
5.680000E+03	4.839454E-16	8.189343E-18
5.690000E+03	4.671618E-16	7.875826E-18
5.700000E+03	4.508017E-16	7.570653E-18
5.710000E+03	4.351088E-16	7.277927E-18
5.720000E+03	4.202944E-16	7.001145E-18
5.730000E+03	4.065556E-16	6.743494E-18
5.740000E+03	3.940524E-16	6.507487E-18
5.750000E+03	3.829359E-16	6.295425E-18
5.760000E+03	3.733204E-16	6.108954E-18
5.770000E+03	3.653015E-16	5.949361E-18
5.780000E+03	3.589506E-16	5.817499E-18
5.790000E+03	3.543313E-16	5.714055E-18
5.800000E+03	3.514765E-16	5.639189E-18
5.810000E+03	3.504147E-16	5.592969E-18
5.820000E+03	3.511527E-16	5.575096E-18
5.830000E+03	3.536889E-16	5.585125E-18
5.840000E+03	3.579974E-16	5.622225E-18
5.850000E+03	3.640388E-16	5.685353E-18
5.860000E+03	3.717380E-16	5.772924E-18
5.870000E+03	3.810042E-16	5.883144E-18
5.880000E+03	3.916975E-16	6.013490E-18
5.890000E+03	4.036488E-16	6.161055E-18
5.900000E+03	4.166425E-16	6.322295E-18
5.910000E+03	4.304144E-16	6.493019E-18
5.920000E+03	4.446651E-16	6.668617E-18
5.930000E+03	4.590439E-16	6.843838E-18
5.940000E+03	4.731882E-16	7.013392E-18
5.950000E+03	4.867013E-16	7.171626E-18
5.960000E+03	4.992000E-16	7.313237E-18
5.970000E+03	5.103105E-16	7.433200E-18
5.980000E+03	5.197026E-16	7.527248E-18
5.990000E+03	5.271035E-16	7.592051E-18
6.000000E+03	5.323135E-16	7.625400E-18
6.010000E+03	5.352119E-16	7.626260E-18
6.020000E+03	5.357720E-16	7.594943E-18
6.030000E+03	5.340553E-16	7.532977E-18
6.040000E+03	5.302044E-16	7.442974E-18
6.050000E+03	5.244259E-16	7.328361E-18
6.060000E+03	5.169867E-16	7.193305E-18
6.070000E+03	5.081915E-16	7.042389E-18
6.080000E+03	4.983627E-16	6.880330E-18
6.090000E+03	4.878355E-16	6.711907E-18
6.100000E+03	4.769344E-16	6.541664E-18
6.110000E+03	4.659787E-16	6.373985E-18
6.120000E+03	4.552506E-16	6.212683E-18
6.130000E+03	4.450228E-16	6.061396E-18
6.140000E+03	4.355190E-16	5.923064E-18
6.150000E+03	4.269430E-16	5.800348E-18
6.160000E+03	4.194599E-16	5.695393E-18
6.170000E+03	4.131998E-16	5.609873E-18
6.180000E+03	4.082612E-16	5.544993E-18
6.190000E+03	4.046894E-16	5.501256E-18
6.200000E+03	4.024648E-16	5.478334E-18
6.210000E+03	4.014729E-16	5.474645E-18
6.220000E+03	4.014865E-16	5.487061E-18
6.230000E+03	4.022290E-16	5.511774E-18
6.240000E+03	4.034277E-16	5.545013E-18
6.250000E+03	4.048631E-16	5.583708E-18
6.260000E+03	4.063717E-16	5.625533E-18
6.270000E+03	4.078407E-16	5.668829E-18
6.280000E+03	4.091729E-16	5.712130E-18
6.290000E+03	4.102990E-16	5.754331E-18
6.300000E+03	4.111662E-16	5.794537E-18
6.310000E+03	4.117296E-16	5.831945E-18
6.320000E+03	4.119598E-16	5.865953E-18
6.330000E+03	4.118280E-16	5.895957E-18
6.340000E+03	4.113310E-16	5.921704E-18
6.350000E+03	4.104525E-16	5.942751E-18
6.360000E+03	4.092046E-16	5.959058E-18
6.370000E+03	4.075852E-16	5.970386E-18
6.380000E+03	4.056115E-16	5.976775E-18
6.390000E+03	4.033103E-16	5.978419E-18
6.400000E+03	4.007017E-16	5.975422E-18
6.410000E+03	3.978187E-16	5.968092E-18
6.420000E+03	3.946943E-16	5.956758E-18
6.430000E+03	3.913695E-16	5.941882E-18
6.440000E+03	3.878845E-16	5.923939E-18
6.450000E+03	3.842863E-16	5.903527E-18
6.460000E+03	3.806169E-16	5.881189E-18
6.470000E+03	3.769284E-16	5.857649E-18
6.480000E+03	3.732719E-16	5.833637E-18
6.490000E+03	3.696965E-16	5.809876E-18
6.500000E+03	3.662657E-16	5.787339E-18
6.510000E+03	3.630331E-16	5.766867E-18
6.520000E+03	3.600653E-16	5.749533E-18
6.530000E+03	3.574187E-16	5.736265E-18
6.540000E+03	3.551569E-16	5.728132E-18
6.550000E+03	3.533390E-16	5.726145E-18
6.560000E+03	3.520208E-16	5.731284E-18
6.570000E+03	3.512578E-16	5.744535E-18
6.580000E+03	3.510958E-16	5.766733E-18
6.590000E+03	3.515684E-16	5.798525E-18
6.600000E+03	3.527074E-16	5.840526E-18
6.610000E+03	3.545326E-16	5.893157E-18
6.620000E+03	3.570396E-16	5.956424E-18
6.630000E+03	3.602254E-16	6.030349E-18
6.640000E+03	3.640642E-16	6.114561E-18
6.650000E+03	3.685146E-16	6.208410E-18
6.660000E+03	3.735200E-16	6.310967E-18
6.670000E+03	3.790084E-16	6.421022E-18
6.680000E+03	3.848933E-16	6.537100E-18
6.690000E+03	3.910795E-16	6.657553E-18
6.700000E+03	3.974561E-16	6.780442E-18
6.710000E+03	4.038978E-16	6.903568E-18
6.720000E+03	4.102861E-16	7.024824E-18
6.730000E+03	4.164848E-16	7.141793E-18
6.740000E+03	4.223620E-16	7.252114E-18
6.750000E+03	4.277938E-16	7.353567E-18
6.760000E+03	4.326594E-16	7.443976E-18
6.770000E+03	4.368439E-16	7.521280E-18
6.780000E+03	4.402584E-16	7.583867E-18
6.790000E+03	4.428277E-16	7.630385E-18
6.800000E+03	4.444991E-16	7.659877E-18
6.810000E+03	4.452485E-16	7.671907E-18
6.820000E+03	4.450674E-16	7.666324E-18
6.830000E+03	4.439777E-16	7.643522E-18
6.840000E+03	4.420257E-16	7.604341E-18
6.850000E+03	4.392865E-16	7.550126E-18
6.860000E+03	4.358502E-16	7.482502E-18
6.870000E+03	4.318196E-16	7.403314E-18
6.880000E+03	4.273218E-16	7.314829E-18
6.890000E+03	4.224886E-16	7.219401E-18
6.900000E+03	4.174534E-16	7.119395E-18
6.910000E+03	4.123621E-16	7.017379E-18
6.920000E+03	4.073539E-16	6.915793E-18
6.930000E+03	4.025584E-16	6.816890E-18
6.940000E+03	3.981074E-16	6.722934E-18
6.950000E+03	3.941169E-16	6.635893E-18
6.960000E+03	3.906902E-16	6.557497E-18
6.970000E+03	3.879157E-16	6.489191E-18
6.980000E+03	3.858610E-16	6.432041E-18
6.990000E+03	3.845802E-16	6.386869E-18
7.000000E+03	3.841183E-16	6.354315E-18
7.010000E+03	3.844817E-16	6.334363E-18
7.020000E+03	3.856656E-16	6.326800E-18
7.030000E+03	3.876447E-16	6.331067E-18
7.040000E+03	3.903774E-16	6.346340E-18
7.050000E+03	3.937926E-16	6.371319E-18
7.060000E+03	3.978042E-16	6.404484E-18
7.070000E+03	4.023091E-16	6.444062E-18
7.080000E+03	4.071889E-16	6.488070E-18
7.090000E+03	4.123141E-16	6.534387E-18
7.100000E+03	4.175423E-16	6.580739E-18
7.110000E+03	4.227335E-16	6.624942E-18
7.120000E+03	4.277558E-16	6.664994E-18
7.130000E+03	4.324691E-16	6.698824E-18
7.140000E+03	4.367677E-16	6.724947E-18
7.150000E+03	4.405422E-16	6.741871E-18
7.160000E+03	4.437145E-16	6.748635E-18
7.170000E+03	4.462305E-16	6.744674E-18
7.180000E+03	4.480665E-16	6.729907E-18
7.190000E+03	4.492061E-16	6.704384E-18
7.200000E+03	4.496670E-16	6.668669E-18
7.210000E+03	4.494871E-16	6.623623E-18
7.220000E+03	4.487210E-16	6.570335E-18
7.230000E+03	4.474301E-16	6.509982E-18
7.240000E+03	4.456900E-16	6.443916E-18
7.250000E+03	4.435797E-16	6.373517E-18
7.260000E+03	4.411786E-16	6.300134E-18
7.270000E+03	4.385512E-16	6.224879E-18
7.280000E+03	4.357664E-16	6.148900E-18
7.290000E+03	4.328894E-16	6.073268E-18
7.300000E+03	4.299591E-16	5.998664E-18
7.310000E+03	4.270138E-16	5.925747E-18
7.320000E+03	4.240802E-16	5.855004E-18
7.330000E+03	4.211747E-16	5.786769E-18
7.340000E+03	4.182930E-16	5.721087E-18
7.350000E+03	4.154330E-16	5.658035E-18
7.360000E+03	4.125856E-16	5.597588E-18
7.370000E+03	4.097356E-16	5.539642E-18
7.380000E+03	4.068587E-16	5.483966E-18
7.390000E+03	4.039272E-16	5.430281E-18
7.400000E+03	4.009161E-16	5.378343E-18
7.410000E+03	3.977987E-16	5.327872E-18
7.420000E+03	3.945477E-16	5.278551E-18
7.430000E+03	3.911309E-16	5.229970E-18
7.440000E+03	3.875141E-16	5.181670E-18
7.450000E+03	3.836745E-16	5.133335E-18
7.460000E+03	3.795713E-16	5.084387E-18
7.470000E+03	3.751693E-16	5.034297E-18
7.480000E+03	3.704250E-16	4.982401E-18
7.490000E+03	3.652923E-16	4.927932E-18
7.500000E+03	3.597283E-16	4.870052E-18
7.510000E+03	3.536907E-16	4.807898E-18
7.520000E+03	3.471491E-16	4.740738E-18
7.530000E+03	3.400980E-16	4.668152E-18
7.540000E+03	3.325555E-16	4.590034E-18
7.550000E+03	3.245806E-16	4.506832E-18
7.560000E+03	3.162523E-16	4.419287E-18
7.570000E+03	3.076791E-16	4.328577E-18
7.580000E+03	2.989640E-16	4.235847E-18
7.590000E+03	2.902182E-16	4.142400E-18
7.600000E+03	2.815433E-16	4.049463E-18
7.610000E+03	2.730358E-16	3.958243E-18
7.620000E+03	2.647740E-16	3.869745E-18
7.630000E+03	2.568270E-16	3.784887E-18
7.640000E+03	2.492546E-16	3.704507E-18
7.650000E+03	2.420821E-16	3.628971E-18
7.660000E+03	2.353160E-16	3.558392E-18
7.670000E+03	2.289450E-16	3.492632E-18
7.680000E+03	2.229704E-16	3.431758E-18
7.690000E+03	2.173794E-16	3.375630E-18
7.700000E+03	2.121698E-16	3.324284E-18
7.710000E+03	2.073389E-16	3.277753E-18
7.720000E+03	2.028827E-16	3.236061E-18
7.730000E+03	1.988063E-16	3.199388E-18
7.740000E+03	1.951038E-16	3.167740E-18
7.750000E+03	1.917790E-16	3.141291E-18
7.760000E+03	1.888231E-16	3.120009E-18
