#wls	flux	fluxerr
1.600000E+03	2.006599E-17	1.716638E-18
1.640000E+03	1.975872E-17	1.678934E-18
1.680000E+03	1.946070E-17	1.642112E-18
1.720000E+03	1.916427E-17	1.605522E-18
1.760000E+03	1.887313E-17	1.569478E-18
1.800000E+03	1.858717E-17	1.533970E-18
1.840000E+03	1.830984E-17	1.499280E-18
1.880000E+03	1.804089E-17	1.465379E-18
1.920000E+03	1.778011E-17	1.432244E-18
1.960000E+03	1.753063E-17	1.400117E-18
2.000000E+03	1.729210E-17	1.368957E-18
2.040000E+03	1.706420E-17	1.338722E-18
2.080000E+03	1.684980E-17	1.309624E-18
2.120000E+03	1.664848E-17	1.281606E-18
2.160000E+03	1.646286E-17	1.254850E-18
2.200000E+03	1.628945E-17	1.229062E-18
2.240000E+03	1.613088E-17	1.204421E-18
2.280000E+03	1.598675E-17	1.180865E-18
2.320000E+03	1.585670E-17	1.158345E-18
2.360000E+03	1.574051E-17	1.136813E-18
2.400000E+03	1.563527E-17	1.116036E-18
2.440000E+03	1.554374E-17	1.096187E-18
2.480000E+03	1.546863E-17	1.077425E-18
2.520000E+03	1.540482E-17	1.059361E-18
2.560000E+03	1.535279E-17	1.042005E-18
2.600000E+03	1.531816E-17	1.025708E-18
2.640000E+03	1.529662E-17	1.010142E-18
2.680000E+03	1.529160E-17	9.955013E-19
2.720000E+03	1.530423E-17	9.818183E-19
2.760000E+03	1.533590E-17	9.691371E-19
2.800000E+03	1.538828E-17	9.575133E-19
2.840000E+03	1.546333E-17	9.470135E-19
2.880000E+03	1.556552E-17	9.378482E-19
2.920000E+03	1.569739E-17	9.300935E-19
2.960000E+03	1.586819E-17	9.242087E-19
3.000000E+03	1.608082E-17	9.202505E-19
3.010000E+03	1.614236E-17	9.196528E-19
3.020000E+03	1.620541E-17	9.191037E-19
3.030000E+03	1.627430E-17	9.188448E-19
3.040000E+03	1.634481E-17	9.186360E-19
3.050000E+03	1.641913E-17	9.185982E-19
3.060000E+03	1.649940E-17	9.188482E-19
3.070000E+03	1.658147E-17	9.191507E-19
3.080000E+03	1.666957E-17	9.197388E-19
3.090000E+03	1.675957E-17	9.203805E-19
3.100000E+03	1.685569E-17	9.213057E-19
3.110000E+03	1.695798E-17	9.225125E-19
3.120000E+03	1.706228E-17	9.237713E-19
3.130000E+03	1.717283E-17	9.253085E-19
3.140000E+03	1.728964E-17	9.271213E-19
3.150000E+03	1.741066E-17	9.290946E-19
3.160000E+03	1.753592E-17	9.312272E-19
3.170000E+03	1.766962E-17	9.337379E-19
3.180000E+03	1.780758E-17	9.364014E-19
3.190000E+03	1.795191E-17	9.393245E-19
3.200000E+03	1.810052E-17	9.423936E-19
3.210000E+03	1.825760E-17	9.458227E-19
3.220000E+03	1.842102E-17	9.494964E-19
3.230000E+03	1.859077E-17	9.534096E-19
3.240000E+03	1.876893E-17	9.576631E-19
3.250000E+03	1.895335E-17	9.621419E-19
3.260000E+03	1.914398E-17	9.668394E-19
3.270000E+03	1.934285E-17	9.718533E-19
3.280000E+03	1.954782E-17	9.770699E-19
3.290000E+03	1.976299E-17	9.826900E-19
3.300000E+03	1.998408E-17	9.884931E-19
3.310000E+03	2.021308E-17	9.945742E-19
3.320000E+03	2.045201E-17	1.001027E-18
3.330000E+03	2.069653E-17	1.007631E-18
3.340000E+03	2.095288E-17	1.014687E-18
3.350000E+03	2.121458E-17	1.021873E-18
3.360000E+03	2.148789E-17	1.029486E-18
3.370000E+03	2.176844E-17	1.037310E-18
3.380000E+03	2.205826E-17	1.045436E-18
3.390000E+03	2.235727E-17	1.053854E-18
3.400000E+03	2.266754E-17	1.062656E-18
3.410000E+03	2.298689E-17	1.071730E-18
3.420000E+03	2.331531E-17	1.081072E-18
3.430000E+03	2.365498E-17	1.090775E-18
3.440000E+03	2.400595E-17	1.100836E-18
3.450000E+03	2.436834E-17	1.111250E-18
3.460000E+03	2.474230E-17	1.122019E-18
3.470000E+03	2.513021E-17	1.133242E-18
3.480000E+03	2.553020E-17	1.144826E-18
3.490000E+03	2.594507E-17	1.156887E-18
3.500000E+03	2.637364E-17	1.169365E-18
3.510000E+03	2.682137E-17	1.182491E-18
3.520000E+03	2.728518E-17	1.196116E-18
3.530000E+03	2.777075E-17	1.210480E-18
3.540000E+03	2.827961E-17	1.225634E-18
3.550000E+03	2.881119E-17	1.241537E-18
3.560000E+03	2.936949E-17	1.258347E-18
3.570000E+03	2.995424E-17	1.276034E-18
3.580000E+03	3.057194E-17	1.294856E-18
3.590000E+03	3.122487E-17	1.314888E-18
3.600000E+03	3.191106E-17	1.336020E-18
3.610000E+03	3.263978E-17	1.358616E-18
3.620000E+03	3.340941E-17	1.382578E-18
3.630000E+03	3.422519E-17	1.408092E-18
3.640000E+03	3.509035E-17	1.435258E-18
3.650000E+03	3.600835E-17	1.464181E-18
3.660000E+03	3.698514E-17	1.495065E-18
3.670000E+03	3.802235E-17	1.527933E-18
3.680000E+03	3.912646E-17	1.563001E-18
3.690000E+03	4.030190E-17	1.600399E-18
3.700000E+03	4.155095E-17	1.640165E-18
3.710000E+03	4.288334E-17	1.682629E-18
3.720000E+03	4.429941E-17	1.727745E-18
3.730000E+03	4.580952E-17	1.775857E-18
3.740000E+03	4.741693E-17	1.827024E-18
3.750000E+03	4.912754E-17	1.881402E-18
3.760000E+03	5.095014E-17	1.939254E-18
3.770000E+03	5.289116E-17	2.000743E-18
3.780000E+03	5.495456E-17	2.065935E-18
3.790000E+03	5.714969E-17	2.135093E-18
3.800000E+03	5.948341E-17	2.208377E-18
3.810000E+03	6.196259E-17	2.285944E-18
3.820000E+03	6.459405E-17	2.367939E-18
3.830000E+03	6.738446E-17	2.454499E-18
3.840000E+03	7.033718E-17	2.545630E-18
3.850000E+03	7.346435E-17	2.641654E-18
3.860000E+03	7.676856E-17	2.742538E-18
3.870000E+03	8.025474E-17	2.848331E-18
3.880000E+03	8.392699E-17	2.959047E-18
3.890000E+03	8.778829E-17	3.074655E-18
3.900000E+03	9.184026E-17	3.195076E-18
3.910000E+03	9.608313E-17	3.320179E-18
3.920000E+03	1.005151E-16	3.449763E-18
3.930000E+03	1.051360E-16	3.583683E-18
3.940000E+03	1.099317E-16	3.721325E-18
3.950000E+03	1.148928E-16	3.862239E-18
3.960000E+03	1.200143E-16	4.006139E-18
3.970000E+03	1.252724E-16	4.152110E-18
3.980000E+03	1.306516E-16	4.299545E-18
3.990000E+03	1.361249E-16	4.447461E-18
4.000000E+03	1.416703E-16	4.595072E-18
4.010000E+03	1.472545E-16	4.741248E-18
4.020000E+03	1.528459E-16	4.884938E-18
4.030000E+03	1.584054E-16	5.024892E-18
4.040000E+03	1.639059E-16	5.160266E-18
4.050000E+03	1.692948E-16	5.289451E-18
4.060000E+03	1.745465E-16	5.411725E-18
4.070000E+03	1.796056E-16	5.525473E-18
4.080000E+03	1.844360E-16	5.629723E-18
4.090000E+03	1.889986E-16	5.723449E-18
4.100000E+03	1.932594E-16	5.805814E-18
4.110000E+03	1.971789E-16	5.875852E-18
4.120000E+03	2.007386E-16	5.933259E-18
4.130000E+03	2.039264E-16	5.977937E-18
4.140000E+03	2.067377E-16	6.010020E-18
4.150000E+03	2.091663E-16	6.029595E-18
4.160000E+03	2.112320E-16	6.037512E-18
4.170000E+03	2.129524E-16	6.034532E-18
4.180000E+03	2.143542E-16	6.021656E-18
4.190000E+03	2.154639E-16	5.999861E-18
4.200000E+03	2.163201E-16	5.970421E-18
4.210000E+03	2.169519E-16	5.934330E-18
4.220000E+03	2.173876E-16	5.892516E-18
4.230000E+03	2.176585E-16	5.845974E-18
4.240000E+03	2.177947E-16	5.795630E-18
4.250000E+03	2.178181E-16	5.742165E-18
4.260000E+03	2.177488E-16	5.686193E-18
4.270000E+03	2.176138E-16	5.628486E-18
4.280000E+03	2.174239E-16	5.569381E-18
4.290000E+03	2.172017E-16	5.509492E-18
4.300000E+03	2.169541E-16	5.449032E-18
4.310000E+03	2.166962E-16	5.388397E-18
4.320000E+03	2.164287E-16	5.327622E-18
4.330000E+03	2.161626E-16	5.266992E-18
4.340000E+03	2.158919E-16	5.206371E-18
4.350000E+03	2.156212E-16	5.145883E-18
4.360000E+03	2.153435E-16	5.085370E-18
4.370000E+03	2.150614E-16	5.024915E-18
4.380000E+03	2.147712E-16	4.964441E-18
4.390000E+03	2.144709E-16	4.903926E-18
4.400000E+03	2.141641E-16	4.843468E-18
4.410000E+03	2.138578E-16	4.783247E-18
4.420000E+03	2.135623E-16	4.723501E-18
4.430000E+03	2.132968E-16	4.664657E-18
4.440000E+03	2.130990E-16	4.607525E-18
4.450000E+03	2.130054E-16	4.552850E-18
4.460000E+03	2.130507E-16	4.501310E-18
4.470000E+03	2.132742E-16	4.453636E-18
4.480000E+03	2.137178E-16	4.410584E-18
4.490000E+03	2.144102E-16	4.372598E-18
4.500000E+03	2.153888E-16	4.340276E-18
4.510000E+03	2.166866E-16	4.314087E-18
4.520000E+03	2.183269E-16	4.294279E-18
4.530000E+03	2.203367E-16	4.281144E-18
4.540000E+03	2.227286E-16	4.274677E-18
4.550000E+03	2.255167E-16	4.274895E-18
4.560000E+03	2.286989E-16	4.281504E-18
4.570000E+03	2.322667E-16	4.294096E-18
4.580000E+03	2.362087E-16	4.312229E-18
4.590000E+03	2.404925E-16	4.335095E-18
4.600000E+03	2.450875E-16	4.361958E-18
4.610000E+03	2.499467E-16	4.391823E-18
4.620000E+03	2.550109E-16	4.423540E-18
4.630000E+03	2.602172E-16	4.455951E-18
4.640000E+03	2.655049E-16	4.487997E-18
4.650000E+03	2.707908E-16	4.518306E-18
4.660000E+03	2.760054E-16	4.545808E-18
4.670000E+03	2.810903E-16	4.569679E-18
4.680000E+03	2.859797E-16	4.589029E-18
4.690000E+03	2.906198E-16	4.603216E-18
4.700000E+03	2.949558E-16	4.611631E-18
4.710000E+03	2.989384E-16	4.613794E-18
4.720000E+03	3.025225E-16	4.609327E-18
4.730000E+03	3.056674E-16	4.597954E-18
4.740000E+03	3.083387E-16	4.579521E-18
4.750000E+03	3.104786E-16	4.553550E-18
4.760000E+03	3.120292E-16	4.519596E-18
4.770000E+03	3.128648E-16	4.476279E-18
4.780000E+03	3.128460E-16	4.422097E-18
4.790000E+03	3.118927E-16	4.356457E-18
4.800000E+03	3.099542E-16	4.279190E-18
4.810000E+03	3.070253E-16	4.190762E-18
4.820000E+03	3.031783E-16	4.092645E-18
4.830000E+03	2.985248E-16	3.986761E-18
4.840000E+03	2.932102E-16	3.875378E-18
4.850000E+03	2.874380E-16	3.761411E-18
4.860000E+03	2.814188E-16	3.647733E-18
4.870000E+03	2.753523E-16	3.536953E-18
4.880000E+03	2.694551E-16	3.431782E-18
4.890000E+03	2.639342E-16	3.334686E-18
4.900000E+03	2.589765E-16	3.247800E-18
4.910000E+03	2.547403E-16	3.172851E-18
4.920000E+03	2.513659E-16	3.111319E-18
4.930000E+03	2.489674E-16	3.064348E-18
4.940000E+03	2.476116E-16	3.032513E-18
4.950000E+03	2.473386E-16	3.016097E-18
4.960000E+03	2.481655E-16	3.015139E-18
4.970000E+03	2.500632E-16	3.029171E-18
4.980000E+03	2.529789E-16	3.057480E-18
4.990000E+03	2.568508E-16	3.099242E-18
5.000000E+03	2.615909E-16	3.153338E-18
5.010000E+03	2.670963E-16	3.218505E-18
5.020000E+03	2.732464E-16	3.293293E-18
5.030000E+03	2.798891E-16	3.375888E-18
5.040000E+03	2.868551E-16	3.464274E-18
5.050000E+03	2.939655E-16	3.556310E-18
5.060000E+03	3.010530E-16	3.649977E-18
5.070000E+03	3.079508E-16	3.743231E-18
5.080000E+03	3.145114E-16	3.834236E-18
5.090000E+03	3.206050E-16	3.921328E-18
5.100000E+03	3.261288E-16	4.003141E-18
5.110000E+03	3.310162E-16	4.078715E-18
5.120000E+03	3.352449E-16	4.147616E-18
5.130000E+03	3.388497E-16	4.210092E-18
5.140000E+03	3.418802E-16	4.266578E-18
5.150000E+03	3.444432E-16	4.318228E-18
5.160000E+03	3.466611E-16	4.366412E-18
5.170000E+03	3.486678E-16	4.412668E-18
5.180000E+03	3.505764E-16	4.458311E-18
5.190000E+03	3.525058E-16	4.504753E-18
5.200000E+03	3.545519E-16	4.553145E-18
5.210000E+03	3.568000E-16	4.604531E-18
5.220000E+03	3.593187E-16	4.659760E-18
5.230000E+03	3.621809E-16	4.719761E-18
5.240000E+03	3.654320E-16	4.785121E-18
5.250000E+03	3.691225E-16	4.856509E-18
5.260000E+03	3.732909E-16	4.934450E-18
5.270000E+03	3.779775E-16	5.019505E-18
5.280000E+03	3.832018E-16	5.111960E-18
5.290000E+03	3.889827E-16	5.212103E-18
5.300000E+03	3.953249E-16	5.320032E-18
5.310000E+03	4.022182E-16	5.435644E-18
5.320000E+03	4.096338E-16	5.558573E-18
5.330000E+03	4.175229E-16	5.688178E-18
5.340000E+03	4.258105E-16	5.823441E-18
5.350000E+03	4.344090E-16	5.963158E-18
5.360000E+03	4.431867E-16	6.105493E-18
5.370000E+03	4.519999E-16	6.248421E-18
5.380000E+03	4.607113E-16	6.389977E-18
5.390000E+03	4.692098E-16	6.528539E-18
5.400000E+03	4.773943E-16	6.662610E-18
5.410000E+03	4.851757E-16	6.790845E-18
5.420000E+03	4.924866E-16	6.912185E-18
5.430000E+03	4.992552E-16	7.025477E-18
5.440000E+03	5.054195E-16	7.129701E-18
5.450000E+03	5.109418E-16	7.224170E-18
5.460000E+03	5.157775E-16	7.308097E-18
5.470000E+03	5.199137E-16	7.381152E-18
5.480000E+03	5.233469E-16	7.443147E-18
5.490000E+03	5.261089E-16	7.494406E-18
5.500000E+03	5.282279E-16	7.535220E-18
5.510000E+03	5.297625E-16	7.566324E-18
5.520000E+03	5.307711E-16	7.588473E-18
5.530000E+03	5.312996E-16	7.602253E-18
5.540000E+03	5.313198E-16	7.607202E-18
5.550000E+03	5.307964E-16	7.602772E-18
5.560000E+03	5.296456E-16	7.587725E-18
5.570000E+03	5.277113E-16	7.559807E-18
5.580000E+03	5.248160E-16	7.516470E-18
5.590000E+03	5.207916E-16	7.455324E-18
5.600000E+03	5.154637E-16	7.373918E-18
5.610000E+03	5.086860E-16	7.270239E-18
5.620000E+03	5.003645E-16	7.143056E-18
5.630000E+03	4.904969E-16	6.992486E-18
5.640000E+03	4.791373E-16	6.819484E-18
5.650000E+03	4.664023E-16	6.625920E-18
5.660000E+03	4.525215E-16	6.415284E-18
5.670000E+03	4.377574E-16	6.191532E-18
5.680000E+03	4.223983E-16	5.958970E-18
5.690000E+03	4.067395E-16	5.721980E-18
5.700000E+03	3.910785E-16	5.484929E-18
5.710000E+03	3.756921E-16	5.251855E-18
5.720000E+03	3.608580E-16	5.026750E-18
5.730000E+03	3.468299E-16	4.813212E-18
5.740000E+03	3.338362E-16	4.614420E-18
5.750000E+03	3.220912E-16	4.433293E-18
5.760000E+03	3.117859E-16	4.272358E-18
5.770000E+03	3.030791E-16	4.133631E-18
5.780000E+03	2.960866E-16	4.018477E-18
5.790000E+03	2.909105E-16	3.928015E-18
5.800000E+03	2.876361E-16	3.863089E-18
5.810000E+03	2.862967E-16	3.823789E-18
5.820000E+03	2.869378E-16	3.810335E-18
5.830000E+03	2.895921E-16	3.822739E-18
5.840000E+03	2.942778E-16	3.860789E-18
5.850000E+03	3.010156E-16	3.924285E-18
5.860000E+03	3.098105E-16	4.012797E-18
5.870000E+03	3.205785E-16	4.124740E-18
5.880000E+03	3.331892E-16	4.257961E-18
5.890000E+03	3.474708E-16	4.409819E-18
5.900000E+03	3.631941E-16	4.577024E-18
5.910000E+03	3.800631E-16	4.755538E-18
5.920000E+03	3.977139E-16	4.940604E-18
5.930000E+03	4.156988E-16	5.126584E-18
5.940000E+03	4.335131E-16	5.307329E-18
5.950000E+03	4.505979E-16	5.476240E-18
5.960000E+03	4.664113E-16	5.627149E-18
5.970000E+03	4.804258E-16	5.754272E-18
5.980000E+03	4.921491E-16	5.852448E-18
5.990000E+03	5.012230E-16	5.918271E-18
6.000000E+03	5.073815E-16	5.949530E-18
6.010000E+03	5.104835E-16	5.945539E-18
6.020000E+03	5.105812E-16	5.907853E-18
6.030000E+03	5.078449E-16	5.839329E-18
6.040000E+03	5.025183E-16	5.743554E-18
6.050000E+03	4.949574E-16	5.625258E-18
6.060000E+03	4.855372E-16	5.489230E-18
6.070000E+03	4.746542E-16	5.340337E-18
6.080000E+03	4.627005E-16	5.183250E-18
6.090000E+03	4.500362E-16	5.022140E-18
6.100000E+03	4.370136E-16	4.860977E-18
6.110000E+03	4.239474E-16	4.703222E-18
6.120000E+03	4.111228E-16	4.551934E-18
6.130000E+03	3.988056E-16	4.409916E-18
6.140000E+03	3.872478E-16	4.279794E-18
6.150000E+03	3.766714E-16	4.163862E-18
6.160000E+03	3.672677E-16	4.064087E-18
6.170000E+03	3.591663E-16	3.981708E-18
6.180000E+03	3.524621E-16	3.917589E-18
6.190000E+03	3.471909E-16	3.872016E-18
6.200000E+03	3.433308E-16	3.844693E-18
6.210000E+03	3.407553E-16	3.834174E-18
6.220000E+03	3.392228E-16	3.837738E-18
6.230000E+03	3.384688E-16	3.852391E-18
6.240000E+03	3.382232E-16	3.875038E-18
6.250000E+03	3.382868E-16	3.903346E-18
6.260000E+03	3.385395E-16	3.935846E-18
6.270000E+03	3.389105E-16	3.971613E-18
6.280000E+03	3.393437E-16	4.009876E-18
6.290000E+03	3.397778E-16	4.049779E-18
6.300000E+03	3.401604E-16	4.090555E-18
6.310000E+03	3.404481E-16	4.131521E-18
6.320000E+03	3.405886E-16	4.171867E-18
6.330000E+03	3.405412E-16	4.210906E-18
6.340000E+03	3.402696E-16	4.247986E-18
6.350000E+03	3.397404E-16	4.282474E-18
6.360000E+03	3.389390E-16	4.313965E-18
6.370000E+03	3.378453E-16	4.341978E-18
6.380000E+03	3.364588E-16	4.366278E-18
6.390000E+03	3.347757E-16	4.386594E-18
6.400000E+03	3.328028E-16	4.402797E-18
6.410000E+03	3.305537E-16	4.414855E-18
6.420000E+03	3.280495E-16	4.422857E-18
6.430000E+03	3.253114E-16	4.426907E-18
6.440000E+03	3.223653E-16	4.427192E-18
6.450000E+03	3.192377E-16	4.423930E-18
6.460000E+03	3.159584E-16	4.417405E-18
6.470000E+03	3.125584E-16	4.407938E-18
6.480000E+03	3.090648E-16	4.395822E-18
6.490000E+03	3.055139E-16	4.381499E-18
6.500000E+03	3.019429E-16	4.365447E-18
6.510000E+03	2.983992E-16	4.348318E-18
6.520000E+03	2.949270E-16	4.330746E-18
6.530000E+03	2.916005E-16	4.313826E-18
6.540000E+03	2.884936E-16	4.298692E-18
6.550000E+03	2.856909E-16	4.286663E-18
6.560000E+03	2.832899E-16	4.279296E-18
6.570000E+03	2.813845E-16	4.278124E-18
6.580000E+03	2.800731E-16	4.284783E-18
6.590000E+03	2.794380E-16	4.300687E-18
6.600000E+03	2.795536E-16	4.327155E-18
6.610000E+03	2.804812E-16	4.365307E-18
6.620000E+03	2.822458E-16	4.415705E-18
6.630000E+03	2.848485E-16	4.478528E-18
6.640000E+03	2.882677E-16	4.553576E-18
6.650000E+03	2.924421E-16	4.639999E-18
6.660000E+03	2.972930E-16	4.736631E-18
6.670000E+03	3.027171E-16	4.841878E-18
6.680000E+03	3.086148E-16	4.954165E-18
6.690000E+03	3.148675E-16	5.071574E-18
6.700000E+03	3.213540E-16	5.192114E-18
6.710000E+03	3.279410E-16	5.313563E-18
6.720000E+03	3.344868E-16	5.433536E-18
6.730000E+03	3.408497E-16	5.549625E-18
6.740000E+03	3.468788E-16	5.659252E-18
6.750000E+03	3.524402E-16	5.760111E-18
6.760000E+03	3.573944E-16	5.849795E-18
6.770000E+03	3.616222E-16	5.926232E-18
6.780000E+03	3.650095E-16	5.987444E-18
6.790000E+03	3.674704E-16	6.031933E-18
6.800000E+03	3.689505E-16	6.058736E-18
6.810000E+03	3.694161E-16	6.067257E-18
6.820000E+03	3.688648E-16	6.057441E-18
6.830000E+03	3.673253E-16	6.029774E-18
6.840000E+03	3.648310E-16	5.984841E-18
6.850000E+03	3.614599E-16	5.923988E-18
6.860000E+03	3.572992E-16	5.848730E-18
6.870000E+03	3.524509E-16	5.760843E-18
6.880000E+03	3.470437E-16	5.662543E-18
6.890000E+03	3.412126E-16	5.556156E-18
6.900000E+03	3.351125E-16	5.444322E-18
6.910000E+03	3.288948E-16	5.329618E-18
6.920000E+03	3.227169E-16	5.214688E-18
6.930000E+03	3.167325E-16	5.102092E-18
6.940000E+03	3.110862E-16	4.994214E-18
6.950000E+03	3.059281E-16	4.893481E-18
6.960000E+03	3.013972E-16	4.802103E-18
6.970000E+03	2.976141E-16	4.721943E-18
6.980000E+03	2.946783E-16	4.654488E-18
6.990000E+03	2.926734E-16	4.600925E-18
7.000000E+03	2.916608E-16	4.562045E-18
7.010000E+03	2.916829E-16	4.538308E-18
7.020000E+03	2.927471E-16	4.529592E-18
7.030000E+03	2.948563E-16	4.535682E-18
7.040000E+03	2.979399E-16	4.555220E-18
7.050000E+03	3.019160E-16	4.586682E-18
7.060000E+03	3.066705E-16	4.628073E-18
7.070000E+03	3.120653E-16	4.677070E-18
7.080000E+03	3.179370E-16	4.731026E-18
7.090000E+03	3.241054E-16	4.787104E-18
7.100000E+03	3.303836E-16	4.842455E-18
7.110000E+03	3.365796E-16	4.894235E-18
7.120000E+03	3.424931E-16	4.939581E-18
7.130000E+03	3.479725E-16	4.976428E-18
7.140000E+03	3.528612E-16	5.002729E-18
7.150000E+03	3.570510E-16	5.017208E-18
7.160000E+03	3.604638E-16	5.019078E-18
7.170000E+03	3.630739E-16	5.008332E-18
7.180000E+03	3.648654E-16	4.985123E-18
7.190000E+03	3.658800E-16	4.950408E-18
7.200000E+03	3.661764E-16	4.905362E-18
7.210000E+03	3.658415E-16	4.851513E-18
7.220000E+03	3.649714E-16	4.790473E-18
7.230000E+03	3.636921E-16	4.724199E-18
7.240000E+03	3.621101E-16	4.654329E-18
7.250000E+03	3.603503E-16	4.582688E-18
7.260000E+03	3.585068E-16	4.510648E-18
7.270000E+03	3.566819E-16	4.439632E-18
7.280000E+03	3.549453E-16	4.370618E-18
7.290000E+03	3.533683E-16	4.304564E-18
7.300000E+03	3.519839E-16	4.241937E-18
7.310000E+03	3.508004E-16	4.182901E-18
7.320000E+03	3.498068E-16	4.127395E-18
7.330000E+03	3.489827E-16	4.075260E-18
7.340000E+03	3.482843E-16	4.026087E-18
7.350000E+03	3.476558E-16	3.979358E-18
7.360000E+03	3.470434E-16	3.934610E-18
7.370000E+03	3.463904E-16	3.891376E-18
7.380000E+03	3.456398E-16	3.849212E-18
7.390000E+03	3.447380E-16	3.807734E-18
7.400000E+03	3.436394E-16	3.766661E-18
7.410000E+03	3.422926E-16	3.725657E-18
7.420000E+03	3.406680E-16	3.684625E-18
7.430000E+03	3.387471E-16	3.643575E-18
7.440000E+03	3.365167E-16	3.602561E-18
7.450000E+03	3.339844E-16	3.561822E-18
7.460000E+03	3.311523E-16	3.521467E-18
7.470000E+03	3.280430E-16	3.481788E-18
7.480000E+03	3.246647E-16	3.442888E-18
7.490000E+03	3.210135E-16	3.404710E-18
7.500000E+03	3.170579E-16	3.366871E-18
7.510000E+03	3.127726E-16	3.329020E-18
7.520000E+03	3.080594E-16	3.289980E-18
7.530000E+03	3.028359E-16	3.248638E-18
7.540000E+03	2.970621E-16	3.204194E-18
7.550000E+03	2.907818E-16	3.156707E-18
7.560000E+03	2.841205E-16	3.107107E-18
7.570000E+03	2.772202E-16	3.056528E-18
7.580000E+03	2.701964E-16	3.005846E-18
7.590000E+03	2.631634E-16	2.955976E-18
7.600000E+03	2.562206E-16	2.907719E-18
7.610000E+03	2.494538E-16	2.861784E-18
7.620000E+03	2.429265E-16	2.818686E-18
7.630000E+03	2.366909E-16	2.778865E-18
7.640000E+03	2.307847E-16	2.742645E-18
7.650000E+03	2.252081E-16	2.709943E-18
7.660000E+03	2.199399E-16	2.680444E-18
7.670000E+03	2.149537E-16	2.653779E-18
7.680000E+03	2.102232E-16	2.629585E-18
7.690000E+03	2.057276E-16	2.607570E-18
7.700000E+03	2.014783E-16	2.587861E-18
7.710000E+03	1.974869E-16	2.570607E-18
7.720000E+03	1.937737E-16	2.556099E-18
7.730000E+03	1.903702E-16	2.544805E-18
7.740000E+03	1.873096E-16	2.537247E-18
7.750000E+03	1.846200E-16	2.533913E-18
7.760000E+03	1.823244E-16	2.535253E-18
