#wls	flux	fluxerr
1.600000E+03	1.320709E-17	1.188573E-18
1.640000E+03	1.299438E-17	1.161604E-18
1.680000E+03	1.278947E-17	1.135401E-18
1.720000E+03	1.258727E-17	1.109505E-18
1.760000E+03	1.238786E-17	1.083926E-18
1.800000E+03	1.219606E-17	1.059085E-18
1.840000E+03	1.201176E-17	1.034962E-18
1.880000E+03	1.183252E-17	1.011341E-18
1.920000E+03	1.165833E-17	9.882162E-19
1.960000E+03	1.149369E-17	9.659626E-19
2.000000E+03	1.133621E-17	9.443661E-19
2.040000E+03	1.118801E-17	9.235921E-19
2.080000E+03	1.104681E-17	9.034400E-19
2.120000E+03	1.091679E-17	8.842377E-19
2.160000E+03	1.079368E-17	8.656214E-19
2.200000E+03	1.068158E-17	8.479055E-19
2.240000E+03	1.058037E-17	8.310597E-19
2.280000E+03	1.049002E-17	8.150590E-19
2.320000E+03	1.040861E-17	7.997327E-19
2.360000E+03	1.033819E-17	7.852180E-19
2.400000E+03	1.028073E-17	7.716385E-19
2.440000E+03	1.023637E-17	7.589726E-19
2.480000E+03	1.020172E-17	7.469408E-19
2.520000E+03	1.018254E-17	7.359363E-19
2.560000E+03	1.017742E-17	7.258169E-19
2.600000E+03	1.018859E-17	7.167032E-19
2.640000E+03	1.021494E-17	7.084734E-19
2.680000E+03	1.026061E-17	7.013670E-19
2.720000E+03	1.032475E-17	6.952727E-19
2.760000E+03	1.041167E-17	6.904216E-19
2.800000E+03	1.052249E-17	6.868192E-19
2.840000E+03	1.066011E-17	6.845787E-19
2.880000E+03	1.082759E-17	6.838122E-19
2.920000E+03	1.102974E-17	6.847243E-19
2.960000E+03	1.126991E-17	6.874111E-19
3.000000E+03	1.155321E-17	6.920579E-19
3.010000E+03	1.163259E-17	6.936178E-19
3.020000E+03	1.171483E-17	6.952987E-19
3.030000E+03	1.179840E-17	6.970071E-19
3.040000E+03	1.188647E-17	6.989288E-19
3.050000E+03	1.197907E-17	7.010620E-19
3.060000E+03	1.207468E-17	7.033147E-19
3.070000E+03	1.217333E-17	7.056855E-19
3.080000E+03	1.227663E-17	7.082654E-19
3.090000E+03	1.238305E-17	7.109628E-19
3.100000E+03	1.249420E-17	7.138668E-19
3.110000E+03	1.260853E-17	7.168861E-19
3.120000E+03	1.272768E-17	7.201105E-19
3.130000E+03	1.285169E-17	7.235383E-19
3.140000E+03	1.297900E-17	7.270786E-19
3.150000E+03	1.311284E-17	7.309085E-19
3.160000E+03	1.325007E-17	7.348489E-19
3.170000E+03	1.339232E-17	7.389872E-19
3.180000E+03	1.354125E-17	7.434095E-19
3.190000E+03	1.369370E-17	7.479394E-19
3.200000E+03	1.385293E-17	7.527498E-19
3.210000E+03	1.401738E-17	7.577524E-19
3.220000E+03	1.418712E-17	7.629458E-19
3.230000E+03	1.436381E-17	7.684150E-19
3.240000E+03	1.454592E-17	7.740727E-19
3.250000E+03	1.473513E-17	7.800039E-19
3.260000E+03	1.492989E-17	7.861221E-19
3.270000E+03	1.513192E-17	7.925122E-19
3.280000E+03	1.534131E-17	7.991731E-19
3.290000E+03	1.555818E-17	8.061059E-19
3.300000E+03	1.578264E-17	8.133105E-19
3.310000E+03	1.601485E-17	8.207883E-19
3.320000E+03	1.625494E-17	8.285410E-19
3.330000E+03	1.650474E-17	8.366551E-19
3.340000E+03	1.676281E-17	8.450503E-19
3.350000E+03	1.702937E-17	8.537311E-19
3.360000E+03	1.730633E-17	8.627871E-19
3.370000E+03	1.759400E-17	8.722253E-19
3.380000E+03	1.789273E-17	8.820543E-19
3.390000E+03	1.820119E-17	8.922018E-19
3.400000E+03	1.852321E-17	9.028459E-19
3.410000E+03	1.885757E-17	9.139184E-19
3.420000E+03	1.920656E-17	9.255194E-19
3.430000E+03	1.956733E-17	9.375022E-19
3.440000E+03	1.994574E-17	9.501370E-19
3.450000E+03	2.033911E-17	9.632833E-19
3.460000E+03	2.074997E-17	9.770498E-19
3.470000E+03	2.117923E-17	9.914660E-19
3.480000E+03	2.162782E-17	1.006561E-18
3.490000E+03	2.209661E-17	1.022362E-18
3.500000E+03	2.258818E-17	1.038972E-18
3.510000E+03	2.310341E-17	1.056414E-18
3.520000E+03	2.364137E-17	1.074631E-18
3.530000E+03	2.420486E-17	1.093731E-18
3.540000E+03	2.479492E-17	1.113743E-18
3.550000E+03	2.541271E-17	1.134699E-18
3.560000E+03	2.606134E-17	1.156719E-18
3.570000E+03	2.674029E-17	1.179757E-18
3.580000E+03	2.745101E-17	1.203856E-18
3.590000E+03	2.819891E-17	1.229229E-18
3.600000E+03	2.898182E-17	1.255756E-18
3.610000E+03	2.980543E-17	1.283657E-18
3.620000E+03	3.066970E-17	1.312899E-18
3.630000E+03	3.157664E-17	1.343537E-18
3.640000E+03	3.253039E-17	1.375717E-18
3.650000E+03	3.353327E-17	1.409498E-18
3.660000E+03	3.458768E-17	1.444946E-18
3.670000E+03	3.569614E-17	1.482128E-18
3.680000E+03	3.686127E-17	1.521111E-18
3.690000E+03	3.808796E-17	1.562054E-18
3.700000E+03	3.937911E-17	1.605030E-18
3.710000E+03	4.073546E-17	1.650021E-18
3.720000E+03	4.216451E-17	1.697281E-18
3.730000E+03	4.366485E-17	1.746700E-18
3.740000E+03	4.524421E-17	1.798533E-18
3.750000E+03	4.690587E-17	1.852852E-18
3.760000E+03	4.865066E-17	1.909628E-18
3.770000E+03	5.048416E-17	1.969017E-18
3.780000E+03	5.240955E-17	2.031078E-18
3.790000E+03	5.443243E-17	2.095960E-18
3.800000E+03	5.655064E-17	2.163506E-18
3.810000E+03	5.877202E-17	2.233946E-18
3.820000E+03	6.109916E-17	2.307301E-18
3.830000E+03	6.353432E-17	2.383577E-18
3.840000E+03	6.607653E-17	2.462661E-18
3.850000E+03	6.873275E-17	2.544728E-18
3.860000E+03	7.150103E-17	2.629625E-18
3.870000E+03	7.438155E-17	2.717275E-18
3.880000E+03	7.737369E-17	2.807572E-18
3.890000E+03	8.047912E-17	2.900493E-18
3.900000E+03	8.369558E-17	2.995874E-18
3.910000E+03	8.701656E-17	3.093401E-18
3.920000E+03	9.044397E-17	3.193062E-18
3.930000E+03	9.396557E-17	3.294351E-18
3.940000E+03	9.757745E-17	3.397059E-18
3.950000E+03	1.012711E-16	3.500824E-18
3.960000E+03	1.050399E-16	3.605358E-18
3.970000E+03	1.088656E-16	3.709983E-18
3.980000E+03	1.127386E-16	3.814329E-18
3.990000E+03	1.166481E-16	3.917996E-18
4.000000E+03	1.205712E-16	4.020192E-18
4.010000E+03	1.244983E-16	4.120588E-18
4.020000E+03	1.284079E-16	4.218470E-18
4.030000E+03	1.322776E-16	4.313122E-18
4.040000E+03	1.360921E-16	4.404074E-18
4.050000E+03	1.398322E-16	4.490748E-18
4.060000E+03	1.434792E-16	4.572601E-18
4.070000E+03	1.470112E-16	4.649009E-18
4.080000E+03	1.504111E-16	4.719517E-18
4.090000E+03	1.536637E-16	4.783747E-18
4.100000E+03	1.567517E-16	4.841278E-18
4.110000E+03	1.596684E-16	4.892024E-18
4.120000E+03	1.624057E-16	4.935862E-18
4.130000E+03	1.649470E-16	4.972425E-18
4.140000E+03	1.673020E-16	5.002152E-18
4.150000E+03	1.694606E-16	5.024884E-18
4.160000E+03	1.714310E-16	5.041006E-18
4.170000E+03	1.732171E-16	5.050771E-18
4.180000E+03	1.748250E-16	5.054500E-18
4.190000E+03	1.762672E-16	5.052685E-18
4.200000E+03	1.775547E-16	5.045763E-18
4.210000E+03	1.787032E-16	5.034298E-18
4.220000E+03	1.797263E-16	5.018774E-18
4.230000E+03	1.806379E-16	4.999678E-18
4.240000E+03	1.814562E-16	4.977593E-18
4.250000E+03	1.821918E-16	4.952889E-18
4.260000E+03	1.828590E-16	4.926014E-18
4.270000E+03	1.834780E-16	4.897566E-18
4.280000E+03	1.840544E-16	4.867740E-18
4.290000E+03	1.846031E-16	4.836961E-18
4.300000E+03	1.851340E-16	4.805521E-18
4.310000E+03	1.856528E-16	4.773587E-18
4.320000E+03	1.861734E-16	4.741532E-18
4.330000E+03	1.866951E-16	4.709350E-18
4.340000E+03	1.872226E-16	4.677167E-18
4.350000E+03	1.877652E-16	4.645223E-18
4.360000E+03	1.883155E-16	4.613340E-18
4.370000E+03	1.888805E-16	4.581693E-18
4.380000E+03	1.894601E-16	4.550289E-18
4.390000E+03	1.900510E-16	4.519053E-18
4.400000E+03	1.906560E-16	4.488058E-18
4.410000E+03	1.912729E-16	4.457260E-18
4.420000E+03	1.919048E-16	4.426745E-18
4.430000E+03	1.925603E-16	4.396714E-18
4.440000E+03	1.932561E-16	4.367549E-18
4.450000E+03	1.940146E-16	4.339747E-18
4.460000E+03	1.948568E-16	4.313751E-18
4.470000E+03	1.958033E-16	4.289978E-18
4.480000E+03	1.968790E-16	4.268922E-18
4.490000E+03	1.981012E-16	4.250901E-18
4.500000E+03	1.994906E-16	4.236277E-18
4.510000E+03	2.010566E-16	4.225173E-18
4.520000E+03	2.028165E-16	4.217847E-18
4.530000E+03	2.047728E-16	4.214242E-18
4.540000E+03	2.069322E-16	4.214390E-18
4.550000E+03	2.092946E-16	4.218178E-18
4.560000E+03	2.118553E-16	4.225409E-18
4.570000E+03	2.146075E-16	4.235855E-18
4.580000E+03	2.175374E-16	4.249156E-18
4.590000E+03	2.206287E-16	4.264927E-18
4.600000E+03	2.238552E-16	4.282603E-18
4.610000E+03	2.271948E-16	4.301726E-18
4.620000E+03	2.306154E-16	4.321673E-18
4.630000E+03	2.340842E-16	4.341837E-18
4.640000E+03	2.375621E-16	4.361522E-18
4.650000E+03	2.410137E-16	4.380135E-18
4.660000E+03	2.443927E-16	4.396915E-18
4.670000E+03	2.476638E-16	4.411329E-18
4.680000E+03	2.507825E-16	4.422716E-18
4.690000E+03	2.537078E-16	4.430503E-18
4.700000E+03	2.564003E-16	4.434172E-18
4.710000E+03	2.588225E-16	4.433269E-18
4.720000E+03	2.609401E-16	4.427407E-18
4.730000E+03	2.627217E-16	4.416275E-18
4.740000E+03	2.641434E-16	4.399699E-18
4.750000E+03	2.651818E-16	4.377520E-18
4.760000E+03	2.658173E-16	4.349646E-18
4.770000E+03	2.660328E-16	4.316038E-18
4.780000E+03	2.658175E-16	4.276747E-18
4.790000E+03	2.651601E-16	4.231816E-18
4.800000E+03	2.640721E-16	4.181640E-18
4.810000E+03	2.625639E-16	4.126578E-18
4.820000E+03	2.606634E-16	4.067244E-18
4.830000E+03	2.584125E-16	4.004441E-18
4.840000E+03	2.558538E-16	3.938949E-18
4.850000E+03	2.530511E-16	3.871843E-18
4.860000E+03	2.500614E-16	3.804056E-18
4.870000E+03	2.469785E-16	3.737045E-18
4.880000E+03	2.438921E-16	3.672165E-18
4.890000E+03	2.408975E-16	3.610825E-18
4.900000E+03	2.380773E-16	3.554214E-18
4.910000E+03	2.355094E-16	3.503439E-18
4.920000E+03	2.332552E-16	3.459348E-18
4.930000E+03	2.313717E-16	3.422719E-18
4.940000E+03	2.298923E-16	3.393995E-18
4.950000E+03	2.288462E-16	3.373557E-18
4.960000E+03	2.282444E-16	3.361511E-18
4.970000E+03	2.280946E-16	3.357873E-18
4.980000E+03	2.283852E-16	3.362385E-18
4.990000E+03	2.290951E-16	3.374664E-18
5.000000E+03	2.302015E-16	3.394322E-18
5.010000E+03	2.316663E-16	3.420751E-18
5.020000E+03	2.334500E-16	3.453331E-18
5.030000E+03	2.355000E-16	3.491253E-18
5.040000E+03	2.377707E-16	3.533814E-18
5.050000E+03	2.402071E-16	3.580165E-18
5.060000E+03	2.427597E-16	3.629533E-18
5.070000E+03	2.453759E-16	3.681089E-18
5.080000E+03	2.480126E-16	3.734139E-18
5.090000E+03	2.506302E-16	3.788026E-18
5.100000E+03	2.531936E-16	3.842156E-18
5.110000E+03	2.556789E-16	3.896091E-18
5.120000E+03	2.580748E-16	3.949576E-18
5.130000E+03	2.603763E-16	4.002451E-18
5.140000E+03	2.625876E-16	4.054694E-18
5.150000E+03	2.647188E-16	4.106373E-18
5.160000E+03	2.667924E-16	4.157755E-18
5.170000E+03	2.688343E-16	4.209163E-18
5.180000E+03	2.708719E-16	4.260952E-18
5.190000E+03	2.729439E-16	4.313667E-18
5.200000E+03	2.750785E-16	4.367697E-18
5.210000E+03	2.773099E-16	4.423533E-18
5.220000E+03	2.796763E-16	4.481746E-18
5.230000E+03	2.822020E-16	4.542691E-18
5.240000E+03	2.849167E-16	4.606819E-18
5.250000E+03	2.878393E-16	4.674414E-18
5.260000E+03	2.909904E-16	4.745793E-18
5.270000E+03	2.943813E-16	4.821124E-18
5.280000E+03	2.980173E-16	4.900480E-18
5.290000E+03	3.018936E-16	4.983762E-18
5.300000E+03	3.060012E-16	5.070805E-18
5.310000E+03	3.103265E-16	5.161356E-18
5.320000E+03	3.148415E-16	5.254921E-18
5.330000E+03	3.195170E-16	5.350973E-18
5.340000E+03	3.243091E-16	5.448735E-18
5.350000E+03	3.291708E-16	5.547359E-18
5.360000E+03	3.340519E-16	5.645939E-18
5.370000E+03	3.388882E-16	5.743317E-18
5.380000E+03	3.436269E-16	5.838521E-18
5.390000E+03	3.482067E-16	5.930427E-18
5.400000E+03	3.525693E-16	6.017952E-18
5.410000E+03	3.566745E-16	6.100319E-18
5.420000E+03	3.604785E-16	6.176694E-18
5.430000E+03	3.639553E-16	6.246540E-18
5.440000E+03	3.670799E-16	6.309344E-18
5.450000E+03	3.698312E-16	6.364659E-18
5.460000E+03	3.721867E-16	6.412022E-18
5.470000E+03	3.741374E-16	6.451209E-18
5.480000E+03	3.756600E-16	6.481760E-18
5.490000E+03	3.767432E-16	6.503432E-18
5.500000E+03	3.773682E-16	6.515859E-18
5.510000E+03	3.775230E-16	6.518811E-18
5.520000E+03	3.771877E-16	6.511925E-18
5.530000E+03	3.763487E-16	6.494965E-18
5.540000E+03	3.749846E-16	6.467573E-18
5.550000E+03	3.730817E-16	6.429537E-18
5.560000E+03	3.706278E-16	6.380685E-18
5.570000E+03	3.676027E-16	6.320723E-18
5.580000E+03	3.640025E-16	6.249656E-18
5.590000E+03	3.598270E-16	6.167564E-18
5.600000E+03	3.550891E-16	6.074767E-18
5.610000E+03	3.498025E-16	5.971610E-18
5.620000E+03	3.440080E-16	5.858916E-18
5.630000E+03	3.377466E-16	5.737511E-18
5.640000E+03	3.310868E-16	5.608697E-18
5.650000E+03	3.240970E-16	5.473772E-18
5.660000E+03	3.168707E-16	5.334445E-18
5.670000E+03	3.095010E-16	5.192410E-18
5.680000E+03	3.020884E-16	5.049467E-18
5.690000E+03	2.947436E-16	4.907559E-18
5.700000E+03	2.875780E-16	4.768618E-18
5.710000E+03	2.806930E-16	4.634369E-18
5.720000E+03	2.741944E-16	4.506580E-18
5.730000E+03	2.681764E-16	4.386794E-18
5.740000E+03	2.627334E-16	4.276511E-18
5.750000E+03	2.579404E-16	4.176887E-18
5.760000E+03	2.538688E-16	4.088971E-18
5.770000E+03	2.505821E-16	4.013662E-18
5.780000E+03	2.481322E-16	3.951631E-18
5.790000E+03	2.465560E-16	3.903283E-18
5.800000E+03	2.458910E-16	3.869007E-18
5.810000E+03	2.461575E-16	3.848899E-18
5.820000E+03	2.473683E-16	3.842918E-18
5.830000E+03	2.495257E-16	3.850851E-18
5.840000E+03	2.526176E-16	3.872256E-18
5.850000E+03	2.566241E-16	3.906569E-18
5.860000E+03	2.615051E-16	3.952932E-18
5.870000E+03	2.672094E-16	4.010332E-18
5.880000E+03	2.736616E-16	4.077427E-18
5.890000E+03	2.807666E-16	4.152612E-18
5.900000E+03	2.884129E-16	4.234101E-18
5.910000E+03	2.964657E-16	4.319817E-18
5.920000E+03	3.047670E-16	4.407425E-18
5.930000E+03	3.131436E-16	4.494453E-18
5.940000E+03	3.214127E-16	4.578379E-18
5.950000E+03	3.293709E-16	4.656485E-18
5.960000E+03	3.368329E-16	4.726407E-18
5.970000E+03	3.436016E-16	4.785703E-18
5.980000E+03	3.495120E-16	4.832468E-18
5.990000E+03	3.544096E-16	4.865005E-18
6.000000E+03	3.581814E-16	4.882247E-18
6.010000E+03	3.607442E-16	4.883563E-18
6.020000E+03	3.620589E-16	4.868933E-18
6.030000E+03	3.621284E-16	4.838887E-18
6.040000E+03	3.609926E-16	4.794426E-18
6.050000E+03	3.587361E-16	4.737090E-18
6.060000E+03	3.554692E-16	4.668704E-18
6.070000E+03	3.513288E-16	4.591364E-18
6.080000E+03	3.464779E-16	4.507437E-18
6.090000E+03	3.410882E-16	4.419328E-18
6.100000E+03	3.353340E-16	4.329405E-18
6.110000E+03	3.293922E-16	4.240005E-18
6.120000E+03	3.234336E-16	4.153341E-18
6.130000E+03	3.176185E-16	4.071449E-18
6.140000E+03	3.120935E-16	3.996167E-18
6.150000E+03	3.069849E-16	3.929065E-18
6.160000E+03	3.024066E-16	3.871550E-18
6.170000E+03	2.984442E-16	3.824653E-18
6.180000E+03	2.951591E-16	3.789016E-18
6.190000E+03	2.925879E-16	3.764978E-18
6.200000E+03	2.907347E-16	3.752500E-18
6.210000E+03	2.895472E-16	3.750839E-18
6.220000E+03	2.889159E-16	3.758528E-18
6.230000E+03	2.887012E-16	3.773709E-18
6.240000E+03	2.887594E-16	3.794446E-18
6.250000E+03	2.889722E-16	3.819120E-18
6.260000E+03	2.892493E-16	3.846447E-18
6.270000E+03	2.895153E-16	3.875320E-18
6.280000E+03	2.897196E-16	3.904937E-18
6.290000E+03	2.898053E-16	3.934393E-18
6.300000E+03	2.897419E-16	3.963117E-18
6.310000E+03	2.894951E-16	3.990476E-18
6.320000E+03	2.890435E-16	4.015992E-18
6.330000E+03	2.883656E-16	4.039185E-18
6.340000E+03	2.874577E-16	4.059805E-18
6.350000E+03	2.863061E-16	4.077469E-18
6.360000E+03	2.849142E-16	4.092026E-18
6.370000E+03	2.832840E-16	4.103310E-18
6.380000E+03	2.814216E-16	4.111223E-18
6.390000E+03	2.793430E-16	4.115816E-18
6.400000E+03	2.770597E-16	4.117083E-18
6.410000E+03	2.745946E-16	4.115205E-18
6.420000E+03	2.719711E-16	4.110384E-18
6.430000E+03	2.692124E-16	4.102838E-18
6.440000E+03	2.663441E-16	4.092840E-18
6.450000E+03	2.634021E-16	4.080841E-18
6.460000E+03	2.604128E-16	4.067169E-18
6.470000E+03	2.574125E-16	4.052323E-18
6.480000E+03	2.544305E-16	4.036719E-18
6.490000E+03	2.515045E-16	4.020928E-18
6.500000E+03	2.486654E-16	4.005429E-18
6.510000E+03	2.459492E-16	3.990804E-18
6.520000E+03	2.433840E-16	3.977532E-18
6.530000E+03	2.410076E-16	3.966258E-18
6.540000E+03	2.388489E-16	3.957505E-18
6.550000E+03	2.369349E-16	3.951775E-18
6.560000E+03	2.352901E-16	3.949541E-18
6.570000E+03	2.339408E-16	3.951314E-18
6.580000E+03	2.329040E-16	3.957456E-18
6.590000E+03	2.321944E-16	3.968296E-18
6.600000E+03	2.318186E-16	3.984021E-18
6.610000E+03	2.317793E-16	4.004755E-18
6.620000E+03	2.320723E-16	4.030494E-18
6.630000E+03	2.326864E-16	4.061107E-18
6.640000E+03	2.336027E-16	4.096318E-18
6.650000E+03	2.347949E-16	4.135708E-18
6.660000E+03	2.362295E-16	4.178718E-18
6.670000E+03	2.378658E-16	4.224651E-18
6.680000E+03	2.396548E-16	4.272636E-18
6.690000E+03	2.415467E-16	4.321781E-18
6.700000E+03	2.434878E-16	4.371106E-18
6.710000E+03	2.454159E-16	4.419463E-18
6.720000E+03	2.472672E-16	4.465661E-18
6.730000E+03	2.489858E-16	4.508645E-18
6.740000E+03	2.505124E-16	4.547287E-18
6.750000E+03	2.517882E-16	4.580463E-18
6.760000E+03	2.527624E-16	4.607193E-18
6.770000E+03	2.533939E-16	4.626676E-18
6.780000E+03	2.536445E-16	4.638165E-18
6.790000E+03	2.534943E-16	4.641258E-18
6.800000E+03	2.529226E-16	4.635541E-18
6.810000E+03	2.519285E-16	4.620981E-18
6.820000E+03	2.505225E-16	4.597761E-18
6.830000E+03	2.487178E-16	4.566127E-18
6.840000E+03	2.465466E-16	4.526683E-18
6.850000E+03	2.440508E-16	4.480226E-18
6.860000E+03	2.412748E-16	4.427606E-18
6.870000E+03	2.382728E-16	4.369859E-18
6.880000E+03	2.351040E-16	4.308117E-18
6.890000E+03	2.318340E-16	4.243632E-18
6.900000E+03	2.285241E-16	4.177579E-18
6.910000E+03	2.252390E-16	4.111185E-18
6.920000E+03	2.220441E-16	4.045689E-18
6.930000E+03	2.189968E-16	3.982169E-18
6.940000E+03	2.161558E-16	3.921719E-18
6.950000E+03	2.135692E-16	3.865229E-18
6.960000E+03	2.112821E-16	3.813519E-18
6.970000E+03	2.093354E-16	3.767313E-18
6.980000E+03	2.077606E-16	3.727160E-18
6.990000E+03	2.065768E-16	3.693367E-18
7.000000E+03	2.058082E-16	3.666316E-18
7.010000E+03	2.054562E-16	3.645972E-18
7.020000E+03	2.055269E-16	3.632377E-18
7.030000E+03	2.060143E-16	3.625345E-18
7.040000E+03	2.068997E-16	3.624462E-18
7.050000E+03	2.081670E-16	3.629362E-18
7.060000E+03	2.097865E-16	3.639437E-18
7.070000E+03	2.117276E-16	3.654066E-18
7.080000E+03	2.139492E-16	3.672459E-18
7.090000E+03	2.164087E-16	3.693811E-18
7.100000E+03	2.190606E-16	3.717281E-18
7.110000E+03	2.218582E-16	3.742021E-18
7.120000E+03	2.247546E-16	3.767203E-18
7.130000E+03	2.277072E-16	3.792092E-18
7.140000E+03	2.306685E-16	3.815889E-18
7.150000E+03	2.336069E-16	3.838078E-18
7.160000E+03	2.364845E-16	3.858068E-18
7.170000E+03	2.392795E-16	3.875540E-18
7.180000E+03	2.419774E-16	3.890315E-18
7.190000E+03	2.445623E-16	3.902197E-18
7.200000E+03	2.470346E-16	3.911267E-18
7.210000E+03	2.493988E-16	3.917673E-18
7.220000E+03	2.516657E-16	3.921663E-18
7.230000E+03	2.538472E-16	3.923506E-18
7.240000E+03	2.559690E-16	3.923678E-18
7.250000E+03	2.580459E-16	3.922485E-18
7.260000E+03	2.601032E-16	3.920384E-18
7.270000E+03	2.621588E-16	3.917718E-18
7.280000E+03	2.642385E-16	3.914943E-18
7.290000E+03	2.663515E-16	3.912264E-18
7.300000E+03	2.685131E-16	3.909973E-18
7.310000E+03	2.707296E-16	3.908235E-18
7.320000E+03	2.729988E-16	3.907093E-18
7.330000E+03	2.753222E-16	3.906657E-18
7.340000E+03	2.776778E-16	3.906708E-18
7.350000E+03	2.800583E-16	3.907252E-18
7.360000E+03	2.824361E-16	3.908023E-18
7.370000E+03	2.847770E-16	3.908692E-18
7.380000E+03	2.870488E-16	3.908971E-18
7.390000E+03	2.892059E-16	3.908415E-18
7.400000E+03	2.912056E-16	3.906641E-18
7.410000E+03	2.929966E-16	3.903168E-18
7.420000E+03	2.945160E-16	3.897383E-18
7.430000E+03	2.957118E-16	3.888837E-18
7.440000E+03	2.965144E-16	3.876857E-18
7.450000E+03	2.968626E-16	3.860889E-18
7.460000E+03	2.966898E-16	3.840310E-18
7.470000E+03	2.959332E-16	3.814540E-18
7.480000E+03	2.945232E-16	3.782895E-18
7.490000E+03	2.923985E-16	3.744763E-18
7.500000E+03	2.895103E-16	3.699630E-18
7.510000E+03	2.858162E-16	3.647015E-18
7.520000E+03	2.812951E-16	3.586654E-18
7.530000E+03	2.759536E-16	3.518587E-18
7.540000E+03	2.698314E-16	3.443216E-18
7.550000E+03	2.630546E-16	3.361990E-18
7.560000E+03	2.557846E-16	3.276766E-18
7.570000E+03	2.482035E-16	3.189603E-18
7.580000E+03	2.404759E-16	3.102281E-18
7.590000E+03	2.327551E-16	3.016453E-18
7.600000E+03	2.251772E-16	2.933589E-18
7.610000E+03	2.178581E-16	2.854943E-18
7.620000E+03	2.108935E-16	2.781563E-18
7.630000E+03	2.043551E-16	2.714229E-18
7.640000E+03	1.983000E-16	2.653587E-18
7.650000E+03	1.927500E-16	2.599857E-18
7.660000E+03	1.877011E-16	2.552948E-18
7.670000E+03	1.831417E-16	2.512691E-18
7.680000E+03	1.790514E-16	2.478819E-18
7.690000E+03	1.754071E-16	2.451038E-18
7.700000E+03	1.721860E-16	2.429069E-18
7.710000E+03	1.693633E-16	2.412614E-18
7.720000E+03	1.669202E-16	2.401462E-18
7.730000E+03	1.648373E-16	2.395397E-18
7.740000E+03	1.630960E-16	2.394218E-18
7.750000E+03	1.616788E-16	2.397740E-18
7.760000E+03	1.605661E-16	2.405747E-18
