#wls	flux	fluxerr
1.600000E+03	1.654720E-17	1.570094E-18
1.640000E+03	1.639620E-17	1.549355E-18
1.680000E+03	1.625021E-17	1.529032E-18
1.720000E+03	1.610615E-17	1.508832E-18
1.760000E+03	1.597028E-17	1.489337E-18
1.800000E+03	1.583952E-17	1.470254E-18
1.840000E+03	1.571395E-17	1.451581E-18
1.880000E+03	1.559368E-17	1.433323E-18
1.920000E+03	1.548467E-17	1.416020E-18
1.960000E+03	1.538110E-17	1.399125E-18
2.000000E+03	1.528885E-17	1.383163E-18
2.040000E+03	1.520227E-17	1.367608E-18
2.080000E+03	1.513002E-17	1.353227E-18
2.120000E+03	1.506653E-17	1.339499E-18
2.160000E+03	1.501476E-17	1.326673E-18
2.200000E+03	1.497762E-17	1.314983E-18
2.240000E+03	1.495254E-17	1.304176E-18
2.280000E+03	1.494513E-17	1.294717E-18
2.320000E+03	1.495028E-17	1.286131E-18
2.360000E+03	1.497363E-17	1.278873E-18
2.400000E+03	1.501811E-17	1.273152E-18
2.440000E+03	1.507889E-17	1.268518E-18
2.480000E+03	1.516420E-17	1.265619E-18
2.520000E+03	1.527198E-17	1.264227E-18
2.560000E+03	1.540537E-17	1.264546E-18
2.600000E+03	1.556757E-17	1.266774E-18
2.640000E+03	1.575936E-17	1.270899E-18
2.680000E+03	1.598413E-17	1.277117E-18
2.720000E+03	1.624780E-17	1.285806E-18
2.760000E+03	1.655150E-17	1.296951E-18
2.800000E+03	1.689898E-17	1.310729E-18
2.840000E+03	1.729656E-17	1.327501E-18
2.880000E+03	1.775077E-17	1.347616E-18
2.920000E+03	1.826348E-17	1.371048E-18
2.960000E+03	1.884661E-17	1.398502E-18
3.000000E+03	1.950271E-17	1.429947E-18
3.010000E+03	1.967900E-17	1.438470E-18
3.020000E+03	1.986178E-17	1.447362E-18
3.030000E+03	2.005107E-17	1.456624E-18
3.040000E+03	2.024452E-17	1.466078E-18
3.050000E+03	2.044462E-17	1.475901E-18
3.060000E+03	2.065143E-17	1.486093E-18
3.070000E+03	2.086258E-17	1.496477E-18
3.080000E+03	2.108303E-17	1.507405E-18
3.090000E+03	2.130797E-17	1.518527E-18
3.100000E+03	2.153991E-17	1.530017E-18
3.110000E+03	2.177895E-17	1.541876E-18
3.120000E+03	2.202519E-17	1.554105E-18
3.130000E+03	2.228116E-17	1.566877E-18
3.140000E+03	2.254206E-17	1.579848E-18
3.150000E+03	2.281291E-17	1.593363E-18
3.160000E+03	2.309138E-17	1.607252E-18
3.170000E+03	2.337756E-17	1.621516E-18
3.180000E+03	2.367409E-17	1.636329E-18
3.190000E+03	2.398111E-17	1.651694E-18
3.200000E+03	2.429377E-17	1.667268E-18
3.210000E+03	2.461971E-17	1.683569E-18
3.220000E+03	2.495412E-17	1.700258E-18
3.230000E+03	2.529967E-17	1.717508E-18
3.240000E+03	2.565656E-17	1.735325E-18
3.250000E+03	2.602247E-17	1.753542E-18
3.260000E+03	2.640268E-17	1.772505E-18
3.270000E+03	2.679487E-17	1.792047E-18
3.280000E+03	2.719675E-17	1.812005E-18
3.290000E+03	2.761623E-17	1.832896E-18
3.300000E+03	2.804593E-17	1.854217E-18
3.310000E+03	2.849127E-17	1.876314E-18
3.320000E+03	2.894998E-17	1.899027E-18
3.330000E+03	2.942496E-17	1.922532E-18
3.340000E+03	2.991659E-17	1.946840E-18
3.350000E+03	3.042262E-17	1.971791E-18
3.360000E+03	3.094604E-17	1.997563E-18
3.370000E+03	3.148990E-17	2.024340E-18
3.380000E+03	3.204935E-17	2.051791E-18
3.390000E+03	3.262748E-17	2.080100E-18
3.400000E+03	3.322741E-17	2.109447E-18
3.410000E+03	3.384964E-17	2.139845E-18
3.420000E+03	3.448932E-17	2.170970E-18
3.430000E+03	3.515503E-17	2.203342E-18
3.440000E+03	3.584194E-17	2.236637E-18
3.450000E+03	3.655331E-17	2.271038E-18
3.460000E+03	3.728971E-17	2.306558E-18
3.470000E+03	3.805174E-17	2.343211E-18
3.480000E+03	3.884279E-17	2.381182E-18
3.490000E+03	3.966072E-17	2.420314E-18
3.500000E+03	4.050616E-17	2.460619E-18
3.510000E+03	4.138255E-17	2.502280E-18
3.520000E+03	4.228772E-17	2.545140E-18
3.530000E+03	4.322801E-17	2.589550E-18
3.540000E+03	4.420126E-17	2.635349E-18
3.550000E+03	4.520817E-17	2.682548E-18
3.560000E+03	4.624938E-17	2.731153E-18
3.570000E+03	4.732847E-17	2.781344E-18
3.580000E+03	4.844321E-17	2.832953E-18
3.590000E+03	4.959716E-17	2.886154E-18
3.600000E+03	5.079098E-17	2.940948E-18
3.610000E+03	5.202530E-17	2.997336E-18
3.620000E+03	5.330071E-17	3.055310E-18
3.630000E+03	5.462081E-17	3.115038E-18
3.640000E+03	5.598312E-17	3.176336E-18
3.650000E+03	5.739116E-17	3.239363E-18
3.660000E+03	5.884229E-17	3.303927E-18
3.670000E+03	6.034310E-17	3.370354E-18
3.680000E+03	6.189081E-17	3.438443E-18
3.690000E+03	6.348564E-17	3.508159E-18
3.700000E+03	6.512771E-17	3.579464E-18
3.710000E+03	6.682026E-17	3.652490E-18
3.720000E+03	6.856326E-17	3.727184E-18
3.730000E+03	7.035652E-17	3.803489E-18
3.740000E+03	7.219974E-17	3.881339E-18
3.750000E+03	7.409242E-17	3.960658E-18
3.760000E+03	7.603392E-17	4.041363E-18
3.770000E+03	7.802678E-17	4.123540E-18
3.780000E+03	8.006661E-17	4.206909E-18
3.790000E+03	8.215561E-17	4.291538E-18
3.800000E+03	8.429237E-17	4.377305E-18
3.810000E+03	8.647526E-17	4.464077E-18
3.820000E+03	8.870239E-17	4.551713E-18
3.830000E+03	9.097163E-17	4.640059E-18
3.840000E+03	9.328413E-17	4.729131E-18
3.850000E+03	9.563372E-17	4.818576E-18
3.860000E+03	9.802102E-17	4.908387E-18
3.870000E+03	1.004394E-16	4.998195E-18
3.880000E+03	1.028889E-16	5.087970E-18
3.890000E+03	1.053622E-16	5.177324E-18
3.900000E+03	1.078591E-16	5.266219E-18
3.910000E+03	1.103788E-16	5.354598E-18
3.920000E+03	1.129099E-16	5.441881E-18
3.930000E+03	1.154513E-16	5.528005E-18
3.940000E+03	1.179982E-16	5.612733E-18
3.950000E+03	1.205417E-16	5.695638E-18
3.960000E+03	1.230840E-16	5.776828E-18
3.970000E+03	1.256118E-16	5.855679E-18
3.980000E+03	1.281224E-16	5.932084E-18
3.990000E+03	1.306085E-16	6.005723E-18
4.000000E+03	1.330588E-16	6.076106E-18
4.010000E+03	1.354689E-16	6.143066E-18
4.020000E+03	1.378264E-16	6.206086E-18
4.030000E+03	1.401259E-16	6.264983E-18
4.040000E+03	1.423514E-16	6.319093E-18
4.050000E+03	1.444975E-16	6.368262E-18
4.060000E+03	1.465554E-16	6.412186E-18
4.070000E+03	1.485132E-16	6.450428E-18
4.080000E+03	1.503629E-16	6.482750E-18
4.090000E+03	1.520971E-16	6.508941E-18
4.100000E+03	1.537058E-16	6.528695E-18
4.110000E+03	1.551837E-16	6.541913E-18
4.120000E+03	1.565270E-16	6.548571E-18
4.130000E+03	1.577304E-16	6.548582E-18
4.140000E+03	1.587939E-16	6.542086E-18
4.150000E+03	1.597164E-16	6.529179E-18
4.160000E+03	1.605023E-16	6.510184E-18
4.170000E+03	1.611577E-16	6.485487E-18
4.180000E+03	1.616844E-16	6.455289E-18
4.190000E+03	1.620920E-16	6.420106E-18
4.200000E+03	1.623917E-16	6.380491E-18
4.210000E+03	1.625919E-16	6.336892E-18
4.220000E+03	1.627051E-16	6.289891E-18
4.230000E+03	1.627348E-16	6.239715E-18
4.240000E+03	1.627003E-16	6.187183E-18
4.250000E+03	1.626087E-16	6.132637E-18
4.260000E+03	1.624702E-16	6.076520E-18
4.270000E+03	1.622954E-16	6.019278E-18
4.280000E+03	1.620974E-16	5.961435E-18
4.290000E+03	1.618892E-16	5.903499E-18
4.300000E+03	1.616751E-16	5.845643E-18
4.310000E+03	1.614674E-16	5.788324E-18
4.320000E+03	1.612778E-16	5.731965E-18
4.330000E+03	1.611143E-16	5.676839E-18
4.340000E+03	1.609842E-16	5.623187E-18
4.350000E+03	1.608938E-16	5.571207E-18
4.360000E+03	1.608485E-16	5.521066E-18
4.370000E+03	1.608558E-16	5.472984E-18
4.380000E+03	1.609245E-16	5.427227E-18
4.390000E+03	1.610558E-16	5.383791E-18
4.400000E+03	1.612580E-16	5.342911E-18
4.410000E+03	1.615366E-16	5.304720E-18
4.420000E+03	1.618998E-16	5.269430E-18
4.430000E+03	1.623578E-16	5.237314E-18
4.440000E+03	1.629162E-16	5.208487E-18
4.450000E+03	1.635901E-16	5.183358E-18
4.460000E+03	1.643774E-16	5.161784E-18
4.470000E+03	1.652783E-16	5.143696E-18
4.480000E+03	1.662947E-16	5.129078E-18
4.490000E+03	1.674224E-16	5.117726E-18
4.500000E+03	1.686609E-16	5.109551E-18
4.510000E+03	1.700062E-16	5.104364E-18
4.520000E+03	1.714576E-16	5.102077E-18
4.530000E+03	1.730087E-16	5.102438E-18
4.540000E+03	1.746584E-16	5.105360E-18
4.550000E+03	1.763992E-16	5.110575E-18
4.560000E+03	1.782244E-16	5.117841E-18
4.570000E+03	1.801225E-16	5.126800E-18
4.580000E+03	1.820864E-16	5.137226E-18
4.590000E+03	1.840998E-16	5.148642E-18
4.600000E+03	1.861435E-16	5.160513E-18
4.610000E+03	1.882026E-16	5.172442E-18
4.620000E+03	1.902551E-16	5.183856E-18
4.630000E+03	1.922778E-16	5.194167E-18
4.640000E+03	1.942468E-16	5.202792E-18
4.650000E+03	1.961383E-16	5.209174E-18
4.660000E+03	1.979350E-16	5.212946E-18
4.670000E+03	1.996159E-16	5.213664E-18
4.680000E+03	2.011708E-16	5.211171E-18
4.690000E+03	2.025850E-16	5.205210E-18
4.700000E+03	2.038524E-16	5.195751E-18
4.710000E+03	2.049719E-16	5.182886E-18
4.720000E+03	2.059374E-16	5.166589E-18
4.730000E+03	2.067515E-16	5.147047E-18
4.740000E+03	2.074161E-16	5.124424E-18
4.750000E+03	2.079318E-16	5.098849E-18
4.760000E+03	2.083042E-16	5.070565E-18
4.770000E+03	2.085323E-16	5.039652E-18
4.780000E+03	2.086219E-16	5.006349E-18
4.790000E+03	2.085760E-16	4.970818E-18
4.800000E+03	2.084106E-16	4.933522E-18
4.810000E+03	2.081371E-16	4.894802E-18
4.820000E+03	2.077805E-16	4.855312E-18
4.830000E+03	2.073661E-16	4.815685E-18
4.840000E+03	2.069248E-16	4.776672E-18
4.850000E+03	2.064898E-16	4.739054E-18
4.860000E+03	2.060934E-16	4.703558E-18
4.870000E+03	2.057599E-16	4.670719E-18
4.880000E+03	2.055140E-16	4.641058E-18
4.890000E+03	2.053731E-16	4.614931E-18
4.900000E+03	2.053579E-16	4.592763E-18
4.910000E+03	2.054826E-16	4.574824E-18
4.920000E+03	2.057643E-16	4.561447E-18
4.930000E+03	2.062154E-16	4.552861E-18
4.940000E+03	2.068454E-16	4.549229E-18
4.950000E+03	2.076638E-16	4.550716E-18
4.960000E+03	2.086702E-16	4.557247E-18
4.970000E+03	2.098708E-16	4.568889E-18
4.980000E+03	2.112641E-16	4.585547E-18
4.990000E+03	2.128456E-16	4.607065E-18
5.000000E+03	2.146034E-16	4.633130E-18
5.010000E+03	2.165284E-16	4.663499E-18
5.020000E+03	2.185983E-16	4.697645E-18
5.030000E+03	2.207861E-16	4.734949E-18
5.040000E+03	2.230605E-16	4.774706E-18
5.050000E+03	2.253796E-16	4.815988E-18
5.060000E+03	2.277006E-16	4.857855E-18
5.070000E+03	2.299746E-16	4.899244E-18
5.080000E+03	2.321536E-16	4.939112E-18
5.090000E+03	2.341931E-16	4.976493E-18
5.100000E+03	2.360559E-16	5.010579E-18
5.110000E+03	2.377172E-16	5.040828E-18
5.120000E+03	2.391707E-16	5.067080E-18
5.130000E+03	2.404283E-16	5.089568E-18
5.140000E+03	2.415117E-16	5.108725E-18
5.150000E+03	2.424617E-16	5.125384E-18
5.160000E+03	2.433251E-16	5.140503E-18
5.170000E+03	2.441476E-16	5.155010E-18
5.180000E+03	2.449769E-16	5.169880E-18
5.190000E+03	2.458534E-16	5.185927E-18
5.200000E+03	2.468081E-16	5.203768E-18
5.210000E+03	2.478708E-16	5.223994E-18
5.220000E+03	2.490565E-16	5.246883E-18
5.230000E+03	2.503774E-16	5.272656E-18
5.240000E+03	2.518408E-16	5.301432E-18
5.250000E+03	2.534505E-16	5.333255E-18
5.260000E+03	2.552072E-16	5.368103E-18
5.270000E+03	2.571122E-16	5.405969E-18
5.280000E+03	2.591612E-16	5.446727E-18
5.290000E+03	2.613422E-16	5.490092E-18
5.300000E+03	2.636537E-16	5.535997E-18
5.310000E+03	2.660774E-16	5.584022E-18
5.320000E+03	2.685973E-16	5.633801E-18
5.330000E+03	2.711964E-16	5.684939E-18
5.340000E+03	2.738515E-16	5.736921E-18
5.350000E+03	2.765361E-16	5.789158E-18
5.360000E+03	2.792175E-16	5.840936E-18
5.370000E+03	2.818676E-16	5.891636E-18
5.380000E+03	2.844571E-16	5.940624E-18
5.390000E+03	2.869614E-16	5.987358E-18
5.400000E+03	2.893569E-16	6.031321E-18
5.410000E+03	2.916316E-16	6.072236E-18
5.420000E+03	2.937639E-16	6.109632E-18
5.430000E+03	2.957420E-16	6.143242E-18
5.440000E+03	2.975529E-16	6.172776E-18
5.450000E+03	2.991806E-16	6.197889E-18
5.460000E+03	3.006189E-16	6.218439E-18
5.470000E+03	3.018503E-16	6.234060E-18
5.480000E+03	3.028641E-16	6.244524E-18
5.490000E+03	3.036536E-16	6.249697E-18
5.500000E+03	3.042102E-16	6.249411E-18
5.510000E+03	3.045242E-16	6.243476E-18
5.520000E+03	3.045887E-16	6.231766E-18
5.530000E+03	3.043948E-16	6.214125E-18
5.540000E+03	3.039335E-16	6.190394E-18
5.550000E+03	3.031857E-16	6.160221E-18
5.560000E+03	3.021339E-16	6.123293E-18
5.570000E+03	3.007530E-16	6.079151E-18
5.580000E+03	2.990117E-16	6.027224E-18
5.590000E+03	2.968845E-16	5.967070E-18
5.600000E+03	2.943410E-16	5.898160E-18
5.610000E+03	2.913641E-16	5.820251E-18
5.620000E+03	2.879309E-16	5.732984E-18
5.630000E+03	2.840449E-16	5.636550E-18
5.640000E+03	2.797192E-16	5.531327E-18
5.650000E+03	2.749836E-16	5.418028E-18
5.660000E+03	2.698964E-16	5.297926E-18
5.670000E+03	2.645250E-16	5.172456E-18
5.680000E+03	2.589581E-16	5.043453E-18
5.690000E+03	2.532839E-16	4.912722E-18
5.700000E+03	2.475959E-16	4.782140E-18
5.710000E+03	2.419854E-16	4.653511E-18
5.720000E+03	2.365376E-16	4.528496E-18
5.730000E+03	2.313393E-16	4.408751E-18
5.740000E+03	2.264616E-16	4.295604E-18
5.750000E+03	2.219743E-16	4.190329E-18
5.760000E+03	2.179424E-16	4.094081E-18
5.770000E+03	2.144188E-16	4.007759E-18
5.780000E+03	2.114529E-16	3.932176E-18
5.790000E+03	2.090804E-16	3.867867E-18
5.800000E+03	2.073358E-16	3.815324E-18
5.810000E+03	2.062427E-16	3.774828E-18
5.820000E+03	2.058189E-16	3.746533E-18
5.830000E+03	2.060740E-16	3.730445E-18
5.840000E+03	2.070152E-16	3.726512E-18
5.850000E+03	2.086374E-16	3.734463E-18
5.860000E+03	2.109236E-16	3.753816E-18
5.870000E+03	2.138401E-16	3.783802E-18
5.880000E+03	2.173304E-16	3.823265E-18
5.890000E+03	2.213325E-16	3.870982E-18
5.900000E+03	2.257702E-16	3.925513E-18
5.910000E+03	2.305538E-16	3.985216E-18
5.920000E+03	2.355869E-16	4.048385E-18
5.930000E+03	2.407481E-16	4.112927E-18
5.940000E+03	2.459150E-16	4.176787E-18
5.950000E+03	2.509503E-16	4.237716E-18
5.960000E+03	2.557160E-16	4.293511E-18
5.970000E+03	2.600785E-16	4.342101E-18
5.980000E+03	2.639088E-16	4.381542E-18
5.990000E+03	2.671086E-16	4.410448E-18
6.000000E+03	2.695917E-16	4.427660E-18
6.010000E+03	2.713031E-16	4.432560E-18
6.020000E+03	2.722151E-16	4.424976E-18
6.030000E+03	2.723165E-16	4.405004E-18
6.040000E+03	2.716279E-16	4.373245E-18
6.050000E+03	2.701916E-16	4.330623E-18
6.060000E+03	2.680704E-16	4.278355E-18
6.070000E+03	2.653455E-16	4.217919E-18
6.080000E+03	2.621124E-16	4.150983E-18
6.090000E+03	2.584856E-16	4.079467E-18
6.100000E+03	2.545755E-16	4.005188E-18
6.110000E+03	2.505033E-16	3.930100E-18
6.120000E+03	2.463865E-16	3.856059E-18
6.130000E+03	2.423355E-16	3.784787E-18
6.140000E+03	2.384612E-16	3.717995E-18
6.150000E+03	2.348539E-16	3.657059E-18
6.160000E+03	2.316069E-16	3.603400E-18
6.170000E+03	2.287917E-16	3.558099E-18
6.180000E+03	2.264675E-16	3.522027E-18
6.190000E+03	2.246748E-16	3.495755E-18
6.200000E+03	2.234293E-16	3.479486E-18
6.210000E+03	2.227102E-16	3.472850E-18
6.220000E+03	2.224575E-16	3.474876E-18
6.230000E+03	2.225916E-16	3.484292E-18
6.240000E+03	2.230324E-16	3.499822E-18
6.250000E+03	2.237064E-16	3.520292E-18
6.260000E+03	2.245658E-16	3.544927E-18
6.270000E+03	2.255693E-16	3.573048E-18
6.280000E+03	2.266783E-16	3.604017E-18
6.290000E+03	2.278586E-16	3.637256E-18
6.300000E+03	2.290792E-16	3.672228E-18
6.310000E+03	2.303031E-16	3.708299E-18
6.320000E+03	2.314983E-16	3.744897E-18
6.330000E+03	2.326224E-16	3.781273E-18
6.340000E+03	2.336402E-16	3.816780E-18
6.350000E+03	2.345163E-16	3.850755E-18
6.360000E+03	2.352188E-16	3.882581E-18
6.370000E+03	2.357217E-16	3.911722E-18
6.380000E+03	2.360078E-16	3.937778E-18
6.390000E+03	2.360689E-16	3.960497E-18
6.400000E+03	2.358993E-16	3.979661E-18
6.410000E+03	2.355040E-16	3.995232E-18
6.420000E+03	2.348892E-16	4.007197E-18
6.430000E+03	2.340738E-16	4.015762E-18
6.440000E+03	2.330725E-16	4.021068E-18
6.450000E+03	2.319112E-16	4.023460E-18
6.460000E+03	2.306174E-16	4.023324E-18
6.470000E+03	2.292174E-16	4.021037E-18
6.480000E+03	2.277345E-16	4.016937E-18
6.490000E+03	2.262010E-16	4.011529E-18
6.500000E+03	2.246354E-16	4.005096E-18
6.510000E+03	2.230639E-16	3.998061E-18
6.520000E+03	2.215033E-16	3.990694E-18
6.530000E+03	2.199681E-16	3.983228E-18
6.540000E+03	2.184728E-16	3.975913E-18
6.550000E+03	2.170363E-16	3.969075E-18
6.560000E+03	2.156651E-16	3.962828E-18
6.570000E+03	2.143799E-16	3.957548E-18
6.580000E+03	2.131894E-16	3.953402E-18
6.590000E+03	2.121096E-16	3.950692E-18
6.600000E+03	2.111549E-16	3.949698E-18
6.610000E+03	2.103293E-16	3.950505E-18
6.620000E+03	2.096408E-16	3.953280E-18
6.630000E+03	2.090872E-16	3.957998E-18
6.640000E+03	2.086584E-16	3.964481E-18
6.650000E+03	2.083395E-16	3.972454E-18
6.660000E+03	2.081149E-16	3.981629E-18
6.670000E+03	2.079586E-16	3.991511E-18
6.680000E+03	2.078441E-16	4.001586E-18
6.690000E+03	2.077425E-16	4.011293E-18
6.700000E+03	2.076227E-16	4.020020E-18
6.710000E+03	2.074542E-16	4.027158E-18
6.720000E+03	2.072000E-16	4.031974E-18
6.730000E+03	2.068280E-16	4.033819E-18
6.740000E+03	2.063021E-16	4.031967E-18
6.750000E+03	2.055933E-16	4.025826E-18
6.760000E+03	2.046745E-16	4.014845E-18
6.770000E+03	2.035258E-16	3.998612E-18
6.780000E+03	2.021337E-16	3.976846E-18
6.790000E+03	2.004901E-16	3.949374E-18
6.800000E+03	1.986014E-16	3.916320E-18
6.810000E+03	1.964748E-16	3.877821E-18
6.820000E+03	1.941263E-16	3.834201E-18
6.830000E+03	1.915784E-16	3.785920E-18
6.840000E+03	1.888590E-16	3.733542E-18
6.850000E+03	1.860017E-16	3.677758E-18
6.860000E+03	1.830389E-16	3.619235E-18
6.870000E+03	1.800068E-16	3.558721E-18
6.880000E+03	1.769452E-16	3.497034E-18
6.890000E+03	1.738901E-16	3.434919E-18
6.900000E+03	1.708815E-16	3.373201E-18
6.910000E+03	1.679563E-16	3.312635E-18
6.920000E+03	1.651479E-16	3.253911E-18
6.930000E+03	1.624903E-16	3.197722E-18
6.940000E+03	1.600199E-16	3.144802E-18
6.950000E+03	1.577633E-16	3.095692E-18
6.960000E+03	1.557524E-16	3.051022E-18
6.970000E+03	1.540130E-16	3.011295E-18
6.980000E+03	1.525729E-16	2.977052E-18
6.990000E+03	1.514581E-16	2.948780E-18
7.000000E+03	1.506858E-16	2.926788E-18
7.010000E+03	1.502746E-16	2.911408E-18
7.020000E+03	1.502347E-16	2.902794E-18
7.030000E+03	1.505763E-16	2.901092E-18
7.040000E+03	1.512951E-16	2.906166E-18
7.050000E+03	1.523812E-16	2.917764E-18
7.060000E+03	1.538152E-16	2.935451E-18
7.070000E+03	1.555666E-16	2.958582E-18
7.080000E+03	1.575951E-16	2.986326E-18
7.090000E+03	1.598532E-16	3.017731E-18
7.100000E+03	1.622869E-16	3.051730E-18
7.110000E+03	1.648407E-16	3.087245E-18
7.120000E+03	1.674549E-16	3.123132E-18
7.130000E+03	1.700760E-16	3.158385E-18
7.140000E+03	1.726551E-16	3.192105E-18
7.150000E+03	1.751529E-16	3.223581E-18
7.160000E+03	1.775355E-16	3.252222E-18
7.170000E+03	1.797828E-16	3.277703E-18
7.180000E+03	1.818794E-16	3.299793E-18
7.190000E+03	1.838243E-16	3.318533E-18
7.200000E+03	1.856227E-16	3.334077E-18
7.210000E+03	1.872835E-16	3.346648E-18
7.220000E+03	1.888232E-16	3.356601E-18
7.230000E+03	1.902670E-16	3.364447E-18
7.240000E+03	1.916333E-16	3.370567E-18
7.250000E+03	1.929492E-16	3.375489E-18
7.260000E+03	1.942401E-16	3.379705E-18
7.270000E+03	1.955299E-16	3.383674E-18
7.280000E+03	1.968390E-16	3.387793E-18
7.290000E+03	1.981811E-16	3.392329E-18
7.300000E+03	1.995703E-16	3.397561E-18
7.310000E+03	2.010037E-16	3.403475E-18
7.320000E+03	2.024728E-16	3.409969E-18
7.330000E+03	2.039612E-16	3.416814E-18
7.340000E+03	2.054551E-16	3.423829E-18
7.350000E+03	2.069285E-16	3.430644E-18
7.360000E+03	2.083523E-16	3.436847E-18
7.370000E+03	2.096946E-16	3.441994E-18
7.380000E+03	2.109104E-16	3.445437E-18
7.390000E+03	2.119624E-16	3.446668E-18
7.400000E+03	2.128023E-16	3.445012E-18
7.410000E+03	2.133897E-16	3.439933E-18
7.420000E+03	2.136753E-16	3.430760E-18
7.430000E+03	2.136221E-16	3.417025E-18
7.440000E+03	2.131995E-16	3.398364E-18
7.450000E+03	2.123760E-16	3.374395E-18
7.460000E+03	2.111353E-16	3.344972E-18
7.470000E+03	2.094703E-16	3.310080E-18
7.480000E+03	2.073838E-16	3.269851E-18
7.490000E+03	2.048781E-16	3.224387E-18
7.500000E+03	2.019708E-16	3.173998E-18
7.510000E+03	1.986804E-16	3.118989E-18
7.520000E+03	1.950341E-16	3.059773E-18
7.530000E+03	1.910696E-16	2.996912E-18
7.540000E+03	1.868286E-16	2.931011E-18
7.550000E+03	1.823775E-16	2.863049E-18
7.560000E+03	1.777851E-16	2.794030E-18
7.570000E+03	1.731242E-16	2.725010E-18
7.580000E+03	1.684701E-16	2.657056E-18
7.590000E+03	1.638911E-16	2.591110E-18
7.600000E+03	1.594478E-16	2.528009E-18
7.610000E+03	1.551991E-16	2.468580E-18
7.620000E+03	1.511922E-16	2.413486E-18
7.630000E+03	1.474688E-16	2.363325E-18
7.640000E+03	1.440630E-16	2.318591E-18
7.650000E+03	1.409875E-16	2.279464E-18
7.660000E+03	1.382324E-16	2.245764E-18
7.670000E+03	1.357872E-16	2.217314E-18
7.680000E+03	1.336338E-16	2.193825E-18
7.690000E+03	1.317562E-16	2.175043E-18
7.700000E+03	1.301409E-16	2.160757E-18
7.710000E+03	1.287764E-16	2.150794E-18
7.720000E+03	1.276519E-16	2.144999E-18
7.730000E+03	1.267598E-16	2.143268E-18
7.740000E+03	1.260890E-16	2.145443E-18
7.750000E+03	1.256300E-16	2.151393E-18
7.760000E+03	1.253721E-16	2.160967E-18
