#wls	flux	fluxerr
1.600000E+03	1.525255E-17	1.678799E-18
1.640000E+03	1.522718E-17	1.669970E-18
1.680000E+03	1.520771E-17	1.661649E-18
1.720000E+03	1.519431E-17	1.653843E-18
1.760000E+03	1.518712E-17	1.646559E-18
1.800000E+03	1.518910E-17	1.640104E-18
1.840000E+03	1.519768E-17	1.634185E-18
1.880000E+03	1.521581E-17	1.629109E-18
1.920000E+03	1.524376E-17	1.624883E-18
1.960000E+03	1.528175E-17	1.621514E-18
2.000000E+03	1.533008E-17	1.619015E-18
2.040000E+03	1.539180E-17	1.617686E-18
2.080000E+03	1.546725E-17	1.617533E-18
2.120000E+03	1.555680E-17	1.618570E-18
2.160000E+03	1.566358E-17	1.621090E-18
2.200000E+03	1.578536E-17	1.624828E-18
2.240000E+03	1.592807E-17	1.630355E-18
2.280000E+03	1.608958E-17	1.637412E-18
2.320000E+03	1.627325E-17	1.646293E-18
2.360000E+03	1.648246E-17	1.657287E-18
2.400000E+03	1.671803E-17	1.670416E-18
2.440000E+03	1.698085E-17	1.685704E-18
2.480000E+03	1.727462E-17	1.703448E-18
2.520000E+03	1.760313E-17	1.723942E-18
2.560000E+03	1.796765E-17	1.747218E-18
2.600000E+03	1.837496E-17	1.773838E-18
2.640000E+03	1.882664E-17	1.803839E-18
2.680000E+03	1.932717E-17	1.837524E-18
2.720000E+03	1.988122E-17	1.875200E-18
2.760000E+03	2.049652E-17	1.917437E-18
2.800000E+03	2.117832E-17	1.964547E-18
2.840000E+03	2.192941E-17	2.016593E-18
2.880000E+03	2.276131E-17	2.074417E-18
2.920000E+03	2.368328E-17	2.138610E-18
2.960000E+03	2.470509E-17	2.209770E-18
3.000000E+03	2.583424E-17	2.288251E-18
3.010000E+03	2.613390E-17	2.309028E-18
3.020000E+03	2.644211E-17	2.330398E-18
3.030000E+03	2.675899E-17	2.352366E-18
3.040000E+03	2.708464E-17	2.374931E-18
3.050000E+03	2.741623E-17	2.397840E-18
3.060000E+03	2.775972E-17	2.421609E-18
3.070000E+03	2.810932E-17	2.445723E-18
3.080000E+03	2.846810E-17	2.470445E-18
3.090000E+03	2.883915E-17	2.496032E-18
3.100000E+03	2.921662E-17	2.521974E-18
3.110000E+03	2.960661E-17	2.548785E-18
3.120000E+03	3.000623E-17	2.576212E-18
3.130000E+03	3.041563E-17	2.604256E-18
3.140000E+03	3.083492E-17	2.632920E-18
3.150000E+03	3.126726E-17	2.662464E-18
3.160000E+03	3.170976E-17	2.692633E-18
3.170000E+03	3.216255E-17	2.723429E-18
3.180000E+03	3.262883E-17	2.755112E-18
3.190000E+03	3.310876E-17	2.787685E-18
3.200000E+03	3.359941E-17	2.820892E-18
3.210000E+03	3.410402E-17	2.854994E-18
3.220000E+03	3.462277E-17	2.889993E-18
3.230000E+03	3.515581E-17	2.925891E-18
3.240000E+03	3.570019E-17	2.962430E-18
3.250000E+03	3.625919E-17	2.999873E-18
3.260000E+03	3.683614E-17	3.038480E-18
3.270000E+03	3.742492E-17	3.077733E-18
3.280000E+03	3.803203E-17	3.118155E-18
3.290000E+03	3.865446E-17	3.159484E-18
3.300000E+03	3.929563E-17	3.201984E-18
3.310000E+03	3.994927E-17	3.245132E-18
3.320000E+03	4.062523E-17	3.289712E-18
3.330000E+03	4.131402E-17	3.334939E-18
3.340000E+03	4.202552E-17	3.381597E-18
3.350000E+03	4.275343E-17	3.429160E-18
3.360000E+03	4.350120E-17	3.477889E-18
3.370000E+03	4.426899E-17	3.527780E-18
3.380000E+03	4.505699E-17	3.578830E-18
3.390000E+03	4.586538E-17	3.631034E-18
3.400000E+03	4.669766E-17	3.684650E-18
3.410000E+03	4.754729E-17	3.739142E-18
3.420000E+03	4.842112E-17	3.795032E-18
3.430000E+03	4.931933E-17	3.852311E-18
3.440000E+03	5.023865E-17	3.910703E-18
3.450000E+03	5.118260E-17	3.970461E-18
3.460000E+03	5.214784E-17	4.031304E-18
3.470000E+03	5.314136E-17	4.093751E-18
3.480000E+03	5.415630E-17	4.157250E-18
3.490000E+03	5.519966E-17	4.222315E-18
3.500000E+03	5.626798E-17	4.288657E-18
3.510000E+03	5.736127E-17	4.356252E-18
3.520000E+03	5.848300E-17	4.425341E-18
3.530000E+03	5.963316E-17	4.495895E-18
3.540000E+03	6.080809E-17	4.567612E-18
3.550000E+03	6.201122E-17	4.640727E-18
3.560000E+03	6.324240E-17	4.715200E-18
3.570000E+03	6.450142E-17	4.790989E-18
3.580000E+03	6.578802E-17	4.868049E-18
3.590000E+03	6.710554E-17	4.946599E-18
3.600000E+03	6.845002E-17	5.026317E-18
3.610000E+03	6.982100E-17	5.107146E-18
3.620000E+03	7.122538E-17	5.189561E-18
3.630000E+03	7.265530E-17	5.272959E-18
3.640000E+03	7.411383E-17	5.357538E-18
3.650000E+03	7.560403E-17	5.443489E-18
3.660000E+03	7.711772E-17	5.530195E-18
3.670000E+03	7.866156E-17	5.618107E-18
3.680000E+03	8.023466E-17	5.707133E-18
3.690000E+03	8.183229E-17	5.796909E-18
3.700000E+03	8.346090E-17	5.887864E-18
3.710000E+03	8.511179E-17	5.979357E-18
3.720000E+03	8.678748E-17	6.071540E-18
3.730000E+03	8.848659E-17	6.164292E-18
3.740000E+03	9.021146E-17	6.257752E-18
3.750000E+03	9.195669E-17	6.351520E-18
3.760000E+03	9.372441E-17	6.445722E-18
3.770000E+03	9.551282E-17	6.540209E-18
3.780000E+03	9.731615E-17	6.634568E-18
3.790000E+03	9.913996E-17	6.729160E-18
3.800000E+03	1.009783E-16	6.823557E-18
3.810000E+03	1.028288E-16	6.917592E-18
3.820000E+03	1.046890E-16	7.011085E-18
3.830000E+03	1.065601E-16	7.104095E-18
3.840000E+03	1.084357E-16	7.196194E-18
3.850000E+03	1.103166E-16	7.287419E-18
3.860000E+03	1.122037E-16	7.377835E-18
3.870000E+03	1.140861E-16	7.466708E-18
3.880000E+03	1.159643E-16	7.554086E-18
3.890000E+03	1.178349E-16	7.639737E-18
3.900000E+03	1.196943E-16	7.723445E-18
3.910000E+03	1.215426E-16	7.805222E-18
3.920000E+03	1.233721E-16	7.884580E-18
3.930000E+03	1.251787E-16	7.961284E-18
3.940000E+03	1.269624E-16	8.035343E-18
3.950000E+03	1.287150E-16	8.106272E-18
3.960000E+03	1.304361E-16	8.174067E-18
3.970000E+03	1.321214E-16	8.238494E-18
3.980000E+03	1.337629E-16	8.299090E-18
3.990000E+03	1.353598E-16	8.355851E-18
4.000000E+03	1.369046E-16	8.408348E-18
4.010000E+03	1.383966E-16	8.456594E-18
4.020000E+03	1.398320E-16	8.500413E-18
4.030000E+03	1.412033E-16	8.539402E-18
4.040000E+03	1.425107E-16	8.573637E-18
4.050000E+03	1.437441E-16	8.602572E-18
4.060000E+03	1.449113E-16	8.626750E-18
4.070000E+03	1.459995E-16	8.645480E-18
4.080000E+03	1.470141E-16	8.659145E-18
4.090000E+03	1.479468E-16	8.667348E-18
4.100000E+03	1.488040E-16	8.670533E-18
4.110000E+03	1.495790E-16	8.668391E-18
4.120000E+03	1.502727E-16	8.661060E-18
4.130000E+03	1.508899E-16	8.648884E-18
4.140000E+03	1.514264E-16	8.631712E-18
4.150000E+03	1.518913E-16	8.610140E-18
4.160000E+03	1.522822E-16	8.584100E-18
4.170000E+03	1.526003E-16	8.553742E-18
4.180000E+03	1.528570E-16	8.519766E-18
4.190000E+03	1.530516E-16	8.482209E-18
4.200000E+03	1.531905E-16	8.441482E-18
4.210000E+03	1.532806E-16	8.398019E-18
4.220000E+03	1.533261E-16	8.352104E-18
4.230000E+03	1.533349E-16	8.304214E-18
4.240000E+03	1.533121E-16	8.254662E-18
4.250000E+03	1.532633E-16	8.203788E-18
4.260000E+03	1.531972E-16	8.152082E-18
4.270000E+03	1.531226E-16	8.100029E-18
4.280000E+03	1.530429E-16	8.047833E-18
4.290000E+03	1.529670E-16	7.995961E-18
4.300000E+03	1.529039E-16	7.944887E-18
4.310000E+03	1.528546E-16	7.894658E-18
4.320000E+03	1.528305E-16	7.845855E-18
4.330000E+03	1.528350E-16	7.798630E-18
4.340000E+03	1.528764E-16	7.753392E-18
4.350000E+03	1.529580E-16	7.710275E-18
4.360000E+03	1.530849E-16	7.669513E-18
4.370000E+03	1.532600E-16	7.631209E-18
4.380000E+03	1.534926E-16	7.595786E-18
4.390000E+03	1.537797E-16	7.563063E-18
4.400000E+03	1.541275E-16	7.533298E-18
4.410000E+03	1.545369E-16	7.506481E-18
4.420000E+03	1.550103E-16	7.482696E-18
4.430000E+03	1.555454E-16	7.461775E-18
4.440000E+03	1.561450E-16	7.443815E-18
4.450000E+03	1.568076E-16	7.428690E-18
4.460000E+03	1.575344E-16	7.416421E-18
4.470000E+03	1.583262E-16	7.406999E-18
4.480000E+03	1.591827E-16	7.400370E-18
4.490000E+03	1.601051E-16	7.396536E-18
4.500000E+03	1.610893E-16	7.395275E-18
4.510000E+03	1.621365E-16	7.396602E-18
4.520000E+03	1.632412E-16	7.400227E-18
4.530000E+03	1.644009E-16	7.406005E-18
4.540000E+03	1.656103E-16	7.413673E-18
4.550000E+03	1.668632E-16	7.422929E-18
4.560000E+03	1.681550E-16	7.433554E-18
4.570000E+03	1.694783E-16	7.445204E-18
4.580000E+03	1.708247E-16	7.457520E-18
4.590000E+03	1.721880E-16	7.470221E-18
4.600000E+03	1.735588E-16	7.482920E-18
4.610000E+03	1.749258E-16	7.495149E-18
4.620000E+03	1.762837E-16	7.506705E-18
4.630000E+03	1.776229E-16	7.517212E-18
4.640000E+03	1.789339E-16	7.526313E-18
4.650000E+03	1.802074E-16	7.533668E-18
4.660000E+03	1.814371E-16	7.539059E-18
4.670000E+03	1.826166E-16	7.542290E-18
4.680000E+03	1.837364E-16	7.543035E-18
4.690000E+03	1.847945E-16	7.541268E-18
4.700000E+03	1.857870E-16	7.536916E-18
4.710000E+03	1.867056E-16	7.529709E-18
4.720000E+03	1.875556E-16	7.519937E-18
4.730000E+03	1.883308E-16	7.507423E-18
4.740000E+03	1.890330E-16	7.492319E-18
4.750000E+03	1.896653E-16	7.474816E-18
4.760000E+03	1.902277E-16	7.454985E-18
4.770000E+03	1.907237E-16	7.433029E-18
4.780000E+03	1.911534E-16	7.409016E-18
4.790000E+03	1.915249E-16	7.383318E-18
4.800000E+03	1.918468E-16	7.356330E-18
4.810000E+03	1.921294E-16	7.328484E-18
4.820000E+03	1.923812E-16	7.300148E-18
4.830000E+03	1.926136E-16	7.271789E-18
4.840000E+03	1.928343E-16	7.243727E-18
4.850000E+03	1.930534E-16	7.216356E-18
4.860000E+03	1.932812E-16	7.190049E-18
4.870000E+03	1.935264E-16	7.165117E-18
4.880000E+03	1.938019E-16	7.142016E-18
4.890000E+03	1.941160E-16	7.121023E-18
4.900000E+03	1.944808E-16	7.102548E-18
4.910000E+03	1.949035E-16	7.086824E-18
4.920000E+03	1.953924E-16	7.074108E-18
4.930000E+03	1.959568E-16	7.064697E-18
4.940000E+03	1.966008E-16	7.058697E-18
4.950000E+03	1.973314E-16	7.056315E-18
4.960000E+03	1.981523E-16	7.057631E-18
4.970000E+03	1.990658E-16	7.062681E-18
4.980000E+03	2.000731E-16	7.071458E-18
4.990000E+03	2.011759E-16	7.083980E-18
5.000000E+03	2.023729E-16	7.100151E-18
5.010000E+03	2.036615E-16	7.119841E-18
5.020000E+03	2.050404E-16	7.142956E-18
5.030000E+03	2.065006E-16	7.169152E-18
5.040000E+03	2.080436E-16	7.198439E-18
5.050000E+03	2.096613E-16	7.230502E-18
5.060000E+03	2.113474E-16	7.265099E-18
5.070000E+03	2.130980E-16	7.302061E-18
5.080000E+03	2.149041E-16	7.341058E-18
5.090000E+03	2.167619E-16	7.381932E-18
5.100000E+03	2.186650E-16	7.424450E-18
5.110000E+03	2.206104E-16	7.468483E-18
5.120000E+03	2.225905E-16	7.513762E-18
5.130000E+03	2.246031E-16	7.560190E-18
5.140000E+03	2.266419E-16	7.607544E-18
5.150000E+03	2.287057E-16	7.655769E-18
5.160000E+03	2.307916E-16	7.704755E-18
5.170000E+03	2.328972E-16	7.754403E-18
5.180000E+03	2.350227E-16	7.804716E-18
5.190000E+03	2.371613E-16	7.855448E-18
5.200000E+03	2.393159E-16	7.906692E-18
5.210000E+03	2.414795E-16	7.958197E-18
5.220000E+03	2.436545E-16	8.010039E-18
5.230000E+03	2.458381E-16	8.062112E-18
5.240000E+03	2.480218E-16	8.114130E-18
5.250000E+03	2.502063E-16	8.166104E-18
5.260000E+03	2.523839E-16	8.217776E-18
5.270000E+03	2.545482E-16	8.268936E-18
5.280000E+03	2.566944E-16	8.319419E-18
5.290000E+03	2.588087E-16	8.368779E-18
5.300000E+03	2.608840E-16	8.416783E-18
5.310000E+03	2.629119E-16	8.463160E-18
5.320000E+03	2.648720E-16	8.507260E-18
5.330000E+03	2.667592E-16	8.548925E-18
5.340000E+03	2.685537E-16	8.587534E-18
5.350000E+03	2.702436E-16	8.622711E-18
5.360000E+03	2.718135E-16	8.653990E-18
5.370000E+03	2.732436E-16	8.680750E-18
5.380000E+03	2.745260E-16	8.702771E-18
5.390000E+03	2.756516E-16	8.719779E-18
5.400000E+03	2.766079E-16	8.731395E-18
5.410000E+03	2.773969E-16	8.737701E-18
5.420000E+03	2.780076E-16	8.738370E-18
5.430000E+03	2.784375E-16	8.733339E-18
5.440000E+03	2.786844E-16	8.722560E-18
5.450000E+03	2.787463E-16	8.705993E-18
5.460000E+03	2.786215E-16	8.683603E-18
5.470000E+03	2.783085E-16	8.655369E-18
5.480000E+03	2.778118E-16	8.621450E-18
5.490000E+03	2.771280E-16	8.581770E-18
5.500000E+03	2.762599E-16	8.536437E-18
5.510000E+03	2.751971E-16	8.485159E-18
5.520000E+03	2.739442E-16	8.428105E-18
5.530000E+03	2.724904E-16	8.364971E-18
5.540000E+03	2.708372E-16	8.295843E-18
5.550000E+03	2.689882E-16	8.220856E-18
5.560000E+03	2.669400E-16	8.139951E-18
5.570000E+03	2.647027E-16	8.053464E-18
5.580000E+03	2.622854E-16	7.961710E-18
5.590000E+03	2.596993E-16	7.865067E-18
5.600000E+03	2.569531E-16	7.763829E-18
5.610000E+03	2.540678E-16	7.658664E-18
5.620000E+03	2.510587E-16	7.550067E-18
5.630000E+03	2.479483E-16	7.438741E-18
5.640000E+03	2.447561E-16	7.325294E-18
5.650000E+03	2.415078E-16	7.210517E-18
5.660000E+03	2.382255E-16	7.095085E-18
5.670000E+03	2.349369E-16	6.979836E-18
5.680000E+03	2.316653E-16	6.865471E-18
5.690000E+03	2.284411E-16	6.752890E-18
5.700000E+03	2.252851E-16	6.642701E-18
5.710000E+03	2.222260E-16	6.535747E-18
5.720000E+03	2.192825E-16	6.432564E-18
5.730000E+03	2.164807E-16	6.333895E-18
5.740000E+03	2.138379E-16	6.240220E-18
5.750000E+03	2.113737E-16	6.152089E-18
5.760000E+03	2.091009E-16	6.069841E-18
5.770000E+03	2.070320E-16	5.993804E-18
5.780000E+03	2.051788E-16	5.924278E-18
5.790000E+03	2.035461E-16	5.861364E-18
5.800000E+03	2.021396E-16	5.805188E-18
5.810000E+03	2.009606E-16	5.755744E-18
5.820000E+03	2.000052E-16	5.712879E-18
5.830000E+03	1.992705E-16	5.676472E-18
5.840000E+03	1.987489E-16	5.646269E-18
5.850000E+03	1.984283E-16	5.621888E-18
5.860000E+03	1.982956E-16	5.602929E-18
5.870000E+03	1.983394E-16	5.589042E-18
5.880000E+03	1.985380E-16	5.579595E-18
5.890000E+03	1.988719E-16	5.574018E-18
5.900000E+03	1.993213E-16	5.571750E-18
5.910000E+03	1.998617E-16	5.572095E-18
5.920000E+03	2.004711E-16	5.574445E-18
5.930000E+03	2.011211E-16	5.578017E-18
5.940000E+03	2.017913E-16	5.582259E-18
5.950000E+03	2.024558E-16	5.586474E-18
5.960000E+03	2.030918E-16	5.590057E-18
5.970000E+03	2.036759E-16	5.592403E-18
5.980000E+03	2.041914E-16	5.593080E-18
5.990000E+03	2.046200E-16	5.591632E-18
6.000000E+03	2.049508E-16	5.587802E-18
6.010000E+03	2.051706E-16	5.581277E-18
6.020000E+03	2.052761E-16	5.572014E-18
6.030000E+03	2.052643E-16	5.559970E-18
6.040000E+03	2.051384E-16	5.545284E-18
6.050000E+03	2.049036E-16	5.528137E-18
6.060000E+03	2.045736E-16	5.508938E-18
6.070000E+03	2.041612E-16	5.488069E-18
6.080000E+03	2.036828E-16	5.466005E-18
6.090000E+03	2.031595E-16	5.443343E-18
6.100000E+03	2.026125E-16	5.420675E-18
6.110000E+03	2.020668E-16	5.398691E-18
6.120000E+03	2.015478E-16	5.378094E-18
6.130000E+03	2.010772E-16	5.359477E-18
6.140000E+03	2.006822E-16	5.343581E-18
6.150000E+03	2.003866E-16	5.331052E-18
6.160000E+03	2.002080E-16	5.322373E-18
6.170000E+03	2.001667E-16	5.318100E-18
6.180000E+03	2.002778E-16	5.318648E-18
6.190000E+03	2.005488E-16	5.324232E-18
6.200000E+03	2.009876E-16	5.335073E-18
6.210000E+03	2.015897E-16	5.351070E-18
6.220000E+03	2.023419E-16	5.371872E-18
6.230000E+03	2.032259E-16	5.396976E-18
6.240000E+03	2.042230E-16	5.425875E-18
6.250000E+03	2.053170E-16	5.458121E-18
6.260000E+03	2.064968E-16	5.493405E-18
6.270000E+03	2.077521E-16	5.531447E-18
6.280000E+03	2.090743E-16	5.571998E-18
6.290000E+03	2.104539E-16	5.614797E-18
6.300000E+03	2.118754E-16	5.659416E-18
6.310000E+03	2.133270E-16	5.705519E-18
6.320000E+03	2.147908E-16	5.752616E-18
6.330000E+03	2.162552E-16	5.800374E-18
6.340000E+03	2.177012E-16	5.848264E-18
6.350000E+03	2.191120E-16	5.895810E-18
6.360000E+03	2.204712E-16	5.942539E-18
6.370000E+03	2.217650E-16	5.988047E-18
6.380000E+03	2.229735E-16	6.031766E-18
6.390000E+03	2.240872E-16	6.073401E-18
6.400000E+03	2.250916E-16	6.112512E-18
6.410000E+03	2.259755E-16	6.148752E-18
6.420000E+03	2.267297E-16	6.181828E-18
6.430000E+03	2.273447E-16	6.211426E-18
6.440000E+03	2.278150E-16	6.237344E-18
6.450000E+03	2.281369E-16	6.259433E-18
6.460000E+03	2.283089E-16	6.277592E-18
6.470000E+03	2.283307E-16	6.291761E-18
6.480000E+03	2.282014E-16	6.301858E-18
6.490000E+03	2.279233E-16	6.307898E-18
6.500000E+03	2.274979E-16	6.309866E-18
6.510000E+03	2.269345E-16	6.307966E-18
6.520000E+03	2.262380E-16	6.302289E-18
6.530000E+03	2.254093E-16	6.292809E-18
6.540000E+03	2.244612E-16	6.279840E-18
6.550000E+03	2.233970E-16	6.263431E-18
6.560000E+03	2.222271E-16	6.243829E-18
6.570000E+03	2.209543E-16	6.221083E-18
6.580000E+03	2.195861E-16	6.195362E-18
6.590000E+03	2.181294E-16	6.166831E-18
6.600000E+03	2.165884E-16	6.135576E-18
6.610000E+03	2.149688E-16	6.101735E-18
6.620000E+03	2.132741E-16	6.065380E-18
6.630000E+03	2.115094E-16	6.026630E-18
6.640000E+03	2.096769E-16	5.985533E-18
6.650000E+03	2.077811E-16	5.942198E-18
6.660000E+03	2.058218E-16	5.896599E-18
6.670000E+03	2.038051E-16	5.848898E-18
6.680000E+03	2.017309E-16	5.799079E-18
6.690000E+03	1.996031E-16	5.747245E-18
6.700000E+03	1.974262E-16	5.693519E-18
6.710000E+03	1.951983E-16	5.637836E-18
6.720000E+03	1.929293E-16	5.580476E-18
6.730000E+03	1.906182E-16	5.521408E-18
6.740000E+03	1.882716E-16	5.460827E-18
6.750000E+03	1.858967E-16	5.398936E-18
6.760000E+03	1.834974E-16	5.335854E-18
6.770000E+03	1.810803E-16	5.271776E-18
6.780000E+03	1.786554E-16	5.207000E-18
6.790000E+03	1.762330E-16	5.141834E-18
6.800000E+03	1.738181E-16	5.076437E-18
6.810000E+03	1.714232E-16	5.011176E-18
6.820000E+03	1.690605E-16	4.946429E-18
6.830000E+03	1.667394E-16	4.882477E-18
6.840000E+03	1.644713E-16	4.819676E-18
6.850000E+03	1.622699E-16	4.758437E-18
6.860000E+03	1.601452E-16	4.699069E-18
6.870000E+03	1.581128E-16	4.642050E-18
6.880000E+03	1.561788E-16	4.587570E-18
6.890000E+03	1.543601E-16	4.536146E-18
6.900000E+03	1.526658E-16	4.488055E-18
6.910000E+03	1.511043E-16	4.443568E-18
6.920000E+03	1.496874E-16	4.403040E-18
6.930000E+03	1.484239E-16	4.366745E-18
6.940000E+03	1.473238E-16	4.334988E-18
6.950000E+03	1.463908E-16	4.307894E-18
6.960000E+03	1.456331E-16	4.285709E-18
6.970000E+03	1.450562E-16	4.268603E-18
6.980000E+03	1.446643E-16	4.256707E-18
6.990000E+03	1.444608E-16	4.250130E-18
7.000000E+03	1.444462E-16	4.248888E-18
7.010000E+03	1.446253E-16	4.253125E-18
7.020000E+03	1.449962E-16	4.262784E-18
7.030000E+03	1.455561E-16	4.277788E-18
7.040000E+03	1.463046E-16	4.298120E-18
7.050000E+03	1.472384E-16	4.323681E-18
7.060000E+03	1.483528E-16	4.354334E-18
7.070000E+03	1.496424E-16	4.389911E-18
7.080000E+03	1.510986E-16	4.430161E-18
7.090000E+03	1.527135E-16	4.474848E-18
7.100000E+03	1.544806E-16	4.523776E-18
7.110000E+03	1.563900E-16	4.576654E-18
7.120000E+03	1.584276E-16	4.633064E-18
7.130000E+03	1.605861E-16	4.692794E-18
7.140000E+03	1.628519E-16	4.755444E-18
7.150000E+03	1.652125E-16	4.820650E-18
7.160000E+03	1.676555E-16	4.888051E-18
7.170000E+03	1.701677E-16	4.957270E-18
7.180000E+03	1.727359E-16	5.027928E-18
7.190000E+03	1.753444E-16	5.099576E-18
7.200000E+03	1.779797E-16	5.171830E-18
7.210000E+03	1.806303E-16	5.244371E-18
7.220000E+03	1.832823E-16	5.316808E-18
7.230000E+03	1.859171E-16	5.388623E-18
7.240000E+03	1.885227E-16	5.459484E-18
7.250000E+03	1.910843E-16	5.528991E-18
7.260000E+03	1.935874E-16	5.596744E-18
7.270000E+03	1.960139E-16	5.662252E-18
7.280000E+03	1.983478E-16	5.725082E-18
7.290000E+03	2.005752E-16	5.784862E-18
7.300000E+03	2.026740E-16	5.840990E-18
7.310000E+03	2.046287E-16	5.893062E-18
7.320000E+03	2.064215E-16	5.940592E-18
7.330000E+03	2.080279E-16	5.982926E-18
7.340000E+03	2.094343E-16	6.019705E-18
7.350000E+03	2.106164E-16	6.050272E-18
7.360000E+03	2.115548E-16	6.074117E-18
7.370000E+03	2.122285E-16	6.090669E-18
7.380000E+03	2.126224E-16	6.099540E-18
7.390000E+03	2.127144E-16	6.100134E-18
7.400000E+03	2.124874E-16	6.091988E-18
7.410000E+03	2.119309E-16	6.074841E-18
7.420000E+03	2.110296E-16	6.048278E-18
7.430000E+03	2.097736E-16	6.012038E-18
7.440000E+03	2.081587E-16	5.966020E-18
7.450000E+03	2.061872E-16	5.910300E-18
7.460000E+03	2.038651E-16	5.845055E-18
7.470000E+03	2.011991E-16	5.770475E-18
7.480000E+03	1.982023E-16	5.686931E-18
7.490000E+03	1.948896E-16	5.594820E-18
7.500000E+03	1.912819E-16	5.494703E-18
7.510000E+03	1.873994E-16	5.387110E-18
7.520000E+03	1.832740E-16	5.272896E-18
7.530000E+03	1.789351E-16	5.152859E-18
7.540000E+03	1.744266E-16	5.028199E-18
7.550000E+03	1.698078E-16	4.900570E-18
7.560000E+03	1.651488E-16	4.771946E-18
7.570000E+03	1.605121E-16	4.644075E-18
7.580000E+03	1.559633E-16	4.518806E-18
7.590000E+03	1.515550E-16	4.397623E-18
7.600000E+03	1.473364E-16	4.281924E-18
7.610000E+03	1.433468E-16	4.172828E-18
7.620000E+03	1.396178E-16	4.071247E-18
7.630000E+03	1.361713E-16	3.977824E-18
7.640000E+03	1.330269E-16	3.893137E-18
7.650000E+03	1.301891E-16	3.817329E-18
7.660000E+03	1.276566E-16	3.750388E-18
7.670000E+03	1.254179E-16	3.691997E-18
7.680000E+03	1.234649E-16	3.641946E-18
7.690000E+03	1.217841E-16	3.599862E-18
7.700000E+03	1.203592E-16	3.565294E-18
7.710000E+03	1.191763E-16	3.537862E-18
7.720000E+03	1.182184E-16	3.517081E-18
7.730000E+03	1.174711E-16	3.502551E-18
7.740000E+03	1.169167E-16	3.493774E-18
7.750000E+03	1.165410E-16	3.490345E-18
7.760000E+03	1.163280E-16	3.491807E-18
