#wls	flux	fluxerr
1.600000E+03	1.713981E-17	1.823786E-18
1.640000E+03	1.701227E-17	1.804057E-18
1.680000E+03	1.688695E-17	1.784484E-18
1.720000E+03	1.677034E-17	1.765748E-18
1.760000E+03	1.665614E-17	1.747177E-18
1.800000E+03	1.655075E-17	1.729438E-18
1.840000E+03	1.645112E-17	1.712202E-18
1.880000E+03	1.636044E-17	1.695790E-18
1.920000E+03	1.627574E-17	1.679886E-18
1.960000E+03	1.620322E-17	1.665118E-18
2.000000E+03	1.613997E-17	1.651169E-18
2.040000E+03	1.608612E-17	1.638039E-18
2.080000E+03	1.604186E-17	1.625733E-18
2.120000E+03	1.601327E-17	1.614846E-18
2.160000E+03	1.599757E-17	1.605073E-18
2.200000E+03	1.599502E-17	1.596418E-18
2.240000E+03	1.601158E-17	1.589448E-18
2.280000E+03	1.604186E-17	1.583595E-18
2.320000E+03	1.609185E-17	1.579419E-18
2.360000E+03	1.616193E-17	1.576918E-18
2.400000E+03	1.625252E-17	1.576091E-18
2.440000E+03	1.636691E-17	1.577211E-18
2.480000E+03	1.650565E-17	1.580277E-18
2.520000E+03	1.667213E-17	1.585557E-18
2.560000E+03	1.686978E-17	1.593309E-18
2.600000E+03	1.709942E-17	1.603538E-18
2.640000E+03	1.736469E-17	1.616503E-18
2.680000E+03	1.766934E-17	1.632460E-18
2.720000E+03	1.801723E-17	1.651663E-18
2.760000E+03	1.841240E-17	1.674366E-18
2.800000E+03	1.886171E-17	1.701058E-18
2.840000E+03	1.936694E-17	1.731754E-18
2.880000E+03	1.993808E-17	1.767180E-18
2.920000E+03	2.058014E-17	1.807589E-18
2.960000E+03	2.130115E-17	1.853474E-18
3.000000E+03	2.210967E-17	1.905338E-18
3.010000E+03	2.232765E-17	1.919394E-18
3.020000E+03	2.255023E-17	1.933729E-18
3.030000E+03	2.278015E-17	1.948571E-18
3.040000E+03	2.301751E-17	1.963925E-18
3.050000E+03	2.325966E-17	1.979558E-18
3.060000E+03	2.351208E-17	1.995934E-18
3.070000E+03	2.376948E-17	2.012595E-18
3.080000E+03	2.403462E-17	2.029771E-18
3.090000E+03	2.431032E-17	2.047694E-18
3.100000E+03	2.459125E-17	2.065907E-18
3.110000E+03	2.488024E-17	2.084644E-18
3.120000E+03	2.518009E-17	2.104132E-18
3.130000E+03	2.548550E-17	2.123920E-18
3.140000E+03	2.580203E-17	2.144468E-18
3.150000E+03	2.612707E-17	2.165549E-18
3.160000E+03	2.646350E-17	2.187395E-18
3.170000E+03	2.680874E-17	2.209783E-18
3.180000E+03	2.716290E-17	2.232716E-18
3.190000E+03	2.752892E-17	2.256428E-18
3.200000E+03	2.790696E-17	2.280922E-18
3.210000E+03	2.829444E-17	2.305979E-18
3.220000E+03	2.869708E-17	2.332055E-18
3.230000E+03	2.910675E-17	2.358479E-18
3.240000E+03	2.953198E-17	2.385934E-18
3.250000E+03	2.997025E-17	2.414205E-18
3.260000E+03	3.042175E-17	2.443297E-18
3.270000E+03	3.088674E-17	2.473219E-18
3.280000E+03	3.136546E-17	2.503979E-18
3.290000E+03	3.186101E-17	2.535812E-18
3.300000E+03	3.236799E-17	2.568277E-18
3.310000E+03	3.289523E-17	2.602061E-18
3.320000E+03	3.343733E-17	2.636722E-18
3.330000E+03	3.399460E-17	2.672273E-18
3.340000E+03	3.457314E-17	2.709176E-18
3.350000E+03	3.516751E-17	2.746992E-18
3.360000E+03	3.578097E-17	2.785959E-18
3.370000E+03	3.641389E-17	2.826090E-18
3.380000E+03	3.706666E-17	2.867398E-18
3.390000E+03	3.773965E-17	2.909896E-18
3.400000E+03	3.843624E-17	2.953824E-18
3.410000E+03	3.915390E-17	2.998971E-18
3.420000E+03	3.989603E-17	3.045575E-18
3.430000E+03	4.066311E-17	3.093654E-18
3.440000E+03	4.145257E-17	3.142990E-18
3.450000E+03	4.226787E-17	3.193826E-18
3.460000E+03	4.310950E-17	3.246174E-18
3.470000E+03	4.397791E-17	3.300048E-18
3.480000E+03	4.487665E-17	3.355687E-18
3.490000E+03	4.580317E-17	3.412876E-18
3.500000E+03	4.675791E-17	3.471623E-18
3.510000E+03	4.774445E-17	3.532167E-18
3.520000E+03	4.876329E-17	3.594516E-18
3.530000E+03	4.981174E-17	3.658446E-18
3.540000E+03	5.089657E-17	3.724424E-18
3.550000E+03	5.201507E-17	3.792220E-18
3.560000E+03	5.316767E-17	3.861835E-18
3.570000E+03	5.435800E-17	3.933501E-18
3.580000E+03	5.558319E-17	4.006977E-18
3.590000E+03	5.684686E-17	4.082492E-18
3.600000E+03	5.814604E-17	4.159797E-18
3.610000E+03	5.948757E-17	4.239347E-18
3.620000E+03	6.086843E-17	4.320890E-18
3.630000E+03	6.228879E-17	4.404402E-18
3.640000E+03	6.374875E-17	4.489852E-18
3.650000E+03	6.525173E-17	4.577445E-18
3.660000E+03	6.679777E-17	4.667143E-18
3.670000E+03	6.838676E-17	4.758898E-18
3.680000E+03	7.001511E-17	4.852423E-18
3.690000E+03	7.168942E-17	4.948133E-18
3.700000E+03	7.340587E-17	5.045726E-18
3.710000E+03	7.516746E-17	5.145365E-18
3.720000E+03	7.697009E-17	5.246730E-18
3.730000E+03	7.881297E-17	5.349727E-18
3.740000E+03	8.070233E-17	5.454739E-18
3.750000E+03	8.263360E-17	5.561414E-18
3.760000E+03	8.460199E-17	5.669391E-18
3.770000E+03	8.661330E-17	5.779022E-18
3.780000E+03	8.866243E-17	5.889925E-18
3.790000E+03	9.075127E-17	6.002189E-18
3.800000E+03	9.287425E-17	6.115410E-18
3.810000E+03	9.503293E-17	6.229655E-18
3.820000E+03	9.722496E-17	6.344736E-18
3.830000E+03	9.944420E-17	6.460222E-18
3.840000E+03	1.016951E-16	6.576374E-18
3.850000E+03	1.039676E-16	6.692506E-18
3.860000E+03	1.062656E-16	6.808860E-18
3.870000E+03	1.085785E-16	6.924716E-18
3.880000E+03	1.109099E-16	7.040300E-18
3.890000E+03	1.132562E-16	7.155365E-18
3.900000E+03	1.156055E-16	7.269141E-18
3.910000E+03	1.179614E-16	7.381846E-18
3.920000E+03	1.203153E-16	7.492944E-18
3.930000E+03	1.226624E-16	7.602133E-18
3.940000E+03	1.250015E-16	7.709349E-18
3.950000E+03	1.273236E-16	7.814035E-18
3.960000E+03	1.296230E-16	7.915867E-18
3.970000E+03	1.318939E-16	8.014512E-18
3.980000E+03	1.341301E-16	8.109614E-18
3.990000E+03	1.363253E-16	8.200835E-18
4.000000E+03	1.384692E-16	8.287585E-18
4.010000E+03	1.405587E-16	8.369735E-18
4.020000E+03	1.425870E-16	8.446929E-18
4.030000E+03	1.445398E-16	8.518385E-18
4.040000E+03	1.464178E-16	8.584208E-18
4.050000E+03	1.482070E-16	8.643660E-18
4.060000E+03	1.499049E-16	8.696680E-18
4.070000E+03	1.515022E-16	8.742816E-18
4.080000E+03	1.529938E-16	8.781865E-18
4.090000E+03	1.543718E-16	8.813488E-18
4.100000E+03	1.556331E-16	8.837605E-18
4.110000E+03	1.567753E-16	8.854204E-18
4.120000E+03	1.577937E-16	8.863132E-18
4.130000E+03	1.586889E-16	8.864534E-18
4.140000E+03	1.594623E-16	8.858616E-18
4.150000E+03	1.601102E-16	8.845286E-18
4.160000E+03	1.606372E-16	8.824918E-18
4.170000E+03	1.610523E-16	8.798126E-18
4.180000E+03	1.613526E-16	8.764858E-18
4.190000E+03	1.615500E-16	8.725864E-18
4.200000E+03	1.616501E-16	8.681556E-18
4.210000E+03	1.616632E-16	8.632568E-18
4.220000E+03	1.615938E-16	8.579237E-18
4.230000E+03	1.614563E-16	8.522395E-18
4.240000E+03	1.612564E-16	8.462416E-18
4.250000E+03	1.610059E-16	8.399981E-18
4.260000E+03	1.607142E-16	8.335623E-18
4.270000E+03	1.603960E-16	8.270151E-18
4.280000E+03	1.600548E-16	8.203769E-18
4.290000E+03	1.597078E-16	8.137389E-18
4.300000E+03	1.593611E-16	8.071323E-18
4.310000E+03	1.590252E-16	8.006115E-18
4.320000E+03	1.587085E-16	7.942174E-18
4.330000E+03	1.584258E-16	7.880234E-18
4.340000E+03	1.581789E-16	7.820350E-18
4.350000E+03	1.579818E-16	7.763195E-18
4.360000E+03	1.578402E-16	7.709003E-18
4.370000E+03	1.577643E-16	7.658229E-18
4.380000E+03	1.577612E-16	7.611169E-18
4.390000E+03	1.578378E-16	7.568089E-18
4.400000E+03	1.580025E-16	7.529329E-18
4.410000E+03	1.582587E-16	7.494988E-18
4.420000E+03	1.586161E-16	7.465448E-18
4.430000E+03	1.590745E-16	7.440621E-18
4.440000E+03	1.596417E-16	7.420787E-18
4.450000E+03	1.603155E-16	7.405766E-18
4.460000E+03	1.611023E-16	7.395776E-18
4.470000E+03	1.620033E-16	7.390779E-18
4.480000E+03	1.630145E-16	7.390514E-18
4.490000E+03	1.641357E-16	7.394884E-18
4.500000E+03	1.653679E-16	7.403864E-18
4.510000E+03	1.667026E-16	7.416981E-18
4.520000E+03	1.681366E-16	7.434034E-18
4.530000E+03	1.696635E-16	7.454663E-18
4.540000E+03	1.712759E-16	7.478490E-18
4.550000E+03	1.729645E-16	7.505057E-18
4.560000E+03	1.747240E-16	7.534084E-18
4.570000E+03	1.765378E-16	7.564830E-18
4.580000E+03	1.783975E-16	7.596904E-18
4.590000E+03	1.802910E-16	7.629775E-18
4.600000E+03	1.822001E-16	7.662681E-18
4.610000E+03	1.841129E-16	7.695125E-18
4.620000E+03	1.860121E-16	7.726406E-18
4.630000E+03	1.878820E-16	7.755916E-18
4.640000E+03	1.897097E-16	7.783167E-18
4.650000E+03	1.914757E-16	7.807411E-18
4.660000E+03	1.931682E-16	7.828248E-18
4.670000E+03	1.947723E-16	7.845156E-18
4.680000E+03	1.962796E-16	7.857877E-18
4.690000E+03	1.976788E-16	7.866063E-18
4.700000E+03	1.989633E-16	7.869549E-18
4.710000E+03	2.001265E-16	7.868181E-18
4.720000E+03	2.011643E-16	7.861904E-18
4.730000E+03	2.020796E-16	7.850938E-18
4.740000E+03	2.028727E-16	7.835399E-18
4.750000E+03	2.035437E-16	7.815395E-18
4.760000E+03	2.041001E-16	7.791312E-18
4.770000E+03	2.045423E-16	7.763257E-18
4.780000E+03	2.048789E-16	7.731641E-18
4.790000E+03	2.051183E-16	7.696872E-18
4.800000E+03	2.052719E-16	7.659445E-18
4.810000E+03	2.053538E-16	7.619954E-18
4.820000E+03	2.053856E-16	7.579253E-18
4.830000E+03	2.053866E-16	7.538092E-18
4.840000E+03	2.053824E-16	7.497431E-18
4.850000E+03	2.053966E-16	7.458148E-18
4.860000E+03	2.054523E-16	7.421067E-18
4.870000E+03	2.055694E-16	7.386873E-18
4.880000E+03	2.057617E-16	7.356033E-18
4.890000E+03	2.060482E-16	7.329179E-18
4.900000E+03	2.064376E-16	7.306568E-18
4.910000E+03	2.069415E-16	7.288558E-18
4.920000E+03	2.075680E-16	7.275375E-18
4.930000E+03	2.083280E-16	7.267342E-18
4.940000E+03	2.092240E-16	7.264487E-18
4.950000E+03	2.102608E-16	7.266913E-18
4.960000E+03	2.114389E-16	7.274563E-18
4.970000E+03	2.127584E-16	7.287371E-18
4.980000E+03	2.142125E-16	7.305025E-18
4.990000E+03	2.157956E-16	7.327275E-18
5.000000E+03	2.174996E-16	7.353778E-18
5.010000E+03	2.193063E-16	7.383863E-18
5.020000E+03	2.212037E-16	7.417081E-18
5.030000E+03	2.231701E-16	7.452662E-18
5.040000E+03	2.251863E-16	7.489928E-18
5.050000E+03	2.272289E-16	7.528083E-18
5.060000E+03	2.292713E-16	7.566230E-18
5.070000E+03	2.312945E-16	7.603737E-18
5.080000E+03	2.332716E-16	7.639716E-18
5.090000E+03	2.351854E-16	7.673622E-18
5.100000E+03	2.370231E-16	7.705046E-18
5.110000E+03	2.387696E-16	7.733515E-18
5.120000E+03	2.404250E-16	7.759053E-18
5.130000E+03	2.419883E-16	7.781648E-18
5.140000E+03	2.434662E-16	7.801532E-18
5.150000E+03	2.448734E-16	7.819186E-18
5.160000E+03	2.462230E-16	7.835040E-18
5.170000E+03	2.475362E-16	7.849769E-18
5.180000E+03	2.488330E-16	7.863998E-18
5.190000E+03	2.501308E-16	7.878267E-18
5.200000E+03	2.514511E-16	7.893238E-18
5.210000E+03	2.528113E-16	7.909429E-18
5.220000E+03	2.542236E-16	7.927190E-18
5.230000E+03	2.557051E-16	7.947026E-18
5.240000E+03	2.572621E-16	7.969096E-18
5.250000E+03	2.589006E-16	7.993546E-18
5.260000E+03	2.606236E-16	8.020428E-18
5.270000E+03	2.624335E-16	8.049778E-18
5.280000E+03	2.643245E-16	8.081380E-18
5.290000E+03	2.662909E-16	8.115018E-18
5.300000E+03	2.683294E-16	8.150561E-18
5.310000E+03	2.704233E-16	8.187465E-18
5.320000E+03	2.725587E-16	8.225286E-18
5.330000E+03	2.747249E-16	8.263675E-18
5.340000E+03	2.769011E-16	8.301986E-18
5.350000E+03	2.790672E-16	8.339606E-18
5.360000E+03	2.812025E-16	8.375909E-18
5.370000E+03	2.832885E-16	8.410344E-18
5.380000E+03	2.853024E-16	8.442240E-18
5.390000E+03	2.872270E-16	8.471098E-18
5.400000E+03	2.890500E-16	8.496570E-18
5.410000E+03	2.907572E-16	8.518253E-18
5.420000E+03	2.923315E-16	8.535665E-18
5.430000E+03	2.937621E-16	8.548517E-18
5.440000E+03	2.950360E-16	8.556454E-18
5.450000E+03	2.961405E-16	8.559144E-18
5.460000E+03	2.970603E-16	8.556176E-18
5.470000E+03	2.977866E-16	8.547343E-18
5.480000E+03	2.983079E-16	8.532357E-18
5.490000E+03	2.986126E-16	8.510940E-18
5.500000E+03	2.986897E-16	8.482834E-18
5.510000E+03	2.985278E-16	8.447774E-18
5.520000E+03	2.981155E-16	8.405505E-18
5.530000E+03	2.974409E-16	8.355767E-18
5.540000E+03	2.964924E-16	8.298305E-18
5.550000E+03	2.952549E-16	8.232783E-18
5.560000E+03	2.937201E-16	8.159058E-18
5.570000E+03	2.918746E-16	8.076856E-18
5.580000E+03	2.897100E-16	7.986044E-18
5.590000E+03	2.872268E-16	7.886741E-18
5.600000E+03	2.844150E-16	7.778783E-18
5.610000E+03	2.812818E-16	7.662477E-18
5.620000E+03	2.778408E-16	7.538308E-18
5.630000E+03	2.741073E-16	7.406800E-18
5.640000E+03	2.701047E-16	7.268691E-18
5.650000E+03	2.658702E-16	7.125081E-18
5.660000E+03	2.614455E-16	6.977176E-18
5.670000E+03	2.568768E-16	6.826281E-18
5.680000E+03	2.522181E-16	6.673892E-18
5.690000E+03	2.475297E-16	6.521643E-18
5.700000E+03	2.428668E-16	6.371009E-18
5.710000E+03	2.382921E-16	6.223637E-18
5.720000E+03	2.338646E-16	6.081050E-18
5.730000E+03	2.296389E-16	5.944626E-18
5.740000E+03	2.256701E-16	5.815732E-18
5.750000E+03	2.220022E-16	5.695427E-18
5.760000E+03	2.186832E-16	5.584847E-18
5.770000E+03	2.157467E-16	5.484741E-18
5.780000E+03	2.132267E-16	5.395853E-18
5.790000E+03	2.111471E-16	5.318659E-18
5.800000E+03	2.095298E-16	5.253568E-18
5.810000E+03	2.083840E-16	5.200669E-18
5.820000E+03	2.077205E-16	5.160082E-18
5.830000E+03	2.075353E-16	5.131565E-18
5.840000E+03	2.078231E-16	5.114840E-18
5.850000E+03	2.085671E-16	5.109357E-18
5.860000E+03	2.097468E-16	5.114482E-18
5.870000E+03	2.113288E-16	5.129290E-18
5.880000E+03	2.132720E-16	5.152675E-18
5.890000E+03	2.155324E-16	5.183496E-18
5.900000E+03	2.180497E-16	5.220238E-18
5.910000E+03	2.207623E-16	5.261389E-18
5.920000E+03	2.235997E-16	5.305257E-18
5.930000E+03	2.264815E-16	5.349945E-18
5.940000E+03	2.293321E-16	5.393713E-18
5.950000E+03	2.320680E-16	5.434663E-18
5.960000E+03	2.346086E-16	5.471004E-18
5.970000E+03	2.368796E-16	5.501122E-18
5.980000E+03	2.388061E-16	5.523417E-18
5.990000E+03	2.403298E-16	5.536696E-18
6.000000E+03	2.414041E-16	5.540054E-18
6.010000E+03	2.419890E-16	5.532743E-18
6.020000E+03	2.420665E-16	5.514532E-18
6.030000E+03	2.416346E-16	5.485538E-18
6.040000E+03	2.407021E-16	5.446120E-18
6.050000E+03	2.392971E-16	5.397062E-18
6.060000E+03	2.374596E-16	5.339388E-18
6.070000E+03	2.352387E-16	5.274311E-18
6.080000E+03	2.327031E-16	5.203453E-18
6.090000E+03	2.299170E-16	5.128313E-18
6.100000E+03	2.269591E-16	5.050687E-18
6.110000E+03	2.239062E-16	4.972305E-18
6.120000E+03	2.208374E-16	4.894927E-18
6.130000E+03	2.178283E-16	4.820221E-18
6.140000E+03	2.149549E-16	4.749848E-18
6.150000E+03	2.122840E-16	4.685256E-18
6.160000E+03	2.098779E-16	4.627794E-18
6.170000E+03	2.077909E-16	4.578625E-18
6.180000E+03	2.060615E-16	4.538543E-18
6.190000E+03	2.047271E-16	4.508315E-18
6.200000E+03	2.037969E-16	4.488093E-18
6.210000E+03	2.032718E-16	4.477848E-18
6.220000E+03	2.031179E-16	4.476791E-18
6.230000E+03	2.032956E-16	4.484019E-18
6.240000E+03	2.037598E-16	4.498511E-18
6.250000E+03	2.044629E-16	4.519201E-18
6.260000E+03	2.053668E-16	4.545225E-18
6.270000E+03	2.064331E-16	4.575715E-18
6.280000E+03	2.076265E-16	4.609877E-18
6.290000E+03	2.089130E-16	4.646933E-18
6.300000E+03	2.102571E-16	4.686073E-18
6.310000E+03	2.116264E-16	4.726546E-18
6.320000E+03	2.129893E-16	4.767620E-18
6.330000E+03	2.143158E-16	4.808581E-18
6.340000E+03	2.155770E-16	4.848744E-18
6.350000E+03	2.167446E-16	4.887417E-18
6.360000E+03	2.177990E-16	4.924110E-18
6.370000E+03	2.187198E-16	4.958299E-18
6.380000E+03	2.194855E-16	4.989432E-18
6.390000E+03	2.200900E-16	5.017300E-18
6.400000E+03	2.205220E-16	5.041575E-18
6.410000E+03	2.207794E-16	5.062133E-18
6.420000E+03	2.208615E-16	5.078885E-18
6.430000E+03	2.207761E-16	5.091933E-18
6.440000E+03	2.205275E-16	5.101304E-18
6.450000E+03	2.201276E-16	5.107204E-18
6.460000E+03	2.195928E-16	5.109944E-18
6.470000E+03	2.189369E-16	5.109784E-18
6.480000E+03	2.181750E-16	5.107014E-18
6.490000E+03	2.173272E-16	5.102055E-18
6.500000E+03	2.164073E-16	5.095179E-18
6.510000E+03	2.154333E-16	5.086770E-18
6.520000E+03	2.144208E-16	5.077157E-18
6.530000E+03	2.133801E-16	5.066550E-18
6.540000E+03	2.123297E-16	5.055358E-18
6.550000E+03	2.112758E-16	5.043708E-18
6.560000E+03	2.102350E-16	5.031968E-18
6.570000E+03	2.092133E-16	5.020271E-18
6.580000E+03	2.082176E-16	5.008763E-18
6.590000E+03	2.072596E-16	4.997715E-18
6.600000E+03	2.063401E-16	4.987136E-18
6.610000E+03	2.054642E-16	4.977138E-18
6.620000E+03	2.046273E-16	4.967608E-18
6.630000E+03	2.038315E-16	4.958586E-18
6.640000E+03	2.030691E-16	4.949878E-18
6.650000E+03	2.023316E-16	4.941268E-18
6.660000E+03	2.016103E-16	4.932541E-18
6.670000E+03	2.008874E-16	4.923248E-18
6.680000E+03	2.001519E-16	4.913113E-18
6.690000E+03	1.993868E-16	4.901710E-18
6.700000E+03	1.985721E-16	4.888535E-18
6.710000E+03	1.976916E-16	4.873178E-18
6.720000E+03	1.967270E-16	4.855178E-18
6.730000E+03	1.956612E-16	4.834101E-18
6.740000E+03	1.944802E-16	4.809599E-18
6.750000E+03	1.931666E-16	4.781227E-18
6.760000E+03	1.917161E-16	4.748878E-18
6.770000E+03	1.901171E-16	4.712263E-18
6.780000E+03	1.883687E-16	4.671355E-18
6.790000E+03	1.864693E-16	4.626124E-18
6.800000E+03	1.844304E-16	4.576863E-18
6.810000E+03	1.822547E-16	4.523645E-18
6.820000E+03	1.799595E-16	4.466917E-18
6.830000E+03	1.775592E-16	4.407054E-18
6.840000E+03	1.750777E-16	4.344668E-18
6.850000E+03	1.725330E-16	4.280227E-18
6.860000E+03	1.699512E-16	4.214406E-18
6.870000E+03	1.673581E-16	4.147862E-18
6.880000E+03	1.647800E-16	4.081274E-18
6.890000E+03	1.622437E-16	4.015330E-18
6.900000E+03	1.597778E-16	3.950757E-18
6.910000E+03	1.574064E-16	3.888170E-18
6.920000E+03	1.551566E-16	3.828254E-18
6.930000E+03	1.530506E-16	3.771568E-18
6.940000E+03	1.511128E-16	3.718722E-18
6.950000E+03	1.493640E-16	3.670232E-18
6.960000E+03	1.478215E-16	3.626519E-18
6.970000E+03	1.465041E-16	3.588037E-18
6.980000E+03	1.454262E-16	3.555130E-18
6.990000E+03	1.446001E-16	3.528077E-18
7.000000E+03	1.440348E-16	3.507078E-18
7.010000E+03	1.437365E-16	3.492251E-18
7.020000E+03	1.437075E-16	3.483626E-18
7.030000E+03	1.439464E-16	3.481131E-18
7.040000E+03	1.444482E-16	3.484604E-18
7.050000E+03	1.452031E-16	3.493770E-18
7.060000E+03	1.461992E-16	3.508302E-18
7.070000E+03	1.474151E-16	3.527642E-18
7.080000E+03	1.488324E-16	3.551315E-18
7.090000E+03	1.504246E-16	3.578651E-18
7.100000E+03	1.521641E-16	3.608960E-18
7.110000E+03	1.540235E-16	3.641568E-18
7.120000E+03	1.559709E-16	3.675700E-18
7.130000E+03	1.579767E-16	3.710649E-18
7.140000E+03	1.600149E-16	3.745795E-18
7.150000E+03	1.620574E-16	3.780488E-18
7.160000E+03	1.640836E-16	3.814253E-18
7.170000E+03	1.660725E-16	3.846622E-18
7.180000E+03	1.680108E-16	3.877313E-18
7.190000E+03	1.698882E-16	3.906114E-18
7.200000E+03	1.716955E-16	3.932851E-18
7.210000E+03	1.734342E-16	3.957592E-18
7.220000E+03	1.750998E-16	3.980279E-18
7.230000E+03	1.766977E-16	4.001072E-18
7.240000E+03	1.782322E-16	4.020117E-18
7.250000E+03	1.797116E-16	4.037638E-18
7.260000E+03	1.811390E-16	4.053754E-18
7.270000E+03	1.825197E-16	4.068625E-18
7.280000E+03	1.838571E-16	4.082374E-18
7.290000E+03	1.851575E-16	4.095183E-18
7.300000E+03	1.864146E-16	4.106961E-18
7.310000E+03	1.876259E-16	4.117706E-18
7.320000E+03	1.887808E-16	4.127231E-18
7.330000E+03	1.898722E-16	4.135442E-18
7.340000E+03	1.908796E-16	4.141952E-18
7.350000E+03	1.917867E-16	4.146471E-18
7.360000E+03	1.925714E-16	4.148593E-18
7.370000E+03	1.932069E-16	4.147817E-18
7.380000E+03	1.936693E-16	4.143710E-18
7.390000E+03	1.939263E-16	4.135668E-18
7.400000E+03	1.939504E-16	4.123191E-18
7.410000E+03	1.937177E-16	4.105865E-18
7.420000E+03	1.931959E-16	4.083097E-18
7.430000E+03	1.923661E-16	4.054577E-18
7.440000E+03	1.912108E-16	4.020029E-18
7.450000E+03	1.897204E-16	3.979328E-18
7.460000E+03	1.878853E-16	3.932351E-18
7.470000E+03	1.857077E-16	3.879205E-18
7.480000E+03	1.831932E-16	3.820063E-18
7.490000E+03	1.803572E-16	3.755283E-18
7.500000E+03	1.772168E-16	3.685241E-18
7.510000E+03	1.738012E-16	3.610548E-18
7.520000E+03	1.701410E-16	3.531832E-18
7.530000E+03	1.662780E-16	3.449938E-18
7.540000E+03	1.622579E-16	3.365779E-18
7.550000E+03	1.581284E-16	3.280305E-18
7.560000E+03	1.539501E-16	3.194717E-18
7.570000E+03	1.497781E-16	3.110098E-18
7.580000E+03	1.456682E-16	3.027512E-18
7.590000E+03	1.416739E-16	2.947972E-18
7.600000E+03	1.378424E-16	2.872378E-18
7.610000E+03	1.342183E-16	2.801583E-18
7.620000E+03	1.308414E-16	2.736355E-18
7.630000E+03	1.277428E-16	2.677295E-18
7.640000E+03	1.249407E-16	2.624753E-18
7.650000E+03	1.224454E-16	2.578924E-18
7.660000E+03	1.202515E-16	2.539679E-18
7.670000E+03	1.183484E-16	2.506794E-18
7.680000E+03	1.167182E-16	2.479891E-18
7.690000E+03	1.153446E-16	2.458634E-18
7.700000E+03	1.142151E-16	2.442764E-18
7.710000E+03	1.133110E-16	2.431898E-18
7.720000E+03	1.126191E-16	2.425766E-18
7.730000E+03	1.121252E-16	2.424079E-18
7.740000E+03	1.118160E-16	2.426567E-18
7.750000E+03	1.116783E-16	2.432959E-18
7.760000E+03	1.116974E-16	2.442953E-18
