#wls	flux	fluxerr
1.600000E+03	1.524894E-17	1.482272E-18
1.640000E+03	1.530904E-17	1.484323E-18
1.680000E+03	1.537394E-17	1.486713E-18
1.720000E+03	1.544670E-17	1.489731E-18
1.760000E+03	1.553034E-17	1.493658E-18
1.800000E+03	1.562244E-17	1.498248E-18
1.840000E+03	1.572611E-17	1.503791E-18
1.880000E+03	1.584173E-17	1.510305E-18
1.920000E+03	1.596693E-17	1.517554E-18
1.960000E+03	1.610776E-17	1.526096E-18
2.000000E+03	1.626192E-17	1.535694E-18
2.040000E+03	1.643275E-17	1.546647E-18
2.080000E+03	1.662089E-17	1.558991E-18
2.120000E+03	1.682982E-17	1.573030E-18
2.160000E+03	1.705460E-17	1.588276E-18
2.200000E+03	1.730457E-17	1.605571E-18
2.240000E+03	1.757778E-17	1.624701E-18
2.280000E+03	1.787809E-17	1.645988E-18
2.320000E+03	1.820367E-17	1.669226E-18
2.360000E+03	1.856443E-17	1.695281E-18
2.400000E+03	1.895589E-17	1.723694E-18
2.440000E+03	1.938534E-17	1.755077E-18
2.480000E+03	1.985442E-17	1.789521E-18
2.520000E+03	2.036488E-17	1.827118E-18
2.560000E+03	2.092770E-17	1.868782E-18
2.600000E+03	2.153905E-17	1.914090E-18
2.640000E+03	2.221046E-17	1.963979E-18
2.680000E+03	2.294153E-17	2.018314E-18
2.720000E+03	2.374453E-17	2.078066E-18
2.760000E+03	2.462278E-17	2.143400E-18
2.800000E+03	2.558303E-17	2.214767E-18
2.840000E+03	2.663572E-17	2.292919E-18
2.880000E+03	2.778517E-17	2.378059E-18
2.920000E+03	2.904941E-17	2.471541E-18
2.960000E+03	3.043379E-17	2.573604E-18
3.000000E+03	3.195081E-17	2.685069E-18
3.010000E+03	3.235117E-17	2.714407E-18
3.020000E+03	3.276225E-17	2.744515E-18
3.030000E+03	3.318418E-17	2.775401E-18
3.040000E+03	3.361355E-17	2.806774E-18
3.050000E+03	3.405398E-17	2.838931E-18
3.060000E+03	3.450557E-17	2.871877E-18
3.070000E+03	3.496848E-17	2.905618E-18
3.080000E+03	3.543921E-17	2.939860E-18
3.090000E+03	3.592504E-17	2.975200E-18
3.100000E+03	3.641893E-17	3.011049E-18
3.110000E+03	3.692456E-17	3.047707E-18
3.120000E+03	3.744205E-17	3.085179E-18
3.130000E+03	3.797518E-17	3.123769E-18
3.140000E+03	3.851678E-17	3.162880E-18
3.150000E+03	3.907427E-17	3.203116E-18
3.160000E+03	3.964041E-17	3.243877E-18
3.170000E+03	4.022270E-17	3.285772E-18
3.180000E+03	4.082130E-17	3.328804E-18
3.190000E+03	4.142886E-17	3.372368E-18
3.200000E+03	4.205297E-17	3.417075E-18
3.210000E+03	4.269378E-17	3.462929E-18
3.220000E+03	4.334762E-17	3.509625E-18
3.230000E+03	4.401459E-17	3.557163E-18
3.240000E+03	4.469860E-17	3.605853E-18
3.250000E+03	4.539979E-17	3.655695E-18
3.260000E+03	4.611440E-17	3.706381E-18
3.270000E+03	4.685028E-17	3.758531E-18
3.280000E+03	4.759977E-17	3.811522E-18
3.290000E+03	4.836685E-17	3.865664E-18
3.300000E+03	4.915160E-17	3.920955E-18
3.310000E+03	4.995411E-17	3.977391E-18
3.320000E+03	5.077445E-17	4.034970E-18
3.330000E+03	5.161267E-17	4.093685E-18
3.340000E+03	5.247283E-17	4.153849E-18
3.350000E+03	5.334696E-17	4.214820E-18
3.360000E+03	5.424311E-17	4.277225E-18
3.370000E+03	5.516135E-17	4.341056E-18
3.380000E+03	5.609761E-17	4.405984E-18
3.390000E+03	5.705598E-17	4.472318E-18
3.400000E+03	5.803232E-17	4.539723E-18
3.410000E+03	5.903070E-17	4.608506E-18
3.420000E+03	6.005107E-17	4.678651E-18
3.430000E+03	6.109338E-17	4.750141E-18
3.440000E+03	6.215749E-17	4.822955E-18
3.450000E+03	6.324330E-17	4.897073E-18
3.460000E+03	6.435067E-17	4.972469E-18
3.470000E+03	6.547938E-17	5.049118E-18
3.480000E+03	6.663351E-17	5.127318E-18
3.490000E+03	6.780856E-17	5.206711E-18
3.500000E+03	6.900425E-17	5.287264E-18
3.510000E+03	7.022886E-17	5.369596E-18
3.520000E+03	7.146916E-17	5.452684E-18
3.530000E+03	7.273770E-17	5.537473E-18
3.540000E+03	7.402978E-17	5.623589E-18
3.550000E+03	7.534058E-17	5.710654E-18
3.560000E+03	7.667831E-17	5.799276E-18
3.570000E+03	7.803808E-17	5.889073E-18
3.580000E+03	7.941928E-17	5.979984E-18
3.590000E+03	8.082124E-17	6.071947E-18
3.600000E+03	8.224770E-17	6.165230E-18
3.610000E+03	8.369794E-17	6.259763E-18
3.620000E+03	8.516669E-17	6.355140E-18
3.630000E+03	8.665755E-17	6.451618E-18
3.640000E+03	8.816960E-17	6.549113E-18
3.650000E+03	8.970184E-17	6.647541E-18
3.660000E+03	9.125326E-17	6.746813E-18
3.670000E+03	9.282273E-17	6.846833E-18
3.680000E+03	9.441359E-17	6.947839E-18
3.690000E+03	9.602011E-17	7.049392E-18
3.700000E+03	9.764549E-17	7.151721E-18
3.710000E+03	9.928385E-17	7.254382E-18
3.720000E+03	1.009383E-16	7.357590E-18
3.730000E+03	1.026119E-16	7.461564E-18
3.740000E+03	1.042938E-16	7.565507E-18
3.750000E+03	1.059873E-16	7.669640E-18
3.760000E+03	1.076904E-16	7.773816E-18
3.770000E+03	1.094062E-16	7.878247E-18
3.780000E+03	1.111280E-16	7.982454E-18
3.790000E+03	1.128586E-16	8.086627E-18
3.800000E+03	1.145916E-16	8.190306E-18
3.810000E+03	1.163295E-16	8.293660E-18
3.820000E+03	1.180705E-16	8.396556E-18
3.830000E+03	1.198123E-16	8.498826E-18
3.840000E+03	1.215528E-16	8.600334E-18
3.850000E+03	1.232900E-16	8.700927E-18
3.860000E+03	1.250262E-16	8.800764E-18
3.870000E+03	1.267501E-16	8.899063E-18
3.880000E+03	1.284686E-16	8.996303E-18
3.890000E+03	1.301795E-16	9.092331E-18
3.900000E+03	1.318758E-16	9.186671E-18
3.910000E+03	1.335600E-16	9.279497E-18
3.920000E+03	1.352250E-16	9.370326E-18
3.930000E+03	1.368775E-16	9.459634E-18
3.940000E+03	1.385061E-16	9.546634E-18
3.950000E+03	1.401127E-16	9.631474E-18
3.960000E+03	1.416902E-16	9.713676E-18
3.970000E+03	1.432440E-16	9.793633E-18
3.980000E+03	1.447661E-16	9.870806E-18
3.990000E+03	1.462483E-16	9.944655E-18
4.000000E+03	1.476944E-16	1.001546E-17
4.010000E+03	1.490954E-16	1.008263E-17
4.020000E+03	1.504421E-16	1.014559E-17
4.030000E+03	1.517377E-16	1.020455E-17
4.040000E+03	1.529689E-16	1.025868E-17
4.050000E+03	1.541349E-16	1.030795E-17
4.060000E+03	1.552310E-16	1.035208E-17
4.070000E+03	1.562531E-16	1.039085E-17
4.080000E+03	1.571932E-16	1.042376E-17
4.090000E+03	1.580484E-16	1.045068E-17
4.100000E+03	1.588201E-16	1.047173E-17
4.110000E+03	1.595029E-16	1.048663E-17
4.120000E+03	1.600998E-16	1.049561E-17
4.130000E+03	1.606002E-16	1.049803E-17
4.140000E+03	1.610168E-16	1.049479E-17
4.150000E+03	1.613450E-16	1.048562E-17
4.160000E+03	1.615889E-16	1.047084E-17
4.170000E+03	1.617534E-16	1.045083E-17
4.180000E+03	1.618407E-16	1.042577E-17
4.190000E+03	1.618576E-16	1.039614E-17
4.200000E+03	1.618146E-16	1.036267E-17
4.210000E+03	1.617126E-16	1.032544E-17
4.220000E+03	1.615563E-16	1.028479E-17
4.230000E+03	1.613608E-16	1.024171E-17
4.240000E+03	1.611249E-16	1.019615E-17
4.250000E+03	1.608609E-16	1.014891E-17
4.260000E+03	1.605750E-16	1.010040E-17
4.270000E+03	1.602766E-16	1.005123E-17
4.280000E+03	1.599726E-16	1.000182E-17
4.290000E+03	1.596699E-16	9.952640E-18
4.300000E+03	1.593759E-16	9.904126E-18
4.310000E+03	1.591032E-16	9.857060E-18
4.320000E+03	1.588587E-16	9.811866E-18
4.330000E+03	1.586460E-16	9.768750E-18
4.340000E+03	1.584743E-16	9.728260E-18
4.350000E+03	1.583494E-16	9.690730E-18
4.360000E+03	1.582794E-16	9.656634E-18
4.370000E+03	1.582693E-16	9.626243E-18
4.380000E+03	1.583263E-16	9.599965E-18
4.390000E+03	1.584523E-16	9.577884E-18
4.400000E+03	1.586515E-16	9.560210E-18
4.410000E+03	1.589351E-16	9.547586E-18
4.420000E+03	1.592995E-16	9.539751E-18
4.430000E+03	1.597553E-16	9.537291E-18
4.440000E+03	1.603030E-16	9.540190E-18
4.450000E+03	1.609472E-16	9.548682E-18
4.460000E+03	1.616920E-16	9.562948E-18
4.470000E+03	1.625380E-16	9.582980E-18
4.480000E+03	1.634877E-16	9.608872E-18
4.490000E+03	1.645401E-16	9.640515E-18
4.500000E+03	1.656960E-16	9.677894E-18
4.510000E+03	1.669521E-16	9.720783E-18
4.520000E+03	1.683120E-16	9.769328E-18
4.530000E+03	1.697679E-16	9.823027E-18
4.540000E+03	1.713156E-16	9.881600E-18
4.550000E+03	1.729515E-16	9.944795E-18
4.560000E+03	1.746635E-16	1.001187E-17
4.570000E+03	1.764469E-16	1.008254E-17
4.580000E+03	1.782881E-16	1.015598E-17
4.590000E+03	1.801718E-16	1.023131E-17
4.600000E+03	1.820877E-16	1.030792E-17
4.610000E+03	1.840169E-16	1.038476E-17
4.620000E+03	1.859413E-16	1.046079E-17
4.630000E+03	1.878396E-16	1.053485E-17
4.640000E+03	1.896970E-16	1.060611E-17
4.650000E+03	1.914916E-16	1.067340E-17
4.660000E+03	1.932023E-16	1.073557E-17
4.670000E+03	1.948162E-16	1.079198E-17
4.680000E+03	1.963153E-16	1.084169E-17
4.690000E+03	1.976856E-16	1.088399E-17
4.700000E+03	1.989161E-16	1.091834E-17
4.710000E+03	1.999978E-16	1.094436E-17
4.720000E+03	2.009261E-16	1.096186E-17
4.730000E+03	2.016937E-16	1.097052E-17
4.740000E+03	2.022972E-16	1.097026E-17
4.750000E+03	2.027345E-16	1.096105E-17
4.760000E+03	2.030102E-16	1.094322E-17
4.770000E+03	2.031205E-16	1.091666E-17
4.780000E+03	2.030711E-16	1.088175E-17
4.790000E+03	2.028702E-16	1.083902E-17
4.800000E+03	2.025210E-16	1.078872E-17
4.810000E+03	2.020417E-16	1.073188E-17
4.820000E+03	2.014432E-16	1.066913E-17
4.830000E+03	2.007413E-16	1.060139E-17
4.840000E+03	1.999565E-16	1.052978E-17
4.850000E+03	1.991095E-16	1.045539E-17
4.860000E+03	1.982247E-16	1.037955E-17
4.870000E+03	1.973240E-16	1.030340E-17
4.880000E+03	1.964372E-16	1.022850E-17
4.890000E+03	1.955908E-16	1.015621E-17
4.900000E+03	1.948088E-16	1.008775E-17
4.910000E+03	1.941243E-16	1.002479E-17
4.920000E+03	1.935579E-16	9.968355E-18
4.930000E+03	1.931367E-16	9.919779E-18
4.940000E+03	1.928784E-16	9.879905E-18
4.950000E+03	1.928015E-16	9.849605E-18
4.960000E+03	1.929195E-16	9.829493E-18
4.970000E+03	1.932389E-16	9.819810E-18
4.980000E+03	1.937608E-16	9.820536E-18
4.990000E+03	1.944846E-16	9.831552E-18
5.000000E+03	1.954009E-16	9.852315E-18
5.010000E+03	1.965012E-16	9.882310E-18
5.020000E+03	1.977733E-16	9.920862E-18
5.030000E+03	1.991968E-16	9.966885E-18
5.040000E+03	2.007531E-16	1.001939E-17
5.050000E+03	2.024188E-16	1.007718E-17
5.060000E+03	2.041719E-16	1.013910E-17
5.070000E+03	2.059850E-16	1.020379E-17
5.080000E+03	2.078340E-16	1.027002E-17
5.090000E+03	2.096991E-16	1.033680E-17
5.100000E+03	2.115611E-16	1.040321E-17
5.110000E+03	2.134049E-16	1.046849E-17
5.120000E+03	2.152228E-16	1.053229E-17
5.130000E+03	2.170052E-16	1.059414E-17
5.140000E+03	2.187568E-16	1.065429E-17
5.150000E+03	2.204809E-16	1.071291E-17
5.160000E+03	2.221883E-16	1.077055E-17
5.170000E+03	2.238874E-16	1.082760E-17
5.180000E+03	2.255881E-16	1.088458E-17
5.190000E+03	2.273026E-16	1.094204E-17
5.200000E+03	2.290355E-16	1.100023E-17
5.210000E+03	2.307935E-16	1.105946E-17
5.220000E+03	2.325757E-16	1.111967E-17
5.230000E+03	2.343815E-16	1.118084E-17
5.240000E+03	2.362085E-16	1.124285E-17
5.250000E+03	2.380559E-16	1.130566E-17
5.260000E+03	2.399147E-16	1.136884E-17
5.270000E+03	2.417832E-16	1.143231E-17
5.280000E+03	2.436552E-16	1.149578E-17
5.290000E+03	2.455287E-16	1.155915E-17
5.300000E+03	2.473937E-16	1.162197E-17
5.310000E+03	2.492494E-16	1.168420E-17
5.320000E+03	2.510812E-16	1.174516E-17
5.330000E+03	2.528854E-16	1.180470E-17
5.340000E+03	2.546495E-16	1.186225E-17
5.350000E+03	2.563592E-16	1.191716E-17
5.360000E+03	2.580024E-16	1.196888E-17
5.370000E+03	2.595663E-16	1.201685E-17
5.380000E+03	2.610362E-16	1.206043E-17
5.390000E+03	2.624020E-16	1.209916E-17
5.400000E+03	2.636495E-16	1.213243E-17
5.410000E+03	2.647766E-16	1.216017E-17
5.420000E+03	2.657740E-16	1.218200E-17
5.430000E+03	2.666304E-16	1.219742E-17
5.440000E+03	2.673438E-16	1.220639E-17
5.450000E+03	2.679071E-16	1.220862E-17
5.460000E+03	2.683199E-16	1.220413E-17
5.470000E+03	2.685727E-16	1.219252E-17
5.480000E+03	2.686647E-16	1.217381E-17
5.490000E+03	2.685920E-16	1.214785E-17
5.500000E+03	2.683498E-16	1.211447E-17
5.510000E+03	2.679330E-16	1.207347E-17
5.520000E+03	2.673381E-16	1.202474E-17
5.530000E+03	2.665545E-16	1.196786E-17
5.540000E+03	2.655754E-16	1.190255E-17
5.550000E+03	2.643901E-16	1.182837E-17
5.560000E+03	2.629889E-16	1.174495E-17
5.570000E+03	2.613609E-16	1.165185E-17
5.580000E+03	2.594897E-16	1.154838E-17
5.590000E+03	2.573675E-16	1.143425E-17
5.600000E+03	2.549832E-16	1.130902E-17
5.610000E+03	2.523294E-16	1.117242E-17
5.620000E+03	2.494098E-16	1.102466E-17
5.630000E+03	2.462282E-16	1.086597E-17
5.640000E+03	2.427997E-16	1.069707E-17
5.650000E+03	2.391541E-16	1.051930E-17
5.660000E+03	2.353258E-16	1.033422E-17
5.670000E+03	2.313566E-16	1.014370E-17
5.680000E+03	2.272967E-16	9.949944E-18
5.690000E+03	2.231944E-16	9.755086E-18
5.700000E+03	2.191040E-16	9.561495E-18
5.710000E+03	2.150770E-16	9.371400E-18
5.720000E+03	2.111649E-16	9.187022E-18
5.730000E+03	2.074139E-16	9.010337E-18
5.740000E+03	2.038666E-16	8.843159E-18
5.750000E+03	2.005616E-16	8.687106E-18
5.760000E+03	1.975314E-16	8.543536E-18
5.770000E+03	1.948126E-16	8.413971E-18
5.780000E+03	1.924240E-16	8.299163E-18
5.790000E+03	1.903905E-16	8.200116E-18
5.800000E+03	1.887259E-16	8.117363E-18
5.810000E+03	1.874346E-16	8.051023E-18
5.820000E+03	1.865166E-16	8.001026E-18
5.830000E+03	1.859696E-16	7.967218E-18
5.840000E+03	1.857746E-16	7.948726E-18
5.850000E+03	1.859181E-16	7.944915E-18
5.860000E+03	1.863786E-16	7.954814E-18
5.870000E+03	1.871271E-16	7.977152E-18
5.880000E+03	1.881398E-16	8.010871E-18
5.890000E+03	1.893865E-16	8.054651E-18
5.900000E+03	1.908293E-16	8.106865E-18
5.910000E+03	1.924344E-16	8.166055E-18
5.920000E+03	1.941626E-16	8.230544E-18
5.930000E+03	1.959701E-16	8.298476E-18
5.940000E+03	1.978146E-16	8.368060E-18
5.950000E+03	1.996476E-16	8.437259E-18
5.960000E+03	2.014220E-16	8.504090E-18
5.970000E+03	2.030907E-16	8.566590E-18
5.980000E+03	2.046093E-16	8.622909E-18
5.990000E+03	2.059353E-16	8.671290E-18
6.000000E+03	2.070347E-16	8.710333E-18
6.010000E+03	2.078781E-16	8.738839E-18
6.020000E+03	2.084528E-16	8.756308E-18
6.030000E+03	2.087458E-16	8.762228E-18
6.040000E+03	2.087584E-16	8.756686E-18
6.050000E+03	2.084993E-16	8.740079E-18
6.060000E+03	2.079930E-16	8.713458E-18
6.070000E+03	2.072595E-16	8.677688E-18
6.080000E+03	2.063369E-16	8.634377E-18
6.090000E+03	2.052611E-16	8.585042E-18
6.100000E+03	2.040706E-16	8.531308E-18
6.110000E+03	2.028085E-16	8.474975E-18
6.120000E+03	2.015198E-16	8.417935E-18
6.130000E+03	2.002430E-16	8.361785E-18
6.140000E+03	1.990209E-16	8.308320E-18
6.150000E+03	1.978920E-16	8.259138E-18
6.160000E+03	1.968908E-16	8.215679E-18
6.170000E+03	1.960452E-16	8.179101E-18
6.180000E+03	1.953807E-16	8.150468E-18
6.190000E+03	1.949183E-16	8.130647E-18
6.200000E+03	1.946743E-16	8.120309E-18
6.210000E+03	1.946617E-16	8.119987E-18
6.220000E+03	1.948819E-16	8.129726E-18
6.230000E+03	1.953403E-16	8.149755E-18
6.240000E+03	1.960298E-16	8.179768E-18
6.250000E+03	1.969483E-16	8.219673E-18
6.260000E+03	1.980827E-16	8.268931E-18
6.270000E+03	1.994203E-16	8.327010E-18
6.280000E+03	2.009364E-16	8.392877E-18
6.290000E+03	2.026091E-16	8.465633E-18
6.300000E+03	2.044048E-16	8.543868E-18
6.310000E+03	2.062886E-16	8.626128E-18
6.320000E+03	2.082185E-16	8.710660E-18
6.330000E+03	2.101463E-16	8.795449E-18
6.340000E+03	2.120269E-16	8.878601E-18
6.350000E+03	2.138130E-16	8.958130E-18
6.360000E+03	2.154561E-16	9.031992E-18
6.370000E+03	2.169193E-16	9.098627E-18
6.380000E+03	2.181635E-16	9.156374E-18
6.390000E+03	2.191589E-16	9.203959E-18
6.400000E+03	2.198832E-16	9.240418E-18
6.410000E+03	2.203226E-16	9.265141E-18
6.420000E+03	2.204742E-16	9.277975E-18
6.430000E+03	2.203375E-16	9.278863E-18
6.440000E+03	2.199220E-16	9.268170E-18
6.450000E+03	2.192457E-16	9.246618E-18
6.460000E+03	2.183284E-16	9.215007E-18
6.470000E+03	2.171931E-16	9.174278E-18
6.480000E+03	2.158618E-16	9.125324E-18
6.490000E+03	2.143643E-16	9.069380E-18
6.500000E+03	2.127212E-16	9.007283E-18
6.510000E+03	2.109535E-16	8.939903E-18
6.520000E+03	2.090817E-16	8.868085E-18
6.530000E+03	2.071176E-16	8.792302E-18
6.540000E+03	2.050743E-16	8.713099E-18
6.550000E+03	2.029622E-16	8.630898E-18
6.560000E+03	2.007844E-16	8.545812E-18
6.570000E+03	1.985471E-16	8.458085E-18
6.580000E+03	1.962538E-16	8.367856E-18
6.590000E+03	1.939082E-16	8.275268E-18
6.600000E+03	1.915144E-16	8.180485E-18
6.610000E+03	1.890819E-16	8.083892E-18
6.620000E+03	1.866108E-16	7.985488E-18
6.630000E+03	1.841107E-16	7.885672E-18
6.640000E+03	1.815856E-16	7.784606E-18
6.650000E+03	1.790364E-16	7.682317E-18
6.660000E+03	1.764695E-16	7.579077E-18
6.670000E+03	1.738840E-16	7.474838E-18
6.680000E+03	1.712809E-16	7.369639E-18
6.690000E+03	1.686648E-16	7.263666E-18
6.700000E+03	1.660336E-16	7.156828E-18
6.710000E+03	1.633894E-16	7.049206E-18
6.720000E+03	1.607296E-16	6.940691E-18
6.730000E+03	1.580561E-16	6.831355E-18
6.740000E+03	1.553687E-16	6.721185E-18
6.750000E+03	1.526697E-16	6.610278E-18
6.760000E+03	1.499565E-16	6.498523E-18
6.770000E+03	1.472375E-16	6.386279E-18
6.780000E+03	1.445150E-16	6.273642E-18
6.790000E+03	1.417930E-16	6.160784E-18
6.800000E+03	1.390808E-16	6.048114E-18
6.810000E+03	1.363895E-16	5.936116E-18
6.820000E+03	1.337280E-16	5.825176E-18
6.830000E+03	1.311096E-16	5.715881E-18
6.840000E+03	1.285458E-16	5.608736E-18
6.850000E+03	1.260517E-16	5.504407E-18
6.860000E+03	1.236413E-16	5.403516E-18
6.870000E+03	1.213287E-16	5.306694E-18
6.880000E+03	1.191264E-16	5.214492E-18
6.890000E+03	1.170512E-16	5.127660E-18
6.900000E+03	1.151131E-16	5.046654E-18
6.910000E+03	1.133272E-16	4.972154E-18
6.920000E+03	1.117034E-16	4.904605E-18
6.930000E+03	1.102520E-16	4.844480E-18
6.940000E+03	1.089821E-16	4.792199E-18
6.950000E+03	1.079024E-16	4.748156E-18
6.960000E+03	1.070200E-16	4.712692E-18
6.970000E+03	1.063428E-16	4.686170E-18
6.980000E+03	1.058747E-16	4.668787E-18
6.990000E+03	1.056191E-16	4.660701E-18
7.000000E+03	1.055819E-16	4.662203E-18
7.010000E+03	1.057642E-16	4.673357E-18
7.020000E+03	1.061669E-16	4.694218E-18
7.030000E+03	1.067892E-16	4.724778E-18
7.040000E+03	1.076282E-16	4.764922E-18
7.050000E+03	1.086789E-16	4.814444E-18
7.060000E+03	1.099318E-16	4.872943E-18
7.070000E+03	1.113772E-16	4.940003E-18
7.080000E+03	1.130016E-16	5.015037E-18
7.090000E+03	1.147871E-16	5.097267E-18
7.100000E+03	1.167171E-16	5.185965E-18
7.110000E+03	1.187688E-16	5.280128E-18
7.120000E+03	1.209252E-16	5.379005E-18
7.130000E+03	1.231648E-16	5.481644E-18
7.140000E+03	1.254663E-16	5.587107E-18
7.150000E+03	1.278135E-16	5.694668E-18
7.160000E+03	1.301898E-16	5.803598E-18
7.170000E+03	1.325774E-16	5.913096E-18
7.180000E+03	1.349673E-16	6.022767E-18
7.190000E+03	1.373459E-16	6.131997E-18
7.200000E+03	1.397088E-16	6.240593E-18
7.210000E+03	1.420446E-16	6.348038E-18
7.220000E+03	1.443528E-16	6.454317E-18
7.230000E+03	1.466272E-16	6.559144E-18
7.240000E+03	1.488685E-16	6.662546E-18
7.250000E+03	1.510734E-16	6.764384E-18
7.260000E+03	1.532433E-16	6.864714E-18
7.270000E+03	1.553724E-16	6.963272E-18
7.280000E+03	1.574573E-16	7.059907E-18
7.290000E+03	1.594954E-16	7.154499E-18
7.300000E+03	1.614753E-16	7.246539E-18
7.310000E+03	1.633870E-16	7.335578E-18
7.320000E+03	1.652204E-16	7.421153E-18
7.330000E+03	1.669579E-16	7.502480E-18
7.340000E+03	1.685786E-16	7.578610E-18
7.350000E+03	1.700615E-16	7.648597E-18
7.360000E+03	1.713833E-16	7.711390E-18
7.370000E+03	1.725196E-16	7.765883E-18
7.380000E+03	1.734428E-16	7.810820E-18
7.390000E+03	1.741300E-16	7.845169E-18
7.400000E+03	1.745525E-16	7.867624E-18
7.410000E+03	1.746909E-16	7.877296E-18
7.420000E+03	1.745271E-16	7.873358E-18
7.430000E+03	1.740481E-16	7.855206E-18
7.440000E+03	1.732442E-16	7.822393E-18
7.450000E+03	1.721173E-16	7.774987E-18
7.460000E+03	1.706744E-16	7.713282E-18
7.470000E+03	1.689271E-16	7.637797E-18
7.480000E+03	1.668993E-16	7.549588E-18
7.490000E+03	1.646187E-16	7.449895E-18
7.500000E+03	1.621183E-16	7.340205E-18
7.510000E+03	1.594374E-16	7.222275E-18
7.520000E+03	1.566130E-16	7.097780E-18
7.530000E+03	1.536850E-16	6.968511E-18
7.540000E+03	1.506957E-16	6.836378E-18
7.550000E+03	1.476767E-16	6.702804E-18
7.560000E+03	1.446576E-16	6.569133E-18
7.570000E+03	1.416680E-16	6.436703E-18
7.580000E+03	1.387317E-16	6.306597E-18
7.590000E+03	1.358746E-16	6.179992E-18
7.600000E+03	1.331211E-16	6.057996E-18
7.610000E+03	1.304895E-16	5.941447E-18
7.620000E+03	1.280001E-16	5.831278E-18
7.630000E+03	1.256690E-16	5.728223E-18
7.640000E+03	1.235071E-16	5.632789E-18
7.650000E+03	1.215270E-16	5.545561E-18
7.660000E+03	1.197294E-16	5.466579E-18
7.670000E+03	1.181195E-16	5.396095E-18
7.680000E+03	1.166972E-16	5.334118E-18
7.690000E+03	1.154593E-16	5.280503E-18
7.700000E+03	1.144030E-16	5.235145E-18
7.710000E+03	1.135277E-16	5.198023E-18
7.720000E+03	1.128236E-16	5.168696E-18
7.730000E+03	1.122896E-16	5.147132E-18
7.740000E+03	1.119152E-16	5.132857E-18
7.750000E+03	1.116941E-16	5.125593E-18
7.760000E+03	1.116166E-16	5.124906E-18
