#wls	flux	fluxerr
1.600000E+03	1.438284E-17	1.054306E-18
1.640000E+03	1.451979E-17	1.063188E-18
1.680000E+03	1.466948E-17	1.072949E-18
1.720000E+03	1.482724E-17	1.083244E-18
1.760000E+03	1.499865E-17	1.094476E-18
1.800000E+03	1.518165E-17	1.106489E-18
1.840000E+03	1.537677E-17	1.119317E-18
1.880000E+03	1.558722E-17	1.133188E-18
1.920000E+03	1.581099E-17	1.147950E-18
1.960000E+03	1.605409E-17	1.164032E-18
2.000000E+03	1.631195E-17	1.181095E-18
2.040000E+03	1.659075E-17	1.199579E-18
2.080000E+03	1.689144E-17	1.219544E-18
2.120000E+03	1.721224E-17	1.240850E-18
2.160000E+03	1.755695E-17	1.263762E-18
2.200000E+03	1.792955E-17	1.288554E-18
2.240000E+03	1.832850E-17	1.315103E-18
2.280000E+03	1.875798E-17	1.343694E-18
2.320000E+03	1.921951E-17	1.374421E-18
2.360000E+03	1.971763E-17	1.407592E-18
2.400000E+03	2.025114E-17	1.443102E-18
2.440000E+03	2.082794E-17	1.481494E-18
2.480000E+03	2.145019E-17	1.522898E-18
2.520000E+03	2.211700E-17	1.567227E-18
2.560000E+03	2.284024E-17	1.615296E-18
2.600000E+03	2.361622E-17	1.666812E-18
2.640000E+03	2.445751E-17	1.722630E-18
2.680000E+03	2.536066E-17	1.782470E-18
2.720000E+03	2.633898E-17	1.847228E-18
2.760000E+03	2.739269E-17	1.916875E-18
2.800000E+03	2.853255E-17	1.992116E-18
2.840000E+03	2.976266E-17	2.073183E-18
2.880000E+03	3.109091E-17	2.160567E-18
2.920000E+03	3.252549E-17	2.254774E-18
2.960000E+03	3.407489E-17	2.356321E-18
3.000000E+03	3.574779E-17	2.465730E-18
3.010000E+03	3.618588E-17	2.494340E-18
3.020000E+03	3.663605E-17	2.523736E-18
3.030000E+03	3.709043E-17	2.553373E-18
3.040000E+03	3.755304E-17	2.583528E-18
3.050000E+03	3.802801E-17	2.614482E-18
3.060000E+03	3.851139E-17	2.645963E-18
3.070000E+03	3.900325E-17	2.677973E-18
3.080000E+03	3.950365E-17	2.710516E-18
3.090000E+03	4.001267E-17	2.743595E-18
3.100000E+03	4.053449E-17	2.777495E-18
3.110000E+03	4.106507E-17	2.811938E-18
3.120000E+03	4.160448E-17	2.846927E-18
3.130000E+03	4.215275E-17	2.882462E-18
3.140000E+03	4.271418E-17	2.918834E-18
3.150000E+03	4.328461E-17	2.955759E-18
3.160000E+03	4.386836E-17	2.993529E-18
3.170000E+03	4.446123E-17	3.031856E-18
3.180000E+03	4.506325E-17	3.070739E-18
3.190000E+03	4.567881E-17	3.110476E-18
3.200000E+03	4.630362E-17	3.150773E-18
3.210000E+03	4.694208E-17	3.191927E-18
3.220000E+03	4.758988E-17	3.233643E-18
3.230000E+03	4.825143E-17	3.276218E-18
3.240000E+03	4.892235E-17	3.319354E-18
3.250000E+03	4.960714E-17	3.363352E-18
3.260000E+03	5.030583E-17	3.408213E-18
3.270000E+03	5.101394E-17	3.453631E-18
3.280000E+03	5.173600E-17	3.499910E-18
3.290000E+03	5.247203E-17	3.547049E-18
3.300000E+03	5.321748E-17	3.594739E-18
3.310000E+03	5.397689E-17	3.643283E-18
3.320000E+03	5.475029E-17	3.692681E-18
3.330000E+03	5.553298E-17	3.742614E-18
3.340000E+03	5.633429E-17	3.793707E-18
3.350000E+03	5.714481E-17	3.845325E-18
3.360000E+03	5.796917E-17	3.897778E-18
3.370000E+03	5.881211E-17	3.951380E-18
3.380000E+03	5.966403E-17	4.005483E-18
3.390000E+03	6.052963E-17	4.060401E-18
3.400000E+03	6.140879E-17	4.116123E-18
3.410000E+03	6.230142E-17	4.172641E-18
3.420000E+03	6.320741E-17	4.229944E-18
3.430000E+03	6.412662E-17	4.288021E-18
3.440000E+03	6.505890E-17	4.346858E-18
3.450000E+03	6.600902E-17	4.406772E-18
3.460000E+03	6.696696E-17	4.467090E-18
3.470000E+03	6.794240E-17	4.528455E-18
3.480000E+03	6.893019E-17	4.590522E-18
3.490000E+03	6.993010E-17	4.653273E-18
3.500000E+03	7.094691E-17	4.717022E-18
3.510000E+03	7.197533E-17	4.781415E-18
3.520000E+03	7.301508E-17	4.846431E-18
3.530000E+03	7.407094E-17	4.912383E-18
3.540000E+03	7.513751E-17	4.978912E-18
3.550000E+03	7.621957E-17	5.046331E-18
3.560000E+03	7.731163E-17	5.114273E-18
3.570000E+03	7.841328E-17	5.182709E-18
3.580000E+03	7.952928E-17	5.251952E-18
3.590000E+03	8.065924E-17	5.321972E-18
3.600000E+03	8.179750E-17	5.392394E-18
3.610000E+03	8.294881E-17	5.463527E-18
3.620000E+03	8.410740E-17	5.534990E-18
3.630000E+03	8.527802E-17	5.607093E-18
3.640000E+03	8.646013E-17	5.679797E-18
3.650000E+03	8.765315E-17	5.753063E-18
3.660000E+03	8.885118E-17	5.826500E-18
3.670000E+03	9.005891E-17	5.900414E-18
3.680000E+03	9.127565E-17	5.974758E-18
3.690000E+03	9.249540E-17	6.049137E-18
3.700000E+03	9.372814E-17	6.124203E-18
3.710000E+03	9.496242E-17	6.199203E-18
3.720000E+03	9.620819E-17	6.274788E-18
3.730000E+03	9.745393E-17	6.350202E-18
3.740000E+03	9.870414E-17	6.425740E-18
3.750000E+03	9.995800E-17	6.501345E-18
3.760000E+03	1.012146E-16	6.576958E-18
3.770000E+03	1.024731E-16	6.652519E-18
3.780000E+03	1.037324E-16	6.727965E-18
3.790000E+03	1.049862E-16	6.802879E-18
3.800000E+03	1.062443E-16	6.877901E-18
3.810000E+03	1.075002E-16	6.952603E-18
3.820000E+03	1.087529E-16	7.026929E-18
3.830000E+03	1.100012E-16	7.100796E-18
3.840000E+03	1.112441E-16	7.174137E-18
3.850000E+03	1.124803E-16	7.246870E-18
3.860000E+03	1.137085E-16	7.318921E-18
3.870000E+03	1.149277E-16	7.390217E-18
3.880000E+03	1.161365E-16	7.460670E-18
3.890000E+03	1.173337E-16	7.530207E-18
3.900000E+03	1.185178E-16	7.598736E-18
3.910000E+03	1.196875E-16	7.666170E-18
3.920000E+03	1.208415E-16	7.732438E-18
3.930000E+03	1.219783E-16	7.797434E-18
3.940000E+03	1.230966E-16	7.861087E-18
3.950000E+03	1.241949E-16	7.923300E-18
3.960000E+03	1.252717E-16	7.983981E-18
3.970000E+03	1.263257E-16	8.043055E-18
3.980000E+03	1.273502E-16	8.100095E-18
3.990000E+03	1.283492E-16	8.155363E-18
4.000000E+03	1.293265E-16	8.209105E-18
4.010000E+03	1.302650E-16	8.260247E-18
4.020000E+03	1.311796E-16	8.309727E-18
4.030000E+03	1.320584E-16	8.356808E-18
4.040000E+03	1.329009E-16	8.401457E-18
4.050000E+03	1.337162E-16	8.444264E-18
4.060000E+03	1.344887E-16	8.484240E-18
4.070000E+03	1.352277E-16	8.521987E-18
4.080000E+03	1.359332E-16	8.557513E-18
4.090000E+03	1.365950E-16	8.590180E-18
4.100000E+03	1.372233E-16	8.620635E-18
4.110000E+03	1.378135E-16	8.648601E-18
4.120000E+03	1.383663E-16	8.674125E-18
4.130000E+03	1.388827E-16	8.697276E-18
4.140000E+03	1.393636E-16	8.718128E-18
4.150000E+03	1.398107E-16	8.736781E-18
4.160000E+03	1.402206E-16	8.753039E-18
4.170000E+03	1.406002E-16	8.767338E-18
4.180000E+03	1.409513E-16	8.779798E-18
4.190000E+03	1.412718E-16	8.790292E-18
4.200000E+03	1.415642E-16	8.798980E-18
4.210000E+03	1.418312E-16	8.806038E-18
4.220000E+03	1.420803E-16	8.811930E-18
4.230000E+03	1.423051E-16	8.816276E-18
4.240000E+03	1.425179E-16	8.819839E-18
4.250000E+03	1.427128E-16	8.822249E-18
4.260000E+03	1.428931E-16	8.823727E-18
4.270000E+03	1.430708E-16	8.824999E-18
4.280000E+03	1.432359E-16	8.825467E-18
4.290000E+03	1.434003E-16	8.825856E-18
4.300000E+03	1.435627E-16	8.826088E-18
4.310000E+03	1.437262E-16	8.826359E-18
4.320000E+03	1.438935E-16	8.826831E-18
4.330000E+03	1.440633E-16	8.827426E-18
4.340000E+03	1.442463E-16	8.828795E-18
4.350000E+03	1.444327E-16	8.830344E-18
4.360000E+03	1.446329E-16	8.832696E-18
4.370000E+03	1.448447E-16	8.835728E-18
4.380000E+03	1.450742E-16	8.839802E-18
4.390000E+03	1.453150E-16	8.844524E-18
4.400000E+03	1.455728E-16	8.850246E-18
4.410000E+03	1.458491E-16	8.857052E-18
4.420000E+03	1.461415E-16	8.864793E-18
4.430000E+03	1.464556E-16	8.873804E-18
4.440000E+03	1.467894E-16	8.883966E-18
4.450000E+03	1.471449E-16	8.895384E-18
4.460000E+03	1.475273E-16	8.908383E-18
4.470000E+03	1.479307E-16	8.922597E-18
4.480000E+03	1.483604E-16	8.938332E-18
4.490000E+03	1.488171E-16	8.955640E-18
4.500000E+03	1.493014E-16	8.974541E-18
4.510000E+03	1.498099E-16	8.994832E-18
4.520000E+03	1.503423E-16	9.016485E-18
4.530000E+03	1.509017E-16	9.039683E-18
4.540000E+03	1.514832E-16	9.064132E-18
4.550000E+03	1.520853E-16	9.089733E-18
4.560000E+03	1.527060E-16	9.116368E-18
4.570000E+03	1.533467E-16	9.144110E-18
4.580000E+03	1.539973E-16	9.172360E-18
4.590000E+03	1.546551E-16	9.200953E-18
4.600000E+03	1.553238E-16	9.230108E-18
4.610000E+03	1.559929E-16	9.259199E-18
4.620000E+03	1.566623E-16	9.288226E-18
4.630000E+03	1.573282E-16	9.316959E-18
4.640000E+03	1.579836E-16	9.344984E-18
4.650000E+03	1.586246E-16	9.372080E-18
4.660000E+03	1.592512E-16	9.398245E-18
4.670000E+03	1.598566E-16	9.423087E-18
4.680000E+03	1.604410E-16	9.446617E-18
4.690000E+03	1.609981E-16	9.468470E-18
4.700000E+03	1.615251E-16	9.488493E-18
4.710000E+03	1.620196E-16	9.506551E-18
4.720000E+03	1.624834E-16	9.522750E-18
4.730000E+03	1.629112E-16	9.536792E-18
4.740000E+03	1.633017E-16	9.548611E-18
4.750000E+03	1.636541E-16	9.558161E-18
4.760000E+03	1.639710E-16	9.565610E-18
4.770000E+03	1.642451E-16	9.570539E-18
4.780000E+03	1.644834E-16	9.573362E-18
4.790000E+03	1.646862E-16	9.574106E-18
4.800000E+03	1.648474E-16	9.572425E-18
4.810000E+03	1.649751E-16	9.568799E-18
4.820000E+03	1.650678E-16	9.563143E-18
4.830000E+03	1.651311E-16	9.555795E-18
4.840000E+03	1.651615E-16	9.546555E-18
4.850000E+03	1.651690E-16	9.536011E-18
4.860000E+03	1.651582E-16	9.524431E-18
4.870000E+03	1.651308E-16	9.511921E-18
4.880000E+03	1.650928E-16	9.498829E-18
4.890000E+03	1.650538E-16	9.485700E-18
4.900000E+03	1.650203E-16	9.472922E-18
4.910000E+03	1.649956E-16	9.460674E-18
4.920000E+03	1.649860E-16	9.449314E-18
4.930000E+03	1.650005E-16	9.439367E-18
4.940000E+03	1.650449E-16	9.431145E-18
4.950000E+03	1.651241E-16	9.424924E-18
4.960000E+03	1.652423E-16	9.420946E-18
4.970000E+03	1.654002E-16	9.419234E-18
4.980000E+03	1.656038E-16	9.420124E-18
4.990000E+03	1.658554E-16	9.423739E-18
5.000000E+03	1.661564E-16	9.430145E-18
5.010000E+03	1.665078E-16	9.439392E-18
5.020000E+03	1.669096E-16	9.451470E-18
5.030000E+03	1.673615E-16	9.466350E-18
5.040000E+03	1.678624E-16	9.483970E-18
5.050000E+03	1.684142E-16	9.504413E-18
5.060000E+03	1.690086E-16	9.527215E-18
5.070000E+03	1.696498E-16	9.552597E-18
5.080000E+03	1.703326E-16	9.580255E-18
5.090000E+03	1.710542E-16	9.610029E-18
5.100000E+03	1.718120E-16	9.641769E-18
5.110000E+03	1.726069E-16	9.675509E-18
5.120000E+03	1.734328E-16	9.710909E-18
5.130000E+03	1.742905E-16	9.748009E-18
5.140000E+03	1.751743E-16	9.786481E-18
5.150000E+03	1.760820E-16	9.826192E-18
5.160000E+03	1.770145E-16	9.867201E-18
5.170000E+03	1.779664E-16	9.909190E-18
5.180000E+03	1.789389E-16	9.952230E-18
5.190000E+03	1.799266E-16	9.996022E-18
5.200000E+03	1.809309E-16	1.004063E-17
5.210000E+03	1.819461E-16	1.008574E-17
5.220000E+03	1.829737E-16	1.013143E-17
5.230000E+03	1.840077E-16	1.017738E-17
5.240000E+03	1.850494E-16	1.022365E-17
5.250000E+03	1.860961E-16	1.027008E-17
5.260000E+03	1.871415E-16	1.031635E-17
5.270000E+03	1.881826E-16	1.036227E-17
5.280000E+03	1.892195E-16	1.040786E-17
5.290000E+03	1.902488E-16	1.045293E-17
5.300000E+03	1.912630E-16	1.049707E-17
5.310000E+03	1.922616E-16	1.054026E-17
5.320000E+03	1.932368E-16	1.058208E-17
5.330000E+03	1.941874E-16	1.062245E-17
5.340000E+03	1.951052E-16	1.066094E-17
5.350000E+03	1.959885E-16	1.069747E-17
5.360000E+03	1.968322E-16	1.073176E-17
5.370000E+03	1.976273E-16	1.076334E-17
5.380000E+03	1.983720E-16	1.079210E-17
5.390000E+03	1.990604E-16	1.081774E-17
5.400000E+03	1.996800E-16	1.083960E-17
5.410000E+03	2.002357E-16	1.085794E-17
5.420000E+03	2.007148E-16	1.087210E-17
5.430000E+03	2.011157E-16	1.088200E-17
5.440000E+03	2.014328E-16	1.088736E-17
5.450000E+03	2.016575E-16	1.088771E-17
5.460000E+03	2.017881E-16	1.088300E-17
5.470000E+03	2.018163E-16	1.087278E-17
5.480000E+03	2.017413E-16	1.085703E-17
5.490000E+03	2.015587E-16	1.083554E-17
5.500000E+03	2.012650E-16	1.080813E-17
5.510000E+03	2.008530E-16	1.077444E-17
5.520000E+03	2.003238E-16	1.073455E-17
5.530000E+03	1.996755E-16	1.068837E-17
5.540000E+03	1.989068E-16	1.063586E-17
5.550000E+03	1.980175E-16	1.057702E-17
5.560000E+03	1.970084E-16	1.051192E-17
5.570000E+03	1.958775E-16	1.044048E-17
5.580000E+03	1.946349E-16	1.036324E-17
5.590000E+03	1.932779E-16	1.028009E-17
5.600000E+03	1.918185E-16	1.019168E-17
5.610000E+03	1.902600E-16	1.009821E-17
5.620000E+03	1.886102E-16	1.000010E-17
5.630000E+03	1.868780E-16	9.897845E-18
5.640000E+03	1.850734E-16	9.791982E-18
5.650000E+03	1.832075E-16	9.683108E-18
5.660000E+03	1.812954E-16	9.572028E-18
5.670000E+03	1.793461E-16	9.459235E-18
5.680000E+03	1.773759E-16	9.345582E-18
5.690000E+03	1.753947E-16	9.231595E-18
5.700000E+03	1.734156E-16	9.117973E-18
5.710000E+03	1.714548E-16	9.005554E-18
5.720000E+03	1.695251E-16	8.895010E-18
5.730000E+03	1.676352E-16	8.786800E-18
5.740000E+03	1.657998E-16	8.681671E-18
5.750000E+03	1.640262E-16	8.580009E-18
5.760000E+03	1.623270E-16	8.482451E-18
5.770000E+03	1.607103E-16	8.389417E-18
5.780000E+03	1.591803E-16	8.301110E-18
5.790000E+03	1.577488E-16	8.218126E-18
5.800000E+03	1.564145E-16	8.140383E-18
5.810000E+03	1.551834E-16	8.068186E-18
5.820000E+03	1.540576E-16	8.001615E-18
5.830000E+03	1.530377E-16	7.940688E-18
5.840000E+03	1.521231E-16	7.885364E-18
5.850000E+03	1.513122E-16	7.835536E-18
5.860000E+03	1.506021E-16	7.791047E-18
5.870000E+03	1.499893E-16	7.751687E-18
5.880000E+03	1.494688E-16	7.717199E-18
5.890000E+03	1.490354E-16	7.687289E-18
5.900000E+03	1.486828E-16	7.661626E-18
5.910000E+03	1.484046E-16	7.639864E-18
5.920000E+03	1.481963E-16	7.621763E-18
5.930000E+03	1.480452E-16	7.606663E-18
5.940000E+03	1.479494E-16	7.594454E-18
5.950000E+03	1.478986E-16	7.584603E-18
5.960000E+03	1.478857E-16	7.576741E-18
5.970000E+03	1.479038E-16	7.570511E-18
5.980000E+03	1.479466E-16	7.565582E-18
5.990000E+03	1.480108E-16	7.561786E-18
6.000000E+03	1.480859E-16	7.558589E-18
6.010000E+03	1.481731E-16	7.556043E-18
6.020000E+03	1.482661E-16	7.553833E-18
6.030000E+03	1.483624E-16	7.551832E-18
6.040000E+03	1.484632E-16	7.550094E-18
6.050000E+03	1.485624E-16	7.548316E-18
6.060000E+03	1.486657E-16	7.546786E-18
6.070000E+03	1.487714E-16	7.545420E-18
6.080000E+03	1.488813E-16	7.544309E-18
6.090000E+03	1.489981E-16	7.543586E-18
6.100000E+03	1.491274E-16	7.543542E-18
6.110000E+03	1.492671E-16	7.544065E-18
6.120000E+03	1.494263E-16	7.545620E-18
6.130000E+03	1.496061E-16	7.548253E-18
6.140000E+03	1.498101E-16	7.552148E-18
6.150000E+03	1.500446E-16	7.557618E-18
6.160000E+03	1.503069E-16	7.564528E-18
6.170000E+03	1.506055E-16	7.573298E-18
6.180000E+03	1.509395E-16	7.583872E-18
6.190000E+03	1.513103E-16	7.596321E-18
6.200000E+03	1.517185E-16	7.610668E-18
6.210000E+03	1.521667E-16	7.627037E-18
6.220000E+03	1.526508E-16	7.645219E-18
6.230000E+03	1.531687E-16	7.665098E-18
6.240000E+03	1.537170E-16	7.686502E-18
6.250000E+03	1.542911E-16	7.709202E-18
6.260000E+03	1.548884E-16	7.733054E-18
6.270000E+03	1.554989E-16	7.757558E-18
6.280000E+03	1.561145E-16	7.782315E-18
6.290000E+03	1.567290E-16	7.807006E-18
6.300000E+03	1.573264E-16	7.830839E-18
6.310000E+03	1.579017E-16	7.853564E-18
6.320000E+03	1.584436E-16	7.874616E-18
6.330000E+03	1.589369E-16	7.893254E-18
6.340000E+03	1.593697E-16	7.908880E-18
6.350000E+03	1.597299E-16	7.920906E-18
6.360000E+03	1.600087E-16	7.928903E-18
6.370000E+03	1.601952E-16	7.932335E-18
6.380000E+03	1.602757E-16	7.930539E-18
6.390000E+03	1.602412E-16	7.923070E-18
6.400000E+03	1.600864E-16	7.909684E-18
6.410000E+03	1.598013E-16	7.889901E-18
6.420000E+03	1.593841E-16	7.863637E-18
6.430000E+03	1.588307E-16	7.830708E-18
6.440000E+03	1.581358E-16	7.790866E-18
6.450000E+03	1.573052E-16	7.744408E-18
6.460000E+03	1.563303E-16	7.690922E-18
6.470000E+03	1.552227E-16	7.630995E-18
6.480000E+03	1.539797E-16	7.564505E-18
6.490000E+03	1.526093E-16	7.491859E-18
6.500000E+03	1.511170E-16	7.413339E-18
6.510000E+03	1.495094E-16	7.329277E-18
6.520000E+03	1.477939E-16	7.240048E-18
6.530000E+03	1.459780E-16	7.146033E-18
6.540000E+03	1.440702E-16	7.047646E-18
6.550000E+03	1.420786E-16	6.945302E-18
6.560000E+03	1.400119E-16	6.839434E-18
6.570000E+03	1.378788E-16	6.730465E-18
6.580000E+03	1.356905E-16	6.618948E-18
6.590000E+03	1.334498E-16	6.505035E-18
6.600000E+03	1.311704E-16	6.389387E-18
6.610000E+03	1.288602E-16	6.272396E-18
6.620000E+03	1.265217E-16	6.154184E-18
6.630000E+03	1.241674E-16	6.035366E-18
6.640000E+03	1.218044E-16	5.916284E-18
6.650000E+03	1.194369E-16	5.797145E-18
6.660000E+03	1.170740E-16	5.678383E-18
6.670000E+03	1.147191E-16	5.560173E-18
6.680000E+03	1.123784E-16	5.442805E-18
6.690000E+03	1.100619E-16	5.326764E-18
6.700000E+03	1.077703E-16	5.212083E-18
6.710000E+03	1.055108E-16	5.099109E-18
6.720000E+03	1.032861E-16	4.987965E-18
6.730000E+03	1.011049E-16	4.879071E-18
6.740000E+03	9.896742E-17	4.772428E-18
6.750000E+03	9.687980E-17	4.668331E-18
6.760000E+03	9.484599E-17	4.566964E-18
6.770000E+03	9.286781E-17	4.468410E-18
6.780000E+03	9.095277E-17	4.373023E-18
6.790000E+03	8.910233E-17	4.280868E-18
6.800000E+03	8.731796E-17	4.192008E-18
6.810000E+03	8.560646E-17	4.106763E-18
6.820000E+03	8.396895E-17	4.025178E-18
6.830000E+03	8.240826E-17	3.947382E-18
6.840000E+03	8.092532E-17	3.873411E-18
6.850000E+03	7.952606E-17	3.803542E-18
6.860000E+03	7.821107E-17	3.737792E-18
6.870000E+03	7.698250E-17	3.676255E-18
6.880000E+03	7.584389E-17	3.619093E-18
6.890000E+03	7.479380E-17	3.566225E-18
6.900000E+03	7.383545E-17	3.517797E-18
6.910000E+03	7.297177E-17	3.473937E-18
6.920000E+03	7.220239E-17	3.434618E-18
6.930000E+03	7.152677E-17	3.399804E-18
6.940000E+03	7.094881E-17	3.369670E-18
6.950000E+03	7.046755E-17	3.344159E-18
6.960000E+03	7.008339E-17	3.323280E-18
6.970000E+03	6.979800E-17	3.307100E-18
6.980000E+03	6.960835E-17	3.295466E-18
6.990000E+03	6.951566E-17	3.288423E-18
7.000000E+03	6.952093E-17	3.286010E-18
7.010000E+03	6.962044E-17	3.288037E-18
7.020000E+03	6.981618E-17	3.294589E-18
7.030000E+03	7.010539E-17	3.305524E-18
7.040000E+03	7.048503E-17	3.320689E-18
7.050000E+03	7.095633E-17	3.340129E-18
7.060000E+03	7.151411E-17	3.363592E-18
7.070000E+03	7.215751E-17	3.391026E-18
7.080000E+03	7.288381E-17	3.422294E-18
7.090000E+03	7.368999E-17	3.457244E-18
7.100000E+03	7.457276E-17	3.495711E-18
7.110000E+03	7.552846E-17	3.537517E-18
7.120000E+03	7.655151E-17	3.582389E-18
7.130000E+03	7.763931E-17	3.630200E-18
7.140000E+03	7.878734E-17	3.680730E-18
7.150000E+03	7.998904E-17	3.733664E-18
7.160000E+03	8.124104E-17	3.788841E-18
7.170000E+03	8.253800E-17	3.846004E-18
7.180000E+03	8.387246E-17	3.904800E-18
7.190000E+03	8.523847E-17	3.964950E-18
7.200000E+03	8.663175E-17	4.026249E-18
7.210000E+03	8.804397E-17	4.088307E-18
7.220000E+03	8.947042E-17	4.150905E-18
7.230000E+03	9.090222E-17	4.213628E-18
7.240000E+03	9.233220E-17	4.276144E-18
7.250000E+03	9.375290E-17	4.338109E-18
7.260000E+03	9.515669E-17	4.399170E-18
7.270000E+03	9.653782E-17	4.459065E-18
7.280000E+03	9.788617E-17	4.517330E-18
7.290000E+03	9.919135E-17	4.573490E-18
7.300000E+03	1.004494E-16	4.627370E-18
7.310000E+03	1.016476E-16	4.678387E-18
7.320000E+03	1.027821E-16	4.726375E-18
7.330000E+03	1.038402E-16	4.770759E-18
7.340000E+03	1.048163E-16	4.811290E-18
7.350000E+03	1.057028E-16	4.847631E-18
7.360000E+03	1.064903E-16	4.879365E-18
7.370000E+03	1.071747E-16	4.906315E-18
7.380000E+03	1.077505E-16	4.928244E-18
7.390000E+03	1.082130E-16	4.944953E-18
7.400000E+03	1.085564E-16	4.956185E-18
7.410000E+03	1.087804E-16	4.961952E-18
7.420000E+03	1.088819E-16	4.962121E-18
7.430000E+03	1.088610E-16	4.956717E-18
7.440000E+03	1.087221E-16	4.945953E-18
7.450000E+03	1.084684E-16	4.929993E-18
7.460000E+03	1.080997E-16	4.908839E-18
7.470000E+03	1.076293E-16	4.883110E-18
7.480000E+03	1.070573E-16	4.852825E-18
7.490000E+03	1.063967E-16	4.818588E-18
7.500000E+03	1.056548E-16	4.780736E-18
7.510000E+03	1.048416E-16	4.739731E-18
7.520000E+03	1.039700E-16	4.696173E-18
7.530000E+03	1.030490E-16	4.650464E-18
7.540000E+03	1.020896E-16	4.603120E-18
7.550000E+03	1.011033E-16	4.554653E-18
7.560000E+03	1.001011E-16	4.505568E-18
7.570000E+03	9.909612E-17	4.456454E-18
7.580000E+03	9.809419E-17	4.407575E-18
7.590000E+03	9.710954E-17	4.359570E-18
7.600000E+03	9.614906E-17	4.312746E-18
7.610000E+03	9.522111E-17	4.267475E-18
7.620000E+03	9.433321E-17	4.224089E-18
7.630000E+03	9.349190E-17	4.182875E-18
7.640000E+03	9.270260E-17	4.144069E-18
7.650000E+03	9.196934E-17	4.107845E-18
7.660000E+03	9.129481E-17	4.074314E-18
7.670000E+03	9.068050E-17	4.043536E-18
7.680000E+03	9.012698E-17	4.015529E-18
7.690000E+03	8.963400E-17	3.990273E-18
7.700000E+03	8.920055E-17	3.967716E-18
7.710000E+03	8.882492E-17	3.947777E-18
7.720000E+03	8.850477E-17	3.930342E-18
7.730000E+03	8.823713E-17	3.915274E-18
7.740000E+03	8.801636E-17	3.902317E-18
7.750000E+03	8.784244E-17	3.891465E-18
7.760000E+03	8.770663E-17	3.882323E-18
