#wls	flux	fluxerr
1.600000E+03	1.928842E-17	2.109326E-18
1.640000E+03	1.957404E-17	2.135893E-18
1.680000E+03	1.987464E-17	2.163823E-18
1.720000E+03	2.019444E-17	2.193552E-18
1.760000E+03	2.053080E-17	2.224775E-18
1.800000E+03	2.088814E-17	2.257941E-18
1.840000E+03	2.126384E-17	2.292744E-18
1.880000E+03	2.166612E-17	2.330041E-18
1.920000E+03	2.208889E-17	2.369143E-18
1.960000E+03	2.253693E-17	2.410530E-18
2.000000E+03	2.301148E-17	2.454301E-18
2.040000E+03	2.351776E-17	2.500968E-18
2.080000E+03	2.404950E-17	2.549825E-18
2.120000E+03	2.461995E-17	2.602228E-18
2.160000E+03	2.521892E-17	2.657049E-18
2.200000E+03	2.586023E-17	2.715689E-18
2.240000E+03	2.653763E-17	2.777432E-18
2.280000E+03	2.725724E-17	2.842854E-18
2.320000E+03	2.802117E-17	2.912107E-18
2.360000E+03	2.883169E-17	2.985348E-18
2.400000E+03	2.969565E-17	3.063207E-18
2.440000E+03	3.061116E-17	3.145395E-18
2.480000E+03	3.158544E-17	3.232561E-18
2.520000E+03	3.262144E-17	3.324898E-18
2.560000E+03	3.372218E-17	3.422601E-18
2.600000E+03	3.489577E-17	3.526368E-18
2.640000E+03	3.613548E-17	3.635384E-18
2.680000E+03	3.745998E-17	3.751389E-18
2.720000E+03	3.886253E-17	3.873547E-18
2.760000E+03	4.035746E-17	4.003118E-18
2.800000E+03	4.194321E-17	4.139764E-18
2.840000E+03	4.362345E-17	4.283655E-18
2.880000E+03	4.541361E-17	4.436097E-18
2.920000E+03	4.730589E-17	4.596098E-18
2.960000E+03	4.931603E-17	4.764951E-18
3.000000E+03	5.144157E-17	4.942162E-18
3.010000E+03	5.199499E-17	4.988123E-18
3.020000E+03	5.255348E-17	5.034379E-18
3.030000E+03	5.311706E-17	5.080929E-18
3.040000E+03	5.369226E-17	5.128393E-18
3.050000E+03	5.427921E-17	5.176777E-18
3.060000E+03	5.487137E-17	5.225453E-18
3.070000E+03	5.546875E-17	5.274417E-18
3.080000E+03	5.607134E-17	5.323666E-18
3.090000E+03	5.669263E-17	5.374473E-18
3.100000E+03	5.731246E-17	5.424923E-18
3.110000E+03	5.794437E-17	5.476293E-18
3.120000E+03	5.858846E-17	5.528587E-18
3.130000E+03	5.923790E-17	5.581154E-18
3.140000E+03	5.989964E-17	5.634644E-18
3.150000E+03	6.056675E-17	5.688400E-18
3.160000E+03	6.123921E-17	5.742415E-18
3.170000E+03	6.192407E-17	5.797347E-18
3.180000E+03	6.261428E-17	5.852528E-18
3.190000E+03	6.331697E-17	5.908621E-18
3.200000E+03	6.403225E-17	5.965627E-18
3.210000E+03	6.475289E-17	6.022869E-18
3.220000E+03	6.547883E-17	6.080336E-18
3.230000E+03	6.621739E-17	6.138703E-18
3.240000E+03	6.696863E-17	6.197968E-18
3.250000E+03	6.772516E-17	6.257440E-18
3.260000E+03	6.848688E-17	6.317107E-18
3.270000E+03	6.926129E-17	6.377654E-18
3.280000E+03	7.004842E-17	6.439078E-18
3.290000E+03	7.084067E-17	6.500673E-18
3.300000E+03	7.164563E-17	6.563130E-18
3.310000E+03	7.245560E-17	6.625738E-18
3.320000E+03	7.327825E-17	6.689192E-18
3.330000E+03	7.410578E-17	6.752774E-18
3.340000E+03	7.494595E-17	6.817185E-18
3.350000E+03	7.579083E-17	6.881699E-18
3.360000E+03	7.664826E-17	6.947021E-18
3.370000E+03	7.751023E-17	7.012419E-18
3.380000E+03	7.838464E-17	7.078603E-18
3.390000E+03	7.927148E-17	7.145563E-18
3.400000E+03	8.016258E-17	7.212557E-18
3.410000E+03	8.106596E-17	7.280300E-18
3.420000E+03	8.197335E-17	7.348046E-18
3.430000E+03	8.289284E-17	7.416512E-18
3.440000E+03	8.381606E-17	7.484943E-18
3.450000E+03	8.475118E-17	7.554064E-18
3.460000E+03	8.568970E-17	7.623113E-18
3.470000E+03	8.664834E-17	7.693568E-18
3.480000E+03	8.760164E-17	7.763162E-18
3.490000E+03	8.856631E-17	7.833375E-18
3.500000E+03	8.954226E-17	7.904189E-18
3.510000E+03	9.052936E-17	7.975587E-18
3.520000E+03	9.151882E-17	8.046788E-18
3.530000E+03	9.251037E-17	8.117766E-18
3.540000E+03	9.351249E-17	8.189260E-18
3.550000E+03	9.452502E-17	8.261248E-18
3.560000E+03	9.553897E-17	8.332940E-18
3.570000E+03	9.656290E-17	8.405078E-18
3.580000E+03	9.758770E-17	8.476865E-18
3.590000E+03	9.862201E-17	8.549046E-18
3.600000E+03	9.966561E-17	8.621597E-18
3.610000E+03	1.007093E-16	8.693711E-18
3.620000E+03	1.017616E-16	8.766139E-18
3.630000E+03	1.028134E-16	8.838067E-18
3.640000E+03	1.038734E-16	8.910249E-18
3.650000E+03	1.049412E-16	8.982655E-18
3.660000E+03	1.060074E-16	9.054465E-18
3.670000E+03	1.070716E-16	9.125645E-18
3.680000E+03	1.081426E-16	9.196949E-18
3.690000E+03	1.092201E-16	9.268346E-18
3.700000E+03	1.102944E-16	9.339002E-18
3.710000E+03	1.113745E-16	9.409682E-18
3.720000E+03	1.124505E-16	9.479548E-18
3.730000E+03	1.135314E-16	9.549358E-18
3.740000E+03	1.146168E-16	9.619079E-18
3.750000E+03	1.156968E-16	9.687874E-18
3.760000E+03	1.167709E-16	9.755690E-18
3.770000E+03	1.178480E-16	9.823297E-18
3.780000E+03	1.189278E-16	9.890646E-18
3.790000E+03	1.200000E-16	9.956892E-18
3.800000E+03	1.210642E-16	1.002200E-17
3.810000E+03	1.221392E-16	1.008753E-17
3.820000E+03	1.231952E-16	1.015102E-17
3.830000E+03	1.242511E-16	1.021403E-17
3.840000E+03	1.253064E-16	1.027651E-17
3.850000E+03	1.263507E-16	1.033762E-17
3.860000E+03	1.273832E-16	1.039731E-17
3.870000E+03	1.284132E-16	1.045632E-17
3.880000E+03	1.294399E-16	1.051462E-17
3.890000E+03	1.304529E-16	1.057133E-17
3.900000E+03	1.314513E-16	1.062641E-17
3.910000E+03	1.324443E-16	1.068059E-17
3.920000E+03	1.334210E-16	1.073302E-17
3.930000E+03	1.343906E-16	1.078444E-17
3.940000E+03	1.353421E-16	1.083397E-17
3.950000E+03	1.362744E-16	1.088153E-17
3.960000E+03	1.371962E-16	1.092783E-17
3.970000E+03	1.380960E-16	1.097196E-17
3.980000E+03	1.389819E-16	1.101458E-17
3.990000E+03	1.398321E-16	1.105398E-17
4.000000E+03	1.406742E-16	1.109234E-17
4.010000E+03	1.414758E-16	1.112713E-17
4.020000E+03	1.422544E-16	1.115975E-17
4.030000E+03	1.429976E-16	1.118924E-17
4.040000E+03	1.437127E-16	1.121620E-17
4.050000E+03	1.443776E-16	1.123891E-17
4.060000E+03	1.450098E-16	1.125878E-17
4.070000E+03	1.455978E-16	1.127493E-17
4.080000E+03	1.461497E-16	1.128802E-17
4.090000E+03	1.466546E-16	1.129722E-17
4.100000E+03	1.471016E-16	1.130174E-17
4.110000E+03	1.475201E-16	1.130386E-17
4.120000E+03	1.478807E-16	1.130136E-17
4.130000E+03	1.481939E-16	1.129507E-17
4.140000E+03	1.484705E-16	1.128585E-17
4.150000E+03	1.486928E-16	1.127237E-17
4.160000E+03	1.488819E-16	1.125627E-17
4.170000E+03	1.490307E-16	1.123704E-17
4.180000E+03	1.491417E-16	1.121488E-17
4.190000E+03	1.492176E-16	1.119004E-17
4.200000E+03	1.492617E-16	1.116278E-17
4.210000E+03	1.492771E-16	1.113335E-17
4.220000E+03	1.492763E-16	1.110269E-17
4.230000E+03	1.492443E-16	1.106973E-17
4.240000E+03	1.491938E-16	1.103541E-17
4.250000E+03	1.491284E-16	1.100001E-17
4.260000E+03	1.490519E-16	1.096382E-17
4.270000E+03	1.489676E-16	1.092711E-17
4.280000E+03	1.488793E-16	1.089015E-17
4.290000E+03	1.487905E-16	1.085320E-17
4.300000E+03	1.487049E-16	1.081653E-17
4.310000E+03	1.486172E-16	1.077976E-17
4.320000E+03	1.485481E-16	1.074440E-17
4.330000E+03	1.484834E-16	1.070941E-17
4.340000E+03	1.484350E-16	1.067564E-17
4.350000E+03	1.484055E-16	1.064329E-17
4.360000E+03	1.483976E-16	1.061252E-17
4.370000E+03	1.484049E-16	1.058288E-17
4.380000E+03	1.484384E-16	1.055514E-17
4.390000E+03	1.484999E-16	1.052942E-17
4.400000E+03	1.485911E-16	1.050582E-17
4.410000E+03	1.487051E-16	1.048384E-17
4.420000E+03	1.488517E-16	1.046416E-17
4.430000E+03	1.490318E-16	1.044682E-17
4.440000E+03	1.492379E-16	1.043130E-17
4.450000E+03	1.494789E-16	1.041819E-17
4.460000E+03	1.497552E-16	1.040751E-17
4.470000E+03	1.500583E-16	1.039864E-17
4.480000E+03	1.503962E-16	1.039214E-17
4.490000E+03	1.507602E-16	1.038738E-17
4.500000E+03	1.511577E-16	1.038486E-17
4.510000E+03	1.515791E-16	1.038391E-17
4.520000E+03	1.520312E-16	1.038498E-17
4.530000E+03	1.525119E-16	1.038791E-17
4.540000E+03	1.530107E-16	1.039198E-17
4.550000E+03	1.535244E-16	1.039698E-17
4.560000E+03	1.540579E-16	1.040321E-17
4.570000E+03	1.546067E-16	1.041039E-17
4.580000E+03	1.551502E-16	1.041711E-17
4.590000E+03	1.557072E-16	1.042465E-17
4.600000E+03	1.562475E-16	1.043098E-17
4.610000E+03	1.567812E-16	1.043680E-17
4.620000E+03	1.573016E-16	1.044167E-17
4.630000E+03	1.577939E-16	1.044462E-17
4.640000E+03	1.582514E-16	1.044524E-17
4.650000E+03	1.586758E-16	1.044365E-17
4.660000E+03	1.590532E-16	1.043897E-17
4.670000E+03	1.593787E-16	1.043091E-17
4.680000E+03	1.596559E-16	1.041975E-17
4.690000E+03	1.598659E-16	1.040428E-17
4.700000E+03	1.600304E-16	1.038595E-17
4.710000E+03	1.601248E-16	1.036321E-17
4.720000E+03	1.601651E-16	1.033712E-17
4.730000E+03	1.601444E-16	1.030727E-17
4.740000E+03	1.600722E-16	1.027433E-17
4.750000E+03	1.599354E-16	1.023747E-17
4.760000E+03	1.597522E-16	1.019789E-17
4.770000E+03	1.595177E-16	1.015533E-17
4.780000E+03	1.592430E-16	1.011049E-17
4.790000E+03	1.589238E-16	1.006315E-17
4.800000E+03	1.585643E-16	1.001359E-17
4.810000E+03	1.581693E-16	9.962128E-18
4.820000E+03	1.577439E-16	9.909114E-18
4.830000E+03	1.573016E-16	9.855406E-18
4.840000E+03	1.568338E-16	9.800484E-18
4.850000E+03	1.563703E-16	9.746207E-18
4.860000E+03	1.558968E-16	9.691689E-18
4.870000E+03	1.554294E-16	9.637937E-18
4.880000E+03	1.549848E-16	9.585980E-18
4.890000E+03	1.545650E-16	9.535932E-18
4.900000E+03	1.541799E-16	9.488381E-18
4.910000E+03	1.538387E-16	9.443870E-18
4.920000E+03	1.535501E-16	9.402907E-18
4.930000E+03	1.533291E-16	9.366375E-18
4.940000E+03	1.531750E-16	9.334208E-18
4.950000E+03	1.530928E-16	9.306665E-18
4.960000E+03	1.530862E-16	9.283937E-18
4.970000E+03	1.531568E-16	9.266087E-18
4.980000E+03	1.533116E-16	9.253500E-18
4.990000E+03	1.535418E-16	9.245601E-18
5.000000E+03	1.538437E-16	9.242138E-18
5.010000E+03	1.542118E-16	9.242748E-18
5.020000E+03	1.546391E-16	9.246986E-18
5.030000E+03	1.551237E-16	9.254704E-18
5.040000E+03	1.556415E-16	9.264445E-18
5.050000E+03	1.561952E-16	9.276355E-18
5.060000E+03	1.567658E-16	9.289289E-18
5.070000E+03	1.573413E-16	9.302535E-18
5.080000E+03	1.579175E-16	9.315839E-18
5.090000E+03	1.584707E-16	9.327807E-18
5.100000E+03	1.590074E-16	9.338817E-18
5.110000E+03	1.595157E-16	9.348184E-18
5.120000E+03	1.599934E-16	9.355794E-18
5.130000E+03	1.604485E-16	9.362113E-18
5.140000E+03	1.608696E-16	9.366493E-18
5.150000E+03	1.612760E-16	9.370056E-18
5.160000E+03	1.616660E-16	9.372716E-18
5.170000E+03	1.620459E-16	9.374837E-18
5.180000E+03	1.624285E-16	9.377163E-18
5.190000E+03	1.628047E-16	9.379160E-18
5.200000E+03	1.631923E-16	9.381861E-18
5.210000E+03	1.635869E-16	9.385000E-18
5.220000E+03	1.639967E-16	9.389042E-18
5.230000E+03	1.644073E-16	9.393164E-18
5.240000E+03	1.648323E-16	9.398137E-18
5.250000E+03	1.652631E-16	9.403460E-18
5.260000E+03	1.656979E-16	9.409034E-18
5.270000E+03	1.661418E-16	9.415137E-18
5.280000E+03	1.665854E-16	9.421242E-18
5.290000E+03	1.670266E-16	9.427226E-18
5.300000E+03	1.674634E-16	9.432969E-18
5.310000E+03	1.679004E-16	9.438744E-18
5.320000E+03	1.683211E-16	9.443608E-18
5.330000E+03	1.687444E-16	9.448639E-18
5.340000E+03	1.691459E-16	9.452461E-18
5.350000E+03	1.695369E-16	9.455718E-18
5.360000E+03	1.699069E-16	9.457818E-18
5.370000E+03	1.702522E-16	9.458572E-18
5.380000E+03	1.705687E-16	9.457752E-18
5.390000E+03	1.708596E-16	9.455547E-18
5.400000E+03	1.711200E-16	9.451695E-18
5.410000E+03	1.713305E-16	9.445130E-18
5.420000E+03	1.715006E-16	9.436390E-18
5.430000E+03	1.716173E-16	9.424769E-18
5.440000E+03	1.716822E-16	9.410383E-18
5.450000E+03	1.716748E-16	9.392115E-18
5.460000E+03	1.716111E-16	9.370861E-18
5.470000E+03	1.714627E-16	9.345091E-18
5.480000E+03	1.712379E-16	9.315282E-18
5.490000E+03	1.709229E-16	9.280704E-18
5.500000E+03	1.705181E-16	9.241412E-18
5.510000E+03	1.700093E-16	9.196656E-18
5.520000E+03	1.693897E-16	9.146106E-18
5.530000E+03	1.686593E-16	9.089787E-18
5.540000E+03	1.678038E-16	9.026964E-18
5.550000E+03	1.668229E-16	8.957664E-18
5.560000E+03	1.657028E-16	8.881176E-18
5.570000E+03	1.644370E-16	8.797193E-18
5.580000E+03	1.630265E-16	8.705813E-18
5.590000E+03	1.614600E-16	8.606471E-18
5.600000E+03	1.597413E-16	8.499414E-18
5.610000E+03	1.578631E-16	8.384297E-18
5.620000E+03	1.558280E-16	8.261301E-18
5.630000E+03	1.536490E-16	8.131157E-18
5.640000E+03	1.513361E-16	7.994433E-18
5.650000E+03	1.488909E-16	7.851250E-18
5.660000E+03	1.463511E-16	7.703624E-18
5.670000E+03	1.437256E-16	7.552044E-18
5.680000E+03	1.410386E-16	7.397809E-18
5.690000E+03	1.383219E-16	7.242591E-18
5.700000E+03	1.355953E-16	7.087433E-18
5.710000E+03	1.328899E-16	6.933958E-18
5.720000E+03	1.302237E-16	6.783097E-18
5.730000E+03	1.276240E-16	6.636247E-18
5.740000E+03	1.251098E-16	6.494382E-18
5.750000E+03	1.226868E-16	6.357767E-18
5.760000E+03	1.203846E-16	6.227908E-18
5.770000E+03	1.182036E-16	6.104793E-18
5.780000E+03	1.161525E-16	5.988833E-18
5.790000E+03	1.142424E-16	5.880566E-18
5.800000E+03	1.124773E-16	5.780159E-18
5.810000E+03	1.108545E-16	5.687438E-18
5.820000E+03	1.093793E-16	5.602634E-18
5.830000E+03	1.080504E-16	5.525639E-18
5.840000E+03	1.068606E-16	5.456054E-18
5.850000E+03	1.058060E-16	5.393641E-18
5.860000E+03	1.048862E-16	5.338347E-18
5.870000E+03	1.040949E-16	5.289824E-18
5.880000E+03	1.034205E-16	5.247454E-18
5.890000E+03	1.028600E-16	5.211049E-18
5.900000E+03	1.024045E-16	5.180144E-18
5.910000E+03	1.020409E-16	5.154051E-18
5.920000E+03	1.017640E-16	5.132481E-18
5.930000E+03	1.015638E-16	5.114928E-18
5.940000E+03	1.014259E-16	5.100639E-18
5.950000E+03	1.013438E-16	5.089280E-18
5.960000E+03	1.013069E-16	5.080315E-18
5.970000E+03	1.013002E-16	5.072982E-18
5.980000E+03	1.013180E-16	5.066996E-18
5.990000E+03	1.013466E-16	5.061666E-18
6.000000E+03	1.013866E-16	5.057029E-18
6.010000E+03	1.014229E-16	5.052325E-18
6.020000E+03	1.014507E-16	5.047326E-18
6.030000E+03	1.014762E-16	5.042346E-18
6.040000E+03	1.014904E-16	5.036937E-18
6.050000E+03	1.014994E-16	5.031408E-18
6.060000E+03	1.015030E-16	5.025755E-18
6.070000E+03	1.015117E-16	5.020499E-18
6.080000E+03	1.015335E-16	5.016043E-18
6.090000E+03	1.015781E-16	5.012861E-18
6.100000E+03	1.016564E-16	5.011491E-18
6.110000E+03	1.017757E-16	5.012296E-18
6.120000E+03	1.019530E-16	5.016102E-18
6.130000E+03	1.022006E-16	5.023514E-18
6.140000E+03	1.025265E-16	5.034922E-18
6.150000E+03	1.029516E-16	5.051341E-18
6.160000E+03	1.034783E-16	5.072880E-18
6.170000E+03	1.041214E-16	5.100252E-18
6.180000E+03	1.048899E-16	5.133880E-18
6.190000E+03	1.057871E-16	5.173907E-18
6.200000E+03	1.068233E-16	5.220825E-18
6.210000E+03	1.080067E-16	5.275018E-18
6.220000E+03	1.093243E-16	5.335834E-18
6.230000E+03	1.107885E-16	5.403871E-18
6.240000E+03	1.123904E-16	5.478671E-18
6.250000E+03	1.141180E-16	5.559643E-18
6.260000E+03	1.159709E-16	5.646756E-18
6.270000E+03	1.179256E-16	5.738863E-18
6.280000E+03	1.199703E-16	5.835371E-18
6.290000E+03	1.220785E-16	5.934997E-18
6.300000E+03	1.242363E-16	6.037051E-18
6.310000E+03	1.264096E-16	6.139877E-18
6.320000E+03	1.285601E-16	6.241619E-18
6.330000E+03	1.306580E-16	6.340823E-18
6.340000E+03	1.326652E-16	6.435651E-18
6.350000E+03	1.345429E-16	6.524215E-18
6.360000E+03	1.362523E-16	6.604647E-18
6.370000E+03	1.377569E-16	6.675179E-18
6.380000E+03	1.390235E-16	6.734215E-18
6.390000E+03	1.400244E-16	6.780419E-18
6.400000E+03	1.407318E-16	6.812449E-18
6.410000E+03	1.411379E-16	6.829942E-18
6.420000E+03	1.412426E-16	6.832896E-18
6.430000E+03	1.410348E-16	6.820787E-18
6.440000E+03	1.405292E-16	6.794326E-18
6.450000E+03	1.397401E-16	6.754217E-18
6.460000E+03	1.386931E-16	6.701696E-18
6.470000E+03	1.373985E-16	6.637266E-18
6.480000E+03	1.358812E-16	6.562138E-18
6.490000E+03	1.341791E-16	6.478142E-18
6.500000E+03	1.323113E-16	6.386202E-18
6.510000E+03	1.303020E-16	6.287482E-18
6.520000E+03	1.281734E-16	6.183058E-18
6.530000E+03	1.259452E-16	6.073879E-18
6.540000E+03	1.236293E-16	5.960523E-18
6.550000E+03	1.212519E-16	5.844242E-18
6.560000E+03	1.188198E-16	5.725375E-18
6.570000E+03	1.163389E-16	5.604196E-18
6.580000E+03	1.138291E-16	5.481672E-18
6.590000E+03	1.112887E-16	5.357711E-18
6.600000E+03	1.087353E-16	5.233164E-18
6.610000E+03	1.061711E-16	5.108140E-18
6.620000E+03	1.035983E-16	4.982743E-18
6.630000E+03	1.010333E-16	4.857757E-18
6.640000E+03	9.847335E-17	4.733055E-18
6.650000E+03	9.593404E-17	4.609385E-18
6.660000E+03	9.341728E-17	4.486838E-18
6.670000E+03	9.092519E-17	4.365516E-18
6.680000E+03	8.847203E-17	4.246104E-18
6.690000E+03	8.605924E-17	4.128671E-18
6.700000E+03	8.368829E-17	4.013287E-18
6.710000E+03	8.137175E-17	3.900554E-18
6.720000E+03	7.911016E-17	3.790497E-18
6.730000E+03	7.690752E-17	3.683308E-18
6.740000E+03	7.476399E-17	3.578993E-18
6.750000E+03	7.268956E-17	3.478029E-18
6.760000E+03	7.068345E-17	3.380377E-18
6.770000E+03	6.874797E-17	3.286146E-18
6.780000E+03	6.688517E-17	3.195432E-18
6.790000E+03	6.509688E-17	3.108319E-18
6.800000E+03	6.338475E-17	3.024884E-18
6.810000E+03	6.175035E-17	2.945200E-18
6.820000E+03	6.019517E-17	2.869332E-18
6.830000E+03	5.872059E-17	2.797345E-18
6.840000E+03	5.732800E-17	2.729298E-18
6.850000E+03	5.601869E-17	2.665252E-18
6.860000E+03	5.479391E-17	2.605258E-18
6.870000E+03	5.365736E-17	2.549488E-18
6.880000E+03	5.260521E-17	2.497755E-18
6.890000E+03	5.164102E-17	2.450220E-18
6.900000E+03	5.076814E-17	2.407037E-18
6.910000E+03	4.998270E-17	2.368014E-18
6.920000E+03	4.928782E-17	2.333291E-18
6.930000E+03	4.868634E-17	2.302995E-18
6.940000E+03	4.817422E-17	2.276925E-18
6.950000E+03	4.775631E-17	2.255302E-18
6.960000E+03	4.742838E-17	2.237917E-18
6.970000E+03	4.719497E-17	2.224973E-18
6.980000E+03	4.705381E-17	2.216353E-18
6.990000E+03	4.700260E-17	2.211936E-18
7.000000E+03	4.704534E-17	2.211902E-18
7.010000E+03	4.717936E-17	2.216111E-18
7.020000E+03	4.740170E-17	2.224413E-18
7.030000E+03	4.771581E-17	2.236956E-18
7.040000E+03	4.811814E-17	2.253563E-18
7.050000E+03	4.860474E-17	2.274035E-18
7.060000E+03	4.917805E-17	2.298473E-18
7.070000E+03	4.983328E-17	2.326641E-18
7.080000E+03	5.056746E-17	2.358386E-18
7.090000E+03	5.137478E-17	2.393426E-18
7.100000E+03	5.225624E-17	2.431794E-18
7.110000E+03	5.320537E-17	2.473176E-18
7.120000E+03	5.421526E-17	2.517240E-18
7.130000E+03	5.528645E-17	2.564001E-18
7.140000E+03	5.641184E-17	2.613118E-18
7.150000E+03	5.758411E-17	2.664241E-18
7.160000E+03	5.880407E-17	2.717400E-18
7.170000E+03	6.006172E-17	2.772124E-18
7.180000E+03	6.135830E-17	2.828462E-18
7.190000E+03	6.268376E-17	2.885944E-18
7.200000E+03	6.403973E-17	2.944639E-18
7.210000E+03	6.541594E-17	3.004068E-18
7.220000E+03	6.681103E-17	3.064166E-18
7.230000E+03	6.822381E-17	3.124874E-18
7.240000E+03	6.964323E-17	3.185683E-18
7.250000E+03	7.106756E-17	3.246512E-18
7.260000E+03	7.249158E-17	3.307122E-18
7.270000E+03	7.390966E-17	3.367258E-18
7.280000E+03	7.531567E-17	3.426642E-18
7.290000E+03	7.670291E-17	3.484972E-18
7.300000E+03	7.806033E-17	3.541751E-18
7.310000E+03	7.938725E-17	3.596956E-18
7.320000E+03	8.066734E-17	3.649854E-18
7.330000E+03	8.189871E-17	3.700370E-18
7.340000E+03	8.306323E-17	3.747699E-18
7.350000E+03	8.415383E-17	3.791536E-18
7.360000E+03	8.515898E-17	3.831379E-18
7.370000E+03	8.606678E-17	3.866713E-18
7.380000E+03	8.686097E-17	3.896829E-18
7.390000E+03	8.753792E-17	3.921590E-18
7.400000E+03	8.807760E-17	3.940124E-18
7.410000E+03	8.847341E-17	3.952168E-18
7.420000E+03	8.871997E-17	3.957512E-18
7.430000E+03	8.879638E-17	3.955257E-18
7.440000E+03	8.870955E-17	3.945747E-18
7.450000E+03	8.845168E-17	3.928669E-18
7.460000E+03	8.801776E-17	3.903837E-18
7.470000E+03	8.741453E-17	3.871586E-18
7.480000E+03	8.664756E-17	3.832197E-18
7.490000E+03	8.572562E-17	3.786091E-18
7.500000E+03	8.466051E-17	3.733820E-18
7.510000E+03	8.346262E-17	3.675869E-18
7.520000E+03	8.215293E-17	3.613188E-18
7.530000E+03	8.075014E-17	3.546620E-18
7.540000E+03	7.927434E-17	3.477063E-18
7.550000E+03	7.774657E-17	3.405453E-18
7.560000E+03	7.618467E-17	3.332580E-18
7.570000E+03	7.461423E-17	3.259566E-18
7.580000E+03	7.305662E-17	3.187347E-18
7.590000E+03	7.152892E-17	3.116663E-18
7.600000E+03	7.005776E-17	3.048666E-18
7.610000E+03	6.865403E-17	2.983817E-18
7.620000E+03	6.733709E-17	2.922939E-18
7.630000E+03	6.611698E-17	2.866446E-18
7.640000E+03	6.501048E-17	2.815043E-18
7.650000E+03	6.401722E-17	2.768690E-18
7.660000E+03	6.313963E-17	2.727471E-18
7.670000E+03	6.238340E-17	2.691608E-18
7.680000E+03	6.173968E-17	2.660696E-18
7.690000E+03	6.120763E-17	2.634678E-18
7.700000E+03	6.078233E-17	2.613323E-18
7.710000E+03	6.045503E-17	2.596233E-18
7.720000E+03	6.022250E-17	2.583254E-18
7.730000E+03	6.007801E-17	2.574079E-18
7.740000E+03	6.001433E-17	2.568382E-18
7.750000E+03	6.002089E-17	2.565697E-18
7.760000E+03	6.009268E-17	2.565796E-18
