#wls	flux	fluxerr
1.588266E+03	3.657332E-03	6.803134E-05
1.627973E+03	3.762419E-03	6.998497E-05
1.667679E+03	3.873704E-03	7.205380E-05
1.707386E+03	3.991224E-03	7.423851E-05
1.747092E+03	4.115338E-03	7.654573E-05
1.786799E+03	4.246708E-03	7.898780E-05
1.826506E+03	4.384524E-03	8.154965E-05
1.866212E+03	4.529705E-03	8.424833E-05
1.905919E+03	4.682039E-03	8.707991E-05
1.945626E+03	4.841266E-03	9.003950E-05
1.985332E+03	5.006717E-03	9.311470E-05
2.025039E+03	5.178022E-03	9.629859E-05
2.064746E+03	5.354075E-03	9.957058E-05
2.104452E+03	5.533065E-03	1.028970E-04
2.144159E+03	5.714176E-03	1.062626E-04
2.183866E+03	5.895241E-03	1.096272E-04
2.223572E+03	6.074449E-03	1.129570E-04
2.263279E+03	6.250652E-03	1.162306E-04
2.302986E+03	6.423334E-03	1.194386E-04
2.342692E+03	6.592870E-03	1.225878E-04
2.382399E+03	6.759860E-03	1.256895E-04
2.422105E+03	6.924786E-03	1.287525E-04
2.461812E+03	7.088907E-03	1.318002E-04
2.501519E+03	7.252397E-03	1.348360E-04
2.541225E+03	7.415898E-03	1.378717E-04
2.580932E+03	7.579022E-03	1.409001E-04
2.620639E+03	7.741552E-03	1.439172E-04
2.660345E+03	7.902587E-03	1.469061E-04
2.700052E+03	8.061177E-03	1.498493E-04
2.739759E+03	8.216286E-03	1.527275E-04
2.779465E+03	8.366563E-03	1.555156E-04
2.819172E+03	8.510645E-03	1.581881E-04
2.858879E+03	8.647619E-03	1.607282E-04
2.898585E+03	8.776058E-03	1.631094E-04
2.938292E+03	8.895639E-03	1.653257E-04
2.977999E+03	9.005299E-03	1.673572E-04
2.987925E+03	9.031336E-03	1.678394E-04
2.997852E+03	9.056575E-03	1.683068E-04
3.007779E+03	9.080991E-03	1.687588E-04
3.017705E+03	9.104948E-03	1.692023E-04
3.027632E+03	9.128217E-03	1.696331E-04
3.037559E+03	9.150769E-03	1.700504E-04
3.047485E+03	9.172769E-03	1.704575E-04
3.057412E+03	9.193981E-03	1.708500E-04
3.067339E+03	9.214376E-03	1.712272E-04
3.077265E+03	9.234313E-03	1.715959E-04
3.087192E+03	9.253368E-03	1.719482E-04
3.097118E+03	9.271700E-03	1.722870E-04
3.107045E+03	9.289098E-03	1.726085E-04
3.116972E+03	9.306078E-03	1.729222E-04
3.126898E+03	9.322059E-03	1.732173E-04
3.136825E+03	9.337188E-03	1.734965E-04
3.146752E+03	9.351623E-03	1.737629E-04
3.156678E+03	9.365317E-03	1.740154E-04
3.166605E+03	9.377901E-03	1.742474E-04
3.176532E+03	9.389856E-03	1.744676E-04
3.186458E+03	9.400812E-03	1.746692E-04
3.196385E+03	9.410915E-03	1.748550E-04
3.206312E+03	9.419954E-03	1.750210E-04
3.216238E+03	9.428083E-03	1.751701E-04
3.226165E+03	9.435271E-03	1.753016E-04
3.236092E+03	9.441483E-03	1.754151E-04
3.246018E+03	9.446538E-03	1.755070E-04
3.255945E+03	9.450576E-03	1.755800E-04
3.265872E+03	9.453567E-03	1.756335E-04
3.275798E+03	9.455331E-03	1.756642E-04
3.285725E+03	9.456012E-03	1.756749E-04
3.295652E+03	9.455430E-03	1.756620E-04
3.305578E+03	9.453726E-03	1.756283E-04
3.315505E+03	9.450722E-03	1.755704E-04
3.325432E+03	9.446420E-03	1.754884E-04
3.335358E+03	9.440795E-03	1.753818E-04
3.345285E+03	9.433842E-03	1.752505E-04
3.355212E+03	9.425555E-03	1.750944E-04
3.365138E+03	9.415781E-03	1.749107E-04
3.375065E+03	9.404661E-03	1.747020E-04
3.384992E+03	9.391918E-03	1.744632E-04
3.394918E+03	9.377819E-03	1.741991E-04
3.404845E+03	9.362102E-03	1.739050E-04
3.414772E+03	9.344782E-03	1.735811E-04
3.424698E+03	9.325856E-03	1.732274E-04
3.434625E+03	9.305215E-03	1.728418E-04
3.444552E+03	9.283004E-03	1.724271E-04
3.454478E+03	9.259107E-03	1.719810E-04
3.464405E+03	9.233429E-03	1.715018E-04
3.474332E+03	9.205993E-03	1.709901E-04
3.484258E+03	9.176707E-03	1.704439E-04
3.494185E+03	9.145721E-03	1.698662E-04
3.504112E+03	9.112726E-03	1.692511E-04
3.514038E+03	9.077873E-03	1.686016E-04
3.523965E+03	9.041093E-03	1.679163E-04
3.533892E+03	9.002432E-03	1.671960E-04
3.543818E+03	8.961726E-03	1.664378E-04
3.553745E+03	8.918933E-03	1.656408E-04
3.563672E+03	8.874207E-03	1.648079E-04
3.573598E+03	8.827312E-03	1.639348E-04
3.583525E+03	8.778418E-03	1.630246E-04
3.593452E+03	8.727497E-03	1.620767E-04
3.603378E+03	8.674426E-03	1.610889E-04
3.613305E+03	8.619197E-03	1.600611E-04
3.623232E+03	8.561899E-03	1.589948E-04
3.633158E+03	8.502433E-03	1.578883E-04
3.643085E+03	8.440986E-03	1.567451E-04
3.653012E+03	8.377389E-03	1.555619E-04
3.662938E+03	8.311740E-03	1.543407E-04
3.672865E+03	8.244063E-03	1.530818E-04
3.682792E+03	8.174471E-03	1.517874E-04
3.692718E+03	8.102892E-03	1.504561E-04
3.702645E+03	8.029456E-03	1.490904E-04
3.712572E+03	7.954192E-03	1.476908E-04
3.722498E+03	7.877213E-03	1.462593E-04
3.732425E+03	7.798570E-03	1.447970E-04
3.742352E+03	7.718369E-03	1.433058E-04
3.752278E+03	7.636659E-03	1.417866E-04
3.762205E+03	7.553490E-03	1.402404E-04
3.772131E+03	7.469123E-03	1.386720E-04
3.782058E+03	7.383469E-03	1.370796E-04
3.791985E+03	7.296711E-03	1.354669E-04
3.801911E+03	7.209035E-03	1.338371E-04
3.811838E+03	7.120425E-03	1.321900E-04
3.821765E+03	7.030992E-03	1.305278E-04
3.831691E+03	6.940913E-03	1.288535E-04
3.841618E+03	6.850306E-03	1.271695E-04
3.851545E+03	6.759275E-03	1.254776E-04
3.861471E+03	6.667856E-03	1.237786E-04
3.871398E+03	6.576220E-03	1.220756E-04
3.881325E+03	6.484466E-03	1.203705E-04
3.891251E+03	6.392689E-03	1.186650E-04
3.901178E+03	6.300983E-03	1.169609E-04
3.911105E+03	6.209436E-03	1.152597E-04
3.921031E+03	6.118200E-03	1.135644E-04
3.930958E+03	6.027352E-03	1.118763E-04
3.940885E+03	5.936922E-03	1.101960E-04
3.950811E+03	5.847096E-03	1.085270E-04
3.960738E+03	5.757889E-03	1.068695E-04
3.970665E+03	5.669426E-03	1.052259E-04
3.980591E+03	5.581773E-03	1.035973E-04
3.990518E+03	5.494945E-03	1.019841E-04
4.000445E+03	5.409102E-03	1.003893E-04
4.010371E+03	5.324250E-03	9.881284E-05
4.020298E+03	5.240491E-03	9.725675E-05
4.030225E+03	5.157876E-03	9.572193E-05
4.040151E+03	5.076451E-03	9.420924E-05
4.050078E+03	4.996262E-03	9.271952E-05
4.060005E+03	4.917392E-03	9.125434E-05
4.069931E+03	4.839838E-03	8.981360E-05
4.079858E+03	4.763634E-03	8.839798E-05
4.089785E+03	4.688898E-03	8.700964E-05
4.099711E+03	4.615577E-03	8.564759E-05
4.109638E+03	4.543740E-03	8.431312E-05
4.119565E+03	4.473412E-03	8.300669E-05
4.129491E+03	4.404615E-03	8.172871E-05
4.139418E+03	4.337372E-03	8.047959E-05
4.149345E+03	4.271699E-03	7.925966E-05
4.159271E+03	4.207614E-03	7.806922E-05
4.169198E+03	4.145132E-03	7.690855E-05
4.179125E+03	4.084265E-03	7.577789E-05
4.189051E+03	4.025023E-03	7.467742E-05
4.198978E+03	3.967382E-03	7.360668E-05
4.208905E+03	3.911350E-03	7.256583E-05
4.218831E+03	3.856967E-03	7.155560E-05
4.228758E+03	3.804237E-03	7.057607E-05
4.238685E+03	3.753097E-03	6.962606E-05
4.248611E+03	3.703580E-03	6.870620E-05
4.258538E+03	3.655687E-03	6.781649E-05
4.268465E+03	3.609414E-03	6.695687E-05
4.278391E+03	3.564758E-03	6.612727E-05
4.288318E+03	3.521680E-03	6.532695E-05
4.298245E+03	3.480232E-03	6.455691E-05
4.308171E+03	3.440342E-03	6.381579E-05
4.318098E+03	3.402056E-03	6.310444E-05
4.328025E+03	3.365355E-03	6.242251E-05
4.337951E+03	3.330247E-03	6.177017E-05
4.347878E+03	3.296708E-03	6.114694E-05
4.357805E+03	3.264738E-03	6.055282E-05
4.367731E+03	3.234303E-03	5.998720E-05
4.377658E+03	3.205425E-03	5.945047E-05
4.387585E+03	3.178063E-03	5.894189E-05
4.397511E+03	3.152174E-03	5.846061E-05
4.407438E+03	3.127767E-03	5.800685E-05
4.417365E+03	3.104791E-03	5.757965E-05
4.427291E+03	3.083223E-03	5.717857E-05
4.437218E+03	3.063065E-03	5.680364E-05
4.447144E+03	3.044232E-03	5.645331E-05
4.457071E+03	3.026726E-03	5.612759E-05
4.466998E+03	3.010518E-03	5.582594E-05
4.476924E+03	2.995552E-03	5.554732E-05
4.486851E+03	2.981801E-03	5.529127E-05
4.496778E+03	2.969241E-03	5.505729E-05
4.506704E+03	2.957848E-03	5.484496E-05
4.516631E+03	2.947602E-03	5.465391E-05
4.526558E+03	2.938457E-03	5.448327E-05
4.536484E+03	2.930369E-03	5.433223E-05
4.546411E+03	2.923381E-03	5.420159E-05
4.556338E+03	2.917428E-03	5.409015E-05
4.566264E+03	2.912477E-03	5.399727E-05
4.576191E+03	2.908550E-03	5.392339E-05
4.586118E+03	2.905648E-03	5.386852E-05
4.596044E+03	2.903690E-03	5.383114E-05
4.605971E+03	2.902766E-03	5.381292E-05
4.615898E+03	2.902772E-03	5.381194E-05
4.625824E+03	2.903775E-03	5.382945E-05
4.635751E+03	2.905761E-03	5.386518E-05
4.645678E+03	2.908719E-03	5.391892E-05
4.655604E+03	2.912638E-03	5.399047E-05
4.665531E+03	2.917511E-03	5.407969E-05
4.675458E+03	2.923387E-03	5.418752E-05
4.685384E+03	2.930237E-03	5.431337E-05
4.695311E+03	2.938055E-03	5.445716E-05
4.705238E+03	2.946869E-03	5.461941E-05
4.715164E+03	2.956620E-03	5.479902E-05
4.725091E+03	2.967397E-03	5.499762E-05
4.735018E+03	2.979111E-03	5.521359E-05
4.744944E+03	2.991823E-03	5.544806E-05
4.754871E+03	3.005537E-03	5.570106E-05
4.764798E+03	3.020193E-03	5.597150E-05
4.774724E+03	3.035822E-03	5.625999E-05
4.784651E+03	3.052460E-03	5.656714E-05
4.794578E+03	3.070045E-03	5.689184E-05
4.804504E+03	3.088612E-03	5.723470E-05
4.814431E+03	3.108160E-03	5.759576E-05
4.824358E+03	3.128662E-03	5.797445E-05
4.834284E+03	3.150116E-03	5.837077E-05
4.844211E+03	3.172556E-03	5.878534E-05
4.854138E+03	3.195948E-03	5.921753E-05
4.864064E+03	3.220325E-03	5.966794E-05
4.873991E+03	3.245618E-03	6.013532E-05
4.883918E+03	3.271858E-03	6.062022E-05
4.893844E+03	3.299040E-03	6.112256E-05
4.903771E+03	3.327126E-03	6.164161E-05
4.913698E+03	3.356143E-03	6.217789E-05
4.923624E+03	3.386049E-03	6.273062E-05
4.933551E+03	3.416869E-03	6.330026E-05
4.943478E+03	3.448559E-03	6.388599E-05
4.953404E+03	3.481105E-03	6.448754E-05
4.963331E+03	3.514457E-03	6.510400E-05
4.973258E+03	3.548671E-03	6.573639E-05
4.983184E+03	3.583657E-03	6.638308E-05
4.993111E+03	3.619394E-03	6.704364E-05
5.003038E+03	3.655898E-03	6.771836E-05
5.012964E+03	3.693107E-03	6.840613E-05
5.022891E+03	3.730994E-03	6.910643E-05
5.032818E+03	3.769533E-03	6.981876E-05
5.042744E+03	3.808691E-03	7.054253E-05
5.052671E+03	3.848397E-03	7.127643E-05
5.062598E+03	3.888615E-03	7.201978E-05
5.072524E+03	3.929348E-03	7.277262E-05
5.082451E+03	3.970476E-03	7.353275E-05
5.092378E+03	4.012039E-03	7.430090E-05
5.102304E+03	4.053868E-03	7.507396E-05
5.112231E+03	4.096001E-03	7.585260E-05
5.122158E+03	4.138349E-03	7.663520E-05
5.132084E+03	4.180861E-03	7.742079E-05
5.142011E+03	4.223487E-03	7.820847E-05
5.151937E+03	4.266132E-03	7.899646E-05
5.161864E+03	4.308739E-03	7.978372E-05
5.171791E+03	4.351211E-03	8.056844E-05
5.181717E+03	4.393579E-03	8.135122E-05
5.191644E+03	4.435653E-03	8.212851E-05
5.201571E+03	4.477421E-03	8.290009E-05
5.211497E+03	4.518823E-03	8.366489E-05
5.221424E+03	4.559804E-03	8.442185E-05
5.231351E+03	4.600214E-03	8.516821E-05
5.241277E+03	4.640043E-03	8.590378E-05
5.251204E+03	4.679187E-03	8.662664E-05
5.261131E+03	4.717593E-03	8.733581E-05
5.271057E+03	4.755160E-03	8.802942E-05
5.280984E+03	4.791884E-03	8.870741E-05
5.290911E+03	4.827622E-03	8.936710E-05
5.300837E+03	4.862325E-03	9.000763E-05
5.310764E+03	4.895901E-03	9.062726E-05
5.320691E+03	4.928359E-03	9.122617E-05
5.330617E+03	4.959512E-03	9.180091E-05
5.340544E+03	4.989377E-03	9.235179E-05
5.350471E+03	5.017873E-03	9.287731E-05
5.360397E+03	5.044925E-03	9.337608E-05
5.370324E+03	5.070357E-03	9.384486E-05
5.380251E+03	5.094099E-03	9.428235E-05
5.390177E+03	5.116087E-03	9.468735E-05
5.400104E+03	5.136051E-03	9.505488E-05
5.410031E+03	5.153932E-03	9.538385E-05
5.419957E+03	5.169516E-03	9.567031E-05
5.429884E+03	5.182700E-03	9.591235E-05
5.439811E+03	5.193642E-03	9.611288E-05
5.449737E+03	5.202298E-03	9.627111E-05
5.459664E+03	5.208836E-03	9.639015E-05
5.469591E+03	5.213325E-03	9.647128E-05
5.479517E+03	5.215995E-03	9.651875E-05
5.489444E+03	5.216815E-03	9.653200E-05
5.499371E+03	5.215916E-03	9.651343E-05
5.509297E+03	5.213324E-03	9.646355E-05
5.519224E+03	5.209224E-03	9.638579E-05
5.529151E+03	5.203593E-03	9.627970E-05
5.539077E+03	5.196512E-03	9.614680E-05
5.549004E+03	5.188012E-03	9.598764E-05
5.558931E+03	5.178226E-03	9.580472E-05
5.568857E+03	5.167130E-03	9.559759E-05
5.578784E+03	5.154807E-03	9.536776E-05
5.588711E+03	5.141337E-03	9.511673E-05
5.598637E+03	5.126747E-03	9.484498E-05
5.608564E+03	5.111114E-03	9.455398E-05
5.618491E+03	5.094410E-03	9.424319E-05
5.628417E+03	5.076712E-03	9.391402E-05
5.638344E+03	5.058095E-03	9.356788E-05
5.648271E+03	5.038579E-03	9.320511E-05
5.658197E+03	5.018183E-03	9.282611E-05
5.668124E+03	4.996924E-03	9.243117E-05
5.678051E+03	4.974925E-03	9.202256E-05
5.687977E+03	4.952095E-03	9.159861E-05
5.697904E+03	4.928554E-03	9.116153E-05
5.707831E+03	4.904314E-03	9.071155E-05
5.717757E+03	4.879334E-03	9.024791E-05
5.727684E+03	4.853677E-03	8.977178E-05
5.737611E+03	4.827406E-03	8.928432E-05
5.747537E+03	4.800477E-03	8.878471E-05
5.757464E+03	4.772900E-03	8.827314E-05
5.767391E+03	4.744785E-03	8.775167E-05
5.777317E+03	4.716039E-03	8.721855E-05
5.787244E+03	4.686720E-03	8.667486E-05
5.797171E+03	4.656837E-03	8.612077E-05
5.807097E+03	4.626397E-03	8.555643E-05
5.817024E+03	4.595463E-03	8.498296E-05
5.826950E+03	4.563940E-03	8.439865E-05
5.836877E+03	4.531941E-03	8.380557E-05
5.846804E+03	4.499428E-03	8.320300E-05
5.856730E+03	4.466411E-03	8.259116E-05
5.866657E+03	4.432907E-03	8.197033E-05
5.876584E+03	4.398929E-03	8.134077E-05
5.886510E+03	4.364544E-03	8.070374E-05
5.896437E+03	4.329673E-03	8.005774E-05
5.906364E+03	4.294335E-03	7.940314E-05
5.916290E+03	4.258602E-03	7.874128E-05
5.926217E+03	4.222500E-03	7.807261E-05
5.936144E+03	4.185957E-03	7.739583E-05
5.946070E+03	4.149100E-03	7.671329E-05
5.955997E+03	4.111817E-03	7.602288E-05
5.965924E+03	4.074284E-03	7.532791E-05
5.975850E+03	4.036397E-03	7.462641E-05
5.985777E+03	3.998194E-03	7.391912E-05
5.995704E+03	3.959768E-03	7.320773E-05
6.005630E+03	3.921114E-03	7.249217E-05
6.015557E+03	3.882284E-03	7.177336E-05
6.025484E+03	3.843234E-03	7.105054E-05
6.035410E+03	3.804112E-03	7.032642E-05
6.045337E+03	3.764839E-03	6.959954E-05
6.055264E+03	3.725567E-03	6.887271E-05
6.065190E+03	3.686314E-03	6.814627E-05
6.075117E+03	3.647102E-03	6.742061E-05
6.085044E+03	3.608000E-03	6.669701E-05
6.094970E+03	3.569122E-03	6.597759E-05
6.104897E+03	3.530496E-03	6.526285E-05
6.114824E+03	3.492190E-03	6.455407E-05
6.124750E+03	3.454359E-03	6.385408E-05
6.134677E+03	3.416976E-03	6.316240E-05
6.144604E+03	3.380135E-03	6.248078E-05
6.154530E+03	3.343919E-03	6.181074E-05
6.164457E+03	3.308394E-03	6.115348E-05
6.174384E+03	3.273527E-03	6.050842E-05
6.184310E+03	3.239317E-03	5.987553E-05
6.194237E+03	3.205795E-03	5.925537E-05
6.204164E+03	3.172902E-03	5.864687E-05
6.214090E+03	3.140661E-03	5.805042E-05
6.224017E+03	3.109049E-03	5.746563E-05
6.233944E+03	3.078087E-03	5.689289E-05
6.243870E+03	3.047755E-03	5.633180E-05
6.253797E+03	3.018033E-03	5.578199E-05
6.263724E+03	2.988940E-03	5.524386E-05
6.273650E+03	2.960498E-03	5.471776E-05
6.283577E+03	2.932647E-03	5.420260E-05
6.293504E+03	2.905407E-03	5.369874E-05
6.303430E+03	2.878796E-03	5.320653E-05
6.313357E+03	2.852751E-03	5.272481E-05
6.323284E+03	2.827331E-03	5.225464E-05
6.333210E+03	2.802509E-03	5.179555E-05
6.343137E+03	2.778261E-03	5.134707E-05
6.353064E+03	2.754559E-03	5.090870E-05
6.362990E+03	2.731454E-03	5.048138E-05
6.372917E+03	2.708877E-03	5.006383E-05
6.382844E+03	2.686875E-03	4.965692E-05
6.392770E+03	2.665417E-03	4.926009E-05
6.402697E+03	2.644472E-03	4.887273E-05
6.412624E+03	2.624044E-03	4.849496E-05
6.422550E+03	2.604100E-03	4.812613E-05
6.432477E+03	2.584646E-03	4.776637E-05
6.442404E+03	2.565569E-03	4.741358E-05
6.452330E+03	2.546914E-03	4.706861E-05
6.462257E+03	2.528648E-03	4.673083E-05
6.472184E+03	2.510697E-03	4.639890E-05
6.482110E+03	2.493070E-03	4.607296E-05
6.492037E+03	2.475736E-03	4.575243E-05
6.501963E+03	2.458663E-03	4.543675E-05
6.511890E+03	2.441823E-03	4.512538E-05
6.521817E+03	2.425228E-03	4.481854E-05
6.531743E+03	2.408812E-03	4.451502E-05
6.541670E+03	2.392549E-03	4.421434E-05
6.551597E+03	2.376456E-03	4.391682E-05
6.561523E+03	2.360513E-03	4.362206E-05
6.571450E+03	2.344659E-03	4.332896E-05
6.581377E+03	2.328916E-03	4.303792E-05
6.591303E+03	2.313229E-03	4.274793E-05
6.601230E+03	2.297663E-03	4.246017E-05
6.611157E+03	2.282127E-03	4.217297E-05
6.621083E+03	2.266610E-03	4.188614E-05
6.631010E+03	2.251144E-03	4.160025E-05
6.640937E+03	2.235721E-03	4.131517E-05
6.650863E+03	2.220298E-03	4.103010E-05
6.660790E+03	2.204872E-03	4.074497E-05
6.670717E+03	2.189480E-03	4.046048E-05
6.680643E+03	2.174083E-03	4.017591E-05
6.690570E+03	2.158723E-03	3.989202E-05
6.700497E+03	2.143324E-03	3.960743E-05
6.710423E+03	2.127969E-03	3.932364E-05
6.720350E+03	2.112586E-03	3.903935E-05
6.730277E+03	2.097259E-03	3.875609E-05
6.740203E+03	2.081918E-03	3.847260E-05
6.750130E+03	2.066612E-03	3.818974E-05
6.760057E+03	2.051351E-03	3.790771E-05
6.769983E+03	2.036105E-03	3.762598E-05
6.779910E+03	2.020925E-03	3.734548E-05
6.789837E+03	2.005785E-03	3.706571E-05
6.799763E+03	1.990734E-03	3.678759E-05
6.809690E+03	1.975711E-03	3.650999E-05
6.819617E+03	1.960802E-03	3.623451E-05
6.829543E+03	1.945984E-03	3.596071E-05
6.839470E+03	1.931270E-03	3.568883E-05
6.849397E+03	1.916637E-03	3.541846E-05
6.859323E+03	1.902171E-03	3.515119E-05
6.869250E+03	1.887776E-03	3.488523E-05
6.879177E+03	1.873576E-03	3.462287E-05
6.889103E+03	1.859510E-03	3.436299E-05
6.899030E+03	1.845592E-03	3.410585E-05
6.908957E+03	1.831869E-03	3.385233E-05
6.918883E+03	1.818320E-03	3.360200E-05
6.928810E+03	1.804955E-03	3.335510E-05
6.938737E+03	1.791787E-03	3.311185E-05
6.948663E+03	1.778827E-03	3.287243E-05
6.958590E+03	1.766088E-03	3.263709E-05
6.968517E+03	1.753543E-03	3.240535E-05
6.978443E+03	1.741273E-03	3.217870E-05
6.988370E+03	1.729185E-03	3.195541E-05
6.998297E+03	1.717391E-03	3.173755E-05
7.008223E+03	1.705797E-03	3.152340E-05
7.018150E+03	1.694480E-03	3.131437E-05
7.028077E+03	1.683415E-03	3.111000E-05
7.038003E+03	1.672610E-03	3.091044E-05
7.047930E+03	1.662105E-03	3.071641E-05
7.057857E+03	1.651840E-03	3.052684E-05
7.067783E+03	1.641856E-03	3.034246E-05
7.077710E+03	1.632125E-03	3.016276E-05
7.087637E+03	1.622687E-03	2.998847E-05
7.097563E+03	1.613547E-03	2.981968E-05
7.107490E+03	1.604676E-03	2.965588E-05
7.117417E+03	1.596113E-03	2.949778E-05
7.127343E+03	1.587796E-03	2.934421E-05
7.137270E+03	1.579795E-03	2.919650E-05
7.147197E+03	1.572080E-03	2.905407E-05
7.157123E+03	1.564623E-03	2.891641E-05
7.167050E+03	1.557458E-03	2.878415E-05
7.176976E+03	1.550588E-03	2.865734E-05
7.186903E+03	1.543983E-03	2.853545E-05
7.196830E+03	1.537646E-03	2.841850E-05
7.206756E+03	1.531578E-03	2.830652E-05
7.216683E+03	1.525779E-03	2.819954E-05
7.226610E+03	1.520252E-03	2.809756E-05
7.236536E+03	1.514932E-03	2.799944E-05
7.246463E+03	1.509885E-03	2.790634E-05
7.256390E+03	1.505078E-03	2.781770E-05
7.266316E+03	1.500480E-03	2.773290E-05
7.276243E+03	1.496120E-03	2.765253E-05
7.286170E+03	1.491937E-03	2.757542E-05
7.296096E+03	1.487928E-03	2.750153E-05
7.306023E+03	1.484092E-03	2.743085E-05
7.315950E+03	1.480397E-03	2.736277E-05
7.325876E+03	1.476870E-03	2.729781E-05
7.335803E+03	1.473417E-03	2.723421E-05
7.345730E+03	1.470097E-03	2.717307E-05
7.355656E+03	1.466844E-03	2.711318E-05
7.365583E+03	1.463687E-03	2.705507E-05
7.375510E+03	1.460592E-03	2.699809E-05
7.385436E+03	1.457554E-03	2.694219E-05
7.395363E+03	1.454601E-03	2.688785E-05
7.405290E+03	1.451699E-03	2.683446E-05
7.415216E+03	1.448936E-03	2.678365E-05
7.425143E+03	1.446248E-03	2.673423E-05
7.435070E+03	1.443694E-03	2.668728E-05
7.444996E+03	1.441239E-03	2.664218E-05
7.454923E+03	1.438975E-03	2.660060E-05
7.464850E+03	1.436869E-03	2.656195E-05
7.474776E+03	1.434920E-03	2.652621E-05
7.484703E+03	1.433158E-03	2.649394E-05
7.494630E+03	1.431585E-03	2.646516E-05
7.504556E+03	1.430265E-03	2.644106E-05
7.514483E+03	1.429138E-03	2.642052E-05
7.524410E+03	1.428237E-03	2.640419E-05
7.534336E+03	1.427600E-03	2.639272E-05
7.544263E+03	1.427198E-03	2.638562E-05
7.554190E+03	1.427067E-03	2.638351E-05
7.564116E+03	1.427177E-03	2.638589E-05
7.574043E+03	1.427595E-03	2.639396E-05
7.583970E+03	1.428253E-03	2.640647E-05
7.593896E+03	1.429210E-03	2.642451E-05
7.603823E+03	1.430391E-03	2.644670E-05
7.613750E+03	1.431849E-03	2.647401E-05
7.623676E+03	1.433502E-03	2.650494E-05
7.633603E+03	1.435398E-03	2.654037E-05
7.643530E+03	1.437488E-03	2.657940E-05
7.653456E+03	1.439755E-03	2.662169E-05
7.663383E+03	1.442182E-03	2.666694E-05
7.673310E+03	1.444751E-03	2.671486E-05
7.683236E+03	1.447451E-03	2.676517E-05
7.693163E+03	1.450232E-03	2.681701E-05
7.703090E+03	1.453152E-03	2.687140E-05
