#wls	flux	fluxerr
1.588266E+03	1.832536E-03	4.119144E-05
1.627973E+03	1.858882E-03	4.172574E-05
1.667679E+03	1.886025E-03	4.227476E-05
1.707386E+03	1.912855E-03	4.281349E-05
1.747092E+03	1.940384E-03	4.336447E-05
1.786799E+03	1.968572E-03	4.392663E-05
1.826506E+03	1.996992E-03	4.449030E-05
1.866212E+03	2.025954E-03	4.506223E-05
1.905919E+03	2.055777E-03	4.564934E-05
1.945626E+03	2.086401E-03	4.625010E-05
1.985332E+03	2.118150E-03	4.687145E-05
2.025039E+03	2.150954E-03	4.751160E-05
2.064746E+03	2.184734E-03	4.816854E-05
2.104452E+03	2.220204E-03	4.885775E-05
2.144159E+03	2.256867E-03	4.956794E-05
2.183866E+03	2.295019E-03	5.030530E-05
2.223572E+03	2.334119E-03	5.105764E-05
2.263279E+03	2.374847E-03	5.183953E-05
2.302986E+03	2.416207E-03	5.262890E-05
2.342692E+03	2.458426E-03	5.343040E-05
2.382399E+03	2.501294E-03	5.423916E-05
2.422105E+03	2.544160E-03	5.504086E-05
2.461812E+03	2.587195E-03	5.583897E-05
2.501519E+03	2.629702E-03	5.661832E-05
2.541225E+03	2.671396E-03	5.737264E-05
2.580932E+03	2.711974E-03	5.809541E-05
2.620639E+03	2.751118E-03	5.877985E-05
2.660345E+03	2.788503E-03	5.941907E-05
2.700052E+03	2.823795E-03	6.000614E-05
2.739759E+03	2.856658E-03	6.053413E-05
2.779465E+03	2.886348E-03	6.098759E-05
2.819172E+03	2.912946E-03	6.136867E-05
2.858879E+03	2.935341E-03	6.165451E-05
2.898585E+03	2.954034E-03	6.185627E-05
2.938292E+03	2.969120E-03	6.197656E-05
2.977999E+03	2.980688E-03	6.201787E-05
2.987925E+03	2.982810E-03	6.201133E-05
2.997852E+03	2.985249E-03	6.201109E-05
3.007779E+03	2.987253E-03	6.200150E-05
3.017705E+03	2.989190E-03	6.199020E-05
3.027632E+03	2.991051E-03	6.197703E-05
3.037559E+03	2.992467E-03	6.195433E-05
3.047485E+03	2.994160E-03	6.193709E-05
3.057412E+03	2.995398E-03	6.191014E-05
3.067339E+03	2.996896E-03	6.188826E-05
3.077265E+03	2.998286E-03	6.186387E-05
3.087192E+03	2.999209E-03	6.182955E-05
3.097118E+03	3.000364E-03	6.179974E-05
3.107045E+03	3.001392E-03	6.176706E-05
3.116972E+03	3.002633E-03	6.173845E-05
3.126898E+03	3.003730E-03	6.170660E-05
3.136825E+03	3.004676E-03	6.167138E-05
3.146752E+03	3.005806E-03	6.163965E-05
3.156678E+03	3.006769E-03	6.160421E-05
3.166605E+03	3.008228E-03	6.157865E-05
3.176532E+03	3.009500E-03	6.154898E-05
3.186458E+03	3.010909E-03	6.152182E-05
3.196385E+03	3.012442E-03	6.149688E-05
3.206312E+03	3.014086E-03	6.147393E-05
3.216238E+03	3.015829E-03	6.145268E-05
3.226165E+03	3.017660E-03	6.143291E-05
3.236092E+03	3.019881E-03	6.142077E-05
3.246018E+03	3.022475E-03	6.141588E-05
3.255945E+03	3.025108E-03	6.141144E-05
3.265872E+03	3.028079E-03	6.141352E-05
3.275798E+03	3.031368E-03	6.142168E-05
3.285725E+03	3.034955E-03	6.143550E-05
3.295652E+03	3.038821E-03	6.145460E-05
3.305578E+03	3.043246E-03	6.148459E-05
3.315505E+03	3.047907E-03	6.151891E-05
3.325432E+03	3.053078E-03	6.156312E-05
3.335358E+03	3.058732E-03	6.161662E-05
3.345285E+03	3.064554E-03	6.167301E-05
3.355212E+03	3.071099E-03	6.174348E-05
3.365138E+03	3.078047E-03	6.182154E-05
3.375065E+03	3.085656E-03	6.191232E-05
3.384992E+03	3.093889E-03	6.201510E-05
3.394918E+03	3.102438E-03	6.212361E-05
3.404845E+03	3.111824E-03	6.224829E-05
3.414772E+03	3.121465E-03	6.237743E-05
3.424698E+03	3.131872E-03	6.252123E-05
3.434625E+03	3.143004E-03	6.267882E-05
3.444552E+03	3.154821E-03	6.284937E-05
3.454478E+03	3.167284E-03	6.303203E-05
3.464405E+03	3.180353E-03	6.322598E-05
3.474332E+03	3.194244E-03	6.343549E-05
3.484258E+03	3.208659E-03	6.365455E-05
3.494185E+03	3.223809E-03	6.388734E-05
3.504112E+03	3.239649E-03	6.413291E-05
3.514038E+03	3.256136E-03	6.439035E-05
3.523965E+03	3.273223E-03	6.465872E-05
3.533892E+03	3.291107E-03	6.494186E-05
3.543818E+03	3.309738E-03	6.523870E-05
3.553745E+03	3.329065E-03	6.554821E-05
3.563672E+03	3.348812E-03	6.586490E-05
3.573598E+03	3.369390E-03	6.619684E-05
3.583525E+03	3.390523E-03	6.653851E-05
3.593452E+03	3.412385E-03	6.689334E-05
3.603378E+03	3.434703E-03	6.725590E-05
3.613305E+03	3.457653E-03	6.762959E-05
3.623232E+03	3.481183E-03	6.801337E-05
3.633158E+03	3.505030E-03	6.840206E-05
3.643085E+03	3.529572E-03	6.880301E-05
3.653012E+03	3.554550E-03	6.921112E-05
3.662938E+03	3.579915E-03	6.962541E-05
3.672865E+03	3.605624E-03	7.004500E-05
3.682792E+03	3.631831E-03	7.047287E-05
3.692718E+03	3.658290E-03	7.090421E-05
3.702645E+03	3.684961E-03	7.133822E-05
3.712572E+03	3.712187E-03	7.178151E-05
3.722498E+03	3.739345E-03	7.222205E-05
3.732425E+03	3.766969E-03	7.267007E-05
3.742352E+03	3.794453E-03	7.311393E-05
3.752278E+03	3.822317E-03	7.356359E-05
3.762205E+03	3.850154E-03	7.401124E-05
3.772131E+03	3.877931E-03	7.445622E-05
3.782058E+03	3.905970E-03	7.490470E-05
3.791985E+03	3.933708E-03	7.534590E-05
3.801911E+03	3.961636E-03	7.578923E-05
3.811838E+03	3.989211E-03	7.622427E-05
3.821765E+03	4.016909E-03	7.666017E-05
3.831691E+03	4.044205E-03	7.708689E-05
3.841618E+03	4.071407E-03	7.751030E-05
3.851545E+03	4.098326E-03	7.792686E-05
3.861471E+03	4.124944E-03	7.833620E-05
3.871398E+03	4.151090E-03	7.873511E-05
3.881325E+03	4.177055E-03	7.912916E-05
3.891251E+03	4.202671E-03	7.951516E-05
3.901178E+03	4.227776E-03	7.989006E-05
3.911105E+03	4.252361E-03	8.025377E-05
3.921031E+03	4.276568E-03	8.060898E-05
3.930958E+03	4.300245E-03	8.095284E-05
3.940885E+03	4.323391E-03	8.128539E-05
3.950811E+03	4.345867E-03	8.160406E-05
3.960738E+03	4.367953E-03	8.191414E-05
3.970665E+03	4.389243E-03	8.220806E-05
3.980591E+03	4.410015E-03	8.249109E-05
3.990518E+03	4.430147E-03	8.276097E-05
4.000445E+03	4.449522E-03	8.301557E-05
4.010371E+03	4.468291E-03	8.325778E-05
4.020298E+03	4.486350E-03	8.348570E-05
4.030225E+03	4.503852E-03	8.370222E-05
4.040151E+03	4.520583E-03	8.390341E-05
4.050078E+03	4.536582E-03	8.409007E-05
4.060005E+03	4.552011E-03	8.426524E-05
4.069931E+03	4.566791E-03	8.442752E-05
4.079858E+03	4.580967E-03	8.457779E-05
4.089785E+03	4.594474E-03	8.471489E-05
4.099711E+03	4.607472E-03	8.484182E-05
4.109638E+03	4.619786E-03	8.495542E-05
4.119565E+03	4.631577E-03	8.505868E-05
4.129491E+03	4.642785E-03	8.515058E-05
4.139418E+03	4.653563E-03	8.523394E-05
4.149345E+03	4.663750E-03	8.530585E-05
4.159271E+03	4.673501E-03	8.536920E-05
4.169198E+03	4.682768E-03	8.542316E-05
4.179125E+03	4.691606E-03	8.546875E-05
4.189051E+03	4.700074E-03	8.550712E-05
4.198978E+03	4.708133E-03	8.553757E-05
4.208905E+03	4.715849E-03	8.556134E-05
4.218831E+03	4.723284E-03	8.557959E-05
4.228758E+03	4.730500E-03	8.559347E-05
4.238685E+03	4.737467E-03	8.560245E-05
4.248611E+03	4.744155E-03	8.560602E-05
4.258538E+03	4.750811E-03	8.560866E-05
4.268465E+03	4.757312E-03	8.560819E-05
4.278391E+03	4.763630E-03	8.560409E-05
4.288318E+03	4.770001E-03	8.560065E-05
4.298245E+03	4.776313E-03	8.559584E-05
4.308171E+03	4.782715E-03	8.559235E-05
4.318098E+03	4.789105E-03	8.558836E-05
4.328025E+03	4.795639E-03	8.558666E-05
4.337951E+03	4.802391E-03	8.558858E-05
4.347878E+03	4.809360E-03	8.559409E-05
4.357805E+03	4.816628E-03	8.560463E-05
4.367731E+03	4.824283E-03	8.562175E-05
4.377658E+03	4.832330E-03	8.564555E-05
4.387585E+03	4.840936E-03	8.567892E-05
4.397511E+03	4.850159E-03	8.572290E-05
4.407438E+03	4.859979E-03	8.577709E-05
4.417365E+03	4.870447E-03	8.584232E-05
4.427291E+03	4.881670E-03	8.592048E-05
4.437218E+03	4.893523E-03	8.600932E-05
4.447144E+03	4.906038E-03	8.610935E-05
4.457071E+03	4.919322E-03	8.622240E-05
4.466998E+03	4.933332E-03	8.634771E-05
4.476924E+03	4.948036E-03	8.648462E-05
4.486851E+03	4.963470E-03	8.663377E-05
4.496778E+03	4.979675E-03	8.679581E-05
4.506704E+03	4.996694E-03	8.697142E-05
4.516631E+03	5.014487E-03	8.715990E-05
4.526558E+03	5.033160E-03	8.736301E-05
4.536484E+03	5.052673E-03	8.758002E-05
4.546411E+03	5.072989E-03	8.781023E-05
4.556338E+03	5.094211E-03	8.805538E-05
4.566264E+03	5.116379E-03	8.831611E-05
4.576191E+03	5.139478E-03	8.859211E-05
4.586118E+03	5.163569E-03	8.888437E-05
4.596044E+03	5.188654E-03	8.919285E-05
4.605971E+03	5.214891E-03	8.952024E-05
4.615898E+03	5.242380E-03	8.986818E-05
4.625824E+03	5.271159E-03	9.023723E-05
4.635751E+03	5.301364E-03	9.062963E-05
4.645678E+03	5.333138E-03	9.104777E-05
4.655604E+03	5.366604E-03	9.149366E-05
4.665531E+03	5.401828E-03	9.196827E-05
4.675458E+03	5.438783E-03	9.247109E-05
4.685384E+03	5.477565E-03	9.300363E-05
4.695311E+03	5.518106E-03	9.356462E-05
4.705238E+03	5.560460E-03	9.415489E-05
4.715164E+03	5.604519E-03	9.477252E-05
4.725091E+03	5.650185E-03	9.541574E-05
4.735018E+03	5.697335E-03	9.608239E-05
4.744944E+03	5.745750E-03	9.676872E-05
4.754871E+03	5.795294E-03	9.747238E-05
4.764798E+03	5.845809E-03	9.819066E-05
4.774724E+03	5.897014E-03	9.891882E-05
4.784651E+03	5.948906E-03	9.965678E-05
4.794578E+03	6.001227E-03	1.004002E-04
4.804504E+03	6.054015E-03	1.011498E-04
4.814431E+03	6.107174E-03	1.019039E-04
4.824358E+03	6.160585E-03	1.026605E-04
4.834284E+03	6.214363E-03	1.034216E-04
4.844211E+03	6.268621E-03	1.041890E-04
4.854138E+03	6.323498E-03	1.049651E-04
4.864064E+03	6.379135E-03	1.057522E-04
4.873991E+03	6.435694E-03	1.065530E-04
4.883918E+03	6.493251E-03	1.073687E-04
4.893844E+03	6.551864E-03	1.082003E-04
4.903771E+03	6.611532E-03	1.090477E-04
4.913698E+03	6.672298E-03	1.099115E-04
4.923624E+03	6.734056E-03	1.107901E-04
4.933551E+03	6.796461E-03	1.116776E-04
4.943478E+03	6.859151E-03	1.125683E-04
4.953404E+03	6.921509E-03	1.134519E-04
4.963331E+03	6.982806E-03	1.143165E-04
4.973258E+03	7.042206E-03	1.151487E-04
4.983184E+03	7.098647E-03	1.159312E-04
4.993111E+03	7.151531E-03	1.166545E-04
5.003038E+03	7.199900E-03	1.173032E-04
5.012964E+03	7.243168E-03	1.178680E-04
5.022891E+03	7.281193E-03	1.183470E-04
5.032818E+03	7.313840E-03	1.187383E-04
5.042744E+03	7.341232E-03	1.190443E-04
5.052671E+03	7.364050E-03	1.192762E-04
5.062598E+03	7.383073E-03	1.194470E-04
5.072524E+03	7.399097E-03	1.195697E-04
5.082451E+03	7.412901E-03	1.196572E-04
5.092378E+03	7.425343E-03	1.197233E-04
5.102304E+03	7.436967E-03	1.197770E-04
5.112231E+03	7.448453E-03	1.198292E-04
5.122158E+03	7.459921E-03	1.198820E-04
5.132084E+03	7.471827E-03	1.199425E-04
5.142011E+03	7.484291E-03	1.200128E-04
5.151937E+03	7.497367E-03	1.200937E-04
5.161864E+03	7.511042E-03	1.201851E-04
5.171791E+03	7.525497E-03	1.202896E-04
5.181717E+03	7.540839E-03	1.204092E-04
5.191644E+03	7.557117E-03	1.205444E-04
5.201571E+03	7.574688E-03	1.207010E-04
5.211497E+03	7.593689E-03	1.208812E-04
5.221424E+03	7.614256E-03	1.210869E-04
5.231351E+03	7.636801E-03	1.213249E-04
5.241277E+03	7.661415E-03	1.215963E-04
5.251204E+03	7.688385E-03	1.219057E-04
5.261131E+03	7.717920E-03	1.222563E-04
5.271057E+03	7.749936E-03	1.226468E-04
5.280984E+03	7.784567E-03	1.230791E-04
5.290911E+03	7.821855E-03	1.235538E-04
5.300837E+03	7.861886E-03	1.240723E-04
5.310764E+03	7.904482E-03	1.246315E-04
5.320691E+03	7.949759E-03	1.252334E-04
5.330617E+03	7.997706E-03	1.258775E-04
5.340544E+03	8.048234E-03	1.265626E-04
5.350471E+03	8.101245E-03	1.272869E-04
5.360397E+03	8.156481E-03	1.280464E-04
5.370324E+03	8.213233E-03	1.288300E-04
5.380251E+03	8.270595E-03	1.296233E-04
5.390177E+03	8.327066E-03	1.304028E-04
5.400104E+03	8.381333E-03	1.311482E-04
5.410031E+03	8.431741E-03	1.318336E-04
5.419957E+03	8.476909E-03	1.324376E-04
5.429884E+03	8.515099E-03	1.329333E-04
5.439811E+03	8.544959E-03	1.332998E-04
5.449737E+03	8.565101E-03	1.335158E-04
5.459664E+03	8.574243E-03	1.335617E-04
5.469591E+03	8.570898E-03	1.334147E-04
5.479517E+03	8.553914E-03	1.330573E-04
5.489444E+03	8.522258E-03	1.324739E-04
5.499371E+03	8.474824E-03	1.316476E-04
5.509297E+03	8.410932E-03	1.305685E-04
5.519224E+03	8.330253E-03	1.292319E-04
5.529151E+03	8.233112E-03	1.276432E-04
5.539077E+03	8.120010E-03	1.258107E-04
5.549004E+03	7.992250E-03	1.237550E-04
5.558931E+03	7.852072E-03	1.215109E-04
5.568857E+03	7.701956E-03	1.191173E-04
5.578784E+03	7.544583E-03	1.166156E-04
5.588711E+03	7.383109E-03	1.140548E-04
5.598637E+03	7.220515E-03	1.114808E-04
5.608564E+03	7.059682E-03	1.089382E-04
5.618491E+03	6.903462E-03	1.064706E-04
5.628417E+03	6.754363E-03	1.041167E-04
5.638344E+03	6.614716E-03	1.019119E-04
5.648271E+03	6.486668E-03	9.988917E-05
5.658197E+03	6.372045E-03	9.807618E-05
5.668124E+03	6.272477E-03	9.649766E-05
5.678051E+03	6.189485E-03	9.517662E-05
5.687977E+03	6.124300E-03	9.413156E-05
5.697904E+03	6.077976E-03	9.337828E-05
5.707831E+03	6.050886E-03	9.292208E-05
5.717757E+03	6.043202E-03	9.276521E-05
5.727684E+03	6.055235E-03	9.291208E-05
5.737611E+03	6.086667E-03	9.335742E-05
5.747537E+03	6.137494E-03	9.410085E-05
5.757464E+03	6.207297E-03	9.513563E-05
5.767391E+03	6.295496E-03	9.645258E-05
5.777317E+03	6.401188E-03	9.803762E-05
5.787244E+03	6.523325E-03	9.987450E-05
5.797171E+03	6.660170E-03	1.019364E-04
5.807097E+03	6.809633E-03	1.041912E-04
5.817024E+03	6.969311E-03	1.066022E-04
5.826950E+03	7.136551E-03	1.091285E-04
5.836877E+03	7.308239E-03	1.117227E-04
5.846804E+03	7.481090E-03	1.143346E-04
5.856730E+03	7.651777E-03	1.169134E-04
5.866657E+03	7.816557E-03	1.194021E-04
5.876584E+03	7.971772E-03	1.217449E-04
5.886510E+03	8.114159E-03	1.238922E-04
5.896437E+03	8.240492E-03	1.257951E-04
5.906364E+03	8.347645E-03	1.274060E-04
5.916290E+03	8.433598E-03	1.286943E-04
5.926217E+03	8.496698E-03	1.296350E-04
5.936144E+03	8.535703E-03	1.302095E-04
5.946070E+03	8.550488E-03	1.304160E-04
5.955997E+03	8.541476E-03	1.302610E-04
5.965924E+03	8.509531E-03	1.297581E-04
5.975850E+03	8.456163E-03	1.289303E-04
5.985777E+03	8.383406E-03	1.278087E-04
5.995704E+03	8.293295E-03	1.264243E-04
6.005630E+03	8.187970E-03	1.248098E-04
6.015557E+03	8.069795E-03	1.230013E-04
6.025484E+03	7.940965E-03	1.210322E-04
6.035410E+03	7.803284E-03	1.189298E-04
6.045337E+03	7.658436E-03	1.167199E-04
6.055264E+03	7.508177E-03	1.144291E-04
6.065190E+03	7.353668E-03	1.120751E-04
6.075117E+03	7.195935E-03	1.096733E-04
6.085044E+03	7.036074E-03	1.072404E-04
6.094970E+03	6.875053E-03	1.047911E-04
6.104897E+03	6.713637E-03	1.023369E-04
6.114824E+03	6.552660E-03	9.989038E-05
6.124750E+03	6.392980E-03	9.746459E-05
6.134677E+03	6.235203E-03	9.506861E-05
6.144604E+03	6.080026E-03	9.271298E-05
6.154530E+03	5.927821E-03	9.040326E-05
6.164457E+03	5.779148E-03	8.814792E-05
6.174384E+03	5.634585E-03	8.595569E-05
6.184310E+03	5.494989E-03	8.383958E-05
6.194237E+03	5.361185E-03	8.181213E-05
6.204164E+03	5.233962E-03	7.988534E-05
6.214090E+03	5.114166E-03	7.807209E-05
6.224017E+03	5.002541E-03	7.638373E-05
6.233944E+03	4.899872E-03	7.483227E-05
6.243870E+03	4.806932E-03	7.342954E-05
6.253797E+03	4.724402E-03	7.218597E-05
6.263724E+03	4.652856E-03	7.111041E-05
6.273650E+03	4.592677E-03	7.020879E-05
6.283577E+03	4.544237E-03	6.948689E-05
6.293504E+03	4.507755E-03	6.894816E-05
6.303430E+03	4.482907E-03	6.858780E-05
6.313357E+03	4.469393E-03	6.840131E-05
6.323284E+03	4.466733E-03	6.838151E-05
6.333210E+03	4.474368E-03	6.851996E-05
6.343137E+03	4.491593E-03	6.880602E-05
6.353064E+03	4.517632E-03	6.922791E-05
6.362990E+03	4.551730E-03	6.977424E-05
6.372917E+03	4.592991E-03	7.043135E-05
6.382844E+03	4.640525E-03	7.118573E-05
6.392770E+03	4.693236E-03	7.202066E-05
6.402697E+03	4.750152E-03	7.292135E-05
6.412624E+03	4.810198E-03	7.387133E-05
6.422550E+03	4.872224E-03	7.485304E-05
6.432477E+03	4.935324E-03	7.585257E-05
6.442404E+03	4.998401E-03	7.685311E-05
6.452330E+03	5.060697E-03	7.784301E-05
6.462257E+03	5.121558E-03	7.881219E-05
6.472184E+03	5.180288E-03	7.974995E-05
6.482110E+03	5.236581E-03	8.065150E-05
6.492037E+03	5.290116E-03	8.151189E-05
6.501963E+03	5.340726E-03	8.232848E-05
6.511890E+03	5.388117E-03	8.309670E-05
6.521817E+03	5.432273E-03	8.381623E-05
6.531743E+03	5.472996E-03	8.448396E-05
6.541670E+03	5.510205E-03	8.509857E-05
6.551597E+03	5.543573E-03	8.565491E-05
6.561523E+03	5.572972E-03	8.615096E-05
6.571450E+03	5.597942E-03	8.657949E-05
6.581377E+03	5.618105E-03	8.693456E-05
6.591303E+03	5.632981E-03	8.720862E-05
6.601230E+03	5.642217E-03	8.739609E-05
6.611157E+03	5.645496E-03	8.749191E-05
6.621083E+03	5.642452E-03	8.749028E-05
6.631010E+03	5.632964E-03	8.738912E-05
6.640937E+03	5.617056E-03	8.718868E-05
6.650863E+03	5.594791E-03	8.688976E-05
6.660790E+03	5.566425E-03	8.649614E-05
6.670717E+03	5.532298E-03	8.601300E-05
6.680643E+03	5.492825E-03	8.544657E-05
6.690570E+03	5.448612E-03	8.480618E-05
6.700497E+03	5.400197E-03	8.410005E-05
6.710423E+03	5.348273E-03	8.333885E-05
6.720350E+03	5.293542E-03	8.253343E-05
6.730277E+03	5.236721E-03	8.169488E-05
6.740203E+03	5.178468E-03	8.083339E-05
6.750130E+03	5.119648E-03	7.996241E-05
6.760057E+03	5.060929E-03	7.909238E-05
6.769983E+03	5.003023E-03	7.823438E-05
6.779910E+03	4.946675E-03	7.740010E-05
6.789837E+03	4.892491E-03	7.659905E-05
6.799763E+03	4.841094E-03	7.584103E-05
6.809690E+03	4.793101E-03	7.513581E-05
6.819617E+03	4.748987E-03	7.449090E-05
6.829543E+03	4.709290E-03	7.391484E-05
6.839470E+03	4.674352E-03	7.341316E-05
6.849397E+03	4.644596E-03	7.299261E-05
6.859323E+03	4.620337E-03	7.265831E-05
6.869250E+03	4.601720E-03	7.241272E-05
6.879177E+03	4.588963E-03	7.225940E-05
6.889103E+03	4.582121E-03	7.219944E-05
6.899030E+03	4.581217E-03	7.223336E-05
6.908957E+03	4.586166E-03	7.236003E-05
6.918883E+03	4.596778E-03	7.257662E-05
6.928810E+03	4.612739E-03	7.287837E-05
6.938737E+03	4.633732E-03	7.326045E-05
6.948663E+03	4.659282E-03	7.371550E-05
6.958590E+03	4.688888E-03	7.423579E-05
6.968517E+03	4.721882E-03	7.481084E-05
6.978443E+03	4.757586E-03	7.543006E-05
6.988370E+03	4.795516E-03	7.608586E-05
6.998297E+03	4.835007E-03	7.676777E-05
7.008223E+03	4.875405E-03	7.746549E-05
7.018150E+03	4.916324E-03	7.817290E-05
7.028077E+03	4.957098E-03	7.887947E-05
7.038003E+03	4.997384E-03	7.957973E-05
7.047930E+03	5.036819E-03	8.026791E-05
7.057857E+03	5.074951E-03	8.093677E-05
7.067783E+03	5.111545E-03	8.158256E-05
7.077710E+03	5.146436E-03	8.220258E-05
7.087637E+03	5.179500E-03	8.279482E-05
7.097563E+03	5.210594E-03	8.335694E-05
7.107490E+03	5.239675E-03	8.388819E-05
7.117417E+03	5.266937E-03	8.439164E-05
7.127343E+03	5.292328E-03	8.486638E-05
7.137270E+03	5.315986E-03	8.531458E-05
7.147197E+03	5.337865E-03	8.573545E-05
7.157123E+03	5.358085E-03	8.613086E-05
7.167050E+03	5.376602E-03	8.650007E-05
7.176976E+03	5.393211E-03	8.683971E-05
7.186903E+03	5.407934E-03	8.715009E-05
7.196830E+03	5.420404E-03	8.742522E-05
7.206756E+03	5.430348E-03	8.766060E-05
7.216683E+03	5.437412E-03	8.785045E-05
7.226610E+03	5.441332E-03	8.799038E-05
7.236536E+03	5.441700E-03	8.807366E-05
7.246463E+03	5.438199E-03	8.809502E-05
7.256390E+03	5.430424E-03	8.804774E-05
7.266316E+03	5.418273E-03	8.792997E-05
7.276243E+03	5.401401E-03	8.773595E-05
7.286170E+03	5.379594E-03	8.746197E-05
7.296096E+03	5.352872E-03	8.710815E-05
7.306023E+03	5.321058E-03	8.667138E-05
7.315950E+03	5.284186E-03	8.615196E-05
7.325876E+03	5.242484E-03	8.555342E-05
7.335803E+03	5.196131E-03	8.487840E-05
7.345730E+03	5.145607E-03	8.413454E-05
7.355656E+03	5.091267E-03	8.332745E-05
7.365583E+03	5.033701E-03	8.246660E-05
7.375510E+03	4.973547E-03	8.156225E-05
7.385436E+03	4.911468E-03	8.062517E-05
7.395363E+03	4.848029E-03	7.966451E-05
7.405290E+03	4.783893E-03	7.869109E-05
7.415216E+03	4.719438E-03	7.771109E-05
7.425143E+03	4.655172E-03	7.673282E-05
7.435070E+03	4.591417E-03	7.576160E-05
7.444996E+03	4.528508E-03	7.480296E-05
7.454923E+03	4.466625E-03	7.385990E-05
7.464850E+03	4.405974E-03	7.293586E-05
7.474776E+03	4.346614E-03	7.203184E-05
7.484703E+03	4.288747E-03	7.115120E-05
7.494630E+03	4.232385E-03	7.029421E-05
7.504556E+03	4.177468E-03	6.945989E-05
7.514483E+03	4.124025E-03	6.864877E-05
7.524410E+03	4.072023E-03	6.786034E-05
7.534336E+03	4.021320E-03	6.709227E-05
7.544263E+03	3.971903E-03	6.634437E-05
7.554190E+03	3.923468E-03	6.561162E-05
7.564116E+03	3.875864E-03	6.489149E-05
7.574043E+03	3.828949E-03	6.418164E-05
7.583970E+03	3.782498E-03	6.347827E-05
7.593896E+03	3.736364E-03	6.277892E-05
7.603823E+03	3.690717E-03	6.208644E-05
7.613750E+03	3.645516E-03	6.140016E-05
7.623676E+03	3.600923E-03	6.072276E-05
7.633603E+03	3.556954E-03	6.005455E-05
7.643530E+03	3.513641E-03	5.939608E-05
7.653456E+03	3.471057E-03	5.874858E-05
7.663383E+03	3.429176E-03	5.811166E-05
7.673310E+03	3.388054E-03	5.748627E-05
7.683236E+03	3.347651E-03	5.687174E-05
7.693163E+03	3.308016E-03	5.626896E-05
7.703090E+03	3.269102E-03	5.567711E-05
