#wls	flux	fluxerr
1.588266E+03	1.167902E-03	6.318336E-05
1.627973E+03	1.193062E-03	6.451742E-05
1.667679E+03	1.218584E-03	6.586929E-05
1.707386E+03	1.244657E-03	6.724899E-05
1.747092E+03	1.271477E-03	6.866714E-05
1.786799E+03	1.298790E-03	7.010980E-05
1.826506E+03	1.326790E-03	7.158736E-05
1.866212E+03	1.355442E-03	7.309784E-05
1.905919E+03	1.384460E-03	7.462573E-05
1.945626E+03	1.414279E-03	7.619436E-05
1.985332E+03	1.444602E-03	7.778757E-05
2.025039E+03	1.475619E-03	7.941544E-05
2.064746E+03	1.507267E-03	8.107455E-05
2.104452E+03	1.539731E-03	8.277468E-05
2.144159E+03	1.572418E-03	8.448374E-05
2.183866E+03	1.606017E-03	8.623875E-05
2.223572E+03	1.640176E-03	8.802054E-05
2.263279E+03	1.675056E-03	8.983765E-05
2.302986E+03	1.710271E-03	9.166924E-05
2.342692E+03	1.746508E-03	9.355203E-05
2.382399E+03	1.783085E-03	9.544926E-05
2.422105E+03	1.820396E-03	9.738186E-05
2.461812E+03	1.858275E-03	9.934089E-05
2.501519E+03	1.896536E-03	1.013161E-04
2.541225E+03	1.935816E-03	1.033415E-04
2.580932E+03	1.975335E-03	1.053752E-04
2.620639E+03	2.015689E-03	1.074489E-04
2.660345E+03	2.056333E-03	1.095333E-04
2.700052E+03	2.097816E-03	1.116575E-04
2.739759E+03	2.139818E-03	1.138043E-04
2.779465E+03	2.182271E-03	1.159699E-04
2.819172E+03	2.225346E-03	1.181632E-04
2.858879E+03	2.268631E-03	1.203623E-04
2.898585E+03	2.312762E-03	1.226006E-04
2.938292E+03	2.357243E-03	1.248517E-04
2.977999E+03	2.402075E-03	1.271155E-04
2.987925E+03	2.413248E-03	1.276787E-04
2.997852E+03	2.424544E-03	1.282480E-04
3.007779E+03	2.435953E-03	1.288229E-04
3.017705E+03	2.447207E-03	1.293893E-04
3.027632E+03	2.458554E-03	1.299601E-04
3.037559E+03	2.469983E-03	1.305349E-04
3.047485E+03	2.481482E-03	1.311130E-04
3.057412E+03	2.492789E-03	1.316806E-04
3.067339E+03	2.504396E-03	1.322636E-04
3.077265E+03	2.515791E-03	1.328350E-04
3.087192E+03	2.527213E-03	1.334075E-04
3.097118E+03	2.538651E-03	1.339804E-04
3.107045E+03	2.550338E-03	1.345661E-04
3.116972E+03	2.561772E-03	1.351380E-04
3.126898E+03	2.573430E-03	1.357214E-04
3.136825E+03	2.584813E-03	1.362898E-04
3.146752E+03	2.596394E-03	1.368682E-04
3.156678E+03	2.608156E-03	1.374558E-04
3.166605E+03	2.619611E-03	1.380268E-04
3.176532E+03	2.631222E-03	1.386056E-04
3.186458E+03	2.642973E-03	1.391914E-04
3.196385E+03	2.654616E-03	1.397711E-04
3.206312E+03	2.666139E-03	1.403440E-04
3.216238E+03	2.677759E-03	1.409216E-04
3.226165E+03	2.689462E-03	1.415032E-04
3.236092E+03	2.701005E-03	1.420760E-04
3.246018E+03	2.712828E-03	1.426630E-04
3.255945E+03	2.724461E-03	1.432397E-04
3.265872E+03	2.736117E-03	1.438171E-04
3.275798E+03	2.747778E-03	1.443944E-04
3.285725E+03	2.759432E-03	1.449708E-04
3.295652E+03	2.771062E-03	1.455456E-04
3.305578E+03	2.782652E-03	1.461178E-04
3.315505E+03	2.794401E-03	1.466981E-04
3.325432E+03	2.805866E-03	1.472629E-04
3.335358E+03	2.817456E-03	1.478339E-04
3.345285E+03	2.829153E-03	1.484100E-04
3.355212E+03	2.840729E-03	1.489794E-04
3.365138E+03	2.852377E-03	1.495522E-04
3.375065E+03	2.863872E-03	1.501165E-04
3.384992E+03	2.875405E-03	1.506823E-04
3.394918E+03	2.886954E-03	1.512486E-04
3.404845E+03	2.898504E-03	1.518144E-04
3.414772E+03	2.910034E-03	1.523788E-04
3.424698E+03	2.921527E-03	1.529408E-04
3.434625E+03	2.932966E-03	1.534996E-04
3.444552E+03	2.944333E-03	1.540542E-04
3.454478E+03	2.955802E-03	1.546137E-04
3.464405E+03	2.967161E-03	1.551670E-04
3.474332E+03	2.978396E-03	1.557134E-04
3.484258E+03	2.989857E-03	1.562711E-04
3.494185E+03	3.000974E-03	1.568105E-04
3.504112E+03	3.012277E-03	1.573592E-04
3.514038E+03	3.023562E-03	1.579064E-04
3.523965E+03	3.034634E-03	1.584421E-04
3.533892E+03	3.045828E-03	1.589838E-04
3.543818E+03	3.056948E-03	1.595212E-04
3.553745E+03	3.067975E-03	1.600534E-04
3.563672E+03	3.078894E-03	1.605794E-04
3.573598E+03	3.089853E-03	1.611071E-04
3.583525E+03	3.100830E-03	1.616354E-04
3.593452E+03	3.111643E-03	1.621547E-04
3.603378E+03	3.122437E-03	1.626725E-04
3.613305E+03	3.133193E-03	1.631880E-04
3.623232E+03	3.143891E-03	1.637001E-04
3.633158E+03	3.154513E-03	1.642078E-04
3.643085E+03	3.165041E-03	1.647102E-04
3.653012E+03	3.175612E-03	1.652143E-04
3.662938E+03	3.186051E-03	1.657113E-04
3.672865E+03	3.196492E-03	1.662080E-04
3.682792E+03	3.206770E-03	1.666957E-04
3.692718E+03	3.217014E-03	1.671813E-04
3.702645E+03	3.227348E-03	1.676712E-04
3.712572E+03	3.237468E-03	1.681496E-04
3.722498E+03	3.247502E-03	1.686231E-04
3.732425E+03	3.257432E-03	1.690909E-04
3.742352E+03	3.267382E-03	1.695592E-04
3.752278E+03	3.277195E-03	1.700201E-04
3.762205E+03	3.286991E-03	1.704798E-04
3.772131E+03	3.296624E-03	1.709306E-04
3.782058E+03	3.306207E-03	1.713785E-04
3.791985E+03	3.315727E-03	1.718227E-04
3.801911E+03	3.325169E-03	1.722625E-04
3.811838E+03	3.334518E-03	1.726972E-04
3.821765E+03	3.343761E-03	1.731260E-04
3.831691E+03	3.353007E-03	1.735546E-04
3.841618E+03	3.362003E-03	1.739700E-04
3.851545E+03	3.370977E-03	1.743838E-04
3.861471E+03	3.379915E-03	1.747954E-04
3.871398E+03	3.388690E-03	1.751983E-04
3.881325E+03	3.397407E-03	1.755979E-04
3.891251E+03	3.405944E-03	1.759878E-04
3.901178E+03	3.414514E-03	1.763791E-04
3.911105E+03	3.422888E-03	1.767600E-04
3.921031E+03	3.431168E-03	1.771358E-04
3.930958E+03	3.439243E-03	1.775006E-04
3.940885E+03	3.447317E-03	1.778651E-04
3.950811E+03	3.455280E-03	1.782236E-04
3.960738E+03	3.463024E-03	1.785705E-04
3.970665E+03	3.470750E-03	1.789162E-04
3.980591E+03	3.478353E-03	1.792552E-04
3.990518E+03	3.485735E-03	1.795827E-04
4.000445E+03	3.493089E-03	1.799084E-04
4.010371E+03	3.500224E-03	1.802226E-04
4.020298E+03	3.507237E-03	1.805303E-04
4.030225E+03	3.514131E-03	1.808315E-04
4.040151E+03	3.520907E-03	1.811266E-04
4.050078E+03	3.527482E-03	1.814110E-04
4.060005E+03	3.533862E-03	1.816852E-04
4.069931E+03	3.540143E-03	1.819541E-04
4.079858E+03	3.546247E-03	1.822137E-04
4.089785E+03	3.552267E-03	1.824688E-04
4.099711E+03	3.557964E-03	1.827071E-04
4.109638E+03	3.563601E-03	1.829421E-04
4.119565E+03	3.569027E-03	1.831662E-04
4.129491E+03	3.574258E-03	1.833801E-04
4.139418E+03	3.579313E-03	1.835848E-04
4.149345E+03	3.584133E-03	1.837773E-04
4.159271E+03	3.588740E-03	1.839588E-04
4.169198E+03	3.593233E-03	1.841343E-04
4.179125E+03	3.597483E-03	1.842973E-04
4.189051E+03	3.601451E-03	1.844457E-04
4.198978E+03	3.605311E-03	1.845884E-04
4.208905E+03	3.608883E-03	1.847164E-04
4.218831E+03	3.612273E-03	1.848350E-04
4.228758E+03	3.615453E-03	1.849427E-04
4.238685E+03	3.618459E-03	1.850416E-04
4.248611E+03	3.621269E-03	1.851303E-04
4.258538E+03	3.623859E-03	1.852078E-04
4.268465E+03	3.626210E-03	1.852731E-04
4.278391E+03	3.628436E-03	1.853320E-04
4.288318E+03	3.630518E-03	1.853835E-04
4.298245E+03	3.632378E-03	1.854237E-04
4.308171E+03	3.634065E-03	1.854550E-04
4.318098E+03	3.635567E-03	1.854770E-04
4.328025E+03	3.636932E-03	1.854920E-04
4.337951E+03	3.638137E-03	1.854989E-04
4.347878E+03	3.639218E-03	1.854996E-04
4.357805E+03	3.640094E-03	1.854898E-04
4.367731E+03	3.640740E-03	1.854684E-04
4.377658E+03	3.641302E-03	1.854429E-04
4.387585E+03	3.641581E-03	1.854030E-04
4.397511E+03	3.641719E-03	1.853560E-04
4.407438E+03	3.641626E-03	1.852974E-04
4.417365E+03	3.641322E-03	1.852283E-04
4.427291E+03	3.640830E-03	1.851496E-04
4.437218E+03	3.640113E-03	1.850597E-04
4.447144E+03	3.639190E-03	1.849595E-04
4.457071E+03	3.638031E-03	1.848474E-04
4.466998E+03	3.636660E-03	1.847247E-04
4.476924E+03	3.635051E-03	1.845901E-04
4.486851E+03	3.633331E-03	1.844501E-04
4.496778E+03	3.631428E-03	1.843010E-04
4.506704E+03	3.629364E-03	1.841439E-04
4.516631E+03	3.627217E-03	1.839828E-04
4.526558E+03	3.624912E-03	1.838139E-04
4.536484E+03	3.622568E-03	1.836433E-04
4.546411E+03	3.620156E-03	1.834695E-04
4.556338E+03	3.617649E-03	1.832910E-04
4.566264E+03	3.615160E-03	1.831137E-04
4.576191E+03	3.612658E-03	1.829361E-04
4.586118E+03	3.610163E-03	1.827590E-04
4.596044E+03	3.607641E-03	1.825807E-04
4.605971E+03	3.605205E-03	1.824071E-04
4.615898E+03	3.602823E-03	1.822365E-04
4.625824E+03	3.600468E-03	1.820675E-04
4.635751E+03	3.598245E-03	1.819055E-04
4.645678E+03	3.596121E-03	1.817487E-04
4.655604E+03	3.594111E-03	1.815979E-04
4.665531E+03	3.592224E-03	1.814535E-04
4.675458E+03	3.590474E-03	1.813164E-04
4.685384E+03	3.588911E-03	1.811889E-04
4.695311E+03	3.587498E-03	1.810693E-04
4.705238E+03	3.586240E-03	1.809578E-04
4.715164E+03	3.585140E-03	1.808545E-04
4.725091E+03	3.584289E-03	1.807640E-04
4.735018E+03	3.583599E-03	1.806819E-04
4.744944E+03	3.583115E-03	1.806104E-04
4.754871E+03	3.582880E-03	1.805517E-04
4.764798E+03	3.582809E-03	1.805015E-04
4.774724E+03	3.583030E-03	1.804663E-04
4.784651E+03	3.583498E-03	1.804438E-04
4.794578E+03	3.584212E-03	1.804339E-04
4.804504E+03	3.585212E-03	1.804386E-04
4.814431E+03	3.586493E-03	1.804578E-04
4.824358E+03	3.588095E-03	1.804933E-04
4.834284E+03	3.589969E-03	1.805428E-04
4.844211E+03	3.592194E-03	1.806101E-04
4.854138E+03	3.594764E-03	1.806949E-04
4.864064E+03	3.597631E-03	1.807950E-04
4.873991E+03	3.600911E-03	1.809160E-04
4.883918E+03	3.604514E-03	1.810534E-04
4.893844E+03	3.608513E-03	1.812109E-04
4.903771E+03	3.612856E-03	1.813859E-04
4.913698E+03	3.617576E-03	1.815800E-04
4.923624E+03	3.622700E-03	1.817946E-04
4.933551E+03	3.628216E-03	1.820290E-04
4.943478E+03	3.634109E-03	1.822824E-04
4.953404E+03	3.640402E-03	1.825561E-04
4.963331E+03	3.647029E-03	1.828467E-04
4.973258E+03	3.654003E-03	1.831549E-04
4.983184E+03	3.661336E-03	1.834812E-04
4.993111E+03	3.668955E-03	1.838219E-04
5.003038E+03	3.676867E-03	1.841775E-04
5.012964E+03	3.685042E-03	1.845464E-04
5.022891E+03	3.693484E-03	1.849288E-04
5.032818E+03	3.702124E-03	1.853213E-04
5.042744E+03	3.710927E-03	1.857221E-04
5.052671E+03	3.719909E-03	1.861319E-04
5.062598E+03	3.729044E-03	1.865496E-04
5.072524E+03	3.738301E-03	1.869735E-04
5.082451E+03	3.747689E-03	1.874041E-04
5.092378E+03	3.757088E-03	1.878354E-04
5.102304E+03	3.766545E-03	1.882697E-04
5.112231E+03	3.775973E-03	1.887028E-04
5.122158E+03	3.785371E-03	1.891344E-04
5.132084E+03	3.794649E-03	1.895603E-04
5.142011E+03	3.803750E-03	1.899776E-04
5.151937E+03	3.812658E-03	1.903854E-04
5.161864E+03	3.821271E-03	1.907786E-04
5.171791E+03	3.829570E-03	1.911564E-04
5.181717E+03	3.837455E-03	1.915137E-04
5.191644E+03	3.844868E-03	1.918478E-04
5.201571E+03	3.851757E-03	1.921559E-04
5.211497E+03	3.858119E-03	1.924380E-04
5.221424E+03	3.863820E-03	1.926874E-04
5.231351E+03	3.868867E-03	1.929045E-04
5.241277E+03	3.873182E-03	1.930854E-04
5.251204E+03	3.876773E-03	1.932306E-04
5.261131E+03	3.879526E-03	1.933344E-04
5.271057E+03	3.881503E-03	1.933998E-04
5.280984E+03	3.882555E-03	1.934196E-04
5.290911E+03	3.882761E-03	1.933976E-04
5.300837E+03	3.882076E-03	1.933317E-04
5.310764E+03	3.880462E-03	1.932199E-04
5.320691E+03	3.877931E-03	1.930630E-04
5.330617E+03	3.874499E-03	1.928617E-04
5.340544E+03	3.870142E-03	1.926148E-04
5.350471E+03	3.864868E-03	1.923229E-04
5.360397E+03	3.858607E-03	1.919823E-04
5.370324E+03	3.851449E-03	1.915977E-04
5.380251E+03	3.843355E-03	1.911670E-04
5.390177E+03	3.834246E-03	1.906864E-04
5.400104E+03	3.824167E-03	1.901581E-04
5.410031E+03	3.813083E-03	1.895804E-04
5.419957E+03	3.801047E-03	1.889559E-04
5.429884E+03	3.787988E-03	1.882812E-04
5.439811E+03	3.773964E-03	1.875591E-04
5.449737E+03	3.758993E-03	1.867905E-04
5.459664E+03	3.743093E-03	1.859763E-04
5.469591E+03	3.726283E-03	1.851175E-04
5.479517E+03	3.708622E-03	1.842171E-04
5.489444E+03	3.690090E-03	1.832740E-04
5.499371E+03	3.670747E-03	1.822912E-04
5.509297E+03	3.650612E-03	1.812697E-04
5.519224E+03	3.629748E-03	1.802126E-04
5.529151E+03	3.608223E-03	1.791234E-04
5.539077E+03	3.586031E-03	1.780016E-04
5.549004E+03	3.563285E-03	1.768529E-04
5.558931E+03	3.540024E-03	1.756792E-04
5.568857E+03	3.516290E-03	1.744827E-04
5.578784E+03	3.492202E-03	1.732692E-04
5.588711E+03	3.467773E-03	1.720394E-04
5.598637E+03	3.443057E-03	1.707959E-04
5.608564E+03	3.418180E-03	1.695450E-04
5.618491E+03	3.393202E-03	1.682897E-04
5.628417E+03	3.368181E-03	1.670329E-04
5.638344E+03	3.343217E-03	1.657793E-04
5.648271E+03	3.318338E-03	1.645306E-04
5.658197E+03	3.293650E-03	1.632919E-04
5.668124E+03	3.269217E-03	1.620663E-04
5.678051E+03	3.245127E-03	1.608583E-04
5.687977E+03	3.221428E-03	1.596701E-04
5.697904E+03	3.198169E-03	1.585042E-04
5.707831E+03	3.175386E-03	1.573625E-04
5.717757E+03	3.153084E-03	1.562450E-04
5.727684E+03	3.131394E-03	1.551583E-04
5.737611E+03	3.110225E-03	1.540979E-04
5.747537E+03	3.089647E-03	1.530672E-04
5.757464E+03	3.069663E-03	1.520664E-04
5.767391E+03	3.050236E-03	1.510935E-04
5.777317E+03	3.031361E-03	1.501484E-04
5.787244E+03	3.013097E-03	1.492340E-04
5.797171E+03	2.995331E-03	1.483447E-04
5.807097E+03	2.978115E-03	1.474829E-04
5.817024E+03	2.961431E-03	1.466479E-04
5.826950E+03	2.945189E-03	1.458351E-04
5.836877E+03	2.929426E-03	1.450465E-04
5.846804E+03	2.914119E-03	1.442807E-04
5.856730E+03	2.899176E-03	1.435333E-04
5.866657E+03	2.884604E-03	1.428046E-04
5.876584E+03	2.870377E-03	1.420934E-04
5.886510E+03	2.856446E-03	1.413971E-04
5.896437E+03	2.842817E-03	1.407161E-04
5.906364E+03	2.829446E-03	1.400481E-04
5.916290E+03	2.816323E-03	1.393928E-04
5.926217E+03	2.803445E-03	1.387500E-04
5.936144E+03	2.790810E-03	1.381194E-04
5.946070E+03	2.778397E-03	1.375001E-04
5.955997E+03	2.766216E-03	1.368926E-04
5.965924E+03	2.754252E-03	1.362962E-04
5.975850E+03	2.742588E-03	1.357149E-04
5.985777E+03	2.731191E-03	1.351471E-04
5.995704E+03	2.720087E-03	1.345940E-04
6.005630E+03	2.709272E-03	1.340556E-04
6.015557E+03	2.698832E-03	1.335360E-04
6.025484E+03	2.688704E-03	1.330321E-04
6.035410E+03	2.678973E-03	1.325481E-04
6.045337E+03	2.669630E-03	1.320836E-04
6.055264E+03	2.660669E-03	1.316383E-04
6.065190E+03	2.652102E-03	1.312127E-04
6.075117E+03	2.643969E-03	1.308089E-04
6.085044E+03	2.636222E-03	1.304244E-04
6.094970E+03	2.628885E-03	1.300605E-04
6.104897E+03	2.621955E-03	1.297169E-04
6.114824E+03	2.615426E-03	1.293935E-04
6.124750E+03	2.609248E-03	1.290876E-04
6.134677E+03	2.603401E-03	1.287985E-04
6.144604E+03	2.597860E-03	1.285246E-04
6.154530E+03	2.592593E-03	1.282646E-04
6.164457E+03	2.587591E-03	1.280179E-04
6.174384E+03	2.582754E-03	1.277796E-04
6.184310E+03	2.578097E-03	1.275504E-04
6.194237E+03	2.573514E-03	1.273251E-04
6.204164E+03	2.569012E-03	1.271040E-04
6.214090E+03	2.564513E-03	1.268833E-04
6.224017E+03	2.559993E-03	1.266617E-04
6.233944E+03	2.555342E-03	1.264339E-04
6.243870E+03	2.550575E-03	1.262006E-04
6.253797E+03	2.545618E-03	1.259580E-04
6.263724E+03	2.540460E-03	1.257056E-04
6.273650E+03	2.535076E-03	1.254423E-04
6.283577E+03	2.529415E-03	1.251654E-04
6.293504E+03	2.523483E-03	1.248754E-04
6.303430E+03	2.517265E-03	1.245714E-04
6.313357E+03	2.510717E-03	1.242511E-04
6.323284E+03	2.503880E-03	1.239168E-04
6.333210E+03	2.496706E-03	1.235659E-04
6.343137E+03	2.489177E-03	1.231977E-04
6.353064E+03	2.481275E-03	1.228110E-04
6.362990E+03	2.472976E-03	1.224050E-04
6.372917E+03	2.464289E-03	1.219798E-04
6.382844E+03	2.455163E-03	1.215331E-04
6.392770E+03	2.445585E-03	1.210641E-04
6.402697E+03	2.435572E-03	1.205737E-04
6.412624E+03	2.425111E-03	1.200612E-04
6.422550E+03	2.414195E-03	1.195264E-04
6.432477E+03	2.402790E-03	1.189675E-04
6.442404E+03	2.390950E-03	1.183871E-04
6.452330E+03	2.378652E-03	1.177841E-04
6.462257E+03	2.365901E-03	1.171588E-04
6.472184E+03	2.352737E-03	1.165131E-04
6.482110E+03	2.339149E-03	1.158465E-04
6.492037E+03	2.325187E-03	1.151615E-04
6.501963E+03	2.310903E-03	1.144606E-04
6.511890E+03	2.296304E-03	1.137442E-04
6.521817E+03	2.281457E-03	1.130155E-04
6.531743E+03	2.266401E-03	1.122765E-04
6.541670E+03	2.251177E-03	1.115293E-04
6.551597E+03	2.235830E-03	1.107760E-04
6.561523E+03	2.220458E-03	1.100215E-04
6.571450E+03	2.205047E-03	1.092651E-04
6.581377E+03	2.189690E-03	1.085115E-04
6.591303E+03	2.174423E-03	1.077623E-04
6.601230E+03	2.159248E-03	1.070177E-04
6.611157E+03	2.144240E-03	1.062814E-04
6.621083E+03	2.129396E-03	1.055533E-04
6.631010E+03	2.114732E-03	1.048341E-04
6.640937E+03	2.100318E-03	1.041273E-04
6.650863E+03	2.086147E-03	1.034326E-04
6.660790E+03	2.072261E-03	1.027521E-04
6.670717E+03	2.058656E-03	1.020855E-04
6.680643E+03	2.045375E-03	1.014350E-04
6.690570E+03	2.032441E-03	1.008017E-04
6.700497E+03	2.019900E-03	1.001879E-04
6.710423E+03	2.007720E-03	9.959207E-05
6.720350E+03	1.995997E-03	9.901890E-05
6.730277E+03	1.984723E-03	9.846804E-05
6.740203E+03	1.973890E-03	9.793908E-05
6.750130E+03	1.963537E-03	9.743402E-05
6.760057E+03	1.953705E-03	9.695479E-05
6.769983E+03	1.944379E-03	9.650071E-05
6.779910E+03	1.935594E-03	9.607353E-05
6.789837E+03	1.927333E-03	9.567240E-05
6.799763E+03	1.919628E-03	9.529892E-05
6.809690E+03	1.912485E-03	9.495339E-05
6.819617E+03	1.905910E-03	9.463613E-05
6.829543E+03	1.899882E-03	9.434609E-05
6.839470E+03	1.894453E-03	9.408581E-05
6.849397E+03	1.889573E-03	9.385292E-05
6.859323E+03	1.885293E-03	9.364990E-05
6.869250E+03	1.881582E-03	9.347519E-05
6.879177E+03	1.878431E-03	9.332843E-05
6.889103E+03	1.875835E-03	9.320933E-05
6.899030E+03	1.873784E-03	9.311741E-05
6.908957E+03	1.872266E-03	9.305207E-05
6.918883E+03	1.871296E-03	9.301407E-05
6.928810E+03	1.870831E-03	9.300133E-05
6.938737E+03	1.870829E-03	9.301172E-05
6.948663E+03	1.871322E-03	9.304683E-05
6.958590E+03	1.872260E-03	9.310423E-05
6.968517E+03	1.873615E-03	9.318249E-05
6.978443E+03	1.875360E-03	9.328032E-05
6.988370E+03	1.877460E-03	9.339593E-05
6.998297E+03	1.879879E-03	9.352764E-05
7.008223E+03	1.882555E-03	9.367225E-05
7.018150E+03	1.885477E-03	9.382929E-05
7.028077E+03	1.888605E-03	9.399675E-05
7.038003E+03	1.891875E-03	9.417146E-05
7.047930E+03	1.895277E-03	9.435292E-05
7.057857E+03	1.898722E-03	9.453674E-05
7.067783E+03	1.902224E-03	9.472359E-05
7.077710E+03	1.905724E-03	9.491050E-05
7.087637E+03	1.909157E-03	9.509431E-05
7.097563E+03	1.912516E-03	9.527460E-05
7.107490E+03	1.915764E-03	9.544958E-05
7.117417E+03	1.918814E-03	9.561491E-05
7.127343E+03	1.921682E-03	9.577139E-05
7.137270E+03	1.924282E-03	9.591467E-05
7.147197E+03	1.926632E-03	9.604570E-05
7.157123E+03	1.928618E-03	9.615878E-05
7.167050E+03	1.930257E-03	9.625476E-05
7.176976E+03	1.931461E-03	9.632924E-05
7.186903E+03	1.932225E-03	9.638195E-05
7.196830E+03	1.932489E-03	9.640990E-05
7.206756E+03	1.932250E-03	9.641298E-05
7.216683E+03	1.931427E-03	9.638703E-05
7.226610E+03	1.929990E-03	9.633064E-05
7.236536E+03	1.927938E-03	9.624370E-05
7.246463E+03	1.925190E-03	9.612220E-05
7.256390E+03	1.921724E-03	9.596491E-05
7.266316E+03	1.917541E-03	9.577199E-05
7.276243E+03	1.912593E-03	9.554096E-05
7.286170E+03	1.906836E-03	9.526965E-05
7.296096E+03	1.900258E-03	9.495735E-05
7.306023E+03	1.892848E-03	9.460359E-05
7.315950E+03	1.884610E-03	9.420849E-05
7.325876E+03	1.875527E-03	9.377124E-05
7.335803E+03	1.865639E-03	9.329372E-05
7.345730E+03	1.854921E-03	9.277476E-05
7.355656E+03	1.843431E-03	9.221713E-05
7.365583E+03	1.831204E-03	9.162263E-05
7.375510E+03	1.818287E-03	9.099359E-05
7.385436E+03	1.804705E-03	9.033123E-05
7.395363E+03	1.790538E-03	8.963951E-05
7.405290E+03	1.775841E-03	8.892121E-05
7.415216E+03	1.760650E-03	8.817807E-05
7.425143E+03	1.745050E-03	8.741433E-05
7.435070E+03	1.729099E-03	8.663290E-05
7.444996E+03	1.712854E-03	8.583661E-05
7.454923E+03	1.696393E-03	8.502942E-05
7.464850E+03	1.679748E-03	8.421283E-05
7.474776E+03	1.662967E-03	8.338929E-05
7.484703E+03	1.646146E-03	8.256355E-05
7.494630E+03	1.629303E-03	8.173661E-05
7.504556E+03	1.612477E-03	8.091033E-05
7.514483E+03	1.595730E-03	8.008781E-05
7.524410E+03	1.579070E-03	7.926949E-05
7.534336E+03	1.562549E-03	7.845798E-05
7.544263E+03	1.546216E-03	7.765569E-05
7.554190E+03	1.530072E-03	7.686267E-05
7.564116E+03	1.514156E-03	7.608093E-05
7.574043E+03	1.498486E-03	7.531133E-05
7.583970E+03	1.483050E-03	7.455330E-05
7.593896E+03	1.467898E-03	7.380933E-05
7.603823E+03	1.452992E-03	7.307749E-05
7.613750E+03	1.438372E-03	7.235985E-05
7.623676E+03	1.424033E-03	7.165612E-05
7.633603E+03	1.409953E-03	7.096518E-05
7.643530E+03	1.396121E-03	7.028655E-05
7.653456E+03	1.382572E-03	6.962192E-05
7.663383E+03	1.369235E-03	6.896779E-05
7.673310E+03	1.356162E-03	6.832671E-05
7.683236E+03	1.343304E-03	6.769629E-05
7.693163E+03	1.330674E-03	6.707711E-05
7.703090E+03	1.318262E-03	6.646874E-05
