#wls	flux	fluxerr
1.588266E+03	7.295458E-04	2.497248E-05
1.627973E+03	7.486525E-04	2.561571E-05
1.667679E+03	7.683410E-04	2.627803E-05
1.707386E+03	7.887523E-04	2.696419E-05
1.747092E+03	8.097620E-04	2.766989E-05
1.786799E+03	8.315144E-04	2.840000E-05
1.826506E+03	8.538766E-04	2.914992E-05
1.866212E+03	8.771433E-04	2.992964E-05
1.905919E+03	9.010312E-04	3.072943E-05
1.945626E+03	9.256901E-04	3.155433E-05
1.985332E+03	9.511241E-04	3.240441E-05
2.025039E+03	9.774952E-04	3.328509E-05
2.064746E+03	1.004485E-03	3.418546E-05
2.104452E+03	1.032580E-03	3.512200E-05
2.144159E+03	1.061283E-03	3.607770E-05
2.183866E+03	1.091094E-03	3.706946E-05
2.223572E+03	1.121666E-03	3.808542E-05
2.263279E+03	1.153159E-03	3.913090E-05
2.302986E+03	1.185564E-03	4.020543E-05
2.342692E+03	1.218859E-03	4.130827E-05
2.382399E+03	1.253216E-03	4.244505E-05
2.422105E+03	1.288421E-03	4.360846E-05
2.461812E+03	1.324635E-03	4.480383E-05
2.501519E+03	1.361830E-03	4.603007E-05
2.541225E+03	1.399967E-03	4.728571E-05
2.580932E+03	1.439205E-03	4.857606E-05
2.620639E+03	1.479078E-03	4.988524E-05
2.660345E+03	1.520156E-03	5.123233E-05
2.700052E+03	1.561948E-03	5.260067E-05
2.739759E+03	1.604812E-03	5.400219E-05
2.779465E+03	1.648447E-03	5.542663E-05
2.819172E+03	1.692759E-03	5.687066E-05
2.858879E+03	1.738091E-03	5.834575E-05
2.898585E+03	1.783878E-03	5.983276E-05
2.938292E+03	1.830450E-03	6.134267E-05
2.977999E+03	1.877437E-03	6.286294E-05
2.987925E+03	1.889363E-03	6.324843E-05
2.997852E+03	1.901213E-03	6.363119E-05
3.007779E+03	1.912988E-03	6.401119E-05
3.017705E+03	1.924919E-03	6.439617E-05
3.027632E+03	1.937002E-03	6.478600E-05
3.037559E+03	1.949001E-03	6.517278E-05
3.047485E+03	1.960911E-03	6.555639E-05
3.057412E+03	1.972730E-03	6.593669E-05
3.067339E+03	1.984928E-03	6.632943E-05
3.077265E+03	1.996792E-03	6.671078E-05
3.087192E+03	2.008793E-03	6.709645E-05
3.097118E+03	2.020928E-03	6.748637E-05
3.107045E+03	2.032955E-03	6.787246E-05
3.116972E+03	2.045111E-03	6.826260E-05
3.126898E+03	2.057154E-03	6.864871E-05
3.136825E+03	2.069079E-03	6.903065E-05
3.146752E+03	2.081122E-03	6.941629E-05
3.156678E+03	2.093042E-03	6.979757E-05
3.166605E+03	2.105072E-03	7.018230E-05
3.176532E+03	2.117211E-03	7.057039E-05
3.186458E+03	2.129214E-03	7.095373E-05
3.196385E+03	2.141079E-03	7.133220E-05
3.206312E+03	2.153040E-03	7.171364E-05
3.216238E+03	2.165095E-03	7.209796E-05
3.226165E+03	2.177000E-03	7.247703E-05
3.236092E+03	2.188750E-03	7.285068E-05
3.246018E+03	2.200582E-03	7.322683E-05
3.255945E+03	2.212490E-03	7.360527E-05
3.265872E+03	2.224233E-03	7.397796E-05
3.275798E+03	2.236045E-03	7.435266E-05
3.285725E+03	2.247681E-03	7.472131E-05
3.295652E+03	2.259377E-03	7.509171E-05
3.305578E+03	2.270890E-03	7.545575E-05
3.315505E+03	2.282454E-03	7.582127E-05
3.325432E+03	2.293826E-03	7.618013E-05
3.335358E+03	2.305240E-03	7.654016E-05
3.345285E+03	2.316452E-03	7.689323E-05
3.355212E+03	2.327697E-03	7.724717E-05
3.365138E+03	2.338970E-03	7.760177E-05
3.375065E+03	2.350027E-03	7.794898E-05
3.384992E+03	2.361101E-03	7.829652E-05
3.394918E+03	2.371950E-03	7.863636E-05
3.404845E+03	2.382808E-03	7.897623E-05
3.414772E+03	2.393430E-03	7.930807E-05
3.424698E+03	2.404050E-03	7.963961E-05
3.434625E+03	2.414425E-03	7.996278E-05
3.444552E+03	2.425024E-03	8.029312E-05
3.454478E+03	2.435132E-03	8.060700E-05
3.464405E+03	2.445215E-03	8.091983E-05
3.474332E+03	2.455268E-03	8.123145E-05
3.484258E+03	2.465287E-03	8.154168E-05
3.494185E+03	2.475029E-03	8.184257E-05
3.504112E+03	2.484491E-03	8.213394E-05
3.514038E+03	2.493901E-03	8.242340E-05
3.523965E+03	2.503253E-03	8.271071E-05
3.533892E+03	2.512308E-03	8.298802E-05
3.543818E+03	2.521294E-03	8.326282E-05
3.553745E+03	2.529972E-03	8.352728E-05
3.563672E+03	2.538570E-03	8.378887E-05
3.573598E+03	2.547080E-03	8.404735E-05
3.583525E+03	2.555266E-03	8.429494E-05
3.593452E+03	2.563353E-03	8.453910E-05
3.603378E+03	2.571105E-03	8.477201E-05
3.613305E+03	2.578746E-03	8.500108E-05
3.623232E+03	2.586270E-03	8.522609E-05
3.633158E+03	2.593441E-03	8.543934E-05
3.643085E+03	2.600258E-03	8.564072E-05
3.653012E+03	2.606938E-03	8.583745E-05
3.662938E+03	2.613477E-03	8.602936E-05
3.672865E+03	2.619643E-03	8.620883E-05
3.682792E+03	2.625655E-03	8.638309E-05
3.692718E+03	2.631285E-03	8.654462E-05
3.702645E+03	2.636747E-03	8.670051E-05
3.712572E+03	2.642036E-03	8.685058E-05
3.722498E+03	2.646926E-03	8.698736E-05
3.732425E+03	2.651413E-03	8.711081E-05
3.742352E+03	2.655708E-03	8.722785E-05
3.752278E+03	2.659806E-03	8.733828E-05
3.762205E+03	2.663484E-03	8.743482E-05
3.772131E+03	2.666738E-03	8.751736E-05
3.782058E+03	2.669991E-03	8.759976E-05
3.791985E+03	2.672596E-03	8.766082E-05
3.801911E+03	2.674975E-03	8.771442E-05
3.811838E+03	2.677120E-03	8.776024E-05
3.821765E+03	2.678818E-03	8.779134E-05
3.831691E+03	2.680062E-03	8.780755E-05
3.841618E+03	2.681058E-03	8.781555E-05
3.851545E+03	2.681796E-03	8.781508E-05
3.861471E+03	2.682069E-03	8.779932E-05
3.871398E+03	2.681872E-03	8.776819E-05
3.881325E+03	2.681404E-03	8.772815E-05
3.891251E+03	2.680458E-03	8.767248E-05
3.901178E+03	2.679229E-03	8.760756E-05
3.911105E+03	2.677515E-03	8.752680E-05
3.921031E+03	2.675314E-03	8.743012E-05
3.930958E+03	2.672818E-03	8.732385E-05
3.940885E+03	2.669828E-03	8.720145E-05
3.950811E+03	2.666533E-03	8.706918E-05
3.960738E+03	2.662551E-03	8.691452E-05
3.970665E+03	2.658449E-03	8.675598E-05
3.980591E+03	2.653658E-03	8.657506E-05
3.990518E+03	2.648556E-03	8.638407E-05
4.000445E+03	2.642958E-03	8.617699E-05
4.010371E+03	2.637048E-03	8.595988E-05
4.020298E+03	2.630470E-03	8.572106E-05
4.030225E+03	2.623592E-03	8.547263E-05
4.040151E+03	2.616243E-03	8.520899E-05
4.050078E+03	2.608614E-03	8.493635E-05
4.060005E+03	2.600540E-03	8.464936E-05
4.069931E+03	2.591867E-03	8.434308E-05
4.079858E+03	2.583133E-03	8.403495E-05
4.089785E+03	2.573843E-03	8.370892E-05
4.099711E+03	2.564195E-03	8.337144E-05
4.109638E+03	2.554380E-03	8.302872E-05
4.119565E+03	2.544090E-03	8.267078E-05
4.129491E+03	2.533686E-03	8.230931E-05
4.139418E+03	2.523026E-03	8.193975E-05
4.149345E+03	2.512139E-03	8.156306E-05
4.159271E+03	2.501051E-03	8.118005E-05
4.169198E+03	2.489790E-03	8.079165E-05
4.179125E+03	2.478382E-03	8.039870E-05
4.189051E+03	2.467006E-03	8.000704E-05
4.198978E+03	2.455382E-03	7.960760E-05
4.208905E+03	2.443693E-03	7.920626E-05
4.218831E+03	2.431966E-03	7.880395E-05
4.228758E+03	2.420231E-03	7.840163E-05
4.238685E+03	2.408517E-03	7.800024E-05
4.248611E+03	2.396854E-03	7.760074E-05
4.258538E+03	2.385271E-03	7.720409E-05
4.268465E+03	2.373799E-03	7.681128E-05
4.278391E+03	2.362327E-03	7.641873E-05
4.288318E+03	2.351164E-03	7.603642E-05
4.298245E+03	2.340058E-03	7.565619E-05
4.308171E+03	2.329173E-03	7.528334E-05
4.318098E+03	2.318530E-03	7.491859E-05
4.328025E+03	2.308148E-03	7.456246E-05
4.337951E+03	2.297909E-03	7.421122E-05
4.347878E+03	2.287960E-03	7.386960E-05
4.357805E+03	2.278312E-03	7.353787E-05
4.367731E+03	2.268970E-03	7.321628E-05
4.377658E+03	2.259817E-03	7.290100E-05
4.387585E+03	2.250991E-03	7.259651E-05
4.397511E+03	2.242507E-03	7.230322E-05
4.407438E+03	2.234254E-03	7.201762E-05
4.417365E+03	2.226378E-03	7.174436E-05
4.427291E+03	2.218898E-03	7.148407E-05
4.437218E+03	2.211717E-03	7.123360E-05
4.447144E+03	2.204980E-03	7.099759E-05
4.457071E+03	2.198589E-03	7.077293E-05
4.466998E+03	2.192687E-03	7.056418E-05
4.476924E+03	2.187176E-03	7.036818E-05
4.486851E+03	2.182195E-03	7.018937E-05
4.496778E+03	2.177760E-03	7.002829E-05
4.506704E+03	2.173771E-03	6.988168E-05
4.516631E+03	2.170239E-03	6.974992E-05
4.526558E+03	2.167293E-03	6.963711E-05
4.536484E+03	2.164938E-03	6.954342E-05
4.546411E+03	2.162953E-03	6.946173E-05
4.556338E+03	2.161680E-03	6.940299E-05
4.566264E+03	2.160780E-03	6.935633E-05
4.576191E+03	2.160478E-03	6.932895E-05
4.586118E+03	2.160768E-03	6.932067E-05
4.596044E+03	2.161533E-03	6.932770E-05
4.605971E+03	2.162767E-03	6.934984E-05
4.615898E+03	2.164571E-03	6.939032E-05
4.625824E+03	2.166827E-03	6.944534E-05
4.635751E+03	2.169522E-03	6.951448E-05
4.645678E+03	2.172752E-03	6.960083E-05
4.655604E+03	2.176290E-03	6.969705E-05
4.665531E+03	2.180442E-03	6.981300E-05
4.675458E+03	2.184870E-03	6.993782E-05
4.685384E+03	2.189773E-03	7.007785E-05
4.695311E+03	2.195023E-03	7.022901E-05
4.705238E+03	2.200707E-03	7.039409E-05
4.715164E+03	2.206591E-03	7.056556E-05
4.725091E+03	2.212864E-03	7.074950E-05
4.735018E+03	2.219395E-03	7.094174E-05
4.744944E+03	2.226269E-03	7.114492E-05
4.754871E+03	2.233350E-03	7.135473E-05
4.764798E+03	2.240613E-03	7.157036E-05
4.774724E+03	2.248030E-03	7.179093E-05
4.784651E+03	2.255577E-03	7.201563E-05
4.794578E+03	2.263336E-03	7.224714E-05
4.804504E+03	2.271070E-03	7.247787E-05
4.814431E+03	2.279083E-03	7.271753E-05
4.824358E+03	2.287039E-03	7.295536E-05
4.834284E+03	2.295036E-03	7.319454E-05
4.844211E+03	2.303180E-03	7.343844E-05
4.854138E+03	2.311361E-03	7.368352E-05
4.864064E+03	2.319579E-03	7.392981E-05
4.873991E+03	2.327837E-03	7.417738E-05
4.883918E+03	2.336130E-03	7.442611E-05
4.893844E+03	2.344562E-03	7.467929E-05
4.903771E+03	2.353019E-03	7.493330E-05
4.913698E+03	2.361486E-03	7.518764E-05
4.923624E+03	2.369947E-03	7.544183E-05
4.933551E+03	2.378380E-03	7.569515E-05
4.943478E+03	2.386867E-03	7.595025E-05
4.953404E+03	2.395268E-03	7.620263E-05
4.963331E+03	2.403547E-03	7.645116E-05
4.973258E+03	2.411663E-03	7.669459E-05
4.983184E+03	2.419576E-03	7.693158E-05
4.993111E+03	2.427351E-03	7.716426E-05
5.003038E+03	2.434724E-03	7.738420E-05
5.012964E+03	2.441872E-03	7.759706E-05
5.022891E+03	2.448642E-03	7.779796E-05
5.032818E+03	2.454992E-03	7.798561E-05
5.042744E+03	2.460991E-03	7.816220E-05
5.052671E+03	2.466379E-03	7.831949E-05
5.062598E+03	2.471338E-03	7.846325E-05
5.072524E+03	2.475719E-03	7.858874E-05
5.082451E+03	2.479480E-03	7.869468E-05
5.092378E+03	2.482691E-03	7.878329E-05
5.102304E+03	2.485091E-03	7.884630E-05
5.112231E+03	2.486857E-03	7.888932E-05
5.122158E+03	2.487837E-03	7.890758E-05
5.132084E+03	2.487988E-03	7.889967E-05
5.142011E+03	2.487380E-03	7.886790E-05
5.151937E+03	2.485756E-03	7.880407E-05
5.161864E+03	2.483302E-03	7.871414E-05
5.171791E+03	2.479884E-03	7.859382E-05
5.181717E+03	2.475592E-03	7.844603E-05
5.191644E+03	2.470202E-03	7.826368E-05
5.201571E+03	2.463934E-03	7.805371E-05
5.211497E+03	2.456691E-03	7.781311E-05
5.221424E+03	2.448495E-03	7.754257E-05
5.231351E+03	2.439480E-03	7.724632E-05
5.241277E+03	2.429575E-03	7.692216E-05
5.251204E+03	2.418819E-03	7.657132E-05
5.261131E+03	2.407257E-03	7.619524E-05
5.271057E+03	2.395041E-03	7.579873E-05
5.280984E+03	2.382012E-03	7.537679E-05
5.290911E+03	2.368534E-03	7.494092E-05
5.300837E+03	2.354353E-03	7.448307E-05
5.310764E+03	2.339728E-03	7.401147E-05
5.320691E+03	2.324615E-03	7.352475E-05
5.330617E+03	2.309071E-03	7.302468E-05
5.340544E+03	2.293149E-03	7.251293E-05
5.350471E+03	2.276996E-03	7.199417E-05
5.360397E+03	2.260649E-03	7.146955E-05
5.370324E+03	2.243944E-03	7.093388E-05
5.380251E+03	2.227092E-03	7.039385E-05
5.390177E+03	2.210006E-03	6.984669E-05
5.400104E+03	2.192779E-03	6.929535E-05
5.410031E+03	2.175223E-03	6.873386E-05
5.419957E+03	2.157608E-03	6.817079E-05
5.429884E+03	2.139651E-03	6.759717E-05
5.439811E+03	2.121529E-03	6.701855E-05
5.449737E+03	2.103141E-03	6.643181E-05
5.459664E+03	2.084574E-03	6.583965E-05
5.469591E+03	2.065732E-03	6.523904E-05
5.479517E+03	2.046609E-03	6.462982E-05
5.489444E+03	2.027290E-03	6.401464E-05
5.499371E+03	2.007685E-03	6.339064E-05
5.509297E+03	1.987879E-03	6.276053E-05
5.519224E+03	1.967788E-03	6.212162E-05
5.529151E+03	1.947418E-03	6.147416E-05
5.539077E+03	1.926865E-03	6.082111E-05
5.549004E+03	1.906060E-03	6.016034E-05
5.558931E+03	1.885111E-03	5.949522E-05
5.568857E+03	1.863967E-03	5.882415E-05
5.578784E+03	1.842667E-03	5.814837E-05
5.588711E+03	1.821338E-03	5.747186E-05
5.598637E+03	1.800029E-03	5.679618E-05
5.608564E+03	1.778646E-03	5.611834E-05
5.618491E+03	1.757476E-03	5.544740E-05
5.628417E+03	1.736429E-03	5.478055E-05
5.638344E+03	1.715568E-03	5.411970E-05
5.648271E+03	1.695028E-03	5.346915E-05
5.658197E+03	1.674795E-03	5.282846E-05
5.668124E+03	1.654997E-03	5.220165E-05
5.678051E+03	1.635620E-03	5.158823E-05
5.687977E+03	1.616782E-03	5.099200E-05
5.697904E+03	1.598532E-03	5.041444E-05
5.707831E+03	1.580777E-03	4.985263E-05
5.717757E+03	1.563761E-03	4.931426E-05
5.727684E+03	1.547383E-03	4.879614E-05
5.737611E+03	1.531677E-03	4.829930E-05
5.747537E+03	1.516734E-03	4.782668E-05
5.757464E+03	1.502577E-03	4.737893E-05
5.767391E+03	1.489159E-03	4.695461E-05
5.777317E+03	1.476555E-03	4.655604E-05
5.787244E+03	1.464773E-03	4.618348E-05
5.797171E+03	1.453750E-03	4.583498E-05
5.807097E+03	1.443486E-03	4.551048E-05
5.817024E+03	1.434033E-03	4.521166E-05
5.826950E+03	1.425378E-03	4.493806E-05
5.836877E+03	1.417442E-03	4.468725E-05
5.846804E+03	1.410270E-03	4.446060E-05
5.856730E+03	1.403840E-03	4.425742E-05
5.866657E+03	1.398074E-03	4.407523E-05
5.876584E+03	1.393012E-03	4.391535E-05
5.886510E+03	1.388638E-03	4.377722E-05
5.896437E+03	1.384881E-03	4.365863E-05
5.906364E+03	1.381789E-03	4.356107E-05
5.916290E+03	1.379354E-03	4.348432E-05
5.926217E+03	1.377518E-03	4.342650E-05
5.936144E+03	1.376337E-03	4.338943E-05
5.946070E+03	1.375761E-03	4.337148E-05
5.955997E+03	1.375914E-03	4.337661E-05
5.965924E+03	1.376694E-03	4.340155E-05
5.975850E+03	1.378115E-03	4.344682E-05
5.985777E+03	1.380319E-03	4.351681E-05
5.995704E+03	1.383209E-03	4.360853E-05
6.005630E+03	1.386871E-03	4.372467E-05
6.015557E+03	1.391273E-03	4.386420E-05
6.025484E+03	1.396500E-03	4.402986E-05
6.035410E+03	1.402584E-03	4.422258E-05
6.045337E+03	1.409546E-03	4.444309E-05
6.055264E+03	1.417410E-03	4.469214E-05
6.065190E+03	1.426130E-03	4.496827E-05
6.075117E+03	1.435775E-03	4.527366E-05
6.085044E+03	1.446344E-03	4.560829E-05
6.094970E+03	1.457766E-03	4.596989E-05
6.104897E+03	1.470141E-03	4.636167E-05
6.114824E+03	1.483308E-03	4.677856E-05
6.124750E+03	1.497285E-03	4.722109E-05
6.134677E+03	1.512010E-03	4.768730E-05
6.144604E+03	1.527339E-03	4.817272E-05
6.154530E+03	1.543246E-03	4.867646E-05
6.164457E+03	1.559681E-03	4.919700E-05
6.174384E+03	1.576308E-03	4.972373E-05
6.184310E+03	1.593173E-03	5.025807E-05
6.194237E+03	1.610034E-03	5.079243E-05
6.204164E+03	1.626628E-03	5.131852E-05
6.214090E+03	1.642894E-03	5.183439E-05
6.224017E+03	1.658475E-03	5.232875E-05
6.233944E+03	1.673221E-03	5.279694E-05
6.243870E+03	1.686836E-03	5.322953E-05
6.253797E+03	1.699244E-03	5.362420E-05
6.263724E+03	1.710159E-03	5.397186E-05
6.273650E+03	1.719308E-03	5.426388E-05
6.283577E+03	1.726586E-03	5.449697E-05
6.293504E+03	1.731842E-03	5.466637E-05
6.303430E+03	1.734962E-03	5.476842E-05
6.313357E+03	1.735863E-03	5.480050E-05
6.323284E+03	1.734501E-03	5.476122E-05
6.333210E+03	1.730870E-03	5.465035E-05
6.343137E+03	1.724996E-03	5.446873E-05
6.353064E+03	1.716859E-03	5.421570E-05
6.362990E+03	1.706618E-03	5.389626E-05
6.372917E+03	1.694449E-03	5.351594E-05
6.382844E+03	1.680323E-03	5.307381E-05
6.392770E+03	1.664445E-03	5.257634E-05
6.402697E+03	1.646954E-03	5.202793E-05
6.412624E+03	1.628073E-03	5.143554E-05
6.422550E+03	1.607802E-03	5.079924E-05
6.432477E+03	1.586300E-03	5.012397E-05
6.442404E+03	1.563856E-03	4.941889E-05
6.452330E+03	1.540548E-03	4.868648E-05
6.462257E+03	1.516524E-03	4.793134E-05
6.472184E+03	1.491925E-03	4.715796E-05
6.482110E+03	1.466887E-03	4.637060E-05
6.492037E+03	1.441476E-03	4.557137E-05
6.501963E+03	1.415946E-03	4.476830E-05
6.511890E+03	1.390352E-03	4.396310E-05
6.521817E+03	1.364741E-03	4.315729E-05
6.531743E+03	1.339345E-03	4.235812E-05
6.541670E+03	1.314136E-03	4.156480E-05
6.551597E+03	1.289325E-03	4.078396E-05
6.561523E+03	1.264934E-03	4.001633E-05
6.571450E+03	1.240985E-03	3.926253E-05
6.581377E+03	1.217657E-03	3.852829E-05
6.591303E+03	1.194901E-03	3.781206E-05
6.601230E+03	1.172882E-03	3.711902E-05
6.611157E+03	1.151591E-03	3.644896E-05
6.621083E+03	1.131022E-03	3.580161E-05
6.631010E+03	1.111314E-03	3.518146E-05
6.640937E+03	1.092448E-03	3.458786E-05
6.650863E+03	1.074400E-03	3.402007E-05
6.660790E+03	1.057293E-03	3.348197E-05
6.670717E+03	1.041094E-03	3.297256E-05
6.680643E+03	1.025818E-03	3.249231E-05
6.690570E+03	1.011428E-03	3.204009E-05
6.700497E+03	9.980261E-04	3.161907E-05
6.710423E+03	9.855681E-04	3.122790E-05
6.720350E+03	9.740554E-04	3.086663E-05
6.730277E+03	9.634865E-04	3.053522E-05
6.740203E+03	9.538571E-04	3.023355E-05
6.750130E+03	9.451615E-04	2.996143E-05
6.760057E+03	9.373921E-04	2.971865E-05
6.769983E+03	9.305404E-04	2.950494E-05
6.779910E+03	9.245973E-04	2.932002E-05
6.789837E+03	9.195529E-04	2.916359E-05
6.799763E+03	9.153973E-04	2.903534E-05
6.809690E+03	9.121203E-04	2.893496E-05
6.819617E+03	9.097531E-04	2.886346E-05
6.829543E+03	9.082009E-04	2.881782E-05
6.839470E+03	9.074942E-04	2.879904E-05
6.849397E+03	9.076626E-04	2.880806E-05
6.859323E+03	9.086095E-04	2.884182E-05
6.869250E+03	9.103628E-04	2.890122E-05
6.879177E+03	9.129494E-04	2.898712E-05
6.889103E+03	9.162688E-04	2.909635E-05
6.899030E+03	9.203879E-04	2.923104E-05
6.908957E+03	9.252024E-04	2.938788E-05
6.918883E+03	9.307777E-04	2.956897E-05
6.928810E+03	9.370495E-04	2.977226E-05
6.938737E+03	9.439507E-04	2.999565E-05
6.948663E+03	9.515445E-04	3.024115E-05
6.958590E+03	9.597615E-04	3.050655E-05
6.968517E+03	9.685294E-04	3.078958E-05
6.978443E+03	9.779086E-04	3.109216E-05
6.988370E+03	9.878235E-04	3.141189E-05
6.998297E+03	9.981941E-04	3.174625E-05
7.008223E+03	1.009078E-03	3.209706E-05
7.018150E+03	1.020391E-03	3.246167E-05
7.028077E+03	1.032093E-03	3.283881E-05
7.038003E+03	1.044094E-03	3.322558E-05
7.047930E+03	1.056443E-03	3.362362E-05
7.057857E+03	1.069048E-03	3.402996E-05
7.067783E+03	1.081806E-03	3.444135E-05
7.077710E+03	1.094766E-03	3.485933E-05
7.087637E+03	1.107822E-03	3.528053E-05
7.097563E+03	1.120862E-03	3.570141E-05
7.107490E+03	1.133929E-03	3.612331E-05
7.117417E+03	1.146848E-03	3.654069E-05
7.127343E+03	1.159657E-03	3.695476E-05
7.137270E+03	1.172173E-03	3.735964E-05
7.147197E+03	1.184425E-03	3.775630E-05
7.157123E+03	1.196217E-03	3.813848E-05
7.167050E+03	1.207516E-03	3.850512E-05
7.176976E+03	1.218288E-03	3.885515E-05
7.186903E+03	1.228324E-03	3.918182E-05
7.196830E+03	1.237580E-03	3.948382E-05
7.206756E+03	1.245957E-03	3.975791E-05
7.216683E+03	1.253354E-03	4.000087E-05
7.226610E+03	1.259668E-03	4.020941E-05
7.236536E+03	1.264803E-03	4.038046E-05
7.246463E+03	1.268603E-03	4.050897E-05
7.256390E+03	1.271101E-03	4.059603E-05
7.266316E+03	1.272101E-03	4.063532E-05
7.276243E+03	1.271660E-03	4.062863E-05
7.286170E+03	1.269608E-03	4.057053E-05
7.296096E+03	1.265980E-03	4.046211E-05
7.306023E+03	1.260770E-03	4.030315E-05
7.315950E+03	1.253998E-03	4.009425E-05
7.325876E+03	1.245645E-03	3.983478E-05
7.335803E+03	1.235892E-03	3.953049E-05
7.345730E+03	1.224703E-03	3.918020E-05
7.355656E+03	1.212232E-03	3.878883E-05
7.365583E+03	1.198646E-03	3.836169E-05
7.375510E+03	1.183889E-03	3.789696E-05
7.385436E+03	1.168258E-03	3.740411E-05
7.395363E+03	1.151819E-03	3.688527E-05
7.405290E+03	1.134643E-03	3.634268E-05
7.415216E+03	1.116910E-03	3.578206E-05
7.425143E+03	1.098736E-03	3.520716E-05
7.435070E+03	1.080232E-03	3.462151E-05
7.444996E+03	1.061502E-03	3.402843E-05
7.454923E+03	1.042592E-03	3.342938E-05
7.464850E+03	1.023640E-03	3.282880E-05
7.474776E+03	1.004726E-03	3.222923E-05
7.484703E+03	9.859200E-04	3.163291E-05
7.494630E+03	9.672829E-04	3.104180E-05
7.504556E+03	9.488211E-04	3.045611E-05
7.514483E+03	9.306272E-04	2.987881E-05
7.524410E+03	9.127375E-04	2.931106E-05
7.534336E+03	8.951366E-04	2.875238E-05
7.544263E+03	8.779361E-04	2.820634E-05
7.554190E+03	8.610649E-04	2.767068E-05
7.564116E+03	8.445793E-04	2.714721E-05
7.574043E+03	8.284460E-04	2.663485E-05
7.583970E+03	8.127523E-04	2.613643E-05
7.593896E+03	7.974177E-04	2.564936E-05
7.603823E+03	7.824426E-04	2.517366E-05
7.613750E+03	7.679017E-04	2.471174E-05
7.623676E+03	7.537123E-04	2.426094E-05
7.633603E+03	7.399063E-04	2.382230E-05
7.643530E+03	7.264760E-04	2.339557E-05
7.653456E+03	7.133767E-04	2.297931E-05
7.663383E+03	7.006357E-04	2.257443E-05
7.673310E+03	6.882431E-04	2.218061E-05
7.683236E+03	6.761885E-04	2.179750E-05
7.693163E+03	6.644277E-04	2.142370E-05
7.703090E+03	6.529846E-04	2.105999E-05
