#wls	flux	fluxerr
1.600000E+03	1.567632E-16	9.947967E-17
1.640000E+03	1.615409E-16	1.015378E-16
1.680000E+03	1.666530E-16	1.037165E-16
1.720000E+03	1.721099E-16	1.060123E-16
1.760000E+03	1.779367E-16	1.084304E-16
1.800000E+03	1.841733E-16	1.109834E-16
1.840000E+03	1.907966E-16	1.136450E-16
1.880000E+03	1.978601E-16	1.164342E-16
1.920000E+03	2.053698E-16	1.193398E-16
1.960000E+03	2.133308E-16	1.223498E-16
2.000000E+03	2.217316E-16	1.254418E-16
2.040000E+03	2.305753E-16	1.286012E-16
2.080000E+03	2.398333E-16	1.317955E-16
2.120000E+03	2.494460E-16	1.349754E-16
2.160000E+03	2.593987E-16	1.381172E-16
2.200000E+03	2.696157E-16	1.411655E-16
2.240000E+03	2.800364E-16	1.440745E-16
2.280000E+03	2.906301E-16	1.468157E-16
2.320000E+03	3.013949E-16	1.493758E-16
2.360000E+03	3.123724E-16	1.517623E-16
2.400000E+03	3.236168E-16	1.539872E-16
2.440000E+03	3.351796E-16	1.560588E-16
2.480000E+03	3.471534E-16	1.580015E-16
2.520000E+03	3.595836E-16	1.598150E-16
2.560000E+03	3.725414E-16	1.615076E-16
2.600000E+03	3.860515E-16	1.630647E-16
2.640000E+03	4.001500E-16	1.644749E-16
2.680000E+03	4.148417E-16	1.657129E-16
2.720000E+03	4.301295E-16	1.667517E-16
2.760000E+03	4.460136E-16	1.675640E-16
2.800000E+03	4.624789E-16	1.681169E-16
2.840000E+03	4.795089E-16	1.683781E-16
2.880000E+03	4.971124E-16	1.683260E-16
2.920000E+03	5.152702E-16	1.679305E-16
2.960000E+03	5.340277E-16	1.671843E-16
3.000000E+03	5.533887E-16	1.660675E-16
3.010000E+03	5.583425E-16	1.657339E-16
3.020000E+03	5.633285E-16	1.653739E-16
3.030000E+03	5.683461E-16	1.649872E-16
3.040000E+03	5.734200E-16	1.645808E-16
3.050000E+03	5.785365E-16	1.641502E-16
3.060000E+03	5.836950E-16	1.636952E-16
3.070000E+03	5.889073E-16	1.632187E-16
3.080000E+03	5.941598E-16	1.627168E-16
3.090000E+03	5.994519E-16	1.621890E-16
3.100000E+03	6.048078E-16	1.616417E-16
3.110000E+03	6.102017E-16	1.610677E-16
3.120000E+03	6.156452E-16	1.604701E-16
3.130000E+03	6.211251E-16	1.598452E-16
3.140000E+03	6.266779E-16	1.592022E-16
3.150000E+03	6.322656E-16	1.585313E-16
3.160000E+03	6.378998E-16	1.578355E-16
3.170000E+03	6.435920E-16	1.571174E-16
3.180000E+03	6.493414E-16	1.563769E-16
3.190000E+03	6.551228E-16	1.556078E-16
3.200000E+03	6.609722E-16	1.548187E-16
3.210000E+03	6.668643E-16	1.540038E-16
3.220000E+03	6.728107E-16	1.531659E-16
3.230000E+03	6.787986E-16	1.523022E-16
3.240000E+03	6.848394E-16	1.514154E-16
3.250000E+03	6.909325E-16	1.505057E-16
3.260000E+03	6.970772E-16	1.495733E-16
3.270000E+03	7.032611E-16	1.486157E-16
3.280000E+03	7.094955E-16	1.476358E-16
3.290000E+03	7.157799E-16	1.466341E-16
3.300000E+03	7.221020E-16	1.456084E-16
3.310000E+03	7.284732E-16	1.445618E-16
3.320000E+03	7.348815E-16	1.434925E-16
3.330000E+03	7.413380E-16	1.424035E-16
3.340000E+03	7.478310E-16	1.412933E-16
3.350000E+03	7.543602E-16	1.401629E-16
3.360000E+03	7.609255E-16	1.390132E-16
3.370000E+03	7.675267E-16	1.378453E-16
3.380000E+03	7.741637E-16	1.366604E-16
3.390000E+03	7.808252E-16	1.354578E-16
3.400000E+03	7.875227E-16	1.342408E-16
3.410000E+03	7.942335E-16	1.330072E-16
3.420000E+03	8.009805E-16	1.317623E-16
3.430000E+03	8.077416E-16	1.305042E-16
3.440000E+03	8.145170E-16	1.292348E-16
3.450000E+03	8.213073E-16	1.279562E-16
3.460000E+03	8.281020E-16	1.266686E-16
3.470000E+03	8.349127E-16	1.253761E-16
3.480000E+03	8.417291E-16	1.240793E-16
3.490000E+03	8.485411E-16	1.227791E-16
3.500000E+03	8.553495E-16	1.214780E-16
3.510000E+03	8.621444E-16	1.201773E-16
3.520000E+03	8.689380E-16	1.188811E-16
3.530000E+03	8.756988E-16	1.175880E-16
3.540000E+03	8.824390E-16	1.163023E-16
3.550000E+03	8.891495E-16	1.150256E-16
3.560000E+03	8.958316E-16	1.137610E-16
3.570000E+03	9.024657E-16	1.125088E-16
3.580000E+03	9.090429E-16	1.112709E-16
3.590000E+03	9.155759E-16	1.100517E-16
3.600000E+03	9.220347E-16	1.088504E-16
3.610000E+03	9.284323E-16	1.076713E-16
3.620000E+03	9.347601E-16	1.065162E-16
3.630000E+03	9.409994E-16	1.053852E-16
3.640000E+03	9.471421E-16	1.042802E-16
3.650000E+03	9.531907E-16	1.032035E-16
3.660000E+03	9.591267E-16	1.021552E-16
3.670000E+03	9.649631E-16	1.011386E-16
3.680000E+03	9.706710E-16	1.001523E-16
3.690000E+03	9.762530E-16	9.919786E-17
3.700000E+03	9.817009E-16	9.827561E-17
3.710000E+03	9.870171E-16	9.738660E-17
3.720000E+03	9.921829E-16	9.652955E-17
3.730000E+03	9.972003E-16	9.570493E-17
3.740000E+03	1.002061E-15	9.491193E-17
3.750000E+03	1.006766E-15	9.415043E-17
3.760000E+03	1.011306E-15	9.341906E-17
3.770000E+03	1.015683E-15	9.271715E-17
3.780000E+03	1.019887E-15	9.204286E-17
3.790000E+03	1.023908E-15	9.139418E-17
3.800000E+03	1.027767E-15	9.077156E-17
3.810000E+03	1.031433E-15	9.017084E-17
3.820000E+03	1.034917E-15	8.959129E-17
3.830000E+03	1.038228E-15	8.903202E-17
3.840000E+03	1.041346E-15	8.848948E-17
3.850000E+03	1.044269E-15	8.796184E-17
3.860000E+03	1.047009E-15	8.744804E-17
3.870000E+03	1.049563E-15	8.694617E-17
3.880000E+03	1.051932E-15	8.645439E-17
3.890000E+03	1.054106E-15	8.597007E-17
3.900000E+03	1.056095E-15	8.549229E-17
3.910000E+03	1.057899E-15	8.501942E-17
3.920000E+03	1.059520E-15	8.454992E-17
3.930000E+03	1.060957E-15	8.408239E-17
3.940000E+03	1.062214E-15	8.361556E-17
3.950000E+03	1.063301E-15	8.314904E-17
3.960000E+03	1.064221E-15	8.268183E-17
3.970000E+03	1.064969E-15	8.221234E-17
3.980000E+03	1.065566E-15	8.174137E-17
3.990000E+03	1.066009E-15	8.126760E-17
4.000000E+03	1.066311E-15	8.079138E-17
4.010000E+03	1.066477E-15	8.031242E-17
4.020000E+03	1.066505E-15	7.982989E-17
4.030000E+03	1.066421E-15	7.934521E-17
4.040000E+03	1.066221E-15	7.885780E-17
4.050000E+03	1.065924E-15	7.836860E-17
4.060000E+03	1.065537E-15	7.787794E-17
4.070000E+03	1.065069E-15	7.738626E-17
4.080000E+03	1.064530E-15	7.689408E-17
4.090000E+03	1.063937E-15	7.640268E-17
4.100000E+03	1.063291E-15	7.591204E-17
4.110000E+03	1.062602E-15	7.542287E-17
4.120000E+03	1.061897E-15	7.493726E-17
4.130000E+03	1.061168E-15	7.445465E-17
4.140000E+03	1.060434E-15	7.397652E-17
4.150000E+03	1.059702E-15	7.350365E-17
4.160000E+03	1.058983E-15	7.303685E-17
4.170000E+03	1.058284E-15	7.257688E-17
4.180000E+03	1.057612E-15	7.212451E-17
4.190000E+03	1.056974E-15	7.168044E-17
4.200000E+03	1.056375E-15	7.124534E-17
4.210000E+03	1.055820E-15	7.081980E-17
4.220000E+03	1.055313E-15	7.040435E-17
4.230000E+03	1.054845E-15	6.999885E-17
4.240000E+03	1.054419E-15	6.960366E-17
4.250000E+03	1.054042E-15	6.921968E-17
4.260000E+03	1.053712E-15	6.884706E-17
4.270000E+03	1.053408E-15	6.848469E-17
4.280000E+03	1.053132E-15	6.813312E-17
4.290000E+03	1.052879E-15	6.779219E-17
4.300000E+03	1.052639E-15	6.746162E-17
4.310000E+03	1.052402E-15	6.714103E-17
4.320000E+03	1.052147E-15	6.682929E-17
4.330000E+03	1.051880E-15	6.652697E-17
4.340000E+03	1.051567E-15	6.623214E-17
4.350000E+03	1.051212E-15	6.594512E-17
4.360000E+03	1.050796E-15	6.566499E-17
4.370000E+03	1.050313E-15	6.539129E-17
4.380000E+03	1.049742E-15	6.512294E-17
4.390000E+03	1.049077E-15	6.485938E-17
4.400000E+03	1.048296E-15	6.459943E-17
4.410000E+03	1.047401E-15	6.434306E-17
4.420000E+03	1.046374E-15	6.408910E-17
4.430000E+03	1.045197E-15	6.383640E-17
4.440000E+03	1.043874E-15	6.358501E-17
4.450000E+03	1.042390E-15	6.333388E-17
4.460000E+03	1.040741E-15	6.308265E-17
4.470000E+03	1.038937E-15	6.283161E-17
4.480000E+03	1.036959E-15	6.257945E-17
4.490000E+03	1.034821E-15	6.232669E-17
4.500000E+03	1.032527E-15	6.207341E-17
4.510000E+03	1.030077E-15	6.181926E-17
4.520000E+03	1.027482E-15	6.156457E-17
4.530000E+03	1.024756E-15	6.130981E-17
4.540000E+03	1.021913E-15	6.105558E-17
4.550000E+03	1.018973E-15	6.080257E-17
4.560000E+03	1.015945E-15	6.055104E-17
4.570000E+03	1.012841E-15	6.030128E-17
4.580000E+03	1.009704E-15	6.005542E-17
4.590000E+03	1.006538E-15	5.981335E-17
4.600000E+03	1.003359E-15	5.957554E-17
4.610000E+03	1.000200E-15	5.934366E-17
4.620000E+03	9.970879E-16	5.911880E-17
4.630000E+03	9.940180E-16	5.890032E-17
4.640000E+03	9.910435E-16	5.869099E-17
4.650000E+03	9.881494E-16	5.848954E-17
4.660000E+03	9.853770E-16	5.829806E-17
4.670000E+03	9.827376E-16	5.811687E-17
4.680000E+03	9.802412E-16	5.794621E-17
4.690000E+03	9.778959E-16	5.778626E-17
4.700000E+03	9.757081E-16	5.763711E-17
4.710000E+03	9.737018E-16	5.749989E-17
4.720000E+03	9.718703E-16	5.737397E-17
4.730000E+03	9.702151E-16	5.725919E-17
4.740000E+03	9.687453E-16	5.715588E-17
4.750000E+03	9.674399E-16	5.706262E-17
4.760000E+03	9.663247E-16	5.698077E-17
4.770000E+03	9.653663E-16	5.690821E-17
4.780000E+03	9.645787E-16	5.684564E-17
4.790000E+03	9.639559E-16	5.679261E-17
4.800000E+03	9.634715E-16	5.674746E-17
4.810000E+03	9.631279E-16	5.671029E-17
4.820000E+03	9.629276E-16	5.668116E-17
4.830000E+03	9.628434E-16	5.665845E-17
4.840000E+03	9.628775E-16	5.664226E-17
4.850000E+03	9.630227E-16	5.663213E-17
4.860000E+03	9.632621E-16	5.662707E-17
4.870000E+03	9.635892E-16	5.662667E-17
4.880000E+03	9.640075E-16	5.663114E-17
4.890000E+03	9.645013E-16	5.663955E-17
4.900000E+03	9.650752E-16	5.665216E-17
4.910000E+03	9.657044E-16	5.666750E-17
4.920000E+03	9.663939E-16	5.668586E-17
4.930000E+03	9.671393E-16	5.670694E-17
4.940000E+03	9.679262E-16	5.672987E-17
4.950000E+03	9.687600E-16	5.675492E-17
4.960000E+03	9.696263E-16	5.678121E-17
4.970000E+03	9.705301E-16	5.680898E-17
4.980000E+03	9.714563E-16	5.683730E-17
4.990000E+03	9.723992E-16	5.686577E-17
5.000000E+03	9.733426E-16	5.689340E-17
5.010000E+03	9.742995E-16	5.692090E-17
5.020000E+03	9.752421E-16	5.694663E-17
5.030000E+03	9.761622E-16	5.697007E-17
5.040000E+03	9.770604E-16	5.699127E-17
5.050000E+03	9.779167E-16	5.700908E-17
5.060000E+03	9.787201E-16	5.702289E-17
5.070000E+03	9.794592E-16	5.703209E-17
5.080000E+03	9.801215E-16	5.703604E-17
5.090000E+03	9.806843E-16	5.703352E-17
5.100000E+03	9.811340E-16	5.702386E-17
5.110000E+03	9.814670E-16	5.700701E-17
5.120000E+03	9.816493E-16	5.698113E-17
5.130000E+03	9.816871E-16	5.694676E-17
5.140000E+03	9.815363E-16	5.690151E-17
5.150000E+03	9.812036E-16	5.684597E-17
5.160000E+03	9.806658E-16	5.677899E-17
5.170000E+03	9.799108E-16	5.670004E-17
5.180000E+03	9.789271E-16	5.660867E-17
5.190000E+03	9.776945E-16	5.650388E-17
5.200000E+03	9.762038E-16	5.638533E-17
5.210000E+03	9.744377E-16	5.625220E-17
5.220000E+03	9.724101E-16	5.610544E-17
5.230000E+03	9.700869E-16	5.594326E-17
5.240000E+03	9.674756E-16	5.576623E-17
5.250000E+03	9.645756E-16	5.557445E-17
5.260000E+03	9.613883E-16	5.536812E-17
5.270000E+03	9.578976E-16	5.514642E-17
5.280000E+03	9.541185E-16	5.491033E-17
5.290000E+03	9.500487E-16	5.465978E-17
5.300000E+03	9.456973E-16	5.439539E-17
5.310000E+03	9.410657E-16	5.411730E-17
5.320000E+03	9.361762E-16	5.382683E-17
5.330000E+03	9.310240E-16	5.352375E-17
5.340000E+03	9.256248E-16	5.320901E-17
5.350000E+03	9.199864E-16	5.288306E-17
5.360000E+03	9.141363E-16	5.254750E-17
5.370000E+03	9.080658E-16	5.220184E-17
5.380000E+03	9.018043E-16	5.184775E-17
5.390000E+03	8.953632E-16	5.148587E-17
5.400000E+03	8.887548E-16	5.111688E-17
5.410000E+03	8.819739E-16	5.074043E-17
5.420000E+03	8.750339E-16	5.035725E-17
5.430000E+03	8.679484E-16	4.996804E-17
5.440000E+03	8.606964E-16	4.957152E-17
5.450000E+03	8.532922E-16	4.916842E-17
5.460000E+03	8.457244E-16	4.875796E-17
5.470000E+03	8.379992E-16	4.834036E-17
5.480000E+03	8.301640E-16	4.791821E-17
5.490000E+03	8.222314E-16	4.749208E-17
5.500000E+03	8.142463E-16	4.706439E-17
5.510000E+03	8.062352E-16	4.663648E-17
5.520000E+03	7.982475E-16	4.621102E-17
5.530000E+03	7.902900E-16	4.578821E-17
5.540000E+03	7.823926E-16	4.536956E-17
5.550000E+03	7.745674E-16	4.495558E-17
5.560000E+03	7.668488E-16	4.454804E-17
5.570000E+03	7.592376E-16	4.414678E-17
5.580000E+03	7.517494E-16	4.375249E-17
5.590000E+03	7.443898E-16	4.336530E-17
5.600000E+03	7.371785E-16	4.298615E-17
5.610000E+03	7.301106E-16	4.261455E-17
5.620000E+03	7.231948E-16	4.225084E-17
5.630000E+03	7.164380E-16	4.189523E-17
5.640000E+03	7.098384E-16	4.154745E-17
5.650000E+03	7.033997E-16	4.120757E-17
5.660000E+03	6.971098E-16	4.087474E-17
5.670000E+03	6.909699E-16	4.054888E-17
5.680000E+03	6.849797E-16	4.022986E-17
5.690000E+03	6.791305E-16	3.991706E-17
5.700000E+03	6.734127E-16	3.960981E-17
5.710000E+03	6.678159E-16	3.930739E-17
5.720000E+03	6.623427E-16	3.900988E-17
5.730000E+03	6.569671E-16	3.871568E-17
5.740000E+03	6.516909E-16	3.842480E-17
5.750000E+03	6.465012E-16	3.813643E-17
5.760000E+03	6.413785E-16	3.784936E-17
5.770000E+03	6.363168E-16	3.756319E-17
5.780000E+03	6.313106E-16	3.727754E-17
5.790000E+03	6.263410E-16	3.699125E-17
5.800000E+03	6.213965E-16	3.670362E-17
5.810000E+03	6.164798E-16	3.641480E-17
5.820000E+03	6.115676E-16	3.612337E-17
5.830000E+03	6.066577E-16	3.582922E-17
5.840000E+03	6.017424E-16	3.553188E-17
5.850000E+03	5.968150E-16	3.523099E-17
5.860000E+03	5.918770E-16	3.492667E-17
5.870000E+03	5.869113E-16	3.461794E-17
5.880000E+03	5.819285E-16	3.430549E-17
5.890000E+03	5.769209E-16	3.398895E-17
5.900000E+03	5.718890E-16	3.366843E-17
5.910000E+03	5.668346E-16	3.334414E-17
5.920000E+03	5.617609E-16	3.301638E-17
5.930000E+03	5.566787E-16	3.268592E-17
5.940000E+03	5.515813E-16	3.235251E-17
5.950000E+03	5.464758E-16	3.201672E-17
5.960000E+03	5.413769E-16	3.167957E-17
5.970000E+03	5.362939E-16	3.134177E-17
5.980000E+03	5.312249E-16	3.100339E-17
5.990000E+03	5.261938E-16	3.066598E-17
6.000000E+03	5.211943E-16	3.032937E-17
6.010000E+03	5.162579E-16	2.999554E-17
6.020000E+03	5.113799E-16	2.966439E-17
6.030000E+03	5.065747E-16	2.933690E-17
6.040000E+03	5.018630E-16	2.901441E-17
6.050000E+03	4.972537E-16	2.869757E-17
6.060000E+03	4.927618E-16	2.838735E-17
6.070000E+03	4.883908E-16	2.808405E-17
6.080000E+03	4.841675E-16	2.778928E-17
6.090000E+03	4.800891E-16	2.750293E-17
6.100000E+03	4.761817E-16	2.722655E-17
6.110000E+03	4.724534E-16	2.696059E-17
6.120000E+03	4.689114E-16	2.670548E-17
6.130000E+03	4.655683E-16	2.646189E-17
6.140000E+03	4.624410E-16	2.623074E-17
6.150000E+03	4.595340E-16	2.601223E-17
6.160000E+03	4.568562E-16	2.580676E-17
6.170000E+03	4.544267E-16	2.561533E-17
6.180000E+03	4.522401E-16	2.543749E-17
6.190000E+03	4.503068E-16	2.527370E-17
6.200000E+03	4.486355E-16	2.512428E-17
6.210000E+03	4.472331E-16	2.498946E-17
6.220000E+03	4.460935E-16	2.486870E-17
6.230000E+03	4.452145E-16	2.476168E-17
6.240000E+03	4.445980E-16	2.466828E-17
6.250000E+03	4.442322E-16	2.458763E-17
6.260000E+03	4.441154E-16	2.451936E-17
6.270000E+03	4.442381E-16	2.446270E-17
6.280000E+03	4.445949E-16	2.441708E-17
6.290000E+03	4.451731E-16	2.438148E-17
6.300000E+03	4.459580E-16	2.435481E-17
6.310000E+03	4.469393E-16	2.433618E-17
6.320000E+03	4.481057E-16	2.432462E-17
6.330000E+03	4.494319E-16	2.431844E-17
6.340000E+03	4.509038E-16	2.431650E-17
6.350000E+03	4.525063E-16	2.431763E-17
6.360000E+03	4.542106E-16	2.431991E-17
6.370000E+03	4.560062E-16	2.432242E-17
6.380000E+03	4.578694E-16	2.432352E-17
6.390000E+03	4.597758E-16	2.432157E-17
6.400000E+03	4.617010E-16	2.431489E-17
6.410000E+03	4.636335E-16	2.430257E-17
6.420000E+03	4.655422E-16	2.428263E-17
6.430000E+03	4.674165E-16	2.425421E-17
6.440000E+03	4.692330E-16	2.421580E-17
6.450000E+03	4.709689E-16	2.416593E-17
6.460000E+03	4.726091E-16	2.410360E-17
6.470000E+03	4.741326E-16	2.402749E-17
6.480000E+03	4.755269E-16	2.393678E-17
6.490000E+03	4.767589E-16	2.382962E-17
6.500000E+03	4.778258E-16	2.370575E-17
6.510000E+03	4.787121E-16	2.356430E-17
6.520000E+03	4.793962E-16	2.340416E-17
6.530000E+03	4.798732E-16	2.322507E-17
6.540000E+03	4.801323E-16	2.302654E-17
6.550000E+03	4.801646E-16	2.280826E-17
6.560000E+03	4.799632E-16	2.257002E-17
6.570000E+03	4.795306E-16	2.231214E-17
6.580000E+03	4.788556E-16	2.203439E-17
6.590000E+03	4.779367E-16	2.173703E-17
6.600000E+03	4.767821E-16	2.142084E-17
6.610000E+03	4.753937E-16	2.108639E-17
6.620000E+03	4.737676E-16	2.073408E-17
6.630000E+03	4.719169E-16	2.036513E-17
6.640000E+03	4.698407E-16	1.998026E-17
6.650000E+03	4.675632E-16	1.958132E-17
6.660000E+03	4.650783E-16	1.916898E-17
6.670000E+03	4.623971E-16	1.874477E-17
6.680000E+03	4.595394E-16	1.831065E-17
6.690000E+03	4.565185E-16	1.786843E-17
6.700000E+03	4.533404E-16	1.741977E-17
6.710000E+03	4.500199E-16	1.696682E-17
6.720000E+03	4.465800E-16	1.651218E-17
6.730000E+03	4.430289E-16	1.605804E-17
6.740000E+03	4.393904E-16	1.560736E-17
6.750000E+03	4.356652E-16	1.516246E-17
6.760000E+03	4.318854E-16	1.472697E-17
6.770000E+03	4.280517E-16	1.430362E-17
6.780000E+03	4.241956E-16	1.389640E-17
6.790000E+03	4.203174E-16	1.350845E-17
6.800000E+03	4.164400E-16	1.314382E-17
6.810000E+03	4.125778E-16	1.280639E-17
6.820000E+03	4.087369E-16	1.249983E-17
6.830000E+03	4.049375E-16	1.222817E-17
6.840000E+03	4.011835E-16	1.199478E-17
6.850000E+03	3.974925E-16	1.180310E-17
6.860000E+03	3.938584E-16	1.165536E-17
6.870000E+03	3.903032E-16	1.155395E-17
6.880000E+03	3.868243E-16	1.149787E-17
6.890000E+03	3.834234E-16	1.148300E-17
6.900000E+03	3.800940E-16	1.150437E-17
6.910000E+03	3.768496E-16	1.155746E-17
6.920000E+03	3.736670E-16	1.163663E-17
6.930000E+03	3.705651E-16	1.173772E-17
6.940000E+03	3.675265E-16	1.185571E-17
6.950000E+03	3.645475E-16	1.198641E-17
6.960000E+03	3.616311E-16	1.212622E-17
6.970000E+03	3.587660E-16	1.227150E-17
6.980000E+03	3.559479E-16	1.241926E-17
6.990000E+03	3.531725E-16	1.256687E-17
7.000000E+03	3.504355E-16	1.271209E-17
7.010000E+03	3.477330E-16	1.285299E-17
7.020000E+03	3.450543E-16	1.298768E-17
7.030000E+03	3.424093E-16	1.311531E-17
7.040000E+03	3.397747E-16	1.323396E-17
7.050000E+03	3.371676E-16	1.334348E-17
7.060000E+03	3.345656E-16	1.344232E-17
7.070000E+03	3.319798E-16	1.353041E-17
7.080000E+03	3.294020E-16	1.360703E-17
7.090000E+03	3.268307E-16	1.367182E-17
7.100000E+03	3.242716E-16	1.372482E-17
7.110000E+03	3.217111E-16	1.376535E-17
7.120000E+03	3.191556E-16	1.379361E-17
7.130000E+03	3.165989E-16	1.380932E-17
7.140000E+03	3.140478E-16	1.381283E-17
7.150000E+03	3.115033E-16	1.380426E-17
7.160000E+03	3.089600E-16	1.378350E-17
7.170000E+03	3.064255E-16	1.375102E-17
7.180000E+03	3.038890E-16	1.370650E-17
7.190000E+03	3.013646E-16	1.365076E-17
7.200000E+03	2.988480E-16	1.358381E-17
7.210000E+03	2.963350E-16	1.350568E-17
7.220000E+03	2.938339E-16	1.341696E-17
7.230000E+03	2.913467E-16	1.331799E-17
7.240000E+03	2.888696E-16	1.320881E-17
7.250000E+03	2.864047E-16	1.308978E-17
7.260000E+03	2.839542E-16	1.296125E-17
7.270000E+03	2.815202E-16	1.282355E-17
7.280000E+03	2.791047E-16	1.267705E-17
7.290000E+03	2.766982E-16	1.252156E-17
7.300000E+03	2.743140E-16	1.235797E-17
7.310000E+03	2.719484E-16	1.218635E-17
7.320000E+03	2.695975E-16	1.200680E-17
7.330000E+03	2.672687E-16	1.181994E-17
7.340000E+03	2.649525E-16	1.162563E-17
7.350000E+03	2.626507E-16	1.142423E-17
7.360000E+03	2.603650E-16	1.121612E-17
7.370000E+03	2.580917E-16	1.100147E-17
7.380000E+03	2.558379E-16	1.078090E-17
7.390000E+03	2.535891E-16	1.055415E-17
7.400000E+03	2.513579E-16	1.032214E-17
7.410000E+03	2.491354E-16	1.008489E-17
7.420000E+03	2.469288E-16	9.843127E-18
7.430000E+03	2.447347E-16	9.597185E-18
7.440000E+03	2.425549E-16	9.347654E-18
7.450000E+03	2.403965E-16	9.095365E-18
7.460000E+03	2.382562E-16	8.840810E-18
7.470000E+03	2.361513E-16	8.585309E-18
7.480000E+03	2.340732E-16	8.329308E-18
7.490000E+03	2.320337E-16	8.074088E-18
7.500000E+03	2.300295E-16	7.820504E-18
7.510000E+03	2.280771E-16	7.570227E-18
7.520000E+03	2.261728E-16	7.324395E-18
7.530000E+03	2.243180E-16	7.084513E-18
7.540000E+03	2.225186E-16	6.852449E-18
7.550000E+03	2.207756E-16	6.630151E-18
7.560000E+03	2.190995E-16	6.420104E-18
7.570000E+03	2.174809E-16	6.224474E-18
7.580000E+03	2.159250E-16	6.046108E-18
7.590000E+03	2.144363E-16	5.888049E-18
7.600000E+03	2.130096E-16	5.753199E-18
7.610000E+03	2.116486E-16	5.644741E-18
7.620000E+03	2.103473E-16	5.565450E-18
7.630000E+03	2.091132E-16	5.518147E-18
7.640000E+03	2.079346E-16	5.504603E-18
7.650000E+03	2.068194E-16	5.525357E-18
7.660000E+03	2.057584E-16	5.578112E-18
7.670000E+03	2.047610E-16	5.660408E-18
7.680000E+03	2.038171E-16	5.768958E-18
7.690000E+03	2.029352E-16	5.900864E-18
7.700000E+03	2.021093E-16	6.052873E-18
7.710000E+03	2.013378E-16	6.222011E-18
7.720000E+03	2.006189E-16	6.405537E-18
7.730000E+03	1.999508E-16	6.600980E-18
7.740000E+03	1.993314E-16	6.806158E-18
7.750000E+03	1.987543E-16	7.019010E-18
7.760000E+03	1.982266E-16	7.238221E-18
