#wls	flux	fluxerr
1.600000E+03	5.851937E-17	3.779777E-17
1.640000E+03	5.986094E-17	3.833867E-17
1.680000E+03	6.127831E-17	3.890385E-17
1.720000E+03	6.277933E-17	3.949622E-17
1.760000E+03	6.436433E-17	4.011371E-17
1.800000E+03	6.604115E-17	4.075878E-17
1.840000E+03	6.781763E-17	4.143367E-17
1.880000E+03	6.970936E-17	4.214493E-17
1.920000E+03	7.170874E-17	4.288481E-17
1.960000E+03	7.383899E-17	4.366384E-17
2.000000E+03	7.610006E-17	4.447822E-17
2.040000E+03	7.851519E-17	4.533745E-17
2.080000E+03	8.109982E-17	4.624580E-17
2.120000E+03	8.387716E-17	4.721135E-17
2.160000E+03	8.688625E-17	4.825007E-17
2.200000E+03	9.015026E-17	4.936787E-17
2.240000E+03	9.373199E-17	5.059111E-17
2.280000E+03	9.766229E-17	5.192695E-17
2.320000E+03	1.019956E-16	5.339355E-17
2.360000E+03	1.067538E-16	5.499019E-17
2.400000E+03	1.119336E-16	5.670237E-17
2.440000E+03	1.175467E-16	5.852273E-17
2.480000E+03	1.236034E-16	6.044258E-17
2.520000E+03	1.301208E-16	6.245569E-17
2.560000E+03	1.371060E-16	6.455036E-17
2.600000E+03	1.445646E-16	6.671344E-17
2.640000E+03	1.525240E-16	6.894138E-17
2.680000E+03	1.609772E-16	7.121396E-17
2.720000E+03	1.699385E-16	7.352040E-17
2.760000E+03	1.794116E-16	7.584453E-17
2.800000E+03	1.893726E-16	7.815864E-17
2.840000E+03	1.998506E-16	8.045716E-17
2.880000E+03	2.108463E-16	8.272223E-17
2.920000E+03	2.224040E-16	8.495253E-17
2.960000E+03	2.346174E-16	8.716337E-17
3.000000E+03	2.475572E-16	8.935773E-17
3.010000E+03	2.509231E-16	8.990712E-17
3.020000E+03	2.543364E-16	9.045416E-17
3.030000E+03	2.578117E-16	9.100363E-17
3.040000E+03	2.613402E-16	9.155189E-17
3.050000E+03	2.649285E-16	9.210084E-17
3.060000E+03	2.685755E-16	9.264959E-17
3.070000E+03	2.722879E-16	9.319989E-17
3.080000E+03	2.760721E-16	9.375342E-17
3.090000E+03	2.799191E-16	9.430653E-17
3.100000E+03	2.838352E-16	9.486084E-17
3.110000E+03	2.878268E-16	9.541786E-17
3.120000E+03	2.918925E-16	9.597647E-17
3.130000E+03	2.960306E-16	9.653558E-17
3.140000E+03	3.002549E-16	9.709902E-17
3.150000E+03	3.045562E-16	9.766309E-17
3.160000E+03	3.089326E-16	9.822660E-17
3.170000E+03	3.134053E-16	9.879559E-17
3.180000E+03	3.179571E-16	9.936391E-17
3.190000E+03	3.226013E-16	9.993499E-17
3.200000E+03	3.273283E-16	1.005051E-16
3.210000E+03	3.321511E-16	1.010776E-16
3.220000E+03	3.370675E-16	1.016510E-16
3.230000E+03	3.420752E-16	1.022239E-16
3.240000E+03	3.471794E-16	1.027969E-16
3.250000E+03	3.523851E-16	1.033708E-16
3.260000E+03	3.576822E-16	1.039419E-16
3.270000E+03	3.630757E-16	1.045108E-16
3.280000E+03	3.685628E-16	1.050760E-16
3.290000E+03	3.741482E-16	1.056379E-16
3.300000E+03	3.798291E-16	1.061950E-16
3.310000E+03	3.856023E-16	1.067458E-16
3.320000E+03	3.914724E-16	1.072905E-16
3.330000E+03	3.974216E-16	1.078237E-16
3.340000E+03	4.034685E-16	1.083497E-16
3.350000E+03	4.095955E-16	1.088631E-16
3.360000E+03	4.157992E-16	1.093622E-16
3.370000E+03	4.220836E-16	1.098476E-16
3.380000E+03	4.284381E-16	1.103159E-16
3.390000E+03	4.348521E-16	1.107638E-16
3.400000E+03	4.413223E-16	1.111900E-16
3.410000E+03	4.478382E-16	1.115916E-16
3.420000E+03	4.544033E-16	1.119689E-16
3.430000E+03	4.609933E-16	1.123158E-16
3.440000E+03	4.676047E-16	1.126312E-16
3.450000E+03	4.742272E-16	1.129127E-16
3.460000E+03	4.808439E-16	1.131560E-16
3.470000E+03	4.874445E-16	1.133591E-16
3.480000E+03	4.940193E-16	1.135199E-16
3.490000E+03	5.005515E-16	1.136348E-16
3.500000E+03	5.070181E-16	1.136991E-16
3.510000E+03	5.134098E-16	1.137114E-16
3.520000E+03	5.197106E-16	1.136690E-16
3.530000E+03	5.258984E-16	1.135679E-16
3.540000E+03	5.319579E-16	1.134059E-16
3.550000E+03	5.378743E-16	1.131812E-16
3.560000E+03	5.436329E-16	1.128918E-16
3.570000E+03	5.492130E-16	1.125352E-16
3.580000E+03	5.546007E-16	1.121100E-16
3.590000E+03	5.597761E-16	1.116142E-16
3.600000E+03	5.647390E-16	1.110494E-16
3.610000E+03	5.694701E-16	1.104141E-16
3.620000E+03	5.739570E-16	1.097078E-16
3.630000E+03	5.781814E-16	1.089294E-16
3.640000E+03	5.821319E-16	1.080791E-16
3.650000E+03	5.857972E-16	1.071574E-16
3.660000E+03	5.891668E-16	1.061649E-16
3.670000E+03	5.922365E-16	1.051035E-16
3.680000E+03	5.949964E-16	1.039743E-16
3.690000E+03	5.974489E-16	1.027804E-16
3.700000E+03	5.995849E-16	1.015232E-16
3.710000E+03	6.014133E-16	1.002070E-16
3.720000E+03	6.029313E-16	9.883408E-17
3.730000E+03	6.041364E-16	9.740695E-17
3.740000E+03	6.050377E-16	9.592996E-17
3.750000E+03	6.056390E-16	9.440644E-17
3.760000E+03	6.059438E-16	9.283975E-17
3.770000E+03	6.059560E-16	9.123322E-17
3.780000E+03	6.056906E-16	8.959181E-17
3.790000E+03	6.051457E-16	8.791787E-17
3.800000E+03	6.043310E-16	8.621541E-17
3.810000E+03	6.032613E-16	8.448908E-17
3.820000E+03	6.019295E-16	8.274034E-17
3.830000E+03	6.003559E-16	8.097447E-17
3.840000E+03	5.985443E-16	7.919431E-17
3.850000E+03	5.964985E-16	7.740271E-17
3.860000E+03	5.942332E-16	7.560380E-17
3.870000E+03	5.917521E-16	7.380023E-17
3.880000E+03	5.890641E-16	7.199528E-17
3.890000E+03	5.861731E-16	7.019147E-17
3.900000E+03	5.830930E-16	6.839248E-17
3.910000E+03	5.798224E-16	6.660009E-17
3.920000E+03	5.763751E-16	6.481779E-17
3.930000E+03	5.727547E-16	6.304779E-17
3.940000E+03	5.689696E-16	6.129277E-17
3.950000E+03	5.650284E-16	5.955533E-17
3.960000E+03	5.609295E-16	5.783692E-17
3.970000E+03	5.566813E-16	5.613998E-17
3.980000E+03	5.522968E-16	5.446729E-17
3.990000E+03	5.477699E-16	5.281961E-17
4.000000E+03	5.431179E-16	5.119995E-17
4.010000E+03	5.383348E-16	4.960895E-17
4.020000E+03	5.334335E-16	4.804888E-17
4.030000E+03	5.284193E-16	4.652090E-17
4.040000E+03	5.233029E-16	4.502576E-17
4.050000E+03	5.180965E-16	4.356393E-17
4.060000E+03	5.128176E-16	4.213600E-17
4.070000E+03	5.074769E-16	4.074146E-17
4.080000E+03	5.020983E-16	3.938064E-17
4.090000E+03	4.966924E-16	3.805266E-17
4.100000E+03	4.912737E-16	3.675689E-17
4.110000E+03	4.858562E-16	3.549261E-17
4.120000E+03	4.804572E-16	3.425936E-17
4.130000E+03	4.750891E-16	3.305630E-17
4.140000E+03	4.697602E-16	3.188235E-17
4.150000E+03	4.644855E-16	3.073699E-17
4.160000E+03	4.592758E-16	2.961943E-17
4.170000E+03	4.541374E-16	2.852870E-17
4.180000E+03	4.490873E-16	2.746460E-17
4.190000E+03	4.441267E-16	2.642606E-17
4.200000E+03	4.392676E-16	2.541279E-17
4.210000E+03	4.345213E-16	2.442457E-17
4.220000E+03	4.298910E-16	2.346088E-17
4.230000E+03	4.253834E-16	2.252157E-17
4.240000E+03	4.210079E-16	2.160682E-17
4.250000E+03	4.167664E-16	2.071658E-17
4.260000E+03	4.126708E-16	1.985155E-17
4.270000E+03	4.087255E-16	1.901226E-17
4.280000E+03	4.049311E-16	1.819936E-17
4.290000E+03	4.013012E-16	1.741437E-17
4.300000E+03	3.978356E-16	1.665851E-17
4.310000E+03	3.945406E-16	1.593366E-17
4.320000E+03	3.914252E-16	1.524219E-17
4.330000E+03	3.884949E-16	1.458672E-17
4.340000E+03	3.857547E-16	1.397027E-17
4.350000E+03	3.832122E-16	1.339641E-17
4.360000E+03	3.808659E-16	1.286879E-17
4.370000E+03	3.787202E-16	1.239163E-17
4.380000E+03	3.767733E-16	1.196921E-17
4.390000E+03	3.750269E-16	1.160599E-17
4.400000E+03	3.734737E-16	1.130595E-17
4.410000E+03	3.721190E-16	1.107295E-17
4.420000E+03	3.709624E-16	1.090941E-17
4.430000E+03	3.700051E-16	1.081419E-17
4.440000E+03	3.692414E-16	1.078147E-17
4.450000E+03	3.686670E-16	1.080361E-17
4.460000E+03	3.682771E-16	1.087237E-17
4.470000E+03	3.680704E-16	1.097958E-17
4.480000E+03	3.680389E-16	1.111718E-17
4.490000E+03	3.681801E-16	1.127774E-17
4.500000E+03	3.684914E-16	1.145445E-17
4.510000E+03	3.689639E-16	1.164105E-17
4.520000E+03	3.695980E-16	1.183228E-17
4.530000E+03	3.703845E-16	1.202326E-17
4.540000E+03	3.713238E-16	1.221008E-17
4.550000E+03	3.724066E-16	1.238910E-17
4.560000E+03	3.736333E-16	1.255748E-17
4.570000E+03	3.749979E-16	1.271264E-17
4.580000E+03	3.764941E-16	1.285239E-17
4.590000E+03	3.781222E-16	1.297505E-17
4.600000E+03	3.798761E-16	1.307903E-17
4.610000E+03	3.817532E-16	1.316299E-17
4.620000E+03	3.837508E-16	1.322576E-17
4.630000E+03	3.858598E-16	1.326616E-17
4.640000E+03	3.880842E-16	1.328351E-17
4.650000E+03	3.904183E-16	1.327696E-17
4.660000E+03	3.928595E-16	1.324597E-17
4.670000E+03	3.954015E-16	1.319009E-17
4.680000E+03	3.980380E-16	1.310911E-17
4.690000E+03	4.007624E-16	1.300313E-17
4.700000E+03	4.035714E-16	1.287270E-17
4.710000E+03	4.064543E-16	1.271855E-17
4.720000E+03	4.094076E-16	1.254208E-17
4.730000E+03	4.124162E-16	1.234487E-17
4.740000E+03	4.154720E-16	1.212932E-17
4.750000E+03	4.185662E-16	1.189845E-17
4.760000E+03	4.216842E-16	1.165577E-17
4.770000E+03	4.248146E-16	1.140574E-17
4.780000E+03	4.279412E-16	1.115370E-17
4.790000E+03	4.310506E-16	1.090611E-17
4.800000E+03	4.341252E-16	1.067053E-17
4.810000E+03	4.371541E-16	1.045578E-17
4.820000E+03	4.401131E-16	1.027133E-17
4.830000E+03	4.429935E-16	1.012769E-17
4.840000E+03	4.457740E-16	1.003536E-17
4.850000E+03	4.484373E-16	1.000425E-17
4.860000E+03	4.509682E-16	1.004165E-17
4.870000E+03	4.533605E-16	1.014786E-17
4.880000E+03	4.556157E-16	1.031693E-17
4.890000E+03	4.577369E-16	1.054059E-17
4.900000E+03	4.597322E-16	1.080973E-17
4.910000E+03	4.616023E-16	1.111489E-17
4.920000E+03	4.633565E-16	1.144718E-17
4.930000E+03	4.649961E-16	1.179820E-17
4.940000E+03	4.665356E-16	1.216068E-17
4.950000E+03	4.679768E-16	1.252797E-17
4.960000E+03	4.693215E-16	1.289427E-17
4.970000E+03	4.705886E-16	1.325484E-17
4.980000E+03	4.717710E-16	1.360494E-17
4.990000E+03	4.728883E-16	1.394133E-17
5.000000E+03	4.739390E-16	1.426064E-17
5.010000E+03	4.749355E-16	1.456048E-17
5.020000E+03	4.758816E-16	1.483872E-17
5.030000E+03	4.767956E-16	1.509397E-17
5.040000E+03	4.776783E-16	1.532469E-17
5.050000E+03	4.785486E-16	1.553027E-17
5.060000E+03	4.794072E-16	1.570976E-17
5.070000E+03	4.802731E-16	1.586307E-17
5.080000E+03	4.811517E-16	1.598995E-17
5.090000E+03	4.820477E-16	1.609032E-17
5.100000E+03	4.829796E-16	1.616481E-17
5.110000E+03	4.839519E-16	1.621378E-17
5.120000E+03	4.849737E-16	1.623788E-17
5.130000E+03	4.860492E-16	1.623779E-17
5.140000E+03	4.871959E-16	1.621466E-17
5.150000E+03	4.884113E-16	1.616885E-17
5.160000E+03	4.897060E-16	1.610116E-17
5.170000E+03	4.910848E-16	1.601205E-17
5.180000E+03	4.925455E-16	1.590113E-17
5.190000E+03	4.940938E-16	1.576816E-17
5.200000E+03	4.957258E-16	1.561267E-17
5.210000E+03	4.974416E-16	1.543438E-17
5.220000E+03	4.992412E-16	1.523318E-17
5.230000E+03	5.011289E-16	1.500939E-17
5.240000E+03	5.030941E-16	1.476314E-17
5.250000E+03	5.051403E-16	1.449537E-17
5.260000E+03	5.072608E-16	1.420719E-17
5.270000E+03	5.094579E-16	1.390040E-17
5.280000E+03	5.117287E-16	1.357723E-17
5.290000E+03	5.140592E-16	1.324015E-17
5.300000E+03	5.164535E-16	1.289250E-17
5.310000E+03	5.188947E-16	1.253781E-17
5.320000E+03	5.213805E-16	1.218074E-17
5.330000E+03	5.238980E-16	1.182625E-17
5.340000E+03	5.264389E-16	1.148040E-17
5.350000E+03	5.289994E-16	1.115062E-17
5.360000E+03	5.315593E-16	1.084514E-17
5.370000E+03	5.341134E-16	1.057370E-17
5.380000E+03	5.366452E-16	1.034668E-17
5.390000E+03	5.391423E-16	1.017470E-17
5.400000E+03	5.415913E-16	1.006732E-17
5.410000E+03	5.439702E-16	1.002885E-17
5.420000E+03	5.462595E-16	1.005576E-17
5.430000E+03	5.484387E-16	1.014103E-17
5.440000E+03	5.504831E-16	1.027624E-17
5.450000E+03	5.523781E-16	1.045232E-17
5.460000E+03	5.541109E-16	1.066043E-17
5.470000E+03	5.556632E-16	1.089240E-17
5.480000E+03	5.570232E-16	1.114098E-17
5.490000E+03	5.581850E-16	1.140017E-17
5.500000E+03	5.591327E-16	1.166446E-17
5.510000E+03	5.598524E-16	1.192820E-17
5.520000E+03	5.603432E-16	1.218657E-17
5.530000E+03	5.606004E-16	1.243547E-17
5.540000E+03	5.606190E-16	1.267103E-17
5.550000E+03	5.604076E-16	1.289038E-17
5.560000E+03	5.599664E-16	1.309110E-17
5.570000E+03	5.593077E-16	1.327127E-17
5.580000E+03	5.584524E-16	1.342975E-17
5.590000E+03	5.574116E-16	1.356580E-17
5.600000E+03	5.562008E-16	1.367907E-17
5.610000E+03	5.548541E-16	1.377022E-17
5.620000E+03	5.533893E-16	1.384007E-17
5.630000E+03	5.518270E-16	1.388968E-17
5.640000E+03	5.502053E-16	1.392103E-17
5.650000E+03	5.485400E-16	1.393582E-17
5.660000E+03	5.468653E-16	1.393606E-17
5.670000E+03	5.452096E-16	1.392388E-17
5.680000E+03	5.436013E-16	1.390156E-17
5.690000E+03	5.420629E-16	1.387108E-17
5.700000E+03	5.406338E-16	1.383498E-17
5.710000E+03	5.393296E-16	1.379533E-17
5.720000E+03	5.381814E-16	1.375438E-17
5.730000E+03	5.372078E-16	1.371410E-17
5.740000E+03	5.364404E-16	1.367652E-17
5.750000E+03	5.358833E-16	1.364187E-17
5.760000E+03	5.355362E-16	1.360998E-17
5.770000E+03	5.354106E-16	1.358089E-17
5.780000E+03	5.354882E-16	1.355329E-17
5.790000E+03	5.357510E-16	1.352591E-17
5.800000E+03	5.361782E-16	1.349764E-17
5.810000E+03	5.367484E-16	1.346740E-17
5.820000E+03	5.374257E-16	1.343406E-17
5.830000E+03	5.381852E-16	1.339722E-17
5.840000E+03	5.389935E-16	1.335653E-17
5.850000E+03	5.398166E-16	1.331204E-17
5.860000E+03	5.406134E-16	1.326361E-17
5.870000E+03	5.413596E-16	1.321071E-17
5.880000E+03	5.420180E-16	1.315248E-17
5.890000E+03	5.425453E-16	1.308820E-17
5.900000E+03	5.429109E-16	1.301742E-17
5.910000E+03	5.430781E-16	1.293993E-17
5.920000E+03	5.430179E-16	1.285602E-17
5.930000E+03	5.426905E-16	1.276577E-17
5.940000E+03	5.420705E-16	1.266984E-17
5.950000E+03	5.411363E-16	1.256872E-17
5.960000E+03	5.398614E-16	1.246146E-17
5.970000E+03	5.382365E-16	1.234720E-17
5.980000E+03	5.362568E-16	1.222495E-17
5.990000E+03	5.339139E-16	1.209273E-17
6.000000E+03	5.312234E-16	1.194906E-17
6.010000E+03	5.281900E-16	1.179261E-17
6.020000E+03	5.248219E-16	1.162230E-17
6.030000E+03	5.211357E-16	1.143779E-17
6.040000E+03	5.171495E-16	1.123944E-17
6.050000E+03	5.128718E-16	1.102775E-17
6.060000E+03	5.083383E-16	1.080451E-17
6.070000E+03	5.035600E-16	1.057162E-17
6.080000E+03	4.985630E-16	1.033161E-17
6.090000E+03	4.933805E-16	1.008776E-17
6.100000E+03	4.880211E-16	9.843235E-18
6.110000E+03	4.825266E-16	9.601662E-18
6.120000E+03	4.769203E-16	9.366606E-18
6.130000E+03	4.712324E-16	9.141896E-18
6.140000E+03	4.654881E-16	8.930649E-18
6.150000E+03	4.597195E-16	8.736169E-18
6.160000E+03	4.539516E-16	8.561856E-18
6.170000E+03	4.482153E-16	8.411007E-18
6.180000E+03	4.425287E-16	8.286622E-18
6.190000E+03	4.369097E-16	8.191370E-18
6.200000E+03	4.313934E-16	8.127092E-18
6.210000E+03	4.259928E-16	8.092797E-18
6.220000E+03	4.207600E-16	8.085249E-18
6.230000E+03	4.157223E-16	8.099612E-18
6.240000E+03	4.109223E-16	8.131535E-18
6.250000E+03	4.063886E-16	8.176960E-18
6.260000E+03	4.021513E-16	8.232392E-18
6.270000E+03	3.982274E-16	8.294865E-18
6.280000E+03	3.946552E-16	8.362711E-18
6.290000E+03	3.914488E-16	8.434476E-18
6.300000E+03	3.886328E-16	8.509687E-18
6.310000E+03	3.862257E-16	8.588401E-18
6.320000E+03	3.842498E-16	8.671197E-18
6.330000E+03	3.827268E-16	8.759096E-18
6.340000E+03	3.816626E-16	8.852795E-18
6.350000E+03	3.810665E-16	8.952400E-18
6.360000E+03	3.809213E-16	9.057306E-18
6.370000E+03	3.812272E-16	9.167319E-18
6.380000E+03	3.819617E-16	9.281273E-18
6.390000E+03	3.830927E-16	9.397774E-18
6.400000E+03	3.846039E-16	9.516071E-18
6.410000E+03	3.864608E-16	9.635131E-18
6.420000E+03	3.886621E-16	9.755043E-18
6.430000E+03	3.911725E-16	9.875301E-18
6.440000E+03	3.939847E-16	9.996180E-18
6.450000E+03	3.970617E-16	1.011745E-17
6.460000E+03	4.003906E-16	1.023961E-17
6.470000E+03	4.039480E-16	1.036271E-17
6.480000E+03	4.077106E-16	1.048689E-17
6.490000E+03	4.116561E-16	1.061238E-17
6.500000E+03	4.157641E-16	1.073914E-17
6.510000E+03	4.200088E-16	1.086702E-17
6.520000E+03	4.243830E-16	1.099645E-17
6.530000E+03	4.288548E-16	1.112692E-17
6.540000E+03	4.334109E-16	1.125846E-17
6.550000E+03	4.380244E-16	1.139074E-17
6.560000E+03	4.426734E-16	1.152301E-17
6.570000E+03	4.473421E-16	1.165464E-17
6.580000E+03	4.519923E-16	1.178451E-17
6.590000E+03	4.565970E-16	1.191150E-17
6.600000E+03	4.611351E-16	1.203479E-17
6.610000E+03	4.655776E-16	1.215348E-17
6.620000E+03	4.698803E-16	1.226611E-17
6.630000E+03	4.740279E-16	1.237216E-17
6.640000E+03	4.779760E-16	1.247052E-17
6.650000E+03	4.817127E-16	1.256076E-17
6.660000E+03	4.851892E-16	1.264170E-17
6.670000E+03	4.884050E-16	1.271353E-17
6.680000E+03	4.913266E-16	1.277530E-17
6.690000E+03	4.939469E-16	1.282690E-17
6.700000E+03	4.962364E-16	1.286798E-17
6.710000E+03	4.982092E-16	1.289939E-17
6.720000E+03	4.998328E-16	1.292108E-17
6.730000E+03	5.011177E-16	1.293436E-17
6.740000E+03	5.020627E-16	1.293995E-17
6.750000E+03	5.026519E-16	1.293839E-17
6.760000E+03	5.029050E-16	1.293137E-17
6.770000E+03	5.028194E-16	1.291995E-17
6.780000E+03	5.024112E-16	1.290588E-17
6.790000E+03	5.016731E-16	1.289039E-17
6.800000E+03	5.006347E-16	1.287535E-17
6.810000E+03	4.993105E-16	1.286219E-17
6.820000E+03	4.977079E-16	1.285196E-17
6.830000E+03	4.958450E-16	1.284514E-17
6.840000E+03	4.937411E-16	1.284194E-17
6.850000E+03	4.914339E-16	1.284291E-17
6.860000E+03	4.889197E-16	1.284697E-17
6.870000E+03	4.862386E-16	1.285401E-17
6.880000E+03	4.834147E-16	1.286331E-17
6.890000E+03	4.804649E-16	1.287342E-17
6.900000E+03	4.774234E-16	1.288340E-17
6.910000E+03	4.743151E-16	1.289217E-17
6.920000E+03	4.711541E-16	1.289837E-17
6.930000E+03	4.679706E-16	1.290128E-17
6.940000E+03	4.647842E-16	1.290017E-17
6.950000E+03	4.616022E-16	1.289408E-17
6.960000E+03	4.584552E-16	1.288300E-17
6.970000E+03	4.553388E-16	1.286627E-17
6.980000E+03	4.522791E-16	1.284431E-17
6.990000E+03	4.492674E-16	1.281685E-17
7.000000E+03	4.463268E-16	1.278473E-17
7.010000E+03	4.434438E-16	1.274767E-17
7.020000E+03	4.406365E-16	1.270643E-17
7.030000E+03	4.378977E-16	1.266125E-17
7.040000E+03	4.352267E-16	1.261253E-17
7.050000E+03	4.326307E-16	1.256103E-17
7.060000E+03	4.301002E-16	1.250692E-17
7.070000E+03	4.276337E-16	1.245001E-17
7.080000E+03	4.252380E-16	1.239027E-17
7.090000E+03	4.229113E-16	1.232761E-17
7.100000E+03	4.206439E-16	1.226174E-17
7.110000E+03	4.184421E-16	1.219312E-17
7.120000E+03	4.163043E-16	1.212214E-17
7.130000E+03	4.142282E-16	1.204928E-17
7.140000E+03	4.122034E-16	1.197495E-17
7.150000E+03	4.102435E-16	1.190045E-17
7.160000E+03	4.083371E-16	1.182622E-17
7.170000E+03	4.064804E-16	1.175308E-17
7.180000E+03	4.046776E-16	1.168213E-17
7.190000E+03	4.029164E-16	1.161376E-17
7.200000E+03	4.011924E-16	1.154861E-17
7.210000E+03	3.995178E-16	1.148766E-17
7.220000E+03	3.978646E-16	1.143008E-17
7.230000E+03	3.962539E-16	1.137634E-17
7.240000E+03	3.946740E-16	1.132588E-17
7.250000E+03	3.931128E-16	1.127776E-17
7.260000E+03	3.915744E-16	1.123149E-17
7.270000E+03	3.900627E-16	1.118662E-17
7.280000E+03	3.885641E-16	1.114195E-17
7.290000E+03	3.870650E-16	1.109639E-17
7.300000E+03	3.855759E-16	1.104974E-17
7.310000E+03	3.840824E-16	1.100123E-17
7.320000E+03	3.825779E-16	1.095054E-17
7.330000E+03	3.810642E-16	1.089782E-17
7.340000E+03	3.795097E-16	1.084227E-17
7.350000E+03	3.779325E-16	1.078472E-17
7.360000E+03	3.763098E-16	1.072485E-17
7.370000E+03	3.746356E-16	1.066250E-17
7.380000E+03	3.729045E-16	1.059755E-17
7.390000E+03	3.711030E-16	1.052970E-17
7.400000E+03	3.692267E-16	1.045861E-17
7.410000E+03	3.672716E-16	1.038402E-17
7.420000E+03	3.652260E-16	1.030546E-17
7.430000E+03	3.630868E-16	1.022239E-17
7.440000E+03	3.608433E-16	1.013411E-17
7.450000E+03	3.585178E-16	1.004111E-17
7.460000E+03	3.560921E-16	9.942892E-18
7.470000E+03	3.535806E-16	9.840155E-18
7.480000E+03	3.509824E-16	9.733410E-18
7.490000E+03	3.483050E-16	9.623447E-18
7.500000E+03	3.455405E-16	9.510871E-18
7.510000E+03	3.426979E-16	9.397001E-18
7.520000E+03	3.397872E-16	9.283217E-18
7.530000E+03	3.367950E-16	9.170490E-18
7.540000E+03	3.337485E-16	9.061093E-18
7.550000E+03	3.306350E-16	8.956135E-18
7.560000E+03	3.274585E-16	8.857342E-18
7.570000E+03	3.242392E-16	8.767051E-18
7.580000E+03	3.209667E-16	8.686704E-18
7.590000E+03	3.176471E-16	8.618297E-18
7.600000E+03	3.143021E-16	8.564413E-18
7.610000E+03	3.109226E-16	8.526860E-18
7.620000E+03	3.075155E-16	8.507859E-18
7.630000E+03	3.040950E-16	8.509722E-18
7.640000E+03	3.006683E-16	8.534229E-18
7.650000E+03	2.972352E-16	8.582156E-18
7.660000E+03	2.938112E-16	8.653688E-18
7.670000E+03	2.904036E-16	8.748160E-18
7.680000E+03	2.870049E-16	8.864169E-18
7.690000E+03	2.836432E-16	9.001215E-18
7.700000E+03	2.803014E-16	9.157143E-18
7.710000E+03	2.770047E-16	9.331111E-18
7.720000E+03	2.737351E-16	9.520866E-18
7.730000E+03	2.705164E-16	9.725501E-18
7.740000E+03	2.673365E-16	9.942977E-18
7.750000E+03	2.641976E-16	1.017189E-17
7.760000E+03	2.611154E-16	1.041148E-17
