#wls	flux	fluxerr
1.600000E+03	7.438737E-17	4.780632E-17
1.640000E+03	7.625944E-17	4.858394E-17
1.680000E+03	7.825135E-17	4.940413E-17
1.720000E+03	8.035442E-17	5.025827E-17
1.760000E+03	8.258737E-17	5.115480E-17
1.800000E+03	8.495980E-17	5.209598E-17
1.840000E+03	8.748126E-17	5.308368E-17
1.880000E+03	9.016128E-17	5.411933E-17
1.920000E+03	9.299986E-17	5.519831E-17
1.960000E+03	9.601560E-17	5.632677E-17
2.000000E+03	9.922707E-17	5.751012E-17
2.040000E+03	1.026432E-16	5.874758E-17
2.080000E+03	1.062728E-16	6.003778E-17
2.120000E+03	1.101528E-16	6.139463E-17
2.160000E+03	1.143203E-16	6.283069E-17
2.200000E+03	1.188118E-16	6.435699E-17
2.240000E+03	1.237121E-16	6.600862E-17
2.280000E+03	1.290862E-16	6.780741E-17
2.320000E+03	1.349796E-16	6.976235E-17
2.360000E+03	1.414173E-16	7.187018E-17
2.400000E+03	1.483844E-16	7.410629E-17
2.440000E+03	1.559223E-16	7.647393E-17
2.480000E+03	1.640225E-16	7.895029E-17
2.520000E+03	1.727230E-16	8.153449E-17
2.560000E+03	1.820305E-16	8.420941E-17
2.600000E+03	1.919879E-16	8.697382E-17
2.640000E+03	2.026065E-16	8.981039E-17
2.680000E+03	2.139039E-16	9.270394E-17
2.720000E+03	2.258844E-16	9.563280E-17
2.760000E+03	2.385584E-16	9.857739E-17
2.800000E+03	2.518933E-16	1.015004E-16
2.840000E+03	2.659000E-16	1.043832E-16
2.880000E+03	2.805655E-16	1.071973E-16
2.920000E+03	2.959470E-16	1.099415E-16
2.960000E+03	3.121324E-16	1.126233E-16
3.000000E+03	3.292661E-16	1.152667E-16
3.010000E+03	3.337206E-16	1.159259E-16
3.020000E+03	3.382373E-16	1.165812E-16
3.030000E+03	3.428243E-16	1.172348E-16
3.040000E+03	3.474894E-16	1.178888E-16
3.050000E+03	3.522313E-16	1.185422E-16
3.060000E+03	3.570484E-16	1.191939E-16
3.070000E+03	3.619577E-16	1.198488E-16
3.080000E+03	3.669482E-16	1.205026E-16
3.090000E+03	3.720184E-16	1.211542E-16
3.100000E+03	3.771848E-16	1.218083E-16
3.110000E+03	3.824457E-16	1.224636E-16
3.120000E+03	3.878082E-16	1.231215E-16
3.130000E+03	3.932520E-16	1.237750E-16
3.140000E+03	3.988117E-16	1.244341E-16
3.150000E+03	4.044668E-16	1.250917E-16
3.160000E+03	4.102241E-16	1.257490E-16
3.170000E+03	4.160904E-16	1.264074E-16
3.180000E+03	4.220632E-16	1.270652E-16
3.190000E+03	4.281492E-16	1.277235E-16
3.200000E+03	4.343455E-16	1.283808E-16
3.210000E+03	4.406585E-16	1.290380E-16
3.220000E+03	4.470854E-16	1.296934E-16
3.230000E+03	4.536322E-16	1.303478E-16
3.240000E+03	4.602958E-16	1.309995E-16
3.250000E+03	4.670731E-16	1.316467E-16
3.260000E+03	4.739698E-16	1.322901E-16
3.270000E+03	4.809825E-16	1.329279E-16
3.280000E+03	4.881166E-16	1.335607E-16
3.290000E+03	4.953685E-16	1.341866E-16
3.300000E+03	5.027346E-16	1.348038E-16
3.310000E+03	5.102111E-16	1.354105E-16
3.320000E+03	5.178030E-16	1.360070E-16
3.330000E+03	5.255062E-16	1.365916E-16
3.340000E+03	5.333168E-16	1.371624E-16
3.350000E+03	5.412305E-16	1.377176E-16
3.360000E+03	5.492347E-16	1.382532E-16
3.370000E+03	5.573337E-16	1.387697E-16
3.380000E+03	5.655147E-16	1.392634E-16
3.390000E+03	5.737817E-16	1.397346E-16
3.400000E+03	5.821219E-16	1.401797E-16
3.410000E+03	5.905140E-16	1.405931E-16
3.420000E+03	5.989705E-16	1.409776E-16
3.430000E+03	6.074617E-16	1.413259E-16
3.440000E+03	6.159833E-16	1.416368E-16
3.450000E+03	6.245227E-16	1.419074E-16
3.460000E+03	6.330674E-16	1.421349E-16
3.470000E+03	6.415967E-16	1.423149E-16
3.480000E+03	6.500984E-16	1.424449E-16
3.490000E+03	6.585443E-16	1.425193E-16
3.500000E+03	6.669307E-16	1.425379E-16
3.510000E+03	6.752298E-16	1.424955E-16
3.520000E+03	6.834144E-16	1.423874E-16
3.530000E+03	6.914656E-16	1.422108E-16
3.540000E+03	6.993414E-16	1.419585E-16
3.550000E+03	7.070159E-16	1.416269E-16
3.560000E+03	7.144643E-16	1.412129E-16
3.570000E+03	7.216542E-16	1.407123E-16
3.580000E+03	7.285542E-16	1.401212E-16
3.590000E+03	7.351257E-16	1.394351E-16
3.600000E+03	7.413620E-16	1.386554E-16
3.610000E+03	7.472260E-16	1.377783E-16
3.620000E+03	7.527045E-16	1.368046E-16
3.630000E+03	7.577846E-16	1.357352E-16
3.640000E+03	7.624541E-16	1.345715E-16
3.650000E+03	7.667010E-16	1.333148E-16
3.660000E+03	7.705215E-16	1.319683E-16
3.670000E+03	7.739193E-16	1.305360E-16
3.680000E+03	7.768911E-16	1.290211E-16
3.690000E+03	7.794266E-16	1.274256E-16
3.700000E+03	7.815448E-16	1.257561E-16
3.710000E+03	7.832360E-16	1.240149E-16
3.720000E+03	7.845123E-16	1.222073E-16
3.730000E+03	7.853785E-16	1.203378E-16
3.740000E+03	7.858468E-16	1.184116E-16
3.750000E+03	7.859156E-16	1.164319E-16
3.760000E+03	7.855970E-16	1.144040E-16
3.770000E+03	7.849102E-16	1.123339E-16
3.780000E+03	7.838537E-16	1.102247E-16
3.790000E+03	7.824400E-16	1.080812E-16
3.800000E+03	7.806811E-16	1.059082E-16
3.810000E+03	7.785893E-16	1.037104E-16
3.820000E+03	7.761702E-16	1.014915E-16
3.830000E+03	7.734360E-16	9.925579E-17
3.840000E+03	7.704051E-16	9.700849E-17
3.850000E+03	7.670769E-16	9.475213E-17
3.860000E+03	7.634697E-16	9.249156E-17
3.870000E+03	7.595953E-16	9.023070E-17
3.880000E+03	7.554594E-16	8.797257E-17
3.890000E+03	7.510738E-16	8.572088E-17
3.900000E+03	7.464505E-16	8.347915E-17
3.910000E+03	7.415950E-16	8.125012E-17
3.920000E+03	7.365252E-16	7.903774E-17
3.930000E+03	7.312411E-16	7.684387E-17
3.940000E+03	7.257606E-16	7.467214E-17
3.950000E+03	7.200954E-16	7.252539E-17
3.960000E+03	7.142464E-16	7.040514E-17
3.970000E+03	7.082260E-16	6.831396E-17
3.980000E+03	7.020472E-16	6.625423E-17
3.990000E+03	6.957231E-16	6.422812E-17
4.000000E+03	6.892567E-16	6.223657E-17
4.010000E+03	6.826625E-16	6.028139E-17
4.020000E+03	6.759561E-16	5.836412E-17
4.030000E+03	6.691483E-16	5.648558E-17
4.040000E+03	6.622511E-16	5.464638E-17
4.050000E+03	6.552824E-16	5.284733E-17
4.060000E+03	6.482557E-16	5.108858E-17
4.070000E+03	6.411803E-16	4.936966E-17
4.080000E+03	6.340810E-16	4.769113E-17
4.090000E+03	6.269675E-16	4.605218E-17
4.100000E+03	6.198598E-16	4.445263E-17
4.110000E+03	6.127728E-16	4.289182E-17
4.120000E+03	6.057160E-16	4.136867E-17
4.130000E+03	5.987134E-16	3.988306E-17
4.140000E+03	5.917736E-16	3.843387E-17
4.150000E+03	5.849098E-16	3.702032E-17
4.160000E+03	5.781389E-16	3.564192E-17
4.170000E+03	5.714728E-16	3.429797E-17
4.180000E+03	5.649223E-16	3.298782E-17
4.190000E+03	5.585022E-16	3.171119E-17
4.200000E+03	5.522175E-16	3.046739E-17
4.210000E+03	5.460860E-16	2.925662E-17
4.220000E+03	5.401114E-16	2.807850E-17
4.230000E+03	5.343096E-16	2.693349E-17
4.240000E+03	5.286831E-16	2.582162E-17
4.250000E+03	5.232507E-16	2.474395E-17
4.260000E+03	5.180176E-16	2.370114E-17
4.270000E+03	5.129928E-16	2.269433E-17
4.280000E+03	5.081846E-16	2.172495E-17
4.290000E+03	5.036089E-16	2.079508E-17
4.300000E+03	4.992767E-16	1.990693E-17
4.310000E+03	4.951946E-16	1.906289E-17
4.320000E+03	4.913767E-16	1.826603E-17
4.330000E+03	4.878328E-16	1.751959E-17
4.340000E+03	4.845760E-16	1.682727E-17
4.350000E+03	4.816192E-16	1.619295E-17
4.360000E+03	4.789672E-16	1.562039E-17
4.370000E+03	4.766206E-16	1.511318E-17
4.380000E+03	4.745646E-16	1.467416E-17
4.390000E+03	4.727997E-16	1.430613E-17
4.400000E+03	4.713107E-16	1.401054E-17
4.410000E+03	4.700974E-16	1.378811E-17
4.420000E+03	4.691478E-16	1.363775E-17
4.430000E+03	4.684566E-16	1.355676E-17
4.440000E+03	4.680176E-16	1.354050E-17
4.450000E+03	4.678237E-16	1.358291E-17
4.460000E+03	4.678672E-16	1.367691E-17
4.470000E+03	4.681436E-16	1.381498E-17
4.480000E+03	4.686518E-16	1.398943E-17
4.490000E+03	4.693746E-16	1.419220E-17
4.500000E+03	4.703136E-16	1.441611E-17
4.510000E+03	4.714624E-16	1.465422E-17
4.520000E+03	4.728105E-16	1.490002E-17
4.530000E+03	4.743546E-16	1.514784E-17
4.540000E+03	4.760874E-16	1.539249E-17
4.550000E+03	4.780055E-16	1.562947E-17
4.560000E+03	4.800970E-16	1.585454E-17
4.570000E+03	4.823622E-16	1.606436E-17
4.580000E+03	4.847888E-16	1.625561E-17
4.590000E+03	4.873769E-16	1.642576E-17
4.600000E+03	4.901098E-16	1.657208E-17
4.610000E+03	4.929914E-16	1.669286E-17
4.620000E+03	4.960044E-16	1.678598E-17
4.630000E+03	4.991442E-16	1.685003E-17
4.640000E+03	5.024055E-16	1.688386E-17
4.650000E+03	5.057790E-16	1.688650E-17
4.660000E+03	5.092504E-16	1.685711E-17
4.670000E+03	5.128180E-16	1.679562E-17
4.680000E+03	5.164625E-16	1.670177E-17
4.690000E+03	5.201860E-16	1.657641E-17
4.700000E+03	5.239634E-16	1.642002E-17
4.710000E+03	5.277914E-16	1.623430E-17
4.720000E+03	5.316572E-16	1.602128E-17
4.730000E+03	5.355473E-16	1.578367E-17
4.740000E+03	5.394474E-16	1.552494E-17
4.750000E+03	5.433475E-16	1.524954E-17
4.760000E+03	5.472320E-16	1.496273E-17
4.770000E+03	5.510846E-16	1.467079E-17
4.780000E+03	5.548935E-16	1.438114E-17
4.790000E+03	5.586415E-16	1.410212E-17
4.800000E+03	5.623114E-16	1.384298E-17
4.810000E+03	5.658856E-16	1.361369E-17
4.820000E+03	5.693472E-16	1.342448E-17
4.830000E+03	5.726848E-16	1.328551E-17
4.840000E+03	5.758780E-16	1.320575E-17
4.850000E+03	5.789184E-16	1.319274E-17
4.860000E+03	5.817894E-16	1.325109E-17
4.870000E+03	5.844893E-16	1.338154E-17
4.880000E+03	5.870153E-16	1.358083E-17
4.890000E+03	5.893618E-16	1.384287E-17
4.900000E+03	5.915360E-16	1.415995E-17
4.910000E+03	5.935361E-16	1.452294E-17
4.920000E+03	5.953783E-16	1.492256E-17
4.930000E+03	5.970584E-16	1.534906E-17
4.940000E+03	5.985896E-16	1.579350E-17
4.950000E+03	5.999805E-16	1.624750E-17
4.960000E+03	6.012405E-16	1.670348E-17
4.970000E+03	6.023796E-16	1.715477E-17
4.980000E+03	6.034029E-16	1.759536E-17
4.990000E+03	6.043324E-16	1.802059E-17
5.000000E+03	6.051682E-16	1.842589E-17
5.010000E+03	6.059277E-16	1.880789E-17
5.020000E+03	6.066228E-16	1.916368E-17
5.030000E+03	6.072657E-16	1.949093E-17
5.040000E+03	6.078684E-16	1.978778E-17
5.050000E+03	6.084377E-16	2.005264E-17
5.060000E+03	6.089913E-16	2.028468E-17
5.070000E+03	6.095414E-16	2.048323E-17
5.080000E+03	6.100940E-16	2.064770E-17
5.090000E+03	6.106661E-16	2.077814E-17
5.100000E+03	6.112631E-16	2.087443E-17
5.110000E+03	6.119011E-16	2.093700E-17
5.120000E+03	6.125842E-16	2.096600E-17
5.130000E+03	6.133273E-16	2.096209E-17
5.140000E+03	6.141270E-16	2.092538E-17
5.150000E+03	6.150023E-16	2.085679E-17
5.160000E+03	6.159480E-16	2.075649E-17
5.170000E+03	6.169814E-16	2.062544E-17
5.180000E+03	6.180950E-16	2.046382E-17
5.190000E+03	6.192984E-16	2.027245E-17
5.200000E+03	6.205881E-16	2.005183E-17
5.210000E+03	6.219719E-16	1.980299E-17
5.220000E+03	6.234505E-16	1.952691E-17
5.230000E+03	6.250120E-16	1.922446E-17
5.240000E+03	6.266676E-16	1.889754E-17
5.250000E+03	6.284096E-16	1.854785E-17
5.260000E+03	6.302297E-16	1.817757E-17
5.270000E+03	6.321305E-16	1.778970E-17
5.280000E+03	6.341082E-16	1.738767E-17
5.290000E+03	6.361580E-16	1.697555E-17
5.300000E+03	6.382618E-16	1.655780E-17
5.310000E+03	6.404255E-16	1.614037E-17
5.320000E+03	6.426356E-16	1.572953E-17
5.330000E+03	6.448839E-16	1.533260E-17
5.340000E+03	6.471552E-16	1.495755E-17
5.350000E+03	6.494461E-16	1.461333E-17
5.360000E+03	6.517397E-16	1.430901E-17
5.370000E+03	6.540311E-16	1.405397E-17
5.380000E+03	6.562954E-16	1.385663E-17
5.390000E+03	6.585263E-16	1.372469E-17
5.400000E+03	6.607106E-16	1.366372E-17
5.410000E+03	6.628276E-16	1.367565E-17
5.420000E+03	6.648622E-16	1.375826E-17
5.430000E+03	6.668059E-16	1.390653E-17
5.440000E+03	6.686236E-16	1.411294E-17
5.450000E+03	6.703074E-16	1.436928E-17
5.460000E+03	6.718368E-16	1.466645E-17
5.470000E+03	6.731926E-16	1.499522E-17
5.480000E+03	6.743637E-16	1.534686E-17
5.490000E+03	6.753541E-16	1.571351E-17
5.500000E+03	6.761429E-16	1.608751E-17
5.510000E+03	6.767247E-16	1.646228E-17
5.520000E+03	6.771034E-16	1.683231E-17
5.530000E+03	6.772651E-16	1.719239E-17
5.540000E+03	6.772189E-16	1.753860E-17
5.550000E+03	6.769704E-16	1.786761E-17
5.560000E+03	6.765278E-16	1.817681E-17
5.570000E+03	6.758952E-16	1.846405E-17
5.580000E+03	6.750867E-16	1.872795E-17
5.590000E+03	6.741188E-16	1.896775E-17
5.600000E+03	6.730175E-16	1.918334E-17
5.610000E+03	6.717898E-16	1.937454E-17
5.620000E+03	6.704724E-16	1.954236E-17
5.630000E+03	6.690757E-16	1.968736E-17
5.640000E+03	6.676250E-16	1.981081E-17
5.650000E+03	6.661601E-16	1.991463E-17
5.660000E+03	6.646932E-16	2.000009E-17
5.670000E+03	6.632572E-16	2.006922E-17
5.680000E+03	6.618705E-16	2.012368E-17
5.690000E+03	6.605571E-16	2.016532E-17
5.700000E+03	6.593466E-16	2.019615E-17
5.710000E+03	6.582590E-16	2.021787E-17
5.720000E+03	6.573049E-16	2.023175E-17
5.730000E+03	6.564983E-16	2.023907E-17
5.740000E+03	6.558564E-16	2.024105E-17
5.750000E+03	6.553782E-16	2.023821E-17
5.760000E+03	6.550721E-16	2.023117E-17
5.770000E+03	6.549347E-16	2.022008E-17
5.780000E+03	6.549507E-16	2.020460E-17
5.790000E+03	6.551144E-16	2.018458E-17
5.800000E+03	6.554086E-16	2.015948E-17
5.810000E+03	6.558118E-16	2.012862E-17
5.820000E+03	6.562991E-16	2.009120E-17
5.830000E+03	6.568423E-16	2.004635E-17
5.840000E+03	6.574104E-16	1.999316E-17
5.850000E+03	6.579779E-16	1.993089E-17
5.860000E+03	6.585025E-16	1.985835E-17
5.870000E+03	6.589557E-16	1.977480E-17
5.880000E+03	6.593012E-16	1.967926E-17
5.890000E+03	6.595021E-16	1.957079E-17
5.900000E+03	6.595301E-16	1.944869E-17
5.910000E+03	6.593347E-16	1.931164E-17
5.920000E+03	6.589055E-16	1.915946E-17
5.930000E+03	6.582035E-16	1.899114E-17
5.940000E+03	6.571927E-16	1.880566E-17
5.950000E+03	6.558711E-16	1.860297E-17
5.960000E+03	6.542019E-16	1.838190E-17
5.970000E+03	6.521755E-16	1.814204E-17
5.980000E+03	6.497865E-16	1.788305E-17
5.990000E+03	6.470262E-16	1.760451E-17
6.000000E+03	6.438898E-16	1.730618E-17
6.010000E+03	6.403769E-16	1.698812E-17
6.020000E+03	6.365063E-16	1.665111E-17
6.030000E+03	6.322771E-16	1.629567E-17
6.040000E+03	6.277073E-16	1.592322E-17
6.050000E+03	6.228177E-16	1.553561E-17
6.060000E+03	6.176241E-16	1.513502E-17
6.070000E+03	6.121525E-16	1.472437E-17
6.080000E+03	6.064309E-16	1.430706E-17
6.090000E+03	6.004737E-16	1.388670E-17
6.100000E+03	5.943276E-16	1.346810E-17
6.110000E+03	5.880101E-16	1.305582E-17
6.120000E+03	5.815699E-16	1.265557E-17
6.130000E+03	5.750341E-16	1.227286E-17
6.140000E+03	5.684375E-16	1.191362E-17
6.150000E+03	5.618160E-16	1.158385E-17
6.160000E+03	5.552201E-16	1.128975E-17
6.170000E+03	5.486709E-16	1.103649E-17
6.180000E+03	5.421977E-16	1.082871E-17
6.190000E+03	5.358079E-16	1.066958E-17
6.200000E+03	5.295322E-16	1.056119E-17
6.210000E+03	5.234052E-16	1.050285E-17
6.220000E+03	5.174589E-16	1.049053E-17
6.230000E+03	5.117192E-16	1.051861E-17
6.240000E+03	5.062391E-16	1.058162E-17
6.250000E+03	5.010415E-16	1.067351E-17
6.260000E+03	4.961613E-16	1.078887E-17
6.270000E+03	4.916379E-16	1.092307E-17
6.280000E+03	4.874872E-16	1.107172E-17
6.290000E+03	4.837499E-16	1.123184E-17
6.300000E+03	4.804358E-16	1.140052E-17
6.310000E+03	4.775721E-16	1.157597E-17
6.320000E+03	4.751686E-16	1.175662E-17
6.330000E+03	4.732382E-16	1.194148E-17
6.340000E+03	4.717898E-16	1.212983E-17
6.350000E+03	4.708281E-16	1.232120E-17
6.360000E+03	4.703536E-16	1.251519E-17
6.370000E+03	4.703562E-16	1.271130E-17
6.380000E+03	4.708284E-16	1.290923E-17
6.390000E+03	4.717525E-16	1.310847E-17
6.400000E+03	4.731216E-16	1.330890E-17
6.410000E+03	4.749192E-16	1.351022E-17
6.420000E+03	4.771266E-16	1.371210E-17
6.430000E+03	4.797160E-16	1.391403E-17
6.440000E+03	4.826724E-16	1.411590E-17
6.450000E+03	4.859800E-16	1.431763E-17
6.460000E+03	4.896000E-16	1.451847E-17
6.470000E+03	4.935225E-16	1.471852E-17
6.480000E+03	4.977147E-16	1.491720E-17
6.490000E+03	5.021432E-16	1.511389E-17
6.500000E+03	5.067893E-16	1.530835E-17
6.510000E+03	5.116266E-16	1.550005E-17
6.520000E+03	5.166119E-16	1.568793E-17
6.530000E+03	5.217254E-16	1.587152E-17
6.540000E+03	5.269387E-16	1.605006E-17
6.550000E+03	5.322230E-16	1.622268E-17
6.560000E+03	5.375316E-16	1.638791E-17
6.570000E+03	5.428508E-16	1.654524E-17
6.580000E+03	5.481322E-16	1.669304E-17
6.590000E+03	5.533526E-16	1.683045E-17
6.600000E+03	5.584709E-16	1.695605E-17
6.610000E+03	5.634548E-16	1.706871E-17
6.620000E+03	5.682814E-16	1.716762E-17
6.630000E+03	5.729101E-16	1.725151E-17
6.640000E+03	5.773011E-16	1.731922E-17
6.650000E+03	5.814442E-16	1.737059E-17
6.660000E+03	5.852934E-16	1.740451E-17
6.670000E+03	5.888236E-16	1.742066E-17
6.680000E+03	5.920318E-16	1.741954E-17
6.690000E+03	5.948790E-16	1.740076E-17
6.700000E+03	5.973585E-16	1.736512E-17
6.710000E+03	5.994466E-16	1.731313E-17
6.720000E+03	6.011432E-16	1.724618E-17
6.730000E+03	6.024310E-16	1.716544E-17
6.740000E+03	6.033164E-16	1.707291E-17
6.750000E+03	6.037885E-16	1.697035E-17
6.760000E+03	6.038598E-16	1.686031E-17
6.770000E+03	6.035255E-16	1.674496E-17
6.780000E+03	6.028041E-16	1.662724E-17
6.790000E+03	6.017067E-16	1.650981E-17
6.800000E+03	6.002360E-16	1.639509E-17
6.810000E+03	5.984184E-16	1.628595E-17
6.820000E+03	5.962611E-16	1.618452E-17
6.830000E+03	5.937942E-16	1.609321E-17
6.840000E+03	5.910390E-16	1.601380E-17
6.850000E+03	5.880076E-16	1.594739E-17
6.860000E+03	5.847342E-16	1.589517E-17
6.870000E+03	5.812433E-16	1.585750E-17
6.880000E+03	5.775610E-16	1.583396E-17
6.890000E+03	5.737045E-16	1.582304E-17
6.900000E+03	5.697219E-16	1.582365E-17
6.910000E+03	5.656193E-16	1.583337E-17
6.920000E+03	5.614324E-16	1.585053E-17
6.930000E+03	5.571856E-16	1.587317E-17
6.940000E+03	5.529010E-16	1.589940E-17
6.950000E+03	5.485994E-16	1.592746E-17
6.960000E+03	5.442993E-16	1.595578E-17
6.970000E+03	5.400172E-16	1.598297E-17
6.980000E+03	5.357774E-16	1.600816E-17
6.990000E+03	5.315724E-16	1.602978E-17
7.000000E+03	5.274325E-16	1.604766E-17
7.010000E+03	5.233565E-16	1.606090E-17
7.020000E+03	5.193512E-16	1.606904E-17
7.030000E+03	5.154222E-16	1.607177E-17
7.040000E+03	5.115835E-16	1.606917E-17
7.050000E+03	5.078282E-16	1.606081E-17
7.060000E+03	5.041680E-16	1.604692E-17
7.070000E+03	5.005944E-16	1.602722E-17
7.080000E+03	4.971176E-16	1.600207E-17
7.090000E+03	4.937275E-16	1.597129E-17
7.100000E+03	4.904333E-16	1.593538E-17
7.110000E+03	4.872336E-16	1.589460E-17
7.120000E+03	4.841270E-16	1.584925E-17
7.130000E+03	4.811113E-16	1.579970E-17
7.140000E+03	4.781744E-16	1.574604E-17
7.150000E+03	4.753331E-16	1.568931E-17
7.160000E+03	4.725745E-16	1.562964E-17
7.170000E+03	4.698954E-16	1.556742E-17
7.180000E+03	4.672921E-16	1.550303E-17
7.190000E+03	4.647705E-16	1.543708E-17
7.200000E+03	4.623265E-16	1.536979E-17
7.210000E+03	4.599462E-16	1.530097E-17
7.220000E+03	4.576349E-16	1.523094E-17
7.230000E+03	4.553784E-16	1.515929E-17
7.240000E+03	4.531910E-16	1.508647E-17
7.250000E+03	4.510487E-16	1.501154E-17
7.260000E+03	4.489653E-16	1.493477E-17
7.270000E+03	4.469162E-16	1.485511E-17
7.280000E+03	4.449149E-16	1.477273E-17
7.290000E+03	4.429458E-16	1.468683E-17
7.300000E+03	4.410029E-16	1.459692E-17
7.310000E+03	4.390797E-16	1.450255E-17
7.320000E+03	4.371698E-16	1.440326E-17
7.330000E+03	4.352667E-16	1.429863E-17
7.340000E+03	4.333541E-16	1.418796E-17
7.350000E+03	4.314255E-16	1.407087E-17
7.360000E+03	4.294745E-16	1.394701E-17
7.370000E+03	4.274947E-16	1.381604E-17
7.380000E+03	4.254513E-16	1.367670E-17
7.390000E+03	4.233576E-16	1.352932E-17
7.400000E+03	4.211793E-16	1.337269E-17
7.410000E+03	4.189114E-16	1.320658E-17
7.420000E+03	4.165394E-16	1.303052E-17
7.430000E+03	4.140592E-16	1.284443E-17
7.440000E+03	4.114573E-16	1.264804E-17
7.450000E+03	4.087686E-16	1.244268E-17
7.460000E+03	4.059807E-16	1.222837E-17
7.470000E+03	4.031006E-16	1.200590E-17
7.480000E+03	4.001455E-16	1.177656E-17
7.490000E+03	3.971140E-16	1.154130E-17
7.500000E+03	3.940147E-16	1.130162E-17
7.510000E+03	3.908474E-16	1.105905E-17
7.520000E+03	3.876124E-16	1.081543E-17
7.530000E+03	3.843294E-16	1.057347E-17
7.540000E+03	3.809811E-16	1.033521E-17
7.550000E+03	3.775881E-16	1.010405E-17
7.560000E+03	3.741439E-16	9.883028E-18
7.570000E+03	3.706423E-16	9.675514E-18
7.580000E+03	3.671054E-16	9.485899E-18
7.590000E+03	3.635281E-16	9.318041E-18
7.600000E+03	3.599149E-16	9.176114E-18
7.610000E+03	3.562617E-16	9.063957E-18
7.620000E+03	3.525917E-16	8.985782E-18
7.630000E+03	3.488923E-16	8.944335E-18
7.640000E+03	3.451694E-16	8.941943E-18
7.650000E+03	3.414380E-16	8.979535E-18
7.660000E+03	3.377046E-16	9.055971E-18
7.670000E+03	3.339674E-16	9.168861E-18
7.680000E+03	3.302414E-16	9.315690E-18
7.690000E+03	3.265240E-16	9.493096E-18
7.700000E+03	3.228212E-16	9.697772E-18
7.710000E+03	3.191466E-16	9.926657E-18
7.720000E+03	3.154968E-16	1.017630E-17
7.730000E+03	3.118844E-16	1.044396E-17
7.740000E+03	3.083053E-16	1.072665E-17
7.750000E+03	3.047714E-16	1.102221E-17
7.760000E+03	3.012858E-16	1.132851E-17
