#wls	flux	fluxerr
1.600000E+03	3.099619E-17	2.034573E-17
1.640000E+03	3.149947E-17	2.051800E-17
1.680000E+03	3.202875E-17	2.069764E-17
1.720000E+03	3.257948E-17	2.088104E-17
1.760000E+03	3.316555E-17	2.107639E-17
1.800000E+03	3.378242E-17	2.127996E-17
1.840000E+03	3.443481E-17	2.149382E-17
1.880000E+03	3.512747E-17	2.171997E-17
1.920000E+03	3.586990E-17	2.196316E-17
1.960000E+03	3.666699E-17	2.222505E-17
2.000000E+03	3.752362E-17	2.250716E-17
2.040000E+03	3.844946E-17	2.281364E-17
2.080000E+03	3.945425E-17	2.314841E-17
2.120000E+03	4.054776E-17	2.351504E-17
2.160000E+03	4.174949E-17	2.392236E-17
2.200000E+03	4.305950E-17	2.436756E-17
2.240000E+03	4.449726E-17	2.485856E-17
2.280000E+03	4.606746E-17	2.539447E-17
2.320000E+03	4.778934E-17	2.598205E-17
2.360000E+03	4.966220E-17	2.661667E-17
2.400000E+03	5.169981E-17	2.730119E-17
2.440000E+03	5.390064E-17	2.802999E-17
2.480000E+03	5.627258E-17	2.880213E-17
2.520000E+03	5.881796E-17	2.961350E-17
2.560000E+03	6.153344E-17	3.045696E-17
2.600000E+03	6.442494E-17	3.132983E-17
2.640000E+03	6.748754E-17	3.222392E-17
2.680000E+03	7.073042E-17	3.313769E-17
2.720000E+03	7.414675E-17	3.406178E-17
2.760000E+03	7.773856E-17	3.499095E-17
2.800000E+03	8.150166E-17	3.591703E-17
2.840000E+03	8.543056E-17	3.683134E-17
2.880000E+03	8.952328E-17	3.772681E-17
2.920000E+03	9.376635E-17	3.859161E-17
2.960000E+03	9.817930E-17	3.942765E-17
3.000000E+03	1.027843E-16	4.023704E-17
3.010000E+03	1.039726E-16	4.043712E-17
3.020000E+03	1.051717E-16	4.063445E-17
3.030000E+03	1.063861E-16	4.083065E-17
3.040000E+03	1.076153E-16	4.102545E-17
3.050000E+03	1.088640E-16	4.122041E-17
3.060000E+03	1.101317E-16	4.141521E-17
3.070000E+03	1.114132E-16	4.160770E-17
3.080000E+03	1.127176E-16	4.180120E-17
3.090000E+03	1.140397E-16	4.199355E-17
3.100000E+03	1.153839E-16	4.218619E-17
3.110000E+03	1.167449E-16	4.237699E-17
3.120000E+03	1.181317E-16	4.256909E-17
3.130000E+03	1.195391E-16	4.276035E-17
3.140000E+03	1.209713E-16	4.295209E-17
3.150000E+03	1.224276E-16	4.314390E-17
3.160000E+03	1.239076E-16	4.333535E-17
3.170000E+03	1.254154E-16	4.352767E-17
3.180000E+03	1.269502E-16	4.372038E-17
3.190000E+03	1.285115E-16	4.391303E-17
3.200000E+03	1.301032E-16	4.410674E-17
3.210000E+03	1.317246E-16	4.430099E-17
3.220000E+03	1.333749E-16	4.449527E-17
3.230000E+03	1.350580E-16	4.469062E-17
3.240000E+03	1.367731E-16	4.488648E-17
3.250000E+03	1.385194E-16	4.508228E-17
3.260000E+03	1.403005E-16	4.527897E-17
3.270000E+03	1.421202E-16	4.547744E-17
3.280000E+03	1.439728E-16	4.567556E-17
3.290000E+03	1.458666E-16	4.587563E-17
3.300000E+03	1.477912E-16	4.607410E-17
3.310000E+03	1.497594E-16	4.627462E-17
3.320000E+03	1.517654E-16	4.647505E-17
3.330000E+03	1.538080E-16	4.667472E-17
3.340000E+03	1.558951E-16	4.687568E-17
3.350000E+03	1.580208E-16	4.707581E-17
3.360000E+03	1.601838E-16	4.727440E-17
3.370000E+03	1.623917E-16	4.747337E-17
3.380000E+03	1.646387E-16	4.767063E-17
3.390000E+03	1.669233E-16	4.786545E-17
3.400000E+03	1.692484E-16	4.805835E-17
3.410000E+03	1.716125E-16	4.824856E-17
3.420000E+03	1.740140E-16	4.843535E-17
3.430000E+03	1.764513E-16	4.861795E-17
3.440000E+03	1.789185E-16	4.879446E-17
3.450000E+03	1.814181E-16	4.896538E-17
3.460000E+03	1.839487E-16	4.913002E-17
3.470000E+03	1.864955E-16	4.928429E-17
3.480000E+03	1.890656E-16	4.942992E-17
3.490000E+03	1.916487E-16	4.956411E-17
3.500000E+03	1.942390E-16	4.968530E-17
3.510000E+03	1.968308E-16	4.979204E-17
3.520000E+03	1.994142E-16	4.988189E-17
3.530000E+03	2.019836E-16	4.995362E-17
3.540000E+03	2.045294E-16	5.000507E-17
3.550000E+03	2.070504E-16	5.003624E-17
3.560000E+03	2.095373E-16	5.004516E-17
3.570000E+03	2.119808E-16	5.003005E-17
3.580000E+03	2.143759E-16	4.999023E-17
3.590000E+03	2.167139E-16	4.992417E-17
3.600000E+03	2.189819E-16	4.982956E-17
3.610000E+03	2.211756E-16	4.970615E-17
3.620000E+03	2.232828E-16	4.955198E-17
3.630000E+03	2.253113E-16	4.936962E-17
3.640000E+03	2.272492E-16	4.915732E-17
3.650000E+03	2.291044E-16	4.891766E-17
3.660000E+03	2.308806E-16	4.865230E-17
3.670000E+03	2.325701E-16	4.836047E-17
3.680000E+03	2.341770E-16	4.804388E-17
3.690000E+03	2.357050E-16	4.770417E-17
3.700000E+03	2.371542E-16	4.734222E-17
3.710000E+03	2.385209E-16	4.695814E-17
3.720000E+03	2.398055E-16	4.655288E-17
3.730000E+03	2.410119E-16	4.612807E-17
3.740000E+03	2.421366E-16	4.568393E-17
3.750000E+03	2.431837E-16	4.522210E-17
3.760000E+03	2.441499E-16	4.474283E-17
3.770000E+03	2.450392E-16	4.424775E-17
3.780000E+03	2.458452E-16	4.373654E-17
3.790000E+03	2.465754E-16	4.321146E-17
3.800000E+03	2.472236E-16	4.267225E-17
3.810000E+03	2.477941E-16	4.212054E-17
3.820000E+03	2.482876E-16	4.155734E-17
3.830000E+03	2.487050E-16	4.098362E-17
3.840000E+03	2.490440E-16	4.039985E-17
3.850000E+03	2.493058E-16	3.980706E-17
3.860000E+03	2.494949E-16	3.920678E-17
3.870000E+03	2.496125E-16	3.860001E-17
3.880000E+03	2.496534E-16	3.798673E-17
3.890000E+03	2.496258E-16	3.736894E-17
3.900000E+03	2.495278E-16	3.674712E-17
3.910000E+03	2.493614E-16	3.612224E-17
3.920000E+03	2.491282E-16	3.549527E-17
3.930000E+03	2.488333E-16	3.486756E-17
3.940000E+03	2.484725E-16	3.423917E-17
3.950000E+03	2.480510E-16	3.361143E-17
3.960000E+03	2.475742E-16	3.298562E-17
3.970000E+03	2.470383E-16	3.236176E-17
3.980000E+03	2.464518E-16	3.174147E-17
3.990000E+03	2.458114E-16	3.112477E-17
4.000000E+03	2.451255E-16	3.051316E-17
4.010000E+03	2.443912E-16	2.990664E-17
4.020000E+03	2.436170E-16	2.930663E-17
4.030000E+03	2.428004E-16	2.871308E-17
4.040000E+03	2.419498E-16	2.812731E-17
4.050000E+03	2.410657E-16	2.754957E-17
4.060000E+03	2.401485E-16	2.698011E-17
4.070000E+03	2.392069E-16	2.642009E-17
4.080000E+03	2.382416E-16	2.586968E-17
4.090000E+03	2.372532E-16	2.532908E-17
4.100000E+03	2.362478E-16	2.479900E-17
4.110000E+03	2.352314E-16	2.428012E-17
4.120000E+03	2.341997E-16	2.377201E-17
4.130000E+03	2.331639E-16	2.327582E-17
4.140000E+03	2.321222E-16	2.279137E-17
4.150000E+03	2.310782E-16	2.231895E-17
4.160000E+03	2.300353E-16	2.185888E-17
4.170000E+03	2.289969E-16	2.141142E-17
4.180000E+03	2.279638E-16	2.097660E-17
4.190000E+03	2.269419E-16	2.055488E-17
4.200000E+03	2.259296E-16	2.014605E-17
4.210000E+03	2.249325E-16	1.975056E-17
4.220000E+03	2.239491E-16	1.936819E-17
4.230000E+03	2.229825E-16	1.899914E-17
4.240000E+03	2.220356E-16	1.864361E-17
4.250000E+03	2.211070E-16	1.830138E-17
4.260000E+03	2.201995E-16	1.797262E-17
4.270000E+03	2.193137E-16	1.765731E-17
4.280000E+03	2.184499E-16	1.735539E-17
4.290000E+03	2.176086E-16	1.706683E-17
4.300000E+03	2.167880E-16	1.679137E-17
4.310000E+03	2.159904E-16	1.652911E-17
4.320000E+03	2.152117E-16	1.627960E-17
4.330000E+03	2.144562E-16	1.604303E-17
4.340000E+03	2.137194E-16	1.581891E-17
4.350000E+03	2.130033E-16	1.560721E-17
4.360000E+03	2.123074E-16	1.540766E-17
4.370000E+03	2.116312E-16	1.521998E-17
4.380000E+03	2.109801E-16	1.504427E-17
4.390000E+03	2.103531E-16	1.488014E-17
4.400000E+03	2.097592E-16	1.472783E-17
4.410000E+03	2.092030E-16	1.458727E-17
4.420000E+03	2.086890E-16	1.445829E-17
4.430000E+03	2.082233E-16	1.434083E-17
4.440000E+03	2.078098E-16	1.423462E-17
4.450000E+03	2.074523E-16	1.413934E-17
4.460000E+03	2.071543E-16	1.405468E-17
4.470000E+03	2.069193E-16	1.398024E-17
4.480000E+03	2.067485E-16	1.391552E-17
4.490000E+03	2.066450E-16	1.386011E-17
4.500000E+03	2.066100E-16	1.381346E-17
4.510000E+03	2.066444E-16	1.377504E-17
4.520000E+03	2.067491E-16	1.374431E-17
4.530000E+03	2.069229E-16	1.372063E-17
4.540000E+03	2.071666E-16	1.370348E-17
4.550000E+03	2.074809E-16	1.369240E-17
4.560000E+03	2.078625E-16	1.368667E-17
4.570000E+03	2.083119E-16	1.368586E-17
4.580000E+03	2.088278E-16	1.368946E-17
4.590000E+03	2.094066E-16	1.369684E-17
4.600000E+03	2.100489E-16	1.370770E-17
4.610000E+03	2.107489E-16	1.372136E-17
4.620000E+03	2.115072E-16	1.373759E-17
4.630000E+03	2.123198E-16	1.375594E-17
4.640000E+03	2.131811E-16	1.377587E-17
4.650000E+03	2.140912E-16	1.379727E-17
4.660000E+03	2.150401E-16	1.381943E-17
4.670000E+03	2.160279E-16	1.384234E-17
4.680000E+03	2.170462E-16	1.386550E-17
4.690000E+03	2.180888E-16	1.388860E-17
4.700000E+03	2.191492E-16	1.391134E-17
4.710000E+03	2.202189E-16	1.393337E-17
4.720000E+03	2.212933E-16	1.395460E-17
4.730000E+03	2.223720E-16	1.397528E-17
4.740000E+03	2.234524E-16	1.399552E-17
4.750000E+03	2.245342E-16	1.401563E-17
4.760000E+03	2.256215E-16	1.403617E-17
4.770000E+03	2.267096E-16	1.405722E-17
4.780000E+03	2.278027E-16	1.407940E-17
4.790000E+03	2.288986E-16	1.410290E-17
4.800000E+03	2.299974E-16	1.412808E-17
4.810000E+03	2.311013E-16	1.415541E-17
4.820000E+03	2.322107E-16	1.418522E-17
4.830000E+03	2.333237E-16	1.421765E-17
4.840000E+03	2.344409E-16	1.425297E-17
4.850000E+03	2.355606E-16	1.429127E-17
4.860000E+03	2.366838E-16	1.433273E-17
4.870000E+03	2.378113E-16	1.437748E-17
4.880000E+03	2.389419E-16	1.442547E-17
4.890000E+03	2.400770E-16	1.447673E-17
4.900000E+03	2.412132E-16	1.453097E-17
4.910000E+03	2.423523E-16	1.458813E-17
4.920000E+03	2.434934E-16	1.464798E-17
4.930000E+03	2.446363E-16	1.471025E-17
4.940000E+03	2.457828E-16	1.477476E-17
4.950000E+03	2.469303E-16	1.484105E-17
4.960000E+03	2.480789E-16	1.490877E-17
4.970000E+03	2.492333E-16	1.497786E-17
4.980000E+03	2.503890E-16	1.504765E-17
4.990000E+03	2.515460E-16	1.511777E-17
5.000000E+03	2.527097E-16	1.518816E-17
5.010000E+03	2.538732E-16	1.525801E-17
5.020000E+03	2.550443E-16	1.532742E-17
5.030000E+03	2.562186E-16	1.539577E-17
5.040000E+03	2.573967E-16	1.546273E-17
5.050000E+03	2.585818E-16	1.552817E-17
5.060000E+03	2.597745E-16	1.559183E-17
5.070000E+03	2.609729E-16	1.565332E-17
5.080000E+03	2.621777E-16	1.571241E-17
5.090000E+03	2.633894E-16	1.576893E-17
5.100000E+03	2.646086E-16	1.582273E-17
5.110000E+03	2.658384E-16	1.587384E-17
5.120000E+03	2.670741E-16	1.592187E-17
5.130000E+03	2.683212E-16	1.596705E-17
5.140000E+03	2.695748E-16	1.600906E-17
5.150000E+03	2.708349E-16	1.604791E-17
5.160000E+03	2.721070E-16	1.608395E-17
5.170000E+03	2.733830E-16	1.611677E-17
5.180000E+03	2.746680E-16	1.614681E-17
5.190000E+03	2.759589E-16	1.617403E-17
5.200000E+03	2.772581E-16	1.619878E-17
5.210000E+03	2.785594E-16	1.622093E-17
5.220000E+03	2.798648E-16	1.624088E-17
5.230000E+03	2.811733E-16	1.625889E-17
5.240000E+03	2.824810E-16	1.627509E-17
5.250000E+03	2.837868E-16	1.628980E-17
5.260000E+03	2.850920E-16	1.630352E-17
5.270000E+03	2.863922E-16	1.631646E-17
5.280000E+03	2.876859E-16	1.632900E-17
5.290000E+03	2.889684E-16	1.634137E-17
5.300000E+03	2.902407E-16	1.635414E-17
5.310000E+03	2.914978E-16	1.636755E-17
5.320000E+03	2.927407E-16	1.638217E-17
5.330000E+03	2.939613E-16	1.639805E-17
5.340000E+03	2.951604E-16	1.641574E-17
5.350000E+03	2.963357E-16	1.643558E-17
5.360000E+03	2.974822E-16	1.645770E-17
5.370000E+03	2.986005E-16	1.648253E-17
5.380000E+03	2.996825E-16	1.650995E-17
5.390000E+03	3.007291E-16	1.654025E-17
5.400000E+03	3.017383E-16	1.657351E-17
5.410000E+03	3.027021E-16	1.660940E-17
5.420000E+03	3.036248E-16	1.664816E-17
5.430000E+03	3.044988E-16	1.668931E-17
5.440000E+03	3.053225E-16	1.673265E-17
5.450000E+03	3.060949E-16	1.677789E-17
5.460000E+03	3.068119E-16	1.682455E-17
5.470000E+03	3.074696E-16	1.687210E-17
5.480000E+03	3.080677E-16	1.692015E-17
5.490000E+03	3.086091E-16	1.696845E-17
5.500000E+03	3.090939E-16	1.701660E-17
5.510000E+03	3.095196E-16	1.706401E-17
5.520000E+03	3.098933E-16	1.711062E-17
5.530000E+03	3.102159E-16	1.715605E-17
5.540000E+03	3.104829E-16	1.719960E-17
5.550000E+03	3.107052E-16	1.724145E-17
5.560000E+03	3.108786E-16	1.728096E-17
5.570000E+03	3.110054E-16	1.731786E-17
5.580000E+03	3.110943E-16	1.735227E-17
5.590000E+03	3.111416E-16	1.738365E-17
5.600000E+03	3.111532E-16	1.741202E-17
5.610000E+03	3.111321E-16	1.743725E-17
5.620000E+03	3.110810E-16	1.745924E-17
5.630000E+03	3.110061E-16	1.747812E-17
5.640000E+03	3.109070E-16	1.749365E-17
5.650000E+03	3.107865E-16	1.750581E-17
5.660000E+03	3.106503E-16	1.751478E-17
5.670000E+03	3.104978E-16	1.752038E-17
5.680000E+03	3.103341E-16	1.752279E-17
5.690000E+03	3.101613E-16	1.752202E-17
5.700000E+03	3.099809E-16	1.751809E-17
5.710000E+03	3.097939E-16	1.751100E-17
5.720000E+03	3.096012E-16	1.750072E-17
5.730000E+03	3.094064E-16	1.748744E-17
5.740000E+03	3.092061E-16	1.747091E-17
5.750000E+03	3.089997E-16	1.745109E-17
5.760000E+03	3.087895E-16	1.742809E-17
5.770000E+03	3.085706E-16	1.740163E-17
5.780000E+03	3.083477E-16	1.737196E-17
5.790000E+03	3.081151E-16	1.733878E-17
5.800000E+03	3.078665E-16	1.730174E-17
5.810000E+03	3.076055E-16	1.726107E-17
5.820000E+03	3.073284E-16	1.721658E-17
5.830000E+03	3.070246E-16	1.716773E-17
5.840000E+03	3.067000E-16	1.711489E-17
5.850000E+03	3.063436E-16	1.705750E-17
5.860000E+03	3.059575E-16	1.699575E-17
5.870000E+03	3.055305E-16	1.692909E-17
5.880000E+03	3.050646E-16	1.685774E-17
5.890000E+03	3.045520E-16	1.678137E-17
5.900000E+03	3.039916E-16	1.670004E-17
5.910000E+03	3.033793E-16	1.661366E-17
5.920000E+03	3.027076E-16	1.652199E-17
5.930000E+03	3.019798E-16	1.642537E-17
5.940000E+03	3.011892E-16	1.632363E-17
5.950000E+03	3.003330E-16	1.621684E-17
5.960000E+03	2.994124E-16	1.610530E-17
5.970000E+03	2.984223E-16	1.598897E-17
5.980000E+03	2.973682E-16	1.586843E-17
5.990000E+03	2.962430E-16	1.574359E-17
6.000000E+03	2.950533E-16	1.561512E-17
6.010000E+03	2.937967E-16	1.548322E-17
6.020000E+03	2.924779E-16	1.534848E-17
6.030000E+03	2.910956E-16	1.521121E-17
6.040000E+03	2.896558E-16	1.507211E-17
6.050000E+03	2.881619E-16	1.493174E-17
6.060000E+03	2.866144E-16	1.479055E-17
6.070000E+03	2.850244E-16	1.464950E-17
6.080000E+03	2.833937E-16	1.450912E-17
6.090000E+03	2.817243E-16	1.436991E-17
6.100000E+03	2.800289E-16	1.423292E-17
6.110000E+03	2.783071E-16	1.409852E-17
6.120000E+03	2.765656E-16	1.396741E-17
6.130000E+03	2.748113E-16	1.384029E-17
6.140000E+03	2.730483E-16	1.371765E-17
6.150000E+03	2.712805E-16	1.359995E-17
6.160000E+03	2.695091E-16	1.348745E-17
6.170000E+03	2.677321E-16	1.338018E-17
6.180000E+03	2.659571E-16	1.327859E-17
6.190000E+03	2.642049E-16	1.318370E-17
6.200000E+03	2.624797E-16	1.309562E-17
6.210000E+03	2.608017E-16	1.301517E-17
6.220000E+03	2.591748E-16	1.294229E-17
6.230000E+03	2.576122E-16	1.287732E-17
6.240000E+03	2.561235E-16	1.282034E-17
6.250000E+03	2.547087E-16	1.277093E-17
6.260000E+03	2.533830E-16	1.272938E-17
6.270000E+03	2.521486E-16	1.269531E-17
6.280000E+03	2.510071E-16	1.266834E-17
6.290000E+03	2.499694E-16	1.264849E-17
6.300000E+03	2.490361E-16	1.263534E-17
6.310000E+03	2.482106E-16	1.262858E-17
6.320000E+03	2.474990E-16	1.262807E-17
6.330000E+03	2.469003E-16	1.263333E-17
6.340000E+03	2.464162E-16	1.264407E-17
6.350000E+03	2.460512E-16	1.266011E-17
6.360000E+03	2.458027E-16	1.268098E-17
6.370000E+03	2.456771E-16	1.270667E-17
6.380000E+03	2.456676E-16	1.273654E-17
6.390000E+03	2.457766E-16	1.277040E-17
6.400000E+03	2.460056E-16	1.280807E-17
6.410000E+03	2.463529E-16	1.284922E-17
6.420000E+03	2.468161E-16	1.289346E-17
6.430000E+03	2.473922E-16	1.294043E-17
6.440000E+03	2.480748E-16	1.298957E-17
6.450000E+03	2.488600E-16	1.304046E-17
6.460000E+03	2.497369E-16	1.309234E-17
6.470000E+03	2.507044E-16	1.314493E-17
6.480000E+03	2.517504E-16	1.319744E-17
6.490000E+03	2.528697E-16	1.324938E-17
6.500000E+03	2.540529E-16	1.330011E-17
6.510000E+03	2.552938E-16	1.334912E-17
6.520000E+03	2.565825E-16	1.339575E-17
6.530000E+03	2.579158E-16	1.343967E-17
6.540000E+03	2.592833E-16	1.348020E-17
6.550000E+03	2.606778E-16	1.351687E-17
6.560000E+03	2.620922E-16	1.354920E-17
6.570000E+03	2.635155E-16	1.357654E-17
6.580000E+03	2.649478E-16	1.359886E-17
6.590000E+03	2.663781E-16	1.361557E-17
6.600000E+03	2.677993E-16	1.362632E-17
6.610000E+03	2.692043E-16	1.363081E-17
6.620000E+03	2.705899E-16	1.362899E-17
6.630000E+03	2.719458E-16	1.362047E-17
6.640000E+03	2.732733E-16	1.360555E-17
6.650000E+03	2.745545E-16	1.358360E-17
6.660000E+03	2.757956E-16	1.355525E-17
6.670000E+03	2.769873E-16	1.352047E-17
6.680000E+03	2.781246E-16	1.347949E-17
6.690000E+03	2.792072E-16	1.343286E-17
6.700000E+03	2.802269E-16	1.338083E-17
6.710000E+03	2.811844E-16	1.332416E-17
6.720000E+03	2.820724E-16	1.326332E-17
6.730000E+03	2.828927E-16	1.319929E-17
6.740000E+03	2.836475E-16	1.313315E-17
6.750000E+03	2.843269E-16	1.306548E-17
6.760000E+03	2.849340E-16	1.299755E-17
6.770000E+03	2.854685E-16	1.293049E-17
6.780000E+03	2.859346E-16	1.286571E-17
6.790000E+03	2.863285E-16	1.280422E-17
6.800000E+03	2.866509E-16	1.274727E-17
6.810000E+03	2.869031E-16	1.269608E-17
6.820000E+03	2.870912E-16	1.265201E-17
6.830000E+03	2.872170E-16	1.261612E-17
6.840000E+03	2.872785E-16	1.258917E-17
6.850000E+03	2.872781E-16	1.257192E-17
6.860000E+03	2.872230E-16	1.256515E-17
6.870000E+03	2.871162E-16	1.256922E-17
6.880000E+03	2.869562E-16	1.258405E-17
6.890000E+03	2.867510E-16	1.260971E-17
6.900000E+03	2.865036E-16	1.264589E-17
6.910000E+03	2.862129E-16	1.269182E-17
6.920000E+03	2.858868E-16	1.274700E-17
6.930000E+03	2.855238E-16	1.281039E-17
6.940000E+03	2.851317E-16	1.288125E-17
6.950000E+03	2.847134E-16	1.295856E-17
6.960000E+03	2.842718E-16	1.304130E-17
6.970000E+03	2.838047E-16	1.312819E-17
6.980000E+03	2.833191E-16	1.321843E-17
6.990000E+03	2.828125E-16	1.331078E-17
7.000000E+03	2.822914E-16	1.340453E-17
7.010000E+03	2.817573E-16	1.349876E-17
7.020000E+03	2.812117E-16	1.359266E-17
7.030000E+03	2.806508E-16	1.368521E-17
7.040000E+03	2.800801E-16	1.377594E-17
7.050000E+03	2.794954E-16	1.386399E-17
7.060000E+03	2.789065E-16	1.394924E-17
7.070000E+03	2.783038E-16	1.403072E-17
7.080000E+03	2.776870E-16	1.410796E-17
7.090000E+03	2.770606E-16	1.418081E-17
7.100000E+03	2.764238E-16	1.424891E-17
7.110000E+03	2.757758E-16	1.431197E-17
7.120000E+03	2.751107E-16	1.436947E-17
7.130000E+03	2.744321E-16	1.442144E-17
7.140000E+03	2.737387E-16	1.446768E-17
7.150000E+03	2.730241E-16	1.450777E-17
7.160000E+03	2.722964E-16	1.454209E-17
7.170000E+03	2.715442E-16	1.457002E-17
7.180000E+03	2.707706E-16	1.459172E-17
7.190000E+03	2.699737E-16	1.460711E-17
7.200000E+03	2.691565E-16	1.461641E-17
7.210000E+03	2.683122E-16	1.461931E-17
7.220000E+03	2.674389E-16	1.461577E-17
7.230000E+03	2.665346E-16	1.460578E-17
7.240000E+03	2.656023E-16	1.458961E-17
7.250000E+03	2.646402E-16	1.456727E-17
7.260000E+03	2.636464E-16	1.453876E-17
7.270000E+03	2.626192E-16	1.450413E-17
7.280000E+03	2.615568E-16	1.446340E-17
7.290000E+03	2.604626E-16	1.441692E-17
7.300000E+03	2.593351E-16	1.436474E-17
7.310000E+03	2.581729E-16	1.430694E-17
7.320000E+03	2.569747E-16	1.424362E-17
7.330000E+03	2.557494E-16	1.417544E-17
7.340000E+03	2.544859E-16	1.410198E-17
7.350000E+03	2.531883E-16	1.402366E-17
7.360000E+03	2.518609E-16	1.394091E-17
7.370000E+03	2.505031E-16	1.385393E-17
7.380000E+03	2.491145E-16	1.376293E-17
7.390000E+03	2.476947E-16	1.366815E-17
7.400000E+03	2.462437E-16	1.356985E-17
7.410000E+03	2.447664E-16	1.346860E-17
7.420000E+03	2.432532E-16	1.336418E-17
7.430000E+03	2.417093E-16	1.325722E-17
7.440000E+03	2.401305E-16	1.314785E-17
7.450000E+03	2.385271E-16	1.303704E-17
7.460000E+03	2.368904E-16	1.292472E-17
7.470000E+03	2.352213E-16	1.281140E-17
7.480000E+03	2.335260E-16	1.269790E-17
7.490000E+03	2.317959E-16	1.258426E-17
7.500000E+03	2.300424E-16	1.247164E-17
7.510000E+03	2.282526E-16	1.235991E-17
7.520000E+03	2.264379E-16	1.225026E-17
7.530000E+03	2.245954E-16	1.214315E-17
7.540000E+03	2.227178E-16	1.203880E-17
7.550000E+03	2.208166E-16	1.193845E-17
7.560000E+03	2.188894E-16	1.184259E-17
7.570000E+03	2.169386E-16	1.175195E-17
7.580000E+03	2.149620E-16	1.166699E-17
7.590000E+03	2.129621E-16	1.158838E-17
7.600000E+03	2.109415E-16	1.151674E-17
7.610000E+03	2.089075E-16	1.145290E-17
7.620000E+03	2.068492E-16	1.139659E-17
7.630000E+03	2.047828E-16	1.134895E-17
7.640000E+03	2.027021E-16	1.130978E-17
7.650000E+03	2.006144E-16	1.127955E-17
7.660000E+03	1.985180E-16	1.125808E-17
7.670000E+03	1.964156E-16	1.124540E-17
7.680000E+03	1.943144E-16	1.124167E-17
7.690000E+03	1.922126E-16	1.124647E-17
7.700000E+03	1.901128E-16	1.125960E-17
7.710000E+03	1.880217E-16	1.128104E-17
7.720000E+03	1.859375E-16	1.131024E-17
7.730000E+03	1.838623E-16	1.134687E-17
7.740000E+03	1.817984E-16	1.139060E-17
7.750000E+03	1.797517E-16	1.144133E-17
7.760000E+03	1.777200E-16	1.149846E-17
