#wls	flux	fluxerr
1.595464E+03	1.372467E-15	7.845719E-17
1.635351E+03	1.157533E-15	6.608156E-17
1.675237E+03	9.736141E-16	5.550549E-17
1.715124E+03	8.174693E-16	4.653815E-17
1.755011E+03	6.859467E-16	3.899443E-17
1.794897E+03	5.759346E-16	3.269232E-17
1.834784E+03	4.843386E-16	2.745159E-17
1.874670E+03	4.085936E-16	2.312285E-17
1.914557E+03	3.463025E-16	1.956689E-17
1.954444E+03	2.954376E-16	1.666608E-17
1.994330E+03	2.543552E-16	1.432499E-17
2.034217E+03	2.218711E-16	1.247456E-17
2.074103E+03	1.971963E-16	1.106823E-17
2.113990E+03	1.798432E-16	1.007657E-17
2.153877E+03	1.694717E-16	9.478486E-18
2.193763E+03	1.656489E-16	9.247777E-18
2.233650E+03	1.679531E-16	9.358960E-18
2.273536E+03	1.761787E-16	9.798674E-18
2.313423E+03	1.905094E-16	1.057518E-17
2.353310E+03	2.115890E-16	1.172210E-17
2.393196E+03	2.404903E-16	1.329640E-17
2.433083E+03	2.786596E-16	1.537509E-17
2.472969E+03	3.278955E-16	1.805382E-17
2.512856E+03	3.901996E-16	2.143845E-17
2.552743E+03	4.677186E-16	2.564173E-17
2.592629E+03	5.624884E-16	3.076911E-17
2.632516E+03	6.762365E-16	3.690809E-17
2.672402E+03	8.099931E-16	4.410714E-17
2.712289E+03	9.637835E-16	5.235939E-17
2.752176E+03	1.136348E-15	6.158811E-17
2.792062E+03	1.324927E-15	7.163596E-17
2.831949E+03	1.525244E-15	8.226506E-17
2.871835E+03	1.731740E-15	9.317068E-17
2.911722E+03	1.937771E-15	1.039927E-16
2.951609E+03	2.136526E-15	1.143659E-16
2.991495E+03	2.321398E-15	1.239396E-16
3.001467E+03	2.364849E-15	1.261768E-16
3.011438E+03	2.406986E-15	1.283407E-16
3.021410E+03	2.447745E-15	1.304279E-16
3.031382E+03	2.487200E-15	1.324427E-16
3.041353E+03	2.525252E-15	1.343797E-16
3.051325E+03	2.561955E-15	1.362421E-16
3.061297E+03	2.597321E-15	1.380306E-16
3.071268E+03	2.631258E-15	1.397405E-16
3.081240E+03	2.663739E-15	1.413704E-16
3.091212E+03	2.694857E-15	1.429256E-16
3.101183E+03	2.724497E-15	1.443998E-16
3.111155E+03	2.752714E-15	1.457964E-16
3.121127E+03	2.779465E-15	1.471132E-16
3.131098E+03	2.804936E-15	1.483600E-16
3.141070E+03	2.828990E-15	1.495299E-16
3.151042E+03	2.851719E-15	1.506278E-16
3.161013E+03	2.873221E-15	1.516592E-16
3.170985E+03	2.893548E-15	1.526267E-16
3.180957E+03	2.912647E-15	1.535278E-16
3.190928E+03	2.930745E-15	1.543746E-16
3.200900E+03	2.947800E-15	1.551649E-16
3.210871E+03	2.963937E-15	1.559055E-16
3.220843E+03	2.979179E-15	1.565977E-16
3.230815E+03	2.993657E-15	1.572483E-16
3.240786E+03	3.007447E-15	1.578616E-16
3.250758E+03	3.020630E-15	1.584419E-16
3.260730E+03	3.033235E-15	1.589907E-16
3.270701E+03	3.045391E-15	1.595148E-16
3.280673E+03	3.057174E-15	1.600183E-16
3.290645E+03	3.068607E-15	1.605025E-16
3.300616E+03	3.079808E-15	1.609735E-16
3.310588E+03	3.090790E-15	1.614320E-16
3.320560E+03	3.101657E-15	1.618836E-16
3.330531E+03	3.112408E-15	1.623282E-16
3.340503E+03	3.123079E-15	1.627675E-16
3.350475E+03	3.133694E-15	1.632030E-16
3.360446E+03	3.144263E-15	1.636353E-16
3.370418E+03	3.154784E-15	1.640640E-16
3.380390E+03	3.165186E-15	1.644856E-16
3.390361E+03	3.175475E-15	1.649005E-16
3.400333E+03	3.185502E-15	1.653009E-16
3.410305E+03	3.195278E-15	1.656874E-16
3.420276E+03	3.204613E-15	1.660501E-16
3.430248E+03	3.213388E-15	1.663830E-16
3.440219E+03	3.221467E-15	1.666792E-16
3.450191E+03	3.228656E-15	1.669287E-16
3.460163E+03	3.234840E-15	1.671256E-16
3.470134E+03	3.239809E-15	1.672592E-16
3.480106E+03	3.243360E-15	1.673193E-16
3.490078E+03	3.245343E-15	1.672981E-16
3.500049E+03	3.245585E-15	1.671871E-16
3.510021E+03	3.244024E-15	1.669832E-16
3.519993E+03	3.240473E-15	1.666770E-16
3.529964E+03	3.234956E-15	1.662699E-16
3.539936E+03	3.227466E-15	1.657620E-16
3.549908E+03	3.218099E-15	1.651583E-16
3.559879E+03	3.206933E-15	1.644630E-16
3.569851E+03	3.194152E-15	1.636858E-16
3.579823E+03	3.180078E-15	1.628434E-16
3.589794E+03	3.164940E-15	1.619476E-16
3.599766E+03	3.149168E-15	1.610206E-16
3.609738E+03	3.133165E-15	1.600830E-16
3.619709E+03	3.117330E-15	1.591552E-16
3.629681E+03	3.102127E-15	1.582610E-16
3.639652E+03	3.088065E-15	1.574261E-16
3.649624E+03	3.075590E-15	1.566732E-16
3.659596E+03	3.065238E-15	1.560294E-16
3.669567E+03	3.057397E-15	1.555142E-16
3.679539E+03	3.052528E-15	1.551507E-16
3.689511E+03	3.051027E-15	1.549588E-16
3.699482E+03	3.053277E-15	1.549575E-16
3.709454E+03	3.059559E-15	1.551605E-16
3.719426E+03	3.070158E-15	1.555820E-16
3.729397E+03	3.085277E-15	1.562318E-16
3.739369E+03	3.105091E-15	1.571180E-16
3.749341E+03	3.129674E-15	1.582441E-16
3.759312E+03	3.159070E-15	1.596117E-16
3.769284E+03	3.193218E-15	1.612172E-16
3.779256E+03	3.231983E-15	1.630533E-16
3.789227E+03	3.275252E-15	1.651138E-16
3.799199E+03	3.322677E-15	1.673805E-16
3.809171E+03	3.373960E-15	1.698382E-16
3.819142E+03	3.428737E-15	1.724681E-16
3.829114E+03	3.486473E-15	1.752429E-16
3.839085E+03	3.546640E-15	1.781359E-16
3.849057E+03	3.608694E-15	1.811194E-16
3.859029E+03	3.672015E-15	1.841622E-16
3.869000E+03	3.735958E-15	1.872318E-16
3.878972E+03	3.799829E-15	1.902936E-16
3.888944E+03	3.863001E-15	1.933161E-16
3.898915E+03	3.924834E-15	1.962673E-16
3.908887E+03	3.984708E-15	1.991167E-16
3.918859E+03	4.042049E-15	2.018357E-16
3.928830E+03	4.096326E-15	2.043982E-16
3.938802E+03	4.147105E-15	2.067828E-16
3.948774E+03	4.193968E-15	2.089692E-16
3.958745E+03	4.236528E-15	2.109385E-16
3.968717E+03	4.274566E-15	2.126804E-16
3.978689E+03	4.307811E-15	2.141818E-16
3.988660E+03	4.336122E-15	2.154365E-16
3.998632E+03	4.359374E-15	2.164385E-16
4.008604E+03	4.377449E-15	2.171827E-16
4.018575E+03	4.390392E-15	2.176720E-16
4.028547E+03	4.398175E-15	2.179054E-16
4.038518E+03	4.400888E-15	2.178880E-16
4.048490E+03	4.398620E-15	2.176247E-16
4.058462E+03	4.391501E-15	2.171225E-16
4.068433E+03	4.379698E-15	2.163902E-16
4.078405E+03	4.363457E-15	2.154403E-16
4.088377E+03	4.342983E-15	2.142835E-16
4.098348E+03	4.318555E-15	2.129340E-16
4.108320E+03	4.290565E-15	2.114114E-16
4.118292E+03	4.259283E-15	2.097295E-16
4.128263E+03	4.225122E-15	2.079089E-16
4.138235E+03	4.188480E-15	2.059694E-16
4.148207E+03	4.149776E-15	2.039318E-16
4.158178E+03	4.109439E-15	2.018175E-16
4.168150E+03	4.067908E-15	1.996481E-16
4.178122E+03	4.025622E-15	1.974452E-16
4.188093E+03	3.983015E-15	1.952303E-16
4.198065E+03	3.940509E-15	1.930240E-16
4.208037E+03	3.898512E-15	1.908462E-16
4.218008E+03	3.857374E-15	1.887140E-16
4.227980E+03	3.817454E-15	1.866449E-16
4.237952E+03	3.779114E-15	1.846564E-16
4.247923E+03	3.742648E-15	1.827628E-16
4.257895E+03	3.708249E-15	1.809732E-16
4.267866E+03	3.676172E-15	1.793000E-16
4.277838E+03	3.646597E-15	1.777516E-16
4.287810E+03	3.619665E-15	1.763348E-16
4.297781E+03	3.595477E-15	1.750542E-16
4.307753E+03	3.574060E-15	1.739110E-16
4.317725E+03	3.555498E-15	1.729088E-16
4.327696E+03	3.539707E-15	1.720435E-16
4.337668E+03	3.526691E-15	1.713150E-16
4.347640E+03	3.516355E-15	1.707184E-16
4.357611E+03	3.508597E-15	1.702487E-16
4.367583E+03	3.503252E-15	1.698976E-16
4.377555E+03	3.500155E-15	1.696570E-16
4.387526E+03	3.499078E-15	1.695155E-16
4.397498E+03	3.499831E-15	1.694641E-16
4.407470E+03	3.502142E-15	1.694892E-16
4.417441E+03	3.505715E-15	1.695766E-16
4.427413E+03	3.510309E-15	1.697144E-16
4.437385E+03	3.515605E-15	1.698873E-16
4.447356E+03	3.521314E-15	1.700811E-16
4.457328E+03	3.527170E-15	1.702830E-16
4.467299E+03	3.532805E-15	1.704754E-16
4.477271E+03	3.537943E-15	1.706447E-16
4.487243E+03	3.542270E-15	1.707761E-16
4.497214E+03	3.545459E-15	1.708536E-16
4.507186E+03	3.547237E-15	1.708644E-16
4.517158E+03	3.547363E-15	1.707967E-16
4.527129E+03	3.545633E-15	1.706410E-16
4.537101E+03	3.541881E-15	1.703894E-16
4.547073E+03	3.535949E-15	1.700343E-16
4.557044E+03	3.527720E-15	1.695703E-16
4.567016E+03	3.517220E-15	1.689987E-16
4.576988E+03	3.504378E-15	1.683162E-16
4.586959E+03	3.489196E-15	1.675230E-16
4.596931E+03	3.471780E-15	1.666244E-16
4.606903E+03	3.452233E-15	1.656254E-16
4.616874E+03	3.430586E-15	1.645275E-16
4.626846E+03	3.407099E-15	1.633433E-16
4.636818E+03	3.381819E-15	1.620751E-16
4.646789E+03	3.355008E-15	1.607355E-16
4.656761E+03	3.326850E-15	1.593334E-16
4.666732E+03	3.297538E-15	1.578780E-16
4.676704E+03	3.267275E-15	1.563792E-16
4.686676E+03	3.236276E-15	1.548472E-16
4.696647E+03	3.204822E-15	1.532953E-16
4.706619E+03	3.173106E-15	1.517329E-16
4.716591E+03	3.141355E-15	1.501708E-16
4.726562E+03	3.109829E-15	1.486213E-16
4.736534E+03	3.078696E-15	1.470926E-16
4.746506E+03	3.048280E-15	1.455998E-16
4.756477E+03	3.018716E-15	1.441495E-16
4.766449E+03	2.990289E-15	1.427552E-16
4.776421E+03	2.963215E-15	1.414272E-16
4.786392E+03	2.937646E-15	1.401726E-16
4.796364E+03	2.913809E-15	1.390021E-16
4.806336E+03	2.891917E-15	1.379259E-16
4.816307E+03	2.872081E-15	1.369492E-16
4.826279E+03	2.854476E-15	1.360801E-16
4.836251E+03	2.839228E-15	1.353247E-16
4.846222E+03	2.826407E-15	1.346861E-16
4.856194E+03	2.816086E-15	1.341678E-16
4.866165E+03	2.808335E-15	1.337731E-16
4.876137E+03	2.803137E-15	1.335009E-16
4.886109E+03	2.800497E-15	1.333516E-16
4.896080E+03	2.800303E-15	1.333196E-16
4.906052E+03	2.802495E-15	1.334022E-16
4.916024E+03	2.806949E-15	1.335932E-16
4.925995E+03	2.813481E-15	1.338841E-16
4.935967E+03	2.821930E-15	1.342669E-16
4.945939E+03	2.832048E-15	1.347299E-16
4.955910E+03	2.843614E-15	1.352626E-16
4.965882E+03	2.856321E-15	1.358503E-16
4.975854E+03	2.869866E-15	1.364787E-16
4.985825E+03	2.883896E-15	1.371310E-16
4.995797E+03	2.898129E-15	1.377936E-16
5.005769E+03	2.912150E-15	1.384471E-16
5.015740E+03	2.925600E-15	1.390742E-16
5.025712E+03	2.938147E-15	1.396592E-16
5.035684E+03	2.949404E-15	1.401838E-16
5.045655E+03	2.959033E-15	1.406319E-16
5.055627E+03	2.966713E-15	1.409883E-16
5.065599E+03	2.972155E-15	1.412393E-16
5.075570E+03	2.975071E-15	1.413712E-16
5.085542E+03	2.975252E-15	1.413742E-16
5.095513E+03	2.972562E-15	1.412417E-16
5.105485E+03	2.966827E-15	1.409655E-16
5.115457E+03	2.958051E-15	1.405459E-16
5.125428E+03	2.946140E-15	1.399783E-16
5.135400E+03	2.931207E-15	1.392682E-16
5.145372E+03	2.913329E-15	1.384191E-16
5.155343E+03	2.892663E-15	1.374386E-16
5.165315E+03	2.869411E-15	1.363361E-16
5.175287E+03	2.843784E-15	1.351218E-16
5.185258E+03	2.816058E-15	1.338086E-16
5.195230E+03	2.786501E-15	1.324093E-16
5.205202E+03	2.755486E-15	1.309416E-16
5.215173E+03	2.723251E-15	1.294167E-16
5.225145E+03	2.690153E-15	1.278516E-16
5.235117E+03	2.656508E-15	1.262612E-16
5.245088E+03	2.622625E-15	1.246603E-16
5.255060E+03	2.588744E-15	1.230601E-16
5.265032E+03	2.555162E-15	1.214748E-16
5.275003E+03	2.522104E-15	1.199150E-16
5.284975E+03	2.489799E-15	1.183916E-16
5.294946E+03	2.458423E-15	1.169130E-16
5.304918E+03	2.428184E-15	1.154889E-16
5.314890E+03	2.399191E-15	1.141248E-16
5.324861E+03	2.371585E-15	1.128270E-16
5.334833E+03	2.345461E-15	1.116004E-16
5.344805E+03	2.320948E-15	1.104509E-16
5.354776E+03	2.298060E-15	1.093793E-16
5.364748E+03	2.276893E-15	1.083901E-16
5.374720E+03	2.257479E-15	1.074848E-16
5.384691E+03	2.239834E-15	1.066643E-16
5.394663E+03	2.223912E-15	1.059264E-16
5.404635E+03	2.209693E-15	1.052700E-16
5.414606E+03	2.197135E-15	1.046934E-16
5.424578E+03	2.186087E-15	1.041892E-16
5.434550E+03	2.176464E-15	1.037534E-16
5.444521E+03	2.168099E-15	1.033782E-16
5.454493E+03	2.160851E-15	1.030567E-16
5.464465E+03	2.154669E-15	1.027867E-16
5.474436E+03	2.149404E-15	1.025610E-16
5.484408E+03	2.144977E-15	1.023758E-16
5.494379E+03	2.141259E-15	1.022250E-16
5.504351E+03	2.138175E-15	1.021052E-16
5.514323E+03	2.135542E-15	1.020074E-16
5.524294E+03	2.133241E-15	1.019260E-16
5.534266E+03	2.131110E-15	1.018534E-16
5.544238E+03	2.129064E-15	1.017854E-16
5.554209E+03	2.126940E-15	1.017141E-16
5.564181E+03	2.124630E-15	1.016346E-16
5.574153E+03	2.122024E-15	1.015415E-16
5.584124E+03	2.119074E-15	1.014323E-16
5.594096E+03	2.115686E-15	1.013027E-16
5.604068E+03	2.111835E-15	1.011514E-16
5.614039E+03	2.107516E-15	1.009781E-16
5.624011E+03	2.102724E-15	1.007826E-16
5.633983E+03	2.097501E-15	1.005668E-16
5.643954E+03	2.091860E-15	1.003312E-16
5.653926E+03	2.085876E-15	1.000796E-16
5.663898E+03	2.079637E-15	9.981608E-17
5.673869E+03	2.073217E-15	9.954414E-17
5.683841E+03	2.066696E-15	9.926759E-17
5.693812E+03	2.060152E-15	9.899024E-17
5.703784E+03	2.053704E-15	9.871775E-17
5.713756E+03	2.047374E-15	9.845111E-17
5.723727E+03	2.041257E-15	9.819502E-17
5.733699E+03	2.035390E-15	9.795117E-17
5.743671E+03	2.029768E-15	9.771934E-17
5.753642E+03	2.024407E-15	9.750034E-17
5.763614E+03	2.019303E-15	9.729392E-17
5.773586E+03	2.014381E-15	9.709654E-17
5.783557E+03	2.009570E-15	9.690470E-17
5.793529E+03	2.004818E-15	9.671597E-17
5.803501E+03	1.999968E-15	9.652268E-17
5.813472E+03	1.994910E-15	9.631960E-17
5.823444E+03	1.989504E-15	9.609988E-17
5.833416E+03	1.983599E-15	9.585621E-17
5.843387E+03	1.977064E-15	9.558219E-17
5.853359E+03	1.969703E-15	9.526839E-17
5.863331E+03	1.961419E-15	9.490991E-17
5.873302E+03	1.952060E-15	9.449943E-17
5.883274E+03	1.941517E-15	9.403159E-17
5.893246E+03	1.929709E-15	9.350229E-17
5.903217E+03	1.916582E-15	9.290890E-17
5.913189E+03	1.902143E-15	9.225164E-17
5.923160E+03	1.886371E-15	9.152939E-17
5.933132E+03	1.869334E-15	9.074532E-17
5.943104E+03	1.851163E-15	8.990576E-17
5.953075E+03	1.832014E-15	8.901808E-17
5.963047E+03	1.812039E-15	8.808971E-17
5.973019E+03	1.791517E-15	8.713412E-17
5.982990E+03	1.770658E-15	8.616140E-17
5.992962E+03	1.749819E-15	8.518899E-17
6.002934E+03	1.729259E-15	8.422946E-17
6.012905E+03	1.709310E-15	8.329896E-17
6.022877E+03	1.690325E-15	8.241481E-17
6.032849E+03	1.672618E-15	8.159230E-17
6.042820E+03	1.656503E-15	8.084688E-17
6.052792E+03	1.642237E-15	8.019125E-17
6.062764E+03	1.630129E-15	7.964053E-17
6.072735E+03	1.620352E-15	7.920343E-17
6.082707E+03	1.613142E-15	7.889158E-17
6.092679E+03	1.608630E-15	7.871164E-17
6.102650E+03	1.606903E-15	7.866807E-17
6.112622E+03	1.608020E-15	7.876393E-17
6.122593E+03	1.612009E-15	7.900082E-17
6.132565E+03	1.618813E-15	7.937615E-17
6.142537E+03	1.628342E-15	7.988577E-17
6.152508E+03	1.640503E-15	8.052533E-17
6.162480E+03	1.655077E-15	8.128426E-17
6.172452E+03	1.671866E-15	8.215297E-17
6.182423E+03	1.690634E-15	8.312013E-17
6.192395E+03	1.711115E-15	8.417278E-17
6.202367E+03	1.732976E-15	8.529469E-17
6.212338E+03	1.755883E-15	8.646955E-17
6.222310E+03	1.779516E-15	8.768160E-17
6.232282E+03	1.803504E-15	8.891270E-17
6.242253E+03	1.827525E-15	9.014698E-17
6.252225E+03	1.851249E-15	9.136813E-17
6.262197E+03	1.874386E-15	9.256188E-17
6.272168E+03	1.896651E-15	9.371403E-17
6.282140E+03	1.917788E-15	9.481194E-17
6.292112E+03	1.937603E-15	9.584586E-17
6.302083E+03	1.955942E-15	9.680807E-17
6.312055E+03	1.972637E-15	9.769018E-17
6.322026E+03	1.987615E-15	9.848839E-17
6.331998E+03	2.000840E-15	9.920075E-17
6.341970E+03	2.012260E-15	9.982456E-17
6.351941E+03	2.021938E-15	1.003628E-16
6.361913E+03	2.029911E-15	1.008172E-16
6.371885E+03	2.036239E-15	1.011904E-16
6.381856E+03	2.040992E-15	1.014859E-16
6.391828E+03	2.044303E-15	1.017102E-16
6.401800E+03	2.046210E-15	1.018650E-16
6.411771E+03	2.046840E-15	1.019564E-16
6.421743E+03	2.046255E-15	1.019875E-16
6.431715E+03	2.044524E-15	1.019616E-16
6.441686E+03	2.041742E-15	1.018833E-16
6.451658E+03	2.037974E-15	1.017558E-16
6.461630E+03	2.033315E-15	1.015837E-16
6.471601E+03	2.027761E-15	1.013668E-16
6.481573E+03	2.021431E-15	1.011108E-16
6.491545E+03	2.014375E-15	1.008183E-16
6.501516E+03	2.006609E-15	1.004898E-16
6.511488E+03	1.998202E-15	1.001290E-16
6.521459E+03	1.989194E-15	9.973760E-17
6.531431E+03	1.979616E-15	9.931715E-17
6.541403E+03	1.969498E-15	9.886914E-17
6.551374E+03	1.958898E-15	9.839639E-17
6.561346E+03	1.947809E-15	9.789855E-17
6.571318E+03	1.936256E-15	9.737678E-17
6.581289E+03	1.924295E-15	9.683385E-17
6.591261E+03	1.911952E-15	9.627103E-17
6.601233E+03	1.899221E-15	9.568793E-17
6.611204E+03	1.886160E-15	9.508755E-17
6.621176E+03	1.872770E-15	9.446979E-17
6.631148E+03	1.859144E-15	9.383940E-17
6.641119E+03	1.845256E-15	9.319493E-17
6.651091E+03	1.831141E-15	9.253823E-17
6.661063E+03	1.816869E-15	9.187277E-17
6.671034E+03	1.802482E-15	9.120061E-17
6.681006E+03	1.787988E-15	9.052219E-17
6.690978E+03	1.773430E-15	8.983970E-17
6.700949E+03	1.758881E-15	8.915676E-17
6.710921E+03	1.744352E-15	8.847396E-17
6.720893E+03	1.729914E-15	8.779489E-17
6.730864E+03	1.715546E-15	8.711853E-17
6.740836E+03	1.701347E-15	8.644988E-17
6.750807E+03	1.687294E-15	8.578775E-17
6.760779E+03	1.673481E-15	8.513699E-17
6.770751E+03	1.659881E-15	8.449617E-17
6.780722E+03	1.646552E-15	8.386840E-17
6.790694E+03	1.633524E-15	8.325508E-17
6.800666E+03	1.620793E-15	8.265611E-17
6.810637E+03	1.608412E-15	8.207419E-17
6.820609E+03	1.596373E-15	8.150892E-17
6.830581E+03	1.584723E-15	8.096284E-17
6.840552E+03	1.573423E-15	8.043387E-17
6.850524E+03	1.562546E-15	7.992582E-17
6.860496E+03	1.552076E-15	7.943790E-17
6.870467E+03	1.542023E-15	7.897069E-17
6.880439E+03	1.532368E-15	7.852324E-17
6.890411E+03	1.523177E-15	7.809891E-17
6.900382E+03	1.514366E-15	7.769352E-17
6.910354E+03	1.506025E-15	7.731163E-17
6.920326E+03	1.498094E-15	7.695028E-17
6.930297E+03	1.490570E-15	7.660933E-17
6.940269E+03	1.483475E-15	7.628992E-17
6.950240E+03	1.476769E-15	7.599006E-17
6.960212E+03	1.470438E-15	7.570905E-17
6.970184E+03	1.464464E-15	7.544604E-17
6.980155E+03	1.458826E-15	7.519988E-17
6.990127E+03	1.453498E-15	7.496935E-17
7.000099E+03	1.448422E-15	7.475142E-17
7.010070E+03	1.443622E-15	7.454743E-17
7.020042E+03	1.438977E-15	7.435108E-17
7.030014E+03	1.434535E-15	7.416489E-17
7.039985E+03	1.430170E-15	7.398237E-17
7.049957E+03	1.425897E-15	7.380425E-17
7.059929E+03	1.421645E-15	7.362694E-17
7.069900E+03	1.417371E-15	7.344817E-17
7.079872E+03	1.413062E-15	7.326726E-17
7.089844E+03	1.408621E-15	7.307918E-17
7.099815E+03	1.404037E-15	7.288332E-17
7.109787E+03	1.399245E-15	7.267639E-17
7.119759E+03	1.394243E-15	7.245812E-17
7.129730E+03	1.388999E-15	7.222698E-17
7.139702E+03	1.383462E-15	7.198016E-17
7.149673E+03	1.377639E-15	7.171805E-17
7.159645E+03	1.371456E-15	7.143683E-17
7.169617E+03	1.364959E-15	7.113877E-17
7.179588E+03	1.358112E-15	7.082204E-17
7.189560E+03	1.350885E-15	7.048499E-17
7.199532E+03	1.343308E-15	7.012914E-17
7.209503E+03	1.335386E-15	6.975479E-17
7.219475E+03	1.327102E-15	6.936098E-17
7.229447E+03	1.318469E-15	6.894838E-17
7.239418E+03	1.309504E-15	6.851787E-17
7.249390E+03	1.300229E-15	6.807050E-17
7.259362E+03	1.290666E-15	6.760743E-17
7.269333E+03	1.280788E-15	6.712720E-17
7.279305E+03	1.270676E-15	6.663409E-17
7.289277E+03	1.260333E-15	6.612822E-17
7.299248E+03	1.249768E-15	6.560999E-17
7.309220E+03	1.239038E-15	6.508247E-17
7.319192E+03	1.228130E-15	6.454487E-17
7.329163E+03	1.217081E-15	6.399919E-17
7.339135E+03	1.205932E-15	6.344752E-17
7.349106E+03	1.194696E-15	6.289057E-17
7.359078E+03	1.183442E-15	6.233199E-17
7.369050E+03	1.172138E-15	6.177006E-17
7.379021E+03	1.160879E-15	6.120978E-17
7.388993E+03	1.149659E-15	6.065086E-17
7.398965E+03	1.138548E-15	6.009701E-17
7.408936E+03	1.127565E-15	5.954926E-17
7.418908E+03	1.116756E-15	5.900995E-17
7.428880E+03	1.106183E-15	5.848249E-17
7.438851E+03	1.095862E-15	5.796772E-17
7.448823E+03	1.085898E-15	5.747118E-17
7.458795E+03	1.076275E-15	5.699207E-17
7.468766E+03	1.067064E-15	5.653421E-17
7.478738E+03	1.058263E-15	5.609751E-17
7.488710E+03	1.049953E-15	5.568635E-17
7.498681E+03	1.042121E-15	5.529999E-17
7.508653E+03	1.034767E-15	5.493855E-17
7.518625E+03	1.027909E-15	5.460297E-17
7.528596E+03	1.021535E-15	5.429267E-17
7.538568E+03	1.015671E-15	5.400914E-17
7.548540E+03	1.010249E-15	5.374869E-17
7.558511E+03	1.005260E-15	5.351098E-17
7.568483E+03	1.000692E-15	5.329539E-17
7.578454E+03	9.964822E-16	5.309854E-17
7.588426E+03	9.926084E-16	5.291934E-17
7.598398E+03	9.889991E-16	5.275401E-17
7.608369E+03	9.856481E-16	5.260221E-17
7.618341E+03	9.824562E-16	5.245868E-17
7.628313E+03	9.794113E-16	5.232279E-17
7.638284E+03	9.764125E-16	5.218915E-17
7.648256E+03	9.734456E-16	5.205702E-17
7.658228E+03	9.704084E-16	5.192093E-17
7.668199E+03	9.672875E-16	5.178015E-17
7.678171E+03	9.640060E-16	5.163055E-17
7.688143E+03	9.605115E-16	5.146934E-17
7.698114E+03	9.567540E-16	5.129379E-17
7.708086E+03	9.526887E-16	5.110149E-17
7.718058E+03	9.482755E-16	5.089028E-17
7.728029E+03	9.434585E-16	5.065711E-17
7.738001E+03	9.382545E-16	5.040286E-17
