#wls	flux	fluxerr
1.595464E+03	1.118429E-15	4.603532E-17
1.635351E+03	9.425273E-16	3.820024E-17
1.675237E+03	7.893983E-16	3.148971E-17
1.715124E+03	6.573073E-16	2.579578E-17
1.755011E+03	5.444406E-16	2.101079E-17
1.794897E+03	4.488689E-16	1.702644E-17
1.834784E+03	3.685451E-16	1.373426E-17
1.874670E+03	3.017191E-16	1.104138E-17
1.914557E+03	2.466684E-16	8.859987E-18
1.954444E+03	2.018633E-16	7.113253E-18
1.994330E+03	1.659783E-16	5.735155E-18
2.034217E+03	1.379348E-16	4.671356E-18
2.074103E+03	1.168704E-16	3.877414E-18
2.113990E+03	1.021555E-16	3.318670E-18
2.153877E+03	9.339092E-17	2.969421E-18
2.193763E+03	9.034291E-17	2.810167E-18
2.233650E+03	9.314547E-17	2.833248E-18
2.273536E+03	1.025774E-16	3.049884E-18
2.313423E+03	1.203768E-16	3.497190E-18
2.353310E+03	1.495660E-16	4.244295E-18
2.393196E+03	1.949214E-16	5.401304E-18
2.433083E+03	2.633353E-16	7.123713E-18
2.472969E+03	3.642903E-16	9.618797E-18
2.512856E+03	5.098140E-16	1.313728E-17
2.552743E+03	7.137781E-16	1.794914E-17
2.592629E+03	9.901162E-16	2.429641E-17
2.632516E+03	1.351233E-15	3.235766E-17
2.672402E+03	1.808551E-15	4.226820E-17
2.712289E+03	2.374336E-15	5.416772E-17
2.752176E+03	3.061263E-15	6.819154E-17
2.792062E+03	3.879326E-15	8.440273E-17
2.831949E+03	4.830258E-15	1.026802E-16
2.871835E+03	5.900879E-15	1.226036E-16
2.911722E+03	7.058390E-15	1.433924E-16
2.951609E+03	8.253435E-15	1.640079E-16
2.991495E+03	9.425097E-15	1.832810E-16
3.001467E+03	9.707126E-15	1.877607E-16
3.011438E+03	9.982616E-15	1.920678E-16
3.021410E+03	1.025063E-14	1.961871E-16
3.031382E+03	1.051087E-14	2.001165E-16
3.041353E+03	1.076235E-14	2.038404E-16
3.051325E+03	1.100485E-14	2.073582E-16
3.061297E+03	1.123804E-14	2.106673E-16
3.071268E+03	1.146127E-14	2.137593E-16
3.081240E+03	1.167433E-14	2.166339E-16
3.091212E+03	1.187770E-14	2.193034E-16
3.101183E+03	1.207105E-14	2.217658E-16
3.111155E+03	1.225503E-14	2.240364E-16
3.121127E+03	1.242998E-14	2.261245E-16
3.131098E+03	1.259743E-14	2.280611E-16
3.141070E+03	1.275755E-14	2.298522E-16
3.151042E+03	1.291166E-14	2.315239E-16
3.161013E+03	1.306117E-14	2.331036E-16
3.170985E+03	1.320729E-14	2.346147E-16
3.180957E+03	1.335078E-14	2.360714E-16
3.190928E+03	1.349359E-14	2.375096E-16
3.200900E+03	1.363643E-14	2.389416E-16
3.210871E+03	1.378064E-14	2.403915E-16
3.220843E+03	1.392700E-14	2.418726E-16
3.230815E+03	1.407663E-14	2.434043E-16
3.240786E+03	1.423030E-14	2.449995E-16
3.250758E+03	1.438864E-14	2.466683E-16
3.260730E+03	1.455188E-14	2.484142E-16
3.270701E+03	1.472064E-14	2.502467E-16
3.280673E+03	1.489510E-14	2.521686E-16
3.290645E+03	1.507512E-14	2.541766E-16
3.300616E+03	1.526093E-14	2.562736E-16
3.310588E+03	1.545211E-14	2.584524E-16
3.320560E+03	1.564863E-14	2.607118E-16
3.330531E+03	1.584988E-14	2.630411E-16
3.340503E+03	1.605533E-14	2.654312E-16
3.350475E+03	1.626433E-14	2.678713E-16
3.360446E+03	1.647609E-14	2.703483E-16
3.370418E+03	1.668966E-14	2.728468E-16
3.380390E+03	1.690366E-14	2.753449E-16
3.390361E+03	1.711704E-14	2.778260E-16
3.400333E+03	1.732783E-14	2.802589E-16
3.410305E+03	1.753481E-14	2.826254E-16
3.420276E+03	1.773560E-14	2.848883E-16
3.430248E+03	1.792809E-14	2.870156E-16
3.440219E+03	1.810993E-14	2.889719E-16
3.450191E+03	1.827832E-14	2.907150E-16
3.460163E+03	1.843075E-14	2.922077E-16
3.470134E+03	1.856405E-14	2.934030E-16
3.480106E+03	1.867505E-14	2.942543E-16
3.490078E+03	1.876088E-14	2.947201E-16
3.500049E+03	1.881867E-14	2.947588E-16
3.510021E+03	1.884646E-14	2.943430E-16
3.519993E+03	1.884195E-14	2.934400E-16
3.529964E+03	1.880457E-14	2.920443E-16
3.539936E+03	1.873416E-14	2.901566E-16
3.549908E+03	1.863178E-14	2.877962E-16
3.559879E+03	1.849906E-14	2.849912E-16
3.569851E+03	1.833882E-14	2.817875E-16
3.579823E+03	1.815529E-14	2.782518E-16
3.589794E+03	1.795257E-14	2.744486E-16
3.599766E+03	1.773629E-14	2.704647E-16
3.609738E+03	1.751212E-14	2.663866E-16
3.619709E+03	1.728581E-14	2.623017E-16
3.629681E+03	1.706343E-14	2.583007E-16
3.639652E+03	1.685116E-14	2.544757E-16
3.649624E+03	1.665461E-14	2.509090E-16
3.659596E+03	1.647955E-14	2.476850E-16
3.669567E+03	1.633065E-14	2.448707E-16
3.679539E+03	1.621264E-14	2.425331E-16
3.689511E+03	1.612953E-14	2.407286E-16
3.699482E+03	1.608501E-14	2.395074E-16
3.709454E+03	1.608186E-14	2.389069E-16
3.719426E+03	1.612273E-14	2.389610E-16
3.729397E+03	1.620953E-14	2.396934E-16
3.739369E+03	1.634386E-14	2.411226E-16
3.749341E+03	1.652658E-14	2.432558E-16
3.759312E+03	1.675813E-14	2.460944E-16
3.769284E+03	1.703820E-14	2.496286E-16
3.779256E+03	1.736578E-14	2.538382E-16
3.789227E+03	1.773961E-14	2.587000E-16
3.799199E+03	1.815683E-14	2.641671E-16
3.809171E+03	1.861437E-14	2.701904E-16
3.819142E+03	1.910833E-14	2.767089E-16
3.829114E+03	1.963336E-14	2.836416E-16
3.839085E+03	2.018366E-14	2.909015E-16
3.849057E+03	2.075285E-14	2.983938E-16
3.859029E+03	2.133373E-14	3.060133E-16
3.869000E+03	2.191864E-14	3.136490E-16
3.878972E+03	2.249941E-14	3.211838E-16
3.888944E+03	2.306824E-14	3.285069E-16
3.898915E+03	2.361727E-14	3.355080E-16
3.908887E+03	2.413903E-14	3.420834E-16
3.918859E+03	2.462659E-14	3.481381E-16
3.928830E+03	2.507378E-14	3.535888E-16
3.938802E+03	2.547548E-14	3.583680E-16
3.948774E+03	2.582728E-14	3.624191E-16
3.958745E+03	2.612547E-14	3.656957E-16
3.968717E+03	2.636801E-14	3.681754E-16
3.978689E+03	2.655304E-14	3.698388E-16
3.988660E+03	2.668005E-14	3.706854E-16
3.998632E+03	2.674906E-14	3.707222E-16
4.008604E+03	2.676057E-14	3.699630E-16
4.018575E+03	2.671645E-14	3.684402E-16
4.028547E+03	2.661844E-14	3.661843E-16
4.038518E+03	2.646926E-14	3.632389E-16
4.048490E+03	2.627189E-14	3.596510E-16
4.058462E+03	2.602976E-14	3.554729E-16
4.068433E+03	2.574667E-14	3.507617E-16
4.078405E+03	2.542701E-14	3.455818E-16
4.088377E+03	2.507500E-14	3.399946E-16
4.098348E+03	2.469532E-14	3.340674E-16
4.108320E+03	2.429324E-14	3.278746E-16
4.118292E+03	2.387331E-14	3.214797E-16
4.128263E+03	2.344068E-14	3.149542E-16
4.138235E+03	2.300028E-14	3.083657E-16
4.148207E+03	2.255690E-14	3.017793E-16
4.158178E+03	2.211510E-14	2.952562E-16
4.168150E+03	2.167920E-14	2.888541E-16
4.178122E+03	2.125317E-14	2.826252E-16
4.188093E+03	2.084059E-14	2.766167E-16
4.198065E+03	2.044461E-14	2.708692E-16
4.208037E+03	2.006797E-14	2.654174E-16
4.218008E+03	1.971272E-14	2.602874E-16
4.227980E+03	1.938063E-14	2.555008E-16
4.237952E+03	1.907318E-14	2.510758E-16
4.247923E+03	1.879117E-14	2.470214E-16
4.257895E+03	1.853469E-14	2.433372E-16
4.267866E+03	1.830385E-14	2.400237E-16
4.277838E+03	1.809823E-14	2.370741E-16
4.287810E+03	1.791703E-14	2.344767E-16
4.297781E+03	1.775915E-14	2.322153E-16
4.307753E+03	1.762302E-14	2.302680E-16
4.317725E+03	1.750733E-14	2.286162E-16
4.327696E+03	1.741001E-14	2.272318E-16
4.337668E+03	1.732953E-14	2.260938E-16
4.347640E+03	1.726402E-14	2.251773E-16
4.357611E+03	1.721183E-14	2.244599E-16
4.367583E+03	1.717117E-14	2.239179E-16
4.377555E+03	1.714050E-14	2.235305E-16
4.387526E+03	1.711813E-14	2.232740E-16
4.397498E+03	1.710262E-14	2.231287E-16
4.407470E+03	1.709222E-14	2.230703E-16
4.417441E+03	1.708506E-14	2.230730E-16
4.427413E+03	1.707952E-14	2.231142E-16
4.437385E+03	1.707355E-14	2.231662E-16
4.447356E+03	1.706521E-14	2.232020E-16
4.457328E+03	1.705269E-14	2.231965E-16
4.467299E+03	1.703368E-14	2.231182E-16
4.477271E+03	1.700641E-14	2.229422E-16
4.487243E+03	1.696904E-14	2.226429E-16
4.497214E+03	1.691970E-14	2.221941E-16
4.507186E+03	1.685691E-14	2.215744E-16
4.517158E+03	1.677939E-14	2.207655E-16
4.527129E+03	1.668616E-14	2.197526E-16
4.537101E+03	1.657656E-14	2.185250E-16
4.547073E+03	1.645005E-14	2.170741E-16
4.557044E+03	1.630645E-14	2.153955E-16
4.567016E+03	1.614634E-14	2.134951E-16
4.576988E+03	1.596999E-14	2.113749E-16
4.586959E+03	1.577808E-14	2.090423E-16
4.596931E+03	1.557184E-14	2.065123E-16
4.606903E+03	1.535256E-14	2.038005E-16
4.616874E+03	1.512123E-14	2.009191E-16
4.626846E+03	1.487987E-14	1.978936E-16
4.636818E+03	1.462956E-14	1.947377E-16
4.646789E+03	1.437229E-14	1.914771E-16
4.656761E+03	1.410965E-14	1.881325E-16
4.666732E+03	1.384324E-14	1.847248E-16
4.676704E+03	1.357464E-14	1.812748E-16
4.686676E+03	1.330541E-14	1.778032E-16
4.696647E+03	1.303730E-14	1.743335E-16
4.706619E+03	1.277168E-14	1.708837E-16
4.716591E+03	1.250992E-14	1.674728E-16
4.726562E+03	1.225353E-14	1.641209E-16
4.736534E+03	1.200358E-14	1.608428E-16
4.746506E+03	1.176167E-14	1.576603E-16
4.756477E+03	1.152865E-14	1.545852E-16
4.766449E+03	1.130589E-14	1.516363E-16
4.776421E+03	1.109445E-14	1.488282E-16
4.786392E+03	1.089511E-14	1.461718E-16
4.796364E+03	1.070890E-14	1.436814E-16
4.806336E+03	1.053676E-14	1.413699E-16
4.816307E+03	1.037921E-14	1.392445E-16
4.826279E+03	1.023697E-14	1.373155E-16
4.836251E+03	1.011054E-14	1.355895E-16
4.846222E+03	1.000021E-14	1.340706E-16
4.856194E+03	9.906217E-15	1.327621E-16
4.866165E+03	9.828778E-15	1.316670E-16
4.876137E+03	9.767753E-15	1.307832E-16
4.886109E+03	9.723085E-15	1.301099E-16
4.896080E+03	9.694243E-15	1.296398E-16
4.906052E+03	9.680889E-15	1.293681E-16
4.916024E+03	9.682413E-15	1.292863E-16
4.925995E+03	9.697983E-15	1.293830E-16
4.935967E+03	9.726819E-15	1.296473E-16
4.945939E+03	9.767786E-15	1.300638E-16
4.955910E+03	9.819826E-15	1.306179E-16
4.965882E+03	9.881536E-15	1.312906E-16
4.975854E+03	9.951471E-15	1.320624E-16
4.985825E+03	1.002797E-14	1.329109E-16
4.995797E+03	1.010957E-14	1.338165E-16
5.005769E+03	1.019429E-14	1.347528E-16
5.015740E+03	1.028033E-14	1.356960E-16
5.025712E+03	1.036591E-14	1.366229E-16
5.035684E+03	1.044907E-14	1.375077E-16
5.045655E+03	1.052803E-14	1.383275E-16
5.055627E+03	1.060104E-14	1.390598E-16
5.065599E+03	1.066650E-14	1.396845E-16
5.075570E+03	1.072291E-14	1.401828E-16
5.085542E+03	1.076905E-14	1.405397E-16
5.095513E+03	1.080409E-14	1.407455E-16
5.105485E+03	1.082712E-14	1.407899E-16
5.115457E+03	1.083797E-14	1.406719E-16
5.125428E+03	1.083622E-14	1.403877E-16
5.135400E+03	1.082234E-14	1.399445E-16
5.145372E+03	1.079669E-14	1.393490E-16
5.155343E+03	1.076007E-14	1.386126E-16
5.165315E+03	1.071350E-14	1.377501E-16
5.175287E+03	1.065810E-14	1.367773E-16
5.185258E+03	1.059527E-14	1.357133E-16
5.195230E+03	1.052639E-14	1.345772E-16
5.205202E+03	1.045326E-14	1.333929E-16
5.215173E+03	1.037715E-14	1.321777E-16
5.225145E+03	1.029974E-14	1.309538E-16
5.235117E+03	1.022251E-14	1.297406E-16
5.245088E+03	1.014683E-14	1.285564E-16
5.255060E+03	1.007377E-14	1.274149E-16
5.265032E+03	1.000451E-14	1.263318E-16
5.275003E+03	9.939891E-15	1.253180E-16
5.284975E+03	9.880676E-15	1.243834E-16
5.294946E+03	9.827384E-15	1.235348E-16
5.304918E+03	9.780559E-15	1.227795E-16
5.314890E+03	9.740329E-15	1.221193E-16
5.324861E+03	9.706890E-15	1.215570E-16
5.334833E+03	9.680221E-15	1.210928E-16
5.344805E+03	9.660431E-15	1.207284E-16
5.354776E+03	9.647149E-15	1.204596E-16
5.364748E+03	9.640351E-15	1.202867E-16
5.374720E+03	9.639769E-15	1.202068E-16
5.384691E+03	9.645119E-15	1.202170E-16
5.394663E+03	9.655930E-15	1.203117E-16
5.404635E+03	9.671927E-15	1.204874E-16
5.414606E+03	9.692863E-15	1.207410E-16
5.424578E+03	9.718117E-15	1.210643E-16
5.434550E+03	9.747444E-15	1.214540E-16
5.444521E+03	9.780292E-15	1.219026E-16
5.454493E+03	9.816226E-15	1.224044E-16
5.464465E+03	9.855268E-15	1.229591E-16
5.474436E+03	9.896898E-15	1.235601E-16
5.484408E+03	9.940933E-15	1.242044E-16
5.494379E+03	9.986866E-15	1.248855E-16
5.504351E+03	1.003438E-14	1.255989E-16
5.514323E+03	1.008262E-14	1.263335E-16
5.524294E+03	1.013090E-14	1.270803E-16
5.534266E+03	1.017833E-14	1.278276E-16
5.544238E+03	1.022430E-14	1.285673E-16
5.554209E+03	1.026779E-14	1.292859E-16
5.564181E+03	1.030803E-14	1.299731E-16
5.574153E+03	1.034418E-14	1.306177E-16
5.584124E+03	1.037571E-14	1.312124E-16
5.594096E+03	1.040193E-14	1.317473E-16
5.604068E+03	1.042242E-14	1.322166E-16
5.614039E+03	1.043697E-14	1.326168E-16
5.624011E+03	1.044538E-14	1.329444E-16
5.633983E+03	1.044775E-14	1.331997E-16
5.643954E+03	1.044409E-14	1.333821E-16
5.653926E+03	1.043479E-14	1.334959E-16
5.663898E+03	1.042035E-14	1.335464E-16
5.673869E+03	1.040130E-14	1.335398E-16
5.683841E+03	1.037818E-14	1.334823E-16
5.693812E+03	1.035161E-14	1.333814E-16
5.703784E+03	1.032241E-14	1.332469E-16
5.713756E+03	1.029095E-14	1.330830E-16
5.723727E+03	1.025793E-14	1.328986E-16
5.733699E+03	1.022376E-14	1.326984E-16
5.743671E+03	1.018860E-14	1.324843E-16
5.753642E+03	1.015267E-14	1.322589E-16
5.763614E+03	1.011604E-14	1.320227E-16
5.773586E+03	1.007838E-14	1.317713E-16
5.783557E+03	1.003931E-14	1.314997E-16
5.793529E+03	9.998525E-15	1.312032E-16
5.803501E+03	9.955091E-15	1.308697E-16
5.813472E+03	9.908342E-15	1.304902E-16
5.823444E+03	9.857349E-15	1.300519E-16
5.833416E+03	9.801172E-15	1.295423E-16
5.843387E+03	9.738924E-15	1.289493E-16
5.853359E+03	9.669428E-15	1.282567E-16
5.863331E+03	9.591975E-15	1.274548E-16
5.873302E+03	9.505642E-15	1.265309E-16
5.883274E+03	9.409775E-15	1.254755E-16
5.893246E+03	9.303868E-15	1.242815E-16
5.903217E+03	9.187664E-15	1.229448E-16
5.913189E+03	9.061268E-15	1.214663E-16
5.923160E+03	8.924753E-15	1.198464E-16
5.933132E+03	8.778707E-15	1.180924E-16
5.943104E+03	8.624129E-15	1.162173E-16
5.953075E+03	8.462217E-15	1.142368E-16
5.963047E+03	8.294267E-15	1.121681E-16
5.973019E+03	8.122216E-15	1.100373E-16
5.982990E+03	7.947739E-15	1.078668E-16
5.992962E+03	7.773231E-15	1.056892E-16
6.002934E+03	7.600631E-15	1.035311E-16
6.012905E+03	7.432188E-15	1.014235E-16
6.022877E+03	7.270211E-15	9.939823E-17
6.032849E+03	7.116736E-15	9.748396E-17
6.042820E+03	6.973744E-15	9.570858E-17
6.052792E+03	6.842859E-15	9.409538E-17
6.062764E+03	6.725810E-15	9.266928E-17
6.072735E+03	6.623664E-15	9.144625E-17
6.082707E+03	6.537625E-15	9.044432E-17
6.092679E+03	6.468379E-15	8.967455E-17
6.102650E+03	6.416330E-15	8.914419E-17
6.112622E+03	6.381689E-15	8.885792E-17
6.122593E+03	6.364471E-15	8.881783E-17
6.132565E+03	6.364277E-15	8.902023E-17
6.142537E+03	6.380530E-15	8.945905E-17
6.152508E+03	6.412577E-15	9.012710E-17
6.162480E+03	6.459220E-15	9.100959E-17
6.172452E+03	6.519290E-15	9.209203E-17
6.182423E+03	6.591435E-15	9.335729E-17
6.192395E+03	6.674139E-15	9.478581E-17
6.202367E+03	6.765586E-15	9.635360E-17
6.212338E+03	6.863937E-15	9.803616E-17
6.222310E+03	6.967380E-15	9.980916E-17
6.232282E+03	7.073907E-15	1.016452E-16
6.242253E+03	7.181713E-15	1.035194E-16
6.252225E+03	7.288976E-15	1.054067E-16
6.262197E+03	7.394090E-15	1.072843E-16
6.272168E+03	7.495511E-15	1.091304E-16
6.282140E+03	7.591892E-15	1.109253E-16
6.292112E+03	7.682206E-15	1.126531E-16
6.302083E+03	7.765669E-15	1.143013E-16
6.312055E+03	7.841527E-15	1.158574E-16
6.322026E+03	7.909475E-15	1.173155E-16
6.331998E+03	7.969440E-15	1.186729E-16
6.341970E+03	8.021323E-15	1.199265E-16
6.351941E+03	8.065531E-15	1.210804E-16
6.361913E+03	8.102375E-15	1.221378E-16
6.371885E+03	8.132247E-15	1.231026E-16
6.381856E+03	8.155575E-15	1.239797E-16
6.391828E+03	8.173025E-15	1.247775E-16
6.401800E+03	8.184886E-15	1.254988E-16
6.411771E+03	8.191761E-15	1.261513E-16
6.421743E+03	8.193976E-15	1.267386E-16
6.431715E+03	8.191812E-15	1.272635E-16
6.441686E+03	8.185640E-15	1.277304E-16
6.451658E+03	8.175678E-15	1.281415E-16
6.461630E+03	8.162244E-15	1.285003E-16
6.471601E+03	8.145260E-15	1.288046E-16
6.481573E+03	8.125124E-15	1.290593E-16
6.491545E+03	8.101967E-15	1.292653E-16
6.501516E+03	8.075779E-15	1.294215E-16
6.511488E+03	8.046781E-15	1.295302E-16
6.521459E+03	8.015060E-15	1.295918E-16
6.531431E+03	7.980690E-15	1.296065E-16
6.541403E+03	7.943742E-15	1.295744E-16
6.551374E+03	7.904411E-15	1.294978E-16
6.561346E+03	7.862638E-15	1.293748E-16
6.571318E+03	7.818497E-15	1.292058E-16
6.581289E+03	7.772203E-15	1.289934E-16
6.591261E+03	7.723851E-15	1.287384E-16
6.601233E+03	7.673426E-15	1.284399E-16
6.611204E+03	7.621182E-15	1.281013E-16
6.621176E+03	7.567139E-15	1.277224E-16
6.631148E+03	7.511714E-15	1.273096E-16
6.641119E+03	7.454829E-15	1.268610E-16
6.651091E+03	7.396679E-15	1.263795E-16
6.661063E+03	7.337597E-15	1.258702E-16
6.671034E+03	7.277796E-15	1.253366E-16
6.681006E+03	7.217370E-15	1.247799E-16
6.690978E+03	7.156544E-15	1.242037E-16
6.700949E+03	7.095665E-15	1.236140E-16
6.710921E+03	7.034826E-15	1.230122E-16
6.720893E+03	6.974364E-15	1.224041E-16
6.730864E+03	6.914231E-15	1.217890E-16
6.740836E+03	6.854869E-15	1.211745E-16
6.750807E+03	6.796210E-15	1.205597E-16
6.760779E+03	6.738667E-15	1.199519E-16
6.770751E+03	6.682146E-15	1.193497E-16
6.780722E+03	6.626914E-15	1.187580E-16
6.790694E+03	6.573095E-15	1.181793E-16
6.800666E+03	6.520687E-15	1.176137E-16
6.810637E+03	6.469911E-15	1.170656E-16
6.820609E+03	6.420744E-15	1.165348E-16
6.830581E+03	6.373387E-15	1.160253E-16
6.840552E+03	6.327677E-15	1.155345E-16
6.850524E+03	6.283917E-15	1.150681E-16
6.860496E+03	6.242045E-15	1.146253E-16
6.870467E+03	6.202113E-15	1.142076E-16
6.880439E+03	6.164042E-15	1.138137E-16
6.890411E+03	6.128101E-15	1.134491E-16
6.900382E+03	6.093964E-15	1.131079E-16
6.910354E+03	6.061995E-15	1.127972E-16
6.920326E+03	6.031962E-15	1.125132E-16
6.930297E+03	6.003856E-15	1.122558E-16
6.940269E+03	5.977766E-15	1.120272E-16
6.950240E+03	5.953532E-15	1.118247E-16
6.960212E+03	5.931095E-15	1.116473E-16
6.970184E+03	5.910372E-15	1.114939E-16
6.980155E+03	5.891262E-15	1.113628E-16
6.990127E+03	5.873642E-15	1.112518E-16
7.000099E+03	5.857250E-15	1.111563E-16
7.010070E+03	5.842156E-15	1.110778E-16
7.020042E+03	5.827831E-15	1.110064E-16
7.030014E+03	5.814423E-15	1.109450E-16
7.039985E+03	5.801376E-15	1.108832E-16
7.049957E+03	5.788702E-15	1.108214E-16
7.059929E+03	5.776060E-15	1.107531E-16
7.069900E+03	5.763228E-15	1.106741E-16
7.079872E+03	5.750096E-15	1.105824E-16
7.089844E+03	5.736220E-15	1.104695E-16
7.099815E+03	5.721514E-15	1.103339E-16
7.109787E+03	5.705674E-15	1.101696E-16
7.119759E+03	5.688648E-15	1.099757E-16
7.129730E+03	5.670290E-15	1.097495E-16
7.139702E+03	5.650362E-15	1.094863E-16
7.149673E+03	5.628881E-15	1.091865E-16
7.159645E+03	5.605548E-15	1.088445E-16
7.169617E+03	5.580546E-15	1.084638E-16
7.179588E+03	5.553741E-15	1.080419E-16
7.189560E+03	5.525028E-15	1.075768E-16
7.199532E+03	5.494548E-15	1.070715E-16
7.209503E+03	5.462354E-15	1.065269E-16
7.219475E+03	5.428407E-15	1.059426E-16
7.229447E+03	5.392799E-15	1.053205E-16
7.239418E+03	5.355636E-15	1.046627E-16
7.249390E+03	5.317043E-15	1.039720E-16
7.259362E+03	5.277155E-15	1.032511E-16
7.269333E+03	5.235901E-15	1.024989E-16
7.279305E+03	5.193659E-15	1.017230E-16
7.289277E+03	5.150485E-15	1.009246E-16
7.299248E+03	5.106446E-15	1.001054E-16
7.309220E+03	5.061831E-15	9.927116E-17
7.319192E+03	5.016615E-15	9.842175E-17
7.329163E+03	4.970997E-15	9.756128E-17
7.339135E+03	4.925181E-15	9.669398E-17
7.349106E+03	4.879273E-15	9.582222E-17
7.359078E+03	4.833594E-15	9.495255E-17
7.369050E+03	4.788065E-15	9.408366E-17
7.379021E+03	4.743121E-15	9.322440E-17
7.388993E+03	4.698803E-15	9.237577E-17
7.398965E+03	4.655452E-15	9.154478E-17
7.408936E+03	4.613213E-15	9.073454E-17
7.418908E+03	4.572328E-15	8.995005E-17
7.428880E+03	4.533132E-15	8.919817E-17
7.438851E+03	4.495750E-15	8.848162E-17
7.448823E+03	4.460682E-15	8.781049E-17
7.458795E+03	4.427923E-15	8.718495E-17
7.468766E+03	4.397831E-15	8.661231E-17
7.478738E+03	4.370445E-15	8.609361E-17
7.488710E+03	4.346156E-15	8.563684E-17
7.498681E+03	4.324941E-15	8.524180E-17
7.508653E+03	4.306838E-15	8.490953E-17
7.518625E+03	4.291941E-15	8.464220E-17
7.528596E+03	4.280217E-15	8.443943E-17
7.538568E+03	4.271779E-15	8.430381E-17
7.548540E+03	4.266336E-15	8.422988E-17
7.558511E+03	4.263838E-15	8.421703E-17
7.568483E+03	4.264209E-15	8.426407E-17
7.578454E+03	4.267149E-15	8.436548E-17
7.588426E+03	4.272521E-15	8.451889E-17
7.598398E+03	4.279970E-15	8.471768E-17
7.608369E+03	4.289404E-15	8.496044E-17
7.618341E+03	4.300325E-15	8.523769E-17
7.628313E+03	4.312602E-15	8.554723E-17
7.638284E+03	4.325697E-15	8.587881E-17
7.648256E+03	4.339449E-15	8.622966E-17
7.658228E+03	4.353294E-15	8.658893E-17
7.668199E+03	4.367054E-15	8.695349E-17
7.678171E+03	4.380254E-15	8.731425E-17
7.688143E+03	4.392516E-15	8.766400E-17
7.698114E+03	4.403472E-15	8.799570E-17
7.708086E+03	4.412764E-15	8.830250E-17
7.718058E+03	4.420051E-15	8.857782E-17
7.728029E+03	4.424917E-15	8.881346E-17
7.738001E+03	4.427278E-15	8.900790E-17
