#wls	flux	fluxerr
1.595464E+03	4.078513E-15	1.685351E-16
1.635351E+03	3.471177E-15	1.402851E-16
1.675237E+03	2.930751E-15	1.157618E-16
1.715124E+03	2.454921E-15	9.470552E-17
1.755011E+03	2.040514E-15	7.682904E-17
1.794897E+03	1.683328E-15	6.181528E-17
1.834784E+03	1.378105E-15	4.932224E-17
1.874670E+03	1.120115E-15	3.904352E-17
1.914557E+03	9.041785E-16	3.067344E-17
1.954444E+03	7.253407E-16	2.393169E-17
1.994330E+03	5.789537E-16	1.856559E-17
2.034217E+03	4.608634E-16	1.435472E-17
2.074103E+03	3.673178E-16	1.110617E-17
2.113990E+03	2.963324E-16	8.692952E-18
2.153877E+03	2.487234E-16	7.075671E-18
2.193763E+03	2.234516E-16	6.162160E-18
2.233650E+03	2.196109E-16	5.869283E-18
2.273536E+03	2.392352E-16	6.195526E-18
2.313423E+03	2.882423E-16	7.233379E-18
2.353310E+03	3.785296E-16	9.206651E-18
2.393196E+03	5.310230E-16	1.252311E-17
2.433083E+03	7.781947E-16	1.780594E-17
2.472969E+03	1.164009E-15	2.586402E-17
2.512856E+03	1.736058E-15	3.749899E-17
2.552743E+03	2.524210E-15	5.306389E-17
2.592629E+03	3.503975E-15	7.177337E-17
2.632516E+03	4.571493E-15	9.134046E-17
2.672402E+03	5.633256E-15	1.098991E-16
2.712289E+03	6.680134E-15	1.273571E-16
2.752176E+03	7.751874E-15	1.445324E-16
2.792062E+03	8.904668E-15	1.624638E-16
2.831949E+03	1.018363E-14	1.818978E-16
2.871835E+03	1.160425E-14	2.029944E-16
2.911722E+03	1.314428E-14	2.252478E-16
2.951609E+03	1.475397E-14	2.477265E-16
2.991495E+03	1.637269E-14	2.693936E-16
3.001467E+03	1.677241E-14	2.745825E-16
3.011438E+03	1.716812E-14	2.796495E-16
3.021410E+03	1.755907E-14	2.845840E-16
3.031382E+03	1.794558E-14	2.893931E-16
3.041353E+03	1.832676E-14	2.940644E-16
3.051325E+03	1.870294E-14	2.986052E-16
3.061297E+03	1.907424E-14	3.030195E-16
3.071268E+03	1.944017E-14	3.073016E-16
3.081240E+03	1.980091E-14	3.114565E-16
3.091212E+03	2.015779E-14	3.155072E-16
3.101183E+03	2.051074E-14	3.194549E-16
3.111155E+03	2.086138E-14	3.233262E-16
3.121127E+03	2.121082E-14	3.271396E-16
3.131098E+03	2.156228E-14	3.309448E-16
3.141070E+03	2.191676E-14	3.347572E-16
3.151042E+03	2.227727E-14	3.386222E-16
3.161013E+03	2.264711E-14	3.425889E-16
3.170985E+03	2.302932E-14	3.467012E-16
3.180957E+03	2.342621E-14	3.509917E-16
3.190928E+03	2.384223E-14	3.555243E-16
3.200900E+03	2.427963E-14	3.603289E-16
3.210871E+03	2.474176E-14	3.654513E-16
3.220843E+03	2.523087E-14	3.709204E-16
3.230815E+03	2.574980E-14	3.767731E-16
3.240786E+03	2.630057E-14	3.830339E-16
3.250758E+03	2.688481E-14	3.897210E-16
3.260730E+03	2.750324E-14	3.968398E-16
3.270701E+03	2.815708E-14	4.044026E-16
3.280673E+03	2.884668E-14	4.124090E-16
3.290645E+03	2.957143E-14	4.208456E-16
3.300616E+03	3.033131E-14	4.297073E-16
3.310588E+03	3.112494E-14	4.389706E-16
3.320560E+03	3.195158E-14	4.486212E-16
3.330531E+03	3.280919E-14	4.586276E-16
3.340503E+03	3.369594E-14	4.689617E-16
3.350475E+03	3.460975E-14	4.795931E-16
3.360446E+03	3.554835E-14	4.904893E-16
3.370418E+03	3.650932E-14	5.016168E-16
3.380390E+03	3.748955E-14	5.129334E-16
3.390361E+03	3.848697E-14	5.244126E-16
3.400333E+03	3.949781E-14	5.360051E-16
3.410305E+03	4.052058E-14	5.476939E-16
3.420276E+03	4.155159E-14	5.594332E-16
3.430248E+03	4.258840E-14	5.711946E-16
3.440219E+03	4.362891E-14	5.829554E-16
3.450191E+03	4.467140E-14	5.946986E-16
3.460163E+03	4.571677E-14	6.064425E-16
3.470134E+03	4.676247E-14	6.181597E-16
3.480106E+03	4.779177E-14	6.296373E-16
3.490078E+03	4.878355E-14	6.406071E-16
3.500049E+03	4.971508E-14	6.507836E-16
3.510021E+03	5.056424E-14	6.598915E-16
3.519993E+03	5.130640E-14	6.676198E-16
3.529964E+03	5.191982E-14	6.736968E-16
3.539936E+03	5.238224E-14	6.778454E-16
3.549908E+03	5.267320E-14	6.798138E-16
3.559879E+03	5.277338E-14	6.793663E-16
3.569851E+03	5.266809E-14	6.763276E-16
3.579823E+03	5.234925E-14	6.706079E-16
3.589794E+03	5.181225E-14	6.621620E-16
3.599766E+03	5.106186E-14	6.510636E-16
3.609738E+03	5.010934E-14	6.374680E-16
3.619709E+03	4.897270E-14	6.216151E-16
3.629681E+03	4.767861E-14	6.038514E-16
3.639652E+03	4.626242E-14	5.846311E-16
3.649624E+03	4.476331E-14	5.644527E-16
3.659596E+03	4.322441E-14	5.438610E-16
3.669567E+03	4.168811E-14	5.233871E-16
3.679539E+03	4.019589E-14	5.035468E-16
3.689511E+03	3.878294E-14	4.847735E-16
3.699482E+03	3.747798E-14	4.674164E-16
3.709454E+03	3.630283E-14	4.517359E-16
3.719426E+03	3.527486E-14	4.379353E-16
3.729397E+03	3.440651E-14	4.261550E-16
3.739369E+03	3.370759E-14	4.165010E-16
3.749341E+03	3.318599E-14	4.090546E-16
3.759312E+03	3.284928E-14	4.038919E-16
3.769284E+03	3.270470E-14	4.010834E-16
3.779256E+03	3.275994E-14	4.007036E-16
3.789227E+03	3.302387E-14	4.028399E-16
3.799199E+03	3.350230E-14	4.075402E-16
3.809171E+03	3.419510E-14	4.147784E-16
3.819142E+03	3.508922E-14	4.243717E-16
3.829114E+03	3.616012E-14	4.359990E-16
3.839085E+03	3.737699E-14	4.492667E-16
3.849057E+03	3.870311E-14	4.637143E-16
3.859029E+03	4.009605E-14	4.788181E-16
3.869000E+03	4.151072E-14	4.940288E-16
3.878972E+03	4.290215E-14	5.088065E-16
3.888944E+03	4.422843E-14	5.226544E-16
3.898915E+03	4.545345E-14	5.351521E-16
3.908887E+03	4.655223E-14	5.460170E-16
3.918859E+03	4.751005E-14	5.550914E-16
3.928830E+03	4.832049E-14	5.623182E-16
3.938802E+03	4.898557E-14	5.677406E-16
3.948774E+03	4.951367E-14	5.714758E-16
3.958745E+03	4.991811E-14	5.736974E-16
3.968717E+03	5.021803E-14	5.746437E-16
3.978689E+03	5.043387E-14	5.745652E-16
3.988660E+03	5.058712E-14	5.737210E-16
3.998632E+03	5.069687E-14	5.723389E-16
4.008604E+03	5.077778E-14	5.705940E-16
4.018575E+03	5.083764E-14	5.685816E-16
4.028547E+03	5.087076E-14	5.662459E-16
4.038518E+03	5.086295E-14	5.634383E-16
4.048490E+03	5.079248E-14	5.599307E-16
4.058462E+03	5.063130E-14	5.554308E-16
4.068433E+03	5.035000E-14	5.496377E-16
4.078405E+03	4.992610E-14	5.423321E-16
4.088377E+03	4.934769E-14	5.334140E-16
4.098348E+03	4.861289E-14	5.228937E-16
4.108320E+03	4.772765E-14	5.108654E-16
4.118292E+03	4.670250E-14	4.974700E-16
4.128263E+03	4.555432E-14	4.829128E-16
4.138235E+03	4.430429E-14	4.674401E-16
4.148207E+03	4.297799E-14	4.513389E-16
4.158178E+03	4.160308E-14	4.349119E-16
4.168150E+03	4.020715E-14	4.184549E-16
4.178122E+03	3.881674E-14	4.022464E-16
4.188093E+03	3.745659E-14	3.865408E-16
4.198065E+03	3.614952E-14	3.715679E-16
4.208037E+03	3.491653E-14	3.575349E-16
4.218008E+03	3.377596E-14	3.446186E-16
4.227980E+03	3.274377E-14	3.329693E-16
4.237952E+03	3.183356E-14	3.227119E-16
4.247923E+03	3.105588E-14	3.139400E-16
4.257895E+03	3.041723E-14	3.067067E-16
4.267866E+03	2.992079E-14	3.010329E-16
4.277838E+03	2.956571E-14	2.969011E-16
4.287810E+03	2.934575E-14	2.942419E-16
4.297781E+03	2.924746E-14	2.929141E-16
4.307753E+03	2.925203E-14	2.927246E-16
4.317725E+03	2.933810E-14	2.934579E-16
4.327696E+03	2.948026E-14	2.948597E-16
4.337668E+03	2.965280E-14	2.966744E-16
4.347640E+03	2.983109E-14	2.986575E-16
4.357611E+03	2.999836E-14	3.006426E-16
4.367583E+03	3.015368E-14	3.026217E-16
4.377555E+03	3.030151E-14	3.046398E-16
4.387526E+03	3.044792E-14	3.067553E-16
4.397498E+03	3.060040E-14	3.090392E-16
4.407470E+03	3.076550E-14	3.115537E-16
4.417441E+03	3.094828E-14	3.143461E-16
4.427413E+03	3.115270E-14	3.174538E-16
4.437385E+03	3.137993E-14	3.208857E-16
4.447356E+03	3.162823E-14	3.246218E-16
4.457328E+03	3.189301E-14	3.286122E-16
4.467299E+03	3.216446E-14	3.327523E-16
4.477271E+03	3.242389E-14	3.368439E-16
4.487243E+03	3.264819E-14	3.406391E-16
4.497214E+03	3.281810E-14	3.439258E-16
4.507186E+03	3.292308E-14	3.465799E-16
4.517158E+03	3.295927E-14	3.485456E-16
4.527129E+03	3.292679E-14	3.498084E-16
4.537101E+03	3.282884E-14	3.503864E-16
4.547073E+03	3.266992E-14	3.503125E-16
4.557044E+03	3.245426E-14	3.496178E-16
4.567016E+03	3.218575E-14	3.483304E-16
4.576988E+03	3.186664E-14	3.464622E-16
4.586959E+03	3.150101E-14	3.440453E-16
4.596931E+03	3.109581E-14	3.411454E-16
4.606903E+03	3.065955E-14	3.378463E-16
4.616874E+03	3.020099E-14	3.342376E-16
4.626846E+03	2.973166E-14	3.304413E-16
4.636818E+03	2.926098E-14	3.265589E-16
4.646789E+03	2.879867E-14	3.226969E-16
4.656761E+03	2.835132E-14	3.189292E-16
4.666732E+03	2.792349E-14	3.153078E-16
4.676704E+03	2.751750E-14	3.118607E-16
4.686676E+03	2.713327E-14	3.085888E-16
4.696647E+03	2.676926E-14	3.054764E-16
4.706619E+03	2.642131E-14	3.024780E-16
4.716591E+03	2.608364E-14	2.995286E-16
4.726562E+03	2.574956E-14	2.965522E-16
4.736534E+03	2.541125E-14	2.934590E-16
4.746506E+03	2.506212E-14	2.901725E-16
4.756477E+03	2.469446E-14	2.866032E-16
4.766449E+03	2.430277E-14	2.826862E-16
4.776421E+03	2.388257E-14	2.783689E-16
4.786392E+03	2.343152E-14	2.736234E-16
4.796364E+03	2.295324E-14	2.684920E-16
4.806336E+03	2.245815E-14	2.630976E-16
4.816307E+03	2.195992E-14	2.576020E-16
4.826279E+03	2.147381E-14	2.521873E-16
4.836251E+03	2.101447E-14	2.470287E-16
4.846222E+03	2.059484E-14	2.422823E-16
4.856194E+03	2.022501E-14	2.380704E-16
4.866165E+03	1.991138E-14	2.344718E-16
4.876137E+03	1.965685E-14	2.315235E-16
4.886109E+03	1.946200E-14	2.292346E-16
4.896080E+03	1.932386E-14	2.275717E-16
4.906052E+03	1.923849E-14	2.264890E-16
4.916024E+03	1.920169E-14	2.259376E-16
4.925995E+03	1.920981E-14	2.258742E-16
4.935967E+03	1.926027E-14	2.262681E-16
4.945939E+03	1.935093E-14	2.270928E-16
4.955910E+03	1.948094E-14	2.283373E-16
4.965882E+03	1.964975E-14	2.299933E-16
4.975854E+03	1.985732E-14	2.320583E-16
4.985825E+03	2.010360E-14	2.345293E-16
4.995797E+03	2.038870E-14	2.374050E-16
5.005769E+03	2.071033E-14	2.406558E-16
5.015740E+03	2.106396E-14	2.442262E-16
5.025712E+03	2.144274E-14	2.480340E-16
5.035684E+03	2.183672E-14	2.519622E-16
5.045655E+03	2.223311E-14	2.558620E-16
5.055627E+03	2.261706E-14	2.595629E-16
5.065599E+03	2.297363E-14	2.628952E-16
5.075570E+03	2.328902E-14	2.657051E-16
5.085542E+03	2.355118E-14	2.678607E-16
5.095513E+03	2.375008E-14	2.692555E-16
5.105485E+03	2.387726E-14	2.698027E-16
5.115457E+03	2.392731E-14	2.694516E-16
5.125428E+03	2.389514E-14	2.681566E-16
5.135400E+03	2.377842E-14	2.659042E-16
5.145372E+03	2.357620E-14	2.626970E-16
5.155343E+03	2.329123E-14	2.585791E-16
5.165315E+03	2.293056E-14	2.536419E-16
5.175287E+03	2.250450E-14	2.480115E-16
5.185258E+03	2.202663E-14	2.418483E-16
5.195230E+03	2.151315E-14	2.353389E-16
5.205202E+03	2.098232E-14	2.286896E-16
5.215173E+03	2.045154E-14	2.220940E-16
5.225145E+03	1.993886E-14	2.157495E-16
5.235117E+03	1.946057E-14	2.098320E-16
5.245088E+03	1.903003E-14	2.044830E-16
5.255060E+03	1.865643E-14	1.997974E-16
5.265032E+03	1.834626E-14	1.958401E-16
5.275003E+03	1.810192E-14	1.926321E-16
5.284975E+03	1.792176E-14	1.901512E-16
5.294946E+03	1.780077E-14	1.883405E-16
5.304918E+03	1.773153E-14	1.871189E-16
5.314890E+03	1.770307E-14	1.863693E-16
5.324861E+03	1.770276E-14	1.859588E-16
5.334833E+03	1.771704E-14	1.857462E-16
5.344805E+03	1.773267E-14	1.855953E-16
5.354776E+03	1.773656E-14	1.853721E-16
5.364748E+03	1.771914E-14	1.849801E-16
5.374720E+03	1.767491E-14	1.843649E-16
5.384691E+03	1.760189E-14	1.835060E-16
5.394663E+03	1.750029E-14	1.824042E-16
5.404635E+03	1.737323E-14	1.810896E-16
5.414606E+03	1.723035E-14	1.796594E-16
5.424578E+03	1.708543E-14	1.782533E-16
5.434550E+03	1.695414E-14	1.770311E-16
5.444521E+03	1.685017E-14	1.761325E-16
5.454493E+03	1.678410E-14	1.756657E-16
5.464465E+03	1.676254E-14	1.756985E-16
5.474436E+03	1.678756E-14	1.762518E-16
5.484408E+03	1.685829E-14	1.773160E-16
5.494379E+03	1.696941E-14	1.788357E-16
5.504351E+03	1.711375E-14	1.807354E-16
5.514323E+03	1.728347E-14	1.829321E-16
5.524294E+03	1.747287E-14	1.853650E-16
5.534266E+03	1.767701E-14	1.879812E-16
5.544238E+03	1.789176E-14	1.907356E-16
5.554209E+03	1.811212E-14	1.935737E-16
5.564181E+03	1.833323E-14	1.964414E-16
5.574153E+03	1.854967E-14	1.992787E-16
5.584124E+03	1.875594E-14	2.020235E-16
5.594096E+03	1.894555E-14	2.046029E-16
5.604068E+03	1.911201E-14	2.069427E-16
5.614039E+03	1.924843E-14	2.089642E-16
5.624011E+03	1.934786E-14	2.105869E-16
5.633983E+03	1.940460E-14	2.117431E-16
5.643954E+03	1.941427E-14	2.123797E-16
5.653926E+03	1.937454E-14	2.124654E-16
5.663898E+03	1.928472E-14	2.119869E-16
5.673869E+03	1.914575E-14	2.109492E-16
5.683841E+03	1.896095E-14	2.093840E-16
5.693812E+03	1.873737E-14	2.073651E-16
5.703784E+03	1.848727E-14	2.050248E-16
5.713756E+03	1.822473E-14	2.025175E-16
5.723727E+03	1.796489E-14	2.000106E-16
5.733699E+03	1.772152E-14	1.976579E-16
5.743671E+03	1.750621E-14	1.955899E-16
5.753642E+03	1.732717E-14	1.939003E-16
5.763614E+03	1.718761E-14	1.926267E-16
5.773586E+03	1.708688E-14	1.917642E-16
5.783557E+03	1.702274E-14	1.912895E-16
5.793529E+03	1.699203E-14	1.911685E-16
5.803501E+03	1.699013E-14	1.913506E-16
5.813472E+03	1.701289E-14	1.917901E-16
5.823444E+03	1.705624E-14	1.924418E-16
5.833416E+03	1.711651E-14	1.932649E-16
5.843387E+03	1.719106E-14	1.942301E-16
5.853359E+03	1.727782E-14	1.953146E-16
5.863331E+03	1.737615E-14	1.965114E-16
5.873302E+03	1.748476E-14	1.978064E-16
5.883274E+03	1.760197E-14	1.991813E-16
5.893246E+03	1.772554E-14	2.006110E-16
5.903217E+03	1.785254E-14	2.020632E-16
5.913189E+03	1.797941E-14	2.034982E-16
5.923160E+03	1.810059E-14	2.048541E-16
5.933132E+03	1.820838E-14	2.060446E-16
5.943104E+03	1.829177E-14	2.069465E-16
5.953075E+03	1.833687E-14	2.074043E-16
5.963047E+03	1.832769E-14	2.072390E-16
5.973019E+03	1.824787E-14	2.062681E-16
5.982990E+03	1.807987E-14	2.042961E-16
5.992962E+03	1.780801E-14	2.011490E-16
6.002934E+03	1.741690E-14	1.966564E-16
6.012905E+03	1.689673E-14	1.907116E-16
6.022877E+03	1.624756E-14	1.833185E-16
6.032849E+03	1.548137E-14	1.746156E-16
6.042820E+03	1.462227E-14	1.648774E-16
6.052792E+03	1.370759E-14	1.545264E-16
6.062764E+03	1.278746E-14	1.441284E-16
6.072735E+03	1.191184E-14	1.342463E-16
6.082707E+03	1.112339E-14	1.253599E-16
6.092679E+03	1.045452E-14	1.178337E-16
6.102650E+03	9.927596E-15	1.119198E-16
6.112622E+03	9.553943E-15	1.077461E-16
6.122593E+03	9.334713E-15	1.053275E-16
6.132565E+03	9.266061E-15	1.046237E-16
6.142537E+03	9.341553E-15	1.055667E-16
6.152508E+03	9.550828E-15	1.080456E-16
6.162480E+03	9.880359E-15	1.119151E-16
6.172452E+03	1.031588E-14	1.170228E-16
6.182423E+03	1.084160E-14	1.232000E-16
6.192395E+03	1.143881E-14	1.302454E-16
6.202367E+03	1.208518E-14	1.379162E-16
6.212338E+03	1.275536E-14	1.459346E-16
6.222310E+03	1.342164E-14	1.539935E-16
6.232282E+03	1.405629E-14	1.617826E-16
6.242253E+03	1.463642E-14	1.690434E-16
6.252225E+03	1.514402E-14	1.755696E-16
6.262197E+03	1.556655E-14	1.812138E-16
6.272168E+03	1.589771E-14	1.858966E-16
6.282140E+03	1.613720E-14	1.896026E-16
6.292112E+03	1.629012E-14	1.923775E-16
6.302083E+03	1.636621E-14	1.943203E-16
6.312055E+03	1.637807E-14	1.955653E-16
6.322026E+03	1.634020E-14	1.962712E-16
6.331998E+03	1.626728E-14	1.966017E-16
6.341970E+03	1.617290E-14	1.967111E-16
6.351941E+03	1.606982E-14	1.967470E-16
6.361913E+03	1.596798E-14	1.968263E-16
6.371885E+03	1.587517E-14	1.970424E-16
6.381856E+03	1.579752E-14	1.974709E-16
6.391828E+03	1.573664E-14	1.981328E-16
6.401800E+03	1.568347E-14	1.989148E-16
6.411771E+03	1.562942E-14	1.997063E-16
6.421743E+03	1.556828E-14	2.004244E-16
6.431715E+03	1.549628E-14	2.010150E-16
6.441686E+03	1.541191E-14	2.014527E-16
6.451658E+03	1.531595E-14	2.017411E-16
6.461630E+03	1.521097E-14	2.019083E-16
6.471601E+03	1.509947E-14	2.019823E-16
6.481573E+03	1.498508E-14	2.020072E-16
6.491545E+03	1.487074E-14	2.020201E-16
6.501516E+03	1.475833E-14	2.020440E-16
6.511488E+03	1.464885E-14	2.020914E-16
6.521459E+03	1.454209E-14	2.021582E-16
6.531431E+03	1.443714E-14	2.022304E-16
6.541403E+03	1.433240E-14	2.022842E-16
6.551374E+03	1.422624E-14	2.022948E-16
6.561346E+03	1.411689E-14	2.022347E-16
6.571318E+03	1.400346E-14	2.020885E-16
6.581289E+03	1.388585E-14	2.018521E-16
6.591261E+03	1.376431E-14	2.015262E-16
6.601233E+03	1.363939E-14	2.011170E-16
6.611204E+03	1.351253E-14	2.006431E-16
6.621176E+03	1.338462E-14	2.001167E-16
6.631148E+03	1.325710E-14	1.995577E-16
6.641119E+03	1.313025E-14	1.989699E-16
6.651091E+03	1.300451E-14	1.983596E-16
6.661063E+03	1.288018E-14	1.977308E-16
6.671034E+03	1.275711E-14	1.970811E-16
6.681006E+03	1.263513E-14	1.964077E-16
6.690978E+03	1.251457E-14	1.957156E-16
6.700949E+03	1.239622E-14	1.950173E-16
6.710921E+03	1.228055E-14	1.943204E-16
6.720893E+03	1.216860E-14	1.936417E-16
6.730864E+03	1.206066E-14	1.929871E-16
6.740836E+03	1.195767E-14	1.923723E-16
6.750807E+03	1.185936E-14	1.917939E-16
6.760779E+03	1.176597E-14	1.912570E-16
6.770751E+03	1.167666E-14	1.907491E-16
6.780722E+03	1.159099E-14	1.902638E-16
6.790694E+03	1.150824E-14	1.897897E-16
6.800666E+03	1.142765E-14	1.893152E-16
6.810637E+03	1.134922E-14	1.888406E-16
6.820609E+03	1.127282E-14	1.883641E-16
6.830581E+03	1.119891E-14	1.878941E-16
6.840552E+03	1.112747E-14	1.874305E-16
6.850524E+03	1.105932E-14	1.869881E-16
6.860496E+03	1.099447E-14	1.865673E-16
6.870467E+03	1.093272E-14	1.861656E-16
6.880439E+03	1.087340E-14	1.857722E-16
6.890411E+03	1.081632E-14	1.853844E-16
6.900382E+03	1.076014E-14	1.849794E-16
6.910354E+03	1.070469E-14	1.845547E-16
6.920326E+03	1.064889E-14	1.840918E-16
6.930297E+03	1.059226E-14	1.835825E-16
6.940269E+03	1.053481E-14	1.830270E-16
6.950240E+03	1.047667E-14	1.824276E-16
6.960212E+03	1.041892E-14	1.818035E-16
6.970184E+03	1.036308E-14	1.811816E-16
6.980155E+03	1.031069E-14	1.805889E-16
6.990127E+03	1.026303E-14	1.800490E-16
7.000099E+03	1.022101E-14	1.795783E-16
7.010070E+03	1.018578E-14	1.791974E-16
7.020042E+03	1.015705E-14	1.789022E-16
7.030014E+03	1.013539E-14	1.787032E-16
7.039985E+03	1.011972E-14	1.785818E-16
7.049957E+03	1.010943E-14	1.785277E-16
7.059929E+03	1.010299E-14	1.785137E-16
7.069900E+03	1.009874E-14	1.785110E-16
7.079872E+03	1.009505E-14	1.784906E-16
7.089844E+03	1.008960E-14	1.784118E-16
7.099815E+03	1.008080E-14	1.782462E-16
7.109787E+03	1.006693E-14	1.779639E-16
7.119759E+03	1.004693E-14	1.775460E-16
7.129730E+03	1.001978E-14	1.769750E-16
7.139702E+03	9.984536E-15	1.762346E-16
7.149673E+03	9.940974E-15	1.753217E-16
7.159645E+03	9.888655E-15	1.742294E-16
7.169617E+03	9.828468E-15	1.729743E-16
7.179588E+03	9.761119E-15	1.715698E-16
7.189560E+03	9.687719E-15	1.700368E-16
7.199532E+03	9.610226E-15	1.684107E-16
7.209503E+03	9.530612E-15	1.667271E-16
7.219475E+03	9.450621E-15	1.650176E-16
7.229447E+03	9.372060E-15	1.633145E-16
7.239418E+03	9.296430E-15	1.616447E-16
7.249390E+03	9.224757E-15	1.600264E-16
7.259362E+03	9.157347E-15	1.584653E-16
7.269333E+03	9.093648E-15	1.569522E-16
7.279305E+03	9.033560E-15	1.554856E-16
7.289277E+03	8.976164E-15	1.540500E-16
7.299248E+03	8.920418E-15	1.526280E-16
7.309220E+03	8.865680E-15	1.512091E-16
7.319192E+03	8.810854E-15	1.497754E-16
7.329163E+03	8.755277E-15	1.483164E-16
7.339135E+03	8.698229E-15	1.468210E-16
7.349106E+03	8.638713E-15	1.452735E-16
7.359078E+03	8.576040E-15	1.436637E-16
7.369050E+03	8.508755E-15	1.419690E-16
7.379021E+03	8.436311E-15	1.401820E-16
7.388993E+03	8.357594E-15	1.382865E-16
7.398965E+03	8.272470E-15	1.362825E-16
7.408936E+03	8.181079E-15	1.341749E-16
7.418908E+03	8.084299E-15	1.319805E-16
7.428880E+03	7.983716E-15	1.297274E-16
7.438851E+03	7.881144E-15	1.274470E-16
7.448823E+03	7.779435E-15	1.251869E-16
7.458795E+03	7.680757E-15	1.229826E-16
7.468766E+03	7.588012E-15	1.208810E-16
7.478738E+03	7.503464E-15	1.189175E-16
7.488710E+03	7.429588E-15	1.171303E-16
7.498681E+03	7.367571E-15	1.155363E-16
7.508653E+03	7.318197E-15	1.141461E-16
7.518625E+03	7.281829E-15	1.129630E-16
7.528596E+03	7.258020E-15	1.119780E-16
7.538568E+03	7.246186E-15	1.111800E-16
7.548540E+03	7.244859E-15	1.105446E-16
7.558511E+03	7.252899E-15	1.100532E-16
7.568483E+03	7.269078E-15	1.096860E-16
7.578454E+03	7.291826E-15	1.094187E-16
7.588426E+03	7.319928E-15	1.092329E-16
7.598398E+03	7.351899E-15	1.091067E-16
7.608369E+03	7.386832E-15	1.090274E-16
7.618341E+03	7.423282E-15	1.089746E-16
7.628313E+03	7.460609E-15	1.089404E-16
7.638284E+03	7.497671E-15	1.089097E-16
7.648256E+03	7.534224E-15	1.088812E-16
7.658228E+03	7.569490E-15	1.088456E-16
7.668199E+03	7.603442E-15	1.088049E-16
7.678171E+03	7.635540E-15	1.087539E-16
7.688143E+03	7.665404E-15	1.086897E-16
7.698114E+03	7.692613E-15	1.086091E-16
7.708086E+03	7.716679E-15	1.085080E-16
7.718058E+03	7.737065E-15	1.083818E-16
7.728029E+03	7.753029E-15	1.082231E-16
7.738001E+03	7.764360E-15	1.080318E-16
