#wls	flux	fluxerr
1.595464E+03	3.887005E-15	1.544314E-16
1.635351E+03	3.252981E-15	1.271066E-16
1.675237E+03	2.701535E-15	1.037753E-16
1.715124E+03	2.227900E-15	8.410224E-17
1.755011E+03	1.825776E-15	6.770508E-17
1.794897E+03	1.488097E-15	5.418808E-17
1.834784E+03	1.207392E-15	4.315796E-17
1.874670E+03	9.765340E-16	3.425207E-17
1.914557E+03	7.886024E-16	2.713305E-17
1.954444E+03	6.372547E-16	2.150096E-17
1.994330E+03	5.171087E-16	1.710430E-17
2.034217E+03	4.236363E-16	1.373356E-17
2.074103E+03	3.533150E-16	1.122335E-17
2.113990E+03	3.035083E-16	9.445478E-18
2.153877E+03	2.721653E-16	8.297039E-18
2.193763E+03	2.578185E-16	7.698578E-18
2.233650E+03	2.599422E-16	7.602855E-18
2.273536E+03	2.795429E-16	8.009054E-18
2.313423E+03	3.198349E-16	8.977516E-18
2.353310E+03	3.865407E-16	1.063229E-17
2.393196E+03	4.887122E-16	1.317746E-17
2.433083E+03	6.392213E-16	1.690297E-17
2.472969E+03	8.547525E-16	2.217668E-17
2.512856E+03	1.154548E-15	2.940604E-17
2.552743E+03	1.557327E-15	3.895699E-17
2.592629E+03	2.076714E-15	5.104574E-17
2.632516E+03	2.716405E-15	6.563470E-17
2.672402E+03	3.469036E-15	8.242587E-17
2.712289E+03	4.317775E-15	1.009186E-16
2.752176E+03	5.238626E-15	1.204775E-16
2.792062E+03	6.202269E-15	1.403848E-16
2.831949E+03	7.177304E-15	1.599182E-16
2.871835E+03	8.133360E-15	1.784208E-16
2.911722E+03	9.043396E-15	1.953465E-16
2.951609E+03	9.887013E-15	2.103239E-16
2.991495E+03	1.065107E-14	2.231576E-16
3.001467E+03	1.082877E-14	2.260234E-16
3.011438E+03	1.100111E-14	2.287542E-16
3.021410E+03	1.116829E-14	2.313559E-16
3.031382E+03	1.133043E-14	2.338324E-16
3.041353E+03	1.148758E-14	2.361858E-16
3.051325E+03	1.164050E-14	2.384335E-16
3.061297E+03	1.178898E-14	2.405722E-16
3.071268E+03	1.193361E-14	2.426151E-16
3.081240E+03	1.207425E-14	2.445604E-16
3.091212E+03	1.221130E-14	2.464176E-16
3.101183E+03	1.234494E-14	2.481914E-16
3.111155E+03	1.247564E-14	2.498921E-16
3.121127E+03	1.260367E-14	2.515258E-16
3.131098E+03	1.272929E-14	2.530990E-16
3.141070E+03	1.285306E-14	2.546235E-16
3.151042E+03	1.297508E-14	2.561014E-16
3.161013E+03	1.309618E-14	2.575501E-16
3.170985E+03	1.321650E-14	2.589723E-16
3.180957E+03	1.333668E-14	2.603808E-16
3.190928E+03	1.345714E-14	2.617839E-16
3.200900E+03	1.357831E-14	2.631899E-16
3.210871E+03	1.370085E-14	2.646116E-16
3.220843E+03	1.382523E-14	2.660578E-16
3.230815E+03	1.395166E-14	2.675322E-16
3.240786E+03	1.408130E-14	2.690568E-16
3.250758E+03	1.421392E-14	2.706268E-16
3.260730E+03	1.435067E-14	2.722634E-16
3.270701E+03	1.449155E-14	2.739661E-16
3.280673E+03	1.463725E-14	2.757471E-16
3.290645E+03	1.478842E-14	2.776181E-16
3.300616E+03	1.494507E-14	2.795782E-16
3.310588E+03	1.510805E-14	2.816424E-16
3.320560E+03	1.527776E-14	2.838176E-16
3.330531E+03	1.545436E-14	2.861054E-16
3.340503E+03	1.563822E-14	2.885117E-16
3.350475E+03	1.582965E-14	2.910412E-16
3.360446E+03	1.602915E-14	2.937021E-16
3.370418E+03	1.623652E-14	2.964895E-16
3.380390E+03	1.645237E-14	2.994138E-16
3.390361E+03	1.667638E-14	3.024678E-16
3.400333E+03	1.690857E-14	3.056510E-16
3.410305E+03	1.714908E-14	3.089650E-16
3.420276E+03	1.739706E-14	3.123934E-16
3.430248E+03	1.765259E-14	3.159374E-16
3.440219E+03	1.791496E-14	3.195834E-16
3.450191E+03	1.818282E-14	3.233068E-16
3.460163E+03	1.845568E-14	3.270989E-16
3.470134E+03	1.873175E-14	3.309278E-16
3.480106E+03	1.900959E-14	3.347687E-16
3.490078E+03	1.928731E-14	3.385888E-16
3.500049E+03	1.956213E-14	3.423402E-16
3.510021E+03	1.983191E-14	3.459870E-16
3.519993E+03	2.009365E-14	3.494784E-16
3.529964E+03	2.034424E-14	3.527613E-16
3.539936E+03	2.058072E-14	3.557860E-16
3.549908E+03	2.079973E-14	3.584966E-16
3.559879E+03	2.099831E-14	3.608441E-16
3.569851E+03	2.117352E-14	3.627813E-16
3.579823E+03	2.132332E-14	3.642759E-16
3.589794E+03	2.144597E-14	3.653015E-16
3.599766E+03	2.154017E-14	3.658399E-16
3.609738E+03	2.160582E-14	3.658926E-16
3.619709E+03	2.164364E-14	3.654753E-16
3.629681E+03	2.165480E-14	3.646114E-16
3.639652E+03	2.164236E-14	3.633551E-16
3.649624E+03	2.160921E-14	3.617578E-16
3.659596E+03	2.155982E-14	3.598963E-16
3.669567E+03	2.149916E-14	3.578550E-16
3.679539E+03	2.143273E-14	3.557263E-16
3.689511E+03	2.136667E-14	3.536121E-16
3.699482E+03	2.130760E-14	3.516208E-16
3.709454E+03	2.126152E-14	3.498497E-16
3.719426E+03	2.123554E-14	3.484133E-16
3.729397E+03	2.123573E-14	3.474074E-16
3.739369E+03	2.126843E-14	3.469312E-16
3.749341E+03	2.133956E-14	3.470763E-16
3.759312E+03	2.145407E-14	3.479167E-16
3.769284E+03	2.161717E-14	3.495304E-16
3.779256E+03	2.183270E-14	3.519719E-16
3.789227E+03	2.210408E-14	3.552882E-16
3.799199E+03	2.243373E-14	3.595100E-16
3.809171E+03	2.282332E-14	3.646551E-16
3.819142E+03	2.327338E-14	3.707230E-16
3.829114E+03	2.378360E-14	3.776998E-16
3.839085E+03	2.435246E-14	3.855525E-16
3.849057E+03	2.497776E-14	3.942373E-16
3.859029E+03	2.565594E-14	4.036897E-16
3.869000E+03	2.638245E-14	4.138308E-16
3.878972E+03	2.715211E-14	4.245717E-16
3.888944E+03	2.795880E-14	4.358109E-16
3.898915E+03	2.879626E-14	4.474453E-16
3.908887E+03	2.965740E-14	4.593607E-16
3.918859E+03	3.053510E-14	4.714436E-16
3.928830E+03	3.142198E-14	4.835781E-16
3.938802E+03	3.231073E-14	4.956510E-16
3.948774E+03	3.319503E-14	5.075655E-16
3.958745E+03	3.406761E-14	5.192122E-16
3.968717E+03	3.492264E-14	5.305047E-16
3.978689E+03	3.575417E-14	5.413565E-16
3.988660E+03	3.655696E-14	5.516927E-16
3.998632E+03	3.732620E-14	5.614464E-16
4.008604E+03	3.805687E-14	5.705484E-16
4.018575E+03	3.874513E-14	5.789486E-16
4.028547E+03	3.938692E-14	5.865941E-16
4.038518E+03	3.997871E-14	5.934412E-16
4.048490E+03	4.051702E-14	5.994473E-16
4.058462E+03	4.099865E-14	6.045752E-16
4.068433E+03	4.142142E-14	6.088030E-16
4.078405E+03	4.178263E-14	6.121019E-16
4.088377E+03	4.208075E-14	6.144605E-16
4.098348E+03	4.231487E-14	6.158768E-16
4.108320E+03	4.248410E-14	6.163494E-16
4.118292E+03	4.258930E-14	6.159020E-16
4.128263E+03	4.263116E-14	6.145559E-16
4.138235E+03	4.261191E-14	6.123538E-16
4.148207E+03	4.253457E-14	6.093498E-16
4.158178E+03	4.240238E-14	6.056000E-16
4.168150E+03	4.222036E-14	6.011850E-16
4.178122E+03	4.199292E-14	5.961760E-16
4.188093E+03	4.172671E-14	5.906747E-16
4.198065E+03	4.142722E-14	5.847650E-16
4.208037E+03	4.110126E-14	5.785487E-16
4.218008E+03	4.075549E-14	5.721236E-16
4.227980E+03	4.039687E-14	5.655910E-16
4.237952E+03	4.003127E-14	5.590356E-16
4.247923E+03	3.966543E-14	5.525533E-16
4.257895E+03	3.930472E-14	5.462196E-16
4.267866E+03	3.895390E-14	5.401013E-16
4.277838E+03	3.861763E-14	5.342628E-16
4.287810E+03	3.829955E-14	5.287540E-16
4.297781E+03	3.800195E-14	5.236058E-16
4.307753E+03	3.772699E-14	5.188474E-16
4.317725E+03	3.747620E-14	5.144987E-16
4.327696E+03	3.725056E-14	5.105727E-16
4.337668E+03	3.705070E-14	5.070770E-16
4.347640E+03	3.687741E-14	5.040189E-16
4.357611E+03	3.673130E-14	5.014025E-16
4.367583E+03	3.661321E-14	4.992349E-16
4.377555E+03	3.652488E-14	4.975361E-16
4.387526E+03	3.646699E-14	4.963113E-16
4.397498E+03	3.644003E-14	4.955639E-16
4.407470E+03	3.644420E-14	4.952933E-16
4.417441E+03	3.647869E-14	4.954854E-16
4.427413E+03	3.654158E-14	4.961115E-16
4.437385E+03	3.663069E-14	4.971394E-16
4.447356E+03	3.674235E-14	4.985163E-16
4.457328E+03	3.687218E-14	5.001799E-16
4.467299E+03	3.701482E-14	5.020549E-16
4.477271E+03	3.716328E-14	5.040436E-16
4.487243E+03	3.731070E-14	5.060504E-16
4.497214E+03	3.744912E-14	5.079650E-16
4.507186E+03	3.757050E-14	5.096752E-16
4.517158E+03	3.766728E-14	5.110759E-16
4.527129E+03	3.773173E-14	5.120593E-16
4.537101E+03	3.775747E-14	5.125359E-16
4.547073E+03	3.773904E-14	5.124281E-16
4.557044E+03	3.767176E-14	5.116693E-16
4.567016E+03	3.755189E-14	5.102053E-16
4.576988E+03	3.737762E-14	5.080081E-16
4.586959E+03	3.714818E-14	5.050641E-16
4.596931E+03	3.686416E-14	5.013778E-16
4.606903E+03	3.652769E-14	4.969753E-16
4.616874E+03	3.614146E-14	4.918899E-16
4.626846E+03	3.570975E-14	4.861776E-16
4.636818E+03	3.523738E-14	4.799014E-16
4.646789E+03	3.472979E-14	4.731330E-16
4.656761E+03	3.419283E-14	4.659507E-16
4.666732E+03	3.363262E-14	4.584359E-16
4.676704E+03	3.305529E-14	4.506714E-16
4.686676E+03	3.246748E-14	4.427465E-16
4.696647E+03	3.187495E-14	4.347392E-16
4.706619E+03	3.128314E-14	4.267233E-16
4.716591E+03	3.069760E-14	4.187741E-16
4.726562E+03	3.012258E-14	4.109498E-16
4.736534E+03	2.956208E-14	4.033049E-16
4.746506E+03	2.901991E-14	3.958915E-16
4.756477E+03	2.849909E-14	3.887511E-16
4.766449E+03	2.800196E-14	3.819160E-16
4.776421E+03	2.753093E-14	3.754193E-16
4.786392E+03	2.708780E-14	3.692859E-16
4.796364E+03	2.667376E-14	3.635321E-16
4.806336E+03	2.629020E-14	3.581774E-16
4.816307E+03	2.593802E-14	3.532339E-16
4.826279E+03	2.561785E-14	3.487106E-16
4.836251E+03	2.533014E-14	3.446132E-16
4.846222E+03	2.507493E-14	3.409427E-16
4.856194E+03	2.485279E-14	3.377064E-16
4.866165E+03	2.466324E-14	3.348977E-16
4.876137E+03	2.450615E-14	3.325144E-16
4.886109E+03	2.438150E-14	3.305559E-16
4.896080E+03	2.428898E-14	3.290176E-16
4.906052E+03	2.422820E-14	3.278936E-16
4.916024E+03	2.419827E-14	3.271714E-16
4.925995E+03	2.419912E-14	3.268493E-16
4.935967E+03	2.422993E-14	3.269159E-16
4.945939E+03	2.429004E-14	3.273612E-16
4.955910E+03	2.437864E-14	3.281739E-16
4.965882E+03	2.449474E-14	3.293401E-16
4.975854E+03	2.463693E-14	3.308401E-16
4.985825E+03	2.480371E-14	3.326534E-16
4.995797E+03	2.499349E-14	3.347582E-16
5.005769E+03	2.520380E-14	3.371214E-16
5.015740E+03	2.543170E-14	3.397035E-16
5.025712E+03	2.567448E-14	3.424685E-16
5.035684E+03	2.592772E-14	3.453581E-16
5.045655E+03	2.618771E-14	3.483237E-16
5.055627E+03	2.644983E-14	3.513050E-16
5.065599E+03	2.670828E-14	3.542269E-16
5.075570E+03	2.695857E-14	3.570318E-16
5.085542E+03	2.719478E-14	3.596441E-16
5.095513E+03	2.741159E-14	3.619963E-16
5.105485E+03	2.760416E-14	3.640281E-16
5.115457E+03	2.776732E-14	3.656751E-16
5.125428E+03	2.789699E-14	3.668878E-16
5.135400E+03	2.799019E-14	3.676316E-16
5.145372E+03	2.804431E-14	3.678767E-16
5.155343E+03	2.805802E-14	3.676105E-16
5.165315E+03	2.803084E-14	3.668312E-16
5.175287E+03	2.796388E-14	3.655580E-16
5.185258E+03	2.785847E-14	3.638126E-16
5.195230E+03	2.771801E-14	3.616435E-16
5.205202E+03	2.754589E-14	3.590984E-16
5.215173E+03	2.734612E-14	3.562330E-16
5.225145E+03	2.712349E-14	3.531126E-16
5.235117E+03	2.688326E-14	3.498086E-16
5.245088E+03	2.662998E-14	3.463819E-16
5.255060E+03	2.636884E-14	3.429022E-16
5.265032E+03	2.610468E-14	3.394341E-16
5.275003E+03	2.584085E-14	3.360228E-16
5.284975E+03	2.558166E-14	3.327256E-16
5.294946E+03	2.532922E-14	3.295712E-16
5.304918E+03	2.508643E-14	3.265989E-16
5.314890E+03	2.485403E-14	3.238198E-16
5.324861E+03	2.463333E-14	3.212520E-16
5.334833E+03	2.442456E-14	3.189004E-16
5.344805E+03	2.422726E-14	3.167606E-16
5.354776E+03	2.404140E-14	3.148335E-16
5.364748E+03	2.386552E-14	3.131019E-16
5.374720E+03	2.369964E-14	3.115671E-16
5.384691E+03	2.354295E-14	3.102194E-16
5.394663E+03	2.339517E-14	3.090555E-16
5.404635E+03	2.325639E-14	3.080767E-16
5.414606E+03	2.312714E-14	3.072886E-16
5.424578E+03	2.300826E-14	3.067005E-16
5.434550E+03	2.290129E-14	3.063316E-16
5.444521E+03	2.280803E-14	3.062050E-16
5.454493E+03	2.273027E-14	3.063443E-16
5.464465E+03	2.266931E-14	3.067672E-16
5.474436E+03	2.262601E-14	3.074857E-16
5.484408E+03	2.260108E-14	3.085103E-16
5.494379E+03	2.259408E-14	3.098365E-16
5.504351E+03	2.260381E-14	3.114489E-16
5.514323E+03	2.262833E-14	3.133225E-16
5.524294E+03	2.266550E-14	3.154286E-16
5.534266E+03	2.271188E-14	3.177203E-16
5.544238E+03	2.276430E-14	3.201536E-16
5.554209E+03	2.281860E-14	3.226693E-16
5.564181E+03	2.287103E-14	3.252132E-16
5.574153E+03	2.291812E-14	3.277337E-16
5.584124E+03	2.295600E-14	3.301724E-16
5.594096E+03	2.298192E-14	3.324856E-16
5.604068E+03	2.299346E-14	3.346336E-16
5.614039E+03	2.298863E-14	3.365819E-16
5.624011E+03	2.296638E-14	3.383092E-16
5.633983E+03	2.292665E-14	3.398081E-16
5.643954E+03	2.286982E-14	3.410779E-16
5.653926E+03	2.279670E-14	3.421241E-16
5.663898E+03	2.270909E-14	3.429677E-16
5.673869E+03	2.260926E-14	3.436372E-16
5.683841E+03	2.249905E-14	3.441558E-16
5.693812E+03	2.238121E-14	3.445609E-16
5.703784E+03	2.225852E-14	3.448919E-16
5.713756E+03	2.213347E-14	3.451842E-16
5.723727E+03	2.200835E-14	3.454719E-16
5.733699E+03	2.188518E-14	3.457854E-16
5.743671E+03	2.176564E-14	3.461506E-16
5.753642E+03	2.165119E-14	3.465908E-16
5.763614E+03	2.154240E-14	3.471155E-16
5.773586E+03	2.144004E-14	3.477379E-16
5.783557E+03	2.134368E-14	3.484520E-16
5.793529E+03	2.125264E-14	3.492475E-16
5.803501E+03	2.116624E-14	3.501139E-16
5.813472E+03	2.108241E-14	3.510176E-16
5.823444E+03	2.099940E-14	3.519292E-16
5.833416E+03	2.091514E-14	3.528135E-16
5.843387E+03	2.082683E-14	3.536214E-16
5.853359E+03	2.073190E-14	3.543075E-16
5.863331E+03	2.062724E-14	3.548153E-16
5.873302E+03	2.051043E-14	3.550989E-16
5.883274E+03	2.037839E-14	3.551004E-16
5.893246E+03	2.022848E-14	3.547675E-16
5.903217E+03	2.005856E-14	3.540560E-16
5.913189E+03	1.986641E-14	3.529193E-16
5.923160E+03	1.965073E-14	3.513260E-16
5.933132E+03	1.941035E-14	3.492464E-16
5.943104E+03	1.914517E-14	3.466699E-16
5.953075E+03	1.885556E-14	3.435944E-16
5.963047E+03	1.854263E-14	3.400313E-16
5.973019E+03	1.820804E-14	3.360026E-16
5.982990E+03	1.785457E-14	3.315521E-16
5.992962E+03	1.748549E-14	3.267341E-16
6.002934E+03	1.710447E-14	3.216114E-16
6.012905E+03	1.671605E-14	3.162657E-16
6.022877E+03	1.632479E-14	3.107803E-16
6.032849E+03	1.593546E-14	3.052457E-16
6.042820E+03	1.555349E-14	2.997667E-16
6.052792E+03	1.518352E-14	2.944354E-16
6.062764E+03	1.483049E-14	2.893524E-16
6.072735E+03	1.449854E-14	2.846045E-16
6.082707E+03	1.419190E-14	2.802826E-16
6.092679E+03	1.391396E-14	2.764630E-16
6.102650E+03	1.366770E-14	2.732153E-16
6.112622E+03	1.345554E-14	2.705994E-16
6.122593E+03	1.327910E-14	2.686604E-16
6.132565E+03	1.313957E-14	2.674353E-16
6.142537E+03	1.303751E-14	2.669492E-16
6.152508E+03	1.297289E-14	2.672150E-16
6.162480E+03	1.294512E-14	2.682345E-16
6.172452E+03	1.295286E-14	2.699934E-16
6.182423E+03	1.299458E-14	2.724729E-16
6.192395E+03	1.306806E-14	2.756392E-16
6.202367E+03	1.317062E-14	2.794476E-16
6.212338E+03	1.329930E-14	2.838459E-16
6.222310E+03	1.345078E-14	2.887725E-16
6.232282E+03	1.362140E-14	2.941570E-16
6.242253E+03	1.380728E-14	2.999218E-16
6.252225E+03	1.400439E-14	3.059847E-16
6.262197E+03	1.420883E-14	3.122641E-16
6.272168E+03	1.441618E-14	3.186651E-16
6.282140E+03	1.462318E-14	3.251156E-16
6.292112E+03	1.482585E-14	3.315265E-16
6.302083E+03	1.502118E-14	3.378281E-16
6.312055E+03	1.520639E-14	3.439544E-16
6.322026E+03	1.537920E-14	3.498495E-16
6.331998E+03	1.553767E-14	3.554637E-16
6.341970E+03	1.568059E-14	3.607631E-16
6.351941E+03	1.580726E-14	3.657253E-16
6.361913E+03	1.591722E-14	3.703329E-16
6.371885E+03	1.601039E-14	3.745773E-16
6.381856E+03	1.608717E-14	3.784604E-16
6.391828E+03	1.614733E-14	3.819706E-16
6.401800E+03	1.619115E-14	3.851076E-16
6.411771E+03	1.621868E-14	3.878656E-16
6.421743E+03	1.622978E-14	3.902345E-16
6.431715E+03	1.622508E-14	3.922231E-16
6.441686E+03	1.620454E-14	3.938237E-16
6.451658E+03	1.616897E-14	3.950494E-16
6.461630E+03	1.611892E-14	3.959079E-16
6.471601E+03	1.605479E-14	3.964033E-16
6.481573E+03	1.597727E-14	3.965465E-16
6.491545E+03	1.588709E-14	3.963505E-16
6.501516E+03	1.578498E-14	3.958284E-16
6.511488E+03	1.567172E-14	3.949951E-16
6.521459E+03	1.554832E-14	3.938720E-16
6.531431E+03	1.541537E-14	3.924695E-16
6.541403E+03	1.527340E-14	3.907977E-16
6.551374E+03	1.512373E-14	3.888870E-16
6.561346E+03	1.496668E-14	3.867423E-16
6.571318E+03	1.480327E-14	3.843879E-16
6.581289E+03	1.463432E-14	3.818421E-16
6.591261E+03	1.446062E-14	3.791236E-16
6.601233E+03	1.428291E-14	3.762502E-16
6.611204E+03	1.410172E-14	3.732346E-16
6.621176E+03	1.391801E-14	3.701010E-16
6.631148E+03	1.373226E-14	3.668610E-16
6.641119E+03	1.354538E-14	3.635387E-16
6.651091E+03	1.335776E-14	3.601442E-16
6.661063E+03	1.317004E-14	3.566946E-16
6.671034E+03	1.298299E-14	3.532112E-16
6.681006E+03	1.279716E-14	3.497092E-16
6.690978E+03	1.261259E-14	3.461901E-16
6.700949E+03	1.243017E-14	3.426794E-16
6.710921E+03	1.224989E-14	3.391774E-16
6.720893E+03	1.207252E-14	3.357070E-16
6.730864E+03	1.189818E-14	3.322722E-16
6.740836E+03	1.172695E-14	3.288767E-16
6.750807E+03	1.155947E-14	3.255404E-16
6.760779E+03	1.139555E-14	3.222584E-16
6.770751E+03	1.123555E-14	3.190433E-16
6.780722E+03	1.107961E-14	3.159001E-16
6.790694E+03	1.092784E-14	3.128336E-16
6.800666E+03	1.078010E-14	3.098418E-16
6.810637E+03	1.063664E-14	3.069335E-16
6.820609E+03	1.049730E-14	3.041051E-16
6.830581E+03	1.036227E-14	3.013645E-16
6.840552E+03	1.023136E-14	2.987071E-16
6.850524E+03	1.010454E-14	2.961343E-16
6.860496E+03	9.981950E-15	2.936515E-16
6.870467E+03	9.863172E-15	2.912479E-16
6.880439E+03	9.748526E-15	2.889345E-16
6.890411E+03	9.637755E-15	2.867052E-16
6.900382E+03	9.530779E-15	2.845591E-16
6.910354E+03	9.427510E-15	2.824950E-16
6.920326E+03	9.327850E-15	2.805112E-16
6.930297E+03	9.231526E-15	2.786010E-16
6.940269E+03	9.138598E-15	2.767674E-16
6.950240E+03	9.048943E-15	2.750079E-16
6.960212E+03	8.962429E-15	2.733197E-16
6.970184E+03	8.878565E-15	2.716889E-16
6.980155E+03	8.797714E-15	2.701277E-16
6.990127E+03	8.719198E-15	2.686162E-16
7.000099E+03	8.643180E-15	2.671605E-16
7.010070E+03	8.569300E-15	2.657502E-16
7.020042E+03	8.497357E-15	2.643800E-16
7.030014E+03	8.427135E-15	2.630438E-16
7.039985E+03	8.358408E-15	2.617352E-16
7.049957E+03	8.290775E-15	2.604423E-16
7.059929E+03	8.224152E-15	2.591628E-16
7.069900E+03	8.158282E-15	2.578892E-16
7.079872E+03	8.092739E-15	2.566082E-16
7.089844E+03	8.027421E-15	2.553169E-16
7.099815E+03	7.961897E-15	2.540017E-16
7.109787E+03	7.895902E-15	2.526543E-16
7.119759E+03	7.829178E-15	2.512664E-16
7.129730E+03	7.761637E-15	2.498352E-16
7.139702E+03	7.692727E-15	2.483426E-16
7.149673E+03	7.622232E-15	2.467817E-16
7.159645E+03	7.550280E-15	2.451561E-16
7.169617E+03	7.476389E-15	2.434500E-16
7.179588E+03	7.400427E-15	2.416587E-16
7.189560E+03	7.322452E-15	2.397837E-16
7.199532E+03	7.242248E-15	2.378175E-16
7.209503E+03	7.159796E-15	2.357592E-16
7.219475E+03	7.075117E-15	2.336089E-16
7.229447E+03	6.988280E-15	2.313685E-16
7.239418E+03	6.899542E-15	2.290461E-16
7.249390E+03	6.808759E-15	2.266368E-16
7.259362E+03	6.716421E-15	2.241564E-16
7.269333E+03	6.622617E-15	2.216077E-16
7.279305E+03	6.527615E-15	2.189995E-16
7.289277E+03	6.431866E-15	2.163469E-16
7.299248E+03	6.335555E-15	2.136561E-16
7.309220E+03	6.239179E-15	2.109439E-16
7.319192E+03	6.143109E-15	2.082231E-16
7.329163E+03	6.047861E-15	2.055115E-16
7.339135E+03	5.953824E-15	2.028227E-16
7.349106E+03	5.861520E-15	2.001751E-16
7.359078E+03	5.771195E-15	1.975776E-16
7.369050E+03	5.683621E-15	1.950575E-16
7.379021E+03	5.599151E-15	1.926277E-16
7.388993E+03	5.517999E-15	1.902965E-16
7.398965E+03	5.440872E-15	1.880894E-16
7.408936E+03	5.367941E-15	1.860134E-16
7.418908E+03	5.299610E-15	1.840838E-16
7.428880E+03	5.236008E-15	1.823062E-16
7.438851E+03	5.177489E-15	1.806944E-16
7.448823E+03	5.123890E-15	1.792440E-16
7.458795E+03	5.075636E-15	1.779712E-16
7.468766E+03	5.032513E-15	1.768700E-16
7.478738E+03	4.994763E-15	1.759502E-16
7.488710E+03	4.962360E-15	1.752123E-16
7.498681E+03	4.935245E-15	1.746556E-16
7.508653E+03	4.913565E-15	1.742867E-16
7.518625E+03	4.896962E-15	1.740943E-16
7.528596E+03	4.885642E-15	1.740870E-16
7.538568E+03	4.879422E-15	1.742597E-16
7.548540E+03	4.878212E-15	1.746105E-16
7.558511E+03	4.881773E-15	1.751322E-16
7.568483E+03	4.890080E-15	1.758249E-16
7.578454E+03	4.902844E-15	1.766796E-16
7.588426E+03	4.919873E-15	1.776905E-16
7.598398E+03	4.941074E-15	1.788554E-16
7.608369E+03	4.966094E-15	1.801624E-16
7.618341E+03	4.994801E-15	1.816080E-16
7.628313E+03	5.026673E-15	1.831740E-16
7.638284E+03	5.061668E-15	1.848598E-16
7.648256E+03	5.099349E-15	1.866502E-16
7.658228E+03	5.139514E-15	1.885386E-16
7.668199E+03	5.181679E-15	1.905080E-16
7.678171E+03	5.225471E-15	1.925451E-16
7.688143E+03	5.270492E-15	1.946359E-16
7.698114E+03	5.316599E-15	1.967754E-16
7.708086E+03	5.362938E-15	1.989324E-16
7.718058E+03	5.409467E-15	2.011055E-16
7.728029E+03	5.455426E-15	2.032666E-16
7.738001E+03	5.500459E-15	2.054024E-16
