#wls	flux	fluxerr
1.595464E+03	2.532990E-15	9.725341E-17
1.635351E+03	2.123442E-15	8.039500E-17
1.675237E+03	1.770344E-15	6.607632E-17
1.715124E+03	1.468975E-15	5.403645E-17
1.755011E+03	1.213859E-15	4.399603E-17
1.794897E+03	9.995356E-16	3.568694E-17
1.834784E+03	8.208386E-16	2.886245E-17
1.874670E+03	6.727639E-16	2.329205E-17
1.914557E+03	5.509613E-16	1.877796E-17
1.954444E+03	4.515056E-16	1.514590E-17
1.994330E+03	3.712447E-16	1.225545E-17
2.034217E+03	3.075407E-16	9.989715E-18
2.074103E+03	2.584294E-16	8.259091E-18
2.113990E+03	2.224734E-16	6.994905E-18
2.153877E+03	1.987630E-16	6.148139E-18
2.193763E+03	1.863315E-16	5.670337E-18
2.233650E+03	1.846358E-16	5.528202E-18
2.273536E+03	1.939243E-16	5.713465E-18
2.313423E+03	2.153728E-16	6.245050E-18
2.353310E+03	2.513625E-16	7.175109E-18
2.393196E+03	3.059030E-16	8.598549E-18
2.433083E+03	3.848131E-16	1.065491E-17
2.472969E+03	4.957121E-16	1.352488E-17
2.512856E+03	6.476673E-16	1.741788E-17
2.552743E+03	8.501081E-16	2.254138E-17
2.592629E+03	1.110766E-15	2.904713E-17
2.632516E+03	1.433302E-15	3.697352E-17
2.672402E+03	1.816996E-15	4.624503E-17
2.712289E+03	2.256879E-15	5.668261E-17
2.752176E+03	2.742379E-15	6.797668E-17
2.792062E+03	3.257949E-15	7.971068E-17
2.831949E+03	3.784810E-15	9.141016E-17
2.871835E+03	4.302662E-15	1.025876E-16
2.911722E+03	4.793313E-15	1.128293E-16
2.951609E+03	5.242749E-15	1.218398E-16
2.991495E+03	5.642616E-15	1.294690E-16
3.001467E+03	5.734223E-15	1.311521E-16
3.011438E+03	5.822427E-15	1.327457E-16
3.021410E+03	5.907333E-15	1.342531E-16
3.031382E+03	5.988960E-15	1.356754E-16
3.041353E+03	6.067279E-15	1.370129E-16
3.051325E+03	6.142821E-15	1.382781E-16
3.061297E+03	6.215248E-15	1.394642E-16
3.071268E+03	6.284850E-15	1.405784E-16
3.081240E+03	6.351617E-15	1.416212E-16
3.091212E+03	6.415701E-15	1.425966E-16
3.101183E+03	6.477130E-15	1.435058E-16
3.111155E+03	6.536078E-15	1.443534E-16
3.121127E+03	6.592577E-15	1.451406E-16
3.131098E+03	6.646679E-15	1.458691E-16
3.141070E+03	6.698585E-15	1.465440E-16
3.151042E+03	6.748500E-15	1.471702E-16
3.161013E+03	6.796491E-15	1.477496E-16
3.170985E+03	6.842629E-15	1.482843E-16
3.180957E+03	6.887132E-15	1.487794E-16
3.190928E+03	6.930216E-15	1.492397E-16
3.200900E+03	6.971964E-15	1.496673E-16
3.210871E+03	7.012459E-15	1.500643E-16
3.220843E+03	7.051801E-15	1.504330E-16
3.230815E+03	7.090345E-15	1.507811E-16
3.240786E+03	7.128181E-15	1.511107E-16
3.250758E+03	7.165406E-15	1.514240E-16
3.260730E+03	7.202129E-15	1.517233E-16
3.270701E+03	7.238571E-15	1.520134E-16
3.280673E+03	7.274720E-15	1.522940E-16
3.290645E+03	7.311067E-15	1.525755E-16
3.300616E+03	7.347486E-15	1.528552E-16
3.310588E+03	7.384098E-15	1.531355E-16
3.320560E+03	7.421297E-15	1.534245E-16
3.330531E+03	7.459102E-15	1.537226E-16
3.340503E+03	7.497684E-15	1.540331E-16
3.350475E+03	7.537218E-15	1.543595E-16
3.360446E+03	7.577903E-15	1.547056E-16
3.370418E+03	7.619941E-15	1.550753E-16
3.380390E+03	7.663468E-15	1.554711E-16
3.390361E+03	7.708942E-15	1.559021E-16
3.400333E+03	7.756304E-15	1.563668E-16
3.410305E+03	7.805835E-15	1.568703E-16
3.420276E+03	7.857934E-15	1.574203E-16
3.430248E+03	7.912672E-15	1.580179E-16
3.440219E+03	7.970113E-15	1.586637E-16
3.450191E+03	8.030605E-15	1.593644E-16
3.460163E+03	8.094202E-15	1.601203E-16
3.470134E+03	8.161033E-15	1.609335E-16
3.480106E+03	8.231567E-15	1.618128E-16
3.490078E+03	8.306253E-15	1.627662E-16
3.500049E+03	8.385344E-15	1.637981E-16
3.510021E+03	8.469290E-15	1.649164E-16
3.519993E+03	8.558158E-15	1.661217E-16
3.529964E+03	8.652061E-15	1.674152E-16
3.539936E+03	8.750731E-15	1.687906E-16
3.549908E+03	8.854135E-15	1.702463E-16
3.559879E+03	8.961986E-15	1.717759E-16
3.569851E+03	9.073887E-15	1.733706E-16
3.579823E+03	9.189675E-15	1.750266E-16
3.589794E+03	9.308988E-15	1.767361E-16
3.599766E+03	9.431465E-15	1.784915E-16
3.609738E+03	9.557015E-15	1.802903E-16
3.619709E+03	9.685582E-15	1.821307E-16
3.629681E+03	9.817318E-15	1.840150E-16
3.639652E+03	9.952181E-15	1.859415E-16
3.649624E+03	1.009049E-14	1.879156E-16
3.659596E+03	1.023259E-14	1.899426E-16
3.669567E+03	1.037926E-14	1.920362E-16
3.679539E+03	1.053098E-14	1.942044E-16
3.689511E+03	1.068901E-14	1.964689E-16
3.699482E+03	1.085433E-14	1.988468E-16
3.709454E+03	1.102845E-14	2.013637E-16
3.719426E+03	1.121304E-14	2.040485E-16
3.729397E+03	1.140989E-14	2.069314E-16
3.739369E+03	1.162091E-14	2.100446E-16
3.749341E+03	1.184831E-14	2.134249E-16
3.759312E+03	1.209397E-14	2.171030E-16
3.769284E+03	1.236014E-14	2.211153E-16
3.779256E+03	1.264829E-14	2.254845E-16
3.789227E+03	1.296015E-14	2.302366E-16
3.799199E+03	1.329654E-14	2.353814E-16
3.809171E+03	1.365801E-14	2.409241E-16
3.819142E+03	1.404433E-14	2.468555E-16
3.829114E+03	1.445422E-14	2.531484E-16
3.839085E+03	1.488604E-14	2.597692E-16
3.849057E+03	1.533695E-14	2.666644E-16
3.859029E+03	1.580335E-14	2.737676E-16
3.869000E+03	1.628120E-14	2.810060E-16
3.878972E+03	1.676563E-14	2.882933E-16
3.888944E+03	1.725199E-14	2.955487E-16
3.898915E+03	1.773509E-14	3.026829E-16
3.908887E+03	1.821034E-14	3.096183E-16
3.918859E+03	1.867331E-14	3.162814E-16
3.928830E+03	1.912013E-14	3.226093E-16
3.938802E+03	1.954801E-14	3.285580E-16
3.948774E+03	1.995453E-14	3.340912E-16
3.958745E+03	2.033863E-14	3.391950E-16
3.968717E+03	2.069982E-14	3.438660E-16
3.978689E+03	2.103841E-14	3.481141E-16
3.988660E+03	2.135564E-14	3.519644E-16
3.998632E+03	2.165336E-14	3.554519E-16
4.008604E+03	2.193357E-14	3.586131E-16
4.018575E+03	2.219890E-14	3.614951E-16
4.028547E+03	2.245214E-14	3.641463E-16
4.038518E+03	2.269586E-14	3.666112E-16
4.048490E+03	2.293233E-14	3.689286E-16
4.058462E+03	2.316398E-14	3.711396E-16
4.068433E+03	2.339248E-14	3.732725E-16
4.078405E+03	2.361896E-14	3.753463E-16
4.088377E+03	2.384386E-14	3.773693E-16
4.098348E+03	2.406692E-14	3.793385E-16
4.108320E+03	2.428708E-14	3.812383E-16
4.118292E+03	2.450281E-14	3.830465E-16
4.128263E+03	2.471124E-14	3.847201E-16
4.138235E+03	2.490891E-14	3.862077E-16
4.148207E+03	2.509167E-14	3.874487E-16
4.158178E+03	2.525531E-14	3.883818E-16
4.168150E+03	2.539468E-14	3.889332E-16
4.178122E+03	2.550498E-14	3.890352E-16
4.188093E+03	2.558140E-14	3.886213E-16
4.198065E+03	2.561975E-14	3.876357E-16
4.208037E+03	2.561638E-14	3.860311E-16
4.218008E+03	2.556888E-14	3.837801E-16
4.227980E+03	2.547551E-14	3.808658E-16
4.237952E+03	2.533615E-14	3.772951E-16
4.247923E+03	2.515145E-14	3.730868E-16
4.257895E+03	2.492379E-14	3.682845E-16
4.267866E+03	2.465677E-14	3.629492E-16
4.277838E+03	2.435503E-14	3.571559E-16
4.287810E+03	2.402448E-14	3.509971E-16
4.297781E+03	2.367218E-14	3.445804E-16
4.307753E+03	2.330562E-14	3.380182E-16
4.317725E+03	2.293304E-14	3.314312E-16
4.327696E+03	2.256293E-14	3.249431E-16
4.337668E+03	2.220336E-14	3.186688E-16
4.347640E+03	2.186314E-14	3.127325E-16
4.357611E+03	2.155192E-14	3.072689E-16
4.367583E+03	2.128153E-14	3.024414E-16
4.377555E+03	2.106386E-14	2.984117E-16
4.387526E+03	2.090914E-14	2.953158E-16
4.397498E+03	2.082541E-14	2.932578E-16
4.407470E+03	2.081900E-14	2.923169E-16
4.417441E+03	2.089365E-14	2.925354E-16
4.427413E+03	2.105139E-14	2.939315E-16
4.437385E+03	2.129237E-14	2.964981E-16
4.447356E+03	2.161447E-14	3.001966E-16
4.457328E+03	2.201352E-14	3.049604E-16
4.467299E+03	2.248355E-14	3.107001E-16
4.477271E+03	2.301672E-14	3.173005E-16
4.487243E+03	2.360333E-14	3.246221E-16
4.497214E+03	2.423207E-14	3.325046E-16
4.507186E+03	2.488893E-14	3.407525E-16
4.517158E+03	2.555808E-14	3.491473E-16
4.527129E+03	2.622209E-14	3.574499E-16
4.537101E+03	2.686242E-14	3.654085E-16
4.547073E+03	2.746040E-14	3.727716E-16
4.557044E+03	2.799759E-14	3.792922E-16
4.567016E+03	2.845690E-14	3.847437E-16
4.576988E+03	2.882354E-14	3.889319E-16
4.586959E+03	2.908603E-14	3.917087E-16
4.596931E+03	2.923641E-14	3.929736E-16
4.606903E+03	2.927056E-14	3.926793E-16
4.616874E+03	2.918909E-14	3.908413E-16
4.626846E+03	2.899640E-14	3.875258E-16
4.636818E+03	2.870047E-14	3.828463E-16
4.646789E+03	2.831173E-14	3.769479E-16
4.656761E+03	2.784349E-14	3.700136E-16
4.666732E+03	2.730973E-14	3.622333E-16
4.676704E+03	2.672567E-14	3.538125E-16
4.686676E+03	2.610638E-14	3.449532E-16
4.696647E+03	2.546574E-14	3.358402E-16
4.706619E+03	2.481714E-14	3.266510E-16
4.716591E+03	2.417227E-14	3.175391E-16
4.726562E+03	2.354116E-14	3.086355E-16
4.736534E+03	2.293215E-14	3.000479E-16
4.746506E+03	2.235190E-14	2.918612E-16
4.756477E+03	2.180505E-14	2.841339E-16
4.766449E+03	2.129523E-14	2.769102E-16
4.776421E+03	2.082474E-14	2.702170E-16
4.786392E+03	2.039454E-14	2.640638E-16
4.796364E+03	2.000473E-14	2.584483E-16
4.806336E+03	1.965478E-14	2.533607E-16
4.816307E+03	1.934321E-14	2.487786E-16
4.826279E+03	1.906842E-14	2.446781E-16
4.836251E+03	1.882824E-14	2.410285E-16
4.846222E+03	1.862007E-14	2.377937E-16
4.856194E+03	1.844144E-14	2.349394E-16
4.866165E+03	1.828959E-14	2.324280E-16
4.876137E+03	1.816174E-14	2.302220E-16
4.886109E+03	1.805519E-14	2.282852E-16
4.896080E+03	1.796726E-14	2.265817E-16
4.906052E+03	1.789603E-14	2.250860E-16
4.916024E+03	1.783935E-14	2.237697E-16
4.925995E+03	1.779605E-14	2.226169E-16
4.935967E+03	1.776534E-14	2.216168E-16
4.945939E+03	1.774690E-14	2.207643E-16
4.955910E+03	1.774133E-14	2.200660E-16
4.965882E+03	1.774964E-14	2.195334E-16
4.975854E+03	1.777332E-14	2.191839E-16
4.985825E+03	1.781396E-14	2.190357E-16
4.995797E+03	1.787422E-14	2.191202E-16
5.005769E+03	1.795590E-14	2.194576E-16
5.015740E+03	1.806162E-14	2.200781E-16
5.025712E+03	1.819353E-14	2.210059E-16
5.035684E+03	1.835320E-14	2.222575E-16
5.045655E+03	1.854232E-14	2.238511E-16
5.055627E+03	1.876215E-14	2.257992E-16
5.065599E+03	1.901289E-14	2.281018E-16
5.075570E+03	1.929466E-14	2.307578E-16
5.085542E+03	1.960675E-14	2.337562E-16
5.095513E+03	1.994763E-14	2.370767E-16
5.105485E+03	2.031473E-14	2.406872E-16
5.115457E+03	2.070476E-14	2.445472E-16
5.125428E+03	2.111359E-14	2.486075E-16
5.135400E+03	2.153568E-14	2.528026E-16
5.145372E+03	2.196468E-14	2.570590E-16
5.155343E+03	2.239328E-14	2.612929E-16
5.165315E+03	2.281348E-14	2.654135E-16
5.175287E+03	2.321651E-14	2.693228E-16
5.185258E+03	2.359389E-14	2.729269E-16
5.195230E+03	2.393716E-14	2.761337E-16
5.205202E+03	2.423828E-14	2.788568E-16
5.215173E+03	2.449051E-14	2.810258E-16
5.225145E+03	2.468875E-14	2.825896E-16
5.235117E+03	2.482912E-14	2.835114E-16
5.245088E+03	2.490957E-14	2.837754E-16
5.255060E+03	2.493036E-14	2.833917E-16
5.265032E+03	2.489322E-14	2.823871E-16
5.275003E+03	2.480138E-14	2.808041E-16
5.284975E+03	2.465901E-14	2.786953E-16
5.294946E+03	2.447135E-14	2.761246E-16
5.304918E+03	2.424417E-14	2.731605E-16
5.314890E+03	2.398340E-14	2.698730E-16
5.324861E+03	2.369493E-14	2.663303E-16
5.334833E+03	2.338418E-14	2.625947E-16
5.344805E+03	2.305669E-14	2.587293E-16
5.354776E+03	2.271717E-14	2.547869E-16
5.364748E+03	2.237016E-14	2.508185E-16
5.374720E+03	2.201973E-14	2.468681E-16
5.384691E+03	2.167014E-14	2.429812E-16
5.394663E+03	2.132491E-14	2.391942E-16
5.404635E+03	2.098710E-14	2.355379E-16
5.414606E+03	2.065829E-14	2.320261E-16
5.424578E+03	2.033877E-14	2.286590E-16
5.434550E+03	2.002782E-14	2.254250E-16
5.444521E+03	1.972478E-14	2.223137E-16
5.454493E+03	1.942832E-14	2.193070E-16
5.464465E+03	1.913784E-14	2.163956E-16
5.474436E+03	1.885250E-14	2.135669E-16
5.484408E+03	1.857188E-14	2.108137E-16
5.494379E+03	1.829553E-14	2.081284E-16
5.504351E+03	1.802284E-14	2.055016E-16
5.514323E+03	1.775376E-14	2.029303E-16
5.524294E+03	1.748772E-14	2.004059E-16
5.534266E+03	1.722433E-14	1.979218E-16
5.544238E+03	1.696359E-14	1.954759E-16
5.554209E+03	1.670597E-14	1.930716E-16
5.564181E+03	1.645197E-14	1.907133E-16
5.574153E+03	1.620271E-14	1.884121E-16
5.584124E+03	1.595972E-14	1.861846E-16
5.594096E+03	1.572497E-14	1.840529E-16
5.604068E+03	1.550083E-14	1.820441E-16
5.614039E+03	1.528996E-14	1.801892E-16
5.624011E+03	1.509510E-14	1.785210E-16
5.633983E+03	1.491941E-14	1.770776E-16
5.643954E+03	1.476578E-14	1.758948E-16
5.653926E+03	1.463724E-14	1.750107E-16
5.663898E+03	1.453638E-14	1.744586E-16
5.673869E+03	1.446555E-14	1.742701E-16
5.683841E+03	1.442690E-14	1.744745E-16
5.693812E+03	1.442173E-14	1.750913E-16
5.703784E+03	1.445106E-14	1.761376E-16
5.713756E+03	1.451494E-14	1.776184E-16
5.723727E+03	1.461280E-14	1.795315E-16
5.733699E+03	1.474323E-14	1.818644E-16
5.743671E+03	1.490431E-14	1.845980E-16
5.753642E+03	1.509234E-14	1.876911E-16
5.763614E+03	1.530368E-14	1.911022E-16
5.773586E+03	1.553277E-14	1.947656E-16
5.783557E+03	1.577418E-14	1.986156E-16
5.793529E+03	1.602107E-14	2.025681E-16
5.803501E+03	1.626600E-14	2.065297E-16
5.813472E+03	1.650166E-14	2.104073E-16
5.823444E+03	1.672011E-14	2.140980E-16
5.833416E+03	1.691393E-14	2.175041E-16
5.843387E+03	1.707561E-14	2.205250E-16
5.853359E+03	1.719938E-14	2.230808E-16
5.863331E+03	1.727950E-14	2.250909E-16
5.873302E+03	1.731225E-14	2.264995E-16
5.883274E+03	1.729446E-14	2.272572E-16
5.893246E+03	1.722516E-14	2.273431E-16
5.903217E+03	1.710438E-14	2.267483E-16
5.913189E+03	1.693341E-14	2.254815E-16
5.923160E+03	1.671452E-14	2.235642E-16
5.933132E+03	1.645153E-14	2.210393E-16
5.943104E+03	1.614869E-14	2.179557E-16
5.953075E+03	1.581064E-14	2.143691E-16
5.963047E+03	1.544300E-14	2.103492E-16
5.973019E+03	1.505110E-14	2.059631E-16
5.982990E+03	1.464077E-14	2.012859E-16
5.992962E+03	1.421780E-14	1.963936E-16
6.002934E+03	1.378761E-14	1.913584E-16
6.012905E+03	1.335580E-14	1.862561E-16
6.022877E+03	1.292773E-14	1.811611E-16
6.032849E+03	1.250854E-14	1.761456E-16
6.042820E+03	1.210270E-14	1.712742E-16
6.052792E+03	1.171472E-14	1.666126E-16
6.062764E+03	1.134878E-14	1.622240E-16
6.072735E+03	1.100827E-14	1.581609E-16
6.082707E+03	1.069652E-14	1.544764E-16
6.092679E+03	1.041601E-14	1.512119E-16
6.102650E+03	1.016925E-14	1.484109E-16
6.112622E+03	9.957776E-15	1.461030E-16
6.122593E+03	9.782751E-15	1.443133E-16
6.132565E+03	9.645144E-15	1.430646E-16
6.142537E+03	9.545037E-15	1.423669E-16
6.152508E+03	9.482050E-15	1.422240E-16
6.162480E+03	9.455663E-15	1.426373E-16
6.172452E+03	9.464650E-15	1.435981E-16
6.182423E+03	9.507124E-15	1.450872E-16
6.192395E+03	9.580951E-15	1.470815E-16
6.202367E+03	9.683119E-15	1.495435E-16
6.212338E+03	9.810549E-15	1.524335E-16
6.222310E+03	9.959611E-15	1.557020E-16
6.232282E+03	1.012620E-14	1.592910E-16
6.242253E+03	1.030611E-14	1.631390E-16
6.252225E+03	1.049486E-14	1.671792E-16
6.262197E+03	1.068830E-14	1.713478E-16
6.272168E+03	1.088228E-14	1.755797E-16
6.282140E+03	1.107295E-14	1.798128E-16
6.292112E+03	1.125656E-14	1.839849E-16
6.302083E+03	1.143066E-14	1.880537E-16
6.312055E+03	1.159256E-14	1.919716E-16
6.322026E+03	1.174087E-14	1.957114E-16
6.331998E+03	1.187432E-14	1.992473E-16
6.341970E+03	1.199239E-14	2.025655E-16
6.351941E+03	1.209532E-14	2.056648E-16
6.361913E+03	1.218386E-14	2.085526E-16
6.371885E+03	1.225878E-14	2.112367E-16
6.381856E+03	1.232135E-14	2.137345E-16
6.391828E+03	1.237209E-14	2.160501E-16
6.401800E+03	1.241036E-14	2.181679E-16
6.411771E+03	1.243514E-14	2.200648E-16
6.421743E+03	1.244574E-14	2.217236E-16
6.431715E+03	1.244109E-14	2.231192E-16
6.441686E+03	1.242058E-14	2.242349E-16
6.451658E+03	1.238384E-14	2.250575E-16
6.461630E+03	1.233043E-14	2.255728E-16
6.471601E+03	1.226035E-14	2.257741E-16
6.481573E+03	1.217375E-14	2.256575E-16
6.491545E+03	1.207063E-14	2.252165E-16
6.501516E+03	1.195176E-14	2.244588E-16
6.511488E+03	1.181789E-14	2.233926E-16
6.521459E+03	1.167001E-14	2.220302E-16
6.531431E+03	1.150885E-14	2.203803E-16
6.541403E+03	1.133592E-14	2.184664E-16
6.551374E+03	1.115259E-14	2.163104E-16
6.561346E+03	1.096022E-14	2.139342E-16
6.571318E+03	1.076036E-14	2.113648E-16
6.581289E+03	1.055478E-14	2.086339E-16
6.591261E+03	1.034491E-14	2.057675E-16
6.601233E+03	1.013231E-14	2.027947E-16
6.611204E+03	9.918481E-15	1.997447E-16
6.621176E+03	9.704861E-15	1.966457E-16
6.631148E+03	9.492751E-15	1.935242E-16
6.641119E+03	9.283215E-15	1.904022E-16
6.651091E+03	9.077479E-15	1.873060E-16
6.661063E+03	8.876498E-15	1.842565E-16
6.671034E+03	8.681077E-15	1.812722E-16
6.681006E+03	8.491747E-15	1.783663E-16
6.690978E+03	8.309338E-15	1.755583E-16
6.700949E+03	8.133987E-15	1.728538E-16
6.710921E+03	7.966005E-15	1.702618E-16
6.720893E+03	7.805859E-15	1.677952E-16
6.730864E+03	7.653382E-15	1.654531E-16
6.740836E+03	7.508720E-15	1.632416E-16
6.750807E+03	7.371686E-15	1.611594E-16
6.760779E+03	7.242411E-15	1.592121E-16
6.770751E+03	7.120459E-15	1.573930E-16
6.780722E+03	7.005734E-15	1.557026E-16
6.790694E+03	6.897977E-15	1.541377E-16
6.800666E+03	6.796898E-15	1.526944E-16
6.810637E+03	6.702188E-15	1.513681E-16
6.820609E+03	6.613526E-15	1.501538E-16
6.830581E+03	6.530463E-15	1.490435E-16
6.840552E+03	6.452899E-15	1.480369E-16
6.850524E+03	6.380266E-15	1.471229E-16
6.860496E+03	6.312462E-15	1.463009E-16
6.870467E+03	6.249043E-15	1.455622E-16
6.880439E+03	6.189577E-15	1.448984E-16
6.890411E+03	6.133978E-15	1.443088E-16
6.900382E+03	6.081827E-15	1.437848E-16
6.910354E+03	6.032831E-15	1.433209E-16
6.920326E+03	5.986702E-15	1.429111E-16
6.930297E+03	5.943275E-15	1.425525E-16
6.940269E+03	5.902060E-15	1.422344E-16
6.950240E+03	5.863018E-15	1.419565E-16
6.960212E+03	5.825788E-15	1.417108E-16
6.970184E+03	5.790122E-15	1.414919E-16
6.980155E+03	5.755788E-15	1.412947E-16
6.990127E+03	5.722663E-15	1.411166E-16
7.000099E+03	5.690417E-15	1.409498E-16
7.010070E+03	5.658837E-15	1.407894E-16
7.020042E+03	5.627824E-15	1.406333E-16
7.030014E+03	5.597071E-15	1.404738E-16
7.039985E+03	5.566496E-15	1.403090E-16
7.049957E+03	5.535810E-15	1.401319E-16
7.059929E+03	5.504841E-15	1.399379E-16
7.069900E+03	5.473540E-15	1.397258E-16
7.079872E+03	5.441755E-15	1.394916E-16
7.089844E+03	5.409243E-15	1.392290E-16
7.099815E+03	5.376097E-15	1.389402E-16
7.109787E+03	5.341879E-15	1.386138E-16
7.119759E+03	5.306821E-15	1.382554E-16
7.129730E+03	5.270620E-15	1.378570E-16
7.139702E+03	5.233315E-15	1.374193E-16
7.149673E+03	5.194956E-15	1.369434E-16
7.159645E+03	5.155281E-15	1.364221E-16
7.169617E+03	5.114364E-15	1.358570E-16
7.179588E+03	5.072291E-15	1.352501E-16
7.189560E+03	5.028838E-15	1.345952E-16
7.199532E+03	4.984218E-15	1.338976E-16
7.209503E+03	4.938446E-15	1.331576E-16
7.219475E+03	4.891443E-15	1.323728E-16
7.229447E+03	4.843253E-15	1.315440E-16
7.239418E+03	4.793934E-15	1.306726E-16
7.249390E+03	4.743768E-15	1.297661E-16
7.259362E+03	4.692538E-15	1.288184E-16
7.269333E+03	4.640657E-15	1.278406E-16
7.279305E+03	4.587948E-15	1.268279E-16
7.289277E+03	4.534858E-15	1.257924E-16
7.299248E+03	4.481246E-15	1.247302E-16
7.309220E+03	4.427486E-15	1.236519E-16
7.319192E+03	4.373670E-15	1.225599E-16
7.329163E+03	4.320001E-15	1.214600E-16
7.339135E+03	4.266692E-15	1.203586E-16
7.349106E+03	4.213771E-15	1.192565E-16
7.359078E+03	4.161661E-15	1.181659E-16
7.369050E+03	4.110306E-15	1.170857E-16
7.379021E+03	4.060128E-15	1.160282E-16
7.388993E+03	4.011170E-15	1.149950E-16
7.398965E+03	3.963564E-15	1.139903E-16
7.408936E+03	3.917531E-15	1.130211E-16
7.418908E+03	3.873458E-15	1.120989E-16
7.428880E+03	3.831446E-15	1.112275E-16
7.438851E+03	3.791941E-15	1.104203E-16
7.448823E+03	3.754922E-15	1.096776E-16
7.458795E+03	3.720707E-15	1.090094E-16
7.468766E+03	3.689507E-15	1.084227E-16
7.478738E+03	3.661422E-15	1.079214E-16
7.488710E+03	3.636536E-15	1.075088E-16
7.498681E+03	3.614913E-15	1.071878E-16
7.508653E+03	3.596683E-15	1.069631E-16
7.518625E+03	3.581785E-15	1.068339E-16
7.528596E+03	3.570313E-15	1.068039E-16
7.538568E+03	3.562253E-15	1.068737E-16
7.548540E+03	3.557490E-15	1.070407E-16
7.558511E+03	3.555975E-15	1.073045E-16
7.568483E+03	3.557737E-15	1.076666E-16
7.578454E+03	3.562698E-15	1.081259E-16
7.588426E+03	3.570588E-15	1.086748E-16
7.598398E+03	3.581483E-15	1.093165E-16
7.608369E+03	3.595177E-15	1.100455E-16
7.618341E+03	3.611539E-15	1.108587E-16
7.628313E+03	3.630332E-15	1.117495E-16
7.638284E+03	3.651587E-15	1.127195E-16
7.648256E+03	3.675041E-15	1.137612E-16
7.658228E+03	3.700409E-15	1.148665E-16
7.668199E+03	3.727678E-15	1.160355E-16
7.678171E+03	3.756430E-15	1.172558E-16
7.688143E+03	3.786514E-15	1.185230E-16
7.698114E+03	3.817661E-15	1.198291E-16
7.708086E+03	3.849578E-15	1.211653E-16
7.718058E+03	3.881947E-15	1.225218E-16
7.728029E+03	3.914533E-15	1.238915E-16
7.738001E+03	3.946760E-15	1.252560E-16
