#wls	flux	fluxerr
1.595464E+03	2.555696E-16	1.414326E-17
1.635351E+03	2.326102E-16	1.279446E-17
1.675237E+03	2.117886E-16	1.157745E-17
1.715124E+03	1.930186E-16	1.048556E-17
1.755011E+03	1.761601E-16	9.509303E-18
1.794897E+03	1.610704E-16	8.639199E-18
1.834784E+03	1.475754E-16	7.864271E-18
1.874670E+03	1.355120E-16	7.174322E-18
1.914557E+03	1.247960E-16	6.563506E-18
1.954444E+03	1.153036E-16	6.024019E-18
1.994330E+03	1.069800E-16	5.551790E-18
2.034217E+03	9.991061E-17	5.150030E-18
2.074103E+03	9.429645E-17	4.827757E-18
2.113990E+03	9.049054E-17	4.601422E-18
2.153877E+03	8.882003E-17	4.485685E-18
2.193763E+03	8.956312E-17	4.492309E-18
2.233650E+03	9.278995E-17	4.622331E-18
2.273536E+03	9.853807E-17	4.875112E-18
2.313423E+03	1.068827E-16	5.251858E-18
2.353310E+03	1.179192E-16	5.754706E-18
2.393196E+03	1.318628E-16	6.391473E-18
2.433083E+03	1.489579E-16	7.171155E-18
2.472969E+03	1.694153E-16	8.100825E-18
2.512856E+03	1.933825E-16	9.184257E-18
2.552743E+03	2.208616E-16	1.041820E-17
2.592629E+03	2.516870E-16	1.179149E-17
2.632516E+03	2.854179E-16	1.328036E-17
2.672402E+03	3.216453E-16	1.486303E-17
2.712289E+03	3.598979E-16	1.651532E-17
2.752176E+03	3.997223E-16	1.821441E-17
2.792062E+03	4.407075E-16	1.993990E-17
2.831949E+03	4.823869E-16	2.166936E-17
2.871835E+03	5.242871E-16	2.338062E-17
2.911722E+03	5.658490E-16	2.504824E-17
2.951609E+03	6.068865E-16	2.666391E-17
2.991495E+03	6.471440E-16	2.821646E-17
3.001467E+03	6.570394E-16	2.859272E-17
3.011438E+03	6.669468E-16	2.896770E-17
3.021410E+03	6.768169E-16	2.933925E-17
3.031382E+03	6.866579E-16	2.970773E-17
3.041353E+03	6.964740E-16	3.007331E-17
3.051325E+03	7.062955E-16	3.043730E-17
3.061297E+03	7.161226E-16	3.079970E-17
3.071268E+03	7.259564E-16	3.116055E-17
3.081240E+03	7.358537E-16	3.152227E-17
3.091212E+03	7.457634E-16	3.188264E-17
3.101183E+03	7.556874E-16	3.224174E-17
3.111155E+03	7.656874E-16	3.260218E-17
3.121127E+03	7.757119E-16	3.296174E-17
3.131098E+03	7.858237E-16	3.332308E-17
3.141070E+03	7.960287E-16	3.368640E-17
3.151042E+03	8.062799E-16	3.404969E-17
3.161013E+03	8.166414E-16	3.441563E-17
3.170985E+03	8.271786E-16	3.478694E-17
3.180957E+03	8.377889E-16	3.515924E-17
3.190928E+03	8.485965E-16	3.553771E-17
3.200900E+03	8.594989E-16	3.591801E-17
3.210871E+03	8.706799E-16	3.630774E-17
3.220843E+03	8.820387E-16	3.670265E-17
3.230815E+03	8.935874E-16	3.710316E-17
3.240786E+03	9.054566E-16	3.751462E-17
3.250758E+03	9.175464E-16	3.793280E-17
3.260730E+03	9.299881E-16	3.836305E-17
3.270701E+03	9.427397E-16	3.880352E-17
3.280673E+03	9.558780E-16	3.925727E-17
3.290645E+03	9.693605E-16	3.972243E-17
3.300616E+03	9.832655E-16	4.020209E-17
3.310588E+03	9.976711E-16	4.069931E-17
3.320560E+03	1.012537E-15	4.121229E-17
3.330531E+03	1.027942E-15	4.174411E-17
3.340503E+03	1.043907E-15	4.229542E-17
3.350475E+03	1.060452E-15	4.286682E-17
3.360446E+03	1.077656E-15	4.346140E-17
3.370418E+03	1.095540E-15	4.407973E-17
3.380390E+03	1.114123E-15	4.472237E-17
3.390361E+03	1.133483E-15	4.539225E-17
3.400333E+03	1.153637E-15	4.608978E-17
3.410305E+03	1.174725E-15	4.682032E-17
3.420276E+03	1.196635E-15	4.757910E-17
3.430248E+03	1.219503E-15	4.837125E-17
3.440219E+03	1.243398E-15	4.919925E-17
3.450191E+03	1.268326E-15	5.006294E-17
3.460163E+03	1.294351E-15	5.096454E-17
3.470134E+03	1.321535E-15	5.190613E-17
3.480106E+03	1.349805E-15	5.288449E-17
3.490078E+03	1.379410E-15	5.390903E-17
3.500049E+03	1.410205E-15	5.497363E-17
3.510021E+03	1.442300E-15	5.608217E-17
3.519993E+03	1.475667E-15	5.723319E-17
3.529964E+03	1.510409E-15	5.843021E-17
3.539936E+03	1.546419E-15	5.966868E-17
3.549908E+03	1.583653E-15	6.094650E-17
3.559879E+03	1.621993E-15	6.225869E-17
3.569851E+03	1.661451E-15	6.360537E-17
3.579823E+03	1.701830E-15	6.497862E-17
3.589794E+03	1.743138E-15	6.637843E-17
3.599766E+03	1.785243E-15	6.779944E-17
3.609738E+03	1.828085E-15	6.923907E-17
3.619709E+03	1.871464E-15	7.068954E-17
3.629681E+03	1.915473E-15	7.215407E-17
3.639652E+03	1.959857E-15	7.362286E-17
3.649624E+03	2.004657E-15	7.509734E-17
3.659596E+03	2.049790E-15	7.657411E-17
3.669567E+03	2.095259E-15	7.805321E-17
3.679539E+03	2.140945E-15	7.953005E-17
3.689511E+03	2.187038E-15	8.101155E-17
3.699482E+03	2.233466E-15	8.249482E-17
3.709454E+03	2.280319E-15	8.398310E-17
3.719426E+03	2.327639E-15	8.547769E-17
3.729397E+03	2.375560E-15	8.698331E-17
3.739369E+03	2.424156E-15	8.850242E-17
3.749341E+03	2.473657E-15	9.004308E-17
3.759312E+03	2.524076E-15	9.160549E-17
3.769284E+03	2.575569E-15	9.319491E-17
3.779256E+03	2.628280E-15	9.481614E-17
3.789227E+03	2.682331E-15	9.647313E-17
3.799199E+03	2.737671E-15	9.816351E-17
3.809171E+03	2.794502E-15	9.989410E-17
3.819142E+03	2.852622E-15	1.016571E-16
3.829114E+03	2.912067E-15	1.034533E-16
3.839085E+03	2.972681E-15	1.052767E-16
3.849057E+03	3.034322E-15	1.071219E-16
3.859029E+03	3.096799E-15	1.089817E-16
3.869000E+03	3.159794E-15	1.108447E-16
3.878972E+03	3.222942E-15	1.126978E-16
3.888944E+03	3.285991E-15	1.145322E-16
3.898915E+03	3.348508E-15	1.163328E-16
3.908887E+03	3.410037E-15	1.180840E-16
3.918859E+03	3.470194E-15	1.197728E-16
3.928830E+03	3.528598E-15	1.213865E-16
3.938802E+03	3.584806E-15	1.229105E-16
3.948774E+03	3.638409E-15	1.243316E-16
3.958745E+03	3.689186E-15	1.256431E-16
3.968717E+03	3.736819E-15	1.268352E-16
3.978689E+03	3.781121E-15	1.279025E-16
3.988660E+03	3.821892E-15	1.288396E-16
3.998632E+03	3.859002E-15	1.296432E-16
4.008604E+03	3.892463E-15	1.303151E-16
4.018575E+03	3.922425E-15	1.308615E-16
4.028547E+03	3.948876E-15	1.312832E-16
4.038518E+03	3.971931E-15	1.315853E-16
4.048490E+03	3.991971E-15	1.317817E-16
4.058462E+03	4.009116E-15	1.318772E-16
4.068433E+03	4.023585E-15	1.318802E-16
4.078405E+03	4.035754E-15	1.318039E-16
4.088377E+03	4.045859E-15	1.316568E-16
4.098348E+03	4.054196E-15	1.314493E-16
4.108320E+03	4.061047E-15	1.311911E-16
4.118292E+03	4.066530E-15	1.308867E-16
4.128263E+03	4.070942E-15	1.305460E-16
4.138235E+03	4.074478E-15	1.301758E-16
4.148207E+03	4.077226E-15	1.297792E-16
4.158178E+03	4.079242E-15	1.293582E-16
4.168150E+03	4.080744E-15	1.289202E-16
4.178122E+03	4.081654E-15	1.284628E-16
4.188093E+03	4.082065E-15	1.279892E-16
4.198065E+03	4.081918E-15	1.274979E-16
4.208037E+03	4.081267E-15	1.269908E-16
4.218008E+03	4.079971E-15	1.264637E-16
4.227980E+03	4.078207E-15	1.259223E-16
4.237952E+03	4.075846E-15	1.253630E-16
4.247923E+03	4.072967E-15	1.247885E-16
4.257895E+03	4.069552E-15	1.241984E-16
4.267866E+03	4.065861E-15	1.236008E-16
4.277838E+03	4.061887E-15	1.229958E-16
4.287810E+03	4.057909E-15	1.223919E-16
4.297781E+03	4.054130E-15	1.217953E-16
4.307753E+03	4.050917E-15	1.212169E-16
4.317725E+03	4.048451E-15	1.206620E-16
4.327696E+03	4.047307E-15	1.201476E-16
4.337668E+03	4.047879E-15	1.196847E-16
4.347640E+03	4.050616E-15	1.192861E-16
4.357611E+03	4.056196E-15	1.189710E-16
4.367583E+03	4.065236E-15	1.187565E-16
4.377555E+03	4.078318E-15	1.186583E-16
4.387526E+03	4.096193E-15	1.186969E-16
4.397498E+03	4.119406E-15	1.188864E-16
4.407470E+03	4.148496E-15	1.192405E-16
4.417441E+03	4.184037E-15	1.197735E-16
4.427413E+03	4.226279E-15	1.204904E-16
4.437385E+03	4.275472E-15	1.213958E-16
4.447356E+03	4.331626E-15	1.224878E-16
4.457328E+03	4.394620E-15	1.237604E-16
4.467299E+03	4.464188E-15	1.252039E-16
4.477271E+03	4.539915E-15	1.268045E-16
4.487243E+03	4.621235E-15	1.285443E-16
4.497214E+03	4.707427E-15	1.304015E-16
4.507186E+03	4.797614E-15	1.323502E-16
4.517158E+03	4.890717E-15	1.343596E-16
4.527129E+03	4.985590E-15	1.363972E-16
4.537101E+03	5.081051E-15	1.384305E-16
4.547073E+03	5.175724E-15	1.404218E-16
4.557044E+03	5.268338E-15	1.423371E-16
4.567016E+03	5.357575E-15	1.441418E-16
4.576988E+03	5.442123E-15	1.458017E-16
4.586959E+03	5.520982E-15	1.472917E-16
4.596931E+03	5.593048E-15	1.485846E-16
4.606903E+03	5.657756E-15	1.496677E-16
4.616874E+03	5.714432E-15	1.505255E-16
4.626846E+03	5.762851E-15	1.511551E-16
4.636818E+03	5.803114E-15	1.515617E-16
4.646789E+03	5.835354E-15	1.517515E-16
4.656761E+03	5.860136E-15	1.517419E-16
4.666732E+03	5.878145E-15	1.515530E-16
4.676704E+03	5.890148E-15	1.512067E-16
4.686676E+03	5.897154E-15	1.507308E-16
4.696647E+03	5.900226E-15	1.501540E-16
4.706619E+03	5.900375E-15	1.495033E-16
4.716591E+03	5.898570E-15	1.488039E-16
4.726562E+03	5.895918E-15	1.480845E-16
4.736534E+03	5.893214E-15	1.473651E-16
4.746506E+03	5.891261E-15	1.466657E-16
4.756477E+03	5.890643E-15	1.460006E-16
4.766449E+03	5.891785E-15	1.453799E-16
4.776421E+03	5.895013E-15	1.448109E-16
4.786392E+03	5.900286E-15	1.442920E-16
4.796364E+03	5.907336E-15	1.438160E-16
4.806336E+03	5.915875E-15	1.433754E-16
4.816307E+03	5.925468E-15	1.429592E-16
4.826279E+03	5.935423E-15	1.425506E-16
4.836251E+03	5.945073E-15	1.421334E-16
4.846222E+03	5.953665E-15	1.416900E-16
4.856194E+03	5.960327E-15	1.412000E-16
4.866165E+03	5.964228E-15	1.406446E-16
4.876137E+03	5.964550E-15	1.400055E-16
4.886109E+03	5.960530E-15	1.392662E-16
4.896080E+03	5.951432E-15	1.384109E-16
4.906052E+03	5.936843E-15	1.374320E-16
4.916024E+03	5.916259E-15	1.363195E-16
4.925995E+03	5.889631E-15	1.350743E-16
4.935967E+03	5.856866E-15	1.336965E-16
4.945939E+03	5.818352E-15	1.321967E-16
4.955910E+03	5.774508E-15	1.305865E-16
4.965882E+03	5.726031E-15	1.288833E-16
4.975854E+03	5.673860E-15	1.271096E-16
4.985825E+03	5.619031E-15	1.252898E-16
4.995797E+03	5.562697E-15	1.234503E-16
5.005769E+03	5.506032E-15	1.216178E-16
5.015740E+03	5.450423E-15	1.198227E-16
5.025712E+03	5.397025E-15	1.180901E-16
5.035684E+03	5.347193E-15	1.164489E-16
5.045655E+03	5.302102E-15	1.149236E-16
5.055627E+03	5.262796E-15	1.135353E-16
5.065599E+03	5.230329E-15	1.123049E-16
5.075570E+03	5.205590E-15	1.112494E-16
5.085542E+03	5.189357E-15	1.103833E-16
5.095513E+03	5.182290E-15	1.097181E-16
5.105485E+03	5.184881E-15	1.092616E-16
5.115457E+03	5.197720E-15	1.090234E-16
5.125428E+03	5.220965E-15	1.090042E-16
5.135400E+03	5.254937E-15	1.092078E-16
5.145372E+03	5.299694E-15	1.096326E-16
5.155343E+03	5.355301E-15	1.102772E-16
5.165315E+03	5.421627E-15	1.111363E-16
5.175287E+03	5.498566E-15	1.122050E-16
5.185258E+03	5.585821E-15	1.134750E-16
5.195230E+03	5.683143E-15	1.149388E-16
5.205202E+03	5.790176E-15	1.165872E-16
5.215173E+03	5.906462E-15	1.184090E-16
5.225145E+03	6.031637E-15	1.203952E-16
5.235117E+03	6.165274E-15	1.225359E-16
5.245088E+03	6.306893E-15	1.248202E-16
5.255060E+03	6.456174E-15	1.272406E-16
5.265032E+03	6.612780E-15	1.297896E-16
5.275003E+03	6.776438E-15	1.324612E-16
5.284975E+03	6.946874E-15	1.352494E-16
5.294946E+03	7.123954E-15	1.381513E-16
5.304918E+03	7.307685E-15	1.411667E-16
5.314890E+03	7.497992E-15	1.442939E-16
5.324861E+03	7.694981E-15	1.475351E-16
5.334833E+03	7.898622E-15	1.508897E-16
5.344805E+03	8.109015E-15	1.543597E-16
5.354776E+03	8.326038E-15	1.579433E-16
5.364748E+03	8.549452E-15	1.616363E-16
5.374720E+03	8.779114E-15	1.654367E-16
5.384691E+03	9.014405E-15	1.693336E-16
5.394663E+03	9.254401E-15	1.733108E-16
5.404635E+03	9.498067E-15	1.773502E-16
5.414606E+03	9.743506E-15	1.814182E-16
5.424578E+03	9.988584E-15	1.854770E-16
5.434550E+03	1.023039E-14	1.894751E-16
5.444521E+03	1.046578E-14	1.933573E-16
5.454493E+03	1.069112E-14	1.970595E-16
5.464465E+03	1.090281E-14	2.005190E-16
5.474436E+03	1.109709E-14	2.036698E-16
5.484408E+03	1.127050E-14	2.064513E-16
5.494379E+03	1.142005E-14	2.088117E-16
5.504351E+03	1.154311E-14	2.107063E-16
5.514323E+03	1.163745E-14	2.120968E-16
5.524294E+03	1.170211E-14	2.129683E-16
5.534266E+03	1.173643E-14	2.133110E-16
5.544238E+03	1.174052E-14	2.131290E-16
5.554209E+03	1.171565E-14	2.124462E-16
5.564181E+03	1.166327E-14	2.112902E-16
5.574153E+03	1.158609E-14	2.097104E-16
5.584124E+03	1.148674E-14	2.077546E-16
5.594096E+03	1.136858E-14	2.054833E-16
5.604068E+03	1.123514E-14	2.029594E-16
5.614039E+03	1.109003E-14	2.002475E-16
5.624011E+03	1.093684E-14	1.974114E-16
5.633983E+03	1.077907E-14	1.945127E-16
5.643954E+03	1.062003E-14	1.916102E-16
5.653926E+03	1.046252E-14	1.887529E-16
5.663898E+03	1.030923E-14	1.859881E-16
5.673869E+03	1.016192E-14	1.833467E-16
5.683841E+03	1.002250E-14	1.808615E-16
5.693812E+03	9.891981E-15	1.785502E-16
5.703784E+03	9.770924E-15	1.764218E-16
5.713756E+03	9.659735E-15	1.744830E-16
5.723727E+03	9.558009E-15	1.727259E-16
5.733699E+03	9.465359E-15	1.711428E-16
5.743671E+03	9.380783E-15	1.697153E-16
5.753642E+03	9.303083E-15	1.684211E-16
5.763614E+03	9.230866E-15	1.672347E-16
5.773586E+03	9.162576E-15	1.661276E-16
5.783557E+03	9.096666E-15	1.650712E-16
5.793529E+03	9.031386E-15	1.640335E-16
5.803501E+03	8.965125E-15	1.629845E-16
5.813472E+03	8.896380E-15	1.618966E-16
5.823444E+03	8.823812E-15	1.607446E-16
5.833416E+03	8.746292E-15	1.595074E-16
5.843387E+03	8.662938E-15	1.581681E-16
5.853359E+03	8.573139E-15	1.567147E-16
5.863331E+03	8.476561E-15	1.551403E-16
5.873302E+03	8.373067E-15	1.534415E-16
5.883274E+03	8.262954E-15	1.516228E-16
5.893246E+03	8.146673E-15	1.496917E-16
5.903217E+03	8.024716E-15	1.476563E-16
5.913189E+03	7.898069E-15	1.455340E-16
5.923160E+03	7.767601E-15	1.433400E-16
5.933132E+03	7.634262E-15	1.410912E-16
5.943104E+03	7.499197E-15	1.388083E-16
5.953075E+03	7.363400E-15	1.365091E-16
5.963047E+03	7.227982E-15	1.342138E-16
5.973019E+03	7.093773E-15	1.319377E-16
5.982990E+03	6.961749E-15	1.296987E-16
5.992962E+03	6.832723E-15	1.275118E-16
6.002934E+03	6.707404E-15	1.253905E-16
6.012905E+03	6.586274E-15	1.233437E-16
6.022877E+03	6.469998E-15	1.213842E-16
6.032849E+03	6.358887E-15	1.195181E-16
6.042820E+03	6.253448E-15	1.177551E-16
6.052792E+03	6.153864E-15	1.160994E-16
6.062764E+03	6.060539E-15	1.145588E-16
6.072735E+03	5.973584E-15	1.131360E-16
6.082707E+03	5.893281E-15	1.118370E-16
6.092679E+03	5.819901E-15	1.106676E-16
6.102650E+03	5.753643E-15	1.096322E-16
6.112622E+03	5.694712E-15	1.087355E-16
6.122593E+03	5.643310E-15	1.079822E-16
6.132565E+03	5.599707E-15	1.073784E-16
6.142537E+03	5.564174E-15	1.069301E-16
6.152508E+03	5.536979E-15	1.066436E-16
6.162480E+03	5.518337E-15	1.065241E-16
6.172452E+03	5.508514E-15	1.065779E-16
6.182423E+03	5.507660E-15	1.068091E-16
6.192395E+03	5.516031E-15	1.072240E-16
6.202367E+03	5.533702E-15	1.078255E-16
6.212338E+03	5.560851E-15	1.086185E-16
6.222310E+03	5.597587E-15	1.096065E-16
6.232282E+03	5.644052E-15	1.107941E-16
6.242253E+03	5.700311E-15	1.121841E-16
6.252225E+03	5.766515E-15	1.137813E-16
6.262197E+03	5.842659E-15	1.155873E-16
6.272168E+03	5.928686E-15	1.176029E-16
6.282140E+03	6.024610E-15	1.198304E-16
6.292112E+03	6.130244E-15	1.222678E-16
6.302083E+03	6.245456E-15	1.249142E-16
6.312055E+03	6.369888E-15	1.277639E-16
6.322026E+03	6.503068E-15	1.308092E-16
6.331998E+03	6.644630E-15	1.340440E-16
6.341970E+03	6.793795E-15	1.374542E-16
6.351941E+03	6.949783E-15	1.410252E-16
6.361913E+03	7.111653E-15	1.447390E-16
6.371885E+03	7.278256E-15	1.485733E-16
6.381856E+03	7.448183E-15	1.525001E-16
6.391828E+03	7.619622E-15	1.564825E-16
6.401800E+03	7.790510E-15	1.604784E-16
6.411771E+03	7.958497E-15	1.644389E-16
6.421743E+03	8.121041E-15	1.683105E-16
6.431715E+03	8.275504E-15	1.720374E-16
6.441686E+03	8.419256E-15	1.755628E-16
6.451658E+03	8.549757E-15	1.788314E-16
6.461630E+03	8.664837E-15	1.817947E-16
6.471601E+03	8.762379E-15	1.844050E-16
6.481573E+03	8.840670E-15	1.866224E-16
6.491545E+03	8.898365E-15	1.884142E-16
6.501516E+03	8.934512E-15	1.897562E-16
6.511488E+03	8.948395E-15	1.906283E-16
6.521459E+03	8.940018E-15	1.910261E-16
6.531431E+03	8.909650E-15	1.909508E-16
6.541403E+03	8.857956E-15	1.904119E-16
6.551374E+03	8.785993E-15	1.894280E-16
6.561346E+03	8.695374E-15	1.880297E-16
6.571318E+03	8.587575E-15	1.862453E-16
6.581289E+03	8.464826E-15	1.841198E-16
6.591261E+03	8.329093E-15	1.816930E-16
6.601233E+03	8.182542E-15	1.790097E-16
6.611204E+03	8.027368E-15	1.761160E-16
6.621176E+03	7.865830E-15	1.730599E-16
6.631148E+03	7.700095E-15	1.698879E-16
6.641119E+03	7.532006E-15	1.666401E-16
6.651091E+03	7.363336E-15	1.633555E-16
6.661063E+03	7.195855E-15	1.600732E-16
6.671034E+03	7.030752E-15	1.568202E-16
6.681006E+03	6.869286E-15	1.536251E-16
6.690978E+03	6.712500E-15	1.505120E-16
6.700949E+03	6.560975E-15	1.474950E-16
6.710921E+03	6.415536E-15	1.445936E-16
6.720893E+03	6.276416E-15	1.418144E-16
6.730864E+03	6.143866E-15	1.391643E-16
6.740836E+03	6.018171E-15	1.366509E-16
6.750807E+03	5.899184E-15	1.342722E-16
6.760779E+03	5.786912E-15	1.320297E-16
6.770751E+03	5.681207E-15	1.299211E-16
6.780722E+03	5.581867E-15	1.279430E-16
6.790694E+03	5.488652E-15	1.260911E-16
6.800666E+03	5.401360E-15	1.243619E-16
6.810637E+03	5.319559E-15	1.227462E-16
6.820609E+03	5.243088E-15	1.212416E-16
6.830581E+03	5.171574E-15	1.198400E-16
6.840552E+03	5.104716E-15	1.185355E-16
6.850524E+03	5.042222E-15	1.173221E-16
6.860496E+03	4.983813E-15	1.161939E-16
6.870467E+03	4.929296E-15	1.151471E-16
6.880439E+03	4.878362E-15	1.141752E-16
6.890411E+03	4.830795E-15	1.132736E-16
6.900382E+03	4.786474E-15	1.124400E-16
6.910354E+03	4.745109E-15	1.116682E-16
6.920326E+03	4.706705E-15	1.109587E-16
6.930297E+03	4.671104E-15	1.103082E-16
6.940269E+03	4.638245E-15	1.097157E-16
6.950240E+03	4.608104E-15	1.091811E-16
6.960212E+03	4.580684E-15	1.087047E-16
6.970184E+03	4.556082E-15	1.082894E-16
6.980155E+03	4.534226E-15	1.079338E-16
6.990127E+03	4.515260E-15	1.076417E-16
7.000099E+03	4.499337E-15	1.074170E-16
7.010070E+03	4.486432E-15	1.072597E-16
7.020042E+03	4.476648E-15	1.071724E-16
7.030014E+03	4.470213E-15	1.071611E-16
7.039985E+03	4.467090E-15	1.072252E-16
7.049957E+03	4.467421E-15	1.073684E-16
7.059929E+03	4.471262E-15	1.075926E-16
7.069900E+03	4.478581E-15	1.078971E-16
7.079872E+03	4.489382E-15	1.082826E-16
7.089844E+03	4.503709E-15	1.087503E-16
7.099815E+03	4.521439E-15	1.092976E-16
7.109787E+03	4.542488E-15	1.099227E-16
7.119759E+03	4.566739E-15	1.106232E-16
7.129730E+03	4.594116E-15	1.113973E-16
7.139702E+03	4.624316E-15	1.122380E-16
7.149673E+03	4.657215E-15	1.131424E-16
7.159645E+03	4.692535E-15	1.141041E-16
7.169617E+03	4.730195E-15	1.151212E-16
7.179588E+03	4.769754E-15	1.161831E-16
7.189560E+03	4.811117E-15	1.172877E-16
7.199532E+03	4.853978E-15	1.184276E-16
7.209503E+03	4.898174E-15	1.195990E-16
7.219475E+03	4.943326E-15	1.207927E-16
7.229447E+03	4.989279E-15	1.220050E-16
7.239418E+03	5.035731E-15	1.232287E-16
7.249390E+03	5.082536E-15	1.244602E-16
7.259362E+03	5.129392E-15	1.256922E-16
7.269333E+03	5.176157E-15	1.269213E-16
7.279305E+03	5.222444E-15	1.281381E-16
7.289277E+03	5.268102E-15	1.293390E-16
7.299248E+03	5.312898E-15	1.305183E-16
7.309220E+03	5.356517E-15	1.316683E-16
7.319192E+03	5.398723E-15	1.327834E-16
7.329163E+03	5.439376E-15	1.338602E-16
7.339135E+03	5.478097E-15	1.348894E-16
7.349106E+03	5.514782E-15	1.358685E-16
7.359078E+03	5.549193E-15	1.367917E-16
7.369050E+03	5.581308E-15	1.376587E-16
7.379021E+03	5.610896E-15	1.384638E-16
7.388993E+03	5.638055E-15	1.392095E-16
7.398965E+03	5.662773E-15	1.398956E-16
7.408936E+03	5.685208E-15	1.405262E-16
7.418908E+03	5.705586E-15	1.411071E-16
7.428880E+03	5.724303E-15	1.416481E-16
7.438851E+03	5.741547E-15	1.421541E-16
7.448823E+03	5.758010E-15	1.426424E-16
7.458795E+03	5.773969E-15	1.431202E-16
7.468766E+03	5.789996E-15	1.436018E-16
7.478738E+03	5.806565E-15	1.440993E-16
7.488710E+03	5.824224E-15	1.446266E-16
7.498681E+03	5.843286E-15	1.451919E-16
7.508653E+03	5.864184E-15	1.458062E-16
7.518625E+03	5.887175E-15	1.464763E-16
7.528596E+03	5.912411E-15	1.472065E-16
7.538568E+03	5.939928E-15	1.479982E-16
7.548540E+03	5.969640E-15	1.488495E-16
7.558511E+03	6.001429E-15	1.497582E-16
7.568483E+03	6.034857E-15	1.507137E-16
7.578454E+03	6.069560E-15	1.517074E-16
7.588426E+03	6.104859E-15	1.527228E-16
7.598398E+03	6.140177E-15	1.537460E-16
7.608369E+03	6.174760E-15	1.547584E-16
7.618341E+03	6.207788E-15	1.557399E-16
7.628313E+03	6.238408E-15	1.566694E-16
7.638284E+03	6.265757E-15	1.575254E-16
7.648256E+03	6.288986E-15	1.582867E-16
7.658228E+03	6.307288E-15	1.589332E-16
7.668199E+03	6.320030E-15	1.594487E-16
7.678171E+03	6.326357E-15	1.598116E-16
7.688143E+03	6.325939E-15	1.600133E-16
7.698114E+03	6.318262E-15	1.600404E-16
7.708086E+03	6.303052E-15	1.598856E-16
7.718058E+03	6.280176E-15	1.595449E-16
7.728029E+03	6.249643E-15	1.590179E-16
7.738001E+03	6.211601E-15	1.583077E-16
