#wls	flux	fluxerr
1.595464E+03	2.278752E-16	1.187008E-17
1.635351E+03	2.105614E-16	1.090545E-17
1.675237E+03	1.946614E-16	1.002343E-17
1.715124E+03	1.801518E-16	9.221709E-18
1.755011E+03	1.670146E-16	8.498238E-18
1.794897E+03	1.550782E-16	7.843201E-18
1.834784E+03	1.442828E-16	7.252584E-18
1.874670E+03	1.345339E-16	6.720709E-18
1.914557E+03	1.257015E-16	6.240213E-18
1.954444E+03	1.177709E-16	5.809582E-18
1.994330E+03	1.107024E-16	5.426071E-18
2.034217E+03	1.046252E-16	5.095220E-18
2.074103E+03	9.980977E-17	4.829204E-18
2.113990E+03	9.660392E-17	4.643587E-18
2.153877E+03	9.543268E-17	4.557165E-18
2.193763E+03	9.655738E-17	4.580439E-18
2.233650E+03	1.000171E-16	4.713112E-18
2.273536E+03	1.057686E-16	4.950992E-18
2.313423E+03	1.138126E-16	5.292021E-18
2.353310E+03	1.241181E-16	5.732661E-18
2.393196E+03	1.368031E-16	6.276259E-18
2.433083E+03	1.519500E-16	6.924362E-18
2.472969E+03	1.696623E-16	7.679368E-18
2.512856E+03	1.899883E-16	8.541035E-18
2.552743E+03	2.128579E-16	9.503751E-18
2.592629E+03	2.381385E-16	1.055920E-17
2.632516E+03	2.655744E-16	1.169374E-17
2.672402E+03	2.948226E-16	1.289020E-17
2.712289E+03	3.255881E-16	1.413385E-17
2.752176E+03	3.575815E-16	1.541053E-17
2.792062E+03	3.905719E-16	1.670889E-17
2.831949E+03	4.243220E-16	1.801754E-17
2.871835E+03	4.583605E-16	1.931550E-17
2.911722E+03	4.925100E-16	2.059465E-17
2.951609E+03	5.264677E-16	2.184186E-17
2.991495E+03	5.601917E-16	2.305511E-17
3.001467E+03	5.685374E-16	2.335109E-17
3.011438E+03	5.769427E-16	2.364798E-17
3.021410E+03	5.853061E-16	2.394159E-17
3.031382E+03	5.936869E-16	2.423437E-17
3.041353E+03	6.020352E-16	2.452426E-17
3.051325E+03	6.104292E-16	2.481443E-17
3.061297E+03	6.188687E-16	2.510487E-17
3.071268E+03	6.273541E-16	2.539558E-17
3.081240E+03	6.358322E-16	2.568437E-17
3.091212E+03	6.444115E-16	2.597562E-17
3.101183E+03	6.530420E-16	2.626729E-17
3.111155E+03	6.616695E-16	2.655718E-17
3.121127E+03	6.704084E-16	2.684985E-17
3.131098E+03	6.792068E-16	2.714321E-17
3.141070E+03	6.880687E-16	2.743738E-17
3.151042E+03	6.969989E-16	2.773253E-17
3.161013E+03	7.060599E-16	2.803112E-17
3.170985E+03	7.152008E-16	2.833108E-17
3.180957E+03	7.244856E-16	2.863492E-17
3.190928E+03	7.339217E-16	2.894286E-17
3.200900E+03	7.434596E-16	2.925293E-17
3.210871E+03	7.531656E-16	2.956768E-17
3.220843E+03	7.631064E-16	2.988966E-17
3.230815E+03	7.731767E-16	3.021470E-17
3.240786E+03	7.835031E-16	3.054768E-17
3.250758E+03	7.940976E-16	3.088898E-17
3.260730E+03	8.049135E-16	3.123671E-17
3.270701E+03	8.160223E-16	3.159357E-17
3.280673E+03	8.273778E-16	3.195768E-17
3.290645E+03	8.391147E-16	3.233414E-17
3.300616E+03	8.512477E-16	3.272342E-17
3.310588E+03	8.637347E-16	3.312376E-17
3.320560E+03	8.766518E-16	3.353797E-17
3.330531E+03	8.900187E-16	3.396667E-17
3.340503E+03	9.038555E-16	3.441049E-17
3.350475E+03	9.182441E-16	3.487239E-17
3.360446E+03	9.332077E-16	3.535307E-17
3.370418E+03	9.487702E-16	3.585326E-17
3.380390E+03	9.650843E-16	3.637854E-17
3.390361E+03	9.820514E-16	3.692497E-17
3.400333E+03	9.997645E-16	3.749582E-17
3.410305E+03	1.018383E-15	3.809683E-17
3.420276E+03	1.037875E-15	3.872656E-17
3.430248E+03	1.058340E-15	3.938841E-17
3.440219E+03	1.079808E-15	4.008319E-17
3.450191E+03	1.102438E-15	4.081648E-17
3.460163E+03	1.126182E-15	4.158615E-17
3.470134E+03	1.151115E-15	4.239462E-17
3.480106E+03	1.177299E-15	4.324377E-17
3.490078E+03	1.204717E-15	4.413264E-17
3.500049E+03	1.233473E-15	4.506458E-17
3.510021E+03	1.263453E-15	4.603506E-17
3.519993E+03	1.294666E-15	4.704400E-17
3.529964E+03	1.327111E-15	4.809093E-17
3.539936E+03	1.360703E-15	4.917245E-17
3.549908E+03	1.395349E-15	5.028477E-17
3.559879E+03	1.430874E-15	5.142129E-17
3.569851E+03	1.467311E-15	5.258286E-17
3.579823E+03	1.504397E-15	5.375984E-17
3.589794E+03	1.542009E-15	5.494756E-17
3.599766E+03	1.580013E-15	5.614103E-17
3.609738E+03	1.618263E-15	5.733499E-17
3.619709E+03	1.656604E-15	5.852379E-17
3.629681E+03	1.694716E-15	5.969617E-17
3.639652E+03	1.732573E-15	6.085117E-17
3.649624E+03	1.769846E-15	6.197734E-17
3.659596E+03	1.806444E-15	6.307166E-17
3.669567E+03	1.842152E-15	6.412681E-17
3.679539E+03	1.876873E-15	6.513968E-17
3.689511E+03	1.910504E-15	6.610695E-17
3.699482E+03	1.943095E-15	6.703069E-17
3.709454E+03	1.974865E-15	6.791873E-17
3.719426E+03	2.005911E-15	6.877461E-17
3.729397E+03	2.036580E-15	6.961040E-17
3.739369E+03	2.067308E-15	7.044104E-17
3.749341E+03	2.098609E-15	7.128398E-17
3.759312E+03	2.130983E-15	7.215590E-17
3.769284E+03	2.165034E-15	7.307683E-17
3.779256E+03	2.201371E-15	7.406668E-17
3.789227E+03	2.240493E-15	7.514149E-17
3.799199E+03	2.282904E-15	7.631709E-17
3.809171E+03	2.328909E-15	7.760261E-17
3.819142E+03	2.378728E-15	7.900411E-17
3.829114E+03	2.432404E-15	8.052175E-17
3.839085E+03	2.489799E-15	8.214969E-17
3.849057E+03	2.550454E-15	8.387159E-17
3.859029E+03	2.613964E-15	8.567301E-17
3.869000E+03	2.679707E-15	8.753271E-17
3.878972E+03	2.746796E-15	8.942099E-17
3.888944E+03	2.814402E-15	9.131047E-17
3.898915E+03	2.881719E-15	9.317490E-17
3.908887E+03	2.947697E-15	9.498051E-17
3.918859E+03	3.011520E-15	9.670147E-17
3.928830E+03	3.072172E-15	9.830602E-17
3.938802E+03	3.128849E-15	9.976952E-17
3.948774E+03	3.180903E-15	1.010727E-16
3.958745E+03	3.227565E-15	1.021927E-16
3.968717E+03	3.268358E-15	1.031163E-16
3.978689E+03	3.302971E-15	1.038358E-16
3.988660E+03	3.331283E-15	1.043494E-16
3.998632E+03	3.353223E-15	1.046571E-16
4.008604E+03	3.369139E-15	1.047718E-16
4.018575E+03	3.379321E-15	1.047046E-16
4.028547E+03	3.384486E-15	1.044796E-16
4.038518E+03	3.385087E-15	1.041125E-16
4.048490E+03	3.381996E-15	1.036316E-16
4.058462E+03	3.375831E-15	1.030570E-16
4.068433E+03	3.367355E-15	1.024131E-16
4.078405E+03	3.357314E-15	1.017233E-16
4.088377E+03	3.346345E-15	1.010073E-16
4.098348E+03	3.335099E-15	1.002851E-16
4.108320E+03	3.324142E-15	9.957385E-17
4.118292E+03	3.313943E-15	9.888741E-17
4.128263E+03	3.304736E-15	9.823251E-17
4.138235E+03	3.296877E-15	9.761937E-17
4.148207E+03	3.290341E-15	9.704688E-17
4.158178E+03	3.285165E-15	9.651568E-17
4.168150E+03	3.281155E-15	9.601966E-17
4.178122E+03	3.278083E-15	9.555181E-17
4.188093E+03	3.275643E-15	9.510296E-17
4.198065E+03	3.273532E-15	9.466418E-17
4.208037E+03	3.271237E-15	9.422061E-17
4.218008E+03	3.268451E-15	9.376354E-17
4.227980E+03	3.264695E-15	9.327950E-17
4.237952E+03	3.259504E-15	9.275568E-17
4.247923E+03	3.252663E-15	9.218645E-17
4.257895E+03	3.243727E-15	9.155991E-17
4.267866E+03	3.232532E-15	9.087222E-17
4.277838E+03	3.218801E-15	9.011639E-17
4.287810E+03	3.202645E-15	8.929651E-17
4.297781E+03	3.184130E-15	8.841523E-17
4.307753E+03	3.163616E-15	8.748338E-17
4.317725E+03	3.141630E-15	8.651620E-17
4.327696E+03	3.119022E-15	8.553753E-17
4.337668E+03	3.096699E-15	8.457241E-17
4.347640E+03	3.075884E-15	8.365400E-17
4.357611E+03	3.057882E-15	8.281723E-17
4.367583E+03	3.044038E-15	8.209737E-17
4.377555E+03	3.035773E-15	8.153127E-17
4.387526E+03	3.034495E-15	8.115472E-17
4.397498E+03	3.041509E-15	8.100016E-17
4.407470E+03	3.058150E-15	8.110024E-17
4.417441E+03	3.085386E-15	8.147730E-17
4.427413E+03	3.124260E-15	8.215518E-17
4.437385E+03	3.175463E-15	8.314816E-17
4.447356E+03	3.239544E-15	8.446642E-17
4.457328E+03	3.316783E-15	8.611299E-17
4.467299E+03	3.407242E-15	8.808520E-17
4.477271E+03	3.510617E-15	9.037087E-17
4.487243E+03	3.626234E-15	9.294854E-17
4.497214E+03	3.752963E-15	9.578539E-17
4.507186E+03	3.889372E-15	9.884153E-17
4.517158E+03	4.033457E-15	1.020631E-16
4.527129E+03	4.182683E-15	1.053839E-16
4.537101E+03	4.334173E-15	1.087302E-16
4.547073E+03	4.484614E-15	1.120186E-16
4.557044E+03	4.630491E-15	1.151620E-16
4.567016E+03	4.768069E-15	1.180696E-16
4.576988E+03	4.893876E-15	1.206584E-16
4.586959E+03	5.004615E-15	1.228514E-16
4.596931E+03	5.097446E-15	1.245841E-16
4.606903E+03	5.170454E-15	1.258156E-16
4.616874E+03	5.222573E-15	1.265265E-16
4.626846E+03	5.253624E-15	1.267192E-16
4.636818E+03	5.264687E-15	1.264263E-16
4.646789E+03	5.257403E-15	1.256933E-16
4.656761E+03	5.234530E-15	1.245917E-16
4.666732E+03	5.198962E-15	1.231951E-16
4.676704E+03	5.154278E-15	1.215918E-16
4.686676E+03	5.103839E-15	1.198637E-16
4.696647E+03	5.051041E-15	1.180918E-16
4.706619E+03	4.999133E-15	1.163526E-16
4.716591E+03	4.950787E-15	1.147075E-16
4.726562E+03	4.908310E-15	1.132087E-16
4.736534E+03	4.873407E-15	1.118935E-16
4.746506E+03	4.847174E-15	1.107844E-16
4.756477E+03	4.830369E-15	1.098961E-16
4.766449E+03	4.823154E-15	1.092291E-16
4.776421E+03	4.825390E-15	1.087775E-16
4.786392E+03	4.836657E-15	1.085287E-16
4.796364E+03	4.856329E-15	1.084661E-16
4.806336E+03	4.883604E-15	1.085692E-16
4.816307E+03	4.917529E-15	1.088147E-16
4.826279E+03	4.956986E-15	1.091757E-16
4.836251E+03	5.000664E-15	1.096220E-16
4.846222E+03	5.047007E-15	1.101184E-16
4.856194E+03	5.094102E-15	1.106225E-16
4.866165E+03	5.139868E-15	1.110892E-16
4.876137E+03	5.181658E-15	1.114620E-16
4.886109E+03	5.216663E-15	1.116822E-16
4.896080E+03	5.241978E-15	1.116899E-16
4.906052E+03	5.254693E-15	1.114265E-16
4.916024E+03	5.252242E-15	1.108418E-16
4.925995E+03	5.232685E-15	1.098996E-16
4.935967E+03	5.194907E-15	1.085820E-16
4.945939E+03	5.138994E-15	1.068963E-16
4.955910E+03	5.066159E-15	1.048731E-16
4.965882E+03	4.978421E-15	1.025592E-16
4.975854E+03	4.878728E-15	1.000194E-16
4.985825E+03	4.770238E-15	9.732168E-17
4.995797E+03	4.656501E-15	9.454076E-17
5.005769E+03	4.540930E-15	9.174712E-17
5.015740E+03	4.426703E-15	8.900517E-17
5.025712E+03	4.316795E-15	8.637395E-17
5.035684E+03	4.213735E-15	8.390256E-17
5.045655E+03	4.119591E-15	8.162992E-17
5.055627E+03	4.036173E-15	7.958908E-17
5.065599E+03	3.964810E-15	7.780305E-17
5.075570E+03	3.906549E-15	7.628877E-17
5.085542E+03	3.862370E-15	7.506161E-17
5.095513E+03	3.832865E-15	7.412904E-17
5.105485E+03	3.818554E-15	7.349702E-17
5.115457E+03	3.819868E-15	7.316967E-17
5.125428E+03	3.837068E-15	7.314777E-17
5.135400E+03	3.870275E-15	7.342943E-17
5.145372E+03	3.919422E-15	7.400923E-17
5.155343E+03	3.984389E-15	7.488093E-17
5.165315E+03	4.064703E-15	7.603173E-17
5.175287E+03	4.159846E-15	7.744833E-17
5.185258E+03	4.268964E-15	7.911147E-17
5.195230E+03	4.391030E-15	8.099907E-17
5.205202E+03	4.524864E-15	8.308673E-17
5.215173E+03	4.669027E-15	8.534583E-17
5.225145E+03	4.822004E-15	8.774691E-17
5.235117E+03	4.982261E-15	9.026076E-17
5.245088E+03	5.148175E-15	9.285717E-17
5.255060E+03	5.318281E-15	9.550936E-17
5.265032E+03	5.491402E-15	9.819623E-17
5.275003E+03	5.666678E-15	1.009028E-16
5.284975E+03	5.843706E-15	1.036223E-16
5.294946E+03	6.022736E-15	1.063601E-16
5.304918E+03	6.204740E-15	1.091337E-16
5.314890E+03	6.391247E-15	1.119706E-16
5.324861E+03	6.584503E-15	1.149104E-16
5.334833E+03	6.787083E-15	1.179976E-16
5.344805E+03	7.001879E-15	1.212819E-16
5.354776E+03	7.231855E-15	1.248138E-16
5.364748E+03	7.479514E-15	1.286349E-16
5.374720E+03	7.746855E-15	1.327783E-16
5.384691E+03	8.034721E-15	1.372568E-16
5.394663E+03	8.343062E-15	1.420683E-16
5.404635E+03	8.670149E-15	1.471823E-16
5.414606E+03	9.012808E-15	1.525448E-16
5.424578E+03	9.365933E-15	1.580699E-16
5.434550E+03	9.723153E-15	1.636517E-16
5.444521E+03	1.007629E-14	1.691552E-16
5.454493E+03	1.041657E-14	1.744372E-16
5.464465E+03	1.073430E-14	1.793398E-16
5.474436E+03	1.102026E-14	1.837144E-16
5.484408E+03	1.126546E-14	1.874169E-16
5.494379E+03	1.146247E-14	1.903286E-16
5.504351E+03	1.160532E-14	1.923565E-16
5.514323E+03	1.168998E-14	1.934391E-16
5.524294E+03	1.171451E-14	1.935489E-16
5.534266E+03	1.167914E-14	1.926939E-16
5.544238E+03	1.158588E-14	1.909106E-16
5.554209E+03	1.143888E-14	1.882698E-16
5.564181E+03	1.124352E-14	1.848617E-16
5.574153E+03	1.100663E-14	1.807991E-16
5.584124E+03	1.073612E-14	1.762119E-16
5.594096E+03	1.044038E-14	1.712369E-16
5.604068E+03	1.012834E-14	1.660195E-16
5.614039E+03	9.808843E-15	1.607026E-16
5.624011E+03	9.490332E-15	1.554228E-16
5.633983E+03	9.180530E-15	1.503044E-16
5.643954E+03	8.886374E-15	1.454588E-16
5.653926E+03	8.613739E-15	1.409804E-16
5.663898E+03	8.367003E-15	1.369389E-16
5.673869E+03	8.149665E-15	1.333903E-16
5.683841E+03	7.963793E-15	1.303670E-16
5.693812E+03	7.810421E-15	1.278853E-16
5.703784E+03	7.689533E-15	1.259441E-16
5.713756E+03	7.600218E-15	1.245284E-16
5.723727E+03	7.540500E-15	1.236056E-16
5.733699E+03	7.507610E-15	1.231304E-16
5.743671E+03	7.498085E-15	1.230464E-16
5.753642E+03	7.507751E-15	1.232852E-16
5.763614E+03	7.531756E-15	1.237675E-16
5.773586E+03	7.565169E-15	1.244126E-16
5.783557E+03	7.602732E-15	1.251341E-16
5.793529E+03	7.639124E-15	1.258443E-16
5.803501E+03	7.669348E-15	1.264606E-16
5.813472E+03	7.688901E-15	1.269083E-16
5.823444E+03	7.694077E-15	1.271254E-16
5.833416E+03	7.681892E-15	1.270617E-16
5.843387E+03	7.650338E-15	1.266827E-16
5.853359E+03	7.598657E-15	1.259745E-16
5.863331E+03	7.526819E-15	1.249351E-16
5.873302E+03	7.435725E-15	1.235779E-16
5.883274E+03	7.326911E-15	1.219271E-16
5.893246E+03	7.202535E-15	1.200169E-16
5.903217E+03	7.065202E-15	1.178896E-16
5.913189E+03	6.917674E-15	1.155899E-16
5.923160E+03	6.762690E-15	1.131626E-16
5.933132E+03	6.603212E-15	1.106565E-16
5.943104E+03	6.442052E-15	1.081180E-16
5.953075E+03	6.281757E-15	1.055895E-16
5.963047E+03	6.124641E-15	1.031096E-16
5.973019E+03	5.972627E-15	1.007108E-16
5.982990E+03	5.827204E-15	9.841833E-17
5.992962E+03	5.689397E-15	9.624974E-17
6.002934E+03	5.559719E-15	9.421416E-17
6.012905E+03	5.438291E-15	9.231413E-17
6.022877E+03	5.325081E-15	9.054960E-17
6.032849E+03	5.219647E-15	8.891360E-17
6.042820E+03	5.121407E-15	8.739673E-17
6.052792E+03	5.029789E-15	8.598972E-17
6.062764E+03	4.944251E-15	8.468379E-17
6.072735E+03	4.864355E-15	8.347190E-17
6.082707E+03	4.789830E-15	8.234981E-17
6.092679E+03	4.720607E-15	8.131677E-17
6.102650E+03	4.656841E-15	8.037590E-17
6.112622E+03	4.598866E-15	7.953348E-17
6.122593E+03	4.547313E-15	7.880100E-17
6.132565E+03	4.502864E-15	7.819092E-17
6.142537E+03	4.466318E-15	7.771786E-17
6.152508E+03	4.438504E-15	7.739714E-17
6.162480E+03	4.420037E-15	7.724048E-17
6.172452E+03	4.411480E-15	7.725880E-17
6.182423E+03	4.413224E-15	7.746018E-17
6.192395E+03	4.425621E-15	7.785204E-17
6.202367E+03	4.448867E-15	7.843920E-17
6.212338E+03	4.483062E-15	7.922487E-17
6.222310E+03	4.528598E-15	8.021746E-17
6.232282E+03	4.585736E-15	8.142321E-17
6.242253E+03	4.655007E-15	8.285324E-17
6.252225E+03	4.736976E-15	8.451945E-17
6.262197E+03	4.832418E-15	8.643764E-17
6.272168E+03	4.942078E-15	8.862330E-17
6.282140E+03	5.066809E-15	9.109406E-17
6.292112E+03	5.207285E-15	9.386454E-17
6.302083E+03	5.364113E-15	9.694843E-17
6.312055E+03	5.537548E-15	1.003531E-16
6.322026E+03	5.727628E-15	1.040818E-16
6.331998E+03	5.933864E-15	1.081283E-16
6.341970E+03	6.155414E-15	1.124800E-16
6.351941E+03	6.390848E-15	1.171131E-16
6.361913E+03	6.638080E-15	1.219916E-16
6.371885E+03	6.894570E-15	1.270707E-16
6.381856E+03	7.157218E-15	1.322949E-16
6.391828E+03	7.422256E-15	1.375952E-16
6.401800E+03	7.685641E-15	1.428970E-16
6.411771E+03	7.943041E-15	1.481193E-16
6.421743E+03	8.189990E-15	1.531775E-16
6.431715E+03	8.422029E-15	1.579861E-16
6.441686E+03	8.634963E-15	1.624637E-16
6.451658E+03	8.824601E-15	1.665277E-16
6.461630E+03	8.987575E-15	1.701103E-16
6.471601E+03	9.120623E-15	1.731447E-16
6.481573E+03	9.221050E-15	1.755743E-16
6.491545E+03	9.286911E-15	1.773560E-16
6.501516E+03	9.316834E-15	1.784574E-16
6.511488E+03	9.310290E-15	1.788618E-16
6.521459E+03	9.267508E-15	1.785670E-16
6.531431E+03	9.189501E-15	1.775861E-16
6.541403E+03	9.078044E-15	1.759473E-16
6.551374E+03	8.935769E-15	1.736956E-16
6.561346E+03	8.765853E-15	1.708876E-16
6.571318E+03	8.572047E-15	1.675917E-16
6.581289E+03	8.358531E-15	1.638858E-16
6.591261E+03	8.129858E-15	1.598558E-16
6.601233E+03	7.890683E-15	1.555909E-16
6.611204E+03	7.645317E-15	1.511747E-16
6.621176E+03	7.398309E-15	1.466964E-16
6.631148E+03	7.153375E-15	1.422295E-16
6.641119E+03	6.914107E-15	1.378462E-16
6.651091E+03	6.683253E-15	1.336024E-16
6.661063E+03	6.463110E-15	1.295456E-16
6.671034E+03	6.255266E-15	1.257096E-16
6.681006E+03	6.060715E-15	1.221166E-16
6.690978E+03	5.879972E-15	1.187790E-16
6.700949E+03	5.712885E-15	1.156963E-16
6.710921E+03	5.559301E-15	1.128675E-16
6.720893E+03	5.418448E-15	1.102791E-16
6.730864E+03	5.289662E-15	1.079196E-16
6.740836E+03	5.171928E-15	1.057702E-16
6.750807E+03	5.064477E-15	1.038169E-16
6.760779E+03	4.966368E-15	1.020419E-16
6.770751E+03	4.876780E-15	1.004298E-16
6.780722E+03	4.795023E-15	9.896765E-17
6.790694E+03	4.720349E-15	9.764116E-17
6.800666E+03	4.652198E-15	9.643978E-17
6.810637E+03	4.590002E-15	9.535267E-17
6.820609E+03	4.533173E-15	9.436847E-17
6.830581E+03	4.481274E-15	9.347883E-17
6.840552E+03	4.433887E-15	9.267570E-17
6.850524E+03	4.390424E-15	9.194742E-17
6.860496E+03	4.350479E-15	9.128600E-17
6.870467E+03	4.313587E-15	9.068215E-17
6.880439E+03	4.279226E-15	9.012532E-17
6.890411E+03	4.247063E-15	8.960878E-17
6.900382E+03	4.216612E-15	8.912262E-17
6.910354E+03	4.187496E-15	8.865907E-17
6.920326E+03	4.159398E-15	8.821161E-17
6.930297E+03	4.132091E-15	8.777556E-17
6.940269E+03	4.105447E-15	8.734837E-17
6.950240E+03	4.079455E-15	8.692995E-17
6.960212E+03	4.054233E-15	8.652288E-17
6.970184E+03	4.029955E-15	8.613108E-17
6.980155E+03	4.007069E-15	8.576423E-17
6.990127E+03	3.985890E-15	8.542932E-17
7.000099E+03	3.967011E-15	8.513928E-17
7.010070E+03	3.950840E-15	8.490313E-17
7.020042E+03	3.937901E-15	8.473243E-17
7.030014E+03	3.928804E-15	8.464064E-17
7.039985E+03	3.923852E-15	8.463463E-17
7.049957E+03	3.923608E-15	8.472693E-17
7.059929E+03	3.928296E-15	8.492278E-17
7.069900E+03	3.938164E-15	8.522787E-17
7.079872E+03	3.953359E-15	8.564583E-17
7.089844E+03	3.973986E-15	8.617925E-17
7.099815E+03	3.999875E-15	8.682481E-17
7.109787E+03	4.030906E-15	8.758021E-17
7.119759E+03	4.066852E-15	8.844080E-17
7.129730E+03	4.107151E-15	8.939466E-17
7.139702E+03	4.151490E-15	9.043516E-17
7.149673E+03	4.199137E-15	9.154651E-17
7.159645E+03	4.249603E-15	9.271824E-17
7.169617E+03	4.302217E-15	9.393576E-17
7.179588E+03	4.356389E-15	9.518625E-17
7.189560E+03	4.411524E-15	9.645682E-17
7.199532E+03	4.467181E-15	9.773777E-17
7.209503E+03	4.523091E-15	9.902326E-17
7.219475E+03	4.578974E-15	1.003072E-16
7.229447E+03	4.634661E-15	1.015858E-16
7.239418E+03	4.690213E-15	1.028605E-16
7.249390E+03	4.745557E-15	1.041297E-16
7.259362E+03	4.800924E-15	1.053984E-16
7.269333E+03	4.856271E-15	1.066659E-16
7.279305E+03	4.911642E-15	1.079330E-16
7.289277E+03	4.966926E-15	1.091975E-16
7.299248E+03	5.022040E-15	1.104576E-16
7.309220E+03	5.076619E-15	1.117053E-16
7.319192E+03	5.130212E-15	1.129307E-16
7.329163E+03	5.182137E-15	1.141191E-16
7.339135E+03	5.231570E-15	1.152522E-16
7.349106E+03	5.277721E-15	1.163127E-16
7.359078E+03	5.319504E-15	1.172768E-16
7.369050E+03	5.356134E-15	1.181272E-16
7.379021E+03	5.386512E-15	1.188398E-16
7.388993E+03	5.410075E-15	1.194020E-16
7.398965E+03	5.426186E-15	1.197999E-16
7.408936E+03	5.434762E-15	1.200317E-16
7.418908E+03	5.435930E-15	1.201002E-16
7.428880E+03	5.430388E-15	1.200209E-16
7.438851E+03	5.419170E-15	1.198167E-16
7.448823E+03	5.403686E-15	1.195189E-16
7.458795E+03	5.385652E-15	1.191655E-16
7.468766E+03	5.367004E-15	1.187995E-16
7.478738E+03	5.349939E-15	1.184699E-16
7.488710E+03	5.336315E-15	1.182180E-16
7.498681E+03	5.328168E-15	1.180892E-16
7.508653E+03	5.327141E-15	1.181205E-16
7.518625E+03	5.334546E-15	1.183413E-16
7.528596E+03	5.351453E-15	1.187760E-16
7.538568E+03	5.378174E-15	1.194320E-16
7.548540E+03	5.414801E-15	1.203121E-16
7.558511E+03	5.460964E-15	1.214087E-16
7.568483E+03	5.515778E-15	1.227030E-16
7.578454E+03	5.577989E-15	1.241676E-16
7.588426E+03	5.646102E-15	1.257702E-16
7.598398E+03	5.718191E-15	1.274684E-16
7.608369E+03	5.792295E-15	1.292193E-16
7.618341E+03	5.866134E-15	1.309725E-16
7.628313E+03	5.937622E-15	1.326819E-16
7.638284E+03	6.004403E-15	1.342953E-16
7.648256E+03	6.064294E-15	1.357640E-16
7.658228E+03	6.115360E-15	1.370447E-16
7.668199E+03	6.155713E-15	1.380951E-16
7.678171E+03	6.183857E-15	1.388812E-16
7.688143E+03	6.198739E-15	1.393790E-16
7.698114E+03	6.199489E-15	1.395681E-16
7.708086E+03	6.185821E-15	1.394413E-16
7.718058E+03	6.157645E-15	1.389956E-16
7.728029E+03	6.115338E-15	1.382383E-16
7.738001E+03	6.059620E-15	1.371847E-16
