#wls	flux	fluxerr
1.600000E+03	2.863543E-16	2.020421E-16
1.640000E+03	2.936693E-16	2.041950E-16
1.680000E+03	3.013747E-16	2.063862E-16
1.720000E+03	3.095055E-16	2.086199E-16
1.760000E+03	3.180582E-16	2.108730E-16
1.800000E+03	3.270647E-16	2.131447E-16
1.840000E+03	3.365556E-16	2.154314E-16
1.880000E+03	3.465978E-16	2.177501E-16
1.920000E+03	3.571407E-16	2.200416E-16
1.960000E+03	3.682839E-16	2.223391E-16
2.000000E+03	3.800076E-16	2.245994E-16
2.040000E+03	3.924039E-16	2.268444E-16
2.080000E+03	4.055212E-16	2.290659E-16
2.120000E+03	4.194404E-16	2.312701E-16
2.160000E+03	4.343144E-16	2.334969E-16
2.200000E+03	4.502073E-16	2.357304E-16
2.240000E+03	4.673696E-16	2.380449E-16
2.280000E+03	4.858775E-16	2.404136E-16
2.320000E+03	5.059071E-16	2.428518E-16
2.360000E+03	5.274508E-16	2.452783E-16
2.400000E+03	5.503536E-16	2.475451E-16
2.440000E+03	5.745078E-16	2.495342E-16
2.480000E+03	5.997700E-16	2.511194E-16
2.520000E+03	6.259952E-16	2.521841E-16
2.560000E+03	6.529545E-16	2.525897E-16
2.600000E+03	6.803708E-16	2.521970E-16
2.640000E+03	7.080283E-16	2.509096E-16
2.680000E+03	7.355036E-16	2.485787E-16
2.720000E+03	7.624295E-16	2.451065E-16
2.760000E+03	7.883442E-16	2.403960E-16
2.800000E+03	8.126300E-16	2.343418E-16
2.840000E+03	8.348694E-16	2.269409E-16
2.880000E+03	8.544981E-16	2.181870E-16
2.920000E+03	8.711161E-16	2.081571E-16
2.960000E+03	8.845005E-16	1.969995E-16
3.000000E+03	8.943246E-16	1.848608E-16
3.010000E+03	8.962204E-16	1.816993E-16
3.020000E+03	8.978565E-16	1.784874E-16
3.030000E+03	8.992767E-16	1.752377E-16
3.040000E+03	9.004411E-16	1.719462E-16
3.050000E+03	9.013654E-16	1.686199E-16
3.060000E+03	9.020382E-16	1.652605E-16
3.070000E+03	9.024742E-16	1.618748E-16
3.080000E+03	9.026876E-16	1.584689E-16
3.090000E+03	9.026417E-16	1.550404E-16
3.100000E+03	9.023516E-16	1.515957E-16
3.110000E+03	9.018314E-16	1.481411E-16
3.120000E+03	9.010710E-16	1.446785E-16
3.130000E+03	9.000611E-16	1.412103E-16
3.140000E+03	8.988397E-16	1.377462E-16
3.150000E+03	8.973747E-16	1.342847E-16
3.160000E+03	8.956592E-16	1.308286E-16
3.170000E+03	8.937525E-16	1.273899E-16
3.180000E+03	8.916041E-16	1.239649E-16
3.190000E+03	8.892512E-16	1.205620E-16
3.200000E+03	8.866682E-16	1.171810E-16
3.210000E+03	8.838925E-16	1.138299E-16
3.220000E+03	8.809204E-16	1.105113E-16
3.230000E+03	8.777498E-16	1.072277E-16
3.240000E+03	8.743990E-16	1.039841E-16
3.250000E+03	8.708862E-16	1.007852E-16
3.260000E+03	8.671937E-16	9.763118E-17
3.270000E+03	8.633419E-16	9.452681E-17
3.280000E+03	8.593345E-16	9.147456E-17
3.290000E+03	8.551931E-16	8.847873E-17
3.300000E+03	8.509232E-16	8.554160E-17
3.310000E+03	8.465318E-16	8.266549E-17
3.320000E+03	8.420430E-16	7.985418E-17
3.330000E+03	8.374351E-16	7.710689E-17
3.340000E+03	8.327654E-16	7.443008E-17
3.350000E+03	8.280156E-16	7.182295E-17
3.360000E+03	8.231999E-16	6.928760E-17
3.370000E+03	8.183478E-16	6.682720E-17
3.380000E+03	8.134619E-16	6.444243E-17
3.390000E+03	8.085474E-16	6.213417E-17
3.400000E+03	8.036251E-16	5.990440E-17
3.410000E+03	7.987046E-16	5.775414E-17
3.420000E+03	7.938227E-16	5.568624E-17
3.430000E+03	7.889687E-16	5.370010E-17
3.440000E+03	7.841721E-16	5.179793E-17
3.450000E+03	7.794524E-16	4.998119E-17
3.460000E+03	7.748210E-16	4.825076E-17
3.470000E+03	7.703040E-16	4.660850E-17
3.480000E+03	7.659303E-16	4.505634E-17
3.490000E+03	7.617217E-16	4.359577E-17
3.500000E+03	7.576937E-16	4.222786E-17
3.510000E+03	7.538864E-16	4.095501E-17
3.520000E+03	7.503333E-16	3.977909E-17
3.530000E+03	7.470626E-16	3.870144E-17
3.540000E+03	7.441159E-16	3.772385E-17
3.550000E+03	7.415388E-16	3.684789E-17
3.560000E+03	7.393796E-16	3.607479E-17
3.570000E+03	7.376808E-16	3.540481E-17
3.580000E+03	7.364949E-16	3.483792E-17
3.590000E+03	7.358650E-16	3.437258E-17
3.600000E+03	7.358558E-16	3.400707E-17
3.610000E+03	7.365009E-16	3.373685E-17
3.620000E+03	7.378377E-16	3.355642E-17
3.630000E+03	7.398933E-16	3.345904E-17
3.640000E+03	7.427028E-16	3.343793E-17
3.650000E+03	7.463025E-16	3.348618E-17
3.660000E+03	7.507300E-16	3.359702E-17
3.670000E+03	7.560319E-16	3.376429E-17
3.680000E+03	7.622482E-16	3.398184E-17
3.690000E+03	7.694348E-16	3.424461E-17
3.700000E+03	7.776318E-16	3.454722E-17
3.710000E+03	7.869018E-16	3.488573E-17
3.720000E+03	7.972900E-16	3.525579E-17
3.730000E+03	8.088385E-16	3.565334E-17
3.740000E+03	8.216015E-16	3.607520E-17
3.750000E+03	8.356200E-16	3.651794E-17
3.760000E+03	8.509284E-16	3.697815E-17
3.770000E+03	8.675526E-16	3.745236E-17
3.780000E+03	8.855249E-16	3.793771E-17
3.790000E+03	9.048408E-16	3.843006E-17
3.800000E+03	9.254979E-16	3.892577E-17
3.810000E+03	9.474859E-16	3.942127E-17
3.820000E+03	9.707408E-16	3.991128E-17
3.830000E+03	9.952200E-16	4.039203E-17
3.840000E+03	1.020831E-15	4.085839E-17
3.850000E+03	1.047455E-15	4.130502E-17
3.860000E+03	1.074962E-15	4.172714E-17
3.870000E+03	1.103176E-15	4.211918E-17
3.880000E+03	1.131901E-15	4.247596E-17
3.890000E+03	1.160900E-15	4.279209E-17
3.900000E+03	1.189933E-15	4.306324E-17
3.910000E+03	1.218703E-15	4.328437E-17
3.920000E+03	1.246927E-15	4.345219E-17
3.930000E+03	1.274291E-15	4.356337E-17
3.940000E+03	1.300484E-15	4.361583E-17
3.950000E+03	1.325203E-15	4.360845E-17
3.960000E+03	1.348137E-15	4.354037E-17
3.970000E+03	1.369022E-15	4.341254E-17
3.980000E+03	1.387638E-15	4.322733E-17
3.990000E+03	1.403765E-15	4.298655E-17
4.000000E+03	1.417291E-15	4.269471E-17
4.010000E+03	1.428102E-15	4.235520E-17
4.020000E+03	1.436191E-15	4.197338E-17
4.030000E+03	1.441589E-15	4.155418E-17
4.040000E+03	1.444384E-15	4.110270E-17
4.050000E+03	1.444723E-15	4.062400E-17
4.060000E+03	1.442810E-15	4.012326E-17
4.070000E+03	1.438871E-15	3.960465E-17
4.080000E+03	1.433195E-15	3.907296E-17
4.090000E+03	1.426064E-15	3.853146E-17
4.100000E+03	1.417781E-15	3.798327E-17
4.110000E+03	1.408656E-15	3.743102E-17
4.120000E+03	1.399005E-15	3.687714E-17
4.130000E+03	1.389125E-15	3.632326E-17
4.140000E+03	1.379281E-15	3.577026E-17
4.150000E+03	1.369743E-15	3.521918E-17
4.160000E+03	1.360744E-15	3.467029E-17
4.170000E+03	1.352479E-15	3.412306E-17
4.180000E+03	1.345148E-15	3.357727E-17
4.190000E+03	1.338876E-15	3.303095E-17
4.200000E+03	1.333792E-15	3.248227E-17
4.210000E+03	1.329995E-15	3.192868E-17
4.220000E+03	1.327531E-15	3.136631E-17
4.230000E+03	1.326430E-15	3.079091E-17
4.240000E+03	1.326701E-15	3.019791E-17
4.250000E+03	1.328307E-15	2.958194E-17
4.260000E+03	1.331214E-15	2.893846E-17
4.270000E+03	1.335346E-15	2.826306E-17
4.280000E+03	1.340591E-15	2.755243E-17
4.290000E+03	1.346865E-15	2.680639E-17
4.300000E+03	1.354024E-15	2.602714E-17
4.310000E+03	1.361936E-15	2.522188E-17
4.320000E+03	1.370476E-15	2.440384E-17
4.330000E+03	1.379509E-15	2.359328E-17
4.340000E+03	1.388911E-15	2.281866E-17
4.350000E+03	1.398584E-15	2.211709E-17
4.360000E+03	1.408424E-15	2.153220E-17
4.370000E+03	1.418389E-15	2.111109E-17
4.380000E+03	1.428466E-15	2.089607E-17
4.390000E+03	1.438729E-15	2.091463E-17
4.400000E+03	1.449335E-15	2.116724E-17
4.410000E+03	1.460597E-15	2.162876E-17
4.420000E+03	1.472872E-15	2.225897E-17
4.430000E+03	1.486559E-15	2.301377E-17
4.440000E+03	1.502061E-15	2.385221E-17
4.450000E+03	1.519778E-15	2.474070E-17
4.460000E+03	1.540089E-15	2.565391E-17
4.470000E+03	1.563336E-15	2.657431E-17
4.480000E+03	1.589782E-15	2.749022E-17
4.490000E+03	1.619636E-15	2.839496E-17
4.500000E+03	1.653022E-15	2.928495E-17
4.510000E+03	1.689930E-15	3.015770E-17
4.520000E+03	1.730277E-15	3.101184E-17
4.530000E+03	1.773806E-15	3.184461E-17
4.540000E+03	1.820166E-15	3.265248E-17
4.550000E+03	1.868814E-15	3.342881E-17
4.560000E+03	1.919105E-15	3.416485E-17
4.570000E+03	1.970220E-15	3.484782E-17
4.580000E+03	2.021207E-15	3.546117E-17
4.590000E+03	2.071046E-15	3.598511E-17
4.600000E+03	2.118604E-15	3.639562E-17
4.610000E+03	2.162734E-15	3.666602E-17
4.620000E+03	2.202309E-15	3.676768E-17
4.630000E+03	2.236233E-15	3.667079E-17
4.640000E+03	2.263616E-15	3.634800E-17
4.650000E+03	2.283690E-15	3.577404E-17
4.660000E+03	2.295929E-15	3.492894E-17
4.670000E+03	2.300045E-15	3.379925E-17
4.680000E+03	2.296024E-15	3.238000E-17
4.690000E+03	2.284130E-15	3.067621E-17
4.700000E+03	2.264910E-15	2.870453E-17
4.710000E+03	2.239111E-15	2.649412E-17
4.720000E+03	2.207710E-15	2.409025E-17
4.730000E+03	2.171778E-15	2.155778E-17
4.740000E+03	2.132516E-15	1.899118E-17
4.750000E+03	2.091167E-15	1.652990E-17
4.760000E+03	2.048947E-15	1.438219E-17
4.770000E+03	2.007032E-15	1.284032E-17
4.780000E+03	1.966467E-15	1.221668E-17
4.790000E+03	1.928209E-15	1.260671E-17
4.800000E+03	1.893189E-15	1.374384E-17
4.810000E+03	1.862197E-15	1.527389E-17
4.820000E+03	1.835805E-15	1.694092E-17
4.830000E+03	1.814499E-15	1.859941E-17
4.840000E+03	1.798570E-15	2.017648E-17
4.850000E+03	1.788193E-15	2.164104E-17
4.860000E+03	1.783413E-15	2.298446E-17
4.870000E+03	1.784157E-15	2.420977E-17
4.880000E+03	1.790229E-15	2.532565E-17
4.890000E+03	1.801317E-15	2.634316E-17
4.900000E+03	1.816993E-15	2.727400E-17
4.910000E+03	1.836668E-15	2.812868E-17
4.920000E+03	1.859640E-15	2.891664E-17
4.930000E+03	1.885032E-15	2.964457E-17
4.940000E+03	1.911885E-15	3.031706E-17
4.950000E+03	1.939070E-15	3.093451E-17
4.960000E+03	1.965385E-15	3.149358E-17
4.970000E+03	1.989679E-15	3.198849E-17
4.980000E+03	2.010752E-15	3.240870E-17
4.990000E+03	2.027649E-15	3.274353E-17
5.000000E+03	2.039541E-15	3.298041E-17
5.010000E+03	2.045936E-15	3.310904E-17
5.020000E+03	2.046624E-15	3.312162E-17
5.030000E+03	2.041785E-15	3.301587E-17
5.040000E+03	2.031822E-15	3.279392E-17
5.050000E+03	2.017471E-15	3.246520E-17
5.060000E+03	1.999570E-15	3.204365E-17
5.070000E+03	1.979143E-15	3.154925E-17
5.080000E+03	1.957186E-15	3.100441E-17
5.090000E+03	1.934670E-15	3.043310E-17
5.100000E+03	1.912541E-15	2.986000E-17
5.110000E+03	1.891588E-15	2.930708E-17
5.120000E+03	1.872498E-15	2.879370E-17
5.130000E+03	1.855832E-15	2.833539E-17
5.140000E+03	1.842107E-15	2.794475E-17
5.150000E+03	1.831689E-15	2.762986E-17
5.160000E+03	1.824942E-15	2.739664E-17
5.170000E+03	1.822166E-15	2.724840E-17
5.180000E+03	1.823609E-15	2.718636E-17
5.190000E+03	1.829513E-15	2.721081E-17
5.200000E+03	1.840039E-15	2.732022E-17
5.210000E+03	1.855304E-15	2.751198E-17
5.220000E+03	1.875339E-15	2.778191E-17
5.230000E+03	1.900088E-15	2.812420E-17
5.240000E+03	1.929318E-15	2.853004E-17
5.250000E+03	1.962704E-15	2.898889E-17
5.260000E+03	1.999732E-15	2.948689E-17
5.270000E+03	2.039763E-15	3.000781E-17
5.280000E+03	2.081983E-15	3.053204E-17
5.290000E+03	2.125390E-15	3.103636E-17
5.300000E+03	2.168942E-15	3.149592E-17
5.310000E+03	2.211423E-15	3.188240E-17
5.320000E+03	2.251640E-15	3.216696E-17
5.330000E+03	2.288366E-15	3.231988E-17
5.340000E+03	2.320470E-15	3.231275E-17
5.350000E+03	2.346987E-15	3.211996E-17
5.360000E+03	2.367088E-15	3.171868E-17
5.370000E+03	2.380290E-15	3.109196E-17
5.380000E+03	2.386382E-15	3.022806E-17
5.390000E+03	2.385541E-15	2.912205E-17
5.400000E+03	2.378317E-15	2.777607E-17
5.410000E+03	2.365608E-15	2.619976E-17
5.420000E+03	2.348671E-15	2.441203E-17
5.430000E+03	2.329037E-15	2.244330E-17
5.440000E+03	2.308415E-15	2.034053E-17
5.450000E+03	2.288636E-15	1.817806E-17
5.460000E+03	2.271514E-15	1.607641E-17
5.470000E+03	2.258678E-15	1.423167E-17
5.480000E+03	2.251408E-15	1.293874E-17
5.490000E+03	2.250312E-15	1.253452E-17
5.500000E+03	2.254918E-15	1.316022E-17
5.510000E+03	2.263628E-15	1.458875E-17
5.520000E+03	2.274001E-15	1.646148E-17
5.530000E+03	2.283154E-15	1.848388E-17
5.540000E+03	2.288173E-15	2.045728E-17
5.550000E+03	2.286513E-15	2.225520E-17
5.560000E+03	2.276148E-15	2.379888E-17
5.570000E+03	2.255817E-15	2.504386E-17
5.580000E+03	2.225115E-15	2.597244E-17
5.590000E+03	2.184422E-15	2.658810E-17
5.600000E+03	2.134870E-15	2.691197E-17
5.610000E+03	2.078258E-15	2.697972E-17
5.620000E+03	2.016735E-15	2.683569E-17
5.630000E+03	1.952671E-15	2.652961E-17
5.640000E+03	1.888540E-15	2.611372E-17
5.650000E+03	1.826624E-15	2.563775E-17
5.660000E+03	1.769052E-15	2.514843E-17
5.670000E+03	1.717656E-15	2.468689E-17
5.680000E+03	1.673963E-15	2.428804E-17
5.690000E+03	1.639186E-15	2.398002E-17
5.700000E+03	1.614321E-15	2.378547E-17
5.710000E+03	1.600059E-15	2.372030E-17
5.720000E+03	1.596951E-15	2.379638E-17
5.730000E+03	1.605360E-15	2.402130E-17
5.740000E+03	1.625575E-15	2.440066E-17
5.750000E+03	1.657717E-15	2.493741E-17
5.760000E+03	1.701792E-15	2.563297E-17
5.770000E+03	1.757716E-15	2.648824E-17
5.780000E+03	1.825177E-15	2.750142E-17
5.790000E+03	1.903656E-15	2.866828E-17
5.800000E+03	1.992363E-15	2.998075E-17
5.810000E+03	2.090210E-15	3.142599E-17
5.820000E+03	2.195719E-15	3.298427E-17
5.830000E+03	2.307105E-15	3.462959E-17
5.840000E+03	2.422231E-15	3.632856E-17
5.850000E+03	2.538684E-15	3.804138E-17
5.860000E+03	2.653831E-15	3.972291E-17
5.870000E+03	2.765045E-15	4.132674E-17
5.880000E+03	2.869689E-15	4.280594E-17
5.890000E+03	2.965266E-15	4.411650E-17
5.900000E+03	3.049634E-15	4.522194E-17
5.910000E+03	3.121015E-15	4.609445E-17
5.920000E+03	3.178138E-15	4.671772E-17
5.930000E+03	3.220172E-15	4.708599E-17
5.940000E+03	3.246886E-15	4.720580E-17
5.950000E+03	3.258555E-15	4.709340E-17
5.960000E+03	3.255842E-15	4.677135E-17
5.970000E+03	3.239879E-15	4.626804E-17
5.980000E+03	3.212120E-15	4.561395E-17
5.990000E+03	3.174166E-15	4.483827E-17
6.000000E+03	3.127879E-15	4.396992E-17
6.010000E+03	3.075096E-15	4.303368E-17
6.020000E+03	3.017633E-15	4.205064E-17
6.030000E+03	2.957256E-15	4.103838E-17
6.040000E+03	2.895584E-15	4.001031E-17
6.050000E+03	2.833984E-15	3.897465E-17
6.060000E+03	2.773758E-15	3.793743E-17
6.070000E+03	2.715845E-15	3.689852E-17
6.080000E+03	2.661039E-15	3.585474E-17
6.090000E+03	2.609952E-15	3.479932E-17
6.100000E+03	2.562869E-15	3.371991E-17
6.110000E+03	2.520061E-15	3.260289E-17
6.120000E+03	2.481537E-15	3.143038E-17
6.130000E+03	2.447195E-15	3.018287E-17
6.140000E+03	2.416765E-15	2.883976E-17
6.150000E+03	2.389891E-15	2.738210E-17
6.160000E+03	2.366077E-15	2.579461E-17
6.170000E+03	2.344763E-15	2.407035E-17
6.180000E+03	2.325246E-15	2.221535E-17
6.190000E+03	2.306772E-15	2.025810E-17
6.200000E+03	2.288658E-15	1.826341E-17
6.210000E+03	2.270087E-15	1.634935E-17
6.220000E+03	2.250475E-15	1.471066E-17
6.230000E+03	2.229246E-15	1.361473E-17
6.240000E+03	2.206112E-15	1.331656E-17
6.250000E+03	2.181088E-15	1.384712E-17
6.260000E+03	2.154643E-15	1.495982E-17
6.270000E+03	2.127369E-15	1.635409E-17
6.280000E+03	2.100068E-15	1.780639E-17
6.290000E+03	2.073446E-15	1.918232E-17
6.300000E+03	2.048234E-15	2.041386E-17
6.310000E+03	2.025060E-15	2.147393E-17
6.320000E+03	2.004477E-15	2.235942E-17
6.330000E+03	1.986923E-15	2.307956E-17
6.340000E+03	1.972658E-15	2.364790E-17
6.350000E+03	1.961904E-15	2.407928E-17
6.360000E+03	1.954658E-15	2.438453E-17
6.370000E+03	1.950927E-15	2.457152E-17
6.380000E+03	1.950571E-15	2.464242E-17
6.390000E+03	1.953346E-15	2.459397E-17
6.400000E+03	1.959033E-15	2.441947E-17
6.410000E+03	1.967284E-15	2.410737E-17
6.420000E+03	1.977896E-15	2.364540E-17
6.430000E+03	1.990477E-15	2.301733E-17
6.440000E+03	2.004772E-15	2.220800E-17
6.450000E+03	2.020382E-15	2.120172E-17
6.460000E+03	2.037024E-15	1.998804E-17
6.470000E+03	2.054356E-15	1.856469E-17
6.480000E+03	2.072028E-15	1.694702E-17
6.490000E+03	2.089679E-15	1.518397E-17
6.500000E+03	2.106946E-15	1.338693E-17
6.510000E+03	2.123450E-15	1.177631E-17
6.520000E+03	2.138966E-15	1.072286E-17
6.530000E+03	2.153255E-15	1.064896E-17
6.540000E+03	2.166518E-15	1.165348E-17
6.550000E+03	2.179294E-15	1.340107E-17
6.560000E+03	2.192240E-15	1.550166E-17
6.570000E+03	2.206008E-15	1.769485E-17
6.580000E+03	2.221009E-15	1.983697E-17
6.590000E+03	2.237528E-15	2.185668E-17
6.600000E+03	2.255655E-15	2.372278E-17
6.610000E+03	2.275206E-15	2.542496E-17
6.620000E+03	2.295704E-15	2.696257E-17
6.630000E+03	2.316614E-15	2.834100E-17
6.640000E+03	2.337103E-15	2.956490E-17
6.650000E+03	2.356381E-15	3.063992E-17
6.660000E+03	2.373423E-15	3.156790E-17
6.670000E+03	2.387447E-15	3.235242E-17
6.680000E+03	2.397551E-15	3.299393E-17
6.690000E+03	2.403072E-15	3.349470E-17
6.700000E+03	2.403394E-15	3.385649E-17
6.710000E+03	2.398292E-15	3.408561E-17
6.720000E+03	2.387509E-15	3.418722E-17
6.730000E+03	2.371196E-15	3.417163E-17
6.740000E+03	2.349621E-15	3.405020E-17
6.750000E+03	2.323152E-15	3.383495E-17
6.760000E+03	2.292460E-15	3.354144E-17
6.770000E+03	2.258217E-15	3.318427E-17
6.780000E+03	2.221255E-15	3.277926E-17
6.790000E+03	2.182345E-15	3.234022E-17
6.800000E+03	2.142425E-15	3.188245E-17
6.810000E+03	2.102353E-15	3.141908E-17
6.820000E+03	2.062919E-15	3.096156E-17
6.830000E+03	2.024906E-15	3.052062E-17
6.840000E+03	1.989032E-15	3.010574E-17
6.850000E+03	1.956010E-15	2.972615E-17
6.860000E+03	1.926303E-15	2.938728E-17
6.870000E+03	1.900457E-15	2.909595E-17
6.880000E+03	1.878865E-15	2.885681E-17
6.890000E+03	1.861793E-15	2.867289E-17
6.900000E+03	1.849483E-15	2.854716E-17
6.910000E+03	1.842050E-15	2.848103E-17
6.920000E+03	1.839476E-15	2.847431E-17
6.930000E+03	1.841711E-15	2.852671E-17
6.940000E+03	1.848565E-15	2.863623E-17
6.950000E+03	1.859706E-15	2.879903E-17
6.960000E+03	1.874791E-15	2.901143E-17
6.970000E+03	1.893230E-15	2.926623E-17
6.980000E+03	1.914464E-15	2.955688E-17
6.990000E+03	1.937702E-15	2.987339E-17
7.000000E+03	1.962217E-15	3.020684E-17
7.010000E+03	1.987088E-15	3.054528E-17
7.020000E+03	2.011522E-15	3.087858E-17
7.030000E+03	2.034635E-15	3.119496E-17
7.040000E+03	2.055641E-15	3.148370E-17
7.050000E+03	2.073888E-15	3.173572E-17
7.060000E+03	2.088774E-15	3.194227E-17
7.070000E+03	2.099896E-15	3.209706E-17
7.080000E+03	2.107059E-15	3.219668E-17
7.090000E+03	2.110204E-15	3.223944E-17
7.100000E+03	2.109403E-15	3.222538E-17
7.110000E+03	2.104957E-15	3.215796E-17
7.120000E+03	2.097256E-15	3.204187E-17
7.130000E+03	2.086783E-15	3.188321E-17
7.140000E+03	2.074043E-15	3.168844E-17
7.150000E+03	2.059691E-15	3.146637E-17
7.160000E+03	2.044253E-15	3.122388E-17
7.170000E+03	2.028259E-15	3.096809E-17
7.180000E+03	2.012226E-15	3.070593E-17
7.190000E+03	1.996506E-15	3.044210E-17
7.200000E+03	1.981408E-15	3.018073E-17
7.210000E+03	1.967225E-15	2.992597E-17
7.220000E+03	1.953951E-15	2.967765E-17
7.230000E+03	1.941735E-15	2.943821E-17
7.240000E+03	1.930488E-15	2.920671E-17
7.250000E+03	1.920055E-15	2.898147E-17
7.260000E+03	1.910317E-15	2.876156E-17
7.270000E+03	1.901132E-15	2.854580E-17
7.280000E+03	1.892270E-15	2.833183E-17
7.290000E+03	1.883515E-15	2.811743E-17
7.300000E+03	1.874803E-15	2.790256E-17
7.310000E+03	1.865989E-15	2.768579E-17
7.320000E+03	1.857016E-15	2.746678E-17
7.330000E+03	1.847919E-15	2.724621E-17
7.340000E+03	1.838612E-15	2.702276E-17
7.350000E+03	1.829287E-15	2.679887E-17
7.360000E+03	1.819952E-15	2.657406E-17
7.370000E+03	1.810704E-15	2.634878E-17
7.380000E+03	1.801626E-15	2.612305E-17
7.390000E+03	1.792737E-15	2.589552E-17
7.400000E+03	1.784059E-15	2.566449E-17
7.410000E+03	1.775567E-15	2.542707E-17
7.420000E+03	1.767146E-15	2.517850E-17
7.430000E+03	1.758672E-15	2.491332E-17
7.440000E+03	1.749941E-15	2.462428E-17
7.450000E+03	1.740873E-15	2.430534E-17
7.460000E+03	1.731172E-15	2.394689E-17
7.470000E+03	1.720700E-15	2.354117E-17
7.480000E+03	1.709260E-15	2.307923E-17
7.490000E+03	1.696730E-15	2.255320E-17
7.500000E+03	1.682962E-15	2.195517E-17
7.510000E+03	1.667959E-15	2.128015E-17
7.520000E+03	1.651797E-15	2.052583E-17
7.530000E+03	1.634514E-15	1.969241E-17
7.540000E+03	1.616418E-15	1.878802E-17
7.550000E+03	1.597683E-15	1.782603E-17
7.560000E+03	1.578611E-15	1.683109E-17
7.570000E+03	1.559604E-15	1.584216E-17
7.580000E+03	1.540916E-15	1.491315E-17
7.590000E+03	1.522865E-15	1.411637E-17
7.600000E+03	1.505809E-15	1.353688E-17
7.610000E+03	1.489912E-15	1.325275E-17
7.620000E+03	1.475389E-15	1.329958E-17
7.630000E+03	1.462536E-15	1.363335E-17
7.640000E+03	1.451583E-15	1.416768E-17
7.650000E+03	1.442649E-15	1.481556E-17
7.660000E+03	1.435856E-15	1.550790E-17
7.670000E+03	1.431217E-15	1.619623E-17
7.680000E+03	1.428613E-15	1.684945E-17
7.690000E+03	1.428047E-15	1.745225E-17
7.700000E+03	1.429249E-15	1.799616E-17
7.710000E+03	1.432125E-15	1.848136E-17
7.720000E+03	1.436323E-15	1.890865E-17
7.730000E+03	1.441684E-15	1.928332E-17
7.740000E+03	1.447848E-15	1.960872E-17
7.750000E+03	1.454522E-15	1.988893E-17
7.760000E+03	1.461500E-15	2.012857E-17
