#wls	flux	fluxerr
1.600000E+03	2.369538E-16	1.672253E-16
1.640000E+03	2.425531E-16	1.686975E-16
1.680000E+03	2.484463E-16	1.701917E-16
1.720000E+03	2.545977E-16	1.716694E-16
1.760000E+03	2.610666E-16	1.731561E-16
1.800000E+03	2.678136E-16	1.746101E-16
1.840000E+03	2.749288E-16	1.760737E-16
1.880000E+03	2.824020E-16	1.775219E-16
1.920000E+03	2.902535E-16	1.789482E-16
1.960000E+03	2.985007E-16	1.803431E-16
2.000000E+03	3.071916E-16	1.817137E-16
2.040000E+03	3.164047E-16	1.830821E-16
2.080000E+03	3.261115E-16	1.844051E-16
2.120000E+03	3.364489E-16	1.857317E-16
2.160000E+03	3.474786E-16	1.870629E-16
2.200000E+03	3.592883E-16	1.884090E-16
2.240000E+03	3.719893E-16	1.897870E-16
2.280000E+03	3.856448E-16	1.911830E-16
2.320000E+03	4.003008E-16	1.925708E-16
2.360000E+03	4.160176E-16	1.939275E-16
2.400000E+03	4.326249E-16	1.951223E-16
2.440000E+03	4.500980E-16	1.960982E-16
2.480000E+03	4.682124E-16	1.967163E-16
2.520000E+03	4.868822E-16	1.969086E-16
2.560000E+03	5.058523E-16	1.965482E-16
2.600000E+03	5.249325E-16	1.955505E-16
2.640000E+03	5.438618E-16	1.938205E-16
2.680000E+03	5.624050E-16	1.912920E-16
2.720000E+03	5.801316E-16	1.878542E-16
2.760000E+03	5.967678E-16	1.834769E-16
2.800000E+03	6.119164E-16	1.781160E-16
2.840000E+03	6.251905E-16	1.717611E-16
2.880000E+03	6.362205E-16	1.644355E-16
2.920000E+03	6.447678E-16	1.562226E-16
2.960000E+03	6.506386E-16	1.472346E-16
3.000000E+03	6.537137E-16	1.376141E-16
3.010000E+03	6.540595E-16	1.351335E-16
3.020000E+03	6.542221E-16	1.326251E-16
3.030000E+03	6.541952E-16	1.300905E-16
3.040000E+03	6.540174E-16	1.275402E-16
3.050000E+03	6.536596E-16	1.249710E-16
3.060000E+03	6.531374E-16	1.223886E-16
3.070000E+03	6.524237E-16	1.197906E-16
3.080000E+03	6.515762E-16	1.171903E-16
3.090000E+03	6.505470E-16	1.145814E-16
3.100000E+03	6.493519E-16	1.119693E-16
3.110000E+03	6.480059E-16	1.093592E-16
3.120000E+03	6.465042E-16	1.067526E-16
3.130000E+03	6.448615E-16	1.041543E-16
3.140000E+03	6.430548E-16	1.015627E-16
3.150000E+03	6.411180E-16	9.898561E-17
3.160000E+03	6.390474E-16	9.642446E-17
3.170000E+03	6.368576E-16	9.388344E-17
3.180000E+03	6.345282E-16	9.136150E-17
3.190000E+03	6.320751E-16	8.886288E-17
3.200000E+03	6.295135E-16	8.639155E-17
3.210000E+03	6.268423E-16	8.394900E-17
3.220000E+03	6.240771E-16	8.153889E-17
3.230000E+03	6.212174E-16	7.916264E-17
3.240000E+03	6.182794E-16	7.682364E-17
3.250000E+03	6.152637E-16	7.452323E-17
3.260000E+03	6.121722E-16	7.226278E-17
3.270000E+03	6.090220E-16	7.004540E-17
3.280000E+03	6.058161E-16	6.787236E-17
3.290000E+03	6.025585E-16	6.574497E-17
3.300000E+03	5.992807E-16	6.366739E-17
3.310000E+03	5.959742E-16	6.163922E-17
3.320000E+03	5.926452E-16	5.966164E-17
3.330000E+03	5.893010E-16	5.773585E-17
3.340000E+03	5.859741E-16	5.586531E-17
3.350000E+03	5.826487E-16	5.404869E-17
3.360000E+03	5.793466E-16	5.228820E-17
3.370000E+03	5.760786E-16	5.058482E-17
3.380000E+03	5.728455E-16	4.893861E-17
3.390000E+03	5.696608E-16	4.735069E-17
3.400000E+03	5.665495E-16	4.582300E-17
3.410000E+03	5.634963E-16	4.435409E-17
3.420000E+03	5.605389E-16	4.294678E-17
3.430000E+03	5.576665E-16	4.159993E-17
3.440000E+03	5.549093E-16	4.031559E-17
3.450000E+03	5.522613E-16	3.909301E-17
3.460000E+03	5.497559E-16	3.793425E-17
3.470000E+03	5.473917E-16	3.683888E-17
3.480000E+03	5.451965E-16	3.580839E-17
3.490000E+03	5.431740E-16	3.484261E-17
3.500000E+03	5.413559E-16	3.394309E-17
3.510000E+03	5.397505E-16	3.310977E-17
3.520000E+03	5.383849E-16	3.234364E-17
3.530000E+03	5.372798E-16	3.164509E-17
3.540000E+03	5.364578E-16	3.101441E-17
3.550000E+03	5.359503E-16	3.045214E-17
3.560000E+03	5.357675E-16	2.995726E-17
3.570000E+03	5.359430E-16	2.952973E-17
3.580000E+03	5.365100E-16	2.916908E-17
3.590000E+03	5.374945E-16	2.887393E-17
3.600000E+03	5.389215E-16	2.864244E-17
3.610000E+03	5.408157E-16	2.847224E-17
3.620000E+03	5.432075E-16	2.836087E-17
3.630000E+03	5.461263E-16	2.830547E-17
3.640000E+03	5.495805E-16	2.830182E-17
3.650000E+03	5.536052E-16	2.834690E-17
3.660000E+03	5.582146E-16	2.843653E-17
3.670000E+03	5.634492E-16	2.856781E-17
3.680000E+03	5.693287E-16	2.873685E-17
3.690000E+03	5.758787E-16	2.894012E-17
3.700000E+03	5.831301E-16	2.917444E-17
3.710000E+03	5.911060E-16	2.943640E-17
3.720000E+03	5.998406E-16	2.972325E-17
3.730000E+03	6.093456E-16	3.003128E-17
3.740000E+03	6.196499E-16	3.035778E-17
3.750000E+03	6.307714E-16	3.069964E-17
3.760000E+03	6.427306E-16	3.105403E-17
3.770000E+03	6.555287E-16	3.141734E-17
3.780000E+03	6.691741E-16	3.178649E-17
3.790000E+03	6.836605E-16	3.215792E-17
3.800000E+03	6.989803E-16	3.252820E-17
3.810000E+03	7.151015E-16	3.289309E-17
3.820000E+03	7.320104E-16	3.324948E-17
3.830000E+03	7.496446E-16	3.359244E-17
3.840000E+03	7.679581E-16	3.391827E-17
3.850000E+03	7.868686E-16	3.422218E-17
3.860000E+03	8.063103E-16	3.450074E-17
3.870000E+03	8.261638E-16	3.474890E-17
3.880000E+03	8.463183E-16	3.496280E-17
3.890000E+03	8.666579E-16	3.513920E-17
3.900000E+03	8.870292E-16	3.527426E-17
3.910000E+03	9.072842E-16	3.536533E-17
3.920000E+03	9.272662E-16	3.541037E-17
3.930000E+03	9.467954E-16	3.540745E-17
3.940000E+03	9.657155E-16	3.535645E-17
3.950000E+03	9.838542E-16	3.525747E-17
3.960000E+03	1.001035E-15	3.511125E-17
3.970000E+03	1.017119E-15	3.492041E-17
3.980000E+03	1.031962E-15	3.468780E-17
3.990000E+03	1.045450E-15	3.441739E-17
4.000000E+03	1.057470E-15	3.411315E-17
4.010000E+03	1.067954E-15	3.378018E-17
4.020000E+03	1.076852E-15	3.342356E-17
4.030000E+03	1.084144E-15	3.304844E-17
4.040000E+03	1.089859E-15	3.266043E-17
4.050000E+03	1.094019E-15	3.226363E-17
4.060000E+03	1.096710E-15	3.186281E-17
4.070000E+03	1.098018E-15	3.146128E-17
4.080000E+03	1.098071E-15	3.106221E-17
4.090000E+03	1.097007E-15	3.066774E-17
4.100000E+03	1.094971E-15	3.027906E-17
4.110000E+03	1.092146E-15	2.989746E-17
4.120000E+03	1.088694E-15	2.952281E-17
4.130000E+03	1.084788E-15	2.915474E-17
4.140000E+03	1.080599E-15	2.879241E-17
4.150000E+03	1.076304E-15	2.843488E-17
4.160000E+03	1.072048E-15	2.808038E-17
4.170000E+03	1.067986E-15	2.772743E-17
4.180000E+03	1.064241E-15	2.737385E-17
4.190000E+03	1.060920E-15	2.701732E-17
4.200000E+03	1.058142E-15	2.665613E-17
4.210000E+03	1.055982E-15	2.628780E-17
4.220000E+03	1.054499E-15	2.590989E-17
4.230000E+03	1.053752E-15	2.552057E-17
4.240000E+03	1.053759E-15	2.511757E-17
4.250000E+03	1.054551E-15	2.469979E-17
4.260000E+03	1.056125E-15	2.426639E-17
4.270000E+03	1.058468E-15	2.381753E-17
4.280000E+03	1.061565E-15	2.335492E-17
4.290000E+03	1.065372E-15	2.288161E-17
4.300000E+03	1.069860E-15	2.240315E-17
4.310000E+03	1.074967E-15	2.192703E-17
4.320000E+03	1.080656E-15	2.146406E-17
4.330000E+03	1.086875E-15	2.102751E-17
4.340000E+03	1.093586E-15	2.063343E-17
4.350000E+03	1.100740E-15	2.029941E-17
4.360000E+03	1.108331E-15	2.004419E-17
4.370000E+03	1.116371E-15	1.988527E-17
4.380000E+03	1.124922E-15	1.983718E-17
4.390000E+03	1.134060E-15	1.990835E-17
4.400000E+03	1.143896E-15	2.009948E-17
4.410000E+03	1.154603E-15	2.040417E-17
4.420000E+03	1.166342E-15	2.080971E-17
4.430000E+03	1.179303E-15	2.130044E-17
4.440000E+03	1.193681E-15	2.185957E-17
4.450000E+03	1.209640E-15	2.247048E-17
4.460000E+03	1.227352E-15	2.311856E-17
4.470000E+03	1.246961E-15	2.379131E-17
4.480000E+03	1.268543E-15	2.447777E-17
4.490000E+03	1.292176E-15	2.516966E-17
4.500000E+03	1.317841E-15	2.585933E-17
4.510000E+03	1.345495E-15	2.654069E-17
4.520000E+03	1.375016E-15	2.720785E-17
4.530000E+03	1.406187E-15	2.785429E-17
4.540000E+03	1.438751E-15	2.847363E-17
4.550000E+03	1.472349E-15	2.905794E-17
4.560000E+03	1.506557E-15	2.959813E-17
4.570000E+03	1.540869E-15	3.008319E-17
4.580000E+03	1.574729E-15	3.050055E-17
4.590000E+03	1.607518E-15	3.083558E-17
4.600000E+03	1.638601E-15	3.107227E-17
4.610000E+03	1.667338E-15	3.119346E-17
4.620000E+03	1.693089E-15	3.118112E-17
4.630000E+03	1.715275E-15	3.101777E-17
4.640000E+03	1.733389E-15	3.068727E-17
4.650000E+03	1.747036E-15	3.017625E-17
4.660000E+03	1.755897E-15	2.947423E-17
4.670000E+03	1.759836E-15	2.857666E-17
4.680000E+03	1.758849E-15	2.748499E-17
4.690000E+03	1.753100E-15	2.620862E-17
4.700000E+03	1.742836E-15	2.476503E-17
4.710000E+03	1.728489E-15	2.318324E-17
4.720000E+03	1.710544E-15	2.150447E-17
4.730000E+03	1.689618E-15	1.978648E-17
4.740000E+03	1.666385E-15	1.810680E-17
4.750000E+03	1.641594E-15	1.656663E-17
4.760000E+03	1.615985E-15	1.528902E-17
4.770000E+03	1.590305E-15	1.440473E-17
4.780000E+03	1.565269E-15	1.401567E-17
4.790000E+03	1.541518E-15	1.414255E-17
4.800000E+03	1.519633E-15	1.470306E-17
4.810000E+03	1.500083E-15	1.556556E-17
4.820000E+03	1.483256E-15	1.660255E-17
4.830000E+03	1.469494E-15	1.771626E-17
4.840000E+03	1.459046E-15	1.884123E-17
4.850000E+03	1.452067E-15	1.993772E-17
4.860000E+03	1.448672E-15	2.098451E-17
4.870000E+03	1.448836E-15	2.197118E-17
4.880000E+03	1.452505E-15	2.289504E-17
4.890000E+03	1.459513E-15	2.375683E-17
4.900000E+03	1.469606E-15	2.455912E-17
4.910000E+03	1.482440E-15	2.530497E-17
4.920000E+03	1.497600E-15	2.599744E-17
4.930000E+03	1.514558E-15	2.663834E-17
4.940000E+03	1.532741E-15	2.722890E-17
4.950000E+03	1.551501E-15	2.776899E-17
4.960000E+03	1.570167E-15	2.825757E-17
4.970000E+03	1.588043E-15	2.869232E-17
4.980000E+03	1.604438E-15	2.906980E-17
4.990000E+03	1.618768E-15	2.938693E-17
5.000000E+03	1.630493E-15	2.963976E-17
5.010000E+03	1.639218E-15	2.982509E-17
5.020000E+03	1.644695E-15	2.994078E-17
5.030000E+03	1.646856E-15	2.998652E-17
5.040000E+03	1.645781E-15	2.996371E-17
5.050000E+03	1.641687E-15	2.987576E-17
5.060000E+03	1.634956E-15	2.972893E-17
5.070000E+03	1.626057E-15	2.953140E-17
5.080000E+03	1.615515E-15	2.929285E-17
5.090000E+03	1.603925E-15	2.902487E-17
5.100000E+03	1.591876E-15	2.873945E-17
5.110000E+03	1.579940E-15	2.844878E-17
5.120000E+03	1.568642E-15	2.816435E-17
5.130000E+03	1.558504E-15	2.789764E-17
5.140000E+03	1.549921E-15	2.765764E-17
5.150000E+03	1.543306E-15	2.745331E-17
5.160000E+03	1.538983E-15	2.729158E-17
5.170000E+03	1.537208E-15	2.717759E-17
5.180000E+03	1.538195E-15	2.711523E-17
5.190000E+03	1.542118E-15	2.710707E-17
5.200000E+03	1.549050E-15	2.715337E-17
5.210000E+03	1.559049E-15	2.725360E-17
5.220000E+03	1.572094E-15	2.740531E-17
5.230000E+03	1.588095E-15	2.760440E-17
5.240000E+03	1.606875E-15	2.784466E-17
5.250000E+03	1.628206E-15	2.811861E-17
5.260000E+03	1.651738E-15	2.841601E-17
5.270000E+03	1.677098E-15	2.872581E-17
5.280000E+03	1.703776E-15	2.903395E-17
5.290000E+03	1.731240E-15	2.932544E-17
5.300000E+03	1.758889E-15	2.958347E-17
5.310000E+03	1.786049E-15	2.978941E-17
5.320000E+03	1.812102E-15	2.992499E-17
5.330000E+03	1.836377E-15	2.997058E-17
5.340000E+03	1.858284E-15	2.990759E-17
5.350000E+03	1.877328E-15	2.971903E-17
5.360000E+03	1.893091E-15	2.938946E-17
5.370000E+03	1.905305E-15	2.890694E-17
5.380000E+03	1.913845E-15	2.826342E-17
5.390000E+03	1.918785E-15	2.745676E-17
5.400000E+03	1.920335E-15	2.649082E-17
5.410000E+03	1.918877E-15	2.537769E-17
5.420000E+03	1.914924E-15	2.413924E-17
5.430000E+03	1.909087E-15	2.280938E-17
5.440000E+03	1.902009E-15	2.143689E-17
5.450000E+03	1.894325E-15	2.008927E-17
5.460000E+03	1.886643E-15	1.885591E-17
5.470000E+03	1.879404E-15	1.784572E-17
5.480000E+03	1.872889E-15	1.717543E-17
5.490000E+03	1.867076E-15	1.693959E-17
5.500000E+03	1.861708E-15	1.716761E-17
5.510000E+03	1.856150E-15	1.779593E-17
5.520000E+03	1.849537E-15	1.870709E-17
5.530000E+03	1.840934E-15	1.977200E-17
5.540000E+03	1.829369E-15	2.087525E-17
5.550000E+03	1.813985E-15	2.192582E-17
5.560000E+03	1.794195E-15	2.285887E-17
5.570000E+03	1.769643E-15	2.363194E-17
5.580000E+03	1.740321E-15	2.422266E-17
5.590000E+03	1.706562E-15	2.462524E-17
5.600000E+03	1.669017E-15	2.484740E-17
5.610000E+03	1.628600E-15	2.490734E-17
5.620000E+03	1.586424E-15	2.483066E-17
5.630000E+03	1.543719E-15	2.464763E-17
5.640000E+03	1.501756E-15	2.439056E-17
5.650000E+03	1.461780E-15	2.409177E-17
5.660000E+03	1.424962E-15	2.378196E-17
5.670000E+03	1.392371E-15	2.348933E-17
5.680000E+03	1.364917E-15	2.323832E-17
5.690000E+03	1.343378E-15	2.304984E-17
5.700000E+03	1.328457E-15	2.294236E-17
5.710000E+03	1.320658E-15	2.292980E-17
5.720000E+03	1.320469E-15	2.302479E-17
5.730000E+03	1.328207E-15	2.323619E-17
5.740000E+03	1.344194E-15	2.357232E-17
5.750000E+03	1.368592E-15	2.403817E-17
5.760000E+03	1.401566E-15	2.463848E-17
5.770000E+03	1.443131E-15	2.537503E-17
5.780000E+03	1.493185E-15	2.624726E-17
5.790000E+03	1.551510E-15	2.725238E-17
5.800000E+03	1.617720E-15	2.838419E-17
5.810000E+03	1.691189E-15	2.963188E-17
5.820000E+03	1.771077E-15	3.098027E-17
5.830000E+03	1.856315E-15	3.240955E-17
5.840000E+03	1.945544E-15	3.389423E-17
5.850000E+03	2.037208E-15	3.540490E-17
5.860000E+03	2.129531E-15	3.690811E-17
5.870000E+03	2.220611E-15	3.836847E-17
5.880000E+03	2.308398E-15	3.974874E-17
5.890000E+03	2.390954E-15	4.101482E-17
5.900000E+03	2.466402E-15	4.213520E-17
5.910000E+03	2.533064E-15	4.308361E-17
5.920000E+03	2.589550E-15	4.384049E-17
5.930000E+03	2.634823E-15	4.439376E-17
5.940000E+03	2.668276E-15	4.473966E-17
5.950000E+03	2.689691E-15	4.488129E-17
5.960000E+03	2.699256E-15	4.482822E-17
5.970000E+03	2.697565E-15	4.459572E-17
5.980000E+03	2.685531E-15	4.420274E-17
5.990000E+03	2.664223E-15	4.366875E-17
6.000000E+03	2.635009E-15	4.301599E-17
6.010000E+03	2.599328E-15	4.226555E-17
6.020000E+03	2.558576E-15	4.143578E-17
6.030000E+03	2.514182E-15	4.054362E-17
6.040000E+03	2.467515E-15	3.960341E-17
6.050000E+03	2.419697E-15	3.862415E-17
6.060000E+03	2.371855E-15	3.761374E-17
6.070000E+03	2.324830E-15	3.657462E-17
6.080000E+03	2.279357E-15	3.550684E-17
6.090000E+03	2.235978E-15	3.440690E-17
6.100000E+03	2.195139E-15	3.326952E-17
6.110000E+03	2.157083E-15	3.208646E-17
6.120000E+03	2.121928E-15	3.084818E-17
6.130000E+03	2.089680E-15	2.954481E-17
6.140000E+03	2.060246E-15	2.816745E-17
6.150000E+03	2.033425E-15	2.670952E-17
6.160000E+03	2.008976E-15	2.516983E-17
6.170000E+03	1.986577E-15	2.355505E-17
6.180000E+03	1.965976E-15	2.188555E-17
6.190000E+03	1.946796E-15	2.019869E-17
6.200000E+03	1.928739E-15	1.855837E-17
6.210000E+03	1.911476E-15	1.706106E-17
6.220000E+03	1.894722E-15	1.583866E-17
6.230000E+03	1.878230E-15	1.504286E-17
6.240000E+03	1.861853E-15	1.479823E-17
6.250000E+03	1.845539E-15	1.511702E-17
6.260000E+03	1.829286E-15	1.587564E-17
6.270000E+03	1.813217E-15	1.690664E-17
6.280000E+03	1.797515E-15	1.805954E-17
6.290000E+03	1.782382E-15	1.922306E-17
6.300000E+03	1.768043E-15	2.032448E-17
6.310000E+03	1.754746E-15	2.132103E-17
6.320000E+03	1.742731E-15	2.219042E-17
6.330000E+03	1.732184E-15	2.292318E-17
6.340000E+03	1.723284E-15	2.351793E-17
6.350000E+03	1.716146E-15	2.397697E-17
6.360000E+03	1.710888E-15	2.430461E-17
6.370000E+03	1.707542E-15	2.450412E-17
6.380000E+03	1.706116E-15	2.457764E-17
6.390000E+03	1.706584E-15	2.452525E-17
6.400000E+03	1.708907E-15	2.434519E-17
6.410000E+03	1.712963E-15	2.403308E-17
6.420000E+03	1.718631E-15	2.358356E-17
6.430000E+03	1.725764E-15	2.299107E-17
6.440000E+03	1.734222E-15	2.225171E-17
6.450000E+03	1.743748E-15	2.136394E-17
6.460000E+03	1.754220E-15	2.033509E-17
6.470000E+03	1.765384E-15	1.918267E-17
6.480000E+03	1.777029E-15	1.794334E-17
6.490000E+03	1.788998E-15	1.668201E-17
6.500000E+03	1.801013E-15	1.550077E-17
6.510000E+03	1.812978E-15	1.454797E-17
6.520000E+03	1.824708E-15	1.400211E-17
6.530000E+03	1.836123E-15	1.402005E-17
6.540000E+03	1.847311E-15	1.463913E-17
6.550000E+03	1.858466E-15	1.574965E-17
6.560000E+03	1.869842E-15	1.718713E-17
6.570000E+03	1.881671E-15	1.879926E-17
6.580000E+03	1.894132E-15	2.047130E-17
6.590000E+03	1.907281E-15	2.212527E-17
6.600000E+03	1.921152E-15	2.371240E-17
6.610000E+03	1.935541E-15	2.520187E-17
6.620000E+03	1.950211E-15	2.657639E-17
6.630000E+03	1.964755E-15	2.782569E-17
6.640000E+03	1.978738E-15	2.894506E-17
6.650000E+03	1.991599E-15	2.993179E-17
6.660000E+03	2.002770E-15	3.078535E-17
6.670000E+03	2.011718E-15	3.150701E-17
6.680000E+03	2.017878E-15	3.209818E-17
6.690000E+03	2.020781E-15	3.256191E-17
6.700000E+03	2.020053E-15	3.290259E-17
6.710000E+03	2.015466E-15	3.312660E-17
6.720000E+03	2.006861E-15	3.324084E-17
6.730000E+03	1.994245E-15	3.325424E-17
6.740000E+03	1.977767E-15	3.317713E-17
6.750000E+03	1.957703E-15	3.302095E-17
6.760000E+03	1.934446E-15	3.279796E-17
6.770000E+03	1.908516E-15	3.252136E-17
6.780000E+03	1.880448E-15	3.220328E-17
6.790000E+03	1.850889E-15	3.185653E-17
6.800000E+03	1.820424E-15	3.149169E-17
6.810000E+03	1.789767E-15	3.112052E-17
6.820000E+03	1.759560E-15	3.075263E-17
6.830000E+03	1.730383E-15	3.039604E-17
6.840000E+03	1.702809E-15	3.005813E-17
6.850000E+03	1.677381E-15	2.974572E-17
6.860000E+03	1.654527E-15	2.946365E-17
6.870000E+03	1.634663E-15	2.921688E-17
6.880000E+03	1.618081E-15	2.900854E-17
6.890000E+03	1.605054E-15	2.884204E-17
6.900000E+03	1.595752E-15	2.871956E-17
6.910000E+03	1.590243E-15	2.864208E-17
6.920000E+03	1.588599E-15	2.861130E-17
6.930000E+03	1.590703E-15	2.862618E-17
6.940000E+03	1.596409E-15	2.868577E-17
6.950000E+03	1.605548E-15	2.878922E-17
6.960000E+03	1.617755E-15	2.893269E-17
6.970000E+03	1.632698E-15	2.911332E-17
6.980000E+03	1.649853E-15	2.932519E-17
6.990000E+03	1.668716E-15	2.956292E-17
7.000000E+03	1.688699E-15	2.981971E-17
7.010000E+03	1.709207E-15	3.008860E-17
7.020000E+03	1.729534E-15	3.036051E-17
7.030000E+03	1.749109E-15	3.062838E-17
7.040000E+03	1.767299E-15	3.088364E-17
7.050000E+03	1.783530E-15	3.111820E-17
7.060000E+03	1.797447E-15	3.132714E-17
7.070000E+03	1.808599E-15	3.150317E-17
7.080000E+03	1.816820E-15	3.164324E-17
7.090000E+03	1.821968E-15	3.174398E-17
7.100000E+03	1.824095E-15	3.180461E-17
7.110000E+03	1.823297E-15	3.182455E-17
7.120000E+03	1.819838E-15	3.180561E-17
7.130000E+03	1.813993E-15	3.174939E-17
7.140000E+03	1.806163E-15	3.165951E-17
7.150000E+03	1.796746E-15	3.153954E-17
7.160000E+03	1.786113E-15	3.139275E-17
7.170000E+03	1.774725E-15	3.122444E-17
7.180000E+03	1.762874E-15	3.103742E-17
7.190000E+03	1.750876E-15	3.083556E-17
7.200000E+03	1.739062E-15	3.062372E-17
7.210000E+03	1.727598E-15	3.040454E-17
7.220000E+03	1.716621E-15	3.018089E-17
7.230000E+03	1.706212E-15	2.995519E-17
7.240000E+03	1.696427E-15	2.972997E-17
7.250000E+03	1.687176E-15	2.950550E-17
7.260000E+03	1.678464E-15	2.928395E-17
7.270000E+03	1.670167E-15	2.906525E-17
7.280000E+03	1.662210E-15	2.885009E-17
7.290000E+03	1.654444E-15	2.863760E-17
7.300000E+03	1.646786E-15	2.842777E-17
7.310000E+03	1.639096E-15	2.821918E-17
7.320000E+03	1.631316E-15	2.801143E-17
7.330000E+03	1.623371E-15	2.780338E-17
7.340000E+03	1.615240E-15	2.759448E-17
7.350000E+03	1.606851E-15	2.738291E-17
7.360000E+03	1.598184E-15	2.716742E-17
7.370000E+03	1.589298E-15	2.694782E-17
7.380000E+03	1.580155E-15	2.672197E-17
7.390000E+03	1.570790E-15	2.648864E-17
7.400000E+03	1.561198E-15	2.624557E-17
7.410000E+03	1.551440E-15	2.599120E-17
7.420000E+03	1.541498E-15	2.572219E-17
7.430000E+03	1.531312E-15	2.543403E-17
7.440000E+03	1.520881E-15	2.512277E-17
7.450000E+03	1.510134E-15	2.478280E-17
7.460000E+03	1.498964E-15	2.440766E-17
7.470000E+03	1.487373E-15	2.399246E-17
7.480000E+03	1.475303E-15	2.353148E-17
7.490000E+03	1.462716E-15	2.301972E-17
7.500000E+03	1.449626E-15	2.245399E-17
7.510000E+03	1.436074E-15	2.183303E-17
7.520000E+03	1.422125E-15	2.115832E-17
7.530000E+03	1.407837E-15	2.043453E-17
7.540000E+03	1.393359E-15	1.967208E-17
7.550000E+03	1.378792E-15	1.888632E-17
7.560000E+03	1.364283E-15	1.810007E-17
7.570000E+03	1.350050E-15	1.734470E-17
7.580000E+03	1.336149E-15	1.665696E-17
7.590000E+03	1.322792E-15	1.608100E-17
7.600000E+03	1.310085E-15	1.565988E-17
7.610000E+03	1.298186E-15	1.542891E-17
7.620000E+03	1.287196E-15	1.540202E-17
7.630000E+03	1.277299E-15	1.556204E-17
7.640000E+03	1.268615E-15	1.587102E-17
7.650000E+03	1.261293E-15	1.628549E-17
7.660000E+03	1.255384E-15	1.676355E-17
7.670000E+03	1.250959E-15	1.727121E-17
7.680000E+03	1.248017E-15	1.778245E-17
7.690000E+03	1.246482E-15	1.827859E-17
7.700000E+03	1.246272E-15	1.874776E-17
7.710000E+03	1.247334E-15	1.918384E-17
7.720000E+03	1.249459E-15	1.958227E-17
7.730000E+03	1.252478E-15	1.994165E-17
7.740000E+03	1.256266E-15	2.026294E-17
7.750000E+03	1.260563E-15	2.054581E-17
7.760000E+03	1.265196E-15	2.079170E-17
