#wls	flux	fluxerr
1.600000E+03	1.792464E-16	1.266223E-16
1.640000E+03	1.828007E-16	1.272740E-16
1.680000E+03	1.864967E-16	1.279026E-16
1.720000E+03	1.903021E-16	1.284787E-16
1.760000E+03	1.942910E-16	1.290445E-16
1.800000E+03	1.984288E-16	1.295680E-16
1.840000E+03	2.027337E-16	1.300524E-16
1.880000E+03	2.072224E-16	1.304989E-16
1.920000E+03	2.119381E-16	1.309241E-16
1.960000E+03	2.168944E-16	1.313245E-16
2.000000E+03	2.221023E-16	1.316940E-16
2.040000E+03	2.275981E-16	1.320404E-16
2.080000E+03	2.334149E-16	1.323675E-16
2.120000E+03	2.395811E-16	1.326749E-16
2.160000E+03	2.461774E-16	1.329884E-16
2.200000E+03	2.531633E-16	1.332651E-16
2.240000E+03	2.606049E-16	1.335192E-16
2.280000E+03	2.684724E-16	1.337130E-16
2.320000E+03	2.768110E-16	1.338467E-16
2.360000E+03	2.855384E-16	1.338580E-16
2.400000E+03	2.946435E-16	1.337221E-16
2.440000E+03	3.040143E-16	1.333708E-16
2.480000E+03	3.135792E-16	1.327603E-16
2.520000E+03	3.232208E-16	1.318334E-16
2.560000E+03	3.327775E-16	1.305241E-16
2.600000E+03	3.421260E-16	1.287919E-16
2.640000E+03	3.510735E-16	1.265809E-16
2.680000E+03	3.594921E-16	1.238717E-16
2.720000E+03	3.671642E-16	1.206253E-16
2.760000E+03	3.739167E-16	1.168330E-16
2.800000E+03	3.795491E-16	1.124910E-16
2.840000E+03	3.838671E-16	1.076125E-16
2.880000E+03	3.867119E-16	1.022340E-16
2.920000E+03	3.879036E-16	9.639855E-17
2.960000E+03	3.874366E-16	9.020212E-17
3.000000E+03	3.853427E-16	8.374928E-17
3.010000E+03	3.845884E-16	8.211225E-17
3.020000E+03	3.837263E-16	8.046521E-17
3.030000E+03	3.827734E-16	7.881323E-17
3.040000E+03	3.817289E-16	7.715747E-17
3.050000E+03	3.806089E-16	7.550252E-17
3.060000E+03	3.794122E-16	7.384929E-17
3.070000E+03	3.781214E-16	7.219565E-17
3.080000E+03	3.767691E-16	7.054904E-17
3.090000E+03	3.753381E-16	6.890734E-17
3.100000E+03	3.738442E-16	6.727452E-17
3.110000E+03	3.722713E-16	6.564878E-17
3.120000E+03	3.706504E-16	6.403662E-17
3.130000E+03	3.689660E-16	6.243622E-17
3.140000E+03	3.672332E-16	6.085107E-17
3.150000E+03	3.654520E-16	5.928199E-17
3.160000E+03	3.636228E-16	5.772983E-17
3.170000E+03	3.617602E-16	5.619765E-17
3.180000E+03	3.598646E-16	5.468612E-17
3.190000E+03	3.579367E-16	5.319597E-17
3.200000E+03	3.559905E-16	5.172986E-17
3.210000E+03	3.540270E-16	5.028833E-17
3.220000E+03	3.520472E-16	4.887200E-17
3.230000E+03	3.500648E-16	4.748315E-17
3.240000E+03	3.480811E-16	4.612223E-17
3.250000E+03	3.460978E-16	4.478972E-17
3.260000E+03	3.441283E-16	4.348758E-17
3.270000E+03	3.421855E-16	4.221754E-17
3.280000E+03	3.402601E-16	4.097847E-17
3.290000E+03	3.383762E-16	3.977331E-17
3.300000E+03	3.365145E-16	3.859974E-17
3.310000E+03	3.347094E-16	3.746168E-17
3.320000E+03	3.329529E-16	3.635804E-17
3.330000E+03	3.312482E-16	3.528902E-17
3.340000E+03	3.296184E-16	3.425685E-17
3.350000E+03	3.280570E-16	3.326056E-17
3.360000E+03	3.265682E-16	3.230030E-17
3.370000E+03	3.251748E-16	3.137801E-17
3.380000E+03	3.238721E-16	3.049281E-17
3.390000E+03	3.226653E-16	2.964485E-17
3.400000E+03	3.215689E-16	2.883502E-17
3.410000E+03	3.205889E-16	2.806340E-17
3.420000E+03	3.197318E-16	2.733010E-17
3.430000E+03	3.190050E-16	2.663524E-17
3.440000E+03	3.184087E-16	2.597833E-17
3.450000E+03	3.179596E-16	2.536021E-17
3.460000E+03	3.176668E-16	2.478105E-17
3.470000E+03	3.175185E-16	2.423933E-17
3.480000E+03	3.175407E-16	2.373648E-17
3.490000E+03	3.177310E-16	2.327165E-17
3.500000E+03	3.180955E-16	2.284462E-17
3.510000E+03	3.186411E-16	2.245519E-17
3.520000E+03	3.193692E-16	2.210270E-17
3.530000E+03	3.202888E-16	2.178697E-17
3.540000E+03	3.214034E-16	2.150733E-17
3.550000E+03	3.227302E-16	2.126398E-17
3.560000E+03	3.242740E-16	2.105613E-17
3.570000E+03	3.260401E-16	2.088297E-17
3.580000E+03	3.280411E-16	2.074400E-17
3.590000E+03	3.302835E-16	2.063823E-17
3.600000E+03	3.327682E-16	2.056413E-17
3.610000E+03	3.355095E-16	2.052075E-17
3.620000E+03	3.385097E-16	2.050618E-17
3.630000E+03	3.418013E-16	2.052023E-17
3.640000E+03	3.453863E-16	2.056073E-17
3.650000E+03	3.492963E-16	2.062718E-17
3.660000E+03	3.535562E-16	2.071861E-17
3.670000E+03	3.581727E-16	2.083288E-17
3.680000E+03	3.631697E-16	2.096881E-17
3.690000E+03	3.685701E-16	2.112513E-17
3.700000E+03	3.743906E-16	2.130014E-17
3.710000E+03	3.806405E-16	2.149172E-17
3.720000E+03	3.873343E-16	2.169797E-17
3.730000E+03	3.944909E-16	2.191726E-17
3.740000E+03	4.021157E-16	2.214716E-17
3.750000E+03	4.102243E-16	2.238580E-17
3.760000E+03	4.188179E-16	2.263049E-17
3.770000E+03	4.279073E-16	2.287909E-17
3.780000E+03	4.374819E-16	2.312830E-17
3.790000E+03	4.475526E-16	2.337601E-17
3.800000E+03	4.581011E-16	2.361862E-17
3.810000E+03	4.691241E-16	2.385340E-17
3.820000E+03	4.806074E-16	2.407715E-17
3.830000E+03	4.925313E-16	2.428656E-17
3.840000E+03	5.048644E-16	2.447794E-17
3.850000E+03	5.175756E-16	2.464790E-17
3.860000E+03	5.306351E-16	2.479339E-17
3.870000E+03	5.440000E-16	2.491116E-17
3.880000E+03	5.576067E-16	2.499745E-17
3.890000E+03	5.714139E-16	2.505008E-17
3.900000E+03	5.853529E-16	2.506625E-17
3.910000E+03	5.993563E-16	2.504391E-17
3.920000E+03	6.133516E-16	2.498155E-17
3.930000E+03	6.272696E-16	2.487857E-17
3.940000E+03	6.410142E-16	2.473409E-17
3.950000E+03	6.545100E-16	2.454888E-17
3.960000E+03	6.676801E-16	2.432450E-17
3.970000E+03	6.804231E-16	2.406243E-17
3.980000E+03	6.926706E-16	2.376622E-17
3.990000E+03	7.043234E-16	2.343923E-17
4.000000E+03	7.153186E-16	2.308685E-17
4.010000E+03	7.255644E-16	2.271427E-17
4.020000E+03	7.350090E-16	2.232842E-17
4.030000E+03	7.435751E-16	2.193543E-17
4.040000E+03	7.512301E-16	2.154235E-17
4.050000E+03	7.579288E-16	2.115514E-17
4.060000E+03	7.636419E-16	2.077928E-17
4.070000E+03	7.683850E-16	2.042016E-17
4.080000E+03	7.721668E-16	2.008153E-17
4.090000E+03	7.750159E-16	1.976608E-17
4.100000E+03	7.769989E-16	1.947565E-17
4.110000E+03	7.781986E-16	1.921081E-17
4.120000E+03	7.786766E-16	1.897007E-17
4.130000E+03	7.785552E-16	1.875198E-17
4.140000E+03	7.779198E-16	1.855319E-17
4.150000E+03	7.768740E-16	1.837023E-17
4.160000E+03	7.755195E-16	1.819931E-17
4.170000E+03	7.739546E-16	1.803658E-17
4.180000E+03	7.722640E-16	1.787822E-17
4.190000E+03	7.705423E-16	1.772094E-17
4.200000E+03	7.688533E-16	1.756129E-17
4.210000E+03	7.672772E-16	1.739677E-17
4.220000E+03	7.658629E-16	1.722463E-17
4.230000E+03	7.646679E-16	1.704308E-17
4.240000E+03	7.637432E-16	1.685101E-17
4.250000E+03	7.631179E-16	1.664778E-17
4.260000E+03	7.628320E-16	1.643393E-17
4.270000E+03	7.629130E-16	1.621072E-17
4.280000E+03	7.633848E-16	1.598017E-17
4.290000E+03	7.642694E-16	1.574524E-17
4.300000E+03	7.655801E-16	1.550974E-17
4.310000E+03	7.673459E-16	1.527873E-17
4.320000E+03	7.695742E-16	1.505792E-17
4.330000E+03	7.723043E-16	1.485465E-17
4.340000E+03	7.755470E-16	1.467655E-17
4.350000E+03	7.793375E-16	1.453226E-17
4.360000E+03	7.837037E-16	1.443020E-17
4.370000E+03	7.886720E-16	1.437788E-17
4.380000E+03	7.942916E-16	1.438195E-17
4.390000E+03	8.005906E-16	1.444642E-17
4.400000E+03	8.076596E-16	1.457084E-17
4.410000E+03	8.155993E-16	1.474972E-17
4.420000E+03	8.245115E-16	1.497572E-17
4.430000E+03	8.345000E-16	1.524072E-17
4.440000E+03	8.456526E-16	1.553628E-17
4.450000E+03	8.580458E-16	1.585408E-17
4.460000E+03	8.717393E-16	1.618599E-17
4.470000E+03	8.867758E-16	1.652445E-17
4.480000E+03	9.031705E-16	1.686254E-17
4.490000E+03	9.209246E-16	1.719431E-17
4.500000E+03	9.400052E-16	1.751469E-17
4.510000E+03	9.603508E-16	1.781965E-17
4.520000E+03	9.818648E-16	1.810610E-17
4.530000E+03	1.004404E-15	1.837178E-17
4.540000E+03	1.027794E-15	1.861546E-17
4.550000E+03	1.051818E-15	1.883641E-17
4.560000E+03	1.076195E-15	1.903386E-17
4.570000E+03	1.100628E-15	1.920706E-17
4.580000E+03	1.124775E-15	1.935393E-17
4.590000E+03	1.148255E-15	1.947124E-17
4.600000E+03	1.170702E-15	1.955511E-17
4.610000E+03	1.191719E-15	1.959982E-17
4.620000E+03	1.210955E-15	1.959947E-17
4.630000E+03	1.228064E-15	1.954739E-17
4.640000E+03	1.242723E-15	1.943650E-17
4.650000E+03	1.254689E-15	1.926126E-17
4.660000E+03	1.263707E-15	1.901734E-17
4.670000E+03	1.269639E-15	1.870403E-17
4.680000E+03	1.272364E-15	1.832344E-17
4.690000E+03	1.271847E-15	1.788165E-17
4.700000E+03	1.268137E-15	1.738832E-17
4.710000E+03	1.261352E-15	1.685728E-17
4.720000E+03	1.251724E-15	1.630724E-17
4.730000E+03	1.239590E-15	1.576099E-17
4.740000E+03	1.225343E-15	1.524437E-17
4.750000E+03	1.209439E-15	1.478482E-17
4.760000E+03	1.192394E-15	1.440866E-17
4.770000E+03	1.174694E-15	1.413716E-17
4.780000E+03	1.156868E-15	1.398426E-17
4.790000E+03	1.139390E-15	1.395147E-17
4.800000E+03	1.122711E-15	1.402683E-17
4.810000E+03	1.107252E-15	1.419071E-17
4.820000E+03	1.093382E-15	1.442022E-17
4.830000E+03	1.081417E-15	1.469296E-17
4.840000E+03	1.071634E-15	1.498948E-17
4.850000E+03	1.064249E-15	1.529367E-17
4.860000E+03	1.059437E-15	1.559331E-17
4.870000E+03	1.057317E-15	1.587947E-17
4.880000E+03	1.057939E-15	1.614549E-17
4.890000E+03	1.061303E-15	1.638710E-17
4.900000E+03	1.067333E-15	1.660166E-17
4.910000E+03	1.075906E-15	1.678839E-17
4.920000E+03	1.086823E-15	1.694804E-17
4.930000E+03	1.099817E-15	1.708309E-17
4.940000E+03	1.114549E-15	1.719771E-17
4.950000E+03	1.130578E-15	1.729727E-17
4.960000E+03	1.147393E-15	1.738830E-17
4.970000E+03	1.164421E-15	1.747759E-17
4.980000E+03	1.180993E-15	1.757091E-17
4.990000E+03	1.196455E-15	1.767304E-17
5.000000E+03	1.210214E-15	1.778635E-17
5.010000E+03	1.221701E-15	1.790960E-17
5.020000E+03	1.230556E-15	1.803987E-17
5.030000E+03	1.236541E-15	1.817057E-17
5.040000E+03	1.239626E-15	1.829371E-17
5.050000E+03	1.239965E-15	1.840075E-17
5.060000E+03	1.237862E-15	1.848306E-17
5.070000E+03	1.233726E-15	1.853346E-17
5.080000E+03	1.228037E-15	1.854774E-17
5.090000E+03	1.221302E-15	1.852476E-17
5.100000E+03	1.214019E-15	1.846652E-17
5.110000E+03	1.206665E-15	1.837776E-17
5.120000E+03	1.199627E-15	1.826425E-17
5.130000E+03	1.193284E-15	1.813368E-17
5.140000E+03	1.187909E-15	1.799344E-17
5.150000E+03	1.183744E-15	1.785075E-17
5.160000E+03	1.181004E-15	1.771275E-17
5.170000E+03	1.179816E-15	1.758513E-17
5.180000E+03	1.180335E-15	1.747332E-17
5.190000E+03	1.182659E-15	1.738128E-17
5.200000E+03	1.186885E-15	1.731217E-17
5.210000E+03	1.193054E-15	1.726696E-17
5.220000E+03	1.201214E-15	1.724587E-17
5.230000E+03	1.211368E-15	1.724787E-17
5.240000E+03	1.223466E-15	1.727036E-17
5.250000E+03	1.237427E-15	1.731023E-17
5.260000E+03	1.253139E-15	1.736406E-17
5.270000E+03	1.270409E-15	1.742746E-17
5.280000E+03	1.289014E-15	1.749645E-17
5.290000E+03	1.308671E-15	1.756753E-17
5.300000E+03	1.329085E-15	1.763801E-17
5.310000E+03	1.349903E-15	1.770581E-17
5.320000E+03	1.370782E-15	1.777005E-17
5.330000E+03	1.391337E-15	1.782949E-17
5.340000E+03	1.411230E-15	1.788345E-17
5.350000E+03	1.430141E-15	1.793015E-17
5.360000E+03	1.447780E-15	1.796562E-17
5.370000E+03	1.463934E-15	1.798473E-17
5.380000E+03	1.478402E-15	1.798059E-17
5.390000E+03	1.491086E-15	1.794564E-17
5.400000E+03	1.501924E-15	1.787273E-17
5.410000E+03	1.510865E-15	1.775663E-17
5.420000E+03	1.517957E-15	1.759610E-17
5.430000E+03	1.523207E-15	1.739422E-17
5.440000E+03	1.526663E-15	1.716051E-17
5.450000E+03	1.528371E-15	1.691033E-17
5.460000E+03	1.528345E-15	1.666419E-17
5.470000E+03	1.526561E-15	1.644552E-17
5.480000E+03	1.522966E-15	1.627674E-17
5.490000E+03	1.517458E-15	1.617543E-17
5.500000E+03	1.509825E-15	1.614753E-17
5.510000E+03	1.499727E-15	1.618179E-17
5.520000E+03	1.486823E-15	1.625774E-17
5.530000E+03	1.470762E-15	1.635078E-17
5.540000E+03	1.451232E-15	1.643590E-17
5.550000E+03	1.428104E-15	1.649264E-17
5.560000E+03	1.401327E-15	1.650528E-17
5.570000E+03	1.371068E-15	1.646434E-17
5.580000E+03	1.337705E-15	1.636710E-17
5.590000E+03	1.301724E-15	1.621587E-17
5.600000E+03	1.263813E-15	1.601758E-17
5.610000E+03	1.224756E-15	1.578226E-17
5.620000E+03	1.185399E-15	1.552174E-17
5.630000E+03	1.146634E-15	1.524826E-17
5.640000E+03	1.109318E-15	1.497374E-17
5.650000E+03	1.074266E-15	1.470984E-17
5.660000E+03	1.042240E-15	1.446717E-17
5.670000E+03	1.013898E-15	1.425495E-17
5.680000E+03	9.898304E-16	1.408124E-17
5.690000E+03	9.705317E-16	1.395196E-17
5.700000E+03	9.564261E-16	1.387202E-17
5.710000E+03	9.478756E-16	1.384587E-17
5.720000E+03	9.451875E-16	1.387751E-17
5.730000E+03	9.486448E-16	1.397112E-17
5.740000E+03	9.584850E-16	1.413086E-17
5.750000E+03	9.749276E-16	1.436117E-17
5.760000E+03	9.981750E-16	1.466692E-17
5.770000E+03	1.028359E-15	1.505238E-17
5.780000E+03	1.065556E-15	1.552114E-17
5.790000E+03	1.109704E-15	1.607486E-17
5.800000E+03	1.160601E-15	1.671253E-17
5.810000E+03	1.217891E-15	1.742904E-17
5.820000E+03	1.280985E-15	1.821397E-17
5.830000E+03	1.349058E-15	1.905096E-17
5.840000E+03	1.421146E-15	1.991818E-17
5.850000E+03	1.495998E-15	2.078781E-17
5.860000E+03	1.572229E-15	2.163049E-17
5.870000E+03	1.648219E-15	2.241597E-17
5.880000E+03	1.722294E-15	2.311758E-17
5.890000E+03	1.792669E-15	2.371298E-17
5.900000E+03	1.857625E-15	2.418697E-17
5.910000E+03	1.915541E-15	2.453189E-17
5.920000E+03	1.965001E-15	2.474690E-17
5.930000E+03	2.004988E-15	2.483739E-17
5.940000E+03	2.034801E-15	2.481284E-17
5.950000E+03	2.054172E-15	2.468613E-17
5.960000E+03	2.063289E-15	2.447133E-17
5.970000E+03	2.062669E-15	2.418318E-17
5.980000E+03	2.053214E-15	2.383785E-17
5.990000E+03	2.035969E-15	2.344930E-17
6.000000E+03	2.012223E-15	2.303213E-17
6.010000E+03	1.983255E-15	2.259887E-17
6.020000E+03	1.950379E-15	2.215947E-17
6.030000E+03	1.914792E-15	2.172112E-17
6.040000E+03	1.877623E-15	2.128913E-17
6.050000E+03	1.839833E-15	2.086503E-17
6.060000E+03	1.802205E-15	2.044808E-17
6.070000E+03	1.765434E-15	2.003653E-17
6.080000E+03	1.729998E-15	1.962548E-17
6.090000E+03	1.696243E-15	1.920910E-17
6.100000E+03	1.664462E-15	1.878194E-17
6.110000E+03	1.634768E-15	1.833688E-17
6.120000E+03	1.607235E-15	1.786849E-17
6.130000E+03	1.581883E-15	1.737381E-17
6.140000E+03	1.558669E-15	1.685219E-17
6.150000E+03	1.537519E-15	1.630603E-17
6.160000E+03	1.518317E-15	1.574029E-17
6.170000E+03	1.500915E-15	1.516207E-17
6.180000E+03	1.485206E-15	1.458305E-17
6.190000E+03	1.471138E-15	1.402066E-17
6.200000E+03	1.458560E-15	1.349682E-17
6.210000E+03	1.447401E-15	1.304078E-17
6.220000E+03	1.437496E-15	1.268575E-17
6.230000E+03	1.428737E-15	1.246465E-17
6.240000E+03	1.420996E-15	1.240169E-17
6.250000E+03	1.414080E-15	1.249727E-17
6.260000E+03	1.407868E-15	1.272353E-17
6.270000E+03	1.402186E-15	1.304050E-17
6.280000E+03	1.396879E-15	1.340734E-17
6.290000E+03	1.391878E-15	1.378859E-17
6.300000E+03	1.387095E-15	1.415656E-17
6.310000E+03	1.382484E-15	1.449236E-17
6.320000E+03	1.378051E-15	1.478428E-17
6.330000E+03	1.373788E-15	1.502653E-17
6.340000E+03	1.369726E-15	1.521799E-17
6.350000E+03	1.365925E-15	1.535985E-17
6.360000E+03	1.362416E-15	1.545472E-17
6.370000E+03	1.359285E-15	1.550675E-17
6.380000E+03	1.356539E-15	1.551865E-17
6.390000E+03	1.354227E-15	1.549318E-17
6.400000E+03	1.352385E-15	1.543201E-17
6.410000E+03	1.351011E-15	1.533463E-17
6.420000E+03	1.350088E-15	1.519973E-17
6.430000E+03	1.349590E-15	1.502622E-17
6.440000E+03	1.349463E-15	1.481330E-17
6.450000E+03	1.349677E-15	1.456272E-17
6.460000E+03	1.350174E-15	1.427968E-17
6.470000E+03	1.350970E-15	1.397467E-17
6.480000E+03	1.352046E-15	1.366386E-17
6.490000E+03	1.353432E-15	1.337057E-17
6.500000E+03	1.355152E-15	1.312382E-17
6.510000E+03	1.357267E-15	1.295749E-17
6.520000E+03	1.359840E-15	1.290608E-17
6.530000E+03	1.363004E-15	1.299714E-17
6.540000E+03	1.366947E-15	1.323582E-17
6.550000E+03	1.371983E-15	1.360153E-17
6.560000E+03	1.378431E-15	1.406336E-17
6.570000E+03	1.386547E-15	1.458902E-17
6.580000E+03	1.396527E-15	1.514968E-17
6.590000E+03	1.408334E-15	1.571994E-17
6.600000E+03	1.421790E-15	1.628016E-17
6.610000E+03	1.436595E-15	1.681621E-17
6.620000E+03	1.452342E-15	1.731831E-17
6.630000E+03	1.468491E-15	1.777988E-17
6.640000E+03	1.484507E-15	1.819726E-17
6.650000E+03	1.499719E-15	1.856584E-17
6.660000E+03	1.513576E-15	1.888348E-17
6.670000E+03	1.525481E-15	1.914812E-17
6.680000E+03	1.534926E-15	1.935858E-17
6.690000E+03	1.541511E-15	1.951552E-17
6.700000E+03	1.544891E-15	1.962085E-17
6.710000E+03	1.544879E-15	1.967838E-17
6.720000E+03	1.541359E-15	1.969336E-17
6.730000E+03	1.534371E-15	1.967340E-17
6.740000E+03	1.524066E-15	1.962694E-17
6.750000E+03	1.510625E-15	1.956259E-17
6.760000E+03	1.494380E-15	1.949015E-17
6.770000E+03	1.475718E-15	1.941797E-17
6.780000E+03	1.455101E-15	1.935358E-17
6.790000E+03	1.432990E-15	1.930223E-17
6.800000E+03	1.409898E-15	1.926665E-17
6.810000E+03	1.386351E-15	1.924735E-17
6.820000E+03	1.362903E-15	1.924300E-17
6.830000E+03	1.340079E-15	1.924968E-17
6.840000E+03	1.318363E-15	1.926201E-17
6.850000E+03	1.298226E-15	1.927446E-17
6.860000E+03	1.280113E-15	1.928134E-17
6.870000E+03	1.264403E-15	1.927766E-17
6.880000E+03	1.251408E-15	1.926029E-17
6.890000E+03	1.241432E-15	1.922891E-17
6.900000E+03	1.234705E-15	1.918474E-17
6.910000E+03	1.231376E-15	1.912953E-17
6.920000E+03	1.231558E-15	1.906569E-17
6.930000E+03	1.235254E-15	1.899536E-17
6.940000E+03	1.242437E-15	1.892182E-17
6.950000E+03	1.252977E-15	1.884846E-17
6.960000E+03	1.266659E-15	1.877928E-17
6.970000E+03	1.283145E-15	1.871794E-17
6.980000E+03	1.302020E-15	1.866783E-17
6.990000E+03	1.322718E-15	1.863119E-17
7.000000E+03	1.344629E-15	1.861000E-17
7.010000E+03	1.367052E-15	1.860430E-17
7.020000E+03	1.389245E-15	1.861323E-17
7.030000E+03	1.410452E-15	1.863529E-17
7.040000E+03	1.430017E-15	1.866907E-17
7.050000E+03	1.447314E-15	1.871307E-17
7.060000E+03	1.461902E-15	1.876792E-17
7.070000E+03	1.473378E-15	1.883362E-17
7.080000E+03	1.481538E-15	1.891138E-17
7.090000E+03	1.486359E-15	1.900222E-17
7.100000E+03	1.487957E-15	1.910494E-17
7.110000E+03	1.486583E-15	1.921668E-17
7.120000E+03	1.482575E-15	1.933272E-17
7.130000E+03	1.476406E-15	1.944716E-17
7.140000E+03	1.468571E-15	1.955309E-17
7.150000E+03	1.459542E-15	1.964318E-17
7.160000E+03	1.449848E-15	1.971110E-17
7.170000E+03	1.439866E-15	1.975023E-17
7.180000E+03	1.429996E-15	1.975691E-17
7.190000E+03	1.420536E-15	1.972896E-17
7.200000E+03	1.411737E-15	1.966665E-17
7.210000E+03	1.403722E-15	1.957140E-17
7.220000E+03	1.396563E-15	1.944644E-17
7.230000E+03	1.390268E-15	1.929657E-17
7.240000E+03	1.384810E-15	1.912826E-17
7.250000E+03	1.380083E-15	1.894828E-17
7.260000E+03	1.375942E-15	1.876401E-17
7.270000E+03	1.372213E-15	1.858250E-17
7.280000E+03	1.368703E-15	1.840918E-17
7.290000E+03	1.365232E-15	1.824829E-17
7.300000E+03	1.361594E-15	1.810165E-17
7.310000E+03	1.357594E-15	1.796847E-17
7.320000E+03	1.353051E-15	1.784622E-17
7.330000E+03	1.347866E-15	1.773209E-17
7.340000E+03	1.341873E-15	1.762116E-17
7.350000E+03	1.335022E-15	1.751016E-17
7.360000E+03	1.327300E-15	1.739708E-17
7.370000E+03	1.318708E-15	1.728058E-17
7.380000E+03	1.309278E-15	1.716086E-17
7.390000E+03	1.299070E-15	1.703928E-17
7.400000E+03	1.288165E-15	1.691732E-17
7.410000E+03	1.276679E-15	1.679685E-17
7.420000E+03	1.264653E-15	1.667832E-17
7.430000E+03	1.252202E-15	1.656216E-17
7.440000E+03	1.239384E-15	1.644766E-17
7.450000E+03	1.226321E-15	1.633493E-17
7.460000E+03	1.213031E-15	1.622233E-17
7.470000E+03	1.199576E-15	1.610933E-17
7.480000E+03	1.186039E-15	1.599613E-17
7.490000E+03	1.172428E-15	1.588165E-17
7.500000E+03	1.158848E-15	1.576609E-17
7.510000E+03	1.145282E-15	1.564763E-17
7.520000E+03	1.131833E-15	1.552503E-17
7.530000E+03	1.118539E-15	1.539589E-17
7.540000E+03	1.105424E-15	1.525813E-17
7.550000E+03	1.092624E-15	1.511186E-17
7.560000E+03	1.080217E-15	1.495791E-17
7.570000E+03	1.068304E-15	1.479967E-17
7.580000E+03	1.056964E-15	1.464227E-17
7.590000E+03	1.046297E-15	1.449278E-17
7.600000E+03	1.036396E-15	1.435892E-17
7.610000E+03	1.027373E-15	1.424813E-17
7.620000E+03	1.019245E-15	1.416389E-17
7.630000E+03	1.012165E-15	1.410634E-17
7.640000E+03	1.006165E-15	1.407108E-17
7.650000E+03	1.001329E-15	1.405381E-17
7.660000E+03	9.976791E-16	1.404985E-17
7.670000E+03	9.952301E-16	1.405587E-17
7.680000E+03	9.939951E-16	1.407025E-17
7.690000E+03	9.939159E-16	1.409194E-17
7.700000E+03	9.949269E-16	1.412099E-17
7.710000E+03	9.969570E-16	1.415830E-17
7.720000E+03	9.998631E-16	1.420401E-17
7.730000E+03	1.003496E-15	1.425766E-17
7.740000E+03	1.007681E-15	1.431816E-17
7.750000E+03	1.012251E-15	1.438420E-17
7.760000E+03	1.016981E-15	1.445300E-17
