#wls	flux	fluxerr
1.600000E+03	1.589407E-16	1.124799E-16
1.640000E+03	1.615850E-16	1.127193E-16
1.680000E+03	1.642697E-16	1.128914E-16
1.720000E+03	1.670134E-16	1.130052E-16
1.760000E+03	1.698603E-16	1.130858E-16
1.800000E+03	1.727762E-16	1.131050E-16
1.840000E+03	1.758041E-16	1.130858E-16
1.880000E+03	1.789334E-16	1.130153E-16
1.920000E+03	1.821788E-16	1.128966E-16
1.960000E+03	1.855530E-16	1.127309E-16
2.000000E+03	1.890947E-16	1.125341E-16
2.040000E+03	1.928129E-16	1.123028E-16
2.080000E+03	1.967417E-16	1.120474E-16
2.120000E+03	2.009115E-16	1.117743E-16
2.160000E+03	2.053214E-16	1.114711E-16
2.200000E+03	2.099650E-16	1.111227E-16
2.240000E+03	2.148301E-16	1.107110E-16
2.280000E+03	2.199258E-16	1.102294E-16
2.320000E+03	2.251981E-16	1.096402E-16
2.360000E+03	2.306132E-16	1.089184E-16
2.400000E+03	2.361012E-16	1.080248E-16
2.440000E+03	2.415848E-16	1.069215E-16
2.480000E+03	2.470057E-16	1.055839E-16
2.520000E+03	2.522974E-16	1.039883E-16
2.560000E+03	2.573080E-16	1.020819E-16
2.600000E+03	2.619860E-16	9.986066E-17
2.640000E+03	2.662235E-16	9.730426E-17
2.680000E+03	2.699122E-16	9.439995E-17
2.720000E+03	2.730167E-16	9.116747E-17
2.760000E+03	2.753842E-16	8.759262E-17
2.800000E+03	2.769876E-16	8.370987E-17
2.840000E+03	2.777184E-16	7.953307E-17
2.880000E+03	2.774885E-16	7.508934E-17
2.920000E+03	2.762555E-16	7.042338E-17
2.960000E+03	2.740216E-16	6.559359E-17
3.000000E+03	2.708329E-16	6.066787E-17
3.010000E+03	2.698924E-16	5.942920E-17
3.020000E+03	2.688995E-16	5.819037E-17
3.030000E+03	2.678720E-16	5.695592E-17
3.040000E+03	2.667934E-16	5.572299E-17
3.050000E+03	2.656650E-16	5.449257E-17
3.060000E+03	2.644880E-16	5.326564E-17
3.070000E+03	2.632796E-16	5.204634E-17
3.080000E+03	2.620407E-16	5.083533E-17
3.090000E+03	2.607568E-16	4.963038E-17
3.100000E+03	2.594449E-16	4.843532E-17
3.110000E+03	2.581061E-16	4.725085E-17
3.120000E+03	2.567418E-16	4.607766E-17
3.130000E+03	2.553535E-16	4.491647E-17
3.140000E+03	2.539569E-16	4.377042E-17
3.150000E+03	2.525390E-16	4.263760E-17
3.160000E+03	2.511018E-16	4.151872E-17
3.170000E+03	2.496608E-16	4.041665E-17
3.180000E+03	2.482172E-16	3.933185E-17
3.190000E+03	2.467857E-16	3.826678E-17
3.200000E+03	2.453417E-16	3.721777E-17
3.210000E+03	2.439127E-16	3.618925E-17
3.220000E+03	2.424878E-16	3.517966E-17
3.230000E+03	2.410810E-16	3.419116E-17
3.240000E+03	2.396939E-16	3.322400E-17
3.250000E+03	2.383282E-16	3.227845E-17
3.260000E+03	2.369972E-16	3.135627E-17
3.270000E+03	2.356908E-16	3.045609E-17
3.280000E+03	2.344224E-16	2.957960E-17
3.290000E+03	2.331934E-16	2.872688E-17
3.300000E+03	2.320165E-16	2.789937E-17
3.310000E+03	2.308825E-16	2.709580E-17
3.320000E+03	2.298037E-16	2.631750E-17
3.330000E+03	2.287820E-16	2.556451E-17
3.340000E+03	2.278293E-16	2.483796E-17
3.350000E+03	2.269373E-16	2.413671E-17
3.360000E+03	2.261278E-16	2.346288E-17
3.370000E+03	2.253927E-16	2.281535E-17
3.380000E+03	2.247438E-16	2.219504E-17
3.390000E+03	2.241830E-16	2.160189E-17
3.400000E+03	2.237219E-16	2.103668E-17
3.410000E+03	2.233627E-16	2.049929E-17
3.420000E+03	2.231078E-16	1.998962E-17
3.430000E+03	2.229690E-16	1.950833E-17
3.440000E+03	2.229575E-16	1.905603E-17
3.450000E+03	2.230679E-16	1.863180E-17
3.460000E+03	2.233204E-16	1.823690E-17
3.470000E+03	2.237103E-16	1.787045E-17
3.480000E+03	2.242579E-16	1.753354E-17
3.490000E+03	2.249752E-16	1.722653E-17
3.500000E+03	2.258510E-16	1.694791E-17
3.510000E+03	2.269139E-16	1.669920E-17
3.520000E+03	2.281616E-16	1.647948E-17
3.530000E+03	2.296078E-16	1.628899E-17
3.540000E+03	2.312517E-16	1.612682E-17
3.550000E+03	2.331153E-16	1.599367E-17
3.560000E+03	2.351846E-16	1.588760E-17
3.570000E+03	2.374683E-16	1.580825E-17
3.580000E+03	2.399836E-16	1.575569E-17
3.590000E+03	2.427189E-16	1.572803E-17
3.600000E+03	2.456928E-16	1.572528E-17
3.610000E+03	2.489029E-16	1.574599E-17
3.620000E+03	2.523692E-16	1.579002E-17
3.630000E+03	2.560907E-16	1.585586E-17
3.640000E+03	2.600743E-16	1.594239E-17
3.650000E+03	2.643345E-16	1.604886E-17
3.660000E+03	2.688859E-16	1.617449E-17
3.670000E+03	2.737298E-16	1.631757E-17
3.680000E+03	2.788813E-16	1.647720E-17
3.690000E+03	2.843487E-16	1.665200E-17
3.700000E+03	2.901473E-16	1.684091E-17
3.710000E+03	2.962850E-16	1.704243E-17
3.720000E+03	3.027765E-16	1.725537E-17
3.730000E+03	3.096358E-16	1.747844E-17
3.740000E+03	3.168621E-16	1.770946E-17
3.750000E+03	3.244673E-16	1.794699E-17
3.760000E+03	3.324626E-16	1.818942E-17
3.770000E+03	3.408646E-16	1.843549E-17
3.780000E+03	3.496590E-16	1.868218E-17
3.790000E+03	3.588582E-16	1.892798E-17
3.800000E+03	3.684577E-16	1.917046E-17
3.810000E+03	3.784647E-16	1.940788E-17
3.820000E+03	3.888606E-16	1.963721E-17
3.830000E+03	3.996460E-16	1.985656E-17
3.840000E+03	4.108017E-16	2.006317E-17
3.850000E+03	4.223041E-16	2.025430E-17
3.860000E+03	4.341406E-16	2.042799E-17
3.870000E+03	4.462777E-16	2.058161E-17
3.880000E+03	4.586760E-16	2.071265E-17
3.890000E+03	4.713075E-16	2.081957E-17
3.900000E+03	4.841219E-16	2.090034E-17
3.910000E+03	4.970628E-16	2.095326E-17
3.920000E+03	5.100861E-16	2.097778E-17
3.930000E+03	5.231250E-16	2.097304E-17
3.940000E+03	5.361077E-16	2.093871E-17
3.950000E+03	5.489766E-16	2.087565E-17
3.960000E+03	5.616523E-16	2.078458E-17
3.970000E+03	5.740624E-16	2.066713E-17
3.980000E+03	5.861232E-16	2.052516E-17
3.990000E+03	5.977603E-16	2.036142E-17
4.000000E+03	6.089004E-16	2.017915E-17
4.010000E+03	6.194730E-16	1.998199E-17
4.020000E+03	6.293924E-16	1.977327E-17
4.030000E+03	6.386185E-16	1.955770E-17
4.040000E+03	6.470803E-16	1.933872E-17
4.050000E+03	6.547369E-16	1.912016E-17
4.060000E+03	6.615599E-16	1.890547E-17
4.070000E+03	6.675343E-16	1.869752E-17
4.080000E+03	6.726498E-16	1.849826E-17
4.090000E+03	6.769208E-16	1.830916E-17
4.100000E+03	6.803756E-16	1.813091E-17
4.110000E+03	6.830361E-16	1.796294E-17
4.120000E+03	6.849746E-16	1.780498E-17
4.130000E+03	6.862436E-16	1.765537E-17
4.140000E+03	6.869030E-16	1.751197E-17
4.150000E+03	6.870280E-16	1.737255E-17
4.160000E+03	6.866872E-16	1.723448E-17
4.170000E+03	6.859700E-16	1.709555E-17
4.180000E+03	6.849557E-16	1.695342E-17
4.190000E+03	6.837043E-16	1.680553E-17
4.200000E+03	6.823007E-16	1.665029E-17
4.210000E+03	6.808080E-16	1.648605E-17
4.220000E+03	6.793034E-16	1.631202E-17
4.230000E+03	6.778324E-16	1.612724E-17
4.240000E+03	6.764714E-16	1.593213E-17
4.250000E+03	6.752563E-16	1.572685E-17
4.260000E+03	6.742531E-16	1.551299E-17
4.270000E+03	6.734885E-16	1.529202E-17
4.280000E+03	6.730111E-16	1.506670E-17
4.290000E+03	6.728653E-16	1.484048E-17
4.300000E+03	6.730753E-16	1.461714E-17
4.310000E+03	6.736875E-16	1.440173E-17
4.320000E+03	6.747120E-16	1.419917E-17
4.330000E+03	6.762069E-16	1.401601E-17
4.340000E+03	6.781779E-16	1.385816E-17
4.350000E+03	6.806628E-16	1.373237E-17
4.360000E+03	6.836991E-16	1.364527E-17
4.370000E+03	6.873167E-16	1.360274E-17
4.380000E+03	6.915483E-16	1.360960E-17
4.390000E+03	6.964398E-16	1.366908E-17
4.400000E+03	7.020597E-16	1.378174E-17
4.410000E+03	7.084639E-16	1.394480E-17
4.420000E+03	7.157290E-16	1.415401E-17
4.430000E+03	7.239139E-16	1.440365E-17
4.440000E+03	7.330732E-16	1.468730E-17
4.450000E+03	7.432539E-16	1.499830E-17
4.460000E+03	7.544925E-16	1.533000E-17
4.470000E+03	7.668123E-16	1.567606E-17
4.480000E+03	7.802121E-16	1.603031E-17
4.490000E+03	7.946815E-16	1.638728E-17
4.500000E+03	8.101809E-16	1.674177E-17
4.510000E+03	8.266666E-16	1.708939E-17
4.520000E+03	8.440521E-16	1.742574E-17
4.530000E+03	8.622151E-16	1.774640E-17
4.540000E+03	8.810343E-16	1.804765E-17
4.550000E+03	9.003424E-16	1.832524E-17
4.560000E+03	9.199449E-16	1.857468E-17
4.570000E+03	9.396228E-16	1.879110E-17
4.580000E+03	9.591465E-16	1.896929E-17
4.590000E+03	9.782487E-16	1.910309E-17
4.600000E+03	9.966837E-16	1.918640E-17
4.610000E+03	1.014158E-15	1.921180E-17
4.620000E+03	1.030424E-15	1.917247E-17
4.630000E+03	1.045212E-15	1.906103E-17
4.640000E+03	1.058278E-15	1.887081E-17
4.650000E+03	1.069406E-15	1.859615E-17
4.660000E+03	1.078418E-15	1.823324E-17
4.670000E+03	1.085165E-15	1.778030E-17
4.680000E+03	1.089541E-15	1.723857E-17
4.690000E+03	1.091475E-15	1.661285E-17
4.700000E+03	1.090998E-15	1.591333E-17
4.710000E+03	1.088145E-15	1.515502E-17
4.720000E+03	1.083041E-15	1.436009E-17
4.730000E+03	1.075841E-15	1.355806E-17
4.740000E+03	1.066770E-15	1.278709E-17
4.750000E+03	1.056104E-15	1.209337E-17
4.760000E+03	1.044132E-15	1.152792E-17
4.770000E+03	1.031191E-15	1.114011E-17
4.780000E+03	1.017642E-15	1.096614E-17
4.790000E+03	1.003842E-15	1.101204E-17
4.800000E+03	9.901798E-16	1.124392E-17
4.810000E+03	9.770206E-16	1.161055E-17
4.820000E+03	9.647256E-16	1.206066E-17
4.830000E+03	9.535815E-16	1.255079E-17
4.840000E+03	9.438836E-16	1.304910E-17
4.850000E+03	9.358408E-16	1.353356E-17
4.860000E+03	9.296236E-16	1.399054E-17
4.870000E+03	9.253627E-16	1.441265E-17
4.880000E+03	9.231199E-16	1.479645E-17
4.890000E+03	9.229266E-16	1.514171E-17
4.900000E+03	9.247536E-16	1.544993E-17
4.910000E+03	9.285206E-16	1.572381E-17
4.920000E+03	9.340844E-16	1.596668E-17
4.930000E+03	9.412669E-16	1.618268E-17
4.940000E+03	9.498257E-16	1.637608E-17
4.950000E+03	9.594665E-16	1.655124E-17
4.960000E+03	9.698477E-16	1.671245E-17
4.970000E+03	9.805813E-16	1.686347E-17
4.980000E+03	9.912878E-16	1.700793E-17
4.990000E+03	1.001557E-15	1.714795E-17
5.000000E+03	1.011000E-15	1.728437E-17
5.010000E+03	1.019307E-15	1.741711E-17
5.020000E+03	1.026205E-15	1.754409E-17
5.030000E+03	1.031510E-15	1.766199E-17
5.040000E+03	1.035162E-15	1.776719E-17
5.050000E+03	1.037165E-15	1.785524E-17
5.060000E+03	1.037634E-15	1.792231E-17
5.070000E+03	1.036724E-15	1.796492E-17
5.080000E+03	1.034676E-15	1.798139E-17
5.090000E+03	1.031770E-15	1.797159E-17
5.100000E+03	1.028280E-15	1.793657E-17
5.110000E+03	1.024497E-15	1.787904E-17
5.120000E+03	1.020708E-15	1.780308E-17
5.130000E+03	1.017151E-15	1.771307E-17
5.140000E+03	1.014084E-15	1.761468E-17
5.150000E+03	1.011705E-15	1.751317E-17
5.160000E+03	1.010196E-15	1.741387E-17
5.170000E+03	1.009713E-15	1.732164E-17
5.180000E+03	1.010389E-15	1.724068E-17
5.190000E+03	1.012329E-15	1.717436E-17
5.200000E+03	1.015628E-15	1.712517E-17
5.210000E+03	1.020324E-15	1.709406E-17
5.220000E+03	1.026460E-15	1.708136E-17
5.230000E+03	1.034041E-15	1.708623E-17
5.240000E+03	1.043043E-15	1.710686E-17
5.250000E+03	1.053401E-15	1.714056E-17
5.260000E+03	1.065038E-15	1.718447E-17
5.270000E+03	1.077838E-15	1.723529E-17
5.280000E+03	1.091640E-15	1.728945E-17
5.290000E+03	1.106267E-15	1.734350E-17
5.300000E+03	1.121528E-15	1.739417E-17
5.310000E+03	1.137177E-15	1.743742E-17
5.320000E+03	1.152997E-15	1.746954E-17
5.330000E+03	1.168719E-15	1.748541E-17
5.340000E+03	1.184107E-15	1.747961E-17
5.350000E+03	1.198922E-15	1.744560E-17
5.360000E+03	1.212927E-15	1.737575E-17
5.370000E+03	1.225917E-15	1.726200E-17
5.380000E+03	1.237711E-15	1.709617E-17
5.390000E+03	1.248164E-15	1.687090E-17
5.400000E+03	1.257123E-15	1.658007E-17
5.410000E+03	1.264500E-15	1.622129E-17
5.420000E+03	1.270205E-15	1.579668E-17
5.430000E+03	1.274202E-15	1.531549E-17
5.440000E+03	1.276447E-15	1.479537E-17
5.450000E+03	1.276933E-15	1.426451E-17
5.460000E+03	1.275665E-15	1.376201E-17
5.470000E+03	1.272653E-15	1.333608E-17
5.480000E+03	1.267908E-15	1.303815E-17
5.490000E+03	1.261411E-15	1.291162E-17
5.500000E+03	1.253099E-15	1.297218E-17
5.510000E+03	1.242709E-15	1.319017E-17
5.520000E+03	1.229981E-15	1.351467E-17
5.530000E+03	1.214726E-15	1.389084E-17
5.540000E+03	1.196797E-15	1.426920E-17
5.550000E+03	1.176154E-15	1.461095E-17
5.560000E+03	1.152912E-15	1.488975E-17
5.570000E+03	1.127285E-15	1.509028E-17
5.580000E+03	1.099590E-15	1.520654E-17
5.590000E+03	1.070306E-15	1.524104E-17
5.600000E+03	1.039946E-15	1.520124E-17
5.610000E+03	1.009117E-15	1.509900E-17
5.620000E+03	9.784513E-16	1.494839E-17
5.630000E+03	9.485867E-16	1.476444E-17
5.640000E+03	9.201455E-16	1.456222E-17
5.650000E+03	8.937231E-16	1.435618E-17
5.660000E+03	8.698563E-16	1.415945E-17
5.670000E+03	8.490176E-16	1.398366E-17
5.680000E+03	8.316407E-16	1.383926E-17
5.690000E+03	8.181044E-16	1.373538E-17
5.700000E+03	8.087145E-16	1.367953E-17
5.710000E+03	8.037607E-16	1.367856E-17
5.720000E+03	8.034970E-16	1.373835E-17
5.730000E+03	8.081301E-16	1.386361E-17
5.740000E+03	8.178540E-16	1.405841E-17
5.750000E+03	8.328237E-16	1.432576E-17
5.760000E+03	8.531504E-16	1.466755E-17
5.770000E+03	8.789188E-16	1.508493E-17
5.780000E+03	9.101478E-16	1.557762E-17
5.790000E+03	9.467798E-16	1.614372E-17
5.800000E+03	9.886578E-16	1.677919E-17
5.810000E+03	1.035500E-15	1.747743E-17
5.820000E+03	1.086878E-15	1.822887E-17
5.830000E+03	1.142196E-15	1.902083E-17
5.840000E+03	1.200694E-15	1.983787E-17
5.850000E+03	1.261410E-15	2.066161E-17
5.860000E+03	1.323228E-15	2.147201E-17
5.870000E+03	1.384905E-15	2.224845E-17
5.880000E+03	1.445077E-15	2.297023E-17
5.890000E+03	1.502362E-15	2.361871E-17
5.900000E+03	1.555377E-15	2.417749E-17
5.910000E+03	1.602847E-15	2.463399E-17
5.920000E+03	1.643687E-15	2.497997E-17
5.930000E+03	1.677011E-15	2.521091E-17
5.940000E+03	1.702234E-15	2.532658E-17
5.950000E+03	1.719101E-15	2.533067E-17
5.960000E+03	1.727636E-15	2.522957E-17
5.970000E+03	1.728179E-15	2.503260E-17
5.980000E+03	1.721345E-15	2.475151E-17
5.990000E+03	1.707895E-15	2.439866E-17
6.000000E+03	1.688787E-15	2.398769E-17
6.010000E+03	1.665036E-15	2.353153E-17
6.020000E+03	1.637675E-15	2.304170E-17
6.030000E+03	1.607688E-15	2.252753E-17
6.040000E+03	1.576006E-15	2.199627E-17
6.050000E+03	1.543479E-15	2.145302E-17
6.060000E+03	1.510790E-15	2.089995E-17
6.070000E+03	1.478570E-15	2.033821E-17
6.080000E+03	1.447267E-15	1.976653E-17
6.090000E+03	1.417255E-15	1.918290E-17
6.100000E+03	1.388826E-15	1.858475E-17
6.110000E+03	1.362156E-15	1.796872E-17
6.120000E+03	1.337386E-15	1.733195E-17
6.130000E+03	1.314568E-15	1.667166E-17
6.140000E+03	1.293728E-15	1.598622E-17
6.150000E+03	1.274884E-15	1.527582E-17
6.160000E+03	1.258002E-15	1.454246E-17
6.170000E+03	1.243040E-15	1.379174E-17
6.180000E+03	1.229930E-15	1.303434E-17
6.190000E+03	1.218591E-15	1.228876E-17
6.200000E+03	1.208952E-15	1.158429E-17
6.210000E+03	1.200910E-15	1.096282E-17
6.220000E+03	1.194386E-15	1.047893E-17
6.230000E+03	1.189261E-15	1.019231E-17
6.240000E+03	1.185459E-15	1.015217E-17
6.250000E+03	1.182805E-15	1.036435E-17
6.260000E+03	1.181112E-15	1.078133E-17
6.270000E+03	1.180160E-15	1.133634E-17
6.280000E+03	1.179719E-15	1.196412E-17
6.290000E+03	1.179647E-15	1.261146E-17
6.300000E+03	1.179748E-15	1.323793E-17
6.310000E+03	1.179936E-15	1.381623E-17
6.320000E+03	1.180085E-15	1.432822E-17
6.330000E+03	1.180138E-15	1.476364E-17
6.340000E+03	1.180050E-15	1.511745E-17
6.350000E+03	1.179786E-15	1.538810E-17
6.360000E+03	1.179358E-15	1.557667E-17
6.370000E+03	1.178754E-15	1.568485E-17
6.380000E+03	1.178013E-15	1.571515E-17
6.390000E+03	1.177158E-15	1.566934E-17
6.400000E+03	1.176216E-15	1.554851E-17
6.410000E+03	1.175229E-15	1.535316E-17
6.420000E+03	1.174216E-15	1.508293E-17
6.430000E+03	1.173206E-15	1.473767E-17
6.440000E+03	1.172245E-15	1.431835E-17
6.450000E+03	1.171337E-15	1.382756E-17
6.460000E+03	1.170557E-15	1.327260E-17
6.470000E+03	1.169922E-15	1.266632E-17
6.480000E+03	1.169488E-15	1.203147E-17
6.490000E+03	1.169308E-15	1.140402E-17
6.500000E+03	1.169428E-15	1.083660E-17
6.510000E+03	1.169887E-15	1.039899E-17
6.520000E+03	1.170716E-15	1.017060E-17
6.530000E+03	1.171954E-15	1.021957E-17
6.540000E+03	1.173691E-15	1.055779E-17
6.550000E+03	1.176122E-15	1.112927E-17
6.560000E+03	1.179409E-15	1.185814E-17
6.570000E+03	1.183696E-15	1.267435E-17
6.580000E+03	1.189020E-15	1.352241E-17
6.590000E+03	1.195369E-15	1.436293E-17
6.600000E+03	1.202657E-15	1.516945E-17
6.610000E+03	1.210690E-15	1.592460E-17
6.620000E+03	1.219239E-15	1.661797E-17
6.630000E+03	1.228001E-15	1.724339E-17
6.640000E+03	1.236650E-15	1.779786E-17
6.650000E+03	1.244802E-15	1.827990E-17
6.660000E+03	1.252081E-15	1.868962E-17
6.670000E+03	1.258159E-15	1.902877E-17
6.680000E+03	1.262673E-15	1.929906E-17
6.690000E+03	1.265356E-15	1.950391E-17
6.700000E+03	1.266001E-15	1.964772E-17
6.710000E+03	1.264442E-15	1.973536E-17
6.720000E+03	1.260602E-15	1.977295E-17
6.730000E+03	1.254485E-15	1.976749E-17
6.740000E+03	1.246187E-15	1.972704E-17
6.750000E+03	1.235858E-15	1.965982E-17
6.760000E+03	1.223697E-15	1.957392E-17
6.770000E+03	1.209973E-15	1.947732E-17
6.780000E+03	1.195035E-15	1.937772E-17
6.790000E+03	1.179197E-15	1.928048E-17
6.800000E+03	1.162835E-15	1.918996E-17
6.810000E+03	1.146367E-15	1.910944E-17
6.820000E+03	1.130152E-15	1.903961E-17
6.830000E+03	1.114588E-15	1.898081E-17
6.840000E+03	1.100028E-15	1.893205E-17
6.850000E+03	1.086845E-15	1.889284E-17
6.860000E+03	1.075320E-15	1.886161E-17
6.870000E+03	1.065747E-15	1.883788E-17
6.880000E+03	1.058363E-15	1.882126E-17
6.890000E+03	1.053346E-15	1.881139E-17
6.900000E+03	1.050862E-15	1.880872E-17
6.910000E+03	1.051010E-15	1.881349E-17
6.920000E+03	1.053823E-15	1.882561E-17
6.930000E+03	1.059310E-15	1.884546E-17
6.940000E+03	1.067406E-15	1.887297E-17
6.950000E+03	1.077967E-15	1.890764E-17
6.960000E+03	1.090817E-15	1.894934E-17
6.970000E+03	1.105695E-15	1.899741E-17
6.980000E+03	1.122257E-15	1.905064E-17
6.990000E+03	1.140108E-15	1.910781E-17
7.000000E+03	1.158816E-15	1.916774E-17
7.010000E+03	1.177892E-15	1.922885E-17
7.020000E+03	1.196786E-15	1.928899E-17
7.030000E+03	1.215020E-15	1.934750E-17
7.040000E+03	1.232107E-15	1.940361E-17
7.050000E+03	1.247572E-15	1.945665E-17
7.060000E+03	1.261089E-15	1.950787E-17
7.070000E+03	1.272365E-15	1.955814E-17
7.080000E+03	1.281233E-15	1.960883E-17
7.090000E+03	1.287658E-15	1.966129E-17
7.100000E+03	1.291653E-15	1.971524E-17
7.110000E+03	1.293414E-15	1.977074E-17
7.120000E+03	1.293139E-15	1.982567E-17
7.130000E+03	1.291168E-15	1.987850E-17
7.140000E+03	1.287801E-15	1.992599E-17
7.150000E+03	1.283412E-15	1.996581E-17
7.160000E+03	1.278370E-15	1.999584E-17
7.170000E+03	1.272954E-15	2.001348E-17
7.180000E+03	1.267467E-15	2.001769E-17
7.190000E+03	1.262137E-15	2.000773E-17
7.200000E+03	1.257138E-15	1.998346E-17
7.210000E+03	1.252577E-15	1.994520E-17
7.220000E+03	1.248485E-15	1.989340E-17
7.230000E+03	1.244893E-15	1.982990E-17
7.240000E+03	1.241702E-15	1.975570E-17
7.250000E+03	1.238830E-15	1.967316E-17
7.260000E+03	1.236141E-15	1.958456E-17
7.270000E+03	1.233474E-15	1.949217E-17
7.280000E+03	1.230652E-15	1.939779E-17
7.290000E+03	1.227492E-15	1.930247E-17
7.300000E+03	1.223795E-15	1.920582E-17
7.310000E+03	1.219434E-15	1.910726E-17
7.320000E+03	1.214244E-15	1.900422E-17
7.330000E+03	1.208089E-15	1.889355E-17
7.340000E+03	1.200929E-15	1.877302E-17
7.350000E+03	1.192702E-15	1.863989E-17
7.360000E+03	1.183403E-15	1.849261E-17
7.370000E+03	1.173068E-15	1.833069E-17
7.380000E+03	1.161764E-15	1.815462E-17
7.390000E+03	1.149606E-15	1.796578E-17
7.400000E+03	1.136692E-15	1.776511E-17
7.410000E+03	1.123190E-15	1.755410E-17
7.420000E+03	1.109195E-15	1.733225E-17
7.430000E+03	1.094879E-15	1.709938E-17
7.440000E+03	1.080368E-15	1.685396E-17
7.450000E+03	1.065782E-15	1.659407E-17
7.460000E+03	1.051190E-15	1.631720E-17
7.470000E+03	1.036693E-15	1.602176E-17
7.480000E+03	1.022399E-15	1.570692E-17
7.490000E+03	1.008348E-15	1.537157E-17
7.500000E+03	9.946455E-16	1.501634E-17
7.510000E+03	9.813165E-16	1.464136E-17
7.520000E+03	9.684149E-16	1.424820E-17
7.530000E+03	9.559904E-16	1.383959E-17
7.540000E+03	9.441078E-16	1.342026E-17
7.550000E+03	9.327970E-16	1.299681E-17
7.560000E+03	9.221061E-16	1.257919E-17
7.570000E+03	9.120841E-16	1.218093E-17
7.580000E+03	9.027808E-16	1.181927E-17
7.590000E+03	8.942465E-16	1.151442E-17
7.600000E+03	8.865143E-16	1.128741E-17
7.610000E+03	8.796480E-16	1.115719E-17
7.620000E+03	8.736880E-16	1.113333E-17
7.630000E+03	8.686604E-16	1.120678E-17
7.640000E+03	8.645810E-16	1.135883E-17
7.650000E+03	8.614405E-16	1.156854E-17
7.660000E+03	8.592354E-16	1.181661E-17
7.670000E+03	8.579817E-16	1.208747E-17
7.680000E+03	8.576170E-16	1.236843E-17
7.690000E+03	8.580948E-16	1.265071E-17
7.700000E+03	8.593681E-16	1.292855E-17
7.710000E+03	8.613572E-16	1.319808E-17
7.720000E+03	8.639492E-16	1.345659E-17
7.730000E+03	8.670326E-16	1.370247E-17
7.740000E+03	8.704991E-16	1.393483E-17
7.750000E+03	8.742142E-16	1.415261E-17
7.760000E+03	8.780202E-16	1.435438E-17
