#wls	flux	fluxerr
1.600000E+03	1.467031E-16	1.040563E-16
1.640000E+03	1.487200E-16	1.039959E-16
1.680000E+03	1.507875E-16	1.038923E-16
1.720000E+03	1.528737E-16	1.037202E-16
1.760000E+03	1.549962E-16	1.034892E-16
1.800000E+03	1.571465E-16	1.031905E-16
1.840000E+03	1.593411E-16	1.028323E-16
1.880000E+03	1.615964E-16	1.024216E-16
1.920000E+03	1.639011E-16	1.019477E-16
1.960000E+03	1.662960E-16	1.014320E-16
2.000000E+03	1.687674E-16	1.008614E-16
2.040000E+03	1.713265E-16	1.002382E-16
2.080000E+03	1.740099E-16	9.957844E-17
2.120000E+03	1.767975E-16	9.886475E-17
2.160000E+03	1.797760E-16	9.813901E-17
2.200000E+03	1.828914E-16	9.736359E-17
2.240000E+03	1.861681E-16	9.654446E-17
2.280000E+03	1.895436E-16	9.564238E-17
2.320000E+03	1.929784E-16	9.463313E-17
2.360000E+03	1.964017E-16	9.347991E-17
2.400000E+03	1.997932E-16	9.217374E-17
2.440000E+03	2.030480E-16	9.066947E-17
2.480000E+03	2.061398E-16	8.896253E-17
2.520000E+03	2.089870E-16	8.702752E-17
2.560000E+03	2.115341E-16	8.485517E-17
2.600000E+03	2.137514E-16	8.245019E-17
2.640000E+03	2.155349E-16	7.979250E-17
2.680000E+03	2.168851E-16	7.690607E-17
2.720000E+03	2.177325E-16	7.379206E-17
2.760000E+03	2.181088E-16	7.048917E-17
2.800000E+03	2.179801E-16	6.701463E-17
2.840000E+03	2.173659E-16	6.340376E-17
2.880000E+03	2.161691E-16	5.965892E-17
2.920000E+03	2.143984E-16	5.581626E-17
2.960000E+03	2.120035E-16	5.189699E-17
3.000000E+03	2.090897E-16	4.796107E-17
3.010000E+03	2.082848E-16	4.697912E-17
3.020000E+03	2.074391E-16	4.599665E-17
3.030000E+03	2.065890E-16	4.502215E-17
3.040000E+03	2.057008E-16	4.404853E-17
3.050000E+03	2.047930E-16	4.308027E-17
3.060000E+03	2.038668E-16	4.211793E-17
3.070000E+03	2.029236E-16	4.116207E-17
3.080000E+03	2.019482E-16	4.021001E-17
3.090000E+03	2.009749E-16	3.926888E-17
3.100000E+03	1.999884E-16	3.833587E-17
3.110000E+03	1.989903E-16	3.741151E-17
3.120000E+03	1.979819E-16	3.649631E-17
3.130000E+03	1.969802E-16	3.559352E-17
3.140000E+03	1.959559E-16	3.469804E-17
3.150000E+03	1.949557E-16	3.381831E-17
3.160000E+03	1.939363E-16	3.294684E-17
3.170000E+03	1.929430E-16	3.209153E-17
3.180000E+03	1.919481E-16	3.124768E-17
3.190000E+03	1.909532E-16	3.041572E-17
3.200000E+03	1.899877E-16	2.960039E-17
3.210000E+03	1.890386E-16	2.879954E-17
3.220000E+03	1.881072E-16	2.801336E-17
3.230000E+03	1.871947E-16	2.724201E-17
3.240000E+03	1.863024E-16	2.648568E-17
3.250000E+03	1.854445E-16	2.574631E-17
3.260000E+03	1.846092E-16	2.502217E-17
3.270000E+03	1.838227E-16	2.431675E-17
3.280000E+03	1.830608E-16	2.362665E-17
3.290000E+03	1.823493E-16	2.295515E-17
3.300000E+03	1.816765E-16	2.230062E-17
3.310000E+03	1.810553E-16	2.166452E-17
3.320000E+03	1.804745E-16	2.104537E-17
3.330000E+03	1.799582E-16	2.044591E-17
3.340000E+03	1.794952E-16	1.986466E-17
3.350000E+03	1.790861E-16	1.930162E-17
3.360000E+03	1.787539E-16	1.875913E-17
3.370000E+03	1.784876E-16	1.823586E-17
3.380000E+03	1.782876E-16	1.773177E-17
3.390000E+03	1.781651E-16	1.724789E-17
3.400000E+03	1.781311E-16	1.678516E-17
3.410000E+03	1.781855E-16	1.634342E-17
3.420000E+03	1.783286E-16	1.592257E-17
3.430000E+03	1.785710E-16	1.552346E-17
3.440000E+03	1.789129E-16	1.514597E-17
3.450000E+03	1.793650E-16	1.479087E-17
3.460000E+03	1.799378E-16	1.445884E-17
3.470000E+03	1.806218E-16	1.414893E-17
3.480000E+03	1.814478E-16	1.386333E-17
3.490000E+03	1.824165E-16	1.360175E-17
3.500000E+03	1.835293E-16	1.336397E-17
3.510000E+03	1.847977E-16	1.315043E-17
3.520000E+03	1.862238E-16	1.296086E-17
3.530000E+03	1.878386E-16	1.279689E-17
3.540000E+03	1.896264E-16	1.265685E-17
3.550000E+03	1.916003E-16	1.254100E-17
3.560000E+03	1.937649E-16	1.244895E-17
3.570000E+03	1.961252E-16	1.238028E-17
3.580000E+03	1.986873E-16	1.233455E-17
3.590000E+03	2.014489E-16	1.231076E-17
3.600000E+03	2.044175E-16	1.230842E-17
3.610000E+03	2.075927E-16	1.232651E-17
3.620000E+03	2.109926E-16	1.236501E-17
3.630000E+03	2.146183E-16	1.242283E-17
3.640000E+03	2.184807E-16	1.249935E-17
3.650000E+03	2.225738E-16	1.259292E-17
3.660000E+03	2.269277E-16	1.270387E-17
3.670000E+03	2.315379E-16	1.283049E-17
3.680000E+03	2.364182E-16	1.297205E-17
3.690000E+03	2.415743E-16	1.312727E-17
3.700000E+03	2.470300E-16	1.329583E-17
3.710000E+03	2.527921E-16	1.347637E-17
3.720000E+03	2.588674E-16	1.366752E-17
3.730000E+03	2.652717E-16	1.386834E-17
3.740000E+03	2.720209E-16	1.407781E-17
3.750000E+03	2.791217E-16	1.429443E-17
3.760000E+03	2.865891E-16	1.451708E-17
3.770000E+03	2.944374E-16	1.474460E-17
3.780000E+03	3.026707E-16	1.497530E-17
3.790000E+03	3.113007E-16	1.520790E-17
3.800000E+03	3.203278E-16	1.544060E-17
3.810000E+03	3.297592E-16	1.567202E-17
3.820000E+03	3.395998E-16	1.590072E-17
3.830000E+03	3.498411E-16	1.612479E-17
3.840000E+03	3.604806E-16	1.634273E-17
3.850000E+03	3.715013E-16	1.655262E-17
3.860000E+03	3.828911E-16	1.675300E-17
3.870000E+03	3.946328E-16	1.694244E-17
3.880000E+03	4.066927E-16	1.711917E-17
3.890000E+03	4.190413E-16	1.728197E-17
3.900000E+03	4.316317E-16	1.742935E-17
3.910000E+03	4.444212E-16	1.756045E-17
3.920000E+03	4.573604E-16	1.767464E-17
3.930000E+03	4.703826E-16	1.777115E-17
3.940000E+03	4.834149E-16	1.784951E-17
3.950000E+03	4.964013E-16	1.791042E-17
3.960000E+03	5.092595E-16	1.795407E-17
3.970000E+03	5.219032E-16	1.798098E-17
3.980000E+03	5.342560E-16	1.799237E-17
3.990000E+03	5.462291E-16	1.798934E-17
4.000000E+03	5.577588E-16	1.797391E-17
4.010000E+03	5.687609E-16	1.794746E-17
4.020000E+03	5.791561E-16	1.791137E-17
4.030000E+03	5.888716E-16	1.786700E-17
4.040000E+03	5.978794E-16	1.781660E-17
4.050000E+03	6.061017E-16	1.776040E-17
4.060000E+03	6.135200E-16	1.769975E-17
4.070000E+03	6.201044E-16	1.763498E-17
4.080000E+03	6.258503E-16	1.756643E-17
4.090000E+03	6.307660E-16	1.749408E-17
4.100000E+03	6.348612E-16	1.741730E-17
4.110000E+03	6.381695E-16	1.733555E-17
4.120000E+03	6.407244E-16	1.724779E-17
4.130000E+03	6.425809E-16	1.715317E-17
4.140000E+03	6.438025E-16	1.705076E-17
4.150000E+03	6.444589E-16	1.693965E-17
4.160000E+03	6.446138E-16	1.681863E-17
4.170000E+03	6.443451E-16	1.668689E-17
4.180000E+03	6.437434E-16	1.654396E-17
4.190000E+03	6.428659E-16	1.638866E-17
4.200000E+03	6.418014E-16	1.622078E-17
4.210000E+03	6.406144E-16	1.603968E-17
4.220000E+03	6.393870E-16	1.584544E-17
4.230000E+03	6.381861E-16	1.563808E-17
4.240000E+03	6.370628E-16	1.541756E-17
4.250000E+03	6.360937E-16	1.518494E-17
4.260000E+03	6.353079E-16	1.494060E-17
4.270000E+03	6.347692E-16	1.468641E-17
4.280000E+03	6.345138E-16	1.442428E-17
4.290000E+03	6.345717E-16	1.415685E-17
4.300000E+03	6.349755E-16	1.388785E-17
4.310000E+03	6.357410E-16	1.362180E-17
4.320000E+03	6.368870E-16	1.336459E-17
4.330000E+03	6.384153E-16	1.312321E-17
4.340000E+03	6.403502E-16	1.290651E-17
4.350000E+03	6.426614E-16	1.272352E-17
4.360000E+03	6.453618E-16	1.258499E-17
4.370000E+03	6.484334E-16	1.250103E-17
4.380000E+03	6.518822E-16	1.248074E-17
4.390000E+03	6.557110E-16	1.252962E-17
4.400000E+03	6.599720E-16	1.264841E-17
4.410000E+03	6.647376E-16	1.283255E-17
4.420000E+03	6.700958E-16	1.307418E-17
4.430000E+03	6.761280E-16	1.336375E-17
4.440000E+03	6.829392E-16	1.369209E-17
4.450000E+03	6.905870E-16	1.404990E-17
4.460000E+03	6.991170E-16	1.442881E-17
4.470000E+03	7.085695E-16	1.482171E-17
4.480000E+03	7.189686E-16	1.522245E-17
4.490000E+03	7.302807E-16	1.562484E-17
4.500000E+03	7.425112E-16	1.602452E-17
4.510000E+03	7.555841E-16	1.641617E-17
4.520000E+03	7.694608E-16	1.679586E-17
4.530000E+03	7.840288E-16	1.715847E-17
4.540000E+03	7.991716E-16	1.749904E-17
4.550000E+03	8.147598E-16	1.781238E-17
4.560000E+03	8.306316E-16	1.809252E-17
4.570000E+03	8.465941E-16	1.833260E-17
4.580000E+03	8.624694E-16	1.852581E-17
4.590000E+03	8.780338E-16	1.866394E-17
4.600000E+03	8.930767E-16	1.873869E-17
4.610000E+03	9.073725E-16	1.874105E-17
4.620000E+03	9.206973E-16	1.866176E-17
4.630000E+03	9.328464E-16	1.849187E-17
4.640000E+03	9.436288E-16	1.822285E-17
4.650000E+03	9.528609E-16	1.784681E-17
4.660000E+03	9.604071E-16	1.735776E-17
4.670000E+03	9.661257E-16	1.675108E-17
4.680000E+03	9.699430E-16	1.602554E-17
4.690000E+03	9.718094E-16	1.518325E-17
4.700000E+03	9.717240E-16	1.423109E-17
4.710000E+03	9.697000E-16	1.318150E-17
4.720000E+03	9.658216E-16	1.205529E-17
4.730000E+03	9.601717E-16	1.088365E-17
4.740000E+03	9.528975E-16	9.713579E-18
4.750000E+03	9.441489E-16	8.613489E-18
4.760000E+03	9.341105E-16	7.679237E-18
4.770000E+03	9.229908E-16	7.028778E-18
4.780000E+03	9.110318E-16	6.766598E-18
4.790000E+03	8.985202E-16	6.918326E-18
4.800000E+03	8.858083E-16	7.403559E-18
4.810000E+03	8.732701E-16	8.094389E-18
4.820000E+03	8.612558E-16	8.877710E-18
4.830000E+03	8.500815E-16	9.676463E-18
4.840000E+03	8.400199E-16	1.044527E-17
4.850000E+03	8.313241E-16	1.116088E-17
4.860000E+03	8.241508E-16	1.181300E-17
4.870000E+03	8.186550E-16	1.240005E-17
4.880000E+03	8.149064E-16	1.292447E-17
4.890000E+03	8.129548E-16	1.339153E-17
4.900000E+03	8.127847E-16	1.380722E-17
4.910000E+03	8.143520E-16	1.417802E-17
4.920000E+03	8.175570E-16	1.450996E-17
4.930000E+03	8.222457E-16	1.480830E-17
4.940000E+03	8.282380E-16	1.507787E-17
4.950000E+03	8.353043E-16	1.532253E-17
4.960000E+03	8.431702E-16	1.554513E-17
4.970000E+03	8.515611E-16	1.574818E-17
4.980000E+03	8.601487E-16	1.593266E-17
4.990000E+03	8.686375E-16	1.609943E-17
5.000000E+03	8.767157E-16	1.624810E-17
5.010000E+03	8.841174E-16	1.637795E-17
5.020000E+03	8.906001E-16	1.648742E-17
5.030000E+03	8.959960E-16	1.657502E-17
5.040000E+03	9.001831E-16	1.663887E-17
5.050000E+03	9.031374E-16	1.667787E-17
5.060000E+03	9.048752E-16	1.669093E-17
5.070000E+03	9.054856E-16	1.667789E-17
5.080000E+03	9.051112E-16	1.663956E-17
5.090000E+03	9.039457E-16	1.657794E-17
5.100000E+03	9.021915E-16	1.649573E-17
5.110000E+03	9.000841E-16	1.639693E-17
5.120000E+03	8.978514E-16	1.628618E-17
5.130000E+03	8.957042E-16	1.616860E-17
5.140000E+03	8.938652E-16	1.605014E-17
5.150000E+03	8.924991E-16	1.593625E-17
5.160000E+03	8.917840E-16	1.583284E-17
5.170000E+03	8.918452E-16	1.574486E-17
5.180000E+03	8.927928E-16	1.567670E-17
5.190000E+03	8.947129E-16	1.563173E-17
5.200000E+03	8.976777E-16	1.561226E-17
5.210000E+03	9.017192E-16	1.561898E-17
5.220000E+03	9.068566E-16	1.565137E-17
5.230000E+03	9.130967E-16	1.570780E-17
5.240000E+03	9.204150E-16	1.578533E-17
5.250000E+03	9.287553E-16	1.587988E-17
5.260000E+03	9.380480E-16	1.598675E-17
5.270000E+03	9.482102E-16	1.610078E-17
5.280000E+03	9.591282E-16	1.621618E-17
5.290000E+03	9.706577E-16	1.632657E-17
5.300000E+03	9.826558E-16	1.642560E-17
5.310000E+03	9.949448E-16	1.650623E-17
5.320000E+03	1.007345E-15	1.656132E-17
5.330000E+03	1.019682E-15	1.658355E-17
5.340000E+03	1.031757E-15	1.656509E-17
5.350000E+03	1.043397E-15	1.649828E-17
5.360000E+03	1.054417E-15	1.637526E-17
5.370000E+03	1.064658E-15	1.618870E-17
5.380000E+03	1.073990E-15	1.593234E-17
5.390000E+03	1.082273E-15	1.560090E-17
5.400000E+03	1.089436E-15	1.519212E-17
5.410000E+03	1.095401E-15	1.470676E-17
5.420000E+03	1.100111E-15	1.415058E-17
5.430000E+03	1.103568E-15	1.353663E-17
5.440000E+03	1.105751E-15	1.288658E-17
5.450000E+03	1.106650E-15	1.223351E-17
5.460000E+03	1.106277E-15	1.162368E-17
5.470000E+03	1.104619E-15	1.111494E-17
5.480000E+03	1.101622E-15	1.076966E-17
5.490000E+03	1.097213E-15	1.063947E-17
5.500000E+03	1.091235E-15	1.074110E-17
5.510000E+03	1.083437E-15	1.104162E-17
5.520000E+03	1.073567E-15	1.147969E-17
5.530000E+03	1.061375E-15	1.198735E-17
5.540000E+03	1.046717E-15	1.250460E-17
5.550000E+03	1.029514E-15	1.298469E-17
5.560000E+03	1.009824E-15	1.339546E-17
5.570000E+03	9.878445E-16	1.371792E-17
5.580000E+03	9.638780E-16	1.394380E-17
5.590000E+03	9.383588E-16	1.407386E-17
5.600000E+03	9.117987E-16	1.411550E-17
5.610000E+03	8.847784E-16	1.408110E-17
5.620000E+03	8.578905E-16	1.398590E-17
5.630000E+03	8.317397E-16	1.384689E-17
5.640000E+03	8.069175E-16	1.368154E-17
5.650000E+03	7.839599E-16	1.350644E-17
5.660000E+03	7.633689E-16	1.333711E-17
5.670000E+03	7.455819E-16	1.318724E-17
5.680000E+03	7.309806E-16	1.306861E-17
5.690000E+03	7.198946E-16	1.299114E-17
5.700000E+03	7.126074E-16	1.296298E-17
5.710000E+03	7.093638E-16	1.299068E-17
5.720000E+03	7.103768E-16	1.307945E-17
5.730000E+03	7.158328E-16	1.323328E-17
5.740000E+03	7.259008E-16	1.345519E-17
5.750000E+03	7.407026E-16	1.374682E-17
5.760000E+03	7.603577E-16	1.410930E-17
5.770000E+03	7.849299E-16	1.454242E-17
5.780000E+03	8.144107E-16	1.504444E-17
5.790000E+03	8.487476E-16	1.561278E-17
5.800000E+03	8.877674E-16	1.624284E-17
5.810000E+03	9.311941E-16	1.692849E-17
5.820000E+03	9.785926E-16	1.766124E-17
5.830000E+03	1.029368E-15	1.843040E-17
5.840000E+03	1.082789E-15	1.922357E-17
5.850000E+03	1.137930E-15	2.002559E-17
5.860000E+03	1.193727E-15	2.081954E-17
5.870000E+03	1.248999E-15	2.158700E-17
5.880000E+03	1.302493E-15	2.230877E-17
5.890000E+03	1.352925E-15	2.296567E-17
5.900000E+03	1.399085E-15	2.354033E-17
5.910000E+03	1.439852E-15	2.401748E-17
5.920000E+03	1.474302E-15	2.438596E-17
5.930000E+03	1.501697E-15	2.463826E-17
5.940000E+03	1.521615E-15	2.477256E-17
5.950000E+03	1.533853E-15	2.479064E-17
5.960000E+03	1.538530E-15	2.469902E-17
5.970000E+03	1.535975E-15	2.450648E-17
5.980000E+03	1.526797E-15	2.422484E-17
5.990000E+03	1.511734E-15	2.386604E-17
6.000000E+03	1.491658E-15	2.344232E-17
6.010000E+03	1.467490E-15	2.296501E-17
6.020000E+03	1.440185E-15	2.244460E-17
6.030000E+03	1.410683E-15	2.189045E-17
6.040000E+03	1.379820E-15	2.130980E-17
6.050000E+03	1.348388E-15	2.070906E-17
6.060000E+03	1.317069E-15	2.009292E-17
6.070000E+03	1.286421E-15	1.946438E-17
6.080000E+03	1.256927E-15	1.882531E-17
6.090000E+03	1.228956E-15	1.817591E-17
6.100000E+03	1.202774E-15	1.751473E-17
6.110000E+03	1.178589E-15	1.683939E-17
6.120000E+03	1.156531E-15	1.614621E-17
6.130000E+03	1.136654E-15	1.543060E-17
6.140000E+03	1.119002E-15	1.468831E-17
6.150000E+03	1.103538E-15	1.391522E-17
6.160000E+03	1.090227E-15	1.310959E-17
6.170000E+03	1.078946E-15	1.227260E-17
6.180000E+03	1.069624E-15	1.141255E-17
6.190000E+03	1.062092E-15	1.054653E-17
6.200000E+03	1.056213E-15	9.706568E-18
6.210000E+03	1.051801E-15	8.943719E-18
6.220000E+03	1.048675E-15	8.330802E-18
6.230000E+03	1.046612E-15	7.953559E-18
6.240000E+03	1.045408E-15	7.883373E-18
6.250000E+03	1.044881E-15	8.132452E-18
6.260000E+03	1.044843E-15	8.640588E-18
6.270000E+03	1.045132E-15	9.317191E-18
6.280000E+03	1.045593E-15	1.007649E-17
6.290000E+03	1.046076E-15	1.085228E-17
6.300000E+03	1.046467E-15	1.159914E-17
6.310000E+03	1.046639E-15	1.228758E-17
6.320000E+03	1.046532E-15	1.290033E-17
6.330000E+03	1.046077E-15	1.342786E-17
6.340000E+03	1.045230E-15	1.386600E-17
6.350000E+03	1.044005E-15	1.421458E-17
6.360000E+03	1.042380E-15	1.447484E-17
6.370000E+03	1.040417E-15	1.465013E-17
6.380000E+03	1.038127E-15	1.474344E-17
6.390000E+03	1.035582E-15	1.475870E-17
6.400000E+03	1.032827E-15	1.469934E-17
6.410000E+03	1.029932E-15	1.456915E-17
6.420000E+03	1.026942E-15	1.437188E-17
6.430000E+03	1.023924E-15	1.411235E-17
6.440000E+03	1.020941E-15	1.379679E-17
6.450000E+03	1.018055E-15	1.343363E-17
6.460000E+03	1.015339E-15	1.303473E-17
6.470000E+03	1.012841E-15	1.261597E-17
6.480000E+03	1.010644E-15	1.219905E-17
6.490000E+03	1.008777E-15	1.181093E-17
6.500000E+03	1.007289E-15	1.148432E-17
6.510000E+03	1.006220E-15	1.125463E-17
6.520000E+03	1.005623E-15	1.115491E-17
6.530000E+03	1.005554E-15	1.120811E-17
6.540000E+03	1.006094E-15	1.141765E-17
6.550000E+03	1.007313E-15	1.176523E-17
6.560000E+03	1.009275E-15	1.222100E-17
6.570000E+03	1.012048E-15	1.275194E-17
6.580000E+03	1.015586E-15	1.332622E-17
6.590000E+03	1.019861E-15	1.391772E-17
6.600000E+03	1.024750E-15	1.450529E-17
6.610000E+03	1.030087E-15	1.507300E-17
6.620000E+03	1.035688E-15	1.560948E-17
6.630000E+03	1.041281E-15	1.610595E-17
6.640000E+03	1.046633E-15	1.655702E-17
6.650000E+03	1.051432E-15	1.695823E-17
6.660000E+03	1.055419E-15	1.730733E-17
6.670000E+03	1.058314E-15	1.760260E-17
6.680000E+03	1.059891E-15	1.784369E-17
6.690000E+03	1.059955E-15	1.803097E-17
6.700000E+03	1.058362E-15	1.816569E-17
6.710000E+03	1.055029E-15	1.825001E-17
6.720000E+03	1.049936E-15	1.828703E-17
6.730000E+03	1.043153E-15	1.828122E-17
6.740000E+03	1.034747E-15	1.823677E-17
6.750000E+03	1.024919E-15	1.815998E-17
6.760000E+03	1.013865E-15	1.805680E-17
6.770000E+03	1.001824E-15	1.793348E-17
6.780000E+03	9.891017E-16	1.779707E-17
6.790000E+03	9.759866E-16	1.765377E-17
6.800000E+03	9.627912E-16	1.750968E-17
6.810000E+03	9.498428E-16	1.737058E-17
6.820000E+03	9.374377E-16	1.724122E-17
6.830000E+03	9.258723E-16	1.712591E-17
6.840000E+03	9.154368E-16	1.702850E-17
6.850000E+03	9.063861E-16	1.695200E-17
6.860000E+03	8.989364E-16	1.689853E-17
6.870000E+03	8.932982E-16	1.687011E-17
6.880000E+03	8.896252E-16	1.686769E-17
6.890000E+03	8.880601E-16	1.689211E-17
6.900000E+03	8.886837E-16	1.694316E-17
6.910000E+03	8.915726E-16	1.702067E-17
6.920000E+03	8.966997E-16	1.712273E-17
6.930000E+03	9.040643E-16	1.724822E-17
6.940000E+03	9.135560E-16	1.739425E-17
6.950000E+03	9.250495E-16	1.755814E-17
6.960000E+03	9.383413E-16	1.773628E-17
6.970000E+03	9.532001E-16	1.792519E-17
6.980000E+03	9.693173E-16	1.812062E-17
6.990000E+03	9.863641E-16	1.831868E-17
7.000000E+03	1.003947E-15	1.851497E-17
7.010000E+03	1.021676E-15	1.870570E-17
7.020000E+03	1.039120E-15	1.888688E-17
7.030000E+03	1.055888E-15	1.905541E-17
7.040000E+03	1.071586E-15	1.920820E-17
7.050000E+03	1.085884E-15	1.934305E-17
7.060000E+03	1.098516E-15	1.945844E-17
7.070000E+03	1.109294E-15	1.955355E-17
7.080000E+03	1.118119E-15	1.962831E-17
7.090000E+03	1.124981E-15	1.968335E-17
7.100000E+03	1.129957E-15	1.971995E-17
7.110000E+03	1.133199E-15	1.973997E-17
7.120000E+03	1.134924E-15	1.974575E-17
7.130000E+03	1.135378E-15	1.973974E-17
7.140000E+03	1.134847E-15	1.972490E-17
7.150000E+03	1.133645E-15	1.970456E-17
7.160000E+03	1.132040E-15	1.968144E-17
7.170000E+03	1.130290E-15	1.965828E-17
7.180000E+03	1.128614E-15	1.963744E-17
7.190000E+03	1.127182E-15	1.962067E-17
7.200000E+03	1.126090E-15	1.960868E-17
7.210000E+03	1.125410E-15	1.960184E-17
7.220000E+03	1.125121E-15	1.959902E-17
7.230000E+03	1.125163E-15	1.959833E-17
7.240000E+03	1.125424E-15	1.959699E-17
7.250000E+03	1.125749E-15	1.959149E-17
7.260000E+03	1.125948E-15	1.957777E-17
7.270000E+03	1.125773E-15	1.955104E-17
7.280000E+03	1.125031E-15	1.950777E-17
7.290000E+03	1.123461E-15	1.944371E-17
7.300000E+03	1.120866E-15	1.935613E-17
7.310000E+03	1.117055E-15	1.924284E-17
7.320000E+03	1.111841E-15	1.910200E-17
7.330000E+03	1.105131E-15	1.893350E-17
7.340000E+03	1.096853E-15	1.873750E-17
7.350000E+03	1.087005E-15	1.851518E-17
7.360000E+03	1.075641E-15	1.826825E-17
7.370000E+03	1.062853E-15	1.799861E-17
7.380000E+03	1.048813E-15	1.770896E-17
7.390000E+03	1.033682E-15	1.740132E-17
7.400000E+03	1.017696E-15	1.707844E-17
7.410000E+03	1.001063E-15	1.674205E-17
7.420000E+03	9.840572E-16	1.639448E-17
7.430000E+03	9.669013E-16	1.603669E-17
7.440000E+03	9.498216E-16	1.566920E-17
7.450000E+03	9.330235E-16	1.529171E-17
7.460000E+03	9.167016E-16	1.490340E-17
7.470000E+03	9.009800E-16	1.450214E-17
7.480000E+03	8.860090E-16	1.408627E-17
7.490000E+03	8.718674E-16	1.365332E-17
7.500000E+03	8.586322E-16	1.320147E-17
7.510000E+03	8.463526E-16	1.272958E-17
7.520000E+03	8.350262E-16	1.223730E-17
7.530000E+03	8.246539E-16	1.172657E-17
7.540000E+03	8.152034E-16	1.120183E-17
7.550000E+03	8.066380E-16	1.067140E-17
7.560000E+03	7.988819E-16	1.014806E-17
7.570000E+03	7.918748E-16	9.650769E-18
7.580000E+03	7.855395E-16	9.204523E-18
7.590000E+03	7.798005E-16	8.839458E-18
7.600000E+03	7.745923E-16	8.586994E-18
7.610000E+03	7.698808E-16	8.472896E-18
7.620000E+03	7.656485E-16	8.507936E-18
7.630000E+03	7.619110E-16	8.681721E-18
7.640000E+03	7.586966E-16	8.968326E-18
7.650000E+03	7.560813E-16	9.336198E-18
7.660000E+03	7.540914E-16	9.754416E-18
7.670000E+03	7.527903E-16	1.019777E-17
7.680000E+03	7.521873E-16	1.064675E-17
7.690000E+03	7.522928E-16	1.108780E-17
7.700000E+03	7.530566E-16	1.151132E-17
7.710000E+03	7.544634E-16	1.191186E-17
7.720000E+03	7.564013E-16	1.228512E-17
7.730000E+03	7.587979E-16	1.262922E-17
7.740000E+03	7.615143E-16	1.294235E-17
7.750000E+03	7.644482E-16	1.322400E-17
7.760000E+03	7.674655E-16	1.347349E-17
