#wls	flux	fluxerr
1.600000E+03	1.366472E-16	9.731737E-17
1.640000E+03	1.381847E-16	9.704283E-17
1.680000E+03	1.397609E-16	9.673019E-17
1.720000E+03	1.413186E-16	9.633768E-17
1.760000E+03	1.428756E-16	9.587660E-17
1.800000E+03	1.444504E-16	9.535771E-17
1.840000E+03	1.460080E-16	9.475653E-17
1.880000E+03	1.476191E-16	9.411747E-17
1.920000E+03	1.492209E-16	9.339808E-17
1.960000E+03	1.508564E-16	9.262413E-17
2.000000E+03	1.525145E-16	9.178652E-17
2.040000E+03	1.542375E-16	9.090848E-17
2.080000E+03	1.559845E-16	8.996304E-17
2.120000E+03	1.577680E-16	8.895549E-17
2.160000E+03	1.596268E-16	8.790514E-17
2.200000E+03	1.614871E-16	8.676875E-17
2.240000E+03	1.634121E-16	8.557887E-17
2.280000E+03	1.653242E-16	8.429298E-17
2.320000E+03	1.671996E-16	8.289977E-17
2.360000E+03	1.690408E-16	8.140210E-17
2.400000E+03	1.707667E-16	7.976393E-17
2.440000E+03	1.724051E-16	7.800362E-17
2.480000E+03	1.738482E-16	7.607881E-17
2.520000E+03	1.751242E-16	7.401157E-17
2.560000E+03	1.761562E-16	7.177977E-17
2.600000E+03	1.769490E-16	6.939865E-17
2.640000E+03	1.775093E-16	6.688417E-17
2.680000E+03	1.777714E-16	6.422628E-17
2.720000E+03	1.777511E-16	6.144752E-17
2.760000E+03	1.774204E-16	5.855550E-17
2.800000E+03	1.768063E-16	5.557705E-17
2.840000E+03	1.758958E-16	5.252574E-17
2.880000E+03	1.746859E-16	4.941900E-17
2.920000E+03	1.731845E-16	4.627744E-17
2.960000E+03	1.714508E-16	4.313412E-17
3.000000E+03	1.695877E-16	4.002881E-17
3.010000E+03	1.691020E-16	3.925975E-17
3.020000E+03	1.686023E-16	3.849253E-17
3.030000E+03	1.681086E-16	3.773190E-17
3.040000E+03	1.676214E-16	3.697799E-17
3.050000E+03	1.671415E-16	3.623092E-17
3.060000E+03	1.666507E-16	3.548688E-17
3.070000E+03	1.661687E-16	3.475014E-17
3.080000E+03	1.656779E-16	3.401708E-17
3.090000E+03	1.652155E-16	3.329537E-17
3.100000E+03	1.647459E-16	3.257775E-17
3.110000E+03	1.643056E-16	3.187149E-17
3.120000E+03	1.638600E-16	3.116971E-17
3.130000E+03	1.634448E-16	3.047927E-17
3.140000E+03	1.630260E-16	2.979368E-17
3.150000E+03	1.626388E-16	2.911940E-17
3.160000E+03	1.622836E-16	2.845624E-17
3.170000E+03	1.619271E-16	2.779826E-17
3.180000E+03	1.616038E-16	2.715138E-17
3.190000E+03	1.613140E-16	2.651540E-17
3.200000E+03	1.610417E-16	2.588754E-17
3.210000E+03	1.608039E-16	2.527039E-17
3.220000E+03	1.606009E-16	2.466381E-17
3.230000E+03	1.604331E-16	2.406762E-17
3.240000E+03	1.603008E-16	2.348169E-17
3.250000E+03	1.602200E-16	2.290812E-17
3.260000E+03	1.601598E-16	2.234224E-17
3.270000E+03	1.601516E-16	2.178834E-17
3.280000E+03	1.601953E-16	2.124614E-17
3.290000E+03	1.602909E-16	2.071535E-17
3.300000E+03	1.604384E-16	2.019574E-17
3.310000E+03	1.606230E-16	1.968528E-17
3.320000E+03	1.608743E-16	1.918750E-17
3.330000E+03	1.611920E-16	1.870207E-17
3.340000E+03	1.615612E-16	1.822708E-17
3.350000E+03	1.619961E-16	1.776407E-17
3.360000E+03	1.625105E-16	1.731440E-17
3.370000E+03	1.630753E-16	1.687484E-17
3.380000E+03	1.637185E-16	1.644835E-17
3.390000E+03	1.644390E-16	1.603481E-17
3.400000E+03	1.652360E-16	1.563417E-17
3.410000E+03	1.661085E-16	1.524646E-17
3.420000E+03	1.670691E-16	1.487306E-17
3.430000E+03	1.681026E-16	1.451286E-17
3.440000E+03	1.692350E-16	1.416847E-17
3.450000E+03	1.704507E-16	1.383898E-17
3.460000E+03	1.717481E-16	1.352477E-17
3.470000E+03	1.731390E-16	1.322725E-17
3.480000E+03	1.746216E-16	1.294676E-17
3.490000E+03	1.762077E-16	1.268465E-17
3.500000E+03	1.778839E-16	1.244028E-17
3.510000E+03	1.796636E-16	1.221494E-17
3.520000E+03	1.815473E-16	1.200895E-17
3.530000E+03	1.835505E-16	1.182336E-17
3.540000E+03	1.856630E-16	1.165749E-17
3.550000E+03	1.879008E-16	1.151233E-17
3.560000E+03	1.902549E-16	1.138714E-17
3.570000E+03	1.927547E-16	1.128348E-17
3.580000E+03	1.953913E-16	1.120056E-17
3.590000E+03	1.981820E-16	1.113891E-17
3.600000E+03	2.011190E-16	1.109758E-17
3.610000E+03	2.042077E-16	1.107628E-17
3.620000E+03	2.074797E-16	1.107579E-17
3.630000E+03	2.109170E-16	1.109407E-17
3.640000E+03	2.145395E-16	1.113110E-17
3.650000E+03	2.183441E-16	1.118536E-17
3.660000E+03	2.223657E-16	1.125720E-17
3.670000E+03	2.266022E-16	1.134510E-17
3.680000E+03	2.310658E-16	1.144809E-17
3.690000E+03	2.357570E-16	1.156462E-17
3.700000E+03	2.407142E-16	1.169498E-17
3.710000E+03	2.459288E-16	1.183677E-17
3.720000E+03	2.514427E-16	1.198997E-17
3.730000E+03	2.572491E-16	1.215220E-17
3.740000E+03	2.633781E-16	1.232260E-17
3.750000E+03	2.698482E-16	1.249972E-17
3.760000E+03	2.766656E-16	1.268154E-17
3.770000E+03	2.838604E-16	1.286707E-17
3.780000E+03	2.914378E-16	1.305418E-17
3.790000E+03	2.994284E-16	1.324194E-17
3.800000E+03	3.078350E-16	1.342817E-17
3.810000E+03	3.166731E-16	1.361131E-17
3.820000E+03	3.259703E-16	1.379040E-17
3.830000E+03	3.357102E-16	1.396263E-17
3.840000E+03	3.459006E-16	1.412636E-17
3.850000E+03	3.565602E-16	1.428060E-17
3.860000E+03	3.676730E-16	1.442297E-17
3.870000E+03	3.792462E-16	1.455235E-17
3.880000E+03	3.912405E-16	1.466614E-17
3.890000E+03	4.036446E-16	1.476306E-17
3.900000E+03	4.164259E-16	1.484153E-17
3.910000E+03	4.295157E-16	1.489928E-17
3.920000E+03	4.428888E-16	1.493571E-17
3.930000E+03	4.564675E-16	1.494914E-17
3.940000E+03	4.701663E-16	1.493855E-17
3.950000E+03	4.839082E-16	1.490362E-17
3.960000E+03	4.976090E-16	1.484487E-17
3.970000E+03	5.111786E-16	1.476379E-17
3.980000E+03	5.245112E-16	1.466183E-17
3.990000E+03	5.375276E-16	1.454241E-17
4.000000E+03	5.500989E-16	1.440859E-17
4.010000E+03	5.621456E-16	1.426416E-17
4.020000E+03	5.735574E-16	1.411281E-17
4.030000E+03	5.842417E-16	1.395917E-17
4.040000E+03	5.941177E-16	1.380631E-17
4.050000E+03	6.030960E-16	1.365702E-17
4.060000E+03	6.111155E-16	1.351445E-17
4.070000E+03	6.181483E-16	1.337929E-17
4.080000E+03	6.241671E-16	1.325167E-17
4.090000E+03	6.291908E-16	1.313238E-17
4.100000E+03	6.332372E-16	1.301940E-17
4.110000E+03	6.363394E-16	1.291105E-17
4.120000E+03	6.385715E-16	1.280681E-17
4.130000E+03	6.399915E-16	1.270407E-17
4.140000E+03	6.406819E-16	1.260139E-17
4.150000E+03	6.407159E-16	1.249791E-17
4.160000E+03	6.401984E-16	1.239179E-17
4.170000E+03	6.392084E-16	1.228158E-17
4.180000E+03	6.378404E-16	1.216713E-17
4.190000E+03	6.361837E-16	1.204661E-17
4.200000E+03	6.343260E-16	1.191919E-17
4.210000E+03	6.323386E-16	1.178454E-17
4.220000E+03	6.303073E-16	1.164036E-17
4.230000E+03	6.282871E-16	1.148471E-17
4.240000E+03	6.263418E-16	1.131699E-17
4.250000E+03	6.245222E-16	1.113517E-17
4.260000E+03	6.228863E-16	1.093872E-17
4.270000E+03	6.214522E-16	1.072793E-17
4.280000E+03	6.202638E-16	1.050296E-17
4.290000E+03	6.193496E-16	1.026545E-17
4.300000E+03	6.187339E-16	1.001873E-17
4.310000E+03	6.184158E-16	9.765020E-18
4.320000E+03	6.184256E-16	9.509249E-18
4.330000E+03	6.187475E-16	9.258200E-18
4.340000E+03	6.193912E-16	9.019627E-18
4.350000E+03	6.203572E-16	8.803963E-18
4.360000E+03	6.216380E-16	8.624335E-18
4.370000E+03	6.232444E-16	8.494577E-18
4.380000E+03	6.251844E-16	8.428881E-18
4.390000E+03	6.274649E-16	8.439196E-18
4.400000E+03	6.301285E-16	8.523570E-18
4.410000E+03	6.332614E-16	8.668279E-18
4.420000E+03	6.369493E-16	8.857851E-18
4.430000E+03	6.412828E-16	9.076655E-18
4.440000E+03	6.463359E-16	9.311311E-18
4.450000E+03	6.521949E-16	9.551820E-18
4.460000E+03	6.589143E-16	9.789772E-18
4.470000E+03	6.665671E-16	1.002031E-17
4.480000E+03	6.752007E-16	1.024097E-17
4.490000E+03	6.848359E-16	1.044909E-17
4.500000E+03	6.955040E-16	1.064438E-17
4.510000E+03	7.071782E-16	1.082746E-17
4.520000E+03	7.197856E-16	1.099683E-17
4.530000E+03	7.332386E-16	1.115239E-17
4.540000E+03	7.474050E-16	1.129502E-17
4.550000E+03	7.620963E-16	1.142288E-17
4.560000E+03	7.770936E-16	1.153538E-17
4.570000E+03	7.921591E-16	1.163346E-17
4.580000E+03	8.070214E-16	1.171528E-17
4.590000E+03	8.214029E-16	1.178052E-17
4.600000E+03	8.350279E-16	1.182947E-17
4.610000E+03	8.476754E-16	1.185678E-17
4.620000E+03	8.591135E-16	1.185698E-17
4.630000E+03	8.691690E-16	1.182533E-17
4.640000E+03	8.776896E-16	1.174971E-17
4.650000E+03	8.845431E-16	1.161860E-17
4.660000E+03	8.896304E-16	1.142282E-17
4.670000E+03	8.928313E-16	1.115004E-17
4.680000E+03	8.940879E-16	1.079213E-17
4.690000E+03	8.933171E-16	1.034557E-17
4.700000E+03	8.904877E-16	9.809893E-18
4.710000E+03	8.856071E-16	9.192002E-18
4.720000E+03	8.787072E-16	8.506378E-18
4.730000E+03	8.699459E-16	7.771902E-18
4.740000E+03	8.594918E-16	7.020341E-18
4.750000E+03	8.475966E-16	6.302178E-18
4.760000E+03	8.345794E-16	5.685908E-18
4.770000E+03	8.207747E-16	5.259066E-18
4.780000E+03	8.065639E-16	5.104502E-18
4.790000E+03	7.923215E-16	5.241531E-18
4.800000E+03	7.783402E-16	5.596585E-18
4.810000E+03	7.649225E-16	6.071962E-18
4.820000E+03	7.523354E-16	6.586845E-18
4.830000E+03	7.408810E-16	7.089510E-18
4.840000E+03	7.308143E-16	7.551428E-18
4.850000E+03	7.223755E-16	7.958219E-18
4.860000E+03	7.157764E-16	8.305371E-18
4.870000E+03	7.112244E-16	8.594471E-18
4.880000E+03	7.088294E-16	8.827830E-18
4.890000E+03	7.086989E-16	9.009923E-18
4.900000E+03	7.109111E-16	9.146545E-18
4.910000E+03	7.154581E-16	9.242651E-18
4.920000E+03	7.223140E-16	9.304283E-18
4.930000E+03	7.313841E-16	9.337890E-18
4.940000E+03	7.424522E-16	9.348133E-18
4.950000E+03	7.552294E-16	9.340887E-18
4.960000E+03	7.693363E-16	9.323336E-18
4.970000E+03	7.842639E-16	9.301353E-18
4.980000E+03	7.994284E-16	9.282573E-18
4.990000E+03	8.141995E-16	9.275485E-18
5.000000E+03	8.279125E-16	9.283734E-18
5.010000E+03	8.399296E-16	9.310316E-18
5.020000E+03	8.497125E-16	9.356224E-18
5.030000E+03	8.569937E-16	9.413472E-18
5.040000E+03	8.617125E-16	9.472743E-18
5.050000E+03	8.639017E-16	9.524745E-18
5.060000E+03	8.638429E-16	9.558766E-18
5.070000E+03	8.619251E-16	9.567007E-18
5.080000E+03	8.585965E-16	9.545687E-18
5.090000E+03	8.543318E-16	9.492472E-18
5.100000E+03	8.496252E-16	9.409080E-18
5.110000E+03	8.449172E-16	9.299702E-18
5.120000E+03	8.405343E-16	9.165967E-18
5.130000E+03	8.367401E-16	9.011592E-18
5.140000E+03	8.337507E-16	8.843252E-18
5.150000E+03	8.316785E-16	8.668039E-18
5.160000E+03	8.305954E-16	8.496020E-18
5.170000E+03	8.305488E-16	8.339636E-18
5.180000E+03	8.315408E-16	8.209535E-18
5.190000E+03	8.335702E-16	8.117083E-18
5.200000E+03	8.366245E-16	8.071270E-18
5.210000E+03	8.407225E-16	8.070792E-18
5.220000E+03	8.459096E-16	8.111535E-18
5.230000E+03	8.521834E-16	8.188060E-18
5.240000E+03	8.595704E-16	8.291068E-18
5.250000E+03	8.680428E-16	8.411983E-18
5.260000E+03	8.775722E-16	8.544282E-18
5.270000E+03	8.880914E-16	8.679231E-18
5.280000E+03	8.994745E-16	8.810255E-18
5.290000E+03	9.116047E-16	8.934017E-18
5.300000E+03	9.243082E-16	9.045676E-18
5.310000E+03	9.373950E-16	9.142685E-18
5.320000E+03	9.506591E-16	9.224037E-18
5.330000E+03	9.639093E-16	9.285588E-18
5.340000E+03	9.769158E-16	9.324013E-18
5.350000E+03	9.894870E-16	9.338304E-18
5.360000E+03	1.001431E-15	9.325939E-18
5.370000E+03	1.012584E-15	9.287110E-18
5.380000E+03	1.022764E-15	9.224018E-18
5.390000E+03	1.031886E-15	9.137033E-18
5.400000E+03	1.039862E-15	9.028867E-18
5.410000E+03	1.046620E-15	8.902746E-18
5.420000E+03	1.052287E-15	8.752504E-18
5.430000E+03	1.057000E-15	8.574558E-18
5.440000E+03	1.060889E-15	8.370778E-18
5.450000E+03	1.064220E-15	8.142004E-18
5.460000E+03	1.067196E-15	7.899362E-18
5.470000E+03	1.069993E-15	7.669128E-18
5.480000E+03	1.072746E-15	7.488004E-18
5.490000E+03	1.075490E-15	7.402603E-18
5.500000E+03	1.077952E-15	7.443262E-18
5.510000E+03	1.079248E-15	7.583257E-18
5.520000E+03	1.078290E-15	7.785136E-18
5.530000E+03	1.074040E-15	8.016315E-18
5.540000E+03	1.065662E-15	8.243759E-18
5.550000E+03	1.052472E-15	8.445497E-18
5.560000E+03	1.034092E-15	8.608990E-18
5.570000E+03	1.010760E-15	8.718497E-18
5.580000E+03	9.829909E-16	8.766481E-18
5.590000E+03	9.514846E-16	8.754252E-18
5.600000E+03	9.172903E-16	8.684469E-18
5.610000E+03	8.814866E-16	8.566628E-18
5.620000E+03	8.451319E-16	8.415778E-18
5.630000E+03	8.092787E-16	8.245523E-18
5.640000E+03	7.748842E-16	8.071099E-18
5.650000E+03	7.427513E-16	7.907168E-18
5.660000E+03	7.135940E-16	7.763338E-18
5.670000E+03	6.879877E-16	7.647694E-18
5.680000E+03	6.664047E-16	7.566877E-18
5.690000E+03	6.491968E-16	7.522133E-18
5.700000E+03	6.366684E-16	7.514272E-18
5.710000E+03	6.290652E-16	7.544088E-18
5.720000E+03	6.265791E-16	7.610493E-18
5.730000E+03	6.293970E-16	7.712527E-18
5.740000E+03	6.377084E-16	7.849400E-18
5.750000E+03	6.516554E-16	8.018514E-18
5.760000E+03	6.713980E-16	8.217417E-18
5.770000E+03	6.970789E-16	8.443585E-18
5.780000E+03	7.287351E-16	8.692424E-18
5.790000E+03	7.663160E-16	8.959620E-18
5.800000E+03	8.096742E-16	9.242044E-18
5.810000E+03	8.583956E-16	9.534991E-18
5.820000E+03	9.118360E-16	9.836249E-18
5.830000E+03	9.690909E-16	1.014679E-17
5.840000E+03	1.028952E-15	1.046669E-17
5.850000E+03	1.089918E-15	1.079808E-17
5.860000E+03	1.150257E-15	1.114028E-17
5.870000E+03	1.208364E-15	1.147501E-17
5.880000E+03	1.262648E-15	1.177646E-17
5.890000E+03	1.311537E-15	1.201742E-17
5.900000E+03	1.353695E-15	1.217051E-17
5.910000E+03	1.388045E-15	1.221634E-17
5.920000E+03	1.413725E-15	1.214713E-17
5.930000E+03	1.430292E-15	1.196687E-17
5.940000E+03	1.437616E-15	1.169490E-17
5.950000E+03	1.435887E-15	1.136061E-17
5.960000E+03	1.425760E-15	1.098704E-17
5.970000E+03	1.408151E-15	1.060196E-17
5.980000E+03	1.384157E-15	1.023307E-17
5.990000E+03	1.355098E-15	9.887907E-18
6.000000E+03	1.322316E-15	9.573411E-18
6.010000E+03	1.287110E-15	9.295708E-18
6.020000E+03	1.250653E-15	9.040177E-18
6.030000E+03	1.213975E-15	8.796954E-18
6.040000E+03	1.177975E-15	8.564391E-18
6.050000E+03	1.143294E-15	8.334006E-18
6.060000E+03	1.110458E-15	8.105931E-18
6.070000E+03	1.079876E-15	7.887314E-18
6.080000E+03	1.051764E-15	7.677291E-18
6.090000E+03	1.026276E-15	7.480212E-18
6.100000E+03	1.003491E-15	7.302677E-18
6.110000E+03	9.834043E-16	7.137578E-18
6.120000E+03	9.659395E-16	6.979230E-18
6.130000E+03	9.510291E-16	6.824429E-18
6.140000E+03	9.385597E-16	6.660528E-18
6.150000E+03	9.284246E-16	6.477462E-18
6.160000E+03	9.204814E-16	6.267633E-18
6.170000E+03	9.145977E-16	6.016118E-18
6.180000E+03	9.106043E-16	5.713810E-18
6.190000E+03	9.083537E-16	5.360890E-18
6.200000E+03	9.076725E-16	4.959900E-18
6.210000E+03	9.083974E-16	4.534936E-18
6.220000E+03	9.103229E-16	4.142549E-18
6.230000E+03	9.132070E-16	3.869252E-18
6.240000E+03	9.167759E-16	3.819451E-18
6.250000E+03	9.207762E-16	4.024883E-18
6.260000E+03	9.248843E-16	4.395210E-18
6.270000E+03	9.288132E-16	4.828938E-18
6.280000E+03	9.322766E-16	5.255543E-18
6.290000E+03	9.350502E-16	5.629757E-18
6.300000E+03	9.369126E-16	5.932602E-18
6.310000E+03	9.376843E-16	6.163800E-18
6.320000E+03	9.373001E-16	6.326247E-18
6.330000E+03	9.357779E-16	6.433639E-18
6.340000E+03	9.331276E-16	6.505450E-18
6.350000E+03	9.295067E-16	6.550657E-18
6.360000E+03	9.250853E-16	6.580792E-18
6.370000E+03	9.200329E-16	6.609347E-18
6.380000E+03	9.145194E-16	6.637212E-18
6.390000E+03	9.086838E-16	6.666522E-18
6.400000E+03	9.026710E-16	6.702103E-18
6.410000E+03	8.965537E-16	6.740474E-18
6.420000E+03	8.904080E-16	6.781466E-18
6.430000E+03	8.842597E-16	6.828284E-18
6.440000E+03	8.781282E-16	6.877995E-18
6.450000E+03	8.719997E-16	6.931410E-18
6.460000E+03	8.658731E-16	6.992610E-18
6.470000E+03	8.597746E-16	7.057730E-18
6.480000E+03	8.537536E-16	7.126042E-18
6.490000E+03	8.478808E-16	7.200928E-18
6.500000E+03	8.422935E-16	7.282174E-18
6.510000E+03	8.371496E-16	7.372213E-18
6.520000E+03	8.326596E-16	7.476074E-18
6.530000E+03	8.290347E-16	7.594846E-18
6.540000E+03	8.265200E-16	7.726274E-18
6.550000E+03	8.253920E-16	7.864481E-18
6.560000E+03	8.258390E-16	8.000890E-18
6.570000E+03	8.280192E-16	8.128733E-18
6.580000E+03	8.320226E-16	8.243502E-18
6.590000E+03	8.376974E-16	8.338602E-18
6.600000E+03	8.448282E-16	8.411091E-18
6.610000E+03	8.531335E-16	8.462340E-18
6.620000E+03	8.621969E-16	8.494672E-18
6.630000E+03	8.715541E-16	8.514836E-18
6.640000E+03	8.807205E-16	8.531933E-18
6.650000E+03	8.891946E-16	8.548788E-18
6.660000E+03	8.964442E-16	8.568596E-18
6.670000E+03	9.020237E-16	8.595307E-18
6.680000E+03	9.056161E-16	8.625243E-18
6.690000E+03	9.069748E-16	8.654890E-18
6.700000E+03	9.059563E-16	8.682103E-18
6.710000E+03	9.025588E-16	8.699833E-18
6.720000E+03	8.968616E-16	8.703764E-18
6.730000E+03	8.890271E-16	8.693330E-18
6.740000E+03	8.792551E-16	8.665128E-18
6.750000E+03	8.678377E-16	8.620291E-18
6.760000E+03	8.550726E-16	8.563620E-18
6.770000E+03	8.413003E-16	8.497841E-18
6.780000E+03	8.268675E-16	8.428455E-18
6.790000E+03	8.121288E-16	8.362828E-18
6.800000E+03	7.974331E-16	8.303679E-18
6.810000E+03	7.831238E-16	8.254852E-18
6.820000E+03	7.695322E-16	8.221201E-18
6.830000E+03	7.569715E-16	8.203510E-18
6.840000E+03	7.457105E-16	8.203101E-18
6.850000E+03	7.360444E-16	8.222640E-18
6.860000E+03	7.281917E-16	8.260867E-18
6.870000E+03	7.223817E-16	8.317852E-18
6.880000E+03	7.188098E-16	8.394325E-18
6.890000E+03	7.176570E-16	8.487211E-18
6.900000E+03	7.190768E-16	8.593871E-18
6.910000E+03	7.231894E-16	8.712181E-18
6.920000E+03	7.300324E-16	8.836608E-18
6.930000E+03	7.395914E-16	8.961754E-18
6.940000E+03	7.518365E-16	9.083955E-18
6.950000E+03	7.666191E-16	9.199452E-18
6.960000E+03	7.837555E-16	9.306605E-18
6.970000E+03	8.029804E-16	9.405171E-18
6.980000E+03	8.238485E-16	9.493262E-18
6.990000E+03	8.458295E-16	9.570759E-18
7.000000E+03	8.683338E-16	9.639428E-18
7.010000E+03	8.906600E-16	9.698857E-18
7.020000E+03	9.120931E-16	9.750558E-18
7.030000E+03	9.319204E-16	9.797188E-18
7.040000E+03	9.495478E-16	9.838067E-18
7.050000E+03	9.644911E-16	9.873558E-18
7.060000E+03	9.763652E-16	9.904471E-18
7.070000E+03	9.850644E-16	9.927370E-18
7.080000E+03	9.905985E-16	9.939925E-18
7.090000E+03	9.931616E-16	9.942546E-18
7.100000E+03	9.931077E-16	9.932490E-18
7.110000E+03	9.908925E-16	9.910012E-18
7.120000E+03	9.870595E-16	9.878679E-18
7.130000E+03	9.822103E-16	9.839349E-18
7.140000E+03	9.769458E-16	9.795705E-18
7.150000E+03	9.718334E-16	9.753721E-18
7.160000E+03	9.673951E-16	9.714984E-18
7.170000E+03	9.640380E-16	9.682499E-18
7.180000E+03	9.621163E-16	9.661395E-18
7.190000E+03	9.617944E-16	9.651625E-18
7.200000E+03	9.631425E-16	9.654342E-18
7.210000E+03	9.661668E-16	9.672078E-18
7.220000E+03	9.707153E-16	9.702359E-18
7.230000E+03	9.765294E-16	9.742626E-18
7.240000E+03	9.833220E-16	9.789790E-18
7.250000E+03	9.906787E-16	9.832033E-18
7.260000E+03	9.981811E-16	9.857837E-18
7.270000E+03	1.005329E-15	9.857504E-18
7.280000E+03	1.011638E-15	9.820790E-18
7.290000E+03	1.016606E-15	9.742246E-18
7.300000E+03	1.019761E-15	9.622276E-18
7.310000E+03	1.020676E-15	9.462371E-18
7.320000E+03	1.019008E-15	9.270522E-18
7.330000E+03	1.014444E-15	9.058655E-18
7.340000E+03	1.006905E-15	8.834162E-18
7.350000E+03	9.963510E-16	8.606670E-18
7.360000E+03	9.829127E-16	8.387016E-18
7.370000E+03	9.668750E-16	8.174464E-18
7.380000E+03	9.486485E-16	7.969777E-18
7.390000E+03	9.286583E-16	7.775046E-18
7.400000E+03	9.074369E-16	7.583595E-18
7.410000E+03	8.854785E-16	7.392084E-18
7.420000E+03	8.632952E-16	7.202302E-18
7.430000E+03	8.413075E-16	7.011873E-18
7.440000E+03	8.199139E-16	6.822603E-18
7.450000E+03	7.994269E-16	6.639356E-18
7.460000E+03	7.801062E-16	6.463468E-18
7.470000E+03	7.621540E-16	6.298925E-18
7.480000E+03	7.457075E-16	6.150749E-18
7.490000E+03	7.308316E-16	6.015650E-18
7.500000E+03	7.175713E-16	5.892701E-18
7.510000E+03	7.059084E-16	5.781875E-18
7.520000E+03	6.957919E-16	5.672665E-18
7.530000E+03	6.871260E-16	5.556806E-18
7.540000E+03	6.798053E-16	5.429987E-18
7.550000E+03	6.736848E-16	5.283568E-18
7.560000E+03	6.686002E-16	5.114505E-18
7.570000E+03	6.643721E-16	4.928107E-18
7.580000E+03	6.607758E-16	4.734875E-18
7.590000E+03	6.575610E-16	4.555960E-18
7.600000E+03	6.545161E-16	4.423166E-18
7.610000E+03	6.514818E-16	4.370678E-18
7.620000E+03	6.483764E-16	4.419866E-18
7.630000E+03	6.453248E-16	4.559132E-18
7.640000E+03	6.425223E-16	4.759308E-18
7.650000E+03	6.402086E-16	4.991569E-18
7.660000E+03	6.386198E-16	5.233751E-18
7.670000E+03	6.378898E-16	5.467530E-18
7.680000E+03	6.381358E-16	5.683058E-18
7.690000E+03	6.394017E-16	5.877072E-18
7.700000E+03	6.416999E-16	6.047819E-18
7.710000E+03	6.449668E-16	6.197435E-18
7.720000E+03	6.491297E-16	6.331286E-18
7.730000E+03	6.540069E-16	6.450875E-18
7.740000E+03	6.593726E-16	6.559912E-18
7.750000E+03	6.650085E-16	6.664108E-18
7.760000E+03	6.706190E-16	6.762533E-18
