#wls	flux	fluxerr
1.600000E+03	1.394169E-16	9.913992E-17
1.640000E+03	1.410865E-16	9.892315E-17
1.680000E+03	1.427726E-16	9.864925E-17
1.720000E+03	1.444429E-16	9.829398E-17
1.760000E+03	1.461409E-16	9.788571E-17
1.800000E+03	1.478590E-16	9.741702E-17
1.840000E+03	1.495619E-16	9.686298E-17
1.880000E+03	1.513194E-16	9.626724E-17
1.920000E+03	1.530951E-16	9.560374E-17
1.960000E+03	1.549045E-16	9.488016E-17
2.000000E+03	1.567625E-16	9.410308E-17
2.040000E+03	1.586556E-16	9.326167E-17
2.080000E+03	1.606237E-16	9.237654E-17
2.120000E+03	1.626781E-16	9.145017E-17
2.160000E+03	1.648001E-16	9.046819E-17
2.200000E+03	1.669968E-16	8.943086E-17
2.240000E+03	1.692448E-16	8.832239E-17
2.280000E+03	1.715182E-16	8.712711E-17
2.320000E+03	1.737888E-16	8.582975E-17
2.360000E+03	1.760261E-16	8.441581E-17
2.400000E+03	1.781706E-16	8.285930E-17
2.440000E+03	1.801620E-16	8.113780E-17
2.480000E+03	1.819941E-16	7.925627E-17
2.520000E+03	1.836067E-16	7.719798E-17
2.560000E+03	1.849421E-16	7.495129E-17
2.600000E+03	1.860228E-16	7.253980E-17
2.640000E+03	1.867706E-16	6.994872E-17
2.680000E+03	1.871888E-16	6.719776E-17
2.720000E+03	1.872600E-16	6.429982E-17
2.760000E+03	1.869964E-16	6.127902E-17
2.800000E+03	1.863696E-16	5.814647E-17
2.840000E+03	1.853623E-16	5.491861E-17
2.880000E+03	1.839902E-16	5.162244E-17
2.920000E+03	1.822586E-16	4.828129E-17
2.960000E+03	1.801854E-16	4.492141E-17
3.000000E+03	1.778393E-16	4.157971E-17
3.010000E+03	1.772272E-16	4.075309E-17
3.020000E+03	1.766138E-16	3.993244E-17
3.030000E+03	1.759631E-16	3.910982E-17
3.040000E+03	1.753314E-16	3.829804E-17
3.050000E+03	1.746830E-16	3.748928E-17
3.060000E+03	1.740191E-16	3.668408E-17
3.070000E+03	1.733586E-16	3.588661E-17
3.080000E+03	1.727023E-16	3.509708E-17
3.090000E+03	1.720510E-16	3.431569E-17
3.100000E+03	1.714057E-16	3.354262E-17
3.110000E+03	1.707501E-16	3.277481E-17
3.120000E+03	1.701192E-16	3.201903E-17
3.130000E+03	1.694803E-16	3.126906E-17
3.140000E+03	1.688675E-16	3.053125E-17
3.150000E+03	1.682488E-16	2.979976E-17
3.160000E+03	1.676578E-16	2.908056E-17
3.170000E+03	1.670791E-16	2.837083E-17
3.180000E+03	1.665292E-16	2.767333E-17
3.190000E+03	1.659932E-16	2.698542E-17
3.200000E+03	1.654720E-16	2.630722E-17
3.210000E+03	1.649970E-16	2.564360E-17
3.220000E+03	1.645381E-16	2.498964E-17
3.230000E+03	1.641114E-16	2.434767E-17
3.240000E+03	1.637172E-16	2.371762E-17
3.250000E+03	1.633561E-16	2.309939E-17
3.260000E+03	1.630432E-16	2.249490E-17
3.270000E+03	1.627641E-16	2.190197E-17
3.280000E+03	1.625195E-16	2.132054E-17
3.290000E+03	1.623380E-16	2.075417E-17
3.300000E+03	1.622054E-16	2.020075E-17
3.310000E+03	1.621079E-16	1.965843E-17
3.320000E+03	1.620735E-16	1.913048E-17
3.330000E+03	1.621018E-16	1.861662E-17
3.340000E+03	1.621792E-16	1.811511E-17
3.350000E+03	1.623323E-16	1.762881E-17
3.360000E+03	1.625473E-16	1.715604E-17
3.370000E+03	1.628239E-16	1.669671E-17
3.380000E+03	1.631747E-16	1.625210E-17
3.390000E+03	1.636118E-16	1.582334E-17
3.400000E+03	1.641088E-16	1.540786E-17
3.410000E+03	1.647031E-16	1.500931E-17
3.420000E+03	1.653683E-16	1.462533E-17
3.430000E+03	1.661284E-16	1.425826E-17
3.440000E+03	1.669822E-16	1.390812E-17
3.450000E+03	1.679161E-16	1.357405E-17
3.460000E+03	1.689658E-16	1.325919E-17
3.470000E+03	1.700935E-16	1.296081E-17
3.480000E+03	1.713348E-16	1.268194E-17
3.490000E+03	1.726893E-16	1.242267E-17
3.500000E+03	1.741449E-16	1.218232E-17
3.510000E+03	1.757261E-16	1.196270E-17
3.520000E+03	1.774223E-16	1.176308E-17
3.530000E+03	1.792472E-16	1.158433E-17
3.540000E+03	1.812034E-16	1.142643E-17
3.550000E+03	1.832941E-16	1.128936E-17
3.560000E+03	1.855343E-16	1.117374E-17
3.570000E+03	1.879168E-16	1.107872E-17
3.580000E+03	1.904689E-16	1.100543E-17
3.590000E+03	1.931731E-16	1.095225E-17
3.600000E+03	1.960349E-16	1.091887E-17
3.610000E+03	1.990833E-16	1.090610E-17
3.620000E+03	2.023140E-16	1.091277E-17
3.630000E+03	2.057236E-16	1.093768E-17
3.640000E+03	2.093319E-16	1.098075E-17
3.650000E+03	2.131486E-16	1.104123E-17
3.660000E+03	2.171840E-16	1.111832E-17
3.670000E+03	2.214385E-16	1.121061E-17
3.680000E+03	2.259359E-16	1.131781E-17
3.690000E+03	2.306897E-16	1.143901E-17
3.700000E+03	2.357035E-16	1.157269E-17
3.710000E+03	2.409930E-16	1.171785E-17
3.720000E+03	2.465748E-16	1.187342E-17
3.730000E+03	2.524663E-16	1.203826E-17
3.740000E+03	2.586967E-16	1.221169E-17
3.750000E+03	2.652615E-16	1.239138E-17
3.760000E+03	2.721790E-16	1.257604E-17
3.770000E+03	2.794783E-16	1.276484E-17
3.780000E+03	2.871657E-16	1.295587E-17
3.790000E+03	2.952578E-16	1.314773E-17
3.800000E+03	3.037704E-16	1.333898E-17
3.810000E+03	3.127059E-16	1.352765E-17
3.820000E+03	3.220760E-16	1.371229E-17
3.830000E+03	3.319021E-16	1.389189E-17
3.840000E+03	3.421783E-16	1.406445E-17
3.850000E+03	3.528816E-16	1.422746E-17
3.860000E+03	3.640453E-16	1.438088E-17
3.870000E+03	3.756230E-16	1.452173E-17
3.880000E+03	3.876105E-16	1.464906E-17
3.890000E+03	3.999704E-16	1.476097E-17
3.900000E+03	4.126828E-16	1.485667E-17
3.910000E+03	4.256797E-16	1.493408E-17
3.920000E+03	4.389231E-16	1.499274E-17
3.930000E+03	4.523398E-16	1.503157E-17
3.940000E+03	4.658620E-16	1.505033E-17
3.950000E+03	4.794010E-16	1.504883E-17
3.960000E+03	4.928893E-16	1.502828E-17
3.970000E+03	5.062134E-16	1.498916E-17
3.980000E+03	5.192976E-16	1.493383E-17
3.990000E+03	5.320364E-16	1.486428E-17
4.000000E+03	5.443235E-16	1.478290E-17
4.010000E+03	5.560830E-16	1.469309E-17
4.020000E+03	5.672282E-16	1.459787E-17
4.030000E+03	5.776351E-16	1.449901E-17
4.040000E+03	5.872753E-16	1.440016E-17
4.050000E+03	5.960455E-16	1.430231E-17
4.060000E+03	6.039148E-16	1.420725E-17
4.070000E+03	6.108550E-16	1.411578E-17
4.080000E+03	6.168269E-16	1.402737E-17
4.090000E+03	6.218677E-16	1.394224E-17
4.100000E+03	6.259604E-16	1.385858E-17
4.110000E+03	6.291757E-16	1.377584E-17
4.120000E+03	6.315558E-16	1.369241E-17
4.130000E+03	6.331545E-16	1.360665E-17
4.140000E+03	6.340626E-16	1.351758E-17
4.150000E+03	6.343498E-16	1.342376E-17
4.160000E+03	6.341035E-16	1.332418E-17
4.170000E+03	6.334133E-16	1.321794E-17
4.180000E+03	6.323557E-16	1.310400E-17
4.190000E+03	6.310314E-16	1.298188E-17
4.200000E+03	6.295121E-16	1.285057E-17
4.210000E+03	6.278780E-16	1.270929E-17
4.220000E+03	6.262155E-16	1.255740E-17
4.230000E+03	6.245683E-16	1.239355E-17
4.240000E+03	6.230215E-16	1.221741E-17
4.250000E+03	6.216171E-16	1.202817E-17
4.260000E+03	6.204134E-16	1.182583E-17
4.270000E+03	6.194385E-16	1.161044E-17
4.280000E+03	6.187248E-16	1.138290E-17
4.290000E+03	6.183088E-16	1.114511E-17
4.300000E+03	6.182079E-16	1.089972E-17
4.310000E+03	6.184218E-16	1.065038E-17
4.320000E+03	6.189761E-16	1.040274E-17
4.330000E+03	6.198579E-16	1.016358E-17
4.340000E+03	6.210710E-16	9.941885E-18
4.350000E+03	6.225954E-16	9.748044E-18
4.360000E+03	6.244325E-16	9.593937E-18
4.370000E+03	6.265875E-16	9.491370E-18
4.380000E+03	6.290448E-16	9.449703E-18
4.390000E+03	6.318468E-16	9.474713E-18
4.400000E+03	6.350286E-16	9.565637E-18
4.410000E+03	6.386678E-16	9.716067E-18
4.420000E+03	6.428372E-16	9.915367E-18
4.430000E+03	6.476161E-16	1.015127E-17
4.440000E+03	6.531142E-16	1.041228E-17
4.450000E+03	6.594154E-16	1.068809E-17
4.460000E+03	6.665741E-16	1.097005E-17
4.470000E+03	6.746513E-16	1.125187E-17
4.480000E+03	6.837119E-16	1.152933E-17
4.490000E+03	6.937601E-16	1.179893E-17
4.500000E+03	7.047967E-16	1.205849E-17
4.510000E+03	7.168048E-16	1.230654E-17
4.520000E+03	7.297265E-16	1.254172E-17
4.530000E+03	7.434492E-16	1.276233E-17
4.540000E+03	7.578573E-16	1.296707E-17
4.550000E+03	7.727798E-16	1.315405E-17
4.560000E+03	7.880362E-16	1.332144E-17
4.570000E+03	8.033875E-16	1.346652E-17
4.580000E+03	8.186080E-16	1.358662E-17
4.590000E+03	8.334511E-16	1.367820E-17
4.600000E+03	8.476578E-16	1.373656E-17
4.610000E+03	8.609765E-16	1.375584E-17
4.620000E+03	8.731934E-16	1.372920E-17
4.630000E+03	8.840907E-16	1.364813E-17
4.640000E+03	8.934844E-16	1.350326E-17
4.650000E+03	9.012014E-16	1.328453E-17
4.660000E+03	9.071269E-16	1.298258E-17
4.670000E+03	9.111110E-16	1.258834E-17
4.680000E+03	9.130882E-16	1.209565E-17
4.690000E+03	9.129876E-16	1.150099E-17
4.700000E+03	9.107854E-16	1.080513E-17
4.710000E+03	9.065003E-16	1.001408E-17
4.720000E+03	9.001886E-16	9.140433E-18
4.730000E+03	8.919837E-16	8.206161E-18
4.740000E+03	8.820414E-16	7.246234E-18
4.750000E+03	8.706053E-16	6.316308E-18
4.760000E+03	8.579589E-16	5.501876E-18
4.770000E+03	8.444104E-16	4.922399E-18
4.780000E+03	8.303276E-16	4.702639E-18
4.790000E+03	8.160781E-16	4.880009E-18
4.800000E+03	8.019562E-16	5.346744E-18
4.810000E+03	7.882727E-16	5.959979E-18
4.820000E+03	7.753279E-16	6.613221E-18
4.830000E+03	7.634246E-16	7.244120E-18
4.840000E+03	7.528306E-16	7.820946E-18
4.850000E+03	7.438100E-16	8.330330E-18
4.860000E+03	7.365664E-16	8.769223E-18
4.870000E+03	7.313109E-16	9.140792E-18
4.880000E+03	7.281578E-16	9.449814E-18
4.890000E+03	7.272202E-16	9.702960E-18
4.900000E+03	7.285466E-16	9.907206E-18
4.910000E+03	7.321266E-16	1.006888E-17
4.920000E+03	7.379118E-16	1.019453E-17
4.930000E+03	7.457820E-16	1.029050E-17
4.940000E+03	7.555396E-16	1.036243E-17
4.950000E+03	7.669097E-16	1.041636E-17
4.960000E+03	7.795419E-16	1.045871E-17
4.970000E+03	7.929743E-16	1.049459E-17
4.980000E+03	8.066754E-16	1.052958E-17
4.990000E+03	8.200793E-16	1.056893E-17
5.000000E+03	8.326134E-16	1.061419E-17
5.010000E+03	8.437113E-16	1.066514E-17
5.020000E+03	8.529211E-16	1.072017E-17
5.030000E+03	8.599487E-16	1.077311E-17
5.040000E+03	8.646665E-16	1.081692E-17
5.050000E+03	8.670879E-16	1.084472E-17
5.060000E+03	8.674135E-16	1.084882E-17
5.070000E+03	8.659625E-16	1.082369E-17
5.080000E+03	8.631187E-16	1.076659E-17
5.090000E+03	8.593093E-16	1.067551E-17
5.100000E+03	8.549810E-16	1.055141E-17
5.110000E+03	8.505399E-16	1.039770E-17
5.120000E+03	8.463112E-16	1.021805E-17
5.130000E+03	8.425884E-16	1.001882E-17
5.140000E+03	8.395977E-16	9.808418E-18
5.150000E+03	8.374709E-16	9.594886E-18
5.160000E+03	8.362839E-16	9.388879E-18
5.170000E+03	8.361139E-16	9.203779E-18
5.180000E+03	8.369782E-16	9.051520E-18
5.190000E+03	8.388922E-16	8.945197E-18
5.200000E+03	8.418833E-16	8.894791E-18
5.210000E+03	8.459638E-16	8.898259E-18
5.220000E+03	8.511611E-16	8.949845E-18
5.230000E+03	8.575071E-16	9.043068E-18
5.240000E+03	8.649906E-16	9.166629E-18
5.250000E+03	8.736057E-16	9.310362E-18
5.260000E+03	8.833059E-16	9.465829E-18
5.270000E+03	8.940096E-16	9.622630E-18
5.280000E+03	9.055974E-16	9.772445E-18
5.290000E+03	9.179306E-16	9.910249E-18
5.300000E+03	9.308287E-16	1.003131E-17
5.310000E+03	9.441136E-16	1.013407E-17
5.320000E+03	9.575781E-16	1.021811E-17
5.330000E+03	9.710210E-16	1.027910E-17
5.340000E+03	9.842304E-16	1.031375E-17
5.350000E+03	9.970023E-16	1.032130E-17
5.360000E+03	1.009135E-15	1.029994E-17
5.370000E+03	1.020468E-15	1.025098E-17
5.380000E+03	1.030859E-15	1.017700E-17
5.390000E+03	1.040203E-15	1.007536E-17
5.400000E+03	1.048431E-15	9.943971E-18
5.410000E+03	1.055547E-15	9.782807E-18
5.420000E+03	1.061592E-15	9.589040E-18
5.430000E+03	1.066680E-15	9.363514E-18
5.440000E+03	1.070948E-15	9.112485E-18
5.450000E+03	1.074543E-15	8.845067E-18
5.460000E+03	1.077592E-15	8.579337E-18
5.470000E+03	1.080208E-15	8.344279E-18
5.480000E+03	1.082359E-15	8.173395E-18
5.490000E+03	1.083921E-15	8.099980E-18
5.500000E+03	1.084533E-15	8.141986E-18
5.510000E+03	1.083569E-15	8.286699E-18
5.520000E+03	1.080256E-15	8.506194E-18
5.530000E+03	1.073807E-15	8.767504E-18
5.540000E+03	1.063529E-15	9.036251E-18
5.550000E+03	1.048911E-15	9.285009E-18
5.560000E+03	1.029709E-15	9.492894E-18
5.570000E+03	1.006099E-15	9.640382E-18
5.580000E+03	9.785478E-16	9.715298E-18
5.590000E+03	9.477623E-16	9.715336E-18
5.600000E+03	9.146072E-16	9.644760E-18
5.610000E+03	8.800314E-16	9.514920E-18
5.620000E+03	8.450251E-16	9.342319E-18
5.630000E+03	8.105355E-16	9.144283E-18
5.640000E+03	7.774439E-16	8.939412E-18
5.650000E+03	7.465367E-16	8.744767E-18
5.660000E+03	7.184775E-16	8.571483E-18
5.670000E+03	6.938581E-16	8.429130E-18
5.680000E+03	6.731523E-16	8.325483E-18
5.690000E+03	6.567306E-16	8.264113E-18
5.700000E+03	6.449222E-16	8.248099E-18
5.710000E+03	6.380132E-16	8.280163E-18
5.720000E+03	6.361936E-16	8.359585E-18
5.730000E+03	6.396668E-16	8.485765E-18
5.740000E+03	6.486301E-16	8.658316E-18
5.750000E+03	6.632311E-16	8.874797E-18
5.760000E+03	6.836115E-16	9.132484E-18
5.770000E+03	7.098987E-16	9.428525E-18
5.780000E+03	7.421337E-16	9.758099E-18
5.790000E+03	7.802598E-16	1.011576E-17
5.800000E+03	8.241241E-16	1.049638E-17
5.810000E+03	8.733648E-16	1.089358E-17
5.820000E+03	9.273876E-16	1.130187E-17
5.830000E+03	9.853581E-16	1.171730E-17
5.840000E+03	1.046169E-15	1.213553E-17
5.850000E+03	1.108424E-15	1.255318E-17
5.860000E+03	1.170523E-15	1.296456E-17
5.870000E+03	1.230833E-15	1.335442E-17
5.880000E+03	1.287684E-15	1.370324E-17
5.890000E+03	1.339468E-15	1.399039E-17
5.900000E+03	1.384791E-15	1.419079E-17
5.910000E+03	1.422535E-15	1.428538E-17
5.920000E+03	1.451783E-15	1.426508E-17
5.930000E+03	1.472016E-15	1.412974E-17
5.940000E+03	1.483037E-15	1.389266E-17
5.950000E+03	1.484972E-15	1.357798E-17
5.960000E+03	1.478360E-15	1.321161E-17
5.970000E+03	1.463985E-15	1.282425E-17
5.980000E+03	1.442894E-15	1.244421E-17
5.990000E+03	1.416313E-15	1.208143E-17
6.000000E+03	1.385545E-15	1.174144E-17
6.010000E+03	1.351838E-15	1.142687E-17
6.020000E+03	1.316405E-15	1.112847E-17
6.030000E+03	1.280275E-15	1.083829E-17
6.040000E+03	1.244390E-15	1.055371E-17
6.050000E+03	1.209467E-15	1.026875E-17
6.060000E+03	1.176064E-15	9.982679E-18
6.070000E+03	1.144638E-15	9.699706E-18
6.080000E+03	1.115480E-15	9.420232E-18
6.090000E+03	1.088783E-15	9.147407E-18
6.100000E+03	1.064659E-15	8.885558E-18
6.110000E+03	1.043149E-15	8.632439E-18
6.120000E+03	1.024235E-15	8.386261E-18
6.130000E+03	1.007855E-15	8.144730E-18
6.140000E+03	9.939513E-16	7.897577E-18
6.150000E+03	9.824060E-16	7.634519E-18
6.160000E+03	9.731248E-16	7.346517E-18
6.170000E+03	9.659647E-16	7.018799E-18
6.180000E+03	9.607673E-16	6.640331E-18
6.190000E+03	9.573786E-16	6.209014E-18
6.200000E+03	9.556086E-16	5.731965E-18
6.210000E+03	9.552491E-16	5.236775E-18
6.220000E+03	9.560698E-16	4.781620E-18
6.230000E+03	9.578152E-16	4.458325E-18
6.240000E+03	9.602068E-16	4.378907E-18
6.250000E+03	9.629910E-16	4.579435E-18
6.260000E+03	9.658991E-16	4.968182E-18
6.270000E+03	9.686769E-16	5.443440E-18
6.280000E+03	9.710867E-16	5.932581E-18
6.290000E+03	9.729102E-16	6.385804E-18
6.300000E+03	9.739482E-16	6.776913E-18
6.310000E+03	9.740608E-16	7.098411E-18
6.320000E+03	9.731811E-16	7.351405E-18
6.330000E+03	9.712874E-16	7.545894E-18
6.340000E+03	9.684327E-16	7.695898E-18
6.350000E+03	9.646999E-16	7.809560E-18
6.360000E+03	9.602585E-16	7.896087E-18
6.370000E+03	9.552579E-16	7.965056E-18
6.380000E+03	9.498373E-16	8.019991E-18
6.390000E+03	9.441565E-16	8.065334E-18
6.400000E+03	9.383330E-16	8.105842E-18
6.410000E+03	9.324586E-16	8.140177E-18
6.420000E+03	9.265805E-16	8.167981E-18
6.430000E+03	9.207413E-16	8.191616E-18
6.440000E+03	9.149514E-16	8.210984E-18
6.450000E+03	9.091877E-16	8.228159E-18
6.460000E+03	9.034427E-16	8.247413E-18
6.470000E+03	8.977196E-16	8.269996E-18
6.480000E+03	8.920613E-16	8.298957E-18
6.490000E+03	8.865385E-16	8.339345E-18
6.500000E+03	8.812783E-16	8.394196E-18
6.510000E+03	8.764962E-16	8.468095E-18
6.520000E+03	8.723748E-16	8.565776E-18
6.530000E+03	8.691622E-16	8.689106E-18
6.540000E+03	8.671041E-16	8.836792E-18
6.550000E+03	8.664622E-16	9.004196E-18
6.560000E+03	8.673876E-16	9.182598E-18
6.570000E+03	8.699510E-16	9.363202E-18
6.580000E+03	8.741871E-16	9.539137E-18
6.590000E+03	8.799771E-16	9.703371E-18
6.600000E+03	8.871006E-16	9.851150E-18
6.610000E+03	8.952857E-16	9.981113E-18
6.620000E+03	9.041525E-16	1.009368E-17
6.630000E+03	9.132817E-16	1.019243E-17
6.640000E+03	9.222102E-16	1.028206E-17
6.650000E+03	9.304499E-16	1.036453E-17
6.660000E+03	9.375470E-16	1.044218E-17
6.670000E+03	9.430620E-16	1.051649E-17
6.680000E+03	9.466718E-16	1.058487E-17
6.690000E+03	9.481460E-16	1.064447E-17
6.700000E+03	9.473212E-16	1.069229E-17
6.710000E+03	9.441831E-16	1.072274E-17
6.720000E+03	9.387937E-16	1.073144E-17
6.730000E+03	9.312717E-16	1.071673E-17
6.740000E+03	9.218438E-16	1.067835E-17
6.750000E+03	9.107508E-16	1.061880E-17
6.760000E+03	8.982898E-16	1.054337E-17
6.770000E+03	8.847749E-16	1.045668E-17
6.780000E+03	8.705557E-16	1.036520E-17
6.790000E+03	8.559656E-16	1.027578E-17
6.800000E+03	8.413788E-16	1.019294E-17
6.810000E+03	8.271189E-16	1.012078E-17
6.820000E+03	8.135340E-16	1.006396E-17
6.830000E+03	8.009311E-16	1.002417E-17
6.840000E+03	7.896068E-16	1.000326E-17
6.850000E+03	7.798324E-16	1.000314E-17
6.860000E+03	7.718650E-16	1.002346E-17
6.870000E+03	7.659216E-16	1.006368E-17
6.880000E+03	7.622177E-16	1.012428E-17
6.890000E+03	7.609351E-16	1.020504E-17
6.900000E+03	7.622272E-16	1.030604E-17
6.910000E+03	7.662213E-16	1.042659E-17
6.920000E+03	7.729348E-16	1.056155E-17
6.930000E+03	7.823639E-16	1.070535E-17
6.940000E+03	7.944250E-16	1.085288E-17
6.950000E+03	8.089840E-16	1.099964E-17
6.960000E+03	8.258705E-16	1.114293E-17
6.970000E+03	8.447937E-16	1.128034E-17
6.980000E+03	8.653601E-16	1.140856E-17
6.990000E+03	8.870681E-16	1.152503E-17
7.000000E+03	9.093334E-16	1.162831E-17
7.010000E+03	9.315371E-16	1.171660E-17
7.020000E+03	9.529616E-16	1.178889E-17
7.030000E+03	9.729779E-16	1.184656E-17
7.040000E+03	9.909708E-16	1.188868E-17
7.050000E+03	1.006486E-15	1.191652E-17
7.060000E+03	1.019117E-15	1.193136E-17
7.070000E+03	1.028728E-15	1.193275E-17
7.080000E+03	1.035298E-15	1.192085E-17
7.090000E+03	1.038963E-15	1.189753E-17
7.100000E+03	1.040033E-15	1.186285E-17
7.110000E+03	1.038927E-15	1.181886E-17
7.120000E+03	1.036135E-15	1.176919E-17
7.130000E+03	1.032198E-15	1.171466E-17
7.140000E+03	1.027688E-15	1.165777E-17
7.150000E+03	1.023164E-15	1.160282E-17
7.160000E+03	1.019072E-15	1.155144E-17
7.170000E+03	1.015853E-15	1.150736E-17
7.180000E+03	1.013793E-15	1.147480E-17
7.190000E+03	1.013125E-15	1.145618E-17
7.200000E+03	1.013908E-15	1.145400E-17
7.210000E+03	1.016165E-15	1.147159E-17
7.220000E+03	1.019756E-15	1.150719E-17
7.230000E+03	1.024486E-15	1.155865E-17
7.240000E+03	1.030064E-15	1.162164E-17
7.250000E+03	1.036104E-15	1.168367E-17
7.260000E+03	1.042219E-15	1.173160E-17
7.270000E+03	1.047960E-15	1.175402E-17
7.280000E+03	1.052868E-15	1.174042E-17
7.290000E+03	1.056485E-15	1.168451E-17
7.300000E+03	1.058402E-15	1.158513E-17
7.310000E+03	1.058231E-15	1.144319E-17
7.320000E+03	1.055640E-15	1.126414E-17
7.330000E+03	1.050380E-15	1.105644E-17
7.340000E+03	1.042363E-15	1.082711E-17
7.350000E+03	1.031566E-15	1.058398E-17
7.360000E+03	1.018095E-15	1.033468E-17
7.370000E+03	1.002240E-15	1.008170E-17
7.380000E+03	9.843517E-16	9.826925E-18
7.390000E+03	9.648233E-16	9.572844E-18
7.400000E+03	9.441342E-16	9.319760E-18
7.410000E+03	9.227321E-16	9.069669E-18
7.420000E+03	9.010815E-16	8.827133E-18
7.430000E+03	8.795673E-16	8.594534E-18
7.440000E+03	8.586005E-16	8.376826E-18
7.450000E+03	8.384702E-16	8.177618E-18
7.460000E+03	8.194140E-16	7.993290E-18
7.470000E+03	8.016429E-16	7.819747E-18
7.480000E+03	7.852597E-16	7.653398E-18
7.490000E+03	7.703657E-16	7.488895E-18
7.500000E+03	7.569656E-16	7.320907E-18
7.510000E+03	7.450783E-16	7.145602E-18
7.520000E+03	7.346437E-16	6.957911E-18
7.530000E+03	7.256031E-16	6.754296E-18
7.540000E+03	7.178431E-16	6.532555E-18
7.550000E+03	7.112454E-16	6.291281E-18
7.560000E+03	7.056815E-16	6.033392E-18
7.570000E+03	7.009568E-16	5.767242E-18
7.580000E+03	6.968736E-16	5.506757E-18
7.590000E+03	6.932137E-16	5.275382E-18
7.600000E+03	6.897427E-16	5.106756E-18
7.610000E+03	6.862994E-16	5.038887E-18
7.620000E+03	6.827618E-16	5.096140E-18
7.630000E+03	6.792846E-16	5.261641E-18
7.640000E+03	6.760884E-16	5.500910E-18
7.650000E+03	6.733958E-16	5.781395E-18
7.660000E+03	6.714263E-16	6.078348E-18
7.670000E+03	6.703280E-16	6.374412E-18
7.680000E+03	6.702041E-16	6.659981E-18
7.690000E+03	6.711182E-16	6.930809E-18
7.700000E+03	6.730390E-16	7.183560E-18
7.710000E+03	6.758931E-16	7.417034E-18
7.720000E+03	6.795758E-16	7.631838E-18
7.730000E+03	6.839124E-16	7.828000E-18
7.740000E+03	6.887009E-16	8.006053E-18
7.750000E+03	6.937230E-16	8.167113E-18
7.760000E+03	6.987309E-16	8.311711E-18
