#wls	flux	fluxerr
1.600000E+03	1.208421E-16	8.664550E-17
1.640000E+03	1.221267E-16	8.637665E-17
1.680000E+03	1.234198E-16	8.605859E-17
1.720000E+03	1.247162E-16	8.568628E-17
1.760000E+03	1.260100E-16	8.525453E-17
1.800000E+03	1.272706E-16	8.474178E-17
1.840000E+03	1.285646E-16	8.419175E-17
1.880000E+03	1.298361E-16	8.356627E-17
1.920000E+03	1.311277E-16	8.289194E-17
1.960000E+03	1.324066E-16	8.214685E-17
2.000000E+03	1.336900E-16	8.134096E-17
2.040000E+03	1.349948E-16	8.048346E-17
2.080000E+03	1.362866E-16	7.955259E-17
2.120000E+03	1.375813E-16	7.855733E-17
2.160000E+03	1.388687E-16	7.749133E-17
2.200000E+03	1.401381E-16	7.634857E-17
2.240000E+03	1.414043E-16	7.513731E-17
2.280000E+03	1.426297E-16	7.383804E-17
2.320000E+03	1.438285E-16	7.245954E-17
2.360000E+03	1.449886E-16	7.099723E-17
2.400000E+03	1.460724E-16	6.943522E-17
2.440000E+03	1.470944E-16	6.778406E-17
2.480000E+03	1.480439E-16	6.604247E-17
2.520000E+03	1.489112E-16	6.421051E-17
2.560000E+03	1.496629E-16	6.227936E-17
2.600000E+03	1.503179E-16	6.026341E-17
2.640000E+03	1.508717E-16	5.816730E-17
2.680000E+03	1.512985E-16	5.598832E-17
2.720000E+03	1.516472E-16	5.375231E-17
2.760000E+03	1.518975E-16	5.145889E-17
2.800000E+03	1.520567E-16	4.911825E-17
2.840000E+03	1.521577E-16	4.674839E-17
2.880000E+03	1.522133E-16	4.435977E-17
2.920000E+03	1.522827E-16	4.197521E-17
2.960000E+03	1.524035E-16	3.960871E-17
3.000000E+03	1.526144E-16	3.727276E-17
3.010000E+03	1.526892E-16	3.669567E-17
3.020000E+03	1.527774E-16	3.612243E-17
3.030000E+03	1.528792E-16	3.555304E-17
3.040000E+03	1.529950E-16	3.498751E-17
3.050000E+03	1.531248E-16	3.442586E-17
3.060000E+03	1.532691E-16	3.386809E-17
3.070000E+03	1.534280E-16	3.331422E-17
3.080000E+03	1.536017E-16	3.276427E-17
3.090000E+03	1.538101E-16	3.222235E-17
3.100000E+03	1.540144E-16	3.168023E-17
3.110000E+03	1.542728E-16	3.114989E-17
3.120000E+03	1.545277E-16	3.061942E-17
3.130000E+03	1.548176E-16	3.009655E-17
3.140000E+03	1.551425E-16	2.958107E-17
3.150000E+03	1.554836E-16	2.906922E-17
3.160000E+03	1.558410E-16	2.856109E-17
3.170000E+03	1.562525E-16	2.806344E-17
3.180000E+03	1.566805E-16	2.756932E-17
3.190000E+03	1.571437E-16	2.708200E-17
3.200000E+03	1.576421E-16	2.660135E-17
3.210000E+03	1.581939E-16	2.613025E-17
3.220000E+03	1.587625E-16	2.566250E-17
3.230000E+03	1.593661E-16	2.520109E-17
3.240000E+03	1.600226E-16	2.474877E-17
3.250000E+03	1.607138E-16	2.430255E-17
3.260000E+03	1.614574E-16	2.386506E-17
3.270000E+03	1.622353E-16	2.343353E-17
3.280000E+03	1.630826E-16	2.301299E-17
3.290000E+03	1.639461E-16	2.259584E-17
3.300000E+03	1.648783E-16	2.218945E-17
3.310000E+03	1.658611E-16	2.179129E-17
3.320000E+03	1.668941E-16	2.140134E-17
3.330000E+03	1.679768E-16	2.101964E-17
3.340000E+03	1.691260E-16	2.064837E-17
3.350000E+03	1.703239E-16	2.028543E-17
3.360000E+03	1.715700E-16	1.993101E-17
3.370000E+03	1.728978E-16	1.958917E-17
3.380000E+03	1.742727E-16	1.925614E-17
3.390000E+03	1.757279E-16	1.893587E-17
3.400000E+03	1.772457E-16	1.862668E-17
3.410000E+03	1.788257E-16	1.832885E-17
3.420000E+03	1.804674E-16	1.804273E-17
3.430000E+03	1.821869E-16	1.777033E-17
3.440000E+03	1.839837E-16	1.751195E-17
3.450000E+03	1.858575E-16	1.726795E-17
3.460000E+03	1.878081E-16	1.703874E-17
3.470000E+03	1.898353E-16	1.682474E-17
3.480000E+03	1.919395E-16	1.662643E-17
3.490000E+03	1.941371E-16	1.644568E-17
3.500000E+03	1.964287E-16	1.628288E-17
3.510000E+03	1.987990E-16	1.613713E-17
3.520000E+03	2.012813E-16	1.601148E-17
3.530000E+03	2.038448E-16	1.590375E-17
3.540000E+03	2.065394E-16	1.581804E-17
3.550000E+03	2.093192E-16	1.575093E-17
3.560000E+03	2.122185E-16	1.570512E-17
3.570000E+03	2.152402E-16	1.568074E-17
3.580000E+03	2.184032E-16	1.567898E-17
3.590000E+03	2.216796E-16	1.569751E-17
3.600000E+03	2.250891E-16	1.573733E-17
3.610000E+03	2.286521E-16	1.579923E-17
3.620000E+03	2.323731E-16	1.588278E-17
3.630000E+03	2.362418E-16	1.598637E-17
3.640000E+03	2.402952E-16	1.611148E-17
3.650000E+03	2.445080E-16	1.625529E-17
3.660000E+03	2.489178E-16	1.641908E-17
3.670000E+03	2.535157E-16	1.660098E-17
3.680000E+03	2.583089E-16	1.680010E-17
3.690000E+03	2.633356E-16	1.701754E-17
3.700000E+03	2.685722E-16	1.725031E-17
3.710000E+03	2.740418E-16	1.749846E-17
3.720000E+03	2.797518E-16	1.776098E-17
3.730000E+03	2.857096E-16	1.803686E-17
3.740000E+03	2.919222E-16	1.832506E-17
3.750000E+03	2.984119E-16	1.862552E-17
3.760000E+03	3.051848E-16	1.893714E-17
3.770000E+03	3.122302E-16	1.925784E-17
3.780000E+03	3.195523E-16	1.958648E-17
3.790000E+03	3.271855E-16	1.992382E-17
3.800000E+03	3.350994E-16	2.026668E-17
3.810000E+03	3.433254E-16	2.061572E-17
3.820000E+03	3.518289E-16	2.096768E-17
3.830000E+03	3.606370E-16	2.132308E-17
3.840000E+03	3.697259E-16	2.167950E-17
3.850000E+03	3.790849E-16	2.203541E-17
3.860000E+03	3.886999E-16	2.238923E-17
3.870000E+03	3.985700E-16	2.274024E-17
3.880000E+03	4.086575E-16	2.308577E-17
3.890000E+03	4.189374E-16	2.342409E-17
3.900000E+03	4.293973E-16	2.375430E-17
3.910000E+03	4.399877E-16	2.407364E-17
3.920000E+03	4.506883E-16	2.438119E-17
3.930000E+03	4.614251E-16	2.467329E-17
3.940000E+03	4.722044E-16	2.495081E-17
3.950000E+03	4.829288E-16	2.520930E-17
3.960000E+03	4.935655E-16	2.544794E-17
3.970000E+03	5.040800E-16	2.566595E-17
3.980000E+03	5.144027E-16	2.586090E-17
3.990000E+03	5.244639E-16	2.603050E-17
4.000000E+03	5.342452E-16	2.617511E-17
4.010000E+03	5.436621E-16	2.629185E-17
4.020000E+03	5.526837E-16	2.638046E-17
4.030000E+03	5.612492E-16	2.643920E-17
4.040000E+03	5.693357E-16	2.646803E-17
4.050000E+03	5.768929E-16	2.646549E-17
4.060000E+03	5.838935E-16	2.643102E-17
4.070000E+03	5.903013E-16	2.636348E-17
4.080000E+03	5.961202E-16	2.626332E-17
4.090000E+03	6.013455E-16	2.613038E-17
4.100000E+03	6.059489E-16	2.596324E-17
4.110000E+03	6.099734E-16	2.576341E-17
4.120000E+03	6.133912E-16	2.552917E-17
4.130000E+03	6.162597E-16	2.526223E-17
4.140000E+03	6.186109E-16	2.496309E-17
4.150000E+03	6.204383E-16	2.463059E-17
4.160000E+03	6.218152E-16	2.426674E-17
4.170000E+03	6.227739E-16	2.387188E-17
4.180000E+03	6.233509E-16	2.344651E-17
4.190000E+03	6.236129E-16	2.299234E-17
4.200000E+03	6.235860E-16	2.250967E-17
4.210000E+03	6.233386E-16	2.200051E-17
4.220000E+03	6.228983E-16	2.146561E-17
4.230000E+03	6.223321E-16	2.090742E-17
4.240000E+03	6.216790E-16	2.032777E-17
4.250000E+03	6.209894E-16	1.972935E-17
4.260000E+03	6.202867E-16	1.911461E-17
4.270000E+03	6.196295E-16	1.848785E-17
4.280000E+03	6.190487E-16	1.785345E-17
4.290000E+03	6.185736E-16	1.721685E-17
4.300000E+03	6.182423E-16	1.658517E-17
4.310000E+03	6.180791E-16	1.596671E-17
4.320000E+03	6.181172E-16	1.537188E-17
4.330000E+03	6.183761E-16	1.481275E-17
4.340000E+03	6.188738E-16	1.430343E-17
4.350000E+03	6.196478E-16	1.386030E-17
4.360000E+03	6.206909E-16	1.349988E-17
4.370000E+03	6.220481E-16	1.323970E-17
4.380000E+03	6.237208E-16	1.309401E-17
4.390000E+03	6.257206E-16	1.307139E-17
4.400000E+03	6.280802E-16	1.317115E-17
4.410000E+03	6.307911E-16	1.338206E-17
4.420000E+03	6.338942E-16	1.368824E-17
4.430000E+03	6.373870E-16	1.407067E-17
4.440000E+03	6.412837E-16	1.451071E-17
4.450000E+03	6.455736E-16	1.499046E-17
4.460000E+03	6.502701E-16	1.549444E-17
4.470000E+03	6.553702E-16	1.600896E-17
4.480000E+03	6.608538E-16	1.652187E-17
4.490000E+03	6.667028E-16	1.702289E-17
4.500000E+03	6.729003E-16	1.750325E-17
4.510000E+03	6.794017E-16	1.795469E-17
4.520000E+03	6.861632E-16	1.836990E-17
4.530000E+03	6.931331E-16	1.874210E-17
4.540000E+03	7.002514E-16	1.906486E-17
4.550000E+03	7.074512E-16	1.933200E-17
4.560000E+03	7.146598E-16	1.953754E-17
4.570000E+03	7.217993E-16	1.967566E-17
4.580000E+03	7.287891E-16	1.974076E-17
4.590000E+03	7.355464E-16	1.972753E-17
4.600000E+03	7.419888E-16	1.963099E-17
4.610000E+03	7.480358E-16	1.944666E-17
4.620000E+03	7.536104E-16	1.917068E-17
4.630000E+03	7.586507E-16	1.880020E-17
4.640000E+03	7.630723E-16	1.833259E-17
4.650000E+03	7.668385E-16	1.776735E-17
4.660000E+03	7.698832E-16	1.710439E-17
4.670000E+03	7.721900E-16	1.634618E-17
4.680000E+03	7.737154E-16	1.549631E-17
4.690000E+03	7.744477E-16	1.456123E-17
4.700000E+03	7.743975E-16	1.355062E-17
4.710000E+03	7.735686E-16	1.247781E-17
4.720000E+03	7.719865E-16	1.136186E-17
4.730000E+03	7.696788E-16	1.022972E-17
4.740000E+03	7.666924E-16	9.120423E-18
4.750000E+03	7.630830E-16	8.090758E-18
4.760000E+03	7.588955E-16	7.221131E-18
4.770000E+03	7.542010E-16	6.614240E-18
4.780000E+03	7.490850E-16	6.366265E-18
4.790000E+03	7.436559E-16	6.507038E-18
4.800000E+03	7.380968E-16	6.971534E-18
4.810000E+03	7.325732E-16	7.647149E-18
4.820000E+03	7.272640E-16	8.431939E-18
4.830000E+03	7.223510E-16	9.254726E-18
4.840000E+03	7.179560E-16	1.007095E-17
4.850000E+03	7.142153E-16	1.085519E-17
4.860000E+03	7.112351E-16	1.159385E-17
4.870000E+03	7.090994E-16	1.228071E-17
4.880000E+03	7.078525E-16	1.291373E-17
4.890000E+03	7.075473E-16	1.349418E-17
4.900000E+03	7.081715E-16	1.402414E-17
4.910000E+03	7.097122E-16	1.450701E-17
4.920000E+03	7.121398E-16	1.494679E-17
4.930000E+03	7.153762E-16	1.534717E-17
4.940000E+03	7.193355E-16	1.571210E-17
4.950000E+03	7.238940E-16	1.604506E-17
4.960000E+03	7.289408E-16	1.634997E-17
4.970000E+03	7.343004E-16	1.662928E-17
4.980000E+03	7.398358E-16	1.688607E-17
4.990000E+03	7.453733E-16	1.712211E-17
5.000000E+03	7.507512E-16	1.733873E-17
5.010000E+03	7.558289E-16	1.753688E-17
5.020000E+03	7.604705E-16	1.771665E-17
5.030000E+03	7.645941E-16	1.787833E-17
5.040000E+03	7.681185E-16	1.802132E-17
5.050000E+03	7.710333E-16	1.814580E-17
5.060000E+03	7.733308E-16	1.825133E-17
5.070000E+03	7.750708E-16	1.833857E-17
5.080000E+03	7.763237E-16	1.840811E-17
5.090000E+03	7.771724E-16	1.846063E-17
5.100000E+03	7.777289E-16	1.849746E-17
5.110000E+03	7.781020E-16	1.851984E-17
5.120000E+03	7.783897E-16	1.852885E-17
5.130000E+03	7.786991E-16	1.852586E-17
5.140000E+03	7.791172E-16	1.851187E-17
5.150000E+03	7.797171E-16	1.848765E-17
5.160000E+03	7.805486E-16	1.845351E-17
5.170000E+03	7.816715E-16	1.841005E-17
5.180000E+03	7.830989E-16	1.835683E-17
5.190000E+03	7.848644E-16	1.829400E-17
5.200000E+03	7.869661E-16	1.822097E-17
5.210000E+03	7.893924E-16	1.813709E-17
5.220000E+03	7.921399E-16	1.804205E-17
5.230000E+03	7.951976E-16	1.793551E-17
5.240000E+03	7.985218E-16	1.781649E-17
5.250000E+03	8.020952E-16	1.768462E-17
5.260000E+03	8.058597E-16	1.753857E-17
5.270000E+03	8.097751E-16	1.737722E-17
5.280000E+03	8.137861E-16	1.719884E-17
5.290000E+03	8.178220E-16	1.700103E-17
5.300000E+03	8.218329E-16	1.678138E-17
5.310000E+03	8.257307E-16	1.653620E-17
5.320000E+03	8.294425E-16	1.626161E-17
5.330000E+03	8.329133E-16	1.595361E-17
5.340000E+03	8.360569E-16	1.560715E-17
5.350000E+03	8.388094E-16	1.521732E-17
5.360000E+03	8.411235E-16	1.477940E-17
5.370000E+03	8.429527E-16	1.428876E-17
5.380000E+03	8.442446E-16	1.374108E-17
5.390000E+03	8.449927E-16	1.313366E-17
5.400000E+03	8.451769E-16	1.246501E-17
5.410000E+03	8.447974E-16	1.173620E-17
5.420000E+03	8.438652E-16	1.095195E-17
5.430000E+03	8.424005E-16	1.012239E-17
5.440000E+03	8.404310E-16	9.265819E-18
5.450000E+03	8.379903E-16	8.412805E-18
5.460000E+03	8.351148E-16	7.611975E-18
5.470000E+03	8.318325E-16	6.935617E-18
5.480000E+03	8.281724E-16	6.477658E-18
5.490000E+03	8.241550E-16	6.326926E-18
5.500000E+03	8.197133E-16	6.512976E-18
5.510000E+03	8.147417E-16	6.980604E-18
5.520000E+03	8.090948E-16	7.630423E-18
5.530000E+03	8.026510E-16	8.369291E-18
5.540000E+03	7.952967E-16	9.128783E-18
5.550000E+03	7.869720E-16	9.864156E-18
5.560000E+03	7.776627E-16	1.054799E-17
5.570000E+03	7.674185E-16	1.116503E-17
5.580000E+03	7.563528E-16	1.170854E-17
5.590000E+03	7.446077E-16	1.217741E-17
5.600000E+03	7.323925E-16	1.257513E-17
5.610000E+03	7.199517E-16	1.290821E-17
5.620000E+03	7.075334E-16	1.318475E-17
5.630000E+03	6.954287E-16	1.341446E-17
5.640000E+03	6.839049E-16	1.360694E-17
5.650000E+03	6.732454E-16	1.377200E-17
5.660000E+03	6.637141E-16	1.391876E-17
5.670000E+03	6.555564E-16	1.405546E-17
5.680000E+03	6.489951E-16	1.418940E-17
5.690000E+03	6.442216E-16	1.432665E-17
5.700000E+03	6.414135E-16	1.447254E-17
5.710000E+03	6.407151E-16	1.463126E-17
5.720000E+03	6.422378E-16	1.480589E-17
5.730000E+03	6.460723E-16	1.499876E-17
5.740000E+03	6.522884E-16	1.521156E-17
5.750000E+03	6.609143E-16	1.544493E-17
5.760000E+03	6.719533E-16	1.569899E-17
5.770000E+03	6.853666E-16	1.597307E-17
5.780000E+03	7.010945E-16	1.626636E-17
5.790000E+03	7.190036E-16	1.657680E-17
5.800000E+03	7.389275E-16	1.690217E-17
5.810000E+03	7.606257E-16	1.723917E-17
5.820000E+03	7.837999E-16	1.758383E-17
5.830000E+03	8.080927E-16	1.793135E-17
5.840000E+03	8.330594E-16	1.827537E-17
5.850000E+03	8.582213E-16	1.860907E-17
5.860000E+03	8.830408E-16	1.892442E-17
5.870000E+03	9.069725E-16	1.921328E-17
5.880000E+03	9.294620E-16	1.946720E-17
5.890000E+03	9.499602E-16	1.967777E-17
5.900000E+03	9.679943E-16	1.983798E-17
5.910000E+03	9.831458E-16	1.994173E-17
5.920000E+03	9.951175E-16	1.998508E-17
5.930000E+03	1.003671E-15	1.996494E-17
5.940000E+03	1.008731E-15	1.988101E-17
5.950000E+03	1.010296E-15	1.973408E-17
5.960000E+03	1.008514E-15	1.952731E-17
5.970000E+03	1.003588E-15	1.926455E-17
5.980000E+03	9.958224E-16	1.895109E-17
5.990000E+03	9.855891E-16	1.859317E-17
6.000000E+03	9.732902E-16	1.819719E-17
6.010000E+03	9.593281E-16	1.776919E-17
6.020000E+03	9.441438E-16	1.731562E-17
6.030000E+03	9.281264E-16	1.684168E-17
6.040000E+03	9.116746E-16	1.635251E-17
6.050000E+03	8.951156E-16	1.585176E-17
6.060000E+03	8.787623E-16	1.534257E-17
6.070000E+03	8.628753E-16	1.482685E-17
6.080000E+03	8.476801E-16	1.430556E-17
6.090000E+03	8.333358E-16	1.377819E-17
6.100000E+03	8.199880E-16	1.324364E-17
6.110000E+03	8.077391E-16	1.269980E-17
6.120000E+03	7.966678E-16	1.214397E-17
6.130000E+03	7.868176E-16	1.157291E-17
6.140000E+03	7.782074E-16	1.098334E-17
6.150000E+03	7.708497E-16	1.037280E-17
6.160000E+03	7.647219E-16	9.740100E-18
6.170000E+03	7.597982E-16	9.086957E-18
6.180000E+03	7.560284E-16	8.419509E-18
6.190000E+03	7.533532E-16	7.751031E-18
6.200000E+03	7.516529E-16	7.104954E-18
6.210000E+03	7.508220E-16	6.519954E-18
6.220000E+03	7.507252E-16	6.052264E-18
6.230000E+03	7.512234E-16	5.770472E-18
6.240000E+03	7.521836E-16	5.731624E-18
6.250000E+03	7.534883E-16	5.944841E-18
6.260000E+03	7.550418E-16	6.362646E-18
6.270000E+03	7.567531E-16	6.912191E-18
6.280000E+03	7.585420E-16	7.526002E-18
6.290000E+03	7.603455E-16	8.153049E-18
6.300000E+03	7.620748E-16	8.757617E-18
6.310000E+03	7.636699E-16	9.316097E-18
6.320000E+03	7.650721E-16	9.813268E-18
6.330000E+03	7.662332E-16	1.023991E-17
6.340000E+03	7.671241E-16	1.059123E-17
6.350000E+03	7.677127E-16	1.086542E-17
6.360000E+03	7.679935E-16	1.106316E-17
6.370000E+03	7.679719E-16	1.118677E-17
6.380000E+03	7.676392E-16	1.123928E-17
6.390000E+03	7.670248E-16	1.122479E-17
6.400000E+03	7.661404E-16	1.114735E-17
6.410000E+03	7.650094E-16	1.101135E-17
6.420000E+03	7.636732E-16	1.082178E-17
6.430000E+03	7.621362E-16	1.058375E-17
6.440000E+03	7.604512E-16	1.030428E-17
6.450000E+03	7.586347E-16	9.991632E-18
6.460000E+03	7.567293E-16	9.656854E-18
6.470000E+03	7.547666E-16	9.313880E-18
6.480000E+03	7.527993E-16	8.980433E-18
6.490000E+03	7.508697E-16	8.677736E-18
6.500000E+03	7.490409E-16	8.430225E-18
6.510000E+03	7.473630E-16	8.263150E-18
6.520000E+03	7.459092E-16	8.199146E-18
6.530000E+03	7.447258E-16	8.251969E-18
6.540000E+03	7.438844E-16	8.421551E-18
6.550000E+03	7.434134E-16	8.693175E-18
6.560000E+03	7.433382E-16	9.043946E-18
6.570000E+03	7.436519E-16	9.448904E-18
6.580000E+03	7.443369E-16	9.885320E-18
6.590000E+03	7.453329E-16	1.033414E-17
6.600000E+03	7.465464E-16	1.078052E-17
6.610000E+03	7.478856E-16	1.121394E-17
6.620000E+03	7.492246E-16	1.162706E-17
6.630000E+03	7.504244E-16	1.201515E-17
6.640000E+03	7.513470E-16	1.237551E-17
6.650000E+03	7.518465E-16	1.270660E-17
6.660000E+03	7.517765E-16	1.300741E-17
6.670000E+03	7.510314E-16	1.327776E-17
6.680000E+03	7.495035E-16	1.351716E-17
6.690000E+03	7.471299E-16	1.372553E-17
6.700000E+03	7.438636E-16	1.390267E-17
6.710000E+03	7.397072E-16	1.404903E-17
6.720000E+03	7.346881E-16	1.416549E-17
6.730000E+03	7.288643E-16	1.425368E-17
6.740000E+03	7.223207E-16	1.431607E-17
6.750000E+03	7.151654E-16	1.435602E-17
6.760000E+03	7.075245E-16	1.437766E-17
6.770000E+03	6.995463E-16	1.438588E-17
6.780000E+03	6.913721E-16	1.438552E-17
6.790000E+03	6.831571E-16	1.438161E-17
6.800000E+03	6.750654E-16	1.437902E-17
6.810000E+03	6.672441E-16	1.438175E-17
6.820000E+03	6.598507E-16	1.439335E-17
6.830000E+03	6.530203E-16	1.441618E-17
6.840000E+03	6.468934E-16	1.445207E-17
6.850000E+03	6.415843E-16	1.450169E-17
6.860000E+03	6.372095E-16	1.456544E-17
6.870000E+03	6.338645E-16	1.464312E-17
6.880000E+03	6.316155E-16	1.473397E-17
6.890000E+03	6.305502E-16	1.483807E-17
6.900000E+03	6.307027E-16	1.495470E-17
6.910000E+03	6.321031E-16	1.508355E-17
6.920000E+03	6.347682E-16	1.522447E-17
6.930000E+03	6.386836E-16	1.537697E-17
6.940000E+03	6.437936E-16	1.553989E-17
6.950000E+03	6.500516E-16	1.571257E-17
6.960000E+03	6.573356E-16	1.589273E-17
6.970000E+03	6.655333E-16	1.607853E-17
6.980000E+03	6.744824E-16	1.626718E-17
6.990000E+03	6.840052E-16	1.645572E-17
7.000000E+03	6.939074E-16	1.664103E-17
7.010000E+03	7.039846E-16	1.681990E-17
7.020000E+03	7.140316E-16	1.698925E-17
7.030000E+03	7.238509E-16	1.714617E-17
7.040000E+03	7.332540E-16	1.728795E-17
7.050000E+03	7.421043E-16	1.741296E-17
7.060000E+03	7.502539E-16	1.751916E-17
7.070000E+03	7.576372E-16	1.760628E-17
7.080000E+03	7.642116E-16	1.767439E-17
7.090000E+03	7.699570E-16	1.772389E-17
7.100000E+03	7.749288E-16	1.775678E-17
7.110000E+03	7.791804E-16	1.777480E-17
7.120000E+03	7.828216E-16	1.778081E-17
7.130000E+03	7.859645E-16	1.777757E-17
7.140000E+03	7.887528E-16	1.776841E-17
7.150000E+03	7.913236E-16	1.775650E-17
7.160000E+03	7.937888E-16	1.774440E-17
7.170000E+03	7.962746E-16	1.773504E-17
7.180000E+03	7.988754E-16	1.773061E-17
7.190000E+03	8.016476E-16	1.773247E-17
7.200000E+03	8.046340E-16	1.774157E-17
7.210000E+03	8.078223E-16	1.775753E-17
7.220000E+03	8.111638E-16	1.777900E-17
7.230000E+03	8.146043E-16	1.780437E-17
7.240000E+03	8.180182E-16	1.783030E-17
7.250000E+03	8.212828E-16	1.785341E-17
7.260000E+03	8.242342E-16	1.786937E-17
7.270000E+03	8.267056E-16	1.787368E-17
7.280000E+03	8.285140E-16	1.786147E-17
7.290000E+03	8.295103E-16	1.782853E-17
7.300000E+03	8.295161E-16	1.777004E-17
7.310000E+03	8.284033E-16	1.768225E-17
7.320000E+03	8.260508E-16	1.756164E-17
7.330000E+03	8.223817E-16	1.740573E-17
7.340000E+03	8.173574E-16	1.721295E-17
7.350000E+03	8.109811E-16	1.698278E-17
7.360000E+03	8.032977E-16	1.671573E-17
7.370000E+03	7.943922E-16	1.641327E-17
7.380000E+03	7.843855E-16	1.607776E-17
7.390000E+03	7.734283E-16	1.571229E-17
7.400000E+03	7.616845E-16	1.532020E-17
7.410000E+03	7.493520E-16	1.490545E-17
7.420000E+03	7.366162E-16	1.447155E-17
7.430000E+03	7.236806E-16	1.402200E-17
7.440000E+03	7.107316E-16	1.355958E-17
7.450000E+03	6.979424E-16	1.308634E-17
7.460000E+03	6.854516E-16	1.260331E-17
7.470000E+03	6.734211E-16	1.211165E-17
7.480000E+03	6.619477E-16	1.161121E-17
7.490000E+03	6.511231E-16	1.110185E-17
7.500000E+03	6.410169E-16	1.058335E-17
7.510000E+03	6.316851E-16	1.005590E-17
7.520000E+03	6.231548E-16	9.520212E-18
7.530000E+03	6.154183E-16	8.977986E-18
7.540000E+03	6.084814E-16	8.433391E-18
7.550000E+03	6.023169E-16	7.893314E-18
7.560000E+03	5.968669E-16	7.368733E-18
7.570000E+03	5.920903E-16	6.876874E-18
7.580000E+03	5.879188E-16	6.442062E-18
7.590000E+03	5.842678E-16	6.096164E-18
7.600000E+03	5.810570E-16	5.875641E-18
7.610000E+03	5.782209E-16	5.812111E-18
7.620000E+03	5.757130E-16	5.917032E-18
7.630000E+03	5.735192E-16	6.173088E-18
7.640000E+03	5.716686E-16	6.544090E-18
7.650000E+03	5.701838E-16	6.990429E-18
7.660000E+03	5.691070E-16	7.478504E-18
7.670000E+03	5.684441E-16	7.982551E-18
7.680000E+03	5.682210E-16	8.484695E-18
7.690000E+03	5.684242E-16	8.972542E-18
7.700000E+03	5.690587E-16	9.438447E-18
7.710000E+03	5.700964E-16	9.877467E-18
7.720000E+03	5.715057E-16	1.028685E-17
7.730000E+03	5.732455E-16	1.066524E-17
7.740000E+03	5.752735E-16	1.101226E-17
7.750000E+03	5.775261E-16	1.132775E-17
7.760000E+03	5.799506E-16	1.161199E-17
