#wls	flux	fluxerr
1.600000E+03	1.155476E-16	8.329659E-17
1.640000E+03	1.168282E-16	8.309576E-17
1.680000E+03	1.181184E-16	8.284838E-17
1.720000E+03	1.193903E-16	8.253367E-17
1.760000E+03	1.206852E-16	8.217917E-17
1.800000E+03	1.219509E-16	8.174799E-17
1.840000E+03	1.232291E-16	8.126732E-17
1.880000E+03	1.245141E-16	8.073210E-17
1.920000E+03	1.257757E-16	8.012167E-17
1.960000E+03	1.270314E-16	7.944687E-17
2.000000E+03	1.282993E-16	7.871804E-17
2.040000E+03	1.295729E-16	7.792982E-17
2.080000E+03	1.308198E-16	7.706224E-17
2.120000E+03	1.320828E-16	7.614007E-17
2.160000E+03	1.333291E-16	7.514359E-17
2.200000E+03	1.345506E-16	7.406847E-17
2.240000E+03	1.357647E-16	7.292449E-17
2.280000E+03	1.369633E-16	7.170740E-17
2.320000E+03	1.381130E-16	7.040059E-17
2.360000E+03	1.392564E-16	6.902728E-17
2.400000E+03	1.403860E-16	6.758412E-17
2.440000E+03	1.414440E-16	6.604511E-17
2.480000E+03	1.424993E-16	6.444505E-17
2.520000E+03	1.434959E-16	6.276028E-17
2.560000E+03	1.444538E-16	6.100295E-17
2.600000E+03	1.453695E-16	5.917457E-17
2.640000E+03	1.462646E-16	5.728719E-17
2.680000E+03	1.471376E-16	5.534308E-17
2.720000E+03	1.480124E-16	5.335410E-17
2.760000E+03	1.488664E-16	5.131510E-17
2.800000E+03	1.497494E-16	4.924653E-17
2.840000E+03	1.506874E-16	4.715881E-17
2.880000E+03	1.516846E-16	4.505481E-17
2.920000E+03	1.527905E-16	4.295058E-17
2.960000E+03	1.540530E-16	4.085951E-17
3.000000E+03	1.554970E-16	3.878724E-17
3.010000E+03	1.558952E-16	3.827424E-17
3.020000E+03	1.563063E-16	3.776267E-17
3.030000E+03	1.567512E-16	3.725754E-17
3.040000E+03	1.571879E-16	3.674880E-17
3.050000E+03	1.576583E-16	3.624633E-17
3.060000E+03	1.581415E-16	3.574518E-17
3.070000E+03	1.586581E-16	3.524997E-17
3.080000E+03	1.591874E-16	3.475597E-17
3.090000E+03	1.597293E-16	3.426326E-17
3.100000E+03	1.603043E-16	3.377617E-17
3.110000E+03	1.609120E-16	3.329452E-17
3.120000E+03	1.615321E-16	3.281401E-17
3.130000E+03	1.621847E-16	3.233877E-17
3.140000E+03	1.628495E-16	3.186472E-17
3.150000E+03	1.635663E-16	3.139964E-17
3.160000E+03	1.642950E-16	3.093569E-17
3.170000E+03	1.650552E-16	3.047669E-17
3.180000E+03	1.658468E-16	3.002255E-17
3.190000E+03	1.666889E-16	2.957669E-17
3.200000E+03	1.675422E-16	2.913208E-17
3.210000E+03	1.684453E-16	2.869556E-17
3.220000E+03	1.693784E-16	2.826369E-17
3.230000E+03	1.703411E-16	2.783653E-17
3.240000E+03	1.713525E-16	2.741723E-17
3.250000E+03	1.723928E-16	2.700267E-17
3.260000E+03	1.734808E-16	2.659593E-17
3.270000E+03	1.746158E-16	2.619694E-17
3.280000E+03	1.757786E-16	2.580295E-17
3.290000E+03	1.770064E-16	2.541958E-17
3.300000E+03	1.782611E-16	2.504145E-17
3.310000E+03	1.795610E-16	2.467144E-17
3.320000E+03	1.809242E-16	2.431220E-17
3.330000E+03	1.823315E-16	2.396131E-17
3.340000E+03	1.837826E-16	2.361900E-17
3.350000E+03	1.852954E-16	2.328787E-17
3.360000E+03	1.868693E-16	2.296806E-17
3.370000E+03	1.884856E-16	2.265759E-17
3.380000E+03	1.901622E-16	2.235899E-17
3.390000E+03	1.918988E-16	2.207254E-17
3.400000E+03	1.936951E-16	2.179857E-17
3.410000E+03	1.955507E-16	2.153744E-17
3.420000E+03	1.974836E-16	2.129146E-17
3.430000E+03	1.994757E-16	2.105906E-17
3.440000E+03	2.015271E-16	2.084068E-17
3.450000E+03	2.036734E-16	2.064036E-17
3.460000E+03	2.058795E-16	2.045487E-17
3.470000E+03	2.081635E-16	2.028641E-17
3.480000E+03	2.105433E-16	2.013703E-17
3.490000E+03	2.130021E-16	2.000539E-17
3.500000E+03	2.155410E-16	1.989188E-17
3.510000E+03	2.181611E-16	1.979687E-17
3.520000E+03	2.208981E-16	1.972380E-17
3.530000E+03	2.237191E-16	1.966980E-17
3.540000E+03	2.266429E-16	1.963665E-17
3.550000E+03	2.296884E-16	1.962599E-17
3.560000E+03	2.328407E-16	1.963645E-17
3.570000E+03	2.361022E-16	1.966809E-17
3.580000E+03	2.394921E-16	1.972232E-17
3.590000E+03	2.430132E-16	1.979898E-17
3.600000E+03	2.466680E-16	1.989782E-17
3.610000E+03	2.504596E-16	2.001848E-17
3.620000E+03	2.544074E-16	2.016180E-17
3.630000E+03	2.584977E-16	2.032584E-17
3.640000E+03	2.627336E-16	2.050995E-17
3.650000E+03	2.671513E-16	2.071595E-17
3.660000E+03	2.717206E-16	2.094043E-17
3.670000E+03	2.764610E-16	2.118382E-17
3.680000E+03	2.813920E-16	2.144646E-17
3.690000E+03	2.865160E-16	2.172738E-17
3.700000E+03	2.918190E-16	2.202431E-17
3.710000E+03	2.973194E-16	2.233748E-17
3.720000E+03	3.030190E-16	2.266583E-17
3.730000E+03	3.089189E-16	2.300826E-17
3.740000E+03	3.150195E-16	2.336363E-17
3.750000E+03	3.213370E-16	2.373199E-17
3.760000E+03	3.278705E-16	2.411213E-17
3.770000E+03	3.346013E-16	2.450155E-17
3.780000E+03	3.415592E-16	2.490139E-17
3.790000E+03	3.487070E-16	2.530785E-17
3.800000E+03	3.560718E-16	2.572192E-17
3.810000E+03	3.636300E-16	2.614092E-17
3.820000E+03	3.713895E-16	2.656448E-17
3.830000E+03	3.793396E-16	2.699097E-17
3.840000E+03	3.874516E-16	2.741753E-17
3.850000E+03	3.957279E-16	2.784356E-17
3.860000E+03	4.041690E-16	2.826840E-17
3.870000E+03	4.127405E-16	2.868897E-17
3.880000E+03	4.214221E-16	2.910329E-17
3.890000E+03	4.301921E-16	2.950932E-17
3.900000E+03	4.390431E-16	2.990613E-17
3.910000E+03	4.479331E-16	3.029043E-17
3.920000E+03	4.568680E-16	3.066230E-17
3.930000E+03	4.657859E-16	3.101727E-17
3.940000E+03	4.746571E-16	3.135317E-17
3.950000E+03	4.834838E-16	3.166996E-17
3.960000E+03	4.922016E-16	3.196327E-17
3.970000E+03	5.007955E-16	3.223204E-17
3.980000E+03	5.092340E-16	3.247417E-17
3.990000E+03	5.174862E-16	3.268762E-17
4.000000E+03	5.255221E-16	3.287044E-17
4.010000E+03	5.333134E-16	3.302081E-17
4.020000E+03	5.408172E-16	3.313605E-17
4.030000E+03	5.480256E-16	3.321561E-17
4.040000E+03	5.549011E-16	3.325714E-17
4.050000E+03	5.614412E-16	3.326041E-17
4.060000E+03	5.676152E-16	3.322347E-17
4.070000E+03	5.734120E-16	3.314556E-17
4.080000E+03	5.788243E-16	3.302612E-17
4.090000E+03	5.838488E-16	3.286480E-17
4.100000E+03	5.884716E-16	3.266066E-17
4.110000E+03	5.926979E-16	3.241389E-17
4.120000E+03	5.965372E-16	3.212491E-17
4.130000E+03	6.000026E-16	3.179437E-17
4.140000E+03	6.030829E-16	3.142172E-17
4.150000E+03	6.058274E-16	3.100964E-17
4.160000E+03	6.082182E-16	3.055746E-17
4.170000E+03	6.103103E-16	3.006837E-17
4.180000E+03	6.121062E-16	2.954304E-17
4.190000E+03	6.136251E-16	2.898324E-17
4.200000E+03	6.149145E-16	2.839230E-17
4.210000E+03	6.159842E-16	2.777206E-17
4.220000E+03	6.168713E-16	2.712599E-17
4.230000E+03	6.176135E-16	2.645794E-17
4.240000E+03	6.182243E-16	2.577118E-17
4.250000E+03	6.187306E-16	2.507017E-17
4.260000E+03	6.191827E-16	2.436089E-17
4.270000E+03	6.195951E-16	2.364861E-17
4.280000E+03	6.199937E-16	2.293987E-17
4.290000E+03	6.204041E-16	2.224212E-17
4.300000E+03	6.208621E-16	2.156409E-17
4.310000E+03	6.213911E-16	2.091504E-17
4.320000E+03	6.220024E-16	2.030475E-17
4.330000E+03	6.227175E-16	1.974410E-17
4.340000E+03	6.235771E-16	1.924502E-17
4.350000E+03	6.245778E-16	1.881802E-17
4.360000E+03	6.257461E-16	1.847377E-17
4.370000E+03	6.270855E-16	1.822064E-17
4.380000E+03	6.286171E-16	1.806487E-17
4.390000E+03	6.303486E-16	1.800880E-17
4.400000E+03	6.322740E-16	1.805005E-17
4.410000E+03	6.343836E-16	1.818189E-17
4.420000E+03	6.366930E-16	1.839492E-17
4.430000E+03	6.391759E-16	1.867609E-17
4.440000E+03	6.418315E-16	1.901169E-17
4.450000E+03	6.446365E-16	1.938684E-17
4.460000E+03	6.475837E-16	1.978728E-17
4.470000E+03	6.506622E-16	2.019933E-17
4.480000E+03	6.538671E-16	2.061040E-17
4.490000E+03	6.571624E-16	2.100801E-17
4.500000E+03	6.605462E-16	2.138183E-17
4.510000E+03	6.639855E-16	2.172162E-17
4.520000E+03	6.674634E-16	2.201863E-17
4.530000E+03	6.709420E-16	2.226437E-17
4.540000E+03	6.743995E-16	2.245170E-17
4.550000E+03	6.778034E-16	2.257394E-17
4.560000E+03	6.811107E-16	2.262481E-17
4.570000E+03	6.843050E-16	2.259960E-17
4.580000E+03	6.873425E-16	2.249341E-17
4.590000E+03	6.901976E-16	2.230268E-17
4.600000E+03	6.928371E-16	2.202427E-17
4.610000E+03	6.952470E-16	2.165646E-17
4.620000E+03	6.973800E-16	2.119726E-17
4.630000E+03	6.992271E-16	2.064676E-17
4.640000E+03	7.007741E-16	2.000585E-17
4.650000E+03	7.019928E-16	1.927607E-17
4.660000E+03	7.028948E-16	1.846133E-17
4.670000E+03	7.034526E-16	1.756591E-17
4.680000E+03	7.036878E-16	1.659715E-17
4.690000E+03	7.036013E-16	1.556403E-17
4.700000E+03	7.031998E-16	1.447861E-17
4.710000E+03	7.025135E-16	1.335742E-17
4.720000E+03	7.015701E-16	1.222243E-17
4.730000E+03	7.003867E-16	1.110336E-17
4.740000E+03	6.990213E-16	1.004181E-17
4.750000E+03	6.975127E-16	9.093842E-18
4.760000E+03	6.959062E-16	8.331910E-18
4.770000E+03	6.942608E-16	7.837969E-18
4.780000E+03	6.926308E-16	7.680851E-18
4.790000E+03	6.910651E-16	7.882436E-18
4.800000E+03	6.896106E-16	8.401519E-18
4.810000E+03	6.882783E-16	9.160374E-18
4.820000E+03	6.871043E-16	1.007849E-17
4.830000E+03	6.861089E-16	1.108988E-17
4.840000E+03	6.853360E-16	1.214701E-17
4.850000E+03	6.847960E-16	1.321693E-17
4.860000E+03	6.845201E-16	1.427803E-17
4.870000E+03	6.845197E-16	1.531600E-17
4.880000E+03	6.848247E-16	1.632217E-17
4.890000E+03	6.854277E-16	1.729065E-17
4.900000E+03	6.863464E-16	1.821863E-17
4.910000E+03	6.875607E-16	1.910411E-17
4.920000E+03	6.890754E-16	1.994692E-17
4.930000E+03	6.908659E-16	2.074695E-17
4.940000E+03	6.929172E-16	2.150493E-17
4.950000E+03	6.951939E-16	2.222133E-17
4.960000E+03	6.976720E-16	2.289719E-17
4.970000E+03	7.003091E-16	2.353308E-17
4.980000E+03	7.030840E-16	2.413028E-17
4.990000E+03	7.059435E-16	2.468896E-17
5.000000E+03	7.088586E-16	2.521001E-17
5.010000E+03	7.118019E-16	2.569429E-17
5.020000E+03	7.147330E-16	2.614200E-17
5.030000E+03	7.176232E-16	2.655363E-17
5.040000E+03	7.204482E-16	2.692964E-17
5.050000E+03	7.231969E-16	2.727076E-17
5.060000E+03	7.258553E-16	2.757750E-17
5.070000E+03	7.284069E-16	2.785004E-17
5.080000E+03	7.308561E-16	2.808920E-17
5.090000E+03	7.331958E-16	2.829519E-17
5.100000E+03	7.354388E-16	2.846882E-17
5.110000E+03	7.375933E-16	2.861057E-17
5.120000E+03	7.396692E-16	2.872085E-17
5.130000E+03	7.416783E-16	2.879998E-17
5.140000E+03	7.436244E-16	2.884785E-17
5.150000E+03	7.455271E-16	2.886482E-17
5.160000E+03	7.474049E-16	2.885109E-17
5.170000E+03	7.492505E-16	2.880570E-17
5.180000E+03	7.510785E-16	2.872845E-17
5.190000E+03	7.528846E-16	2.861826E-17
5.200000E+03	7.546859E-16	2.847476E-17
5.210000E+03	7.564723E-16	2.829638E-17
5.220000E+03	7.582306E-16	2.808136E-17
5.230000E+03	7.599687E-16	2.782857E-17
5.240000E+03	7.616594E-16	2.753548E-17
5.250000E+03	7.632970E-16	2.720023E-17
5.260000E+03	7.648653E-16	2.682045E-17
5.270000E+03	7.663459E-16	2.639361E-17
5.280000E+03	7.677109E-16	2.591677E-17
5.290000E+03	7.689471E-16	2.538743E-17
5.300000E+03	7.700324E-16	2.480275E-17
5.310000E+03	7.709446E-16	2.415988E-17
5.320000E+03	7.716535E-16	2.345579E-17
5.330000E+03	7.721378E-16	2.268783E-17
5.340000E+03	7.723853E-16	2.185380E-17
5.350000E+03	7.723773E-16	2.095155E-17
5.360000E+03	7.720812E-16	1.997892E-17
5.370000E+03	7.714982E-16	1.893518E-17
5.380000E+03	7.706161E-16	1.781984E-17
5.390000E+03	7.694089E-16	1.663301E-17
5.400000E+03	7.678845E-16	1.537676E-17
5.410000E+03	7.660212E-16	1.405419E-17
5.420000E+03	7.638300E-16	1.267149E-17
5.430000E+03	7.612994E-16	1.123819E-17
5.440000E+03	7.584183E-16	9.770297E-18
5.450000E+03	7.551981E-16	8.295699E-18
5.460000E+03	7.516191E-16	6.864863E-18
5.470000E+03	7.476831E-16	5.576420E-18
5.480000E+03	7.433836E-16	4.621709E-18
5.490000E+03	7.387067E-16	4.290788E-18
5.500000E+03	7.336659E-16	4.725226E-18
5.510000E+03	7.282924E-16	5.693170E-18
5.520000E+03	7.226325E-16	6.908848E-18
5.530000E+03	7.167338E-16	8.204926E-18
5.540000E+03	7.106530E-16	9.499197E-18
5.550000E+03	7.044421E-16	1.075131E-17
5.560000E+03	6.981498E-16	1.194100E-17
5.570000E+03	6.918360E-16	1.305854E-17
5.580000E+03	6.855789E-16	1.410036E-17
5.590000E+03	6.794404E-16	1.506616E-17
5.600000E+03	6.734935E-16	1.595807E-17
5.610000E+03	6.678079E-16	1.677971E-17
5.620000E+03	6.624752E-16	1.753626E-17
5.630000E+03	6.575682E-16	1.823323E-17
5.640000E+03	6.531659E-16	1.887673E-17
5.650000E+03	6.493451E-16	1.947314E-17
5.660000E+03	6.461856E-16	2.002910E-17
5.670000E+03	6.437432E-16	2.055055E-17
5.680000E+03	6.420863E-16	2.104378E-17
5.690000E+03	6.412695E-16	2.151449E-17
5.700000E+03	6.413384E-16	2.196792E-17
5.710000E+03	6.423222E-16	2.240850E-17
5.720000E+03	6.442580E-16	2.284070E-17
5.730000E+03	6.471457E-16	2.326740E-17
5.740000E+03	6.509909E-16	2.369138E-17
5.750000E+03	6.557726E-16	2.411422E-17
5.760000E+03	6.614679E-16	2.453711E-17
5.770000E+03	6.680255E-16	2.495998E-17
5.780000E+03	6.753846E-16	2.538213E-17
5.790000E+03	6.834748E-16	2.580231E-17
5.800000E+03	6.921898E-16	2.621772E-17
5.810000E+03	7.014343E-16	2.662579E-17
5.820000E+03	7.110715E-16	2.702224E-17
5.830000E+03	7.209717E-16	2.740294E-17
5.840000E+03	7.309807E-16	2.776269E-17
5.850000E+03	7.409502E-16	2.809643E-17
5.860000E+03	7.507129E-16	2.839832E-17
5.870000E+03	7.601080E-16	2.866266E-17
5.880000E+03	7.689780E-16	2.888384E-17
5.890000E+03	7.771733E-16	2.905646E-17
5.900000E+03	7.845491E-16	2.917531E-17
5.910000E+03	7.909919E-16	2.923624E-17
5.920000E+03	7.963935E-16	2.923531E-17
5.930000E+03	8.006761E-16	2.916964E-17
5.940000E+03	8.037871E-16	2.903723E-17
5.950000E+03	8.056928E-16	2.883676E-17
5.960000E+03	8.064014E-16	2.856836E-17
5.970000E+03	8.059312E-16	2.823247E-17
5.980000E+03	8.043402E-16	2.783088E-17
5.990000E+03	8.016843E-16	2.736528E-17
6.000000E+03	7.980612E-16	2.683869E-17
6.010000E+03	7.935675E-16	2.625403E-17
6.020000E+03	7.883265E-16	2.561501E-17
6.030000E+03	7.824454E-16	2.492471E-17
6.040000E+03	7.760654E-16	2.418717E-17
6.050000E+03	7.692977E-16	2.340538E-17
6.060000E+03	7.622657E-16	2.258258E-17
6.070000E+03	7.550947E-16	2.172196E-17
6.080000E+03	7.478807E-16	2.082577E-17
6.090000E+03	7.407325E-16	1.989664E-17
6.100000E+03	7.337344E-16	1.893655E-17
6.110000E+03	7.269742E-16	1.794774E-17
6.120000E+03	7.205143E-16	1.693218E-17
6.130000E+03	7.144061E-16	1.589218E-17
6.140000E+03	7.087041E-16	1.483109E-17
6.150000E+03	7.034452E-16	1.375333E-17
6.160000E+03	6.986499E-16	1.266524E-17
6.170000E+03	6.943434E-16	1.157667E-17
6.180000E+03	6.905426E-16	1.050237E-17
6.190000E+03	6.872443E-16	9.464386E-18
6.200000E+03	6.844464E-16	8.495884E-18
6.210000E+03	6.821355E-16	7.644849E-18
6.220000E+03	6.803083E-16	6.975805E-18
6.230000E+03	6.789588E-16	6.561870E-18
6.240000E+03	6.780582E-16	6.460193E-18
6.250000E+03	6.775818E-16	6.674075E-18
6.260000E+03	6.774884E-16	7.143597E-18
6.270000E+03	6.777078E-16	7.784341E-18
6.280000E+03	6.781976E-16	8.518236E-18
6.290000E+03	6.788979E-16	9.284610E-18
6.300000E+03	6.797713E-16	1.004021E-17
6.310000E+03	6.807706E-16	1.075459E-17
6.320000E+03	6.818447E-16	1.140619E-17
6.330000E+03	6.829666E-16	1.197982E-17
6.340000E+03	6.840924E-16	1.246412E-17
6.350000E+03	6.852024E-16	1.285101E-17
6.360000E+03	6.862600E-16	1.313416E-17
6.370000E+03	6.872463E-16	1.330911E-17
6.380000E+03	6.881393E-16	1.337260E-17
6.390000E+03	6.889277E-16	1.332262E-17
6.400000E+03	6.896037E-16	1.315819E-17
6.410000E+03	6.901489E-16	1.287908E-17
6.420000E+03	6.905765E-16	1.248667E-17
6.430000E+03	6.908669E-16	1.198295E-17
6.440000E+03	6.910316E-16	1.137196E-17
6.450000E+03	6.910845E-16	1.065983E-17
6.460000E+03	6.910198E-16	9.855364E-18
6.470000E+03	6.908549E-16	8.972420E-18
6.480000E+03	6.906014E-16	8.032435E-18
6.490000E+03	6.902717E-16	7.070195E-18
6.500000E+03	6.898791E-16	6.144147E-18
6.510000E+03	6.894307E-16	5.352794E-18
6.520000E+03	6.889196E-16	4.847381E-18
6.530000E+03	6.883472E-16	4.794529E-18
6.540000E+03	6.877151E-16	5.234044E-18
6.550000E+03	6.870061E-16	6.035548E-18
6.560000E+03	6.862170E-16	7.044786E-18
6.570000E+03	6.853145E-16	8.152372E-18
6.580000E+03	6.843080E-16	9.292794E-18
6.590000E+03	6.831606E-16	1.042728E-17
6.600000E+03	6.818634E-16	1.153295E-17
6.610000E+03	6.804057E-16	1.259593E-17
6.620000E+03	6.787539E-16	1.360725E-17
6.630000E+03	6.768965E-16	1.456164E-17
6.640000E+03	6.748157E-16	1.545590E-17
6.650000E+03	6.725034E-16	1.628853E-17
6.660000E+03	6.699321E-16	1.705862E-17
6.670000E+03	6.671014E-16	1.776662E-17
6.680000E+03	6.640083E-16	1.841354E-17
6.690000E+03	6.606637E-16	1.900116E-17
6.700000E+03	6.570700E-16	1.953139E-17
6.710000E+03	6.532441E-16	2.000679E-17
6.720000E+03	6.492174E-16	2.043055E-17
6.730000E+03	6.450131E-16	2.080578E-17
6.740000E+03	6.406758E-16	2.113636E-17
6.750000E+03	6.362480E-16	2.142619E-17
6.760000E+03	6.317775E-16	2.167936E-17
6.770000E+03	6.273086E-16	2.189983E-17
6.780000E+03	6.229101E-16	2.209239E-17
6.790000E+03	6.186238E-16	2.226079E-17
6.800000E+03	6.145206E-16	2.240973E-17
6.810000E+03	6.106497E-16	2.254303E-17
6.820000E+03	6.070658E-16	2.266456E-17
6.830000E+03	6.038281E-16	2.277820E-17
6.840000E+03	6.009782E-16	2.288706E-17
6.850000E+03	5.985606E-16	2.299420E-17
6.860000E+03	5.966218E-16	2.310261E-17
6.870000E+03	5.951955E-16	2.321467E-17
6.880000E+03	5.943025E-16	2.333213E-17
6.890000E+03	5.939638E-16	2.345667E-17
6.900000E+03	5.942002E-16	2.358987E-17
6.910000E+03	5.950186E-16	2.373267E-17
6.920000E+03	5.964111E-16	2.388541E-17
6.930000E+03	5.983833E-16	2.404889E-17
6.940000E+03	6.008983E-16	2.422221E-17
6.950000E+03	6.039541E-16	2.440584E-17
6.960000E+03	6.075066E-16	2.459853E-17
6.970000E+03	6.115190E-16	2.479935E-17
6.980000E+03	6.159639E-16	2.500773E-17
6.990000E+03	6.207796E-16	2.522173E-17
7.000000E+03	6.259152E-16	2.543985E-17
7.010000E+03	6.313247E-16	2.566080E-17
7.020000E+03	6.369534E-16	2.588294E-17
7.030000E+03	6.427385E-16	2.610430E-17
7.040000E+03	6.486261E-16	2.632325E-17
7.050000E+03	6.545721E-16	2.653859E-17
7.060000E+03	6.605285E-16	2.674888E-17
7.070000E+03	6.664431E-16	2.695253E-17
7.080000E+03	6.722763E-16	2.714839E-17
7.090000E+03	6.779935E-16	2.733547E-17
7.100000E+03	6.835737E-16	2.751329E-17
7.110000E+03	6.889754E-16	2.768045E-17
7.120000E+03	6.941950E-16	2.783703E-17
7.130000E+03	6.992067E-16	2.798213E-17
7.140000E+03	7.039959E-16	2.811520E-17
7.150000E+03	7.085487E-16	2.823566E-17
7.160000E+03	7.128517E-16	2.834285E-17
7.170000E+03	7.168813E-16	2.843561E-17
7.180000E+03	7.206383E-16	2.851366E-17
7.190000E+03	7.240849E-16	2.857508E-17
7.200000E+03	7.272067E-16	2.861881E-17
7.210000E+03	7.299761E-16	2.864315E-17
7.220000E+03	7.323525E-16	2.864583E-17
7.230000E+03	7.343101E-16	2.862506E-17
7.240000E+03	7.358109E-16	2.857851E-17
7.250000E+03	7.368058E-16	2.850334E-17
7.260000E+03	7.372545E-16	2.839704E-17
7.270000E+03	7.371268E-16	2.825742E-17
7.280000E+03	7.363861E-16	2.808204E-17
7.290000E+03	7.349814E-16	2.786791E-17
7.300000E+03	7.329052E-16	2.761372E-17
7.310000E+03	7.301390E-16	2.731779E-17
7.320000E+03	7.266642E-16	2.697846E-17
7.330000E+03	7.224818E-16	2.659491E-17
7.340000E+03	7.176127E-16	2.616711E-17
7.350000E+03	7.120618E-16	2.569456E-17
7.360000E+03	7.058814E-16	2.517856E-17
7.370000E+03	6.991164E-16	2.462023E-17
7.380000E+03	6.918123E-16	2.402080E-17
7.390000E+03	6.840233E-16	2.338189E-17
7.400000E+03	6.758373E-16	2.270637E-17
7.410000E+03	6.673294E-16	2.199669E-17
7.420000E+03	6.585611E-16	2.125493E-17
7.430000E+03	6.496301E-16	2.048438E-17
7.440000E+03	6.406000E-16	1.968730E-17
7.450000E+03	6.315664E-16	1.886702E-17
7.460000E+03	6.225884E-16	1.802585E-17
7.470000E+03	6.137539E-16	1.716711E-17
7.480000E+03	6.051210E-16	1.629348E-17
7.490000E+03	5.967502E-16	1.540811E-17
7.500000E+03	5.886955E-16	1.451452E-17
7.510000E+03	5.810049E-16	1.361689E-17
7.520000E+03	5.737196E-16	1.272041E-17
7.530000E+03	5.668750E-16	1.183179E-17
7.540000E+03	5.604934E-16	1.095985E-17
7.550000E+03	5.546140E-16	1.011698E-17
7.560000E+03	5.492423E-16	9.319327E-18
7.570000E+03	5.444018E-16	8.588992E-18
7.580000E+03	5.400984E-16	7.954152E-18
7.590000E+03	5.363487E-16	7.448781E-18
7.600000E+03	5.331592E-16	7.108241E-18
7.610000E+03	5.305250E-16	6.960971E-18
7.620000E+03	5.284491E-16	7.017797E-18
7.630000E+03	5.269179E-16	7.263938E-18
7.640000E+03	5.259052E-16	7.666401E-18
7.650000E+03	5.253884E-16	8.185684E-18
7.660000E+03	5.253502E-16	8.784456E-18
7.670000E+03	5.257581E-16	9.431386E-18
7.680000E+03	5.265932E-16	1.010230E-17
7.690000E+03	5.278283E-16	1.077889E-17
7.700000E+03	5.294217E-16	1.144718E-17
7.710000E+03	5.313651E-16	1.209729E-17
7.720000E+03	5.336141E-16	1.272102E-17
7.730000E+03	5.361364E-16	1.331207E-17
7.740000E+03	5.389056E-16	1.386549E-17
7.750000E+03	5.418792E-16	1.437672E-17
7.760000E+03	5.450278E-16	1.484203E-17
