#wls	flux	fluxerr
1.600000E+03	5.034252E-17	4.062842E-17
1.640000E+03	5.117870E-17	4.096503E-17
1.680000E+03	5.203349E-17	4.129720E-17
1.720000E+03	5.288819E-17	4.160939E-17
1.760000E+03	5.375980E-17	4.191442E-17
1.800000E+03	5.464756E-17	4.221090E-17
1.840000E+03	5.554125E-17	4.249022E-17
1.880000E+03	5.643960E-17	4.275088E-17
1.920000E+03	5.736047E-17	4.300573E-17
1.960000E+03	5.828366E-17	4.323887E-17
2.000000E+03	5.921744E-17	4.345594E-17
2.040000E+03	6.016051E-17	4.365538E-17
2.080000E+03	6.111146E-17	4.383561E-17
2.120000E+03	6.206880E-17	4.399508E-17
2.160000E+03	6.303094E-17	4.413224E-17
2.200000E+03	6.400648E-17	4.425266E-17
2.240000E+03	6.498358E-17	4.434773E-17
2.280000E+03	6.597081E-17	4.442303E-17
2.320000E+03	6.696652E-17	4.447707E-17
2.360000E+03	6.796894E-17	4.450843E-17
2.400000E+03	6.896569E-17	4.450894E-17
2.440000E+03	6.997605E-17	4.449109E-17
2.480000E+03	7.098761E-17	4.444688E-17
2.520000E+03	7.199850E-17	4.437532E-17
2.560000E+03	7.301763E-17	4.428215E-17
2.600000E+03	7.404331E-17	4.416649E-17
2.640000E+03	7.506304E-17	4.402125E-17
2.680000E+03	7.609689E-17	4.385873E-17
2.720000E+03	7.713261E-17	4.367217E-17
2.760000E+03	7.816891E-17	4.346151E-17
2.800000E+03	7.921561E-17	4.323285E-17
2.840000E+03	8.026102E-17	4.298047E-17
2.880000E+03	8.131550E-17	4.271074E-17
2.920000E+03	8.238970E-17	4.242984E-17
2.960000E+03	8.347296E-17	4.213278E-17
3.000000E+03	8.456595E-17	4.182066E-17
3.010000E+03	8.483782E-17	4.173893E-17
3.020000E+03	8.511779E-17	4.166000E-17
3.030000E+03	8.539512E-17	4.157860E-17
3.040000E+03	8.568059E-17	4.149997E-17
3.050000E+03	8.595275E-17	4.141375E-17
3.060000E+03	8.624383E-17	4.133549E-17
3.070000E+03	8.652168E-17	4.124974E-17
3.080000E+03	8.680779E-17	4.116680E-17
3.090000E+03	8.710217E-17	4.108664E-17
3.100000E+03	8.738349E-17	4.099919E-17
3.110000E+03	8.767316E-17	4.091457E-17
3.120000E+03	8.797122E-17	4.083274E-17
3.130000E+03	8.826705E-17	4.074875E-17
3.140000E+03	8.856070E-17	4.066266E-17
3.150000E+03	8.886288E-17	4.057939E-17
3.160000E+03	8.916300E-17	4.049407E-17
3.170000E+03	8.946113E-17	4.040678E-17
3.180000E+03	8.976794E-17	4.032232E-17
3.190000E+03	9.007290E-17	4.023594E-17
3.200000E+03	9.038665E-17	4.015239E-17
3.210000E+03	9.069868E-17	4.006699E-17
3.220000E+03	9.100909E-17	3.997978E-17
3.230000E+03	9.132849E-17	3.989544E-17
3.240000E+03	9.164642E-17	3.980936E-17
3.250000E+03	9.197348E-17	3.972615E-17
3.260000E+03	9.229924E-17	3.964125E-17
3.270000E+03	9.262379E-17	3.955474E-17
3.280000E+03	9.295773E-17	3.947112E-17
3.290000E+03	9.329065E-17	3.938594E-17
3.300000E+03	9.363311E-17	3.930364E-17
3.310000E+03	9.397476E-17	3.921985E-17
3.320000E+03	9.432613E-17	3.913894E-17
3.330000E+03	9.467689E-17	3.905659E-17
3.340000E+03	9.502716E-17	3.897285E-17
3.350000E+03	9.538745E-17	3.889202E-17
3.360000E+03	9.575787E-17	3.881406E-17
3.370000E+03	9.611775E-17	3.873058E-17
3.380000E+03	9.648798E-17	3.865002E-17
3.390000E+03	9.686867E-17	3.857235E-17
3.400000E+03	9.724957E-17	3.849344E-17
3.410000E+03	9.764115E-17	3.841740E-17
3.420000E+03	9.802288E-17	3.833613E-17
3.430000E+03	9.842586E-17	3.826178E-17
3.440000E+03	9.882958E-17	3.818627E-17
3.450000E+03	9.923418E-17	3.810965E-17
3.460000E+03	9.963981E-17	3.803195E-17
3.470000E+03	1.000672E-16	3.796102E-17
3.480000E+03	1.004855E-16	3.788512E-17
3.490000E+03	1.009156E-16	3.781205E-17
3.500000E+03	1.013576E-16	3.774178E-17
3.510000E+03	1.017910E-16	3.766669E-17
3.520000E+03	1.022469E-16	3.759816E-17
3.530000E+03	1.026945E-16	3.752487E-17
3.540000E+03	1.031648E-16	3.745805E-17
3.550000E+03	1.036273E-16	3.738654E-17
3.560000E+03	1.041025E-16	3.731774E-17
3.570000E+03	1.045905E-16	3.725160E-17
3.580000E+03	1.050815E-16	3.718447E-17
3.590000E+03	1.055754E-16	3.711637E-17
3.600000E+03	1.060827E-16	3.705087E-17
3.610000E+03	1.065934E-16	3.698438E-17
3.620000E+03	1.071177E-16	3.692042E-17
3.630000E+03	1.076458E-16	3.685545E-17
3.640000E+03	1.081777E-16	3.678949E-17
3.650000E+03	1.087238E-16	3.672597E-17
3.660000E+03	1.092843E-16	3.666482E-17
3.670000E+03	1.098391E-16	3.659922E-17
3.680000E+03	1.104187E-16	3.653930E-17
3.690000E+03	1.109929E-16	3.647493E-17
3.700000E+03	1.115823E-16	3.641280E-17
3.710000E+03	1.121869E-16	3.635283E-17
3.720000E+03	1.127867E-16	3.628841E-17
3.730000E+03	1.134123E-16	3.622933E-17
3.740000E+03	1.140334E-16	3.616579E-17
3.750000E+03	1.146706E-16	3.610423E-17
3.760000E+03	1.153241E-16	3.604455E-17
3.770000E+03	1.159737E-16	3.598039E-17
3.780000E+03	1.166501E-16	3.592116E-17
3.790000E+03	1.173231E-16	3.585739E-17
3.800000E+03	1.180132E-16	3.579529E-17
3.810000E+03	1.187104E-16	3.573171E-17
3.820000E+03	1.194251E-16	3.566963E-17
3.830000E+03	1.201474E-16	3.560595E-17
3.840000E+03	1.208775E-16	3.554064E-17
3.850000E+03	1.216258E-16	3.547661E-17
3.860000E+03	1.223823E-16	3.541082E-17
3.870000E+03	1.231472E-16	3.534321E-17
3.880000E+03	1.239311E-16	3.527664E-17
3.890000E+03	1.247137E-16	3.520523E-17
3.900000E+03	1.255259E-16	3.513756E-17
3.910000E+03	1.263373E-16	3.506493E-17
3.920000E+03	1.271686E-16	3.499297E-17
3.930000E+03	1.280098E-16	3.491876E-17
3.940000E+03	1.288714E-16	3.484499E-17
3.950000E+03	1.297332E-16	3.476602E-17
3.960000E+03	1.306160E-16	3.468729E-17
3.970000E+03	1.315096E-16	3.460596E-17
3.980000E+03	1.324248E-16	3.452460E-17
3.990000E+03	1.333411E-16	3.443774E-17
4.000000E+03	1.342795E-16	3.435063E-17
4.010000E+03	1.352299E-16	3.426047E-17
4.020000E+03	1.362029E-16	3.416976E-17
4.030000E+03	1.371780E-16	3.407316E-17
4.040000E+03	1.381764E-16	3.397572E-17
4.050000E+03	1.391878E-16	3.387472E-17
4.060000E+03	1.402125E-16	3.377003E-17
4.070000E+03	1.412509E-16	3.366150E-17
4.080000E+03	1.423031E-16	3.354898E-17
4.090000E+03	1.433799E-16	3.343478E-17
4.100000E+03	1.444606E-16	3.331381E-17
4.110000E+03	1.455664E-16	3.319078E-17
4.120000E+03	1.466871E-16	3.306307E-17
4.130000E+03	1.478123E-16	3.292812E-17
4.140000E+03	1.489635E-16	3.279051E-17
4.150000E+03	1.501302E-16	3.264763E-17
4.160000E+03	1.513233E-16	3.250160E-17
4.170000E+03	1.525218E-16	3.234757E-17
4.180000E+03	1.537364E-16	3.218763E-17
4.190000E+03	1.549673E-16	3.202156E-17
4.200000E+03	1.562147E-16	3.184912E-17
4.210000E+03	1.574787E-16	3.167006E-17
4.220000E+03	1.587704E-16	3.148628E-17
4.230000E+03	1.600681E-16	3.129318E-17
4.240000E+03	1.613827E-16	3.109265E-17
4.250000E+03	1.627143E-16	3.088443E-17
4.260000E+03	1.640629E-16	3.066822E-17
4.270000E+03	1.654286E-16	3.044372E-17
4.280000E+03	1.668114E-16	3.021063E-17
4.290000E+03	1.682113E-16	2.996863E-17
4.300000E+03	1.696168E-16	2.971544E-17
4.310000E+03	1.710505E-16	2.945469E-17
4.320000E+03	1.724896E-16	2.918214E-17
4.330000E+03	1.739452E-16	2.889943E-17
4.340000E+03	1.754171E-16	2.860620E-17
4.350000E+03	1.769051E-16	2.830211E-17
4.360000E+03	1.784090E-16	2.798682E-17
4.370000E+03	1.799168E-16	2.765819E-17
4.380000E+03	1.814513E-16	2.731945E-17
4.390000E+03	1.829889E-16	2.696674E-17
4.400000E+03	1.845408E-16	2.660146E-17
4.410000E+03	1.860948E-16	2.622163E-17
4.420000E+03	1.876737E-16	2.583022E-17
4.430000E+03	1.892534E-16	2.542363E-17
4.440000E+03	1.908333E-16	2.500163E-17
4.450000E+03	1.924363E-16	2.456702E-17
4.460000E+03	1.940379E-16	2.411644E-17
4.470000E+03	1.956492E-16	2.365114E-17
4.480000E+03	1.972694E-16	2.317082E-17
4.490000E+03	1.988857E-16	2.267387E-17
4.500000E+03	2.005089E-16	2.216149E-17
4.510000E+03	2.021261E-16	2.163216E-17
4.520000E+03	2.037482E-16	2.108710E-17
4.530000E+03	2.053742E-16	2.052615E-17
4.540000E+03	2.069907E-16	1.994804E-17
4.550000E+03	2.086088E-16	1.935397E-17
4.560000E+03	2.102272E-16	1.874396E-17
4.570000E+03	2.118323E-16	1.811701E-17
4.580000E+03	2.134351E-16	1.747441E-17
4.590000E+03	2.150219E-16	1.681544E-17
4.600000E+03	2.166036E-16	1.614152E-17
4.610000E+03	2.181663E-16	1.545223E-17
4.620000E+03	2.197211E-16	1.474921E-17
4.630000E+03	2.212539E-16	1.403251E-17
4.640000E+03	2.227758E-16	1.330414E-17
4.650000E+03	2.242853E-16	1.256553E-17
4.660000E+03	2.257553E-16	1.181718E-17
4.670000E+03	2.272228E-16	1.106366E-17
4.680000E+03	2.286604E-16	1.030683E-17
4.690000E+03	2.300666E-16	9.551003E-18
4.700000E+03	2.314528E-16	8.802399E-18
4.710000E+03	2.328045E-16	8.068171E-18
4.720000E+03	2.341334E-16	7.359290E-18
4.730000E+03	2.354248E-16	6.689795E-18
4.740000E+03	2.366906E-16	6.079935E-18
4.750000E+03	2.379162E-16	5.555855E-18
4.760000E+03	2.391137E-16	5.150928E-18
4.770000E+03	2.402553E-16	4.900395E-18
4.780000E+03	2.413797E-16	4.834397E-18
4.790000E+03	2.424594E-16	4.961520E-18
4.800000E+03	2.434939E-16	5.262614E-18
4.810000E+03	2.444960E-16	5.703551E-18
4.820000E+03	2.454520E-16	6.247217E-18
4.830000E+03	2.463617E-16	6.861679E-18
4.840000E+03	2.472382E-16	7.522442E-18
4.850000E+03	2.480682E-16	8.210636E-18
4.860000E+03	2.488650E-16	8.913126E-18
4.870000E+03	2.496152E-16	9.619453E-18
4.880000E+03	2.503191E-16	1.032208E-17
4.890000E+03	2.509902E-16	1.101583E-17
4.900000E+03	2.516154E-16	1.169572E-17
4.910000E+03	2.521951E-16	1.235817E-17
4.920000E+03	2.527429E-16	1.300101E-17
4.930000E+03	2.532594E-16	1.362195E-17
4.940000E+03	2.537181E-16	1.421763E-17
4.950000E+03	2.541464E-16	1.478787E-17
4.960000E+03	2.545447E-16	1.533136E-17
4.970000E+03	2.548869E-16	1.584532E-17
4.980000E+03	2.552003E-16	1.633039E-17
4.990000E+03	2.554853E-16	1.678576E-17
5.000000E+03	2.557293E-16	1.720988E-17
5.010000E+03	2.559330E-16	1.760211E-17
5.020000E+03	2.561101E-16	1.796288E-17
5.030000E+03	2.562482E-16	1.829087E-17
5.040000E+03	2.563478E-16	1.858572E-17
5.050000E+03	2.564227E-16	1.884816E-17
5.060000E+03	2.564605E-16	1.907704E-17
5.070000E+03	2.564618E-16	1.927224E-17
5.080000E+03	2.564404E-16	1.943471E-17
5.090000E+03	2.563838E-16	1.956347E-17
5.100000E+03	2.562927E-16	1.965858E-17
5.110000E+03	2.561807E-16	1.972117E-17
5.120000E+03	2.560485E-16	1.975143E-17
5.130000E+03	2.558707E-16	1.974758E-17
5.140000E+03	2.556739E-16	1.971191E-17
5.150000E+03	2.554586E-16	1.964475E-17
5.160000E+03	2.551997E-16	1.954450E-17
5.170000E+03	2.549364E-16	1.941457E-17
5.180000E+03	2.546308E-16	1.925248E-17
5.190000E+03	2.543090E-16	1.906075E-17
5.200000E+03	2.539589E-16	1.883900E-17
5.210000E+03	2.535939E-16	1.858882E-17
5.220000E+03	2.532017E-16	1.830999E-17
5.230000E+03	2.527956E-16	1.800419E-17
5.240000E+03	2.523509E-16	1.767045E-17
5.250000E+03	2.519060E-16	1.731235E-17
5.260000E+03	2.514236E-16	1.692825E-17
5.270000E+03	2.509421E-16	1.652178E-17
5.280000E+03	2.504243E-16	1.609160E-17
5.290000E+03	2.498957E-16	1.564062E-17
5.300000E+03	2.493446E-16	1.516947E-17
5.310000E+03	2.487838E-16	1.468045E-17
5.320000E+03	2.482015E-16	1.417452E-17
5.330000E+03	2.476106E-16	1.365433E-17
5.340000E+03	2.469993E-16	1.312135E-17
5.350000E+03	2.463681E-16	1.257807E-17
5.360000E+03	2.457300E-16	1.202794E-17
5.370000E+03	2.450852E-16	1.147417E-17
5.380000E+03	2.444103E-16	1.091941E-17
5.390000E+03	2.437419E-16	1.036975E-17
5.400000E+03	2.430447E-16	9.828824E-18
5.410000E+03	2.423550E-16	9.304264E-18
5.420000E+03	2.416377E-16	8.801900E-18
5.430000E+03	2.409173E-16	8.331118E-18
5.440000E+03	2.401943E-16	7.901604E-18
5.450000E+03	2.394575E-16	7.523814E-18
5.460000E+03	2.387077E-16	7.209339E-18
5.470000E+03	2.379573E-16	6.969987E-18
5.480000E+03	2.372069E-16	6.815839E-18
5.490000E+03	2.364456E-16	6.753830E-18
5.500000E+03	2.356742E-16	6.786000E-18
5.510000E+03	2.349052E-16	6.906972E-18
5.520000E+03	2.341396E-16	7.106854E-18
5.530000E+03	2.333669E-16	7.373280E-18
5.540000E+03	2.325881E-16	7.693569E-18
5.550000E+03	2.318155E-16	8.055923E-18
5.560000E+03	2.310503E-16	8.449367E-18
5.570000E+03	2.302820E-16	8.863953E-18
5.580000E+03	2.295228E-16	9.292036E-18
5.590000E+03	2.287627E-16	9.726465E-18
5.600000E+03	2.280026E-16	1.016168E-17
5.610000E+03	2.272656E-16	1.059417E-17
5.620000E+03	2.265195E-16	1.101870E-17
5.630000E+03	2.257982E-16	1.143384E-17
5.640000E+03	2.250807E-16	1.183606E-17
5.650000E+03	2.243678E-16	1.222330E-17
5.660000E+03	2.236714E-16	1.259450E-17
5.670000E+03	2.229921E-16	1.294834E-17
5.680000E+03	2.223199E-16	1.328311E-17
5.690000E+03	2.216665E-16	1.359853E-17
5.700000E+03	2.210217E-16	1.389323E-17
5.710000E+03	2.203969E-16	1.416731E-17
5.720000E+03	2.197930E-16	1.442032E-17
5.730000E+03	2.191997E-16	1.465121E-17
5.740000E+03	2.186283E-16	1.486041E-17
5.750000E+03	2.180795E-16	1.504775E-17
5.760000E+03	2.175431E-16	1.521235E-17
5.770000E+03	2.170302E-16	1.535487E-17
5.780000E+03	2.165309E-16	1.547454E-17
5.790000E+03	2.160561E-16	1.557210E-17
5.800000E+03	2.156062E-16	1.564762E-17
5.810000E+03	2.151712E-16	1.570039E-17
5.820000E+03	2.147619E-16	1.573130E-17
5.830000E+03	2.143682E-16	1.573969E-17
5.840000E+03	2.140114E-16	1.572725E-17
5.850000E+03	2.136709E-16	1.569261E-17
5.860000E+03	2.133469E-16	1.563595E-17
5.870000E+03	2.130607E-16	1.555901E-17
5.880000E+03	2.127916E-16	1.546046E-17
5.890000E+03	2.125398E-16	1.534054E-17
5.900000E+03	2.123264E-16	1.520100E-17
5.910000E+03	2.121307E-16	1.504060E-17
5.920000E+03	2.119634E-16	1.486033E-17
5.930000E+03	2.118141E-16	1.465977E-17
5.940000E+03	2.116934E-16	1.443992E-17
5.950000E+03	2.116013E-16	1.420111E-17
5.960000E+03	2.115380E-16	1.394363E-17
5.970000E+03	2.114931E-16	1.366716E-17
5.980000E+03	2.114873E-16	1.337341E-17
5.990000E+03	2.114897E-16	1.306078E-17
6.000000E+03	2.115313E-16	1.273165E-17
6.010000E+03	2.115912E-16	1.238518E-17
6.020000E+03	2.116903E-16	1.202308E-17
6.030000E+03	2.118076E-16	1.164465E-17
6.040000E+03	2.119430E-16	1.125051E-17
6.050000E+03	2.121171E-16	1.084239E-17
6.060000E+03	2.123090E-16	1.041991E-17
6.070000E+03	2.125288E-16	9.984375E-18
6.080000E+03	2.127762E-16	9.536677E-18
6.090000E+03	2.130406E-16	9.077377E-18
6.100000E+03	2.133321E-16	8.608141E-18
6.110000E+03	2.136607E-16	8.130757E-18
6.120000E+03	2.140051E-16	7.646069E-18
6.130000E+03	2.143648E-16	7.156173E-18
6.140000E+03	2.147603E-16	6.664311E-18
6.150000E+03	2.151700E-16	6.172978E-18
6.160000E+03	2.156038E-16	5.686615E-18
6.170000E+03	2.160611E-16	5.210581E-18
6.180000E+03	2.165412E-16	4.752021E-18
6.190000E+03	2.170432E-16	4.320534E-18
6.200000E+03	2.175556E-16	3.928768E-18
6.210000E+03	2.180991E-16	3.593816E-18
6.220000E+03	2.186510E-16	3.335464E-18
6.230000E+03	2.192211E-16	3.174862E-18
6.240000E+03	2.198084E-16	3.127950E-18
6.250000E+03	2.204115E-16	3.194177E-18
6.260000E+03	2.210182E-16	3.352553E-18
6.270000E+03	2.216487E-16	3.576525E-18
6.280000E+03	2.222795E-16	3.840336E-18
6.290000E+03	2.229200E-16	4.123376E-18
6.300000E+03	2.235685E-16	4.409855E-18
6.310000E+03	2.242233E-16	4.688122E-18
6.320000E+03	2.248825E-16	4.949638E-18
6.330000E+03	2.255444E-16	5.188119E-18
6.340000E+03	2.261958E-16	5.398638E-18
6.350000E+03	2.268573E-16	5.578276E-18
6.360000E+03	2.275044E-16	5.723965E-18
6.370000E+03	2.281580E-16	5.834500E-18
6.380000E+03	2.287932E-16	5.908181E-18
6.390000E+03	2.294195E-16	5.944775E-18
6.400000E+03	2.300350E-16	5.944361E-18
6.410000E+03	2.306377E-16	5.907648E-18
6.420000E+03	2.312259E-16	5.836059E-18
6.430000E+03	2.317977E-16	5.731854E-18
6.440000E+03	2.323512E-16	5.598311E-18
6.450000E+03	2.328731E-16	5.439707E-18
6.460000E+03	2.333849E-16	5.262745E-18
6.470000E+03	2.338617E-16	5.075053E-18
6.480000E+03	2.343254E-16	4.887793E-18
6.490000E+03	2.347511E-16	4.714000E-18
6.500000E+03	2.351610E-16	4.570733E-18
6.510000E+03	2.355302E-16	4.476598E-18
6.520000E+03	2.358695E-16	4.451766E-18
6.530000E+03	2.361898E-16	4.514301E-18
6.540000E+03	2.364665E-16	4.672603E-18
6.550000E+03	2.367113E-16	4.923757E-18
6.560000E+03	2.369241E-16	5.258995E-18
6.570000E+03	2.371048E-16	5.666854E-18
6.580000E+03	2.372535E-16	6.135383E-18
6.590000E+03	2.373704E-16	6.653505E-18
6.600000E+03	2.374558E-16	7.211613E-18
6.610000E+03	2.375103E-16	7.801657E-18
6.620000E+03	2.375342E-16	8.417009E-18
6.630000E+03	2.375283E-16	9.052230E-18
6.640000E+03	2.374932E-16	9.702847E-18
6.650000E+03	2.374297E-16	1.036516E-17
6.660000E+03	2.373386E-16	1.103606E-17
6.670000E+03	2.372209E-16	1.171295E-17
6.680000E+03	2.370774E-16	1.239360E-17
6.690000E+03	2.369091E-16	1.307608E-17
6.700000E+03	2.367171E-16	1.375874E-17
6.710000E+03	2.365023E-16	1.444011E-17
6.720000E+03	2.362538E-16	1.511814E-17
6.730000E+03	2.359968E-16	1.579319E-17
6.740000E+03	2.357204E-16	1.646352E-17
6.750000E+03	2.354255E-16	1.712822E-17
6.760000E+03	2.351133E-16	1.778646E-17
6.770000E+03	2.347848E-16	1.843751E-17
6.780000E+03	2.344411E-16	1.908071E-17
6.790000E+03	2.340832E-16	1.971545E-17
6.800000E+03	2.337001E-16	2.034015E-17
6.810000E+03	2.333168E-16	2.095639E-17
6.820000E+03	2.329224E-16	2.156270E-17
6.830000E+03	2.325177E-16	2.215867E-17
6.840000E+03	2.321036E-16	2.274395E-17
6.850000E+03	2.316809E-16	2.331820E-17
6.860000E+03	2.312504E-16	2.388113E-17
6.870000E+03	2.308130E-16	2.443247E-17
6.880000E+03	2.303693E-16	2.497196E-17
6.890000E+03	2.299201E-16	2.549940E-17
6.900000E+03	2.294539E-16	2.601323E-17
6.910000E+03	2.289954E-16	2.651595E-17
6.920000E+03	2.285330E-16	2.700608E-17
6.930000E+03	2.280674E-16	2.748346E-17
6.940000E+03	2.275989E-16	2.794797E-17
6.950000E+03	2.271280E-16	2.839948E-17
6.960000E+03	2.266550E-16	2.883789E-17
6.970000E+03	2.261803E-16	2.926311E-17
6.980000E+03	2.257042E-16	2.967503E-17
6.990000E+03	2.252268E-16	3.007359E-17
7.000000E+03	2.247485E-16	3.045871E-17
7.010000E+03	2.242695E-16	3.083032E-17
7.020000E+03	2.237898E-16	3.118837E-17
7.030000E+03	2.232978E-16	3.153113E-17
7.040000E+03	2.228173E-16	3.186187E-17
7.050000E+03	2.223364E-16	3.217890E-17
7.060000E+03	2.218553E-16	3.248217E-17
7.070000E+03	2.213739E-16	3.277165E-17
7.080000E+03	2.208924E-16	3.304730E-17
7.090000E+03	2.203990E-16	3.330734E-17
7.100000E+03	2.199171E-16	3.355526E-17
7.110000E+03	2.194350E-16	3.378929E-17
7.120000E+03	2.189411E-16	3.400760E-17
7.130000E+03	2.184587E-16	3.421378E-17
7.140000E+03	2.179760E-16	3.440604E-17
7.150000E+03	2.174815E-16	3.458252E-17
7.160000E+03	2.169985E-16	3.474691E-17
7.170000E+03	2.165036E-16	3.489551E-17
7.180000E+03	2.160202E-16	3.503206E-17
7.190000E+03	2.155251E-16	3.515283E-17
7.200000E+03	2.150300E-16	3.525973E-17
7.210000E+03	2.145463E-16	3.535466E-17
7.220000E+03	2.140512E-16	3.543389E-17
7.230000E+03	2.135564E-16	3.549934E-17
7.240000E+03	2.130618E-16	3.555105E-17
7.250000E+03	2.125677E-16	3.558909E-17
7.260000E+03	2.120742E-16	3.561350E-17
7.270000E+03	2.115815E-16	3.562435E-17
7.280000E+03	2.110785E-16	3.561979E-17
7.290000E+03	2.105881E-16	3.560374E-17
7.300000E+03	2.100878E-16	3.557242E-17
7.310000E+03	2.096007E-16	3.552976E-17
7.320000E+03	2.091043E-16	3.547202E-17
7.330000E+03	2.086217E-16	3.540311E-17
7.340000E+03	2.081304E-16	3.531931E-17
7.350000E+03	2.076422E-16	3.522262E-17
7.360000E+03	2.071574E-16	3.511315E-17
7.370000E+03	2.066652E-16	3.498910E-17
7.380000E+03	2.061884E-16	3.485438E-17
7.390000E+03	2.057162E-16	3.470718E-17
7.400000E+03	2.052377E-16	3.454572E-17
7.410000E+03	2.047646E-16	3.437201E-17
7.420000E+03	2.043085E-16	3.418801E-17
7.430000E+03	2.038474E-16	3.399008E-17
7.440000E+03	2.033817E-16	3.377834E-17
7.450000E+03	2.029341E-16	3.355659E-17
7.460000E+03	2.024938E-16	3.332306E-17
7.470000E+03	2.020502E-16	3.307602E-17
7.480000E+03	2.016257E-16	3.281919E-17
7.490000E+03	2.011985E-16	3.254901E-17
7.500000E+03	2.007801E-16	3.226738E-17
7.510000E+03	2.003596E-16	3.197258E-17
7.520000E+03	1.999595E-16	3.166821E-17
7.530000E+03	1.995579E-16	3.135080E-17
7.540000E+03	1.991770E-16	3.102387E-17
7.550000E+03	1.987951E-16	3.068398E-17
7.560000E+03	1.984232E-16	3.033291E-17
7.570000E+03	1.980506E-16	2.996898E-17
7.580000E+03	1.976992E-16	2.959555E-17
7.590000E+03	1.973472E-16	2.920930E-17
7.600000E+03	1.970055E-16	2.881189E-17
7.610000E+03	1.966741E-16	2.840329E-17
7.620000E+03	1.963530E-16	2.798348E-17
7.630000E+03	1.960420E-16	2.755242E-17
7.640000E+03	1.957300E-16	2.710855E-17
7.650000E+03	1.954278E-16	2.665337E-17
7.660000E+03	1.951351E-16	2.618686E-17
7.670000E+03	1.948517E-16	2.570894E-17
7.680000E+03	1.945663E-16	2.521814E-17
7.690000E+03	1.942896E-16	2.471588E-17
7.700000E+03	1.940211E-16	2.420209E-17
7.710000E+03	1.937604E-16	2.367673E-17
7.720000E+03	1.935072E-16	2.313973E-17
7.730000E+03	1.932499E-16	2.258976E-17
7.740000E+03	1.929990E-16	2.202812E-17
7.750000E+03	1.927541E-16	2.145478E-17
7.760000E+03	1.925145E-16	2.086971E-17
