#wls	flux	fluxerr
1.600000E+03	4.661066E-17	3.794013E-17
1.640000E+03	4.738564E-17	3.826967E-17
1.680000E+03	4.817091E-17	3.859042E-17
1.720000E+03	4.896577E-17	3.890126E-17
1.760000E+03	4.976945E-17	3.920098E-17
1.800000E+03	5.058111E-17	3.948839E-17
1.840000E+03	5.140858E-17	3.976899E-17
1.880000E+03	5.224238E-17	4.003481E-17
1.920000E+03	5.309039E-17	4.029137E-17
1.960000E+03	5.394282E-17	4.053062E-17
2.000000E+03	5.480762E-17	4.075806E-17
2.040000E+03	5.568385E-17	4.097240E-17
2.080000E+03	5.656123E-17	4.116561E-17
2.120000E+03	5.744780E-17	4.134317E-17
2.160000E+03	5.835192E-17	4.151058E-17
2.200000E+03	5.925356E-17	4.165311E-17
2.240000E+03	6.016087E-17	4.177630E-17
2.280000E+03	6.108231E-17	4.188569E-17
2.320000E+03	6.200701E-17	4.197343E-17
2.360000E+03	6.293365E-17	4.203852E-17
2.400000E+03	6.387082E-17	4.208655E-17
2.440000E+03	6.480740E-17	4.211004E-17
2.480000E+03	6.575211E-17	4.211470E-17
2.520000E+03	6.670385E-17	4.209976E-17
2.560000E+03	6.766157E-17	4.206455E-17
2.600000E+03	6.862426E-17	4.200857E-17
2.640000E+03	6.959102E-17	4.193142E-17
2.680000E+03	7.057134E-17	4.183900E-17
2.720000E+03	7.155438E-17	4.172501E-17
2.760000E+03	7.253970E-17	4.158961E-17
2.800000E+03	7.353739E-17	4.143893E-17
2.840000E+03	7.454754E-17	4.127323E-17
2.880000E+03	7.556015E-17	4.108730E-17
2.920000E+03	7.659659E-17	4.089312E-17
2.960000E+03	7.763718E-17	4.068031E-17
3.000000E+03	7.870407E-17	4.046079E-17
3.010000E+03	7.897997E-17	4.040744E-17
3.020000E+03	7.924405E-17	4.034677E-17
3.030000E+03	7.951709E-17	4.028943E-17
3.040000E+03	7.979912E-17	4.023535E-17
3.050000E+03	8.006944E-17	4.017411E-17
3.060000E+03	8.034884E-17	4.011618E-17
3.070000E+03	8.062698E-17	4.005636E-17
3.080000E+03	8.090392E-17	3.999469E-17
3.090000E+03	8.119006E-17	3.993632E-17
3.100000E+03	8.147509E-17	3.987614E-17
3.110000E+03	8.175906E-17	3.981419E-17
3.120000E+03	8.204203E-17	3.975051E-17
3.130000E+03	8.233440E-17	3.969013E-17
3.140000E+03	8.262589E-17	3.962806E-17
3.150000E+03	8.292689E-17	3.956928E-17
3.160000E+03	8.321678E-17	3.950393E-17
3.170000E+03	8.351631E-17	3.944189E-17
3.180000E+03	8.381521E-17	3.937828E-17
3.190000E+03	8.412388E-17	3.931798E-17
3.200000E+03	8.443205E-17	3.925613E-17
3.210000E+03	8.473981E-17	3.919279E-17
3.220000E+03	8.504722E-17	3.912799E-17
3.230000E+03	8.536469E-17	3.906652E-17
3.240000E+03	8.568198E-17	3.900362E-17
3.250000E+03	8.599917E-17	3.893935E-17
3.260000E+03	8.632666E-17	3.887839E-17
3.270000E+03	8.665422E-17	3.881608E-17
3.280000E+03	8.698194E-17	3.875248E-17
3.290000E+03	8.732022E-17	3.869219E-17
3.300000E+03	8.765885E-17	3.863062E-17
3.310000E+03	8.799792E-17	3.856783E-17
3.320000E+03	8.833754E-17	3.850384E-17
3.330000E+03	8.868810E-17	3.844317E-17
3.340000E+03	8.903941E-17	3.838133E-17
3.350000E+03	8.940187E-17	3.832279E-17
3.360000E+03	8.975499E-17	3.825871E-17
3.370000E+03	9.011948E-17	3.819795E-17
3.380000E+03	9.049544E-17	3.814046E-17
3.390000E+03	9.086241E-17	3.807757E-17
3.400000E+03	9.124108E-17	3.801797E-17
3.410000E+03	9.163157E-17	3.796162E-17
3.420000E+03	9.201343E-17	3.790000E-17
3.430000E+03	9.240735E-17	3.784163E-17
3.440000E+03	9.280316E-17	3.778229E-17
3.450000E+03	9.321129E-17	3.772617E-17
3.460000E+03	9.362157E-17	3.766908E-17
3.470000E+03	9.403414E-17	3.761106E-17
3.480000E+03	9.444913E-17	3.755211E-17
3.490000E+03	9.487696E-17	3.749634E-17
3.500000E+03	9.530747E-17	3.743965E-17
3.510000E+03	9.574082E-17	3.738206E-17
3.520000E+03	9.618742E-17	3.732758E-17
3.530000E+03	9.663714E-17	3.727219E-17
3.540000E+03	9.709011E-17	3.721591E-17
3.550000E+03	9.755677E-17	3.716267E-17
3.560000E+03	9.802698E-17	3.710852E-17
3.570000E+03	9.850090E-17	3.705346E-17
3.580000E+03	9.898896E-17	3.700136E-17
3.590000E+03	9.947073E-17	3.694450E-17
3.600000E+03	9.996695E-17	3.689056E-17
3.610000E+03	1.004778E-16	3.683949E-17
3.620000E+03	1.009828E-16	3.678368E-17
3.630000E+03	1.015028E-16	3.673069E-17
3.640000E+03	1.020379E-16	3.668045E-17
3.650000E+03	1.025676E-16	3.662550E-17
3.660000E+03	1.031128E-16	3.657323E-17
3.670000E+03	1.036632E-16	3.651993E-17
3.680000E+03	1.042191E-16	3.646559E-17
3.690000E+03	1.047910E-16	3.641380E-17
3.700000E+03	1.053687E-16	3.636089E-17
3.710000E+03	1.059524E-16	3.630685E-17
3.720000E+03	1.065423E-16	3.625165E-17
3.730000E+03	1.071488E-16	3.619880E-17
3.740000E+03	1.077618E-16	3.614471E-17
3.750000E+03	1.083816E-16	3.608934E-17
3.760000E+03	1.090186E-16	3.603613E-17
3.770000E+03	1.096522E-16	3.597812E-17
3.780000E+03	1.103036E-16	3.592215E-17
3.790000E+03	1.109623E-16	3.586473E-17
3.800000E+03	1.116391E-16	3.580919E-17
3.810000E+03	1.123133E-16	3.574873E-17
3.820000E+03	1.130059E-16	3.569002E-17
3.830000E+03	1.137067E-16	3.562964E-17
3.840000E+03	1.144264E-16	3.557083E-17
3.850000E+03	1.151442E-16	3.550693E-17
3.860000E+03	1.158812E-16	3.544444E-17
3.870000E+03	1.166273E-16	3.538001E-17
3.880000E+03	1.173825E-16	3.531357E-17
3.890000E+03	1.181471E-16	3.524505E-17
3.900000E+03	1.189319E-16	3.517755E-17
3.910000E+03	1.197158E-16	3.510464E-17
3.920000E+03	1.205204E-16	3.503254E-17
3.930000E+03	1.213352E-16	3.495801E-17
3.940000E+03	1.221710E-16	3.488404E-17
3.950000E+03	1.230067E-16	3.480435E-17
3.960000E+03	1.238532E-16	3.472195E-17
3.970000E+03	1.247215E-16	3.463975E-17
3.980000E+03	1.256009E-16	3.455458E-17
3.990000E+03	1.264918E-16	3.446634E-17
4.000000E+03	1.273943E-16	3.437491E-17
4.010000E+03	1.283085E-16	3.428017E-17
4.020000E+03	1.292347E-16	3.418200E-17
4.030000E+03	1.301841E-16	3.408313E-17
4.040000E+03	1.311348E-16	3.397766E-17
4.050000E+03	1.321091E-16	3.387118E-17
4.060000E+03	1.330851E-16	3.375785E-17
4.070000E+03	1.340850E-16	3.364316E-17
4.080000E+03	1.350981E-16	3.352412E-17
4.090000E+03	1.361243E-16	3.340056E-17
4.100000E+03	1.371640E-16	3.327232E-17
4.110000E+03	1.382173E-16	3.313921E-17
4.120000E+03	1.392842E-16	3.300104E-17
4.130000E+03	1.403650E-16	3.285764E-17
4.140000E+03	1.414597E-16	3.270880E-17
4.150000E+03	1.425684E-16	3.255433E-17
4.160000E+03	1.436913E-16	3.239400E-17
4.170000E+03	1.448400E-16	3.223018E-17
4.180000E+03	1.459915E-16	3.205748E-17
4.190000E+03	1.471574E-16	3.187827E-17
4.200000E+03	1.483377E-16	3.169232E-17
4.210000E+03	1.495325E-16	3.149938E-17
4.220000E+03	1.507417E-16	3.129920E-17
4.230000E+03	1.519655E-16	3.109154E-17
4.240000E+03	1.532037E-16	3.087614E-17
4.250000E+03	1.544563E-16	3.065273E-17
4.260000E+03	1.557232E-16	3.042104E-17
4.270000E+03	1.569925E-16	3.017851E-17
4.280000E+03	1.582879E-16	2.992948E-17
4.290000E+03	1.595973E-16	2.967135E-17
4.300000E+03	1.609084E-16	2.940160E-17
4.310000E+03	1.622332E-16	2.912224E-17
4.320000E+03	1.635836E-16	2.883511E-17
4.330000E+03	1.649350E-16	2.853560E-17
4.340000E+03	1.662992E-16	2.822558E-17
4.350000E+03	1.676637E-16	2.790271E-17
4.360000E+03	1.690528E-16	2.757085E-17
4.370000E+03	1.704538E-16	2.722760E-17
4.380000E+03	1.718537E-16	2.687072E-17
4.390000E+03	1.732647E-16	2.650195E-17
4.400000E+03	1.746862E-16	2.612101E-17
4.410000E+03	1.761177E-16	2.572762E-17
4.420000E+03	1.775586E-16	2.532151E-17
4.430000E+03	1.789957E-16	2.490063E-17
4.440000E+03	1.804410E-16	2.446660E-17
4.450000E+03	1.818939E-16	2.401918E-17
4.460000E+03	1.833536E-16	2.355814E-17
4.470000E+03	1.848065E-16	2.308165E-17
4.480000E+03	1.862778E-16	2.259281E-17
4.490000E+03	1.877405E-16	2.208825E-17
4.500000E+03	1.891937E-16	2.156794E-17
4.510000E+03	1.906629E-16	2.103483E-17
4.520000E+03	1.921207E-16	2.048586E-17
4.530000E+03	1.935793E-16	1.992250E-17
4.540000E+03	1.950244E-16	1.934343E-17
4.550000E+03	1.964818E-16	1.875138E-17
4.560000E+03	1.979235E-16	1.814386E-17
4.570000E+03	1.993619E-16	1.752236E-17
4.580000E+03	2.007823E-16	1.688599E-17
4.590000E+03	2.021970E-16	1.623632E-17
4.600000E+03	2.036050E-16	1.557382E-17
4.610000E+03	2.049913E-16	1.489806E-17
4.620000E+03	2.063823E-16	1.421184E-17
4.630000E+03	2.077351E-16	1.351326E-17
4.640000E+03	2.090903E-16	1.280638E-17
4.650000E+03	2.104186E-16	1.209100E-17
4.660000E+03	2.117328E-16	1.136997E-17
4.670000E+03	2.130176E-16	1.064512E-17
4.680000E+03	2.142858E-16	9.920554E-18
4.690000E+03	2.155220E-16	9.199968E-18
4.700000E+03	2.167534E-16	8.490353E-18
4.710000E+03	2.179502E-16	7.798228E-18
4.720000E+03	2.191114E-16	7.134106E-18
4.730000E+03	2.202500E-16	6.512542E-18
4.740000E+03	2.213650E-16	5.952185E-18
4.750000E+03	2.224409E-16	5.476579E-18
4.760000E+03	2.234911E-16	5.114341E-18
4.770000E+03	2.245003E-16	4.893558E-18
4.780000E+03	2.254822E-16	4.835331E-18
4.790000E+03	2.264359E-16	4.944502E-18
4.800000E+03	2.273465E-16	5.207184E-18
4.810000E+03	2.282280E-16	5.597291E-18
4.820000E+03	2.290654E-16	6.084085E-18
4.830000E+03	2.298730E-16	6.640058E-18
4.840000E+03	2.306505E-16	7.242517E-18
4.850000E+03	2.313833E-16	7.873509E-18
4.860000E+03	2.320859E-16	8.520333E-18
4.870000E+03	2.327436E-16	9.172586E-18
4.880000E+03	2.333712E-16	9.823346E-18
4.890000E+03	2.339540E-16	1.046629E-17
4.900000E+03	2.345069E-16	1.109758E-17
4.910000E+03	2.350155E-16	1.171303E-17
4.920000E+03	2.354946E-16	1.231049E-17
4.930000E+03	2.359446E-16	1.288772E-17
4.940000E+03	2.363510E-16	1.344201E-17
4.950000E+03	2.367289E-16	1.397259E-17
4.960000E+03	2.370641E-16	1.447728E-17
4.970000E+03	2.373569E-16	1.495490E-17
4.980000E+03	2.376371E-16	1.540637E-17
4.990000E+03	2.378759E-16	1.582904E-17
5.000000E+03	2.380738E-16	1.622219E-17
5.010000E+03	2.382459E-16	1.658625E-17
5.020000E+03	2.383781E-16	1.691974E-17
5.030000E+03	2.384855E-16	1.722331E-17
5.040000E+03	2.385687E-16	1.749667E-17
5.050000E+03	2.386137E-16	1.773856E-17
5.060000E+03	2.386356E-16	1.794987E-17
5.070000E+03	2.386206E-16	1.812944E-17
5.080000E+03	2.385835E-16	1.827832E-17
5.090000E+03	2.385106E-16	1.839546E-17
5.100000E+03	2.384170E-16	1.848203E-17
5.110000E+03	2.382888E-16	1.853707E-17
5.120000E+03	2.381409E-16	1.856187E-17
5.130000E+03	2.379597E-16	1.855557E-17
5.140000E+03	2.377601E-16	1.851957E-17
5.150000E+03	2.375426E-16	1.845420E-17
5.160000E+03	2.372936E-16	1.835876E-17
5.170000E+03	2.370279E-16	1.823476E-17
5.180000E+03	2.367319E-16	1.808162E-17
5.190000E+03	2.364204E-16	1.790094E-17
5.200000E+03	2.360799E-16	1.769224E-17
5.210000E+03	2.357249E-16	1.745723E-17
5.220000E+03	2.353422E-16	1.719556E-17
5.230000E+03	2.349461E-16	1.690901E-17
5.240000E+03	2.345374E-16	1.659837E-17
5.250000E+03	2.341026E-16	1.626355E-17
5.260000E+03	2.336424E-16	1.590552E-17
5.270000E+03	2.331849E-16	1.552721E-17
5.280000E+03	2.327032E-16	1.512786E-17
5.290000E+03	2.321978E-16	1.470875E-17
5.300000E+03	2.316830E-16	1.427211E-17
5.310000E+03	2.311458E-16	1.381861E-17
5.320000E+03	2.306138E-16	1.335152E-17
5.330000E+03	2.300469E-16	1.287031E-17
5.340000E+03	2.294729E-16	1.237866E-17
5.350000E+03	2.288921E-16	1.187890E-17
5.360000E+03	2.283052E-16	1.137371E-17
5.370000E+03	2.276993E-16	1.086552E-17
5.380000E+03	2.270750E-16	1.035801E-17
5.390000E+03	2.264595E-16	9.856576E-18
5.400000E+03	2.258136E-16	9.364393E-18
5.410000E+03	2.251775E-16	8.888896E-18
5.420000E+03	2.245255E-16	8.435688E-18
5.430000E+03	2.238711E-16	8.012985E-18
5.440000E+03	2.232021E-16	7.628998E-18
5.450000E+03	2.225320E-16	7.293631E-18
5.460000E+03	2.218485E-16	7.016177E-18
5.470000E+03	2.211653E-16	6.806232E-18
5.480000E+03	2.204828E-16	6.671272E-18
5.490000E+03	2.197890E-16	6.615481E-18
5.500000E+03	2.190974E-16	6.639932E-18
5.510000E+03	2.184087E-16	6.741189E-18
5.520000E+03	2.177110E-16	6.911889E-18
5.530000E+03	2.170177E-16	7.143081E-18
5.540000E+03	2.163171E-16	7.423940E-18
5.550000E+03	2.156348E-16	7.744921E-18
5.560000E+03	2.149345E-16	8.095007E-18
5.570000E+03	2.142541E-16	8.466950E-18
5.580000E+03	2.135697E-16	8.852397E-18
5.590000E+03	2.128943E-16	9.245575E-18
5.600000E+03	2.122166E-16	9.640735E-18
5.610000E+03	2.115495E-16	1.003409E-17
5.620000E+03	2.108937E-16	1.042210E-17
5.630000E+03	2.102380E-16	1.080125E-17
5.640000E+03	2.095951E-16	1.116971E-17
5.650000E+03	2.089657E-16	1.152554E-17
5.660000E+03	2.083505E-16	1.186712E-17
5.670000E+03	2.077382E-16	1.219243E-17
5.680000E+03	2.071415E-16	1.250106E-17
5.690000E+03	2.065490E-16	1.279137E-17
5.700000E+03	2.059733E-16	1.306337E-17
5.710000E+03	2.054150E-16	1.331647E-17
5.720000E+03	2.048746E-16	1.355020E-17
5.730000E+03	2.043409E-16	1.376342E-17
5.740000E+03	2.038262E-16	1.395660E-17
5.750000E+03	2.033310E-16	1.412955E-17
5.760000E+03	2.028442E-16	1.428128E-17
5.770000E+03	2.023895E-16	1.441335E-17
5.780000E+03	2.019324E-16	1.452321E-17
5.790000E+03	2.015083E-16	1.461335E-17
5.800000E+03	2.010944E-16	1.468211E-17
5.810000E+03	2.007142E-16	1.473124E-17
5.820000E+03	2.003333E-16	1.475828E-17
5.830000E+03	1.999868E-16	1.476587E-17
5.840000E+03	1.996520E-16	1.475245E-17
5.850000E+03	1.993407E-16	1.471902E-17
5.860000E+03	1.990530E-16	1.466573E-17
5.870000E+03	1.987894E-16	1.459277E-17
5.880000E+03	1.985386E-16	1.449950E-17
5.890000E+03	1.983123E-16	1.438697E-17
5.900000E+03	1.981106E-16	1.425541E-17
5.910000E+03	1.979338E-16	1.410505E-17
5.920000E+03	1.977707E-16	1.393533E-17
5.930000E+03	1.976442E-16	1.374814E-17
5.940000E+03	1.975315E-16	1.354215E-17
5.950000E+03	1.974330E-16	1.331770E-17
5.960000E+03	1.973713E-16	1.307664E-17
5.970000E+03	1.973238E-16	1.281778E-17
5.980000E+03	1.973019E-16	1.254224E-17
5.990000E+03	1.973058E-16	1.225039E-17
6.000000E+03	1.973352E-16	1.194262E-17
6.010000E+03	1.973904E-16	1.161937E-17
6.020000E+03	1.974597E-16	1.128044E-17
6.030000E+03	1.975546E-16	1.092704E-17
6.040000E+03	1.976750E-16	1.055973E-17
6.050000E+03	1.978207E-16	1.017912E-17
6.060000E+03	1.979917E-16	9.785916E-18
6.070000E+03	1.981762E-16	9.380350E-18
6.080000E+03	1.983857E-16	8.963912E-18
6.090000E+03	1.986312E-16	8.538138E-18
6.100000E+03	1.988781E-16	8.102766E-18
6.110000E+03	1.991607E-16	7.660729E-18
6.120000E+03	1.994670E-16	7.213283E-18
6.130000E+03	1.997853E-16	6.762181E-18
6.140000E+03	2.001382E-16	6.310901E-18
6.150000E+03	2.005021E-16	5.862050E-18
6.160000E+03	2.008882E-16	5.420324E-18
6.170000E+03	2.012960E-16	4.991282E-18
6.180000E+03	2.017249E-16	4.582134E-18
6.190000E+03	2.021626E-16	4.201935E-18
6.200000E+03	2.026319E-16	3.862899E-18
6.210000E+03	2.031087E-16	3.578521E-18
6.220000E+03	2.036038E-16	3.364025E-18
6.230000E+03	2.041283E-16	3.232673E-18
6.240000E+03	2.046577E-16	3.191043E-18
6.250000E+03	2.051906E-16	3.236609E-18
6.260000E+03	2.057500E-16	3.357818E-18
6.270000E+03	2.063227E-16	3.536776E-18
6.280000E+03	2.068953E-16	3.754289E-18
6.290000E+03	2.074906E-16	3.993634E-18
6.300000E+03	2.080830E-16	4.240255E-18
6.310000E+03	2.086831E-16	4.483337E-18
6.320000E+03	2.093016E-16	4.714723E-18
6.330000E+03	2.099127E-16	4.927491E-18
6.340000E+03	2.105269E-16	5.117095E-18
6.350000E+03	2.111302E-16	5.279630E-18
6.360000E+03	2.117459E-16	5.413066E-18
6.370000E+03	2.123598E-16	5.515245E-18
6.380000E+03	2.129579E-16	5.584661E-18
6.390000E+03	2.135635E-16	5.621409E-18
6.400000E+03	2.141499E-16	5.624893E-18
6.410000E+03	2.147406E-16	5.596479E-18
6.420000E+03	2.153088E-16	5.536932E-18
6.430000E+03	2.158655E-16	5.448840E-18
6.440000E+03	2.164091E-16	5.335461E-18
6.450000E+03	2.169508E-16	5.201575E-18
6.460000E+03	2.174637E-16	5.052525E-18
6.470000E+03	2.179591E-16	4.896393E-18
6.480000E+03	2.184225E-16	4.742764E-18
6.490000E+03	2.188786E-16	4.604325E-18
6.500000E+03	2.193133E-16	4.494973E-18
6.510000E+03	2.197253E-16	4.430125E-18
6.520000E+03	2.201137E-16	4.424747E-18
6.530000E+03	2.204646E-16	4.490725E-18
6.540000E+03	2.208033E-16	4.635707E-18
6.550000E+03	2.211031E-16	4.860231E-18
6.560000E+03	2.213900E-16	5.160597E-18
6.570000E+03	2.216372E-16	5.528410E-18
6.580000E+03	2.218711E-16	5.954967E-18
6.590000E+03	2.220652E-16	6.430186E-18
6.600000E+03	2.222327E-16	6.945782E-18
6.610000E+03	2.223871E-16	7.494717E-18
6.620000E+03	2.225020E-16	8.069809E-18
6.630000E+03	2.225910E-16	8.666197E-18
6.640000E+03	2.226678E-16	9.280054E-18
6.650000E+03	2.227062E-16	9.906657E-18
6.660000E+03	2.227199E-16	1.054346E-17
6.670000E+03	2.227094E-16	1.118787E-17
6.680000E+03	2.226753E-16	1.183768E-17
6.690000E+03	2.226182E-16	1.249097E-17
6.700000E+03	2.225387E-16	1.314609E-17
6.710000E+03	2.224376E-16	1.380157E-17
6.720000E+03	2.223153E-16	1.445611E-17
6.730000E+03	2.221728E-16	1.510856E-17
6.740000E+03	2.220106E-16	1.575789E-17
6.750000E+03	2.218296E-16	1.640314E-17
6.760000E+03	2.216305E-16	1.704347E-17
6.770000E+03	2.214139E-16	1.767810E-17
6.780000E+03	2.211807E-16	1.830633E-17
6.790000E+03	2.209317E-16	1.892750E-17
6.800000E+03	2.206542E-16	1.953983E-17
6.810000E+03	2.203756E-16	2.014511E-17
6.820000E+03	2.200833E-16	2.074168E-17
6.830000E+03	2.197781E-16	2.132907E-17
6.840000E+03	2.194474E-16	2.190554E-17
6.850000E+03	2.191184E-16	2.247331E-17
6.860000E+03	2.187785E-16	2.303071E-17
6.870000E+03	2.184284E-16	2.357742E-17
6.880000E+03	2.180554E-16	2.411167E-17
6.890000E+03	2.176867E-16	2.463606E-17
6.900000E+03	2.173096E-16	2.514890E-17
6.910000E+03	2.169114E-16	2.564839E-17
6.920000E+03	2.165192E-16	2.613742E-17
6.930000E+03	2.161070E-16	2.661261E-17
6.940000E+03	2.157017E-16	2.707700E-17
6.950000E+03	2.152774E-16	2.752716E-17
6.960000E+03	2.148610E-16	2.796626E-17
6.970000E+03	2.144264E-16	2.839078E-17
6.980000E+03	2.140005E-16	2.880403E-17
6.990000E+03	2.135572E-16	2.920241E-17
7.000000E+03	2.131233E-16	2.958935E-17
7.010000E+03	2.126728E-16	2.996118E-17
7.020000E+03	2.122192E-16	3.031959E-17
7.030000E+03	2.117758E-16	3.066640E-17
7.040000E+03	2.113168E-16	3.099780E-17
7.050000E+03	2.108555E-16	3.131559E-17
7.060000E+03	2.104050E-16	3.162168E-17
7.070000E+03	2.099398E-16	3.191215E-17
7.080000E+03	2.094730E-16	3.218890E-17
7.090000E+03	2.090048E-16	3.245190E-17
7.100000E+03	2.085355E-16	3.270112E-17
7.110000E+03	2.080651E-16	3.293655E-17
7.120000E+03	2.075939E-16	3.315819E-17
7.130000E+03	2.071221E-16	3.336603E-17
7.140000E+03	2.066498E-16	3.356007E-17
7.150000E+03	2.061772E-16	3.374032E-17
7.160000E+03	2.056917E-16	3.390469E-17
7.170000E+03	2.052191E-16	3.405739E-17
7.180000E+03	2.047466E-16	3.419635E-17
7.190000E+03	2.042745E-16	3.432160E-17
7.200000E+03	2.037903E-16	3.443102E-17
7.210000E+03	2.033194E-16	3.452893E-17
7.220000E+03	2.028368E-16	3.461107E-17
7.230000E+03	2.023553E-16	3.467964E-17
7.240000E+03	2.018877E-16	3.473684E-17
7.250000E+03	2.014088E-16	3.477841E-17
7.260000E+03	2.009316E-16	3.480655E-17
7.270000E+03	2.004563E-16	3.482134E-17
7.280000E+03	1.999830E-16	3.482282E-17
7.290000E+03	1.995119E-16	3.481108E-17
7.300000E+03	1.990433E-16	3.478617E-17
7.310000E+03	1.985773E-16	3.474817E-17
7.320000E+03	1.981143E-16	3.469714E-17
7.330000E+03	1.976418E-16	3.463099E-17
7.340000E+03	1.971852E-16	3.455415E-17
7.350000E+03	1.967197E-16	3.446233E-17
7.360000E+03	1.962704E-16	3.435998E-17
7.370000E+03	1.958127E-16	3.424282E-17
7.380000E+03	1.953593E-16	3.411310E-17
7.390000E+03	1.949104E-16	3.397091E-17
7.400000E+03	1.944662E-16	3.381633E-17
7.410000E+03	1.940269E-16	3.364943E-17
7.420000E+03	1.935805E-16	3.346815E-17
7.430000E+03	1.931517E-16	3.327684E-17
7.440000E+03	1.927286E-16	3.307342E-17
7.450000E+03	1.922989E-16	3.285588E-17
7.460000E+03	1.918752E-16	3.262640E-17
7.470000E+03	1.914576E-16	3.238503E-17
7.480000E+03	1.910463E-16	3.213185E-17
7.490000E+03	1.906415E-16	3.186690E-17
7.500000E+03	1.902433E-16	3.159024E-17
7.510000E+03	1.898518E-16	3.130192E-17
7.520000E+03	1.894549E-16	3.099998E-17
7.530000E+03	1.890771E-16	3.068847E-17
7.540000E+03	1.886941E-16	3.036346E-17
7.550000E+03	1.883181E-16	3.002697E-17
7.560000E+03	1.879492E-16	2.967903E-17
7.570000E+03	1.875874E-16	2.931965E-17
7.580000E+03	1.872326E-16	2.894887E-17
7.590000E+03	1.868727E-16	2.856484E-17
7.600000E+03	1.865318E-16	2.817130E-17
7.610000E+03	1.861858E-16	2.776457E-17
7.620000E+03	1.858465E-16	2.734651E-17
7.630000E+03	1.855139E-16	2.691713E-17
7.640000E+03	1.851878E-16	2.647642E-17
7.650000E+03	1.848559E-16	2.602269E-17
7.660000E+03	1.845423E-16	2.555934E-17
7.670000E+03	1.842225E-16	2.508302E-17
7.680000E+03	1.839084E-16	2.459542E-17
7.690000E+03	1.835997E-16	2.409653E-17
7.700000E+03	1.832961E-16	2.358636E-17
7.710000E+03	1.829974E-16	2.306491E-17
7.720000E+03	1.826912E-16	2.253071E-17
7.730000E+03	1.824012E-16	2.198676E-17
7.740000E+03	1.821030E-16	2.143016E-17
7.750000E+03	1.818084E-16	2.086242E-17
7.760000E+03	1.815168E-16	2.028357E-17
