#wls	flux	fluxerr
1.600000E+03	3.002365E-17	2.552616E-17
1.640000E+03	3.052828E-17	2.579822E-17
1.680000E+03	3.103970E-17	2.606712E-17
1.720000E+03	3.155778E-17	2.633245E-17
1.760000E+03	3.208798E-17	2.659841E-17
1.800000E+03	3.263043E-17	2.686467E-17
1.840000E+03	3.317949E-17	2.712623E-17
1.880000E+03	3.374086E-17	2.738738E-17
1.920000E+03	3.430875E-17	2.764303E-17
1.960000E+03	3.488904E-17	2.789752E-17
2.000000E+03	3.548186E-17	2.815053E-17
2.040000E+03	3.608736E-17	2.840173E-17
2.080000E+03	3.669945E-17	2.864589E-17
2.120000E+03	3.731805E-17	2.888261E-17
2.160000E+03	3.795595E-17	2.912135E-17
2.200000E+03	3.860060E-17	2.935198E-17
2.240000E+03	3.925860E-17	2.957910E-17
2.280000E+03	3.993022E-17	2.980242E-17
2.320000E+03	4.061579E-17	3.002169E-17
2.360000E+03	4.130881E-17	3.023161E-17
2.400000E+03	4.201638E-17	3.043698E-17
2.440000E+03	4.273898E-17	3.063757E-17
2.480000E+03	4.347715E-17	3.083321E-17
2.520000E+03	4.423150E-17	3.102376E-17
2.560000E+03	4.500270E-17	3.120907E-17
2.600000E+03	4.578412E-17	3.138396E-17
2.640000E+03	4.659137E-17	3.155853E-17
2.680000E+03	4.741047E-17	3.172254E-17
2.720000E+03	4.825766E-17	3.188617E-17
2.760000E+03	4.911879E-17	3.203921E-17
2.800000E+03	5.001073E-17	3.219189E-17
2.840000E+03	5.091921E-17	3.233403E-17
2.880000E+03	5.185366E-17	3.247078E-17
2.920000E+03	5.282406E-17	3.260727E-17
2.960000E+03	5.381601E-17	3.273336E-17
3.000000E+03	5.483969E-17	3.285418E-17
3.010000E+03	5.509739E-17	3.288151E-17
3.020000E+03	5.536521E-17	3.291325E-17
3.030000E+03	5.563472E-17	3.294434E-17
3.040000E+03	5.589739E-17	3.296973E-17
3.050000E+03	5.617037E-17	3.299953E-17
3.060000E+03	5.644514E-17	3.302867E-17
3.070000E+03	5.671310E-17	3.305213E-17
3.080000E+03	5.699155E-17	3.307998E-17
3.090000E+03	5.727190E-17	3.310717E-17
3.100000E+03	5.755420E-17	3.313371E-17
3.110000E+03	5.783848E-17	3.315960E-17
3.120000E+03	5.812478E-17	3.318483E-17
3.130000E+03	5.842196E-17	3.321442E-17
3.140000E+03	5.871245E-17	3.323833E-17
3.150000E+03	5.900507E-17	3.326158E-17
3.160000E+03	5.929988E-17	3.328416E-17
3.170000E+03	5.960586E-17	3.331107E-17
3.180000E+03	5.990519E-17	3.333230E-17
3.190000E+03	6.021584E-17	3.335784E-17
3.200000E+03	6.051986E-17	3.337771E-17
3.210000E+03	6.083535E-17	3.340188E-17
3.220000E+03	6.115335E-17	3.342534E-17
3.230000E+03	6.146476E-17	3.344312E-17
3.240000E+03	6.178787E-17	3.346517E-17
3.250000E+03	6.211364E-17	3.348650E-17
3.260000E+03	6.244209E-17	3.350710E-17
3.270000E+03	6.277329E-17	3.352696E-17
3.280000E+03	6.310728E-17	3.354608E-17
3.290000E+03	6.344410E-17	3.356445E-17
3.300000E+03	6.378382E-17	3.358205E-17
3.310000E+03	6.412648E-17	3.359888E-17
3.320000E+03	6.448158E-17	3.361985E-17
3.330000E+03	6.483031E-17	3.363509E-17
3.340000E+03	6.518214E-17	3.364951E-17
3.350000E+03	6.554667E-17	3.366803E-17
3.360000E+03	6.590488E-17	3.368080E-17
3.370000E+03	6.626634E-17	3.369271E-17
3.380000E+03	6.664078E-17	3.370864E-17
3.390000E+03	6.701866E-17	3.372368E-17
3.400000E+03	6.739028E-17	3.373293E-17
3.410000E+03	6.777516E-17	3.374612E-17
3.420000E+03	6.816364E-17	3.375837E-17
3.430000E+03	6.854592E-17	3.376478E-17
3.440000E+03	6.894173E-17	3.377506E-17
3.450000E+03	6.934132E-17	3.378433E-17
3.460000E+03	6.974474E-17	3.379255E-17
3.470000E+03	7.015204E-17	3.379971E-17
3.480000E+03	7.056329E-17	3.380578E-17
3.490000E+03	7.097853E-17	3.381073E-17
3.500000E+03	7.139783E-17	3.381454E-17
3.510000E+03	7.182124E-17	3.381717E-17
3.520000E+03	7.224883E-17	3.381859E-17
3.530000E+03	7.269092E-17	3.382356E-17
3.540000E+03	7.312706E-17	3.382247E-17
3.550000E+03	7.356754E-17	3.382007E-17
3.560000E+03	7.401242E-17	3.381633E-17
3.570000E+03	7.447221E-17	3.381596E-17
3.580000E+03	7.492609E-17	3.380942E-17
3.590000E+03	7.539510E-17	3.380615E-17
3.600000E+03	7.585821E-17	3.379664E-17
3.610000E+03	7.633665E-17	3.379031E-17
3.620000E+03	7.680922E-17	3.377767E-17
3.630000E+03	7.729731E-17	3.376809E-17
3.640000E+03	7.777954E-17	3.375212E-17
3.650000E+03	7.827751E-17	3.373911E-17
3.660000E+03	7.878051E-17	3.372429E-17
3.670000E+03	7.927765E-17	3.370297E-17
3.680000E+03	7.979083E-17	3.368441E-17
3.690000E+03	8.030920E-17	3.366388E-17
3.700000E+03	8.083280E-17	3.364133E-17
3.710000E+03	8.136169E-17	3.361671E-17
3.720000E+03	8.188470E-17	3.358534E-17
3.730000E+03	8.242424E-17	3.355637E-17
3.740000E+03	8.296920E-17	3.352513E-17
3.750000E+03	8.351962E-17	3.349156E-17
3.760000E+03	8.407553E-17	3.345558E-17
3.770000E+03	8.463699E-17	3.341711E-17
3.780000E+03	8.520401E-17	3.337610E-17
3.790000E+03	8.577665E-17	3.333247E-17
3.800000E+03	8.635492E-17	3.328613E-17
3.810000E+03	8.693887E-17	3.323701E-17
3.820000E+03	8.752851E-17	3.318503E-17
3.830000E+03	8.812388E-17	3.313010E-17
3.840000E+03	8.872499E-17	3.307215E-17
3.850000E+03	8.933187E-17	3.301108E-17
3.860000E+03	8.994453E-17	3.294682E-17
3.870000E+03	9.056299E-17	3.287926E-17
3.880000E+03	9.119940E-17	3.281268E-17
3.890000E+03	9.182955E-17	3.273825E-17
3.900000E+03	9.246552E-17	3.266024E-17
3.910000E+03	9.310732E-17	3.257856E-17
3.920000E+03	9.375494E-17	3.249311E-17
3.930000E+03	9.440837E-17	3.240378E-17
3.940000E+03	9.506762E-17	3.231049E-17
3.950000E+03	9.574523E-17	3.221735E-17
3.960000E+03	9.641611E-17	3.211577E-17
3.970000E+03	9.709274E-17	3.200990E-17
3.980000E+03	9.777509E-17	3.189962E-17
3.990000E+03	9.846314E-17	3.178484E-17
4.000000E+03	9.915684E-17	3.166542E-17
4.010000E+03	9.986915E-17	3.154537E-17
4.020000E+03	1.005741E-16	3.141634E-17
4.030000E+03	1.012846E-16	3.128234E-17
4.040000E+03	1.020005E-16	3.114326E-17
4.050000E+03	1.027219E-16	3.099896E-17
4.060000E+03	1.034485E-16	3.084934E-17
4.070000E+03	1.041804E-16	3.069428E-17
4.080000E+03	1.049175E-16	3.053364E-17
4.090000E+03	1.056597E-16	3.036733E-17
4.100000E+03	1.064068E-16	3.019520E-17
4.110000E+03	1.071589E-16	3.001714E-17
4.120000E+03	1.079157E-16	2.983303E-17
4.130000E+03	1.086772E-16	2.964275E-17
4.140000E+03	1.094432E-16	2.944617E-17
4.150000E+03	1.102137E-16	2.924317E-17
4.160000E+03	1.109884E-16	2.903363E-17
4.170000E+03	1.117673E-16	2.881744E-17
4.180000E+03	1.125502E-16	2.859447E-17
4.190000E+03	1.133369E-16	2.836461E-17
4.200000E+03	1.141272E-16	2.812774E-17
4.210000E+03	1.149211E-16	2.788375E-17
4.220000E+03	1.157037E-16	2.762905E-17
4.230000E+03	1.165039E-16	2.737052E-17
4.240000E+03	1.173070E-16	2.710453E-17
4.250000E+03	1.181128E-16	2.683098E-17
4.260000E+03	1.189063E-16	2.654647E-17
4.270000E+03	1.197168E-16	2.625755E-17
4.280000E+03	1.205144E-16	2.595756E-17
4.290000E+03	1.213286E-16	2.565290E-17
4.300000E+03	1.221293E-16	2.533707E-17
4.310000E+03	1.229464E-16	2.501633E-17
4.320000E+03	1.237491E-16	2.468436E-17
4.330000E+03	1.245679E-16	2.434724E-17
4.340000E+03	1.253716E-16	2.399885E-17
4.350000E+03	1.261754E-16	2.364220E-17
4.360000E+03	1.269789E-16	2.327723E-17
4.370000E+03	1.277976E-16	2.290673E-17
4.380000E+03	1.285997E-16	2.252497E-17
4.390000E+03	1.294006E-16	2.213481E-17
4.400000E+03	1.302000E-16	2.173624E-17
4.410000E+03	1.309976E-16	2.132925E-17
4.420000E+03	1.317929E-16	2.091385E-17
4.430000E+03	1.325856E-16	2.049007E-17
4.440000E+03	1.333755E-16	2.005793E-17
4.450000E+03	1.341458E-16	1.961512E-17
4.460000E+03	1.349286E-16	1.916651E-17
4.470000E+03	1.357075E-16	1.870974E-17
4.480000E+03	1.364655E-16	1.824272E-17
4.490000E+03	1.372351E-16	1.777003E-17
4.500000E+03	1.379996E-16	1.728954E-17
4.510000E+03	1.387418E-16	1.679941E-17
4.520000E+03	1.394779E-16	1.630197E-17
4.530000E+03	1.402245E-16	1.579935E-17
4.540000E+03	1.409474E-16	1.528796E-17
4.550000E+03	1.416630E-16	1.477005E-17
4.560000E+03	1.423710E-16	1.424598E-17
4.570000E+03	1.430710E-16	1.371616E-17
4.580000E+03	1.437625E-16	1.318104E-17
4.590000E+03	1.444451E-16	1.264118E-17
4.600000E+03	1.451185E-16	1.209721E-17
4.610000E+03	1.457823E-16	1.154988E-17
4.620000E+03	1.464360E-16	1.100008E-17
4.630000E+03	1.470620E-16	1.044761E-17
4.640000E+03	1.476945E-16	9.896298E-18
4.650000E+03	1.482982E-16	9.345256E-18
4.660000E+03	1.489080E-16	8.798639E-18
4.670000E+03	1.494882E-16	8.256619E-18
4.680000E+03	1.500560E-16	7.723186E-18
4.690000E+03	1.506289E-16	7.202813E-18
4.700000E+03	1.511710E-16	6.698328E-18
4.710000E+03	1.516998E-16	6.216452E-18
4.720000E+03	1.522149E-16	5.764522E-18
4.730000E+03	1.527160E-16	5.351677E-18
4.740000E+03	1.532029E-16	4.988970E-18
4.750000E+03	1.536573E-16	4.688503E-18
4.760000E+03	1.541148E-16	4.464563E-18
4.770000E+03	1.545572E-16	4.328152E-18
4.780000E+03	1.549664E-16	4.286002E-18
4.790000E+03	1.553781E-16	4.339670E-18
4.800000E+03	1.557561E-16	4.481557E-18
4.810000E+03	1.561183E-16	4.700149E-18
4.820000E+03	1.564646E-16	4.980877E-18
4.830000E+03	1.567947E-16	5.309169E-18
4.840000E+03	1.571088E-16	5.671985E-18
4.850000E+03	1.574067E-16	6.058396E-18
4.860000E+03	1.576883E-16	6.459570E-18
4.870000E+03	1.579536E-16	6.868501E-18
4.880000E+03	1.582026E-16	7.279658E-18
4.890000E+03	1.584171E-16	7.687792E-18
4.900000E+03	1.586335E-16	8.091158E-18
4.910000E+03	1.588155E-16	8.485171E-18
4.920000E+03	1.589995E-16	8.869498E-18
4.930000E+03	1.591491E-16	9.240331E-18
4.940000E+03	1.592827E-16	9.597156E-18
4.950000E+03	1.594004E-16	9.938746E-18
4.960000E+03	1.595022E-16	1.026409E-17
4.970000E+03	1.595884E-16	1.057233E-17
4.980000E+03	1.596590E-16	1.086278E-17
4.990000E+03	1.596960E-16	1.113359E-17
5.000000E+03	1.597359E-16	1.138678E-17
5.010000E+03	1.597609E-16	1.162072E-17
5.020000E+03	1.597528E-16	1.183375E-17
5.030000E+03	1.597300E-16	1.202694E-17
5.040000E+03	1.597111E-16	1.220147E-17
5.050000E+03	1.596598E-16	1.235448E-17
5.060000E+03	1.595945E-16	1.248726E-17
5.070000E+03	1.595156E-16	1.259978E-17
5.080000E+03	1.594233E-16	1.269205E-17
5.090000E+03	1.593178E-16	1.276414E-17
5.100000E+03	1.591995E-16	1.281614E-17
5.110000E+03	1.590506E-16	1.284673E-17
5.120000E+03	1.589074E-16	1.285899E-17
5.130000E+03	1.587343E-16	1.285023E-17
5.140000E+03	1.585674E-16	1.282357E-17
5.150000E+03	1.583714E-16	1.277642E-17
5.160000E+03	1.581643E-16	1.271053E-17
5.170000E+03	1.579467E-16	1.262625E-17
5.180000E+03	1.577187E-16	1.252396E-17
5.190000E+03	1.574807E-16	1.240408E-17
5.200000E+03	1.572331E-16	1.226707E-17
5.210000E+03	1.569762E-16	1.211341E-17
5.220000E+03	1.567104E-16	1.194364E-17
5.230000E+03	1.564185E-16	1.175701E-17
5.240000E+03	1.561359E-16	1.155681E-17
5.250000E+03	1.558281E-16	1.134109E-17
5.260000E+03	1.555128E-16	1.111190E-17
5.270000E+03	1.552079E-16	1.087124E-17
5.280000E+03	1.548789E-16	1.061751E-17
5.290000E+03	1.545437E-16	1.035289E-17
5.300000E+03	1.542025E-16	1.007839E-17
5.310000E+03	1.538558E-16	9.795136E-18
5.320000E+03	1.535039E-16	9.504351E-18
5.330000E+03	1.531302E-16	9.206374E-18
5.340000E+03	1.527692E-16	8.904802E-18
5.350000E+03	1.523872E-16	8.599308E-18
5.360000E+03	1.520186E-16	8.293729E-18
5.370000E+03	1.516299E-16	7.988310E-18
5.380000E+03	1.512551E-16	7.687247E-18
5.390000E+03	1.508611E-16	7.391481E-18
5.400000E+03	1.504651E-16	7.104904E-18
5.410000E+03	1.500674E-16	6.830863E-18
5.420000E+03	1.496684E-16	6.573039E-18
5.430000E+03	1.492685E-16	6.335421E-18
5.440000E+03	1.488681E-16	6.122213E-18
5.450000E+03	1.484511E-16	5.937032E-18
5.460000E+03	1.480507E-16	5.785321E-18
5.470000E+03	1.476346E-16	5.669416E-18
5.480000E+03	1.472358E-16	5.593386E-18
5.490000E+03	1.468220E-16	5.557590E-18
5.500000E+03	1.464262E-16	5.563409E-18
5.510000E+03	1.460163E-16	5.608240E-18
5.520000E+03	1.456088E-16	5.689966E-18
5.530000E+03	1.452042E-16	5.804842E-18
5.540000E+03	1.448027E-16	5.948503E-18
5.550000E+03	1.444047E-16	6.116332E-18
5.560000E+03	1.440106E-16	6.303746E-18
5.570000E+03	1.436049E-16	6.505684E-18
5.580000E+03	1.432196E-16	6.719566E-18
5.590000E+03	1.428392E-16	6.941117E-18
5.600000E+03	1.424482E-16	7.166390E-18
5.610000E+03	1.420786E-16	7.394185E-18
5.620000E+03	1.416992E-16	7.620520E-18
5.630000E+03	1.413260E-16	7.844139E-18
5.640000E+03	1.409749E-16	8.064176E-18
5.650000E+03	1.406151E-16	8.277387E-18
5.660000E+03	1.402625E-16	8.483359E-18
5.670000E+03	1.399173E-16	8.681010E-18
5.680000E+03	1.395800E-16	8.869418E-18
5.690000E+03	1.392506E-16	9.047802E-18
5.700000E+03	1.389143E-16	9.214489E-18
5.710000E+03	1.386019E-16	9.370930E-18
5.720000E+03	1.382984E-16	9.515664E-18
5.730000E+03	1.379889E-16	9.647240E-18
5.740000E+03	1.377040E-16	9.767443E-18
5.750000E+03	1.374136E-16	9.873880E-18
5.760000E+03	1.371483E-16	9.968496E-18
5.770000E+03	1.368782E-16	1.004895E-17
5.780000E+03	1.366184E-16	1.011620E-17
5.790000E+03	1.363694E-16	1.017016E-17
5.800000E+03	1.361313E-16	1.021078E-17
5.810000E+03	1.359044E-16	1.023803E-17
5.820000E+03	1.356888E-16	1.025191E-17
5.830000E+03	1.354848E-16	1.025244E-17
5.840000E+03	1.352926E-16	1.023966E-17
5.850000E+03	1.351124E-16	1.021364E-17
5.860000E+03	1.349444E-16	1.017445E-17
5.870000E+03	1.347740E-16	1.012109E-17
5.880000E+03	1.346310E-16	1.005590E-17
5.890000E+03	1.345007E-16	9.977893E-18
5.900000E+03	1.343686E-16	9.886125E-18
5.910000E+03	1.342496E-16	9.781864E-18
5.920000E+03	1.341587E-16	9.666349E-18
5.930000E+03	1.340664E-16	9.537639E-18
5.940000E+03	1.339878E-16	9.397017E-18
5.950000E+03	1.339376E-16	9.245719E-18
5.960000E+03	1.338866E-16	9.081944E-18
5.970000E+03	1.338496E-16	8.906981E-18
5.980000E+03	1.338267E-16	8.721113E-18
5.990000E+03	1.338182E-16	8.524643E-18
6.000000E+03	1.338240E-16	8.317898E-18
6.010000E+03	1.338443E-16	8.101238E-18
6.020000E+03	1.338646E-16	7.874189E-18
6.030000E+03	1.339142E-16	7.638932E-18
6.040000E+03	1.339785E-16	7.395054E-18
6.050000E+03	1.340578E-16	7.143081E-18
6.060000E+03	1.341373E-16	6.882851E-18
6.070000E+03	1.342464E-16	6.616569E-18
6.080000E+03	1.343559E-16	6.343516E-18
6.090000E+03	1.344952E-16	6.065991E-18
6.100000E+03	1.346349E-16	5.783650E-18
6.110000E+03	1.347896E-16	5.498381E-18
6.120000E+03	1.349743E-16	5.212171E-18
6.130000E+03	1.351594E-16	4.925535E-18
6.140000E+03	1.353595E-16	4.641114E-18
6.150000E+03	1.355747E-16	4.361384E-18
6.160000E+03	1.358048E-16	4.089361E-18
6.170000E+03	1.360649E-16	3.829137E-18
6.180000E+03	1.363249E-16	3.584281E-18
6.190000E+03	1.365996E-16	3.360490E-18
6.200000E+03	1.368889E-16	3.163750E-18
6.210000E+03	1.371776E-16	3.000126E-18
6.220000E+03	1.374955E-16	2.876394E-18
6.230000E+03	1.378274E-16	2.796934E-18
6.240000E+03	1.381729E-16	2.763855E-18
6.250000E+03	1.385318E-16	2.775789E-18
6.260000E+03	1.388882E-16	2.827613E-18
6.270000E+03	1.392722E-16	2.912645E-18
6.280000E+03	1.396681E-16	3.022165E-18
6.290000E+03	1.400598E-16	3.147479E-18
6.300000E+03	1.404776E-16	3.281718E-18
6.310000E+03	1.408899E-16	3.417742E-18
6.320000E+03	1.413269E-16	3.551002E-18
6.330000E+03	1.417571E-16	3.676494E-18
6.340000E+03	1.421950E-16	3.791260E-18
6.350000E+03	1.426558E-16	3.893155E-18
6.360000E+03	1.431072E-16	3.979406E-18
6.370000E+03	1.435642E-16	4.049059E-18
6.380000E+03	1.440419E-16	4.101693E-18
6.390000E+03	1.445077E-16	4.136001E-18
6.400000E+03	1.449768E-16	4.152479E-18
6.410000E+03	1.454482E-16	4.151646E-18
6.420000E+03	1.459211E-16	4.134532E-18
6.430000E+03	1.463948E-16	4.102730E-18
6.440000E+03	1.468683E-16	4.058471E-18
6.450000E+03	1.473410E-16	4.004718E-18
6.460000E+03	1.478119E-16	3.945263E-18
6.470000E+03	1.482803E-16	3.884809E-18
6.480000E+03	1.487453E-16	3.829015E-18
6.490000E+03	1.492062E-16	3.784432E-18
6.500000E+03	1.496622E-16	3.758290E-18
6.510000E+03	1.501126E-16	3.758048E-18
6.520000E+03	1.505401E-16	3.790293E-18
6.530000E+03	1.509772E-16	3.861587E-18
6.540000E+03	1.514067E-16	3.975262E-18
6.550000E+03	1.518113E-16	4.132282E-18
6.560000E+03	1.522240E-16	4.332791E-18
6.570000E+03	1.526276E-16	4.573942E-18
6.580000E+03	1.530048E-16	4.851757E-18
6.590000E+03	1.533889E-16	5.163355E-18
6.600000E+03	1.537458E-16	5.503645E-18
6.610000E+03	1.541091E-16	5.870018E-18
6.620000E+03	1.544444E-16	6.257753E-18
6.630000E+03	1.547857E-16	6.665102E-18
6.640000E+03	1.550983E-16	7.087915E-18
6.650000E+03	1.554165E-16	7.525336E-18
6.660000E+03	1.557056E-16	7.973665E-18
6.670000E+03	1.559827E-16	8.431861E-18
6.680000E+03	1.562648E-16	8.899305E-18
6.690000E+03	1.565173E-16	9.372653E-18
6.700000E+03	1.567572E-16	9.851569E-18
6.710000E+03	1.569846E-16	1.033491E-17
6.720000E+03	1.572168E-16	1.082285E-17
6.730000E+03	1.574188E-16	1.131209E-17
6.740000E+03	1.576080E-16	1.180292E-17
6.750000E+03	1.577844E-16	1.229454E-17
6.760000E+03	1.579480E-16	1.278620E-17
6.770000E+03	1.580988E-16	1.327722E-17
6.780000E+03	1.582367E-16	1.376694E-17
6.790000E+03	1.583619E-16	1.425474E-17
6.800000E+03	1.584743E-16	1.474006E-17
6.810000E+03	1.585740E-16	1.522234E-17
6.820000E+03	1.586611E-16	1.570107E-17
6.830000E+03	1.587357E-16	1.617574E-17
6.840000E+03	1.587977E-16	1.664588E-17
6.850000E+03	1.588474E-16	1.711105E-17
6.860000E+03	1.588849E-16	1.757081E-17
6.870000E+03	1.588925E-16	1.802274E-17
6.880000E+03	1.589058E-16	1.847041E-17
6.890000E+03	1.589072E-16	1.891149E-17
6.900000E+03	1.588969E-16	1.934561E-17
6.910000E+03	1.588573E-16	1.977023E-17
6.920000E+03	1.588240E-16	2.018938E-17
6.930000E+03	1.587794E-16	2.060059E-17
6.940000E+03	1.587059E-16	2.100120E-17
6.950000E+03	1.586393E-16	2.139557E-17
6.960000E+03	1.585620E-16	2.178114E-17
6.970000E+03	1.584563E-16	2.215516E-17
6.980000E+03	1.583580E-16	2.252229E-17
6.990000E+03	1.582319E-16	2.287730E-17
7.000000E+03	1.581134E-16	2.322505E-17
7.010000E+03	1.579675E-16	2.356016E-17
7.020000E+03	1.578119E-16	2.388500E-17
7.030000E+03	1.576647E-16	2.420210E-17
7.040000E+03	1.574906E-16	2.450587E-17
7.050000E+03	1.573253E-16	2.480163E-17
7.060000E+03	1.571335E-16	2.508367E-17
7.070000E+03	1.569331E-16	2.535461E-17
7.080000E+03	1.567245E-16	2.561430E-17
7.090000E+03	1.565253E-16	2.586554E-17
7.100000E+03	1.563005E-16	2.610241E-17
7.110000E+03	1.560680E-16	2.632769E-17
7.120000E+03	1.558281E-16	2.654128E-17
7.130000E+03	1.555808E-16	2.674308E-17
7.140000E+03	1.553264E-16	2.693303E-17
7.150000E+03	1.550652E-16	2.711105E-17
7.160000E+03	1.547972E-16	2.727707E-17
7.170000E+03	1.545228E-16	2.743103E-17
7.180000E+03	1.542420E-16	2.757290E-17
7.190000E+03	1.539552E-16	2.770261E-17
7.200000E+03	1.536624E-16	2.782015E-17
7.210000E+03	1.533640E-16	2.792547E-17
7.220000E+03	1.530599E-16	2.801857E-17
7.230000E+03	1.527506E-16	2.809942E-17
7.240000E+03	1.524360E-16	2.816802E-17
7.250000E+03	1.520993E-16	2.822116E-17
7.260000E+03	1.517750E-16	2.826523E-17
7.270000E+03	1.514460E-16	2.829706E-17
7.280000E+03	1.511125E-16	2.831666E-17
7.290000E+03	1.507576E-16	2.832082E-17
7.300000E+03	1.504157E-16	2.831601E-17
7.310000E+03	1.500698E-16	2.829903E-17
7.320000E+03	1.497030E-16	2.826671E-17
7.330000E+03	1.493496E-16	2.822551E-17
7.340000E+03	1.489756E-16	2.816906E-17
7.350000E+03	1.486152E-16	2.810381E-17
7.360000E+03	1.482346E-16	2.802340E-17
7.370000E+03	1.478510E-16	2.793111E-17
7.380000E+03	1.474811E-16	2.783017E-17
7.390000E+03	1.470916E-16	2.771427E-17
7.400000E+03	1.466993E-16	2.758667E-17
7.410000E+03	1.463212E-16	2.745058E-17
7.420000E+03	1.459238E-16	2.729978E-17
7.430000E+03	1.455240E-16	2.713749E-17
7.440000E+03	1.451219E-16	2.696379E-17
7.450000E+03	1.447341E-16	2.678183E-17
7.460000E+03	1.443277E-16	2.658554E-17
7.470000E+03	1.439192E-16	2.637810E-17
7.480000E+03	1.435088E-16	2.615957E-17
7.490000E+03	1.430965E-16	2.593007E-17
7.500000E+03	1.426824E-16	2.568968E-17
7.510000E+03	1.422666E-16	2.543849E-17
7.520000E+03	1.418491E-16	2.517660E-17
7.530000E+03	1.414138E-16	2.490125E-17
7.540000E+03	1.409932E-16	2.461830E-17
7.550000E+03	1.405711E-16	2.432495E-17
7.560000E+03	1.401476E-16	2.402132E-17
7.570000E+03	1.397227E-16	2.370750E-17
7.580000E+03	1.392804E-16	2.338091E-17
7.590000E+03	1.388528E-16	2.304710E-17
7.600000E+03	1.384240E-16	2.270345E-17
7.610000E+03	1.379780E-16	2.234748E-17
7.620000E+03	1.375467E-16	2.198452E-17
7.630000E+03	1.370983E-16	2.160957E-17
7.640000E+03	1.366646E-16	2.122781E-17
7.650000E+03	1.362140E-16	2.083439E-17
7.660000E+03	1.357622E-16	2.043195E-17
7.670000E+03	1.353251E-16	2.002296E-17
7.680000E+03	1.348712E-16	1.960284E-17
7.690000E+03	1.344161E-16	1.917413E-17
7.700000E+03	1.339756E-16	1.873914E-17
7.710000E+03	1.335184E-16	1.829362E-17
7.720000E+03	1.330601E-16	1.783994E-17
7.730000E+03	1.326007E-16	1.737827E-17
7.740000E+03	1.321401E-16	1.690878E-17
7.750000E+03	1.316785E-16	1.643164E-17
7.760000E+03	1.312157E-16	1.594702E-17
