#wls	flux	fluxerr
1.600000E+03	1.485462E-17	1.328580E-17
1.640000E+03	1.511955E-17	1.346346E-17
1.680000E+03	1.539158E-17	1.364370E-17
1.720000E+03	1.567093E-17	1.382655E-17
1.760000E+03	1.596071E-17	1.401449E-17
1.800000E+03	1.625553E-17	1.420255E-17
1.840000E+03	1.656142E-17	1.439578E-17
1.880000E+03	1.687583E-17	1.459167E-17
1.920000E+03	1.719602E-17	1.478758E-17
1.960000E+03	1.752836E-17	1.498874E-17
2.000000E+03	1.787338E-17	1.519523E-17
2.040000E+03	1.822515E-17	1.540167E-17
2.080000E+03	1.858716E-17	1.561072E-17
2.120000E+03	1.896317E-17	1.582516E-17
2.160000E+03	1.934696E-17	1.603937E-17
2.200000E+03	1.974576E-17	1.625898E-17
2.240000E+03	2.015667E-17	1.648113E-17
2.280000E+03	2.058020E-17	1.670577E-17
2.320000E+03	2.101686E-17	1.693284E-17
2.360000E+03	2.146721E-17	1.716228E-17
2.400000E+03	2.193183E-17	1.739399E-17
2.440000E+03	2.241525E-17	1.763098E-17
2.480000E+03	2.291032E-17	1.786696E-17
2.520000E+03	2.342567E-17	1.810805E-17
2.560000E+03	2.395806E-17	1.835097E-17
2.600000E+03	2.450822E-17	1.859555E-17
2.640000E+03	2.507693E-17	1.884158E-17
2.680000E+03	2.566497E-17	1.908880E-17
2.720000E+03	2.627777E-17	1.934033E-17
2.760000E+03	2.690710E-17	1.958912E-17
2.800000E+03	2.756316E-17	1.984161E-17
2.840000E+03	2.824228E-17	2.009399E-17
2.880000E+03	2.894038E-17	2.034226E-17
2.920000E+03	2.966839E-17	2.059291E-17
2.960000E+03	3.042240E-17	2.084185E-17
3.000000E+03	3.120883E-17	2.109204E-17
3.010000E+03	3.140438E-17	2.115048E-17
3.020000E+03	3.160713E-17	2.121236E-17
3.030000E+03	3.181167E-17	2.127402E-17
3.040000E+03	3.201804E-17	2.133545E-17
3.050000E+03	3.222624E-17	2.139664E-17
3.060000E+03	3.243068E-17	2.145385E-17
3.070000E+03	3.264256E-17	2.151449E-17
3.080000E+03	3.285633E-17	2.157484E-17
3.090000E+03	3.307200E-17	2.163488E-17
3.100000E+03	3.328959E-17	2.169460E-17
3.110000E+03	3.350911E-17	2.175398E-17
3.120000E+03	3.373058E-17	2.181301E-17
3.130000E+03	3.395402E-17	2.187166E-17
3.140000E+03	3.417354E-17	2.192614E-17
3.150000E+03	3.440092E-17	2.198398E-17
3.160000E+03	3.463031E-17	2.204139E-17
3.170000E+03	3.486174E-17	2.209836E-17
3.180000E+03	3.509521E-17	2.215486E-17
3.190000E+03	3.533074E-17	2.221087E-17
3.200000E+03	3.556836E-17	2.226637E-17
3.210000E+03	3.580806E-17	2.232135E-17
3.220000E+03	3.604987E-17	2.237577E-17
3.230000E+03	3.629381E-17	2.242961E-17
3.240000E+03	3.653988E-17	2.248286E-17
3.250000E+03	3.678811E-17	2.253549E-17
3.260000E+03	3.703214E-17	2.258359E-17
3.270000E+03	3.728468E-17	2.263490E-17
3.280000E+03	3.753941E-17	2.268551E-17
3.290000E+03	3.779635E-17	2.273540E-17
3.300000E+03	3.805552E-17	2.278455E-17
3.310000E+03	3.831692E-17	2.283292E-17
3.320000E+03	3.858058E-17	2.288049E-17
3.330000E+03	3.884649E-17	2.292722E-17
3.340000E+03	3.911468E-17	2.297310E-17
3.350000E+03	3.938516E-17	2.301809E-17
3.360000E+03	3.965793E-17	2.306216E-17
3.370000E+03	3.993301E-17	2.310528E-17
3.380000E+03	4.021042E-17	2.314742E-17
3.390000E+03	4.049015E-17	2.318854E-17
3.400000E+03	4.077223E-17	2.322862E-17
3.410000E+03	4.105665E-17	2.326762E-17
3.420000E+03	4.134343E-17	2.330550E-17
3.430000E+03	4.163258E-17	2.334223E-17
3.440000E+03	4.192411E-17	2.337778E-17
3.450000E+03	4.221802E-17	2.341211E-17
3.460000E+03	4.251431E-17	2.344517E-17
3.470000E+03	4.281300E-17	2.347694E-17
3.480000E+03	4.311409E-17	2.350738E-17
3.490000E+03	4.341758E-17	2.353644E-17
3.500000E+03	4.372349E-17	2.356408E-17
3.510000E+03	4.403180E-17	2.359027E-17
3.520000E+03	4.434253E-17	2.361497E-17
3.530000E+03	4.465567E-17	2.363812E-17
3.540000E+03	4.497889E-17	2.366373E-17
3.550000E+03	4.529692E-17	2.368368E-17
3.560000E+03	4.561737E-17	2.370197E-17
3.570000E+03	4.594023E-17	2.371854E-17
3.580000E+03	4.626550E-17	2.373335E-17
3.590000E+03	4.659318E-17	2.374635E-17
3.600000E+03	4.692326E-17	2.375750E-17
3.610000E+03	4.725575E-17	2.376676E-17
3.620000E+03	4.759062E-17	2.377406E-17
3.630000E+03	4.792788E-17	2.377937E-17
3.640000E+03	4.826751E-17	2.378263E-17
3.650000E+03	4.860950E-17	2.378379E-17
3.660000E+03	4.895385E-17	2.378281E-17
3.670000E+03	4.930054E-17	2.377962E-17
3.680000E+03	4.964956E-17	2.377418E-17
3.690000E+03	5.000088E-17	2.376644E-17
3.700000E+03	5.035450E-17	2.375635E-17
3.710000E+03	5.071040E-17	2.374384E-17
3.720000E+03	5.107720E-17	2.373288E-17
3.730000E+03	5.143765E-17	2.371538E-17
3.740000E+03	5.180032E-17	2.369531E-17
3.750000E+03	5.216517E-17	2.367260E-17
3.760000E+03	5.253220E-17	2.364721E-17
3.770000E+03	5.290136E-17	2.361907E-17
3.780000E+03	5.327264E-17	2.358814E-17
3.790000E+03	5.364599E-17	2.355434E-17
3.800000E+03	5.402139E-17	2.351763E-17
3.810000E+03	5.439881E-17	2.347795E-17
3.820000E+03	5.477821E-17	2.343524E-17
3.830000E+03	5.515955E-17	2.338944E-17
3.840000E+03	5.554280E-17	2.334049E-17
3.850000E+03	5.592790E-17	2.328834E-17
3.860000E+03	5.631483E-17	2.323293E-17
3.870000E+03	5.670353E-17	2.317419E-17
3.880000E+03	5.709396E-17	2.311207E-17
3.890000E+03	5.748607E-17	2.304652E-17
3.900000E+03	5.788954E-17	2.298133E-17
3.910000E+03	5.828491E-17	2.290871E-17
3.920000E+03	5.868181E-17	2.283248E-17
3.930000E+03	5.908016E-17	2.275258E-17
3.940000E+03	5.947993E-17	2.266895E-17
3.950000E+03	5.988103E-17	2.258155E-17
3.960000E+03	6.028341E-17	2.249030E-17
3.970000E+03	6.068700E-17	2.239517E-17
3.980000E+03	6.109174E-17	2.229608E-17
3.990000E+03	6.149755E-17	2.219300E-17
4.000000E+03	6.190436E-17	2.208586E-17
4.010000E+03	6.231209E-17	2.197462E-17
4.020000E+03	6.272067E-17	2.185922E-17
4.030000E+03	6.313001E-17	2.173961E-17
4.040000E+03	6.354004E-17	2.161575E-17
4.050000E+03	6.395066E-17	2.148759E-17
4.060000E+03	6.436180E-17	2.135508E-17
4.070000E+03	6.477335E-17	2.121817E-17
4.080000E+03	6.518523E-17	2.107684E-17
4.090000E+03	6.559735E-17	2.093102E-17
4.100000E+03	6.600960E-17	2.078070E-17
4.110000E+03	6.642189E-17	2.062581E-17
4.120000E+03	6.683411E-17	2.046634E-17
4.130000E+03	6.724615E-17	2.030225E-17
4.140000E+03	6.765792E-17	2.013350E-17
4.150000E+03	6.806930E-17	1.996008E-17
4.160000E+03	6.848018E-17	1.978194E-17
4.170000E+03	6.889045E-17	1.959907E-17
4.180000E+03	6.929998E-17	1.941145E-17
4.190000E+03	6.970866E-17	1.921906E-17
4.200000E+03	7.010470E-17	1.901872E-17
4.210000E+03	7.051124E-17	1.881677E-17
4.220000E+03	7.091657E-17	1.861003E-17
4.230000E+03	7.132054E-17	1.839847E-17
4.240000E+03	7.172303E-17	1.818210E-17
4.250000E+03	7.212390E-17	1.796092E-17
4.260000E+03	7.252302E-17	1.773493E-17
4.270000E+03	7.292026E-17	1.750415E-17
4.280000E+03	7.331547E-17	1.726859E-17
4.290000E+03	7.370852E-17	1.702827E-17
4.300000E+03	7.409925E-17	1.678322E-17
4.310000E+03	7.447518E-17	1.653071E-17
4.320000E+03	7.486080E-17	1.627632E-17
4.330000E+03	7.524368E-17	1.601729E-17
4.340000E+03	7.562366E-17	1.575367E-17
4.350000E+03	7.600059E-17	1.548551E-17
4.360000E+03	7.637433E-17	1.521287E-17
4.370000E+03	7.673200E-17	1.493334E-17
4.380000E+03	7.709883E-17	1.465198E-17
4.390000E+03	7.746199E-17	1.436635E-17
4.400000E+03	7.782134E-17	1.407653E-17
4.410000E+03	7.817672E-17	1.378262E-17
4.420000E+03	7.852797E-17	1.348472E-17
4.430000E+03	7.886191E-17	1.318076E-17
4.440000E+03	7.920438E-17	1.287527E-17
4.450000E+03	7.954225E-17	1.256614E-17
4.460000E+03	7.987538E-17	1.225354E-17
4.470000E+03	8.019035E-17	1.193563E-17
4.480000E+03	8.051344E-17	1.161659E-17
4.490000E+03	8.083132E-17	1.129456E-17
4.500000E+03	8.114382E-17	1.096976E-17
4.510000E+03	8.143737E-17	1.064065E-17
4.520000E+03	8.173863E-17	1.031102E-17
4.530000E+03	8.203406E-17	9.979343E-18
4.540000E+03	8.232353E-17	9.645895E-18
4.550000E+03	8.259327E-17	9.309467E-18
4.560000E+03	8.287033E-17	8.973534E-18
4.570000E+03	8.314100E-17	8.636902E-18
4.580000E+03	8.339142E-17	8.298649E-18
4.590000E+03	8.364887E-17	7.962059E-18
4.600000E+03	8.389955E-17	7.626273E-18
4.610000E+03	8.412950E-17	7.290737E-18
4.620000E+03	8.436623E-17	6.958638E-18
4.630000E+03	8.458195E-17	6.628482E-18
4.640000E+03	8.480431E-17	6.303487E-18
4.650000E+03	8.501936E-17	5.983659E-18
4.660000E+03	8.521301E-17	5.669417E-18
4.670000E+03	8.541313E-17	5.364262E-18
4.680000E+03	8.559165E-17	5.068252E-18
4.690000E+03	8.577657E-17	4.785307E-18
4.700000E+03	8.593971E-17	4.516397E-18
4.710000E+03	8.610919E-17	4.266061E-18
4.720000E+03	8.627092E-17	4.036955E-18
4.730000E+03	8.641069E-17	3.832281E-18
4.740000E+03	8.655679E-17	3.657408E-18
4.750000E+03	8.668087E-17	3.515180E-18
4.760000E+03	8.681133E-17	3.410469E-18
4.770000E+03	8.691974E-17	3.344973E-18
4.780000E+03	8.703460E-17	3.321315E-18
4.790000E+03	8.712742E-17	3.338006E-18
4.800000E+03	8.722667E-17	3.393346E-18
4.810000E+03	8.730377E-17	3.482016E-18
4.820000E+03	8.737295E-17	3.599587E-18
4.830000E+03	8.744848E-17	3.741466E-18
4.840000E+03	8.750176E-17	3.901429E-18
4.850000E+03	8.756139E-17	4.076133E-18
4.860000E+03	8.759875E-17	4.260223E-18
4.870000E+03	8.762817E-17	4.450856E-18
4.880000E+03	8.766398E-17	4.645845E-18
4.890000E+03	8.767759E-17	4.841237E-18
4.900000E+03	8.768336E-17	5.035703E-18
4.910000E+03	8.769565E-17	5.228387E-18
4.920000E+03	8.768590E-17	5.416190E-18
4.930000E+03	8.766849E-17	5.598753E-18
4.940000E+03	8.765781E-17	5.776035E-18
4.950000E+03	8.762532E-17	5.945360E-18
4.960000E+03	8.758544E-17	6.106960E-18
4.970000E+03	8.755253E-17	6.261289E-18
4.980000E+03	8.749814E-17	6.405859E-18
4.990000E+03	8.743668E-17	6.541282E-18
5.000000E+03	8.736826E-17	6.667240E-18
5.010000E+03	8.730722E-17	6.784585E-18
5.020000E+03	8.722525E-17	6.890924E-18
5.030000E+03	8.713670E-17	6.987188E-18
5.040000E+03	8.704172E-17	7.073268E-18
5.050000E+03	8.694045E-17	7.149090E-18
5.060000E+03	8.684718E-17	7.215787E-18
5.070000E+03	8.673376E-17	7.271013E-18
5.080000E+03	8.661451E-17	7.315950E-18
5.090000E+03	8.648958E-17	7.350647E-18
5.100000E+03	8.635913E-17	7.375175E-18
5.110000E+03	8.622332E-17	7.389629E-18
5.120000E+03	8.608232E-17	7.394128E-18
5.130000E+03	8.595027E-17	7.390013E-18
5.140000E+03	8.579936E-17	7.375040E-18
5.150000E+03	8.564377E-17	7.350594E-18
5.160000E+03	8.548367E-17	7.316878E-18
5.170000E+03	8.531924E-17	7.274113E-18
5.180000E+03	8.515064E-17	7.222545E-18
5.190000E+03	8.497806E-17	7.162438E-18
5.200000E+03	8.480167E-17	7.094079E-18
5.210000E+03	8.462165E-17	7.017777E-18
5.220000E+03	8.443818E-17	6.933864E-18
5.230000E+03	8.425145E-17	6.842699E-18
5.240000E+03	8.406162E-17	6.744663E-18
5.250000E+03	8.386889E-17	6.640170E-18
5.260000E+03	8.367343E-17	6.529661E-18
5.270000E+03	8.347542E-17	6.413610E-18
5.280000E+03	8.327505E-17	6.292528E-18
5.290000E+03	8.307250E-17	6.166963E-18
5.300000E+03	8.285451E-17	6.036529E-18
5.310000E+03	8.264817E-17	5.903840E-18
5.320000E+03	8.244020E-17	5.768586E-18
5.330000E+03	8.223076E-17	5.631510E-18
5.340000E+03	8.202005E-17	5.493414E-18
5.350000E+03	8.180824E-17	5.355166E-18
5.360000E+03	8.159551E-17	5.217700E-18
5.370000E+03	8.136887E-17	5.081200E-18
5.380000E+03	8.115487E-17	4.948412E-18
5.390000E+03	8.094050E-17	4.819640E-18
5.400000E+03	8.072592E-17	4.696099E-18
5.410000E+03	8.051131E-17	4.579061E-18
5.420000E+03	8.028385E-17	4.469114E-18
5.430000E+03	8.006974E-17	4.369049E-18
5.440000E+03	7.985613E-17	4.279439E-18
5.450000E+03	7.964317E-17	4.201542E-18
5.460000E+03	7.941820E-17	4.135847E-18
5.470000E+03	7.920712E-17	4.084706E-18
5.480000E+03	7.899720E-17	4.048245E-18
5.490000E+03	7.877588E-17	4.026367E-18
5.500000E+03	7.856882E-17	4.020509E-18
5.510000E+03	7.836339E-17	4.029451E-18
5.520000E+03	7.814709E-17	4.051640E-18
5.530000E+03	7.794536E-17	4.087273E-18
5.540000E+03	7.774566E-17	4.134429E-18
5.550000E+03	7.753559E-17	4.191060E-18
5.560000E+03	7.734039E-17	4.257090E-18
5.570000E+03	7.714760E-17	4.330423E-18
5.580000E+03	7.694493E-17	4.408954E-18
5.590000E+03	7.675741E-17	4.492760E-18
5.600000E+03	7.656032E-17	4.579149E-18
5.610000E+03	7.637856E-17	4.668422E-18
5.620000E+03	7.618754E-17	4.758018E-18
5.630000E+03	7.601204E-17	4.848492E-18
5.640000E+03	7.583985E-17	4.938213E-18
5.650000E+03	7.565886E-17	5.025586E-18
5.660000E+03	7.549366E-17	5.111520E-18
5.670000E+03	7.531998E-17	5.193757E-18
5.680000E+03	7.515014E-17	5.272560E-18
5.690000E+03	7.499637E-17	5.348309E-18
5.700000E+03	7.483455E-17	5.418863E-18
5.710000E+03	7.468899E-17	5.485586E-18
5.720000E+03	7.453566E-17	5.546395E-18
5.730000E+03	7.439878E-17	5.602787E-18
5.740000E+03	7.425443E-17	5.652719E-18
5.750000E+03	7.412671E-17	5.697799E-18
5.760000E+03	7.399179E-17	5.736018E-18
5.770000E+03	7.386178E-17	5.768141E-18
5.780000E+03	7.374868E-17	5.794981E-18
5.790000E+03	7.362880E-17	5.814571E-18
5.800000E+03	7.351417E-17	5.827767E-18
5.810000E+03	7.341673E-17	5.835450E-18
5.820000E+03	7.331292E-17	5.835698E-18
5.830000E+03	7.321470E-17	5.829429E-18
5.840000E+03	7.313397E-17	5.817570E-18
5.850000E+03	7.304725E-17	5.798251E-18
5.860000E+03	7.296645E-17	5.772429E-18
5.870000E+03	7.290346E-17	5.741064E-18
5.880000E+03	7.283485E-17	5.702342E-18
5.890000E+03	7.277250E-17	5.657251E-18
5.900000E+03	7.272826E-17	5.606764E-18
5.910000E+03	7.267878E-17	5.549142E-18
5.920000E+03	7.263590E-17	5.485390E-18
5.930000E+03	7.259974E-17	5.415611E-18
5.940000E+03	7.257040E-17	5.339920E-18
5.950000E+03	7.255970E-17	5.259292E-18
5.960000E+03	7.254434E-17	5.172159E-18
5.970000E+03	7.253615E-17	5.079537E-18
5.980000E+03	7.253522E-17	4.981597E-18
5.990000E+03	7.254168E-17	4.878526E-18
6.000000E+03	7.256732E-17	4.771298E-18
6.010000E+03	7.258887E-17	4.658584E-18
6.020000E+03	7.261814E-17	4.541421E-18
6.030000E+03	7.265522E-17	4.420083E-18
6.040000E+03	7.270022E-17	4.294877E-18
6.050000E+03	7.275325E-17	4.166144E-18
6.060000E+03	7.281442E-17	4.034267E-18
6.070000E+03	7.288382E-17	3.899672E-18
6.080000E+03	7.297331E-17	3.763451E-18
6.090000E+03	7.305949E-17	3.624916E-18
6.100000E+03	7.315420E-17	3.485318E-18
6.110000E+03	7.325754E-17	3.345372E-18
6.120000E+03	7.336957E-17	3.205891E-18
6.130000E+03	7.349039E-17	3.067815E-18
6.140000E+03	7.362008E-17	2.932218E-18
6.150000E+03	7.375869E-17	2.800334E-18
6.160000E+03	7.390630E-17	2.673568E-18
6.170000E+03	7.406294E-17	2.553506E-18
6.180000E+03	7.422867E-17	2.441911E-18
6.190000E+03	7.440350E-17	2.340697E-18
6.200000E+03	7.458745E-17	2.251873E-18
6.210000E+03	7.478052E-17	2.177442E-18
6.220000E+03	7.498268E-17	2.119257E-18
6.230000E+03	7.519390E-17	2.078846E-18
6.240000E+03	7.541411E-17	2.057214E-18
6.250000E+03	7.564318E-17	2.054095E-18
6.260000E+03	7.588087E-17	2.067565E-18
6.270000E+03	7.612691E-17	2.095104E-18
6.280000E+03	7.636868E-17	2.133576E-18
6.290000E+03	7.663044E-17	2.180822E-18
6.300000E+03	7.689959E-17	2.233780E-18
6.310000E+03	7.717577E-17	2.289959E-18
6.320000E+03	7.745859E-17	2.347156E-18
6.330000E+03	7.774768E-17	2.403483E-18
6.340000E+03	7.804261E-17	2.457360E-18
6.350000E+03	7.834297E-17	2.507510E-18
6.360000E+03	7.863565E-17	2.552523E-18
6.370000E+03	7.894550E-17	2.592485E-18
6.380000E+03	7.925945E-17	2.626512E-18
6.390000E+03	7.957703E-17	2.654370E-18
6.400000E+03	7.989777E-17	2.676071E-18
6.410000E+03	8.022121E-17	2.691873E-18
6.420000E+03	8.053388E-17	2.701853E-18
6.430000E+03	8.086122E-17	2.707662E-18
6.440000E+03	8.118982E-17	2.709928E-18
6.450000E+03	8.151920E-17	2.710007E-18
6.460000E+03	8.184888E-17	2.709556E-18
6.470000E+03	8.216515E-17	2.710094E-18
6.480000E+03	8.249399E-17	2.714729E-18
6.490000E+03	8.282174E-17	2.725496E-18
6.500000E+03	8.314797E-17	2.745029E-18
6.510000E+03	8.345877E-17	2.775570E-18
6.520000E+03	8.378060E-17	2.820620E-18
6.530000E+03	8.409964E-17	2.882111E-18
6.540000E+03	8.440191E-17	2.961084E-18
6.550000E+03	8.471424E-17	3.058840E-18
6.560000E+03	8.502274E-17	3.174786E-18
6.570000E+03	8.531335E-17	3.307886E-18
6.580000E+03	8.561325E-17	3.458386E-18
6.590000E+03	8.590847E-17	3.624772E-18
6.600000E+03	8.618484E-17	3.805305E-18
6.610000E+03	8.646989E-17	3.999992E-18
6.620000E+03	8.674955E-17	4.207057E-18
6.630000E+03	8.700957E-17	4.424617E-18
6.640000E+03	8.727778E-17	4.652950E-18
6.650000E+03	8.754002E-17	4.890325E-18
6.660000E+03	8.778196E-17	5.134931E-18
6.670000E+03	8.803172E-17	5.387475E-18
6.680000E+03	8.827505E-17	5.646322E-18
6.690000E+03	8.849752E-17	5.909739E-18
6.700000E+03	8.872755E-17	6.178865E-18
6.710000E+03	8.893641E-17	6.451079E-18
6.720000E+03	8.915269E-17	6.727794E-18
6.730000E+03	8.934754E-17	7.006300E-18
6.740000E+03	8.954970E-17	7.288271E-18
6.750000E+03	8.974469E-17	7.572109E-18
6.760000E+03	8.991793E-17	7.856064E-18
6.770000E+03	9.009835E-17	8.142174E-18
6.780000E+03	9.025684E-17	8.427424E-18
6.790000E+03	9.042248E-17	8.714080E-18
6.800000E+03	9.056604E-17	8.998984E-18
6.810000E+03	9.071671E-17	9.284625E-18
6.820000E+03	9.084520E-17	9.567694E-18
6.830000E+03	9.098078E-17	9.850894E-18
6.840000E+03	9.109409E-17	1.013076E-17
6.850000E+03	9.121451E-17	1.041021E-17
6.860000E+03	9.131258E-17	1.068562E-17
6.870000E+03	9.141779E-17	1.096011E-17
6.880000E+03	9.150061E-17	1.122989E-17
6.890000E+03	9.159061E-17	1.149830E-17
6.900000E+03	9.165820E-17	1.176138E-17
6.910000E+03	9.173301E-17	1.202265E-17
6.920000E+03	9.178542E-17	1.227803E-17
6.930000E+03	9.184510E-17	1.253121E-17
6.940000E+03	9.188241E-17	1.277795E-17
6.950000E+03	9.191219E-17	1.302002E-17
6.960000E+03	9.194937E-17	1.325936E-17
6.970000E+03	9.196422E-17	1.349152E-17
6.980000E+03	9.198655E-17	1.372063E-17
6.990000E+03	9.198662E-17	1.394211E-17
7.000000E+03	9.197937E-17	1.415796E-17
7.010000E+03	9.197972E-17	1.437033E-17
7.020000E+03	9.195794E-17	1.457445E-17
7.030000E+03	9.194387E-17	1.477485E-17
7.040000E+03	9.190778E-17	1.496662E-17
7.050000E+03	9.186461E-17	1.515199E-17
7.060000E+03	9.182929E-17	1.533329E-17
7.070000E+03	9.177215E-17	1.550547E-17
7.080000E+03	9.170810E-17	1.567086E-17
7.090000E+03	9.165207E-17	1.583191E-17
7.100000E+03	9.157442E-17	1.598341E-17
7.110000E+03	9.149006E-17	1.612779E-17
7.120000E+03	9.141389E-17	1.626759E-17
7.130000E+03	9.131633E-17	1.639748E-17
7.140000E+03	9.121227E-17	1.651999E-17
7.150000E+03	9.110181E-17	1.663503E-17
7.160000E+03	9.099974E-17	1.674526E-17
7.170000E+03	9.087665E-17	1.684519E-17
7.180000E+03	9.074736E-17	1.693746E-17
7.190000E+03	9.062665E-17	1.702479E-17
7.200000E+03	9.048518E-17	1.710161E-17
7.210000E+03	9.033777E-17	1.717063E-17
7.220000E+03	9.018447E-17	1.723182E-17
7.230000E+03	9.003998E-17	1.728793E-17
7.240000E+03	8.987514E-17	1.733336E-17
7.250000E+03	8.970467E-17	1.737088E-17
7.260000E+03	8.952864E-17	1.740046E-17
7.270000E+03	8.934715E-17	1.742209E-17
7.280000E+03	8.917474E-17	1.743861E-17
7.290000E+03	8.898253E-17	1.744436E-17
7.300000E+03	8.878509E-17	1.744216E-17
7.310000E+03	8.858252E-17	1.743202E-17
7.320000E+03	8.837489E-17	1.741396E-17
7.330000E+03	8.817662E-17	1.739081E-17
7.340000E+03	8.795911E-17	1.735696E-17
7.350000E+03	8.773680E-17	1.731525E-17
7.360000E+03	8.750977E-17	1.726571E-17
7.370000E+03	8.727812E-17	1.720837E-17
7.380000E+03	8.704191E-17	1.714329E-17
7.390000E+03	8.681535E-17	1.707327E-17
7.400000E+03	8.657026E-17	1.699279E-17
7.410000E+03	8.632088E-17	1.690470E-17
7.420000E+03	8.606728E-17	1.680906E-17
7.430000E+03	8.580955E-17	1.670591E-17
7.440000E+03	8.554777E-17	1.659531E-17
7.450000E+03	8.528203E-17	1.647734E-17
7.460000E+03	8.501240E-17	1.635207E-17
7.470000E+03	8.473897E-17	1.621955E-17
7.480000E+03	8.447558E-17	1.608249E-17
7.490000E+03	8.419475E-17	1.593570E-17
7.500000E+03	8.391036E-17	1.578191E-17
7.510000E+03	8.362250E-17	1.562119E-17
7.520000E+03	8.333124E-17	1.545363E-17
7.530000E+03	8.303666E-17	1.527933E-17
7.540000E+03	8.273884E-17	1.509838E-17
7.550000E+03	8.243786E-17	1.491086E-17
7.560000E+03	8.213379E-17	1.471688E-17
7.570000E+03	8.182672E-17	1.451654E-17
7.580000E+03	8.151673E-17	1.430994E-17
7.590000E+03	8.120388E-17	1.409719E-17
7.600000E+03	8.088826E-17	1.387839E-17
7.610000E+03	8.056994E-17	1.365365E-17
7.620000E+03	8.024899E-17	1.342309E-17
7.630000E+03	7.992550E-17	1.318682E-17
7.640000E+03	7.959954E-17	1.294496E-17
7.650000E+03	7.927117E-17	1.269763E-17
7.660000E+03	7.894049E-17	1.244495E-17
7.670000E+03	7.860755E-17	1.218706E-17
7.680000E+03	7.827243E-17	1.192407E-17
7.690000E+03	7.793522E-17	1.165612E-17
7.700000E+03	7.759597E-17	1.138335E-17
7.710000E+03	7.725477E-17	1.110590E-17
7.720000E+03	7.691168E-17	1.082390E-17
7.730000E+03	7.656678E-17	1.053751E-17
7.740000E+03	7.620769E-17	1.024519E-17
7.750000E+03	7.585945E-17	9.950512E-18
7.760000E+03	7.550961E-17	9.651905E-18
