#wls	flux	fluxerr
1.565382E+03	2.482851E-02	2.508756E-04
1.604516E+03	2.593099E-02	2.618846E-04
1.643651E+03	2.709769E-02	2.735274E-04
1.682785E+03	2.832999E-02	2.858163E-04
1.721920E+03	2.963080E-02	2.987791E-04
1.761054E+03	3.099744E-02	3.123873E-04
1.800189E+03	3.243019E-02	3.266417E-04
1.839323E+03	3.392418E-02	3.414918E-04
1.878458E+03	3.546966E-02	3.568375E-04
1.917592E+03	3.705660E-02	3.725765E-04
1.956727E+03	3.868032E-02	3.886602E-04
1.995862E+03	4.035467E-02	4.052261E-04
2.034996E+03	4.210821E-02	4.225593E-04
2.074131E+03	4.400779E-02	4.413274E-04
2.113265E+03	4.612177E-02	4.622119E-04
2.152400E+03	4.847420E-02	4.854480E-04
2.191534E+03	5.104700E-02	5.108488E-04
2.230669E+03	5.377651E-02	5.377715E-04
2.269803E+03	5.660424E-02	5.656268E-04
2.308938E+03	5.948963E-02	5.940062E-04
2.348072E+03	6.241464E-02	6.227266E-04
2.387207E+03	6.538257E-02	6.518188E-04
2.426341E+03	6.839266E-02	6.812725E-04
2.465476E+03	7.145568E-02	7.111922E-04
2.504611E+03	7.457987E-02	7.416568E-04
2.543745E+03	7.776363E-02	7.726475E-04
2.582880E+03	8.100640E-02	8.041552E-04
2.622014E+03	8.429964E-02	8.360920E-04
2.661149E+03	8.763539E-02	8.683758E-04
2.700283E+03	9.099797E-02	9.008486E-04
2.739418E+03	9.436950E-02	9.333309E-04
2.778552E+03	9.772794E-02	9.656028E-04
2.817687E+03	1.010606E-01	9.975379E-04
2.856821E+03	1.043506E-01	1.028968E-03
2.895956E+03	1.075798E-01	1.059715E-03
2.935090E+03	1.107423E-01	1.089721E-03
2.944874E+03	1.115223E-01	1.097104E-03
2.954658E+03	1.122966E-01	1.104426E-03
2.964441E+03	1.130646E-01	1.111682E-03
2.974225E+03	1.138288E-01	1.118894E-03
2.984009E+03	1.145894E-01	1.126066E-03
2.993792E+03	1.153471E-01	1.133203E-03
3.003576E+03	1.161009E-01	1.140298E-03
3.013360E+03	1.168501E-01	1.147342E-03
3.023143E+03	1.175941E-01	1.154330E-03
3.032927E+03	1.183346E-01	1.161277E-03
3.042710E+03	1.190708E-01	1.168178E-03
3.052494E+03	1.197998E-01	1.175002E-03
3.062278E+03	1.205257E-01	1.181790E-03
3.072061E+03	1.212432E-01	1.188492E-03
3.081845E+03	1.219539E-01	1.195121E-03
3.091629E+03	1.226599E-01	1.201699E-03
3.101412E+03	1.233581E-01	1.208195E-03
3.111196E+03	1.240504E-01	1.214629E-03
3.120980E+03	1.247339E-01	1.220971E-03
3.130763E+03	1.254106E-01	1.227242E-03
3.140547E+03	1.260800E-01	1.233435E-03
3.150330E+03	1.267395E-01	1.239527E-03
3.160114E+03	1.273908E-01	1.245534E-03
3.169898E+03	1.280338E-01	1.251454E-03
3.179681E+03	1.286680E-01	1.257284E-03
3.189465E+03	1.292932E-01	1.263021E-03
3.199249E+03	1.299092E-01	1.268662E-03
3.209032E+03	1.305158E-01	1.274208E-03
3.218816E+03	1.311106E-01	1.279632E-03
3.228600E+03	1.316978E-01	1.284979E-03
3.238383E+03	1.322731E-01	1.290204E-03
3.248167E+03	1.328385E-01	1.295328E-03
3.257950E+03	1.333919E-01	1.300331E-03
3.267734E+03	1.339356E-01	1.305234E-03
3.277518E+03	1.344695E-01	1.310038E-03
3.287301E+03	1.349898E-01	1.314704E-03
3.297085E+03	1.355006E-01	1.319274E-03
3.306869E+03	1.359983E-01	1.323711E-03
3.316652E+03	1.364852E-01	1.328039E-03
3.326436E+03	1.369614E-01	1.332259E-03
3.336220E+03	1.374236E-01	1.336338E-03
3.346003E+03	1.378762E-01	1.340320E-03
3.355787E+03	1.383158E-01	1.344172E-03
3.365570E+03	1.387429E-01	1.347898E-03
3.375354E+03	1.391583E-01	1.351507E-03
3.385138E+03	1.395607E-01	1.354986E-03
3.394921E+03	1.399528E-01	1.358361E-03
3.404705E+03	1.403319E-01	1.361606E-03
3.414489E+03	1.406988E-01	1.364729E-03
3.424272E+03	1.410526E-01	1.367722E-03
3.434056E+03	1.413962E-01	1.370612E-03
3.443839E+03	1.417273E-01	1.373378E-03
3.453623E+03	1.420452E-01	1.376012E-03
3.463407E+03	1.423528E-01	1.378544E-03
3.473190E+03	1.426463E-01	1.380936E-03
3.482974E+03	1.429270E-01	1.383201E-03
3.492758E+03	1.431961E-01	1.385351E-03
3.502541E+03	1.434517E-01	1.387367E-03
3.512325E+03	1.436952E-01	1.389263E-03
3.522109E+03	1.439247E-01	1.391022E-03
3.531892E+03	1.441401E-01	1.392641E-03
3.541676E+03	1.443428E-01	1.394135E-03
3.551459E+03	1.445294E-01	1.395472E-03
3.561243E+03	1.447031E-01	1.396682E-03
3.571027E+03	1.448620E-01	1.397747E-03
3.580810E+03	1.450061E-01	1.398667E-03
3.590594E+03	1.451337E-01	1.399425E-03
3.600378E+03	1.452462E-01	1.400036E-03
3.610161E+03	1.453432E-01	1.400497E-03
3.619945E+03	1.454230E-01	1.400790E-03
3.629729E+03	1.454867E-01	1.400925E-03
3.639512E+03	1.455337E-01	1.400900E-03
3.649296E+03	1.455622E-01	1.400694E-03
3.659079E+03	1.455756E-01	1.400343E-03
3.668863E+03	1.455703E-01	1.399811E-03
3.678647E+03	1.455467E-01	1.399101E-03
3.688430E+03	1.455066E-01	1.398232E-03
3.698214E+03	1.454459E-01	1.397165E-03
3.707998E+03	1.453676E-01	1.395928E-03
3.717781E+03	1.452687E-01	1.394494E-03
3.727565E+03	1.451505E-01	1.392874E-03
3.737349E+03	1.450128E-01	1.391066E-03
3.747132E+03	1.448539E-01	1.389056E-03
3.756916E+03	1.446736E-01	1.386840E-03
3.766699E+03	1.444727E-01	1.384429E-03
3.776483E+03	1.442498E-01	1.381806E-03
3.786267E+03	1.440059E-01	1.378983E-03
3.796050E+03	1.437396E-01	1.375948E-03
3.805834E+03	1.434522E-01	1.372711E-03
3.815618E+03	1.431438E-01	1.369275E-03
3.825401E+03	1.428146E-01	1.365641E-03
3.835185E+03	1.424663E-01	1.361827E-03
3.844969E+03	1.420982E-01	1.357824E-03
3.854752E+03	1.417120E-01	1.353651E-03
3.864536E+03	1.413097E-01	1.349326E-03
3.874319E+03	1.408894E-01	1.344832E-03
3.884103E+03	1.404557E-01	1.340212E-03
3.893887E+03	1.400078E-01	1.335460E-03
3.903670E+03	1.395465E-01	1.330582E-03
3.913454E+03	1.390733E-01	1.325594E-03
3.923238E+03	1.385875E-01	1.320488E-03
3.933021E+03	1.380916E-01	1.315290E-03
3.942805E+03	1.375855E-01	1.309997E-03
3.952589E+03	1.370693E-01	1.304612E-03
3.962372E+03	1.365415E-01	1.299119E-03
3.972156E+03	1.360042E-01	1.293539E-03
3.981939E+03	1.354568E-01	1.287868E-03
3.991723E+03	1.348992E-01	1.282102E-03
4.001507E+03	1.343309E-01	1.276239E-03
4.011290E+03	1.337516E-01	1.270275E-03
4.021074E+03	1.331623E-01	1.264219E-03
4.030858E+03	1.325617E-01	1.258061E-03
4.040641E+03	1.319512E-01	1.251812E-03
4.050425E+03	1.313309E-01	1.245476E-03
4.060208E+03	1.307011E-01	1.239054E-03
4.069992E+03	1.300626E-01	1.232552E-03
4.079776E+03	1.294158E-01	1.225978E-03
4.089559E+03	1.287628E-01	1.219349E-03
4.099343E+03	1.281022E-01	1.212653E-03
4.109127E+03	1.274362E-01	1.205911E-03
4.118910E+03	1.267670E-01	1.199142E-03
4.128694E+03	1.260936E-01	1.192340E-03
4.138478E+03	1.254185E-01	1.185526E-03
4.148261E+03	1.247419E-01	1.178702E-03
4.158045E+03	1.240662E-01	1.171893E-03
4.167828E+03	1.233919E-01	1.165101E-03
4.177612E+03	1.227192E-01	1.158329E-03
4.187396E+03	1.220513E-01	1.151609E-03
4.197179E+03	1.213867E-01	1.144924E-03
4.206963E+03	1.207284E-01	1.138303E-03
4.216747E+03	1.200762E-01	1.131745E-03
4.226530E+03	1.194313E-01	1.125260E-03
4.236314E+03	1.187930E-01	1.118843E-03
4.246098E+03	1.181630E-01	1.112509E-03
4.255881E+03	1.175415E-01	1.106260E-03
4.265665E+03	1.169276E-01	1.100087E-03
4.275448E+03	1.163243E-01	1.094019E-03
4.285232E+03	1.157301E-01	1.088041E-03
4.295016E+03	1.151468E-01	1.082169E-03
4.304799E+03	1.145735E-01	1.076397E-03
4.314583E+03	1.140116E-01	1.070737E-03
4.324367E+03	1.134597E-01	1.065174E-03
4.334150E+03	1.129199E-01	1.059730E-03
4.343934E+03	1.123919E-01	1.054400E-03
4.353718E+03	1.118750E-01	1.049180E-03
4.363501E+03	1.113719E-01	1.044093E-03
4.373285E+03	1.108826E-01	1.039139E-03
4.383068E+03	1.104081E-01	1.034327E-03
4.392852E+03	1.099492E-01	1.029667E-03
4.402636E+03	1.095073E-01	1.025168E-03
4.412419E+03	1.090824E-01	1.020834E-03
4.422203E+03	1.086768E-01	1.016682E-03
4.431987E+03	1.082911E-01	1.012721E-03
4.441770E+03	1.079252E-01	1.008948E-03
4.451554E+03	1.075786E-01	1.005359E-03
4.461338E+03	1.072525E-01	1.001965E-03
4.471121E+03	1.069468E-01	9.987646E-04
4.480905E+03	1.066593E-01	9.957372E-04
4.490688E+03	1.063916E-01	9.928972E-04
4.500472E+03	1.061400E-01	9.902102E-04
4.510256E+03	1.059047E-01	9.876778E-04
4.520039E+03	1.056849E-01	9.852919E-04
4.529823E+03	1.054785E-01	9.830342E-04
4.539607E+03	1.052848E-01	9.808975E-04
4.549390E+03	1.051010E-01	9.788546E-04
4.559174E+03	1.049280E-01	9.769151E-04
4.568958E+03	1.047622E-01	9.750447E-04
4.578741E+03	1.046039E-01	9.732466E-04
4.588525E+03	1.044517E-01	9.715072E-04
4.598308E+03	1.043051E-01	9.698218E-04
4.608092E+03	1.041619E-01	9.681705E-04
4.617876E+03	1.040219E-01	9.665517E-04
4.627659E+03	1.038834E-01	9.649486E-04
4.637443E+03	1.037475E-01	9.633725E-04
4.647227E+03	1.036119E-01	9.618002E-04
4.657010E+03	1.034770E-01	9.602374E-04
4.666794E+03	1.033425E-01	9.586808E-04
4.676577E+03	1.032074E-01	9.571203E-04
4.686361E+03	1.030726E-01	9.555652E-04
4.696145E+03	1.029371E-01	9.540062E-04
4.705928E+03	1.028010E-01	9.524440E-04
4.715712E+03	1.026644E-01	9.508803E-04
4.725496E+03	1.025275E-01	9.493150E-04
4.735279E+03	1.023893E-01	9.477410E-04
4.745063E+03	1.022519E-01	9.461767E-04
4.754847E+03	1.021123E-01	9.445942E-04
4.764630E+03	1.019722E-01	9.430103E-04
4.774414E+03	1.018305E-01	9.414139E-04
4.784197E+03	1.016878E-01	9.398106E-04
4.793981E+03	1.015415E-01	9.381773E-04
4.803765E+03	1.013919E-01	9.365157E-04
4.813548E+03	1.012382E-01	9.348196E-04
4.823332E+03	1.010783E-01	9.330691E-04
4.833116E+03	1.009125E-01	9.312666E-04
4.842899E+03	1.007385E-01	9.293916E-04
4.852683E+03	1.005566E-01	9.274465E-04
4.862467E+03	1.003640E-01	9.254060E-04
4.872250E+03	1.001621E-01	9.232828E-04
4.882034E+03	9.994872E-02	9.210573E-04
4.891817E+03	9.972473E-02	9.187373E-04
4.901601E+03	9.948935E-02	9.163158E-04
4.911385E+03	9.924395E-02	9.138056E-04
4.921168E+03	9.898913E-02	9.112122E-04
4.930952E+03	9.872343E-02	9.085223E-04
4.940736E+03	9.844847E-02	9.057509E-04
4.950519E+03	9.816477E-02	9.029029E-04
4.960303E+03	9.787285E-02	8.999831E-04
4.970087E+03	9.757088E-02	8.969749E-04
4.979870E+03	9.726111E-02	8.938989E-04
4.989654E+03	9.694362E-02	8.907561E-04
4.999437E+03	9.661539E-02	8.875186E-04
5.009221E+03	9.627927E-02	8.842128E-04
5.019005E+03	9.593335E-02	8.808212E-04
5.028788E+03	9.557763E-02	8.773440E-04
5.038572E+03	9.521236E-02	8.737834E-04
5.048356E+03	9.483687E-02	8.701333E-04
5.058139E+03	9.445277E-02	8.664087E-04
5.067923E+03	9.405973E-02	8.626066E-04
5.077707E+03	9.365868E-02	8.587356E-04
5.087490E+03	9.325085E-02	8.548069E-04
5.097274E+03	9.283535E-02	8.508125E-04
5.107057E+03	9.241557E-02	8.467835E-04
5.116841E+03	9.199184E-02	8.427230E-04
5.126625E+03	9.156459E-02	8.386349E-04
5.136408E+03	9.113513E-02	8.345312E-04
5.146192E+03	9.070483E-02	8.304245E-04
5.155976E+03	9.027396E-02	8.263172E-04
5.165759E+03	8.984450E-02	8.222276E-04
5.175543E+03	8.941551E-02	8.181470E-04
5.185327E+03	8.898889E-02	8.140926E-04
5.195110E+03	8.856352E-02	8.100544E-04
5.204894E+03	8.814087E-02	8.060458E-04
5.214677E+03	8.772052E-02	8.020628E-04
5.224461E+03	8.730298E-02	7.981101E-04
5.234245E+03	8.688851E-02	7.941902E-04
5.244028E+03	8.647571E-02	7.902901E-04
5.253812E+03	8.606589E-02	7.864218E-04
5.263596E+03	8.565854E-02	7.825808E-04
5.273379E+03	8.525420E-02	7.787717E-04
5.283163E+03	8.485173E-02	7.749844E-04
5.292946E+03	8.445358E-02	7.712411E-04
5.302730E+03	8.405805E-02	7.675262E-04
5.312514E+03	8.366609E-02	7.638485E-04
5.322297E+03	8.327869E-02	7.602169E-04
5.332081E+03	8.289274E-02	7.566031E-04
5.341865E+03	8.250516E-02	7.529787E-04
5.351648E+03	8.211285E-02	7.493155E-04
5.361432E+03	8.172002E-02	7.456518E-04
5.371216E+03	8.132984E-02	7.420165E-04
5.380999E+03	8.094380E-02	7.384231E-04
5.390783E+03	8.056345E-02	7.348855E-04
5.400566E+03	8.019019E-02	7.314167E-04
5.410350E+03	7.982356E-02	7.280120E-04
5.420134E+03	7.946606E-02	7.246945E-04
5.429917E+03	7.911670E-02	7.214549E-04
5.439701E+03	7.877512E-02	7.182898E-04
5.449485E+03	7.844227E-02	7.152079E-04
5.459268E+03	7.811657E-02	7.121946E-04
5.469052E+03	7.779789E-02	7.092486E-04
5.478836E+03	7.748595E-02	7.063675E-04
5.488619E+03	7.717967E-02	7.035412E-04
5.498403E+03	7.687871E-02	7.007665E-04
5.508186E+03	7.658194E-02	6.980333E-04
5.517970E+03	7.628833E-02	6.953319E-04
5.527754E+03	7.599771E-02	6.926606E-04
5.537537E+03	7.570841E-02	6.900045E-04
5.547321E+03	7.542205E-02	6.873780E-04
5.557105E+03	7.513643E-02	6.847611E-04
5.566888E+03	7.485258E-02	6.821632E-04
5.576672E+03	7.457007E-02	6.795802E-04
5.586456E+03	7.428774E-02	6.770016E-04
5.596239E+03	7.400687E-02	6.744388E-04
5.606023E+03	7.372642E-02	6.718825E-04
5.615806E+03	7.344695E-02	6.693377E-04
5.625590E+03	7.316827E-02	6.668026E-04
5.635374E+03	7.289102E-02	6.642829E-04
5.645157E+03	7.261430E-02	6.617705E-04
5.654941E+03	7.233955E-02	6.592785E-04
5.664725E+03	7.206517E-02	6.567921E-04
5.674508E+03	7.179191E-02	6.543181E-04
5.684292E+03	7.152055E-02	6.518638E-04
5.694076E+03	7.125115E-02	6.494294E-04
5.703859E+03	7.098306E-02	6.470092E-04
5.713643E+03	7.071720E-02	6.446113E-04
5.723426E+03	7.045458E-02	6.422452E-04
5.733210E+03	7.019396E-02	6.398992E-04
5.742994E+03	6.993646E-02	6.375837E-04
5.752777E+03	6.968319E-02	6.353087E-04
5.762561E+03	6.943302E-02	6.330639E-04
5.772345E+03	6.918782E-02	6.308662E-04
5.782128E+03	6.894785E-02	6.287181E-04
5.791912E+03	6.871172E-02	6.266070E-04
5.801696E+03	6.848022E-02	6.245397E-04
5.811479E+03	6.825390E-02	6.225215E-04
5.821263E+03	6.803081E-02	6.205346E-04
5.831046E+03	6.781116E-02	6.185806E-04
5.840830E+03	6.759415E-02	6.166525E-04
5.850614E+03	6.737808E-02	6.147347E-04
5.860397E+03	6.716197E-02	6.128180E-04
5.870181E+03	6.694476E-02	6.108929E-04
5.879965E+03	6.672469E-02	6.089434E-04
5.889748E+03	6.650160E-02	6.069679E-04
5.899532E+03	6.627399E-02	6.049525E-04
5.909315E+03	6.604125E-02	6.028918E-04
5.919099E+03	6.580146E-02	6.007682E-04
5.928883E+03	6.555602E-02	5.985944E-04
5.938666E+03	6.530266E-02	5.963495E-04
5.948450E+03	6.504318E-02	5.940501E-04
5.958234E+03	6.477568E-02	5.916788E-04
5.968017E+03	6.450231E-02	5.892550E-04
5.977801E+03	6.422143E-02	5.867637E-04
5.987585E+03	6.393460E-02	5.842193E-04
5.997368E+03	6.364265E-02	5.816291E-04
6.007152E+03	6.334567E-02	5.789939E-04
6.016935E+03	6.304372E-02	5.763144E-04
6.026719E+03	6.273843E-02	5.736053E-04
6.036503E+03	6.243056E-02	5.708735E-04
6.046286E+03	6.212085E-02	5.681257E-04
6.056070E+03	6.180993E-02	5.653677E-04
6.065854E+03	6.149992E-02	5.626189E-04
6.075637E+03	6.119206E-02	5.598906E-04
6.085421E+03	6.088520E-02	5.571721E-04
6.095205E+03	6.058120E-02	5.544805E-04
6.104988E+03	6.027951E-02	5.518108E-04
6.114772E+03	5.998031E-02	5.491647E-04
6.124555E+03	5.968528E-02	5.465574E-04
6.134339E+03	5.939452E-02	5.439899E-04
6.144123E+03	5.910888E-02	5.414699E-04
6.153906E+03	5.882840E-02	5.389978E-04
6.163690E+03	5.855314E-02	5.365742E-04
6.173474E+03	5.828549E-02	5.342211E-04
6.183257E+03	5.802392E-02	5.319243E-04
6.193041E+03	5.777003E-02	5.296986E-04
6.202825E+03	5.752305E-02	5.275369E-04
6.212608E+03	5.728460E-02	5.254540E-04
6.222392E+03	5.705384E-02	5.234424E-04
6.232175E+03	5.683153E-02	5.215090E-04
6.241959E+03	5.661837E-02	5.196602E-04
6.251743E+03	5.641262E-02	5.178802E-04
6.261526E+03	5.621567E-02	5.161817E-04
6.271310E+03	5.602722E-02	5.145620E-04
6.281094E+03	5.584686E-02	5.130173E-04
6.290877E+03	5.567492E-02	5.115506E-04
6.300661E+03	5.551159E-02	5.101638E-04
6.310445E+03	5.535699E-02	5.088579E-04
6.320228E+03	5.521028E-02	5.076252E-04
6.330012E+03	5.507054E-02	5.064574E-04
6.339795E+03	5.493755E-02	5.053523E-04
6.349579E+03	5.480857E-02	5.042847E-04
6.359363E+03	5.468410E-02	5.032593E-04
6.369146E+03	5.456294E-02	5.022651E-04
6.378930E+03	5.444390E-02	5.012910E-04
6.388714E+03	5.432574E-02	5.003256E-04
6.398497E+03	5.420718E-02	4.993572E-04
6.408281E+03	5.408776E-02	4.983813E-04
6.418065E+03	5.396533E-02	4.973782E-04
6.427848E+03	5.383963E-02	4.963455E-04
6.437632E+03	5.370964E-02	4.952736E-04
6.447415E+03	5.357366E-02	4.941469E-04
6.457199E+03	5.343187E-02	4.929669E-04
6.466983E+03	5.328374E-02	4.917286E-04
6.476766E+03	5.312884E-02	4.904281E-04
6.486550E+03	5.296684E-02	4.890622E-04
6.496334E+03	5.279752E-02	4.876288E-04
6.506117E+03	5.262071E-02	4.861262E-04
6.515901E+03	5.243543E-02	4.845452E-04
6.525684E+03	5.224251E-02	4.828936E-04
6.535468E+03	5.204112E-02	4.811634E-04
6.545252E+03	5.183223E-02	4.793637E-04
6.555035E+03	5.161606E-02	4.774963E-04
6.564819E+03	5.139200E-02	4.755555E-04
6.574603E+03	5.116041E-02	4.735446E-04
6.584386E+03	5.092265E-02	4.714759E-04
6.594170E+03	5.067746E-02	4.693380E-04
6.603954E+03	5.042725E-02	4.671529E-04
6.613737E+03	5.017182E-02	4.649188E-04
6.623521E+03	4.991101E-02	4.626340E-04
6.633304E+03	4.964649E-02	4.603140E-04
6.643088E+03	4.937905E-02	4.579662E-04
6.652872E+03	4.910862E-02	4.555897E-04
6.662655E+03	4.883690E-02	4.532003E-04
6.672439E+03	4.856381E-02	4.507972E-04
6.682223E+03	4.829103E-02	4.483961E-04
6.692006E+03	4.801755E-02	4.459874E-04
6.701790E+03	4.774589E-02	4.435947E-04
6.711574E+03	4.747502E-02	4.412082E-04
6.721357E+03	4.720741E-02	4.388510E-04
6.731141E+03	4.694196E-02	4.365128E-04
6.740924E+03	4.668019E-02	4.342077E-04
6.750708E+03	4.642181E-02	4.319332E-04
6.760492E+03	4.616827E-02	4.297026E-04
6.770275E+03	4.591917E-02	4.275124E-04
6.780059E+03	4.567587E-02	4.253750E-04
6.789843E+03	4.543703E-02	4.232782E-04
6.799626E+03	4.520477E-02	4.212417E-04
6.809410E+03	4.497854E-02	4.192605E-04
6.819194E+03	4.475779E-02	4.173292E-04
6.828977E+03	4.454449E-02	4.154665E-04
6.838761E+03	4.433715E-02	4.136585E-04
6.848544E+03	4.413682E-02	4.119150E-04
6.858328E+03	4.394282E-02	4.102297E-04
6.868112E+03	4.375614E-02	4.086118E-04
6.877895E+03	4.357603E-02	4.070545E-04
6.887679E+03	4.340341E-02	4.055663E-04
6.897463E+03	4.323659E-02	4.041316E-04
6.907246E+03	4.307727E-02	4.027663E-04
6.917030E+03	4.292367E-02	4.014536E-04
6.926814E+03	4.277738E-02	4.002087E-04
6.936597E+03	4.263651E-02	3.990139E-04
6.946381E+03	4.250168E-02	3.978748E-04
6.956164E+03	4.237174E-02	3.967811E-04
6.965948E+03	4.224719E-02	3.957371E-04
6.975732E+03	4.212761E-02	3.947391E-04
6.985515E+03	4.201083E-02	3.937668E-04
6.995299E+03	4.189803E-02	3.928313E-04
7.005083E+03	4.178869E-02	3.919276E-04
7.014866E+03	4.168050E-02	3.910343E-04
7.024650E+03	4.157377E-02	3.901540E-04
7.034434E+03	4.146793E-02	3.892816E-04
7.044217E+03	4.136160E-02	3.884040E-04
7.054001E+03	4.125601E-02	3.875329E-04
7.063784E+03	4.114905E-02	3.866483E-04
7.073568E+03	4.104040E-02	3.857474E-04
7.083352E+03	4.093070E-02	3.848359E-04
7.093135E+03	4.081812E-02	3.838967E-04
7.102919E+03	4.070432E-02	3.829455E-04
7.112703E+03	4.058851E-02	3.819748E-04
7.122486E+03	4.047084E-02	3.809859E-04
7.132270E+03	4.035066E-02	3.799727E-04
7.142053E+03	4.022824E-02	3.789377E-04
7.151837E+03	4.010471E-02	3.778915E-04
7.161621E+03	3.997955E-02	3.768292E-04
7.171404E+03	3.985222E-02	3.757458E-04
7.181188E+03	3.972306E-02	3.746444E-04
7.190972E+03	3.959238E-02	3.735279E-04
7.200755E+03	3.946046E-02	3.723990E-04
7.210539E+03	3.932677E-02	3.712525E-04
7.220323E+03	3.919072E-02	3.700830E-04
7.230106E+03	3.905253E-02	3.688925E-04
7.239890E+03	3.891078E-02	3.676675E-04
7.249673E+03	3.876733E-02	3.664255E-04
7.259457E+03	3.861987E-02	3.651448E-04
7.269241E+03	3.846859E-02	3.638270E-04
7.279024E+03	3.831446E-02	3.624815E-04
7.288808E+03	3.815850E-02	3.611176E-04
7.298592E+03	3.800001E-02	3.597289E-04
7.308375E+03	3.784080E-02	3.583323E-04
7.318159E+03	3.768100E-02	3.569293E-04
7.327943E+03	3.752241E-02	3.555367E-04
7.337726E+03	3.736432E-02	3.541479E-04
7.347510E+03	3.720848E-02	3.527795E-04
7.357293E+03	3.705501E-02	3.514326E-04
7.367077E+03	3.690398E-02	3.501079E-04
7.376861E+03	3.675630E-02	3.488140E-04
7.386644E+03	3.661118E-02	3.475435E-04
7.396428E+03	3.647029E-02	3.463123E-04
7.406212E+03	3.633281E-02	3.451126E-04
7.415995E+03	3.619873E-02	3.439445E-04
7.425779E+03	3.606882E-02	3.428151E-04
7.435563E+03	3.594302E-02	3.417239E-04
7.445346E+03	3.582124E-02	3.406703E-04
7.455130E+03	3.570256E-02	3.396453E-04
7.464913E+03	3.558849E-02	3.386635E-04
7.474697E+03	3.547729E-02	3.377083E-04
7.484481E+03	3.537046E-02	3.367939E-04
7.494264E+03	3.526625E-02	3.359039E-04
7.504048E+03	3.516619E-02	3.350528E-04
7.513832E+03	3.506854E-02	3.342239E-04
7.523615E+03	3.497485E-02	3.334323E-04
7.533399E+03	3.488425E-02	3.326695E-04
7.543183E+03	3.479669E-02	3.319351E-04
7.552966E+03	3.471133E-02	3.312211E-04
7.562750E+03	3.462979E-02	3.305431E-04
7.572533E+03	3.455126E-02	3.298933E-04
7.582317E+03	3.447576E-02	3.292720E-04
7.592101E+03	3.440251E-02	3.286715E-04
