#wls	flux	fluxerr
1.565382E+03	1.972485E-02	3.830834E-04
1.604516E+03	2.034843E-02	3.945977E-04
1.643651E+03	2.098725E-02	4.063551E-04
1.682785E+03	2.164872E-02	4.184957E-04
1.721920E+03	2.232858E-02	4.309336E-04
1.761054E+03	2.302906E-02	4.437080E-04
1.800189E+03	2.374532E-02	4.567219E-04
1.839323E+03	2.447407E-02	4.699084E-04
1.878458E+03	2.521100E-02	4.831817E-04
1.917592E+03	2.595536E-02	4.965245E-04
1.956727E+03	2.671079E-02	5.100032E-04
1.995862E+03	2.748589E-02	5.237780E-04
2.034996E+03	2.832325E-02	5.386548E-04
2.074131E+03	2.926899E-02	5.554985E-04
2.113265E+03	3.038767E-02	5.755169E-04
2.152400E+03	3.171834E-02	5.994233E-04
2.191534E+03	3.326191E-02	6.272053E-04
2.230669E+03	3.499870E-02	6.584610E-04
2.269803E+03	3.690543E-02	6.927233E-04
2.308938E+03	3.896408E-02	7.296269E-04
2.348072E+03	4.116366E-02	7.689395E-04
2.387207E+03	4.349692E-02	8.105000E-04
2.426341E+03	4.596015E-02	8.542132E-04
2.465476E+03	4.855402E-02	9.000655E-04
2.504611E+03	5.127860E-02	9.480306E-04
2.543745E+03	5.412523E-02	9.979206E-04
2.582880E+03	5.710091E-02	1.049837E-03
2.622014E+03	6.018889E-02	1.103442E-03
2.661149E+03	6.338763E-02	1.158680E-03
2.700283E+03	6.668569E-02	1.215315E-03
2.739418E+03	7.006873E-02	1.273059E-03
2.778552E+03	7.351954E-02	1.331574E-03
2.817687E+03	7.702821E-02	1.390659E-03
2.856821E+03	8.058175E-02	1.450059E-03
2.895956E+03	8.418043E-02	1.509759E-03
2.935090E+03	8.783032E-02	1.569848E-03
2.944874E+03	8.875315E-02	1.584970E-03
2.954658E+03	8.967872E-02	1.600107E-03
2.964441E+03	9.060956E-02	1.615303E-03
2.974225E+03	9.154837E-02	1.630606E-03
2.984009E+03	9.248845E-02	1.645896E-03
2.993792E+03	9.343972E-02	1.661349E-03
3.003576E+03	9.439754E-02	1.676882E-03
3.013360E+03	9.536093E-02	1.692477E-03
3.023143E+03	9.632882E-02	1.708115E-03
3.032927E+03	9.730651E-02	1.723889E-03
3.042710E+03	9.829270E-02	1.739776E-03
3.052494E+03	9.928310E-02	1.755698E-03
3.062278E+03	1.002829E-01	1.771748E-03
3.072061E+03	1.012907E-01	1.787901E-03
3.081845E+03	1.023053E-01	1.804133E-03
3.091629E+03	1.033254E-01	1.820422E-03
3.101412E+03	1.043558E-01	1.836852E-03
3.111196E+03	1.053891E-01	1.853292E-03
3.120980E+03	1.064330E-01	1.869876E-03
3.130763E+03	1.074831E-01	1.886527E-03
3.140547E+03	1.085407E-01	1.903269E-03
3.150330E+03	1.096075E-01	1.920130E-03
3.160114E+03	1.106789E-01	1.937026E-03
3.169898E+03	1.117563E-01	1.953985E-03
3.179681E+03	1.128380E-01	1.970975E-03
3.189465E+03	1.139283E-01	1.988070E-03
3.199249E+03	1.150225E-01	2.005188E-03
3.209032E+03	1.161218E-01	2.022350E-03
3.218816E+03	1.172243E-01	2.039524E-03
3.228600E+03	1.183312E-01	2.056727E-03
3.238383E+03	1.194405E-01	2.073926E-03
3.248167E+03	1.205504E-01	2.091090E-03
3.257950E+03	1.216591E-01	2.108186E-03
3.267734E+03	1.227675E-01	2.125230E-03
3.277518E+03	1.238735E-01	2.142186E-03
3.287301E+03	1.249755E-01	2.159024E-03
3.297085E+03	1.260688E-01	2.175667E-03
3.306869E+03	1.271569E-01	2.192174E-03
3.316652E+03	1.282327E-01	2.208422E-03
3.326436E+03	1.292947E-01	2.224384E-03
3.336220E+03	1.303435E-01	2.240076E-03
3.346003E+03	1.313728E-01	2.255385E-03
3.355787E+03	1.323809E-01	2.270286E-03
3.365570E+03	1.333666E-01	2.284759E-03
3.375354E+03	1.343237E-01	2.298698E-03
3.385138E+03	1.352489E-01	2.312050E-03
3.394921E+03	1.361415E-01	2.324802E-03
3.404705E+03	1.369962E-01	2.336866E-03
3.414489E+03	1.378079E-01	2.348159E-03
3.424272E+03	1.385745E-01	2.358645E-03
3.434056E+03	1.392940E-01	2.368293E-03
3.443839E+03	1.399622E-01	2.377038E-03
3.453623E+03	1.405761E-01	2.384826E-03
3.463407E+03	1.411324E-01	2.391607E-03
3.473190E+03	1.416306E-01	2.397378E-03
3.482974E+03	1.420644E-01	2.402030E-03
3.492758E+03	1.424362E-01	2.405614E-03
3.502541E+03	1.427428E-01	2.408073E-03
3.512325E+03	1.429853E-01	2.409435E-03
3.522109E+03	1.431633E-01	2.409692E-03
3.531892E+03	1.432768E-01	2.408852E-03
3.541676E+03	1.433281E-01	2.406955E-03
3.551459E+03	1.433179E-01	2.404017E-03
3.561243E+03	1.432492E-01	2.400091E-03
3.571027E+03	1.431230E-01	2.395200E-03
3.580810E+03	1.429466E-01	2.389466E-03
3.590594E+03	1.427196E-01	2.382887E-03
3.600378E+03	1.424491E-01	2.375584E-03
3.610161E+03	1.421403E-01	2.367646E-03
3.619945E+03	1.417947E-01	2.359102E-03
3.629729E+03	1.414191E-01	2.350068E-03
3.639512E+03	1.410182E-01	2.340621E-03
3.649296E+03	1.405950E-01	2.330812E-03
3.659079E+03	1.401552E-01	2.320740E-03
3.668863E+03	1.397027E-01	2.310469E-03
3.678647E+03	1.392411E-01	2.300058E-03
3.688430E+03	1.387735E-01	2.289561E-03
3.698214E+03	1.383025E-01	2.279020E-03
3.707998E+03	1.378319E-01	2.268500E-03
3.717781E+03	1.373637E-01	2.258033E-03
3.727565E+03	1.369008E-01	2.247665E-03
3.737349E+03	1.364412E-01	2.237364E-03
3.747132E+03	1.359899E-01	2.227214E-03
3.756916E+03	1.355458E-01	2.217192E-03
3.766699E+03	1.351087E-01	2.207299E-03
3.776483E+03	1.346797E-01	2.197551E-03
3.786267E+03	1.342596E-01	2.187959E-03
3.796050E+03	1.338460E-01	2.178485E-03
3.805834E+03	1.334391E-01	2.169133E-03
3.815618E+03	1.330390E-01	2.159904E-03
3.825401E+03	1.326429E-01	2.150752E-03
3.835185E+03	1.322506E-01	2.141673E-03
3.844969E+03	1.318605E-01	2.132641E-03
3.854752E+03	1.314719E-01	2.123646E-03
3.864536E+03	1.310831E-01	2.114659E-03
3.874319E+03	1.306934E-01	2.105670E-03
3.884103E+03	1.302996E-01	2.096628E-03
3.893887E+03	1.298996E-01	2.087499E-03
3.903670E+03	1.294952E-01	2.078313E-03
3.913454E+03	1.290805E-01	2.068976E-03
3.923238E+03	1.286561E-01	2.059496E-03
3.933021E+03	1.282197E-01	2.049839E-03
3.942805E+03	1.277704E-01	2.039993E-03
3.952589E+03	1.273051E-01	2.029906E-03
3.962372E+03	1.268216E-01	2.019548E-03
3.972156E+03	1.263194E-01	2.008908E-03
3.981939E+03	1.257977E-01	1.997980E-03
3.991723E+03	1.252525E-01	1.986697E-03
4.001507E+03	1.246846E-01	1.975075E-03
4.011290E+03	1.240915E-01	1.963077E-03
4.021074E+03	1.234732E-01	1.950704E-03
4.030858E+03	1.228277E-01	1.937927E-03
4.040641E+03	1.221554E-01	1.924752E-03
4.050425E+03	1.214559E-01	1.911177E-03
4.060208E+03	1.207292E-01	1.897202E-03
4.069992E+03	1.199743E-01	1.882815E-03
4.079776E+03	1.191928E-01	1.868042E-03
4.089559E+03	1.183844E-01	1.852881E-03
4.099343E+03	1.175515E-01	1.837370E-03
4.109127E+03	1.166935E-01	1.821501E-03
4.118910E+03	1.158132E-01	1.805320E-03
4.128694E+03	1.149118E-01	1.788849E-03
4.138478E+03	1.139918E-01	1.772127E-03
4.148261E+03	1.130553E-01	1.755187E-03
4.158045E+03	1.121045E-01	1.738065E-03
4.167828E+03	1.111430E-01	1.720819E-03
4.177612E+03	1.101729E-01	1.703480E-03
4.187396E+03	1.091974E-01	1.686101E-03
4.197179E+03	1.082203E-01	1.668738E-03
4.206963E+03	1.072434E-01	1.651420E-03
4.216747E+03	1.062718E-01	1.634226E-03
4.226530E+03	1.053088E-01	1.617207E-03
4.236314E+03	1.043559E-01	1.600383E-03
4.246098E+03	1.034181E-01	1.583834E-03
4.255881E+03	1.024988E-01	1.567608E-03
4.265665E+03	1.016009E-01	1.551747E-03
4.275448E+03	1.007282E-01	1.536313E-03
4.285232E+03	9.988707E-02	1.521394E-03
4.295016E+03	9.908032E-02	1.507036E-03
4.304799E+03	9.831031E-02	1.493271E-03
4.314583E+03	9.757981E-02	1.480138E-03
4.324367E+03	9.688819E-02	1.467626E-03
4.334150E+03	9.623567E-02	1.455735E-03
4.343934E+03	9.562053E-02	1.444437E-03
4.353718E+03	9.504276E-02	1.433728E-03
4.363501E+03	9.450141E-02	1.423594E-03
4.373285E+03	9.399492E-02	1.414007E-03
4.383068E+03	9.352185E-02	1.404943E-03
4.392852E+03	9.308111E-02	1.396386E-03
4.402636E+03	9.267315E-02	1.388338E-03
4.412419E+03	9.229560E-02	1.380762E-03
4.422203E+03	9.194852E-02	1.373658E-03
4.431987E+03	9.162963E-02	1.366989E-03
4.441770E+03	9.134000E-02	1.360770E-03
4.451554E+03	9.107827E-02	1.354979E-03
4.461338E+03	9.084222E-02	1.349580E-03
4.471121E+03	9.063128E-02	1.344563E-03
4.480905E+03	9.044549E-02	1.339929E-03
4.490688E+03	9.028168E-02	1.335627E-03
4.500472E+03	9.014036E-02	1.331665E-03
4.510256E+03	9.001811E-02	1.327990E-03
4.520039E+03	8.991368E-02	1.324583E-03
4.529823E+03	8.982657E-02	1.321435E-03
4.539607E+03	8.975380E-02	1.318502E-03
4.549390E+03	8.969380E-02	1.315759E-03
4.559174E+03	8.964516E-02	1.313185E-03
4.568958E+03	8.960704E-02	1.310767E-03
4.578741E+03	8.957649E-02	1.308462E-03
4.588525E+03	8.955370E-02	1.306271E-03
4.598308E+03	8.953739E-02	1.304176E-03
4.608092E+03	8.952325E-02	1.302113E-03
4.617876E+03	8.950777E-02	1.300031E-03
4.627659E+03	8.948788E-02	1.297886E-03
4.637443E+03	8.946058E-02	1.295634E-03
4.647227E+03	8.942394E-02	1.293249E-03
4.657010E+03	8.937628E-02	1.290707E-03
4.666794E+03	8.931630E-02	1.287989E-03
4.676577E+03	8.924280E-02	1.285079E-03
4.686361E+03	8.915640E-02	1.281987E-03
4.696145E+03	8.905477E-02	1.278680E-03
4.705928E+03	8.894068E-02	1.275199E-03
4.715712E+03	8.881281E-02	1.271525E-03
4.725496E+03	8.867254E-02	1.267681E-03
4.735279E+03	8.852048E-02	1.263674E-03
4.745063E+03	8.835813E-02	1.259527E-03
4.754847E+03	8.818536E-02	1.255239E-03
4.764630E+03	8.800376E-02	1.250833E-03
4.774414E+03	8.781401E-02	1.246320E-03
4.784197E+03	8.761764E-02	1.241721E-03
4.793981E+03	8.741526E-02	1.237046E-03
4.803765E+03	8.720758E-02	1.232306E-03
4.813548E+03	8.699515E-02	1.227508E-03
4.823332E+03	8.678032E-02	1.222686E-03
4.833116E+03	8.656183E-02	1.217822E-03
4.842899E+03	8.634198E-02	1.212949E-03
4.852683E+03	8.612122E-02	1.208073E-03
4.862467E+03	8.589948E-02	1.203194E-03
4.872250E+03	8.567806E-02	1.198330E-03
4.882034E+03	8.545760E-02	1.193490E-03
4.891817E+03	8.523950E-02	1.188694E-03
4.901601E+03	8.502377E-02	1.183940E-03
4.911385E+03	8.481106E-02	1.179240E-03
4.921168E+03	8.460294E-02	1.174613E-03
4.930952E+03	8.440000E-02	1.170069E-03
4.940736E+03	8.420233E-02	1.165608E-03
4.950519E+03	8.401136E-02	1.161249E-03
4.960303E+03	8.382775E-02	1.157002E-03
4.970087E+03	8.365136E-02	1.152864E-03
4.979870E+03	8.348353E-02	1.148854E-03
4.989654E+03	8.332479E-02	1.144978E-03
4.999437E+03	8.317560E-02	1.141242E-03
5.009221E+03	8.303558E-02	1.137640E-03
5.019005E+03	8.290507E-02	1.134177E-03
5.028788E+03	8.278521E-02	1.130868E-03
5.038572E+03	8.267626E-02	1.127716E-03
5.048356E+03	8.257768E-02	1.124712E-03
5.058139E+03	8.248966E-02	1.121860E-03
5.067923E+03	8.241238E-02	1.119160E-03
5.077707E+03	8.234597E-02	1.116615E-03
5.087490E+03	8.228970E-02	1.114213E-03
5.097274E+03	8.224514E-02	1.111976E-03
5.107057E+03	8.221062E-02	1.109881E-03
5.116841E+03	8.218671E-02	1.107934E-03
5.126625E+03	8.217228E-02	1.106120E-03
5.136408E+03	8.216685E-02	1.104433E-03
5.146192E+03	8.216976E-02	1.102863E-03
5.155976E+03	8.217940E-02	1.101387E-03
5.165759E+03	8.219559E-02	1.100005E-03
5.175543E+03	8.221718E-02	1.098699E-03
5.185327E+03	8.224126E-02	1.097431E-03
5.195110E+03	8.226799E-02	1.096204E-03
5.204894E+03	8.229421E-02	1.094975E-03
5.214677E+03	8.231909E-02	1.093733E-03
5.224461E+03	8.234014E-02	1.092446E-03
5.234245E+03	8.235571E-02	1.091093E-03
5.244028E+03	8.236335E-02	1.089640E-03
5.253812E+03	8.236319E-02	1.088092E-03
5.263596E+03	8.235145E-02	1.086398E-03
5.273379E+03	8.232780E-02	1.084556E-03
5.283163E+03	8.229142E-02	1.082554E-03
5.292946E+03	8.224176E-02	1.080388E-03
5.302730E+03	8.217785E-02	1.078044E-03
5.312514E+03	8.209991E-02	1.075528E-03
5.322297E+03	8.200856E-02	1.072848E-03
5.332081E+03	8.190473E-02	1.070017E-03
5.341865E+03	8.179053E-02	1.067064E-03
5.351648E+03	8.166738E-02	1.064008E-03
5.361432E+03	8.153505E-02	1.060846E-03
5.371216E+03	8.139385E-02	1.057584E-03
5.380999E+03	8.124604E-02	1.054250E-03
5.390783E+03	8.108914E-02	1.050813E-03
5.400566E+03	8.092421E-02	1.047287E-03
5.410350E+03	8.074876E-02	1.043641E-03
5.420134E+03	8.056261E-02	1.039872E-03
5.429917E+03	8.036563E-02	1.035981E-03
5.439701E+03	8.015531E-02	1.031934E-03
5.449485E+03	7.993178E-02	1.027734E-03
5.459268E+03	7.969532E-02	1.023386E-03
5.469052E+03	7.944397E-02	1.018866E-03
5.478836E+03	7.917837E-02	1.014181E-03
5.488619E+03	7.889939E-02	1.009344E-03
5.498403E+03	7.860561E-02	1.004338E-03
5.508186E+03	7.829904E-02	9.991881E-04
5.517970E+03	7.798022E-02	9.939029E-04
5.527754E+03	7.764822E-02	9.884706E-04
5.537537E+03	7.730545E-02	9.829227E-04
5.547321E+03	7.695283E-02	9.772712E-04
5.557105E+03	7.659052E-02	9.715188E-04
5.566888E+03	7.622037E-02	9.656891E-04
5.576672E+03	7.584262E-02	9.597856E-04
5.586456E+03	7.545914E-02	9.538323E-04
5.596239E+03	7.507094E-02	9.478423E-04
5.606023E+03	7.467904E-02	9.418284E-04
5.615806E+03	7.428435E-02	9.358024E-04
5.625590E+03	7.388856E-02	9.297855E-04
5.635374E+03	7.349088E-02	9.237680E-04
5.645157E+03	7.309364E-02	9.177792E-04
5.654941E+03	7.269673E-02	9.118175E-04
5.664725E+03	7.230078E-02	9.058911E-04
5.674508E+03	7.190720E-02	9.000172E-04
5.684292E+03	7.151653E-02	8.942028E-04
5.694076E+03	7.112931E-02	8.884543E-04
5.703859E+03	7.074608E-02	8.827784E-04
5.713643E+03	7.036735E-02	8.771813E-04
5.723426E+03	6.999365E-02	8.716693E-04
5.733210E+03	6.962625E-02	8.662581E-04
5.742994E+03	6.926563E-02	8.609535E-04
5.752777E+03	6.891148E-02	8.557515E-04
5.762561E+03	6.856498E-02	8.506663E-04
5.772345E+03	6.822647E-02	8.457020E-04
5.782128E+03	6.789701E-02	8.408714E-04
5.791912E+03	6.757593E-02	8.361661E-04
5.801696E+03	6.726406E-02	8.315959E-04
5.811479E+03	6.696130E-02	8.271594E-04
5.821263E+03	6.666736E-02	8.228528E-04
5.831046E+03	6.638259E-02	8.186801E-04
5.840830E+03	6.610642E-02	8.146342E-04
5.850614E+03	6.583732E-02	8.106959E-04
5.860397E+03	6.557600E-02	8.068739E-04
5.870181E+03	6.532067E-02	8.031461E-04
5.879965E+03	6.507106E-02	7.995089E-04
5.889748E+03	6.482602E-02	7.959483E-04
5.899532E+03	6.458444E-02	7.924504E-04
5.909315E+03	6.434594E-02	7.890107E-04
5.919099E+03	6.411021E-02	7.856255E-04
5.928883E+03	6.387470E-02	7.822633E-04
5.938666E+03	6.364002E-02	7.789319E-04
5.948450E+03	6.340541E-02	7.756219E-04
5.958234E+03	6.317099E-02	7.723348E-04
5.968017E+03	6.293624E-02	7.690645E-04
5.977801E+03	6.270158E-02	7.658161E-04
5.987585E+03	6.246601E-02	7.625774E-04
5.997368E+03	6.223180E-02	7.593763E-04
6.007152E+03	6.199900E-02	7.562134E-04
6.016935E+03	6.176778E-02	7.530908E-04
6.026719E+03	6.154077E-02	7.500406E-04
6.036503E+03	6.131755E-02	7.470577E-04
6.046286E+03	6.110013E-02	7.441665E-04
6.056070E+03	6.088665E-02	7.413446E-04
6.065854E+03	6.067848E-02	7.386084E-04
6.075637E+03	6.047545E-02	7.359562E-04
6.085421E+03	6.027745E-02	7.333862E-04
6.095205E+03	6.008441E-02	7.308981E-04
6.104988E+03	5.989629E-02	7.284912E-04
6.114772E+03	5.971315E-02	7.261662E-04
6.124555E+03	5.953742E-02	7.239528E-04
6.134339E+03	5.936762E-02	7.218332E-04
6.144123E+03	5.920550E-02	7.198287E-04
6.153906E+03	5.905125E-02	7.179414E-04
6.163690E+03	5.890666E-02	7.161935E-04
6.173474E+03	5.877195E-02	7.145877E-04
6.183257E+03	5.864734E-02	7.131268E-04
6.193041E+03	5.853542E-02	7.118424E-04
6.202825E+03	5.843553E-02	7.107267E-04
6.212608E+03	5.834855E-02	7.097906E-04
6.222392E+03	5.827686E-02	7.090633E-04
6.232175E+03	5.821950E-02	7.085334E-04
6.241959E+03	5.817777E-02	7.082172E-04
6.251743E+03	5.815116E-02	7.081086E-04
6.261526E+03	5.814136E-02	7.082288E-04
6.271310E+03	5.814659E-02	7.085564E-04
6.281094E+03	5.816724E-02	7.090964E-04
6.290877E+03	5.820254E-02	7.098395E-04
6.300661E+03	5.824983E-02	7.107529E-04
6.310445E+03	5.830937E-02	7.118402E-04
6.320228E+03	5.837867E-02	7.130705E-04
6.330012E+03	5.845575E-02	7.144197E-04
6.339795E+03	5.853748E-02	7.158496E-04
6.349579E+03	5.862219E-02	7.173395E-04
6.359363E+03	5.870632E-02	7.188456E-04
6.369146E+03	5.878790E-02	7.203438E-04
6.378930E+03	5.886239E-02	7.217777E-04
6.388714E+03	5.892884E-02	7.231355E-04
6.398497E+03	5.898399E-02	7.243766E-04
6.408281E+03	5.902490E-02	7.254642E-04
6.418065E+03	5.905070E-02	7.263870E-04
6.427848E+03	5.905904E-02	7.271151E-04
6.437632E+03	5.904950E-02	7.276427E-04
6.447415E+03	5.902013E-02	7.279449E-04
6.457199E+03	5.897006E-02	7.280095E-04
6.466983E+03	5.889948E-02	7.278381E-04
6.476766E+03	5.880609E-02	7.274011E-04
6.486550E+03	5.869139E-02	7.267157E-04
6.496334E+03	5.855439E-02	7.257685E-04
6.506117E+03	5.839521E-02	7.245595E-04
6.515901E+03	5.821414E-02	7.230913E-04
6.525684E+03	5.801257E-02	7.213796E-04
6.535468E+03	5.778938E-02	7.194093E-04
6.545252E+03	5.754633E-02	7.172008E-04
6.555035E+03	5.728531E-02	7.147763E-04
6.564819E+03	5.700656E-02	7.121376E-04
6.574603E+03	5.671046E-02	7.092883E-04
6.584386E+03	5.640018E-02	7.062664E-04
6.594170E+03	5.607715E-02	7.030891E-04
6.603954E+03	5.574114E-02	6.997520E-04
6.613737E+03	5.539545E-02	6.962958E-04
6.623521E+03	5.504080E-02	6.927284E-04
6.633304E+03	5.467876E-02	6.890686E-04
6.643088E+03	5.431175E-02	6.853462E-04
6.652872E+03	5.394040E-02	6.815682E-04
6.662655E+03	5.356704E-02	6.777636E-04
6.672439E+03	5.319216E-02	6.739379E-04
6.682223E+03	5.281792E-02	6.701179E-04
6.692006E+03	5.244462E-02	6.663071E-04
6.701790E+03	5.207422E-02	6.625299E-04
6.711574E+03	5.170767E-02	6.587981E-04
6.721357E+03	5.134497E-02	6.551115E-04
6.731141E+03	5.098772E-02	6.514905E-04
6.740924E+03	5.063566E-02	6.479315E-04
6.750708E+03	5.029106E-02	6.444633E-04
6.760492E+03	4.995257E-02	6.410690E-04
6.770275E+03	4.962140E-02	6.377638E-04
6.780059E+03	4.929774E-02	6.345503E-04
6.789843E+03	4.898170E-02	6.314302E-04
6.799626E+03	4.867338E-02	6.284045E-04
6.809410E+03	4.837273E-02	6.254729E-04
6.819194E+03	4.807969E-02	6.226348E-04
6.828977E+03	4.779413E-02	6.198886E-04
6.838761E+03	4.751504E-02	6.172212E-04
6.848544E+03	4.724390E-02	6.146522E-04
6.858328E+03	4.697964E-02	6.121676E-04
6.868112E+03	4.672199E-02	6.097643E-04
6.877895E+03	4.647155E-02	6.074499E-04
6.887679E+03	4.622632E-02	6.051989E-04
6.897463E+03	4.598772E-02	6.030296E-04
6.907246E+03	4.575460E-02	6.009272E-04
6.917030E+03	4.552667E-02	5.988881E-04
6.926814E+03	4.530361E-02	5.969081E-04
6.936597E+03	4.508599E-02	5.949948E-04
6.946381E+03	4.487263E-02	5.931327E-04
6.956164E+03	4.466409E-02	5.913295E-04
6.965948E+03	4.445923E-02	5.895700E-04
6.975732E+03	4.425773E-02	5.878500E-04
6.985515E+03	4.406013E-02	5.861767E-04
6.995299E+03	4.386613E-02	5.845462E-04
7.005083E+03	4.367456E-02	5.829432E-04
7.014866E+03	4.348596E-02	5.813746E-04
7.024650E+03	4.329918E-02	5.798250E-04
7.034434E+03	4.311475E-02	5.783018E-04
7.044217E+03	4.293237E-02	5.768007E-04
7.054001E+03	4.275175E-02	5.753178E-04
7.063784E+03	4.257259E-02	5.738494E-04
7.073568E+03	4.239463E-02	5.723913E-04
7.083352E+03	4.221676E-02	5.709290E-04
7.093135E+03	4.204044E-02	5.694819E-04
7.102919E+03	4.186461E-02	5.680356E-04
7.112703E+03	4.168908E-02	5.665875E-04
7.122486E+03	4.151453E-02	5.651468E-04
7.132270E+03	4.133999E-02	5.637000E-04
7.142053E+03	4.116619E-02	5.622573E-04
7.151837E+03	4.099307E-02	5.608176E-04
7.161621E+03	4.082059E-02	5.593803E-04
7.171404E+03	4.064874E-02	5.579452E-04
7.181188E+03	4.047838E-02	5.565242E-04
7.190972E+03	4.030871E-02	5.551062E-04
7.200755E+03	4.014153E-02	5.537160E-04
7.210539E+03	3.997778E-02	5.523667E-04
7.220323E+03	3.981588E-02	5.510366E-04
7.230106E+03	3.965854E-02	5.497633E-04
7.239890E+03	3.950594E-02	5.485495E-04
7.249673E+03	3.935910E-02	5.474095E-04
7.259457E+03	3.921821E-02	5.463466E-04
7.269241E+03	3.908432E-02	5.453757E-04
7.279024E+03	3.895679E-02	5.444880E-04
7.288808E+03	3.883407E-02	5.436625E-04
7.298592E+03	3.871722E-02	5.429143E-04
7.308375E+03	3.860470E-02	5.422219E-04
7.318159E+03	3.849666E-02	5.415879E-04
7.327943E+03	3.839154E-02	5.409903E-04
7.337726E+03	3.829032E-02	5.404434E-04
7.347510E+03	3.819312E-02	5.399489E-04
7.357293E+03	3.809828E-02	5.394836E-04
7.367077E+03	3.800673E-02	5.390610E-04
7.376861E+03	3.791765E-02	5.386692E-04
7.386644E+03	3.783106E-02	5.383090E-04
7.396428E+03	3.774779E-02	5.379924E-04
7.406212E+03	3.766700E-02	5.377071E-04
7.415995E+03	3.758860E-02	5.374526E-04
7.425779E+03	3.751257E-02	5.372283E-04
7.435563E+03	3.743883E-02	5.370335E-04
7.445346E+03	3.736731E-02	5.368670E-04
7.455130E+03	3.729795E-02	5.367282E-04
7.464913E+03	3.723066E-02	5.366161E-04
7.474697E+03	3.716540E-02	5.365299E-04
7.484481E+03	3.710211E-02	5.364692E-04
7.494264E+03	3.704076E-02	5.364335E-04
7.504048E+03	3.698132E-02	5.364226E-04
7.513832E+03	3.692470E-02	5.364497E-04
7.523615E+03	3.686914E-02	5.364894E-04
7.533399E+03	3.681646E-02	5.365683E-04
7.543183E+03	3.676497E-02	5.366618E-04
7.552966E+03	3.671652E-02	5.367973E-04
7.562750E+03	3.667034E-02	5.369635E-04
7.572533E+03	3.662744E-02	5.371755E-04
7.582317E+03	3.658705E-02	5.374222E-04
7.592101E+03	3.654930E-02	5.377055E-04
