#wls	flux	fluxerr
1.565382E+03	1.780633E-02	2.303309E-04
1.604516E+03	1.820483E-02	2.351837E-04
1.643651E+03	1.860408E-02	2.400253E-04
1.682785E+03	1.901006E-02	2.449320E-04
1.721920E+03	1.941445E-02	2.497956E-04
1.761054E+03	1.982127E-02	2.546673E-04
1.800189E+03	2.022660E-02	2.594959E-04
1.839323E+03	2.062551E-02	2.642175E-04
1.878458E+03	2.102011E-02	2.688589E-04
1.917592E+03	2.139802E-02	2.732614E-04
1.956727E+03	2.176992E-02	2.775615E-04
1.995862E+03	2.214411E-02	2.818646E-04
2.034996E+03	2.253929E-02	2.864074E-04
2.074131E+03	2.300410E-02	2.918045E-04
2.113265E+03	2.357150E-02	2.984680E-04
2.152400E+03	2.426314E-02	3.066634E-04
2.191534E+03	2.506865E-02	3.162500E-04
2.230669E+03	2.595543E-02	3.268077E-04
2.269803E+03	2.690249E-02	3.380651E-04
2.308938E+03	2.787886E-02	3.496275E-04
2.348072E+03	2.887576E-02	3.613812E-04
2.387207E+03	2.988147E-02	3.731760E-04
2.426341E+03	3.089212E-02	3.849614E-04
2.465476E+03	3.190029E-02	3.966423E-04
2.504611E+03	3.290840E-02	4.082472E-04
2.543745E+03	3.391366E-02	4.197396E-04
2.582880E+03	3.490751E-02	4.310119E-04
2.622014E+03	3.589062E-02	4.420714E-04
2.661149E+03	3.685272E-02	4.527907E-04
2.700283E+03	3.778781E-02	4.630965E-04
2.739418E+03	3.868917E-02	4.729069E-04
2.778552E+03	3.954940E-02	4.821334E-04
2.817687E+03	4.035021E-02	4.905556E-04
2.856821E+03	4.108835E-02	4.981385E-04
2.895956E+03	4.175503E-02	5.047805E-04
2.935090E+03	4.235124E-02	5.104996E-04
2.944874E+03	4.248896E-02	5.117819E-04
2.954658E+03	4.262434E-02	5.130320E-04
2.964441E+03	4.275721E-02	5.142477E-04
2.974225E+03	4.288251E-02	5.153683E-04
2.984009E+03	4.300041E-02	5.163961E-04
2.993792E+03	4.312106E-02	5.174529E-04
3.003576E+03	4.323423E-02	5.184160E-04
3.013360E+03	4.334949E-02	5.194005E-04
3.023143E+03	4.345674E-02	5.202851E-04
3.032927E+03	4.356064E-02	5.211259E-04
3.042710E+03	4.366090E-02	5.219194E-04
3.052494E+03	4.375727E-02	5.226628E-04
3.062278E+03	4.384950E-02	5.233533E-04
3.072061E+03	4.394214E-02	5.240451E-04
3.081845E+03	4.402532E-02	5.246207E-04
3.091629E+03	4.410837E-02	5.251914E-04
3.101412E+03	4.419101E-02	5.257538E-04
3.111196E+03	4.426823E-02	5.262483E-04
3.120980E+03	4.434446E-02	5.267278E-04
3.130763E+03	4.441475E-02	5.271336E-04
3.140547E+03	4.448817E-02	5.275733E-04
3.150330E+03	4.455512E-02	5.279331E-04
3.160114E+03	4.461996E-02	5.282649E-04
3.169898E+03	4.468243E-02	5.285654E-04
3.179681E+03	4.474671E-02	5.288844E-04
3.189465E+03	4.480798E-02	5.291647E-04
3.199249E+03	4.486594E-02	5.294030E-04
3.209032E+03	4.492474E-02	5.296481E-04
3.218816E+03	4.498400E-02	5.298957E-04
3.228600E+03	4.504335E-02	5.301414E-04
3.238383E+03	4.510243E-02	5.303809E-04
3.248167E+03	4.516515E-02	5.306601E-04
3.257950E+03	4.522681E-02	5.309238E-04
3.267734E+03	4.528706E-02	5.311679E-04
3.277518E+03	4.534971E-02	5.314371E-04
3.287301E+03	4.541845E-02	5.317746E-04
3.297085E+03	4.548456E-02	5.320779E-04
3.306869E+03	4.555581E-02	5.324383E-04
3.316652E+03	4.562767E-02	5.328024E-04
3.326436E+03	4.570768E-02	5.332584E-04
3.336220E+03	4.578735E-02	5.337068E-04
3.346003E+03	4.587409E-02	5.342342E-04
3.355787E+03	4.596347E-02	5.347886E-04
3.365570E+03	4.605886E-02	5.354093E-04
3.375354E+03	4.615972E-02	5.360896E-04
3.385138E+03	4.626553E-02	5.368234E-04
3.394921E+03	4.637951E-02	5.376479E-04
3.404705E+03	4.649744E-02	5.385139E-04
3.414489E+03	4.662252E-02	5.394584E-04
3.424272E+03	4.675427E-02	5.404754E-04
3.434056E+03	4.689578E-02	5.416004E-04
3.443839E+03	4.704305E-02	5.427871E-04
3.453623E+03	4.719919E-02	5.440711E-04
3.463407E+03	4.736380E-02	5.454474E-04
3.473190E+03	4.753657E-02	5.469120E-04
3.482974E+03	4.772051E-02	5.484996E-04
3.492758E+03	4.791206E-02	5.501687E-04
3.502541E+03	4.811431E-02	5.519545E-04
3.512325E+03	4.832392E-02	5.538184E-04
3.522109E+03	4.854720E-02	5.558323E-04
3.531892E+03	4.878092E-02	5.579589E-04
3.541676E+03	4.902514E-02	5.601984E-04
3.551459E+03	4.928001E-02	5.625521E-04
3.561243E+03	4.954872E-02	5.650563E-04
3.571027E+03	4.982850E-02	5.676786E-04
3.580810E+03	5.011974E-02	5.704232E-04
3.590594E+03	5.042854E-02	5.733591E-04
3.600378E+03	5.074952E-02	5.764244E-04
3.610161E+03	5.108322E-02	5.796250E-04
3.619945E+03	5.143569E-02	5.830288E-04
3.629729E+03	5.180188E-02	5.865781E-04
3.639512E+03	5.218510E-02	5.903098E-04
3.649296E+03	5.258323E-02	5.941993E-04
3.659079E+03	5.299953E-02	5.982827E-04
3.668863E+03	5.343448E-02	6.025652E-04
3.678647E+03	5.388862E-02	6.070517E-04
3.688430E+03	5.435992E-02	6.117189E-04
3.698214E+03	5.485139E-02	6.166000E-04
3.707998E+03	5.536098E-02	6.216712E-04
3.717781E+03	5.589156E-02	6.269639E-04
3.727565E+03	5.644099E-02	6.324536E-04
3.737349E+03	5.700961E-02	6.381432E-04
3.747132E+03	5.759762E-02	6.440342E-04
3.756916E+03	5.820519E-02	6.501279E-04
3.766699E+03	5.883236E-02	6.564240E-04
3.776483E+03	5.947685E-02	6.628962E-04
3.786267E+03	6.014314E-02	6.695938E-04
3.796050E+03	6.082425E-02	6.764383E-04
3.805834E+03	6.152446E-02	6.834768E-04
3.815618E+03	6.224121E-02	6.906801E-04
3.825401E+03	6.297190E-02	6.980187E-04
3.835185E+03	6.372042E-02	7.055353E-04
3.844969E+03	6.447968E-02	7.131504E-04
3.854752E+03	6.525337E-02	7.209048E-04
3.864536E+03	6.603860E-02	7.287657E-04
3.874319E+03	6.683453E-02	7.367236E-04
3.884103E+03	6.763816E-02	7.447448E-04
3.893887E+03	6.844852E-02	7.528186E-04
3.903670E+03	6.926662E-02	7.609557E-04
3.913454E+03	7.008715E-02	7.690975E-04
3.923238E+03	7.090892E-02	7.772308E-04
3.933021E+03	7.173265E-02	7.853636E-04
3.942805E+03	7.255493E-02	7.934582E-04
3.952589E+03	7.337432E-02	8.014992E-04
3.962372E+03	7.418733E-02	8.094485E-04
3.972156E+03	7.499243E-02	8.172897E-04
3.981939E+03	7.578805E-02	8.250059E-04
3.991723E+03	7.657259E-02	8.325802E-04
4.001507E+03	7.734251E-02	8.399744E-04
4.011290E+03	7.809622E-02	8.471719E-04
4.021074E+03	7.883212E-02	8.541560E-04
4.030858E+03	7.954680E-02	8.608905E-04
4.040641E+03	8.024064E-02	8.673803E-04
4.050425E+03	8.091032E-02	8.735903E-04
4.060208E+03	8.155264E-02	8.794870E-04
4.069992E+03	8.216820E-02	8.850778E-04
4.079776E+03	8.275399E-02	8.903316E-04
4.089559E+03	8.331079E-02	8.952578E-04
4.099343E+03	8.383404E-02	8.998086E-04
4.109127E+03	8.432476E-02	9.039963E-04
4.118910E+03	8.478052E-02	9.077961E-04
4.128694E+03	8.520257E-02	9.112228E-04
4.138478E+03	8.558705E-02	9.142366E-04
4.148261E+03	8.593723E-02	9.168736E-04
4.158045E+03	8.624957E-02	9.190978E-04
4.167828E+03	8.652587E-02	9.209296E-04
4.177612E+03	8.676630E-02	9.223725E-04
4.187396E+03	8.696789E-02	9.233962E-04
4.197179E+03	8.713441E-02	9.240422E-04
4.206963E+03	8.726639E-02	9.243178E-04
4.216747E+03	8.736128E-02	9.241971E-04
4.226530E+03	8.742145E-02	9.237068E-04
4.236314E+03	8.744777E-02	9.228576E-04
4.246098E+03	8.743966E-02	9.216446E-04
4.255881E+03	8.739974E-02	9.200968E-04
4.265665E+03	8.732922E-02	9.182283E-04
4.275448E+03	8.722802E-02	9.160394E-04
4.285232E+03	8.709784E-02	9.135493E-04
4.295016E+03	8.693929E-02	9.107655E-04
4.304799E+03	8.675775E-02	9.077455E-04
4.314583E+03	8.655320E-02	9.044900E-04
4.324367E+03	8.632884E-02	9.010334E-04
4.334150E+03	8.608804E-02	8.974112E-04
4.343934E+03	8.583421E-02	8.936600E-04
4.353718E+03	8.557076E-02	8.898153E-04
4.363501E+03	8.529835E-02	8.858847E-04
4.373285E+03	8.502158E-02	8.819161E-04
4.383068E+03	8.474479E-02	8.779546E-04
4.392852E+03	8.446827E-02	8.740031E-04
4.402636E+03	8.419723E-02	8.701157E-04
4.412419E+03	8.393155E-02	8.662907E-04
4.422203E+03	8.367468E-02	8.625635E-04
4.431987E+03	8.342850E-02	8.589532E-04
4.441770E+03	8.319344E-02	8.554636E-04
4.451554E+03	8.297085E-02	8.521084E-04
4.461338E+03	8.276184E-02	8.488984E-04
4.471121E+03	8.256719E-02	8.458409E-04
4.480905E+03	8.238625E-02	8.429289E-04
4.490688E+03	8.222039E-02	8.401759E-04
4.500472E+03	8.206734E-02	8.375580E-04
4.510256E+03	8.192903E-02	8.350944E-04
4.520039E+03	8.180162E-02	8.327456E-04
4.529823E+03	8.168768E-02	8.305372E-04
4.539607E+03	8.158299E-02	8.284259E-04
4.549390E+03	8.148649E-02	8.264005E-04
4.559174E+03	8.139909E-02	8.244700E-04
4.568958E+03	8.131629E-02	8.225884E-04
4.578741E+03	8.123774E-02	8.207523E-04
4.588525E+03	8.116306E-02	8.189574E-04
4.598308E+03	8.108872E-02	8.171682E-04
4.608092E+03	8.101331E-02	8.153703E-04
4.617876E+03	8.093648E-02	8.135605E-04
4.627659E+03	8.085593E-02	8.117156E-04
4.637443E+03	8.077142E-02	8.098335E-04
4.647227E+03	8.068187E-02	8.079035E-04
4.657010E+03	8.058628E-02	8.059157E-04
4.666794E+03	8.048378E-02	8.038618E-04
4.676577E+03	8.037560E-02	8.017543E-04
4.686361E+03	8.026111E-02	7.995872E-04
4.696145E+03	8.013981E-02	7.973558E-04
4.705928E+03	8.001040E-02	7.950474E-04
4.715712E+03	7.987264E-02	7.926600E-04
4.725496E+03	7.972453E-02	7.901743E-04
4.735279E+03	7.956799E-02	7.876095E-04
4.745063E+03	7.940123E-02	7.849482E-04
4.754847E+03	7.922445E-02	7.821932E-04
4.764630E+03	7.903976E-02	7.793652E-04
4.774414E+03	7.884562E-02	7.764499E-04
4.784197E+03	7.864243E-02	7.734512E-04
4.793981E+03	7.843243E-02	7.703916E-04
4.803765E+03	7.821514E-02	7.672669E-04
4.813548E+03	7.799110E-02	7.640823E-04
4.823332E+03	7.776168E-02	7.608520E-04
4.833116E+03	7.752746E-02	7.575815E-04
4.842899E+03	7.728816E-02	7.542685E-04
4.852683E+03	7.704615E-02	7.509363E-04
4.862467E+03	7.680206E-02	7.475912E-04
4.872250E+03	7.655574E-02	7.442318E-04
4.882034E+03	7.630873E-02	7.408732E-04
4.891817E+03	7.606178E-02	7.375227E-04
4.901601E+03	7.581647E-02	7.341958E-04
4.911385E+03	7.557356E-02	7.308997E-04
4.921168E+03	7.533298E-02	7.276338E-04
4.930952E+03	7.509717E-02	7.244214E-04
4.940736E+03	7.486523E-02	7.212539E-04
4.950519E+03	7.463954E-02	7.181540E-04
4.960303E+03	7.442080E-02	7.151283E-04
4.970087E+03	7.420890E-02	7.121756E-04
4.979870E+03	7.400529E-02	7.093094E-04
4.989654E+03	7.381135E-02	7.065428E-04
4.999437E+03	7.362603E-02	7.038655E-04
5.009221E+03	7.345140E-02	7.012970E-04
5.019005E+03	7.328710E-02	6.988334E-04
5.028788E+03	7.313427E-02	6.964854E-04
5.038572E+03	7.299240E-02	6.942478E-04
5.048356E+03	7.286250E-02	6.921297E-04
5.058139E+03	7.274469E-02	6.901320E-04
5.067923E+03	7.263904E-02	6.882549E-04
5.077707E+03	7.254548E-02	6.864976E-04
5.087490E+03	7.246389E-02	6.848584E-04
5.097274E+03	7.239402E-02	6.833347E-04
5.107057E+03	7.233555E-02	6.819231E-04
5.116841E+03	7.228875E-02	6.806258E-04
5.126625E+03	7.225156E-02	6.794231E-04
5.136408E+03	7.222477E-02	6.783224E-04
5.146192E+03	7.220761E-02	6.773158E-04
5.155976E+03	7.219762E-02	6.763803E-04
5.165759E+03	7.219529E-02	6.755203E-04
5.175543E+03	7.219949E-02	6.747250E-04
5.185327E+03	7.220826E-02	6.739761E-04
5.195110E+03	7.222033E-02	6.732615E-04
5.204894E+03	7.223511E-02	6.725760E-04
5.214677E+03	7.225051E-02	6.718999E-04
5.224461E+03	7.226591E-02	6.712278E-04
5.234245E+03	7.227926E-02	6.705407E-04
5.244028E+03	7.229004E-02	6.698338E-04
5.253812E+03	7.229631E-02	6.690896E-04
5.263596E+03	7.229773E-02	6.683051E-04
5.273379E+03	7.229263E-02	6.674652E-04
5.283163E+03	7.228094E-02	6.665695E-04
5.292946E+03	7.226202E-02	6.656127E-04
5.302730E+03	7.223467E-02	6.645838E-04
5.312514E+03	7.219933E-02	6.634874E-04
5.322297E+03	7.215509E-02	6.623155E-04
5.332081E+03	7.210338E-02	6.610817E-04
5.341865E+03	7.204282E-02	6.597736E-04
5.351648E+03	7.197351E-02	6.583925E-04
5.361432E+03	7.189699E-02	6.569528E-04
5.371216E+03	7.181185E-02	6.554419E-04
5.380999E+03	7.171871E-02	6.538658E-04
5.390783E+03	7.161736E-02	6.522226E-04
5.400566E+03	7.150744E-02	6.505094E-04
5.410350E+03	7.138777E-02	6.487157E-04
5.420134E+03	7.125861E-02	6.468442E-04
5.429917E+03	7.111873E-02	6.448840E-04
5.439701E+03	7.096982E-02	6.428508E-04
5.449485E+03	7.080937E-02	6.407219E-04
5.459268E+03	7.063848E-02	6.385078E-04
5.469052E+03	7.045626E-02	6.362007E-04
5.478836E+03	7.026333E-02	6.338065E-04
5.488619E+03	7.005907E-02	6.313199E-04
5.498403E+03	6.984435E-02	6.287491E-04
5.508186E+03	6.961883E-02	6.260912E-04
5.517970E+03	6.938365E-02	6.233567E-04
5.527754E+03	6.913870E-02	6.205449E-04
5.537537E+03	6.888535E-02	6.176684E-04
5.547321E+03	6.862372E-02	6.147284E-04
5.557105E+03	6.835538E-02	6.117392E-04
5.566888E+03	6.808125E-02	6.087091E-04
5.576672E+03	6.780100E-02	6.056354E-04
5.586456E+03	6.751769E-02	6.025454E-04
5.596239E+03	6.723037E-02	5.994308E-04
5.606023E+03	6.694146E-02	5.963132E-04
5.615806E+03	6.665201E-02	5.932020E-04
5.625590E+03	6.636245E-02	5.901008E-04
5.635374E+03	6.607380E-02	5.870190E-04
5.645157E+03	6.578708E-02	5.839653E-04
5.654941E+03	6.550389E-02	5.809540E-04
5.664725E+03	6.522391E-02	5.779822E-04
5.674508E+03	6.494931E-02	5.750688E-04
5.684292E+03	6.468028E-02	5.722157E-04
5.694076E+03	6.441700E-02	5.694241E-04
5.703859E+03	6.416149E-02	5.667117E-04
5.713643E+03	6.391319E-02	5.640735E-04
5.723426E+03	6.367334E-02	5.615204E-04
5.733210E+03	6.344253E-02	5.590571E-04
5.742994E+03	6.322063E-02	5.566825E-04
5.752777E+03	6.300806E-02	5.544002E-04
5.762561E+03	6.280576E-02	5.522181E-04
5.772345E+03	6.261336E-02	5.501328E-04
5.782128E+03	6.243096E-02	5.481452E-04
5.791912E+03	6.225860E-02	5.462553E-04
5.801696E+03	6.209616E-02	5.444620E-04
5.811479E+03	6.194340E-02	5.427630E-04
5.821263E+03	6.179879E-02	5.411448E-04
5.831046E+03	6.166361E-02	5.396185E-04
5.840830E+03	6.153547E-02	5.381631E-04
5.850614E+03	6.141425E-02	5.367775E-04
5.860397E+03	6.129913E-02	5.354544E-04
5.870181E+03	6.118918E-02	5.341858E-04
5.879965E+03	6.108225E-02	5.329527E-04
5.889748E+03	6.097844E-02	5.317562E-04
5.899532E+03	6.087611E-02	5.305820E-04
5.909315E+03	6.077358E-02	5.294154E-04
5.919099E+03	6.066975E-02	5.282470E-04
5.928883E+03	6.056359E-02	5.270678E-04
5.938666E+03	6.045349E-02	5.258641E-04
5.948450E+03	6.033914E-02	5.246330E-04
5.958234E+03	6.021851E-02	5.233574E-04
5.968017E+03	6.009087E-02	5.220306E-04
5.977801E+03	5.995558E-02	5.206477E-04
5.987585E+03	5.981159E-02	5.191992E-04
5.997368E+03	5.965792E-02	5.176772E-04
6.007152E+03	5.949435E-02	5.160796E-04
6.016935E+03	5.932019E-02	5.144007E-04
6.026719E+03	5.913491E-02	5.126360E-04
6.036503E+03	5.893753E-02	5.107771E-04
6.046286E+03	5.872778E-02	5.088219E-04
6.056070E+03	5.850554E-02	5.067694E-04
6.065854E+03	5.827193E-02	5.046293E-04
6.075637E+03	5.802763E-02	5.024077E-04
6.085421E+03	5.777455E-02	5.001210E-04
6.095205E+03	5.751412E-02	4.977819E-04
6.104988E+03	5.724731E-02	4.953986E-04
6.114772E+03	5.697574E-02	4.929851E-04
6.124555E+03	5.670108E-02	4.905559E-04
6.134339E+03	5.642506E-02	4.881260E-04
6.144123E+03	5.614836E-02	4.857013E-04
6.153906E+03	5.587394E-02	4.833072E-04
6.163690E+03	5.560252E-02	4.809501E-04
6.173474E+03	5.533543E-02	4.786412E-04
6.183257E+03	5.507506E-02	4.764014E-04
6.193041E+03	5.482216E-02	4.742371E-04
6.202825E+03	5.457908E-02	4.721685E-04
6.212608E+03	5.434645E-02	4.702011E-04
6.222392E+03	5.412595E-02	4.683495E-04
6.232175E+03	5.391913E-02	4.666271E-04
6.241959E+03	5.372636E-02	4.650371E-04
6.251743E+03	5.354895E-02	4.635910E-04
6.261526E+03	5.338808E-02	4.622990E-04
6.271310E+03	5.324418E-02	4.611651E-04
6.281094E+03	5.311755E-02	4.601918E-04
6.290877E+03	5.300878E-02	4.593845E-04
6.300661E+03	5.291775E-02	4.587422E-04
6.310445E+03	5.284520E-02	4.582713E-04
6.320228E+03	5.279055E-02	4.579666E-04
6.330012E+03	5.275355E-02	4.578260E-04
6.339795E+03	5.273369E-02	4.578451E-04
6.349579E+03	5.273081E-02	4.580225E-04
6.359363E+03	5.274343E-02	4.583454E-04
6.369146E+03	5.276872E-02	4.587892E-04
6.378930E+03	5.280420E-02	4.593323E-04
6.388714E+03	5.284840E-02	4.599621E-04
6.398497E+03	5.289859E-02	4.606545E-04
6.408281E+03	5.295196E-02	4.613853E-04
6.418065E+03	5.300738E-02	4.621444E-04
6.427848E+03	5.306194E-02	4.629064E-04
6.437632E+03	5.311329E-02	4.636505E-04
6.447415E+03	5.315910E-02	4.643563E-04
6.457199E+03	5.319765E-02	4.650086E-04
6.466983E+03	5.322674E-02	4.655877E-04
6.476766E+03	5.324430E-02	4.660753E-04
6.486550E+03	5.324900E-02	4.664593E-04
6.496334E+03	5.323792E-02	4.667139E-04
6.506117E+03	5.321134E-02	4.668408E-04
6.515901E+03	5.316682E-02	4.668183E-04
6.525684E+03	5.310393E-02	4.666421E-04
6.535468E+03	5.302254E-02	4.663103E-04
6.545252E+03	5.292159E-02	4.658131E-04
6.555035E+03	5.280149E-02	4.651536E-04
6.564819E+03	5.266173E-02	4.643264E-04
6.574603E+03	5.250384E-02	4.633447E-04
6.584386E+03	5.232781E-02	4.622075E-04
6.594170E+03	5.213446E-02	4.609214E-04
6.603954E+03	5.192479E-02	4.594948E-04
6.613737E+03	5.170059E-02	4.579428E-04
6.623521E+03	5.146319E-02	4.562766E-04
6.633304E+03	5.121347E-02	4.545036E-04
6.643088E+03	5.095419E-02	4.526475E-04
6.652872E+03	5.068634E-02	4.507169E-04
6.662655E+03	5.041099E-02	4.487208E-04
6.672439E+03	5.013162E-02	4.466897E-04
6.682223E+03	4.984809E-02	4.446219E-04
6.692006E+03	4.956319E-02	4.425424E-04
6.701790E+03	4.927792E-02	4.404595E-04
6.711574E+03	4.899494E-02	4.383969E-04
6.721357E+03	4.871390E-02	4.363514E-04
6.731141E+03	4.843789E-02	4.343505E-04
6.740924E+03	4.816692E-02	4.323943E-04
6.750708E+03	4.790270E-02	4.304980E-04
6.760492E+03	4.764620E-02	4.286704E-04
6.770275E+03	4.739771E-02	4.269143E-04
6.780059E+03	4.715914E-02	4.252468E-04
6.789843E+03	4.692998E-02	4.236635E-04
6.799626E+03	4.671132E-02	4.221744E-04
6.809410E+03	4.650359E-02	4.207835E-04
6.819194E+03	4.630709E-02	4.194939E-04
6.828977E+03	4.612207E-02	4.183079E-04
6.838761E+03	4.594807E-02	4.172216E-04
6.848544E+03	4.578573E-02	4.162411E-04
6.858328E+03	4.563502E-02	4.153664E-04
6.868112E+03	4.549586E-02	4.145968E-04
6.877895E+03	4.536752E-02	4.139261E-04
6.887679E+03	4.524981E-02	4.133528E-04
6.897463E+03	4.514304E-02	4.128799E-04
6.907246E+03	4.504633E-02	4.124998E-04
6.917030E+03	4.495937E-02	4.122097E-04
6.926814E+03	4.488179E-02	4.120064E-04
6.936597E+03	4.481317E-02	4.118865E-04
6.946381E+03	4.475312E-02	4.118464E-04
6.956164E+03	4.470116E-02	4.118821E-04
6.965948E+03	4.465631E-02	4.119845E-04
6.975732E+03	4.461807E-02	4.121494E-04
6.985515E+03	4.458597E-02	4.123724E-04
6.995299E+03	4.456008E-02	4.126545E-04
7.005083E+03	4.453820E-02	4.129753E-04
7.014866E+03	4.452154E-02	4.133462E-04
7.024650E+03	4.450791E-02	4.137469E-04
7.034434E+03	4.449739E-02	4.141781E-04
7.044217E+03	4.448947E-02	4.146353E-04
7.054001E+03	4.448313E-02	4.151089E-04
7.063784E+03	4.447792E-02	4.155946E-04
7.073568E+03	4.447338E-02	4.160883E-04
7.083352E+03	4.446852E-02	4.165806E-04
7.093135E+03	4.446295E-02	4.170677E-04
7.102919E+03	4.445573E-02	4.175408E-04
7.112703E+03	4.444708E-02	4.180017E-04
7.122486E+03	4.443554E-02	4.184368E-04
7.132270E+03	4.442083E-02	4.188432E-04
7.142053E+03	4.440270E-02	4.192182E-04
7.151837E+03	4.438091E-02	4.195595E-04
7.161621E+03	4.435416E-02	4.198547E-04
7.171404E+03	4.432228E-02	4.201018E-04
7.181188E+03	4.428516E-02	4.202996E-04
7.190972E+03	4.424214E-02	4.204415E-04
7.200755E+03	4.419315E-02	4.205268E-04
7.210539E+03	4.413762E-02	4.205496E-04
7.220323E+03	4.407495E-02	4.205040E-04
7.230106E+03	4.400519E-02	4.203899E-04
7.239890E+03	4.392836E-02	4.202076E-04
7.249673E+03	4.384341E-02	4.199465E-04
7.259457E+03	4.375096E-02	4.196122E-04
7.269241E+03	4.364999E-02	4.191947E-04
7.279024E+03	4.354117E-02	4.186999E-04
7.288808E+03	4.342456E-02	4.181282E-04
7.298592E+03	4.330085E-02	4.174859E-04
7.308375E+03	4.316957E-02	4.167681E-04
7.318159E+03	4.303135E-02	4.159807E-04
7.327943E+03	4.288687E-02	4.151298E-04
7.337726E+03	4.273619E-02	4.142158E-04
7.347510E+03	4.257992E-02	4.132444E-04
7.357293E+03	4.241812E-02	4.122159E-04
7.367077E+03	4.225083E-02	4.111306E-04
7.376861E+03	4.207921E-02	4.099992E-04
7.386644E+03	4.190325E-02	4.088218E-04
7.396428E+03	4.172244E-02	4.075929E-04
7.406212E+03	4.153788E-02	4.063232E-04
7.415995E+03	4.134902E-02	4.050074E-04
7.425779E+03	4.115697E-02	4.036557E-04
7.435563E+03	4.096118E-02	4.022629E-04
7.445346E+03	4.076221E-02	4.008344E-04
7.455130E+03	4.055956E-02	3.993648E-04
7.464913E+03	4.035433E-02	3.978650E-04
7.474697E+03	4.014656E-02	3.963354E-04
7.484481E+03	3.993581E-02	3.947713E-04
7.494264E+03	3.972217E-02	3.931736E-04
7.504048E+03	3.950683E-02	3.915539E-04
7.513832E+03	3.928937E-02	3.899080E-04
7.523615E+03	3.906999E-02	3.882378E-04
7.533399E+03	3.884887E-02	3.865449E-04
7.543183E+03	3.862675E-02	3.848368E-04
7.552966E+03	3.840335E-02	3.831104E-04
7.562750E+03	3.817895E-02	3.813686E-04
7.572533E+03	3.795432E-02	3.796191E-04
7.582317E+03	3.772926E-02	3.778598E-04
7.592101E+03	3.750406E-02	3.760936E-04
