#wls	flux	fluxerr
1.565382E+03	8.968468E-03	3.790365E-04
1.604516E+03	9.192949E-03	3.878538E-04
1.643651E+03	9.419344E-03	3.967006E-04
1.682785E+03	9.648725E-03	4.056197E-04
1.721920E+03	9.876916E-03	4.144335E-04
1.761054E+03	1.010555E-02	4.232088E-04
1.800189E+03	1.033063E-02	4.317765E-04
1.839323E+03	1.055112E-02	4.400919E-04
1.878458E+03	1.076208E-02	4.479492E-04
1.917592E+03	1.096436E-02	4.553845E-04
1.956727E+03	1.115534E-02	4.622885E-04
1.995862E+03	1.133882E-02	4.688208E-04
2.034996E+03	1.152606E-02	4.754456E-04
2.074131E+03	1.173910E-02	4.830667E-04
2.113265E+03	1.199429E-02	4.923455E-04
2.152400E+03	1.229961E-02	5.035929E-04
2.191534E+03	1.264854E-02	5.165247E-04
2.230669E+03	1.302966E-02	5.306578E-04
2.269803E+03	1.342502E-02	5.452488E-04
2.308938E+03	1.382279E-02	5.598105E-04
2.348072E+03	1.422013E-02	5.742223E-04
2.387207E+03	1.461119E-02	5.882457E-04
2.426341E+03	1.499404E-02	6.018005E-04
2.465476E+03	1.537406E-02	6.151013E-04
2.504611E+03	1.574596E-02	6.279337E-04
2.543745E+03	1.611084E-02	6.403406E-04
2.582880E+03	1.647187E-02	6.524455E-04
2.622014E+03	1.682521E-02	6.640949E-04
2.661149E+03	1.717121E-02	6.753014E-04
2.700283E+03	1.750993E-02	6.860660E-04
2.739418E+03	1.784342E-02	6.964670E-04
2.778552E+03	1.816453E-02	7.062254E-04
2.817687E+03	1.847922E-02	7.155732E-04
2.856821E+03	1.878217E-02	7.243040E-04
2.895956E+03	1.907233E-02	7.323784E-04
2.935090E+03	1.935059E-02	7.398336E-04
2.944874E+03	1.941862E-02	7.416131E-04
2.954658E+03	1.948550E-02	7.433387E-04
2.964441E+03	1.955118E-02	7.450081E-04
2.974225E+03	1.961565E-02	7.466216E-04
2.984009E+03	1.968109E-02	7.482618E-04
2.993792E+03	1.974345E-02	7.497745E-04
3.003576E+03	1.980678E-02	7.513142E-04
3.013360E+03	1.986889E-02	7.527975E-04
3.023143E+03	1.993175E-02	7.542988E-04
3.032927E+03	1.999321E-02	7.557373E-04
3.042710E+03	2.005320E-02	7.571098E-04
3.052494E+03	2.011164E-02	7.584140E-04
3.062278E+03	2.017046E-02	7.597226E-04
3.072061E+03	2.022762E-02	7.609581E-04
3.081845E+03	2.028499E-02	7.621921E-04
3.091629E+03	2.034057E-02	7.633485E-04
3.101412E+03	2.039429E-02	7.644251E-04
3.111196E+03	2.044808E-02	7.654945E-04
3.120980E+03	2.050187E-02	7.665540E-04
3.130763E+03	2.055369E-02	7.675300E-04
3.140547E+03	2.060351E-02	7.684216E-04
3.150330E+03	2.065514E-02	7.693711E-04
3.160114E+03	2.070284E-02	7.701643E-04
3.169898E+03	2.075229E-02	7.710127E-04
3.179681E+03	2.079969E-02	7.717756E-04
3.189465E+03	2.084694E-02	7.725230E-04
3.199249E+03	2.089403E-02	7.732548E-04
3.209032E+03	2.093913E-02	7.739034E-04
3.218816E+03	2.098410E-02	7.745377E-04
3.228600E+03	2.102898E-02	7.751590E-04
3.238383E+03	2.107378E-02	7.757678E-04
3.248167E+03	2.111856E-02	7.763658E-04
3.257950E+03	2.116157E-02	7.768896E-04
3.267734E+03	2.120643E-02	7.774711E-04
3.277518E+03	2.124967E-02	7.779837E-04
3.287301E+03	2.129484E-02	7.785572E-04
3.297085E+03	2.133855E-02	7.790676E-04
3.306869E+03	2.138433E-02	7.796436E-04
3.316652E+03	2.143053E-02	7.802247E-04
3.326436E+03	2.147559E-02	7.807541E-04
3.336220E+03	2.152294E-02	7.813564E-04
3.346003E+03	2.157100E-02	7.819743E-04
3.355787E+03	2.162151E-02	7.826705E-04
3.365570E+03	2.167294E-02	7.833889E-04
3.375354E+03	2.172379E-02	7.840754E-04
3.385138E+03	2.177900E-02	7.849080E-04
3.394921E+03	2.183388E-02	7.857176E-04
3.404705E+03	2.189173E-02	7.866222E-04
3.414489E+03	2.195265E-02	7.876251E-04
3.424272E+03	2.201520E-02	7.886741E-04
3.434056E+03	2.207950E-02	7.897733E-04
3.443839E+03	2.214722E-02	7.909821E-04
3.453623E+03	2.221697E-02	7.922501E-04
3.463407E+03	2.229038E-02	7.936348E-04
3.473190E+03	2.236757E-02	7.951399E-04
3.482974E+03	2.244716E-02	7.967163E-04
3.492758E+03	2.253078E-02	7.984203E-04
3.502541E+03	2.261852E-02	8.002552E-04
3.512325E+03	2.271052E-02	8.022246E-04
3.522109E+03	2.280545E-02	8.042809E-04
3.531892E+03	2.290485E-02	8.064780E-04
3.541676E+03	2.300886E-02	8.088197E-04
3.551459E+03	2.311755E-02	8.113080E-04
3.561243E+03	2.323103E-02	8.139455E-04
3.571027E+03	2.334802E-02	8.166863E-04
3.580810E+03	2.347138E-02	8.196301E-04
3.590594E+03	2.359978E-02	8.227290E-04
3.600378E+03	2.373196E-02	8.259380E-04
3.610161E+03	2.387069E-02	8.293530E-04
3.619945E+03	2.401466E-02	8.329271E-04
3.629729E+03	2.416391E-02	8.366605E-04
3.639512E+03	2.431848E-02	8.405535E-04
3.649296E+03	2.447837E-02	8.446053E-04
3.659079E+03	2.464490E-02	8.488603E-04
3.668863E+03	2.481543E-02	8.532258E-04
3.678647E+03	2.499254E-02	8.577903E-04
3.688430E+03	2.517487E-02	8.625053E-04
3.698214E+03	2.536364E-02	8.674119E-04
3.707998E+03	2.555747E-02	8.724610E-04
3.717781E+03	2.575496E-02	8.776043E-04
3.727565E+03	2.595982E-02	8.829671E-04
3.737349E+03	2.616806E-02	8.884124E-04
3.747132E+03	2.638206E-02	8.940197E-04
3.756916E+03	2.660034E-02	8.997383E-04
3.766699E+03	2.682395E-02	9.056022E-04
3.776483E+03	2.705137E-02	9.115595E-04
3.786267E+03	2.728235E-02	9.176004E-04
3.796050E+03	2.751787E-02	9.237569E-04
3.805834E+03	2.775634E-02	9.299753E-04
3.815618E+03	2.799748E-02	9.362448E-04
3.825401E+03	2.824094E-02	9.425535E-04
3.835185E+03	2.848760E-02	9.489297E-04
3.844969E+03	2.873584E-02	9.553193E-04
3.854752E+03	2.898652E-02	9.617497E-04
3.864536E+03	2.923679E-02	9.681263E-04
3.874319E+03	2.948868E-02	9.745162E-04
3.884103E+03	2.974058E-02	9.808652E-04
3.893887E+03	2.999205E-02	9.871594E-04
3.903670E+03	3.024387E-02	9.934237E-04
3.913454E+03	3.049322E-02	9.995657E-04
3.923238E+03	3.074206E-02	1.005650E-03
3.933021E+03	3.098759E-02	1.011585E-03
3.942805E+03	3.123059E-02	1.017396E-03
3.952589E+03	3.147183E-02	1.023110E-03
3.962372E+03	3.170855E-02	1.028636E-03
3.972156E+03	3.194156E-02	1.034002E-03
3.981939E+03	3.216934E-02	1.039159E-03
3.991723E+03	3.239388E-02	1.044172E-03
4.001507E+03	3.261254E-02	1.048957E-03
4.011290E+03	3.282506E-02	1.053507E-03
4.021074E+03	3.303232E-02	1.057851E-03
4.030858E+03	3.323298E-02	1.061947E-03
4.040641E+03	3.342687E-02	1.065791E-03
4.050425E+03	3.361383E-02	1.069379E-03
4.060208E+03	3.379491E-02	1.072746E-03
4.069992E+03	3.396781E-02	1.075821E-03
4.079776E+03	3.413364E-02	1.078639E-03
4.089559E+03	3.429242E-02	1.081204E-03
4.099343E+03	3.444423E-02	1.083519E-03
4.109127E+03	3.458813E-02	1.085555E-03
4.118910E+03	3.472428E-02	1.087321E-03
4.128694E+03	3.485398E-02	1.088857E-03
4.138478E+03	3.497642E-02	1.090140E-03
4.148261E+03	3.509190E-02	1.091182E-03
4.158045E+03	3.519973E-02	1.091961E-03
4.167828E+03	3.530239E-02	1.092557E-03
4.177612E+03	3.539820E-02	1.092918E-03
4.187396E+03	3.548764E-02	1.093061E-03
4.197179E+03	3.557220E-02	1.093034E-03
4.206963E+03	3.565138E-02	1.092821E-03
4.216747E+03	3.572570E-02	1.092441E-03
4.226530E+03	3.579472E-02	1.091881E-03
4.236314E+03	3.586097E-02	1.091218E-03
4.246098E+03	3.592303E-02	1.090411E-03
4.255881E+03	3.598153E-02	1.089479E-03
4.265665E+03	3.603798E-02	1.088469E-03
4.275448E+03	3.609202E-02	1.087371E-03
4.285232E+03	3.614425E-02	1.086204E-03
4.295016E+03	3.619530E-02	1.084985E-03
4.304799E+03	3.624494E-02	1.083710E-03
4.314583E+03	3.629491E-02	1.082430E-03
4.324367E+03	3.634510E-02	1.081142E-03
4.334150E+03	3.639719E-02	1.079897E-03
4.343934E+03	3.645108E-02	1.078689E-03
4.353718E+03	3.650663E-02	1.077516E-03
4.363501E+03	3.656634E-02	1.076449E-03
4.373285E+03	3.662911E-02	1.075456E-03
4.383068E+03	3.669647E-02	1.074581E-03
4.392852E+03	3.676814E-02	1.073815E-03
4.402636E+03	3.684554E-02	1.073197E-03
4.412419E+03	3.692742E-02	1.072691E-03
4.422203E+03	3.701595E-02	1.072357E-03
4.431987E+03	3.711061E-02	1.072181E-03
4.441770E+03	3.721174E-02	1.072168E-03
4.451554E+03	3.731873E-02	1.072301E-03
4.461338E+03	3.743344E-02	1.072632E-03
4.471121E+03	3.755347E-02	1.073089E-03
4.480905E+03	3.768134E-02	1.073744E-03
4.490688E+03	3.781455E-02	1.074523E-03
4.500472E+03	3.795464E-02	1.075469E-03
4.510256E+03	3.810141E-02	1.076575E-03
4.520039E+03	3.825300E-02	1.077786E-03
4.529823E+03	3.841069E-02	1.079138E-03
4.539607E+03	3.857332E-02	1.080595E-03
4.549390E+03	3.874040E-02	1.082144E-03
4.559174E+03	3.891060E-02	1.083746E-03
4.568958E+03	3.908500E-02	1.085430E-03
4.578741E+03	3.926216E-02	1.087156E-03
4.588525E+03	3.944058E-02	1.088881E-03
4.598308E+03	3.962120E-02	1.090630E-03
4.608092E+03	3.980163E-02	1.092338E-03
4.617876E+03	3.998192E-02	1.094007E-03
4.627659E+03	4.016126E-02	1.095613E-03
4.637443E+03	4.033886E-02	1.097136E-03
4.647227E+03	4.051386E-02	1.098553E-03
4.657010E+03	4.068463E-02	1.099821E-03
4.666794E+03	4.085195E-02	1.100960E-03
4.676577E+03	4.101335E-02	1.101907E-03
4.686361E+03	4.116882E-02	1.102662E-03
4.696145E+03	4.131752E-02	1.103205E-03
4.705928E+03	4.145863E-02	1.103514E-03
4.715712E+03	4.159057E-02	1.103551E-03
4.725496E+03	4.171415E-02	1.103339E-03
4.735279E+03	4.182783E-02	1.102840E-03
4.745063E+03	4.193088E-02	1.102037E-03
4.754847E+03	4.202182E-02	1.100894E-03
4.764630E+03	4.210162E-02	1.099439E-03
4.774414E+03	4.216967E-02	1.097660E-03
4.784197E+03	4.222386E-02	1.095505E-03
4.793981E+03	4.226532E-02	1.093007E-03
4.803765E+03	4.229287E-02	1.090138E-03
4.813548E+03	4.230620E-02	1.086895E-03
4.823332E+03	4.230589E-02	1.083296E-03
4.833116E+03	4.229102E-02	1.079322E-03
4.842899E+03	4.226239E-02	1.074996E-03
4.852683E+03	4.221927E-02	1.070304E-03
4.862467E+03	4.216267E-02	1.065275E-03
4.872250E+03	4.209289E-02	1.059920E-03
4.882034E+03	4.200954E-02	1.054234E-03
4.891817E+03	4.191394E-02	1.048253E-03
4.901601E+03	4.180670E-02	1.041995E-03
4.911385E+03	4.168850E-02	1.035481E-03
4.921168E+03	4.156014E-02	1.028733E-03
4.930952E+03	4.142170E-02	1.021757E-03
4.940736E+03	4.127562E-02	1.014614E-03
4.950519E+03	4.112210E-02	1.007314E-03
4.960303E+03	4.096141E-02	9.998629E-04
4.970087E+03	4.079604E-02	9.923250E-04
4.979870E+03	4.062703E-02	9.847263E-04
4.989654E+03	4.045395E-02	9.770582E-04
4.999437E+03	4.027856E-02	9.693639E-04
5.009221E+03	4.010258E-02	9.616857E-04
5.019005E+03	3.992628E-02	9.540304E-04
5.028788E+03	3.975129E-02	9.464371E-04
5.038572E+03	3.957709E-02	9.388935E-04
5.048356E+03	3.940659E-02	9.314686E-04
5.058139E+03	3.923845E-02	9.241301E-04
5.067923E+03	3.907475E-02	9.169264E-04
5.077707E+03	3.891538E-02	9.098541E-04
5.087490E+03	3.876154E-02	9.029403E-04
5.097274E+03	3.861295E-02	8.961775E-04
5.107057E+03	3.846995E-02	8.895724E-04
5.116841E+03	3.833342E-02	8.831440E-04
5.126625E+03	3.820348E-02	8.768941E-04
5.136408E+03	3.807949E-02	8.708063E-04
5.146192E+03	3.796138E-02	8.648779E-04
5.155976E+03	3.784966E-02	8.591193E-04
5.165759E+03	3.774344E-02	8.535092E-04
5.175543E+03	3.764305E-02	8.480540E-04
5.185327E+03	3.754750E-02	8.427300E-04
5.195110E+03	3.745635E-02	8.375265E-04
5.204894E+03	3.736980E-02	8.324473E-04
5.214677E+03	3.728670E-02	8.274664E-04
5.224461E+03	3.720721E-02	8.225863E-04
5.234245E+03	3.713019E-02	8.177814E-04
5.244028E+03	3.705577E-02	8.130545E-04
5.253812E+03	3.698286E-02	8.083813E-04
5.263596E+03	3.691164E-02	8.037661E-04
5.273379E+03	3.684109E-02	7.991861E-04
5.283163E+03	3.677083E-02	7.946336E-04
5.292946E+03	3.670118E-02	7.901160E-04
5.302730E+03	3.663125E-02	7.856141E-04
5.312514E+03	3.656143E-02	7.811369E-04
5.322297E+03	3.649090E-02	7.766671E-04
5.332081E+03	3.641949E-02	7.722019E-04
5.341865E+03	3.634768E-02	7.677519E-04
5.351648E+03	3.627530E-02	7.633138E-04
5.361432E+03	3.620158E-02	7.588713E-04
5.371216E+03	3.612691E-02	7.544331E-04
5.380999E+03	3.605042E-02	7.499809E-04
5.390783E+03	3.597233E-02	7.455199E-04
5.400566E+03	3.589159E-02	7.410284E-04
5.410350E+03	3.580837E-02	7.365106E-04
5.420134E+03	3.572220E-02	7.319572E-04
5.429917E+03	3.563204E-02	7.273480E-04
5.439701E+03	3.553811E-02	7.226878E-04
5.449485E+03	3.544006E-02	7.179704E-04
5.459268E+03	3.533758E-02	7.131907E-04
5.469052E+03	3.523048E-02	7.083457E-04
5.478836E+03	3.511801E-02	7.034212E-04
5.488619E+03	3.500132E-02	6.984416E-04
5.498403E+03	3.487923E-02	6.933840E-04
5.508186E+03	3.475306E-02	6.882760E-04
5.517970E+03	3.462181E-02	6.830985E-04
5.527754E+03	3.448691E-02	6.778809E-04
5.537537E+03	3.434812E-02	6.726192E-04
5.547321E+03	3.420584E-02	6.673219E-04
5.557105E+03	3.406108E-02	6.620096E-04
5.566888E+03	3.391377E-02	6.566813E-04
5.576672E+03	3.376444E-02	6.513477E-04
5.586456E+03	3.361421E-02	6.460308E-04
5.596239E+03	3.346308E-02	6.407310E-04
5.606023E+03	3.331219E-02	6.354700E-04
5.615806E+03	3.316155E-02	6.302481E-04
5.625590E+03	3.301229E-02	6.250866E-04
5.635374E+03	3.286497E-02	6.199957E-04
5.645157E+03	3.271955E-02	6.149745E-04
5.654941E+03	3.257711E-02	6.100425E-04
5.664725E+03	3.243810E-02	6.052081E-04
5.674508E+03	3.230299E-02	6.004790E-04
5.684292E+03	3.217161E-02	5.958516E-04
5.694076E+03	3.204547E-02	5.913529E-04
5.703859E+03	3.192378E-02	5.869675E-04
5.713643E+03	3.180793E-02	5.827202E-04
5.723426E+03	3.169709E-02	5.785948E-04
5.733210E+03	3.159201E-02	5.746041E-04
5.742994E+03	3.149342E-02	5.707602E-04
5.752777E+03	3.140030E-02	5.670442E-04
5.762561E+03	3.131386E-02	5.634764E-04
5.772345E+03	3.123300E-02	5.600363E-04
5.782128E+03	3.115877E-02	5.567422E-04
5.791912E+03	3.109056E-02	5.535817E-04
5.801696E+03	3.102821E-02	5.505516E-04
5.811479E+03	3.097155E-02	5.476478E-04
5.821263E+03	3.092031E-02	5.448652E-04
5.831046E+03	3.087421E-02	5.421980E-04
5.840830E+03	3.083344E-02	5.396492E-04
5.850614E+03	3.079710E-02	5.372025E-04
5.860397E+03	3.076421E-02	5.348405E-04
5.870181E+03	3.073543E-02	5.325745E-04
5.879965E+03	3.070973E-02	5.303866E-04
5.889748E+03	3.068719E-02	5.282782E-04
5.899532E+03	3.066626E-02	5.262224E-04
5.909315E+03	3.064754E-02	5.242300E-04
5.919099E+03	3.062949E-02	5.222750E-04
5.928883E+03	3.061277E-02	5.203688E-04
5.938666E+03	3.059643E-02	5.184960E-04
5.948450E+03	3.058011E-02	5.166511E-04
5.958234E+03	3.056352E-02	5.148296E-04
5.968017E+03	3.054639E-02	5.130277E-04
5.977801E+03	3.052908E-02	5.112522E-04
5.987585E+03	3.051033E-02	5.094829E-04
5.997368E+03	3.049119E-02	5.077379E-04
6.007152E+03	3.047109E-02	5.060088E-04
6.016935E+03	3.044954E-02	5.042879E-04
6.026719E+03	3.042776E-02	5.025965E-04
6.036503E+03	3.040538E-02	5.009292E-04
6.046286E+03	3.038266E-02	4.992912E-04
6.056070E+03	3.036045E-02	4.976969E-04
6.065854E+03	3.033802E-02	4.961352E-04
6.075637E+03	3.031634E-02	4.946228E-04
6.085421E+03	3.029646E-02	4.931772E-04
6.095205E+03	3.027778E-02	4.917895E-04
6.104988E+03	3.026200E-02	4.904877E-04
6.114772E+03	3.024863E-02	4.892644E-04
6.124555E+03	3.023946E-02	4.881491E-04
6.134339E+03	3.023463E-02	4.871445E-04
6.144123E+03	3.023490E-02	4.862632E-04
6.153906E+03	3.024161E-02	4.855271E-04
6.163690E+03	3.025447E-02	4.849321E-04
6.173474E+03	3.027543E-02	4.845096E-04
6.183257E+03	3.030480E-02	4.842651E-04
6.193041E+03	3.034349E-02	4.842134E-04
6.202825E+03	3.039295E-02	4.843782E-04
6.212608E+03	3.045297E-02	4.847565E-04
6.222392E+03	3.052562E-02	4.853816E-04
6.232175E+03	3.061177E-02	4.862684E-04
6.241959E+03	3.071123E-02	4.874139E-04
6.251743E+03	3.082654E-02	4.888596E-04
6.261526E+03	3.095683E-02	4.905925E-04
6.271310E+03	3.110402E-02	4.926440E-04
6.281094E+03	3.126883E-02	4.950265E-04
6.290877E+03	3.145127E-02	4.977417E-04
6.300661E+03	3.165185E-02	5.007992E-04
6.310445E+03	3.187211E-02	5.042251E-04
6.320228E+03	3.211047E-02	5.079961E-04
6.330012E+03	3.236875E-02	5.121432E-04
6.339795E+03	3.264549E-02	5.166459E-04
6.349579E+03	3.294086E-02	5.215092E-04
6.359363E+03	3.325409E-02	5.267234E-04
6.369146E+03	3.358418E-02	5.322735E-04
6.378930E+03	3.392977E-02	5.381397E-04
6.388714E+03	3.428860E-02	5.442875E-04
6.398497E+03	3.466012E-02	5.507094E-04
6.408281E+03	3.504168E-02	5.573650E-04
6.418065E+03	3.543099E-02	5.642190E-04
6.427848E+03	3.582546E-02	5.712316E-04
6.437632E+03	3.622218E-02	5.783574E-04
6.447415E+03	3.661797E-02	5.855467E-04
6.457199E+03	3.701011E-02	5.927564E-04
6.466983E+03	3.739426E-02	5.999174E-04
6.476766E+03	3.776740E-02	6.069809E-04
6.486550E+03	3.812419E-02	6.138605E-04
6.496334E+03	3.846302E-02	6.205291E-04
6.506117E+03	3.877863E-02	6.269003E-04
6.515901E+03	3.906742E-02	6.329132E-04
6.525684E+03	3.932750E-02	6.385346E-04
6.535468E+03	3.955429E-02	6.436864E-04
6.545252E+03	3.974505E-02	6.483199E-04
6.555035E+03	3.989907E-02	6.524186E-04
6.564819E+03	4.001297E-02	6.559221E-04
6.574603E+03	4.008622E-02	6.588159E-04
6.584386E+03	4.011807E-02	6.610813E-04
6.594170E+03	4.010826E-02	6.627074E-04
6.603954E+03	4.005630E-02	6.636793E-04
6.613737E+03	3.996459E-02	6.640294E-04
6.623521E+03	3.983358E-02	6.637585E-04
6.633304E+03	3.966501E-02	6.628878E-04
6.643088E+03	3.946096E-02	6.614455E-04
6.652872E+03	3.922385E-02	6.594648E-04
6.662655E+03	3.895715E-02	6.569974E-04
6.672439E+03	3.866218E-02	6.540591E-04
6.682223E+03	3.834352E-02	6.507213E-04
6.692006E+03	3.800349E-02	6.470176E-04
6.701790E+03	3.764523E-02	6.429965E-04
6.711574E+03	3.727259E-02	6.387189E-04
6.721357E+03	3.688709E-02	6.342065E-04
6.731141E+03	3.649318E-02	6.295321E-04
6.740924E+03	3.609359E-02	6.247398E-04
6.750708E+03	3.568950E-02	6.198470E-04
6.760492E+03	3.528479E-02	6.149192E-04
6.770275E+03	3.488098E-02	6.099809E-04
6.780059E+03	3.448082E-02	6.050789E-04
6.789843E+03	3.408540E-02	6.002317E-04
6.799626E+03	3.369635E-02	5.954676E-04
6.809410E+03	3.331512E-02	5.908116E-04
6.819194E+03	3.294358E-02	5.862977E-04
6.828977E+03	3.258210E-02	5.819325E-04
6.838761E+03	3.223153E-02	5.777323E-04
6.848544E+03	3.189325E-02	5.737226E-04
6.858328E+03	3.156645E-02	5.698905E-04
6.868112E+03	3.125286E-02	5.662680E-04
6.877895E+03	3.095210E-02	5.628500E-04
6.887679E+03	3.066431E-02	5.596408E-04
6.897463E+03	3.038956E-02	5.566432E-04
6.907246E+03	3.012841E-02	5.538693E-04
6.917030E+03	2.987948E-02	5.512957E-04
6.926814E+03	2.964321E-02	5.489322E-04
6.936597E+03	2.941995E-02	5.467869E-04
6.946381E+03	2.920812E-02	5.448329E-04
6.956164E+03	2.900800E-02	5.430766E-04
6.965948E+03	2.881977E-02	5.415235E-04
6.975732E+03	2.864178E-02	5.401444E-04
6.985515E+03	2.847359E-02	5.389324E-04
6.995299E+03	2.831590E-02	5.379024E-04
7.005083E+03	2.816703E-02	5.370240E-04
7.014866E+03	2.802706E-02	5.363005E-04
7.024650E+03	2.789490E-02	5.357121E-04
7.034434E+03	2.777063E-02	5.352615E-04
7.044217E+03	2.765315E-02	5.349289E-04
7.054001E+03	2.754254E-02	5.347170E-04
7.063784E+03	2.743774E-02	5.346060E-04
7.073568E+03	2.733881E-02	5.345982E-04
7.083352E+03	2.724473E-02	5.346745E-04
7.093135E+03	2.715500E-02	5.348260E-04
7.102919E+03	2.706921E-02	5.350449E-04
7.112703E+03	2.698746E-02	5.353338E-04
7.122486E+03	2.690820E-02	5.356628E-04
7.132270E+03	2.683214E-02	5.360460E-04
7.142053E+03	2.675775E-02	5.364536E-04
7.151837E+03	2.668578E-02	5.369007E-04
7.161621E+03	2.661471E-02	5.373568E-04
7.171404E+03	2.654476E-02	5.378267E-04
7.181188E+03	2.647559E-02	5.383031E-04
7.190972E+03	2.640686E-02	5.387795E-04
7.200755E+03	2.633768E-02	5.392377E-04
7.210539E+03	2.626834E-02	5.396829E-04
7.220323E+03	2.619853E-02	5.401092E-04
7.230106E+03	2.612744E-02	5.404993E-04
7.239890E+03	2.605538E-02	5.408593E-04
7.249673E+03	2.598157E-02	5.411728E-04
7.259457E+03	2.590635E-02	5.414464E-04
7.269241E+03	2.582900E-02	5.416644E-04
7.279024E+03	2.574990E-02	5.418345E-04
7.288808E+03	2.566781E-02	5.419303E-04
7.298592E+03	2.558428E-02	5.419835E-04
7.308375E+03	2.549755E-02	5.419566E-04
7.318159E+03	2.540868E-02	5.418717E-04
7.327943E+03	2.531706E-02	5.417151E-04
7.337726E+03	2.522271E-02	5.414864E-04
7.347510E+03	2.512617E-02	5.411968E-04
7.357293E+03	2.502638E-02	5.408232E-04
7.367077E+03	2.492451E-02	5.403899E-04
7.376861E+03	2.482009E-02	5.398864E-04
7.386644E+03	2.471323E-02	5.393147E-04
7.396428E+03	2.460406E-02	5.386770E-04
7.406212E+03	2.449273E-02	5.379762E-04
7.415995E+03	2.437942E-02	5.372157E-04
7.425779E+03	2.426431E-02	5.363992E-04
7.435563E+03	2.414812E-02	5.355427E-04
7.445346E+03	2.403003E-02	5.346272E-04
7.455130E+03	2.391080E-02	5.336694E-04
7.464913E+03	2.379118E-02	5.326862E-04
7.474697E+03	2.367038E-02	5.316597E-04
7.484481E+03	2.354919E-02	5.306076E-04
7.494264E+03	2.342789E-02	5.295360E-04
7.504048E+03	2.330725E-02	5.284625E-04
7.513832E+03	2.318652E-02	5.273703E-04
7.523615E+03	2.306649E-02	5.262773E-04
7.533399E+03	2.294693E-02	5.251790E-04
7.543183E+03	2.282913E-02	5.241044E-04
7.552966E+03	2.271284E-02	5.230489E-04
7.562750E+03	2.259833E-02	5.220187E-04
7.572533E+03	2.248534E-02	5.210086E-04
7.582317E+03	2.237461E-02	5.200357E-04
7.592101E+03	2.226636E-02	5.191063E-04
