#wls	flux	fluxerr
1.565382E+03	8.126452E-03	2.119189E-04
1.604516E+03	8.316567E-03	2.165604E-04
1.643651E+03	8.507649E-03	2.212045E-04
1.682785E+03	8.699178E-03	2.258371E-04
1.721920E+03	8.888901E-03	2.303989E-04
1.761054E+03	9.076722E-03	2.348870E-04
1.800189E+03	9.260633E-03	2.392491E-04
1.839323E+03	9.439754E-03	2.434621E-04
1.878458E+03	9.608187E-03	2.473742E-04
1.917592E+03	9.766738E-03	2.510069E-04
1.956727E+03	9.913163E-03	2.543032E-04
1.995862E+03	1.005263E-02	2.573965E-04
2.034996E+03	1.019527E-02	2.605462E-04
2.074131E+03	1.035558E-02	2.641207E-04
2.113265E+03	1.055289E-02	2.686090E-04
2.152400E+03	1.079238E-02	2.741356E-04
2.191534E+03	1.106815E-02	2.805438E-04
2.230669E+03	1.136831E-02	2.875254E-04
2.269803E+03	1.167895E-02	2.947244E-04
2.308938E+03	1.198997E-02	3.018833E-04
2.348072E+03	1.229551E-02	3.088534E-04
2.387207E+03	1.259262E-02	3.155607E-04
2.426341E+03	1.288384E-02	3.220686E-04
2.465476E+03	1.316489E-02	3.282703E-04
2.504611E+03	1.343734E-02	3.342057E-04
2.543745E+03	1.370474E-02	3.399628E-04
2.582880E+03	1.396277E-02	3.454351E-04
2.622014E+03	1.421271E-02	3.506545E-04
2.661149E+03	1.445573E-02	3.556505E-04
2.700283E+03	1.469088E-02	3.604000E-04
2.739418E+03	1.491707E-02	3.648769E-04
2.778552E+03	1.513313E-02	3.690538E-04
2.817687E+03	1.534166E-02	3.729950E-04
2.856821E+03	1.553937E-02	3.766214E-04
2.895956E+03	1.572679E-02	3.799478E-04
2.935090E+03	1.590436E-02	3.829860E-04
2.944874E+03	1.594645E-02	3.836825E-04
2.954658E+03	1.598666E-02	3.843305E-04
2.964441E+03	1.602867E-02	3.850190E-04
2.974225E+03	1.606878E-02	3.856587E-04
2.984009E+03	1.610709E-02	3.862524E-04
2.993792E+03	1.614742E-02	3.868914E-04
3.003576E+03	1.618600E-02	3.874855E-04
3.013360E+03	1.622276E-02	3.880331E-04
3.023143E+03	1.625950E-02	3.885775E-04
3.032927E+03	1.629615E-02	3.891167E-04
3.042710E+03	1.633266E-02	3.896497E-04
3.052494E+03	1.636716E-02	3.901317E-04
3.062278E+03	1.640143E-02	3.906056E-04
3.072061E+03	1.643540E-02	3.910696E-04
3.081845E+03	1.646905E-02	3.915230E-04
3.091629E+03	1.650054E-02	3.919224E-04
3.101412E+03	1.653163E-02	3.923095E-04
3.111196E+03	1.656051E-02	3.926414E-04
3.120980E+03	1.659068E-02	3.930013E-04
3.130763E+03	1.661859E-02	3.933051E-04
3.140547E+03	1.664596E-02	3.935936E-04
3.150330E+03	1.667279E-02	3.938667E-04
3.160114E+03	1.669732E-02	3.940828E-04
3.169898E+03	1.672128E-02	3.942830E-04
3.179681E+03	1.674467E-02	3.944675E-04
3.189465E+03	1.676750E-02	3.946363E-04
3.199249E+03	1.678980E-02	3.947904E-04
3.209032E+03	1.681162E-02	3.949306E-04
3.218816E+03	1.683133E-02	3.950191E-04
3.228600E+03	1.685070E-02	3.950973E-04
3.238383E+03	1.686980E-02	3.951670E-04
3.248167E+03	1.688873E-02	3.952305E-04
3.257950E+03	1.690758E-02	3.952898E-04
3.267734E+03	1.692483E-02	3.953096E-04
3.277518E+03	1.694384E-02	3.953684E-04
3.287301E+03	1.696151E-02	3.953937E-04
3.297085E+03	1.697958E-02	3.954261E-04
3.306869E+03	1.699818E-02	3.954685E-04
3.316652E+03	1.701745E-02	3.955244E-04
3.326436E+03	1.703754E-02	3.955971E-04
3.336220E+03	1.705859E-02	3.956898E-04
3.346003E+03	1.708075E-02	3.958059E-04
3.355787E+03	1.710415E-02	3.959486E-04
3.365570E+03	1.712743E-02	3.960858E-04
3.375354E+03	1.715379E-02	3.962918E-04
3.385138E+03	1.718031E-02	3.964990E-04
3.394921E+03	1.721018E-02	3.967808E-04
3.404705E+03	1.724050E-02	3.970702E-04
3.414489E+03	1.727444E-02	3.974402E-04
3.424272E+03	1.730915E-02	3.978251E-04
3.434056E+03	1.734630E-02	3.982631E-04
3.443839E+03	1.738755E-02	3.987918E-04
3.453623E+03	1.743011E-02	3.993476E-04
3.463407E+03	1.747568E-02	3.999687E-04
3.473190E+03	1.752591E-02	4.006929E-04
3.482974E+03	1.757809E-02	4.014580E-04
3.492758E+03	1.763390E-02	4.023021E-04
3.502541E+03	1.769356E-02	4.032300E-04
3.512325E+03	1.775871E-02	4.042787E-04
3.522109E+03	1.782670E-02	4.053876E-04
3.531892E+03	1.789916E-02	4.065934E-04
3.541676E+03	1.797770E-02	4.079325E-04
3.551459E+03	1.805969E-02	4.093445E-04
3.561243E+03	1.814673E-02	4.108656E-04
3.571027E+03	1.824041E-02	4.125314E-04
3.580810E+03	1.833809E-02	4.142817E-04
3.590594E+03	1.844276E-02	4.161838E-04
3.600378E+03	1.855181E-02	4.181780E-04
3.610161E+03	1.866821E-02	4.203310E-04
3.619945E+03	1.878934E-02	4.225834E-04
3.629729E+03	1.891817E-02	4.250016E-04
3.639512E+03	1.905211E-02	4.275267E-04
3.649296E+03	1.919410E-02	4.302242E-04
3.659079E+03	1.934154E-02	4.330354E-04
3.668863E+03	1.949736E-02	4.360253E-04
3.678647E+03	1.966030E-02	4.391653E-04
3.688430E+03	1.982912E-02	4.424269E-04
3.698214E+03	2.000666E-02	4.458732E-04
3.707998E+03	2.019021E-02	4.494429E-04
3.717781E+03	2.038254E-02	4.531971E-04
3.727565E+03	2.058083E-02	4.570729E-04
3.737349E+03	2.078778E-02	4.611293E-04
3.747132E+03	2.100045E-02	4.653008E-04
3.756916E+03	2.122148E-02	4.696450E-04
3.766699E+03	2.144784E-02	4.740945E-04
3.776483E+03	2.168068E-02	4.786743E-04
3.786267E+03	2.192116E-02	4.834094E-04
3.796050E+03	2.216615E-02	4.882301E-04
3.805834E+03	2.241676E-02	4.931606E-04
3.815618E+03	2.267266E-02	4.981932E-04
3.825401E+03	2.293354E-02	5.033204E-04
3.835185E+03	2.319757E-02	5.085023E-04
3.844969E+03	2.346731E-02	5.137942E-04
3.854752E+03	2.373948E-02	5.191238E-04
3.864536E+03	2.401511E-02	5.245139E-04
3.874319E+03	2.429379E-02	5.299550E-04
3.884103E+03	2.457506E-02	5.354368E-04
3.893887E+03	2.485844E-02	5.409488E-04
3.903670E+03	2.514195E-02	5.464476E-04
3.913454E+03	2.542652E-02	5.519534E-04
3.923238E+03	2.571157E-02	5.574538E-04
3.933021E+03	2.599502E-02	5.629035E-04
3.942805E+03	2.627924E-02	5.683540E-04
3.952589E+03	2.655909E-02	5.736943E-04
3.962372E+03	2.683845E-02	5.790080E-04
3.972156E+03	2.711360E-02	5.842156E-04
3.981939E+03	2.738543E-02	5.893364E-04
3.991723E+03	2.765175E-02	5.943234E-04
4.001507E+03	2.791190E-02	5.991633E-04
4.011290E+03	2.816835E-02	6.039093E-04
4.021074E+03	2.841595E-02	6.084514E-04
4.030858E+03	2.865873E-02	6.128769E-04
4.040641E+03	2.889164E-02	6.170779E-04
4.050425E+03	2.911731E-02	6.211115E-04
4.060208E+03	2.933530E-02	6.249693E-04
4.069992E+03	2.954220E-02	6.285790E-04
4.079776E+03	2.974069E-02	6.319986E-04
4.089559E+03	2.993046E-02	6.352222E-04
4.099343E+03	3.010813E-02	6.381791E-04
4.109127E+03	3.027651E-02	6.409297E-04
4.118910E+03	3.043384E-02	6.434374E-04
4.128694E+03	3.057995E-02	6.456998E-04
4.138478E+03	3.071625E-02	6.477476E-04
4.148261E+03	3.083966E-02	6.495169E-04
4.158045E+03	3.095328E-02	6.510736E-04
4.167828E+03	3.105419E-02	6.523576E-04
4.177612E+03	3.114561E-02	6.534373E-04
4.187396E+03	3.122484E-02	6.542572E-04
4.197179E+03	3.129522E-02	6.548879E-04
4.206963E+03	3.135423E-02	6.552777E-04
4.216747E+03	3.140382E-02	6.554685E-04
4.226530E+03	3.144457E-02	6.554728E-04
4.236314E+03	3.147704E-02	6.553033E-04
4.246098E+03	3.150182E-02	6.549729E-04
4.255881E+03	3.151806E-02	6.544649E-04
4.265665E+03	3.152782E-02	6.538222E-04
4.275448E+03	3.153161E-02	6.530566E-04
4.285232E+03	3.152859E-02	6.521508E-04
4.295016E+03	3.152066E-02	6.511450E-04
4.304799E+03	3.150865E-02	6.500564E-04
4.314583E+03	3.149219E-02	6.488781E-04
4.324367E+03	3.147372E-02	6.476607E-04
4.334150E+03	3.145292E-02	6.463976E-04
4.343934E+03	3.143084E-02	6.451107E-04
4.353718E+03	3.140985E-02	6.438486E-04
4.363501E+03	3.138962E-02	6.426045E-04
4.373285E+03	3.137250E-02	6.414264E-04
4.383068E+03	3.135815E-02	6.403070E-04
4.392852E+03	3.134757E-02	6.392664E-04
4.402636E+03	3.134171E-02	6.383238E-04
4.412419E+03	3.134283E-02	6.375246E-04
4.422203E+03	3.135049E-02	6.368593E-04
4.431987E+03	3.136553E-02	6.363447E-04
4.441770E+03	3.138874E-02	6.359959E-04
4.451554E+03	3.142084E-02	6.358268E-04
4.461338E+03	3.146373E-02	6.358753E-04
4.471121E+03	3.151542E-02	6.361002E-04
4.480905E+03	3.157887E-02	6.365609E-04
4.490688E+03	3.165191E-02	6.372120E-04
4.500472E+03	3.173721E-02	6.381071E-04
4.510256E+03	3.183226E-02	6.391947E-04
4.520039E+03	3.193815E-02	6.404959E-04
4.529823E+03	3.205576E-02	6.420273E-04
4.539607E+03	3.218201E-02	6.437265E-04
4.549390E+03	3.231739E-02	6.456027E-04
4.559174E+03	3.246100E-02	6.476369E-04
4.568958E+03	3.261177E-02	6.498079E-04
4.578741E+03	3.276734E-02	6.520673E-04
4.588525E+03	3.292900E-02	6.544410E-04
4.598308E+03	3.309308E-02	6.568556E-04
4.608092E+03	3.325965E-02	6.593121E-04
4.617876E+03	3.342761E-02	6.617887E-04
4.627659E+03	3.359466E-02	6.642400E-04
4.637443E+03	3.376239E-02	6.666971E-04
4.647227E+03	3.392745E-02	6.690940E-04
4.657010E+03	3.408911E-02	6.714170E-04
4.666794E+03	3.424926E-02	6.737030E-04
4.676577E+03	3.440487E-02	6.758928E-04
4.686361E+03	3.455674E-02	6.780024E-04
4.696145E+03	3.470321E-02	6.799999E-04
4.705928E+03	3.484518E-02	6.819030E-04
4.715712E+03	3.498228E-02	6.837049E-04
4.725496E+03	3.511410E-02	6.853981E-04
4.735279E+03	3.523889E-02	6.869490E-04
4.745063E+03	3.535732E-02	6.883709E-04
4.754847E+03	3.546739E-02	6.896256E-04
4.764630E+03	3.556944E-02	6.907205E-04
4.774414E+03	3.566240E-02	6.916351E-04
4.784197E+03	3.574376E-02	6.923220E-04
4.793981E+03	3.581345E-02	6.927804E-04
4.803765E+03	3.587004E-02	6.929837E-04
4.813548E+03	3.591091E-02	6.928822E-04
4.823332E+03	3.593604E-02	6.924771E-04
4.833116E+03	3.594441E-02	6.917495E-04
4.842899E+03	3.593400E-02	6.906623E-04
4.852683E+03	3.590569E-02	6.892334E-04
4.862467E+03	3.585819E-02	6.874397E-04
4.872250E+03	3.579310E-02	6.853132E-04
4.882034E+03	3.571111E-02	6.828685E-04
4.891817E+03	3.561323E-02	6.801260E-04
4.901601E+03	3.549952E-02	6.770882E-04
4.911385E+03	3.537152E-02	6.737856E-04
4.921168E+03	3.523333E-02	6.702970E-04
4.930952E+03	3.508435E-02	6.666122E-04
4.940736E+03	3.492648E-02	6.627677E-04
4.950519E+03	3.476394E-02	6.588445E-04
4.960303E+03	3.459620E-02	6.548326E-04
4.970087E+03	3.442502E-02	6.507660E-04
4.979870E+03	3.425435E-02	6.467191E-04
4.989654E+03	3.408340E-02	6.426774E-04
4.999437E+03	3.391361E-02	6.386677E-04
5.009221E+03	3.374854E-02	6.347574E-04
5.019005E+03	3.358720E-02	6.309272E-04
5.028788E+03	3.343195E-02	6.272213E-04
5.038572E+03	3.328298E-02	6.236428E-04
5.048356E+03	3.314384E-02	6.202577E-04
5.058139E+03	3.301377E-02	6.170510E-04
5.067923E+03	3.289532E-02	6.140700E-04
5.077707E+03	3.278895E-02	6.113226E-04
5.087490E+03	3.269723E-02	6.088553E-04
5.097274E+03	3.262151E-02	6.066928E-04
5.107057E+03	3.256296E-02	6.048555E-04
5.116841E+03	3.252242E-02	6.033579E-04
5.126625E+03	3.249930E-02	6.021878E-04
5.136408E+03	3.249465E-02	6.013639E-04
5.146192E+03	3.250803E-02	6.008763E-04
5.155976E+03	3.253848E-02	6.007066E-04
5.165759E+03	3.258363E-02	6.008100E-04
5.175543E+03	3.264393E-02	6.011935E-04
5.185327E+03	3.271533E-02	6.017822E-04
5.195110E+03	3.279682E-02	6.025567E-04
5.204894E+03	3.288623E-02	6.034764E-04
5.214677E+03	3.298132E-02	6.045004E-04
5.224461E+03	3.307885E-02	6.055687E-04
5.234245E+03	3.317883E-02	6.066814E-04
5.244028E+03	3.327710E-02	6.077628E-04
5.253812E+03	3.337285E-02	6.087982E-04
5.263596E+03	3.346433E-02	6.097561E-04
5.273379E+03	3.354995E-02	6.106078E-04
5.283163E+03	3.362830E-02	6.113283E-04
5.292946E+03	3.369810E-02	6.118950E-04
5.302730E+03	3.375722E-02	6.122699E-04
5.312514E+03	3.380693E-02	6.124768E-04
5.322297E+03	3.384547E-02	6.124845E-04
5.332081E+03	3.387125E-02	6.122651E-04
5.341865E+03	3.388608E-02	6.118523E-04
5.351648E+03	3.388763E-02	6.112046E-04
5.361432E+03	3.387799E-02	6.103608E-04
5.371216E+03	3.385500E-02	6.092823E-04
5.380999E+03	3.382071E-02	6.080070E-04
5.390783E+03	3.377238E-02	6.064862E-04
5.400566E+03	3.371156E-02	6.047485E-04
5.410350E+03	3.363666E-02	6.027660E-04
5.420134E+03	3.354621E-02	6.005132E-04
5.429917E+03	3.344209E-02	5.980248E-04
5.439701E+03	3.332314E-02	5.952804E-04
5.449485E+03	3.318935E-02	5.922808E-04
5.459268E+03	3.304089E-02	5.890298E-04
5.469052E+03	3.287799E-02	5.855323E-04
5.478836E+03	3.270096E-02	5.817944E-04
5.488619E+03	3.251024E-02	5.778247E-04
5.498403E+03	3.230739E-02	5.736513E-04
5.508186E+03	3.209100E-02	5.692500E-04
5.517970E+03	3.186398E-02	5.646731E-04
5.527754E+03	3.162639E-02	5.599217E-04
5.537537E+03	3.137951E-02	5.550194E-04
5.547321E+03	3.112489E-02	5.499935E-04
5.557105E+03	3.086525E-02	5.448924E-04
5.566888E+03	3.060050E-02	5.397150E-04
5.576672E+03	3.033459E-02	5.345305E-04
5.586456E+03	3.006848E-02	5.293563E-04
5.596239E+03	2.980498E-02	5.242414E-04
5.606023E+03	2.954384E-02	5.191812E-04
5.615806E+03	2.928836E-02	5.142336E-04
5.625590E+03	2.903965E-02	5.094176E-04
5.635374E+03	2.879669E-02	5.047149E-04
5.645157E+03	2.856190E-02	5.001676E-04
5.654941E+03	2.833473E-02	4.957655E-04
5.664725E+03	2.811631E-02	4.915281E-04
5.674508E+03	2.790589E-02	4.874417E-04
5.684292E+03	2.770360E-02	4.835081E-04
5.694076E+03	2.750959E-02	4.797297E-04
5.703859E+03	2.732494E-02	4.761247E-04
5.713643E+03	2.714990E-02	4.726971E-04
5.723426E+03	2.698307E-02	4.694223E-04
5.733210E+03	2.682743E-02	4.663512E-04
5.742994E+03	2.668085E-02	4.634468E-04
5.752777E+03	2.654553E-02	4.607467E-04
5.762561E+03	2.642110E-02	4.582440E-04
5.772345E+03	2.630892E-02	4.559620E-04
5.782128E+03	2.620942E-02	4.539075E-04
5.791912E+03	2.612132E-02	4.520578E-04
5.801696E+03	2.604737E-02	4.504600E-04
5.811479E+03	2.598513E-02	4.490718E-04
5.821263E+03	2.593699E-02	4.479338E-04
5.831046E+03	2.590002E-02	4.469951E-04
5.840830E+03	2.587602E-02	4.462862E-04
5.850614E+03	2.586232E-02	4.457607E-04
5.860397E+03	2.585763E-02	4.453964E-04
5.870181E+03	2.586126E-02	4.451809E-04
5.879965E+03	2.587069E-02	4.450708E-04
5.889748E+03	2.588501E-02	4.450502E-04
5.899532E+03	2.590248E-02	4.450893E-04
5.909315E+03	2.592059E-02	4.451449E-04
5.919099E+03	2.593863E-02	4.452048E-04
5.928883E+03	2.595439E-02	4.452314E-04
5.938666E+03	2.596755E-02	4.452193E-04
5.948450E+03	2.597637E-02	4.451388E-04
5.958234E+03	2.598184E-02	4.450070E-04
5.968017E+03	2.598098E-02	4.447731E-04
5.977801E+03	2.597607E-02	4.444763E-04
5.987585E+03	2.596534E-02	4.440868E-04
5.997368E+03	2.594972E-02	4.436203E-04
6.007152E+03	2.592851E-02	4.430655E-04
6.016935E+03	2.590285E-02	4.424418E-04
6.026719E+03	2.587307E-02	4.417548E-04
6.036503E+03	2.583872E-02	4.409975E-04
6.046286E+03	2.580193E-02	4.402058E-04
6.056070E+03	2.576064E-02	4.393452E-04
6.065854E+03	2.571787E-02	4.384671E-04
6.075637E+03	2.567246E-02	4.375517E-04
6.085421E+03	2.562577E-02	4.366227E-04
6.095205E+03	2.557833E-02	4.356888E-04
6.104988E+03	2.553070E-02	4.347595E-04
6.114772E+03	2.548260E-02	4.338307E-04
6.124555E+03	2.543549E-02	4.329268E-04
6.134339E+03	2.539005E-02	4.320594E-04
6.144123E+03	2.534612E-02	4.312263E-04
6.153906E+03	2.530619E-02	4.304694E-04
6.163690E+03	2.526942E-02	4.297748E-04
6.173474E+03	2.523757E-02	4.291723E-04
6.183257E+03	2.521163E-02	4.286787E-04
6.193041E+03	2.519176E-02	4.282969E-04
6.202825E+03	2.518073E-02	4.280742E-04
6.212608E+03	2.517802E-02	4.280014E-04
6.222392E+03	2.518566E-02	4.281136E-04
6.232175E+03	2.520493E-02	4.284322E-04
6.241959E+03	2.523725E-02	4.289816E-04
6.251743E+03	2.528412E-02	4.297876E-04
6.261526E+03	2.534721E-02	4.308787E-04
6.271310E+03	2.542754E-02	4.322723E-04
6.281094E+03	2.552881E-02	4.340318E-04
6.290877E+03	2.565150E-02	4.361655E-04
6.300661E+03	2.579875E-02	4.387274E-04
6.310445E+03	2.597385E-02	4.417736E-04
6.320228E+03	2.617747E-02	4.453163E-04
6.330012E+03	2.641288E-02	4.494116E-04
6.339795E+03	2.668237E-02	4.540992E-04
6.349579E+03	2.698801E-02	4.594153E-04
6.359363E+03	2.733161E-02	4.653914E-04
6.369146E+03	2.771457E-02	4.720520E-04
6.378930E+03	2.813775E-02	4.794128E-04
6.388714E+03	2.860137E-02	4.874784E-04
6.398497E+03	2.910449E-02	4.962339E-04
6.408281E+03	2.964474E-02	5.056400E-04
6.418065E+03	3.021864E-02	5.156386E-04
6.427848E+03	3.082160E-02	5.261525E-04
6.437632E+03	3.144784E-02	5.370839E-04
6.447415E+03	3.209037E-02	5.483145E-04
6.457199E+03	3.274108E-02	5.597065E-04
6.466983E+03	3.339198E-02	5.711241E-04
6.476766E+03	3.403088E-02	5.823591E-04
6.486550E+03	3.464840E-02	5.932509E-04
6.496334E+03	3.523498E-02	6.036357E-04
6.506117E+03	3.577756E-02	6.132890E-04
6.515901E+03	3.626841E-02	6.220772E-04
6.525684E+03	3.669705E-02	6.298191E-04
6.535468E+03	3.705546E-02	6.363753E-04
6.545252E+03	3.733709E-02	6.416307E-04
6.555035E+03	3.753703E-02	6.454989E-04
6.564819E+03	3.765210E-02	6.479219E-04
6.574603E+03	3.768225E-02	6.488958E-04
6.584386E+03	3.762529E-02	6.483797E-04
6.594170E+03	3.748608E-02	6.464540E-04
6.603954E+03	3.726730E-02	6.431614E-04
6.613737E+03	3.697446E-02	6.385935E-04
6.623521E+03	3.661438E-02	6.328652E-04
6.633304E+03	3.619482E-02	6.261073E-04
6.643088E+03	3.572535E-02	6.184827E-04
6.652872E+03	3.521192E-02	6.100919E-04
6.662655E+03	3.466537E-02	6.011202E-04
6.672439E+03	3.409241E-02	5.916825E-04
6.682223E+03	3.350051E-02	5.819064E-04
6.692006E+03	3.289764E-02	5.719294E-04
6.701790E+03	3.228764E-02	5.618171E-04
6.711574E+03	3.167828E-02	5.517041E-04
6.721357E+03	3.107323E-02	5.416537E-04
6.731141E+03	3.047662E-02	5.317379E-04
6.740924E+03	2.989203E-02	5.220189E-04
6.750708E+03	2.932242E-02	5.125485E-04
6.760492E+03	2.877122E-02	5.033873E-04
6.770275E+03	2.823933E-02	4.945511E-04
6.780059E+03	2.772722E-02	4.860491E-04
6.789843E+03	2.723893E-02	4.779526E-04
6.799626E+03	2.677221E-02	4.702230E-04
6.809410E+03	2.632847E-02	4.628857E-04
6.819194E+03	2.590880E-02	4.559610E-04
6.828977E+03	2.551127E-02	4.494156E-04
6.838761E+03	2.513751E-02	4.432794E-04
6.848544E+03	2.478624E-02	4.375305E-04
6.858328E+03	2.445697E-02	4.321615E-04
6.868112E+03	2.415001E-02	4.271787E-04
6.877895E+03	2.386298E-02	4.225410E-04
6.887679E+03	2.359691E-02	4.182676E-04
6.897463E+03	2.334933E-02	4.143156E-04
6.907246E+03	2.312116E-02	4.107020E-04
6.917030E+03	2.291070E-02	4.073978E-04
6.926814E+03	2.271708E-02	4.043883E-04
6.936597E+03	2.253942E-02	4.016585E-04
6.946381E+03	2.237679E-02	3.991928E-04
6.956164E+03	2.222907E-02	3.969896E-04
6.965948E+03	2.209373E-02	3.950046E-04
6.975732E+03	2.197064E-02	3.932359E-04
6.985515E+03	2.185966E-02	3.916819E-04
6.995299E+03	2.175833E-02	3.902987E-04
7.005083E+03	2.166734E-02	3.890996E-04
7.014866E+03	2.158509E-02	3.880559E-04
7.024650E+03	2.150998E-02	3.871398E-04
7.034434E+03	2.144287E-02	3.863668E-04
7.044217E+03	2.138152E-02	3.856968E-04
7.054001E+03	2.132686E-02	3.851473E-04
7.063784E+03	2.127759E-02	3.846948E-04
7.073568E+03	2.123241E-02	3.843162E-04
7.083352E+03	2.119246E-02	3.840324E-04
7.093135E+03	2.115582E-02	3.838086E-04
7.102919E+03	2.112292E-02	3.836531E-04
7.112703E+03	2.109425E-02	3.835746E-04
7.122486E+03	2.106797E-02	3.835401E-04
7.132270E+03	2.104457E-02	3.835588E-04
7.142053E+03	2.102380E-02	3.836259E-04
7.151837E+03	2.100537E-02	3.837365E-04
7.161621E+03	2.098900E-02	3.838852E-04
7.171404E+03	2.097434E-02	3.840663E-04
7.181188E+03	2.096032E-02	3.842598E-04
7.190972E+03	2.094812E-02	3.844876E-04
7.200755E+03	2.093587E-02	3.847152E-04
7.210539E+03	2.092396E-02	3.849499E-04
7.220323E+03	2.091205E-02	3.851855E-04
7.230106E+03	2.089979E-02	3.854155E-04
7.239890E+03	2.088609E-02	3.856195E-04
7.249673E+03	2.087139E-02	3.858057E-04
7.259457E+03	2.085539E-02	3.859685E-04
7.269241E+03	2.083784E-02	3.861031E-04
7.279024E+03	2.081849E-02	3.862047E-04
7.288808E+03	2.079633E-02	3.862547E-04
7.298592E+03	2.077198E-02	3.862639E-04
7.308375E+03	2.074527E-02	3.862294E-04
7.318159E+03	2.071531E-02	3.861341E-04
7.327943E+03	2.068279E-02	3.859910E-04
7.337726E+03	2.064767E-02	3.857989E-04
7.347510E+03	2.060994E-02	3.855576E-04
7.357293E+03	2.056885E-02	3.852527E-04
7.367077E+03	2.052525E-02	3.849001E-04
7.376861E+03	2.047846E-02	3.844866E-04
7.386644E+03	2.042939E-02	3.840293E-04
7.396428E+03	2.037817E-02	3.835304E-04
7.406212E+03	2.032499E-02	3.829934E-04
7.415995E+03	2.026927E-02	3.824071E-04
7.425779E+03	2.021199E-02	3.817898E-04
7.435563E+03	2.015256E-02	3.811303E-04
7.445346E+03	2.009198E-02	3.804474E-04
7.455130E+03	2.002969E-02	3.797305E-04
7.464913E+03	1.996669E-02	3.789982E-04
7.474697E+03	1.990317E-02	3.782543E-04
7.484481E+03	1.983864E-02	3.774893E-04
7.494264E+03	1.977408E-02	3.767218E-04
7.504048E+03	1.970900E-02	3.759425E-04
7.513832E+03	1.964444E-02	3.751711E-04
7.523615E+03	1.958068E-02	3.744133E-04
7.533399E+03	1.951729E-02	3.736606E-04
7.543183E+03	1.945460E-02	3.729194E-04
7.552966E+03	1.939371E-02	3.722111E-04
7.562750E+03	1.933499E-02	3.715427E-04
7.572533E+03	1.927806E-02	3.709071E-04
7.582317E+03	1.922401E-02	3.703255E-04
7.592101E+03	1.917246E-02	3.697907E-04
