#wls	flux	fluxerr
1.565382E+03	6.450437E-03	1.079145E-04
1.604516E+03	6.582568E-03	1.100999E-04
1.643651E+03	6.712508E-03	1.122470E-04
1.682785E+03	6.842145E-03	1.143873E-04
1.721920E+03	6.969762E-03	1.164920E-04
1.761054E+03	7.092973E-03	1.185213E-04
1.800189E+03	7.213884E-03	1.205103E-04
1.839323E+03	7.327035E-03	1.223678E-04
1.878458E+03	7.432877E-03	1.241014E-04
1.917592E+03	7.528485E-03	1.256623E-04
1.956727E+03	7.613553E-03	1.270456E-04
1.995862E+03	7.692257E-03	1.283208E-04
2.034996E+03	7.772496E-03	1.296200E-04
2.074131E+03	7.866672E-03	1.311496E-04
2.113265E+03	7.985586E-03	1.330895E-04
2.152400E+03	8.135524E-03	1.355439E-04
2.191534E+03	8.310572E-03	1.384138E-04
2.230669E+03	8.503064E-03	1.415710E-04
2.269803E+03	8.701328E-03	1.448208E-04
2.308938E+03	8.896623E-03	1.480175E-04
2.348072E+03	9.087660E-03	1.511398E-04
2.387207E+03	9.272729E-03	1.541591E-04
2.426341E+03	9.448433E-03	1.570191E-04
2.465476E+03	9.617745E-03	1.597691E-04
2.504611E+03	9.780974E-03	1.624142E-04
2.543745E+03	9.936931E-03	1.649349E-04
2.582880E+03	1.008734E-02	1.673598E-04
2.622014E+03	1.023238E-02	1.696918E-04
2.661149E+03	1.037063E-02	1.719074E-04
2.700283E+03	1.050516E-02	1.740576E-04
2.739418E+03	1.063297E-02	1.760926E-04
2.778552E+03	1.075710E-02	1.780628E-04
2.817687E+03	1.087605E-02	1.799435E-04
2.856821E+03	1.098991E-02	1.817361E-04
2.895956E+03	1.110034E-02	1.834681E-04
2.935090E+03	1.120605E-02	1.851183E-04
2.944874E+03	1.123183E-02	1.855195E-04
2.954658E+03	1.125707E-02	1.859116E-04
2.964441E+03	1.128327E-02	1.863193E-04
2.974225E+03	1.130897E-02	1.867184E-04
2.984009E+03	1.133425E-02	1.871106E-04
2.993792E+03	1.135923E-02	1.874974E-04
3.003576E+03	1.138389E-02	1.878786E-04
3.013360E+03	1.140972E-02	1.882789E-04
3.023143E+03	1.143519E-02	1.886730E-04
3.032927E+03	1.146029E-02	1.890610E-04
3.042710E+03	1.148504E-02	1.894427E-04
3.052494E+03	1.151092E-02	1.898428E-04
3.062278E+03	1.153644E-02	1.902368E-04
3.072061E+03	1.156159E-02	1.906245E-04
3.081845E+03	1.158639E-02	1.910061E-04
3.091629E+03	1.161236E-02	1.914066E-04
3.101412E+03	1.163650E-02	1.917769E-04
3.111196E+03	1.166183E-02	1.921665E-04
3.120980E+03	1.168835E-02	1.925754E-04
3.130763E+03	1.171312E-02	1.929552E-04
3.140547E+03	1.173914E-02	1.933553E-04
3.150330E+03	1.176494E-02	1.937515E-04
3.160114E+03	1.179055E-02	1.941444E-04
3.169898E+03	1.181602E-02	1.945347E-04
3.179681E+03	1.184285E-02	1.949470E-04
3.189465E+03	1.186959E-02	1.953577E-04
3.199249E+03	1.189630E-02	1.957675E-04
3.209032E+03	1.192301E-02	1.961771E-04
3.218816E+03	1.195124E-02	1.966114E-04
3.228600E+03	1.197955E-02	1.970469E-04
3.238383E+03	1.200802E-02	1.974844E-04
3.248167E+03	1.203667E-02	1.979248E-04
3.257950E+03	1.206703E-02	1.983931E-04
3.267734E+03	1.209770E-02	1.988660E-04
3.277518E+03	1.212872E-02	1.993444E-04
3.287301E+03	1.216016E-02	1.998294E-04
3.297085E+03	1.219353E-02	2.003458E-04
3.306869E+03	1.222743E-02	2.008707E-04
3.316652E+03	1.226194E-02	2.014051E-04
3.326436E+03	1.229712E-02	2.019502E-04
3.336220E+03	1.233303E-02	2.025070E-04
3.346003E+03	1.237118E-02	2.031002E-04
3.355787E+03	1.241020E-02	2.037074E-04
3.365570E+03	1.245160E-02	2.043532E-04
3.375354E+03	1.249256E-02	2.049916E-04
3.385138E+03	1.253605E-02	2.056709E-04
3.394921E+03	1.258068E-02	2.063685E-04
3.404705E+03	1.262653E-02	2.070858E-04
3.414489E+03	1.267367E-02	2.078240E-04
3.424272E+03	1.272362E-02	2.086076E-04
3.434056E+03	1.277500E-02	2.094143E-04
3.443839E+03	1.282790E-02	2.102454E-04
3.453623E+03	1.288237E-02	2.111020E-04
3.463407E+03	1.293993E-02	2.120085E-04
3.473190E+03	1.299922E-02	2.129429E-04
3.482974E+03	1.306029E-02	2.139060E-04
3.492758E+03	1.312322E-02	2.148991E-04
3.502541E+03	1.318952E-02	2.159469E-04
3.512325E+03	1.325637E-02	2.170030E-04
3.522109E+03	1.332672E-02	2.181158E-04
3.531892E+03	1.339917E-02	2.192626E-04
3.541676E+03	1.347526E-02	2.204683E-04
3.551459E+03	1.355212E-02	2.216859E-04
3.561243E+03	1.363273E-02	2.229642E-04
3.571027E+03	1.371567E-02	2.242800E-04
3.580810E+03	1.380099E-02	2.256341E-04
3.590594E+03	1.389021E-02	2.270512E-04
3.600378E+03	1.398042E-02	2.284839E-04
3.610161E+03	1.407462E-02	2.299809E-04
3.619945E+03	1.417134E-02	2.315185E-04
3.629729E+03	1.427212E-02	2.331215E-04
3.639512E+03	1.437400E-02	2.347417E-04
3.649296E+03	1.447996E-02	2.364278E-04
3.659079E+03	1.458704E-02	2.381313E-04
3.668863E+03	1.469824E-02	2.399012E-04
3.678647E+03	1.481205E-02	2.417130E-04
3.688430E+03	1.492999E-02	2.435910E-04
3.698214E+03	1.504901E-02	2.454859E-04
3.707998E+03	1.517213E-02	2.474467E-04
3.717781E+03	1.529780E-02	2.494481E-04
3.727565E+03	1.542599E-02	2.514897E-04
3.737349E+03	1.555665E-02	2.535704E-04
3.747132E+03	1.568974E-02	2.556898E-04
3.756916E+03	1.582674E-02	2.578719E-04
3.766699E+03	1.596450E-02	2.600652E-04
3.776483E+03	1.610605E-02	2.623193E-04
3.786267E+03	1.624976E-02	2.646073E-04
3.796050E+03	1.639553E-02	2.669279E-04
3.805834E+03	1.654329E-02	2.692796E-04
3.815618E+03	1.669451E-02	2.716866E-04
3.825401E+03	1.684590E-02	2.740950E-04
3.835185E+03	1.700055E-02	2.765554E-04
3.844969E+03	1.715511E-02	2.790130E-04
3.854752E+03	1.731269E-02	2.815185E-04
3.864536E+03	1.747155E-02	2.840436E-04
3.874319E+03	1.763152E-02	2.865855E-04
3.884103E+03	1.779248E-02	2.891422E-04
3.893887E+03	1.795426E-02	2.917111E-04
3.903670E+03	1.811841E-02	2.943169E-04
3.913454E+03	1.828139E-02	2.969026E-04
3.923238E+03	1.844473E-02	2.994928E-04
3.933021E+03	1.860996E-02	3.021123E-04
3.942805E+03	1.877352E-02	3.047035E-04
3.952589E+03	1.893867E-02	3.073190E-04
3.962372E+03	1.910352E-02	3.099284E-04
3.972156E+03	1.926618E-02	3.125009E-04
3.981939E+03	1.942996E-02	3.150902E-04
3.991723E+03	1.959295E-02	3.176655E-04
4.001507E+03	1.975501E-02	3.202241E-04
4.011290E+03	1.991597E-02	3.227638E-04
4.021074E+03	2.007569E-02	3.252819E-04
4.030858E+03	2.023225E-02	3.277476E-04
4.040641E+03	2.038906E-02	3.302159E-04
4.050425E+03	2.054421E-02	3.326561E-04
4.060208E+03	2.069759E-02	3.350664E-04
4.069992E+03	2.084909E-02	3.374448E-04
4.079776E+03	2.099858E-02	3.397896E-04
4.089559E+03	2.114599E-02	3.420992E-04
4.099343E+03	2.129121E-02	3.443724E-04
4.109127E+03	2.143418E-02	3.466078E-04
4.118910E+03	2.157301E-02	3.487750E-04
4.128694E+03	2.171130E-02	3.509324E-04
4.138478E+03	2.184718E-02	3.530495E-04
4.148261E+03	2.197877E-02	3.550962E-04
4.158045E+03	2.210976E-02	3.571319E-04
4.167828E+03	2.223643E-02	3.590968E-04
4.177612E+03	2.236251E-02	3.610509E-04
4.187396E+03	2.248429E-02	3.629346E-04
4.197179E+03	2.260366E-02	3.647783E-04
4.206963E+03	2.272255E-02	3.666131E-04
4.216747E+03	2.283727E-02	3.683797E-04
4.226530E+03	2.294976E-02	3.701092E-04
4.236314E+03	2.305822E-02	3.717727E-04
4.246098E+03	2.316650E-02	3.734322E-04
4.255881E+03	2.327282E-02	3.750592E-04
4.265665E+03	2.337541E-02	3.766251E-04
4.275448E+03	2.347817E-02	3.781927E-04
4.285232E+03	2.357745E-02	3.797033E-04
4.295016E+03	2.367527E-02	3.811896E-04
4.304799E+03	2.377180E-02	3.826542E-04
4.314583E+03	2.386721E-02	3.840996E-04
4.324367E+03	2.395976E-02	3.854984E-04
4.334150E+03	2.405343E-02	3.869141E-04
4.343934E+03	2.414460E-02	3.882889E-04
4.353718E+03	2.423536E-02	3.896561E-04
4.363501E+03	2.432586E-02	3.910184E-04
4.373285E+03	2.441631E-02	3.923788E-04
4.383068E+03	2.450496E-02	3.937096E-04
4.392852E+03	2.459388E-02	3.950437E-04
4.402636E+03	2.468322E-02	3.963839E-04
4.412419E+03	2.477314E-02	3.977324E-04
4.422203E+03	2.486377E-02	3.990914E-04
4.431987E+03	2.495334E-02	4.004326E-04
4.441770E+03	2.504576E-02	4.018187E-04
4.451554E+03	2.513543E-02	4.031597E-04
4.461338E+03	2.522814E-02	4.045487E-04
4.471121E+03	2.532205E-02	4.059560E-04
4.480905E+03	2.541532E-02	4.073521E-04
4.490688E+03	2.550989E-02	4.087682E-04
4.500472E+03	2.560578E-02	4.102046E-04
4.510256E+03	2.570108E-02	4.116304E-04
4.520039E+03	2.579768E-02	4.130763E-04
4.529823E+03	2.589557E-02	4.145419E-04
4.539607E+03	2.599468E-02	4.160261E-04
4.549390E+03	2.609305E-02	4.174974E-04
4.559174E+03	2.619250E-02	4.189852E-04
4.568958E+03	2.629296E-02	4.204881E-04
4.578741E+03	2.639429E-02	4.220041E-04
4.588525E+03	2.649446E-02	4.235004E-04
4.598308E+03	2.659526E-02	4.250059E-04
4.608092E+03	2.669459E-02	4.264871E-04
4.617876E+03	2.679620E-02	4.280037E-04
4.627659E+03	2.689602E-02	4.294906E-04
4.637443E+03	2.699581E-02	4.309763E-04
4.647227E+03	2.709347E-02	4.324270E-04
4.657010E+03	2.719074E-02	4.338704E-04
4.666794E+03	2.728742E-02	4.353037E-04
4.676577E+03	2.738138E-02	4.366926E-04
4.686361E+03	2.747437E-02	4.380653E-04
4.696145E+03	2.756622E-02	4.394187E-04
4.705928E+03	2.765671E-02	4.407498E-04
4.715712E+03	2.774370E-02	4.420242E-04
4.725496E+03	2.782703E-02	4.432395E-04
4.735279E+03	2.791044E-02	4.444552E-04
4.745063E+03	2.798983E-02	4.456062E-04
4.754847E+03	2.806702E-02	4.467214E-04
4.764630E+03	2.813989E-02	4.477672E-04
4.774414E+03	2.821029E-02	4.487731E-04
4.784197E+03	2.827811E-02	4.497371E-04
4.793981E+03	2.834127E-02	4.506264E-04
4.803765E+03	2.840364E-02	4.515026E-04
4.813548E+03	2.845923E-02	4.522705E-04
4.823332E+03	2.851391E-02	4.530234E-04
4.833116E+03	2.856371E-02	4.536983E-04
4.842899E+03	2.860863E-02	4.542951E-04
4.852683E+03	2.865062E-02	4.548452E-04
4.862467E+03	2.868975E-02	4.553493E-04
4.872250E+03	2.872604E-02	4.558080E-04
4.882034E+03	2.875759E-02	4.561912E-04
4.891817E+03	2.878646E-02	4.565316E-04
4.901601E+03	2.881273E-02	4.568306E-04
4.911385E+03	2.883456E-02	4.570589E-04
4.921168E+03	2.885209E-02	4.572187E-04
4.930952E+03	2.886935E-02	4.573744E-04
4.940736E+03	2.888260E-02	4.574661E-04
4.950519E+03	2.889394E-02	4.575277E-04
4.960303E+03	2.890158E-02	4.575305E-04
4.970087E+03	2.890764E-02	4.575083E-04
4.979870E+03	2.891231E-02	4.574640E-04
4.989654E+03	2.891380E-02	4.573694E-04
4.999437E+03	2.891421E-02	4.572579E-04
5.009221E+03	2.891179E-02	4.571015E-04
5.019005E+03	2.891057E-02	4.569641E-04
5.028788E+03	2.890488E-02	4.567562E-04
5.038572E+03	2.890067E-02	4.565718E-04
5.048356E+03	2.889420E-02	4.563519E-04
5.058139E+03	2.888752E-02	4.561286E-04
5.067923E+03	2.887880E-02	4.558734E-04
5.077707E+03	2.887005E-02	4.556178E-04
5.087490E+03	2.886132E-02	4.553628E-04
5.097274E+03	2.885076E-02	4.550790E-04
5.107057E+03	2.884031E-02	4.547971E-04
5.116841E+03	2.882996E-02	4.545171E-04
5.126625E+03	2.881781E-02	4.542087E-04
5.136408E+03	2.880572E-02	4.539018E-04
5.146192E+03	2.879365E-02	4.535952E-04
5.155976E+03	2.877963E-02	4.532583E-04
5.165759E+03	2.876548E-02	4.529195E-04
5.175543E+03	2.875109E-02	4.525774E-04
5.185327E+03	2.873446E-02	4.522001E-04
5.195110E+03	2.871735E-02	4.518156E-04
5.204894E+03	2.869962E-02	4.514218E-04
5.214677E+03	2.867923E-02	4.509864E-04
5.224461E+03	2.865791E-02	4.505369E-04
5.234245E+03	2.863362E-02	4.500411E-04
5.244028E+03	2.860995E-02	4.495553E-04
5.253812E+03	2.858296E-02	4.490179E-04
5.263596E+03	2.855250E-02	4.484264E-04
5.273379E+03	2.852213E-02	4.478368E-04
5.283163E+03	2.848795E-02	4.471881E-04
5.292946E+03	2.844983E-02	4.464778E-04
5.302730E+03	2.841129E-02	4.457616E-04
5.312514E+03	2.836849E-02	4.449794E-04
5.322297E+03	2.832131E-02	4.441288E-04
5.332081E+03	2.827330E-02	4.432662E-04
5.341865E+03	2.822065E-02	4.423315E-04
5.351648E+03	2.816511E-02	4.413521E-04
5.361432E+03	2.810475E-02	4.402980E-04
5.371216E+03	2.804131E-02	4.391965E-04
5.380999E+03	2.797472E-02	4.380466E-04
5.390783E+03	2.790491E-02	4.368469E-04
5.400566E+03	2.783004E-02	4.355691E-04
5.410350E+03	2.775188E-02	4.342407E-04
5.420134E+03	2.767042E-02	4.328615E-04
5.429917E+03	2.758387E-02	4.314038E-04
5.439701E+03	2.749405E-02	4.298959E-04
5.449485E+03	2.740100E-02	4.283386E-04
5.459268E+03	2.730476E-02	4.267326E-04
5.469052E+03	2.720367E-02	4.250518E-04
5.478836E+03	2.709959E-02	4.233254E-04
5.488619E+03	2.699264E-02	4.215553E-04
5.498403E+03	2.688295E-02	4.197437E-04
5.508186E+03	2.676895E-02	4.178659E-04
5.517970E+03	2.665254E-02	4.159517E-04
5.527754E+03	2.653220E-02	4.139774E-04
5.537537E+03	2.641156E-02	4.119997E-04
5.547321E+03	2.628739E-02	4.099684E-04
5.557105E+03	2.616165E-02	4.079138E-04
5.566888E+03	2.603456E-02	4.058394E-04
5.576672E+03	2.590467E-02	4.037227E-04
5.586456E+03	2.577557E-02	4.016197E-04
5.596239E+03	2.564419E-02	3.994824E-04
5.606023E+03	2.551076E-02	3.973147E-04
5.615806E+03	2.537884E-02	3.951717E-04
5.625590E+03	2.524540E-02	3.930063E-04
5.635374E+03	2.511227E-02	3.908473E-04
5.645157E+03	2.497971E-02	3.886985E-04
5.654941E+03	2.484792E-02	3.865629E-04
5.664725E+03	2.471552E-02	3.844193E-04
5.674508E+03	2.458432E-02	3.822955E-04
5.684292E+03	2.445449E-02	3.801945E-04
5.694076E+03	2.432622E-02	3.781191E-04
5.703859E+03	2.419808E-02	3.760470E-04
5.713643E+03	2.407337E-02	3.740295E-04
5.723426E+03	2.394910E-02	3.720201E-04
5.733210E+03	2.382693E-02	3.700447E-04
5.742994E+03	2.370545E-02	3.680813E-04
5.752777E+03	2.358780E-02	3.661785E-04
5.762561E+03	2.347101E-02	3.642903E-04
5.772345E+03	2.335663E-02	3.624409E-04
5.782128E+03	2.324475E-02	3.606313E-04
5.791912E+03	2.313535E-02	3.588616E-04
5.801696E+03	2.302700E-02	3.571092E-04
5.811479E+03	2.292265E-02	3.554202E-04
5.821263E+03	2.281935E-02	3.537484E-04
5.831046E+03	2.271856E-02	3.521169E-04
5.840830E+03	2.262026E-02	3.505249E-04
5.850614E+03	2.252439E-02	3.489719E-04
5.860397E+03	2.242951E-02	3.474352E-04
5.870181E+03	2.233699E-02	3.459363E-04
5.879965E+03	2.224824E-02	3.444969E-04
5.889748E+03	2.216034E-02	3.430717E-04
5.899532E+03	2.207468E-02	3.416821E-04
5.909315E+03	2.198977E-02	3.403053E-04
5.919099E+03	2.190844E-02	3.389850E-04
5.928883E+03	2.182780E-02	3.376764E-04
5.938666E+03	2.175064E-02	3.364226E-04
5.948450E+03	2.167411E-02	3.351796E-04
5.958234E+03	2.159961E-02	3.339690E-04
5.968017E+03	2.152711E-02	3.327905E-04
5.977801E+03	2.145523E-02	3.316224E-04
5.987585E+03	2.138674E-02	3.305079E-04
5.997368E+03	2.131890E-02	3.294042E-04
6.007152E+03	2.125450E-02	3.283547E-04
6.016935E+03	2.119081E-02	3.273174E-04
6.026719E+03	2.112927E-02	3.263140E-04
6.036503E+03	2.106992E-02	3.253456E-04
6.046286E+03	2.101287E-02	3.244135E-04
6.056070E+03	2.095817E-02	3.235187E-04
6.065854E+03	2.090457E-02	3.226420E-04
6.075637E+03	2.085490E-02	3.218267E-04
6.085421E+03	2.080654E-02	3.210327E-04
6.095205E+03	2.076234E-02	3.203036E-04
6.104988E+03	2.071971E-02	3.195999E-04
6.114772E+03	2.068017E-02	3.189446E-04
6.124555E+03	2.064382E-02	3.183396E-04
6.134339E+03	2.061084E-02	3.177873E-04
6.144123E+03	2.058137E-02	3.172901E-04
6.153906E+03	2.055422E-02	3.168295E-04
6.163690E+03	2.053222E-02	3.164492E-04
6.173474E+03	2.051284E-02	3.161102E-04
6.183257E+03	2.049891E-02	3.158560E-04
6.193041E+03	2.048789E-02	3.156475E-04
6.202825E+03	2.048259E-02	3.155281E-04
6.212608E+03	2.048046E-02	3.154581E-04
6.222392E+03	2.048293E-02	3.154601E-04
6.232175E+03	2.049013E-02	3.155357E-04
6.241959E+03	2.050213E-02	3.156859E-04
6.251743E+03	2.051898E-02	3.159118E-04
6.261526E+03	2.054075E-02	3.162142E-04
6.271310E+03	2.056610E-02	3.165725E-04
6.281094E+03	2.059771E-02	3.170281E-04
6.290877E+03	2.063423E-02	3.175601E-04
6.300661E+03	2.067422E-02	3.181463E-04
6.310445E+03	2.072032E-02	3.188273E-04
6.320228E+03	2.076966E-02	3.195591E-04
6.330012E+03	2.082346E-02	3.203602E-04
6.339795E+03	2.088286E-02	3.212484E-04
6.349579E+03	2.094490E-02	3.221780E-04
6.359363E+03	2.101064E-02	3.231653E-04
6.369146E+03	2.107975E-02	3.242053E-04
6.378930E+03	2.115324E-02	3.253133E-04
6.388714E+03	2.122788E-02	3.264398E-04
6.398497E+03	2.130454E-02	3.275982E-04
6.408281E+03	2.138268E-02	3.287802E-04
6.418065E+03	2.146026E-02	3.299542E-04
6.427848E+03	2.153947E-02	3.311541E-04
6.437632E+03	2.161820E-02	3.323474E-04
6.447415E+03	2.169576E-02	3.335234E-04
6.457199E+03	2.177141E-02	3.346709E-04
6.466983E+03	2.184299E-02	3.357566E-04
6.476766E+03	2.191267E-02	3.368138E-04
6.486550E+03	2.197828E-02	3.378093E-04
6.496334E+03	2.203768E-02	3.387100E-04
6.506117E+03	2.209311E-02	3.395506E-04
6.515901E+03	2.214103E-02	3.402765E-04
6.525684E+03	2.218378E-02	3.409237E-04
6.535468E+03	2.221788E-02	3.414388E-04
6.545252E+03	2.224583E-02	3.418601E-04
6.555035E+03	2.226421E-02	3.421353E-04
6.564819E+03	2.227420E-02	3.422822E-04
6.574603E+03	2.227697E-02	3.423191E-04
6.584386E+03	2.226938E-02	3.421974E-04
6.594170E+03	2.225276E-02	3.419378E-04
6.603954E+03	2.222708E-02	3.415397E-04
6.613737E+03	2.219383E-02	3.410262E-04
6.623521E+03	2.215016E-02	3.403531E-04
6.633304E+03	2.209768E-02	3.395455E-04
6.643088E+03	2.203666E-02	3.386074E-04
6.652872E+03	2.196739E-02	3.375432E-04
6.662655E+03	2.189020E-02	3.363581E-04
6.672439E+03	2.180551E-02	3.350583E-04
6.682223E+03	2.171377E-02	3.336508E-04
6.692006E+03	2.161545E-02	3.321430E-04
6.701790E+03	2.151107E-02	3.305428E-04
6.711574E+03	2.140118E-02	3.288584E-04
6.721357E+03	2.128634E-02	3.270984E-04
6.731141E+03	2.116710E-02	3.252715E-04
6.740924E+03	2.104407E-02	3.233869E-04
6.750708E+03	2.091638E-02	3.214312E-04
6.760492E+03	2.078744E-02	3.194569E-04
6.770275E+03	2.065640E-02	3.174507E-04
6.780059E+03	2.052379E-02	3.154209E-04
6.789843E+03	2.038876E-02	3.133544E-04
6.799626E+03	2.025458E-02	3.113013E-04
6.809410E+03	2.012033E-02	3.092477E-04
6.819194E+03	1.998511E-02	3.071795E-04
6.828977E+03	1.985205E-02	3.051449E-04
6.838761E+03	1.971884E-02	3.031085E-04
6.848544E+03	1.958853E-02	3.011168E-04
6.858328E+03	1.945876E-02	2.991339E-04
6.868112E+03	1.933248E-02	2.972051E-04
6.877895E+03	1.920732E-02	2.952936E-04
6.887679E+03	1.908483E-02	2.934236E-04
6.897463E+03	1.896650E-02	2.916179E-04
6.907246E+03	1.884990E-02	2.898390E-04
6.917030E+03	1.873649E-02	2.881095E-04
6.926814E+03	1.862636E-02	2.864308E-04
6.936597E+03	1.851963E-02	2.848044E-04
6.946381E+03	1.841761E-02	2.832510E-04
6.956164E+03	1.831781E-02	2.817320E-04
6.965948E+03	1.822154E-02	2.802673E-04
6.975732E+03	1.812878E-02	2.788570E-04
6.985515E+03	1.803953E-02	2.775010E-04
6.995299E+03	1.795252E-02	2.761796E-04
7.005083E+03	1.787017E-02	2.749303E-04
7.014866E+03	1.779120E-02	2.737331E-04
7.024650E+03	1.771554E-02	2.725871E-04
7.034434E+03	1.764186E-02	2.714719E-04
7.044217E+03	1.757255E-02	2.704240E-04
7.054001E+03	1.750627E-02	2.694231E-04
7.063784E+03	1.744171E-02	2.684490E-04
7.073568E+03	1.738117E-02	2.675369E-04
7.083352E+03	1.732213E-02	2.666483E-04
7.093135E+03	1.726569E-02	2.657998E-04
7.102919E+03	1.721171E-02	2.649895E-04
7.112703E+03	1.716127E-02	2.642339E-04
7.122486E+03	1.711184E-02	2.634941E-04
7.132270E+03	1.706451E-02	2.627869E-04
7.142053E+03	1.701914E-02	2.621103E-04
7.151837E+03	1.697562E-02	2.614622E-04
7.161621E+03	1.693263E-02	2.608227E-04
7.171404E+03	1.689243E-02	2.602263E-04
7.181188E+03	1.685370E-02	2.596529E-04
7.190972E+03	1.681635E-02	2.591009E-04
7.200755E+03	1.677906E-02	2.585503E-04
7.210539E+03	1.674293E-02	2.580177E-04
7.220323E+03	1.670902E-02	2.575196E-04
7.230106E+03	1.667489E-02	2.570183E-04
7.239890E+03	1.664161E-02	2.565304E-04
7.249673E+03	1.660911E-02	2.560547E-04
7.259457E+03	1.657729E-02	2.555900E-04
7.269241E+03	1.654610E-02	2.551350E-04
7.279024E+03	1.651544E-02	2.546885E-04
7.288808E+03	1.648527E-02	2.542499E-04
7.298592E+03	1.645435E-02	2.538001E-04
7.308375E+03	1.642499E-02	2.533743E-04
7.318159E+03	1.639478E-02	2.529359E-04
7.327943E+03	1.636605E-02	2.525205E-04
7.337726E+03	1.633641E-02	2.520915E-04
7.347510E+03	1.630704E-02	2.516666E-04
7.357293E+03	1.627790E-02	2.512457E-04
7.367077E+03	1.624897E-02	2.508284E-04
7.376861E+03	1.621911E-02	2.503969E-04
7.386644E+03	1.619063E-02	2.499869E-04
7.396428E+03	1.616239E-02	2.495809E-04
7.406212E+03	1.613323E-02	2.491610E-04
7.415995E+03	1.610433E-02	2.487454E-04
7.425779E+03	1.607689E-02	2.483526E-04
7.435563E+03	1.604861E-02	2.479470E-04
7.445346E+03	1.602068E-02	2.475472E-04
7.455130E+03	1.599199E-02	2.471359E-04
7.464913E+03	1.596487E-02	2.467491E-04
7.474697E+03	1.593823E-02	2.463701E-04
7.484481E+03	1.591095E-02	2.459813E-04
7.494264E+03	1.588537E-02	2.456191E-04
7.504048E+03	1.585925E-02	2.452489E-04
7.513832E+03	1.583378E-02	2.448890E-04
7.523615E+03	1.580901E-02	2.445401E-04
7.533399E+03	1.578497E-02	2.442029E-04
7.543183E+03	1.576056E-02	2.438604E-04
7.552966E+03	1.573813E-02	2.435486E-04
7.562750E+03	1.571541E-02	2.432327E-04
7.572533E+03	1.569358E-02	2.429309E-04
7.582317E+03	1.567383E-02	2.426615E-04
7.592101E+03	1.565273E-02	2.423716E-04
