#wls	flux	fluxerr
1.565382E+03	4.734812E-03	2.846067E-04
1.604516E+03	4.819095E-03	2.892779E-04
1.643651E+03	4.901563E-03	2.938169E-04
1.682785E+03	4.983668E-03	2.983106E-04
1.721920E+03	5.062456E-03	3.025818E-04
1.761054E+03	5.139739E-03	3.067390E-04
1.800189E+03	5.212733E-03	3.106162E-04
1.839323E+03	5.281086E-03	3.141928E-04
1.878458E+03	5.342543E-03	3.173358E-04
1.917592E+03	5.396909E-03	3.200351E-04
1.956727E+03	5.444098E-03	3.222872E-04
1.995862E+03	5.486314E-03	3.242241E-04
2.034996E+03	5.529287E-03	3.261849E-04
2.074131E+03	5.581887E-03	3.286914E-04
2.113265E+03	5.651742E-03	3.321884E-04
2.152400E+03	5.743281E-03	3.369296E-04
2.191534E+03	5.854196E-03	3.427717E-04
2.230669E+03	5.975293E-03	3.491703E-04
2.269803E+03	6.100331E-03	3.557569E-04
2.308938E+03	6.224309E-03	3.622382E-04
2.348072E+03	6.344569E-03	3.684592E-04
2.387207E+03	6.461137E-03	3.744222E-04
2.426341E+03	6.571799E-03	3.799997E-04
2.465476E+03	6.677896E-03	3.852705E-04
2.504611E+03	6.780972E-03	3.903246E-04
2.543745E+03	6.880434E-03	3.951286E-04
2.582880E+03	6.976735E-03	3.997093E-04
2.622014E+03	7.070294E-03	4.040914E-04
2.661149E+03	7.161502E-03	4.082979E-04
2.700283E+03	7.250737E-03	4.123508E-04
2.739418E+03	7.339522E-03	4.163372E-04
2.778552E+03	7.427125E-03	4.202153E-04
2.817687E+03	7.513974E-03	4.240098E-04
2.856821E+03	7.601703E-03	4.278126E-04
2.895956E+03	7.688529E-03	4.315233E-04
2.935090E+03	7.777379E-03	4.353061E-04
2.944874E+03	7.800501E-03	4.362960E-04
2.954658E+03	7.822486E-03	4.372198E-04
2.964441E+03	7.845691E-03	4.382091E-04
2.974225E+03	7.868972E-03	4.392000E-04
2.984009E+03	7.892404E-03	4.401966E-04
2.993792E+03	7.914884E-03	4.411374E-04
3.003576E+03	7.938758E-03	4.421532E-04
3.013360E+03	7.962846E-03	4.431782E-04
3.023143E+03	7.987144E-03	4.442122E-04
3.032927E+03	8.012833E-03	4.453207E-04
3.042710E+03	8.037550E-03	4.463722E-04
3.052494E+03	8.062476E-03	4.474327E-04
3.062278E+03	8.087618E-03	4.485023E-04
3.072061E+03	8.114172E-03	4.496473E-04
3.081845E+03	8.140957E-03	4.508022E-04
3.091629E+03	8.166791E-03	4.519016E-04
3.101412E+03	8.194065E-03	4.530777E-04
3.111196E+03	8.221600E-03	4.542652E-04
3.120980E+03	8.249408E-03	4.554649E-04
3.130763E+03	8.276303E-03	4.566111E-04
3.140547E+03	8.304703E-03	4.578374E-04
3.150330E+03	8.334630E-03	4.591448E-04
3.160114E+03	8.363684E-03	4.604010E-04
3.169898E+03	8.393096E-03	4.616738E-04
3.179681E+03	8.422871E-03	4.629635E-04
3.189465E+03	8.454260E-03	4.643387E-04
3.199249E+03	8.484844E-03	4.656664E-04
3.209032E+03	8.517075E-03	4.670813E-04
3.218816E+03	8.548541E-03	4.684511E-04
3.228600E+03	8.581713E-03	4.699110E-04
3.238383E+03	8.615381E-03	4.713947E-04
3.248167E+03	8.649572E-03	4.729035E-04
3.257950E+03	8.683083E-03	4.743719E-04
3.267734E+03	8.718388E-03	4.759348E-04
3.277518E+03	8.754285E-03	4.775265E-04
3.287301E+03	8.792046E-03	4.792163E-04
3.297085E+03	8.829216E-03	4.808703E-04
3.306869E+03	8.867050E-03	4.825568E-04
3.316652E+03	8.905575E-03	4.842772E-04
3.326436E+03	8.946064E-03	4.861006E-04
3.336220E+03	8.986052E-03	4.878931E-04
3.346003E+03	9.028067E-03	4.897916E-04
3.355787E+03	9.069609E-03	4.916607E-04
3.365570E+03	9.113233E-03	4.936387E-04
3.375354E+03	9.157703E-03	4.956584E-04
3.385138E+03	9.203038E-03	4.977208E-04
3.394921E+03	9.247993E-03	4.997585E-04
3.404705E+03	9.295139E-03	5.019105E-04
3.414489E+03	9.343216E-03	5.041084E-04
3.424272E+03	9.392258E-03	5.063541E-04
3.434056E+03	9.442278E-03	5.086481E-04
3.443839E+03	9.494592E-03	5.110611E-04
3.453623E+03	9.546639E-03	5.134553E-04
3.463407E+03	9.599730E-03	5.159009E-04
3.473190E+03	9.653882E-03	5.183989E-04
3.482974E+03	9.710422E-03	5.210205E-04
3.492758E+03	9.766739E-03	5.236252E-04
3.502541E+03	9.825491E-03	5.263555E-04
3.512325E+03	9.884049E-03	5.290706E-04
3.522109E+03	9.945073E-03	5.319126E-04
3.531892E+03	1.000591E-02	5.347394E-04
3.541676E+03	1.006925E-02	5.376949E-04
3.551459E+03	1.013376E-02	5.407078E-04
3.561243E+03	1.019946E-02	5.437787E-04
3.571027E+03	1.026634E-02	5.469070E-04
3.580810E+03	1.033305E-02	5.500209E-04
3.590594E+03	1.040231E-02	5.532652E-04
3.600378E+03	1.047275E-02	5.565671E-04
3.610161E+03	1.054440E-02	5.599270E-04
3.619945E+03	1.061723E-02	5.633445E-04
3.629729E+03	1.069125E-02	5.668188E-04
3.639512E+03	1.076784E-02	5.704238E-04
3.649296E+03	1.084420E-02	5.740112E-04
3.659079E+03	1.092172E-02	5.776534E-04
3.668863E+03	1.100038E-02	5.813503E-04
3.678647E+03	1.108160E-02	5.851765E-04
3.688430E+03	1.116249E-02	5.889795E-04
3.698214E+03	1.124447E-02	5.928338E-04
3.707998E+03	1.132898E-02	5.968157E-04
3.717781E+03	1.141308E-02	6.007694E-04
3.727565E+03	1.149818E-02	6.047703E-04
3.737349E+03	1.158577E-02	6.088953E-04
3.747132E+03	1.167283E-02	6.129868E-04
3.756916E+03	1.176231E-02	6.171994E-04
3.766699E+03	1.185120E-02	6.213748E-04
3.776483E+03	1.194245E-02	6.256679E-04
3.786267E+03	1.203454E-02	6.299985E-04
3.796050E+03	1.212588E-02	6.342841E-04
3.805834E+03	1.221951E-02	6.386832E-04
3.815618E+03	1.231230E-02	6.430327E-04
3.825401E+03	1.240730E-02	6.474916E-04
3.835185E+03	1.250293E-02	6.519772E-04
3.844969E+03	1.259756E-02	6.564051E-04
3.854752E+03	1.269430E-02	6.609369E-04
3.864536E+03	1.279152E-02	6.654881E-04
3.874319E+03	1.288759E-02	6.699738E-04
3.884103E+03	1.298565E-02	6.745572E-04
3.893887E+03	1.308407E-02	6.791539E-04
3.903670E+03	1.318279E-02	6.837606E-04
3.913454E+03	1.328014E-02	6.882914E-04
3.923238E+03	1.337934E-02	6.929126E-04
3.933021E+03	1.347872E-02	6.975378E-04
3.942805E+03	1.357658E-02	7.020795E-04
3.952589E+03	1.367618E-02	7.067068E-04
3.962372E+03	1.377586E-02	7.113331E-04
3.972156E+03	1.387387E-02	7.158687E-04
3.981939E+03	1.397357E-02	7.204870E-04
3.991723E+03	1.407323E-02	7.250987E-04
4.001507E+03	1.417113E-02	7.296158E-04
4.011290E+03	1.427066E-02	7.342129E-04
4.021074E+03	1.437009E-02	7.388012E-04
4.030858E+03	1.446767E-02	7.432907E-04
4.040641E+03	1.456687E-02	7.478599E-04
4.050425E+03	1.466419E-02	7.523297E-04
4.060208E+03	1.476314E-02	7.568795E-04
4.069992E+03	1.486021E-02	7.613303E-04
4.079776E+03	1.495893E-02	7.658632E-04
4.089559E+03	1.505579E-02	7.702976E-04
4.099343E+03	1.515436E-02	7.748175E-04
4.109127E+03	1.525108E-02	7.792410E-04
4.118910E+03	1.534780E-02	7.836620E-04
4.128694E+03	1.544635E-02	7.881751E-04
4.138478E+03	1.554317E-02	7.925981E-04
4.148261E+03	1.564011E-02	7.970261E-04
4.158045E+03	1.573723E-02	8.014618E-04
4.167828E+03	1.583646E-02	8.060040E-04
4.177612E+03	1.593417E-02	8.104683E-04
4.187396E+03	1.603228E-02	8.149520E-04
4.197179E+03	1.613088E-02	8.194601E-04
4.206963E+03	1.623005E-02	8.239976E-04
4.216747E+03	1.632990E-02	8.285689E-04
4.226530E+03	1.643052E-02	8.331798E-04
4.236314E+03	1.653012E-02	8.377390E-04
4.246098E+03	1.663260E-02	8.424452E-04
4.255881E+03	1.673618E-02	8.472074E-04
4.265665E+03	1.684097E-02	8.520316E-04
4.275448E+03	1.694512E-02	8.568245E-04
4.285232E+03	1.705261E-02	8.617881E-04
4.295016E+03	1.715964E-02	8.667295E-04
4.304799E+03	1.727016E-02	8.718488E-04
4.314583E+03	1.738024E-02	8.769475E-04
4.324367E+03	1.749182E-02	8.821241E-04
4.334150E+03	1.760688E-02	8.874782E-04
4.343934E+03	1.772139E-02	8.928074E-04
4.353718E+03	1.783730E-02	8.982095E-04
4.363501E+03	1.795456E-02	9.036827E-04
4.373285E+03	1.807313E-02	9.092244E-04
4.383068E+03	1.819294E-02	9.148323E-04
4.392852E+03	1.831188E-02	9.203995E-04
4.402636E+03	1.843400E-02	9.261297E-04
4.412419E+03	1.855720E-02	9.319173E-04
4.422203E+03	1.867930E-02	9.376536E-04
4.431987E+03	1.880442E-02	9.435453E-04
4.441770E+03	1.892831E-02	9.493788E-04
4.451554E+03	1.905509E-02	9.553614E-04
4.461338E+03	1.918048E-02	9.612779E-04
4.471121E+03	1.930652E-02	9.672310E-04
4.480905E+03	1.943311E-02	9.732164E-04
4.490688E+03	1.956020E-02	9.792309E-04
4.500472E+03	1.968770E-02	9.852704E-04
4.510256E+03	1.981553E-02	9.913314E-04
4.520039E+03	1.994361E-02	9.974094E-04
4.529823E+03	2.006967E-02	1.003391E-03
4.539607E+03	2.019799E-02	1.009491E-03
4.549390E+03	2.032409E-02	1.015486E-03
4.559174E+03	2.045009E-02	1.021480E-03
4.568958E+03	2.057813E-02	1.027582E-03
4.578741E+03	2.070365E-02	1.033564E-03
4.588525E+03	2.082878E-02	1.039533E-03
4.598308E+03	2.095345E-02	1.045484E-03
4.608092E+03	2.107755E-02	1.051413E-03
4.617876E+03	2.119870E-02	1.057202E-03
4.627659E+03	2.132138E-02	1.063073E-03
4.637443E+03	2.144322E-02	1.068908E-03
4.647227E+03	2.156178E-02	1.074588E-03
4.657010E+03	2.167930E-02	1.080222E-03
4.666794E+03	2.179802E-02	1.085923E-03
4.676577E+03	2.191316E-02	1.091453E-03
4.686361E+03	2.202696E-02	1.096925E-03
4.696145E+03	2.213937E-02	1.102334E-03
4.705928E+03	2.225026E-02	1.107675E-03
4.715712E+03	2.235716E-02	1.112826E-03
4.725496E+03	2.246479E-02	1.118021E-03
4.735279E+03	2.256825E-02	1.123017E-03
4.745063E+03	2.267227E-02	1.128049E-03
4.754847E+03	2.277197E-02	1.132875E-03
4.764630E+03	2.286967E-02	1.137610E-03
4.774414E+03	2.296532E-02	1.142252E-03
4.784197E+03	2.305884E-02	1.146797E-03
4.793981E+03	2.315017E-02	1.151242E-03
4.803765E+03	2.323927E-02	1.155585E-03
4.813548E+03	2.332361E-02	1.159701E-03
4.823332E+03	2.340807E-02	1.163833E-03
4.833116E+03	2.348767E-02	1.167733E-03
4.842899E+03	2.356484E-02	1.171522E-03
4.852683E+03	2.363954E-02	1.175197E-03
4.862467E+03	2.371175E-02	1.178759E-03
4.872250E+03	2.378144E-02	1.182206E-03
4.882034E+03	2.384858E-02	1.185536E-03
4.891817E+03	2.391317E-02	1.188750E-03
4.901601E+03	2.397268E-02	1.191721E-03
4.911385E+03	2.403211E-02	1.194699E-03
4.921168E+03	2.408645E-02	1.197435E-03
4.930952E+03	2.413819E-02	1.200052E-03
4.940736E+03	2.418735E-02	1.202551E-03
4.950519E+03	2.423393E-02	1.204933E-03
4.960303E+03	2.427793E-02	1.207197E-03
4.970087E+03	2.431938E-02	1.209346E-03
4.979870E+03	2.435575E-02	1.211252E-03
4.989654E+03	2.439211E-02	1.213170E-03
4.999437E+03	2.442344E-02	1.214847E-03
5.009221E+03	2.445227E-02	1.216412E-03
5.019005E+03	2.448115E-02	1.217991E-03
5.028788E+03	2.450506E-02	1.219333E-03
5.038572E+03	2.452654E-02	1.220566E-03
5.048356E+03	2.454308E-02	1.221563E-03
5.058139E+03	2.455977E-02	1.222580E-03
5.067923E+03	2.457410E-02	1.223491E-03
5.077707E+03	2.458356E-02	1.224170E-03
5.087490E+03	2.459072E-02	1.224745E-03
5.097274E+03	2.459812E-02	1.225344E-03
5.107057E+03	2.460071E-02	1.225715E-03
5.116841E+03	2.460105E-02	1.225985E-03
5.126625E+03	2.459663E-02	1.226028E-03
5.136408E+03	2.459253E-02	1.226099E-03
5.146192E+03	2.458622E-02	1.226071E-03
5.155976E+03	2.457521E-02	1.225819E-03
5.165759E+03	2.456454E-02	1.225596E-03
5.175543E+03	2.454918E-02	1.225150E-03
5.185327E+03	2.453168E-02	1.224608E-03
5.195110E+03	2.451202E-02	1.223969E-03
5.204894E+03	2.449023E-02	1.223235E-03
5.214677E+03	2.446629E-02	1.222404E-03
5.224461E+03	2.444021E-02	1.221478E-03
5.234245E+03	2.440950E-02	1.220330E-03
5.244028E+03	2.437916E-02	1.219212E-03
5.253812E+03	2.434418E-02	1.217873E-03
5.263596E+03	2.430708E-02	1.216438E-03
5.273379E+03	2.427032E-02	1.215030E-03
5.283163E+03	2.422893E-02	1.213402E-03
5.292946E+03	2.418540E-02	1.211676E-03
5.302730E+03	2.413728E-02	1.209730E-03
5.312514E+03	2.408946E-02	1.207810E-03
5.322297E+03	2.403950E-02	1.205792E-03
5.332081E+03	2.398496E-02	1.203555E-03
5.341865E+03	2.393071E-02	1.201342E-03
5.351648E+03	2.387192E-02	1.198910E-03
5.361432E+03	2.381100E-02	1.196381E-03
5.371216E+03	2.374800E-02	1.193757E-03
5.380999E+03	2.368294E-02	1.191037E-03
5.390783E+03	2.361590E-02	1.188225E-03
5.400566E+03	2.354697E-02	1.185326E-03
5.410350E+03	2.347386E-02	1.182225E-03
5.420134E+03	2.340143E-02	1.179164E-03
5.429917E+03	2.332503E-02	1.175910E-03
5.439701E+03	2.324948E-02	1.172705E-03
5.449485E+03	2.317019E-02	1.169317E-03
5.459268E+03	2.308960E-02	1.165870E-03
5.469052E+03	2.300781E-02	1.162367E-03
5.478836E+03	2.292492E-02	1.158813E-03
5.488619E+03	2.284104E-02	1.155213E-03
5.498403E+03	2.275624E-02	1.151572E-03
5.508186E+03	2.267064E-02	1.147894E-03
5.517970E+03	2.258205E-02	1.144068E-03
5.527754E+03	2.249512E-02	1.140329E-03
5.537537E+03	2.240539E-02	1.136452E-03
5.547321E+03	2.231524E-02	1.132556E-03
5.557105E+03	2.222699E-02	1.128758E-03
5.566888E+03	2.213622E-02	1.124835E-03
5.576672E+03	2.204528E-02	1.120905E-03
5.586456E+03	2.195423E-02	1.116971E-03
5.596239E+03	2.186316E-02	1.113037E-03
5.606023E+03	2.176993E-02	1.108995E-03
5.615806E+03	2.167900E-02	1.105070E-03
5.625590E+03	2.158825E-02	1.101155E-03
5.635374E+03	2.149557E-02	1.097143E-03
5.645157E+03	2.140319E-02	1.093145E-03
5.654941E+03	2.131333E-02	1.089277E-03
5.664725E+03	2.122172E-02	1.085318E-03
5.674508E+03	2.113057E-02	1.081383E-03
5.684292E+03	2.103991E-02	1.077472E-03
5.694076E+03	2.094980E-02	1.073589E-03
5.703859E+03	2.086026E-02	1.069734E-03
5.713643E+03	2.077133E-02	1.065909E-03
5.723426E+03	2.068303E-02	1.062116E-03
5.733210E+03	2.059541E-02	1.058355E-03
5.742994E+03	2.050640E-02	1.054522E-03
5.752777E+03	2.042018E-02	1.050831E-03
5.762561E+03	2.033264E-02	1.047070E-03
5.772345E+03	2.024587E-02	1.043346E-03
5.782128E+03	2.016188E-02	1.039764E-03
5.791912E+03	2.007666E-02	1.036116E-03
5.801696E+03	1.999223E-02	1.032507E-03
5.811479E+03	1.990860E-02	1.028936E-03
5.821263E+03	1.982579E-02	1.025405E-03
5.831046E+03	1.974379E-02	1.021914E-03
5.840830E+03	1.966261E-02	1.018462E-03
5.850614E+03	1.958227E-02	1.015051E-03
5.860397E+03	1.950275E-02	1.011679E-03
5.870181E+03	1.942211E-02	1.008247E-03
5.879965E+03	1.934429E-02	1.004958E-03
5.889748E+03	1.926536E-02	1.001608E-03
5.899532E+03	1.918924E-02	9.984005E-04
5.909315E+03	1.911205E-02	9.951344E-04
5.919099E+03	1.903765E-02	9.920103E-04
5.928883E+03	1.896223E-02	9.888294E-04
5.938666E+03	1.888770E-02	9.856917E-04
5.948450E+03	1.881409E-02	9.825980E-04
5.958234E+03	1.874140E-02	9.795490E-04
5.968017E+03	1.866964E-02	9.765453E-04
5.977801E+03	1.859885E-02	9.735882E-04
5.987585E+03	1.852902E-02	9.706780E-04
5.997368E+03	1.846020E-02	9.678165E-04
6.007152E+03	1.839239E-02	9.650044E-04
6.016935E+03	1.832561E-02	9.622427E-04
6.026719E+03	1.825805E-02	9.594365E-04
6.036503E+03	1.819344E-02	9.567810E-04
6.046286E+03	1.812812E-02	9.540844E-04
6.056070E+03	1.806577E-02	9.515404E-04
6.065854E+03	1.800279E-02	9.489591E-04
6.075637E+03	1.794283E-02	9.465337E-04
6.085421E+03	1.788231E-02	9.440744E-04
6.095205E+03	1.782308E-02	9.416792E-04
6.104988E+03	1.776696E-02	9.394449E-04
6.114772E+03	1.771038E-02	9.371827E-04
6.124555E+03	1.765518E-02	9.349898E-04
6.134339E+03	1.760139E-02	9.328678E-04
6.144123E+03	1.754904E-02	9.308183E-04
6.153906E+03	1.749817E-02	9.288435E-04
6.163690E+03	1.744879E-02	9.269445E-04
6.173474E+03	1.740093E-02	9.251229E-04
6.183257E+03	1.735462E-02	9.233799E-04
6.193041E+03	1.730988E-02	9.217171E-04
6.202825E+03	1.726672E-02	9.201352E-04
6.212608E+03	1.722342E-02	9.185425E-04
6.222392E+03	1.718347E-02	9.171254E-04
6.232175E+03	1.714513E-02	9.157912E-04
6.241959E+03	1.710669E-02	9.144482E-04
6.251743E+03	1.707158E-02	9.132806E-04
6.261526E+03	1.703634E-02	9.121033E-04
6.271310E+03	1.700442E-02	9.111006E-04
6.281094E+03	1.697233E-02	9.100861E-04
6.290877E+03	1.694350E-02	9.092433E-04
6.300661E+03	1.691443E-02	9.083856E-04
6.310445E+03	1.688850E-02	9.076942E-04
6.320228E+03	1.686224E-02	9.069823E-04
6.330012E+03	1.683729E-02	9.063381E-04
6.339795E+03	1.681355E-02	9.057569E-04
6.349579E+03	1.679094E-02	9.052346E-04
6.359363E+03	1.677106E-02	9.048569E-04
6.369146E+03	1.675041E-02	9.044354E-04
6.378930E+03	1.673058E-02	9.040565E-04
6.388714E+03	1.671150E-02	9.037157E-04
6.398497E+03	1.669310E-02	9.034092E-04
6.408281E+03	1.667533E-02	9.031346E-04
6.418065E+03	1.665815E-02	9.028901E-04
6.427848E+03	1.664152E-02	9.026732E-04
6.437632E+03	1.662372E-02	9.023912E-04
6.447415E+03	1.660813E-02	9.022262E-04
6.457199E+03	1.659299E-02	9.020841E-04
6.466983E+03	1.657827E-02	9.019624E-04
6.476766E+03	1.656391E-02	9.018582E-04
6.486550E+03	1.654818E-02	9.016773E-04
6.496334E+03	1.653439E-02	9.015997E-04
6.506117E+03	1.652078E-02	9.015303E-04
6.515901E+03	1.650562E-02	9.013735E-04
6.525684E+03	1.649219E-02	9.013094E-04
6.535468E+03	1.647707E-02	9.011508E-04
6.545252E+03	1.646357E-02	9.010780E-04
6.555035E+03	1.644824E-02	9.009031E-04
6.564819E+03	1.643441E-02	9.008076E-04
6.574603E+03	1.641865E-02	9.006042E-04
6.584386E+03	1.640425E-02	9.004733E-04
6.594170E+03	1.638784E-02	9.002288E-04
6.603954E+03	1.637102E-02	8.999596E-04
6.613737E+03	1.635377E-02	8.996642E-04
6.623521E+03	1.633773E-02	8.994322E-04
6.633304E+03	1.631951E-02	8.990780E-04
6.643088E+03	1.630077E-02	8.986918E-04
6.652872E+03	1.628148E-02	8.982726E-04
6.662655E+03	1.626331E-02	8.979122E-04
6.672439E+03	1.624289E-02	8.974251E-04
6.682223E+03	1.622191E-02	8.969031E-04
6.692006E+03	1.620035E-02	8.963461E-04
6.701790E+03	1.617821E-02	8.957542E-04
6.711574E+03	1.615551E-02	8.951276E-04
6.721357E+03	1.613225E-02	8.944668E-04
6.731141E+03	1.610845E-02	8.937729E-04
6.740924E+03	1.608413E-02	8.930461E-04
6.750708E+03	1.605929E-02	8.922875E-04
6.760492E+03	1.603233E-02	8.914071E-04
6.770275E+03	1.600655E-02	8.905885E-04
6.780059E+03	1.598034E-02	8.897425E-04
6.789843E+03	1.595371E-02	8.888694E-04
6.799626E+03	1.592669E-02	8.879713E-04
6.809410E+03	1.589768E-02	8.869579E-04
6.819194E+03	1.586998E-02	8.860135E-04
6.828977E+03	1.584197E-02	8.850486E-04
6.838761E+03	1.581205E-02	8.839727E-04
6.848544E+03	1.578352E-02	8.829705E-04
6.858328E+03	1.575314E-02	8.818607E-04
6.868112E+03	1.572418E-02	8.808268E-04
6.877895E+03	1.569342E-02	8.796881E-04
6.887679E+03	1.566414E-02	8.786280E-04
6.897463E+03	1.563311E-02	8.774656E-04
6.907246E+03	1.560358E-02	8.763838E-04
6.917030E+03	1.557235E-02	8.752022E-04
6.926814E+03	1.554266E-02	8.741029E-04
6.936597E+03	1.551130E-02	8.729057E-04
6.946381E+03	1.547989E-02	8.717019E-04
6.956164E+03	1.544846E-02	8.704926E-04
6.965948E+03	1.541861E-02	8.693680E-04
6.975732E+03	1.538715E-02	8.681487E-04
6.985515E+03	1.535568E-02	8.669250E-04
6.995299E+03	1.532422E-02	8.656973E-04
7.005083E+03	1.529277E-02	8.644663E-04
7.014866E+03	1.526133E-02	8.632313E-04
7.024650E+03	1.522991E-02	8.619935E-04
7.034434E+03	1.519850E-02	8.607522E-04
7.044217E+03	1.516709E-02	8.595071E-04
7.054001E+03	1.513570E-02	8.582587E-04
7.063784E+03	1.510432E-02	8.570069E-04
7.073568E+03	1.507294E-02	8.557508E-04
7.083352E+03	1.504154E-02	8.544898E-04
7.093135E+03	1.501014E-02	8.532245E-04
7.102919E+03	1.497714E-02	8.518642E-04
7.112703E+03	1.494569E-02	8.505876E-04
7.122486E+03	1.491419E-02	8.493045E-04
7.132270E+03	1.488108E-02	8.479249E-04
7.142053E+03	1.484945E-02	8.466259E-04
7.151837E+03	1.481773E-02	8.453180E-04
7.161621E+03	1.478436E-02	8.439117E-04
7.171404E+03	1.475242E-02	8.425826E-04
7.181188E+03	1.471880E-02	8.411535E-04
7.190972E+03	1.468657E-02	8.398001E-04
7.200755E+03	1.465261E-02	8.383435E-04
7.210539E+03	1.461847E-02	8.368720E-04
7.220323E+03	1.458565E-02	8.354723E-04
7.230106E+03	1.455104E-02	8.339659E-04
7.239890E+03	1.451618E-02	8.324409E-04
7.249673E+03	1.448102E-02	8.308948E-04
7.259457E+03	1.444556E-02	8.293269E-04
7.269241E+03	1.440978E-02	8.277363E-04
7.279024E+03	1.437516E-02	8.262082E-04
7.288808E+03	1.433863E-02	8.245667E-04
7.298592E+03	1.430170E-02	8.228976E-04
7.308375E+03	1.426284E-02	8.211127E-04
7.318159E+03	1.422505E-02	8.193857E-04
7.327943E+03	1.418680E-02	8.176273E-04
7.337726E+03	1.414806E-02	8.158369E-04
7.347510E+03	1.410882E-02	8.140130E-04
7.357293E+03	1.406907E-02	8.121555E-04
7.367077E+03	1.402728E-02	8.101760E-04
7.376861E+03	1.398646E-02	8.082475E-04
7.386644E+03	1.394359E-02	8.061968E-04
7.396428E+03	1.390165E-02	8.041951E-04
7.406212E+03	1.385766E-02	8.020704E-04
7.415995E+03	1.381459E-02	7.999941E-04
7.425779E+03	1.376948E-02	7.977954E-04
7.435563E+03	1.372526E-02	7.956440E-04
7.445346E+03	1.367904E-02	7.933715E-04
7.455130E+03	1.363226E-02	7.910624E-04
7.464913E+03	1.358640E-02	7.888023E-04
7.474697E+03	1.353858E-02	7.864235E-04
7.484481E+03	1.349025E-02	7.840107E-04
7.494264E+03	1.344146E-02	7.815659E-04
7.504048E+03	1.339221E-02	7.790901E-04
7.513832E+03	1.334253E-02	7.765851E-04
7.523615E+03	1.329248E-02	7.740534E-04
7.533399E+03	1.324208E-02	7.714966E-04
7.543183E+03	1.319136E-02	7.689168E-04
7.552966E+03	1.313896E-02	7.662344E-04
7.562750E+03	1.308777E-02	7.636173E-04
7.572533E+03	1.303639E-02	7.609853E-04
7.582317E+03	1.298349E-02	7.582596E-04
7.592101E+03	1.293195E-02	7.556085E-04
