#wls	flux	fluxerr
1.565382E+03	3.408150E-03	2.209540E-04
1.604516E+03	3.468188E-03	2.246502E-04
1.643651E+03	3.527080E-03	2.282608E-04
1.682785E+03	3.585279E-03	2.318148E-04
1.721920E+03	3.641915E-03	2.352561E-04
1.761054E+03	3.697072E-03	2.385898E-04
1.800189E+03	3.749393E-03	2.417286E-04
1.839323E+03	3.798663E-03	2.446586E-04
1.878458E+03	3.843281E-03	2.472774E-04
1.917592E+03	3.882476E-03	2.495359E-04
1.956727E+03	3.916877E-03	2.514753E-04
1.995862E+03	3.948103E-03	2.532003E-04
2.034996E+03	3.979629E-03	2.549338E-04
2.074131E+03	4.018551E-03	2.571297E-04
2.113265E+03	4.070402E-03	2.601395E-04
2.152400E+03	4.138447E-03	2.641685E-04
2.191534E+03	4.220398E-03	2.690667E-04
2.230669E+03	4.310382E-03	2.744562E-04
2.269803E+03	4.403252E-03	2.800072E-04
2.308938E+03	4.496956E-03	2.855883E-04
2.348072E+03	4.588153E-03	2.909868E-04
2.387207E+03	4.676144E-03	2.961583E-04
2.426341E+03	4.762477E-03	3.012013E-04
2.465476E+03	4.845877E-03	3.060350E-04
2.504611E+03	4.926724E-03	3.106837E-04
2.543745E+03	5.006247E-03	3.152249E-04
2.582880E+03	5.084869E-03	3.196853E-04
2.622014E+03	5.162988E-03	3.240894E-04
2.661149E+03	5.240131E-03	3.284074E-04
2.700283E+03	5.318370E-03	3.327687E-04
2.739418E+03	5.395488E-03	3.370340E-04
2.778552E+03	5.474462E-03	3.413889E-04
2.817687E+03	5.553946E-03	3.457484E-04
2.856821E+03	5.635248E-03	3.501934E-04
2.895956E+03	5.717933E-03	3.546957E-04
2.935090E+03	5.804329E-03	3.593986E-04
2.944874E+03	5.825828E-03	3.605634E-04
2.954658E+03	5.848410E-03	3.617933E-04
2.964441E+03	5.870240E-03	3.629748E-04
2.974225E+03	5.893189E-03	3.642234E-04
2.984009E+03	5.915459E-03	3.654281E-04
2.993792E+03	5.938966E-03	3.667072E-04
3.003576E+03	5.962776E-03	3.680029E-04
3.013360E+03	5.985947E-03	3.692571E-04
3.023143E+03	6.010351E-03	3.705853E-04
3.032927E+03	6.035051E-03	3.719297E-04
3.042710E+03	6.060049E-03	3.732902E-04
3.052494E+03	6.085345E-03	3.746669E-04
3.062278E+03	6.110944E-03	3.760600E-04
3.072061E+03	6.136848E-03	3.774697E-04
3.081845E+03	6.163064E-03	3.788963E-04
3.091629E+03	6.189598E-03	3.803401E-04
3.101412E+03	6.216455E-03	3.818015E-04
3.111196E+03	6.243646E-03	3.832810E-04
3.120980E+03	6.271178E-03	3.847792E-04
3.130763E+03	6.299061E-03	3.862964E-04
3.140547E+03	6.328281E-03	3.878932E-04
3.150330E+03	6.356901E-03	3.894507E-04
3.160114E+03	6.385906E-03	3.910293E-04
3.169898E+03	6.416293E-03	3.926900E-04
3.179681E+03	6.446107E-03	3.943130E-04
3.189465E+03	6.476344E-03	3.959594E-04
3.199249E+03	6.508014E-03	3.976906E-04
3.209032E+03	6.539143E-03	3.993862E-04
3.218816E+03	6.571742E-03	4.011687E-04
3.228600E+03	6.604829E-03	4.029783E-04
3.238383E+03	6.637410E-03	4.047543E-04
3.248167E+03	6.671520E-03	4.066206E-04
3.257950E+03	6.706166E-03	4.085166E-04
3.267734E+03	6.740345E-03	4.103814E-04
3.277518E+03	6.776112E-03	4.123398E-04
3.287301E+03	6.812468E-03	4.143310E-04
3.297085E+03	6.849429E-03	4.163559E-04
3.306869E+03	6.887014E-03	4.184156E-04
3.316652E+03	6.924198E-03	4.204478E-04
3.326436E+03	6.963078E-03	4.225798E-04
3.336220E+03	7.002634E-03	4.247495E-04
3.346003E+03	7.042885E-03	4.269580E-04
3.355787E+03	7.083849E-03	4.292064E-04
3.365570E+03	7.125543E-03	4.314955E-04
3.375354E+03	7.169056E-03	4.338912E-04
3.385138E+03	7.212269E-03	4.362652E-04
3.394921E+03	7.256264E-03	4.386829E-04
3.404705E+03	7.301060E-03	4.411453E-04
3.414489E+03	7.346674E-03	4.436534E-04
3.424272E+03	7.393121E-03	4.462080E-04
3.434056E+03	7.441521E-03	4.488766E-04
3.443839E+03	7.489691E-03	4.515273E-04
3.453623E+03	7.538743E-03	4.542272E-04
3.463407E+03	7.589811E-03	4.570444E-04
3.473190E+03	7.640676E-03	4.598452E-04
3.482974E+03	7.692466E-03	4.626976E-04
3.492758E+03	7.746332E-03	4.656704E-04
3.502541E+03	7.800016E-03	4.686279E-04
3.512325E+03	7.855812E-03	4.717079E-04
3.522109E+03	7.911435E-03	4.747729E-04
3.531892E+03	7.969205E-03	4.779622E-04
3.541676E+03	8.026806E-03	4.811366E-04
3.551459E+03	8.086582E-03	4.844367E-04
3.561243E+03	8.146190E-03	4.877219E-04
3.571027E+03	8.208001E-03	4.911340E-04
3.580810E+03	8.269633E-03	4.945305E-04
3.590594E+03	8.333493E-03	4.980551E-04
3.600378E+03	8.398377E-03	5.016357E-04
3.610161E+03	8.463071E-03	5.051998E-04
3.619945E+03	8.530001E-03	5.088920E-04
3.629729E+03	8.597952E-03	5.126398E-04
3.639512E+03	8.665678E-03	5.163687E-04
3.649296E+03	8.735648E-03	5.202257E-04
3.659079E+03	8.806621E-03	5.241369E-04
3.668863E+03	8.878584E-03	5.281013E-04
3.678647E+03	8.950237E-03	5.320415E-04
3.688430E+03	9.024119E-03	5.361084E-04
3.698214E+03	9.098946E-03	5.402256E-04
3.707998E+03	9.174698E-03	5.443916E-04
3.717781E+03	9.250039E-03	5.485273E-04
3.727565E+03	9.327561E-03	5.527862E-04
3.737349E+03	9.405946E-03	5.570901E-04
3.747132E+03	9.485147E-03	5.614361E-04
3.756916E+03	9.565157E-03	5.658237E-04
3.766699E+03	9.645937E-03	5.702504E-04
3.776483E+03	9.726077E-03	5.746330E-04
3.786267E+03	9.808278E-03	5.791310E-04
3.796050E+03	9.891154E-03	5.836623E-04
3.805834E+03	9.974659E-03	5.882242E-04
3.815618E+03	1.005876E-02	5.928147E-04
3.825401E+03	1.014342E-02	5.974314E-04
3.835185E+03	1.022716E-02	6.019875E-04
3.844969E+03	1.031279E-02	6.066484E-04
3.854752E+03	1.039886E-02	6.113282E-04
3.864536E+03	1.048532E-02	6.160246E-04
3.874319E+03	1.057213E-02	6.207347E-04
3.884103E+03	1.065925E-02	6.254561E-04
3.893887E+03	1.074663E-02	6.301863E-04
3.903670E+03	1.083275E-02	6.348355E-04
3.913454E+03	1.092054E-02	6.395764E-04
3.923238E+03	1.100849E-02	6.443193E-04
3.933021E+03	1.109654E-02	6.490621E-04
3.942805E+03	1.118468E-02	6.538027E-04
3.952589E+03	1.127130E-02	6.584485E-04
3.962372E+03	1.135948E-02	6.631787E-04
3.972156E+03	1.144765E-02	6.679014E-04
3.981939E+03	1.153578E-02	6.726154E-04
3.991723E+03	1.162225E-02	6.772260E-04
4.001507E+03	1.171022E-02	6.819175E-04
4.011290E+03	1.179810E-02	6.865974E-04
4.021074E+03	1.188587E-02	6.912642E-04
4.030858E+03	1.197189E-02	6.958230E-04
4.040641E+03	1.205942E-02	7.004632E-04
4.050425E+03	1.214682E-02	7.050898E-04
4.060208E+03	1.223246E-02	7.096076E-04
4.069992E+03	1.231965E-02	7.142092E-04
4.079776E+03	1.240507E-02	7.187024E-04
4.089559E+03	1.249210E-02	7.232823E-04
4.099343E+03	1.257909E-02	7.278540E-04
4.109127E+03	1.266437E-02	7.323208E-04
4.118910E+03	1.275135E-02	7.368804E-04
4.128694E+03	1.283669E-02	7.413385E-04
4.138478E+03	1.292385E-02	7.458962E-04
4.148261E+03	1.300942E-02	7.503562E-04
4.158045E+03	1.309518E-02	7.548216E-04
4.167828E+03	1.318294E-02	7.593964E-04
4.177612E+03	1.326925E-02	7.638823E-04
4.187396E+03	1.335771E-02	7.684859E-04
4.197179E+03	1.344483E-02	7.730067E-04
4.206963E+03	1.353244E-02	7.775501E-04
4.216747E+03	1.362060E-02	7.821198E-04
4.226530E+03	1.371122E-02	7.868251E-04
4.236314E+03	1.380071E-02	7.914603E-04
4.246098E+03	1.389098E-02	7.961342E-04
4.255881E+03	1.398207E-02	8.008497E-04
4.265665E+03	1.407406E-02	8.056115E-04
4.275448E+03	1.416700E-02	8.104221E-04
4.285232E+03	1.426094E-02	8.152847E-04
4.295016E+03	1.435595E-02	8.202027E-04
4.304799E+03	1.445205E-02	8.251780E-04
4.314583E+03	1.454930E-02	8.302129E-04
4.324367E+03	1.464772E-02	8.353094E-04
4.334150E+03	1.474732E-02	8.404679E-04
4.343934E+03	1.484619E-02	8.455794E-04
4.353718E+03	1.494821E-02	8.508644E-04
4.363501E+03	1.505144E-02	8.562134E-04
4.373285E+03	1.515588E-02	8.616258E-04
4.383068E+03	1.525953E-02	8.669883E-04
4.392852E+03	1.536636E-02	8.725257E-04
4.402636E+03	1.547233E-02	8.780090E-04
4.412419E+03	1.558144E-02	8.836652E-04
4.422203E+03	1.568961E-02	8.892631E-04
4.431987E+03	1.580086E-02	8.950299E-04
4.441770E+03	1.591106E-02	9.007323E-04
4.451554E+03	1.602219E-02	9.064825E-04
4.461338E+03	1.613628E-02	9.123945E-04
4.471121E+03	1.624910E-02	9.182302E-04
4.480905E+03	1.636266E-02	9.241024E-04
4.490688E+03	1.647688E-02	9.300072E-04
4.500472E+03	1.659167E-02	9.359395E-04
4.510256E+03	1.670695E-02	9.418949E-04
4.520039E+03	1.682263E-02	9.478684E-04
4.529823E+03	1.693861E-02	9.538542E-04
4.539607E+03	1.705480E-02	9.598473E-04
4.549390E+03	1.717108E-02	9.658414E-04
4.559174E+03	1.728515E-02	9.717071E-04
4.568958E+03	1.740128E-02	9.776851E-04
4.578741E+03	1.751720E-02	9.836468E-04
4.588525E+03	1.763050E-02	9.894585E-04
4.598308E+03	1.774557E-02	9.953661E-04
4.608092E+03	1.785777E-02	1.001110E-03
4.617876E+03	1.797153E-02	1.006937E-03
4.627659E+03	1.808215E-02	1.012587E-03
4.637443E+03	1.819180E-02	1.018179E-03
4.647227E+03	1.830266E-02	1.023836E-03
4.657010E+03	1.840998E-02	1.029294E-03
4.666794E+03	1.851595E-02	1.034675E-03
4.676577E+03	1.862046E-02	1.039972E-03
4.686361E+03	1.872338E-02	1.045179E-03
4.696145E+03	1.882460E-02	1.050291E-03
4.705928E+03	1.892400E-02	1.055300E-03
4.715712E+03	1.902148E-02	1.060202E-03
4.725496E+03	1.911692E-02	1.064989E-03
4.735279E+03	1.920781E-02	1.069524E-03
4.745063E+03	1.929887E-02	1.074068E-03
4.754847E+03	1.938759E-02	1.078483E-03
4.764630E+03	1.947145E-02	1.082629E-03
4.774414E+03	1.955524E-02	1.086772E-03
4.784197E+03	1.963397E-02	1.090636E-03
4.793981E+03	1.971002E-02	1.094353E-03
4.803765E+03	1.978580E-02	1.098058E-03
4.813548E+03	1.985631E-02	1.101472E-03
4.823332E+03	1.992395E-02	1.104731E-03
4.833116E+03	1.998867E-02	1.107831E-03
4.842899E+03	2.005043E-02	1.110771E-03
4.852683E+03	2.010920E-02	1.113549E-03
4.862467E+03	2.016495E-02	1.116165E-03
4.872250E+03	2.021764E-02	1.118616E-03
4.882034E+03	2.026728E-02	1.120903E-03
4.891817E+03	2.031384E-02	1.123025E-03
4.901601E+03	2.035481E-02	1.124843E-03
4.911385E+03	2.039523E-02	1.126637E-03
4.921168E+03	2.043259E-02	1.128269E-03
4.930952E+03	2.046438E-02	1.129599E-03
4.940736E+03	2.049314E-02	1.130770E-03
4.950519E+03	2.052145E-02	1.131922E-03
4.960303E+03	2.054426E-02	1.132779E-03
4.970087E+03	2.056415E-02	1.133482E-03
4.979870E+03	2.058371E-02	1.134175E-03
4.989654E+03	2.059790E-02	1.134581E-03
4.999437E+03	2.060931E-02	1.134842E-03
5.009221E+03	2.061800E-02	1.134962E-03
5.019005E+03	2.062402E-02	1.134944E-03
5.028788E+03	2.062490E-02	1.134653E-03
5.038572E+03	2.062577E-02	1.134371E-03
5.048356E+03	2.062416E-02	1.133961E-03
5.058139E+03	2.062012E-02	1.133428E-03
5.067923E+03	2.061119E-02	1.132637E-03
5.077707E+03	2.060250E-02	1.131869E-03
5.087490E+03	2.058904E-02	1.130850E-03
5.097274E+03	2.057593E-02	1.129860E-03
5.107057E+03	2.055818E-02	1.128627E-03
5.116841E+03	2.053838E-02	1.127292E-03
5.126625E+03	2.051658E-02	1.125859E-03
5.136408E+03	2.049283E-02	1.124330E-03
5.146192E+03	2.046967E-02	1.122845E-03
5.155976E+03	2.044216E-02	1.121133E-03
5.165759E+03	2.041284E-02	1.119334E-03
5.175543E+03	2.037926E-02	1.117313E-03
5.185327E+03	2.034644E-02	1.115346E-03
5.195110E+03	2.031194E-02	1.113298E-03
5.204894E+03	2.027577E-02	1.111172E-03
5.214677E+03	2.023550E-02	1.108833E-03
5.224461E+03	2.019612E-02	1.106556E-03
5.234245E+03	2.015270E-02	1.104069E-03
5.244028E+03	2.011019E-02	1.101646E-03
5.253812E+03	2.006373E-02	1.099018E-03
5.263596E+03	2.001821E-02	1.096455E-03
5.273379E+03	1.996878E-02	1.093692E-03
5.283163E+03	1.991792E-02	1.090862E-03
5.292946E+03	1.986565E-02	1.087968E-03
5.302730E+03	1.981200E-02	1.085011E-03
5.312514E+03	1.975698E-02	1.081992E-03
5.322297E+03	1.970062E-02	1.078914E-03
5.332081E+03	1.964298E-02	1.075778E-03
5.341865E+03	1.958407E-02	1.072586E-03
5.351648E+03	1.952394E-02	1.069340E-03
5.361432E+03	1.946264E-02	1.066043E-03
5.371216E+03	1.939786E-02	1.062568E-03
5.380999E+03	1.933439E-02	1.059176E-03
5.390783E+03	1.926759E-02	1.055614E-03
5.400566E+03	1.920223E-02	1.052143E-03
5.410350E+03	1.913373E-02	1.048511E-03
5.420134E+03	1.906681E-02	1.044977E-03
5.429917E+03	1.899695E-02	1.041292E-03
5.439701E+03	1.892655E-02	1.037588E-03
5.449485E+03	1.885799E-02	1.033995E-03
5.459268E+03	1.878680E-02	1.030268E-03
5.469052E+03	1.871536E-02	1.026537E-03
5.478836E+03	1.864377E-02	1.022807E-03
5.488619E+03	1.857211E-02	1.019083E-03
5.498403E+03	1.850049E-02	1.015370E-03
5.508186E+03	1.842900E-02	1.011672E-03
5.517970E+03	1.835550E-02	1.007873E-03
5.527754E+03	1.828453E-02	1.004220E-03
5.537537E+03	1.821394E-02	1.000597E-03
5.547321E+03	1.814382E-02	9.970061E-04
5.557105E+03	1.807205E-02	9.933326E-04
5.566888E+03	1.800308E-02	9.898200E-04
5.576672E+03	1.793261E-02	9.862321E-04
5.586456E+03	1.786504E-02	9.828106E-04
5.596239E+03	1.779612E-02	9.793211E-04
5.606023E+03	1.772806E-02	9.758849E-04
5.615806E+03	1.766300E-02	9.726207E-04
5.625590E+03	1.759675E-02	9.692966E-04
5.635374E+03	1.753147E-02	9.660313E-04
5.645157E+03	1.746717E-02	9.628261E-04
5.654941E+03	1.740388E-02	9.596819E-04
5.664725E+03	1.734161E-02	9.565991E-04
5.674508E+03	1.728037E-02	9.535781E-04
5.684292E+03	1.722015E-02	9.506183E-04
5.694076E+03	1.716095E-02	9.477197E-04
5.703859E+03	1.710277E-02	9.448818E-04
5.713643E+03	1.704556E-02	9.421025E-04
5.723426E+03	1.698934E-02	9.393814E-04
5.733210E+03	1.693200E-02	9.366034E-04
5.742994E+03	1.687761E-02	9.339922E-04
5.752777E+03	1.682409E-02	9.314326E-04
5.762561E+03	1.676937E-02	9.288106E-04
5.772345E+03	1.671743E-02	9.263462E-04
5.782128E+03	1.666421E-02	9.238144E-04
5.791912E+03	1.661364E-02	9.214329E-04
5.801696E+03	1.656168E-02	9.189779E-04
5.811479E+03	1.651027E-02	9.165560E-04
5.821263E+03	1.646132E-02	9.142734E-04
5.831046E+03	1.641079E-02	9.119064E-04
5.840830E+03	1.636062E-02	9.095616E-04
5.850614E+03	1.631074E-02	9.072352E-04
5.860397E+03	1.626301E-02	9.050317E-04
5.870181E+03	1.621348E-02	9.027297E-04
5.879965E+03	1.616404E-02	9.004348E-04
5.889748E+03	1.611463E-02	8.981433E-04
5.899532E+03	1.606519E-02	8.958525E-04
5.909315E+03	1.601567E-02	8.935587E-04
5.919099E+03	1.596410E-02	8.911522E-04
5.928883E+03	1.591430E-02	8.888455E-04
5.938666E+03	1.586427E-02	8.865278E-04
5.948450E+03	1.581402E-02	8.841980E-04
5.958234E+03	1.576350E-02	8.818547E-04
5.968017E+03	1.571081E-02	8.793907E-04
5.977801E+03	1.565972E-02	8.770169E-04
5.987585E+03	1.560834E-02	8.746273E-04
5.997368E+03	1.555479E-02	8.721164E-04
6.007152E+03	1.550283E-02	8.696952E-04
6.016935E+03	1.544874E-02	8.671544E-04
6.026719E+03	1.539627E-02	8.647046E-04
6.036503E+03	1.534174E-02	8.621383E-04
6.046286E+03	1.528887E-02	8.596653E-04
6.056070E+03	1.523402E-02	8.570810E-04
6.065854E+03	1.517909E-02	8.544910E-04
6.075637E+03	1.512594E-02	8.520007E-04
6.085421E+03	1.507098E-02	8.494078E-04
6.095205E+03	1.501609E-02	8.468179E-04
6.104988E+03	1.496133E-02	8.442344E-04
6.114772E+03	1.490856E-02	8.417617E-04
6.124555E+03	1.485425E-02	8.392010E-04
6.134339E+03	1.480025E-02	8.366569E-04
6.144123E+03	1.474665E-02	8.341336E-04
6.153906E+03	1.469349E-02	8.316340E-04
6.163690E+03	1.464084E-02	8.291622E-04
6.173474E+03	1.458877E-02	8.267214E-04
6.183257E+03	1.453735E-02	8.243156E-04
6.193041E+03	1.448662E-02	8.219477E-04
6.202825E+03	1.443665E-02	8.196207E-04
6.212608E+03	1.438749E-02	8.173386E-04
6.222392E+03	1.433919E-02	8.151033E-04
6.232175E+03	1.429006E-02	8.128195E-04
6.241959E+03	1.424362E-02	8.106867E-04
6.251743E+03	1.419817E-02	8.086082E-04
6.261526E+03	1.415374E-02	8.065866E-04
6.271310E+03	1.410866E-02	8.045257E-04
6.281094E+03	1.406636E-02	8.026222E-04
6.290877E+03	1.402517E-02	8.007795E-04
6.300661E+03	1.398341E-02	7.989031E-04
6.310445E+03	1.394447E-02	7.971859E-04
6.320228E+03	1.390499E-02	7.954364E-04
6.330012E+03	1.386834E-02	7.938468E-04
6.339795E+03	1.383115E-02	7.922249E-04
6.349579E+03	1.379679E-02	7.907632E-04
6.359363E+03	1.376189E-02	7.892693E-04
6.369146E+03	1.372979E-02	7.879337E-04
6.378930E+03	1.369713E-02	7.865650E-04
6.388714E+03	1.366722E-02	7.853525E-04
6.398497E+03	1.363672E-02	7.841048E-04
6.408281E+03	1.360729E-02	7.829168E-04
6.418065E+03	1.358051E-02	7.818803E-04
6.427848E+03	1.355309E-02	7.808053E-04
6.437632E+03	1.352664E-02	7.797846E-04
6.447415E+03	1.350112E-02	7.788163E-04
6.457199E+03	1.347651E-02	7.778990E-04
6.466983E+03	1.345440E-02	7.771243E-04
6.476766E+03	1.343148E-02	7.763022E-04
6.486550E+03	1.340936E-02	7.755247E-04
6.496334E+03	1.338800E-02	7.747900E-04
6.506117E+03	1.336737E-02	7.740960E-04
6.515901E+03	1.334743E-02	7.734408E-04
6.525684E+03	1.332815E-02	7.728224E-04
6.535468E+03	1.330948E-02	7.722384E-04
6.545252E+03	1.329141E-02	7.716879E-04
6.555035E+03	1.327391E-02	7.711688E-04
6.564819E+03	1.325693E-02	7.706792E-04
6.574603E+03	1.324046E-02	7.702180E-04
6.584386E+03	1.322448E-02	7.697839E-04
6.594170E+03	1.320896E-02	7.693753E-04
6.603954E+03	1.319389E-02	7.689913E-04
6.613737E+03	1.317764E-02	7.685381E-04
6.623521E+03	1.316342E-02	7.682012E-04
6.633304E+03	1.314960E-02	7.678869E-04
6.643088E+03	1.313618E-02	7.675942E-04
6.652872E+03	1.312316E-02	7.673242E-04
6.662655E+03	1.310893E-02	7.669818E-04
6.672439E+03	1.309668E-02	7.667546E-04
6.682223E+03	1.308482E-02	7.665485E-04
6.692006E+03	1.307176E-02	7.662705E-04
6.701790E+03	1.306067E-02	7.661073E-04
6.711574E+03	1.304997E-02	7.659653E-04
6.721357E+03	1.303807E-02	7.657518E-04
6.731141E+03	1.302814E-02	7.656529E-04
6.740924E+03	1.301700E-02	7.654813E-04
6.750708E+03	1.300783E-02	7.654244E-04
6.760492E+03	1.299743E-02	7.652938E-04
6.770275E+03	1.298897E-02	7.652759E-04
6.780059E+03	1.297926E-02	7.651833E-04
6.789843E+03	1.297145E-02	7.652016E-04
6.799626E+03	1.296236E-02	7.651431E-04
6.809410E+03	1.295352E-02	7.650982E-04
6.819194E+03	1.294651E-02	7.651598E-04
6.828977E+03	1.293811E-02	7.651384E-04
6.838761E+03	1.293146E-02	7.652191E-04
6.848544E+03	1.292335E-02	7.652115E-04
6.858328E+03	1.291531E-02	7.652070E-04
6.868112E+03	1.290729E-02	7.652025E-04
6.877895E+03	1.290083E-02	7.652891E-04
6.887679E+03	1.289270E-02	7.652755E-04
6.897463E+03	1.288444E-02	7.652523E-04
6.907246E+03	1.287599E-02	7.652168E-04
6.917030E+03	1.286730E-02	7.651655E-04
6.926814E+03	1.285832E-02	7.650947E-04
6.936597E+03	1.285057E-02	7.650963E-04
6.946381E+03	1.284085E-02	7.649789E-04
6.956164E+03	1.283070E-02	7.648339E-04
6.965948E+03	1.282007E-02	7.646591E-04
6.975732E+03	1.280893E-02	7.644519E-04
6.985515E+03	1.279725E-02	7.642107E-04
6.995299E+03	1.278501E-02	7.639339E-04
7.005083E+03	1.277219E-02	7.636206E-04
7.014866E+03	1.275878E-02	7.632705E-04
7.024650E+03	1.274477E-02	7.628822E-04
7.034434E+03	1.272861E-02	7.623628E-04
7.044217E+03	1.271343E-02	7.619003E-04
7.054001E+03	1.269768E-02	7.614014E-04
7.063784E+03	1.268138E-02	7.608670E-04
7.073568E+03	1.266456E-02	7.602993E-04
7.083352E+03	1.264568E-02	7.596058E-04
7.093135E+03	1.262790E-02	7.589757E-04
7.102919E+03	1.260969E-02	7.583178E-04
7.112703E+03	1.259111E-02	7.576345E-04
7.122486E+03	1.257061E-02	7.568338E-04
7.132270E+03	1.255137E-02	7.561059E-04
7.142053E+03	1.253184E-02	7.553587E-04
7.151837E+03	1.251054E-02	7.545016E-04
7.161621E+03	1.249059E-02	7.537236E-04
7.171404E+03	1.246892E-02	7.528391E-04
7.181188E+03	1.244866E-02	7.520368E-04
7.190972E+03	1.242674E-02	7.511316E-04
7.200755E+03	1.240625E-02	7.503107E-04
7.210539E+03	1.238413E-02	7.493883E-04
7.220323E+03	1.236347E-02	7.485513E-04
7.230106E+03	1.234117E-02	7.476129E-04
7.239890E+03	1.231879E-02	7.466663E-04
7.249673E+03	1.229783E-02	7.458036E-04
7.259457E+03	1.227521E-02	7.448372E-04
7.269241E+03	1.225245E-02	7.438590E-04
7.279024E+03	1.223101E-02	7.429592E-04
7.288808E+03	1.220784E-02	7.419509E-04
7.298592E+03	1.218442E-02	7.409246E-04
7.308375E+03	1.216069E-02	7.398767E-04
7.318159E+03	1.213661E-02	7.388051E-04
7.327943E+03	1.211365E-02	7.377984E-04
7.337726E+03	1.208874E-02	7.366700E-04
7.347510E+03	1.206332E-02	7.355080E-04
7.357293E+03	1.203737E-02	7.343102E-04
7.367077E+03	1.201082E-02	7.330730E-04
7.376861E+03	1.198362E-02	7.317938E-04
7.386644E+03	1.195575E-02	7.304698E-04
7.396428E+03	1.192716E-02	7.290986E-04
7.406212E+03	1.189780E-02	7.276780E-04
7.415995E+03	1.186767E-02	7.262063E-04
7.425779E+03	1.183523E-02	7.245903E-04
7.435563E+03	1.180346E-02	7.230122E-04
7.445346E+03	1.177086E-02	7.213792E-04
7.455130E+03	1.173741E-02	7.196914E-04
7.464913E+03	1.170313E-02	7.179492E-04
7.474697E+03	1.166657E-02	7.160634E-04
7.484481E+03	1.163068E-02	7.142154E-04
7.494264E+03	1.159402E-02	7.123165E-04
7.504048E+03	1.155518E-02	7.102800E-04
7.513832E+03	1.151711E-02	7.082870E-04
7.523615E+03	1.147841E-02	7.062520E-04
7.533399E+03	1.143769E-02	7.040886E-04
7.543183E+03	1.139791E-02	7.019797E-04
7.552966E+03	1.135625E-02	6.997512E-04
7.562750E+03	1.131566E-02	6.975851E-04
7.572533E+03	1.127337E-02	6.953098E-04
7.582317E+03	1.123088E-02	6.930189E-04
7.592101E+03	1.118969E-02	6.908046E-04
