#wls	flux	fluxerr
1.565382E+03	3.136577E-03	1.685867E-04
1.604516E+03	3.189341E-03	1.713641E-04
1.643651E+03	3.241024E-03	1.740802E-04
1.682785E+03	3.292054E-03	1.767578E-04
1.721920E+03	3.341056E-03	1.793231E-04
1.761054E+03	3.389285E-03	1.818434E-04
1.800189E+03	3.434331E-03	1.841896E-04
1.839323E+03	3.476602E-03	1.863835E-04
1.878458E+03	3.515266E-03	1.883807E-04
1.917592E+03	3.549031E-03	1.901121E-04
1.956727E+03	3.577880E-03	1.915769E-04
1.995862E+03	3.603921E-03	1.928885E-04
2.034996E+03	3.630338E-03	1.942171E-04
2.074131E+03	3.663621E-03	1.959099E-04
2.113265E+03	3.708806E-03	1.982352E-04
2.152400E+03	3.768223E-03	2.013167E-04
2.191534E+03	3.840408E-03	2.050751E-04
2.230669E+03	3.920688E-03	2.092598E-04
2.269803E+03	4.003750E-03	2.135864E-04
2.308938E+03	4.086374E-03	2.178832E-04
2.348072E+03	4.167590E-03	2.220981E-04
2.387207E+03	4.246826E-03	2.262007E-04
2.426341E+03	4.323384E-03	2.301539E-04
2.465476E+03	4.398274E-03	2.340114E-04
2.504611E+03	4.471155E-03	2.377552E-04
2.543745E+03	4.543179E-03	2.414465E-04
2.582880E+03	4.613993E-03	2.450665E-04
2.622014E+03	4.684736E-03	2.486756E-04
2.661149E+03	4.754997E-03	2.522520E-04
2.700283E+03	4.825909E-03	2.558555E-04
2.739418E+03	4.897032E-03	2.594628E-04
2.778552E+03	4.969526E-03	2.631351E-04
2.817687E+03	5.043782E-03	2.668927E-04
2.856821E+03	5.119383E-03	2.707134E-04
2.895956E+03	5.197587E-03	2.746634E-04
2.935090E+03	5.278024E-03	2.787227E-04
2.944874E+03	5.298539E-03	2.797576E-04
2.954658E+03	5.319233E-03	2.808013E-04
2.964441E+03	5.340113E-03	2.818543E-04
2.974225E+03	5.361201E-03	2.829177E-04
2.984009E+03	5.383408E-03	2.840396E-04
2.993792E+03	5.405065E-03	2.851319E-04
3.003576E+03	5.427027E-03	2.862396E-04
3.013360E+03	5.450160E-03	2.874085E-04
3.023143E+03	5.472724E-03	2.885467E-04
3.032927E+03	5.495585E-03	2.897001E-04
3.042710E+03	5.519624E-03	2.909148E-04
3.052494E+03	5.543087E-03	2.920986E-04
3.062278E+03	5.567736E-03	2.933442E-04
3.072061E+03	5.591809E-03	2.945588E-04
3.081845E+03	5.617083E-03	2.958361E-04
3.091629E+03	5.642680E-03	2.971296E-04
3.101412E+03	5.667707E-03	2.983924E-04
3.111196E+03	5.693963E-03	2.997193E-04
3.120980E+03	5.720562E-03	3.010635E-04
3.130763E+03	5.746606E-03	3.023778E-04
3.140547E+03	5.773916E-03	3.037580E-04
3.150330E+03	5.801595E-03	3.051569E-04
3.160114E+03	5.829656E-03	3.065751E-04
3.169898E+03	5.857190E-03	3.079649E-04
3.179681E+03	5.886044E-03	3.094233E-04
3.189465E+03	5.915315E-03	3.109028E-04
3.199249E+03	5.945015E-03	3.124042E-04
3.209032E+03	5.975157E-03	3.139279E-04
3.218816E+03	6.005755E-03	3.154748E-04
3.228600E+03	6.036822E-03	3.170456E-04
3.238383E+03	6.068373E-03	3.186409E-04
3.248167E+03	6.100423E-03	3.202616E-04
3.257950E+03	6.132987E-03	3.219084E-04
3.267734E+03	6.166080E-03	3.235821E-04
3.277518E+03	6.199718E-03	3.252836E-04
3.287301E+03	6.233917E-03	3.270136E-04
3.297085E+03	6.269663E-03	3.288238E-04
3.306869E+03	6.305036E-03	3.306135E-04
3.316652E+03	6.341020E-03	3.324344E-04
3.326436E+03	6.377630E-03	3.342871E-04
3.336220E+03	6.415873E-03	3.362245E-04
3.346003E+03	6.453793E-03	3.381439E-04
3.355787E+03	6.492392E-03	3.400979E-04
3.365570E+03	6.531685E-03	3.420873E-04
3.375354E+03	6.572701E-03	3.441659E-04
3.385138E+03	6.613444E-03	3.462291E-04
3.394921E+03	6.655954E-03	3.483837E-04
3.404705E+03	6.698215E-03	3.505243E-04
3.414489E+03	6.741258E-03	3.527047E-04
3.424272E+03	6.786138E-03	3.549800E-04
3.434056E+03	6.830804E-03	3.572430E-04
3.443839E+03	6.877351E-03	3.596032E-04
3.453623E+03	6.923706E-03	3.619522E-04
3.463407E+03	6.971987E-03	3.644007E-04
3.473190E+03	7.021162E-03	3.668947E-04
3.482974E+03	7.070175E-03	3.693790E-04
3.492758E+03	7.121179E-03	3.719660E-04
3.502541E+03	7.172037E-03	3.745441E-04
3.512325E+03	7.224927E-03	3.772270E-04
3.522109E+03	7.278783E-03	3.799590E-04
3.531892E+03	7.332513E-03	3.826831E-04
3.541676E+03	7.388330E-03	3.855148E-04
3.551459E+03	7.444029E-03	3.883388E-04
3.561243E+03	7.501849E-03	3.912722E-04
3.571027E+03	7.560688E-03	3.942571E-04
3.580810E+03	7.620550E-03	3.972940E-04
3.590594E+03	7.680292E-03	4.003231E-04
3.600378E+03	7.742211E-03	4.034642E-04
3.610161E+03	7.805164E-03	4.066576E-04
3.619945E+03	7.869153E-03	4.099034E-04
3.629729E+03	7.932996E-03	4.131400E-04
3.639512E+03	7.999045E-03	4.164899E-04
3.649296E+03	8.066119E-03	4.198915E-04
3.659079E+03	8.134213E-03	4.233446E-04
3.668863E+03	8.203317E-03	4.268485E-04
3.678647E+03	8.272191E-03	4.303387E-04
3.688430E+03	8.343273E-03	4.339421E-04
3.698214E+03	8.415321E-03	4.375940E-04
3.707998E+03	8.488313E-03	4.412932E-04
3.717781E+03	8.562241E-03	4.450393E-04
3.727565E+03	8.635806E-03	4.487647E-04
3.737349E+03	8.711504E-03	4.525991E-04
3.747132E+03	8.788061E-03	4.564763E-04
3.756916E+03	8.865444E-03	4.603946E-04
3.766699E+03	8.943615E-03	4.643518E-04
3.776483E+03	9.022540E-03	4.683463E-04
3.786267E+03	9.102180E-03	4.723761E-04
3.796050E+03	9.181167E-03	4.763700E-04
3.805834E+03	9.262117E-03	4.804638E-04
3.815618E+03	9.343662E-03	4.845865E-04
3.825401E+03	9.425769E-03	4.887365E-04
3.835185E+03	9.508374E-03	4.929103E-04
3.844969E+03	9.591436E-03	4.971058E-04
3.854752E+03	9.674915E-03	5.013209E-04
3.864536E+03	9.757341E-03	5.054795E-04
3.874319E+03	9.841483E-03	5.097250E-04
3.884103E+03	9.925886E-03	5.139820E-04
3.893887E+03	1.001050E-02	5.182482E-04
3.903670E+03	1.009528E-02	5.225208E-04
3.913454E+03	1.018017E-02	5.267969E-04
3.923238E+03	1.026365E-02	5.309984E-04
3.933021E+03	1.034861E-02	5.352744E-04
3.942805E+03	1.043355E-02	5.395472E-04
3.952589E+03	1.051841E-02	5.438142E-04
3.962372E+03	1.060316E-02	5.480733E-04
3.972156E+03	1.068623E-02	5.522435E-04
3.981939E+03	1.077062E-02	5.564804E-04
3.991723E+03	1.085480E-02	5.607043E-04
4.001507E+03	1.093872E-02	5.649134E-04
4.011290E+03	1.102081E-02	5.690256E-04
4.021074E+03	1.110416E-02	5.732011E-04
4.030858E+03	1.118720E-02	5.773588E-04
4.040641E+03	1.126832E-02	5.814158E-04
4.050425E+03	1.135071E-02	5.855359E-04
4.060208E+03	1.143276E-02	5.896375E-04
4.069992E+03	1.151287E-02	5.936366E-04
4.079776E+03	1.159428E-02	5.977014E-04
4.089559E+03	1.167540E-02	6.017493E-04
4.099343E+03	1.175459E-02	6.056960E-04
4.109127E+03	1.183518E-02	6.097135E-04
4.118910E+03	1.191387E-02	6.136314E-04
4.128694E+03	1.199406E-02	6.176244E-04
4.138478E+03	1.207241E-02	6.215217E-04
4.148261E+03	1.215237E-02	6.254999E-04
4.158045E+03	1.223058E-02	6.293867E-04
4.167828E+03	1.231051E-02	6.333604E-04
4.177612E+03	1.238880E-02	6.372481E-04
4.187396E+03	1.246895E-02	6.412300E-04
4.197179E+03	1.254758E-02	6.451318E-04
4.206963E+03	1.262646E-02	6.490456E-04
4.216747E+03	1.270745E-02	6.530659E-04
4.226530E+03	1.278710E-02	6.570159E-04
4.236314E+03	1.286722E-02	6.609890E-04
4.246098E+03	1.294790E-02	6.649893E-04
4.255881E+03	1.303102E-02	6.691132E-04
4.265665E+03	1.311305E-02	6.731796E-04
4.275448E+03	1.319584E-02	6.772843E-04
4.285232E+03	1.327948E-02	6.814303E-04
4.295016E+03	1.336402E-02	6.856215E-04
4.304799E+03	1.344952E-02	6.898604E-04
4.314583E+03	1.353603E-02	6.941500E-04
4.324367E+03	1.362361E-02	6.984929E-04
4.334150E+03	1.371229E-02	7.028908E-04
4.343934E+03	1.380210E-02	7.073454E-04
4.353718E+03	1.389309E-02	7.118588E-04
4.363501E+03	1.398528E-02	7.164323E-04
4.373285E+03	1.407867E-02	7.210660E-04
4.383068E+03	1.417328E-02	7.257606E-04
4.392852E+03	1.426912E-02	7.305167E-04
4.402636E+03	1.436420E-02	7.352330E-04
4.412419E+03	1.446244E-02	7.401093E-04
4.422203E+03	1.456186E-02	7.450449E-04
4.431987E+03	1.466245E-02	7.500385E-04
4.441770E+03	1.476213E-02	7.549847E-04
4.451554E+03	1.486489E-02	7.600866E-04
4.461338E+03	1.496663E-02	7.651356E-04
4.471121E+03	1.507136E-02	7.703357E-04
4.480905E+03	1.517493E-02	7.754751E-04
4.490688E+03	1.528136E-02	7.807596E-04
4.500472E+03	1.538643E-02	7.859737E-04
4.510256E+03	1.549214E-02	7.912185E-04
4.520039E+03	1.560046E-02	7.965961E-04
4.529823E+03	1.570712E-02	8.018873E-04
4.539607E+03	1.581408E-02	8.071927E-04
4.549390E+03	1.592123E-02	8.125070E-04
4.559174E+03	1.603062E-02	8.179340E-04
4.568958E+03	1.613780E-02	8.232478E-04
4.578741E+03	1.624481E-02	8.285513E-04
4.588525E+03	1.635150E-02	8.338382E-04
4.598308E+03	1.645775E-02	8.391011E-04
4.608092E+03	1.656340E-02	8.443332E-04
4.617876E+03	1.666833E-02	8.495272E-04
4.627659E+03	1.677239E-02	8.546768E-04
4.637443E+03	1.687319E-02	8.596592E-04
4.647227E+03	1.697510E-02	8.646976E-04
4.657010E+03	1.707572E-02	8.696702E-04
4.666794E+03	1.717493E-02	8.745700E-04
4.676577E+03	1.727026E-02	8.792723E-04
4.686361E+03	1.736622E-02	8.840058E-04
4.696145E+03	1.745802E-02	8.885280E-04
4.705928E+03	1.755020E-02	8.930690E-04
4.715712E+03	1.763796E-02	8.973851E-04
4.725496E+03	1.772587E-02	9.017092E-04
4.735279E+03	1.780911E-02	9.057954E-04
4.745063E+03	1.788992E-02	9.097585E-04
4.754847E+03	1.797058E-02	9.137142E-04
4.764630E+03	1.804622E-02	9.174153E-04
4.774414E+03	1.811914E-02	9.209782E-04
4.784197E+03	1.818924E-02	9.243986E-04
4.793981E+03	1.825643E-02	9.276721E-04
4.803765E+03	1.832065E-02	9.307954E-04
4.813548E+03	1.838183E-02	9.337649E-04
4.823332E+03	1.843992E-02	9.365782E-04
4.833116E+03	1.849485E-02	9.392323E-04
4.842899E+03	1.854659E-02	9.417257E-04
4.852683E+03	1.859509E-02	9.440560E-04
4.862467E+03	1.863788E-02	9.460977E-04
4.872250E+03	1.867985E-02	9.480990E-04
4.882034E+03	1.871854E-02	9.499354E-04
4.891817E+03	1.875148E-02	9.514819E-04
4.901601E+03	1.878362E-02	9.529889E-04
4.911385E+03	1.881003E-02	9.542076E-04
4.921168E+03	1.883567E-02	9.553894E-04
4.930952E+03	1.885567E-02	9.562863E-04
4.940736E+03	1.887498E-02	9.571510E-04
4.950519E+03	1.888873E-02	9.577354E-04
4.960303E+03	1.889943E-02	9.581677E-04
4.970087E+03	1.890717E-02	9.584521E-04
4.979870E+03	1.891449E-02	9.587176E-04
4.989654E+03	1.891650E-02	9.587164E-04
4.999437E+03	1.891578E-02	9.585794E-04
5.009221E+03	1.891240E-02	9.583103E-04
5.019005E+03	1.890646E-02	9.579139E-04
5.028788E+03	1.889804E-02	9.573948E-04
5.038572E+03	1.888477E-02	9.566326E-04
5.048356E+03	1.887169E-02	9.558828E-04
5.058139E+03	1.885641E-02	9.550246E-04
5.067923E+03	1.883902E-02	9.540625E-04
5.077707E+03	1.881717E-02	9.528770E-04
5.087490E+03	1.879584E-02	9.517215E-04
5.097274E+03	1.877023E-02	9.503521E-04
5.107057E+03	1.874531E-02	9.490204E-04
5.116841E+03	1.871626E-02	9.474832E-04
5.126625E+03	1.868805E-02	9.459912E-04
5.136408E+03	1.865586E-02	9.443013E-04
5.146192E+03	1.862462E-02	9.426627E-04
5.155976E+03	1.858954E-02	9.408327E-04
5.165759E+03	1.855309E-02	9.389367E-04
5.175543E+03	1.851531E-02	9.369773E-04
5.185327E+03	1.847627E-02	9.349566E-04
5.195110E+03	1.843596E-02	9.328759E-04
5.204894E+03	1.839445E-02	9.307374E-04
5.214677E+03	1.835176E-02	9.285424E-04
5.224461E+03	1.830789E-02	9.262917E-04
5.234245E+03	1.826289E-02	9.239866E-04
5.244028E+03	1.821674E-02	9.216275E-04
5.253812E+03	1.816949E-02	9.192158E-04
5.263596E+03	1.811880E-02	9.166333E-04
5.273379E+03	1.806937E-02	9.141184E-04
5.283163E+03	1.801886E-02	9.115526E-04
5.292946E+03	1.796498E-02	9.088198E-04
5.302730E+03	1.791240E-02	9.061559E-04
5.312514E+03	1.785649E-02	9.033272E-04
5.322297E+03	1.780190E-02	9.005688E-04
5.332081E+03	1.774405E-02	8.976494E-04
5.341865E+03	1.768757E-02	8.948024E-04
5.351648E+03	1.762792E-02	8.917991E-04
5.361432E+03	1.756743E-02	8.887563E-04
5.371216E+03	1.750616E-02	8.856774E-04
5.380999E+03	1.744642E-02	8.826791E-04
5.390783E+03	1.738375E-02	8.795362E-04
5.400566E+03	1.732049E-02	8.763665E-04
5.410350E+03	1.725674E-02	8.731748E-04
5.420134E+03	1.719256E-02	8.699644E-04
5.429917E+03	1.712804E-02	8.667401E-04
5.439701E+03	1.706329E-02	8.635064E-04
5.449485E+03	1.699621E-02	8.601579E-04
5.459268E+03	1.693127E-02	8.569206E-04
5.469052E+03	1.686640E-02	8.536890E-04
5.478836E+03	1.680169E-02	8.504683E-04
5.488619E+03	1.673509E-02	8.471544E-04
5.498403E+03	1.667101E-02	8.439703E-04
5.508186E+03	1.660740E-02	8.408124E-04
5.517970E+03	1.654224E-02	8.375781E-04
5.527754E+03	1.647986E-02	8.344874E-04
5.537537E+03	1.641613E-02	8.313301E-04
5.547321E+03	1.635327E-02	8.282188E-04
5.557105E+03	1.629345E-02	8.252636E-04
5.566888E+03	1.623256E-02	8.222559E-04
5.576672E+03	1.617276E-02	8.193059E-04
5.586456E+03	1.611621E-02	8.165220E-04
5.596239E+03	1.605881E-02	8.136973E-04
5.606023E+03	1.600270E-02	8.109392E-04
5.615806E+03	1.594793E-02	8.082510E-04
5.625590E+03	1.589454E-02	8.056342E-04
5.635374E+03	1.584256E-02	8.030907E-04
5.645157E+03	1.579201E-02	8.006213E-04
5.654941E+03	1.574292E-02	7.982277E-04
5.664725E+03	1.569529E-02	7.959096E-04
5.674508E+03	1.564914E-02	7.936678E-04
5.684292E+03	1.560445E-02	7.915015E-04
5.694076E+03	1.556121E-02	7.894103E-04
5.703859E+03	1.551939E-02	7.873929E-04
5.713643E+03	1.547699E-02	7.853470E-04
5.723426E+03	1.543793E-02	7.834719E-04
5.733210E+03	1.540018E-02	7.816651E-04
5.742994E+03	1.536172E-02	7.798229E-04
5.752777E+03	1.532642E-02	7.781430E-04
5.762561E+03	1.529028E-02	7.764216E-04
5.772345E+03	1.525715E-02	7.748539E-04
5.782128E+03	1.522302E-02	7.732369E-04
5.791912E+03	1.519170E-02	7.717637E-04
5.801696E+03	1.515920E-02	7.702317E-04
5.811479E+03	1.512930E-02	7.688326E-04
5.821263E+03	1.509801E-02	7.673642E-04
5.831046E+03	1.506715E-02	7.659189E-04
5.840830E+03	1.503853E-02	7.645884E-04
5.850614E+03	1.500818E-02	7.631712E-04
5.860397E+03	1.497792E-02	7.617588E-04
5.870181E+03	1.494760E-02	7.603447E-04
5.879965E+03	1.491713E-02	7.589242E-04
5.889748E+03	1.488639E-02	7.574901E-04
5.899532E+03	1.485716E-02	7.561339E-04
5.909315E+03	1.482555E-02	7.546577E-04
5.919099E+03	1.479336E-02	7.531522E-04
5.928883E+03	1.476050E-02	7.516135E-04
5.938666E+03	1.472691E-02	7.500381E-04
5.948450E+03	1.469062E-02	7.483263E-04
5.958234E+03	1.465536E-02	7.466669E-04
5.968017E+03	1.461920E-02	7.449623E-04
5.977801E+03	1.458210E-02	7.432100E-04
5.987585E+03	1.454405E-02	7.414099E-04
5.997368E+03	1.450504E-02	7.395614E-04
6.007152E+03	1.446323E-02	7.375699E-04
6.016935E+03	1.442233E-02	7.356254E-04
6.026719E+03	1.438053E-02	7.336351E-04
6.036503E+03	1.433603E-02	7.315073E-04
6.046286E+03	1.429256E-02	7.294316E-04
6.056070E+03	1.424649E-02	7.272239E-04
6.065854E+03	1.420158E-02	7.250750E-04
6.075637E+03	1.415605E-02	7.228943E-04
6.085421E+03	1.410818E-02	7.205946E-04
6.095205E+03	1.406169E-02	7.183644E-04
6.104988E+03	1.401305E-02	7.160247E-04
6.114772E+03	1.396416E-02	7.136723E-04
6.124555E+03	1.391692E-02	7.114034E-04
6.134339E+03	1.386785E-02	7.090406E-04
6.144123E+03	1.381883E-02	7.066804E-04
6.153906E+03	1.377173E-02	7.044182E-04
6.163690E+03	1.372313E-02	7.020785E-04
6.173474E+03	1.367488E-02	6.997568E-04
6.183257E+03	1.362884E-02	6.975471E-04
6.193041E+03	1.358158E-02	6.952752E-04
6.202825E+03	1.353497E-02	6.930357E-04
6.212608E+03	1.348906E-02	6.908321E-04
6.222392E+03	1.344395E-02	6.886688E-04
6.232175E+03	1.339972E-02	6.865502E-04
6.241959E+03	1.335642E-02	6.844785E-04
6.251743E+03	1.331583E-02	6.825454E-04
6.261526E+03	1.327459E-02	6.805786E-04
6.271310E+03	1.323445E-02	6.786680E-04
6.281094E+03	1.319547E-02	6.768158E-04
6.290877E+03	1.315768E-02	6.750247E-04
6.300661E+03	1.311942E-02	6.732091E-04
6.310445E+03	1.308410E-02	6.715438E-04
6.320228E+03	1.305005E-02	6.699433E-04
6.330012E+03	1.301728E-02	6.684079E-04
6.339795E+03	1.298579E-02	6.669382E-04
6.349579E+03	1.295559E-02	6.655342E-04
6.359363E+03	1.292668E-02	6.641960E-04
6.369146E+03	1.289738E-02	6.628378E-04
6.378930E+03	1.287099E-02	6.616285E-04
6.388714E+03	1.284584E-02	6.604825E-04
6.398497E+03	1.282188E-02	6.593976E-04
6.408281E+03	1.279745E-02	6.582883E-04
6.418065E+03	1.277580E-02	6.573216E-04
6.427848E+03	1.275523E-02	6.564099E-04
6.437632E+03	1.273406E-02	6.554678E-04
6.447415E+03	1.271552E-02	6.546600E-04
6.457199E+03	1.269791E-02	6.539003E-04
6.466983E+03	1.267953E-02	6.531009E-04
6.476766E+03	1.266361E-02	6.524276E-04
6.486550E+03	1.264681E-02	6.517085E-04
6.496334E+03	1.263233E-02	6.511090E-04
6.506117E+03	1.261685E-02	6.504578E-04
6.515901E+03	1.260356E-02	6.499194E-04
6.525684E+03	1.258916E-02	6.493235E-04
6.535468E+03	1.257684E-02	6.488346E-04
6.545252E+03	1.256331E-02	6.482826E-04
6.555035E+03	1.255012E-02	6.477487E-04
6.564819E+03	1.253888E-02	6.473148E-04
6.574603E+03	1.252630E-02	6.468115E-04
6.584386E+03	1.251398E-02	6.463212E-04
6.594170E+03	1.250349E-02	6.459255E-04
6.603954E+03	1.249161E-02	6.454573E-04
6.613737E+03	1.247994E-02	6.450003E-04
6.623521E+03	1.247009E-02	6.446367E-04
6.633304E+03	1.245884E-02	6.442006E-04
6.643088E+03	1.244783E-02	6.437764E-04
6.652872E+03	1.243708E-02	6.433656E-04
6.662655E+03	1.242660E-02	6.429685E-04
6.672439E+03	1.241644E-02	6.425875E-04
6.682223E+03	1.240823E-02	6.423076E-04
6.692006E+03	1.239881E-02	6.419644E-04
6.701790E+03	1.238982E-02	6.416434E-04
6.711574E+03	1.238132E-02	6.413468E-04
6.721357E+03	1.237332E-02	6.410766E-04
6.731141E+03	1.236588E-02	6.408348E-04
6.740924E+03	1.235903E-02	6.406232E-04
6.750708E+03	1.235279E-02	6.404434E-04
6.760492E+03	1.234720E-02	6.402969E-04
6.770275E+03	1.234227E-02	6.401843E-04
6.780059E+03	1.233802E-02	6.401065E-04
6.789843E+03	1.233442E-02	6.400627E-04
6.799626E+03	1.233149E-02	6.400528E-04
6.809410E+03	1.232918E-02	6.400750E-04
6.819194E+03	1.232746E-02	6.401282E-04
6.828977E+03	1.232470E-02	6.401267E-04
6.838761E+03	1.232404E-02	6.402341E-04
6.848544E+03	1.232380E-02	6.403630E-04
6.858328E+03	1.232390E-02	6.405099E-04
6.868112E+03	1.232428E-02	6.406704E-04
6.877895E+03	1.232322E-02	6.407562E-04
6.887679E+03	1.232383E-02	6.409287E-04
6.897463E+03	1.232439E-02	6.410987E-04
6.907246E+03	1.232481E-02	6.412604E-04
6.917030E+03	1.232336E-02	6.413250E-04
6.926814E+03	1.232315E-02	6.414541E-04
6.936597E+03	1.232245E-02	6.415574E-04
6.946381E+03	1.231957E-02	6.415465E-04
6.956164E+03	1.231762E-02	6.415840E-04
6.965948E+03	1.231490E-02	6.415814E-04
6.975732E+03	1.230974E-02	6.414507E-04
6.985515E+03	1.230528E-02	6.413566E-04
6.995299E+03	1.229826E-02	6.411281E-04
7.005083E+03	1.229185E-02	6.409317E-04
7.014866E+03	1.228283E-02	6.405985E-04
7.024650E+03	1.227440E-02	6.402951E-04
7.034434E+03	1.226337E-02	6.398562E-04
7.044217E+03	1.225297E-02	6.394493E-04
7.054001E+03	1.224004E-02	6.389098E-04
7.063784E+03	1.222625E-02	6.383250E-04
7.073568E+03	1.221327E-02	6.377820E-04
7.083352E+03	1.219798E-02	6.371174E-04
7.093135E+03	1.218209E-02	6.364208E-04
7.102919E+03	1.216727E-02	6.357799E-04
7.112703E+03	1.215046E-02	6.350340E-04
7.122486E+03	1.213335E-02	6.342720E-04
7.132270E+03	1.211765E-02	6.335824E-04
7.142053E+03	1.210028E-02	6.328055E-04
7.151837E+03	1.208294E-02	6.320291E-04
7.161621E+03	1.206572E-02	6.312583E-04
7.171404E+03	1.204871E-02	6.304980E-04
7.181188E+03	1.203358E-02	6.298347E-04
7.190972E+03	1.201721E-02	6.291065E-04
7.200755E+03	1.200125E-02	6.283987E-04
7.210539E+03	1.198573E-02	6.277135E-04
7.220323E+03	1.197068E-02	6.270523E-04
7.230106E+03	1.195611E-02	6.264155E-04
7.239890E+03	1.194200E-02	6.258022E-04
7.249673E+03	1.192836E-02	6.252126E-04
7.259457E+03	1.191513E-02	6.246438E-04
7.269241E+03	1.190227E-02	6.240941E-04
7.279024E+03	1.188972E-02	6.235599E-04
7.288808E+03	1.187740E-02	6.230372E-04
7.298592E+03	1.186524E-02	6.225219E-04
7.308375E+03	1.185314E-02	6.220096E-04
7.318159E+03	1.184101E-02	6.214948E-04
7.327943E+03	1.182873E-02	6.209716E-04
7.337726E+03	1.181463E-02	6.203523E-04
7.347510E+03	1.180174E-02	6.197958E-04
7.357293E+03	1.178837E-02	6.192134E-04
7.367077E+03	1.177441E-02	6.185992E-04
7.376861E+03	1.175820E-02	6.178662E-04
7.386644E+03	1.174273E-02	6.171716E-04
7.396428E+03	1.172636E-02	6.164290E-04
7.406212E+03	1.170900E-02	6.156332E-04
7.415995E+03	1.168901E-02	6.146987E-04
7.425779E+03	1.166942E-02	6.137845E-04
7.435563E+03	1.164708E-02	6.127246E-04
7.445346E+03	1.162504E-02	6.116796E-04
7.455130E+03	1.160172E-02	6.105664E-04
7.464913E+03	1.157556E-02	6.093033E-04
7.474697E+03	1.154965E-02	6.080519E-04
7.484481E+03	1.152092E-02	6.066514E-04
7.494264E+03	1.149248E-02	6.052651E-04
7.504048E+03	1.146131E-02	6.037342E-04
7.513832E+03	1.142901E-02	6.021430E-04
7.523615E+03	1.139717E-02	6.005746E-04
7.533399E+03	1.136285E-02	5.988745E-04
7.543183E+03	1.132918E-02	5.972076E-04
7.552966E+03	1.129323E-02	5.954198E-04
7.562750E+03	1.125665E-02	5.935972E-04
7.572533E+03	1.121956E-02	5.917469E-04
7.582317E+03	1.118358E-02	5.899541E-04
7.592101E+03	1.114586E-02	5.880684E-04
