#wls	flux	fluxerr
1.595464E+03	2.712757E-03	9.769933E-05
1.635351E+03	2.296214E-03	8.164726E-05
1.675237E+03	1.935799E-03	6.793986E-05
1.715124E+03	1.626430E-03	5.632781E-05
1.755011E+03	1.362666E-03	4.655750E-05
1.794897E+03	1.139222E-03	3.838958E-05
1.834784E+03	9.510506E-04	3.160151E-05
1.874670E+03	7.935493E-04	2.599416E-05
1.914557E+03	6.622906E-04	2.138213E-05
1.954444E+03	5.537308E-04	1.761608E-05
1.994330E+03	4.646764E-04	1.456410E-05
2.034217E+03	3.927383E-04	1.212495E-05
2.074103E+03	3.360327E-04	1.021717E-05
2.113990E+03	2.933400E-04	8.782778E-06
2.153877E+03	2.643366E-04	7.792523E-06
2.193763E+03	2.484630E-04	7.211137E-06
2.233650E+03	2.454267E-04	7.012275E-06
2.273536E+03	2.556479E-04	7.190561E-06
2.313423E+03	2.804231E-04	7.764652E-06
2.353310E+03	3.221277E-04	8.781021E-06
2.393196E+03	3.847093E-04	1.032511E-05
2.433083E+03	4.738896E-04	1.252357E-05
2.472969E+03	5.970293E-04	1.553756E-05
2.512856E+03	7.627185E-04	1.954918E-05
2.552743E+03	9.796439E-04	2.473105E-05
2.592629E+03	1.254682E-03	3.119920E-05
2.632516E+03	1.590462E-03	3.895703E-05
2.672402E+03	1.985982E-03	4.791825E-05
2.712289E+03	2.437239E-03	5.792815E-05
2.752176E+03	2.934888E-03	6.871413E-05
2.792062E+03	3.464312E-03	7.989621E-05
2.831949E+03	4.008246E-03	9.105543E-05
2.871835E+03	4.547326E-03	1.017501E-04
2.911722E+03	5.063574E-03	1.115956E-04
2.951609E+03	5.542744E-03	1.203124E-04
2.991495E+03	5.974138E-03	1.277155E-04
3.001467E+03	6.073938E-03	1.293550E-04
3.011438E+03	6.170213E-03	1.309052E-04
3.021410E+03	6.263254E-03	1.323733E-04
3.031382E+03	6.352827E-03	1.337552E-04
3.041353E+03	6.439167E-03	1.350569E-04
3.051325E+03	6.522342E-03	1.362807E-04
3.061297E+03	6.602491E-03	1.374303E-04
3.071268E+03	6.679772E-03	1.385098E-04
3.081240E+03	6.753979E-03	1.395158E-04
3.091212E+03	6.825301E-03	1.404530E-04
3.101183E+03	6.893941E-03	1.413264E-04
3.111155E+03	6.959924E-03	1.421372E-04
3.121127E+03	7.023298E-03	1.428873E-04
3.131098E+03	7.084482E-03	1.435857E-04
3.141070E+03	7.143363E-03	1.442309E-04
3.151042E+03	7.200024E-03	1.448252E-04
3.161013E+03	7.255093E-03	1.453818E-04
3.170985E+03	7.308316E-03	1.458962E-04
3.180957E+03	7.360159E-03	1.463782E-04
3.190928E+03	7.410571E-03	1.468271E-04
3.200900E+03	7.460027E-03	1.472529E-04
3.210871E+03	7.508667E-03	1.476584E-04
3.220843E+03	7.556641E-03	1.480470E-04
3.230815E+03	7.604277E-03	1.484251E-04
3.240786E+03	7.651908E-03	1.487994E-04
3.250758E+03	7.699550E-03	1.491703E-04
3.260730E+03	7.747557E-03	1.495447E-04
3.270701E+03	7.796130E-03	1.499263E-04
3.280673E+03	7.845639E-03	1.503224E-04
3.290645E+03	7.896305E-03	1.507369E-04
3.300616E+03	7.948363E-03	1.511741E-04
3.310588E+03	8.002207E-03	1.516414E-04
3.320560E+03	8.057793E-03	1.521375E-04
3.330531E+03	8.115830E-03	1.526757E-04
3.340503E+03	8.176295E-03	1.532549E-04
3.350475E+03	8.239460E-03	1.538801E-04
3.360446E+03	8.305746E-03	1.545584E-04
3.370418E+03	8.375275E-03	1.552917E-04
3.380390E+03	8.448155E-03	1.560815E-04
3.390361E+03	8.524609E-03	1.569314E-04
3.400333E+03	8.604676E-03	1.578415E-04
3.410305E+03	8.688592E-03	1.588155E-04
3.420276E+03	8.775968E-03	1.598458E-04
3.430248E+03	8.866686E-03	1.609299E-04
3.440219E+03	8.960340E-03	1.620598E-04
3.450191E+03	9.056199E-03	1.632220E-04
3.460163E+03	9.153430E-03	1.644014E-04
3.470134E+03	9.251352E-03	1.655858E-04
3.480106E+03	9.350887E-03	1.667917E-04
3.490078E+03	9.453231E-03	1.680403E-04
3.500049E+03	9.559640E-03	1.693535E-04
3.510021E+03	9.671061E-03	1.707476E-04
3.519993E+03	9.788141E-03	1.722334E-04
3.529964E+03	9.911480E-03	1.738206E-04
3.539936E+03	1.004151E-02	1.755158E-04
3.549908E+03	1.017852E-02	1.773229E-04
3.559879E+03	1.032251E-02	1.792407E-04
3.569851E+03	1.047351E-02	1.812683E-04
3.579823E+03	1.063129E-02	1.834007E-04
3.589794E+03	1.079590E-02	1.856375E-04
3.599766E+03	1.096696E-02	1.879711E-04
3.609738E+03	1.114417E-02	1.903952E-04
3.619709E+03	1.132709E-02	1.929011E-04
3.629681E+03	1.151542E-02	1.954829E-04
3.639652E+03	1.170894E-02	1.981360E-04
3.649624E+03	1.190755E-02	2.008578E-04
3.659596E+03	1.211145E-02	2.036505E-04
3.669567E+03	1.232092E-02	2.065183E-04
3.679539E+03	1.253678E-02	2.094738E-04
3.689511E+03	1.275990E-02	2.125302E-04
3.699482E+03	1.299185E-02	2.157125E-04
3.709454E+03	1.323426E-02	2.190463E-04
3.719426E+03	1.348909E-02	2.225622E-04
3.729397E+03	1.375880E-02	2.262984E-04
3.739369E+03	1.404594E-02	2.302945E-04
3.749341E+03	1.435314E-02	2.345908E-04
3.759312E+03	1.468304E-02	2.392271E-04
3.769284E+03	1.503842E-02	2.442448E-04
3.779256E+03	1.542132E-02	2.496729E-04
3.789227E+03	1.583358E-02	2.555372E-04
3.799199E+03	1.627658E-02	2.618548E-04
3.809171E+03	1.675017E-02	2.686189E-04
3.819142E+03	1.725406E-02	2.758198E-04
3.829114E+03	1.778626E-02	2.834214E-04
3.839085E+03	1.834361E-02	2.913690E-04
3.849057E+03	1.892205E-02	2.995944E-04
3.859029E+03	1.951598E-02	3.080059E-04
3.869000E+03	2.011897E-02	3.165000E-04
3.878972E+03	2.072362E-02	3.249592E-04
3.888944E+03	2.132240E-02	3.332656E-04
3.898915E+03	2.190704E-02	3.412911E-04
3.908887E+03	2.247014E-02	3.489230E-04
3.918859E+03	2.300445E-02	3.560526E-04
3.928830E+03	2.350394E-02	3.625909E-04
3.938802E+03	2.396377E-02	3.684691E-04
3.948774E+03	2.438018E-02	3.736357E-04
3.958745E+03	2.475136E-02	3.780697E-04
3.968717E+03	2.507738E-02	3.817791E-04
3.978689E+03	2.535900E-02	3.847825E-04
3.988660E+03	2.559947E-02	3.871360E-04
3.998632E+03	2.580222E-02	3.888979E-04
4.008604E+03	2.597250E-02	3.901529E-04
4.018575E+03	2.611583E-02	3.909888E-04
4.028547E+03	2.623812E-02	3.914981E-04
4.038518E+03	2.634539E-02	3.917741E-04
4.048490E+03	2.644367E-02	3.919086E-04
4.058462E+03	2.653816E-02	3.919800E-04
4.068433E+03	2.663402E-02	3.920655E-04
4.078405E+03	2.673491E-02	3.922189E-04
4.088377E+03	2.684372E-02	3.924821E-04
4.098348E+03	2.696213E-02	3.928792E-04
4.108320E+03	2.709084E-02	3.934194E-04
4.118292E+03	2.722904E-02	3.940898E-04
4.128263E+03	2.737429E-02	3.948546E-04
4.138235E+03	2.752342E-02	3.956680E-04
4.148207E+03	2.767184E-02	3.964642E-04
4.158178E+03	2.781372E-02	3.971610E-04
4.168150E+03	2.794318E-02	3.976763E-04
4.178122E+03	2.805294E-02	3.979095E-04
4.188093E+03	2.813620E-02	3.977680E-04
4.198065E+03	2.818636E-02	3.971635E-04
4.208037E+03	2.819685E-02	3.960090E-04
4.218008E+03	2.816212E-02	3.942333E-04
4.227980E+03	2.807800E-02	3.917852E-04
4.237952E+03	2.794121E-02	3.886263E-04
4.247923E+03	2.775073E-02	3.847501E-04
4.257895E+03	2.750673E-02	3.801669E-04
4.267866E+03	2.721098E-02	3.749082E-04
4.277838E+03	2.686787E-02	3.690414E-04
4.287810E+03	2.648252E-02	3.626429E-04
4.297781E+03	2.606203E-02	3.558150E-04
4.307753E+03	2.561481E-02	3.486765E-04
4.317725E+03	2.514994E-02	3.413536E-04
4.327696E+03	2.467681E-02	3.339752E-04
4.337668E+03	2.420476E-02	3.266682E-04
4.347640E+03	2.374187E-02	3.195407E-04
4.357611E+03	2.330003E-02	3.127509E-04
4.367583E+03	2.290309E-02	3.066154E-04
4.377555E+03	2.257421E-02	3.014383E-04
4.387526E+03	2.233223E-02	2.974624E-04
4.397498E+03	2.219317E-02	2.948908E-04
4.407470E+03	2.216947E-02	2.938775E-04
4.417441E+03	2.227082E-02	2.945391E-04
4.427413E+03	2.250404E-02	2.969537E-04
4.437385E+03	2.287355E-02	3.011681E-04
4.447356E+03	2.338113E-02	3.071939E-04
4.457328E+03	2.402583E-02	3.150079E-04
4.467299E+03	2.480332E-02	3.245429E-04
4.477271E+03	2.570843E-02	3.357222E-04
4.487243E+03	2.673318E-02	3.484331E-04
4.497214E+03	2.786457E-02	3.624986E-04
4.507186E+03	2.908531E-02	3.776871E-04
4.517158E+03	3.037212E-02	3.936920E-04
4.527129E+03	3.169736E-02	4.101515E-04
4.537101E+03	3.302786E-02	4.266353E-04
4.547073E+03	3.432756E-02	4.426787E-04
4.557044E+03	3.555774E-02	4.577855E-04
4.567016E+03	3.667942E-02	4.714592E-04
4.576988E+03	3.765643E-02	4.832421E-04
4.586959E+03	3.845643E-02	4.927283E-04
4.596931E+03	3.905413E-02	4.996043E-04
4.606903E+03	3.943262E-02	5.036653E-04
4.616874E+03	3.958382E-02	5.048198E-04
4.626846E+03	3.951069E-02	5.031179E-04
4.636818E+03	3.922435E-02	4.987126E-04
4.646789E+03	3.874419E-02	4.918609E-04
4.656761E+03	3.809542E-02	4.828925E-04
4.666732E+03	3.730738E-02	4.721869E-04
4.676704E+03	3.641151E-02	4.601485E-04
4.686676E+03	3.543972E-02	4.471854E-04
4.696647E+03	3.442192E-02	4.336776E-04
4.706619E+03	3.338595E-02	4.199776E-04
4.716591E+03	3.235533E-02	4.063812E-04
4.726562E+03	3.135039E-02	3.931428E-04
4.736534E+03	3.038739E-02	3.804643E-04
4.746506E+03	2.947847E-02	3.684947E-04
4.756477E+03	2.863244E-02	3.573407E-04
4.766449E+03	2.785464E-02	3.470652E-04
4.776421E+03	2.714788E-02	3.376988E-04
4.786392E+03	2.651239E-02	3.292404E-04
4.796364E+03	2.594701E-02	3.216710E-04
4.806336E+03	2.544827E-02	3.149436E-04
4.816307E+03	2.501250E-02	3.090087E-04
4.826279E+03	2.463438E-02	3.037969E-04
4.836251E+03	2.430811E-02	2.992331E-04
4.846222E+03	2.402741E-02	2.952369E-04
4.856194E+03	2.378566E-02	2.917242E-04
4.866165E+03	2.357608E-02	2.886096E-04
4.876137E+03	2.339204E-02	2.858101E-04
4.886109E+03	2.322733E-02	2.832484E-04
4.896080E+03	2.307591E-02	2.808500E-04
4.906052E+03	2.293296E-02	2.785556E-04
4.916024E+03	2.279429E-02	2.763141E-04
4.925995E+03	2.265758E-02	2.740976E-04
4.935967E+03	2.252130E-02	2.718879E-04
4.945939E+03	2.238541E-02	2.696848E-04
4.955910E+03	2.225221E-02	2.675165E-04
4.965882E+03	2.212410E-02	2.654121E-04
4.975854E+03	2.200597E-02	2.634303E-04
4.985825E+03	2.190262E-02	2.616281E-04
4.995797E+03	2.182021E-02	2.600785E-04
5.005769E+03	2.176496E-02	2.588543E-04
5.015740E+03	2.174389E-02	2.580376E-04
5.025712E+03	2.176319E-02	2.576997E-04
5.035684E+03	2.182969E-02	2.579185E-04
5.045655E+03	2.194904E-02	2.587581E-04
5.055627E+03	2.212722E-02	2.602853E-04
5.065599E+03	2.236901E-02	2.625529E-04
5.075570E+03	2.267851E-02	2.656046E-04
5.085542E+03	2.305954E-02	2.694812E-04
5.095513E+03	2.351424E-02	2.742034E-04
5.105485E+03	2.404371E-02	2.797802E-04
5.115457E+03	2.464723E-02	2.861990E-04
5.125428E+03	2.532291E-02	2.934346E-04
5.135400E+03	2.606571E-02	3.014255E-04
5.145372E+03	2.686882E-02	3.100909E-04
5.155343E+03	2.772238E-02	3.193159E-04
5.165315E+03	2.861343E-02	3.289511E-04
5.175287E+03	2.952668E-02	3.388220E-04
5.185258E+03	3.044372E-02	3.487199E-04
5.195230E+03	3.134439E-02	3.584183E-04
5.205202E+03	3.220722E-02	3.676770E-04
5.215173E+03	3.301082E-02	3.762588E-04
5.225145E+03	3.373361E-02	3.839260E-04
5.235117E+03	3.435706E-02	3.904762E-04
5.245088E+03	3.486502E-02	3.957354E-04
5.255060E+03	3.524601E-02	3.995828E-04
5.265032E+03	3.549287E-02	4.019460E-04
5.275003E+03	3.560259E-02	4.027996E-04
5.284975E+03	3.557827E-02	4.021860E-04
5.294946E+03	3.542602E-02	4.001805E-04
5.304918E+03	3.515664E-02	3.969098E-04
5.314890E+03	3.478304E-02	3.925231E-04
5.324861E+03	3.432042E-02	3.871941E-04
5.334833E+03	3.378534E-02	3.811105E-04
5.344805E+03	3.319376E-02	3.744520E-04
5.354776E+03	3.256237E-02	3.674057E-04
5.364748E+03	3.190657E-02	3.601441E-04
5.374720E+03	3.124131E-02	3.528328E-04
5.384691E+03	3.058070E-02	3.456278E-04
5.394663E+03	2.993778E-02	3.386718E-04
5.404635E+03	2.932478E-02	3.320986E-04
5.414606E+03	2.874558E-02	3.259486E-04
5.424578E+03	2.819556E-02	3.201658E-04
5.434550E+03	2.766358E-02	3.146205E-04
5.444521E+03	2.713845E-02	3.091821E-04
5.454493E+03	2.661090E-02	3.037408E-04
5.464465E+03	2.607403E-02	2.982138E-04
5.474436E+03	2.552325E-02	2.925437E-04
5.484408E+03	2.495537E-02	2.866889E-04
5.494379E+03	2.436900E-02	2.806282E-04
5.504351E+03	2.376494E-02	2.743655E-04
5.514323E+03	2.314518E-02	2.679183E-04
5.524294E+03	2.251284E-02	2.613178E-04
5.534266E+03	2.187264E-02	2.546142E-04
5.544238E+03	2.122980E-02	2.478638E-04
5.554209E+03	2.059048E-02	2.411355E-04
5.564181E+03	1.996163E-02	2.345077E-04
5.574153E+03	1.935003E-02	2.280586E-04
5.584124E+03	1.876266E-02	2.218699E-04
5.594096E+03	1.820696E-02	2.160299E-04
5.604068E+03	1.768958E-02	2.106192E-04
5.614039E+03	1.721677E-02	2.057149E-04
5.624011E+03	1.679488E-02	2.013970E-04
5.633983E+03	1.642898E-02	1.977310E-04
5.643954E+03	1.612409E-02	1.947836E-04
5.653926E+03	1.588447E-02	1.926134E-04
5.663898E+03	1.571378E-02	1.912727E-04
5.673869E+03	1.561494E-02	1.908059E-04
5.683841E+03	1.559072E-02	1.912564E-04
5.693812E+03	1.564264E-02	1.926536E-04
5.703784E+03	1.577197E-02	1.950234E-04
5.713756E+03	1.597879E-02	1.983786E-04
5.723727E+03	1.626273E-02	2.027259E-04
5.733699E+03	1.662166E-02	2.080509E-04
5.743671E+03	1.705202E-02	2.143207E-04
5.753642E+03	1.754903E-02	2.214863E-04
5.763614E+03	1.810543E-02	2.294669E-04
5.773586E+03	1.871194E-02	2.381545E-04
5.783557E+03	1.935698E-02	2.474100E-04
5.793529E+03	2.002692E-02	2.570656E-04
5.803501E+03	2.070559E-02	2.669178E-04
5.813472E+03	2.137561E-02	2.767439E-04
5.823444E+03	2.201826E-02	2.863000E-04
5.833416E+03	2.261446E-02	2.953334E-04
5.843387E+03	2.314541E-02	3.035904E-04
5.853359E+03	2.359464E-02	3.108436E-04
5.863331E+03	2.394749E-02	3.168858E-04
5.873302E+03	2.419226E-02	3.215451E-04
5.883274E+03	2.432146E-02	3.247032E-04
5.893246E+03	2.433137E-02	3.262898E-04
5.903217E+03	2.422256E-02	3.262914E-04
5.913189E+03	2.399879E-02	3.247377E-04
5.923160E+03	2.366769E-02	3.217111E-04
5.933132E+03	2.323952E-02	3.173315E-04
5.943104E+03	2.272599E-02	3.117414E-04
5.953075E+03	2.214057E-02	3.051096E-04
5.963047E+03	2.149735E-02	2.976169E-04
5.973019E+03	2.080992E-02	2.894403E-04
5.982990E+03	2.009223E-02	2.807653E-04
5.992962E+03	1.935697E-02	2.717631E-04
6.002934E+03	1.861587E-02	2.625948E-04
6.012905E+03	1.787982E-02	2.534122E-04
6.022877E+03	1.715857E-02	2.443539E-04
6.032849E+03	1.646029E-02	2.355389E-04
6.042820E+03	1.579295E-02	2.270849E-04
6.052792E+03	1.516259E-02	2.190849E-04
6.062764E+03	1.457474E-02	2.116257E-04
6.072735E+03	1.403422E-02	2.047853E-04
6.082707E+03	1.354426E-02	1.986206E-04
6.092679E+03	1.310828E-02	1.931919E-04
6.102650E+03	1.272847E-02	1.885427E-04
6.112622E+03	1.240656E-02	1.847107E-04
6.122593E+03	1.214356E-02	1.817234E-04
6.132565E+03	1.194011E-02	1.796038E-04
6.142537E+03	1.179622E-02	1.783652E-04
6.152508E+03	1.171152E-02	1.780162E-04
6.162480E+03	1.168488E-02	1.785535E-04
6.172452E+03	1.171460E-02	1.799654E-04
6.182423E+03	1.179889E-02	1.822385E-04
6.192395E+03	1.193455E-02	1.853372E-04
6.202367E+03	1.211847E-02	1.892269E-04
6.212338E+03	1.234619E-02	1.938508E-04
6.222310E+03	1.261302E-02	1.991467E-04
6.232282E+03	1.291319E-02	2.050343E-04
6.242253E+03	1.324050E-02	2.114238E-04
6.252225E+03	1.358785E-02	2.182090E-04
6.262197E+03	1.394853E-02	2.252879E-04
6.272168E+03	1.431501E-02	2.325426E-04
6.282140E+03	1.468028E-02	2.398604E-04
6.292112E+03	1.503755E-02	2.471303E-04
6.302083E+03	1.538099E-02	2.542538E-04
6.312055E+03	1.570572E-02	2.611465E-04
6.322026E+03	1.600766E-02	2.677347E-04
6.331998E+03	1.628465E-02	2.739758E-04
6.341970E+03	1.653511E-02	2.798358E-04
6.351941E+03	1.675977E-02	2.853189E-04
6.361913E+03	1.696033E-02	2.904467E-04
6.371885E+03	1.713952E-02	2.952587E-04
6.381856E+03	1.730200E-02	2.998288E-04
6.391828E+03	1.744975E-02	3.041863E-04
6.401800E+03	1.757979E-02	3.082739E-04
6.411771E+03	1.768709E-02	3.119972E-04
6.421743E+03	1.776848E-02	3.152925E-04
6.431715E+03	1.782002E-02	3.180806E-04
6.441686E+03	1.783936E-02	3.203098E-04
6.451658E+03	1.782422E-02	3.219280E-04
6.461630E+03	1.777297E-02	3.228940E-04
6.471601E+03	1.768456E-02	3.231768E-04
6.481573E+03	1.755869E-02	3.227582E-04
6.491545E+03	1.739542E-02	3.216265E-04
6.501516E+03	1.719628E-02	3.197978E-04
6.511488E+03	1.696240E-02	3.172808E-04
6.521459E+03	1.669628E-02	3.141107E-04
6.531431E+03	1.640046E-02	3.103246E-04
6.541403E+03	1.607817E-02	3.059733E-04
6.551374E+03	1.573323E-02	3.011213E-04
6.561346E+03	1.536902E-02	2.958253E-04
6.571318E+03	1.498953E-02	2.901560E-04
6.581289E+03	1.459905E-02	2.841911E-04
6.591261E+03	1.420152E-02	2.780042E-04
6.601233E+03	1.380034E-02	2.716591E-04
6.611204E+03	1.339955E-02	2.652347E-04
6.621176E+03	1.300205E-02	2.587880E-04
6.631148E+03	1.261124E-02	2.523882E-04
6.641119E+03	1.222914E-02	2.460777E-04
6.651091E+03	1.185860E-02	2.399171E-04
6.661063E+03	1.150111E-02	2.339402E-04
6.671034E+03	1.115838E-02	2.281860E-04
6.681006E+03	1.083121E-02	2.226760E-04
6.690978E+03	1.052099E-02	2.174437E-04
6.700949E+03	1.022776E-02	2.124954E-04
6.710921E+03	9.952157E-03	2.078500E-04
6.720893E+03	9.694242E-03	2.035145E-04
6.730864E+03	9.453570E-03	1.994852E-04
6.740836E+03	9.230169E-03	1.957683E-04
6.750807E+03	9.023455E-03	1.923570E-04
6.760779E+03	8.833037E-03	1.892484E-04
6.770751E+03	8.657991E-03	1.864277E-04
6.780722E+03	8.497919E-03	1.838913E-04
6.790694E+03	8.352075E-03	1.816280E-04
6.800666E+03	8.219542E-03	1.796221E-04
6.810637E+03	8.099528E-03	1.778607E-04
6.820609E+03	7.991235E-03	1.763300E-04
6.830581E+03	7.894139E-03	1.750222E-04
6.840552E+03	7.807044E-03	1.739143E-04
6.850524E+03	7.729453E-03	1.729983E-04
6.860496E+03	7.660618E-03	1.722604E-04
6.870467E+03	7.599681E-03	1.716839E-04
6.880439E+03	7.546091E-03	1.712588E-04
6.890411E+03	7.499188E-03	1.709724E-04
6.900382E+03	7.458214E-03	1.708094E-04
6.910354E+03	7.422717E-03	1.707613E-04
6.920326E+03	7.392143E-03	1.708168E-04
6.930297E+03	7.365841E-03	1.709625E-04
6.940269E+03	7.343594E-03	1.711945E-04
6.950240E+03	7.324682E-03	1.714972E-04
6.960212E+03	7.308951E-03	1.718680E-04
6.970184E+03	7.295737E-03	1.722922E-04
6.980155E+03	7.284934E-03	1.727680E-04
6.990127E+03	7.275920E-03	1.732814E-04
7.000099E+03	7.268629E-03	1.738311E-04
7.010070E+03	7.262599E-03	1.744067E-04
7.020042E+03	7.257515E-03	1.750010E-04
7.030014E+03	7.253207E-03	1.756100E-04
7.039985E+03	7.249230E-03	1.762232E-04
7.049957E+03	7.245280E-03	1.768333E-04
7.059929E+03	7.241191E-03	1.774361E-04
7.069900E+03	7.236658E-03	1.780242E-04
7.079872E+03	7.231233E-03	1.785863E-04
7.089844E+03	7.224749E-03	1.791181E-04
7.099815E+03	7.216899E-03	1.796116E-04
7.109787E+03	7.207382E-03	1.800590E-04
7.119759E+03	7.195753E-03	1.804485E-04
7.129730E+03	7.182008E-03	1.807796E-04
7.139702E+03	7.165725E-03	1.810409E-04
7.149673E+03	7.146639E-03	1.812252E-04
7.159645E+03	7.124647E-03	1.813289E-04
7.169617E+03	7.099379E-03	1.813420E-04
7.179588E+03	7.070631E-03	1.812582E-04
7.189560E+03	7.038518E-03	1.810798E-04
7.199532E+03	7.002462E-03	1.807907E-04
7.209503E+03	6.962784E-03	1.803985E-04
7.219475E+03	6.919263E-03	1.798964E-04
7.229447E+03	6.871722E-03	1.792788E-04
7.239418E+03	6.820310E-03	1.785486E-04
7.249390E+03	6.765223E-03	1.777101E-04
7.259362E+03	6.706417E-03	1.767611E-04
7.269333E+03	6.643901E-03	1.757010E-04
7.279305E+03	6.578153E-03	1.745417E-04
7.289277E+03	6.509279E-03	1.732852E-04
7.299248E+03	6.437575E-03	1.719386E-04
7.309220E+03	6.363514E-03	1.705141E-04
7.319192E+03	6.287060E-03	1.690101E-04
7.329163E+03	6.209043E-03	1.674486E-04
7.339135E+03	6.129630E-03	1.658338E-04
7.349106E+03	6.049290E-03	1.641781E-04
7.359078E+03	5.968510E-03	1.624948E-04
7.369050E+03	5.887650E-03	1.607936E-04
7.379021E+03	5.807210E-03	1.590883E-04
7.388993E+03	5.727686E-03	1.573928E-04
7.398965E+03	5.649432E-03	1.557173E-04
7.408936E+03	5.572917E-03	1.540750E-04
7.418908E+03	5.498459E-03	1.524754E-04
7.428880E+03	5.426853E-03	1.509412E-04
7.438851E+03	5.358227E-03	1.494769E-04
7.448823E+03	5.293176E-03	1.480997E-04
7.458795E+03	5.232003E-03	1.468194E-04
7.468766E+03	5.175096E-03	1.456478E-04
7.478738E+03	5.122554E-03	1.445888E-04
7.488710E+03	5.074681E-03	1.436523E-04
7.498681E+03	5.031739E-03	1.428469E-04
7.508653E+03	4.993590E-03	1.421699E-04
7.518625E+03	4.960652E-03	1.416346E-04
7.528596E+03	4.932714E-03	1.412361E-04
7.538568E+03	4.909765E-03	1.409756E-04
7.548540E+03	4.891998E-03	1.408597E-04
7.558511E+03	4.879099E-03	1.408808E-04
7.568483E+03	4.870966E-03	1.410372E-04
7.578454E+03	4.867709E-03	1.413331E-04
7.588426E+03	4.868937E-03	1.417586E-04
7.598398E+03	4.874477E-03	1.423095E-04
7.608369E+03	4.884263E-03	1.429853E-04
7.618341E+03	4.898092E-03	1.437808E-04
7.628313E+03	4.915625E-03	1.446872E-04
7.638284E+03	4.936758E-03	1.457023E-04
7.648256E+03	4.961247E-03	1.468198E-04
7.658228E+03	4.988585E-03	1.480256E-04
7.668199E+03	5.018879E-03	1.493235E-04
7.678171E+03	5.051454E-03	1.506943E-04
7.688143E+03	5.086382E-03	1.521405E-04
7.698114E+03	5.122936E-03	1.536412E-04
7.708086E+03	5.161141E-03	1.551974E-04
7.718058E+03	5.200336E-03	1.567897E-04
7.728029E+03	5.240088E-03	1.584053E-04
7.738001E+03	5.280204E-03	1.600386E-04
