#wls	flux	fluxerr
1.588266E+03	2.516153E-03	1.080318E-04
1.627973E+03	2.569748E-03	1.099839E-04
1.667679E+03	2.624782E-03	1.119737E-04
1.707386E+03	2.682020E-03	1.140326E-04
1.747092E+03	2.740602E-03	1.161223E-04
1.786799E+03	2.801708E-03	1.182911E-04
1.826506E+03	2.864871E-03	1.205175E-04
1.866212E+03	2.930871E-03	1.228323E-04
1.905919E+03	3.000081E-03	1.252486E-04
1.945626E+03	3.072868E-03	1.277793E-04
1.985332E+03	3.149595E-03	1.304364E-04
2.025039E+03	3.231062E-03	1.332497E-04
2.064746E+03	3.318072E-03	1.362486E-04
2.104452E+03	3.410962E-03	1.394425E-04
2.144159E+03	3.510503E-03	1.428581E-04
2.183866E+03	3.617440E-03	1.465203E-04
2.223572E+03	3.732018E-03	1.504331E-04
2.263279E+03	3.854427E-03	1.545977E-04
2.302986E+03	3.984792E-03	1.590126E-04
2.342692E+03	4.123159E-03	1.636725E-04
2.382399E+03	4.269495E-03	1.685688E-04
2.422105E+03	4.423667E-03	1.736888E-04
2.461812E+03	4.584498E-03	1.789789E-04
2.501519E+03	4.751640E-03	1.844182E-04
2.541225E+03	4.924635E-03	1.899820E-04
2.580932E+03	5.102896E-03	1.956407E-04
2.620639E+03	5.284778E-03	2.013247E-04
2.660345E+03	5.469910E-03	2.070141E-04
2.700052E+03	5.656862E-03	2.126495E-04
2.739759E+03	5.844996E-03	2.182021E-04
2.779465E+03	6.032166E-03	2.235883E-04
2.819172E+03	6.217485E-03	2.287726E-04
2.858879E+03	6.398164E-03	2.336513E-04
2.898585E+03	6.572258E-03	2.381544E-04
2.938292E+03	6.739468E-03	2.422735E-04
2.977999E+03	6.898083E-03	2.459503E-04
2.987925E+03	6.936733E-03	2.468130E-04
2.997852E+03	6.974621E-03	2.476403E-04
3.007779E+03	7.012119E-03	2.484457E-04
3.017705E+03	7.049187E-03	2.492277E-04
3.027632E+03	7.085788E-03	2.499850E-04
3.037559E+03	7.121478E-03	2.507021E-04
3.047485E+03	7.157022E-03	2.514061E-04
3.057412E+03	7.192374E-03	2.520953E-04
3.067339E+03	7.226697E-03	2.527404E-04
3.077265E+03	7.260743E-03	2.533680E-04
3.087192E+03	7.294464E-03	2.539762E-04
3.097118E+03	7.327810E-03	2.545635E-04
3.107045E+03	7.360737E-03	2.551283E-04
3.116972E+03	7.393195E-03	2.556691E-04
3.126898E+03	7.425139E-03	2.561842E-04
3.136825E+03	7.456894E-03	2.566851E-04
3.146752E+03	7.488406E-03	2.571697E-04
3.156678E+03	7.519251E-03	2.576237E-04
3.166605E+03	7.550113E-03	2.580706E-04
3.176532E+03	7.580567E-03	2.584958E-04
3.186458E+03	7.610559E-03	2.588974E-04
3.196385E+03	7.640390E-03	2.592859E-04
3.206312E+03	7.670349E-03	2.596711E-04
3.216238E+03	7.699667E-03	2.600268E-04
3.226165E+03	7.728985E-03	2.603748E-04
3.236092E+03	7.757886E-03	2.607011E-04
3.246018E+03	7.786991E-03	2.610265E-04
3.255945E+03	7.815884E-03	2.613371E-04
3.265872E+03	7.844495E-03	2.616305E-04
3.275798E+03	7.873085E-03	2.619155E-04
3.285725E+03	7.901579E-03	2.621895E-04
3.295652E+03	7.930221E-03	2.624607E-04
3.305578E+03	7.958607E-03	2.627156E-04
3.315505E+03	7.987295E-03	2.629726E-04
3.325432E+03	8.015876E-03	2.632182E-04
3.335358E+03	8.044580E-03	2.634599E-04
3.345285E+03	8.073007E-03	2.636847E-04
3.355212E+03	8.101986E-03	2.639194E-04
3.365138E+03	8.130808E-03	2.641410E-04
3.375065E+03	8.159683E-03	2.643563E-04
3.384992E+03	8.188806E-03	2.645715E-04
3.394918E+03	8.218072E-03	2.647831E-04
3.404845E+03	8.247379E-03	2.649878E-04
3.414772E+03	8.276908E-03	2.651914E-04
3.424698E+03	8.306549E-03	2.653903E-04
3.434625E+03	8.336471E-03	2.655897E-04
3.444552E+03	8.366016E-03	2.657687E-04
3.454478E+03	8.395894E-03	2.659499E-04
3.464405E+03	8.425724E-03	2.661211E-04
3.474332E+03	8.455398E-03	2.662788E-04
3.484258E+03	8.485070E-03	2.664281E-04
3.494185E+03	8.514376E-03	2.665573E-04
3.504112E+03	8.543469E-03	2.666715E-04
3.514038E+03	8.572000E-03	2.667597E-04
3.523965E+03	8.599879E-03	2.668193E-04
3.533892E+03	8.626545E-03	2.668331E-04
3.543818E+03	8.652171E-03	2.668069E-04
3.553745E+03	8.676461E-03	2.667317E-04
3.563672E+03	8.698904E-03	2.665923E-04
3.573598E+03	8.719476E-03	2.663885E-04
3.583525E+03	8.737931E-03	2.661132E-04
3.593452E+03	8.754262E-03	2.657670E-04
3.603378E+03	8.768036E-03	2.653373E-04
3.613305E+03	8.779272E-03	2.648253E-04
3.623232E+03	8.787789E-03	2.642266E-04
3.633158E+03	8.793624E-03	2.635428E-04
3.643085E+03	8.796416E-03	2.627642E-04
3.653012E+03	8.796629E-03	2.619052E-04
3.662938E+03	8.793726E-03	2.609510E-04
3.672865E+03	8.787790E-03	2.599047E-04
3.682792E+03	8.779093E-03	2.587754E-04
3.692718E+03	8.767345E-03	2.575555E-04
3.702645E+03	8.752644E-03	2.562486E-04
3.712572E+03	8.735271E-03	2.548640E-04
3.722498E+03	8.714971E-03	2.533951E-04
3.732425E+03	8.691858E-03	2.518461E-04
3.742352E+03	8.666051E-03	2.502213E-04
3.752278E+03	8.637667E-03	2.485249E-04
3.762205E+03	8.606664E-03	2.467567E-04
3.772131E+03	8.573171E-03	2.449212E-04
3.782058E+03	8.537162E-03	2.430183E-04
3.791985E+03	8.498929E-03	2.410573E-04
3.801911E+03	8.458455E-03	2.390384E-04
3.811838E+03	8.415876E-03	2.369662E-04
3.821765E+03	8.371042E-03	2.348372E-04
3.831691E+03	8.324394E-03	2.326645E-04
3.841618E+03	8.275929E-03	2.304487E-04
3.851545E+03	8.225793E-03	2.281944E-04
3.861471E+03	8.173857E-03	2.258987E-04
3.871398E+03	8.120545E-03	2.235739E-04
3.881325E+03	8.065737E-03	2.212171E-04
3.891251E+03	8.009713E-03	2.188367E-04
3.901178E+03	7.952491E-03	2.164336E-04
3.911105E+03	7.894095E-03	2.140088E-04
3.921031E+03	7.834920E-03	2.115736E-04
3.930958E+03	7.774743E-03	2.091221E-04
3.940885E+03	7.713953E-03	2.066653E-04
3.950811E+03	7.652570E-03	2.042040E-04
3.960738E+03	7.590621E-03	2.017391E-04
3.970665E+03	7.528358E-03	1.992775E-04
3.980591E+03	7.465700E-03	1.968175E-04
3.990518E+03	7.403002E-03	1.943683E-04
4.000445E+03	7.340185E-03	1.919282E-04
4.010371E+03	7.277386E-03	1.895007E-04
4.020298E+03	7.214849E-03	1.870923E-04
4.030225E+03	7.152506E-03	1.847013E-04
4.040151E+03	7.090601E-03	1.823338E-04
4.050078E+03	7.029177E-03	1.799910E-04
4.060005E+03	6.968384E-03	1.776766E-04
4.069931E+03	6.908365E-03	1.753941E-04
4.079858E+03	6.849269E-03	1.731470E-04
4.089785E+03	6.791059E-03	1.709343E-04
4.099711E+03	6.734066E-03	1.687640E-04
4.109638E+03	6.678254E-03	1.666349E-04
4.119565E+03	6.623853E-03	1.645523E-04
4.129491E+03	6.570827E-03	1.625151E-04
4.139418E+03	6.519395E-03	1.605282E-04
4.149345E+03	6.469679E-03	1.585941E-04
4.159271E+03	6.421711E-03	1.567132E-04
4.169198E+03	6.375522E-03	1.548856E-04
4.179125E+03	6.331370E-03	1.531172E-04
4.189051E+03	6.289109E-03	1.514037E-04
4.198978E+03	6.248977E-03	1.497504E-04
4.208905E+03	6.210894E-03	1.481546E-04
4.218831E+03	6.175000E-03	1.466192E-04
4.228758E+03	6.141277E-03	1.451429E-04
4.238685E+03	6.109846E-03	1.437281E-04
4.248611E+03	6.080674E-03	1.423733E-04
4.258538E+03	6.053725E-03	1.410769E-04
4.268465E+03	6.029240E-03	1.398438E-04
4.278391E+03	6.007025E-03	1.386689E-04
4.288318E+03	5.987239E-03	1.375551E-04
4.298245E+03	5.969892E-03	1.365019E-04
4.308171E+03	5.955058E-03	1.355103E-04
4.318098E+03	5.942810E-03	1.345811E-04
4.328025E+03	5.933074E-03	1.337120E-04
4.337951E+03	5.926055E-03	1.329067E-04
4.347878E+03	5.921740E-03	1.321642E-04
4.357805E+03	5.920257E-03	1.314865E-04
4.367731E+03	5.921658E-03	1.308739E-04
4.377658E+03	5.926060E-03	1.303282E-04
4.387585E+03	5.933440E-03	1.298479E-04
4.397511E+03	5.943971E-03	1.294359E-04
4.407438E+03	5.957559E-03	1.290894E-04
4.417365E+03	5.974301E-03	1.288094E-04
4.427291E+03	5.994093E-03	1.285929E-04
4.437218E+03	6.016961E-03	1.284394E-04
4.447144E+03	6.042857E-03	1.283471E-04
4.457071E+03	6.071801E-03	1.283155E-04
4.466998E+03	6.103605E-03	1.283398E-04
4.476924E+03	6.138344E-03	1.284207E-04
4.486851E+03	6.175893E-03	1.285549E-04
4.496778E+03	6.216115E-03	1.287387E-04
4.506704E+03	6.259012E-03	1.289715E-04
4.516631E+03	6.304450E-03	1.292497E-04
4.526558E+03	6.352296E-03	1.295701E-04
4.536484E+03	6.402559E-03	1.299323E-04
4.546411E+03	6.454982E-03	1.303304E-04
4.556338E+03	6.509664E-03	1.307659E-04
4.566264E+03	6.566366E-03	1.312336E-04
4.576191E+03	6.625073E-03	1.317327E-04
4.586118E+03	6.685712E-03	1.322614E-04
4.596044E+03	6.748295E-03	1.328195E-04
4.605971E+03	6.812631E-03	1.334028E-04
4.615898E+03	6.878749E-03	1.340118E-04
4.625824E+03	6.946610E-03	1.346453E-04
4.635751E+03	7.016099E-03	1.353008E-04
4.645678E+03	7.087164E-03	1.359772E-04
4.655604E+03	7.159735E-03	1.366728E-04
4.665531E+03	7.233720E-03	1.373859E-04
4.675458E+03	7.309001E-03	1.381139E-04
4.685384E+03	7.385426E-03	1.388542E-04
4.695311E+03	7.462886E-03	1.396045E-04
4.705238E+03	7.541235E-03	1.403622E-04
4.715164E+03	7.620448E-03	1.411270E-04
4.725091E+03	7.700384E-03	1.418963E-04
4.735018E+03	7.780876E-03	1.426674E-04
4.744944E+03	7.861889E-03	1.434396E-04
4.754871E+03	7.943208E-03	1.442096E-04
4.764798E+03	8.024692E-03	1.449749E-04
4.774724E+03	8.106027E-03	1.457304E-04
4.784651E+03	8.187077E-03	1.464740E-04
4.794578E+03	8.267629E-03	1.472026E-04
4.804504E+03	8.347415E-03	1.479119E-04
4.814431E+03	8.426273E-03	1.485998E-04
4.824358E+03	8.504039E-03	1.492641E-04
4.834284E+03	8.580848E-03	1.499078E-04
4.844211E+03	8.656840E-03	1.505343E-04
4.854138E+03	8.732450E-03	1.511517E-04
4.864064E+03	8.807839E-03	1.517633E-04
4.873991E+03	8.883211E-03	1.523733E-04
4.883918E+03	8.958804E-03	1.529863E-04
4.893844E+03	9.034508E-03	1.536009E-04
4.903771E+03	9.110574E-03	1.542219E-04
4.913698E+03	9.186609E-03	1.548431E-04
4.923624E+03	9.262667E-03	1.554661E-04
4.933551E+03	9.338147E-03	1.560812E-04
4.943478E+03	9.412820E-03	1.566851E-04
4.953404E+03	9.486196E-03	1.572703E-04
4.963331E+03	9.557647E-03	1.578271E-04
4.973258E+03	9.626619E-03	1.583472E-04
4.983184E+03	9.692591E-03	1.588227E-04
4.993111E+03	9.755196E-03	1.592488E-04
5.003038E+03	9.813969E-03	1.596189E-04
5.012964E+03	9.868670E-03	1.599301E-04
5.022891E+03	9.919301E-03	1.601836E-04
5.032818E+03	9.965830E-03	1.603798E-04
5.042744E+03	1.000848E-02	1.605233E-04
5.052671E+03	1.004761E-02	1.606209E-04
5.062598E+03	1.008372E-02	1.606814E-04
5.072524E+03	1.011738E-02	1.607144E-04
5.082451E+03	1.014929E-02	1.607319E-04
5.092378E+03	1.017985E-02	1.607408E-04
5.102304E+03	1.020975E-02	1.607520E-04
5.112231E+03	1.023957E-02	1.607756E-04
5.122158E+03	1.026960E-02	1.608159E-04
5.132084E+03	1.030033E-02	1.608810E-04
5.142011E+03	1.033199E-02	1.609748E-04
5.151937E+03	1.036501E-02	1.611040E-04
5.161864E+03	1.039970E-02	1.612737E-04
5.171791E+03	1.043623E-02	1.614867E-04
5.181717E+03	1.047503E-02	1.617497E-04
5.191644E+03	1.051629E-02	1.620656E-04
5.201571E+03	1.056042E-02	1.624411E-04
5.211497E+03	1.060751E-02	1.628778E-04
5.221424E+03	1.065798E-02	1.633819E-04
5.231351E+03	1.071222E-02	1.639598E-04
5.241277E+03	1.077028E-02	1.646124E-04
5.251204E+03	1.083251E-02	1.653453E-04
5.261131E+03	1.089904E-02	1.661606E-04
5.271057E+03	1.097006E-02	1.670615E-04
5.280984E+03	1.104584E-02	1.680525E-04
5.290911E+03	1.112642E-02	1.691345E-04
5.300837E+03	1.121192E-02	1.703097E-04
5.310764E+03	1.130233E-02	1.715786E-04
5.320691E+03	1.139789E-02	1.729451E-04
5.330617E+03	1.149859E-02	1.744097E-04
5.340544E+03	1.160471E-02	1.759772E-04
5.350471E+03	1.171616E-02	1.776472E-04
5.360397E+03	1.183302E-02	1.794214E-04
5.370324E+03	1.195419E-02	1.812841E-04
5.380251E+03	1.207701E-02	1.831956E-04
5.390177E+03	1.219813E-02	1.851058E-04
5.400104E+03	1.231429E-02	1.869653E-04
5.410031E+03	1.242242E-02	1.887279E-04
5.419957E+03	1.251930E-02	1.903441E-04
5.429884E+03	1.260226E-02	1.917733E-04
5.439811E+03	1.266877E-02	1.929762E-04
5.449737E+03	1.271643E-02	1.939154E-04
5.459664E+03	1.274332E-02	1.945605E-04
5.469591E+03	1.274803E-02	1.948885E-04
5.479517E+03	1.272934E-02	1.948786E-04
5.489444E+03	1.268691E-02	1.945240E-04
5.499371E+03	1.262041E-02	1.938171E-04
5.509297E+03	1.253048E-02	1.927651E-04
5.519224E+03	1.241813E-02	1.913810E-04
5.529151E+03	1.228493E-02	1.896861E-04
5.539077E+03	1.213289E-02	1.877090E-04
5.549004E+03	1.196460E-02	1.854867E-04
5.558931E+03	1.178272E-02	1.830581E-04
5.568857E+03	1.159035E-02	1.804689E-04
5.578784E+03	1.139100E-02	1.777718E-04
5.588711E+03	1.118787E-02	1.750147E-04
5.598637E+03	1.098463E-02	1.722539E-04
5.608564E+03	1.078451E-02	1.695391E-04
5.618491E+03	1.059106E-02	1.669254E-04
5.628417E+03	1.040746E-02	1.644629E-04
5.638344E+03	1.023657E-02	1.621973E-04
5.648271E+03	1.008124E-02	1.601747E-04
5.658197E+03	9.943870E-03	1.584345E-04
5.668124E+03	9.826903E-03	1.570175E-04
5.678051E+03	9.732118E-03	1.559543E-04
5.687977E+03	9.661434E-03	1.552783E-04
5.697904E+03	9.616292E-03	1.550158E-04
5.707831E+03	9.597649E-03	1.551854E-04
5.717757E+03	9.606545E-03	1.558077E-04
5.727684E+03	9.643479E-03	1.568946E-04
5.737611E+03	9.708584E-03	1.584524E-04
5.747537E+03	9.801603E-03	1.604811E-04
5.757464E+03	9.921763E-03	1.629725E-04
5.767391E+03	1.006818E-02	1.659161E-04
5.777317E+03	1.023911E-02	1.692875E-04
5.787244E+03	1.043277E-02	1.730613E-04
5.797171E+03	1.064661E-02	1.771987E-04
5.807097E+03	1.087783E-02	1.816567E-04
5.817024E+03	1.112298E-02	1.863805E-04
5.826950E+03	1.137841E-02	1.913112E-04
5.836877E+03	1.163988E-02	1.963793E-04
5.846804E+03	1.190308E-02	2.015133E-04
5.856730E+03	1.216337E-02	2.066347E-04
5.866657E+03	1.241591E-02	2.116604E-04
5.876584E+03	1.265607E-02	2.165105E-04
5.886510E+03	1.287943E-02	2.211066E-04
5.896437E+03	1.308147E-02	2.253679E-04
5.906364E+03	1.325845E-02	2.292263E-04
5.916290E+03	1.340722E-02	2.326225E-04
5.926217E+03	1.352484E-02	2.354998E-04
5.936144E+03	1.360961E-02	2.378228E-04
5.946070E+03	1.365993E-02	2.395573E-04
5.955997E+03	1.367547E-02	2.406910E-04
5.965924E+03	1.365607E-02	2.412142E-04
5.975850E+03	1.360217E-02	2.411281E-04
5.985777E+03	1.351496E-02	2.404468E-04
5.995704E+03	1.339608E-02	2.391931E-04
6.005630E+03	1.324688E-02	2.373848E-04
6.015557E+03	1.306972E-02	2.350584E-04
6.025484E+03	1.286670E-02	2.322459E-04
6.035410E+03	1.264023E-02	2.289856E-04
6.045337E+03	1.239262E-02	2.253148E-04
6.055264E+03	1.212652E-02	2.212771E-04
6.065190E+03	1.184419E-02	2.169102E-04
6.075117E+03	1.154814E-02	2.122567E-04
6.085044E+03	1.124099E-02	2.073618E-04
6.094970E+03	1.092483E-02	2.022617E-04
6.104897E+03	1.060244E-02	1.970060E-04
6.114824E+03	1.027597E-02	1.916331E-04
6.124750E+03	9.947763E-03	1.861858E-04
6.134677E+03	9.620367E-03	1.807111E-04
6.144604E+03	9.296057E-03	1.752519E-04
6.154530E+03	8.977095E-03	1.698512E-04
6.164457E+03	8.665793E-03	1.645537E-04
6.174384E+03	8.364599E-03	1.594074E-04
6.184310E+03	8.075841E-03	1.544586E-04
6.194237E+03	7.801468E-03	1.497471E-04
6.204164E+03	7.543566E-03	1.453159E-04
6.214090E+03	7.303425E-03	1.411931E-04
6.224017E+03	7.082602E-03	1.374124E-04
6.233944E+03	6.882119E-03	1.339977E-04
6.243870E+03	6.702659E-03	1.309663E-04
6.253797E+03	6.544814E-03	1.283341E-04
6.263724E+03	6.408791E-03	1.261096E-04
6.273650E+03	6.294817E-03	1.243018E-04
6.283577E+03	6.202637E-03	1.229100E-04
6.293504E+03	6.132076E-03	1.219352E-04
6.303430E+03	6.082759E-03	1.213744E-04
6.313357E+03	6.054207E-03	1.212223E-04
6.323284E+03	6.045781E-03	1.214704E-04
6.333210E+03	6.056831E-03	1.221095E-04
6.343137E+03	6.086624E-03	1.231289E-04
6.353064E+03	6.134264E-03	1.245142E-04
6.362990E+03	6.198926E-03	1.262522E-04
6.372917E+03	6.279383E-03	1.283213E-04
6.382844E+03	6.374712E-03	1.307056E-04
6.392770E+03	6.483514E-03	1.333795E-04
6.402697E+03	6.604632E-03	1.363217E-04
6.412624E+03	6.736606E-03	1.395043E-04
6.422550E+03	6.878179E-03	1.429035E-04
6.432477E+03	7.027895E-03	1.464907E-04
6.442404E+03	7.184374E-03	1.502385E-04
6.452330E+03	7.346238E-03	1.541195E-04
6.462257E+03	7.512221E-03	1.581078E-04
6.472184E+03	7.680891E-03	1.621740E-04
6.482110E+03	7.851235E-03	1.662971E-04
6.492037E+03	8.021771E-03	1.704457E-04
6.501963E+03	8.191434E-03	1.745971E-04
6.511890E+03	8.358964E-03	1.787241E-04
6.521817E+03	8.523092E-03	1.827988E-04
6.531743E+03	8.682650E-03	1.867955E-04
6.541670E+03	8.836341E-03	1.906849E-04
6.551597E+03	8.982849E-03	1.944375E-04
6.561523E+03	9.120973E-03	1.980256E-04
6.571450E+03	9.249400E-03	2.014188E-04
6.581377E+03	9.366855E-03	2.045873E-04
6.591303E+03	9.472247E-03	2.075051E-04
6.601230E+03	9.564336E-03	2.101423E-04
6.611157E+03	9.642271E-03	2.124776E-04
6.621083E+03	9.705240E-03	2.144902E-04
6.631010E+03	9.752763E-03	2.161667E-04
6.640937E+03	9.784187E-03	2.174893E-04
6.650863E+03	9.799625E-03	2.184577E-04
6.660790E+03	9.799174E-03	2.190708E-04
6.670717E+03	9.783039E-03	2.193302E-04
6.680643E+03	9.751933E-03	2.192490E-04
6.690570E+03	9.706654E-03	2.188424E-04
6.700497E+03	9.648202E-03	2.181303E-04
6.710423E+03	9.577612E-03	2.171337E-04
6.720350E+03	9.496463E-03	2.158864E-04
6.730277E+03	9.405907E-03	2.144126E-04
6.740203E+03	9.307710E-03	2.127511E-04
6.750130E+03	9.203140E-03	2.109297E-04
6.760057E+03	9.094023E-03	2.089890E-04
6.769983E+03	8.981766E-03	2.069608E-04
6.779910E+03	8.867878E-03	2.048795E-04
6.789837E+03	8.753809E-03	2.027785E-04
6.799763E+03	8.641061E-03	2.006927E-04
6.809690E+03	8.530662E-03	1.986463E-04
6.819617E+03	8.424043E-03	1.966733E-04
6.829543E+03	8.322140E-03	1.947964E-04
6.839470E+03	8.225889E-03	1.930384E-04
6.849397E+03	8.136089E-03	1.914193E-04
6.859323E+03	8.053520E-03	1.899588E-04
6.869250E+03	7.978449E-03	1.886644E-04
6.879177E+03	7.911477E-03	1.875518E-04
6.889103E+03	7.852690E-03	1.866247E-04
6.899030E+03	7.802023E-03	1.858830E-04
6.908957E+03	7.759624E-03	1.853317E-04
6.918883E+03	7.725136E-03	1.849638E-04
6.928810E+03	7.698192E-03	1.847719E-04
6.938737E+03	7.678304E-03	1.847457E-04
6.948663E+03	7.664760E-03	1.848694E-04
6.958590E+03	7.657127E-03	1.851335E-04
6.968517E+03	7.654549E-03	1.855185E-04
6.978443E+03	7.656132E-03	1.860036E-04
6.988370E+03	7.661213E-03	1.865734E-04
6.998297E+03	7.669016E-03	1.872095E-04
7.008223E+03	7.678797E-03	1.878945E-04
7.018150E+03	7.689739E-03	1.886085E-04
7.028077E+03	7.701339E-03	1.893395E-04
7.038003E+03	7.713052E-03	1.900742E-04
7.047930E+03	7.724417E-03	1.908013E-04
7.057857E+03	7.734942E-03	1.915086E-04
7.067783E+03	7.744474E-03	1.921922E-04
7.077710E+03	7.752697E-03	1.928442E-04
7.087637E+03	7.759626E-03	1.934648E-04
7.097563E+03	7.765216E-03	1.940526E-04
7.107490E+03	7.769471E-03	1.946077E-04
7.117417E+03	7.772296E-03	1.951274E-04
7.127343E+03	7.773742E-03	1.956128E-04
7.137270E+03	7.774114E-03	1.960715E-04
7.147197E+03	7.773174E-03	1.964974E-04
7.157123E+03	7.770910E-03	1.968899E-04
7.167050E+03	7.767536E-03	1.972544E-04
7.176976E+03	7.762684E-03	1.975813E-04
7.186903E+03	7.756476E-03	1.978736E-04
7.196830E+03	7.748459E-03	1.981195E-04
7.206756E+03	7.738549E-03	1.983166E-04
7.216683E+03	7.726515E-03	1.984588E-04
7.226610E+03	7.712250E-03	1.985429E-04
7.236536E+03	7.695388E-03	1.985592E-04
7.246463E+03	7.675717E-03	1.985019E-04
7.256390E+03	7.653058E-03	1.983658E-04
7.266316E+03	7.627408E-03	1.981504E-04
7.276243E+03	7.598678E-03	1.978529E-04
7.286170E+03	7.566701E-03	1.974686E-04
7.296096E+03	7.531638E-03	1.970010E-04
7.306023E+03	7.493570E-03	1.964519E-04
7.315950E+03	7.452636E-03	1.958243E-04
7.325876E+03	7.409025E-03	1.951228E-04
7.335803E+03	7.363102E-03	1.943566E-04
7.345730E+03	7.314999E-03	1.935288E-04
7.355656E+03	7.265009E-03	1.926468E-04
7.365583E+03	7.213696E-03	1.917253E-04
7.375510E+03	7.161099E-03	1.907652E-04
7.385436E+03	7.107771E-03	1.897809E-04
7.395363E+03	7.053848E-03	1.887761E-04
7.405290E+03	6.999438E-03	1.877536E-04
7.415216E+03	6.944742E-03	1.867186E-04
7.425143E+03	6.890053E-03	1.856791E-04
7.435070E+03	6.835235E-03	1.846314E-04
7.444996E+03	6.780371E-03	1.835777E-04
7.454923E+03	6.725641E-03	1.825229E-04
7.464850E+03	6.670808E-03	1.814607E-04
7.474776E+03	6.616123E-03	1.803977E-04
7.484703E+03	6.561316E-03	1.793264E-04
7.494630E+03	6.506353E-03	1.782459E-04
7.504556E+03	6.451436E-03	1.771616E-04
7.514483E+03	6.396147E-03	1.760618E-04
7.524410E+03	6.340556E-03	1.749484E-04
7.534336E+03	6.284731E-03	1.738230E-04
7.544263E+03	6.228374E-03	1.726772E-04
7.554190E+03	6.171674E-03	1.715161E-04
7.564116E+03	6.114344E-03	1.703316E-04
7.574043E+03	6.056343E-03	1.691223E-04
7.583970E+03	5.997881E-03	1.678938E-04
7.593896E+03	5.938746E-03	1.666400E-04
7.603823E+03	5.879023E-03	1.653631E-04
7.613750E+03	5.818928E-03	1.640690E-04
7.623676E+03	5.758450E-03	1.627571E-04
7.633603E+03	5.697800E-03	1.614334E-04
7.643530E+03	5.636962E-03	1.600973E-04
7.653456E+03	5.576027E-03	1.587511E-04
7.663383E+03	5.515187E-03	1.574003E-04
7.673310E+03	5.454408E-03	1.560439E-04
7.683236E+03	5.393863E-03	1.546868E-04
7.693163E+03	5.333395E-03	1.533245E-04
7.703090E+03	5.273266E-03	1.519644E-04
