#wls	flux	fluxerr
1.588266E+03	1.539881E-03	3.850404E-05
1.627973E+03	1.563644E-03	3.897008E-05
1.667679E+03	1.587194E-03	3.942365E-05
1.707386E+03	1.611403E-03	3.988621E-05
1.747092E+03	1.635605E-03	4.034095E-05
1.786799E+03	1.660382E-03	4.080190E-05
1.826506E+03	1.685037E-03	4.125169E-05
1.866212E+03	1.710492E-03	4.171252E-05
1.905919E+03	1.736034E-03	4.216664E-05
1.945626E+03	1.761926E-03	4.262015E-05
1.985332E+03	1.788102E-03	4.307110E-05
2.025039E+03	1.814486E-03	4.351727E-05
2.064746E+03	1.841343E-03	4.396472E-05
2.104452E+03	1.868592E-03	4.441105E-05
2.144159E+03	1.896141E-03	4.485371E-05
2.183866E+03	1.923888E-03	4.528988E-05
2.223572E+03	1.952085E-03	4.572513E-05
2.263279E+03	1.980251E-03	4.614779E-05
2.302986E+03	2.008623E-03	4.656302E-05
2.342692E+03	2.037429E-03	4.697573E-05
2.382399E+03	2.066154E-03	4.737366E-05
2.422105E+03	2.094639E-03	4.775284E-05
2.461812E+03	2.123450E-03	4.812593E-05
2.501519E+03	2.152034E-03	4.847999E-05
2.541225E+03	2.180567E-03	4.881875E-05
2.580932E+03	2.209206E-03	4.914540E-05
2.620639E+03	2.237360E-03	4.944652E-05
2.660345E+03	2.265525E-03	4.973288E-05
2.700052E+03	2.293444E-03	4.999857E-05
2.739759E+03	2.321205E-03	5.024531E-05
2.779465E+03	2.348875E-03	5.047430E-05
2.819172E+03	2.376493E-03	5.068612E-05
2.858879E+03	2.404416E-03	5.088803E-05
2.898585E+03	2.432268E-03	5.107172E-05
2.938292E+03	2.461005E-03	5.125687E-05
2.977999E+03	2.490495E-03	5.143999E-05
2.987925E+03	2.497772E-03	5.148100E-05
2.997852E+03	2.505326E-03	5.152654E-05
3.007779E+03	2.513143E-03	5.157635E-05
3.017705E+03	2.520887E-03	5.162349E-05
3.027632E+03	2.528552E-03	5.166782E-05
3.037559E+03	2.536452E-03	5.171575E-05
3.047485E+03	2.544254E-03	5.176050E-05
3.057412E+03	2.552270E-03	5.180838E-05
3.067339E+03	2.560486E-03	5.185911E-05
3.077265E+03	2.568892E-03	5.191241E-05
3.087192E+03	2.577160E-03	5.196168E-05
3.097118E+03	2.585596E-03	5.201306E-05
3.107045E+03	2.594186E-03	5.206625E-05
3.116972E+03	2.602917E-03	5.212098E-05
3.126898E+03	2.611778E-03	5.217697E-05
3.136825E+03	2.620754E-03	5.223395E-05
3.146752E+03	2.630135E-03	5.229761E-05
3.156678E+03	2.639303E-03	5.235567E-05
3.166605E+03	2.648845E-03	5.241976E-05
3.176532E+03	2.658449E-03	5.248365E-05
3.186458E+03	2.668099E-03	5.254704E-05
3.196385E+03	2.678075E-03	5.261540E-05
3.206312E+03	2.688358E-03	5.268830E-05
3.216238E+03	2.698642E-03	5.275973E-05
3.226165E+03	2.709197E-03	5.283495E-05
3.236092E+03	2.720007E-03	5.291358E-05
3.246018E+03	2.730770E-03	5.298973E-05
3.255945E+03	2.742031E-03	5.307397E-05
3.265872E+03	2.753211E-03	5.315502E-05
3.275798E+03	2.764847E-03	5.324323E-05
3.285725E+03	2.776640E-03	5.333281E-05
3.295652E+03	2.788571E-03	5.342334E-05
3.305578E+03	2.800891E-03	5.351961E-05
3.315505E+03	2.813306E-03	5.361594E-05
3.325432E+03	2.826061E-03	5.371699E-05
3.335358E+03	2.838870E-03	5.381726E-05
3.345285E+03	2.852232E-03	5.392617E-05
3.355212E+03	2.865602E-03	5.403337E-05
3.365138E+03	2.879471E-03	5.414808E-05
3.375065E+03	2.893301E-03	5.426012E-05
3.384992E+03	2.907574E-03	5.437854E-05
3.394918E+03	2.922010E-03	5.449803E-05
3.404845E+03	2.936833E-03	5.462269E-05
3.414772E+03	2.952008E-03	5.475186E-05
3.424698E+03	2.967264E-03	5.488045E-05
3.434625E+03	2.982815E-03	5.501238E-05
3.444552E+03	2.998632E-03	5.514706E-05
3.454478E+03	3.014917E-03	5.528817E-05
3.464405E+03	3.031168E-03	5.542647E-05
3.474332E+03	3.047823E-03	5.556989E-05
3.484258E+03	3.064844E-03	5.571771E-05
3.494185E+03	3.082194E-03	5.586920E-05
3.504112E+03	3.099615E-03	5.601965E-05
3.514038E+03	3.117299E-03	5.617246E-05
3.523965E+03	3.135427E-03	5.633089E-05
3.533892E+03	3.153741E-03	5.649021E-05
3.543818E+03	3.172209E-03	5.664983E-05
3.553745E+03	3.191005E-03	5.681280E-05
3.563672E+03	3.210089E-03	5.697838E-05
3.573598E+03	3.229421E-03	5.714581E-05
3.583525E+03	3.248961E-03	5.731433E-05
3.593452E+03	3.268669E-03	5.748322E-05
3.603378E+03	3.288707E-03	5.765526E-05
3.613305E+03	3.308832E-03	5.782618E-05
3.623232E+03	3.329202E-03	5.799870E-05
3.633158E+03	3.349772E-03	5.817200E-05
3.643085E+03	3.370501E-03	5.834534E-05
3.653012E+03	3.391532E-03	5.852116E-05
3.662938E+03	3.412632E-03	5.869540E-05
3.672865E+03	3.433944E-03	5.887051E-05
3.682792E+03	3.455240E-03	5.904256E-05
3.692718E+03	3.476838E-03	5.921696E-05
3.702645E+03	3.498510E-03	5.938980E-05
3.712572E+03	3.520213E-03	5.956033E-05
3.722498E+03	3.542074E-03	5.973070E-05
3.732425E+03	3.563875E-03	5.989723E-05
3.742352E+03	3.585911E-03	6.006486E-05
3.752278E+03	3.607797E-03	6.022714E-05
3.762205E+03	3.629823E-03	6.038891E-05
3.772131E+03	3.651773E-03	6.054660E-05
3.782058E+03	3.673609E-03	6.069957E-05
3.791985E+03	3.695443E-03	6.084971E-05
3.801911E+03	3.717229E-03	6.099627E-05
3.811838E+03	3.739074E-03	6.114101E-05
3.821765E+03	3.760629E-03	6.127825E-05
3.831691E+03	3.782006E-03	6.140986E-05
3.841618E+03	3.803310E-03	6.153759E-05
3.851545E+03	3.824496E-03	6.166074E-05
3.861471E+03	3.845380E-03	6.177638E-05
3.871398E+03	3.866068E-03	6.188626E-05
3.881325E+03	3.886656E-03	6.199198E-05
3.891251E+03	3.906833E-03	6.208861E-05
3.901178E+03	3.926704E-03	6.217791E-05
3.911105E+03	3.946235E-03	6.225943E-05
3.921031E+03	3.965527E-03	6.233478E-05
3.930958E+03	3.984293E-03	6.239958E-05
3.940885E+03	4.002889E-03	6.245948E-05
3.950811E+03	4.020913E-03	6.250826E-05
3.960738E+03	4.038596E-03	6.254963E-05
3.970665E+03	4.055914E-03	6.258330E-05
3.980591E+03	4.072732E-03	6.260728E-05
3.990518E+03	4.089043E-03	6.262157E-05
4.000445E+03	4.104838E-03	6.262616E-05
4.010371E+03	4.120229E-03	6.262283E-05
4.020298E+03	4.135099E-03	6.260994E-05
4.030225E+03	4.149454E-03	6.258767E-05
4.040151E+03	4.163194E-03	6.255465E-05
4.050078E+03	4.176546E-03	6.251441E-05
4.060005E+03	4.189313E-03	6.246410E-05
4.069931E+03	4.201520E-03	6.240424E-05
4.079858E+03	4.213292E-03	6.233678E-05
4.089785E+03	4.224460E-03	6.225935E-05
4.099711E+03	4.235160E-03	6.217408E-05
4.109638E+03	4.245334E-03	6.208024E-05
4.119565E+03	4.254935E-03	6.197727E-05
4.129491E+03	4.264202E-03	6.186875E-05
4.139418E+03	4.272912E-03	6.175156E-05
4.149345E+03	4.281130E-03	6.162677E-05
4.159271E+03	4.289011E-03	6.149674E-05
4.169198E+03	4.296366E-03	6.135884E-05
4.179125E+03	4.303448E-03	6.121680E-05
4.189051E+03	4.310085E-03	6.106825E-05
4.198978E+03	4.316453E-03	6.091583E-05
4.208905E+03	4.322485E-03	6.075864E-05
4.218831E+03	4.328282E-03	6.059823E-05
4.228758E+03	4.333797E-03	6.043400E-05
4.238685E+03	4.339145E-03	6.026763E-05
4.248611E+03	4.344372E-03	6.009984E-05
4.258538E+03	4.349453E-03	5.993036E-05
4.268465E+03	4.354450E-03	5.976008E-05
4.278391E+03	4.359430E-03	5.959001E-05
4.288318E+03	4.364466E-03	5.942114E-05
4.298245E+03	4.369495E-03	5.925270E-05
4.308171E+03	4.374739E-03	5.908773E-05
4.318098E+03	4.380078E-03	5.892461E-05
4.328025E+03	4.385736E-03	5.876637E-05
4.337951E+03	4.391527E-03	5.861056E-05
4.347878E+03	4.397671E-03	5.846011E-05
4.357805E+03	4.404178E-03	5.831515E-05
4.367731E+03	4.411050E-03	5.817572E-05
4.377658E+03	4.418279E-03	5.804168E-05
4.387585E+03	4.425907E-03	5.791362E-05
4.397511E+03	4.433960E-03	5.779184E-05
4.407438E+03	4.442444E-03	5.767642E-05
4.417365E+03	4.451347E-03	5.756721E-05
4.427291E+03	4.460580E-03	5.746306E-05
4.437218E+03	4.470229E-03	5.736504E-05
4.447144E+03	4.480178E-03	5.727165E-05
4.457071E+03	4.490427E-03	5.718289E-05
4.466998E+03	4.501026E-03	5.709938E-05
4.476924E+03	4.511900E-03	5.702016E-05
4.486851E+03	4.523149E-03	5.694648E-05
4.496778E+03	4.534750E-03	5.687804E-05
4.506704E+03	4.546675E-03	5.681450E-05
4.516631E+03	4.558958E-03	5.675626E-05
4.526558E+03	4.571690E-03	5.670446E-05
4.536484E+03	4.584844E-03	5.665872E-05
4.546411E+03	4.598507E-03	5.662012E-05
4.556338E+03	4.612653E-03	5.658834E-05
4.566264E+03	4.627314E-03	5.656372E-05
4.576191E+03	4.642633E-03	5.654801E-05
4.586118E+03	4.658527E-03	5.654017E-05
4.596044E+03	4.675080E-03	5.654119E-05
4.605971E+03	4.692379E-03	5.655208E-05
4.615898E+03	4.710388E-03	5.657242E-05
4.625824E+03	4.729135E-03	5.660246E-05
4.635751E+03	4.748752E-03	5.664378E-05
4.645678E+03	4.769143E-03	5.669520E-05
4.655604E+03	4.790379E-03	5.675754E-05
4.665531E+03	4.812471E-03	5.683089E-05
4.675458E+03	4.835425E-03	5.691530E-05
4.685384E+03	4.859186E-03	5.701011E-05
4.695311E+03	4.883868E-03	5.711664E-05
4.705238E+03	4.909348E-03	5.723343E-05
4.715164E+03	4.935559E-03	5.735971E-05
4.725091E+03	4.962546E-03	5.749601E-05
4.735018E+03	4.990176E-03	5.764079E-05
4.744944E+03	5.018430E-03	5.779388E-05
4.754871E+03	5.047291E-03	5.795510E-05
4.764798E+03	5.076682E-03	5.812361E-05
4.774724E+03	5.106526E-03	5.829861E-05
4.784651E+03	5.136875E-03	5.848070E-05
4.794578E+03	5.167543E-03	5.866787E-05
4.804504E+03	5.198592E-03	5.886089E-05
4.814431E+03	5.229914E-03	5.905861E-05
4.824358E+03	5.261465E-03	5.926065E-05
4.834284E+03	5.293262E-03	5.946726E-05
4.844211E+03	5.325127E-03	5.967657E-05
4.854138E+03	5.357079E-03	5.988890E-05
4.864064E+03	5.389083E-03	6.010397E-05
4.873991E+03	5.420982E-03	6.032015E-05
4.883918E+03	5.452873E-03	6.053864E-05
4.893844E+03	5.484666E-03	6.075853E-05
4.903771E+03	5.516335E-03	6.097958E-05
4.913698E+03	5.547789E-03	6.120086E-05
4.923624E+03	5.578997E-03	6.142206E-05
4.933551E+03	5.609985E-03	6.164356E-05
4.943478E+03	5.640590E-03	6.186363E-05
4.953404E+03	5.670895E-03	6.208324E-05
4.963331E+03	5.700727E-03	6.230059E-05
4.973258E+03	5.730039E-03	6.251520E-05
4.983184E+03	5.758843E-03	6.272729E-05
4.993111E+03	5.787021E-03	6.293567E-05
5.003038E+03	5.814591E-03	6.314057E-05
5.012964E+03	5.841434E-03	6.334080E-05
5.022891E+03	5.867508E-03	6.353596E-05
5.032818E+03	5.892767E-03	6.372562E-05
5.042744E+03	5.917173E-03	6.390946E-05
5.052671E+03	5.940756E-03	6.408787E-05
5.062598E+03	5.963361E-03	6.425922E-05
5.072524E+03	5.985094E-03	6.442473E-05
5.082451E+03	6.005812E-03	6.458292E-05
5.092378E+03	6.025633E-03	6.473512E-05
5.102304E+03	6.044488E-03	6.488064E-05
5.112231E+03	6.062379E-03	6.501956E-05
5.122158E+03	6.079312E-03	6.515197E-05
5.132084E+03	6.095295E-03	6.527803E-05
5.142011E+03	6.110406E-03	6.539859E-05
5.151937E+03	6.124528E-03	6.551244E-05
5.161864E+03	6.137809E-03	6.562120E-05
5.171791E+03	6.150200E-03	6.572437E-05
5.181717E+03	6.161715E-03	6.582214E-05
5.191644E+03	6.172438E-03	6.591541E-05
5.201571E+03	6.182250E-03	6.600294E-05
5.211497E+03	6.191294E-03	6.608627E-05
5.221424E+03	6.199515E-03	6.616484E-05
5.231351E+03	6.206982E-03	6.623938E-05
5.241277E+03	6.213569E-03	6.630856E-05
5.251204E+03	6.219405E-03	6.637377E-05
5.261131E+03	6.224417E-03	6.643423E-05
5.271057E+03	6.228661E-03	6.649054E-05
5.280984E+03	6.231991E-03	6.654113E-05
5.290911E+03	6.234512E-03	6.658714E-05
5.300837E+03	6.236131E-03	6.662755E-05
5.310764E+03	6.236814E-03	6.666199E-05
5.320691E+03	6.236581E-03	6.669065E-05
5.330617E+03	6.235250E-03	6.671160E-05
5.340544E+03	6.232891E-03	6.672553E-05
5.350471E+03	6.229309E-03	6.673032E-05
5.360397E+03	6.224553E-03	6.672648E-05
5.370324E+03	6.218484E-03	6.671237E-05
5.380251E+03	6.210963E-03	6.668636E-05
5.390177E+03	6.202036E-03	6.664884E-05
5.400104E+03	6.191498E-03	6.659745E-05
5.410031E+03	6.179339E-03	6.653194E-05
5.419957E+03	6.165488E-03	6.645139E-05
5.429884E+03	6.149826E-03	6.635434E-05
5.439811E+03	6.132370E-03	6.624084E-05
5.449737E+03	6.113031E-03	6.610973E-05
5.459664E+03	6.091804E-03	6.596078E-05
5.469591E+03	6.068642E-03	6.579331E-05
5.479517E+03	6.043588E-03	6.560758E-05
5.489444E+03	6.016770E-03	6.540481E-05
5.499371E+03	5.988279E-03	6.518579E-05
5.509297E+03	5.958296E-03	6.495233E-05
5.519224E+03	5.926907E-03	6.470515E-05
5.529151E+03	5.894399E-03	6.444726E-05
5.539077E+03	5.860850E-03	6.417932E-05
5.549004E+03	5.826591E-03	6.390480E-05
5.558931E+03	5.791855E-03	6.362614E-05
5.568857E+03	5.756774E-03	6.334465E-05
5.578784E+03	5.721723E-03	6.306437E-05
5.588711E+03	5.686968E-03	6.278810E-05
5.598637E+03	5.652722E-03	6.251815E-05
5.608564E+03	5.619254E-03	6.225744E-05
5.618491E+03	5.586882E-03	6.200944E-05
5.628417E+03	5.555803E-03	6.177635E-05
5.638344E+03	5.526309E-03	6.156138E-05
5.648271E+03	5.498510E-03	6.136582E-05
5.658197E+03	5.472710E-03	6.119308E-05
5.668124E+03	5.449080E-03	6.104514E-05
5.678051E+03	5.427703E-03	6.092301E-05
5.687977E+03	5.408690E-03	6.082801E-05
5.697904E+03	5.392111E-03	6.076105E-05
5.707831E+03	5.378006E-03	6.072267E-05
5.717757E+03	5.366371E-03	6.071296E-05
5.727684E+03	5.357221E-03	6.073220E-05
5.737611E+03	5.350375E-03	6.077848E-05
5.747537E+03	5.345770E-03	6.085118E-05
5.757464E+03	5.343254E-03	6.094870E-05
5.767391E+03	5.342643E-03	6.106905E-05
5.777317E+03	5.343668E-03	6.120925E-05
5.787244E+03	5.346134E-03	6.136717E-05
5.797171E+03	5.349769E-03	6.153974E-05
5.807097E+03	5.354180E-03	6.172249E-05
5.817024E+03	5.359160E-03	6.191307E-05
5.826950E+03	5.364339E-03	6.210723E-05
5.836877E+03	5.369391E-03	6.230116E-05
5.846804E+03	5.373992E-03	6.249108E-05
5.856730E+03	5.377821E-03	6.267318E-05
5.866657E+03	5.380519E-03	6.284320E-05
5.876584E+03	5.381792E-03	6.299760E-05
5.886510E+03	5.381422E-03	6.313369E-05
5.896437E+03	5.379111E-03	6.324781E-05
5.906364E+03	5.374591E-03	6.333665E-05
5.916290E+03	5.367733E-03	6.339847E-05
5.926217E+03	5.358334E-03	6.343069E-05
5.936144E+03	5.346284E-03	6.343178E-05
5.946070E+03	5.331512E-03	6.340064E-05
5.955997E+03	5.313976E-03	6.333657E-05
5.965924E+03	5.293630E-03	6.323875E-05
5.975850E+03	5.270456E-03	6.310672E-05
5.985777E+03	5.244573E-03	6.294168E-05
5.995704E+03	5.216082E-03	6.274456E-05
6.005630E+03	5.185004E-03	6.251542E-05
6.015557E+03	5.151543E-03	6.225647E-05
6.025484E+03	5.115768E-03	6.196833E-05
6.035410E+03	5.077919E-03	6.165371E-05
6.045337E+03	5.038147E-03	6.131424E-05
6.055264E+03	4.996665E-03	6.095233E-05
6.065190E+03	4.953646E-03	6.056995E-05
6.075117E+03	4.909267E-03	6.016910E-05
6.085044E+03	4.863755E-03	5.975245E-05
6.094970E+03	4.817339E-03	5.932268E-05
6.104897E+03	4.770241E-03	5.888240E-05
6.114824E+03	4.722635E-03	5.843368E-05
6.124750E+03	4.674783E-03	5.797962E-05
6.134677E+03	4.626891E-03	5.752277E-05
6.144604E+03	4.579204E-03	5.706608E-05
6.154530E+03	4.531909E-03	5.661189E-05
6.164457E+03	4.485140E-03	5.616187E-05
6.174384E+03	4.439145E-03	5.571911E-05
6.184310E+03	4.394026E-03	5.528496E-05
6.194237E+03	4.349924E-03	5.486121E-05
6.204164E+03	4.307086E-03	5.445106E-05
6.214090E+03	4.265539E-03	5.405491E-05
6.224017E+03	4.225418E-03	5.367459E-05
6.233944E+03	4.186846E-03	5.331173E-05
6.243870E+03	4.149969E-03	5.296834E-05
6.253797E+03	4.114756E-03	5.264413E-05
6.263724E+03	4.081280E-03	5.234017E-05
6.273650E+03	4.049640E-03	5.205787E-05
6.283577E+03	4.019797E-03	5.179686E-05
6.293504E+03	3.991817E-03	5.155816E-05
6.303430E+03	3.965594E-03	5.134051E-05
6.313357E+03	3.941164E-03	5.114456E-05
6.323284E+03	3.918472E-03	5.096972E-05
6.333210E+03	3.897489E-03	5.081575E-05
6.343137E+03	3.878096E-03	5.068126E-05
6.353064E+03	3.860245E-03	5.056572E-05
6.362990E+03	3.843874E-03	5.046846E-05
6.372917E+03	3.828841E-03	5.038773E-05
6.382844E+03	3.815033E-03	5.032215E-05
6.392770E+03	3.802414E-03	5.027134E-05
6.402697E+03	3.790825E-03	5.023330E-05
6.412624E+03	3.780186E-03	5.020703E-05
6.422550E+03	3.770376E-03	5.019102E-05
6.432477E+03	3.761276E-03	5.018373E-05
6.442404E+03	3.752809E-03	5.018418E-05
6.452330E+03	3.744784E-03	5.018989E-05
6.462257E+03	3.737211E-03	5.020099E-05
6.472184E+03	3.729908E-03	5.021509E-05
6.482110E+03	3.722819E-03	5.023144E-05
6.492037E+03	3.715856E-03	5.024885E-05
6.501963E+03	3.708895E-03	5.026566E-05
6.511890E+03	3.701903E-03	5.028143E-05
6.521817E+03	3.694772E-03	5.029466E-05
6.531743E+03	3.687488E-03	5.030514E-05
6.541670E+03	3.679997E-03	5.031213E-05
6.551597E+03	3.672260E-03	5.031507E-05
6.561523E+03	3.664203E-03	5.031292E-05
6.571450E+03	3.655880E-03	5.030638E-05
6.581377E+03	3.647236E-03	5.029468E-05
6.591303E+03	3.638259E-03	5.027762E-05
6.601230E+03	3.628949E-03	5.025517E-05
6.611157E+03	3.619354E-03	5.022795E-05
6.621083E+03	3.609443E-03	5.019554E-05
6.631010E+03	3.599279E-03	5.015878E-05
6.640937E+03	3.588890E-03	5.011803E-05
6.650863E+03	3.578267E-03	5.007315E-05
6.660790E+03	3.567493E-03	5.002528E-05
6.670717E+03	3.556610E-03	4.997502E-05
6.680643E+03	3.545632E-03	4.992253E-05
6.690570E+03	3.534690E-03	4.986970E-05
6.700497E+03	3.523766E-03	4.981623E-05
6.710423E+03	3.512961E-03	4.976360E-05
6.720350E+03	3.502380E-03	4.971330E-05
6.730277E+03	3.492011E-03	4.966518E-05
6.740203E+03	3.481959E-03	4.962077E-05
6.750130E+03	3.472296E-03	4.958112E-05
6.760057E+03	3.463088E-03	4.954722E-05
6.769983E+03	3.454403E-03	4.952009E-05
6.779910E+03	3.446304E-03	4.950069E-05
6.789837E+03	3.438857E-03	4.949000E-05
6.799763E+03	3.432158E-03	4.948951E-05
6.809690E+03	3.426183E-03	4.949892E-05
6.819617E+03	3.421025E-03	4.951963E-05
6.829543E+03	3.416766E-03	4.955295E-05
6.839470E+03	3.413366E-03	4.959833E-05
6.849397E+03	3.410940E-03	4.965756E-05
6.859323E+03	3.409433E-03	4.972990E-05
6.869250E+03	3.408947E-03	4.981694E-05
6.879177E+03	3.409452E-03	4.991835E-05
6.889103E+03	3.410952E-03	5.003427E-05
6.899030E+03	3.413405E-03	5.016415E-05
6.908957E+03	3.416882E-03	5.030915E-05
6.918883E+03	3.421363E-03	5.046907E-05
6.928810E+03	3.426742E-03	5.064243E-05
6.938737E+03	3.433026E-03	5.082940E-05
6.948663E+03	3.440173E-03	5.102948E-05
6.958590E+03	3.448180E-03	5.124268E-05
6.968517E+03	3.456906E-03	5.146700E-05
6.978443E+03	3.466378E-03	5.170289E-05
6.988370E+03	3.476487E-03	5.194883E-05
6.998297E+03	3.487121E-03	5.220318E-05
7.008223E+03	3.498288E-03	5.246613E-05
7.018150E+03	3.509869E-03	5.273594E-05
7.028077E+03	3.521780E-03	5.301140E-05
7.038003E+03	3.533937E-03	5.329129E-05
7.047930E+03	3.546252E-03	5.357430E-05
7.057857E+03	3.558637E-03	5.385916E-05
7.067783E+03	3.571046E-03	5.414516E-05
7.077710E+03	3.583301E-03	5.442963E-05
7.087637E+03	3.595353E-03	5.471184E-05
7.097563E+03	3.607160E-03	5.499112E-05
7.107490E+03	3.618585E-03	5.526540E-05
7.117417E+03	3.629539E-03	5.553332E-05
7.127343E+03	3.639935E-03	5.579349E-05
7.137270E+03	3.649686E-03	5.604457E-05
7.147197E+03	3.658754E-03	5.628592E-05
7.157123E+03	3.666963E-03	5.651483E-05
7.167050E+03	3.674329E-03	5.673144E-05
7.176976E+03	3.680724E-03	5.693378E-05
7.186903E+03	3.686124E-03	5.712137E-05
7.196830E+03	3.690410E-03	5.729232E-05
7.206756E+03	3.693514E-03	5.744551E-05
7.216683E+03	3.695423E-03	5.758062E-05
7.226610E+03	3.696029E-03	5.769593E-05
7.236536E+03	3.695282E-03	5.779052E-05
7.246463E+03	3.693181E-03	5.786430E-05
7.256390E+03	3.689687E-03	5.791655E-05
7.266316E+03	3.684717E-03	5.794588E-05
7.276243E+03	3.678292E-03	5.795251E-05
7.286170E+03	3.670347E-03	5.793530E-05
7.296096E+03	3.660917E-03	5.789466E-05
7.306023E+03	3.650000E-03	5.783047E-05
7.315950E+03	3.637553E-03	5.774194E-05
7.325876E+03	3.623636E-03	5.762988E-05
7.335803E+03	3.608273E-03	5.749455E-05
7.345730E+03	3.591443E-03	5.733552E-05
7.355656E+03	3.573229E-03	5.715399E-05
7.365583E+03	3.553725E-03	5.695134E-05
7.375510E+03	3.532930E-03	5.672743E-05
7.385436E+03	3.510898E-03	5.648305E-05
7.395363E+03	3.487736E-03	5.621980E-05
7.405290E+03	3.463460E-03	5.593784E-05
7.415216E+03	3.438089E-03	5.563738E-05
7.425143E+03	3.411782E-03	5.532089E-05
7.435070E+03	3.384474E-03	5.498723E-05
7.444996E+03	3.356325E-03	5.463890E-05
7.454923E+03	3.327360E-03	5.427624E-05
7.464850E+03	3.297693E-03	5.390104E-05
7.474776E+03	3.267304E-03	5.351286E-05
7.484703E+03	3.236349E-03	5.311421E-05
7.494630E+03	3.204848E-03	5.270529E-05
7.504556E+03	3.172823E-03	5.228639E-05
7.514483E+03	3.140418E-03	5.185980E-05
7.524410E+03	3.107610E-03	5.142506E-05
7.534336E+03	3.074496E-03	5.098368E-05
7.544263E+03	3.041133E-03	5.053655E-05
7.554190E+03	3.007574E-03	5.008448E-05
7.564116E+03	2.973831E-03	4.962764E-05
7.574043E+03	2.939957E-03	4.916685E-05
7.583970E+03	2.906084E-03	4.870426E-05
7.593896E+03	2.872141E-03	4.823863E-05
7.603823E+03	2.838249E-03	4.777200E-05
7.613750E+03	2.804448E-03	4.730499E-05
7.623676E+03	2.770742E-03	4.683764E-05
7.633603E+03	2.737170E-03	4.637061E-05
7.643530E+03	2.703810E-03	4.590517E-05
7.653456E+03	2.670660E-03	4.544132E-05
7.663383E+03	2.637759E-03	4.497970E-05
7.673310E+03	2.605173E-03	4.452144E-05
7.683236E+03	2.572899E-03	4.406650E-05
7.693163E+03	2.541001E-03	4.361598E-05
7.703090E+03	2.509469E-03	4.316971E-05
