#wls	flux	fluxerr
1.588266E+03	1.468190E-03	5.749468E-05
1.627973E+03	1.492064E-03	5.832211E-05
1.667679E+03	1.516070E-03	5.914850E-05
1.707386E+03	1.540454E-03	5.998318E-05
1.747092E+03	1.565173E-03	6.082427E-05
1.786799E+03	1.590178E-03	6.166959E-05
1.826506E+03	1.615419E-03	6.251689E-05
1.866212E+03	1.641153E-03	6.337580E-05
1.905919E+03	1.667325E-03	6.424395E-05
1.945626E+03	1.693552E-03	6.510627E-05
1.985332E+03	1.720415E-03	6.598474E-05
2.025039E+03	1.747516E-03	6.686377E-05
2.064746E+03	1.775110E-03	6.775279E-05
2.104452E+03	1.802778E-03	6.863544E-05
2.144159E+03	1.830762E-03	6.952066E-05
2.183866E+03	1.859309E-03	7.041744E-05
2.223572E+03	1.887969E-03	7.130838E-05
2.263279E+03	1.916974E-03	7.220185E-05
2.302986E+03	1.945846E-03	7.307960E-05
2.342692E+03	1.975507E-03	7.397587E-05
2.382399E+03	2.004754E-03	7.484521E-05
2.422105E+03	2.034489E-03	7.572107E-05
2.461812E+03	2.064192E-03	7.658368E-05
2.501519E+03	2.094037E-03	7.743917E-05
2.541225E+03	2.123828E-03	7.828001E-05
2.580932E+03	2.153711E-03	7.911128E-05
2.620639E+03	2.183816E-03	7.993742E-05
2.660345E+03	2.213549E-03	8.073633E-05
2.700052E+03	2.243353E-03	8.152403E-05
2.739759E+03	2.273649E-03	8.231535E-05
2.779465E+03	2.303777E-03	8.308609E-05
2.819172E+03	2.334104E-03	8.384914E-05
2.858879E+03	2.364949E-03	8.461552E-05
2.898585E+03	2.396247E-03	8.538243E-05
2.938292E+03	2.427902E-03	8.614599E-05
2.977999E+03	2.460744E-03	8.693501E-05
2.987925E+03	2.469147E-03	8.713641E-05
2.997852E+03	2.477799E-03	8.734551E-05
3.007779E+03	2.486375E-03	8.755078E-05
3.017705E+03	2.494864E-03	8.775191E-05
3.027632E+03	2.503575E-03	8.795970E-05
3.037559E+03	2.512182E-03	8.816274E-05
3.047485E+03	2.521299E-03	8.838252E-05
3.057412E+03	2.530293E-03	8.859679E-05
3.067339E+03	2.539153E-03	8.880524E-05
3.077265E+03	2.548486E-03	8.902905E-05
3.087192E+03	2.557665E-03	8.924628E-05
3.097118E+03	2.567287E-03	8.947772E-05
3.107045E+03	2.576735E-03	8.970189E-05
3.116972E+03	2.586298E-03	8.992883E-05
3.126898E+03	2.596260E-03	9.016838E-05
3.136825E+03	2.606015E-03	9.039946E-05
3.146752E+03	2.616140E-03	9.064212E-05
3.156678E+03	2.626326E-03	9.088555E-05
3.166605E+03	2.636560E-03	9.112934E-05
3.176532E+03	2.647116E-03	9.138291E-05
3.186458E+03	2.657975E-03	9.164559E-05
3.196385E+03	2.668553E-03	9.189720E-05
3.206312E+03	2.679686E-03	9.216652E-05
3.216238E+03	2.690790E-03	9.243345E-05
3.226165E+03	2.702131E-03	9.270705E-05
3.236092E+03	2.713688E-03	9.298662E-05
3.246018E+03	2.725444E-03	9.327152E-05
3.255945E+03	2.737378E-03	9.356104E-05
3.265872E+03	2.749473E-03	9.385451E-05
3.275798E+03	2.761709E-03	9.415126E-05
3.285725E+03	2.774068E-03	9.445062E-05
3.295652E+03	2.786793E-03	9.476086E-05
3.305578E+03	2.799858E-03	9.508108E-05
3.315505E+03	2.812982E-03	9.540161E-05
3.325432E+03	2.826144E-03	9.572179E-05
3.335358E+03	2.839835E-03	9.605821E-05
3.345285E+03	2.853519E-03	9.639267E-05
3.355212E+03	2.867427E-03	9.673296E-05
3.365138E+03	2.881784E-03	9.708663E-05
3.375065E+03	2.896065E-03	9.743596E-05
3.384992E+03	2.910741E-03	9.779676E-05
3.394918E+03	2.925779E-03	9.816787E-05
3.404845E+03	2.940910E-03	9.854026E-05
3.414772E+03	2.956111E-03	9.891306E-05
3.424698E+03	2.971827E-03	9.930118E-05
3.434625E+03	2.987555E-03	9.968774E-05
3.444552E+03	3.003732E-03	1.000873E-04
3.454478E+03	3.019867E-03	1.004835E-04
3.464405E+03	3.036387E-03	1.008904E-04
3.474332E+03	3.053256E-03	1.013069E-04
3.484258E+03	3.070218E-03	1.017244E-04
3.494185E+03	3.087462E-03	1.021491E-04
3.504112E+03	3.104954E-03	1.025798E-04
3.514038E+03	3.122657E-03	1.030154E-04
3.523965E+03	3.140540E-03	1.034547E-04
3.533892E+03	3.158566E-03	1.038965E-04
3.543818E+03	3.176910E-03	1.043464E-04
3.553745E+03	3.195327E-03	1.047966E-04
3.563672E+03	3.214190E-03	1.052590E-04
3.573598E+03	3.233052E-03	1.057191E-04
3.583525E+03	3.252080E-03	1.061822E-04
3.593452E+03	3.271432E-03	1.066536E-04
3.603378E+03	3.290870E-03	1.071254E-04
3.613305E+03	3.310550E-03	1.076026E-04
3.623232E+03	3.330239E-03	1.080777E-04
3.633158E+03	3.350277E-03	1.085617E-04
3.643085E+03	3.370245E-03	1.090409E-04
3.653012E+03	3.390476E-03	1.095261E-04
3.662938E+03	3.410922E-03	1.100158E-04
3.672865E+03	3.431183E-03	1.104970E-04
3.682792E+03	3.451754E-03	1.109856E-04
3.692718E+03	3.472413E-03	1.114745E-04
3.702645E+03	3.493116E-03	1.119622E-04
3.712572E+03	3.513821E-03	1.124475E-04
3.722498E+03	3.534488E-03	1.129289E-04
3.732425E+03	3.555408E-03	1.134159E-04
3.742352E+03	3.576204E-03	1.138963E-04
3.752278E+03	3.596999E-03	1.143740E-04
3.762205E+03	3.617751E-03	1.148478E-04
3.772131E+03	3.638418E-03	1.153163E-04
3.782058E+03	3.659116E-03	1.157833E-04
3.791985E+03	3.679648E-03	1.162424E-04
3.801911E+03	3.700275E-03	1.167019E-04
3.811838E+03	3.720658E-03	1.171512E-04
3.821765E+03	3.740905E-03	1.175936E-04
3.831691E+03	3.760979E-03	1.180281E-04
3.841618E+03	3.780846E-03	1.184535E-04
3.851545E+03	3.800606E-03	1.188732E-04
3.861471E+03	3.820087E-03	1.192816E-04
3.871398E+03	3.839392E-03	1.196821E-04
3.881325E+03	3.858485E-03	1.200735E-04
3.891251E+03	3.877204E-03	1.204509E-04
3.901178E+03	3.895651E-03	1.208176E-04
3.911105E+03	3.913927E-03	1.211766E-04
3.921031E+03	3.931750E-03	1.215193E-04
3.930958E+03	3.949224E-03	1.218490E-04
3.940885E+03	3.966329E-03	1.221650E-04
3.950811E+03	3.983046E-03	1.224670E-04
3.960738E+03	3.999476E-03	1.227581E-04
3.970665E+03	4.015368E-03	1.230306E-04
3.980591E+03	4.030945E-03	1.232915E-04
3.990518E+03	4.045969E-03	1.235334E-04
4.000445E+03	4.060551E-03	1.237601E-04
4.010371E+03	4.074796E-03	1.239746E-04
4.020298E+03	4.088487E-03	1.241704E-04
4.030225E+03	4.101629E-03	1.243479E-04
4.040151E+03	4.114338E-03	1.245106E-04
4.050078E+03	4.126623E-03	1.246589E-04
4.060005E+03	4.138295E-03	1.247872E-04
4.069931E+03	4.149574E-03	1.249021E-04
4.079858E+03	4.160286E-03	1.249986E-04
4.089785E+03	4.170553E-03	1.250804E-04
4.099711E+03	4.180310E-03	1.251456E-04
4.109638E+03	4.189500E-03	1.251927E-04
4.119565E+03	4.198346E-03	1.252284E-04
4.129491E+03	4.206617E-03	1.252458E-04
4.139418E+03	4.214453E-03	1.252493E-04
4.149345E+03	4.221903E-03	1.252404E-04
4.159271E+03	4.228937E-03	1.252183E-04
4.169198E+03	4.235530E-03	1.251823E-04
4.179125E+03	4.241749E-03	1.251346E-04
4.189051E+03	4.247585E-03	1.250748E-04
4.198978E+03	4.253114E-03	1.250053E-04
4.208905E+03	4.258338E-03	1.249263E-04
4.218831E+03	4.263347E-03	1.248405E-04
4.228758E+03	4.268080E-03	1.247460E-04
4.238685E+03	4.272639E-03	1.246461E-04
4.248611E+03	4.277061E-03	1.245417E-04
4.258538E+03	4.281461E-03	1.244362E-04
4.268465E+03	4.285819E-03	1.243292E-04
4.278391E+03	4.290198E-03	1.242224E-04
4.288318E+03	4.294674E-03	1.241182E-04
4.298245E+03	4.299331E-03	1.240188E-04
4.308171E+03	4.304196E-03	1.239251E-04
4.318098E+03	4.309382E-03	1.238402E-04
4.328025E+03	4.314935E-03	1.237656E-04
4.337951E+03	4.320920E-03	1.237030E-04
4.347878E+03	4.327469E-03	1.236561E-04
4.357805E+03	4.334457E-03	1.236213E-04
4.367731E+03	4.342074E-03	1.236040E-04
4.377658E+03	4.350239E-03	1.236018E-04
4.387585E+03	4.358846E-03	1.236116E-04
4.397511E+03	4.367878E-03	1.236328E-04
4.407438E+03	4.377201E-03	1.236617E-04
4.417365E+03	4.386589E-03	1.236919E-04
4.427291E+03	4.396090E-03	1.237247E-04
4.437218E+03	4.405610E-03	1.237575E-04
4.447144E+03	4.415281E-03	1.237940E-04
4.457071E+03	4.425045E-03	1.238326E-04
4.466998E+03	4.435019E-03	1.238765E-04
4.476924E+03	4.445201E-03	1.239257E-04
4.486851E+03	4.455653E-03	1.239818E-04
4.496778E+03	4.466317E-03	1.240434E-04
4.506704E+03	4.477377E-03	1.241153E-04
4.516631E+03	4.488725E-03	1.241947E-04
4.526558E+03	4.500377E-03	1.242819E-04
4.536484E+03	4.512463E-03	1.243804E-04
4.546411E+03	4.524946E-03	1.244893E-04
4.556338E+03	4.537847E-03	1.246091E-04
4.566264E+03	4.551189E-03	1.247403E-04
4.576191E+03	4.564993E-03	1.248835E-04
4.586118E+03	4.579228E-03	1.250378E-04
4.596044E+03	4.593975E-03	1.252053E-04
4.605971E+03	4.609258E-03	1.253867E-04
4.615898E+03	4.625097E-03	1.255824E-04
4.625824E+03	4.641460E-03	1.257916E-04
4.635751E+03	4.658367E-03	1.260147E-04
4.645678E+03	4.675892E-03	1.262536E-04
4.655604E+03	4.693941E-03	1.265059E-04
4.665531E+03	4.712644E-03	1.267748E-04
4.675458E+03	4.731958E-03	1.270592E-04
4.685384E+03	4.751896E-03	1.273595E-04
4.695311E+03	4.772473E-03	1.276759E-04
4.705238E+03	4.793642E-03	1.280071E-04
4.715164E+03	4.815414E-03	1.283534E-04
4.725091E+03	4.837747E-03	1.287136E-04
4.735018E+03	4.860710E-03	1.290895E-04
4.744944E+03	4.884204E-03	1.294784E-04
4.754871E+03	4.908302E-03	1.298822E-04
4.764798E+03	4.932913E-03	1.302986E-04
4.774724E+03	4.957999E-03	1.307263E-04
4.784651E+03	4.983645E-03	1.311678E-04
4.794578E+03	5.009764E-03	1.316206E-04
4.804504E+03	5.036387E-03	1.320855E-04
4.814431E+03	5.063370E-03	1.325588E-04
4.824358E+03	5.090737E-03	1.330412E-04
4.834284E+03	5.118450E-03	1.335314E-04
4.844211E+03	5.146397E-03	1.340268E-04
4.854138E+03	5.174585E-03	1.345275E-04
4.864064E+03	5.202842E-03	1.350291E-04
4.873991E+03	5.231173E-03	1.355317E-04
4.883918E+03	5.259467E-03	1.360325E-04
4.893844E+03	5.287733E-03	1.365317E-04
4.903771E+03	5.315805E-03	1.370253E-04
4.913698E+03	5.343696E-03	1.375134E-04
4.923624E+03	5.371364E-03	1.379952E-04
4.933551E+03	5.398707E-03	1.384681E-04
4.943478E+03	5.425745E-03	1.389326E-04
4.953404E+03	5.452319E-03	1.393849E-04
4.963331E+03	5.478512E-03	1.398270E-04
4.973258E+03	5.504166E-03	1.402550E-04
4.983184E+03	5.529306E-03	1.406698E-04
4.993111E+03	5.553896E-03	1.410705E-04
5.003038E+03	5.577905E-03	1.414563E-04
5.012964E+03	5.601301E-03	1.418267E-04
5.022891E+03	5.623990E-03	1.421793E-04
5.032818E+03	5.646009E-03	1.425152E-04
5.042744E+03	5.667269E-03	1.428323E-04
5.052671E+03	5.687868E-03	1.431332E-04
5.062598E+03	5.707663E-03	1.434143E-04
5.072524E+03	5.726636E-03	1.436754E-04
5.082451E+03	5.744892E-03	1.439193E-04
5.092378E+03	5.762297E-03	1.441427E-04
5.102304E+03	5.778837E-03	1.443453E-04
5.112231E+03	5.794628E-03	1.445303E-04
5.122158E+03	5.809600E-03	1.446959E-04
5.132084E+03	5.823686E-03	1.448406E-04
5.142011E+03	5.836944E-03	1.449661E-04
5.151937E+03	5.849432E-03	1.450739E-04
5.161864E+03	5.861024E-03	1.451609E-04
5.171791E+03	5.871778E-03	1.452288E-04
5.181717E+03	5.881755E-03	1.452791E-04
5.191644E+03	5.890827E-03	1.453089E-04
5.201571E+03	5.899113E-03	1.453211E-04
5.211497E+03	5.906545E-03	1.453142E-04
5.221424E+03	5.913116E-03	1.452882E-04
5.231351E+03	5.918815E-03	1.452429E-04
5.241277E+03	5.923631E-03	1.451781E-04
5.251204E+03	5.927611E-03	1.450951E-04
5.261131E+03	5.930674E-03	1.449921E-04
5.271057E+03	5.932797E-03	1.448685E-04
5.280984E+03	5.933959E-03	1.447240E-04
5.290911E+03	5.934189E-03	1.445594E-04
5.300837E+03	5.933396E-03	1.443726E-04
5.310764E+03	5.931544E-03	1.441629E-04
5.320691E+03	5.928595E-03	1.439293E-04
5.330617E+03	5.924569E-03	1.436726E-04
5.340544E+03	5.919302E-03	1.433889E-04
5.350471E+03	5.912874E-03	1.430801E-04
5.360397E+03	5.905182E-03	1.427440E-04
5.370324E+03	5.896195E-03	1.423797E-04
5.380251E+03	5.885894E-03	1.419870E-04
5.390177E+03	5.874268E-03	1.415655E-04
5.400104E+03	5.861251E-03	1.411137E-04
5.410031E+03	5.846959E-03	1.406346E-04
5.419957E+03	5.831278E-03	1.401253E-04
5.429884E+03	5.814221E-03	1.395862E-04
5.439811E+03	5.795926E-03	1.390207E-04
5.449737E+03	5.776245E-03	1.384253E-04
5.459664E+03	5.755336E-03	1.378038E-04
5.469591E+03	5.733250E-03	1.371574E-04
5.479517E+03	5.709991E-03	1.364862E-04
5.489444E+03	5.685635E-03	1.357920E-04
5.499371E+03	5.660323E-03	1.350783E-04
5.509297E+03	5.634100E-03	1.343460E-04
5.519224E+03	5.607186E-03	1.336005E-04
5.529151E+03	5.579591E-03	1.328420E-04
5.539077E+03	5.551501E-03	1.320748E-04
5.549004E+03	5.523054E-03	1.313022E-04
5.558931E+03	5.494397E-03	1.305277E-04
5.568857E+03	5.465679E-03	1.297548E-04
5.578784E+03	5.437053E-03	1.289869E-04
5.588711E+03	5.408729E-03	1.282291E-04
5.598637E+03	5.380806E-03	1.274837E-04
5.608564E+03	5.353486E-03	1.267553E-04
5.618491E+03	5.326860E-03	1.260460E-04
5.628417E+03	5.301066E-03	1.253590E-04
5.638344E+03	5.276281E-03	1.246984E-04
5.648271E+03	5.252569E-03	1.240656E-04
5.658197E+03	5.230030E-03	1.234630E-04
5.668124E+03	5.208798E-03	1.228935E-04
5.678051E+03	5.188892E-03	1.223576E-04
5.687977E+03	5.170361E-03	1.218563E-04
5.697904E+03	5.153234E-03	1.213901E-04
5.707831E+03	5.137572E-03	1.209606E-04
5.717757E+03	5.123314E-03	1.205660E-04
5.727684E+03	5.110378E-03	1.202045E-04
5.737611E+03	5.098813E-03	1.198772E-04
5.747537E+03	5.088497E-03	1.195810E-04
5.757464E+03	5.079291E-03	1.193126E-04
5.767391E+03	5.071135E-03	1.190707E-04
5.777317E+03	5.063905E-03	1.188522E-04
5.787244E+03	5.057459E-03	1.186537E-04
5.797171E+03	5.051598E-03	1.184707E-04
5.807097E+03	5.046158E-03	1.182991E-04
5.817024E+03	5.041017E-03	1.181361E-04
5.826950E+03	5.035950E-03	1.179764E-04
5.836877E+03	5.030778E-03	1.178158E-04
5.846804E+03	5.025370E-03	1.176512E-04
5.856730E+03	5.019452E-03	1.174763E-04
5.866657E+03	5.012902E-03	1.172880E-04
5.876584E+03	5.005509E-03	1.170817E-04
5.886510E+03	4.997216E-03	1.168558E-04
5.896437E+03	4.987740E-03	1.166038E-04
5.906364E+03	4.977051E-03	1.163250E-04
5.916290E+03	4.964993E-03	1.160158E-04
5.926217E+03	4.951475E-03	1.156740E-04
5.936144E+03	4.936426E-03	1.152980E-04
5.946070E+03	4.919794E-03	1.148866E-04
5.955997E+03	4.901498E-03	1.144379E-04
5.965924E+03	4.881527E-03	1.139516E-04
5.975850E+03	4.859935E-03	1.134291E-04
5.985777E+03	4.836656E-03	1.128688E-04
5.995704E+03	4.811783E-03	1.122728E-04
6.005630E+03	4.785375E-03	1.116425E-04
6.015557E+03	4.757420E-03	1.109777E-04
6.025484E+03	4.728104E-03	1.102827E-04
6.035410E+03	4.697443E-03	1.095577E-04
6.045337E+03	4.665555E-03	1.088057E-04
6.055264E+03	4.632526E-03	1.080285E-04
6.065190E+03	4.598540E-03	1.072304E-04
6.075117E+03	4.563654E-03	1.064127E-04
6.085044E+03	4.528025E-03	1.055792E-04
6.094970E+03	4.491765E-03	1.047322E-04
6.104897E+03	4.454951E-03	1.038737E-04
6.114824E+03	4.417747E-03	1.030074E-04
6.124750E+03	4.380189E-03	1.021339E-04
6.134677E+03	4.342396E-03	1.012561E-04
6.144604E+03	4.304567E-03	1.003786E-04
6.154530E+03	4.266846E-03	9.950453E-05
6.164457E+03	4.229523E-03	9.864073E-05
6.174384E+03	4.192685E-03	9.778916E-05
6.184310E+03	4.156533E-03	9.695446E-05
6.194237E+03	4.121091E-03	9.613711E-05
6.204164E+03	4.086538E-03	9.534127E-05
6.214090E+03	4.052920E-03	9.456798E-05
6.224017E+03	4.020281E-03	9.381823E-05
6.233944E+03	3.988775E-03	9.309553E-05
6.243870E+03	3.958352E-03	9.239875E-05
6.253797E+03	3.929073E-03	9.172924E-05
6.263724E+03	3.901030E-03	9.108915E-05
6.273650E+03	3.874193E-03	9.047775E-05
6.283577E+03	3.848563E-03	8.989504E-05
6.293504E+03	3.824170E-03	8.934171E-05
6.303430E+03	3.801040E-03	8.881834E-05
6.313357E+03	3.779072E-03	8.832258E-05
6.323284E+03	3.758316E-03	8.785556E-05
6.333210E+03	3.738735E-03	8.741643E-05
6.343137E+03	3.720248E-03	8.700329E-05
6.353064E+03	3.702808E-03	8.661502E-05
6.362990E+03	3.686402E-03	8.625130E-05
6.372917E+03	3.670931E-03	8.590985E-05
6.382844E+03	3.656299E-03	8.558838E-05
6.392770E+03	3.642478E-03	8.528623E-05
6.402697E+03	3.629364E-03	8.500100E-05
6.412624E+03	3.616889E-03	8.473104E-05
6.422550E+03	3.604907E-03	8.447298E-05
6.432477E+03	3.593387E-03	8.422604E-05
6.442404E+03	3.582261E-03	8.398866E-05
6.452330E+03	3.571385E-03	8.375742E-05
6.462257E+03	3.560767E-03	8.353254E-05
6.472184E+03	3.550346E-03	8.331257E-05
6.482110E+03	3.540098E-03	8.309692E-05
6.492037E+03	3.529966E-03	8.288426E-05
6.501963E+03	3.519935E-03	8.267423E-05
6.511890E+03	3.509994E-03	8.246658E-05
6.521817E+03	3.500137E-03	8.226114E-05
6.531743E+03	3.490288E-03	8.205611E-05
6.541670E+03	3.480487E-03	8.185246E-05
6.551597E+03	3.470707E-03	8.164952E-05
6.561523E+03	3.460924E-03	8.144671E-05
6.571450E+03	3.451119E-03	8.124362E-05
6.581377E+03	3.441317E-03	8.104081E-05
6.591303E+03	3.431511E-03	8.083811E-05
6.601230E+03	3.421699E-03	8.063545E-05
6.611157E+03	3.411919E-03	8.043375E-05
6.621083E+03	3.402103E-03	8.023142E-05
6.631010E+03	3.392340E-03	8.003051E-05
6.640937E+03	3.382605E-03	7.983047E-05
6.650863E+03	3.372919E-03	7.963178E-05
6.660790E+03	3.363344E-03	7.943588E-05
6.670717E+03	3.353868E-03	7.924254E-05
6.680643E+03	3.344560E-03	7.905335E-05
6.690570E+03	3.335375E-03	7.886729E-05
6.700497E+03	3.326426E-03	7.868701E-05
6.710423E+03	3.317748E-03	7.851335E-05
6.720350E+03	3.309342E-03	7.834635E-05
6.730277E+03	3.301210E-03	7.818607E-05
6.740203E+03	3.293503E-03	7.803612E-05
6.750130E+03	3.286151E-03	7.789480E-05
6.760057E+03	3.279228E-03	7.776393E-05
6.769983E+03	3.272811E-03	7.764533E-05
6.779910E+03	3.266899E-03	7.753904E-05
6.789837E+03	3.261529E-03	7.744589E-05
6.799763E+03	3.256732E-03	7.736673E-05
6.809690E+03	3.252541E-03	7.730228E-05
6.819617E+03	3.249020E-03	7.725415E-05
6.829543E+03	3.246116E-03	7.722109E-05
6.839470E+03	3.243890E-03	7.720459E-05
6.849397E+03	3.242397E-03	7.720597E-05
6.859323E+03	3.241571E-03	7.722372E-05
6.869250E+03	3.241497E-03	7.725990E-05
6.879177E+03	3.242139E-03	7.731371E-05
6.889103E+03	3.243460E-03	7.738425E-05
6.899030E+03	3.245529E-03	7.747324E-05
6.908957E+03	3.248295E-03	7.757953E-05
6.918883E+03	3.251706E-03	7.770186E-05
6.928810E+03	3.255816E-03	7.784163E-05
6.938737E+03	3.260562E-03	7.799732E-05
6.948663E+03	3.265873E-03	7.816730E-05
6.958590E+03	3.271792E-03	7.835265E-05
6.968517E+03	3.278241E-03	7.855155E-05
6.978443E+03	3.285177E-03	7.876299E-05
6.988370E+03	3.292511E-03	7.898490E-05
6.998297E+03	3.300273E-03	7.921801E-05
7.008223E+03	3.308367E-03	7.946008E-05
7.018150E+03	3.316737E-03	7.970981E-05
7.028077E+03	3.325321E-03	7.996573E-05
7.038003E+03	3.334057E-03	8.022639E-05
7.047930E+03	3.342881E-03	8.049029E-05
7.057857E+03	3.351767E-03	8.075683E-05
7.067783E+03	3.360563E-03	8.102239E-05
7.077710E+03	3.369244E-03	8.128636E-05
7.087637E+03	3.377781E-03	8.154810E-05
7.097563E+03	3.386064E-03	8.180495E-05
7.107490E+03	3.394022E-03	8.205523E-05
7.117417E+03	3.401586E-03	8.229728E-05
7.127343E+03	3.408686E-03	8.252942E-05
7.137270E+03	3.415300E-03	8.275110E-05
7.147197E+03	3.421272E-03	8.295857E-05
7.157123E+03	3.426671E-03	8.315348E-05
7.167050E+03	3.431301E-03	8.333109E-05
7.176976E+03	3.435189E-03	8.349204E-05
7.186903E+03	3.438235E-03	8.363386E-05
7.196830E+03	3.440427E-03	8.375627E-05
7.206756E+03	3.441670E-03	8.385691E-05
7.216683E+03	3.441959E-03	8.393564E-05
7.226610E+03	3.441251E-03	8.399138E-05
7.236536E+03	3.439461E-03	8.402199E-05
7.246463E+03	3.436598E-03	8.402769E-05
7.256390E+03	3.432630E-03	8.400764E-05
7.266316E+03	3.427488E-03	8.396007E-05
7.276243E+03	3.421241E-03	8.388664E-05
7.286170E+03	3.413827E-03	8.378575E-05
7.296096E+03	3.405235E-03	8.365710E-05
7.306023E+03	3.395508E-03	8.350163E-05
7.315950E+03	3.384599E-03	8.331818E-05
7.325876E+03	3.372560E-03	8.310789E-05
7.335803E+03	3.359357E-03	8.286988E-05
7.345730E+03	3.345004E-03	8.260444E-05
7.355656E+03	3.329569E-03	8.231311E-05
7.365583E+03	3.313075E-03	8.199642E-05
7.375510E+03	3.295464E-03	8.165284E-05
7.385436E+03	3.276813E-03	8.128417E-05
7.395363E+03	3.257160E-03	8.089127E-05
7.405290E+03	3.236544E-03	8.047503E-05
7.415216E+03	3.215050E-03	8.003747E-05
7.425143E+03	3.192679E-03	7.957855E-05
7.435070E+03	3.169477E-03	7.909927E-05
7.444996E+03	3.145491E-03	7.860077E-05
7.454923E+03	3.120769E-03	7.808415E-05
7.464850E+03	3.095318E-03	7.754948E-05
7.474776E+03	3.069271E-03	7.700000E-05
7.484703E+03	3.042551E-03	7.643371E-05
7.494630E+03	3.015291E-03	7.585379E-05
7.504556E+03	2.987499E-03	7.526032E-05
7.514483E+03	2.959261E-03	7.465533E-05
7.524410E+03	2.930547E-03	7.403794E-05
7.534336E+03	2.901442E-03	7.341020E-05
7.544263E+03	2.871955E-03	7.277218E-05
7.554190E+03	2.842210E-03	7.212690E-05
7.564116E+03	2.812172E-03	7.147342E-05
7.574043E+03	2.781888E-03	7.081281E-05
7.583970E+03	2.751442E-03	7.014708E-05
7.593896E+03	2.720839E-03	6.947629E-05
7.603823E+03	2.690163E-03	6.880251E-05
7.613750E+03	2.659423E-03	6.812588E-05
7.623676E+03	2.628701E-03	6.744840E-05
7.633603E+03	2.598001E-03	6.677016E-05
7.643530E+03	2.567365E-03	6.609216E-05
7.653456E+03	2.536836E-03	6.541541E-05
7.663383E+03	2.506484E-03	6.474173E-05
7.673310E+03	2.476311E-03	6.407110E-05
7.683236E+03	2.446384E-03	6.340522E-05
7.693163E+03	2.416701E-03	6.274402E-05
7.703090E+03	2.387290E-03	6.208820E-05
