#wls	flux	fluxerr
1.588266E+03	1.357025E-03	4.821375E-05
1.627973E+03	1.383289E-03	4.914160E-05
1.667679E+03	1.410082E-03	5.008788E-05
1.707386E+03	1.437367E-03	5.105129E-05
1.747092E+03	1.465103E-03	5.203037E-05
1.786799E+03	1.493520E-03	5.303325E-05
1.826506E+03	1.522299E-03	5.404860E-05
1.866212E+03	1.551663E-03	5.508430E-05
1.905919E+03	1.581559E-03	5.613847E-05
1.945626E+03	1.611927E-03	5.720892E-05
1.985332E+03	1.642695E-03	5.829313E-05
2.025039E+03	1.674083E-03	5.939889E-05
2.064746E+03	1.706017E-03	6.052349E-05
2.104452E+03	1.738408E-03	6.166382E-05
2.144159E+03	1.771466E-03	6.282728E-05
2.183866E+03	1.804782E-03	6.399932E-05
2.223572E+03	1.838862E-03	6.519789E-05
2.263279E+03	1.872955E-03	6.639634E-05
2.302986E+03	1.907871E-03	6.762334E-05
2.342692E+03	1.943466E-03	6.887380E-05
2.382399E+03	1.979264E-03	7.013078E-05
2.422105E+03	2.015728E-03	7.141071E-05
2.461812E+03	2.052346E-03	7.269542E-05
2.501519E+03	2.089878E-03	7.401175E-05
2.541225E+03	2.127775E-03	7.534030E-05
2.580932E+03	2.166110E-03	7.668361E-05
2.620639E+03	2.204939E-03	7.804358E-05
2.660345E+03	2.244283E-03	7.942101E-05
2.700052E+03	2.284461E-03	8.082712E-05
2.739759E+03	2.325113E-03	8.224916E-05
2.779465E+03	2.366174E-03	8.368479E-05
2.819172E+03	2.407849E-03	8.514122E-05
2.858879E+03	2.450600E-03	8.663476E-05
2.898585E+03	2.493611E-03	8.813656E-05
2.938292E+03	2.537545E-03	8.966997E-05
2.977999E+03	2.582383E-03	9.123435E-05
2.987925E+03	2.593758E-03	9.163114E-05
2.997852E+03	2.605264E-03	9.203249E-05
3.007779E+03	2.616600E-03	9.242774E-05
3.017705E+03	2.628046E-03	9.282684E-05
3.027632E+03	2.639588E-03	9.322925E-05
3.037559E+03	2.651215E-03	9.363459E-05
3.047485E+03	2.662914E-03	9.404241E-05
3.057412E+03	2.674671E-03	9.445222E-05
3.067339E+03	2.686475E-03	9.486360E-05
3.077265E+03	2.698311E-03	9.527608E-05
3.087192E+03	2.710168E-03	9.568921E-05
3.097118E+03	2.722033E-03	9.610254E-05
3.107045E+03	2.733893E-03	9.651562E-05
3.116972E+03	2.746007E-03	9.693760E-05
3.126898E+03	2.758356E-03	9.736783E-05
3.136825E+03	2.770386E-03	9.778672E-05
3.146752E+03	2.782624E-03	9.821285E-05
3.156678E+03	2.795049E-03	9.864552E-05
3.166605E+03	2.807383E-03	9.907491E-05
3.176532E+03	2.819871E-03	9.950969E-05
3.186458E+03	2.832240E-03	9.994015E-05
3.196385E+03	2.844989E-03	1.003840E-04
3.206312E+03	2.857584E-03	1.008223E-04
3.216238E+03	2.870267E-03	1.012636E-04
3.226165E+03	2.883020E-03	1.017073E-04
3.236092E+03	2.895826E-03	1.021528E-04
3.246018E+03	2.908914E-03	1.026082E-04
3.255945E+03	2.921769E-03	1.030553E-04
3.265872E+03	2.934868E-03	1.035110E-04
3.275798E+03	2.947945E-03	1.039657E-04
3.285725E+03	2.961224E-03	1.044275E-04
3.295652E+03	2.974444E-03	1.048872E-04
3.305578E+03	2.987824E-03	1.053524E-04
3.315505E+03	3.001106E-03	1.058141E-04
3.325432E+03	3.014509E-03	1.062799E-04
3.335358E+03	3.028008E-03	1.067491E-04
3.345285E+03	3.041583E-03	1.072208E-04
3.355212E+03	3.055211E-03	1.076944E-04
3.365138E+03	3.069097E-03	1.081769E-04
3.375065E+03	3.082768E-03	1.086518E-04
3.384992E+03	3.096650E-03	1.091341E-04
3.394918E+03	3.110499E-03	1.096151E-04
3.404845E+03	3.124509E-03	1.101017E-04
3.414772E+03	3.138444E-03	1.105855E-04
3.424698E+03	3.152493E-03	1.110733E-04
3.434625E+03	3.166843E-03	1.115717E-04
3.444552E+03	3.181047E-03	1.120647E-04
3.454478E+03	3.195294E-03	1.125592E-04
3.464405E+03	3.209559E-03	1.130543E-04
3.474332E+03	3.224021E-03	1.135562E-04
3.484258E+03	3.238452E-03	1.140569E-04
3.494185E+03	3.252831E-03	1.145557E-04
3.504112E+03	3.267330E-03	1.150587E-04
3.514038E+03	3.281924E-03	1.155649E-04
3.523965E+03	3.296586E-03	1.160734E-04
3.533892E+03	3.311290E-03	1.165833E-04
3.543818E+03	3.326199E-03	1.171003E-04
3.553745E+03	3.340912E-03	1.176103E-04
3.563672E+03	3.355779E-03	1.181257E-04
3.573598E+03	3.370589E-03	1.186390E-04
3.583525E+03	3.385500E-03	1.191557E-04
3.593452E+03	3.400484E-03	1.196749E-04
3.603378E+03	3.415515E-03	1.201957E-04
3.613305E+03	3.430569E-03	1.207172E-04
3.623232E+03	3.445621E-03	1.212385E-04
3.633158E+03	3.460817E-03	1.217648E-04
3.643085E+03	3.475961E-03	1.222892E-04
3.653012E+03	3.491196E-03	1.228167E-04
3.662938E+03	3.506336E-03	1.233407E-04
3.672865E+03	3.521518E-03	1.238661E-04
3.682792E+03	3.536881E-03	1.243978E-04
3.692718E+03	3.552081E-03	1.249237E-04
3.702645E+03	3.567412E-03	1.254541E-04
3.712572E+03	3.582695E-03	1.259827E-04
3.722498E+03	3.598061E-03	1.265142E-04
3.732425E+03	3.613487E-03	1.270477E-04
3.742352E+03	3.628804E-03	1.275772E-04
3.752278E+03	3.644285E-03	1.281124E-04
3.762205E+03	3.659621E-03	1.286424E-04
3.772131E+03	3.675079E-03	1.291766E-04
3.782058E+03	3.690500E-03	1.297094E-04
3.791985E+03	3.706003E-03	1.302451E-04
3.801911E+03	3.721433E-03	1.307780E-04
3.811838E+03	3.736913E-03	1.313126E-04
3.821765E+03	3.752293E-03	1.318436E-04
3.831691E+03	3.767822E-03	1.323798E-04
3.841618E+03	3.783226E-03	1.329115E-04
3.851545E+03	3.798748E-03	1.334472E-04
3.861471E+03	3.814249E-03	1.339821E-04
3.871398E+03	3.829596E-03	1.345115E-04
3.881325E+03	3.845150E-03	1.350481E-04
3.891251E+03	3.860534E-03	1.355786E-04
3.901178E+03	3.875983E-03	1.361113E-04
3.911105E+03	3.891489E-03	1.366459E-04
3.921031E+03	3.906815E-03	1.371741E-04
3.930958E+03	3.922300E-03	1.377078E-04
3.940885E+03	3.937715E-03	1.382390E-04
3.950811E+03	3.953059E-03	1.387675E-04
3.960738E+03	3.968441E-03	1.392974E-04
3.970665E+03	3.983754E-03	1.398247E-04
3.980591E+03	3.999106E-03	1.403533E-04
3.990518E+03	4.014498E-03	1.408832E-04
4.000445E+03	4.029726E-03	1.414073E-04
4.010371E+03	4.045004E-03	1.419330E-04
4.020298E+03	4.060233E-03	1.424570E-04
4.030225E+03	4.075424E-03	1.429795E-04
4.040151E+03	4.090584E-03	1.435008E-04
4.050078E+03	4.105721E-03	1.440213E-04
4.060005E+03	4.120752E-03	1.445380E-04
4.069931E+03	4.135782E-03	1.450545E-04
4.079858E+03	4.150731E-03	1.455681E-04
4.089785E+03	4.165703E-03	1.460825E-04
4.099711E+03	4.180528E-03	1.465916E-04
4.109638E+03	4.195226E-03	1.470962E-04
4.119565E+03	4.209900E-03	1.475999E-04
4.129491E+03	4.224390E-03	1.480970E-04
4.139418E+03	4.238888E-03	1.485944E-04
4.149345E+03	4.253154E-03	1.490835E-04
4.159271E+03	4.267292E-03	1.495681E-04
4.169198E+03	4.281321E-03	1.500488E-04
4.179125E+03	4.295174E-03	1.505233E-04
4.189051E+03	4.308795E-03	1.509895E-04
4.198978E+03	4.322280E-03	1.514510E-04
4.208905E+03	4.335415E-03	1.519001E-04
4.218831E+03	4.348377E-03	1.523431E-04
4.228758E+03	4.361034E-03	1.527753E-04
4.238685E+03	4.373406E-03	1.531976E-04
4.248611E+03	4.385442E-03	1.536080E-04
4.258538E+03	4.397091E-03	1.540047E-04
4.268465E+03	4.408307E-03	1.543863E-04
4.278391E+03	4.419186E-03	1.547560E-04
4.288318E+03	4.429540E-03	1.551073E-04
4.298245E+03	4.439401E-03	1.554413E-04
4.308171E+03	4.448727E-03	1.557565E-04
4.318098E+03	4.457484E-03	1.560518E-04
4.328025E+03	4.465637E-03	1.563259E-04
4.337951E+03	4.473156E-03	1.565778E-04
4.347878E+03	4.479947E-03	1.568041E-04
4.357805E+03	4.486053E-03	1.570066E-04
4.367731E+03	4.491323E-03	1.571797E-04
4.377658E+03	4.495869E-03	1.573275E-04
4.387585E+03	4.499613E-03	1.574472E-04
4.397511E+03	4.502478E-03	1.575361E-04
4.407438E+03	4.504456E-03	1.575941E-04
4.417365E+03	4.505663E-03	1.576251E-04
4.427291E+03	4.505969E-03	1.576246E-04
4.437218E+03	4.505491E-03	1.575966E-04
4.447144E+03	4.504283E-03	1.575432E-04
4.457071E+03	4.502403E-03	1.574663E-04
4.466998E+03	4.499843E-03	1.573657E-04
4.476924E+03	4.496718E-03	1.572453E-04
4.486851E+03	4.493137E-03	1.571091E-04
4.496778E+03	4.489037E-03	1.569548E-04
4.506704E+03	4.484527E-03	1.567861E-04
4.516631E+03	4.479655E-03	1.566048E-04
4.526558E+03	4.474524E-03	1.564146E-04
4.536484E+03	4.469124E-03	1.562150E-04
4.546411E+03	4.463551E-03	1.560095E-04
4.556338E+03	4.457847E-03	1.557994E-04
4.566264E+03	4.452050E-03	1.555861E-04
4.576191E+03	4.446141E-03	1.553689E-04
4.586118E+03	4.440261E-03	1.551529E-04
4.596044E+03	4.434386E-03	1.549371E-04
4.605971E+03	4.428544E-03	1.547225E-04
4.615898E+03	4.422813E-03	1.545118E-04
4.625824E+03	4.417214E-03	1.543058E-04
4.635751E+03	4.411817E-03	1.541069E-04
4.645678E+03	4.406588E-03	1.539140E-04
4.655604E+03	4.401591E-03	1.537292E-04
4.665531E+03	4.396888E-03	1.535548E-04
4.675458E+03	4.392538E-03	1.533927E-04
4.685384E+03	4.388594E-03	1.532449E-04
4.695311E+03	4.385111E-03	1.531133E-04
4.705238E+03	4.382185E-03	1.530011E-04
4.715164E+03	4.379912E-03	1.529118E-04
4.725091E+03	4.378436E-03	1.528504E-04
4.735018E+03	4.377941E-03	1.528233E-04
4.744944E+03	4.378512E-03	1.528334E-04
4.754871E+03	4.380041E-03	1.528771E-04
4.764798E+03	4.382469E-03	1.529521E-04
4.774724E+03	4.385542E-03	1.530497E-04
4.784651E+03	4.389201E-03	1.531678E-04
4.794578E+03	4.393387E-03	1.533043E-04
4.804504E+03	4.397946E-03	1.534538E-04
4.814431E+03	4.402914E-03	1.536176E-04
4.824358E+03	4.408181E-03	1.537920E-04
4.834284E+03	4.413734E-03	1.539763E-04
4.844211E+03	4.419603E-03	1.541717E-04
4.854138E+03	4.425728E-03	1.543760E-04
4.864064E+03	4.432041E-03	1.545870E-04
4.873991E+03	4.438619E-03	1.548072E-04
4.883918E+03	4.445396E-03	1.550343E-04
4.893844E+03	4.452396E-03	1.552693E-04
4.903771E+03	4.459550E-03	1.555097E-04
4.913698E+03	4.466884E-03	1.557563E-04
4.923624E+03	4.474417E-03	1.560100E-04
4.933551E+03	4.482078E-03	1.562682E-04
4.943478E+03	4.489934E-03	1.565331E-04
4.953404E+03	4.497910E-03	1.568023E-04
4.963331E+03	4.505974E-03	1.570746E-04
4.973258E+03	4.514146E-03	1.573506E-04
4.983184E+03	4.522439E-03	1.576310E-04
4.993111E+03	4.530821E-03	1.579144E-04
5.003038E+03	4.539210E-03	1.581981E-04
5.012964E+03	4.547665E-03	1.584842E-04
5.022891E+03	4.556104E-03	1.587697E-04
5.032818E+03	4.564535E-03	1.590550E-04
5.042744E+03	4.572919E-03	1.593387E-04
5.052671E+03	4.581220E-03	1.596195E-04
5.062598E+03	4.589442E-03	1.598977E-04
5.072524E+03	4.597499E-03	1.601701E-04
5.082451E+03	4.605394E-03	1.604369E-04
5.092378E+03	4.613088E-03	1.606967E-04
5.102304E+03	4.620535E-03	1.609480E-04
5.112231E+03	4.627742E-03	1.611909E-04
5.122158E+03	4.634616E-03	1.614223E-04
5.132084E+03	4.641114E-03	1.616407E-04
5.142011E+03	4.647241E-03	1.618462E-04
5.151937E+03	4.652953E-03	1.620373E-04
5.161864E+03	4.658161E-03	1.622109E-04
5.171791E+03	4.662916E-03	1.623688E-04
5.181717E+03	4.667038E-03	1.625046E-04
5.191644E+03	4.670626E-03	1.626220E-04
5.201571E+03	4.673594E-03	1.627178E-04
5.211497E+03	4.675858E-03	1.627892E-04
5.221424E+03	4.677430E-03	1.628366E-04
5.231351E+03	4.678275E-03	1.628588E-04
5.241277E+03	4.678362E-03	1.628546E-04
5.251204E+03	4.677662E-03	1.628231E-04
5.261131E+03	4.676100E-03	1.627617E-04
5.271057E+03	4.673698E-03	1.626712E-04
5.280984E+03	4.670434E-03	1.625507E-04
5.290911E+03	4.666242E-03	1.623980E-04
5.300837E+03	4.661153E-03	1.622142E-04
5.310764E+03	4.655152E-03	1.619988E-04
5.320691E+03	4.648231E-03	1.617515E-04
5.330617E+03	4.640381E-03	1.614719E-04
5.340544E+03	4.631598E-03	1.611600E-04
5.350471E+03	4.621882E-03	1.608158E-04
5.360397E+03	4.611280E-03	1.604408E-04
5.370324E+03	4.599798E-03	1.600353E-04
5.380251E+03	4.587490E-03	1.596012E-04
5.390177E+03	4.574370E-03	1.591390E-04
5.400104E+03	4.560496E-03	1.586506E-04
5.410031E+03	4.545931E-03	1.581383E-04
5.419957E+03	4.530739E-03	1.576044E-04
5.429884E+03	4.514987E-03	1.570510E-04
5.439811E+03	4.498694E-03	1.564790E-04
5.449737E+03	4.481931E-03	1.558907E-04
5.459664E+03	4.464722E-03	1.552871E-04
5.469591E+03	4.447140E-03	1.546706E-04
5.479517E+03	4.429080E-03	1.540375E-04
5.489444E+03	4.410662E-03	1.533922E-04
5.499371E+03	4.391871E-03	1.527340E-04
5.509297E+03	4.372655E-03	1.520611E-04
5.519224E+03	4.353048E-03	1.513747E-04
5.529151E+03	4.333086E-03	1.506761E-04
5.539077E+03	4.312724E-03	1.499637E-04
5.549004E+03	4.292039E-03	1.492402E-04
5.558931E+03	4.271030E-03	1.485056E-04
5.568857E+03	4.249737E-03	1.477611E-04
5.578784E+03	4.228198E-03	1.470083E-04
5.588711E+03	4.206455E-03	1.462484E-04
5.598637E+03	4.184463E-03	1.454800E-04
5.608564E+03	4.162387E-03	1.447088E-04
5.618491E+03	4.140183E-03	1.439332E-04
5.628417E+03	4.117887E-03	1.431546E-04
5.638344E+03	4.095580E-03	1.423757E-04
5.648271E+03	4.073254E-03	1.415962E-04
5.658197E+03	4.050944E-03	1.408174E-04
5.668124E+03	4.028723E-03	1.400417E-04
5.678051E+03	4.006621E-03	1.392703E-04
5.687977E+03	3.984626E-03	1.385027E-04
5.697904E+03	3.962805E-03	1.377413E-04
5.707831E+03	3.941144E-03	1.369855E-04
5.717757E+03	3.919702E-03	1.362374E-04
5.727684E+03	3.898502E-03	1.354978E-04
5.737611E+03	3.877560E-03	1.347673E-04
5.747537E+03	3.856853E-03	1.340451E-04
5.757464E+03	3.836435E-03	1.333329E-04
5.767391E+03	3.816315E-03	1.326312E-04
5.777317E+03	3.796504E-03	1.319404E-04
5.787244E+03	3.776972E-03	1.312593E-04
5.797171E+03	3.757763E-03	1.305895E-04
5.807097E+03	3.738917E-03	1.299324E-04
5.817024E+03	3.720328E-03	1.292843E-04
5.826950E+03	3.702107E-03	1.286491E-04
5.836877E+03	3.684181E-03	1.280242E-04
5.846804E+03	3.666624E-03	1.274123E-04
5.856730E+03	3.649325E-03	1.268093E-04
5.866657E+03	3.632392E-03	1.262191E-04
5.876584E+03	3.615713E-03	1.256379E-04
5.886510E+03	3.599396E-03	1.250693E-04
5.896437E+03	3.583330E-03	1.245095E-04
5.906364E+03	3.567582E-03	1.239608E-04
5.916290E+03	3.552116E-03	1.234220E-04
5.926217E+03	3.536930E-03	1.228929E-04
5.936144E+03	3.522021E-03	1.223736E-04
5.946070E+03	3.507384E-03	1.218638E-04
5.955997E+03	3.492987E-03	1.213624E-04
5.965924E+03	3.478825E-03	1.208692E-04
5.975850E+03	3.464931E-03	1.203854E-04
5.985777E+03	3.451234E-03	1.199085E-04
5.995704E+03	3.437770E-03	1.194397E-04
6.005630E+03	3.424499E-03	1.189778E-04
6.015557E+03	3.411387E-03	1.185214E-04
6.025484E+03	3.398465E-03	1.180717E-04
6.035410E+03	3.385666E-03	1.176262E-04
6.045337E+03	3.373017E-03	1.171861E-04
6.055264E+03	3.360485E-03	1.167501E-04
6.065190E+03	3.348029E-03	1.163169E-04
6.075117E+03	3.335650E-03	1.158863E-04
6.085044E+03	3.323307E-03	1.154570E-04
6.094970E+03	3.310995E-03	1.150289E-04
6.104897E+03	3.298773E-03	1.146040E-04
6.114824E+03	3.286569E-03	1.141797E-04
6.124750E+03	3.274536E-03	1.137615E-04
6.134677E+03	3.262763E-03	1.133523E-04
6.144604E+03	3.251171E-03	1.129495E-04
6.154530E+03	3.239621E-03	1.125482E-04
6.164457E+03	3.228099E-03	1.121479E-04
6.174384E+03	3.216561E-03	1.117471E-04
6.184310E+03	3.204960E-03	1.113442E-04
6.194237E+03	3.193350E-03	1.109409E-04
6.204164E+03	3.181650E-03	1.105347E-04
6.214090E+03	3.169910E-03	1.101270E-04
6.224017E+03	3.158149E-03	1.097187E-04
6.233944E+03	3.146287E-03	1.093069E-04
6.243870E+03	3.134405E-03	1.088945E-04
6.253797E+03	3.122459E-03	1.084799E-04
6.263724E+03	3.110433E-03	1.080625E-04
6.273650E+03	3.098347E-03	1.076431E-04
6.283577E+03	3.086187E-03	1.072212E-04
6.293504E+03	3.073943E-03	1.067964E-04
6.303430E+03	3.061601E-03	1.063682E-04
6.313357E+03	3.049152E-03	1.059363E-04
6.323284E+03	3.036587E-03	1.055004E-04
6.333210E+03	3.023927E-03	1.050613E-04
6.343137E+03	3.011104E-03	1.046166E-04
6.353064E+03	2.998171E-03	1.041680E-04
6.362990E+03	2.985062E-03	1.037134E-04
6.372917E+03	2.971836E-03	1.032547E-04
6.382844E+03	2.958394E-03	1.027886E-04
6.392770E+03	2.944829E-03	1.023182E-04
6.402697E+03	2.931047E-03	1.018403E-04
6.412624E+03	2.917079E-03	1.013559E-04
6.422550E+03	2.902930E-03	1.008653E-04
6.432477E+03	2.888570E-03	1.003674E-04
6.442404E+03	2.874035E-03	9.986343E-05
6.452330E+03	2.859301E-03	9.935259E-05
6.462257E+03	2.844407E-03	9.883617E-05
6.472184E+03	2.829359E-03	9.831447E-05
6.482110E+03	2.814169E-03	9.778782E-05
6.492037E+03	2.798847E-03	9.725659E-05
6.501963E+03	2.783435E-03	9.672228E-05
6.511890E+03	2.767945E-03	9.618527E-05
6.521817E+03	2.752393E-03	9.564611E-05
6.531743E+03	2.736849E-03	9.510727E-05
6.541670E+03	2.721330E-03	9.456931E-05
6.551597E+03	2.705822E-03	9.403171E-05
6.561523E+03	2.690427E-03	9.349809E-05
6.571450E+03	2.675104E-03	9.296697E-05
6.581377E+03	2.659926E-03	9.244092E-05
6.591303E+03	2.644910E-03	9.192048E-05
6.601230E+03	2.630071E-03	9.140622E-05
6.611157E+03	2.615453E-03	9.089967E-05
6.621083E+03	2.601044E-03	9.040037E-05
6.631010E+03	2.586916E-03	8.991088E-05
6.640937E+03	2.573084E-03	8.943166E-05
6.650863E+03	2.559533E-03	8.896223E-05
6.660790E+03	2.546306E-03	8.850407E-05
6.670717E+03	2.533415E-03	8.805758E-05
6.680643E+03	2.520873E-03	8.762326E-05
6.690570E+03	2.508749E-03	8.720349E-05
6.700497E+03	2.496996E-03	8.679661E-05
6.710423E+03	2.485654E-03	8.640400E-05
6.720350E+03	2.474730E-03	8.602598E-05
6.730277E+03	2.464235E-03	8.566285E-05
6.740203E+03	2.454202E-03	8.531580E-05
6.750130E+03	2.444610E-03	8.498410E-05
6.760057E+03	2.435493E-03	8.466892E-05
6.769983E+03	2.426826E-03	8.436941E-05
6.779910E+03	2.418670E-03	8.408768E-05
6.789837E+03	2.410968E-03	8.382175E-05
6.799763E+03	2.403779E-03	8.357367E-05
6.809690E+03	2.397046E-03	8.334144E-05
6.819617E+03	2.390821E-03	8.312691E-05
6.829543E+03	2.385076E-03	8.292909E-05
6.839470E+03	2.379805E-03	8.274773E-05
6.849397E+03	2.375029E-03	8.258364E-05
6.859323E+03	2.370713E-03	8.243556E-05
6.869250E+03	2.366850E-03	8.230322E-05
6.879177E+03	2.363456E-03	8.218724E-05
6.889103E+03	2.360491E-03	8.208618E-05
6.899030E+03	2.357969E-03	8.200060E-05
6.908957E+03	2.355850E-03	8.192902E-05
6.918883E+03	2.354145E-03	8.187183E-05
6.928810E+03	2.352835E-03	8.182844E-05
6.938737E+03	2.351845E-03	8.179621E-05
6.948663E+03	2.351240E-03	8.177738E-05
6.958590E+03	2.350941E-03	8.176924E-05
6.968517E+03	2.350924E-03	8.177090E-05
6.978443E+03	2.351164E-03	8.178158E-05
6.988370E+03	2.351665E-03	8.180134E-05
6.998297E+03	2.352372E-03	8.182828E-05
7.008223E+03	2.353283E-03	8.186237E-05
7.018150E+03	2.354343E-03	8.190167E-05
7.028077E+03	2.355490E-03	8.194403E-05
7.038003E+03	2.356753E-03	8.199046E-05
7.047930E+03	2.358071E-03	8.203884E-05
7.057857E+03	2.359412E-03	8.208804E-05
7.067783E+03	2.360742E-03	8.213691E-05
7.077710E+03	2.362000E-03	8.218328E-05
7.087637E+03	2.363180E-03	8.222700E-05
7.097563E+03	2.364251E-03	8.226698E-05
7.107490E+03	2.365149E-03	8.230095E-05
7.117417E+03	2.365840E-03	8.232774E-05
7.127343E+03	2.366322E-03	8.234732E-05
7.137270E+03	2.366533E-03	8.235746E-05
7.147197E+03	2.366440E-03	8.235711E-05
7.157123E+03	2.365985E-03	8.234416E-05
7.167050E+03	2.365195E-03	8.231959E-05
7.176976E+03	2.363983E-03	8.228038E-05
7.186903E+03	2.362353E-03	8.222663E-05
7.196830E+03	2.360247E-03	8.215638E-05
7.206756E+03	2.357644E-03	8.206884E-05
7.216683E+03	2.354551E-03	8.196426E-05
7.226610E+03	2.350888E-03	8.183988E-05
7.236536E+03	2.346698E-03	8.169718E-05
7.246463E+03	2.341907E-03	8.153357E-05
7.256390E+03	2.336530E-03	8.134959E-05
7.266316E+03	2.330530E-03	8.114395E-05
7.276243E+03	2.323929E-03	8.091741E-05
7.286170E+03	2.316693E-03	8.066877E-05
7.296096E+03	2.308851E-03	8.039904E-05
7.306023E+03	2.300346E-03	8.010625E-05
7.315950E+03	2.291211E-03	7.979154E-05
7.325876E+03	2.281456E-03	7.945526E-05
7.335803E+03	2.271092E-03	7.909774E-05
7.345730E+03	2.260072E-03	7.871743E-05
7.355656E+03	2.248445E-03	7.831594E-05
7.365583E+03	2.236199E-03	7.789291E-05
7.375510E+03	2.223328E-03	7.744813E-05
7.385436E+03	2.209858E-03	7.698247E-05
7.395363E+03	2.195843E-03	7.649784E-05
7.405290E+03	2.181314E-03	7.599527E-05
7.415216E+03	2.166299E-03	7.547578E-05
7.425143E+03	2.150858E-03	7.494142E-05
7.435070E+03	2.134996E-03	7.439240E-05
7.444996E+03	2.118745E-03	7.382982E-05
7.454923E+03	2.102167E-03	7.325583E-05
7.464850E+03	2.085296E-03	7.267160E-05
7.474776E+03	2.068139E-03	7.207737E-05
7.484703E+03	2.050756E-03	7.147527E-05
7.494630E+03	2.033180E-03	7.086642E-05
7.504556E+03	2.015443E-03	7.025194E-05
7.514483E+03	1.997578E-03	6.963297E-05
7.524410E+03	1.979613E-03	6.901050E-05
7.534336E+03	1.961580E-03	6.838561E-05
7.544263E+03	1.943530E-03	6.776008E-05
7.554190E+03	1.925437E-03	6.713305E-05
7.564116E+03	1.907378E-03	6.650717E-05
7.574043E+03	1.889374E-03	6.588315E-05
7.583970E+03	1.871420E-03	6.526084E-05
7.593896E+03	1.853559E-03	6.464176E-05
7.603823E+03	1.835807E-03	6.402639E-05
7.613750E+03	1.818150E-03	6.341435E-05
7.623676E+03	1.800653E-03	6.280781E-05
7.633603E+03	1.783275E-03	6.220538E-05
7.643530E+03	1.766049E-03	6.160824E-05
7.653456E+03	1.749008E-03	6.101746E-05
7.663383E+03	1.732109E-03	6.043165E-05
7.673310E+03	1.715407E-03	5.985263E-05
7.683236E+03	1.698883E-03	5.927976E-05
7.693163E+03	1.682539E-03	5.871314E-05
7.703090E+03	1.666379E-03	5.815292E-05
