#wls	flux	fluxerr
1.588266E+03	1.164070E-03	4.827626E-05
1.627973E+03	1.190140E-03	4.931762E-05
1.667679E+03	1.216643E-03	5.037415E-05
1.707386E+03	1.243984E-03	5.146250E-05
1.747092E+03	1.271927E-03	5.257270E-05
1.786799E+03	1.300439E-03	5.370328E-05
1.826506E+03	1.329716E-03	5.486217E-05
1.866212E+03	1.359729E-03	5.604797E-05
1.905919E+03	1.390440E-03	5.725893E-05
1.945626E+03	1.421806E-03	5.849307E-05
1.985332E+03	1.454022E-03	5.975827E-05
2.025039E+03	1.486789E-03	6.104199E-05
2.064746E+03	1.520293E-03	6.235169E-05
2.104452E+03	1.554469E-03	6.368451E-05
2.144159E+03	1.589499E-03	6.504766E-05
2.183866E+03	1.625043E-03	6.642703E-05
2.223572E+03	1.661535E-03	6.784011E-05
2.263279E+03	1.698613E-03	6.927184E-05
2.302986E+03	1.736431E-03	7.072836E-05
2.342692E+03	1.775143E-03	7.221561E-05
2.382399E+03	1.814341E-03	7.371677E-05
2.422105E+03	1.854429E-03	7.524797E-05
2.461812E+03	1.894965E-03	7.679106E-05
2.501519E+03	1.936330E-03	7.836122E-05
2.541225E+03	1.978608E-03	7.996156E-05
2.580932E+03	2.021306E-03	8.157185E-05
2.620639E+03	2.064467E-03	8.319360E-05
2.660345E+03	2.108681E-03	8.485029E-05
2.700052E+03	2.153099E-03	8.650750E-05
2.739759E+03	2.198261E-03	8.818666E-05
2.779465E+03	2.243827E-03	8.987386E-05
2.819172E+03	2.290268E-03	9.158770E-05
2.858879E+03	2.336626E-03	9.328963E-05
2.898585E+03	2.383851E-03	9.501730E-05
2.938292E+03	2.431191E-03	9.674049E-05
2.977999E+03	2.478682E-03	9.846046E-05
2.987925E+03	2.490774E-03	9.889768E-05
2.997852E+03	2.502748E-03	9.932966E-05
3.007779E+03	2.514597E-03	9.975604E-05
3.017705E+03	2.526576E-03	1.001870E-04
3.027632E+03	2.538673E-03	1.006221E-04
3.037559E+03	2.550618E-03	1.010505E-04
3.047485E+03	2.562662E-03	1.014822E-04
3.057412E+03	2.574795E-03	1.019168E-04
3.067339E+03	2.586746E-03	1.023436E-04
3.077265E+03	2.598764E-03	1.027725E-04
3.087192E+03	2.610837E-03	1.032029E-04
3.097118E+03	2.622702E-03	1.036245E-04
3.107045E+03	2.634854E-03	1.040568E-04
3.116972E+03	2.646775E-03	1.044793E-04
3.126898E+03	2.658709E-03	1.049018E-04
3.136825E+03	2.670891E-03	1.053334E-04
3.146752E+03	2.682811E-03	1.057540E-04
3.156678E+03	2.694708E-03	1.061731E-04
3.166605E+03	2.706815E-03	1.065999E-04
3.176532E+03	2.718628E-03	1.070144E-04
3.186458E+03	2.730624E-03	1.074355E-04
3.196385E+03	2.742547E-03	1.078531E-04
3.206312E+03	2.754384E-03	1.082667E-04
3.216238E+03	2.766363E-03	1.086852E-04
3.226165E+03	2.778230E-03	1.090987E-04
3.236092E+03	2.789973E-03	1.095067E-04
3.246018E+03	2.801816E-03	1.099180E-04
3.255945E+03	2.813742E-03	1.103318E-04
3.265872E+03	2.825502E-03	1.107386E-04
3.275798E+03	2.837087E-03	1.111378E-04
3.285725E+03	2.848713E-03	1.115380E-04
3.295652E+03	2.860365E-03	1.119386E-04
3.305578E+03	2.872026E-03	1.123389E-04
3.315505E+03	2.883680E-03	1.127382E-04
3.325432E+03	2.895091E-03	1.131275E-04
3.335358E+03	2.906687E-03	1.135233E-04
3.345285E+03	2.918013E-03	1.139079E-04
3.355212E+03	2.929490E-03	1.142978E-04
3.365138E+03	2.940670E-03	1.146755E-04
3.375065E+03	2.951968E-03	1.150571E-04
3.384992E+03	2.963154E-03	1.154337E-04
3.394918E+03	2.974422E-03	1.158129E-04
3.404845E+03	2.985547E-03	1.161859E-04
3.414772E+03	2.996513E-03	1.165521E-04
3.424698E+03	3.007511E-03	1.169189E-04
3.434625E+03	3.018319E-03	1.172777E-04
3.444552E+03	3.029126E-03	1.176358E-04
3.454478E+03	3.039915E-03	1.179926E-04
3.464405E+03	3.050665E-03	1.183472E-04
3.474332E+03	3.061165E-03	1.186916E-04
3.484258E+03	3.071598E-03	1.190327E-04
3.494185E+03	3.082136E-03	1.193773E-04
3.504112E+03	3.092380E-03	1.197099E-04
3.514038E+03	3.102693E-03	1.200446E-04
3.523965E+03	3.112870E-03	1.203734E-04
3.533892E+03	3.122894E-03	1.206956E-04
3.543818E+03	3.132933E-03	1.210179E-04
3.553745E+03	3.142788E-03	1.213325E-04
3.563672E+03	3.152443E-03	1.216388E-04
3.573598E+03	3.162064E-03	1.219432E-04
3.583525E+03	3.171630E-03	1.222449E-04
3.593452E+03	3.181126E-03	1.225434E-04
3.603378E+03	3.190360E-03	1.228312E-04
3.613305E+03	3.199662E-03	1.231210E-04
3.623232E+03	3.208675E-03	1.233992E-04
3.633158E+03	3.217719E-03	1.236780E-04
3.643085E+03	3.226448E-03	1.239442E-04
3.653012E+03	3.235177E-03	1.242098E-04
3.662938E+03	3.243884E-03	1.244741E-04
3.672865E+03	3.252394E-03	1.247303E-04
3.682792E+03	3.260696E-03	1.249780E-04
3.692718E+03	3.268929E-03	1.252226E-04
3.702645E+03	3.276929E-03	1.254577E-04
3.712572E+03	3.284833E-03	1.256887E-04
3.722498E+03	3.292627E-03	1.259150E-04
3.732425E+03	3.300296E-03	1.261360E-04
3.742352E+03	3.307828E-03	1.263513E-04
3.752278E+03	3.315210E-03	1.265605E-04
3.762205E+03	3.322430E-03	1.267630E-04
3.772131E+03	3.329476E-03	1.269584E-04
3.782058E+03	3.336339E-03	1.271464E-04
3.791985E+03	3.343145E-03	1.273318E-04
3.801911E+03	3.349746E-03	1.275090E-04
3.811838E+03	3.356267E-03	1.276828E-04
3.821765E+03	3.362435E-03	1.278427E-04
3.831691E+03	3.368635E-03	1.280035E-04
3.841618E+03	3.374597E-03	1.281548E-04
3.851545E+03	3.380443E-03	1.283014E-04
3.861471E+03	3.386040E-03	1.284381E-04
3.871398E+03	3.391507E-03	1.285697E-04
3.881325E+03	3.396838E-03	1.286957E-04
3.891251E+03	3.402027E-03	1.288160E-04
3.901178E+03	3.406952E-03	1.289260E-04
3.911105E+03	3.411729E-03	1.290300E-04
3.921031E+03	3.416354E-03	1.291281E-04
3.930958E+03	3.420826E-03	1.292201E-04
3.940885E+03	3.425142E-03	1.293060E-04
3.950811E+03	3.429193E-03	1.293815E-04
3.960738E+03	3.433091E-03	1.294511E-04
3.970665E+03	3.436838E-03	1.295148E-04
3.980591E+03	3.440436E-03	1.295726E-04
3.990518E+03	3.443886E-03	1.296246E-04
4.000445E+03	3.447091E-03	1.296672E-04
4.010371E+03	3.450161E-03	1.297046E-04
4.020298E+03	3.453001E-03	1.297331E-04
4.030225E+03	3.455621E-03	1.297533E-04
4.040151E+03	3.458128E-03	1.297690E-04
4.050078E+03	3.460532E-03	1.297808E-04
4.060005E+03	3.462651E-03	1.297817E-04
4.069931E+03	3.464597E-03	1.297761E-04
4.079858E+03	3.466383E-03	1.297644E-04
4.089785E+03	3.468024E-03	1.297471E-04
4.099711E+03	3.469444E-03	1.297215E-04
4.109638E+03	3.470753E-03	1.296918E-04
4.119565E+03	3.471880E-03	1.296552E-04
4.129491E+03	3.472762E-03	1.296094E-04
4.139418E+03	3.473590E-03	1.295616E-04
4.149345E+03	3.474218E-03	1.295063E-04
4.159271E+03	3.474672E-03	1.294446E-04
4.169198E+03	3.474899E-03	1.293744E-04
4.179125E+03	3.475085E-03	1.293027E-04
4.189051E+03	3.475099E-03	1.292248E-04
4.198978E+03	3.474973E-03	1.291416E-04
4.208905E+03	3.474735E-03	1.290544E-04
4.218831E+03	3.474343E-03	1.289615E-04
4.228758E+03	3.473829E-03	1.288642E-04
4.238685E+03	3.473153E-03	1.287610E-04
4.248611E+03	3.472425E-03	1.286560E-04
4.258538E+03	3.471604E-03	1.285477E-04
4.268465E+03	3.470724E-03	1.284373E-04
4.278391E+03	3.469681E-03	1.283211E-04
4.288318E+03	3.468648E-03	1.282053E-04
4.298245E+03	3.467452E-03	1.280838E-04
4.308171E+03	3.466265E-03	1.279627E-04
4.318098E+03	3.464983E-03	1.278384E-04
4.328025E+03	3.463640E-03	1.277119E-04
4.337951E+03	3.462266E-03	1.275846E-04
4.347878E+03	3.460826E-03	1.274550E-04
4.357805E+03	3.459349E-03	1.273244E-04
4.367731E+03	3.457801E-03	1.271913E-04
4.377658E+03	3.456209E-03	1.270568E-04
4.387585E+03	3.454599E-03	1.269220E-04
4.397511E+03	3.452934E-03	1.267854E-04
4.407438E+03	3.451300E-03	1.266502E-04
4.417365E+03	3.449541E-03	1.265106E-04
4.427291E+03	3.447799E-03	1.263720E-04
4.437218E+03	3.446040E-03	1.262330E-04
4.447144E+03	3.444283E-03	1.260944E-04
4.457071E+03	3.442438E-03	1.259529E-04
4.466998E+03	3.440640E-03	1.258134E-04
4.476924E+03	3.438855E-03	1.256746E-04
4.486851E+03	3.437045E-03	1.255353E-04
4.496778E+03	3.435233E-03	1.253962E-04
4.506704E+03	3.433492E-03	1.252600E-04
4.516631E+03	3.431732E-03	1.251234E-04
4.526558E+03	3.430030E-03	1.249892E-04
4.536484E+03	3.428398E-03	1.248580E-04
4.546411E+03	3.426804E-03	1.247284E-04
4.556338E+03	3.425263E-03	1.246011E-04
4.566264E+03	3.423793E-03	1.244767E-04
4.576191E+03	3.422458E-03	1.243575E-04
4.586118E+03	3.421221E-03	1.242422E-04
4.596044E+03	3.420045E-03	1.241295E-04
4.605971E+03	3.419044E-03	1.240234E-04
4.615898E+03	3.418128E-03	1.239208E-04
4.625824E+03	3.417357E-03	1.238238E-04
4.635751E+03	3.416743E-03	1.237327E-04
4.645678E+03	3.416293E-03	1.236480E-04
4.655604E+03	3.415964E-03	1.235680E-04
4.665531E+03	3.415864E-03	1.234965E-04
4.675458E+03	3.415898E-03	1.234303E-04
4.685384E+03	3.416169E-03	1.233729E-04
4.695311E+03	3.416584E-03	1.233211E-04
4.705238E+03	3.417241E-03	1.232783E-04
4.715164E+03	3.418094E-03	1.232429E-04
4.725091E+03	3.419142E-03	1.232149E-04
4.735018E+03	3.420386E-03	1.231942E-04
4.744944E+03	3.421918E-03	1.231843E-04
4.754871E+03	3.423642E-03	1.231816E-04
4.764798E+03	3.425601E-03	1.231876E-04
4.774724E+03	3.427792E-03	1.232023E-04
4.784651E+03	3.430209E-03	1.232254E-04
4.794578E+03	3.432893E-03	1.232585E-04
4.804504E+03	3.435793E-03	1.232996E-04
4.814431E+03	3.438949E-03	1.233502E-04
4.824358E+03	3.442399E-03	1.234116E-04
4.834284E+03	3.446044E-03	1.234804E-04
4.844211E+03	3.449971E-03	1.235596E-04
4.854138E+03	3.454173E-03	1.236489E-04
4.864064E+03	3.458640E-03	1.237480E-04
4.873991E+03	3.463363E-03	1.238565E-04
4.883918E+03	3.468381E-03	1.239759E-04
4.893844E+03	3.473636E-03	1.241040E-04
4.903771E+03	3.479161E-03	1.242420E-04
4.913698E+03	3.484991E-03	1.243912E-04
4.923624E+03	3.491020E-03	1.245478E-04
4.933551E+03	3.497367E-03	1.247160E-04
4.943478E+03	3.503926E-03	1.248919E-04
4.953404E+03	3.510723E-03	1.250766E-04
4.963331E+03	3.517738E-03	1.252694E-04
4.973258E+03	3.524996E-03	1.254710E-04
4.983184E+03	3.532425E-03	1.256790E-04
4.993111E+03	3.540095E-03	1.258957E-04
5.003038E+03	3.547887E-03	1.261171E-04
5.012964E+03	3.555821E-03	1.263438E-04
5.022891E+03	3.563869E-03	1.265748E-04
5.032818E+03	3.572045E-03	1.268106E-04
5.042744E+03	3.580320E-03	1.270501E-04
5.052671E+03	3.588617E-03	1.272907E-04
5.062598E+03	3.596903E-03	1.275312E-04
5.072524E+03	3.605235E-03	1.277736E-04
5.082451E+03	3.613486E-03	1.280134E-04
5.092378E+03	3.621711E-03	1.282526E-04
5.102304E+03	3.629781E-03	1.284867E-04
5.112231E+03	3.637703E-03	1.287158E-04
5.122158E+03	3.645483E-03	1.289401E-04
5.132084E+03	3.652989E-03	1.291552E-04
5.142011E+03	3.660270E-03	1.293626E-04
5.151937E+03	3.667240E-03	1.295595E-04
5.161864E+03	3.673809E-03	1.297425E-04
5.171791E+03	3.680028E-03	1.299137E-04
5.181717E+03	3.685766E-03	1.300682E-04
5.191644E+03	3.691073E-03	1.302080E-04
5.201571E+03	3.695818E-03	1.303285E-04
5.211497E+03	3.699965E-03	1.304283E-04
5.221424E+03	3.703570E-03	1.305096E-04
5.231351E+03	3.706465E-03	1.305663E-04
5.241277E+03	3.708709E-03	1.306007E-04
5.251204E+03	3.710230E-03	1.306103E-04
5.261131E+03	3.711048E-03	1.305956E-04
5.271057E+03	3.711051E-03	1.305529E-04
5.280984E+03	3.710220E-03	1.304816E-04
5.290911E+03	3.708631E-03	1.303842E-04
5.300837E+03	3.706135E-03	1.302557E-04
5.310764E+03	3.702813E-03	1.300989E-04
5.320691E+03	3.698612E-03	1.299119E-04
5.330617E+03	3.693529E-03	1.296947E-04
5.340544E+03	3.687516E-03	1.294457E-04
5.350471E+03	3.680664E-03	1.291680E-04
5.360397E+03	3.672846E-03	1.288572E-04
5.370324E+03	3.664156E-03	1.285167E-04
5.380251E+03	3.654561E-03	1.281452E-04
5.390177E+03	3.644073E-03	1.277432E-04
5.400104E+03	3.632707E-03	1.273114E-04
5.410031E+03	3.620482E-03	1.268502E-04
5.419957E+03	3.607415E-03	1.263604E-04
5.429884E+03	3.593484E-03	1.258412E-04
5.439811E+03	3.578796E-03	1.252964E-04
5.449737E+03	3.563289E-03	1.247237E-04
5.459664E+03	3.547031E-03	1.241256E-04
5.469591E+03	3.530047E-03	1.235029E-04
5.479517E+03	3.512364E-03	1.228566E-04
5.489444E+03	3.494009E-03	1.221878E-04
5.499371E+03	3.475057E-03	1.214988E-04
5.509297E+03	3.455496E-03	1.207894E-04
5.519224E+03	3.435358E-03	1.200607E-04
5.529151E+03	3.414721E-03	1.193153E-04
5.539077E+03	3.393619E-03	1.185546E-04
5.549004E+03	3.372131E-03	1.177812E-04
5.558931E+03	3.350215E-03	1.169936E-04
5.568857E+03	3.328032E-03	1.161976E-04
5.578784E+03	3.305545E-03	1.153916E-04
5.588711E+03	3.282834E-03	1.145787E-04
5.598637E+03	3.259945E-03	1.137603E-04
5.608564E+03	3.236961E-03	1.129394E-04
5.618491E+03	3.213886E-03	1.121160E-04
5.628417E+03	3.190804E-03	1.112931E-04
5.638344E+03	3.167796E-03	1.104736E-04
5.648271E+03	3.144867E-03	1.096574E-04
5.658197E+03	3.122056E-03	1.088462E-04
5.668124E+03	3.099440E-03	1.080423E-04
5.678051E+03	3.077058E-03	1.072473E-04
5.687977E+03	3.054941E-03	1.064622E-04
5.697904E+03	3.033121E-03	1.056881E-04
5.707831E+03	3.011662E-03	1.049271E-04
5.717757E+03	2.990550E-03	1.041789E-04
5.727684E+03	2.969807E-03	1.034441E-04
5.737611E+03	2.949484E-03	1.027246E-04
5.747537E+03	2.929632E-03	1.020220E-04
5.757464E+03	2.910152E-03	1.013329E-04
5.767391E+03	2.891158E-03	1.006613E-04
5.777317E+03	2.872617E-03	1.000059E-04
5.787244E+03	2.854529E-03	9.936692E-05
5.797171E+03	2.836891E-03	9.874408E-05
5.807097E+03	2.819701E-03	9.813732E-05
5.817024E+03	2.802952E-03	9.754639E-05
5.826950E+03	2.786636E-03	9.697101E-05
5.836877E+03	2.770745E-03	9.641087E-05
5.846804E+03	2.755302E-03	9.586678E-05
5.856730E+03	2.740231E-03	9.533608E-05
5.866657E+03	2.725556E-03	9.481960E-05
5.876584E+03	2.711266E-03	9.431695E-05
5.886510E+03	2.697355E-03	9.382791E-05
5.896437E+03	2.683781E-03	9.335101E-05
5.906364E+03	2.670571E-03	9.288719E-05
5.916290E+03	2.657720E-03	9.243626E-05
5.926217E+03	2.645193E-03	9.199699E-05
5.936144E+03	2.632989E-03	9.156934E-05
5.946070E+03	2.621140E-03	9.115441E-05
5.955997E+03	2.609615E-03	9.075116E-05
5.965924E+03	2.598416E-03	9.035962E-05
5.975850E+03	2.587550E-03	8.998003E-05
5.985777E+03	2.576988E-03	8.961134E-05
5.995704E+03	2.566799E-03	8.925605E-05
6.005630E+03	2.556894E-03	8.891096E-05
6.015557E+03	2.547375E-03	8.857962E-05
6.025484E+03	2.538149E-03	8.825888E-05
6.035410E+03	2.529285E-03	8.795105E-05
6.045337E+03	2.520754E-03	8.765515E-05
6.055264E+03	2.512556E-03	8.737118E-05
6.065190E+03	2.504692E-03	8.709914E-05
6.075117E+03	2.497156E-03	8.683888E-05
6.085044E+03	2.489912E-03	8.658910E-05
6.094970E+03	2.482983E-03	8.635063E-05
6.104897E+03	2.476328E-03	8.612202E-05
6.114824E+03	2.469962E-03	8.590379E-05
6.124750E+03	2.463841E-03	8.569440E-05
6.134677E+03	2.457974E-03	8.549415E-05
6.144604E+03	2.452309E-03	8.530123E-05
6.154530E+03	2.446823E-03	8.511484E-05
6.164457E+03	2.441488E-03	8.493403E-05
6.174384E+03	2.436277E-03	8.475779E-05
6.184310E+03	2.431191E-03	8.458620E-05
6.194237E+03	2.426138E-03	8.441602E-05
6.204164E+03	2.421148E-03	8.424829E-05
6.214090E+03	2.416157E-03	8.408083E-05
6.224017E+03	2.411102E-03	8.391138E-05
6.233944E+03	2.406015E-03	8.374108E-05
6.243870E+03	2.400833E-03	8.356769E-05
6.253797E+03	2.395525E-03	8.339018E-05
6.263724E+03	2.390064E-03	8.320758E-05
6.273650E+03	2.384452E-03	8.301997E-05
6.283577E+03	2.378603E-03	8.282430E-05
6.293504E+03	2.372554E-03	8.262190E-05
6.303430E+03	2.366251E-03	8.241085E-05
6.313357E+03	2.359703E-03	8.219146E-05
6.323284E+03	2.352862E-03	8.196207E-05
6.333210E+03	2.345706E-03	8.172190E-05
6.343137E+03	2.338253E-03	8.147156E-05
6.353064E+03	2.330456E-03	8.120941E-05
6.362990E+03	2.322363E-03	8.093712E-05
6.372917E+03	2.313903E-03	8.065217E-05
6.382844E+03	2.305096E-03	8.035528E-05
6.392770E+03	2.295934E-03	8.004615E-05
6.402697E+03	2.286383E-03	7.972361E-05
6.412624E+03	2.276530E-03	7.939065E-05
6.422550E+03	2.266285E-03	7.904413E-05
6.432477E+03	2.255711E-03	7.868623E-05
6.442404E+03	2.244782E-03	7.831605E-05
6.452330E+03	2.233536E-03	7.793491E-05
6.462257E+03	2.221983E-03	7.754313E-05
6.472184E+03	2.210106E-03	7.714012E-05
6.482110E+03	2.197980E-03	7.672852E-05
6.492037E+03	2.185566E-03	7.630687E-05
6.501963E+03	2.172971E-03	7.587900E-05
6.511890E+03	2.160130E-03	7.544255E-05
6.521817E+03	2.147125E-03	7.500041E-05
6.531743E+03	2.133982E-03	7.455348E-05
6.541670E+03	2.120727E-03	7.410269E-05
6.551597E+03	2.107389E-03	7.364899E-05
6.561523E+03	2.094023E-03	7.319433E-05
6.571450E+03	2.080598E-03	7.273764E-05
6.581377E+03	2.067230E-03	7.228292E-05
6.591303E+03	2.053887E-03	7.182908E-05
6.601230E+03	2.040624E-03	7.137806E-05
6.611157E+03	2.027466E-03	7.093071E-05
6.621083E+03	2.014439E-03	7.048792E-05
6.631010E+03	2.001593E-03	7.005144E-05
6.640937E+03	1.988924E-03	6.962116E-05
6.650863E+03	1.976480E-03	6.919876E-05
6.660790E+03	1.964283E-03	6.878498E-05
6.670717E+03	1.952352E-03	6.838050E-05
6.680643E+03	1.940706E-03	6.798603E-05
6.690570E+03	1.929363E-03	6.760213E-05
6.700497E+03	1.918368E-03	6.723044E-05
6.710423E+03	1.907710E-03	6.687055E-05
6.720350E+03	1.897430E-03	6.652393E-05
6.730277E+03	1.887517E-03	6.619014E-05
6.740203E+03	1.878009E-03	6.587062E-05
6.750130E+03	1.868947E-03	6.556671E-05
6.760057E+03	1.860287E-03	6.527692E-05
6.769983E+03	1.852064E-03	6.500251E-05
6.779910E+03	1.844316E-03	6.474478E-05
6.789837E+03	1.837021E-03	6.450299E-05
6.799763E+03	1.830184E-03	6.427732E-05
6.809690E+03	1.823838E-03	6.406892E-05
6.819617E+03	1.817956E-03	6.387691E-05
6.829543E+03	1.812569E-03	6.370232E-05
6.839470E+03	1.807648E-03	6.354419E-05
6.849397E+03	1.803219E-03	6.340344E-05
6.859323E+03	1.799279E-03	6.327993E-05
6.869250E+03	1.795794E-03	6.317253E-05
6.879177E+03	1.792758E-03	6.308105E-05
6.889103E+03	1.790216E-03	6.300705E-05
6.899030E+03	1.788107E-03	6.294837E-05
6.908957E+03	1.786442E-03	6.290549E-05
6.918883E+03	1.785183E-03	6.287700E-05
6.928810E+03	1.784340E-03	6.286334E-05
6.938737E+03	1.783897E-03	6.286390E-05
6.948663E+03	1.783807E-03	6.287706E-05
6.958590E+03	1.784076E-03	6.290307E-05
6.968517E+03	1.784657E-03	6.294023E-05
6.978443E+03	1.785551E-03	6.298859E-05
6.988370E+03	1.786677E-03	6.304537E-05
6.998297E+03	1.788093E-03	6.311257E-05
7.008223E+03	1.789688E-03	6.318626E-05
7.018150E+03	1.791487E-03	6.326738E-05
7.028077E+03	1.793432E-03	6.335387E-05
7.038003E+03	1.795466E-03	6.344374E-05
7.047930E+03	1.797612E-03	6.353779E-05
7.057857E+03	1.799782E-03	6.363291E-05
7.067783E+03	1.801973E-03	6.372904E-05
7.077710E+03	1.804124E-03	6.382397E-05
7.087637E+03	1.806230E-03	6.391752E-05
7.097563E+03	1.808230E-03	6.400761E-05
7.107490E+03	1.810120E-03	6.409400E-05
7.117417E+03	1.811811E-03	6.417362E-05
7.127343E+03	1.813299E-03	6.424629E-05
7.137270E+03	1.814552E-03	6.431084E-05
7.147197E+03	1.815510E-03	6.436520E-05
7.157123E+03	1.816172E-03	6.440927E-05
7.167050E+03	1.816449E-03	6.443997E-05
7.176976E+03	1.816371E-03	6.445826E-05
7.186903E+03	1.815882E-03	6.446217E-05
7.196830E+03	1.814924E-03	6.444968E-05
7.206756E+03	1.813502E-03	6.442090E-05
7.216683E+03	1.811593E-03	6.437500E-05
7.226610E+03	1.809119E-03	6.430921E-05
7.236536E+03	1.806115E-03	6.422475E-05
7.246463E+03	1.802509E-03	6.411904E-05
7.256390E+03	1.798314E-03	6.399252E-05
7.266316E+03	1.793518E-03	6.384479E-05
7.276243E+03	1.788087E-03	6.367451E-05
7.286170E+03	1.782012E-03	6.348145E-05
7.296096E+03	1.775295E-03	6.326559E-05
7.306023E+03	1.767938E-03	6.302697E-05
7.315950E+03	1.759946E-03	6.276580E-05
7.325876E+03	1.751331E-03	6.248241E-05
7.335803E+03	1.742080E-03	6.217638E-05
7.345730E+03	1.732238E-03	6.184924E-05
7.355656E+03	1.721802E-03	6.150088E-05
7.365583E+03	1.710823E-03	6.113309E-05
7.375510E+03	1.699303E-03	6.074593E-05
7.385436E+03	1.687277E-03	6.034060E-05
7.395363E+03	1.674803E-03	5.991918E-05
7.405290E+03	1.661866E-03	5.948109E-05
7.415216E+03	1.648556E-03	5.902951E-05
7.425143E+03	1.634886E-03	5.856494E-05
7.435070E+03	1.620921E-03	5.808962E-05
7.444996E+03	1.606649E-03	5.760316E-05
7.454923E+03	1.592158E-03	5.710870E-05
7.464850E+03	1.577464E-03	5.660676E-05
7.474776E+03	1.562603E-03	5.609865E-05
7.484703E+03	1.547635E-03	5.558649E-05
7.494630E+03	1.532570E-03	5.507062E-05
7.504556E+03	1.517465E-03	5.455304E-05
7.514483E+03	1.502323E-03	5.403393E-05
7.524410E+03	1.487198E-03	5.351516E-05
7.534336E+03	1.472115E-03	5.299764E-05
7.544263E+03	1.457074E-03	5.248134E-05
7.554190E+03	1.442119E-03	5.196783E-05
7.564116E+03	1.427267E-03	5.145778E-05
7.574043E+03	1.412536E-03	5.095177E-05
7.583970E+03	1.397939E-03	5.045024E-05
7.593896E+03	1.383487E-03	4.995366E-05
7.603823E+03	1.369188E-03	4.946230E-05
7.613750E+03	1.355053E-03	4.897651E-05
7.623676E+03	1.341085E-03	4.849644E-05
7.633603E+03	1.327309E-03	4.802299E-05
7.643530E+03	1.313688E-03	4.755480E-05
7.653456E+03	1.300263E-03	4.709338E-05
7.663383E+03	1.287015E-03	4.663802E-05
7.673310E+03	1.273964E-03	4.618946E-05
7.683236E+03	1.261068E-03	4.574618E-05
7.693163E+03	1.248366E-03	4.530959E-05
7.703090E+03	1.235836E-03	4.487888E-05
