#wls	flux	fluxerr
1.591305E+03	1.295868E-02	2.838395E-04
1.631088E+03	1.235113E-02	2.674356E-04
1.670870E+03	1.165806E-02	2.494790E-04
1.710653E+03	1.088720E-02	2.302043E-04
1.750436E+03	1.005201E-02	2.099590E-04
1.790218E+03	9.160172E-03	1.889581E-04
1.830001E+03	8.224520E-03	1.675136E-04
1.869784E+03	7.263269E-03	1.460320E-04
1.909566E+03	6.296945E-03	1.249462E-04
1.949349E+03	5.354071E-03	1.048235E-04
1.989131E+03	4.467935E-03	8.629180E-05
2.028914E+03	3.675814E-03	7.001886E-05
2.068697E+03	3.011409E-03	5.656470E-05
2.108479E+03	2.500913E-03	4.631364E-05
2.148262E+03	2.156600E-03	3.936779E-05
2.188045E+03	1.970566E-03	3.545329E-05
2.227827E+03	1.929299E-03	3.420581E-05
2.267610E+03	2.029705E-03	3.545820E-05
2.307392E+03	2.282925E-03	3.929318E-05
2.347175E+03	2.718723E-03	4.609991E-05
2.386958E+03	3.388993E-03	5.660923E-05
2.426740E+03	4.368273E-03	7.187458E-05
2.466523E+03	5.750797E-03	9.319768E-05
2.506306E+03	7.638473E-03	1.219137E-04
2.546088E+03	1.012375E-02	1.591143E-04
2.585871E+03	1.326738E-02	2.053160E-04
2.625653E+03	1.708178E-02	2.602463E-04
2.665436E+03	2.147196E-02	3.220159E-04
2.705219E+03	2.621632E-02	3.869628E-04
2.745001E+03	3.102455E-02	4.506406E-04
2.784784E+03	3.559054E-02	5.086522E-04
2.824567E+03	3.964918E-02	5.574634E-04
2.864349E+03	4.302219E-02	5.949842E-04
2.904132E+03	4.563845E-02	6.207438E-04
2.943914E+03	4.753139E-02	6.357287E-04
2.983697E+03	4.881418E-02	6.419395E-04
2.993643E+03	4.905982E-02	6.424373E-04
3.003588E+03	4.927966E-02	6.425789E-04
3.013534E+03	4.947879E-02	6.424349E-04
3.023480E+03	4.965977E-02	6.420422E-04
3.033425E+03	4.982919E-02	6.414890E-04
3.043371E+03	4.999373E-02	6.408631E-04
3.053317E+03	5.015343E-02	6.401660E-04
3.063262E+03	5.031384E-02	6.394689E-04
3.073208E+03	5.047519E-02	6.387745E-04
3.083154E+03	5.064209E-02	6.381409E-04
3.093099E+03	5.081605E-02	6.375858E-04
3.103045E+03	5.099977E-02	6.371419E-04
3.112991E+03	5.119791E-02	6.368654E-04
3.122936E+03	5.141132E-02	6.367644E-04
3.132882E+03	5.164579E-02	6.369082E-04
3.142828E+03	5.190135E-02	6.372936E-04
3.152773E+03	5.218395E-02	6.379897E-04
3.162719E+03	5.249475E-02	6.390069E-04
3.172665E+03	5.283890E-02	6.404026E-04
3.182610E+03	5.321873E-02	6.422001E-04
3.192556E+03	5.363862E-02	6.444465E-04
3.202502E+03	5.410208E-02	6.471773E-04
3.212447E+03	5.461273E-02	6.504291E-04
3.222393E+03	5.517347E-02	6.542291E-04
3.232339E+03	5.579003E-02	6.586372E-04
3.242284E+03	5.646549E-02	6.636812E-04
3.252230E+03	5.720493E-02	6.694118E-04
3.262175E+03	5.801169E-02	6.758579E-04
3.272121E+03	5.889011E-02	6.830603E-04
3.282067E+03	5.984551E-02	6.910694E-04
3.292012E+03	6.088145E-02	6.999149E-04
3.301958E+03	6.200326E-02	7.096458E-04
3.311904E+03	6.321523E-02	7.202987E-04
3.321849E+03	6.451974E-02	7.318871E-04
3.331795E+03	6.592256E-02	7.444630E-04
3.341741E+03	6.742630E-02	7.580414E-04
3.351686E+03	6.903403E-02	7.726424E-04
3.361632E+03	7.074824E-02	7.882790E-04
3.371578E+03	7.256883E-02	8.049348E-04
3.381523E+03	7.449870E-02	8.226271E-04
3.391469E+03	7.653702E-02	8.413317E-04
3.401415E+03	7.868219E-02	8.610162E-04
3.411360E+03	8.093283E-02	8.816510E-04
3.421306E+03	8.328657E-02	9.031962E-04
3.431252E+03	8.573624E-02	9.255610E-04
3.441197E+03	8.827071E-02	9.486134E-04
3.451143E+03	9.086534E-02	9.720790E-04
3.461089E+03	9.349625E-02	9.956967E-04
3.471034E+03	9.615371E-02	1.019360E-03
3.480980E+03	9.882879E-02	1.042974E-03
3.490926E+03	1.015052E-01	1.066365E-03
3.500871E+03	1.041584E-01	1.089282E-03
3.510817E+03	1.067536E-01	1.111365E-03
3.520763E+03	1.092471E-01	1.132173E-03
3.530708E+03	1.115899E-01	1.151214E-03
3.540654E+03	1.137259E-01	1.167935E-03
3.550600E+03	1.155978E-01	1.181779E-03
3.560545E+03	1.171489E-01	1.192206E-03
3.570491E+03	1.183315E-01	1.198778E-03
3.580436E+03	1.191054E-01	1.201140E-03
3.590382E+03	1.194437E-01	1.199077E-03
3.600328E+03	1.193270E-01	1.192457E-03
3.610273E+03	1.187514E-01	1.181300E-03
3.620219E+03	1.177230E-01	1.165728E-03
3.630165E+03	1.162647E-01	1.146030E-03
3.640110E+03	1.144128E-01	1.122617E-03
3.650056E+03	1.122183E-01	1.096039E-03
3.660002E+03	1.097481E-01	1.066993E-03
3.669947E+03	1.070820E-01	1.036285E-03
3.679893E+03	1.043108E-01	1.004816E-03
3.689839E+03	1.015376E-01	9.735870E-04
3.699784E+03	9.886765E-02	9.436015E-04
3.709730E+03	9.640789E-02	9.158602E-04
3.719676E+03	9.426015E-02	8.912971E-04
3.729621E+03	9.252082E-02	8.707776E-04
3.739567E+03	9.128117E-02	8.551019E-04
3.749513E+03	9.062863E-02	8.450191E-04
3.759458E+03	9.064638E-02	8.412238E-04
3.769404E+03	9.141705E-02	8.443912E-04
3.779350E+03	9.302005E-02	8.551537E-04
3.789295E+03	9.553465E-02	8.741283E-04
3.799241E+03	9.903360E-02	9.018603E-04
3.809187E+03	1.035723E-01	9.387260E-04
3.819132E+03	1.091827E-01	9.848802E-04
3.829078E+03	1.158649E-01	1.040188E-03
3.839024E+03	1.235593E-01	1.103984E-03
3.848969E+03	1.321468E-01	1.175082E-03
3.858915E+03	1.414364E-01	1.251682E-03
3.868861E+03	1.511720E-01	1.331442E-03
3.878806E+03	1.610288E-01	1.411468E-03
3.888752E+03	1.706457E-01	1.488598E-03
3.898698E+03	1.796562E-01	1.559688E-03
3.908643E+03	1.877215E-01	1.621893E-03
3.918589E+03	1.945652E-01	1.672961E-03
3.928534E+03	2.000160E-01	1.711582E-03
3.938480E+03	2.040110E-01	1.737402E-03
3.948426E+03	2.066033E-01	1.751054E-03
3.958371E+03	2.079516E-01	1.754052E-03
3.968317E+03	2.082983E-01	1.748586E-03
3.978263E+03	2.079287E-01	1.737165E-03
3.988208E+03	2.071447E-01	1.722387E-03
3.998154E+03	2.062348E-01	1.706692E-03
4.008100E+03	2.054414E-01	1.692093E-03
4.018045E+03	2.049292E-01	1.679929E-03
4.027991E+03	2.048026E-01	1.671025E-03
4.037937E+03	2.051049E-01	1.665689E-03
4.047882E+03	2.058273E-01	1.663806E-03
4.057828E+03	2.069194E-01	1.664929E-03
4.067774E+03	2.083012E-01	1.668380E-03
4.077719E+03	2.098714E-01	1.673326E-03
4.087665E+03	2.115170E-01	1.678857E-03
4.097611E+03	2.131278E-01	1.684100E-03
4.107556E+03	2.145969E-01	1.688227E-03
4.117502E+03	2.158301E-01	1.690520E-03
4.127448E+03	2.167398E-01	1.690329E-03
4.137393E+03	2.172528E-01	1.687123E-03
4.147339E+03	2.173081E-01	1.680479E-03
4.157285E+03	2.168554E-01	1.670058E-03
4.167230E+03	2.158633E-01	1.655673E-03
4.177176E+03	2.143169E-01	1.637264E-03
4.187122E+03	2.122292E-01	1.614984E-03
4.197067E+03	2.096373E-01	1.589163E-03
4.207013E+03	2.066062E-01	1.560335E-03
4.216959E+03	2.032182E-01	1.529156E-03
4.226904E+03	1.995740E-01	1.496408E-03
4.236850E+03	1.957808E-01	1.462908E-03
4.246796E+03	1.919483E-01	1.429480E-03
4.256741E+03	1.881755E-01	1.396857E-03
4.266687E+03	1.845491E-01	1.365671E-03
4.276632E+03	1.811318E-01	1.336370E-03
4.286578E+03	1.779594E-01	1.309196E-03
4.296524E+03	1.750431E-01	1.284212E-03
4.306469E+03	1.723680E-01	1.261290E-03
4.316415E+03	1.698911E-01	1.240095E-03
4.326361E+03	1.675505E-01	1.220157E-03
4.336306E+03	1.652698E-01	1.200906E-03
4.346252E+03	1.630319E-01	1.182207E-03
4.356198E+03	1.609596E-01	1.164939E-03
4.366143E+03	1.591787E-01	1.149992E-03
4.376089E+03	1.577406E-01	1.137714E-03
4.386035E+03	1.566416E-01	1.128056E-03
4.395980E+03	1.558856E-01	1.121026E-03
4.405926E+03	1.556203E-01	1.117667E-03
4.415872E+03	1.560253E-01	1.119246E-03
4.425817E+03	1.572377E-01	1.126725E-03
4.435763E+03	1.593374E-01	1.140651E-03
4.445709E+03	1.623494E-01	1.161185E-03
4.455654E+03	1.662494E-01	1.188134E-03
4.465600E+03	1.709579E-01	1.220919E-03
4.475546E+03	1.763452E-01	1.258600E-03
4.485491E+03	1.822270E-01	1.299859E-03
4.495437E+03	1.883709E-01	1.343035E-03
4.505383E+03	1.945036E-01	1.386178E-03
4.515328E+03	2.003303E-01	1.427191E-03
4.525274E+03	2.055687E-01	1.464065E-03
4.535220E+03	2.099563E-01	1.494934E-03
4.545165E+03	2.132747E-01	1.518244E-03
4.555111E+03	2.153645E-01	1.532863E-03
4.565057E+03	2.161382E-01	1.538166E-03
4.575002E+03	2.155660E-01	1.533939E-03
4.584948E+03	2.136853E-01	1.520445E-03
4.594894E+03	2.105818E-01	1.498286E-03
4.604839E+03	2.063896E-01	1.468410E-03
4.614785E+03	2.012757E-01	1.432000E-03
4.624730E+03	1.954324E-01	1.390417E-03
4.634676E+03	1.890558E-01	1.345049E-03
4.644622E+03	1.823464E-01	1.297317E-03
4.654567E+03	1.754888E-01	1.248530E-03
4.664513E+03	1.686466E-01	1.199848E-03
4.674459E+03	1.619609E-01	1.152271E-03
4.684404E+03	1.555405E-01	1.106571E-03
4.694350E+03	1.494691E-01	1.063342E-03
4.704296E+03	1.438014E-01	1.022971E-03
4.714241E+03	1.385720E-01	9.857026E-04
4.724187E+03	1.337921E-01	9.516171E-04
4.734133E+03	1.294610E-01	9.207075E-04
4.744078E+03	1.255632E-01	8.928626E-04
4.754024E+03	1.220772E-01	8.679292E-04
4.763970E+03	1.189739E-01	8.456989E-04
4.773915E+03	1.162231E-01	8.259561E-04
4.783861E+03	1.137962E-01	8.084969E-04
4.793807E+03	1.116689E-01	7.931475E-04
4.803752E+03	1.098214E-01	7.797652E-04
4.813698E+03	1.082377E-01	7.682346E-04
4.823644E+03	1.069083E-01	7.584885E-04
4.833589E+03	1.058244E-01	7.504609E-04
4.843535E+03	1.049726E-01	7.440560E-04
4.853481E+03	1.043349E-01	7.391434E-04
4.863426E+03	1.038877E-01	7.355543E-04
4.873372E+03	1.035982E-01	7.330544E-04
4.883318E+03	1.034320E-01	7.313991E-04
4.893263E+03	1.033501E-01	7.303101E-04
4.903209E+03	1.033162E-01	7.295310E-04
4.913155E+03	1.033040E-01	7.288751E-04
4.923100E+03	1.032965E-01	7.282230E-04
4.933046E+03	1.032899E-01	7.275490E-04
4.942991E+03	1.032992E-01	7.269576E-04
4.952937E+03	1.033507E-01	7.266355E-04
4.962883E+03	1.034869E-01	7.268805E-04
4.972828E+03	1.037568E-01	7.280356E-04
4.982774E+03	1.042142E-01	7.304766E-04
4.992720E+03	1.049143E-01	7.345855E-04
5.002665E+03	1.059051E-01	7.406940E-04
5.012611E+03	1.072279E-01	7.490839E-04
5.022557E+03	1.089128E-01	7.599591E-04
5.032502E+03	1.109764E-01	7.734267E-04
5.042448E+03	1.134198E-01	7.894848E-04
5.052394E+03	1.162312E-01	8.080436E-04
5.062339E+03	1.193807E-01	8.288861E-04
5.072285E+03	1.228218E-01	8.516830E-04
5.082231E+03	1.264879E-01	8.759659E-04
5.092176E+03	1.302947E-01	9.011478E-04
5.102122E+03	1.341346E-01	9.264847E-04
5.112068E+03	1.378892E-01	9.511613E-04
5.122013E+03	1.414231E-01	9.742504E-04
5.131959E+03	1.445983E-01	9.948128E-04
5.141905E+03	1.472748E-01	1.011900E-03
5.151850E+03	1.493218E-01	1.024633E-03
5.161796E+03	1.506276E-01	1.032268E-03
5.171742E+03	1.511004E-01	1.034201E-03
5.181687E+03	1.506810E-01	1.030053E-03
5.191633E+03	1.493493E-01	1.019714E-03
5.201579E+03	1.471325E-01	1.003398E-03
5.211524E+03	1.441132E-01	9.816895E-04
5.221470E+03	1.404224E-01	9.555017E-04
5.231416E+03	1.362380E-01	9.260598E-04
5.241361E+03	1.317699E-01	8.948003E-04
5.251307E+03	1.272449E-01	8.632663E-04
5.261253E+03	1.228865E-01	8.329737E-04
5.271198E+03	1.189008E-01	8.053135E-04
5.281144E+03	1.154638E-01	7.814687E-04
5.291089E+03	1.127059E-01	7.623125E-04
5.301035E+03	1.107057E-01	7.483670E-04
5.310981E+03	1.094897E-01	7.398036E-04
5.320926E+03	1.090322E-01	7.364420E-04
5.330872E+03	1.092465E-01	7.376945E-04
5.340818E+03	1.099911E-01	7.426073E-04
5.350763E+03	1.110746E-01	7.498910E-04
5.360709E+03	1.122627E-01	7.579714E-04
5.370655E+03	1.132845E-01	7.650258E-04
5.380600E+03	1.138606E-01	7.691716E-04
5.390546E+03	1.137253E-01	7.686162E-04
5.400492E+03	1.126718E-01	7.619520E-04
5.410437E+03	1.106205E-01	7.486243E-04
5.420383E+03	1.077162E-01	7.295901E-04
5.430329E+03	1.043055E-01	7.071755E-04
5.440274E+03	1.008192E-01	6.842829E-04
5.450220E+03	9.764764E-02	6.635523E-04
5.460166E+03	9.510422E-02	6.471143E-04
5.470111E+03	9.340309E-02	6.364366E-04
5.480057E+03	9.266039E-02	6.323301E-04
5.490003E+03	9.291406E-02	6.350796E-04
5.499948E+03	9.413969E-02	6.445490E-04
5.509894E+03	9.625420E-02	6.602019E-04
5.519840E+03	9.912576E-02	6.811665E-04
5.529785E+03	1.025817E-01	7.062854E-04
5.539731E+03	1.064174E-01	7.341740E-04
5.549677E+03	1.104031E-01	7.632622E-04
5.559622E+03	1.143119E-01	7.919883E-04
5.569568E+03	1.179334E-01	8.188918E-04
5.579514E+03	1.210954E-01	8.427624E-04
5.589459E+03	1.236701E-01	8.626882E-04
5.599405E+03	1.255774E-01	8.780809E-04
5.609351E+03	1.267921E-01	8.887312E-04
5.619296E+03	1.273252E-01	8.946792E-04
5.629242E+03	1.272200E-01	8.961924E-04
5.639187E+03	1.265481E-01	8.937411E-04
5.649133E+03	1.253886E-01	8.878500E-04
5.659079E+03	1.238307E-01	8.791240E-04
5.669024E+03	1.219661E-01	8.681897E-04
5.678970E+03	1.198852E-01	8.556715E-04
5.688916E+03	1.176766E-01	8.421881E-04
5.698861E+03	1.154257E-01	8.283416E-04
5.708807E+03	1.132146E-01	8.147171E-04
5.718753E+03	1.111196E-01	8.018653E-04
5.728698E+03	1.092062E-01	7.902643E-04
5.738644E+03	1.075362E-01	7.803713E-04
5.748590E+03	1.061544E-01	7.725255E-04
5.758535E+03	1.050978E-01	7.670136E-04
5.768481E+03	1.043857E-01	7.639957E-04
5.778427E+03	1.040241E-01	7.635353E-04
5.788372E+03	1.040028E-01	7.655802E-04
5.798318E+03	1.042991E-01	7.699829E-04
5.808264E+03	1.048747E-01	7.764796E-04
5.818209E+03	1.056821E-01	7.847359E-04
5.828155E+03	1.066688E-01	7.943764E-04
5.838101E+03	1.077794E-01	8.049986E-04
5.848046E+03	1.089543E-01	8.161647E-04
5.857992E+03	1.101411E-01	8.274858E-04
5.867938E+03	1.112880E-01	8.385721E-04
5.877883E+03	1.123486E-01	8.490722E-04
5.887829E+03	1.132768E-01	8.586312E-04
5.897775E+03	1.140242E-01	8.668728E-04
5.907720E+03	1.145413E-01	8.734080E-04
5.917666E+03	1.147707E-01	8.777827E-04
5.927612E+03	1.146449E-01	8.794604E-04
5.937557E+03	1.140924E-01	8.778676E-04
5.947503E+03	1.130307E-01	8.723382E-04
5.957449E+03	1.113802E-01	8.622199E-04
5.967394E+03	1.090678E-01	8.469052E-04
5.977340E+03	1.060403E-01	8.259303E-04
5.987285E+03	1.022791E-01	7.990992E-04
5.997231E+03	9.780777E-02	7.665427E-04
6.007177E+03	9.271038E-02	7.288672E-04
6.017122E+03	8.712121E-02	6.870837E-04
6.027068E+03	8.121705E-02	6.425514E-04
6.037014E+03	7.519265E-02	5.967888E-04
6.046959E+03	6.924482E-02	5.513502E-04
6.056905E+03	6.355181E-02	5.076614E-04
6.066851E+03	5.826236E-02	4.669302E-04
6.076796E+03	5.349281E-02	4.301196E-04
6.086742E+03	4.932252E-02	3.979073E-04
6.096688E+03	4.580386E-02	3.707620E-04
6.106633E+03	4.296578E-02	3.489686E-04
6.116579E+03	4.082393E-02	3.327087E-04
6.126525E+03	3.938379E-02	3.220831E-04
6.136470E+03	3.865144E-02	3.172002E-04
6.146416E+03	3.863326E-02	3.181731E-04
6.156362E+03	3.933807E-02	3.251375E-04
6.166307E+03	4.077219E-02	3.382112E-04
6.176253E+03	4.294016E-02	3.575004E-04
6.186199E+03	4.583855E-02	3.830470E-04
6.196144E+03	4.944533E-02	4.147390E-04
6.206090E+03	5.370916E-02	4.522172E-04
6.216036E+03	5.853935E-02	4.947855E-04
6.225981E+03	6.380582E-02	5.414039E-04
6.235927E+03	6.933014E-02	5.906043E-04
6.245873E+03	7.490499E-02	6.406467E-04
6.255818E+03	8.031229E-02	6.896705E-04
6.265764E+03	8.533735E-02	7.358132E-04
6.275710E+03	8.979194E-02	7.774099E-04
6.285655E+03	9.352807E-02	8.131171E-04
6.295601E+03	9.644606E-02	8.419897E-04
6.305546E+03	9.849171E-02	8.634644E-04
6.315492E+03	9.965996E-02	8.774005E-04
6.325438E+03	9.998443E-02	8.839967E-04
6.335383E+03	9.953134E-02	8.837442E-04
6.345329E+03	9.839200E-02	8.773666E-04
6.355275E+03	9.667887E-02	8.657893E-04
6.365220E+03	9.452227E-02	8.501152E-04
6.375166E+03	9.206921E-02	8.316173E-04
6.385112E+03	8.947328E-02	8.116508E-04
6.395057E+03	8.688891E-02	7.916024E-04
6.405003E+03	8.447665E-02	7.729394E-04
6.414949E+03	8.238069E-02	7.570041E-04
6.424894E+03	8.072197E-02	7.449475E-04
6.434840E+03	7.953597E-02	7.371479E-04
6.444786E+03	7.874609E-02	7.329464E-04
6.454731E+03	7.825960E-02	7.315217E-04
6.464677E+03	7.798649E-02	7.320632E-04
6.474623E+03	7.784617E-02	7.338351E-04
6.484568E+03	7.776501E-02	7.361548E-04
6.494514E+03	7.768874E-02	7.385118E-04
6.504460E+03	7.756952E-02	7.404486E-04
6.514405E+03	7.737468E-02	7.416457E-04
6.524351E+03	7.708152E-02	7.418742E-04
6.534297E+03	7.667559E-02	7.409817E-04
6.544242E+03	7.615270E-02	7.389128E-04
6.554188E+03	7.551401E-02	7.356644E-04
6.564134E+03	7.476479E-02	7.312732E-04
6.574079E+03	7.391488E-02	7.258222E-04
6.584025E+03	7.297686E-02	7.194232E-04
6.593971E+03	7.196581E-02	7.122145E-04
6.603916E+03	7.089377E-02	7.043070E-04
6.613862E+03	6.977625E-02	6.958481E-04
6.623808E+03	6.862672E-02	6.869672E-04
6.633753E+03	6.745654E-02	6.777749E-04
6.643699E+03	6.627810E-02	6.683938E-04
6.653644E+03	6.509997E-02	6.589099E-04
6.663590E+03	6.393170E-02	6.494205E-04
6.673536E+03	6.277824E-02	6.399773E-04
6.683481E+03	6.164667E-02	6.306549E-04
6.693427E+03	6.054307E-02	6.215183E-04
6.703373E+03	5.946977E-02	6.125951E-04
6.713318E+03	5.843165E-02	6.039394E-04
6.723264E+03	5.743118E-02	5.955810E-04
6.733210E+03	5.647242E-02	5.875665E-04
6.743155E+03	5.555721E-02	5.799201E-04
6.753101E+03	5.468766E-02	5.726689E-04
6.763047E+03	5.386636E-02	5.658450E-04
6.772992E+03	5.309206E-02	5.594408E-04
6.782938E+03	5.236673E-02	5.534821E-04
6.792884E+03	5.168742E-02	5.479430E-04
6.802829E+03	5.105422E-02	5.428292E-04
6.812775E+03	5.046274E-02	5.380989E-04
6.822721E+03	4.991003E-02	5.337247E-04
6.832666E+03	4.939353E-02	5.296833E-04
6.842612E+03	4.890985E-02	5.259417E-04
6.852558E+03	4.845371E-02	5.224465E-04
6.862503E+03	4.802384E-02	5.191868E-04
6.872449E+03	4.761636E-02	5.161230E-04
6.882395E+03	4.722970E-02	5.132403E-04
6.892340E+03	4.685977E-02	5.104964E-04
6.902286E+03	4.650560E-02	5.078824E-04
6.912232E+03	4.616549E-02	5.053813E-04
6.922177E+03	4.583712E-02	5.029691E-04
6.932123E+03	4.552012E-02	5.006431E-04
6.942069E+03	4.521343E-02	4.983927E-04
6.952014E+03	4.491524E-02	4.961992E-04
6.961960E+03	4.462487E-02	4.940561E-04
6.971906E+03	4.434195E-02	4.919601E-04
6.981851E+03	4.406697E-02	4.899176E-04
6.991797E+03	4.379821E-02	4.879103E-04
7.001742E+03	4.353749E-02	4.859596E-04
7.011688E+03	4.328339E-02	4.840503E-04
7.021634E+03	4.303709E-02	4.821966E-04
7.031579E+03	4.279806E-02	4.803933E-04
7.041525E+03	4.256741E-02	4.786539E-04
7.051471E+03	4.234520E-02	4.769799E-04
7.061416E+03	4.213038E-02	4.753604E-04
7.071362E+03	4.192155E-02	4.737804E-04
7.081308E+03	4.171950E-02	4.722496E-04
7.091253E+03	4.152203E-02	4.707439E-04
7.101199E+03	4.132743E-02	4.692444E-04
7.111145E+03	4.113355E-02	4.677274E-04
7.121090E+03	4.093707E-02	4.661555E-04
7.131036E+03	4.073603E-02	4.645068E-04
7.140982E+03	4.052655E-02	4.627371E-04
7.150927E+03	4.030540E-02	4.608096E-04
7.160873E+03	4.007005E-02	4.586955E-04
7.170819E+03	3.981623E-02	4.563456E-04
7.180764E+03	3.954128E-02	4.537293E-04
7.190710E+03	3.924011E-02	4.507878E-04
7.200656E+03	3.891020E-02	4.474919E-04
7.210601E+03	3.854841E-02	4.438050E-04
7.220547E+03	3.815188E-02	4.396935E-04
7.230493E+03	3.771814E-02	4.351288E-04
7.240438E+03	3.724529E-02	4.300882E-04
7.250384E+03	3.673128E-02	4.245477E-04
7.260330E+03	3.617648E-02	4.185111E-04
7.270275E+03	3.558134E-02	4.119834E-04
7.280221E+03	3.494732E-02	4.049812E-04
7.290167E+03	3.427613E-02	3.975242E-04
7.300112E+03	3.357207E-02	3.896623E-04
7.310058E+03	3.284029E-02	3.814556E-04
7.320004E+03	3.208467E-02	3.729494E-04
7.329949E+03	3.131195E-02	3.642225E-04
7.339895E+03	3.052871E-02	3.553522E-04
7.349840E+03	2.974251E-02	3.464274E-04
7.359786E+03	2.895978E-02	3.375238E-04
7.369732E+03	2.818832E-02	3.287336E-04
7.379677E+03	2.743585E-02	3.201478E-04
7.389623E+03	2.670869E-02	3.118417E-04
7.399569E+03	2.601479E-02	3.039093E-04
7.409514E+03	2.535932E-02	2.964127E-04
7.419460E+03	2.474890E-02	2.894307E-04
7.429406E+03	2.418850E-02	2.830228E-04
7.439351E+03	2.368350E-02	2.772537E-04
7.449297E+03	2.323694E-02	2.721605E-04
7.459243E+03	2.285256E-02	2.677886E-04
7.469188E+03	2.253254E-02	2.641650E-04
7.479134E+03	2.227732E-02	2.612966E-04
7.489080E+03	2.208779E-02	2.591953E-04
7.499025E+03	2.196165E-02	2.578356E-04
7.508971E+03	2.189704E-02	2.571971E-04
7.518917E+03	2.189011E-02	2.572361E-04
7.528862E+03	2.193735E-02	2.579125E-04
7.538808E+03	2.203355E-02	2.591666E-04
7.548754E+03	2.217410E-02	2.609454E-04
7.558699E+03	2.235311E-02	2.631806E-04
7.568645E+03	2.256508E-02	2.658089E-04
7.578591E+03	2.280508E-02	2.687732E-04
7.588536E+03	2.306721E-02	2.720049E-04
7.598482E+03	2.334640E-02	2.754453E-04
7.608428E+03	2.363848E-02	2.790465E-04
7.618373E+03	2.393868E-02	2.827527E-04
7.628319E+03	2.424403E-02	2.865300E-04
7.638265E+03	2.455052E-02	2.903318E-04
7.648210E+03	2.485735E-02	2.941495E-04
7.658156E+03	2.516345E-02	2.979714E-04
7.668101E+03	2.546801E-02	3.017886E-04
7.678047E+03	2.577216E-02	3.056156E-04
7.687993E+03	2.607645E-02	3.094598E-04
7.697938E+03	2.638244E-02	3.133409E-04
7.707884E+03	2.669247E-02	3.172877E-04
7.717830E+03	2.700812E-02	3.213202E-04
