#wls	flux	fluxerr
1.591305E+03	1.305826E-02	2.878202E-04
1.631088E+03	1.249639E-02	2.719447E-04
1.670870E+03	1.184622E-02	2.544630E-04
1.710653E+03	1.111432E-02	2.355952E-04
1.750436E+03	1.031305E-02	2.156751E-04
1.790218E+03	9.448758E-03	1.948991E-04
1.830001E+03	8.533003E-03	1.735616E-04
1.869784E+03	7.582803E-03	1.520532E-04
1.909566E+03	6.617652E-03	1.307929E-04
1.949349E+03	5.665649E-03	1.103441E-04
1.989131E+03	4.760435E-03	9.134269E-05
2.028914E+03	3.940290E-03	7.447279E-05
2.068697E+03	3.238844E-03	6.028681E-05
2.108479E+03	2.686591E-03	4.924070E-05
2.148262E+03	2.308633E-03	4.165848E-05
2.188045E+03	2.102340E-03	3.734410E-05
2.227827E+03	2.054089E-03	3.591395E-05
2.267610E+03	2.161037E-03	3.718745E-05
2.307392E+03	2.435941E-03	4.125426E-05
2.347175E+03	2.912392E-03	4.854111E-05
2.386958E+03	3.649394E-03	5.986003E-05
2.426740E+03	4.732226E-03	7.638921E-05
2.466523E+03	6.269246E-03	9.959093E-05
2.506306E+03	8.378006E-03	1.309676E-04
2.546088E+03	1.116420E-02	1.717290E-04
2.585871E+03	1.468793E-02	2.222989E-04
2.625653E+03	1.893612E-02	2.819612E-04
2.665436E+03	2.377693E-02	3.482816E-04
2.705219E+03	2.896134E-02	4.172719E-04
2.745001E+03	3.416724E-02	4.841505E-04
2.784784E+03	3.906166E-02	5.442907E-04
2.824567E+03	4.336694E-02	5.941350E-04
2.864349E+03	4.690705E-02	6.317491E-04
2.904132E+03	4.962430E-02	6.569218E-04
2.943914E+03	5.157201E-02	6.709324E-04
2.983697E+03	5.288631E-02	6.760634E-04
2.993643E+03	5.313905E-02	6.763052E-04
3.003588E+03	5.336624E-02	6.762020E-04
3.013534E+03	5.357348E-02	6.758291E-04
3.023480E+03	5.376360E-02	6.752254E-04
3.033425E+03	5.394381E-02	6.744841E-04
3.043371E+03	5.412139E-02	6.736977E-04
3.053317E+03	5.429646E-02	6.728681E-04
3.063262E+03	5.447500E-02	6.720690E-04
3.073208E+03	5.465739E-02	6.713044E-04
3.083154E+03	5.484859E-02	6.706341E-04
3.093099E+03	5.505032E-02	6.700775E-04
3.103045E+03	5.526551E-02	6.696680E-04
3.112991E+03	5.549932E-02	6.694656E-04
3.122936E+03	5.575264E-02	6.694777E-04
3.132882E+03	5.603186E-02	6.697774E-04
3.142828E+03	5.633707E-02	6.703613E-04
3.152773E+03	5.667478E-02	6.713021E-04
3.162719E+03	5.704637E-02	6.726109E-04
3.172665E+03	5.745747E-02	6.743480E-04
3.182610E+03	5.791081E-02	6.765388E-04
3.192556E+03	5.841117E-02	6.792321E-04
3.202502E+03	5.896263E-02	6.824673E-04
3.212447E+03	5.956925E-02	6.862830E-04
3.222393E+03	6.023434E-02	6.907082E-04
3.232339E+03	6.096442E-02	6.958081E-04
3.242284E+03	6.176308E-02	7.016127E-04
3.252230E+03	6.263619E-02	7.081777E-04
3.262175E+03	6.358767E-02	7.155352E-04
3.272121E+03	6.462269E-02	7.237308E-04
3.282067E+03	6.574751E-02	7.328209E-04
3.292012E+03	6.696648E-02	7.428396E-04
3.301958E+03	6.828598E-02	7.538423E-04
3.311904E+03	6.971142E-02	7.658731E-04
3.321849E+03	7.124610E-02	7.789510E-04
3.331795E+03	7.289702E-02	7.931354E-04
3.341741E+03	7.466797E-02	8.084490E-04
3.351686E+03	7.656319E-02	8.249190E-04
3.361632E+03	7.858631E-02	8.425649E-04
3.371578E+03	8.073799E-02	8.613741E-04
3.381523E+03	8.302214E-02	8.813684E-04
3.391469E+03	8.543850E-02	9.025247E-04
3.401415E+03	8.798560E-02	9.248074E-04
3.411360E+03	9.066211E-02	9.481828E-04
3.421306E+03	9.346638E-02	9.726143E-04
3.431252E+03	5.746242E-02	5.949501E-04
3.433241E+03	5.769365E-02	5.967412E-04
3.435230E+03	5.797746E-02	5.990710E-04
3.437219E+03	5.830142E-02	6.018095E-04
3.439208E+03	5.866055E-02	6.049041E-04
3.441197E+03	5.907526E-02	6.085641E-04
3.443186E+03	5.951844E-02	6.125084E-04
3.445176E+03	6.003018E-02	6.171487E-04
3.447165E+03	6.062406E-02	6.226221E-04
3.449154E+03	6.117360E-02	6.276284E-04
3.451143E+03	6.174431E-02	6.328405E-04
3.453132E+03	6.241409E-02	6.390552E-04
3.455121E+03	6.302486E-02	6.446527E-04
3.457110E+03	6.371705E-02	6.510697E-04
3.459099E+03	6.443972E-02	6.577836E-04
3.461089E+03	6.513335E-02	6.641867E-04
3.463078E+03	6.593063E-02	6.716314E-04
3.465067E+03	6.681902E-02	6.799870E-04
3.467056E+03	6.761881E-02	6.874237E-04
3.469045E+03	6.862566E-02	6.969469E-04
3.471034E+03	6.970498E-02	7.071848E-04
3.473023E+03	7.086981E-02	7.182671E-04
3.475013E+03	7.202358E-02	7.292137E-04
3.477002E+03	7.317272E-02	7.400897E-04
3.478991E+03	7.435600E-02	7.512872E-04
3.480980E+03	7.557995E-02	7.628710E-04
3.482969E+03	7.685762E-02	7.749714E-04
3.484958E+03	7.807243E-02	7.864126E-04
3.486947E+03	7.939293E-02	7.988924E-04
3.488936E+03	8.072847E-02	8.114965E-04
3.490926E+03	8.213758E-02	8.248120E-04
3.492915E+03	8.360741E-02	8.387080E-04
3.494904E+03	8.516416E-02	8.534451E-04
3.496893E+03	8.663855E-02	8.673258E-04
3.498882E+03	8.818042E-02	8.818514E-04
3.500871E+03	8.984873E-02	8.976087E-04
3.502860E+03	9.156532E-02	9.138139E-04
3.504850E+03	9.333034E-02	9.304669E-04
3.506839E+03	9.513074E-02	9.474365E-04
3.508828E+03	9.690759E-02	9.641350E-04
3.510817E+03	9.880520E-02	9.819978E-04
3.512806E+03	1.007648E-01	1.000437E-03
3.514795E+03	1.026877E-01	1.018473E-03
3.516784E+03	1.047320E-01	1.037672E-03
3.518773E+03	1.067726E-01	1.056794E-03
3.520763E+03	1.087833E-01	1.075578E-03
3.522752E+03	1.108034E-01	1.094414E-03
3.524741E+03	1.128000E-01	1.112978E-03
3.526730E+03	1.147796E-01	1.131333E-03
3.528719E+03	1.167420E-01	1.149480E-03
3.530708E+03	1.187999E-01	1.168525E-03
3.532697E+03	1.208010E-01	1.186971E-03
3.534686E+03	1.225859E-01	1.203254E-03
3.536676E+03	1.243201E-01	1.219004E-03
3.538665E+03	1.259105E-01	1.233310E-03
3.540654E+03	1.274562E-01	1.247148E-03
3.542643E+03	1.289573E-01	1.260518E-03
3.544632E+03	1.303804E-01	1.273095E-03
3.546621E+03	1.316118E-01	1.283775E-03
3.548610E+03	1.327178E-01	1.293208E-03
3.550600E+03	1.336381E-01	1.300811E-03
3.552589E+03	1.344523E-01	1.307365E-03
3.554578E+03	1.350667E-01	1.311961E-03
3.556567E+03	1.356546E-01	1.316288E-03
3.558556E+03	1.360486E-01	1.318724E-03
3.560545E+03	1.363153E-01	1.319920E-03
3.562534E+03	1.365013E-01	1.320331E-03
3.564523E+03	1.365863E-01	1.319762E-03
3.566513E+03	1.365297E-01	1.317825E-03
3.568502E+03	1.362305E-01	1.313551E-03
3.570491E+03	1.358563E-01	1.308560E-03
3.572480E+03	1.354405E-01	1.303177E-03
3.574469E+03	1.350301E-01	1.297856E-03
3.576458E+03	1.344636E-01	1.291043E-03
3.578447E+03	1.339023E-01	1.284293E-03
3.580436E+03	1.332181E-01	1.276377E-03
3.582426E+03	1.326135E-01	1.269237E-03
3.584415E+03	1.317910E-01	1.260026E-03
3.586404E+03	1.310208E-01	1.251333E-03
3.588393E+03	1.303506E-01	1.243609E-03
3.590382E+03	1.298686E-01	1.237692E-03
3.592371E+03	1.294396E-01	1.232290E-03
3.594360E+03	1.291181E-01	1.227920E-03
3.596350E+03	1.288430E-01	1.223997E-03
3.598339E+03	1.288662E-01	1.222910E-03
3.600328E+03	1.288207E-01	1.221174E-03
3.602317E+03	1.289381E-01	1.220980E-03
3.604306E+03	1.291709E-01	1.221875E-03
3.606295E+03	1.293626E-01	1.222378E-03
3.608284E+03	1.298609E-01	1.225772E-03
3.610273E+03	1.305642E-01	1.231088E-03
3.612263E+03	1.312884E-01	1.236587E-03
3.614252E+03	1.322522E-01	1.244327E-03
3.616241E+03	1.333468E-01	1.253276E-03
3.618230E+03	1.343944E-01	1.261762E-03
3.620219E+03	1.355868E-01	1.271585E-03
3.622208E+03	1.369653E-01	1.283128E-03
3.624197E+03	1.382765E-01	1.294014E-03
3.626187E+03	1.397879E-01	1.306745E-03
3.628176E+03	1.413764E-01	1.320164E-03
3.630165E+03	1.429733E-01	1.333631E-03
3.632154E+03	1.446543E-01	1.347849E-03
3.634143E+03	1.462957E-01	1.361665E-03
3.636132E+03	1.479869E-01	1.375912E-03
3.638121E+03	1.496454E-01	1.389820E-03
3.640110E+03	1.512917E-01	1.403582E-03
3.642100E+03	1.528706E-01	1.416687E-03
3.644089E+03	1.544373E-01	1.429646E-03
3.646078E+03	1.559364E-01	1.441949E-03
3.648067E+03	1.572572E-01	1.452576E-03
3.650056E+03	1.584962E-01	1.462421E-03
3.652045E+03	1.596740E-01	1.471677E-03
3.654034E+03	1.606589E-01	1.479134E-03
3.656023E+03	1.616168E-01	1.486323E-03
3.658013E+03	1.623329E-01	1.491271E-03
3.660002E+03	1.629730E-01	1.495507E-03
3.661991E+03	1.635370E-01	1.499034E-03
3.663980E+03	1.639763E-01	1.501408E-03
3.665969E+03	1.642002E-01	1.501802E-03
3.667958E+03	1.644516E-01	1.502445E-03
3.669947E+03	1.643412E-01	1.499780E-03
3.671937E+03	1.639726E-01	1.494764E-03
3.673926E+03	1.634151E-01	1.488034E-03
3.675915E+03	1.626264E-01	1.479215E-03
3.677904E+03	1.616899E-01	1.469068E-03
3.679893E+03	1.605147E-01	1.456774E-03
3.681882E+03	1.591073E-01	1.442398E-03
3.683871E+03	1.574602E-01	1.425881E-03
3.685860E+03	1.557759E-01	1.409060E-03
3.687850E+03	1.538515E-01	1.390104E-03
3.689839E+03	1.518404E-01	1.370405E-03
3.691828E+03	1.496026E-01	1.348702E-03
3.693817E+03	1.472078E-01	1.325631E-03
3.695806E+03	1.446486E-01	1.301129E-03
3.697795E+03	1.421071E-01	1.276839E-03
3.699784E+03	1.394993E-01	1.252004E-03
3.701774E+03	1.367197E-01	1.225681E-03
3.703763E+03	1.338453E-01	1.198567E-03
3.705752E+03	1.309744E-01	1.171541E-03
3.707741E+03	1.280719E-01	1.144290E-03
3.709730E+03	1.252221E-01	1.117569E-03
3.711719E+03	1.223195E-01	1.090435E-03
3.713708E+03	1.194558E-01	1.063704E-03
3.715697E+03	1.166873E-01	1.037879E-03
3.717687E+03	1.138590E-01	1.011579E-03
3.719676E+03	1.110557E-01	9.855570E-04
3.721665E+03	1.084114E-01	9.610010E-04
3.723654E+03	1.058488E-01	9.372215E-04
3.725643E+03	1.033609E-01	9.141543E-04
3.727632E+03	1.010186E-01	8.924232E-04
3.729621E+03	9.881495E-02	8.719636E-04
3.731610E+03	9.656638E-02	8.511519E-04
3.733600E+03	9.441429E-02	8.312350E-04
3.735589E+03	9.241562E-02	8.127107E-04
3.737578E+03	9.057765E-02	7.956382E-04
3.739567E+03	8.882975E-02	7.793929E-04
3.741556E+03	8.720755E-02	7.642845E-04
3.743545E+03	8.577513E-02	7.508701E-04
3.745534E+03	8.432686E-02	7.373459E-04
3.747524E+03	8.306873E-02	7.255116E-04
3.749513E+03	8.195134E-02	7.149304E-04
3.751502E+03	8.093220E-02	7.052279E-04
3.753491E+03	8.007552E-02	6.969600E-04
3.755480E+03	7.924629E-02	6.889480E-04
3.757469E+03	7.848724E-02	6.815622E-04
3.759458E+03	7.779856E-02	6.748020E-04
3.761447E+03	7.710898E-02	6.680480E-04
3.763437E+03	7.656125E-02	6.625355E-04
3.765426E+03	7.611983E-02	6.579530E-04
3.767415E+03	7.564925E-02	6.531276E-04
3.769404E+03	7.528517E-02	6.492303E-04
3.771393E+03	7.494916E-02	6.455821E-04
3.773382E+03	7.451971E-02	6.411370E-04
3.775371E+03	7.413975E-02	6.371258E-04
3.777361E+03	7.378070E-02	6.333018E-04
3.779350E+03	7.346415E-02	6.298495E-04
3.781339E+03	7.322592E-02	6.270744E-04
3.783328E+03	7.295143E-02	6.239941E-04
3.785317E+03	7.289880E-02	6.228149E-04
3.787306E+03	7.281729E-02	6.213904E-04
3.789295E+03	7.289338E-02	6.213110E-04
3.791284E+03	7.298376E-02	6.213519E-04
3.793274E+03	7.320334E-02	6.224898E-04
3.795263E+03	7.353075E-02	6.245393E-04
3.797252E+03	7.400928E-02	6.278645E-04
3.799241E+03	7.453839E-02	6.316090E-04
3.801230E+03	7.530529E-02	6.373556E-04
3.803219E+03	7.621665E-02	6.443082E-04
3.805208E+03	7.720785E-02	6.519170E-04
3.807197E+03	7.832229E-02	6.605456E-04
3.809187E+03	7.956722E-02	6.702513E-04
3.811176E+03	8.092846E-02	6.809111E-04
3.813165E+03	8.231956E-02	6.917948E-04
3.815154E+03	8.400760E-02	7.051435E-04
3.817143E+03	8.605069E-02	7.214356E-04
3.819132E+03	8.831929E-02	7.395754E-04
3.821121E+03	9.076304E-02	7.591353E-04
3.823111E+03	9.333155E-02	7.796892E-04
3.825100E+03	9.611179E-02	8.019588E-04
3.827089E+03	9.893753E-02	8.245526E-04
3.829078E+03	1.018957E-01	8.481930E-04
3.831067E+03	1.048634E-01	8.718535E-04
3.833056E+03	1.079202E-01	8.961958E-04
3.835045E+03	1.110952E-01	9.214584E-04
3.837034E+03	1.144684E-01	9.482996E-04
3.839024E+03	1.180834E-01	9.770752E-04
3.841013E+03	1.219623E-01	1.007961E-03
3.843002E+03	1.258440E-01	1.038793E-03
3.844991E+03	1.298303E-01	1.070411E-03
3.846980E+03	1.337032E-01	1.101017E-03
3.848969E+03	1.376589E-01	1.132227E-03
3.850958E+03	1.416610E-01	1.163740E-03
3.852947E+03	1.457606E-01	1.195975E-03
3.854937E+03	1.498411E-01	1.227973E-03
3.856926E+03	1.539828E-01	1.260392E-03
3.858915E+03	1.582949E-01	1.294122E-03
3.860904E+03	1.626026E-01	1.327732E-03
3.862893E+03	1.669425E-01	1.361520E-03
3.864882E+03	1.713582E-01	1.395841E-03
3.866871E+03	1.757113E-01	1.429566E-03
3.868861E+03	1.800017E-01	1.462696E-03
3.870850E+03	1.843971E-01	1.496595E-03
3.872839E+03	1.889123E-01	1.531379E-03
3.874828E+03	1.933427E-01	1.565390E-03
3.876817E+03	1.978565E-01	1.599987E-03
3.878806E+03	2.022562E-01	1.633576E-03
3.880795E+03	2.066295E-01	1.666866E-03
3.882784E+03	2.110275E-01	1.700271E-03
3.884774E+03	2.153186E-01	1.732729E-03
3.886763E+03	2.195391E-01	1.764537E-03
3.888752E+03	2.236817E-01	1.795639E-03
3.890741E+03	2.276729E-01	1.825447E-03
3.892730E+03	2.316006E-01	1.854669E-03
3.894719E+03	2.354574E-01	1.883248E-03
3.896708E+03	2.390817E-01	1.909897E-03
3.898698E+03	2.425468E-01	1.935205E-03
3.900687E+03	2.458524E-01	1.959177E-03
3.902676E+03	2.489175E-01	1.981171E-03
3.904665E+03	2.518375E-01	2.001954E-03
3.906654E+03	2.544872E-01	2.020535E-03
3.908643E+03	2.569251E-01	2.037387E-03
3.910632E+03	2.592025E-01	2.052922E-03
3.912621E+03	2.612457E-01	2.066562E-03
3.914611E+03	2.630176E-01	2.078020E-03
3.916600E+03	2.645400E-01	2.087478E-03
3.918589E+03	2.658053E-01	2.094882E-03
3.920578E+03	2.668134E-01	2.100238E-03
3.922567E+03	2.675638E-01	2.103551E-03
3.924556E+03	2.680195E-01	2.104538E-03
3.926545E+03	2.683129E-01	2.104245E-03
3.928534E+03	2.683627E-01	2.102040E-03
3.930524E+03	2.680949E-01	2.097353E-03
3.932513E+03	2.675609E-01	2.090593E-03
3.934502E+03	2.666941E-01	2.081248E-03
3.936491E+03	2.656859E-01	2.070820E-03
3.938480E+03	2.643444E-01	2.057819E-03
3.940469E+03	2.628021E-01	2.043286E-03
3.942458E+03	2.611106E-01	2.027626E-03
3.944448E+03	2.590925E-01	2.009468E-03
3.946437E+03	2.568730E-01	1.989791E-03
3.948426E+03	2.545259E-01	1.969172E-03
3.950415E+03	2.519107E-01	1.946529E-03
3.952404E+03	2.492565E-01	1.923637E-03
3.954393E+03	2.465188E-01	1.900155E-03
3.956382E+03	2.437346E-01	1.876370E-03
3.958371E+03	2.407928E-01	1.851428E-03
3.960361E+03	2.378341E-01	1.826415E-03
3.962350E+03	2.348583E-01	1.801331E-03
3.964339E+03	2.319027E-01	1.776459E-03
3.966328E+03	2.288707E-01	1.751063E-03
3.968317E+03	2.258515E-01	1.725824E-03
3.970306E+03	2.229415E-01	1.701478E-03
3.972295E+03	2.199552E-01	1.676608E-03
3.974285E+03	2.171524E-01	1.653195E-03
3.976274E+03	2.143774E-01	1.630048E-03
3.978263E+03	2.117342E-01	1.607957E-03
3.980252E+03	2.090743E-01	1.585791E-03
3.982241E+03	2.064497E-01	1.563946E-03
3.984230E+03	2.040612E-01	1.543939E-03
3.986219E+03	2.016785E-01	1.524023E-03
3.988208E+03	1.994876E-01	1.505602E-03
3.990198E+03	1.975035E-01	1.488784E-03
3.992187E+03	1.956223E-01	1.472779E-03
3.994176E+03	1.939109E-01	1.458090E-03
3.996165E+03	1.923919E-01	1.444879E-03
3.998154E+03	1.910208E-01	1.432809E-03
4.000143E+03	1.897753E-01	1.421709E-03
4.002132E+03	1.887078E-01	1.411965E-03
4.004121E+03	1.878481E-01	1.403797E-03
4.006111E+03	1.871816E-01	1.397090E-03
4.008100E+03	1.866934E-01	1.391727E-03
4.010089E+03	1.863913E-01	1.387761E-03
4.012078E+03	1.864245E-01	1.386298E-03
4.014067E+03	1.868829E-01	1.387994E-03
4.016056E+03	1.875130E-01	1.390959E-03
4.018045E+03	1.882253E-01	1.394524E-03
4.020035E+03	1.891095E-01	1.399352E-03
4.022024E+03	1.901284E-01	1.405161E-03
4.024013E+03	1.912820E-01	1.411950E-03
4.026002E+03	1.925481E-01	1.419550E-03
4.027991E+03	1.939491E-01	1.428125E-03
4.029980E+03	1.953430E-01	1.436625E-03
4.031969E+03	1.969842E-01	1.446920E-03
4.033958E+03	1.987831E-01	1.458345E-03
4.035948E+03	2.007922E-01	1.471282E-03
4.037937E+03	2.028094E-01	1.484246E-03
4.039926E+03	2.047374E-01	1.496526E-03
4.041915E+03	2.064864E-01	1.507467E-03
4.043904E+03	2.082807E-01	1.518713E-03
4.045893E+03	2.099782E-01	1.529225E-03
4.047882E+03	2.118037E-01	1.540642E-03
4.049872E+03	2.134872E-01	1.550999E-03
4.051861E+03	2.151412E-01	1.561117E-03
4.053850E+03	2.167582E-01	1.570942E-03
4.055839E+03	2.183006E-01	1.580203E-03
4.057828E+03	2.197909E-01	1.589064E-03
4.059817E+03	2.211915E-01	1.597256E-03
4.061806E+03	2.225023E-01	1.604780E-03
4.063795E+03	2.238510E-01	1.612559E-03
4.065785E+03	2.250121E-01	1.618971E-03
4.067774E+03	2.261059E-01	1.624882E-03
4.069763E+03	2.272599E-01	1.631213E-03
4.071752E+03	2.284292E-01	1.637638E-03
4.073741E+03	2.294258E-01	1.642811E-03
4.075730E+03	2.303624E-01	1.647543E-03
4.077719E+03	2.311712E-01	1.651351E-03
4.079708E+03	2.319575E-01	1.654991E-03
4.081698E+03	2.327287E-01	1.658515E-03
4.083687E+03	2.333570E-01	1.661014E-03
4.085676E+03	2.339778E-01	1.663455E-03
4.087665E+03	2.345081E-01	1.665248E-03
4.089654E+03	2.349631E-01	1.666504E-03
4.091643E+03	2.353803E-01	1.667490E-03
4.093632E+03	2.356768E-01	1.667622E-03
4.095622E+03	2.358451E-01	1.666847E-03
4.097611E+03	2.359754E-01	1.665809E-03
4.099600E+03	2.360603E-01	1.664453E-03
4.101589E+03	2.359942E-01	1.662039E-03
4.103578E+03	2.359805E-01	1.660001E-03
4.105567E+03	2.358986E-01	1.657490E-03
4.107556E+03	2.358013E-01	1.654879E-03
4.109545E+03	2.356735E-01	1.652062E-03
4.111535E+03	2.355906E-01	1.649568E-03
4.113524E+03	2.354169E-01	1.646446E-03
4.115513E+03	2.352503E-01	1.643384E-03
4.117502E+03	2.351136E-01	1.640539E-03
4.119491E+03	2.349690E-01	1.637648E-03
4.121480E+03	2.348846E-01	1.635185E-03
4.123469E+03	2.347469E-01	1.632360E-03
4.125458E+03	2.346844E-01	1.630066E-03
4.127448E+03	2.345612E-01	1.627359E-03
4.129437E+03	2.343923E-01	1.624344E-03
4.131426E+03	2.343214E-01	1.622017E-03
4.133415E+03	2.341896E-01	1.619278E-03
4.135404E+03	2.341407E-01	1.617120E-03
4.137393E+03	2.340462E-01	1.614655E-03
4.139382E+03	2.339968E-01	1.612510E-03
4.141372E+03	2.340379E-01	1.610996E-03
4.143361E+03	2.340333E-01	1.609174E-03
4.145350E+03	2.340284E-01	1.607359E-03
4.147339E+03	2.341142E-01	1.606172E-03
4.149328E+03	2.341542E-01	1.604679E-03
4.151317E+03	2.342774E-01	1.603762E-03
4.153306E+03	2.344458E-01	1.603159E-03
4.155295E+03	2.345685E-01	1.602251E-03
4.157285E+03	2.345773E-01	1.600571E-03
4.159274E+03	2.346465E-01	1.599311E-03
4.161263E+03	2.347003E-01	1.597953E-03
4.163252E+03	2.347842E-01	1.596806E-03
4.165241E+03	2.348300E-01	1.595408E-03
4.167230E+03	2.348300E-01	1.593707E-03
4.169219E+03	2.348373E-01	1.592064E-03
4.171209E+03	2.347534E-01	1.589811E-03
4.173198E+03	2.346464E-01	1.587412E-03
4.175187E+03	2.345013E-01	1.584764E-03
4.177176E+03	2.342040E-01	1.581100E-03
4.179165E+03	2.338228E-01	1.576884E-03
4.181154E+03	2.333806E-01	1.572271E-03
4.183143E+03	2.329532E-01	1.567771E-03
4.185132E+03	2.323507E-01	1.562110E-03
4.187122E+03	2.317630E-01	1.556565E-03
4.189111E+03	2.311446E-01	1.550831E-03
4.191100E+03	2.304421E-01	1.544551E-03
4.193089E+03	2.297695E-01	1.538490E-03
4.195078E+03	2.290282E-01	1.531986E-03
4.197067E+03	2.282332E-01	1.525144E-03
4.199056E+03	2.273844E-01	1.517962E-03
4.201045E+03	2.265733E-01	1.511051E-03
4.203035E+03	2.257313E-01	1.503955E-03
4.205024E+03	2.248508E-01	1.496623E-03
4.207013E+03	2.239546E-01	1.489207E-03
4.209002E+03	2.230732E-01	1.481910E-03
4.210991E+03	2.221456E-01	1.474327E-03
4.212980E+03	2.211947E-01	1.466611E-03
4.214969E+03	2.201901E-01	1.458560E-03
4.216959E+03	2.191926E-01	1.450579E-03
4.218948E+03	2.181642E-01	1.442415E-03
4.220937E+03	2.171201E-01	1.434170E-03
4.222926E+03	2.160222E-01	1.425591E-03
4.224915E+03	2.149086E-01	1.416933E-03
4.226904E+03	2.137487E-01	1.407992E-03
4.228893E+03	2.124741E-01	1.398320E-03
4.230882E+03	2.111914E-01	1.388619E-03
4.232872E+03	2.098852E-01	1.378790E-03
4.234861E+03	2.084719E-01	1.368281E-03
4.236850E+03	2.070427E-01	1.357695E-03
4.238839E+03	2.055215E-01	1.346532E-03
4.240828E+03	2.039846E-01	1.335293E-03
4.242817E+03	2.023860E-01	1.323678E-03
4.244806E+03	2.007411E-01	1.311788E-03
4.246796E+03	1.990270E-01	1.299474E-03
4.248785E+03	1.971902E-01	1.286388E-03
4.250774E+03	1.953452E-01	1.273278E-03
4.252763E+03	1.934996E-01	1.260194E-03
4.254752E+03	1.915313E-01	1.246341E-03
4.256741E+03	1.896768E-01	1.233259E-03
4.258730E+03	1.877683E-01	1.219854E-03
4.260719E+03	1.858439E-01	1.206376E-03
4.262709E+03	1.839571E-01	1.193171E-03
4.264698E+03	1.820315E-01	1.179743E-03
4.266687E+03	1.801283E-01	1.166489E-03
4.268676E+03	1.783619E-01	1.154149E-03
4.270665E+03	1.765491E-01	1.141536E-03
4.272654E+03	1.747053E-01	1.128749E-03
4.274643E+03	1.729602E-01	1.116626E-03
4.276632E+03	1.712986E-01	1.105069E-03
4.278622E+03	1.696671E-01	1.093730E-03
4.280611E+03	1.680886E-01	1.082756E-03
4.282600E+03	1.664713E-01	1.071558E-03
4.284589E+03	1.648995E-01	1.060675E-03
4.286578E+03	1.633884E-01	1.050206E-03
4.288567E+03	1.618539E-01	1.039609E-03
