#wls	flux	fluxerr
1.591305E+03	1.080347E-02	3.671232E-04
1.631088E+03	1.048759E-02	3.506169E-04
1.670870E+03	1.010229E-02	3.321302E-04
1.710653E+03	9.649963E-03	3.118654E-04
1.750436E+03	9.134256E-03	2.900607E-04
1.790218E+03	8.556920E-03	2.668880E-04
1.830001E+03	7.917991E-03	2.424627E-04
1.869784E+03	7.223618E-03	2.170840E-04
1.909566E+03	6.481868E-03	1.910925E-04
1.949349E+03	5.707491E-03	1.650027E-04
1.989131E+03	4.924432E-03	1.395539E-04
2.028914E+03	4.168536E-03	1.157587E-04
2.068697E+03	3.485853E-03	9.482366E-05
2.108479E+03	2.928663E-03	7.801513E-05
2.148262E+03	2.538346E-03	6.619717E-05
2.188045E+03	2.328409E-03	5.943187E-05
2.227827E+03	2.299196E-03	5.742724E-05
2.267610E+03	2.461823E-03	6.016052E-05
2.307392E+03	2.846579E-03	6.805268E-05
2.347175E+03	3.512733E-03	8.215147E-05
2.386958E+03	4.561620E-03	1.043632E-04
2.426740E+03	6.142530E-03	1.374894E-04
2.466523E+03	8.448692E-03	1.850370E-04
2.506306E+03	1.168726E-02	2.504852E-04
2.546088E+03	1.601377E-02	3.359014E-04
2.585871E+03	2.143660E-02	4.401156E-04
2.625653E+03	2.778646E-02	5.584401E-04
2.665436E+03	3.467339E-02	6.821953E-04
2.705219E+03	4.158936E-02	8.011206E-04
2.745001E+03	4.807909E-02	9.067939E-04
2.784784E+03	5.378795E-02	9.933652E-04
2.824567E+03	5.849543E-02	1.057928E-03
2.864349E+03	6.212797E-02	1.100467E-03
2.904132E+03	6.473926E-02	1.123229E-03
2.943914E+03	6.649403E-02	1.130216E-03
2.983697E+03	6.762156E-02	1.126230E-03
2.993643E+03	6.783857E-02	1.124152E-03
3.003588E+03	6.803671E-02	1.121772E-03
3.013534E+03	6.822028E-02	1.119167E-03
3.023480E+03	6.839777E-02	1.116480E-03
3.033425E+03	6.857548E-02	1.113814E-03
3.043371E+03	6.876132E-02	1.111293E-03
3.053317E+03	6.896003E-02	1.108993E-03
3.063262E+03	6.917347E-02	1.106937E-03
3.073208E+03	6.940512E-02	1.105178E-03
3.083154E+03	6.966141E-02	1.103810E-03
3.093099E+03	6.994315E-02	1.102841E-03
3.103045E+03	7.025559E-02	1.102345E-03
3.112991E+03	7.060123E-02	1.102353E-03
3.122936E+03	7.098833E-02	1.102985E-03
3.132882E+03	7.141686E-02	1.104231E-03
3.142828E+03	7.189255E-02	1.106167E-03
3.152773E+03	7.242130E-02	1.108874E-03
3.162719E+03	7.300774E-02	1.112409E-03
3.172665E+03	7.365405E-02	1.116792E-03
3.182610E+03	7.436936E-02	1.122145E-03
3.192556E+03	7.515633E-02	1.128495E-03
3.202502E+03	7.602192E-02	1.135928E-03
3.212447E+03	7.697069E-02	1.144495E-03
3.222393E+03	7.801022E-02	1.154289E-03
3.232339E+03	7.914716E-02	1.165389E-03
3.242284E+03	8.038857E-02	1.177877E-03
3.252230E+03	8.174052E-02	1.191818E-03
3.262175E+03	8.321246E-02	1.207327E-03
3.272121E+03	8.481287E-02	1.224500E-03
3.282067E+03	8.654962E-02	1.243423E-03
3.292012E+03	8.843385E-02	1.264226E-03
3.301958E+03	9.047476E-02	1.287010E-03
3.311904E+03	9.268518E-02	1.311925E-03
3.321849E+03	9.507580E-02	1.339084E-03
3.331795E+03	9.765976E-02	1.368635E-03
3.341741E+03	1.004510E-01	1.400734E-03
3.351686E+03	1.034642E-01	1.435542E-03
3.361632E+03	1.067150E-01	1.473227E-03
3.371578E+03	1.102171E-01	1.513935E-03
3.381523E+03	1.139875E-01	1.557842E-03
3.391469E+03	1.180364E-01	1.605037E-03
3.401415E+03	1.223779E-01	1.655652E-03
3.411360E+03	1.270142E-01	1.709662E-03
3.421306E+03	1.319438E-01	1.766988E-03
3.431252E+03	1.371551E-01	1.827418E-03
3.441197E+03	1.426224E-01	1.890556E-03
3.451143E+03	1.483083E-01	1.955862E-03
3.461089E+03	1.541596E-01	2.022596E-03
3.471034E+03	1.601215E-01	2.090014E-03
3.480980E+03	1.661292E-01	2.157258E-03
3.490926E+03	1.720956E-01	2.223198E-03
3.500871E+03	1.779158E-01	2.286498E-03
3.510817E+03	1.834528E-01	2.345443E-03
3.520763E+03	1.885609E-01	2.398233E-03
3.530708E+03	1.930797E-01	2.442921E-03
3.540654E+03	1.968498E-01	2.477613E-03
3.550600E+03	1.997134E-01	2.500477E-03
3.560545E+03	2.015317E-01	2.509958E-03
3.570491E+03	2.021996E-01	2.504953E-03
3.580436E+03	2.016351E-01	2.484674E-03
3.590382E+03	1.998042E-01	2.448942E-03
3.600328E+03	1.967136E-01	2.398084E-03
3.610273E+03	1.924140E-01	2.332956E-03
3.620219E+03	1.870063E-01	2.255013E-03
3.630165E+03	1.806430E-01	2.166301E-03
3.640110E+03	1.735145E-01	2.069280E-03
3.650056E+03	1.658534E-01	1.966858E-03
3.660002E+03	1.579125E-01	1.862125E-03
3.669947E+03	1.499551E-01	1.758227E-03
3.679893E+03	1.422315E-01	1.658087E-03
3.689839E+03	1.349763E-01	1.564380E-03
3.699784E+03	1.283886E-01	1.479309E-03
3.709730E+03	1.226353E-01	1.404655E-03
3.719676E+03	1.178546E-01	1.341823E-03
3.729621E+03	1.141591E-01	1.291891E-03
3.739567E+03	1.116399E-01	1.255661E-03
3.749513E+03	1.103768E-01	1.233784E-03
3.759458E+03	1.104438E-01	1.226821E-03
3.769404E+03	1.119138E-01	1.235297E-03
3.779350E+03	1.148597E-01	1.259715E-03
3.789295E+03	1.193463E-01	1.300466E-03
3.799241E+03	1.254308E-01	1.357838E-03
3.809187E+03	1.331370E-01	1.431740E-03
3.819132E+03	1.424394E-01	1.521545E-03
3.829078E+03	1.532484E-01	1.625953E-03
3.839024E+03	1.653827E-01	1.742718E-03
3.848969E+03	1.785526E-01	1.868513E-03
3.858915E+03	1.923607E-01	1.998976E-03
3.868861E+03	2.063142E-01	2.128875E-03
3.878806E+03	2.198582E-01	2.252489E-03
3.888752E+03	2.324226E-01	2.364108E-03
3.898698E+03	2.434997E-01	2.458822E-03
3.908643E+03	2.526899E-01	2.532956E-03
3.918589E+03	2.597496E-01	2.584513E-03
3.928534E+03	2.646422E-01	2.613612E-03
3.938480E+03	2.675099E-01	2.622140E-03
3.948426E+03	2.686436E-01	2.613387E-03
3.958371E+03	2.684658E-01	2.591832E-03
3.968317E+03	2.674462E-01	2.562279E-03
3.978263E+03	2.660515E-01	2.529366E-03
3.988208E+03	2.646967E-01	2.497107E-03
3.998154E+03	2.637145E-01	2.468623E-03
4.008100E+03	2.633373E-01	2.446007E-03
4.018045E+03	2.636577E-01	2.430002E-03
4.027991E+03	2.646632E-01	2.420362E-03
4.037937E+03	2.662424E-01	2.415953E-03
4.047882E+03	2.681881E-01	2.414813E-03
4.057828E+03	2.702337E-01	2.414512E-03
4.067774E+03	2.720944E-01	2.412533E-03
4.077719E+03	2.734960E-01	2.406534E-03
4.087665E+03	2.741993E-01	2.394548E-03
4.097611E+03	2.740283E-01	2.375221E-03
4.107556E+03	2.728880E-01	2.347934E-03
4.117502E+03	2.707561E-01	2.312708E-03
4.127448E+03	2.676590E-01	2.269975E-03
4.137393E+03	2.636773E-01	2.220606E-03
4.147339E+03	2.589138E-01	2.165627E-03
4.157285E+03	2.534806E-01	2.106113E-03
4.167230E+03	2.475072E-01	2.043243E-03
4.177176E+03	2.411213E-01	1.978146E-03
4.187122E+03	2.344509E-01	1.911918E-03
4.197067E+03	2.276411E-01	1.845762E-03
4.207013E+03	2.208311E-01	1.780799E-03
4.216959E+03	2.141554E-01	1.718084E-03
4.226904E+03	2.077570E-01	1.658716E-03
4.236850E+03	2.017624E-01	1.603640E-03
4.246796E+03	1.962755E-01	1.553607E-03
4.256741E+03	1.913955E-01	1.509324E-03
4.266687E+03	1.871961E-01	1.471289E-03
4.276632E+03	1.837155E-01	1.439732E-03
4.286578E+03	1.809486E-01	1.414545E-03
4.296524E+03	1.788591E-01	1.395384E-03
4.306469E+03	1.773850E-01	1.381715E-03
4.316415E+03	1.764151E-01	1.372635E-03
4.326361E+03	1.758359E-01	1.367239E-03
4.336306E+03	1.755404E-01	1.364668E-03
4.346252E+03	1.754320E-01	1.364141E-03
4.356198E+03	1.754489E-01	1.365153E-03
4.366143E+03	1.755705E-01	1.367518E-03
4.376089E+03	1.757987E-01	1.371227E-03
4.386035E+03	1.761790E-01	1.376616E-03
4.395980E+03	1.767954E-01	1.384322E-03
4.405926E+03	1.777534E-01	1.395161E-03
4.415872E+03	1.791809E-01	1.410139E-03
4.425817E+03	1.811957E-01	1.430195E-03
4.435763E+03	1.838653E-01	1.455887E-03
4.445709E+03	1.872128E-01	1.487435E-03
4.455654E+03	1.911977E-01	1.524560E-03
4.465600E+03	1.956902E-01	1.566265E-03
4.475546E+03	2.004938E-01	1.611007E-03
4.485491E+03	2.053705E-01	1.656886E-03
4.495437E+03	2.100593E-01	1.701780E-03
4.505383E+03	2.142897E-01	1.743453E-03
4.515328E+03	2.178146E-01	1.779821E-03
4.525274E+03	2.204597E-01	1.809358E-03
4.535220E+03	2.220984E-01	1.830900E-03
4.545165E+03	2.226478E-01	1.843628E-03
4.555111E+03	2.220928E-01	1.847267E-03
4.565057E+03	2.204516E-01	1.841822E-03
4.575002E+03	2.177801E-01	1.827616E-03
4.584948E+03	2.141799E-01	1.805366E-03
4.594894E+03	2.097745E-01	1.775995E-03
4.604839E+03	2.047003E-01	1.740554E-03
4.614785E+03	1.991311E-01	1.700441E-03
4.624730E+03	1.932272E-01	1.656965E-03
4.634676E+03	1.871511E-01	1.611480E-03
4.644622E+03	1.810541E-01	1.565273E-03
4.654567E+03	1.750640E-01	1.519449E-03
4.664513E+03	1.692798E-01	1.474881E-03
4.674459E+03	1.637761E-01	1.432245E-03
4.684404E+03	1.586030E-01	1.392010E-03
4.694350E+03	1.537790E-01	1.354378E-03
4.704296E+03	1.493029E-01	1.319374E-03
4.714241E+03	1.451570E-01	1.286879E-03
4.724187E+03	1.413069E-01	1.256621E-03
4.734133E+03	1.377201E-01	1.228342E-03
4.744078E+03	1.343522E-01	1.201672E-03
4.754024E+03	1.311688E-01	1.176326E-03
4.763970E+03	1.281462E-01	1.152113E-03
4.773915E+03	1.252669E-01	1.128892E-03
4.783861E+03	1.225292E-01	1.106665E-03
4.793807E+03	1.199526E-01	1.085625E-03
4.803752E+03	1.175617E-01	1.066014E-03
4.813698E+03	1.153912E-01	1.048162E-03
4.823644E+03	1.134866E-01	1.032502E-03
4.833589E+03	1.118874E-01	1.019413E-03
4.843535E+03	1.106189E-01	1.009142E-03
4.853481E+03	1.096903E-01	1.001790E-03
4.863426E+03	1.090894E-01	9.972604E-04
4.873372E+03	1.087883E-01	9.953075E-04
4.883318E+03	1.087380E-01	9.954922E-04
4.893263E+03	1.088837E-01	9.973178E-04
4.903209E+03	1.091699E-01	1.000278E-03
4.913155E+03	1.095506E-01	1.003955E-03
4.923100E+03	1.099938E-01	1.008053E-03
4.933046E+03	1.104826E-01	1.012420E-03
4.942991E+03	1.110305E-01	1.017178E-03
4.952937E+03	1.116653E-01	1.022582E-03
4.962883E+03	1.124269E-01	1.028996E-03
4.972828E+03	1.133666E-01	1.036889E-03
4.982774E+03	1.145404E-01	1.046770E-03
4.992720E+03	1.159923E-01	1.059033E-03
5.002665E+03	1.177564E-01	1.073983E-03
5.012611E+03	1.198527E-01	1.091790E-03
5.022557E+03	1.222801E-01	1.112433E-03
5.032502E+03	1.250195E-01	1.135724E-03
5.042448E+03	1.280298E-01	1.161276E-03
5.052394E+03	1.312488E-01	1.188512E-03
5.062339E+03	1.345951E-01	1.216685E-03
5.072285E+03	1.379697E-01	1.244895E-03
5.082231E+03	1.412599E-01	1.272126E-03
5.092176E+03	1.443424E-01	1.297277E-03
5.102122E+03	1.470928E-01	1.319247E-03
5.112068E+03	1.493786E-01	1.336873E-03
5.122013E+03	1.510878E-01	1.349190E-03
5.131959E+03	1.521153E-01	1.355303E-03
5.141905E+03	1.523726E-01	1.354479E-03
5.151850E+03	1.517997E-01	1.346245E-03
5.161796E+03	1.503655E-01	1.330390E-03
5.171742E+03	1.480781E-01	1.307053E-03
5.181687E+03	1.449929E-01	1.276788E-03
5.191633E+03	1.412119E-01	1.240556E-03
5.201579E+03	1.368705E-01	1.199598E-03
5.211524E+03	1.321520E-01	1.155559E-03
5.221470E+03	1.272539E-01	1.110198E-03
5.231416E+03	1.223797E-01	1.065301E-03
5.241361E+03	1.177397E-01	1.022697E-03
5.251307E+03	1.135231E-01	9.840191E-04
5.261253E+03	1.098793E-01	9.505374E-04
5.271198E+03	1.069253E-01	9.232364E-04
5.281144E+03	1.047358E-01	9.027275E-04
5.291089E+03	1.033374E-01	8.892115E-04
5.301035E+03	1.026950E-01	8.823573E-04
5.310981E+03	1.027326E-01	8.814943E-04
5.320926E+03	1.033287E-01	8.855682E-04
5.330872E+03	1.042988E-01	8.929967E-04
5.340818E+03	1.054181E-01	9.018635E-04
5.350763E+03	1.064538E-01	9.101927E-04
5.360709E+03	1.071761E-01	9.160367E-04
5.370655E+03	1.073822E-01	9.176829E-04
5.380600E+03	1.069308E-01	9.139351E-04
5.390546E+03	1.057902E-01	9.045254E-04
5.400492E+03	1.040254E-01	8.899899E-04
5.410437E+03	1.017891E-01	8.716069E-04
5.420383E+03	9.933170E-02	8.514919E-04
5.430329E+03	9.694637E-02	8.321326E-04
5.440274E+03	9.492110E-02	8.159863E-04
5.450220E+03	9.349553E-02	8.051118E-04
5.460166E+03	9.285579E-02	8.011265E-04
5.470111E+03	9.312444E-02	8.051179E-04
5.480057E+03	9.431293E-02	8.172275E-04
5.490003E+03	9.637580E-02	8.371114E-04
5.499948E+03	9.921757E-02	8.639931E-04
5.509894E+03	1.026748E-01	8.965003E-04
5.519840E+03	1.065388E-01	9.328522E-04
5.529785E+03	1.105864E-01	9.711237E-04
5.539731E+03	1.145954E-01	1.009376E-03
5.549677E+03	1.183589E-01	1.045780E-03
5.559622E+03	1.217007E-01	1.078754E-03
5.569568E+03	1.245082E-01	1.107261E-03
5.579514E+03	1.267187E-01	1.130692E-03
5.589459E+03	1.283159E-01	1.148844E-03
5.599405E+03	1.293205E-01	1.161841E-03
5.609351E+03	1.297788E-01	1.170037E-03
5.619296E+03	1.297495E-01	1.173906E-03
5.629242E+03	1.292799E-01	1.173823E-03
5.639187E+03	1.284186E-01	1.170181E-03
5.649133E+03	1.272130E-01	1.163365E-03
5.659079E+03	1.256988E-01	1.153664E-03
5.669024E+03	1.239153E-01	1.141402E-03
5.678970E+03	1.219113E-01	1.126998E-03
5.688916E+03	1.197476E-01	1.110986E-03
5.698861E+03	1.174899E-01	1.093959E-03
5.708807E+03	1.152180E-01	1.076648E-03
5.718753E+03	1.130127E-01	1.059806E-03
5.728698E+03	1.109524E-01	1.044174E-03
5.738644E+03	1.091102E-01	1.030455E-03
5.748590E+03	1.075433E-01	1.019210E-03
5.758535E+03	1.062921E-01	1.010849E-03
5.768481E+03	1.053800E-01	1.005626E-03
5.778427E+03	1.048084E-01	1.003587E-03
5.788372E+03	1.045593E-01	1.004590E-03
5.798318E+03	1.046066E-01	1.008414E-03
5.808264E+03	1.049101E-01	1.014701E-03
5.818209E+03	1.054264E-01	1.023050E-03
5.828155E+03	1.061149E-01	1.033088E-03
5.838101E+03	1.069348E-01	1.044433E-03
5.848046E+03	1.078554E-01	1.056797E-03
5.857992E+03	1.088486E-01	1.069913E-03
5.867938E+03	1.098900E-01	1.083548E-03
5.877883E+03	1.109561E-01	1.097476E-03
5.887829E+03	1.120190E-01	1.111423E-03
5.897775E+03	1.130388E-01	1.124994E-03
5.907720E+03	1.139584E-01	1.137617E-03
5.917666E+03	1.147044E-01	1.148552E-03
5.927612E+03	1.151771E-01	1.156783E-03
5.937557E+03	1.152564E-01	1.161080E-03
5.947503E+03	1.148052E-01	1.160024E-03
5.957449E+03	1.136788E-01	1.152106E-03
5.967394E+03	1.117399E-01	1.135871E-03
5.977340E+03	1.088938E-01	1.110285E-03
5.987285E+03	1.050888E-01	1.074736E-03
5.997231E+03	1.003512E-01	1.029409E-03
6.007177E+03	9.479633E-02	9.754043E-04
6.017122E+03	8.862334E-02	9.146997E-04
6.027068E+03	8.208564E-02	8.498583E-04
6.037014E+03	7.545773E-02	7.836924E-04
6.046959E+03	6.901720E-02	7.190804E-04
6.056905E+03	6.299687E-02	6.584688E-04
6.066851E+03	5.757682E-02	6.037816E-04
6.076796E+03	5.287975E-02	5.563648E-04
6.086742E+03	4.897637E-02	5.170342E-04
6.096688E+03	4.589684E-02	4.861880E-04
6.106633E+03	4.364570E-02	4.639598E-04
6.116579E+03	4.221545E-02	4.503587E-04
6.126525E+03	4.159495E-02	4.453576E-04
6.136470E+03	4.176741E-02	4.488716E-04
6.146416E+03	4.272224E-02	4.608844E-04
6.156362E+03	4.445657E-02	4.814672E-04
6.166307E+03	4.695286E-02	5.105365E-04
6.176253E+03	5.018451E-02	5.479130E-04
6.186199E+03	5.410784E-02	5.932319E-04
6.196144E+03	5.864358E-02	6.457346E-04
6.206090E+03	6.367718E-02	7.042638E-04
6.216036E+03	6.905753E-02	7.672396E-04
6.225981E+03	7.460006E-02	8.326825E-04
6.235927E+03	8.010054E-02	8.983580E-04
6.245873E+03	8.535598E-02	9.620006E-04
6.255818E+03	9.017854E-02	1.021464E-03
6.265764E+03	9.441736E-02	1.074974E-03
6.275710E+03	9.796801E-02	1.121247E-03
6.285655E+03	1.007636E-01	1.159398E-03
6.295601E+03	1.027799E-01	1.189016E-03
6.305546E+03	1.040355E-01	1.210172E-03
6.315492E+03	1.045698E-01	1.223179E-03
6.325438E+03	1.044422E-01	1.228589E-03
6.335383E+03	1.037335E-01	1.227221E-03
6.345329E+03	1.025247E-01	1.219912E-03
6.355275E+03	1.009057E-01	1.207625E-03
6.365220E+03	9.897557E-02	1.191458E-03
6.375166E+03	9.683985E-02	1.172611E-03
6.385112E+03	9.460269E-02	1.152297E-03
6.395057E+03	9.237198E-02	1.131806E-03
6.405003E+03	9.024531E-02	1.112332E-03
6.414949E+03	8.830132E-02	1.094862E-03
6.424894E+03	8.659297E-02	1.080090E-03
6.434840E+03	8.514231E-02	1.068337E-03
6.444786E+03	8.394137E-02	1.059551E-03
6.454731E+03	8.295337E-02	1.053317E-03
6.464677E+03	8.213396E-02	1.049111E-03
6.474623E+03	8.143113E-02	1.046296E-03
6.484568E+03	8.079321E-02	1.044226E-03
6.494514E+03	8.017759E-02	1.042358E-03
6.504460E+03	7.954906E-02	1.040231E-03
6.514405E+03	7.888149E-02	1.037496E-03
6.524351E+03	7.815754E-02	1.033909E-03
6.534297E+03	7.736925E-02	1.029349E-03
6.544242E+03	7.651325E-02	1.023751E-03
6.554188E+03	7.559246E-02	1.017138E-03
6.564134E+03	7.461515E-02	1.009602E-03
6.574079E+03	7.359125E-02	1.001264E-03
6.584025E+03	7.253036E-02	9.922428E-04
6.593971E+03	7.144515E-02	9.827019E-04
6.603916E+03	7.034533E-02	9.727683E-04
6.613862E+03	6.924272E-02	9.626022E-04
6.623808E+03	6.814311E-02	9.522824E-04
6.633753E+03	6.705308E-02	9.419011E-04
6.643699E+03	6.597854E-02	9.315433E-04
6.653644E+03	6.492306E-02	9.212625E-04
6.663590E+03	6.388834E-02	9.110865E-04
6.673536E+03	6.287659E-02	9.010516E-04
6.683481E+03	6.189115E-02	8.912105E-04
6.693427E+03	6.093334E-02	8.815880E-04
6.703373E+03	6.000721E-02	8.722490E-04
6.713318E+03	5.911390E-02	8.632170E-04
6.723264E+03	5.825901E-02	8.545811E-04
6.733210E+03	5.744393E-02	8.463702E-04
6.743155E+03	5.667381E-02	8.386686E-04
6.753101E+03	5.594879E-02	8.314879E-04
6.763047E+03	5.527100E-02	8.248692E-04
6.772992E+03	5.464039E-02	8.188211E-04
6.782938E+03	5.405474E-02	8.133194E-04
6.792884E+03	5.351258E-02	8.083508E-04
6.802829E+03	5.300977E-02	8.038609E-04
6.812775E+03	5.254362E-02	7.998160E-04
6.822721E+03	5.210837E-02	7.961351E-04
6.832666E+03	5.170227E-02	7.927971E-04
6.842612E+03	5.132097E-02	7.897400E-04
6.852558E+03	5.096189E-02	7.869289E-04
6.862503E+03	5.062192E-02	7.843196E-04
6.872449E+03	5.030128E-02	7.819186E-04
6.882395E+03	4.999602E-02	7.796680E-04
6.892340E+03	4.970804E-02	7.776002E-04
6.902286E+03	4.943456E-02	7.756745E-04
6.912232E+03	4.917483E-02	7.738817E-04
6.922177E+03	4.892886E-02	7.722244E-04
6.932123E+03	4.869469E-02	7.706737E-04
6.942069E+03	4.847130E-02	7.692155E-04
6.952014E+03	4.825759E-02	7.678344E-04
6.961960E+03	4.805248E-02	7.665145E-04
6.971906E+03	4.785516E-02	7.652447E-04
6.981851E+03	4.766399E-02	7.639999E-04
6.991797E+03	4.748030E-02	7.628028E-04
7.001742E+03	4.730089E-02	7.616033E-04
7.011688E+03	4.712845E-02	7.604459E-04
7.021634E+03	4.695990E-02	7.592819E-04
7.031579E+03	4.679702E-02	7.581412E-04
7.041525E+03	4.663849E-02	7.570038E-04
7.051471E+03	4.648386E-02	7.558631E-04
7.061416E+03	4.633334E-02	7.547237E-04
7.071362E+03	4.618411E-02	7.535408E-04
7.081308E+03	4.603576E-02	7.523082E-04
7.091253E+03	4.588602E-02	7.509897E-04
7.101199E+03	4.573415E-02	7.495740E-04
7.111145E+03	4.557816E-02	7.480289E-04
7.121090E+03	4.541532E-02	7.463106E-04
7.131036E+03	4.524454E-02	7.444012E-04
7.140982E+03	4.506168E-02	7.422334E-04
7.150927E+03	4.486657E-02	7.398046E-04
7.160873E+03	4.465598E-02	7.370621E-04
7.170819E+03	4.442659E-02	7.339517E-04
7.180764E+03	4.417706E-02	7.304515E-04
7.190710E+03	4.390493E-02	7.265214E-04
7.200656E+03	4.360682E-02	7.221063E-04
7.210601E+03	4.328036E-02	7.171674E-04
7.220547E+03	4.292343E-02	7.116707E-04
7.230493E+03	4.253390E-02	7.055817E-04
7.240438E+03	4.211018E-02	6.988749E-04
7.250384E+03	4.164922E-02	6.915015E-04
7.260330E+03	4.115187E-02	6.834768E-04
7.270275E+03	4.061709E-02	6.747854E-04
7.280221E+03	4.004442E-02	6.654213E-04
7.290167E+03	3.943569E-02	6.554173E-04
7.300112E+03	3.879121E-02	6.447809E-04
7.310058E+03	3.811369E-02	6.335594E-04
7.320004E+03	3.740656E-02	6.218128E-04
7.329949E+03	3.667353E-02	6.096053E-04
7.339895E+03	3.592061E-02	5.970398E-04
7.349840E+03	3.515156E-02	5.841818E-04
7.359786E+03	3.437500E-02	5.711772E-04
7.369732E+03	3.359729E-02	5.581346E-04
7.379677E+03	3.282765E-02	5.452101E-04
7.389623E+03	3.207472E-02	5.325493E-04
7.399569E+03	3.134816E-02	5.203150E-04
7.409514E+03	3.065827E-02	5.086800E-04
7.419460E+03	3.001365E-02	4.977888E-04
7.429406E+03	2.942487E-02	4.878177E-04
7.439351E+03	2.889827E-02	4.788726E-04
7.449297E+03	2.844143E-02	4.710796E-04
7.459243E+03	2.805854E-02	4.645082E-04
7.469188E+03	2.775452E-02	4.592397E-04
7.479134E+03	2.753006E-02	4.552847E-04
7.489080E+03	2.738470E-02	4.526354E-04
7.499025E+03	2.731697E-02	4.512665E-04
7.508971E+03	2.732333E-02	4.511189E-04
7.518917E+03	2.740018E-02	4.521324E-04
7.528862E+03	2.754043E-02	4.541898E-04
7.538808E+03	2.773799E-02	4.571903E-04
7.548754E+03	2.798612E-02	4.610228E-04
7.558699E+03	2.827647E-02	4.655499E-04
7.568645E+03	2.860172E-02	4.706520E-04
7.578591E+03	2.895334E-02	4.761898E-04
7.588536E+03	2.932506E-02	4.820615E-04
7.598482E+03	2.970858E-02	4.881322E-04
7.608428E+03	3.009899E-02	4.943236E-04
7.618373E+03	3.048964E-02	5.005284E-04
7.628319E+03	3.087768E-02	5.067031E-04
7.638265E+03	3.125874E-02	5.127780E-04
7.648210E+03	3.163245E-02	5.187506E-04
7.658156E+03	3.199756E-02	5.246031E-04
7.668101E+03	3.235453E-02	5.303464E-04
7.678047E+03	3.270458E-02	5.360036E-04
7.687993E+03	3.304931E-02	5.416043E-04
7.697938E+03	3.339025E-02	5.471771E-04
7.707884E+03	3.372771E-02	5.527306E-04
7.717830E+03	3.406352E-02	5.582981E-04
