#wls	flux	fluxerr
1.591305E+03	5.542865E-03	1.779890E-04
1.631088E+03	5.043694E-03	1.602942E-04
1.670870E+03	4.541173E-03	1.428086E-04
1.710653E+03	4.045439E-03	1.258567E-04
1.750436E+03	3.566487E-03	1.097445E-04
1.790218E+03	3.110710E-03	9.465453E-05
1.830001E+03	2.683861E-03	8.074027E-05
1.869784E+03	2.290522E-03	6.811185E-05
1.909566E+03	1.933952E-03	5.683332E-05
1.949349E+03	1.617436E-03	4.696415E-05
1.989131E+03	1.342519E-03	3.850853E-05
2.028914E+03	1.111778E-03	3.149700E-05
2.068697E+03	9.266118E-04	2.592291E-05
2.108479E+03	7.887091E-04	2.178519E-05
2.148262E+03	6.996300E-04	1.907651E-05
2.188045E+03	6.568963E-04	1.767849E-05
2.227827E+03	6.566837E-04	1.744049E-05
2.267610E+03	6.979489E-04	1.829034E-05
2.307392E+03	7.830029E-04	2.024437E-05
2.347175E+03	9.177844E-04	2.340852E-05
2.386958E+03	1.113446E-03	2.801166E-05
2.426740E+03	1.385381E-03	3.437265E-05
2.466523E+03	1.752671E-03	4.287948E-05
2.506306E+03	2.234959E-03	5.390740E-05
2.546088E+03	2.847107E-03	6.769080E-05
2.585871E+03	3.590527E-03	8.412832E-05
2.625653E+03	4.445201E-03	1.026214E-04
2.665436E+03	5.382905E-03	1.224119E-04
2.705219E+03	6.374024E-03	1.427489E-04
2.745001E+03	7.384093E-03	1.628151E-04
2.784784E+03	8.374050E-03	1.817406E-04
2.824567E+03	9.305012E-03	1.987136E-04
2.864349E+03	1.014591E-02	2.131410E-04
2.904132E+03	1.087676E-02	2.247025E-04
2.943914E+03	1.149182E-02	2.333963E-04
2.983697E+03	1.199932E-02	2.395077E-04
2.993643E+03	1.211194E-02	2.406961E-04
3.003588E+03	1.221900E-02	2.417548E-04
3.013534E+03	1.232125E-02	2.426996E-04
3.023480E+03	1.241998E-02	2.435576E-04
3.033425E+03	1.251583E-02	2.443418E-04
3.043371E+03	1.260984E-02	2.450735E-04
3.053317E+03	1.270301E-02	2.457725E-04
3.063262E+03	1.279482E-02	2.464290E-04
3.073208E+03	1.288670E-02	2.470711E-04
3.083154E+03	1.297860E-02	2.476974E-04
3.093099E+03	1.307085E-02	2.483146E-04
3.103045E+03	1.316457E-02	2.489437E-04
3.112991E+03	1.325978E-02	2.495848E-04
3.122936E+03	1.335763E-02	2.502589E-04
3.132882E+03	1.345820E-02	2.509666E-04
3.142828E+03	1.356193E-02	2.517158E-04
3.152773E+03	1.367039E-02	2.525343E-04
3.162719E+03	1.378336E-02	2.534166E-04
3.172665E+03	1.390206E-02	2.543841E-04
3.182610E+03	1.402702E-02	2.554448E-04
3.192556E+03	1.415880E-02	2.566071E-04
3.202502E+03	1.429831E-02	2.578857E-04
3.212447E+03	1.444615E-02	2.592891E-04
3.222393E+03	1.460359E-02	2.608380E-04
3.232339E+03	1.477058E-02	2.625287E-04
3.242284E+03	1.494843E-02	2.643820E-04
3.252230E+03	1.513778E-02	2.664063E-04
3.262175E+03	1.533961E-02	2.686157E-04
3.272121E+03	1.555426E-02	2.710126E-04
3.282067E+03	1.578270E-02	2.736104E-04
3.292012E+03	1.602554E-02	2.764163E-04
3.301958E+03	1.628368E-02	2.794418E-04
3.311904E+03	1.655766E-02	2.826918E-04
3.321849E+03	1.684755E-02	2.861636E-04
3.331795E+03	1.715396E-02	2.898632E-04
3.341741E+03	1.747665E-02	2.937822E-04
3.351686E+03	1.781578E-02	2.979189E-04
3.361632E+03	1.817053E-02	3.022554E-04
3.371578E+03	1.853999E-02	3.067724E-04
3.381523E+03	1.892243E-02	3.114377E-04
3.391469E+03	1.931588E-02	3.162155E-04
3.401415E+03	1.971738E-02	3.210547E-04
3.411360E+03	2.012362E-02	3.258996E-04
3.421306E+03	2.052968E-02	3.306698E-04
3.431252E+03	2.093142E-02	3.352990E-04
3.441197E+03	2.132360E-02	3.397049E-04
3.451143E+03	2.170152E-02	3.438157E-04
3.461089E+03	2.206267E-02	3.475955E-04
3.471034E+03	2.240568E-02	3.510275E-04
3.480980E+03	2.273149E-02	3.541311E-04
3.490926E+03	2.304287E-02	3.569541E-04
3.500871E+03	2.334182E-02	3.595309E-04
3.510817E+03	2.363169E-02	3.619164E-04
3.520763E+03	2.391439E-02	3.641421E-04
3.530708E+03	2.419282E-02	3.662542E-04
3.540654E+03	2.446827E-02	3.682728E-04
3.550600E+03	2.474256E-02	3.702259E-04
3.560545E+03	2.501684E-02	3.721306E-04
3.570491E+03	2.529221E-02	3.740033E-04
3.580436E+03	2.556925E-02	3.758517E-04
3.590382E+03	2.584806E-02	3.776767E-04
3.600328E+03	2.612966E-02	3.794926E-04
3.610273E+03	2.641393E-02	3.812964E-04
3.620219E+03	2.670192E-02	3.831026E-04
3.630165E+03	2.699447E-02	3.849219E-04
3.640110E+03	2.729384E-02	3.867851E-04
3.650056E+03	2.760208E-02	3.887188E-04
3.660002E+03	2.792254E-02	3.907676E-04
3.669947E+03	2.825971E-02	3.929905E-04
3.679893E+03	2.861831E-02	3.954481E-04
3.689839E+03	2.900475E-02	3.982227E-04
3.699784E+03	2.942528E-02	4.013919E-04
3.709730E+03	2.988760E-02	4.050510E-04
3.719676E+03	3.039960E-02	4.092949E-04
3.729621E+03	3.096888E-02	4.142120E-04
3.739567E+03	3.160358E-02	4.198952E-04
3.749513E+03	3.231104E-02	4.264238E-04
3.759458E+03	3.309799E-02	4.338665E-04
3.769404E+03	3.396946E-02	4.422674E-04
3.779350E+03	3.492908E-02	4.516512E-04
3.789295E+03	3.597750E-02	4.620025E-04
3.799241E+03	3.711398E-02	4.732882E-04
3.809187E+03	3.833303E-02	4.854151E-04
3.819132E+03	3.962749E-02	4.982715E-04
3.829078E+03	4.098522E-02	5.116857E-04
3.839024E+03	4.239175E-02	5.254615E-04
3.848969E+03	4.382830E-02	5.393553E-04
3.858915E+03	4.527458E-02	5.531115E-04
3.868861E+03	4.670767E-02	5.664502E-04
3.878806E+03	4.810389E-02	5.790904E-04
3.888752E+03	4.944075E-02	5.907739E-04
3.898698E+03	5.069664E-02	6.012614E-04
3.908643E+03	5.185274E-02	6.103538E-04
3.918589E+03	5.289477E-02	6.179124E-04
3.928534E+03	5.381321E-02	6.238581E-04
3.938480E+03	5.460353E-02	6.281732E-04
3.948426E+03	5.526666E-02	6.309040E-04
3.958371E+03	5.580880E-02	6.321558E-04
3.968317E+03	5.624194E-02	6.320972E-04
3.978263E+03	5.658101E-02	6.309249E-04
3.988208E+03	5.684379E-02	6.288622E-04
3.998154E+03	5.705001E-02	6.261472E-04
4.008100E+03	5.722008E-02	6.230192E-04
4.018045E+03	5.737525E-02	6.197185E-04
4.027991E+03	5.753356E-02	6.164443E-04
4.037937E+03	5.771373E-02	6.133969E-04
4.047882E+03	5.792901E-02	6.107122E-04
4.057828E+03	5.819275E-02	6.085232E-04
4.067774E+03	5.851321E-02	6.069054E-04
4.077719E+03	5.889568E-02	6.059017E-04
4.087665E+03	5.934212E-02	6.055191E-04
4.097611E+03	5.985104E-02	6.057295E-04
4.107556E+03	6.041829E-02	6.064792E-04
4.117502E+03	6.103613E-02	6.076803E-04
4.127448E+03	6.169359E-02	6.092161E-04
4.137393E+03	6.237795E-02	6.109566E-04
4.147339E+03	6.307514E-02	6.127632E-04
4.157285E+03	6.376946E-02	6.144864E-04
4.167230E+03	6.444453E-02	6.159752E-04
4.177176E+03	6.508353E-02	6.170801E-04
4.187122E+03	6.567089E-02	6.176680E-04
4.197067E+03	6.619311E-02	6.176301E-04
4.207013E+03	6.663803E-02	6.168740E-04
4.216959E+03	6.699503E-02	6.153243E-04
4.226904E+03	6.725927E-02	6.129613E-04
4.236850E+03	6.742574E-02	6.097643E-04
4.246796E+03	6.749510E-02	6.057644E-04
4.256741E+03	6.747127E-02	6.010208E-04
4.266687E+03	6.735951E-02	5.956029E-04
4.276632E+03	6.716934E-02	5.896150E-04
4.286578E+03	6.691104E-02	5.831650E-04
4.296524E+03	6.659660E-02	5.763725E-04
4.306469E+03	6.623880E-02	5.693599E-04
4.316415E+03	6.584986E-02	5.622415E-04
4.326361E+03	6.544432E-02	5.551479E-04
4.336306E+03	6.504152E-02	5.482465E-04
4.346252E+03	6.466806E-02	5.417613E-04
4.356198E+03	6.435437E-02	5.359427E-04
4.366143E+03	6.413705E-02	5.310866E-04
4.376089E+03	6.405706E-02	5.275182E-04
4.386035E+03	6.415594E-02	5.255597E-04
4.395980E+03	6.447212E-02	5.255023E-04
4.405926E+03	6.502508E-02	5.274801E-04
4.415872E+03	6.582608E-02	5.315602E-04
4.425817E+03	6.688630E-02	5.378105E-04
4.435763E+03	6.821179E-02	5.462578E-04
4.445709E+03	6.980424E-02	5.568927E-04
4.455654E+03	7.165511E-02	5.696270E-04
4.465600E+03	7.374687E-02	5.843047E-04
4.475546E+03	7.605082E-02	6.006854E-04
4.485491E+03	7.852392E-02	6.184204E-04
4.495437E+03	8.111257E-02	6.370824E-04
4.505383E+03	8.374939E-02	6.561417E-04
4.515328E+03	8.635882E-02	6.750095E-04
4.525274E+03	8.885900E-02	6.930523E-04
4.535220E+03	9.116583E-02	7.096232E-04
4.545165E+03	9.319739E-02	7.240955E-04
4.555111E+03	9.488065E-02	7.359135E-04
4.565057E+03	9.615467E-02	7.446164E-04
4.575002E+03	9.697662E-02	7.498836E-04
4.584948E+03	9.732439E-02	7.515537E-04
4.594894E+03	9.719497E-02	7.496112E-04
4.604839E+03	9.660572E-02	7.441954E-04
4.614785E+03	9.559344E-02	7.355931E-04
4.624730E+03	9.420776E-02	7.241871E-04
4.634676E+03	9.251027E-02	7.104500E-04
4.644622E+03	9.056579E-02	6.948770E-04
4.654567E+03	8.844333E-02	6.779938E-04
4.664513E+03	8.620843E-02	6.602980E-04
4.674459E+03	8.392185E-02	6.422495E-04
4.684404E+03	8.163626E-02	6.242455E-04
4.694350E+03	7.939948E-02	6.066457E-04
4.704296E+03	7.724802E-02	5.897230E-04
4.714241E+03	7.521094E-02	5.736933E-04
4.724187E+03	7.330885E-02	5.587078E-04
4.734133E+03	7.155794E-02	5.448842E-04
4.744078E+03	6.996422E-02	5.322627E-04
4.754024E+03	6.853158E-02	5.208674E-04
4.763970E+03	6.725822E-02	5.106795E-04
4.773915E+03	6.613921E-02	5.016562E-04
4.783861E+03	6.516613E-02	4.937290E-04
4.793807E+03	6.432882E-02	4.868159E-04
4.803752E+03	6.361531E-02	4.808220E-04
4.813698E+03	6.301184E-02	4.756389E-04
4.823644E+03	6.250483E-02	4.711601E-04
4.833589E+03	6.208055E-02	4.672785E-04
4.843535E+03	6.172340E-02	4.638733E-04
4.853481E+03	6.142032E-02	4.608435E-04
4.863426E+03	6.115908E-02	4.580950E-04
4.873372E+03	6.092809E-02	4.555392E-04
4.883318E+03	6.071821E-02	4.531060E-04
4.893263E+03	6.052387E-02	4.507531E-04
4.903209E+03	6.034055E-02	4.484461E-04
4.913155E+03	6.016657E-02	4.461720E-04
4.923100E+03	6.000550E-02	4.439570E-04
4.933046E+03	5.986085E-02	4.418267E-04
4.942991E+03	5.974040E-02	4.398381E-04
4.952937E+03	5.965374E-02	4.380607E-04
4.962883E+03	5.961225E-02	4.365767E-04
4.972828E+03	5.962927E-02	4.354815E-04
4.982774E+03	5.971799E-02	4.348685E-04
4.992720E+03	5.989323E-02	4.348414E-04
5.002665E+03	6.016865E-02	4.354942E-04
5.012611E+03	6.055871E-02	4.369255E-04
5.022557E+03	6.107652E-02	4.392225E-04
5.032502E+03	6.173346E-02	4.424582E-04
5.042448E+03	6.254065E-02	4.467031E-04
5.052394E+03	6.350717E-02	4.520114E-04
5.062339E+03	6.463805E-02	4.584077E-04
5.072285E+03	6.593706E-02	4.659071E-04
5.082231E+03	6.740419E-02	4.744976E-04
5.092176E+03	6.903446E-02	4.841323E-04
5.102122E+03	7.082051E-02	4.947486E-04
5.112068E+03	7.274699E-02	5.062291E-04
5.122013E+03	7.479512E-02	5.184349E-04
5.131959E+03	7.693906E-02	5.311807E-04
5.141905E+03	7.914877E-02	5.442559E-04
5.151850E+03	8.138781E-02	5.574100E-04
5.161796E+03	8.361702E-02	5.703788E-04
5.171742E+03	8.579299E-02	5.828742E-04
5.181687E+03	8.787119E-02	5.946062E-04
5.191633E+03	8.981047E-02	6.053131E-04
5.201579E+03	9.157017E-02	6.147414E-04
5.211524E+03	9.311435E-02	6.226740E-04
5.221470E+03	9.441529E-02	6.289524E-04
5.231416E+03	9.545080E-02	6.334578E-04
5.241361E+03	9.620846E-02	6.361376E-04
5.251307E+03	9.668062E-02	6.369716E-04
5.261253E+03	9.686932E-02	6.360026E-04
5.271198E+03	9.678135E-02	6.333034E-04
5.281144E+03	9.642778E-02	6.289727E-04
5.291089E+03	9.582073E-02	6.231135E-04
5.301035E+03	9.497807E-02	6.158632E-04
5.310981E+03	9.391592E-02	6.073447E-04
5.320926E+03	9.265127E-02	5.976834E-04
5.330872E+03	9.120411E-02	5.870205E-04
5.340818E+03	8.959311E-02	5.754857E-04
5.350763E+03	8.784271E-02	5.632423E-04
5.360709E+03	8.597623E-02	5.504432E-04
5.370655E+03	8.402157E-02	5.372676E-04
5.380600E+03	8.201048E-02	5.239165E-04
5.390546E+03	7.997614E-02	5.105945E-04
5.400492E+03	7.796151E-02	4.975611E-04
5.410437E+03	7.602578E-02	4.851771E-04
5.420383E+03	7.423556E-02	4.738514E-04
5.430329E+03	7.262839E-02	4.638095E-04
5.440274E+03	7.120638E-02	4.550531E-04
5.450220E+03	6.996039E-02	4.475138E-04
5.460166E+03	6.887541E-02	4.410877E-04
5.470111E+03	6.793148E-02	4.356401E-04
5.480057E+03	6.710866E-02	4.310375E-04
5.490003E+03	6.638374E-02	4.271258E-04
5.499948E+03	6.573566E-02	4.237647E-04
5.509894E+03	6.514557E-02	4.208280E-04
5.519840E+03	6.459461E-02	4.181890E-04
5.529785E+03	6.406980E-02	4.157586E-04
5.539731E+03	6.355694E-02	4.134394E-04
5.549677E+03	6.304766E-02	4.111718E-04
5.559622E+03	6.253621E-02	4.089126E-04
5.569568E+03	6.202016E-02	4.066405E-04
5.579514E+03	6.150026E-02	4.043552E-04
5.589459E+03	6.098095E-02	4.020810E-04
5.599405E+03	6.046729E-02	3.998469E-04
5.609351E+03	5.996851E-02	3.977104E-04
5.619296E+03	5.949484E-02	3.957365E-04
5.629242E+03	5.905687E-02	3.939938E-04
5.639187E+03	5.866768E-02	3.925687E-04
5.649133E+03	5.833856E-02	3.915368E-04
5.659079E+03	5.808086E-02	3.909755E-04
5.669024E+03	5.790514E-02	3.909579E-04
5.678970E+03	5.782071E-02	3.915497E-04
5.688916E+03	5.783523E-02	3.928064E-04
5.698861E+03	5.795451E-02	3.947715E-04
5.708807E+03	5.818209E-02	3.974739E-04
5.718753E+03	5.851968E-02	4.009298E-04
5.728698E+03	5.896496E-02	4.051285E-04
5.738644E+03	5.951321E-02	4.100422E-04
5.748590E+03	6.015728E-02	4.156260E-04
5.758535E+03	6.088527E-02	4.218017E-04
5.768481E+03	6.168404E-02	4.284817E-04
5.778427E+03	6.253451E-02	4.355359E-04
5.788372E+03	6.341577E-02	4.428202E-04
5.798318E+03	6.430583E-02	4.501815E-04
5.808264E+03	6.517857E-02	4.574364E-04
5.818209E+03	6.600785E-02	4.643996E-04
5.828155E+03	6.676560E-02	4.708709E-04
5.838101E+03	6.742501E-02	4.766571E-04
5.848046E+03	6.796206E-02	4.815837E-04
5.857992E+03	6.835221E-02	4.854707E-04
5.867938E+03	6.857711E-02	4.881815E-04
5.877883E+03	6.862078E-02	4.895954E-04
5.887829E+03	6.847095E-02	4.896176E-04
5.897775E+03	6.812182E-02	4.881991E-04
5.907720E+03	6.757248E-02	4.853262E-04
5.917666E+03	6.682541E-02	4.810095E-04
5.927612E+03	6.589021E-02	4.753114E-04
5.937557E+03	6.477850E-02	4.683097E-04
5.947503E+03	6.350684E-02	4.601182E-04
5.957449E+03	6.209673E-02	4.508882E-04
5.967394E+03	6.057122E-02	4.407828E-04
5.977340E+03	5.895578E-02	4.299847E-04
5.987285E+03	5.727859E-02	4.186970E-04
5.997231E+03	5.556886E-02	4.071325E-04
6.007177E+03	5.385591E-02	3.955061E-04
6.017122E+03	5.216883E-02	3.840328E-04
6.027068E+03	5.053749E-02	3.729354E-04
6.037014E+03	4.898905E-02	3.624183E-04
6.046959E+03	4.754948E-02	3.526792E-04
6.056905E+03	4.624184E-02	3.438961E-04
6.066851E+03	4.508777E-02	3.362386E-04
6.076796E+03	4.410421E-02	3.298432E-04
6.086742E+03	4.330558E-02	3.248294E-04
6.096688E+03	4.270427E-02	3.213037E-04
6.106633E+03	4.230754E-02	3.193354E-04
6.116579E+03	4.211865E-02	3.189658E-04
6.126525E+03	4.213800E-02	3.202158E-04
6.136470E+03	4.236259E-02	3.230818E-04
6.146416E+03	4.278360E-02	3.275166E-04
6.156362E+03	4.339013E-02	3.334580E-04
6.166307E+03	4.416248E-02	3.407758E-04
6.176253E+03	4.507699E-02	3.493083E-04
6.186199E+03	4.610437E-02	3.588484E-04
6.196144E+03	4.720883E-02	3.691355E-04
6.206090E+03	4.835058E-02	3.798732E-04
6.216036E+03	4.948670E-02	3.907356E-04
6.225981E+03	5.057139E-02	4.013644E-04
6.235927E+03	5.156098E-02	4.114075E-04
6.245873E+03	5.241479E-02	4.205281E-04
6.255818E+03	5.309742E-02	4.284232E-04
6.265764E+03	5.357845E-02	4.348222E-04
6.275710E+03	5.383987E-02	4.395480E-04
6.285655E+03	5.387017E-02	4.424717E-04
6.295601E+03	5.366833E-02	4.435469E-04
6.305546E+03	5.324425E-02	4.428160E-04
6.315492E+03	5.261387E-02	4.403728E-04
6.325438E+03	5.180192E-02	4.363869E-04
6.335383E+03	5.083805E-02	4.310741E-04
6.345329E+03	4.975732E-02	4.247025E-04
6.355275E+03	4.859597E-02	4.175574E-04
6.365220E+03	4.739251E-02	4.099521E-04
6.375166E+03	4.618366E-02	4.021934E-04
6.385112E+03	4.500534E-02	3.945897E-04
6.395057E+03	4.389093E-02	3.874360E-04
6.405003E+03	4.287141E-02	3.810144E-04
6.414949E+03	4.197329E-02	3.755750E-04
6.424894E+03	4.121900E-02	3.713383E-04
6.434840E+03	4.061157E-02	3.683547E-04
6.444786E+03	4.013198E-02	3.664745E-04
6.454731E+03	3.975731E-02	3.655080E-04
6.464677E+03	3.946368E-02	3.652510E-04
6.474623E+03	3.923068E-02	3.655262E-04
6.484568E+03	3.903696E-02	3.661424E-04
6.494514E+03	3.886528E-02	3.669419E-04
6.504460E+03	3.869875E-02	3.677666E-04
6.514405E+03	3.852285E-02	3.684763E-04
6.524351E+03	3.832670E-02	3.689628E-04
6.534297E+03	3.810137E-02	3.691343E-04
6.544242E+03	3.783983E-02	3.689150E-04
6.554188E+03	3.753855E-02	3.682623E-04
6.564134E+03	3.719444E-02	3.671370E-04
6.574079E+03	3.680863E-02	3.655413E-04
6.584025E+03	3.638158E-02	3.634712E-04
6.593971E+03	3.591738E-02	3.609597E-04
6.603916E+03	3.541892E-02	3.580284E-04
6.613862E+03	3.489149E-02	3.547248E-04
6.623808E+03	3.433981E-02	3.510914E-04
6.633753E+03	3.376991E-02	3.471860E-04
6.643699E+03	3.318677E-02	3.430570E-04
6.653644E+03	3.259581E-02	3.387581E-04
6.663590E+03	3.200265E-02	3.343473E-04
6.673536E+03	3.141151E-02	3.298687E-04
6.683481E+03	3.082666E-02	3.253682E-04
6.693427E+03	3.025237E-02	3.208925E-04
6.703373E+03	2.969138E-02	3.164731E-04
6.713318E+03	2.914640E-02	3.121417E-04
6.723264E+03	2.861965E-02	3.079252E-04
6.733210E+03	2.811283E-02	3.038455E-04
6.743155E+03	2.762766E-02	2.999249E-04
6.753101E+03	2.716451E-02	2.961713E-04
6.763047E+03	2.672432E-02	2.925988E-04
6.772992E+03	2.630634E-02	2.892031E-04
6.782938E+03	2.591136E-02	2.859966E-04
6.792884E+03	2.553905E-02	2.829794E-04
6.802829E+03	2.518802E-02	2.801397E-04
6.812775E+03	2.485892E-02	2.774881E-04
6.822721E+03	2.454974E-02	2.750051E-04
6.832666E+03	2.426092E-02	2.726991E-04
6.842612E+03	2.399036E-02	2.705489E-04
6.852558E+03	2.373844E-02	2.685617E-04
6.862503E+03	2.350346E-02	2.667208E-04
6.872449E+03	2.328458E-02	2.650187E-04
6.882395E+03	2.308138E-02	2.634528E-04
6.892340E+03	2.289308E-02	2.620159E-04
6.902286E+03	2.271890E-02	2.607013E-04
6.912232E+03	2.255813E-02	2.595022E-04
6.922177E+03	2.240968E-02	2.584075E-04
6.932123E+03	2.227369E-02	2.574205E-04
6.942069E+03	2.214875E-02	2.565257E-04
6.952014E+03	2.203466E-02	2.557222E-04
6.961960E+03	2.193082E-02	2.550040E-04
6.971906E+03	2.183708E-02	2.543702E-04
6.981851E+03	2.175206E-02	2.538056E-04
6.991797E+03	2.167600E-02	2.533137E-04
7.001742E+03	2.160791E-02	2.528836E-04
7.011688E+03	2.154720E-02	2.525090E-04
7.021634E+03	2.149325E-02	2.521830E-04
7.031579E+03	2.144580E-02	2.519031E-04
7.041525E+03	2.140379E-02	2.516571E-04
7.051471E+03	2.136689E-02	2.514416E-04
7.061416E+03	2.133394E-02	2.512431E-04
7.071362E+03	2.130455E-02	2.510572E-04
7.081308E+03	2.127788E-02	2.508742E-04
7.091253E+03	2.125264E-02	2.506791E-04
7.101199E+03	2.122831E-02	2.504659E-04
7.111145E+03	2.120394E-02	2.502235E-04
7.121090E+03	2.117855E-02	2.499405E-04
7.131036E+03	2.115154E-02	2.496101E-04
7.140982E+03	2.112107E-02	2.492105E-04
7.150927E+03	2.108651E-02	2.487349E-04
7.160873E+03	2.104731E-02	2.481767E-04
7.170819E+03	2.100205E-02	2.475199E-04
7.180764E+03	2.094981E-02	2.467539E-04
7.190710E+03	2.089017E-02	2.458742E-04
7.200656E+03	2.082195E-02	2.448676E-04
7.210601E+03	2.074490E-02	2.437320E-04
7.220547E+03	2.065810E-02	2.424573E-04
7.230493E+03	2.056161E-02	2.410450E-04
7.240438E+03	2.045525E-02	2.394942E-04
7.250384E+03	2.033899E-02	2.378056E-04
7.260330E+03	2.021261E-02	2.359778E-04
7.270275E+03	2.007734E-02	2.340264E-04
7.280221E+03	1.993293E-02	2.319498E-04
7.290167E+03	1.978058E-02	2.297634E-04
7.300112E+03	1.962126E-02	2.274797E-04
7.310058E+03	1.945611E-02	2.251133E-04
7.320004E+03	1.928642E-02	2.226806E-04
7.329949E+03	1.911361E-02	2.201991E-04
7.339895E+03	1.893918E-02	2.176874E-04
7.349840E+03	1.876515E-02	2.151697E-04
7.359786E+03	1.859231E-02	2.126560E-04
7.369732E+03	1.842312E-02	2.101752E-04
7.379677E+03	1.825917E-02	2.077463E-04
7.389623E+03	1.810202E-02	2.053874E-04
7.399569E+03	1.795273E-02	2.031108E-04
7.409514E+03	1.781268E-02	2.009322E-04
7.419460E+03	1.768310E-02	1.988657E-04
7.429406E+03	1.756509E-02	1.969233E-04
7.439351E+03	1.745962E-02	1.951155E-04
7.449297E+03	1.736747E-02	1.934506E-04
7.459243E+03	1.728926E-02	1.919349E-04
7.469188E+03	1.722546E-02	1.905730E-04
7.479134E+03	1.717598E-02	1.893629E-04
7.489080E+03	1.714177E-02	1.883145E-04
7.499025E+03	1.712204E-02	1.874180E-04
7.508971E+03	1.711708E-02	1.866758E-04
7.518917E+03	1.712667E-02	1.860845E-04
7.528862E+03	1.715089E-02	1.856440E-04
7.538808E+03	1.718849E-02	1.853402E-04
7.548754E+03	1.723940E-02	1.851713E-04
7.558699E+03	1.730348E-02	1.851353E-04
7.568645E+03	1.737930E-02	1.852162E-04
7.578591E+03	1.746705E-02	1.854156E-04
7.588536E+03	1.756522E-02	1.857172E-04
7.598482E+03	1.767396E-02	1.861224E-04
7.608428E+03	1.779212E-02	1.866190E-04
7.618373E+03	1.791896E-02	1.871993E-04
7.628319E+03	1.805368E-02	1.878556E-04
7.638265E+03	1.819504E-02	1.885753E-04
7.648210E+03	1.834353E-02	1.893644E-04
7.658156E+03	1.849691E-02	1.902004E-04
7.668101E+03	1.865466E-02	1.910795E-04
7.678047E+03	1.881625E-02	1.919972E-04
7.687993E+03	1.897960E-02	1.929345E-04
7.697938E+03	1.914451E-02	1.938907E-04
7.707884E+03	1.930969E-02	1.948553E-04
7.717830E+03	1.947281E-02	1.958068E-04
