#wls	flux	fluxerr
1.591305E+03	3.328586E-03	2.399740E-04
1.631088E+03	2.988823E-03	2.136095E-04
1.670870E+03	2.660485E-03	1.884651E-04
1.710653E+03	2.348918E-03	1.649009E-04
1.750436E+03	2.057792E-03	1.431454E-04
1.790218E+03	1.789243E-03	1.233116E-04
1.830001E+03	1.544245E-03	1.054264E-04
1.869784E+03	1.323740E-03	8.951100E-05
1.909566E+03	1.127364E-03	7.549578E-05
1.949349E+03	9.553193E-04	6.334895E-05
1.989131E+03	8.081272E-04	5.305831E-05
2.028914E+03	6.870046E-04	4.465500E-05
2.068697E+03	5.935851E-04	3.819339E-05
2.108479E+03	5.293635E-04	3.371445E-05
2.148262E+03	4.939020E-04	3.113340E-05
2.188045E+03	4.853182E-04	3.027665E-05
2.227827E+03	5.014309E-04	3.095745E-05
2.267610E+03	5.410334E-04	3.305474E-05
2.307392E+03	6.044677E-04	3.654476E-05
2.347175E+03	6.939309E-04	4.151409E-05
2.386958E+03	8.134622E-04	4.815318E-05
2.426740E+03	9.679220E-04	5.669086E-05
2.466523E+03	1.162738E-03	6.737708E-05
2.506306E+03	1.401840E-03	8.036285E-05
2.546088E+03	1.687318E-03	9.568519E-05
2.585871E+03	2.016608E-03	1.131151E-04
2.625653E+03	2.383387E-03	1.322215E-04
2.665436E+03	2.777353E-03	1.523704E-04
2.705219E+03	3.186310E-03	1.728501E-04
2.745001E+03	3.597739E-03	1.929616E-04
2.784784E+03	3.998256E-03	2.119904E-04
2.824567E+03	4.377062E-03	2.293906E-04
2.864349E+03	4.724732E-03	2.447139E-04
2.904132E+03	5.035836E-03	2.577399E-04
2.943914E+03	5.309177E-03	2.684759E-04
2.983697E+03	5.548068E-03	2.771580E-04
2.993643E+03	5.603370E-03	2.790632E-04
3.003588E+03	5.656797E-03	2.808585E-04
3.013534E+03	5.708747E-03	2.825646E-04
3.023480E+03	5.759701E-03	2.842060E-04
3.033425E+03	5.810073E-03	2.858035E-04
3.043371E+03	5.860021E-03	2.873652E-04
3.053317E+03	5.909875E-03	2.889074E-04
3.063262E+03	5.959691E-03	2.904330E-04
3.073208E+03	6.009537E-03	2.919453E-04
3.083154E+03	6.059774E-03	2.934618E-04
3.093099E+03	6.110214E-03	2.949734E-04
3.103045E+03	6.161502E-03	2.965110E-04
3.112991E+03	6.213196E-03	2.980529E-04
3.122936E+03	6.266225E-03	2.996434E-04
3.132882E+03	6.319893E-03	3.012485E-04
3.142828E+03	6.375128E-03	3.029122E-04
3.152773E+03	6.431790E-03	3.046269E-04
3.162719E+03	6.490268E-03	3.064105E-04
3.172665E+03	6.550427E-03	3.082556E-04
3.182610E+03	6.612663E-03	3.101801E-04
3.192556E+03	6.677366E-03	3.122012E-04
3.202502E+03	6.744399E-03	3.143113E-04
3.212447E+03	6.814147E-03	3.165272E-04
3.222393E+03	6.886983E-03	3.188650E-04
3.232339E+03	6.963023E-03	3.213286E-04
3.242284E+03	7.042107E-03	3.239090E-04
3.252230E+03	7.124846E-03	3.266330E-04
3.262175E+03	7.211322E-03	3.295025E-04
3.272121E+03	7.301347E-03	3.325072E-04
3.282067E+03	7.395487E-03	3.356713E-04
3.292012E+03	7.493778E-03	3.389944E-04
3.301958E+03	7.596493E-03	3.424869E-04
3.311904E+03	7.703379E-03	3.461354E-04
3.321849E+03	7.814418E-03	3.499372E-04
3.331795E+03	7.930327E-03	3.539224E-04
3.341741E+03	8.050539E-03	3.580635E-04
3.351686E+03	8.175232E-03	3.623665E-04
3.361632E+03	8.304308E-03	3.668248E-04
3.371578E+03	8.437909E-03	3.714429E-04
3.381523E+03	8.576156E-03	3.762238E-04
3.391469E+03	8.718423E-03	3.811382E-04
3.401415E+03	8.865076E-03	3.862001E-04
3.411360E+03	9.015976E-03	3.914016E-04
3.421306E+03	9.170753E-03	3.967245E-04
3.431252E+03	9.329282E-03	4.021619E-04
3.441197E+03	9.491952E-03	4.077287E-04
3.451143E+03	9.657908E-03	4.133865E-04
3.461089E+03	9.827298E-03	4.191400E-04
3.471034E+03	1.000004E-02	4.249844E-04
3.480980E+03	1.017558E-02	4.308946E-04
3.490926E+03	1.035386E-02	4.368668E-04
3.500871E+03	1.053435E-02	4.428777E-04
3.510817E+03	1.071704E-02	4.489257E-04
3.520763E+03	1.090169E-02	4.550004E-04
3.530708E+03	1.108787E-02	4.610826E-04
3.540654E+03	1.127541E-02	4.671647E-04
3.550600E+03	1.146443E-02	4.732507E-04
3.560545E+03	1.165457E-02	4.793253E-04
3.570491E+03	1.184577E-02	4.853853E-04
3.580436E+03	1.203777E-02	4.914192E-04
3.590382E+03	1.223034E-02	4.974175E-04
3.600328E+03	1.242382E-02	5.033931E-04
3.610273E+03	1.261810E-02	5.093414E-04
3.620219E+03	1.281365E-02	5.152810E-04
3.630165E+03	1.301105E-02	5.212336E-04
3.640110E+03	1.321096E-02	5.272251E-04
3.650056E+03	1.341417E-02	5.332854E-04
3.660002E+03	1.362159E-02	5.394490E-04
3.669947E+03	1.383429E-02	5.457555E-04
3.679893E+03	1.405344E-02	5.522493E-04
3.689839E+03	1.428016E-02	5.589700E-04
3.699784E+03	1.451639E-02	5.659904E-04
3.709730E+03	1.476323E-02	5.733483E-04
3.719676E+03	1.502234E-02	5.811033E-04
3.729621E+03	1.529546E-02	5.893159E-04
3.739567E+03	1.558456E-02	5.980558E-04
3.749513E+03	1.589085E-02	6.073610E-04
3.759458E+03	1.621616E-02	6.172935E-04
3.769404E+03	1.656191E-02	6.278985E-04
3.779350E+03	1.692905E-02	6.392013E-04
3.789295E+03	1.731844E-02	6.512249E-04
3.799241E+03	1.773057E-02	6.639772E-04
3.809187E+03	1.816549E-02	6.774493E-04
3.819132E+03	1.862248E-02	6.916031E-04
3.829078E+03	1.910078E-02	7.064008E-04
3.839024E+03	1.959851E-02	7.217628E-04
3.848969E+03	2.011347E-02	7.375994E-04
3.858915E+03	2.064316E-02	7.538112E-04
3.868861E+03	2.118368E-02	7.702492E-04
3.878806E+03	2.173120E-02	7.867701E-04
3.888752E+03	2.228185E-02	8.032307E-04
3.898698E+03	2.283119E-02	8.194706E-04
3.908643E+03	2.337441E-02	8.353181E-04
3.918589E+03	2.390703E-02	8.506171E-04
3.928534E+03	2.442483E-02	8.652232E-04
3.938480E+03	2.492400E-02	8.790092E-04
3.948426E+03	2.540132E-02	8.918709E-04
3.958371E+03	2.585427E-02	9.037308E-04
3.968317E+03	2.628080E-02	9.145298E-04
3.978263E+03	2.668046E-02	9.242646E-04
3.988208E+03	2.705336E-02	9.329519E-04
3.998154E+03	2.740015E-02	9.406279E-04
4.008100E+03	2.772271E-02	9.473687E-04
4.018045E+03	2.802364E-02	9.532752E-04
4.027991E+03	2.830653E-02	9.584798E-04
4.037937E+03	2.857442E-02	9.630940E-04
4.047882E+03	2.883208E-02	9.672854E-04
4.057828E+03	2.908307E-02	9.711784E-04
4.067774E+03	2.933199E-02	9.749302E-04
4.077719E+03	2.958264E-02	9.786679E-04
4.087665E+03	2.983922E-02	9.825304E-04
4.097611E+03	3.010487E-02	9.866184E-04
4.107556E+03	3.038256E-02	9.910257E-04
4.117502E+03	3.067468E-02	9.958256E-04
4.127448E+03	3.098261E-02	1.001057E-03
4.137393E+03	3.130774E-02	1.006759E-03
4.147339E+03	3.164996E-02	1.012920E-03
4.157285E+03	3.200880E-02	1.019521E-03
4.167230E+03	3.238262E-02	1.026501E-03
4.177176E+03	3.276939E-02	1.033794E-03
4.187122E+03	3.316638E-02	1.041308E-03
4.197067E+03	3.356983E-02	1.048923E-03
4.207013E+03	3.397574E-02	1.056513E-03
4.216959E+03	3.437889E-02	1.063919E-03
4.226904E+03	3.477519E-02	1.071017E-03
4.236850E+03	3.515850E-02	1.077624E-03
4.246796E+03	3.552371E-02	1.083593E-03
4.256741E+03	3.586591E-02	1.088785E-03
4.266687E+03	3.618013E-02	1.093061E-03
4.276632E+03	3.646196E-02	1.096304E-03
4.286578E+03	3.670813E-02	1.098432E-03
4.296524E+03	3.691571E-02	1.099375E-03
4.306469E+03	3.708416E-02	1.099136E-03
4.316415E+03	3.721306E-02	1.097722E-03
4.326361E+03	3.730624E-02	1.095262E-03
4.336306E+03	3.736712E-02	1.091875E-03
4.346252E+03	3.740448E-02	1.087830E-03
4.356198E+03	3.742860E-02	1.083437E-03
4.366143E+03	3.745232E-02	1.079073E-03
4.376089E+03	3.748925E-02	1.075130E-03
4.386035E+03	3.755414E-02	1.072025E-03
4.395980E+03	3.765965E-02	1.070108E-03
4.405926E+03	3.781743E-02	1.069694E-03
4.415872E+03	3.803741E-02	1.071040E-03
4.425817E+03	3.832750E-02	1.074344E-03
4.435763E+03	3.869340E-02	1.079736E-03
4.445709E+03	3.913794E-02	1.087266E-03
4.455654E+03	3.966228E-02	1.096936E-03
4.465600E+03	4.026493E-02	1.108676E-03
4.475546E+03	4.094224E-02	1.122355E-03
4.485491E+03	4.168657E-02	1.137738E-03
4.495437E+03	4.249022E-02	1.154592E-03
4.505383E+03	4.334078E-02	1.172558E-03
4.515328E+03	4.422426E-02	1.191244E-03
4.525274E+03	4.512586E-02	1.210239E-03
4.535220E+03	4.602832E-02	1.229076E-03
4.545165E+03	4.691241E-02	1.247243E-03
4.555111E+03	4.775996E-02	1.264264E-03
4.565057E+03	4.855268E-02	1.279669E-03
4.575002E+03	4.927295E-02	1.293012E-03
4.584948E+03	4.990497E-02	1.303905E-03
4.594894E+03	5.043605E-02	1.312046E-03
4.604839E+03	5.085625E-02	1.317210E-03
4.614785E+03	5.115875E-02	1.319257E-03
4.624730E+03	5.134098E-02	1.318158E-03
4.634676E+03	5.140443E-02	1.313991E-03
4.644622E+03	5.135363E-02	1.306909E-03
4.654567E+03	5.119597E-02	1.297135E-03
4.664513E+03	5.094308E-02	1.284998E-03
4.674459E+03	5.060608E-02	1.270806E-03
4.684404E+03	5.020012E-02	1.254966E-03
4.694350E+03	4.973989E-02	1.237863E-03
4.704296E+03	4.924053E-02	1.219892E-03
4.714241E+03	4.871761E-02	1.201446E-03
4.724187E+03	4.818639E-02	1.182908E-03
4.734133E+03	4.766005E-02	1.164603E-03
4.744078E+03	4.714915E-02	1.146783E-03
4.754024E+03	4.666366E-02	1.129685E-03
4.763970E+03	4.621051E-02	1.113468E-03
4.773915E+03	4.579571E-02	1.098262E-03
4.783861E+03	4.542151E-02	1.084110E-03
4.793807E+03	4.509022E-02	1.071051E-03
4.803752E+03	4.480068E-02	1.059044E-03
4.813698E+03	4.455220E-02	1.048059E-03
4.823644E+03	4.434148E-02	1.038004E-03
4.833589E+03	4.416389E-02	1.028758E-03
4.843535E+03	4.401559E-02	1.020222E-03
4.853481E+03	4.389063E-02	1.012248E-03
4.863426E+03	4.378315E-02	1.004696E-03
4.873372E+03	4.368760E-02	9.974321E-04
4.883318E+03	4.359837E-02	9.903268E-04
4.893263E+03	4.351019E-02	9.832596E-04
4.903209E+03	4.341903E-02	9.761405E-04
4.913155E+03	4.332044E-02	9.688732E-04
4.923100E+03	4.321280E-02	9.614249E-04
4.933046E+03	4.309481E-02	9.537721E-04
4.942991E+03	4.296620E-02	9.459145E-04
4.952937E+03	4.282832E-02	9.378870E-04
4.962883E+03	4.268387E-02	9.297541E-04
4.972828E+03	4.253726E-02	9.216160E-04
4.982774E+03	4.239301E-02	9.135732E-04
4.992720E+03	4.225700E-02	9.057533E-04
5.002665E+03	4.213577E-02	8.982962E-04
5.012611E+03	4.203676E-02	8.913570E-04
5.022557E+03	4.196639E-02	8.850665E-04
5.032502E+03	4.193225E-02	8.795780E-04
5.042448E+03	4.194143E-02	8.750302E-04
5.052394E+03	4.200048E-02	8.715484E-04
5.062339E+03	4.211553E-02	8.692465E-04
5.072285E+03	4.229183E-02	8.682184E-04
5.082231E+03	4.253306E-02	8.685237E-04
5.092176E+03	4.284384E-02	8.702410E-04
5.102122E+03	4.322573E-02	8.733850E-04
5.112068E+03	4.367991E-02	8.779640E-04
5.122013E+03	4.420614E-02	8.839575E-04
5.131959E+03	4.480297E-02	8.913230E-04
5.141905E+03	4.546735E-02	8.999875E-04
5.151850E+03	4.619535E-02	9.098640E-04
5.161796E+03	4.697961E-02	9.208006E-04
5.171742E+03	4.781421E-02	9.326776E-04
5.181687E+03	4.868940E-02	9.453051E-04
5.191633E+03	4.959573E-02	9.585038E-04
5.201579E+03	5.052178E-02	9.720609E-04
5.211524E+03	5.145537E-02	9.857547E-04
5.221470E+03	5.238547E-02	9.993898E-04
5.231416E+03	5.329959E-02	1.012748E-03
5.241361E+03	5.418623E-02	1.025634E-03
5.251307E+03	5.503427E-02	1.037863E-03
5.261253E+03	5.583451E-02	1.049290E-03
5.271198E+03	5.658002E-02	1.059815E-03
5.281144E+03	5.726425E-02	1.069344E-03
5.291089E+03	5.788513E-02	1.077870E-03
5.301035E+03	5.844058E-02	1.085382E-03
5.310981E+03	5.893195E-02	1.091935E-03
5.320926E+03	5.936311E-02	1.097627E-03
5.330872E+03	5.973836E-02	1.102561E-03
5.340818E+03	6.006320E-02	1.106861E-03
5.350763E+03	6.034542E-02	1.110691E-03
5.360709E+03	6.058994E-02	1.114160E-03
5.370655E+03	6.080344E-02	1.117408E-03
5.380600E+03	6.099098E-02	1.120542E-03
5.390546E+03	6.115578E-02	1.123635E-03
5.400492E+03	6.130093E-02	1.126758E-03
5.410437E+03	6.142942E-02	1.129975E-03
5.420383E+03	6.155012E-02	1.133461E-03
5.430329E+03	6.166900E-02	1.137321E-03
5.440274E+03	6.178789E-02	1.141586E-03
5.450220E+03	6.190423E-02	1.146201E-03
5.460166E+03	6.200926E-02	1.150996E-03
5.470111E+03	6.209546E-02	1.155823E-03
5.480057E+03	6.214977E-02	1.160425E-03
5.490003E+03	6.216127E-02	1.164585E-03
5.499948E+03	6.211935E-02	1.168084E-03
5.509894E+03	6.201374E-02	1.170707E-03
5.519840E+03	6.183668E-02	1.172279E-03
5.529785E+03	6.158384E-02	1.172688E-03
5.539731E+03	6.125255E-02	1.171849E-03
5.549677E+03	6.084458E-02	1.169760E-03
5.559622E+03	6.036411E-02	1.166464E-03
5.569568E+03	5.981833E-02	1.162063E-03
5.579514E+03	5.921748E-02	1.156718E-03
5.589459E+03	5.857222E-02	1.150605E-03
5.599405E+03	5.789718E-02	1.143980E-03
5.609351E+03	5.720676E-02	1.137101E-03
5.619296E+03	5.651547E-02	1.130238E-03
5.629242E+03	5.583876E-02	1.123684E-03
5.639187E+03	5.519108E-02	1.117722E-03
5.649133E+03	5.458594E-02	1.112624E-03
5.659079E+03	5.403550E-02	1.108643E-03
5.669024E+03	5.355036E-02	1.106007E-03
5.678970E+03	5.313975E-02	1.104923E-03
5.688916E+03	5.280993E-02	1.105544E-03
5.698861E+03	5.256603E-02	1.108001E-03
5.708807E+03	5.241044E-02	1.112374E-03
5.718753E+03	5.234337E-02	1.118700E-03
5.728698E+03	5.236206E-02	1.126950E-03
5.738644E+03	5.246341E-02	1.137090E-03
5.748590E+03	5.264016E-02	1.148994E-03
5.758535E+03	5.288373E-02	1.162504E-03
5.768481E+03	5.318392E-02	1.177419E-03
5.778427E+03	5.352824E-02	1.193485E-03
5.788372E+03	5.390200E-02	1.210387E-03
5.798318E+03	5.429096E-02	1.227815E-03
5.808264E+03	5.467765E-02	1.245374E-03
5.818209E+03	5.504590E-02	1.262690E-03
5.828155E+03	5.537956E-02	1.279376E-03
5.838101E+03	5.566188E-02	1.295023E-03
5.848046E+03	5.587845E-02	1.309264E-03
5.857992E+03	5.601598E-02	1.321750E-03
5.867938E+03	5.606261E-02	1.332157E-03
5.877883E+03	5.601093E-02	1.340258E-03
5.887829E+03	5.585393E-02	1.345833E-03
5.897775E+03	5.559006E-02	1.348787E-03
5.907720E+03	5.521951E-02	1.349069E-03
5.917666E+03	5.474487E-02	1.346684E-03
5.927612E+03	5.417256E-02	1.341738E-03
5.937557E+03	5.351079E-02	1.334382E-03
5.947503E+03	5.276955E-02	1.324819E-03
5.957449E+03	5.196096E-02	1.313313E-03
5.967394E+03	5.109684E-02	1.300128E-03
5.977340E+03	5.019011E-02	1.285565E-03
5.987285E+03	4.925431E-02	1.269950E-03
5.997231E+03	4.830206E-02	1.253593E-03
6.007177E+03	4.734548E-02	1.236802E-03
6.017122E+03	4.639512E-02	1.219852E-03
6.027068E+03	4.546242E-02	1.203046E-03
6.037014E+03	4.455541E-02	1.186607E-03
6.046959E+03	4.368271E-02	1.170779E-03
6.056905E+03	4.285125E-02	1.155765E-03
6.066851E+03	4.206594E-02	1.141719E-03
6.076796E+03	4.133214E-02	1.128811E-03
6.086742E+03	4.065280E-02	1.117148E-03
6.096688E+03	4.003093E-02	1.106841E-03
6.106633E+03	3.946729E-02	1.097940E-03
6.116579E+03	3.896277E-02	1.090500E-03
6.126525E+03	3.851751E-02	1.084555E-03
6.136470E+03	3.812999E-02	1.080091E-03
6.146416E+03	3.779978E-02	1.077127E-03
6.156362E+03	3.752572E-02	1.075658E-03
6.166307E+03	3.730645E-02	1.075673E-03
6.176253E+03	3.714037E-02	1.077154E-03
6.186199E+03	3.702446E-02	1.080041E-03
6.196144E+03	3.695563E-02	1.084269E-03
6.206090E+03	3.692952E-02	1.089732E-03
6.216036E+03	3.694183E-02	1.096326E-03
6.225981E+03	3.698765E-02	1.103923E-03
6.235927E+03	3.706285E-02	1.112417E-03
6.245873E+03	3.716196E-02	1.121659E-03
6.255818E+03	3.728013E-02	1.131513E-03
6.265764E+03	3.741279E-02	1.141848E-03
6.275710E+03	3.755626E-02	1.152559E-03
6.285655E+03	3.770647E-02	1.163523E-03
6.295601E+03	3.786094E-02	1.174666E-03
6.305546E+03	3.801699E-02	1.185903E-03
6.315492E+03	3.817322E-02	1.197191E-03
6.325438E+03	3.832952E-02	1.208525E-03
6.335383E+03	3.848562E-02	1.219893E-03
6.345329E+03	3.864291E-02	1.231341E-03
6.355275E+03	3.880240E-02	1.242897E-03
6.365220E+03	3.896694E-02	1.254655E-03
6.375166E+03	3.913803E-02	1.266663E-03
6.385112E+03	3.931794E-02	1.278997E-03
6.395057E+03	3.950794E-02	1.291702E-03
6.405003E+03	3.970785E-02	1.304774E-03
6.414949E+03	3.991634E-02	1.318174E-03
6.424894E+03	4.013084E-02	1.331818E-03
6.434840E+03	4.034744E-02	1.345579E-03
6.444786E+03	4.056377E-02	1.359374E-03
6.454731E+03	4.077355E-02	1.372993E-03
6.464677E+03	4.097079E-02	1.386226E-03
6.474623E+03	4.114784E-02	1.398807E-03
6.484568E+03	4.129792E-02	1.410493E-03
6.494514E+03	4.141173E-02	1.420950E-03
6.504460E+03	4.148114E-02	1.429880E-03
6.514405E+03	4.149915E-02	1.437018E-03
6.524351E+03	4.145854E-02	1.442087E-03
6.534297E+03	4.135444E-02	1.444890E-03
6.544242E+03	4.118293E-02	1.445258E-03
6.554188E+03	4.094170E-02	1.443079E-03
6.564134E+03	4.063018E-02	1.438300E-03
6.574079E+03	4.025007E-02	1.430949E-03
6.584025E+03	3.980356E-02	1.421073E-03
6.593971E+03	3.929541E-02	1.408815E-03
6.603916E+03	3.873109E-02	1.394343E-03
6.613862E+03	3.811706E-02	1.377868E-03
6.623808E+03	3.746108E-02	1.359650E-03
6.633753E+03	3.677026E-02	1.339932E-03
6.643699E+03	3.605303E-02	1.319008E-03
6.653644E+03	3.531669E-02	1.297136E-03
6.663590E+03	3.456983E-02	1.274628E-03
6.673536E+03	3.381909E-02	1.251727E-03
6.683481E+03	3.307104E-02	1.228676E-03
6.693427E+03	3.233160E-02	1.205701E-03
6.703373E+03	3.160642E-02	1.183018E-03
6.713318E+03	3.089946E-02	1.160784E-03
6.723264E+03	3.021484E-02	1.139164E-03
6.733210E+03	2.955505E-02	1.118264E-03
6.743155E+03	2.892322E-02	1.098214E-03
6.753101E+03	2.832008E-02	1.079055E-03
6.763047E+03	2.774710E-02	1.060858E-03
6.772992E+03	2.720481E-02	1.043656E-03
6.782938E+03	2.669289E-02	1.027450E-03
6.792884E+03	2.621189E-02	1.012276E-03
6.802829E+03	2.576080E-02	9.981070E-04
6.812775E+03	2.533880E-02	9.849245E-04
6.822721E+03	2.494487E-02	9.727012E-04
6.832666E+03	2.457785E-02	9.614032E-04
6.842612E+03	2.423647E-02	9.509924E-04
6.852558E+03	2.391943E-02	9.414280E-04
6.862503E+03	2.362541E-02	9.326672E-04
6.872449E+03	2.335305E-02	9.246666E-04
6.882395E+03	2.310108E-02	9.173837E-04
6.892340E+03	2.286864E-02	9.107921E-04
6.902286E+03	2.265381E-02	9.048235E-04
6.912232E+03	2.245626E-02	8.994712E-04
6.922177E+03	2.227464E-02	8.946874E-04
6.932123E+03	2.210807E-02	8.904428E-04
6.942069E+03	2.195540E-02	8.866975E-04
6.952014E+03	2.181670E-02	8.834584E-04
6.961960E+03	2.169102E-02	8.806929E-04
6.971906E+03	2.157789E-02	8.783863E-04
6.981851E+03	2.147692E-02	8.765269E-04
6.991797E+03	2.138777E-02	8.751059E-04
7.001742E+03	2.131018E-02	8.741165E-04
7.011688E+03	2.124394E-02	8.735539E-04
7.021634E+03	2.118850E-02	8.733994E-04
7.031579E+03	2.114439E-02	8.736787E-04
7.041525E+03	2.111108E-02	8.743735E-04
7.051471E+03	2.108838E-02	8.754793E-04
7.061416E+03	2.107569E-02	8.769749E-04
7.071362E+03	2.107346E-02	8.788821E-04
7.081308E+03	2.108064E-02	8.811603E-04
7.091253E+03	2.109756E-02	8.838263E-04
7.101199E+03	2.112341E-02	8.868485E-04
7.111145E+03	2.115725E-02	8.901912E-04
7.121090E+03	2.119924E-02	8.938624E-04
7.131036E+03	2.124830E-02	8.978198E-04
7.140982E+03	2.130369E-02	9.020337E-04
7.150927E+03	2.136458E-02	9.064707E-04
7.160873E+03	2.143049E-02	9.111122E-04
7.170819E+03	2.150011E-02	9.159042E-04
7.180764E+03	2.157288E-02	9.208239E-04
7.190710E+03	2.164746E-02	9.258143E-04
7.200656E+03	2.172325E-02	9.308512E-04
7.210601E+03	2.179928E-02	9.358936E-04
7.220547E+03	2.187502E-02	9.409187E-04
7.230493E+03	2.194875E-02	9.458524E-04
7.240438E+03	2.202040E-02	9.506919E-04
7.250384E+03	2.208916E-02	9.554019E-04
7.260330E+03	2.215428E-02	9.599497E-04
7.270275E+03	2.221466E-02	9.642875E-04
7.280221E+03	2.227098E-02	9.684432E-04
7.290167E+03	2.232190E-02	9.723588E-04
7.300112E+03	2.236701E-02	9.760157E-04
7.310058E+03	2.240690E-02	9.794384E-04
7.320004E+03	2.244098E-02	9.826003E-04
7.329949E+03	2.246963E-02	9.855181E-04
7.339895E+03	2.249252E-02	9.881766E-04
7.349840E+03	2.250989E-02	9.905851E-04
7.359786E+03	2.252255E-02	9.927791E-04
7.369732E+03	2.253102E-02	9.947811E-04
7.379677E+03	2.253551E-02	9.966004E-04
7.389623E+03	2.253681E-02	9.982719E-04
7.399569E+03	2.253585E-02	9.998367E-04
7.409514E+03	2.253366E-02	1.001340E-03
7.419460E+03	2.253182E-02	1.002854E-03
7.429406E+03	2.253063E-02	1.004393E-03
7.439351E+03	2.253181E-02	1.006033E-03
7.449297E+03	2.253667E-02	1.007835E-03
7.459243E+03	2.254648E-02	1.009858E-03
7.469188E+03	2.256161E-02	1.012120E-03
7.479134E+03	2.258417E-02	1.014717E-03
7.489080E+03	2.261436E-02	1.017661E-03
7.499025E+03	2.265364E-02	1.021020E-03
7.508971E+03	2.270239E-02	1.024814E-03
7.518917E+03	2.276131E-02	1.029078E-03
7.528862E+03	2.283089E-02	1.033836E-03
7.538808E+03	2.291095E-02	1.039085E-03
7.548754E+03	2.300207E-02	1.044853E-03
7.558699E+03	2.310314E-02	1.051093E-03
7.568645E+03	2.321478E-02	1.057837E-03
7.578591E+03	2.333546E-02	1.065017E-03
7.588536E+03	2.346488E-02	1.072625E-03
7.598482E+03	2.360208E-02	1.080618E-03
7.608428E+03	2.374544E-02	1.088925E-03
7.618373E+03	2.389414E-02	1.097511E-03
7.628319E+03	2.404575E-02	1.106267E-03
7.638265E+03	2.420024E-02	1.115192E-03
7.648210E+03	2.435446E-02	1.124145E-03
7.658156E+03	2.450774E-02	1.133095E-03
7.668101E+03	2.465732E-02	1.141915E-03
7.678047E+03	2.480249E-02	1.150574E-03
7.687993E+03	2.494103E-02	1.158967E-03
7.697938E+03	2.507122E-02	1.167016E-03
7.707884E+03	2.519194E-02	1.174667E-03
7.717830E+03	2.530053E-02	1.181795E-03
