#wls	flux	fluxerr
1.591305E+03	3.782041E-03	2.051650E-04
1.631088E+03	3.406331E-03	1.824948E-04
1.670870E+03	3.039412E-03	1.607805E-04
1.710653E+03	2.687547E-03	1.403380E-04
1.750436E+03	2.356401E-03	1.214343E-04
1.790218E+03	2.048718E-03	1.041713E-04
1.830001E+03	1.766565E-03	8.860789E-05
1.869784E+03	1.510916E-03	7.474252E-05
1.909566E+03	1.282709E-03	6.256813E-05
1.949349E+03	1.081853E-03	5.202459E-05
1.989131E+03	9.092985E-04	4.310102E-05
2.028914E+03	7.661353E-04	3.578980E-05
2.068697E+03	6.541222E-04	3.011107E-05
2.108479E+03	5.746267E-04	2.606255E-05
2.148262E+03	5.274944E-04	2.357076E-05
2.188045E+03	5.109753E-04	2.249329E-05
2.227827E+03	5.227184E-04	2.266750E-05
2.267610E+03	5.616764E-04	2.399411E-05
2.307392E+03	6.291979E-04	2.647906E-05
2.347175E+03	7.286065E-04	3.020819E-05
2.386958E+03	8.659395E-04	3.537133E-05
2.426740E+03	1.048836E-03	4.220999E-05
2.466523E+03	1.285794E-03	5.098356E-05
2.506306E+03	1.584439E-03	6.189983E-05
2.546088E+03	1.948565E-03	7.500393E-05
2.585871E+03	2.375990E-03	9.010863E-05
2.625653E+03	2.857165E-03	1.067592E-04
2.665436E+03	3.376826E-03	1.243144E-04
2.705219E+03	3.918282E-03	1.421169E-04
2.745001E+03	4.463289E-03	1.594918E-04
2.784784E+03	4.995102E-03	1.758569E-04
2.824567E+03	5.497732E-03	1.906926E-04
2.864349E+03	5.958163E-03	2.036138E-04
2.904132E+03	6.368344E-03	2.144291E-04
2.943914E+03	6.726417E-03	2.231675E-04
2.983697E+03	7.037457E-03	2.300875E-04
2.993643E+03	7.109204E-03	2.315868E-04
3.003588E+03	7.178648E-03	2.329992E-04
3.013534E+03	7.246255E-03	2.343411E-04
3.023480E+03	7.312300E-03	2.356221E-04
3.033425E+03	7.377645E-03	2.368707E-04
3.043371E+03	7.442872E-03	2.381061E-04
3.053317E+03	7.507763E-03	2.393216E-04
3.063262E+03	7.573033E-03	2.405403E-04
3.073208E+03	7.638502E-03	2.417566E-04
3.083154E+03	7.704606E-03	2.429846E-04
3.093099E+03	7.771501E-03	2.442293E-04
3.103045E+03	7.839649E-03	2.455050E-04
3.112991E+03	7.908925E-03	2.468079E-04
3.122936E+03	7.980112E-03	2.481618E-04
3.132882E+03	8.052816E-03	2.495542E-04
3.142828E+03	8.128118E-03	2.510178E-04
3.152773E+03	8.205937E-03	2.525496E-04
3.162719E+03	8.286490E-03	2.541554E-04
3.172665E+03	8.370288E-03	2.558501E-04
3.182610E+03	8.457832E-03	2.576480E-04
3.192556E+03	8.549063E-03	2.595463E-04
3.202502E+03	8.644488E-03	2.615592E-04
3.212447E+03	8.744318E-03	2.636921E-04
3.222393E+03	8.849321E-03	2.659666E-04
3.232339E+03	8.959416E-03	2.683791E-04
3.242284E+03	9.074788E-03	2.709336E-04
3.252230E+03	9.196153E-03	2.736501E-04
3.262175E+03	9.323376E-03	2.765229E-04
3.272121E+03	9.456848E-03	2.795621E-04
3.282067E+03	9.596652E-03	2.827684E-04
3.292012E+03	9.743097E-03	2.861494E-04
3.301958E+03	9.896186E-03	2.897034E-04
3.311904E+03	1.005613E-02	2.934350E-04
3.321849E+03	1.022255E-02	2.973314E-04
3.331795E+03	1.039582E-02	3.014018E-04
3.341741E+03	1.057542E-02	3.056299E-04
3.351686E+03	1.076133E-02	3.100133E-04
3.361632E+03	1.095318E-02	3.145400E-04
3.371578E+03	1.115026E-02	3.191886E-04
3.381523E+03	1.135264E-02	3.239597E-04
3.391469E+03	1.155924E-02	3.288218E-04
3.401415E+03	1.177007E-02	3.337743E-04
3.411360E+03	1.198406E-02	3.387859E-04
3.421306E+03	1.220095E-02	3.438494E-04
3.431252E+03	1.241977E-02	3.489367E-04
3.441197E+03	1.264044E-02	3.540458E-04
3.451143E+03	1.286244E-02	3.591619E-04
3.461089E+03	1.308503E-02	3.642645E-04
3.471034E+03	1.330793E-02	3.693462E-04
3.480980E+03	1.353035E-02	3.743857E-04
3.490926E+03	1.375167E-02	3.793658E-04
3.500871E+03	1.397190E-02	3.842884E-04
3.510817E+03	1.419046E-02	3.891376E-04
3.520763E+03	1.440769E-02	3.939238E-04
3.530708E+03	1.462300E-02	3.986319E-04
3.540654E+03	1.483726E-02	4.032860E-04
3.550600E+03	1.505012E-02	4.078768E-04
3.560545E+03	1.526211E-02	4.124186E-04
3.570491E+03	1.547356E-02	4.169209E-04
3.580436E+03	1.568466E-02	4.213881E-04
3.590382E+03	1.589564E-02	4.258266E-04
3.600328E+03	1.610762E-02	4.302657E-04
3.610273E+03	1.632149E-02	4.347291E-04
3.620219E+03	1.653852E-02	4.392496E-04
3.630165E+03	1.676006E-02	4.438618E-04
3.640110E+03	1.698754E-02	4.486021E-04
3.650056E+03	1.722246E-02	4.535088E-04
3.660002E+03	1.746645E-02	4.586221E-04
3.669947E+03	1.772144E-02	4.639905E-04
3.679893E+03	1.798918E-02	4.696569E-04
3.689839E+03	1.827121E-02	4.756583E-04
3.699784E+03	1.856963E-02	4.820451E-04
3.709730E+03	1.888625E-02	4.888607E-04
3.719676E+03	1.922258E-02	4.961393E-04
3.729621E+03	1.958082E-02	5.039330E-04
3.739567E+03	1.996197E-02	5.122623E-04
3.749513E+03	2.036765E-02	5.211627E-04
3.759458E+03	2.079891E-02	5.306557E-04
3.769404E+03	2.125625E-02	5.407473E-04
3.779350E+03	2.174057E-02	5.514546E-04
3.789295E+03	2.225126E-02	5.627553E-04
3.799241E+03	2.278831E-02	5.746432E-04
3.809187E+03	2.335005E-02	5.870695E-04
3.819132E+03	2.393509E-02	5.999940E-04
3.829078E+03	2.454121E-02	6.133549E-04
3.839024E+03	2.516591E-02	6.270848E-04
3.848969E+03	2.580524E-02	6.410810E-04
3.858915E+03	2.645603E-02	6.552609E-04
3.868861E+03	2.711345E-02	6.695024E-04
3.878806E+03	2.777368E-02	6.837094E-04
3.888752E+03	2.843213E-02	6.977681E-04
3.898698E+03	2.908355E-02	7.115498E-04
3.908643E+03	2.972452E-02	7.249723E-04
3.918589E+03	3.035027E-02	7.379217E-04
3.928534E+03	3.095719E-02	7.503133E-04
3.938480E+03	3.154297E-02	7.620957E-04
3.948426E+03	3.210466E-02	7.732019E-04
3.958371E+03	3.264116E-02	7.836110E-04
3.968317E+03	3.315223E-02	7.933232E-04
3.978263E+03	3.363738E-02	8.023320E-04
3.988208E+03	3.409846E-02	8.106876E-04
3.998154E+03	3.453729E-02	8.184390E-04
4.008100E+03	3.495556E-02	8.256308E-04
4.018045E+03	3.535748E-02	8.323674E-04
4.027991E+03	3.574562E-02	8.387132E-04
4.037937E+03	3.612359E-02	8.447563E-04
4.047882E+03	3.649589E-02	8.506035E-04
4.057828E+03	3.686530E-02	8.563221E-04
4.067774E+03	3.723561E-02	8.620003E-04
4.077719E+03	3.760982E-02	8.677079E-04
4.087665E+03	3.799047E-02	8.735033E-04
4.097611E+03	3.837948E-02	8.794292E-04
4.107556E+03	3.877822E-02	8.855156E-04
4.117502E+03	3.918687E-02	8.917658E-04
4.127448E+03	3.960567E-02	8.981831E-04
4.137393E+03	4.003330E-02	9.047369E-04
4.147339E+03	4.046846E-02	9.113965E-04
4.157285E+03	4.090797E-02	9.180901E-04
4.167230E+03	4.134909E-02	9.247567E-04
4.177176E+03	4.178806E-02	9.313136E-04
4.187122E+03	4.221988E-02	9.376516E-04
4.197067E+03	4.263983E-02	9.436695E-04
4.207013E+03	4.304299E-02	9.492634E-04
4.216959E+03	4.342350E-02	9.543098E-04
4.226904E+03	4.377648E-02	9.587091E-04
4.236850E+03	4.409683E-02	9.623582E-04
4.246796E+03	4.438018E-02	9.651712E-04
4.256741E+03	4.462239E-02	9.670692E-04
4.266687E+03	4.482096E-02	9.680090E-04
4.276632E+03	4.497430E-02	9.679684E-04
4.286578E+03	4.508336E-02	9.669799E-04
4.296524E+03	4.514939E-02	9.650818E-04
4.306469E+03	4.517746E-02	9.623937E-04
4.316415E+03	4.517386E-02	9.590591E-04
4.326361E+03	4.514815E-02	9.552888E-04
4.336306E+03	4.511259E-02	9.513481E-04
4.346252E+03	4.508057E-02	9.475220E-04
4.356198E+03	4.506790E-02	9.441430E-04
4.366143E+03	4.509143E-02	9.415605E-04
4.376089E+03	4.516794E-02	9.401185E-04
4.386035E+03	4.531280E-02	9.401268E-04
4.395980E+03	4.553769E-02	9.418142E-04
4.405926E+03	4.585167E-02	9.453499E-04
4.415872E+03	4.626046E-02	9.508333E-04
4.425817E+03	4.676537E-02	9.582711E-04
4.435763E+03	4.736516E-02	9.676187E-04
4.445709E+03	4.805606E-02	9.787809E-04
4.455654E+03	4.883250E-02	9.916260E-04
4.465600E+03	4.968527E-02	1.005951E-03
4.475546E+03	5.060366E-02	1.021524E-03
4.485491E+03	5.157585E-02	1.038095E-03
4.495437E+03	5.258676E-02	1.055348E-03
4.505383E+03	5.361967E-02	1.072941E-03
4.515328E+03	5.465735E-02	1.090524E-03
4.525274E+03	5.567998E-02	1.107700E-03
4.535220E+03	5.666894E-02	1.124099E-03
4.545165E+03	5.760445E-02	1.139334E-03
4.555111E+03	5.846701E-02	1.153026E-03
4.565057E+03	5.923904E-02	1.164839E-03
4.575002E+03	5.990618E-02	1.174505E-03
4.584948E+03	6.045466E-02	1.181769E-03
4.594894E+03	6.087497E-02	1.186463E-03
4.604839E+03	6.116129E-02	1.188494E-03
4.614785E+03	6.131162E-02	1.187843E-03
4.624730E+03	6.132716E-02	1.184554E-03
4.634676E+03	6.121270E-02	1.178741E-03
4.644622E+03	6.097696E-02	1.170592E-03
4.654567E+03	6.063073E-02	1.160332E-03
4.664513E+03	6.018584E-02	1.148205E-03
4.674459E+03	5.965804E-02	1.134528E-03
4.684404E+03	5.906148E-02	1.119581E-03
4.694350E+03	5.841189E-02	1.103675E-03
4.704296E+03	5.772509E-02	1.087116E-03
4.714241E+03	5.701605E-02	1.070191E-03
4.724187E+03	5.629864E-02	1.053165E-03
4.734133E+03	5.558449E-02	1.036255E-03
4.744078E+03	5.488528E-02	1.019680E-03
4.754024E+03	5.420971E-02	1.003596E-03
4.763970E+03	5.356475E-02	9.881283E-04
4.773915E+03	5.295654E-02	9.733854E-04
4.783861E+03	5.238802E-02	9.594137E-04
4.793807E+03	5.186166E-02	9.462514E-04
4.803752E+03	5.137903E-02	9.339195E-04
4.813698E+03	5.093907E-02	9.223905E-04
4.823644E+03	5.054072E-02	9.116377E-04
4.833589E+03	5.018168E-02	9.016123E-04
4.843535E+03	4.985965E-02	8.922654E-04
4.853481E+03	4.957197E-02	8.835436E-04
4.863426E+03	4.931541E-02	8.753828E-04
4.873372E+03	4.908630E-02	8.677131E-04
4.883318E+03	4.888269E-02	8.604956E-04
4.893263E+03	4.870208E-02	8.536823E-04
4.903209E+03	4.854212E-02	8.472286E-04
4.913155E+03	4.840240E-02	8.411249E-04
4.923100E+03	4.828159E-02	8.353452E-04
4.933046E+03	4.818079E-02	8.299064E-04
4.942991E+03	4.810115E-02	8.248256E-04
4.952937E+03	4.804362E-02	8.201165E-04
4.962883E+03	4.801215E-02	8.158436E-04
4.972828E+03	4.800902E-02	8.120421E-04
4.982774E+03	4.803849E-02	8.087798E-04
4.992720E+03	4.810478E-02	8.061229E-04
5.002665E+03	4.821183E-02	8.041314E-04
5.012611E+03	4.836475E-02	8.028842E-04
5.022557E+03	4.856803E-02	8.024482E-04
5.032502E+03	4.882551E-02	8.028788E-04
5.042448E+03	4.914174E-02	8.042416E-04
5.052394E+03	4.951964E-02	8.065755E-04
5.062339E+03	4.996261E-02	8.099261E-04
5.072285E+03	5.047263E-02	8.143154E-04
5.082231E+03	5.104983E-02	8.197366E-04
5.092176E+03	5.169578E-02	8.262059E-04
5.102122E+03	5.240795E-02	8.336744E-04
5.112068E+03	5.318436E-02	8.421045E-04
5.122013E+03	5.402141E-02	8.514335E-04
5.131959E+03	5.491463E-02	8.615879E-04
5.141905E+03	5.585650E-02	8.724489E-04
5.151850E+03	5.683928E-02	8.838971E-04
5.161796E+03	5.785505E-02	8.958139E-04
5.171742E+03	5.889198E-02	9.080237E-04
5.181687E+03	5.994000E-02	9.203821E-04
5.191633E+03	6.098659E-02	9.327107E-04
5.201579E+03	6.201941E-02	9.448378E-04
5.211524E+03	6.302577E-02	9.565903E-04
5.221470E+03	6.399249E-02	9.677908E-04
5.231416E+03	6.490817E-02	9.782922E-04
5.241361E+03	6.576087E-02	9.879414E-04
5.251307E+03	6.654094E-02	9.966216E-04
5.261253E+03	6.723814E-02	1.004209E-03
5.271198E+03	6.784571E-02	1.010631E-03
5.281144E+03	6.835781E-02	1.015831E-03
5.291089E+03	6.876955E-02	1.019763E-03
5.301035E+03	6.907855E-02	1.022419E-03
5.310981E+03	6.928439E-02	1.023816E-03
5.320926E+03	6.938620E-02	1.023963E-03
5.330872E+03	6.938562E-02	1.022905E-03
5.340818E+03	6.928593E-02	1.020706E-03
5.350763E+03	6.909058E-02	1.017430E-03
5.360709E+03	6.880234E-02	1.013127E-03
5.370655E+03	6.842658E-02	1.007884E-03
5.380600E+03	6.796798E-02	1.001773E-03
5.390546E+03	6.743366E-02	9.948994E-04
5.400492E+03	6.683104E-02	9.873697E-04
5.410437E+03	6.617729E-02	9.794260E-04
5.420383E+03	6.549936E-02	9.714470E-04
5.430329E+03	6.482290E-02	9.637930E-04
5.440274E+03	6.416569E-02	9.567110E-04
5.450220E+03	6.353781E-02	9.503353E-04
5.460166E+03	6.294396E-02	9.447225E-04
5.470111E+03	6.238534E-02	9.398789E-04
5.480057E+03	6.185938E-02	9.357546E-04
5.490003E+03	6.136162E-02	9.322717E-04
5.499948E+03	6.088715E-02	9.293451E-04
5.509894E+03	6.042894E-02	9.268567E-04
5.519840E+03	5.998279E-02	9.247307E-04
5.529785E+03	5.954400E-02	9.228825E-04
5.539731E+03	5.910833E-02	9.212340E-04
5.549677E+03	5.867412E-02	9.197461E-04
5.559622E+03	5.823986E-02	9.183822E-04
5.569568E+03	5.780677E-02	9.171483E-04
5.579514E+03	5.737689E-02	9.160651E-04
5.589459E+03	5.695360E-02	9.151750E-04
5.599405E+03	5.654125E-02	9.145390E-04
5.609351E+03	5.614464E-02	9.142271E-04
5.619296E+03	5.577087E-02	9.143501E-04
5.629242E+03	5.542569E-02	9.150000E-04
5.639187E+03	5.511545E-02	9.162828E-04
5.649133E+03	5.484689E-02	9.183140E-04
5.659079E+03	5.462522E-02	9.211880E-04
5.669024E+03	5.445548E-02	9.249995E-04
5.678970E+03	5.434303E-02	9.298518E-04
5.688916E+03	5.428978E-02	9.357926E-04
5.698861E+03	5.429764E-02	9.428715E-04
5.708807E+03	5.436825E-02	9.511349E-04
5.718753E+03	5.450012E-02	9.605756E-04
5.728698E+03	5.469076E-02	9.711689E-04
5.738644E+03	5.493669E-02	9.828715E-04
5.748590E+03	5.523107E-02	9.955784E-04
5.758535E+03	5.556839E-02	1.009205E-03
5.768481E+03	5.593875E-02	1.023585E-03
5.778427E+03	5.633201E-02	1.038541E-03
5.788372E+03	5.673802E-02	1.053892E-03
5.798318E+03	5.714377E-02	1.069395E-03
5.808264E+03	5.753614E-02	1.084801E-03
5.818209E+03	5.790161E-02	1.099844E-03
5.828155E+03	5.822731E-02	1.114264E-03
5.838101E+03	5.849998E-02	1.127785E-03
5.848046E+03	5.870664E-02	1.140131E-03
5.857992E+03	5.883670E-02	1.151063E-03
5.867938E+03	5.888120E-02	1.160369E-03
5.877883E+03	5.883190E-02	1.167847E-03
5.887829E+03	5.868325E-02	1.173342E-03
5.897775E+03	5.843298E-02	1.176762E-03
5.907720E+03	5.807989E-02	1.178039E-03
5.917666E+03	5.762737E-02	1.177194E-03
5.927612E+03	5.707916E-02	1.174258E-03
5.937557E+03	5.644207E-02	1.169330E-03
5.947503E+03	5.572481E-02	1.162551E-03
5.957449E+03	5.493837E-02	1.154116E-03
5.967394E+03	5.409457E-02	1.144242E-03
5.977340E+03	5.320532E-02	1.133157E-03
5.987285E+03	5.228505E-02	1.121150E-03
5.997231E+03	5.134585E-02	1.108468E-03
6.007177E+03	5.040209E-02	1.095413E-03
6.017122E+03	4.946518E-02	1.082234E-03
6.027068E+03	4.854815E-02	1.069218E-03
6.037014E+03	4.766133E-02	1.056605E-03
6.046959E+03	4.681451E-02	1.044624E-03
6.056905E+03	4.601666E-02	1.033496E-03
6.066851E+03	4.527442E-02	1.023391E-03
6.076796E+03	4.459400E-02	1.014474E-03
6.086742E+03	4.398030E-02	1.006885E-03
6.096688E+03	4.343514E-02	1.000695E-03
6.106633E+03	4.296164E-02	9.960068E-04
6.116579E+03	4.255997E-02	9.928545E-04
6.126525E+03	4.222953E-02	9.912561E-04
6.136470E+03	4.196796E-02	9.911868E-04
6.146416E+03	4.177122E-02	9.925811E-04
6.156362E+03	4.163525E-02	9.953702E-04
6.166307E+03	4.155345E-02	9.994222E-04
6.176253E+03	4.151940E-02	1.004605E-03
6.186199E+03	4.152491E-02	1.010742E-03
6.196144E+03	4.156334E-02	1.017686E-03
6.206090E+03	4.162611E-02	1.025242E-03
6.216036E+03	4.170504E-02	1.033218E-03
6.225981E+03	4.179207E-02	1.041421E-03
6.235927E+03	4.187945E-02	1.049660E-03
6.245873E+03	4.196060E-02	1.057769E-03
6.255818E+03	4.202812E-02	1.065558E-03
6.265764E+03	4.207838E-02	1.072926E-03
6.275710E+03	4.210621E-02	1.079731E-03
6.285655E+03	4.210940E-02	1.085906E-03
6.295601E+03	4.208655E-02	1.091401E-03
6.305546E+03	4.203762E-02	1.096203E-03
6.315492E+03	4.196377E-02	1.100331E-03
6.325438E+03	4.186782E-02	1.103845E-03
6.335383E+03	4.175230E-02	1.106802E-03
6.345329E+03	4.162198E-02	1.109320E-03
6.355275E+03	4.147960E-02	1.111464E-03
6.365220E+03	4.132949E-02	1.113346E-03
6.375166E+03	4.117499E-02	1.115050E-03
6.385112E+03	4.101871E-02	1.116645E-03
6.395057E+03	4.086293E-02	1.118192E-03
6.405003E+03	4.070667E-02	1.119663E-03
6.414949E+03	4.055142E-02	1.121099E-03
6.424894E+03	4.039486E-02	1.122433E-03
6.434840E+03	4.023698E-02	1.123665E-03
6.444786E+03	4.007865E-02	1.124817E-03
6.454731E+03	3.992054E-02	1.125909E-03
6.464677E+03	3.976187E-02	1.126916E-03
6.474623E+03	3.960080E-02	1.127786E-03
6.484568E+03	3.943501E-02	1.128451E-03
6.494514E+03	3.926187E-02	1.128832E-03
6.504460E+03	3.907647E-02	1.128785E-03
6.514405E+03	3.887574E-02	1.128214E-03
6.524351E+03	3.865380E-02	1.126942E-03
6.534297E+03	3.840776E-02	1.124876E-03
6.544242E+03	3.813408E-02	1.121901E-03
6.554188E+03	3.782932E-02	1.117906E-03
6.564134E+03	3.749143E-02	1.112815E-03
6.574079E+03	3.711979E-02	1.106600E-03
6.584025E+03	3.671365E-02	1.099224E-03
6.593971E+03	3.627430E-02	1.090713E-03
6.603916E+03	3.580280E-02	1.081087E-03
6.613862E+03	3.530264E-02	1.070440E-03
6.623808E+03	3.477583E-02	1.058824E-03
6.633753E+03	3.422652E-02	1.046357E-03
6.643699E+03	3.365872E-02	1.033154E-03
6.653644E+03	3.307670E-02	1.019340E-03
6.663590E+03	3.248530E-02	1.005063E-03
6.673536E+03	3.188789E-02	9.904241E-04
6.683481E+03	3.128962E-02	9.755840E-04
6.693427E+03	3.069448E-02	9.606678E-04
6.703373E+03	3.010564E-02	9.457787E-04
6.713318E+03	2.952691E-02	9.310398E-04
6.723264E+03	2.896075E-02	9.165342E-04
6.733210E+03	2.841012E-02	9.023621E-04
6.743155E+03	2.787715E-02	8.885977E-04
6.753101E+03	2.736352E-02	8.753030E-04
6.763047E+03	2.687058E-02	8.625284E-04
6.772992E+03	2.639886E-02	8.503001E-04
6.782938E+03	2.594986E-02	8.386746E-04
6.792884E+03	2.552351E-02	8.276582E-04
6.802829E+03	2.511990E-02	8.172630E-04
6.812775E+03	2.473853E-02	8.074805E-04
6.822721E+03	2.438027E-02	7.983480E-04
6.832666E+03	2.404349E-02	7.898202E-04
6.842612E+03	2.372838E-02	7.819111E-04
6.852558E+03	2.343351E-02	7.745810E-04
6.862503E+03	2.315890E-02	7.678380E-04
6.872449E+03	2.290378E-02	7.616633E-04
6.882395E+03	2.266658E-02	7.560110E-04
6.892340E+03	2.244725E-02	7.508858E-04
6.902286E+03	2.224497E-02	7.462661E-04
6.912232E+03	2.205822E-02	7.421063E-04
6.922177E+03	2.188697E-02	7.384107E-04
6.932123E+03	2.173049E-02	7.351596E-04
6.942069E+03	2.158773E-02	7.323219E-04
6.952014E+03	2.145802E-02	7.298795E-04
6.961960E+03	2.134076E-02	7.278157E-04
6.971906E+03	2.123572E-02	7.261267E-04
6.981851E+03	2.114199E-02	7.247848E-04
6.991797E+03	2.105941E-02	7.237882E-04
7.001742E+03	2.098712E-02	7.231104E-04
7.011688E+03	2.092499E-02	7.227501E-04
7.021634E+03	2.087218E-02	7.226809E-04
7.031579E+03	2.082821E-02	7.228893E-04
7.041525E+03	2.079298E-02	7.233738E-04
7.051471E+03	2.076559E-02	7.241062E-04
7.061416E+03	2.074594E-02	7.250842E-04
7.071362E+03	2.073308E-02	7.262777E-04
7.081308E+03	2.072683E-02	7.276818E-04
7.091253E+03	2.072660E-02	7.292772E-04
7.101199E+03	2.073136E-02	7.310300E-04
7.111145E+03	2.074044E-02	7.329177E-04
7.121090E+03	2.075392E-02	7.349438E-04
7.131036E+03	2.076990E-02	7.370428E-04
7.140982E+03	2.078879E-02	7.392298E-04
7.150927E+03	2.080943E-02	7.414644E-04
7.160873E+03	2.083064E-02	7.437052E-04
7.170819E+03	2.085241E-02	7.459522E-04
7.180764E+03	2.087318E-02	7.481498E-04
7.190710E+03	2.089297E-02	7.502991E-04
7.200656E+03	2.091066E-02	7.523595E-04
7.210601E+03	2.092595E-02	7.543206E-04
7.220547E+03	2.093779E-02	7.561441E-04
7.230493E+03	2.094601E-02	7.578237E-04
7.240438E+03	2.095012E-02	7.593410E-04
7.250384E+03	2.095010E-02	7.606950E-04
7.260330E+03	2.094521E-02	7.618588E-04
7.270275E+03	2.093564E-02	7.628383E-04
7.280221E+03	2.092127E-02	7.636287E-04
7.290167E+03	2.090207E-02	7.642291E-04
7.300112E+03	2.087856E-02	7.646579E-04
7.310058E+03	2.085138E-02	7.649379E-04
7.320004E+03	2.082041E-02	7.650651E-04
7.329949E+03	2.078651E-02	7.650706E-04
7.339895E+03	2.075020E-02	7.649738E-04
7.349840E+03	2.071252E-02	7.648133E-04
7.359786E+03	2.067417E-02	7.646153E-04
7.369732E+03	2.063594E-02	7.644097E-04
7.379677E+03	2.059824E-02	7.642119E-04
7.389623E+03	2.056283E-02	7.640884E-04
7.399569E+03	2.052979E-02	7.640428E-04
7.409514E+03	2.050007E-02	7.641120E-04
7.419460E+03	2.047508E-02	7.643496E-04
7.429406E+03	2.045537E-02	7.647773E-04
7.439351E+03	2.044145E-02	7.654162E-04
7.449297E+03	2.043424E-02	7.663021E-04
7.459243E+03	2.043419E-02	7.674536E-04
7.469188E+03	2.044254E-02	7.689195E-04
7.479134E+03	2.045916E-02	7.706969E-04
7.489080E+03	2.048515E-02	7.728293E-04
7.499025E+03	2.052108E-02	7.753406E-04
7.508971E+03	2.056652E-02	7.782166E-04
7.518917E+03	2.062182E-02	7.814729E-04
7.528862E+03	2.068766E-02	7.851379E-04
7.538808E+03	2.076415E-02	7.892182E-04
7.548754E+03	2.085037E-02	7.936814E-04
7.558699E+03	2.094664E-02	7.985418E-04
7.568645E+03	2.105267E-02	8.037915E-04
7.578591E+03	2.116809E-02	8.094183E-04
7.588536E+03	2.129239E-02	8.154052E-04
7.598482E+03	2.142445E-02	8.217121E-04
7.608428E+03	2.156400E-02	8.283306E-04
7.618373E+03	2.170971E-02	8.352121E-04
7.628319E+03	2.186062E-02	8.423212E-04
7.638265E+03	2.201617E-02	8.496386E-04
7.648210E+03	2.217523E-02	8.571226E-04
7.658156E+03	2.233609E-02	8.647085E-04
7.668101E+03	2.249745E-02	8.723476E-04
7.678047E+03	2.265848E-02	8.800087E-04
7.687993E+03	2.281776E-02	8.876380E-04
7.697938E+03	2.297332E-02	8.951592E-04
7.707884E+03	2.312363E-02	9.025134E-04
7.717830E+03	2.326766E-02	9.096608E-04
