#wls	flux	fluxerr
1.591305E+03	4.773827E-03	2.036973E-04
1.631088E+03	4.319880E-03	1.824343E-04
1.670870E+03	3.869517E-03	1.616986E-04
1.710653E+03	3.432881E-03	1.419126E-04
1.750436E+03	3.016519E-03	1.233327E-04
1.790218E+03	2.625880E-03	1.061583E-04
1.830001E+03	2.264330E-03	9.049451E-05
1.869784E+03	1.934496E-03	7.641006E-05
1.909566E+03	1.638010E-03	6.392876E-05
1.949349E+03	1.376069E-03	5.305355E-05
1.989131E+03	1.149705E-03	4.377775E-05
2.028914E+03	9.601090E-04	3.609772E-05
2.068697E+03	8.095169E-04	3.004541E-05
2.108479E+03	6.994915E-04	2.562303E-05
2.148262E+03	6.306208E-04	2.279381E-05
2.188045E+03	6.007371E-04	2.142108E-05
2.227827E+03	6.068612E-04	2.134349E-05
2.267610E+03	6.480325E-04	2.247533E-05
2.307392E+03	7.260771E-04	2.482810E-05
2.347175E+03	8.459836E-04	2.851619E-05
2.386958E+03	1.016322E-03	3.376320E-05
2.426740E+03	1.248762E-03	4.087755E-05
2.466523E+03	1.556897E-03	5.020702E-05
2.506306E+03	1.953911E-03	6.205995E-05
2.546088E+03	2.448259E-03	7.657127E-05
2.585871E+03	3.037230E-03	9.351579E-05
2.625653E+03	3.703809E-03	1.122403E-04
2.665436E+03	4.423871E-03	1.319131E-04
2.705219E+03	5.175028E-03	1.518010E-04
2.745001E+03	5.931996E-03	1.711311E-04
2.784784E+03	6.668187E-03	1.891437E-04
2.824567E+03	7.358370E-03	2.051695E-04
2.864349E+03	7.982728E-03	2.187368E-04
2.904132E+03	8.528360E-03	2.295994E-04
2.943914E+03	8.992521E-03	2.378046E-04
2.983697E+03	9.382064E-03	2.436548E-04
2.993643E+03	9.469564E-03	2.448086E-04
3.003588E+03	9.553505E-03	2.458522E-04
3.013534E+03	9.634482E-03	2.468022E-04
3.023480E+03	9.713240E-03	2.476787E-04
3.033425E+03	9.789844E-03	2.484845E-04
3.043371E+03	9.866161E-03	2.492674E-04
3.053317E+03	9.941986E-03	2.500227E-04
3.063262E+03	1.001750E-02	2.507551E-04
3.073208E+03	1.009290E-02	2.514702E-04
3.083154E+03	1.016911E-02	2.521904E-04
3.093099E+03	1.024635E-02	2.529216E-04
3.103045E+03	1.032457E-02	2.536619E-04
3.112991E+03	1.040471E-02	2.544340E-04
3.122936E+03	1.048706E-02	2.552445E-04
3.132882E+03	1.057195E-02	2.561003E-04
3.142828E+03	1.065970E-02	2.570084E-04
3.152773E+03	1.075130E-02	2.579915E-04
3.162719E+03	1.084647E-02	2.590415E-04
3.172665E+03	1.094654E-02	2.601886E-04
3.182610E+03	1.105154E-02	2.614323E-04
3.192556E+03	1.116218E-02	2.627873E-04
3.202502E+03	1.127915E-02	2.642680E-04
3.212447E+03	1.140254E-02	2.658740E-04
3.222393E+03	1.153302E-02	2.676193E-04
3.232339E+03	1.167101E-02	2.695104E-04
3.242284E+03	1.181746E-02	2.715674E-04
3.252230E+03	1.197244E-02	2.737884E-04
3.262175E+03	1.213658E-02	2.761853E-04
3.272121E+03	1.231019E-02	2.787618E-04
3.282067E+03	1.249384E-02	2.815276E-04
3.292012E+03	1.268772E-02	2.844837E-04
3.301958E+03	1.289198E-02	2.876302E-04
3.311904E+03	1.310667E-02	2.909646E-04
3.321849E+03	1.333204E-02	2.944890E-04
3.331795E+03	1.356792E-02	2.981962E-04
3.341741E+03	1.381398E-02	3.020755E-04
3.351686E+03	1.406946E-02	3.061069E-04
3.361632E+03	1.433427E-02	3.102855E-04
3.371578E+03	1.460694E-02	3.145767E-04
3.381523E+03	1.488641E-02	3.189550E-04
3.391469E+03	1.517167E-02	3.233971E-04
3.401415E+03	1.546068E-02	3.278574E-04
3.411360E+03	1.575179E-02	3.323003E-04
3.421306E+03	1.604328E-02	3.366890E-04
3.431252E+03	1.633284E-02	3.409751E-04
3.441197E+03	1.661859E-02	3.451203E-04
3.451143E+03	1.689924E-02	3.490996E-04
3.461089E+03	1.717336E-02	3.528850E-04
3.471034E+03	1.743991E-02	3.564579E-04
3.480980E+03	1.769869E-02	3.598165E-04
3.490926E+03	1.794997E-02	3.629690E-04
3.500871E+03	1.819411E-02	3.659253E-04
3.510817E+03	1.843174E-02	3.687005E-04
3.520763E+03	1.866369E-02	3.713132E-04
3.530708E+03	1.889116E-02	3.737894E-04
3.540654E+03	1.911460E-02	3.761389E-04
3.550600E+03	1.933559E-02	3.783941E-04
3.560545E+03	1.955489E-02	3.805703E-04
3.570491E+03	1.977380E-02	3.826931E-04
3.580436E+03	1.999338E-02	3.847826E-04
3.590382E+03	2.021468E-02	3.868586E-04
3.600328E+03	2.043908E-02	3.889468E-04
3.610273E+03	2.066779E-02	3.910686E-04
3.620219E+03	2.090237E-02	3.932519E-04
3.630165E+03	2.114425E-02	3.955214E-04
3.640110E+03	2.139585E-02	3.979195E-04
3.650056E+03	2.165868E-02	4.004707E-04
3.660002E+03	2.193550E-02	4.032222E-04
3.669947E+03	2.222902E-02	4.062188E-04
3.679893E+03	2.254156E-02	4.094969E-04
3.689839E+03	2.287640E-02	4.131094E-04
3.699784E+03	2.323663E-02	4.171046E-04
3.709730E+03	2.362509E-02	4.215249E-04
3.719676E+03	2.404514E-02	4.264202E-04
3.729621E+03	2.449968E-02	4.318317E-04
3.739567E+03	2.499136E-02	4.377945E-04
3.749513E+03	2.552245E-02	4.443359E-04
3.759458E+03	2.609469E-02	4.514731E-04
3.769404E+03	2.670945E-02	4.592164E-04
3.779350E+03	2.736704E-02	4.675572E-04
3.789295E+03	2.806715E-02	4.764763E-04
3.799241E+03	2.880750E-02	4.859216E-04
3.809187E+03	2.958627E-02	4.958496E-04
3.819132E+03	3.039924E-02	5.061777E-04
3.829078E+03	3.124134E-02	5.168110E-04
3.839024E+03	3.210672E-02	5.276444E-04
3.848969E+03	3.298856E-02	5.385591E-04
3.858915E+03	3.387858E-02	5.494159E-04
3.868861E+03	3.476864E-02	5.600818E-04
3.878806E+03	3.565035E-02	5.704227E-04
3.888752E+03	3.651468E-02	5.802990E-04
3.898698E+03	3.735377E-02	5.895925E-04
3.908643E+03	3.816014E-02	5.981955E-04
3.918589E+03	3.892794E-02	6.060285E-04
3.928534E+03	3.965222E-02	6.130283E-04
3.938480E+03	4.033012E-02	6.191664E-04
3.948426E+03	4.095972E-02	6.244298E-04
3.958371E+03	4.154124E-02	6.288388E-04
3.968317E+03	4.207781E-02	6.324575E-04
3.978263E+03	4.257171E-02	6.353359E-04
3.988208E+03	4.302861E-02	6.375731E-04
3.998154E+03	4.345428E-02	6.392680E-04
4.008100E+03	4.385587E-02	6.405363E-04
4.018045E+03	4.423986E-02	6.414820E-04
4.027991E+03	4.461336E-02	6.422149E-04
4.037937E+03	4.498369E-02	6.428449E-04
4.047882E+03	4.535749E-02	6.434699E-04
4.057828E+03	4.573953E-02	6.441581E-04
4.067774E+03	4.613523E-02	6.449854E-04
4.077719E+03	4.654760E-02	6.459921E-04
4.087665E+03	4.697925E-02	6.472120E-04
4.097611E+03	4.743063E-02	6.486486E-04
4.107556E+03	4.790169E-02	6.502985E-04
4.117502E+03	4.839069E-02	6.521360E-04
4.127448E+03	4.889457E-02	6.541185E-04
4.137393E+03	4.940869E-02	6.561840E-04
4.147339E+03	4.992824E-02	6.582706E-04
4.157285E+03	5.044669E-02	6.602953E-04
4.167230E+03	5.095769E-02	6.621808E-04
4.177176E+03	5.145313E-02	6.638293E-04
4.187122E+03	5.192609E-02	6.651616E-04
4.197067E+03	5.236872E-02	6.660888E-04
4.207013E+03	5.277394E-02	6.665352E-04
4.216959E+03	5.313483E-02	6.664290E-04
4.226904E+03	5.344516E-02	6.657095E-04
4.236850E+03	5.370032E-02	6.643378E-04
4.246796E+03	5.389585E-02	6.622780E-04
4.256741E+03	5.402919E-02	6.595183E-04
4.266687E+03	5.409931E-02	6.560661E-04
4.276632E+03	5.410587E-02	6.519366E-04
4.286578E+03	5.405183E-02	6.471839E-04
4.296524E+03	5.394108E-02	6.418718E-04
4.306469E+03	5.377877E-02	6.360767E-04
4.316415E+03	5.357467E-02	6.299275E-04
4.326361E+03	5.334100E-02	6.235785E-04
4.336306E+03	5.309443E-02	6.172313E-04
4.346252E+03	5.285726E-02	6.111485E-04
4.356198E+03	5.265742E-02	6.056514E-04
4.366143E+03	5.252619E-02	6.010931E-04
4.376089E+03	5.249900E-02	5.978676E-04
4.386035E+03	5.261371E-02	5.963880E-04
4.395980E+03	5.289823E-02	5.969466E-04
4.405926E+03	5.335804E-02	5.995801E-04
4.415872E+03	5.398501E-02	6.041743E-04
4.425817E+03	5.477030E-02	6.106111E-04
4.435763E+03	5.570382E-02	6.187621E-04
4.445709E+03	5.677367E-02	6.284810E-04
4.455654E+03	5.796581E-02	6.395997E-04
4.465600E+03	5.926351E-02	6.519231E-04
4.475546E+03	6.064805E-02	6.652378E-04
4.485491E+03	6.209528E-02	6.792738E-04
4.495437E+03	6.357939E-02	6.937459E-04
4.505383E+03	6.506989E-02	7.083207E-04
4.515328E+03	6.653618E-02	7.226669E-04
4.525274E+03	6.794457E-02	7.364210E-04
4.535220E+03	6.926054E-02	7.492134E-04
4.545165E+03	7.045172E-02	7.606989E-04
4.555111E+03	7.148916E-02	7.705706E-04
4.565057E+03	7.234541E-02	7.785383E-04
4.575002E+03	7.300147E-02	7.844033E-04
4.584948E+03	7.344155E-02	7.880007E-04
4.594894E+03	7.365874E-02	7.892607E-04
4.604839E+03	7.365398E-02	7.881966E-04
4.614785E+03	7.343324E-02	7.848746E-04
4.624730E+03	7.301009E-02	7.794410E-04
4.634676E+03	7.240354E-02	7.720990E-04
4.644622E+03	7.163744E-02	7.631020E-04
4.654567E+03	7.073658E-02	7.527124E-04
4.664513E+03	6.972992E-02	7.412362E-04
4.674459E+03	6.864545E-02	7.289678E-04
4.684404E+03	6.750798E-02	7.161671E-04
4.694350E+03	6.634138E-02	7.030839E-04
4.704296E+03	6.516746E-02	6.899450E-04
4.714241E+03	6.400533E-02	6.769487E-04
4.724187E+03	6.287178E-02	6.642685E-04
4.734133E+03	6.178049E-02	6.520444E-04
4.744078E+03	6.074221E-02	6.403856E-04
4.754024E+03	5.976477E-02	6.293703E-04
4.763970E+03	5.885436E-02	6.190593E-04
4.773915E+03	5.801263E-02	6.094658E-04
4.783861E+03	5.724229E-02	6.006141E-04
4.793807E+03	5.654153E-02	5.924809E-04
4.803752E+03	5.590873E-02	5.850455E-04
4.813698E+03	5.534041E-02	5.782675E-04
4.823644E+03	5.483291E-02	5.721049E-04
4.833589E+03	5.438085E-02	5.664984E-04
4.843535E+03	5.397964E-02	5.613968E-04
4.853481E+03	5.362417E-02	5.567439E-04
4.863426E+03	5.331020E-02	5.524931E-04
4.873372E+03	5.303334E-02	5.485962E-04
4.883318E+03	5.279004E-02	5.450145E-04
4.893263E+03	5.257756E-02	5.417174E-04
4.903209E+03	5.239522E-02	5.386964E-04
4.913155E+03	5.224149E-02	5.359335E-04
4.923100E+03	5.211791E-02	5.334431E-04
4.933046E+03	5.202614E-02	5.312403E-04
4.942991E+03	5.196855E-02	5.293472E-04
4.952937E+03	5.194943E-02	5.278055E-04
4.962883E+03	5.197339E-02	5.266593E-04
4.972828E+03	5.204625E-02	5.259649E-04
4.982774E+03	5.217338E-02	5.257728E-04
4.992720E+03	5.236089E-02	5.261406E-04
5.002665E+03	5.261551E-02	5.271313E-04
5.012611E+03	5.294334E-02	5.288006E-04
5.022557E+03	5.334960E-02	5.311947E-04
5.032502E+03	5.383995E-02	5.343635E-04
5.042448E+03	5.441873E-02	5.383428E-04
5.052394E+03	5.508879E-02	5.431532E-04
5.062339E+03	5.585271E-02	5.488125E-04
5.072285E+03	5.671112E-02	5.553187E-04
5.082231E+03	5.766293E-02	5.626531E-04
5.092176E+03	5.870465E-02	5.707741E-04
5.102122E+03	5.983126E-02	5.796259E-04
5.112068E+03	6.103612E-02	5.891381E-04
5.122013E+03	6.230985E-02	5.992150E-04
5.131959E+03	6.364013E-02	6.097350E-04
5.141905E+03	6.501311E-02	6.205636E-04
5.151850E+03	6.641292E-02	6.315501E-04
5.161796E+03	6.782189E-02	6.425295E-04
5.171742E+03	6.922052E-02	6.533224E-04
5.181687E+03	7.059036E-02	6.637633E-04
5.191633E+03	7.190987E-02	6.736605E-04
5.201579E+03	7.315996E-02	6.828490E-04
5.211524E+03	7.432084E-02	6.911604E-04
5.221470E+03	7.537490E-02	6.984496E-04
5.231416E+03	7.630627E-02	7.045899E-04
5.241361E+03	7.710065E-02	7.094715E-04
5.251307E+03	7.774769E-02	7.130225E-04
5.261253E+03	7.823891E-02	7.151887E-04
5.271198E+03	7.856699E-02	7.159274E-04
5.281144E+03	7.873025E-02	7.152469E-04
5.291089E+03	7.872633E-02	7.131485E-04
5.301035E+03	7.855749E-02	7.096744E-04
5.310981E+03	7.822642E-02	7.048690E-04
5.320926E+03	7.773837E-02	6.987978E-04
5.330872E+03	7.709936E-02	6.915310E-04
5.340818E+03	7.631918E-02	6.831701E-04
5.350763E+03	7.540508E-02	6.737914E-04
5.360709E+03	7.436865E-02	6.635070E-04
5.370655E+03	7.322234E-02	6.524342E-04
5.380600E+03	7.198132E-02	6.407117E-04
5.390546E+03	7.066505E-02	6.285134E-04
5.400492E+03	6.930381E-02	6.161037E-04
5.410437E+03	6.794630E-02	6.039027E-04
5.420383E+03	6.665445E-02	5.924456E-04
5.430329E+03	6.546255E-02	5.820223E-04
5.440274E+03	6.437366E-02	5.726469E-04
5.450220E+03	6.338318E-02	5.642670E-04
5.460166E+03	6.248577E-02	5.568251E-04
5.470111E+03	6.167625E-02	5.502661E-04
5.480057E+03	6.094480E-02	5.444947E-04
5.490003E+03	6.028357E-02	5.394340E-04
5.499948E+03	5.968181E-02	5.349813E-04
5.509894E+03	5.913066E-02	5.310516E-04
5.519840E+03	5.862197E-02	5.275658E-04
5.529785E+03	5.814673E-02	5.244376E-04
5.539731E+03	5.769901E-02	5.216083E-04
5.549677E+03	5.727437E-02	5.190325E-04
5.559622E+03	5.686825E-02	5.166638E-04
5.569568E+03	5.647960E-02	5.144878E-04
5.579514E+03	5.610882E-02	5.125037E-04
5.589459E+03	5.575613E-02	5.107094E-04
5.599405E+03	5.542544E-02	5.091370E-04
5.609351E+03	5.512061E-02	5.078189E-04
5.619296E+03	5.484522E-02	5.067858E-04
5.629242E+03	5.460570E-02	5.060953E-04
5.639187E+03	5.440771E-02	5.057994E-04
5.649133E+03	5.425634E-02	5.059452E-04
5.659079E+03	5.415751E-02	5.065888E-04
5.669024E+03	5.411558E-02	5.077727E-04
5.678970E+03	5.413517E-02	5.095422E-04
5.688916E+03	5.421944E-02	5.119301E-04
5.698861E+03	5.437026E-02	5.149574E-04
5.708807E+03	5.458823E-02	5.186334E-04
5.718753E+03	5.487286E-02	5.229574E-04
5.728698E+03	5.522042E-02	5.278977E-04
5.738644E+03	5.562754E-02	5.334258E-04
5.748590E+03	5.608744E-02	5.394801E-04
5.758535E+03	5.659197E-02	5.459855E-04
5.768481E+03	5.713181E-02	5.528540E-04
5.778427E+03	5.769539E-02	5.599755E-04
5.788372E+03	5.826944E-02	5.672218E-04
5.798318E+03	5.883951E-02	5.744521E-04
5.808264E+03	5.939014E-02	5.815139E-04
5.818209E+03	5.990515E-02	5.882464E-04
5.828155E+03	6.036893E-02	5.944926E-04
5.838101E+03	6.076549E-02	6.000905E-04
5.848046E+03	6.107910E-02	6.048789E-04
5.857992E+03	6.129656E-02	6.087205E-04
5.867938E+03	6.140593E-02	6.114893E-04
5.877883E+03	6.139829E-02	6.130886E-04
5.887829E+03	6.126598E-02	6.134332E-04
5.897775E+03	6.100555E-02	6.124802E-04
5.907720E+03	6.061612E-02	6.102119E-04
5.917666E+03	6.009992E-02	6.066423E-04
5.927612E+03	5.946292E-02	6.018237E-04
5.937557E+03	5.871346E-02	5.958331E-04
5.947503E+03	5.786181E-02	5.887679E-04
5.957449E+03	5.692257E-02	5.807710E-04
5.967394E+03	5.591036E-02	5.719869E-04
5.977340E+03	5.484238E-02	5.625882E-04
5.987285E+03	5.373644E-02	5.527553E-04
5.997231E+03	5.261066E-02	5.426737E-04
6.007177E+03	5.148388E-02	5.325385E-04
6.017122E+03	5.037455E-02	5.225423E-04
6.027068E+03	4.929841E-02	5.128522E-04
6.037014E+03	4.827262E-02	5.036512E-04
6.046959E+03	4.731155E-02	4.950957E-04
6.056905E+03	4.642861E-02	4.873337E-04
6.066851E+03	4.563471E-02	4.804886E-04
6.076796E+03	4.493926E-02	4.746698E-04
6.086742E+03	4.434853E-02	4.699551E-04
6.096688E+03	4.386884E-02	4.664238E-04
6.106633E+03	4.350257E-02	4.641149E-04
6.116579E+03	4.324982E-02	4.630438E-04
6.126525E+03	4.311004E-02	4.632197E-04
6.136470E+03	4.307814E-02	4.646036E-04
6.146416E+03	4.314848E-02	4.671504E-04
6.156362E+03	4.331015E-02	4.707577E-04
6.166307E+03	4.355236E-02	4.753235E-04
6.176253E+03	4.386099E-02	4.807080E-04
6.186199E+03	4.422005E-02	4.867491E-04
6.196144E+03	4.461205E-02	4.932654E-04
6.206090E+03	4.501818E-02	5.000582E-04
6.216036E+03	4.541925E-02	5.069209E-04
6.225981E+03	4.579790E-02	5.136630E-04
6.235927E+03	4.613449E-02	5.200635E-04
6.245873E+03	4.641352E-02	5.259387E-04
6.255818E+03	4.662032E-02	5.311098E-04
6.265764E+03	4.674451E-02	5.354424E-04
6.275710E+03	4.677775E-02	5.388221E-04
6.285655E+03	4.671536E-02	5.411739E-04
6.295601E+03	4.655839E-02	5.424873E-04
6.305546E+03	4.630913E-02	5.427659E-04
6.315492E+03	4.597447E-02	5.420671E-04
6.325438E+03	4.556558E-02	5.405005E-04
6.335383E+03	4.509358E-02	5.381780E-04
6.345329E+03	4.457299E-02	5.352550E-04
6.355275E+03	4.401805E-02	5.318875E-04
6.365220E+03	4.344482E-02	5.282581E-04
6.375166E+03	4.286606E-02	5.245139E-04
6.385112E+03	4.229471E-02	5.208080E-04
6.395057E+03	4.174058E-02	5.172591E-04
6.405003E+03	4.120940E-02	5.139386E-04
6.414949E+03	4.070646E-02	5.109142E-04
6.424894E+03	4.023345E-02	5.082102E-04
6.434840E+03	3.979257E-02	5.058582E-04
6.444786E+03	3.938572E-02	5.038870E-04
6.454731E+03	3.901472E-02	5.023252E-04
6.464677E+03	3.867790E-02	5.011570E-04
6.474623E+03	3.837229E-02	5.003491E-04
6.484568E+03	3.809122E-02	4.998193E-04
6.494514E+03	3.782896E-02	4.994953E-04
6.504460E+03	3.757742E-02	4.992722E-04
6.514405E+03	3.732847E-02	4.990415E-04
6.524351E+03	3.707541E-02	4.987116E-04
6.534297E+03	3.681117E-02	4.981838E-04
6.544242E+03	3.653068E-02	4.973845E-04
6.554188E+03	3.622892E-02	4.962391E-04
6.564134E+03	3.590256E-02	4.946949E-04
6.574079E+03	3.555002E-02	4.927223E-04
6.584025E+03	3.516925E-02	4.902853E-04
6.593971E+03	3.476146E-02	4.873924E-04
6.603916E+03	3.432717E-02	4.840439E-04
6.613862E+03	3.386834E-02	4.802598E-04
6.623808E+03	3.338754E-02	4.760706E-04
6.633753E+03	3.288844E-02	4.715229E-04
6.643699E+03	3.237351E-02	4.666477E-04
6.653644E+03	3.184698E-02	4.615025E-04
6.663590E+03	3.131317E-02	4.561472E-04
6.673536E+03	3.077534E-02	4.506283E-04
6.683481E+03	3.023669E-02	4.449917E-04
6.693427E+03	2.970161E-02	4.393026E-04
6.703373E+03	2.917324E-02	4.336091E-04
6.713318E+03	2.865351E-02	4.279417E-04
6.723264E+03	2.814585E-02	4.223542E-04
6.733210E+03	2.765196E-02	4.168755E-04
6.743155E+03	2.717362E-02	4.115362E-04
6.753101E+03	2.671273E-02	4.063692E-04
6.763047E+03	2.626999E-02	4.013891E-04
6.772992E+03	2.584663E-02	3.966194E-04
6.782938E+03	2.544279E-02	3.920668E-04
6.792884E+03	2.505918E-02	3.877467E-04
6.802829E+03	2.469547E-02	3.836588E-04
6.812775E+03	2.435198E-02	3.798126E-04
6.822721E+03	2.402846E-02	3.762083E-04
6.832666E+03	2.372412E-02	3.728380E-04
6.842612E+03	2.343890E-02	3.697047E-04
6.852558E+03	2.317184E-02	3.667972E-04
6.862503E+03	2.292312E-02	3.641221E-04
6.872449E+03	2.269129E-02	3.616600E-04
6.882395E+03	2.247609E-02	3.594098E-04
6.892340E+03	2.227682E-02	3.573636E-04
6.902286E+03	2.209279E-02	3.555132E-04
6.912232E+03	2.192332E-02	3.538502E-04
6.922177E+03	2.176773E-02	3.523665E-04
6.932123E+03	2.162536E-02	3.510536E-04
6.942069E+03	2.149557E-02	3.499033E-04
6.952014E+03	2.137736E-02	3.489012E-04
6.961960E+03	2.127088E-02	3.480516E-04
6.971906E+03	2.117513E-02	3.473402E-04
6.981851E+03	2.108954E-02	3.467589E-04
6.991797E+03	2.101390E-02	3.463057E-04
7.001742E+03	2.094686E-02	3.459598E-04
7.011688E+03	2.088859E-02	3.457253E-04
7.021634E+03	2.083814E-02	3.455872E-04
7.031579E+03	2.079489E-02	3.455363E-04
7.041525E+03	2.075821E-02	3.455632E-04
7.051471E+03	2.072784E-02	3.456643E-04
7.061416E+03	2.070274E-02	3.458228E-04
7.071362E+03	2.068260E-02	3.460340E-04
7.081308E+03	2.066631E-02	3.462803E-04
7.091253E+03	2.065313E-02	3.465491E-04
7.101199E+03	2.064266E-02	3.468348E-04
7.111145E+03	2.063412E-02	3.471242E-04
7.121090E+03	2.062631E-02	3.473973E-04
7.131036E+03	2.061877E-02	3.476469E-04
7.140982E+03	2.061028E-02	3.478526E-04
7.150927E+03	2.060040E-02	3.480071E-04
7.160873E+03	2.058833E-02	3.480968E-04
7.170819E+03	2.057324E-02	3.481084E-04
7.180764E+03	2.055439E-02	3.480292E-04
7.190710E+03	2.053106E-02	3.478474E-04
7.200656E+03	2.050219E-02	3.475451E-04
7.210601E+03	2.046803E-02	3.471271E-04
7.220547E+03	2.042767E-02	3.465782E-04
7.230493E+03	2.038074E-02	3.458924E-04
7.240438E+03	2.032738E-02	3.450727E-04
7.250384E+03	2.026703E-02	3.441099E-04
7.260330E+03	2.020008E-02	3.430116E-04
7.270275E+03	2.012664E-02	3.417800E-04
7.280221E+03	2.004697E-02	3.404203E-04
7.290167E+03	1.996146E-02	3.389398E-04
7.300112E+03	1.987102E-02	3.373550E-04
7.310058E+03	1.977588E-02	3.356705E-04
7.320004E+03	1.967764E-02	3.339142E-04
7.329949E+03	1.957754E-02	3.321085E-04
7.339895E+03	1.947570E-02	3.302559E-04
7.349840E+03	1.937437E-02	3.283958E-04
7.359786E+03	1.927462E-02	3.265471E-04
7.369732E+03	1.917794E-02	3.247360E-04
7.379677E+03	1.908547E-02	3.229824E-04
7.389623E+03	1.899871E-02	3.213128E-04
7.399569E+03	1.891835E-02	3.197394E-04
7.409514E+03	1.884462E-02	3.182668E-04
7.419460E+03	1.877895E-02	3.169199E-04
7.429406E+03	1.872146E-02	3.157015E-04
7.439351E+03	1.867305E-02	3.146271E-04
7.449297E+03	1.863368E-02	3.136966E-04
7.459243E+03	1.860448E-02	3.129297E-04
7.469188E+03	1.858608E-02	3.123373E-04
7.479134E+03	1.857814E-02	3.119145E-04
7.489080E+03	1.858151E-02	3.116756E-04
7.499025E+03	1.859606E-02	3.116192E-04
7.508971E+03	1.862200E-02	3.117492E-04
7.518917E+03	1.865986E-02	3.120749E-04
7.528862E+03	1.870922E-02	3.125896E-04
7.538808E+03	1.876998E-02	3.132924E-04
7.548754E+03	1.884196E-02	3.141807E-04
7.558699E+03	1.892488E-02	3.152506E-04
7.568645E+03	1.901839E-02	3.164968E-04
7.578591E+03	1.912203E-02	3.179128E-04
7.588536E+03	1.923532E-02	3.194909E-04
7.598482E+03	1.935765E-02	3.212224E-04
7.608428E+03	1.948835E-02	3.230972E-04
7.618373E+03	1.962671E-02	3.251046E-04
7.628319E+03	1.977192E-02	3.272325E-04
7.638265E+03	1.992359E-02	3.294759E-04
7.648210E+03	2.007982E-02	3.318051E-04
7.658156E+03	2.024056E-02	3.342210E-04
7.668101E+03	2.040377E-02	3.366914E-04
7.678047E+03	2.056925E-02	3.392155E-04
7.687993E+03	2.073529E-02	3.417668E-04
7.697938E+03	2.090108E-02	3.443343E-04
7.707884E+03	2.106473E-02	3.468891E-04
7.717830E+03	2.122475E-02	3.494092E-04
