#wls	flux	fluxerr
1.591305E+03	1.973721E-03	1.385710E-04
1.631088E+03	1.801405E-03	1.255281E-04
1.670870E+03	1.637579E-03	1.132415E-04
1.710653E+03	1.483309E-03	1.017745E-04
1.750436E+03	1.340230E-03	9.122649E-05
1.790218E+03	1.208190E-03	8.157193E-05
1.830001E+03	1.087360E-03	7.280691E-05
1.869784E+03	9.771956E-04	6.487904E-05
1.909566E+03	8.772670E-04	5.774420E-05
1.949349E+03	7.871776E-04	5.136097E-05
1.989131E+03	7.073165E-04	4.573923E-05
2.028914E+03	6.390335E-04	4.094912E-05
2.068697E+03	5.852298E-04	3.715569E-05
2.108479E+03	5.491794E-04	3.454014E-05
2.148262E+03	5.339052E-04	3.325976E-05
2.188045E+03	5.397495E-04	3.329872E-05
2.227827E+03	5.647301E-04	3.449784E-05
2.267610E+03	6.057110E-04	3.663241E-05
2.307392E+03	6.597286E-04	3.949531E-05
2.347175E+03	7.251205E-04	4.296347E-05
2.386958E+03	8.011727E-04	4.697320E-05
2.426740E+03	8.877237E-04	5.149441E-05
2.466523E+03	9.845989E-04	5.649643E-05
2.506306E+03	1.091368E-03	6.193427E-05
2.546088E+03	1.207448E-03	6.775529E-05
2.585871E+03	1.331442E-03	7.386306E-05
2.625653E+03	1.461893E-03	8.016116E-05
2.665436E+03	1.596702E-03	8.652232E-05
2.705219E+03	1.733321E-03	9.280047E-05
2.745001E+03	1.869938E-03	9.889544E-05
2.784784E+03	2.004394E-03	1.046937E-04
2.824567E+03	2.135406E-03	1.101328E-04
2.864349E+03	2.261546E-03	1.151468E-04
2.904132E+03	2.381984E-03	1.197038E-04
2.943914E+03	2.497312E-03	1.238451E-04
2.983697E+03	2.608277E-03	1.276183E-04
2.993643E+03	2.635593E-03	1.285176E-04
3.003588E+03	2.662929E-03	1.294088E-04
3.013534E+03	2.690051E-03	1.302805E-04
3.023480E+03	2.717031E-03	1.311362E-04
3.033425E+03	2.744585E-03	1.320105E-04
3.043371E+03	2.772088E-03	1.328731E-04
3.053317E+03	2.800347E-03	1.337625E-04
3.063262E+03	2.828828E-03	1.346530E-04
3.073208E+03	2.857807E-03	1.355576E-04
3.083154E+03	2.887297E-03	1.364766E-04
3.093099E+03	2.917046E-03	1.373978E-04
3.103045E+03	2.947618E-03	1.383476E-04
3.112991E+03	2.978492E-03	1.393013E-04
3.122936E+03	3.010245E-03	1.402855E-04
3.132882E+03	3.042359E-03	1.412758E-04
3.142828E+03	3.075424E-03	1.422994E-04
3.152773E+03	3.109203E-03	1.433447E-04
3.162719E+03	3.144018E-03	1.444262E-04
3.172665E+03	3.179634E-03	1.455326E-04
3.182610E+03	3.216379E-03	1.466786E-04
3.192556E+03	3.254020E-03	1.478530E-04
3.202502E+03	3.292897E-03	1.490706E-04
3.212447E+03	3.333064E-03	1.503334E-04
3.222393E+03	3.374577E-03	1.516432E-04
3.232339E+03	3.417779E-03	1.530147E-04
3.242284E+03	3.462151E-03	1.544239E-04
3.252230E+03	3.508328E-03	1.558985E-04
3.262175E+03	3.556364E-03	1.574399E-04
3.272121E+03	3.606312E-03	1.590497E-04
3.282067E+03	3.657922E-03	1.607158E-04
3.292012E+03	3.711823E-03	1.624650E-04
3.301958E+03	3.767752E-03	1.642846E-04
3.311904E+03	3.826029E-03	1.661876E-04
3.321849E+03	3.886660E-03	1.681732E-04
3.331795E+03	3.949635E-03	1.702397E-04
3.341741E+03	4.014925E-03	1.723847E-04
3.351686E+03	4.082782E-03	1.746179E-04
3.361632E+03	4.153134E-03	1.769349E-04
3.371578E+03	4.225869E-03	1.793300E-04
3.381523E+03	4.301162E-03	1.818092E-04
3.391469E+03	4.378845E-03	1.843642E-04
3.401415E+03	4.458708E-03	1.869853E-04
3.411360E+03	4.540829E-03	1.896744E-04
3.421306E+03	4.624945E-03	1.924198E-04
3.431252E+03	4.710759E-03	1.952080E-04
3.441197E+03	4.798308E-03	1.980400E-04
3.451143E+03	4.887648E-03	2.009172E-04
3.461089E+03	4.978248E-03	2.038171E-04
3.471034E+03	5.070733E-03	2.067646E-04
3.480980E+03	5.164829E-03	2.097477E-04
3.490926E+03	5.261310E-03	2.127971E-04
3.500871E+03	5.359961E-03	2.159031E-04
3.510817E+03	5.460858E-03	2.190678E-04
3.520763E+03	5.564723E-03	2.223189E-04
3.530708E+03	5.671223E-03	2.256420E-04
3.540654E+03	5.780647E-03	2.290474E-04
3.550600E+03	5.892550E-03	2.325160E-04
3.560545E+03	6.007118E-03	2.360543E-04
3.570491E+03	6.124172E-03	2.396537E-04
3.580436E+03	6.243148E-03	2.432913E-04
3.590382E+03	6.364115E-03	2.469688E-04
3.600328E+03	6.486760E-03	2.506732E-04
3.610273E+03	6.610050E-03	2.543640E-04
3.620219E+03	6.734280E-03	2.580523E-04
3.630165E+03	6.859022E-03	2.617214E-04
3.640110E+03	6.983186E-03	2.653296E-04
3.650056E+03	7.107096E-03	2.688896E-04
3.660002E+03	7.229858E-03	2.723680E-04
3.669947E+03	7.351752E-03	2.757758E-04
3.679893E+03	7.472679E-03	2.791099E-04
3.689839E+03	7.593674E-03	2.824093E-04
3.699784E+03	7.715502E-03	2.857024E-04
3.709730E+03	7.839706E-03	2.890459E-04
3.719676E+03	7.968487E-03	2.925195E-04
3.729621E+03	8.104480E-03	2.962174E-04
3.739567E+03	8.250348E-03	3.002332E-04
3.749513E+03	8.409476E-03	3.046850E-04
3.759458E+03	8.585446E-03	3.096958E-04
3.769404E+03	8.781509E-03	3.153745E-04
3.779350E+03	9.001422E-03	3.218463E-04
3.789295E+03	9.248045E-03	3.292016E-04
3.799241E+03	9.524055E-03	3.375230E-04
3.809187E+03	9.831255E-03	3.468606E-04
3.819132E+03	1.016992E-02	3.572096E-04
3.829078E+03	1.054060E-02	3.685748E-04
3.839024E+03	1.094088E-02	3.808576E-04
3.848969E+03	1.136792E-02	3.939461E-04
3.858915E+03	1.181629E-02	4.076411E-04
3.868861E+03	1.228026E-02	4.217363E-04
3.878806E+03	1.275066E-02	4.359121E-04
3.888752E+03	1.321894E-02	4.498743E-04
3.898698E+03	1.367399E-02	4.632491E-04
3.908643E+03	1.410485E-02	4.756737E-04
3.918589E+03	1.450054E-02	4.867913E-04
3.928534E+03	1.485081E-02	4.962760E-04
3.938480E+03	1.514611E-02	5.038326E-04
3.948426E+03	1.537921E-02	5.092468E-04
3.958371E+03	1.554509E-02	5.123824E-04
3.968317E+03	1.564183E-02	5.132077E-04
3.978263E+03	1.567039E-02	5.117861E-04
3.988208E+03	1.563455E-02	5.082713E-04
3.998154E+03	1.554099E-02	5.029085E-04
4.008100E+03	1.539783E-02	4.959862E-04
4.018045E+03	1.521552E-02	4.878608E-04
4.027991E+03	1.500411E-02	4.788709E-04
4.037937E+03	1.477477E-02	4.693843E-04
4.047882E+03	1.453756E-02	4.597266E-04
4.057828E+03	1.430214E-02	4.502057E-04
4.067774E+03	1.407685E-02	4.410812E-04
4.077719E+03	1.386906E-02	4.325794E-04
4.087665E+03	1.368501E-02	4.248859E-04
4.097611E+03	1.352948E-02	4.181380E-04
4.107556E+03	1.340661E-02	4.124513E-04
4.117502E+03	1.331895E-02	4.078902E-04
4.127448E+03	1.326804E-02	4.044872E-04
4.137393E+03	1.325507E-02	4.022627E-04
4.147339E+03	1.327894E-02	4.011689E-04
4.157285E+03	1.333905E-02	4.011729E-04
4.167230E+03	1.343272E-02	4.021804E-04
4.177176E+03	1.355744E-02	4.041039E-04
4.187122E+03	1.370915E-02	4.068114E-04
4.197067E+03	1.388285E-02	4.101453E-04
4.207013E+03	1.407348E-02	4.139496E-04
4.216959E+03	1.427421E-02	4.180190E-04
4.226904E+03	1.447847E-02	4.221591E-04
4.236850E+03	1.467799E-02	4.261300E-04
4.246796E+03	1.486499E-02	4.297102E-04
4.256741E+03	1.503075E-02	4.326546E-04
4.266687E+03	1.516618E-02	4.347120E-04
4.276632E+03	1.526308E-02	4.356606E-04
4.286578E+03	1.531377E-02	4.352967E-04
4.296524E+03	1.531212E-02	4.334645E-04
4.306469E+03	1.525375E-02	4.300590E-04
4.316415E+03	1.513704E-02	4.250551E-04
4.326361E+03	1.496346E-02	4.185136E-04
4.336306E+03	1.473866E-02	4.106104E-04
4.346252E+03	1.447310E-02	4.016519E-04
4.356198E+03	1.418473E-02	3.921470E-04
4.366143E+03	1.389326E-02	3.826446E-04
4.376089E+03	1.361879E-02	3.736961E-04
4.386035E+03	1.337973E-02	3.657970E-04
4.395980E+03	1.319211E-02	3.593717E-04
4.405926E+03	1.306969E-02	3.547767E-04
4.415872E+03	1.302392E-02	3.523016E-04
4.425817E+03	1.306488E-02	3.521949E-04
4.435763E+03	1.319971E-02	3.546242E-04
4.445709E+03	1.343507E-02	3.597415E-04
4.455654E+03	1.377606E-02	3.676568E-04
4.465600E+03	1.422541E-02	3.784149E-04
4.475546E+03	1.478467E-02	3.920303E-04
4.485491E+03	1.545270E-02	4.084460E-04
4.495437E+03	1.622490E-02	4.275150E-04
4.505383E+03	1.709171E-02	4.489626E-04
4.515328E+03	1.803911E-02	4.724004E-04
4.525274E+03	1.904595E-02	4.972594E-04
4.535220E+03	2.008464E-02	5.228094E-04
4.545165E+03	2.112131E-02	5.481661E-04
4.555111E+03	2.211704E-02	5.723250E-04
4.565057E+03	2.303041E-02	5.942278E-04
4.575002E+03	2.381967E-02	6.128207E-04
4.584948E+03	2.444810E-02	6.271900E-04
4.594894E+03	2.488579E-02	6.366065E-04
4.604839E+03	2.511366E-02	6.406245E-04
4.614785E+03	2.512655E-02	6.391577E-04
4.624730E+03	2.493216E-02	6.324464E-04
4.634676E+03	2.454963E-02	6.210172E-04
4.644622E+03	2.400978E-02	6.056858E-04
4.654567E+03	2.334915E-02	5.874024E-04
4.664513E+03	2.260706E-02	5.671766E-04
4.674459E+03	2.182297E-02	5.460110E-04
4.684404E+03	2.103341E-02	5.248237E-04
4.694350E+03	2.026945E-02	5.043876E-04
4.704296E+03	1.955669E-02	4.853311E-04
4.714241E+03	1.891447E-02	4.681217E-04
4.724187E+03	1.835668E-02	4.530868E-04
4.734133E+03	1.789126E-02	4.404039E-04
4.744078E+03	1.752252E-02	4.301594E-04
4.754024E+03	1.725181E-02	4.223666E-04
4.763970E+03	1.707723E-02	4.169589E-04
4.773915E+03	1.699554E-02	4.138380E-04
4.783861E+03	1.700244E-02	4.128803E-04
4.793807E+03	1.709206E-02	4.139264E-04
4.803752E+03	1.725703E-02	4.167810E-04
4.813698E+03	1.748935E-02	4.212369E-04
4.823644E+03	1.777968E-02	4.270557E-04
4.833589E+03	1.811751E-02	4.339742E-04
4.843535E+03	1.849072E-02	4.416934E-04
4.853481E+03	1.888491E-02	4.498632E-04
4.863426E+03	1.928410E-02	4.581000E-04
4.873372E+03	1.967075E-02	4.659869E-04
4.883318E+03	2.002503E-02	4.730584E-04
4.893263E+03	2.032699E-02	4.788509E-04
4.903209E+03	2.055767E-02	4.829295E-04
4.913155E+03	2.070124E-02	4.849379E-04
4.923100E+03	2.074492E-02	4.845947E-04
4.933046E+03	2.068176E-02	4.817582E-04
4.942991E+03	2.051127E-02	4.764387E-04
4.952937E+03	2.023894E-02	4.687846E-04
4.962883E+03	1.987511E-02	4.590552E-04
4.972828E+03	1.943561E-02	4.476337E-04
4.982774E+03	1.893952E-02	4.349734E-04
4.992720E+03	1.840681E-02	4.215428E-04
5.002665E+03	1.785845E-02	4.078284E-04
5.012611E+03	1.731414E-02	3.942820E-04
5.022557E+03	1.679132E-02	3.812992E-04
5.032502E+03	1.630453E-02	3.692050E-04
5.042448E+03	1.586623E-02	3.582745E-04
5.052394E+03	1.548573E-02	3.487077E-04
5.062339E+03	1.517068E-02	3.406663E-04
5.072285E+03	1.492666E-02	3.342632E-04
5.082231E+03	1.475761E-02	3.295736E-04
5.092176E+03	1.466714E-02	3.266645E-04
5.102122E+03	1.465714E-02	3.255645E-04
5.112068E+03	1.472978E-02	3.263079E-04
5.122013E+03	1.488559E-02	3.288934E-04
5.131959E+03	1.512512E-02	3.333196E-04
5.141905E+03	1.544741E-02	3.395531E-04
5.151850E+03	1.585053E-02	3.475398E-04
5.161796E+03	1.633121E-02	3.571973E-04
5.171742E+03	1.688420E-02	3.684014E-04
5.181687E+03	1.750193E-02	3.809796E-04
5.191633E+03	1.817459E-02	3.947127E-04
5.201579E+03	1.889022E-02	4.093380E-04
5.211524E+03	1.963474E-02	4.245495E-04
5.221470E+03	2.039210E-02	4.400026E-04
5.231416E+03	2.114518E-02	4.553324E-04
5.241361E+03	2.187712E-02	4.701835E-04
5.251307E+03	2.257235E-02	4.842309E-04
5.261253E+03	2.321731E-02	4.971948E-04
5.271198E+03	2.380305E-02	5.088960E-04
5.281144E+03	2.432502E-02	5.192501E-04
5.291089E+03	2.478418E-02	5.282901E-04
5.301035E+03	2.518915E-02	5.362112E-04
5.310981E+03	2.555408E-02	5.433244E-04
5.320926E+03	2.589902E-02	5.500645E-04
5.330872E+03	2.624915E-02	5.569730E-04
5.340818E+03	2.663388E-02	5.646783E-04
5.350763E+03	2.708387E-02	5.738352E-04
5.360709E+03	2.763127E-02	5.851285E-04
5.370655E+03	2.830776E-02	5.992341E-04
5.380600E+03	2.914342E-02	6.167951E-04
5.390546E+03	3.016251E-02	6.383343E-04
5.400492E+03	3.138451E-02	6.642776E-04
5.410437E+03	3.282002E-02	6.948677E-04
5.420383E+03	3.446523E-02	7.300472E-04
5.430329E+03	3.630035E-02	7.694250E-04
5.440274E+03	3.828863E-02	8.122549E-04
5.450220E+03	4.037798E-02	8.574664E-04
5.460166E+03	4.250168E-02	9.036772E-04
5.470111E+03	4.458216E-02	9.492658E-04
5.480057E+03	4.653804E-02	9.925160E-04
5.490003E+03	4.828648E-02	1.031665E-03
5.499948E+03	4.975013E-02	1.065050E-03
5.509894E+03	5.086440E-02	1.091262E-03
5.519840E+03	5.158128E-02	1.109227E-03
5.529785E+03	5.187245E-02	1.118280E-03
5.539731E+03	5.173243E-02	1.118230E-03
5.549677E+03	5.117617E-02	1.109322E-03
5.559622E+03	5.023901E-02	1.092237E-03
5.569568E+03	4.897284E-02	1.068019E-03
5.579514E+03	4.743991E-02	1.037945E-03
5.589459E+03	4.571083E-02	1.003491E-03
5.599405E+03	4.385880E-02	9.662057E-04
5.609351E+03	4.195428E-02	9.275967E-04
5.619296E+03	4.006243E-02	8.890772E-04
5.629242E+03	3.823984E-02	8.518917E-04
5.639187E+03	3.653337E-02	8.170875E-04
5.649133E+03	3.497869E-02	7.854795E-04
5.659079E+03	3.360155E-02	7.576745E-04
5.669024E+03	3.241815E-02	7.340757E-04
5.678970E+03	3.143743E-02	7.149311E-04
5.688916E+03	3.066077E-02	7.003214E-04
5.698861E+03	3.008494E-02	6.902261E-04
5.708807E+03	2.970268E-02	6.845329E-04
5.718753E+03	2.950167E-02	6.830118E-04
5.728698E+03	2.946611E-02	6.853492E-04
5.738644E+03	2.957793E-02	6.911732E-04
5.748590E+03	2.981468E-02	7.000036E-04
5.758535E+03	3.015154E-02	7.112947E-04
5.768481E+03	3.056059E-02	7.244175E-04
5.778427E+03	3.101189E-02	7.386831E-04
5.788372E+03	3.147347E-02	7.533404E-04
5.798318E+03	3.191277E-02	7.676095E-04
5.808264E+03	3.229892E-02	7.807360E-04
5.818209E+03	3.260372E-02	7.920148E-04
5.828155E+03	3.280231E-02	8.008086E-04
5.838101E+03	3.287659E-02	8.066337E-04
5.848046E+03	3.281379E-02	8.091275E-04
5.857992E+03	3.260911E-02	8.081186E-04
5.867938E+03	3.226418E-02	8.035929E-04
5.877883E+03	3.178692E-02	7.956935E-04
5.887829E+03	3.119132E-02	7.847194E-04
5.897775E+03	3.049409E-02	7.710459E-04
5.907720E+03	2.971641E-02	7.551699E-04
5.917666E+03	2.887886E-02	7.375831E-04
5.927612E+03	2.800362E-02	7.188296E-04
5.937557E+03	2.711090E-02	6.994134E-04
5.947503E+03	2.621883E-02	6.797957E-04
5.957449E+03	2.534352E-02	6.603943E-04
5.967394E+03	2.449765E-02	6.415457E-04
5.977340E+03	2.369101E-02	6.235175E-04
5.987285E+03	2.293003E-02	6.064933E-04
5.997231E+03	2.221893E-02	5.906021E-04
6.007177E+03	2.155891E-02	5.758943E-04
6.017122E+03	2.094967E-02	5.623811E-04
6.027068E+03	2.038912E-02	5.500248E-04
6.037014E+03	1.987437E-02	5.387661E-04
6.046959E+03	1.940232E-02	5.285373E-04
6.056905E+03	1.896984E-02	5.192698E-04
6.066851E+03	1.857395E-02	5.108966E-04
6.076796E+03	1.821294E-02	5.033843E-04
6.086742E+03	1.788587E-02	4.967207E-04
6.096688E+03	1.759241E-02	4.909096E-04
6.106633E+03	1.733399E-02	4.860039E-04
6.116579E+03	1.711242E-02	4.820686E-04
6.126525E+03	1.693005E-02	4.791848E-04
6.136470E+03	1.679007E-02	4.774587E-04
6.146416E+03	1.669599E-02	4.770072E-04
6.156362E+03	1.665081E-02	4.779348E-04
6.166307E+03	1.665682E-02	4.803272E-04
6.176253E+03	1.671618E-02	4.842667E-04
6.186199E+03	1.682987E-02	4.898038E-04
6.196144E+03	1.699810E-02	4.969662E-04
6.206090E+03	1.722019E-02	5.057555E-04
6.216036E+03	1.749523E-02	5.161664E-04
6.225981E+03	1.782170E-02	5.281756E-04
6.235927E+03	1.819786E-02	5.417514E-04
6.245873E+03	1.862227E-02	5.568710E-04
6.255818E+03	1.909308E-02	5.734980E-04
6.265764E+03	1.960900E-02	5.916125E-04
6.275710E+03	2.016827E-02	6.111797E-04
6.285655E+03	2.076900E-02	6.321589E-04
6.295601E+03	2.140958E-02	6.545181E-04
6.305546E+03	2.208748E-02	6.781959E-04
6.315492E+03	2.279991E-02	7.031215E-04
6.325438E+03	2.354455E-02	7.292371E-04
6.335383E+03	2.431915E-02	7.564867E-04
6.345329E+03	2.512114E-02	7.848015E-04
6.355275E+03	2.595003E-02	8.141769E-04
6.365220E+03	2.680683E-02	8.446546E-04
6.375166E+03	2.769420E-02	8.763293E-04
6.385112E+03	2.861680E-02	9.093606E-04
6.395057E+03	2.958105E-02	9.439663E-04
6.405003E+03	3.059452E-02	9.804047E-04
6.414949E+03	3.166311E-02	1.018884E-03
6.424894E+03	3.278852E-02	1.059480E-03
6.434840E+03	3.396308E-02	1.101966E-03
6.444786E+03	3.516625E-02	1.145689E-03
6.454731E+03	3.636942E-02	1.189724E-03
6.464677E+03	3.753727E-02	1.232910E-03
6.474623E+03	3.863115E-02	1.273954E-03
6.484568E+03	3.961111E-02	1.311503E-03
6.494514E+03	4.044068E-02	1.344298E-03
6.504460E+03	4.108622E-02	1.371155E-03
6.514405E+03	4.152250E-02	1.391154E-03
6.524351E+03	4.173203E-02	1.403623E-03
6.534297E+03	4.170596E-02	1.408173E-03
6.544242E+03	4.144614E-02	1.404775E-03
6.554188E+03	4.096215E-02	1.393662E-03
6.564134E+03	4.027183E-02	1.375357E-03
6.574079E+03	3.939934E-02	1.350609E-03
6.584025E+03	3.837377E-02	1.320349E-03
6.593971E+03	3.722730E-02	1.285631E-03
6.603916E+03	3.599259E-02	1.247542E-03
6.613862E+03	3.470149E-02	1.207159E-03
6.623808E+03	3.338464E-02	1.165531E-03
6.633753E+03	3.206909E-02	1.123598E-03
6.643699E+03	3.077845E-02	1.082193E-03
6.653644E+03	2.953253E-02	1.042027E-03
6.663590E+03	2.834616E-02	1.003642E-03
6.673536E+03	2.723098E-02	9.674770E-04
6.683481E+03	2.619428E-02	9.338194E-04
6.693427E+03	2.524096E-02	9.028747E-04
6.703373E+03	2.437187E-02	8.747059E-04
6.713318E+03	2.358683E-02	8.493377E-04
6.723264E+03	2.288289E-02	8.266954E-04
6.733210E+03	2.225603E-02	8.066637E-04
6.743155E+03	2.170150E-02	7.890974E-04
6.753101E+03	2.121361E-02	7.738164E-04
6.763047E+03	2.078609E-02	7.606147E-04
6.772992E+03	2.041326E-02	7.493058E-04
6.782938E+03	2.008842E-02	7.396623E-04
6.792884E+03	1.980589E-02	7.314917E-04
6.802829E+03	1.956018E-02	7.246053E-04
6.812775E+03	1.934560E-02	7.188047E-04
6.822721E+03	1.915722E-02	7.139167E-04
6.832666E+03	1.899044E-02	7.097787E-04
6.842612E+03	1.884129E-02	7.062495E-04
6.852558E+03	1.870589E-02	7.031886E-04
6.862503E+03	1.858118E-02	7.004861E-04
6.872449E+03	1.846407E-02	6.980284E-04
6.882395E+03	1.835244E-02	6.957380E-04
6.892340E+03	1.824410E-02	6.935339E-04
6.902286E+03	1.813772E-02	6.913663E-04
6.912232E+03	1.803224E-02	6.891955E-04
6.922177E+03	1.792673E-02	6.869866E-04
6.932123E+03	1.782088E-02	6.847283E-04
6.942069E+03	1.771533E-02	6.824450E-04
6.952014E+03	1.760990E-02	6.801304E-04
6.961960E+03	1.750615E-02	6.778450E-04
6.971906E+03	1.740465E-02	6.756120E-04
6.981851E+03	1.730738E-02	6.735094E-04
6.991797E+03	1.721605E-02	6.716050E-04
7.001742E+03	1.713238E-02	6.699687E-04
7.011688E+03	1.705838E-02	6.686817E-04
7.021634E+03	1.699601E-02	6.678237E-04
7.031579E+03	1.694723E-02	6.674755E-04
7.041525E+03	1.691404E-02	6.677203E-04
7.051471E+03	1.689752E-02	6.686052E-04
7.061416E+03	1.689918E-02	6.701949E-04
7.071362E+03	1.691998E-02	6.725321E-04
7.081308E+03	1.696026E-02	6.756364E-04
7.091253E+03	1.702047E-02	6.795302E-04
7.101199E+03	1.710021E-02	6.842034E-04
7.111145E+03	1.719894E-02	6.896391E-04
7.121090E+03	1.731576E-02	6.958066E-04
7.131036E+03	1.744926E-02	7.026530E-04
7.140982E+03	1.759842E-02	7.101416E-04
7.150927E+03	1.776086E-02	7.181801E-04
7.160873E+03	1.793496E-02	7.267059E-04
7.170819E+03	1.811899E-02	7.356522E-04
7.180764E+03	1.831028E-02	7.449117E-04
7.190710E+03	1.850732E-02	7.544250E-04
7.200656E+03	1.870790E-02	7.641037E-04
7.210601E+03	1.890998E-02	7.738639E-04
7.220547E+03	1.911204E-02	7.836449E-04
7.230493E+03	1.931192E-02	7.933569E-04
7.240438E+03	1.950808E-02	8.029363E-04
7.250384E+03	1.969930E-02	8.123323E-04
7.260330E+03	1.988359E-02	8.214613E-04
7.270275E+03	2.005955E-02	8.302639E-04
7.280221E+03	2.022550E-02	8.386685E-04
7.290167E+03	2.038026E-02	8.466237E-04
7.300112E+03	2.052183E-02	8.540448E-04
7.310058E+03	2.064850E-02	8.608575E-04
7.320004E+03	2.075919E-02	8.670128E-04
7.329949E+03	2.085238E-02	8.724448E-04
7.339895E+03	2.092679E-02	8.770963E-04
7.349840E+03	2.098175E-02	8.809348E-04
7.359786E+03	2.101648E-02	8.839242E-04
7.369732E+03	2.103159E-02	8.860862E-04
7.379677E+03	2.102803E-02	8.874565E-04
7.389623E+03	2.100661E-02	8.880667E-04
7.399569E+03	2.097028E-02	8.880375E-04
7.409514E+03	2.092193E-02	8.874898E-04
7.419460E+03	2.086497E-02	8.865655E-04
7.429406E+03	2.080318E-02	8.854251E-04
7.439351E+03	2.074094E-02	8.842543E-04
7.449297E+03	2.068250E-02	8.832350E-04
7.459243E+03	2.063241E-02	8.825638E-04
7.469188E+03	2.059513E-02	8.824335E-04
7.479134E+03	2.057480E-02	8.830258E-04
7.489080E+03	2.057433E-02	8.844692E-04
7.499025E+03	2.059780E-02	8.869447E-04
7.508971E+03	2.064662E-02	8.905189E-04
7.518917E+03	2.072319E-02	8.953013E-04
7.528862E+03	2.082823E-02	9.013299E-04
7.538808E+03	2.096129E-02	9.085913E-04
7.548754E+03	2.112185E-02	9.170709E-04
7.558699E+03	2.130762E-02	9.266747E-04
7.568645E+03	2.151624E-02	9.373065E-04
7.578591E+03	2.174354E-02	9.487907E-04
7.588536E+03	2.198481E-02	9.609257E-04
7.598482E+03	2.223487E-02	9.734888E-04
7.608428E+03	2.248754E-02	9.862124E-04
7.618373E+03	2.273617E-02	9.988058E-04
7.628319E+03	2.297375E-02	1.010960E-03
7.638265E+03	2.319314E-02	1.022360E-03
7.648210E+03	2.338767E-02	1.032708E-03
7.658156E+03	2.355069E-02	1.041705E-03
7.668101E+03	2.367582E-02	1.049062E-03
7.678047E+03	2.375787E-02	1.054541E-03
7.687993E+03	2.379309E-02	1.057967E-03
7.697938E+03	2.377830E-02	1.059188E-03
7.707884E+03	2.371239E-02	1.058142E-03
7.717830E+03	2.359503E-02	1.054804E-03
