#wls	flux	fluxerr
1.591305E+03	2.031123E-03	1.964268E-04
1.631088E+03	1.837788E-03	1.759896E-04
1.670870E+03	1.653277E-03	1.567368E-04
1.710653E+03	1.479963E-03	1.388727E-04
1.750436E+03	1.319213E-03	1.224977E-04
1.790218E+03	1.171578E-03	1.076311E-04
1.830001E+03	1.036963E-03	9.423041E-05
1.869784E+03	9.150543E-04	8.223248E-05
1.909566E+03	8.058603E-04	7.160337E-05
1.949349E+03	7.090459E-04	6.227805E-05
1.989131E+03	6.248609E-04	5.424276E-05
2.028914E+03	5.546598E-04	4.757685E-05
2.068697E+03	5.006201E-04	4.242311E-05
2.108479E+03	4.653541E-04	3.895111E-05
2.148262E+03	4.502051E-04	3.721416E-05
2.188045E+03	4.552054E-04	3.715261E-05
2.227827E+03	4.785712E-04	3.856009E-05
2.267610E+03	5.180998E-04	4.120431E-05
2.307392E+03	5.722807E-04	4.491596E-05
2.347175E+03	6.404318E-04	4.959590E-05
2.386958E+03	7.229450E-04	5.522955E-05
2.426740E+03	8.205871E-04	6.182861E-05
2.466523E+03	9.340303E-04	6.939405E-05
2.506306E+03	1.063708E-03	7.790600E-05
2.546088E+03	1.209569E-03	8.730715E-05
2.585871E+03	1.371308E-03	9.752163E-05
2.625653E+03	1.547723E-03	1.084114E-04
2.665436E+03	1.736441E-03	1.197619E-04
2.705219E+03	1.932986E-03	1.312258E-04
2.745001E+03	2.132709E-03	1.424626E-04
2.784784E+03	2.331488E-03	1.531869E-04
2.824567E+03	2.525477E-03	1.631492E-04
2.864349E+03	2.711512E-03	1.721604E-04
2.904132E+03	2.886777E-03	1.800679E-04
2.943914E+03	3.051094E-03	1.868938E-04
2.983697E+03	3.204472E-03	1.926733E-04
2.993643E+03	3.241065E-03	1.939563E-04
3.003588E+03	3.277406E-03	1.952024E-04
3.013534E+03	3.313276E-03	1.963988E-04
3.023480E+03	3.348764E-03	1.975511E-04
3.033425E+03	3.384083E-03	1.986723E-04
3.043371E+03	3.419458E-03	1.997754E-04
3.053317E+03	3.454888E-03	2.008606E-04
3.063262E+03	3.490374E-03	2.019276E-04
3.073208E+03	3.526188E-03	2.029919E-04
3.083154E+03	3.562078E-03	2.040389E-04
3.093099E+03	3.598067E-03	2.050695E-04
3.103045E+03	3.634440E-03	2.060999E-04
3.112991E+03	3.670960E-03	2.071161E-04
3.122936E+03	3.707922E-03	2.081346E-04
3.132882E+03	3.745366E-03	2.091570E-04
3.142828E+03	3.783062E-03	2.101702E-04
3.152773E+03	3.821323E-03	2.111909E-04
3.162719E+03	3.860461E-03	2.122359E-04
3.172665E+03	3.899993E-03	2.132779E-04
3.182610E+03	3.940511E-03	2.143485E-04
3.192556E+03	3.981536E-03	2.154209E-04
3.202502E+03	4.023929E-03	2.165409E-04
3.212447E+03	4.067226E-03	2.176824E-04
3.222393E+03	4.111492E-03	2.188479E-04
3.232339E+03	4.157344E-03	2.200691E-04
3.242284E+03	4.204321E-03	2.213201E-04
3.252230E+03	4.253042E-03	2.226325E-04
3.262175E+03	4.303334E-03	2.239953E-04
3.272121E+03	4.355560E-03	2.254261E-04
3.282067E+03	4.409552E-03	2.269141E-04
3.292012E+03	4.465693E-03	2.284775E-04
3.301958E+03	4.524366E-03	2.301335E-04
3.311904E+03	4.585407E-03	2.318715E-04
3.321849E+03	4.649188E-03	2.337081E-04
3.331795E+03	4.715790E-03	2.356445E-04
3.341741E+03	4.785269E-03	2.376810E-04
3.351686E+03	4.857928E-03	2.398297E-04
3.361632E+03	4.933789E-03	2.420888E-04
3.371578E+03	5.012843E-03	2.444547E-04
3.381523E+03	5.095343E-03	2.469367E-04
3.391469E+03	5.181252E-03	2.495297E-04
3.401415E+03	5.271066E-03	2.522543E-04
3.411360E+03	5.364148E-03	2.550763E-04
3.421306E+03	5.460943E-03	2.580137E-04
3.431252E+03	5.561588E-03	2.610694E-04
3.441197E+03	5.665901E-03	2.642311E-04
3.451143E+03	5.773984E-03	2.675000E-04
3.461089E+03	5.886023E-03	2.708812E-04
3.471034E+03	6.001801E-03	2.743609E-04
3.480980E+03	6.122690E-03	2.779977E-04
3.490926E+03	6.248354E-03	2.817716E-04
3.500871E+03	6.379616E-03	2.857149E-04
3.510817E+03	6.516664E-03	2.898305E-04
3.520763E+03	6.660203E-03	2.941442E-04
3.530708E+03	6.809976E-03	2.986382E-04
3.540654E+03	6.965914E-03	3.033038E-04
3.550600E+03	7.127557E-03	3.081150E-04
3.560545E+03	7.294955E-03	3.130682E-04
3.570491E+03	7.467154E-03	3.181169E-04
3.580436E+03	7.643999E-03	3.232497E-04
3.590382E+03	7.824603E-03	3.284246E-04
3.600328E+03	8.008227E-03	3.336068E-04
3.610273E+03	8.193346E-03	3.387298E-04
3.620219E+03	8.379468E-03	3.437717E-04
3.630165E+03	8.564358E-03	3.486402E-04
3.640110E+03	8.746856E-03	3.532890E-04
3.650056E+03	8.925124E-03	3.576464E-04
3.660002E+03	9.097688E-03	3.616574E-04
3.669947E+03	9.262684E-03	3.652536E-04
3.679893E+03	9.419982E-03	3.684367E-04
3.689839E+03	9.568928E-03	3.711886E-04
3.699784E+03	9.710376E-03	3.735497E-04
3.709730E+03	9.845917E-03	3.755877E-04
3.719676E+03	9.978590E-03	3.774231E-04
3.729621E+03	1.011223E-02	3.792021E-04
3.739567E+03	1.025220E-02	3.811233E-04
3.749513E+03	1.040378E-02	3.833742E-04
3.759458E+03	1.057333E-02	3.861764E-04
3.769404E+03	1.076740E-02	3.897487E-04
3.779350E+03	1.099235E-02	3.942954E-04
3.789295E+03	1.125353E-02	3.999756E-04
3.799241E+03	1.155670E-02	4.069566E-04
3.809187E+03	1.190499E-02	4.153056E-04
3.819132E+03	1.230137E-02	4.250810E-04
3.829078E+03	1.274658E-02	4.362602E-04
3.839024E+03	1.323969E-02	4.487627E-04
3.848969E+03	1.377760E-02	4.624369E-04
3.858915E+03	1.435457E-02	4.770474E-04
3.868861E+03	1.496241E-02	4.922858E-04
3.878806E+03	1.559122E-02	5.077987E-04
3.888752E+03	1.622830E-02	5.231561E-04
3.898698E+03	1.685922E-02	5.378897E-04
3.908643E+03	1.746870E-02	5.515234E-04
3.918589E+03	1.804096E-02	5.635868E-04
3.928534E+03	1.856026E-02	5.736313E-04
3.938480E+03	1.901220E-02	5.812702E-04
3.948426E+03	1.938556E-02	5.862332E-04
3.958371E+03	1.967175E-02	5.883432E-04
3.968317E+03	1.986651E-02	5.875633E-04
3.978263E+03	1.996948E-02	5.839752E-04
3.988208E+03	1.998457E-02	5.777857E-04
3.998154E+03	1.991985E-02	5.693146E-04
4.008100E+03	1.978667E-02	5.589639E-04
4.018045E+03	1.959734E-02	5.471469E-04
4.027991E+03	1.936575E-02	5.343038E-04
4.037937E+03	1.910710E-02	5.208930E-04
4.047882E+03	1.883476E-02	5.073026E-04
4.057828E+03	1.856154E-02	4.938884E-04
4.067774E+03	1.829962E-02	4.809729E-04
4.077719E+03	1.805895E-02	4.688051E-04
4.087665E+03	1.784827E-02	4.575901E-04
4.097611E+03	1.767477E-02	4.474825E-04
4.107556E+03	1.754352E-02	4.385753E-04
4.117502E+03	1.745903E-02	4.309422E-04
4.127448E+03	1.742404E-02	4.246082E-04
4.137393E+03	1.743949E-02	4.195521E-04
4.147339E+03	1.750493E-02	4.157197E-04
4.157285E+03	1.761944E-02	4.130475E-04
4.167230E+03	1.777963E-02	4.114170E-04
4.177176E+03	1.798178E-02	4.107072E-04
4.187122E+03	1.822046E-02	4.107643E-04
4.197067E+03	1.848971E-02	4.114307E-04
4.207013E+03	1.878171E-02	4.125153E-04
4.216959E+03	1.908907E-02	4.138473E-04
4.226904E+03	1.940203E-02	4.152142E-04
4.236850E+03	1.971079E-02	4.164142E-04
4.246796E+03	2.000406E-02	4.172260E-04
4.256741E+03	2.027100E-02	4.174497E-04
4.266687E+03	2.049885E-02	4.168574E-04
4.276632E+03	2.067612E-02	4.152598E-04
4.286578E+03	2.079147E-02	4.124800E-04
4.296524E+03	2.083575E-02	4.083941E-04
4.306469E+03	2.080126E-02	4.029116E-04
4.316415E+03	2.068568E-02	3.960495E-04
4.326361E+03	2.048993E-02	3.878844E-04
4.336306E+03	2.022042E-02	3.785907E-04
4.346252E+03	1.989129E-02	3.684769E-04
4.356198E+03	1.952286E-02	3.579497E-04
4.366143E+03	1.913869E-02	3.474560E-04
4.376089E+03	1.876344E-02	3.374436E-04
4.386035E+03	1.841968E-02	3.283056E-04
4.395980E+03	1.812941E-02	3.204102E-04
4.405926E+03	1.791535E-02	3.141271E-04
4.415872E+03	1.779776E-02	3.097744E-04
4.425817E+03	1.779416E-02	3.076174E-04
4.435763E+03	1.791807E-02	3.078517E-04
4.445709E+03	1.818036E-02	3.106292E-04
4.455654E+03	1.858978E-02	3.160711E-04
4.465600E+03	1.915302E-02	3.242682E-04
4.475546E+03	1.987446E-02	3.352738E-04
4.485491E+03	2.075535E-02	3.490958E-04
4.495437E+03	2.179239E-02	3.656732E-04
4.505383E+03	2.297597E-02	3.848481E-04
4.515328E+03	2.428926E-02	4.063488E-04
4.525274E+03	2.570650E-02	4.297613E-04
4.535220E+03	2.719125E-02	4.544966E-04
4.545165E+03	2.869780E-02	4.798123E-04
4.555111E+03	3.017144E-02	5.048136E-04
4.565057E+03	3.155120E-02	5.284938E-04
4.575002E+03	3.277590E-02	5.498327E-04
4.584948E+03	3.378707E-02	5.678418E-04
4.594894E+03	3.453793E-02	5.817136E-04
4.604839E+03	3.499442E-02	5.908389E-04
4.614785E+03	3.514230E-02	5.949299E-04
4.624730E+03	3.498741E-02	5.940288E-04
4.634676E+03	3.455283E-02	5.884663E-04
4.644622E+03	3.387860E-02	5.788626E-04
4.654567E+03	3.301527E-02	5.660242E-04
4.664513E+03	3.201858E-02	5.508573E-04
4.674459E+03	3.094581E-02	5.343080E-04
4.684404E+03	2.985057E-02	5.172748E-04
4.694350E+03	2.877924E-02	5.005446E-04
4.704296E+03	2.776954E-02	4.847679E-04
4.714241E+03	2.685123E-02	4.704674E-04
4.724187E+03	2.604442E-02	4.580054E-04
4.734133E+03	2.536213E-02	4.476257E-04
4.744078E+03	2.481092E-02	4.394619E-04
4.754024E+03	2.439269E-02	4.335672E-04
4.763970E+03	2.410605E-02	4.299364E-04
4.773915E+03	2.394625E-02	4.285036E-04
4.783861E+03	2.390649E-02	4.291647E-04
4.793807E+03	2.397906E-02	4.317963E-04
4.803752E+03	2.415510E-02	4.362519E-04
4.813698E+03	2.442424E-02	4.423542E-04
4.823644E+03	2.477554E-02	4.499126E-04
4.833589E+03	2.519661E-02	4.587063E-04
4.843535E+03	2.567273E-02	4.684694E-04
4.853481E+03	2.618682E-02	4.788885E-04
4.863426E+03	2.671862E-02	4.895891E-04
4.873372E+03	2.724427E-02	5.001269E-04
4.883318E+03	2.773620E-02	5.099862E-04
4.893263E+03	2.816577E-02	5.186293E-04
4.903209E+03	2.850374E-02	5.255056E-04
4.913155E+03	2.872528E-02	5.301445E-04
4.923100E+03	2.880965E-02	5.321521E-04
4.933046E+03	2.874460E-02	5.312935E-04
4.942991E+03	2.852554E-02	5.274781E-04
4.952937E+03	2.815696E-02	5.207865E-04
4.962883E+03	2.765175E-02	5.114591E-04
4.972828E+03	2.702962E-02	4.998653E-04
4.982774E+03	2.631556E-02	4.864756E-04
4.992720E+03	2.553764E-02	4.718187E-04
5.002665E+03	2.472607E-02	4.564638E-04
5.012611E+03	2.390920E-02	4.409452E-04
5.022557E+03	2.311370E-02	4.257644E-04
5.032502E+03	2.236194E-02	4.113412E-04
5.042448E+03	2.167208E-02	3.980154E-04
5.052394E+03	2.105894E-02	3.860623E-04
5.062339E+03	2.053375E-02	3.756875E-04
5.072285E+03	2.010503E-02	3.670441E-04
5.082231E+03	1.977923E-02	3.602444E-04
5.092176E+03	1.956098E-02	3.553645E-04
5.102122E+03	1.945461E-02	3.524721E-04
5.112068E+03	1.946229E-02	3.515931E-04
5.122013E+03	1.958633E-02	3.527539E-04
5.131959E+03	1.982765E-02	3.559533E-04
5.141905E+03	2.018651E-02	3.611771E-04
5.151850E+03	2.066141E-02	3.683771E-04
5.161796E+03	2.124947E-02	3.774813E-04
5.171742E+03	2.194518E-02	3.883698E-04
5.181687E+03	2.274061E-02	4.008812E-04
5.191633E+03	2.362440E-02	4.147959E-04
5.201579E+03	2.458158E-02	4.298345E-04
5.211524E+03	2.559423E-02	4.456705E-04
5.221470E+03	2.664098E-02	4.619239E-04
5.231416E+03	2.769772E-02	4.781743E-04
5.241361E+03	2.873945E-02	4.939948E-04
5.251307E+03	2.974089E-02	5.089625E-04
5.261253E+03	3.067867E-02	5.226960E-04
5.271198E+03	3.153319E-02	5.348866E-04
5.281144E+03	3.229126E-02	5.453400E-04
5.291089E+03	3.294819E-02	5.540107E-04
5.301035E+03	3.350863E-02	5.610108E-04
5.310981E+03	3.398839E-02	5.666377E-04
5.320926E+03	3.441318E-02	5.713487E-04
5.330872E+03	3.481931E-02	5.757695E-04
5.340818E+03	3.525001E-02	5.806302E-04
5.350763E+03	3.575306E-02	5.867259E-04
5.360709E+03	3.637929E-02	5.948913E-04
5.370655E+03	3.717761E-02	6.059206E-04
5.380600E+03	3.819263E-02	6.205325E-04
5.390546E+03	3.946279E-02	6.393424E-04
5.400492E+03	4.101520E-02	6.627833E-04
5.410437E+03	4.286396E-02	6.910831E-04
5.420383E+03	4.500025E-02	7.241097E-04
5.430329E+03	4.738614E-02	7.612760E-04
5.440274E+03	4.995401E-02	8.015332E-04
5.450220E+03	5.261605E-02	8.435245E-04
5.460166E+03	5.526851E-02	8.856439E-04
5.470111E+03	5.780124E-02	9.261696E-04
5.480057E+03	6.010728E-02	9.634183E-04
5.490003E+03	6.208921E-02	9.958482E-04
5.499948E+03	6.366443E-02	1.022138E-03
5.509894E+03	6.477518E-02	1.041344E-03
5.519840E+03	6.538462E-02	1.052842E-03
5.529785E+03	6.547870E-02	1.056352E-03
5.539731E+03	6.506644E-02	1.051955E-03
5.549677E+03	6.417306E-02	1.039980E-03
5.559622E+03	6.284283E-02	1.021062E-03
5.569568E+03	6.112960E-02	9.959877E-04
5.579514E+03	5.909922E-02	9.657472E-04
5.589459E+03	5.682490E-02	9.314597E-04
5.599405E+03	5.438468E-02	8.943368E-04
5.609351E+03	5.185761E-02	8.556246E-04
5.619296E+03	4.932014E-02	8.165451E-04
5.629242E+03	4.684359E-02	7.782555E-04
5.639187E+03	4.448936E-02	7.417675E-04
5.649133E+03	4.230923E-02	7.079501E-04
5.659079E+03	4.034133E-02	6.774589E-04
5.669024E+03	3.861508E-02	6.508154E-04
5.678970E+03	3.714804E-02	6.283502E-04
5.688916E+03	3.594888E-02	6.102489E-04
5.698861E+03	3.502024E-02	5.965986E-04
5.708807E+03	3.435733E-02	5.873602E-04
5.718753E+03	3.395159E-02	5.824291E-04
5.728698E+03	3.378938E-02	5.816111E-04
5.738644E+03	3.385405E-02	5.846555E-04
5.748590E+03	3.412526E-02	5.912435E-04
5.758535E+03	3.457898E-02	6.009858E-04
5.768481E+03	3.518753E-02	6.134232E-04
5.778427E+03	3.591798E-02	6.279973E-04
5.788372E+03	3.673328E-02	6.440695E-04
5.798318E+03	3.759258E-02	6.609264E-04
5.808264E+03	3.845226E-02	6.777972E-04
5.818209E+03	3.926743E-02	6.938808E-04
5.828155E+03	3.999412E-02	7.083851E-04
5.838101E+03	4.059182E-02	7.205735E-04
5.848046E+03	4.102560E-02	7.298039E-04
5.857992E+03	4.126783E-02	7.355616E-04
5.867938E+03	4.130127E-02	7.375161E-04
5.877883E+03	4.111852E-02	7.355144E-04
5.887829E+03	4.072167E-02	7.295755E-04
5.897775E+03	4.012457E-02	7.199328E-04
5.907720E+03	3.934842E-02	7.069569E-04
5.917666E+03	3.842104E-02	6.911419E-04
5.927612E+03	3.737575E-02	6.730856E-04
5.937557E+03	3.624708E-02	6.534125E-04
5.947503E+03	3.506974E-02	6.327538E-04
5.957449E+03	3.387478E-02	6.116776E-04
5.967394E+03	3.269020E-02	5.906989E-04
5.977340E+03	3.153820E-02	5.702294E-04
5.987285E+03	3.043509E-02	5.505743E-04
5.997231E+03	2.939094E-02	5.319267E-04
6.007177E+03	2.841197E-02	5.144089E-04
6.017122E+03	2.749872E-02	4.980399E-04
6.027068E+03	2.664961E-02	4.828001E-04
6.037014E+03	2.585982E-02	4.686098E-04
6.046959E+03	2.512447E-02	4.553880E-04
6.056905E+03	2.443750E-02	4.430319E-04
6.066851E+03	2.379458E-02	4.314694E-04
6.076796E+03	2.319296E-02	4.206563E-04
6.086742E+03	2.263149E-02	4.105778E-04
6.096688E+03	2.211111E-02	4.012565E-04
6.106633E+03	2.163488E-02	3.927530E-04
6.116579E+03	2.120787E-02	3.851651E-04
6.126525E+03	2.083654E-02	3.786157E-04
6.136470E+03	2.052828E-02	3.732452E-04
6.146416E+03	2.029043E-02	3.691936E-04
6.156362E+03	2.012967E-02	3.665906E-04
6.166307E+03	2.005075E-02	3.655317E-04
6.176253E+03	2.005716E-02	3.660915E-04
6.186199E+03	2.014989E-02	3.683006E-04
6.196144E+03	2.032844E-02	3.721645E-04
6.206090E+03	2.059051E-02	3.776584E-04
6.216036E+03	2.093308E-02	3.847454E-04
6.225981E+03	2.135221E-02	3.933752E-04
6.235927E+03	2.184423E-02	4.035038E-04
6.245873E+03	2.240523E-02	4.150854E-04
6.255818E+03	2.303179E-02	4.280855E-04
6.265764E+03	2.372150E-02	4.424907E-04
6.275710E+03	2.447178E-02	4.582873E-04
6.285655E+03	2.528068E-02	4.754754E-04
6.295601E+03	2.614546E-02	4.940438E-04
6.305546E+03	2.706264E-02	5.139686E-04
6.315492E+03	2.802851E-02	5.352247E-04
6.325438E+03	2.903702E-02	5.577428E-04
6.335383E+03	3.008168E-02	5.814441E-04
6.345329E+03	3.115546E-02	6.062286E-04
6.355275E+03	3.225152E-02	6.319943E-04
6.365220E+03	3.336469E-02	6.586674E-04
6.375166E+03	3.449248E-02	6.862249E-04
6.385112E+03	3.563694E-02	7.147319E-04
6.395057E+03	3.680544E-02	7.443619E-04
6.405003E+03	3.801131E-02	7.754150E-04
6.414949E+03	3.927196E-02	8.082838E-04
6.424894E+03	4.060265E-02	8.433298E-04
6.434840E+03	4.200185E-02	8.805754E-04
6.444786E+03	4.344433E-02	9.195408E-04
6.454731E+03	4.488986E-02	9.594057E-04
6.464677E+03	4.629375E-02	9.992195E-04
6.474623E+03	4.761012E-02	1.037965E-03
6.484568E+03	4.879444E-02	1.074613E-03
6.494514E+03	4.980481E-02	1.108147E-03
6.504460E+03	5.060673E-02	1.137673E-03
6.514405E+03	5.117163E-02	1.162397E-03
6.524351E+03	5.147936E-02	1.181683E-03
6.534297E+03	5.151914E-02	1.195087E-03
6.544242E+03	5.129053E-02	1.202392E-03
6.554188E+03	5.080004E-02	1.203541E-03
6.564134E+03	5.006547E-02	1.198749E-03
6.574079E+03	4.910949E-02	1.188362E-03
6.584025E+03	4.796106E-02	1.172902E-03
6.593971E+03	4.665323E-02	1.153019E-03
6.603916E+03	4.522193E-02	1.129468E-03
6.613862E+03	4.370353E-02	1.103053E-03
6.623808E+03	4.213237E-02	1.074565E-03
6.633753E+03	4.054099E-02	1.044785E-03
6.643699E+03	3.895951E-02	1.014467E-03
6.653644E+03	3.741198E-02	9.842387E-04
6.663590E+03	3.591943E-02	9.546760E-04
6.673536E+03	3.449824E-02	9.262529E-04
6.683481E+03	3.315909E-02	8.993085E-04
6.693427E+03	3.191081E-02	8.741439E-04
6.703373E+03	3.075649E-02	8.509124E-04
6.713318E+03	2.969717E-02	8.297148E-04
6.723264E+03	2.873232E-02	8.106090E-04
6.733210E+03	2.785803E-02	7.935577E-04
6.743155E+03	2.707029E-02	7.785157E-04
6.753101E+03	2.636380E-02	7.653981E-04
6.763047E+03	2.573274E-02	7.540980E-04
6.772992E+03	2.517099E-02	7.444942E-04
6.782938E+03	2.467267E-02	7.364662E-04
6.792884E+03	2.423093E-02	7.298578E-04
6.802829E+03	2.384039E-02	7.245502E-04
6.812775E+03	2.349489E-02	7.203946E-04
6.822721E+03	2.318885E-02	7.172541E-04
6.832666E+03	2.291700E-02	7.149956E-04
6.842612E+03	2.267444E-02	7.134907E-04
6.852558E+03	2.245692E-02	7.126274E-04
6.862503E+03	2.225996E-02	7.122818E-04
6.872449E+03	2.207979E-02	7.123476E-04
6.882395E+03	2.191332E-02	7.127374E-04
6.892340E+03	2.175698E-02	7.133440E-04
6.902286E+03	2.160883E-02	7.141106E-04
6.912232E+03	2.146645E-02	7.149631E-04
6.922177E+03	2.132822E-02	7.158506E-04
6.932123E+03	2.119298E-02	7.167369E-04
6.942069E+03	2.106007E-02	7.176020E-04
6.952014E+03	2.092967E-02	7.184529E-04
6.961960E+03	2.080152E-02	7.192830E-04
6.971906E+03	2.067677E-02	7.201337E-04
6.981851E+03	2.055696E-02	7.210619E-04
6.991797E+03	2.044313E-02	7.221077E-04
7.001742E+03	2.033718E-02	7.233432E-04
7.011688E+03	2.024177E-02	7.248695E-04
7.021634E+03	2.015846E-02	7.267510E-04
7.031579E+03	2.008970E-02	7.290850E-04
7.041525E+03	2.003753E-02	7.319569E-04
7.051471E+03	2.000355E-02	7.354370E-04
7.061416E+03	1.998939E-02	7.395985E-04
7.071362E+03	1.999667E-02	7.445162E-04
7.081308E+03	2.002613E-02	7.502315E-04
7.091253E+03	2.007836E-02	7.567829E-04
7.101199E+03	2.015359E-02	7.641934E-04
7.111145E+03	2.025189E-02	7.724815E-04
7.121090E+03	2.037198E-02	7.816130E-04
7.131036E+03	2.051306E-02	7.915710E-04
7.140982E+03	2.067331E-02	8.022982E-04
7.150927E+03	2.085145E-02	8.137567E-04
7.160873E+03	2.104438E-02	8.258358E-04
7.170819E+03	2.125035E-02	8.384750E-04
7.180764E+03	2.146657E-02	8.515713E-04
7.190710E+03	2.169087E-02	8.650439E-04
7.200656E+03	2.192022E-02	8.787753E-04
7.210601E+03	2.215266E-02	8.926897E-04
7.220547E+03	2.238581E-02	9.066908E-04
7.230493E+03	2.261812E-02	9.207158E-04
7.240438E+03	2.284754E-02	9.346797E-04
7.250384E+03	2.307284E-02	9.485298E-04
7.260330E+03	2.329183E-02	9.621722E-04
7.270275E+03	2.350337E-02	9.755556E-04
7.280221E+03	2.370594E-02	9.886118E-04
7.290167E+03	2.389758E-02	1.001254E-03
7.300112E+03	2.407661E-02	1.013403E-03
7.310058E+03	2.424165E-02	1.024995E-03
7.320004E+03	2.439016E-02	1.035914E-03
7.329949E+03	2.452076E-02	1.046092E-03
7.339895E+03	2.463145E-02	1.055433E-03
7.349840E+03	2.472124E-02	1.063884E-03
7.359786E+03	2.478834E-02	1.071356E-03
7.369732E+03	2.483262E-02	1.077833E-03
7.379677E+03	2.485377E-02	1.083289E-03
7.389623E+03	2.485255E-02	1.087746E-03
7.399569E+03	2.483045E-02	1.091257E-03
7.409514E+03	2.479001E-02	1.093926E-03
7.419460E+03	2.473329E-02	1.095835E-03
7.429406E+03	2.466488E-02	1.097182E-03
7.439351E+03	2.458796E-02	1.098102E-03
7.449297E+03	2.450726E-02	1.098805E-03
7.459243E+03	2.442740E-02	1.099500E-03
7.469188E+03	2.435348E-02	1.100418E-03
7.479134E+03	2.428969E-02	1.101754E-03
7.489080E+03	2.424077E-02	1.103730E-03
7.499025E+03	2.421056E-02	1.106532E-03
7.508971E+03	2.420225E-02	1.110317E-03
7.518917E+03	2.421828E-02	1.115209E-03
7.528862E+03	2.426015E-02	1.121294E-03
7.538808E+03	2.432878E-02	1.128628E-03
7.548754E+03	2.442332E-02	1.137186E-03
7.558699E+03	2.454268E-02	1.146934E-03
7.568645E+03	2.468409E-02	1.157754E-03
7.578591E+03	2.484467E-02	1.169525E-03
7.588536E+03	2.502043E-02	1.182069E-03
7.598482E+03	2.520675E-02	1.195178E-03
7.608428E+03	2.539852E-02	1.208615E-03
7.618373E+03	2.559036E-02	1.222128E-03
7.628319E+03	2.577671E-02	1.235453E-03
7.638265E+03	2.595207E-02	1.248325E-03
7.648210E+03	2.611157E-02	1.260505E-03
7.658156E+03	2.624939E-02	1.271704E-03
7.668101E+03	2.636193E-02	1.281740E-03
7.678047E+03	2.644492E-02	1.290392E-03
7.687993E+03	2.649526E-02	1.297496E-03
7.697938E+03	2.651063E-02	1.302922E-03
7.707884E+03	2.648960E-02	1.306584E-03
7.717830E+03	2.643160E-02	1.308437E-03
