#wls	flux	fluxerr
1.591305E+03	7.389804E-04	6.706774E-05
1.631088E+03	7.211533E-04	6.522795E-05
1.670870E+03	7.023852E-04	6.330965E-05
1.710653E+03	6.829554E-04	6.133915E-05
1.750436E+03	6.627656E-04	5.930861E-05
1.790218E+03	6.417671E-04	5.721479E-05
1.830001E+03	6.194064E-04	5.500970E-05
1.869784E+03	5.953199E-04	5.266302E-05
1.909566E+03	5.689639E-04	5.012909E-05
1.949349E+03	5.404310E-04	4.741898E-05
1.989131E+03	5.101099E-04	4.456960E-05
2.028914E+03	4.800471E-04	4.176159E-05
2.068697E+03	4.534530E-04	3.927335E-05
2.108479E+03	4.345148E-04	3.746243E-05
2.148262E+03	4.265506E-04	3.660496E-05
2.188045E+03	4.302286E-04	3.674497E-05
2.227827E+03	4.439300E-04	3.773048E-05
2.267610E+03	4.644656E-04	3.927887E-05
2.307392E+03	4.886876E-04	4.111607E-05
2.347175E+03	5.143187E-04	4.304602E-05
2.386958E+03	5.402688E-04	4.497540E-05
2.426740E+03	5.658489E-04	4.684603E-05
2.466523E+03	5.912235E-04	4.867121E-05
2.506306E+03	6.167346E-04	5.047850E-05
2.546088E+03	6.426457E-04	5.228841E-05
2.585871E+03	6.694767E-04	5.414162E-05
2.625653E+03	6.977389E-04	5.607707E-05
2.665436E+03	7.278511E-04	5.812524E-05
2.705219E+03	7.600220E-04	6.029891E-05
2.745001E+03	7.946582E-04	6.262600E-05
2.784784E+03	8.319400E-04	6.511564E-05
2.824567E+03	8.724331E-04	6.780643E-05
2.864349E+03	9.163743E-04	7.071014E-05
2.904132E+03	9.642884E-04	7.385992E-05
2.943914E+03	1.016892E-03	7.730203E-05
2.983697E+03	1.074566E-03	8.105564E-05
2.993643E+03	1.089878E-03	8.204907E-05
3.003588E+03	1.105646E-03	8.307150E-05
3.013534E+03	1.121738E-03	8.411296E-05
3.023480E+03	1.138320E-03	8.518551E-05
3.033425E+03	1.155459E-03	8.629407E-05
3.043371E+03	1.173088E-03	8.743317E-05
3.053317E+03	1.191341E-03	8.861270E-05
3.063262E+03	1.210071E-03	8.982134E-05
3.073208E+03	1.229564E-03	9.108004E-05
3.083154E+03	1.249529E-03	9.236694E-05
3.093099E+03	1.270259E-03	9.370335E-05
3.103045E+03	1.291462E-03	9.506740E-05
3.112991E+03	1.313437E-03	9.648080E-05
3.122936E+03	1.335890E-03	9.792164E-05
3.132882E+03	1.359128E-03	9.941198E-05
3.142828E+03	1.383006E-03	1.009410E-04
3.152773E+03	1.407532E-03	1.025088E-04
3.162719E+03	1.432717E-03	1.041159E-04
3.172665E+03	1.458724E-03	1.057738E-04
3.182610E+03	1.485569E-03	1.074831E-04
3.192556E+03	1.513109E-03	1.092331E-04
3.202502E+03	1.541517E-03	1.110359E-04
3.212447E+03	1.570650E-03	1.128807E-04
3.222393E+03	1.600685E-03	1.147799E-04
3.232339E+03	1.631644E-03	1.167344E-04
3.242284E+03	1.663548E-03	1.187453E-04
3.252230E+03	1.696419E-03	1.208137E-04
3.262175E+03	1.730284E-03	1.229409E-04
3.272121E+03	1.765166E-03	1.251281E-04
3.282067E+03	1.801265E-03	1.273887E-04
3.292012E+03	1.838270E-03	1.297003E-04
3.301958E+03	1.876726E-03	1.321005E-04
3.311904E+03	1.916151E-03	1.345549E-04
3.321849E+03	1.957101E-03	1.371017E-04
3.331795E+03	1.999267E-03	1.397187E-04
3.341741E+03	2.042863E-03	1.424199E-04
3.351686E+03	2.087931E-03	1.452076E-04
3.361632E+03	2.134513E-03	1.480838E-04
3.371578E+03	2.182651E-03	1.510505E-04
3.381523E+03	2.232568E-03	1.541224E-04
3.391469E+03	2.284120E-03	1.572884E-04
3.401415E+03	2.337337E-03	1.605499E-04
3.411360E+03	2.392439E-03	1.639207E-04
3.421306E+03	2.449260E-03	1.673886E-04
3.431252E+03	2.508206E-03	1.709803E-04
3.441197E+03	2.568912E-03	1.746696E-04
3.451143E+03	2.631783E-03	1.784831E-04
3.461089E+03	2.696642E-03	1.824076E-04
3.471034E+03	2.763508E-03	1.864432E-04
3.480980E+03	2.832596E-03	1.906033E-04
3.490926E+03	2.903715E-03	1.948736E-04
3.500871E+03	2.977051E-03	1.992655E-04
3.510817E+03	3.052574E-03	2.037757E-04
3.520763E+03	3.130221E-03	2.083987E-04
3.530708E+03	3.209895E-03	2.131268E-04
3.540654E+03	3.291671E-03	2.179639E-04
3.550600E+03	3.375165E-03	2.228831E-04
3.560545E+03	3.460166E-03	2.278698E-04
3.570491E+03	3.546845E-03	2.329341E-04
3.580436E+03	3.634474E-03	2.380273E-04
3.590382E+03	3.723147E-03	2.431549E-04
3.600328E+03	3.812263E-03	2.482771E-04
3.610273E+03	3.901394E-03	2.533657E-04
3.620219E+03	3.990306E-03	2.584055E-04
3.630165E+03	4.078281E-03	2.633500E-04
3.640110E+03	4.165284E-03	2.681975E-04
3.650056E+03	4.250383E-03	2.728885E-04
3.660002E+03	4.333599E-03	2.774253E-04
3.669947E+03	4.414376E-03	2.817734E-04
3.679893E+03	4.492520E-03	2.859217E-04
3.689839E+03	4.568484E-03	2.899003E-04
3.699784E+03	4.642052E-03	2.936968E-04
3.709730E+03	4.713941E-03	2.973575E-04
3.719676E+03	4.784915E-03	3.009314E-04
3.729621E+03	4.856199E-03	3.044958E-04
3.739567E+03	4.928761E-03	3.081109E-04
3.749513E+03	5.004147E-03	3.118723E-04
3.759458E+03	5.083731E-03	3.158637E-04
3.769404E+03	5.168642E-03	3.201525E-04
3.779350E+03	5.260559E-03	3.248392E-04
3.789295E+03	5.360325E-03	3.299717E-04
3.799241E+03	5.468753E-03	3.355953E-04
3.809187E+03	5.586556E-03	3.417484E-04
3.819132E+03	5.713873E-03	3.484340E-04
3.829078E+03	5.850199E-03	3.556157E-04
3.839024E+03	5.995023E-03	3.632573E-04
3.848969E+03	6.147131E-03	3.712805E-04
3.858915E+03	6.304822E-03	3.795783E-04
3.868861E+03	6.465919E-03	3.880167E-04
3.878806E+03	6.628044E-03	3.964514E-04
3.888752E+03	6.787777E-03	4.046778E-04
3.898698E+03	6.942377E-03	4.125343E-04
3.908643E+03	7.088543E-03	4.198282E-04
3.918589E+03	7.222796E-03	4.263592E-04
3.928534E+03	7.342119E-03	4.319566E-04
3.938480E+03	7.444127E-03	4.364893E-04
3.948426E+03	7.526758E-03	4.398471E-04
3.958371E+03	7.588196E-03	4.419358E-04
3.968317E+03	7.628530E-03	4.427730E-04
3.978263E+03	7.647316E-03	4.423456E-04
3.988208E+03	7.646012E-03	4.407506E-04
3.998154E+03	7.626334E-03	4.380987E-04
4.008100E+03	7.590183E-03	4.345096E-04
4.018045E+03	7.540528E-03	4.301627E-04
4.027991E+03	7.480587E-03	4.252492E-04
4.037937E+03	7.413104E-03	4.199308E-04
4.047882E+03	7.341184E-03	4.143873E-04
4.057828E+03	7.267957E-03	4.087977E-04
4.067774E+03	7.195948E-03	4.033042E-04
4.077719E+03	7.127569E-03	3.980412E-04
4.087665E+03	7.064734E-03	3.931129E-04
4.097611E+03	7.009350E-03	3.886218E-04
4.107556E+03	6.962493E-03	3.846231E-04
4.117502E+03	6.925538E-03	3.811873E-04
4.127448E+03	6.898765E-03	3.783240E-04
4.137393E+03	6.882757E-03	3.760589E-04
4.147339E+03	6.877654E-03	3.743933E-04
4.157285E+03	6.883041E-03	3.732980E-04
4.167230E+03	6.898678E-03	3.727540E-04
4.177176E+03	6.923815E-03	3.727147E-04
4.187122E+03	6.957499E-03	3.731233E-04
4.197067E+03	6.998743E-03	3.739221E-04
4.207013E+03	7.046403E-03	3.750456E-04
4.216959E+03	7.098963E-03	3.764098E-04
4.226904E+03	7.155092E-03	3.779413E-04
4.236850E+03	7.213290E-03	3.795593E-04
4.246796E+03	7.272188E-03	3.811908E-04
4.256741E+03	7.330210E-03	3.827534E-04
4.266687E+03	7.386282E-03	3.841916E-04
4.276632E+03	7.438988E-03	3.854337E-04
4.286578E+03	7.487789E-03	3.864537E-04
4.296524E+03	7.531696E-03	3.872035E-04
4.306469E+03	7.570705E-03	3.876858E-04
4.316415E+03	7.604841E-03	3.879053E-04
4.326361E+03	7.634822E-03	3.879012E-04
4.336306E+03	7.661430E-03	3.877159E-04
4.346252E+03	7.686262E-03	3.874321E-04
4.356198E+03	7.711091E-03	3.871400E-04
4.366143E+03	7.738146E-03	3.869513E-04
4.376089E+03	7.769725E-03	3.869791E-04
4.386035E+03	7.808669E-03	3.873619E-04
4.395980E+03	7.857962E-03	3.882428E-04
4.405926E+03	7.921009E-03	3.897832E-04
4.415872E+03	8.001501E-03	3.921560E-04
4.425817E+03	8.102858E-03	3.955179E-04
4.435763E+03	8.228300E-03	4.000131E-04
4.445709E+03	8.380717E-03	4.057676E-04
4.455654E+03	8.562049E-03	4.128589E-04
4.465600E+03	8.773112E-03	4.213093E-04
4.475546E+03	9.014010E-03	4.311063E-04
4.485491E+03	9.282834E-03	4.421417E-04
4.495437E+03	9.576662E-03	4.542606E-04
4.505383E+03	9.890869E-03	4.672300E-04
4.515328E+03	1.021918E-02	4.807432E-04
4.525274E+03	1.055360E-02	4.944172E-04
4.535220E+03	1.088480E-02	5.078142E-04
4.545165E+03	1.120223E-02	5.204457E-04
4.555111E+03	1.149485E-02	5.318093E-04
4.565057E+03	1.175153E-02	5.414069E-04
4.575002E+03	1.196208E-02	5.487922E-04
4.584948E+03	1.211793E-02	5.536004E-04
4.594894E+03	1.221250E-02	5.555647E-04
4.604839E+03	1.224275E-02	5.545820E-04
4.614785E+03	1.220802E-02	5.506604E-04
4.624730E+03	1.211145E-02	5.439783E-04
4.634676E+03	1.195890E-02	5.348335E-04
4.644622E+03	1.175842E-02	5.236160E-04
4.654567E+03	1.151967E-02	5.107821E-04
4.664513E+03	1.125358E-02	4.968359E-04
4.674459E+03	1.097064E-02	4.822542E-04
4.684404E+03	1.068109E-02	4.674941E-04
4.694350E+03	1.039427E-02	4.529663E-04
4.704296E+03	1.011804E-02	4.390107E-04
4.714241E+03	9.858710E-03	4.258929E-04
4.724187E+03	9.621364E-03	4.138222E-04
4.734133E+03	9.409601E-03	4.029400E-04
4.744078E+03	9.225838E-03	3.933346E-04
4.754024E+03	9.071687E-03	3.850587E-04
4.763970E+03	8.947479E-03	3.781095E-04
4.773915E+03	8.852970E-03	3.724597E-04
4.783861E+03	8.787339E-03	3.680583E-04
4.793807E+03	8.749165E-03	3.648301E-04
4.803752E+03	8.736671E-03	3.626858E-04
4.813698E+03	8.747538E-03	3.615155E-04
4.823644E+03	8.779076E-03	3.611956E-04
4.833589E+03	8.828002E-03	3.615804E-04
4.843535E+03	8.890581E-03	3.625082E-04
4.853481E+03	8.962508E-03	3.637969E-04
4.863426E+03	9.038842E-03	3.652420E-04
4.873372E+03	9.114279E-03	3.666281E-04
4.883318E+03	9.183384E-03	3.677384E-04
4.893263E+03	9.240483E-03	3.683503E-04
4.903209E+03	9.280756E-03	3.682794E-04
4.913155E+03	9.299838E-03	3.673628E-04
4.923100E+03	9.294897E-03	3.655007E-04
4.933046E+03	9.264493E-03	3.626499E-04
4.942991E+03	9.208675E-03	3.588263E-04
4.952937E+03	9.129249E-03	3.541134E-04
4.962883E+03	9.029281E-03	3.486423E-04
4.972828E+03	8.912886E-03	3.425821E-04
4.982774E+03	8.784800E-03	3.361226E-04
4.992720E+03	8.650316E-03	3.294715E-04
5.002665E+03	8.514673E-03	3.228308E-04
5.012611E+03	8.382899E-03	3.163906E-04
5.022557E+03	8.259630E-03	3.103232E-04
5.032502E+03	8.148997E-03	3.047785E-04
5.042448E+03	8.054564E-03	2.998827E-04
5.052394E+03	7.979325E-03	2.957387E-04
5.062339E+03	7.925841E-03	2.924312E-04
5.072285E+03	7.896044E-03	2.900204E-04
5.082231E+03	7.891581E-03	2.885550E-04
5.092176E+03	7.913781E-03	2.880711E-04
5.102122E+03	7.963794E-03	2.885977E-04
5.112068E+03	8.042435E-03	2.901512E-04
5.122013E+03	8.150157E-03	2.927347E-04
5.131959E+03	8.287200E-03	2.963435E-04
5.141905E+03	8.453592E-03	3.009657E-04
5.151850E+03	8.648576E-03	3.065618E-04
5.161796E+03	8.871108E-03	3.130828E-04
5.171742E+03	9.119461E-03	3.204568E-04
5.181687E+03	9.391230E-03	3.285894E-04
5.191633E+03	9.683283E-03	3.373627E-04
5.201579E+03	9.991759E-03	3.466356E-04
5.211524E+03	1.031208E-02	3.562450E-04
5.221470E+03	1.063903E-02	3.660082E-04
5.231416E+03	1.096691E-02	3.757296E-04
5.241361E+03	1.128981E-02	3.852095E-04
5.251307E+03	1.160158E-02	3.942439E-04
5.261253E+03	1.189647E-02	4.026449E-04
5.271198E+03	1.216953E-02	4.102552E-04
5.281144E+03	1.241649E-02	4.169429E-04
5.291089E+03	1.263518E-02	4.226473E-04
5.301035E+03	1.282435E-02	4.273405E-04
5.310981E+03	1.298531E-02	4.310793E-04
5.320926E+03	1.312103E-02	4.339743E-04
5.330872E+03	1.323604E-02	4.361858E-04
5.340818E+03	1.333702E-02	4.379422E-04
5.350763E+03	1.343169E-02	4.395031E-04
5.360709E+03	1.352852E-02	4.411478E-04
5.370655E+03	1.363708E-02	4.431883E-04
5.380600E+03	1.376660E-02	4.459216E-04
5.390546E+03	1.392604E-02	4.496322E-04
5.400492E+03	1.412251E-02	4.545414E-04
5.410437E+03	1.436094E-02	4.607989E-04
5.420383E+03	1.464125E-02	4.683928E-04
5.430329E+03	1.495837E-02	4.771522E-04
5.440274E+03	1.530126E-02	4.867202E-04
5.450220E+03	1.565545E-02	4.966335E-04
5.460166E+03	1.600293E-02	5.063236E-04
5.470111E+03	1.632489E-02	5.152005E-04
5.480057E+03	1.660207E-02	5.226664E-04
5.490003E+03	1.681626E-02	5.281613E-04
5.499948E+03	1.695282E-02	5.312417E-04
5.509894E+03	1.700008E-02	5.315594E-04
5.519840E+03	1.695210E-02	5.289471E-04
5.529785E+03	1.680779E-02	5.233887E-04
5.539731E+03	1.657165E-02	5.150395E-04
5.549677E+03	1.625310E-02	5.042058E-04
5.559622E+03	1.586564E-02	4.913170E-04
5.569568E+03	1.542576E-02	4.768895E-04
5.579514E+03	1.495158E-02	4.614872E-04
5.589459E+03	1.446177E-02	4.456861E-04
5.599405E+03	1.397402E-02	4.300286E-04
5.609351E+03	1.350468E-02	4.150128E-04
5.619296E+03	1.306812E-02	4.010730E-04
5.629242E+03	1.267664E-02	3.885785E-04
5.639187E+03	1.233995E-02	3.778189E-04
5.649133E+03	1.206631E-02	3.690378E-04
5.659079E+03	1.186180E-02	3.624120E-04
5.669024E+03	1.173114E-02	3.580776E-04
5.678970E+03	1.167725E-02	3.561157E-04
5.688916E+03	1.170194E-02	3.565745E-04
5.698861E+03	1.180548E-02	3.594558E-04
5.708807E+03	1.198607E-02	3.646992E-04
5.718753E+03	1.224026E-02	3.721959E-04
5.728698E+03	1.256226E-02	3.817660E-04
5.738644E+03	1.294374E-02	3.931549E-04
5.748590E+03	1.337372E-02	4.060271E-04
5.758535E+03	1.383825E-02	4.199593E-04
5.768481E+03	1.432080E-02	4.344508E-04
5.778427E+03	1.480267E-02	4.489353E-04
5.788372E+03	1.526326E-02	4.627908E-04
5.798318E+03	1.568178E-02	4.753885E-04
5.808264E+03	1.603777E-02	4.861107E-04
5.818209E+03	1.631367E-02	4.944270E-04
5.828155E+03	1.649488E-02	4.998968E-04
5.838101E+03	1.657220E-02	5.022415E-04
5.848046E+03	1.654115E-02	5.013256E-04
5.857992E+03	1.640334E-02	4.971964E-04
5.867938E+03	1.616528E-02	4.900497E-04
5.877883E+03	1.583830E-02	4.802264E-04
5.887829E+03	1.543682E-02	4.681605E-04
5.897775E+03	1.497759E-02	4.543569E-04
5.907720E+03	1.447825E-02	4.393469E-04
5.917666E+03	1.395628E-02	4.236582E-04
5.927612E+03	1.342752E-02	4.077691E-04
5.937557E+03	1.290633E-02	3.921129E-04
5.947503E+03	1.240460E-02	3.770495E-04
5.957449E+03	1.193161E-02	3.628602E-04
5.967394E+03	1.149435E-02	3.497569E-04
5.977340E+03	1.109754E-02	3.378833E-04
5.987285E+03	1.074400E-02	3.273265E-04
5.997231E+03	1.043459E-02	3.181134E-04
6.007177E+03	1.016901E-02	3.102365E-04
6.017122E+03	9.945979E-03	3.036590E-04
6.027068E+03	9.763140E-03	2.983105E-04
6.037014E+03	9.617884E-03	2.941136E-04
6.046959E+03	9.506706E-03	2.909633E-04
6.056905E+03	9.426265E-03	2.887596E-04
6.066851E+03	9.372686E-03	2.873859E-04
6.076796E+03	9.342263E-03	2.867306E-04
6.086742E+03	9.331085E-03	2.866755E-04
6.096688E+03	9.335256E-03	2.871026E-04
6.106633E+03	9.351214E-03	2.879038E-04
6.116579E+03	9.375190E-03	2.889642E-04
6.126525E+03	9.403637E-03	2.901752E-04
6.136470E+03	9.433244E-03	2.914353E-04
6.146416E+03	9.460829E-03	2.926463E-04
6.156362E+03	9.483602E-03	2.937219E-04
6.166307E+03	9.498925E-03	2.945797E-04
6.176253E+03	9.504858E-03	2.951587E-04
6.186199E+03	9.500239E-03	2.954219E-04
6.196144E+03	9.484493E-03	2.953500E-04
6.206090E+03	9.458109E-03	2.949569E-04
6.216036E+03	9.422467E-03	2.942843E-04
6.225981E+03	9.379619E-03	2.933949E-04
6.235927E+03	9.332606E-03	2.923831E-04
6.245873E+03	9.284687E-03	2.913504E-04
6.255818E+03	9.239665E-03	2.904162E-04
6.265764E+03	9.201180E-03	2.896951E-04
6.275710E+03	9.172638E-03	2.892951E-04
6.285655E+03	9.157137E-03	2.893150E-04
6.295601E+03	9.157141E-03	2.898343E-04
6.305546E+03	9.174582E-03	2.909163E-04
6.315492E+03	9.210591E-03	2.925996E-04
6.325438E+03	9.265783E-03	2.949065E-04
6.335383E+03	9.340461E-03	2.978497E-04
6.345329E+03	9.434348E-03	3.014236E-04
6.355275E+03	9.546731E-03	3.056087E-04
6.365220E+03	9.677056E-03	3.103902E-04
6.375166E+03	9.824792E-03	3.157543E-04
6.385112E+03	9.989200E-03	3.216802E-04
6.395057E+03	1.016984E-02	3.281566E-04
6.405003E+03	1.036582E-02	3.351580E-04
6.414949E+03	1.057547E-02	3.426324E-04
6.424894E+03	1.079568E-02	3.504815E-04
6.434840E+03	1.102003E-02	3.584985E-04
6.444786E+03	1.123897E-02	3.663722E-04
6.454731E+03	1.144087E-02	3.737215E-04
6.464677E+03	1.161262E-02	3.801136E-04
6.474623E+03	1.174142E-02	3.851217E-04
6.484568E+03	1.181595E-02	3.883647E-04
6.494514E+03	1.182710E-02	3.895309E-04
6.504460E+03	1.176847E-02	3.883962E-04
6.514405E+03	1.163723E-02	3.848519E-04
6.524351E+03	1.143432E-02	3.789142E-04
6.534297E+03	1.116348E-02	3.706919E-04
6.544242E+03	1.083184E-02	3.604085E-04
6.554188E+03	1.044873E-02	3.483627E-04
6.564134E+03	1.002481E-02	3.348996E-04
6.574079E+03	9.571730E-03	3.204015E-04
6.584025E+03	9.101174E-03	3.052540E-04
6.593971E+03	8.623913E-03	2.898158E-04
6.603916E+03	8.150135E-03	2.744289E-04
6.613862E+03	7.688127E-03	2.593739E-04
6.623808E+03	7.244897E-03	2.448903E-04
6.633753E+03	6.825767E-03	2.311622E-04
6.643699E+03	6.434486E-03	2.183219E-04
6.653644E+03	6.073681E-03	2.064645E-04
6.663590E+03	5.744582E-03	1.956381E-04
6.673536E+03	5.447504E-03	1.858598E-04
6.683481E+03	5.182191E-03	1.771271E-04
6.693427E+03	4.947606E-03	1.694109E-04
6.703373E+03	4.742480E-03	1.626735E-04
6.713318E+03	4.565243E-03	1.568666E-04
6.723264E+03	4.414221E-03	1.519379E-04
6.733210E+03	4.287531E-03	1.478273E-04
6.743155E+03	4.183452E-03	1.444798E-04
6.753101E+03	4.100225E-03	1.418386E-04
6.763047E+03	4.036310E-03	1.398542E-04
6.772992E+03	3.990129E-03	1.384749E-04
6.782938E+03	3.960195E-03	1.376522E-04
6.792884E+03	3.945252E-03	1.373449E-04
6.802829E+03	3.943924E-03	1.375076E-04
6.812775E+03	3.955027E-03	1.381010E-04
6.822721E+03	3.977366E-03	1.390852E-04
6.832666E+03	4.009721E-03	1.404191E-04
6.842612E+03	4.051022E-03	1.420666E-04
6.852558E+03	4.100016E-03	1.439849E-04
6.862503E+03	4.155649E-03	1.461380E-04
6.872449E+03	4.216690E-03	1.484832E-04
6.882395E+03	4.282083E-03	1.509840E-04
6.892340E+03	4.350789E-03	1.536041E-04
6.902286E+03	4.421791E-03	1.563077E-04
6.912232E+03	4.494362E-03	1.590694E-04
6.922177E+03	4.567764E-03	1.618630E-04
6.932123E+03	4.641442E-03	1.646687E-04
6.942069E+03	4.715156E-03	1.674778E-04
6.952014E+03	4.788881E-03	1.702894E-04
6.961960E+03	4.862603E-03	1.731027E-04
6.971906E+03	4.936651E-03	1.759293E-04
6.981851E+03	5.011428E-03	1.787836E-04
6.991797E+03	5.087476E-03	1.816848E-04
7.001742E+03	5.165178E-03	1.846466E-04
7.011688E+03	5.245094E-03	1.876892E-04
7.021634E+03	5.327668E-03	1.908284E-04
7.031579E+03	5.413251E-03	1.940771E-04
7.041525E+03	5.502085E-03	1.974441E-04
7.051471E+03	5.594354E-03	2.009364E-04
7.061416E+03	5.689906E-03	2.045485E-04
7.071362E+03	5.788724E-03	2.082801E-04
7.081308E+03	5.890453E-03	2.121188E-04
7.091253E+03	5.994659E-03	2.160489E-04
7.101199E+03	6.100799E-03	2.200511E-04
7.111145E+03	6.208216E-03	2.241017E-04
7.121090E+03	6.316238E-03	2.281766E-04
7.131036E+03	6.423970E-03	2.322433E-04
7.140982E+03	6.530540E-03	2.362704E-04
7.150927E+03	6.635064E-03	2.402257E-04
7.160873E+03	6.736739E-03	2.440799E-04
7.170819E+03	6.834626E-03	2.477990E-04
7.180764E+03	6.928004E-03	2.513565E-04
7.190710E+03	7.016080E-03	2.547233E-04
7.200656E+03	7.098334E-03	2.578804E-04
7.210601E+03	7.174221E-03	2.608076E-04
7.220547E+03	7.243543E-03	2.634975E-04
7.230493E+03	7.306108E-03	2.659429E-04
7.240438E+03	7.362098E-03	2.681501E-04
7.250384E+03	7.411797E-03	2.701292E-04
7.260330E+03	7.455632E-03	2.718956E-04
7.270275E+03	7.494069E-03	2.734663E-04
7.280221E+03	7.527845E-03	2.748681E-04
7.290167E+03	7.557637E-03	2.761257E-04
7.300112E+03	7.584108E-03	2.772635E-04
7.310058E+03	7.607843E-03	2.783028E-04
7.320004E+03	7.629419E-03	2.792651E-04
7.329949E+03	7.649057E-03	2.801586E-04
7.339895E+03	7.666917E-03	2.809895E-04
7.349840E+03	7.683096E-03	2.817615E-04
7.359786E+03	7.697460E-03	2.824700E-04
7.369732E+03	7.709870E-03	2.831102E-04
7.379677E+03	7.719819E-03	2.836638E-04
7.389623E+03	7.727207E-03	2.841272E-04
7.399569E+03	7.731769E-03	2.844910E-04
7.409514E+03	7.733260E-03	2.847463E-04
7.419460E+03	7.731679E-03	2.848934E-04
7.429406E+03	7.727209E-03	2.849390E-04
7.439351E+03	7.720128E-03	2.848938E-04
7.449297E+03	7.710994E-03	2.847785E-04
7.459243E+03	7.700521E-03	2.846197E-04
7.469188E+03	7.689437E-03	2.844448E-04
7.479134E+03	7.678744E-03	2.842911E-04
7.489080E+03	7.669355E-03	2.841930E-04
7.499025E+03	7.661943E-03	2.841759E-04
7.508971E+03	7.657532E-03	2.842787E-04
7.518917E+03	7.656633E-03	2.845210E-04
7.528862E+03	7.659950E-03	2.849298E-04
7.538808E+03	7.667956E-03	2.855239E-04
7.548754E+03	7.680891E-03	2.863132E-04
7.558699E+03	7.699022E-03	2.873087E-04
7.568645E+03	7.722324E-03	2.885109E-04
7.578591E+03	7.750444E-03	2.899078E-04
7.588536E+03	7.782862E-03	2.914811E-04
7.598482E+03	7.818882E-03	2.932062E-04
7.608428E+03	7.857279E-03	2.950382E-04
7.618373E+03	7.896643E-03	2.969252E-04
7.628319E+03	7.935397E-03	2.988088E-04
7.638265E+03	7.971460E-03	3.006111E-04
7.648210E+03	8.003062E-03	3.022655E-04
7.658156E+03	8.028100E-03	3.036926E-04
7.668101E+03	8.044800E-03	3.048245E-04
7.678047E+03	8.051217E-03	3.055867E-04
7.687993E+03	8.046135E-03	3.059314E-04
7.697938E+03	8.028347E-03	3.058109E-04
7.707884E+03	7.997256E-03	3.052001E-04
7.717830E+03	7.952363E-03	3.040774E-04
