#wls	flux	fluxerr
1.591305E+03	6.724861E-04	6.844043E-05
1.631088E+03	6.581044E-04	6.667307E-05
1.670870E+03	6.427926E-04	6.481883E-05
1.710653E+03	6.265329E-04	6.287762E-05
1.750436E+03	6.095768E-04	6.087636E-05
1.790218E+03	5.915046E-04	5.877479E-05
1.830001E+03	5.719193E-04	5.653585E-05
1.869784E+03	5.503786E-04	5.411891E-05
1.909566E+03	5.267008E-04	5.150989E-05
1.949349E+03	5.005805E-04	4.868321E-05
1.989131E+03	4.727968E-04	4.571897E-05
2.028914E+03	4.449178E-04	4.277156E-05
2.068697E+03	4.203049E-04	4.016320E-05
2.108479E+03	4.026178E-04	3.823660E-05
2.148262E+03	3.950154E-04	3.727822E-05
2.188045E+03	3.981733E-04	3.733352E-05
2.227827E+03	4.104207E-04	3.822707E-05
2.267610E+03	4.289276E-04	3.967973E-05
2.307392E+03	4.506956E-04	4.140352E-05
2.347175E+03	4.736164E-04	4.319910E-05
2.386958E+03	4.966863E-04	4.497255E-05
2.426740E+03	5.194612E-04	4.668287E-05
2.466523E+03	5.418441E-04	4.832123E-05
2.506306E+03	5.642377E-04	4.992332E-05
2.546088E+03	5.870739E-04	5.152630E-05
2.585871E+03	6.106395E-04	5.315344E-05
2.625653E+03	6.355119E-04	5.485223E-05
2.665436E+03	6.619885E-04	5.664447E-05
2.705219E+03	6.904907E-04	5.856150E-05
2.745001E+03	7.212301E-04	6.061566E-05
2.784784E+03	7.546335E-04	6.283644E-05
2.824567E+03	7.910429E-04	6.524485E-05
2.864349E+03	8.309374E-04	6.787195E-05
2.904132E+03	8.748425E-04	7.075076E-05
2.943914E+03	9.232205E-04	7.390745E-05
2.983697E+03	9.767083E-04	7.738019E-05
2.993643E+03	9.910005E-04	7.830573E-05
3.003588E+03	1.005604E-03	7.924922E-05
3.013534E+03	1.020649E-03	8.022071E-05
3.023480E+03	1.036160E-03	8.122180E-05
3.033425E+03	1.052202E-03	8.225720E-05
3.043371E+03	1.068718E-03	8.332210E-05
3.053317E+03	1.085827E-03	8.442558E-05
3.063262E+03	1.103530E-03	8.556716E-05
3.073208E+03	1.121827E-03	8.674641E-05
3.083154E+03	1.140718E-03	8.796306E-05
3.093099E+03	1.160208E-03	8.921692E-05
3.103045E+03	1.180299E-03	9.050788E-05
3.112991E+03	1.200998E-03	9.183594E-05
3.122936E+03	1.222443E-03	9.321129E-05
3.132882E+03	1.244512E-03	9.462406E-05
3.142828E+03	1.267214E-03	9.607452E-05
3.152773E+03	1.290560E-03	9.756300E-05
3.162719E+03	1.314697E-03	9.910021E-05
3.172665E+03	1.339503E-03	1.006764E-04
3.182610E+03	1.365132E-03	1.023027E-04
3.192556E+03	1.391463E-03	1.039693E-04
3.202502E+03	1.418794E-03	1.056980E-04
3.212447E+03	1.446866E-03	1.074690E-04
3.222393E+03	1.475842E-03	1.092936E-04
3.232339E+03	1.505603E-03	1.111625E-04
3.242284E+03	1.536462E-03	1.130981E-04
3.252230E+03	1.568305E-03	1.150914E-04
3.262175E+03	1.601161E-03	1.171438E-04
3.272121E+03	1.635213E-03	1.192677E-04
3.282067E+03	1.670197E-03	1.214433E-04
3.292012E+03	1.706450E-03	1.236942E-04
3.301958E+03	1.744015E-03	1.260227E-04
3.311904E+03	1.782783E-03	1.284199E-04
3.321849E+03	1.822955E-03	1.308995E-04
3.331795E+03	1.864584E-03	1.334642E-04
3.341741E+03	1.907724E-03	1.361169E-04
3.351686E+03	1.952437E-03	1.388607E-04
3.361632E+03	1.998620E-03	1.416875E-04
3.371578E+03	2.046663E-03	1.446235E-04
3.381523E+03	2.096634E-03	1.476723E-04
3.391469E+03	2.148434E-03	1.508256E-04
3.401415E+03	2.202123E-03	1.540861E-04
3.411360E+03	2.257930E-03	1.574686E-04
3.421306E+03	2.315915E-03	1.609757E-04
3.431252E+03	2.375963E-03	1.645977E-04
3.441197E+03	2.438476E-03	1.683611E-04
3.451143E+03	2.503157E-03	1.722436E-04
3.461089E+03	2.570415E-03	1.762715E-04
3.471034E+03	2.640304E-03	1.804469E-04
3.480980E+03	2.712688E-03	1.847584E-04
3.490926E+03	2.787594E-03	1.892063E-04
3.500871E+03	2.865405E-03	1.938143E-04
3.510817E+03	2.945722E-03	1.985537E-04
3.520763E+03	3.028671E-03	2.034310E-04
3.530708E+03	3.114145E-03	2.084372E-04
3.540654E+03	3.202187E-03	2.135732E-04
3.550600E+03	3.292400E-03	2.188108E-04
3.560545E+03	3.384721E-03	2.241443E-04
3.570491E+03	3.478840E-03	2.295516E-04
3.580436E+03	3.574183E-03	2.349936E-04
3.590382E+03	3.670725E-03	2.404679E-04
3.600328E+03	3.767545E-03	2.459132E-04
3.610273E+03	3.864489E-03	2.513194E-04
3.620219E+03	3.960910E-03	2.566444E-04
3.630165E+03	4.055889E-03	2.618292E-04
3.640110E+03	4.148877E-03	2.668394E-04
3.650056E+03	4.239096E-03	2.716266E-04
3.660002E+03	4.325789E-03	2.761444E-04
3.669947E+03	4.408282E-03	2.803523E-04
3.679893E+03	4.486313E-03	2.842369E-04
3.689839E+03	4.559460E-03	2.877748E-04
3.699784E+03	4.628096E-03	2.909927E-04
3.709730E+03	4.692593E-03	2.939173E-04
3.719676E+03	4.754448E-03	2.966450E-04
3.729621E+03	4.814726E-03	2.992439E-04
3.739567E+03	4.875682E-03	3.018547E-04
3.749513E+03	4.939383E-03	3.046045E-04
3.759458E+03	5.007817E-03	3.076132E-04
3.769404E+03	5.083189E-03	3.110125E-04
3.779350E+03	5.167799E-03	3.149375E-04
3.789295E+03	5.263546E-03	3.194967E-04
3.799241E+03	5.372236E-03	3.247912E-04
3.809187E+03	5.494665E-03	3.308596E-04
3.819132E+03	5.631787E-03	3.377491E-04
3.829078E+03	5.784040E-03	3.454752E-04
3.839024E+03	5.950812E-03	3.539904E-04
3.848969E+03	6.130997E-03	3.632186E-04
3.858915E+03	6.322950E-03	3.730531E-04
3.868861E+03	6.523991E-03	3.833279E-04
3.878806E+03	6.730392E-03	3.938181E-04
3.888752E+03	6.937908E-03	4.042728E-04
3.898698E+03	7.142158E-03	4.144367E-04
3.908643E+03	7.337418E-03	4.239817E-04
3.918589E+03	7.518226E-03	4.326002E-04
3.928534E+03	7.679509E-03	4.400121E-04
3.938480E+03	7.816396E-03	4.459540E-04
3.948426E+03	7.924577E-03	4.501988E-04
3.958371E+03	8.001328E-03	4.526136E-04
3.968317E+03	8.044779E-03	4.531163E-04
3.978263E+03	8.054756E-03	4.517212E-04
3.988208E+03	8.032782E-03	4.485381E-04
3.998154E+03	7.981057E-03	4.437128E-04
4.008100E+03	7.903562E-03	4.374873E-04
4.018045E+03	7.804674E-03	4.301216E-04
4.027991E+03	7.689668E-03	4.219210E-04
4.037937E+03	7.563552E-03	4.131707E-04
4.047882E+03	7.431205E-03	4.041442E-04
4.057828E+03	7.297528E-03	3.951114E-04
4.067774E+03	7.166733E-03	3.863005E-04
4.077719E+03	7.042105E-03	3.778856E-04
4.087665E+03	6.926670E-03	3.700238E-04
4.097611E+03	6.822844E-03	3.628373E-04
4.107556E+03	6.732446E-03	3.564138E-04
4.117502E+03	6.656597E-03	3.508028E-04
4.127448E+03	6.596066E-03	3.460344E-04
4.137393E+03	6.550996E-03	3.421050E-04
4.147339E+03	6.521122E-03	3.389899E-04
4.157285E+03	6.505916E-03	3.366509E-04
4.167230E+03	6.504354E-03	3.350251E-04
4.177176E+03	6.515222E-03	3.340406E-04
4.187122E+03	6.536884E-03	3.336052E-04
4.197067E+03	6.567448E-03	3.336154E-04
4.207013E+03	6.604932E-03	3.339649E-04
4.216959E+03	6.647079E-03	3.345354E-04
4.226904E+03	6.691514E-03	3.352049E-04
4.236850E+03	6.735823E-03	3.358517E-04
4.246796E+03	6.777717E-03	3.363626E-04
4.256741E+03	6.814884E-03	3.366253E-04
4.266687E+03	6.845193E-03	3.365386E-04
4.276632E+03	6.866949E-03	3.360246E-04
4.286578E+03	6.878639E-03	3.350157E-04
4.296524E+03	6.879622E-03	3.334880E-04
4.306469E+03	6.869418E-03	3.314260E-04
4.316415E+03	6.848775E-03	3.288734E-04
4.326361E+03	6.818793E-03	3.258900E-04
4.336306E+03	6.781257E-03	3.225671E-04
4.346252E+03	6.738752E-03	3.190324E-04
4.356198E+03	6.694429E-03	3.154378E-04
4.366143E+03	6.651819E-03	3.119501E-04
4.376089E+03	6.614505E-03	3.087354E-04
4.386035E+03	6.586041E-03	3.059550E-04
4.395980E+03	6.571087E-03	3.038184E-04
4.405926E+03	6.574822E-03	3.025551E-04
4.415872E+03	6.603206E-03	3.024256E-04
4.425817E+03	6.661702E-03	3.036629E-04
4.435763E+03	6.755163E-03	3.064679E-04
4.445709E+03	6.887454E-03	3.109925E-04
4.455654E+03	7.061950E-03	3.173636E-04
4.465600E+03	7.280718E-03	3.256469E-04
4.475546E+03	7.545065E-03	3.358727E-04
4.485491E+03	7.854884E-03	3.480078E-04
4.495437E+03	8.208492E-03	3.619498E-04
4.505383E+03	8.602201E-03	3.775100E-04
4.515328E+03	9.030100E-03	3.944055E-04
4.525274E+03	9.483253E-03	4.122276E-04
4.535220E+03	9.950522E-03	4.304792E-04
4.545165E+03	1.041762E-02	4.485374E-04
4.555111E+03	1.086842E-02	4.657114E-04
4.565057E+03	1.128504E-02	4.812505E-04
4.575002E+03	1.164942E-02	4.944086E-04
4.584948E+03	1.194531E-02	5.045324E-04
4.594894E+03	1.215835E-02	5.110603E-04
4.604839E+03	1.227891E-02	5.136405E-04
4.614785E+03	1.230281E-02	5.121550E-04
4.624730E+03	1.223074E-02	5.066904E-04
4.634676E+03	1.206964E-02	4.975910E-04
4.644622E+03	1.183052E-02	4.853613E-04
4.654567E+03	1.152795E-02	4.706429E-04
4.664513E+03	1.117873E-02	4.541556E-04
4.674459E+03	1.079966E-02	4.366062E-04
4.684404E+03	1.040737E-02	4.186804E-04
4.694350E+03	1.001645E-02	4.009697E-04
4.704296E+03	9.639121E-03	3.839595E-04
4.714241E+03	9.285306E-03	3.680345E-04
4.724187E+03	8.962127E-03	3.534611E-04
4.734133E+03	8.674677E-03	3.404207E-04
4.744078E+03	8.426070E-03	3.290134E-04
4.754024E+03	8.218142E-03	3.192873E-04
4.763970E+03	8.051250E-03	3.112322E-04
4.773915E+03	7.925057E-03	3.048108E-04
4.783861E+03	7.838475E-03	2.999577E-04
4.793807E+03	7.789782E-03	2.965839E-04
4.803752E+03	7.777075E-03	2.945955E-04
4.813698E+03	7.797784E-03	2.938747E-04
4.823644E+03	7.848977E-03	2.942923E-04
4.833589E+03	7.927247E-03	2.957038E-04
4.843535E+03	8.028319E-03	2.979350E-04
4.853481E+03	8.147291E-03	3.007922E-04
4.863426E+03	8.277940E-03	3.040367E-04
4.873372E+03	8.413383E-03	3.074108E-04
4.883318E+03	8.545636E-03	3.106219E-04
4.893263E+03	8.666210E-03	3.133652E-04
4.903209E+03	8.766880E-03	3.153518E-04
4.913155E+03	8.840041E-03	3.163213E-04
4.923100E+03	8.880083E-03	3.160898E-04
4.933046E+03	8.883138E-03	3.145393E-04
4.942991E+03	8.847969E-03	3.116473E-04
4.952937E+03	8.775934E-03	3.074829E-04
4.962883E+03	8.670408E-03	3.021843E-04
4.972828E+03	8.536785E-03	2.959572E-04
4.982774E+03	8.381714E-03	2.890463E-04
4.992720E+03	8.212234E-03	2.817049E-04
5.002665E+03	8.035863E-03	2.741973E-04
5.012611E+03	7.859584E-03	2.667641E-04
5.022557E+03	7.689953E-03	2.596265E-04
5.032502E+03	7.532621E-03	2.529705E-04
5.042448E+03	7.392377E-03	2.469494E-04
5.052394E+03	7.273026E-03	2.416806E-04
5.062339E+03	7.177778E-03	2.372589E-04
5.072285E+03	7.108940E-03	2.337478E-04
5.082231E+03	7.068412E-03	2.311958E-04
5.092176E+03	7.057754E-03	2.296391E-04
5.102122E+03	7.078353E-03	2.291079E-04
5.112068E+03	7.131242E-03	2.296200E-04
5.122013E+03	7.217377E-03	2.311905E-04
5.131959E+03	7.337339E-03	2.338221E-04
5.141905E+03	7.491588E-03	2.375139E-04
5.151850E+03	7.679749E-03	2.422385E-04
5.161796E+03	7.901358E-03	2.479667E-04
5.171742E+03	8.154986E-03	2.546396E-04
5.181687E+03	8.438393E-03	2.621746E-04
5.191633E+03	8.748703E-03	2.704714E-04
5.201579E+03	9.081826E-03	2.793944E-04
5.211524E+03	9.432747E-03	2.887829E-04
5.221470E+03	9.795453E-03	2.984488E-04
5.231416E+03	1.016316E-02	3.081849E-04
5.241361E+03	1.052822E-02	3.177617E-04
5.251307E+03	1.088266E-02	3.269446E-04
5.261253E+03	1.121866E-02	3.355080E-04
5.271198E+03	1.152880E-02	3.432428E-04
5.281144E+03	1.180668E-02	3.499731E-04
5.291089E+03	1.204790E-02	3.555854E-04
5.301035E+03	1.225031E-02	3.600339E-04
5.310981E+03	1.241430E-02	3.633482E-04
5.320926E+03	1.254291E-02	3.656331E-04
5.330872E+03	1.264155E-02	3.670611E-04
5.340818E+03	1.271822E-02	3.678760E-04
5.350763E+03	1.278219E-02	3.683547E-04
5.360709E+03	1.284470E-02	3.688259E-04
5.370655E+03	1.291765E-02	3.696327E-04
5.380600E+03	1.301385E-02	3.711391E-04
5.390546E+03	1.314639E-02	3.737136E-04
5.400492E+03	1.332797E-02	3.777086E-04
5.410437E+03	1.356831E-02	3.833894E-04
5.420383E+03	1.387158E-02	3.908637E-04
5.430329E+03	1.423185E-02	3.999548E-04
5.440274E+03	1.463442E-02	4.102439E-04
5.450220E+03	1.505820E-02	4.211379E-04
5.460166E+03	1.547863E-02	4.319523E-04
5.470111E+03	1.586988E-02	4.419725E-04
5.480057E+03	1.620517E-02	4.504623E-04
5.490003E+03	1.645997E-02	4.567530E-04
5.499948E+03	1.661291E-02	4.602653E-04
5.509894E+03	1.664805E-02	4.605724E-04
5.519840E+03	1.655604E-02	4.574285E-04
5.529785E+03	1.633542E-02	4.508043E-04
5.539731E+03	1.599237E-02	4.408790E-04
5.549677E+03	1.554024E-02	4.280250E-04
5.559622E+03	1.499825E-02	4.127730E-04
5.569568E+03	1.438982E-02	3.957662E-04
5.579514E+03	1.374041E-02	3.777002E-04
5.589459E+03	1.307524E-02	3.592621E-04
5.599405E+03	1.241807E-02	3.410975E-04
5.609351E+03	1.178949E-02	3.237647E-04
5.619296E+03	1.120693E-02	3.077347E-04
5.629242E+03	1.068359E-02	2.933636E-04
5.639187E+03	1.023004E-02	2.809362E-04
5.649133E+03	9.853813E-03	2.706559E-04
5.659079E+03	9.560525E-03	2.626738E-04
5.669024E+03	9.354261E-03	2.571013E-04
5.678970E+03	9.237940E-03	2.540189E-04
5.688916E+03	9.213416E-03	2.534794E-04
5.698861E+03	9.281984E-03	2.555215E-04
5.708807E+03	9.443398E-03	2.601427E-04
5.718753E+03	9.696324E-03	2.673118E-04
5.728698E+03	1.003745E-02	2.769437E-04
5.738644E+03	1.046118E-02	2.888909E-04
5.748590E+03	1.095943E-02	3.029379E-04
5.758535E+03	1.152066E-02	3.187725E-04
5.768481E+03	1.212934E-02	3.359722E-04
5.778427E+03	1.276564E-02	3.539931E-04
5.788372E+03	1.340582E-02	3.721808E-04
5.798318E+03	1.402333E-02	3.897997E-04
5.808264E+03	1.459006E-02	4.060670E-04
5.818209E+03	1.507850E-02	4.202121E-04
5.828155E+03	1.546446E-02	4.315523E-04
5.838101E+03	1.572834E-02	4.395292E-04
5.848046E+03	1.585778E-02	4.437825E-04
5.857992E+03	1.584780E-02	4.441566E-04
5.867938E+03	1.570162E-02	4.407235E-04
5.877883E+03	1.542996E-02	4.337667E-04
5.887829E+03	1.504932E-02	4.237329E-04
5.897775E+03	1.458061E-02	4.111957E-04
5.907720E+03	1.404751E-02	3.968106E-04
5.917666E+03	1.347354E-02	3.812317E-04
5.927612E+03	1.288147E-02	3.650974E-04
5.937557E+03	1.229113E-02	3.489657E-04
5.947503E+03	1.171947E-02	3.333176E-04
5.957449E+03	1.117974E-02	3.185318E-04
5.967394E+03	1.068160E-02	3.048875E-04
5.977340E+03	1.023172E-02	2.925800E-04
5.987285E+03	9.833899E-03	2.817248E-04
5.997231E+03	9.489376E-03	2.723648E-04
6.007177E+03	9.197949E-03	2.645019E-04
6.017122E+03	8.958029E-03	2.580984E-04
6.027068E+03	8.766864E-03	2.530827E-04
6.037014E+03	8.621197E-03	2.493684E-04
6.046959E+03	8.517159E-03	2.468510E-04
6.056905E+03	8.450547E-03	2.454154E-04
6.066851E+03	8.417048E-03	2.449425E-04
6.076796E+03	8.412085E-03	2.453049E-04
6.086742E+03	8.431170E-03	2.463767E-04
6.096688E+03	8.469611E-03	2.480250E-04
6.106633E+03	8.522778E-03	2.501180E-04
6.116579E+03	8.586087E-03	2.525237E-04
6.126525E+03	8.654672E-03	2.551012E-04
6.136470E+03	8.723679E-03	2.577085E-04
6.146416E+03	8.788668E-03	2.602146E-04
6.156362E+03	8.845085E-03	2.624839E-04
6.166307E+03	8.889189E-03	2.644040E-04
6.176253E+03	8.917602E-03	2.658719E-04
6.186199E+03	8.927773E-03	2.668085E-04
6.196144E+03	8.918381E-03	2.671707E-04
6.206090E+03	8.889300E-03	2.669506E-04
6.216036E+03	8.841796E-03	2.661823E-04
6.225981E+03	8.778741E-03	2.649484E-04
6.235927E+03	8.704373E-03	2.633738E-04
6.245873E+03	8.623626E-03	2.616054E-04
6.255818E+03	8.542073E-03	2.598114E-04
6.265764E+03	8.465324E-03	2.581624E-04
6.275710E+03	8.398794E-03	2.568252E-04
6.285655E+03	8.347428E-03	2.559532E-04
6.295601E+03	8.315269E-03	2.556734E-04
6.305546E+03	8.305702E-03	2.560946E-04
6.315492E+03	8.320950E-03	2.572904E-04
6.325438E+03	8.362790E-03	2.593219E-04
6.335383E+03	8.432073E-03	2.622220E-04
6.345329E+03	8.529285E-03	2.660128E-04
6.355275E+03	8.654357E-03	2.706993E-04
6.365220E+03	8.807255E-03	2.762874E-04
6.375166E+03	8.987917E-03	2.827827E-04
6.385112E+03	9.196560E-03	2.901992E-04
6.395057E+03	9.434042E-03	2.985714E-04
6.405003E+03	9.701719E-03	3.079502E-04
6.414949E+03	1.000094E-02	3.183864E-04
6.424894E+03	1.033085E-02	3.298614E-04
6.434840E+03	1.068546E-02	3.421915E-04
6.444786E+03	1.105163E-02	3.549609E-04
6.454731E+03	1.141133E-02	3.675914E-04
6.464677E+03	1.174440E-02	3.794292E-04
6.474623E+03	1.202986E-02	3.897864E-04
6.484568E+03	1.224830E-02	3.980180E-04
6.494514E+03	1.238318E-02	4.035644E-04
6.504460E+03	1.242234E-02	4.060044E-04
6.514405E+03	1.235819E-02	4.050616E-04
6.524351E+03	1.218943E-02	4.006634E-04
6.534297E+03	1.191977E-02	3.929023E-04
6.544242E+03	1.155824E-02	3.820492E-04
6.554188E+03	1.111771E-02	3.685045E-04
6.564134E+03	1.061409E-02	3.527759E-04
6.574079E+03	1.006469E-02	3.354233E-04
6.584025E+03	9.486958E-03	3.170182E-04
6.593971E+03	8.897686E-03	2.981162E-04
6.603916E+03	8.311649E-03	2.792118E-04
6.613862E+03	7.741489E-03	2.607324E-04
6.623808E+03	7.197238E-03	2.430223E-04
6.633753E+03	6.686114E-03	2.263335E-04
6.643699E+03	6.213264E-03	2.108504E-04
6.653644E+03	5.781517E-03	1.966801E-04
6.663590E+03	5.392059E-03	1.838744E-04
6.673536E+03	5.044763E-03	1.724404E-04
6.683481E+03	4.738436E-03	1.623485E-04
6.693427E+03	4.471152E-03	1.535432E-04
6.703373E+03	4.240709E-03	1.459589E-04
6.713318E+03	4.044516E-03	1.395154E-04
6.723264E+03	3.879929E-03	1.341296E-04
6.733210E+03	3.744451E-03	1.297229E-04
6.743155E+03	3.635615E-03	1.262165E-04
6.753101E+03	3.551107E-03	1.235359E-04
6.763047E+03	3.488908E-03	1.216162E-04
6.772992E+03	3.447117E-03	1.203960E-04
6.782938E+03	3.424101E-03	1.198224E-04
6.792884E+03	3.418329E-03	1.198455E-04
6.802829E+03	3.428378E-03	1.204188E-04
6.812775E+03	3.452896E-03	1.214975E-04
6.822721E+03	3.490563E-03	1.230379E-04
6.832666E+03	3.540105E-03	1.249970E-04
6.842612E+03	3.600094E-03	1.273264E-04
6.852558E+03	3.669233E-03	1.299816E-04
6.862503E+03	3.746089E-03	1.329130E-04
6.872449E+03	3.829097E-03	1.360660E-04
6.882395E+03	3.916845E-03	1.393909E-04
6.892340E+03	4.007839E-03	1.428347E-04
6.902286E+03	4.100639E-03	1.463463E-04
6.912232E+03	4.193873E-03	1.498765E-04
6.922177E+03	4.286392E-03	1.533837E-04
6.932123E+03	4.377409E-03	1.568394E-04
6.942069E+03	4.466250E-03	1.602187E-04
6.952014E+03	4.552736E-03	1.635146E-04
6.961960E+03	4.636950E-03	1.667294E-04
6.971906E+03	4.719225E-03	1.698745E-04
6.981851E+03	4.800303E-03	1.729762E-04
6.991797E+03	4.880937E-03	1.760611E-04
7.001742E+03	4.961959E-03	1.791590E-04
7.011688E+03	5.044412E-03	1.823074E-04
7.021634E+03	5.129123E-03	1.855361E-04
7.031579E+03	5.216857E-03	1.888727E-04
7.041525E+03	5.308253E-03	1.923406E-04
7.051471E+03	5.403792E-03	1.959571E-04
7.061416E+03	5.503772E-03	1.997332E-04
7.071362E+03	5.608377E-03	2.036759E-04
7.081308E+03	5.717448E-03	2.077793E-04
7.091253E+03	5.830681E-03	2.120326E-04
7.101199E+03	5.947632E-03	2.164197E-04
7.111145E+03	6.067523E-03	2.209123E-04
7.121090E+03	6.189548E-03	2.254811E-04
7.131036E+03	6.312595E-03	2.300854E-04
7.140982E+03	6.435585E-03	2.346859E-04
7.150927E+03	6.557194E-03	2.392341E-04
7.160873E+03	6.676202E-03	2.436855E-04
7.170819E+03	6.791292E-03	2.479916E-04
7.180764E+03	6.901161E-03	2.521047E-04
7.190710E+03	7.004569E-03	2.559794E-04
7.200656E+03	7.100389E-03	2.595743E-04
7.210601E+03	7.187681E-03	2.628548E-04
7.220547E+03	7.265713E-03	2.657941E-04
7.230493E+03	7.334057E-03	2.683764E-04
7.240438E+03	7.392681E-03	2.706005E-04
7.250384E+03	7.441577E-03	2.724661E-04
7.260330E+03	7.481385E-03	2.739968E-04
7.270275E+03	7.512783E-03	2.752175E-04
7.280221E+03	7.536519E-03	2.761559E-04
7.290167E+03	7.553555E-03	2.768474E-04
7.300112E+03	7.564895E-03	2.773293E-04
7.310058E+03	7.571607E-03	2.776410E-04
7.320004E+03	7.574411E-03	2.778093E-04
7.329949E+03	7.573925E-03	2.778573E-04
7.339895E+03	7.570529E-03	2.777995E-04
7.349840E+03	7.564519E-03	2.776472E-04
7.359786E+03	7.555687E-03	2.773934E-04
7.369732E+03	7.543982E-03	2.770365E-04
7.379677E+03	7.529153E-03	2.765680E-04
7.389623E+03	7.510909E-03	2.759776E-04
7.399569E+03	7.488895E-03	2.752528E-04
7.409514E+03	7.462977E-03	2.743891E-04
7.419460E+03	7.433449E-03	2.733978E-04
7.429406E+03	7.400302E-03	2.722790E-04
7.439351E+03	7.364377E-03	2.710641E-04
7.449297E+03	7.326232E-03	2.697741E-04
7.459243E+03	7.286802E-03	2.684439E-04
7.469188E+03	7.247221E-03	2.671157E-04
7.479134E+03	7.208500E-03	2.658275E-04
7.489080E+03	7.171813E-03	2.646230E-04
7.499025E+03	7.138064E-03	2.635365E-04
7.508971E+03	7.108122E-03	2.626005E-04
7.518917E+03	7.082706E-03	2.618428E-04
7.528862E+03	7.062419E-03	2.612864E-04
7.538808E+03	7.047742E-03	2.609502E-04
7.548754E+03	7.039029E-03	2.608485E-04
7.558699E+03	7.036509E-03	2.609910E-04
7.568645E+03	7.040145E-03	2.613776E-04
7.578591E+03	7.049882E-03	2.620079E-04
7.588536E+03	7.065222E-03	2.628647E-04
7.598482E+03	7.085416E-03	2.639218E-04
7.608428E+03	7.109471E-03	2.651435E-04
7.618373E+03	7.135851E-03	2.664742E-04
7.628319E+03	7.162756E-03	2.678477E-04
7.638265E+03	7.188258E-03	2.691930E-04
7.648210E+03	7.210011E-03	2.704229E-04
7.658156E+03	7.226113E-03	2.714662E-04
7.668101E+03	7.234379E-03	2.722407E-04
7.678047E+03	7.233237E-03	2.726863E-04
7.687993E+03	7.221120E-03	2.727429E-04
7.697938E+03	7.196924E-03	2.723668E-04
7.707884E+03	7.159967E-03	2.715301E-04
7.717830E+03	7.110024E-03	2.702214E-04
