#wls	flux	fluxerr
1.591305E+03	6.733415E-04	6.398472E-05
1.631088E+03	6.615142E-04	6.252137E-05
1.670870E+03	6.484261E-04	6.094461E-05
1.710653E+03	6.344089E-04	5.928773E-05
1.750436E+03	6.192126E-04	5.752935E-05
1.790218E+03	6.027612E-04	5.566482E-05
1.830001E+03	5.845194E-04	5.364756E-05
1.869784E+03	5.641335E-04	5.144892E-05
1.909566E+03	5.410941E-04	4.902709E-05
1.949349E+03	5.155047E-04	4.639686E-05
1.989131E+03	4.878697E-04	4.360877E-05
2.028914E+03	4.600117E-04	4.082933E-05
2.068697E+03	4.351746E-04	3.834574E-05
2.108479E+03	4.175173E-04	3.651682E-05
2.148262E+03	4.101253E-04	3.559689E-05
2.188045E+03	4.138269E-04	3.563698E-05
2.227827E+03	4.270705E-04	3.648173E-05
2.267610E+03	4.466307E-04	3.783750E-05
2.307392E+03	4.696221E-04	3.944774E-05
2.347175E+03	4.938594E-04	4.112210E-05
2.386958E+03	5.181264E-04	4.275648E-05
2.426740E+03	5.420402E-04	4.431847E-05
2.466523E+03	5.655914E-04	4.580709E-05
2.506306E+03	5.891012E-04	4.724794E-05
2.546088E+03	6.129980E-04	4.867414E-05
2.585871E+03	6.376406E-04	5.011192E-05
2.625653E+03	6.634723E-04	5.159290E-05
2.665436E+03	6.909157E-04	5.314553E-05
2.705219E+03	7.203713E-04	5.479505E-05
2.745001E+03	7.522195E-04	5.656368E-05
2.784784E+03	7.869478E-04	5.848009E-05
2.824567E+03	8.248351E-04	6.055572E-05
2.864349E+03	8.665197E-04	6.282681E-05
2.904132E+03	9.124609E-04	6.531423E-05
2.943914E+03	9.632898E-04	6.804893E-05
2.983697E+03	1.019716E-03	7.106467E-05
2.993643E+03	1.034841E-03	7.187044E-05
3.003588E+03	1.050307E-03	7.269158E-05
3.013534E+03	1.066246E-03	7.353712E-05
3.023480E+03	1.082687E-03	7.440851E-05
3.033425E+03	1.099571E-03	7.530132E-05
3.043371E+03	1.117223E-03	7.623748E-05
3.053317E+03	1.135388E-03	7.719893E-05
3.063262E+03	1.154193E-03	7.819390E-05
3.073208E+03	1.173771E-03	7.923086E-05
3.083154E+03	1.193865E-03	8.029189E-05
3.093099E+03	1.214610E-03	8.138560E-05
3.103045E+03	1.236145E-03	8.252083E-05
3.112991E+03	1.258214E-03	8.367978E-05
3.122936E+03	1.281093E-03	8.488039E-05
3.132882E+03	1.304660E-03	8.611393E-05
3.142828E+03	1.329066E-03	8.738972E-05
3.152773E+03	1.354188E-03	8.869909E-05
3.162719E+03	1.380043E-03	9.004248E-05
3.172665E+03	1.406789E-03	9.142957E-05
3.182610E+03	1.434448E-03	9.286107E-05
3.192556E+03	1.462902E-03	9.432854E-05
3.202502E+03	1.492461E-03	9.585132E-05
3.212447E+03	1.522718E-03	9.740249E-05
3.222393E+03	1.554140E-03	9.901105E-05
3.232339E+03	1.586612E-03	1.006689E-04
3.242284E+03	1.620168E-03	1.023772E-04
3.252230E+03	1.654846E-03	1.041374E-04
3.262175E+03	1.690683E-03	1.059510E-04
3.272121E+03	1.727875E-03	1.078293E-04
3.282067E+03	1.766157E-03	1.097545E-04
3.292012E+03	1.806045E-03	1.117578E-04
3.301958E+03	1.847278E-03	1.138216E-04
3.311904E+03	1.889907E-03	1.159480E-04
3.321849E+03	1.934311E-03	1.181590E-04
3.331795E+03	1.980229E-03	1.204371E-04
3.341741E+03	2.027884E-03	1.227946E-04
3.351686E+03	2.077343E-03	1.252342E-04
3.361632E+03	2.128673E-03	1.277581E-04
3.371578E+03	2.181942E-03	1.303691E-04
3.381523E+03	2.237391E-03	1.330797E-04
3.391469E+03	2.294919E-03	1.358821E-04
3.401415E+03	2.354770E-03	1.387889E-04
3.411360E+03	2.417013E-03	1.418022E-04
3.421306E+03	2.481535E-03	1.449134E-04
3.431252E+03	2.548574E-03	1.481343E-04
3.441197E+03	2.618186E-03	1.514661E-04
3.451143E+03	2.690421E-03	1.549094E-04
3.461089E+03	2.765508E-03	1.584752E-04
3.471034E+03	2.843296E-03	1.621523E-04
3.480980E+03	2.923806E-03	1.659397E-04
3.490926E+03	3.007238E-03	1.698463E-04
3.500871E+03	3.093583E-03	1.738690E-04
3.510817E+03	3.182597E-03	1.779918E-04
3.520763E+03	3.274605E-03	1.822304E-04
3.530708E+03	3.369286E-03	1.865646E-04
3.540654E+03	3.466473E-03	1.909826E-04
3.550600E+03	3.566151E-03	1.954816E-04
3.560545E+03	3.667839E-03	2.000333E-04
3.570491E+03	3.771414E-03	2.046290E-04
3.580436E+03	3.876270E-03	2.092346E-04
3.590382E+03	3.982390E-03	2.138479E-04
3.600328E+03	4.089036E-03	2.184283E-04
3.610273E+03	4.195620E-03	2.229443E-04
3.620219E+03	4.301498E-03	2.273617E-04
3.630165E+03	4.406188E-03	2.316557E-04
3.640110E+03	4.508927E-03	2.357875E-04
3.650056E+03	4.608926E-03	2.397176E-04
3.660002E+03	4.705162E-03	2.433954E-04
3.669947E+03	4.797357E-03	2.468098E-04
3.679893E+03	4.884661E-03	2.499208E-04
3.689839E+03	4.966907E-03	2.527241E-04
3.699784E+03	5.043773E-03	2.552076E-04
3.709730E+03	5.115587E-03	2.573927E-04
3.719676E+03	5.183639E-03	2.593480E-04
3.729621E+03	5.249006E-03	2.611306E-04
3.739567E+03	5.313204E-03	2.628177E-04
3.749513E+03	5.378801E-03	2.645367E-04
3.759458E+03	5.447924E-03	2.663907E-04
3.769404E+03	5.523293E-03	2.685088E-04
3.779350E+03	5.607187E-03	2.709961E-04
3.789295E+03	5.702240E-03	2.739720E-04
3.799241E+03	5.810655E-03	2.775323E-04
3.809187E+03	5.934096E-03	2.817449E-04
3.819132E+03	6.074491E-03	2.866881E-04
3.829078E+03	6.232380E-03	2.923731E-04
3.839024E+03	6.408597E-03	2.988240E-04
3.848969E+03	6.602336E-03	3.059882E-04
3.858915E+03	6.812859E-03	3.138171E-04
3.868861E+03	7.037981E-03	3.221968E-04
3.878806E+03	7.273974E-03	3.309456E-04
3.888752E+03	7.516950E-03	3.398789E-04
3.898698E+03	7.761227E-03	3.487360E-04
3.908643E+03	8.000430E-03	3.572315E-04
3.918589E+03	8.227778E-03	3.650693E-04
3.928534E+03	8.435695E-03	3.719261E-04
3.938480E+03	8.617005E-03	3.775042E-04
3.948426E+03	8.765207E-03	3.815437E-04
3.958371E+03	8.874994E-03	3.838434E-04
3.968317E+03	8.942681E-03	3.842774E-04
3.978263E+03	8.966295E-03	3.827974E-04
3.988208E+03	8.946499E-03	3.794685E-04
3.998154E+03	8.885783E-03	3.744321E-04
4.008100E+03	8.788015E-03	3.678844E-04
4.018045E+03	8.659474E-03	3.601174E-04
4.027991E+03	8.506506E-03	3.514186E-04
4.037937E+03	8.336549E-03	3.421135E-04
4.047882E+03	8.156596E-03	3.325009E-04
4.057828E+03	7.973419E-03	3.228633E-04
4.067774E+03	7.792897E-03	3.134394E-04
4.077719E+03	7.620220E-03	3.044344E-04
4.087665E+03	7.459617E-03	2.960094E-04
4.097611E+03	7.314211E-03	2.882777E-04
4.107556E+03	7.186410E-03	2.813212E-04
4.117502E+03	7.077796E-03	2.751871E-04
4.127448E+03	6.988954E-03	2.698828E-04
4.137393E+03	6.920138E-03	2.654021E-04
4.147339E+03	6.871181E-03	2.617231E-04
4.157285E+03	6.840849E-03	2.587835E-04
4.167230E+03	6.828013E-03	2.565267E-04
4.177176E+03	6.830841E-03	2.548709E-04
4.187122E+03	6.847282E-03	2.537282E-04
4.197067E+03	6.874684E-03	2.529913E-04
4.207013E+03	6.910502E-03	2.525590E-04
4.216959E+03	6.951580E-03	2.523111E-04
4.226904E+03	6.994849E-03	2.521334E-04
4.236850E+03	7.037029E-03	2.519076E-04
4.246796E+03	7.075096E-03	2.515275E-04
4.256741E+03	7.105638E-03	2.508763E-04
4.266687E+03	7.126123E-03	2.498714E-04
4.276632E+03	7.133898E-03	2.484281E-04
4.286578E+03	7.127102E-03	2.464918E-04
4.296524E+03	7.104439E-03	2.440286E-04
4.306469E+03	7.065819E-03	2.410471E-04
4.316415E+03	7.011517E-03	2.375679E-04
4.326361E+03	6.943362E-03	2.336635E-04
4.336306E+03	6.863846E-03	2.294266E-04
4.346252E+03	6.776581E-03	2.249848E-04
4.356198E+03	6.685834E-03	2.204838E-04
4.366143E+03	6.596399E-03	2.160827E-04
4.376089E+03	6.513451E-03	2.119485E-04
4.386035E+03	6.442055E-03	2.082406E-04
4.395980E+03	6.387670E-03	2.051266E-04
4.405926E+03	6.355915E-03	2.027749E-04
4.415872E+03	6.352667E-03	2.013574E-04
4.425817E+03	6.382908E-03	2.010137E-04
4.435763E+03	6.451417E-03	2.018724E-04
4.445709E+03	6.562239E-03	2.040365E-04
4.455654E+03	6.718729E-03	2.075847E-04
4.465600E+03	6.923836E-03	2.125813E-04
4.475546E+03	7.179937E-03	2.190715E-04
4.485491E+03	7.488111E-03	2.270603E-04
4.495437E+03	7.848484E-03	2.365233E-04
4.505383E+03	8.259416E-03	2.473840E-04
4.515328E+03	8.717101E-03	2.595032E-04
4.525274E+03	9.215042E-03	2.726652E-04
4.535220E+03	9.743891E-03	2.865755E-04
4.545165E+03	1.029044E-02	3.008339E-04
4.555111E+03	1.083866E-02	3.149673E-04
4.565057E+03	1.136951E-02	3.284266E-04
4.575002E+03	1.186167E-02	3.406109E-04
4.584948E+03	1.229363E-02	3.509273E-04
4.594894E+03	1.264468E-02	3.588198E-04
4.604839E+03	1.289722E-02	3.638334E-04
4.614785E+03	1.303862E-02	3.656634E-04
4.624730E+03	1.306198E-02	3.641721E-04
4.634676E+03	1.296793E-02	3.594344E-04
4.644622E+03	1.276386E-02	3.517102E-04
4.654567E+03	1.246364E-02	3.414314E-04
4.664513E+03	1.208548E-02	3.291384E-04
4.674459E+03	1.165051E-02	3.154390E-04
4.684404E+03	1.118050E-02	3.009443E-04
4.694350E+03	1.069627E-02	2.862260E-04
4.704296E+03	1.021661E-02	2.717893E-04
4.714241E+03	9.756984E-03	2.580392E-04
4.724187E+03	9.329318E-03	2.452784E-04
4.734133E+03	8.942496E-03	2.337230E-04
4.744078E+03	8.602039E-03	2.234962E-04
4.754024E+03	8.311214E-03	2.146601E-04
4.763970E+03	8.071105E-03	2.072187E-04
4.773915E+03	7.881256E-03	2.011365E-04
4.783861E+03	7.740096E-03	1.963498E-04
4.793807E+03	7.645432E-03	1.927806E-04
4.803752E+03	7.594341E-03	1.903339E-04
4.813698E+03	7.583683E-03	1.889113E-04
4.823644E+03	7.609880E-03	1.884053E-04
4.833589E+03	7.669007E-03	1.887024E-04
4.843535E+03	7.756723E-03	1.896811E-04
4.853481E+03	7.868096E-03	1.912083E-04
4.863426E+03	7.997813E-03	1.931448E-04
4.873372E+03	8.139495E-03	1.953288E-04
4.883318E+03	8.286154E-03	1.975882E-04
4.893263E+03	8.430054E-03	1.997371E-04
4.903209E+03	8.563176E-03	2.015881E-04
4.913155E+03	8.677175E-03	2.029506E-04
4.923100E+03	8.764392E-03	2.036554E-04
4.933046E+03	8.818291E-03	2.035637E-04
4.942991E+03	8.834282E-03	2.025855E-04
4.952937E+03	8.809942E-03	2.006830E-04
4.962883E+03	8.745657E-03	1.978834E-04
4.972828E+03	8.644430E-03	1.942726E-04
4.982774E+03	8.511255E-03	1.899792E-04
4.992720E+03	8.353142E-03	1.851733E-04
5.002665E+03	8.177843E-03	1.800373E-04
5.012611E+03	7.993635E-03	1.747601E-04
5.022557E+03	7.808438E-03	1.695180E-04
5.032502E+03	7.629424E-03	1.644663E-04
5.042448E+03	7.463060E-03	1.597408E-04
5.052394E+03	7.314403E-03	1.554434E-04
5.062339E+03	7.187674E-03	1.516554E-04
5.072285E+03	7.086123E-03	1.484350E-04
5.082231E+03	7.011980E-03	1.458175E-04
5.092176E+03	6.967146E-03	1.438300E-04
5.102122E+03	6.952833E-03	1.424842E-04
5.112068E+03	6.969985E-03	1.417861E-04
5.122013E+03	7.019371E-03	1.417376E-04
5.131959E+03	7.101384E-03	1.423324E-04
5.141905E+03	7.216323E-03	1.435628E-04
5.151850E+03	7.364109E-03	1.454133E-04
5.161796E+03	7.544202E-03	1.478597E-04
5.171742E+03	7.755720E-03	1.508718E-04
5.181687E+03	7.997076E-03	1.544066E-04
5.191633E+03	8.265873E-03	1.584067E-04
5.201579E+03	8.559144E-03	1.628058E-04
5.211524E+03	8.872791E-03	1.675179E-04
5.221470E+03	9.201910E-03	1.724451E-04
5.231416E+03	9.540786E-03	1.774770E-04
5.241361E+03	9.883148E-03	1.824966E-04
5.251307E+03	1.022211E-02	1.873796E-04
5.261253E+03	1.055082E-02	1.920055E-04
5.271198E+03	1.086300E-02	1.962685E-04
5.281144E+03	1.115271E-02	2.000723E-04
5.291089E+03	1.141551E-02	2.033500E-04
5.301035E+03	1.164889E-02	2.060707E-04
5.310981E+03	1.185194E-02	2.082329E-04
5.320926E+03	1.202595E-02	2.098737E-04
5.330872E+03	1.217437E-02	2.110661E-04
5.340818E+03	1.230261E-02	2.119159E-04
5.350763E+03	1.241749E-02	2.125491E-04
5.360709E+03	1.252707E-02	2.131106E-04
5.370655E+03	1.264023E-02	2.137553E-04
5.380600E+03	1.276590E-02	2.146353E-04
5.390546E+03	1.291246E-02	2.158906E-04
5.400492E+03	1.308767E-02	2.176479E-04
5.410437E+03	1.329759E-02	2.200041E-04
5.420383E+03	1.354555E-02	2.230096E-04
5.430329E+03	1.382808E-02	2.266034E-04
5.440274E+03	1.413586E-02	2.306313E-04
5.450220E+03	1.445626E-02	2.348877E-04
5.460166E+03	1.477395E-02	2.391242E-04
5.470111E+03	1.507140E-02	2.430604E-04
5.480057E+03	1.532971E-02	2.463970E-04
5.490003E+03	1.552968E-02	2.488328E-04
5.499948E+03	1.565317E-02	2.500864E-04
5.509894E+03	1.568464E-02	2.499190E-04
5.519840E+03	1.561244E-02	2.481545E-04
5.529785E+03	1.543062E-02	2.447070E-04
5.539731E+03	1.513913E-02	2.395829E-04
5.549677E+03	1.474451E-02	2.328909E-04
5.559622E+03	1.425961E-02	2.248367E-04
5.569568E+03	1.370153E-02	2.156907E-04
5.579514E+03	1.309142E-02	2.057842E-04
5.589459E+03	1.245210E-02	1.954727E-04
5.599405E+03	1.180615E-02	1.851060E-04
5.609351E+03	1.117466E-02	1.750091E-04
5.619296E+03	1.057630E-02	1.654684E-04
5.629242E+03	1.002640E-02	1.567175E-04
5.639187E+03	9.536818E-03	1.489356E-04
5.649133E+03	9.116322E-03	1.422540E-04
5.659079E+03	8.771056E-03	1.367632E-04
5.669024E+03	8.504824E-03	1.325178E-04
5.678970E+03	8.320203E-03	1.295535E-04
5.688916E+03	8.218699E-03	1.278897E-04
5.698861E+03	8.201144E-03	1.275358E-04
5.708807E+03	8.268072E-03	1.284963E-04
5.718753E+03	8.419292E-03	1.307651E-04
5.728698E+03	8.654262E-03	1.343303E-04
5.738644E+03	8.971040E-03	1.391585E-04
5.748590E+03	9.366239E-03	1.451937E-04
5.758535E+03	9.833934E-03	1.523405E-04
5.768481E+03	1.036526E-02	1.604583E-04
5.778427E+03	1.094729E-02	1.693434E-04
5.788372E+03	1.156334E-02	1.787348E-04
5.798318E+03	1.219229E-02	1.883035E-04
5.808264E+03	1.280997E-02	1.976741E-04
5.818209E+03	1.338980E-02	2.064359E-04
5.828155E+03	1.390512E-02	2.141783E-04
5.838101E+03	1.433085E-02	2.205165E-04
5.848046E+03	1.464587E-02	2.251292E-04
5.857992E+03	1.483540E-02	2.277939E-04
5.867938E+03	1.489136E-02	2.283928E-04
5.877883E+03	1.481392E-02	2.269357E-04
5.887829E+03	1.461058E-02	2.235448E-04
5.897775E+03	1.429499E-02	2.184371E-04
5.907720E+03	1.388623E-02	2.119112E-04
5.917666E+03	1.340586E-02	2.043028E-04
5.927612E+03	1.287665E-02	1.959648E-04
5.937557E+03	1.232091E-02	1.872405E-04
5.947503E+03	1.175863E-02	1.784367E-04
5.957449E+03	1.120741E-02	1.698221E-04
5.967394E+03	1.068159E-02	1.616144E-04
5.977340E+03	1.019187E-02	1.539749E-04
5.987285E+03	9.746108E-03	1.470209E-04
5.997231E+03	9.349361E-03	1.408266E-04
6.007177E+03	9.004104E-03	1.354269E-04
6.017122E+03	8.711059E-03	1.308300E-04
6.027068E+03	8.469353E-03	1.270205E-04
6.037014E+03	8.276896E-03	1.239645E-04
6.046959E+03	8.131056E-03	1.216205E-04
6.056905E+03	8.028150E-03	1.199317E-04
6.066851E+03	7.964351E-03	1.188398E-04
6.076796E+03	7.935298E-03	1.182787E-04
6.086742E+03	7.936410E-03	1.181799E-04
6.096688E+03	7.962798E-03	1.184711E-04
6.106633E+03	8.009565E-03	1.190800E-04
6.116579E+03	8.071514E-03	1.199307E-04
6.126525E+03	8.143490E-03	1.209483E-04
6.136470E+03	8.220353E-03	1.220585E-04
6.146416E+03	8.296831E-03	1.231854E-04
6.156362E+03	8.368293E-03	1.242627E-04
6.166307E+03	8.429898E-03	1.252209E-04
6.176253E+03	8.477836E-03	1.260056E-04
6.186199E+03	8.508586E-03	1.265666E-04
6.196144E+03	8.519813E-03	1.268705E-04
6.206090E+03	8.510270E-03	1.269000E-04
6.216036E+03	8.479807E-03	1.266531E-04
6.225981E+03	8.429775E-03	1.261500E-04
6.235927E+03	8.362767E-03	1.254288E-04
6.245873E+03	8.282649E-03	1.245469E-04
6.255818E+03	8.194276E-03	1.235762E-04
6.265764E+03	8.103102E-03	1.225984E-04
6.275710E+03	8.015024E-03	1.217027E-04
6.285655E+03	7.935971E-03	1.209787E-04
6.295601E+03	7.871645E-03	1.205129E-04
6.305546E+03	7.827285E-03	1.203860E-04
6.315492E+03	7.807451E-03	1.206705E-04
6.325438E+03	7.816279E-03	1.214342E-04
6.335383E+03	7.857053E-03	1.227337E-04
6.345329E+03	7.932201E-03	1.246141E-04
6.355275E+03	8.043923E-03	1.271186E-04
6.365220E+03	8.193496E-03	1.302770E-04
6.375166E+03	8.381759E-03	1.341137E-04
6.385112E+03	8.608854E-03	1.386428E-04
6.395057E+03	8.874429E-03	1.438708E-04
6.405003E+03	9.177040E-03	1.497872E-04
6.414949E+03	9.514391E-03	1.563668E-04
6.424894E+03	9.882859E-03	1.635621E-04
6.434840E+03	1.027487E-02	1.712580E-04
6.444786E+03	1.067753E-02	1.792469E-04
6.454731E+03	1.107537E-02	1.872710E-04
6.464677E+03	1.145067E-02	1.950268E-04
6.474623E+03	1.178490E-02	2.021874E-04
6.484568E+03	1.205953E-02	2.084161E-04
6.494514E+03	1.225720E-02	2.133868E-04
6.504460E+03	1.236384E-02	2.168220E-04
6.514405E+03	1.236879E-02	2.184965E-04
6.524351E+03	1.226702E-02	2.182793E-04
6.534297E+03	1.205838E-02	2.161241E-04
6.544242E+03	1.174826E-02	2.120850E-04
6.554188E+03	1.134727E-02	2.063134E-04
6.564134E+03	1.086937E-02	1.990277E-04
6.574079E+03	1.033142E-02	1.905080E-04
6.584025E+03	9.751210E-03	1.810603E-04
6.593971E+03	9.146905E-03	1.710077E-04
6.603916E+03	8.535269E-03	1.606562E-04
6.613862E+03	7.931253E-03	1.502868E-04
6.623808E+03	7.347440E-03	1.401430E-04
6.633753E+03	6.793448E-03	1.304179E-04
6.643699E+03	6.276522E-03	1.212639E-04
6.653644E+03	5.801221E-03	1.127844E-04
6.663590E+03	5.369892E-03	1.050419E-04
6.673536E+03	4.983239E-03	9.806735E-05
6.683481E+03	4.640546E-03	9.186391E-05
6.693427E+03	4.340144E-03	8.641495E-05
6.703373E+03	4.079785E-03	8.169128E-05
6.713318E+03	3.856745E-03	7.765271E-05
6.723264E+03	3.668407E-03	7.425968E-05
6.733210E+03	3.511950E-03	7.146700E-05
6.743155E+03	3.384815E-03	6.923324E-05
6.753101E+03	3.284544E-03	6.751768E-05
6.763047E+03	3.209033E-03	6.628554E-05
6.772992E+03	3.156160E-03	6.550050E-05
6.782938E+03	3.124176E-03	6.513292E-05
6.792884E+03	3.111385E-03	6.515325E-05
6.802829E+03	3.116323E-03	6.553594E-05
6.812775E+03	3.137475E-03	6.625352E-05
6.822721E+03	3.173483E-03	6.728114E-05
6.832666E+03	3.222974E-03	6.859283E-05
6.842612E+03	3.284561E-03	7.016174E-05
6.852558E+03	3.356825E-03	7.195960E-05
6.862503E+03	3.438336E-03	7.395730E-05
6.872449E+03	3.527524E-03	7.612217E-05
6.882395E+03	3.622848E-03	7.842153E-05
6.892340E+03	3.722652E-03	8.081966E-05
6.902286E+03	3.825364E-03	8.328221E-05
6.912232E+03	3.929420E-03	8.577452E-05
6.922177E+03	4.033314E-03	8.826277E-05
6.932123E+03	4.135804E-03	9.071866E-05
6.942069E+03	4.235834E-03	9.311770E-05
6.952014E+03	4.332650E-03	9.544192E-05
6.961960E+03	4.425829E-03	9.768058E-05
6.971906E+03	4.515319E-03	9.983110E-05
6.981851E+03	4.601428E-03	1.018990E-04
6.991797E+03	4.684784E-03	1.038969E-04
7.001742E+03	4.766298E-03	1.058440E-04
7.011688E+03	4.847056E-03	1.077636E-04
7.021634E+03	4.928330E-03	1.096830E-04
7.031579E+03	5.011206E-03	1.116258E-04
7.041525E+03	5.096954E-03	1.136195E-04
7.051471E+03	5.186527E-03	1.156848E-04
7.061416E+03	5.280731E-03	1.178390E-04
7.071362E+03	5.380218E-03	1.200961E-04
7.081308E+03	5.485248E-03	1.224610E-04
7.091253E+03	5.595878E-03	1.249342E-04
7.101199E+03	5.711965E-03	1.275116E-04
7.111145E+03	5.832971E-03	1.301803E-04
7.121090E+03	5.958241E-03	1.329246E-04
7.131036E+03	6.086732E-03	1.357201E-04
7.140982E+03	6.217336E-03	1.385412E-04
7.150927E+03	6.348698E-03	1.413565E-04
7.160873E+03	6.479214E-03	1.441296E-04
7.170819E+03	6.607456E-03	1.468279E-04
7.180764E+03	6.731618E-03	1.494106E-04
7.190710E+03	6.850181E-03	1.518438E-04
7.200656E+03	6.961622E-03	1.540935E-04
7.210601E+03	7.064667E-03	1.561319E-04
7.220547E+03	7.158053E-03	1.579315E-04
7.230493E+03	7.240847E-03	1.594726E-04
7.240438E+03	7.312375E-03	1.607416E-04
7.250384E+03	7.372425E-03	1.617352E-04
7.260330E+03	7.420682E-03	1.624482E-04
7.270275E+03	7.457380E-03	1.628877E-04
7.280221E+03	7.482809E-03	1.630620E-04
7.290167E+03	7.497754E-03	1.629906E-04
7.300112E+03	7.502793E-03	1.626881E-04
7.310058E+03	7.498929E-03	1.621788E-04
7.320004E+03	7.487149E-03	1.614861E-04
7.329949E+03	7.468372E-03	1.606322E-04
7.339895E+03	7.443684E-03	1.596426E-04
7.349840E+03	7.413822E-03	1.585352E-04
7.359786E+03	7.379624E-03	1.573298E-04
7.369732E+03	7.341906E-03	1.560458E-04
7.379677E+03	7.301007E-03	1.546921E-04
7.389623E+03	7.257540E-03	1.532837E-04
7.399569E+03	7.211982E-03	1.518321E-04
7.409514E+03	7.164843E-03	1.503498E-04
7.419460E+03	7.116455E-03	1.488454E-04
7.429406E+03	7.067354E-03	1.473314E-04
7.439351E+03	7.017994E-03	1.458188E-04
7.449297E+03	6.968971E-03	1.443213E-04
7.459243E+03	6.920701E-03	1.428486E-04
7.469188E+03	6.873806E-03	1.414148E-04
7.479134E+03	6.828729E-03	1.400299E-04
7.489080E+03	6.786066E-03	1.387072E-04
7.499025E+03	6.746292E-03	1.374572E-04
7.508971E+03	6.709640E-03	1.362855E-04
7.518917E+03	6.676639E-03	1.352035E-04
7.528862E+03	6.647454E-03	1.342154E-04
7.538808E+03	6.622250E-03	1.333253E-04
7.548754E+03	6.601074E-03	1.325349E-04
7.558699E+03	6.583767E-03	1.318420E-04
7.568645E+03	6.570122E-03	1.312434E-04
7.578591E+03	6.559890E-03	1.307353E-04
7.588536E+03	6.552577E-03	1.303091E-04
7.598482E+03	6.547377E-03	1.299501E-04
7.608428E+03	6.543618E-03	1.296468E-04
7.618373E+03	6.540412E-03	1.293831E-04
7.628319E+03	6.536873E-03	1.291433E-04
7.638265E+03	6.531775E-03	1.289052E-04
7.648210E+03	6.524053E-03	1.286498E-04
7.658156E+03	6.512838E-03	1.283618E-04
7.668101E+03	6.496958E-03	1.280199E-04
7.678047E+03	6.475626E-03	1.276105E-04
7.687993E+03	6.448098E-03	1.271201E-04
7.697938E+03	6.413815E-03	1.265391E-04
7.707884E+03	6.372410E-03	1.258610E-04
7.717830E+03	6.323639E-03	1.250813E-04
