#wls	flux	fluxerr
1.591305E+03	3.964077E-04	6.310937E-05
1.631088E+03	3.916552E-04	6.227087E-05
1.670870E+03	3.859049E-04	6.127429E-05
1.710653E+03	3.792591E-04	6.013654E-05
1.750436E+03	3.717696E-04	5.886651E-05
1.790218E+03	3.631749E-04	5.742346E-05
1.830001E+03	3.532906E-04	5.577913E-05
1.869784E+03	3.418410E-04	5.389106E-05
1.909566E+03	3.285374E-04	5.171505E-05
1.949349E+03	3.134562E-04	4.926462E-05
1.989131E+03	2.969368E-04	4.659451E-05
2.028914E+03	2.801691E-04	4.389243E-05
2.068697E+03	2.651531E-04	4.147158E-05
2.108479E+03	2.543963E-04	3.972237E-05
2.148262E+03	2.497638E-04	3.893229E-05
2.188045E+03	2.518944E-04	3.919591E-05
2.227827E+03	2.597063E-04	4.033963E-05
2.267610E+03	2.713622E-04	4.207375E-05
2.307392E+03	2.849635E-04	4.410105E-05
2.347175E+03	2.993114E-04	4.623446E-05
2.386958E+03	3.135781E-04	4.834549E-05
2.426740E+03	3.275766E-04	5.040526E-05
2.466523E+03	3.413081E-04	5.241400E-05
2.506306E+03	3.549181E-04	5.439403E-05
2.546088E+03	3.687754E-04	5.640170E-05
2.585871E+03	3.830060E-04	5.845583E-05
2.625653E+03	3.980045E-04	6.061596E-05
2.665436E+03	4.139536E-04	6.290890E-05
2.705219E+03	4.312619E-04	6.539548E-05
2.745001E+03	4.501747E-04	6.811125E-05
2.784784E+03	4.710031E-04	7.110130E-05
2.824567E+03	4.941369E-04	7.442213E-05
2.864349E+03	5.198750E-04	7.811596E-05
2.904132E+03	5.488005E-04	8.226722E-05
2.943914E+03	5.813002E-04	8.692999E-05
2.983697E+03	6.179427E-04	9.218492E-05
2.993643E+03	6.278017E-04	9.359821E-05
3.003588E+03	6.379974E-04	9.505971E-05
3.013534E+03	6.485396E-04	9.657078E-05
3.023480E+03	6.593778E-04	9.812380E-05
3.033425E+03	6.706253E-04	9.973552E-05
3.043371E+03	6.823291E-04	1.014128E-04
3.053317E+03	6.944917E-04	1.031559E-04
3.063262E+03	7.070450E-04	1.049546E-04
3.073208E+03	7.201358E-04	1.068305E-04
3.083154E+03	7.336256E-04	1.087630E-04
3.093099E+03	7.475922E-04	1.107633E-04
3.103045E+03	7.620418E-04	1.128324E-04
3.112991E+03	7.770570E-04	1.149823E-04
3.122936E+03	7.924975E-04	1.171921E-04
3.132882E+03	8.085223E-04	1.194851E-04
3.142828E+03	8.249898E-04	1.218403E-04
3.152773E+03	8.420633E-04	1.242816E-04
3.162719E+03	8.597568E-04	1.268109E-04
3.172665E+03	8.779248E-04	1.294066E-04
3.182610E+03	8.967382E-04	1.320937E-04
3.192556E+03	9.162121E-04	1.348743E-04
3.202502E+03	9.362809E-04	1.377384E-04
3.212447E+03	9.569586E-04	1.406879E-04
3.222393E+03	9.783430E-04	1.437372E-04
3.232339E+03	1.000452E-03	1.468884E-04
3.242284E+03	1.023219E-03	1.501317E-04
3.252230E+03	1.046832E-03	1.534944E-04
3.262175E+03	1.071138E-03	1.569539E-04
3.272121E+03	1.096242E-03	1.605254E-04
3.282067E+03	1.122165E-03	1.642115E-04
3.292012E+03	1.148927E-03	1.680149E-04
3.301958E+03	1.176547E-03	1.719385E-04
3.311904E+03	1.205048E-03	1.759849E-04
3.321849E+03	1.234543E-03	1.801707E-04
3.331795E+03	1.264867E-03	1.844713E-04
3.341741E+03	1.296230E-03	1.889172E-04
3.351686E+03	1.328658E-03	1.935115E-04
3.361632E+03	1.362074E-03	1.982433E-04
3.371578E+03	1.396601E-03	2.031297E-04
3.381523E+03	1.432161E-03	2.081592E-04
3.391469E+03	1.468877E-03	2.133493E-04
3.401415E+03	1.506772E-03	2.187029E-04
3.411360E+03	1.545869E-03	2.242232E-04
3.421306E+03	1.586190E-03	2.299128E-04
3.431252E+03	1.627756E-03	2.357744E-04
3.441197E+03	1.670586E-03	2.418104E-04
3.451143E+03	1.714698E-03	2.480231E-04
3.461089E+03	1.760221E-03	2.544306E-04
3.471034E+03	1.807057E-03	2.610185E-04
3.480980E+03	1.855217E-03	2.677878E-04
3.490926E+03	1.904942E-03	2.747729E-04
3.500871E+03	1.955890E-03	2.819240E-04
3.510817E+03	2.008414E-03	2.892917E-04
3.520763E+03	2.062399E-03	2.968588E-04
3.530708E+03	2.117718E-03	3.046066E-04
3.540654E+03	2.174604E-03	3.125684E-04
3.550600E+03	2.232922E-03	3.207241E-04
3.560545E+03	2.292653E-03	3.290705E-04
3.570491E+03	2.353770E-03	3.376034E-04
3.580436E+03	2.416370E-03	3.463363E-04
3.590382E+03	2.480420E-03	3.552641E-04
3.600328E+03	2.545746E-03	3.643612E-04
3.610273E+03	2.612433E-03	3.736396E-04
3.620219E+03	2.680428E-03	3.830912E-04
3.630165E+03	2.749676E-03	3.927076E-04
3.640110E+03	2.820115E-03	4.024799E-04
3.650056E+03	2.891682E-03	4.123985E-04
3.660002E+03	2.964457E-03	4.224746E-04
3.669947E+03	3.038236E-03	4.326788E-04
3.679893E+03	3.113101E-03	4.430224E-04
3.689839E+03	3.188860E-03	4.534777E-04
3.699784E+03	3.265602E-03	4.640572E-04
3.709730E+03	3.343439E-03	4.747765E-04
3.719676E+03	3.422042E-03	4.855885E-04
3.729621E+03	3.501534E-03	4.965106E-04
3.739567E+03	3.581894E-03	5.075395E-04
3.749513E+03	3.663253E-03	5.186934E-04
3.759458E+03	3.745440E-03	5.299480E-04
3.769404E+03	3.828577E-03	5.413202E-04
3.779350E+03	3.912473E-03	5.527828E-04
3.789295E+03	3.997215E-03	5.643478E-04
3.799241E+03	4.082709E-03	5.760019E-04
3.809187E+03	4.168818E-03	5.877255E-04
3.819132E+03	4.255370E-03	5.994941E-04
3.829078E+03	4.342123E-03	6.112736E-04
3.839024E+03	4.428939E-03	6.230448E-04
3.848969E+03	4.515141E-03	6.347122E-04
3.858915E+03	4.600615E-03	6.462602E-04
3.868861E+03	4.684867E-03	6.576198E-04
3.878806E+03	4.767180E-03	6.686907E-04
3.888752E+03	4.847103E-03	6.794104E-04
3.898698E+03	4.923826E-03	6.896663E-04
3.908643E+03	4.997002E-03	6.994108E-04
3.918589E+03	5.065639E-03	7.085063E-04
3.928534E+03	5.129244E-03	7.168853E-04
3.938480E+03	5.187066E-03	7.244447E-04
3.948426E+03	5.238893E-03	7.311563E-04
3.958371E+03	5.284135E-03	7.369401E-04
3.968317E+03	5.322328E-03	7.417333E-04
3.978263E+03	5.353603E-03	7.455564E-04
3.988208E+03	5.377774E-03	7.483855E-04
3.998154E+03	5.394799E-03	7.502171E-04
4.008100E+03	5.405238E-03	7.511311E-04
4.018045E+03	5.409184E-03	7.511425E-04
4.027991E+03	5.407295E-03	7.503446E-04
4.037937E+03	5.400186E-03	7.488244E-04
4.047882E+03	5.388538E-03	7.466780E-04
4.057828E+03	5.372959E-03	7.439908E-04
4.067774E+03	5.354218E-03	7.408705E-04
4.077719E+03	5.333226E-03	7.374440E-04
4.087665E+03	5.310611E-03	7.337987E-04
4.097611E+03	5.287220E-03	7.300521E-04
4.107556E+03	5.263351E-03	7.262457E-04
4.117502E+03	5.239987E-03	7.225151E-04
4.127448E+03	5.217419E-03	7.189002E-04
4.137393E+03	5.196108E-03	7.154644E-04
4.147339E+03	5.176439E-03	7.122603E-04
4.157285E+03	5.158593E-03	7.093124E-04
4.167230E+03	5.142805E-03	7.066524E-04
4.177176E+03	5.129329E-03	7.043148E-04
4.187122E+03	5.118043E-03	7.022821E-04
4.197067E+03	5.108871E-03	7.005432E-04
4.207013E+03	5.102011E-03	6.991249E-04
4.216959E+03	5.097111E-03	6.979784E-04
4.226904E+03	5.094204E-03	6.971074E-04
4.236850E+03	5.093115E-03	6.964878E-04
4.246796E+03	5.093766E-03	6.961084E-04
4.256741E+03	5.096004E-03	6.959478E-04
4.266687E+03	5.099712E-03	6.959898E-04
4.276632E+03	5.104815E-03	6.962236E-04
4.286578E+03	5.111469E-03	6.966704E-04
4.296524E+03	5.119722E-03	6.973363E-04
4.306469E+03	5.129604E-03	6.982250E-04
4.316415E+03	5.141419E-03	6.993775E-04
4.326361E+03	5.155459E-03	7.008330E-04
4.336306E+03	5.172208E-03	7.026569E-04
4.346252E+03	5.192166E-03	7.049163E-04
4.356198E+03	5.216007E-03	7.077021E-04
4.366143E+03	5.244314E-03	7.110922E-04
4.376089E+03	5.277799E-03	7.151823E-04
4.386035E+03	5.317459E-03	7.201059E-04
4.395980E+03	5.363775E-03	7.259268E-04
4.405926E+03	5.417700E-03	7.327724E-04
4.415872E+03	5.479795E-03	7.407165E-04
4.425817E+03	5.550692E-03	7.498428E-04
4.435763E+03	5.630911E-03	7.602193E-04
4.445709E+03	5.720743E-03	7.718833E-04
4.455654E+03	5.820374E-03	7.848576E-04
4.465600E+03	5.929705E-03	7.991270E-04
4.475546E+03	6.048483E-03	8.146549E-04
4.485491E+03	6.176089E-03	8.313565E-04
4.495437E+03	6.311880E-03	8.491430E-04
4.505383E+03	6.454548E-03	8.678372E-04
4.515328E+03	6.602629E-03	8.872411E-04
4.525274E+03	6.754426E-03	9.071256E-04
4.535220E+03	6.907658E-03	9.271844E-04
4.545165E+03	7.060133E-03	9.471232E-04
4.555111E+03	7.209149E-03	9.665805E-04
4.565057E+03	7.351856E-03	9.851752E-04
4.575002E+03	7.485619E-03	1.002556E-03
4.584948E+03	7.607560E-03	1.018341E-03
4.594894E+03	7.715052E-03	1.032180E-03
4.604839E+03	7.805641E-03	1.043750E-03
4.614785E+03	7.877563E-03	1.052817E-03
4.624730E+03	7.929232E-03	1.059175E-03
4.634676E+03	7.959620E-03	1.062691E-03
4.644622E+03	7.968603E-03	1.063351E-03
4.654567E+03	7.956366E-03	1.061187E-03
4.664513E+03	7.923775E-03	1.056316E-03
4.674459E+03	7.872239E-03	1.048932E-03
4.684404E+03	7.803613E-03	1.039285E-03
4.694350E+03	7.720193E-03	1.027683E-03
4.704296E+03	7.624335E-03	1.014443E-03
4.714241E+03	7.518609E-03	9.999082E-04
4.724187E+03	7.405604E-03	9.844254E-04
4.734133E+03	7.288022E-03	9.683542E-04
4.744078E+03	7.168044E-03	9.519850E-04
4.754024E+03	7.047902E-03	9.356143E-04
4.763970E+03	6.929581E-03	9.195052E-04
4.773915E+03	6.814510E-03	9.038468E-04
4.783861E+03	6.704259E-03	8.888464E-04
4.793807E+03	6.599765E-03	8.746270E-04
4.803752E+03	6.501768E-03	8.612857E-04
4.813698E+03	6.410829E-03	8.488954E-04
4.823644E+03	6.327182E-03	8.374858E-04
4.833589E+03	6.250930E-03	8.270692E-04
4.843535E+03	6.181830E-03	8.176123E-04
4.853481E+03	6.119704E-03	8.090899E-04
4.863426E+03	6.064082E-03	8.014393E-04
4.873372E+03	6.014334E-03	7.945760E-04
4.883318E+03	5.970019E-03	7.884407E-04
4.893263E+03	5.930307E-03	7.829231E-04
4.903209E+03	5.894622E-03	7.779467E-04
4.913155E+03	5.862202E-03	7.734100E-04
4.923100E+03	5.832461E-03	7.692355E-04
4.933046E+03	5.804870E-03	7.653530E-04
4.942991E+03	5.778935E-03	7.616972E-04
4.952937E+03	5.754274E-03	7.582174E-04
4.962883E+03	5.730702E-03	7.548892E-04
4.972828E+03	5.708029E-03	7.516875E-04
4.982774E+03	5.686346E-03	7.486240E-04
4.992720E+03	5.665865E-03	7.457266E-04
5.002665E+03	5.646795E-03	7.430227E-04
5.012611E+03	5.629579E-03	7.405704E-04
5.022557E+03	5.614681E-03	7.384304E-04
5.032502E+03	5.602694E-03	7.366808E-04
5.042448E+03	5.594119E-03	7.353870E-04
5.052394E+03	5.589544E-03	7.346261E-04
5.062339E+03	5.589623E-03	7.344837E-04
5.072285E+03	5.594913E-03	7.350328E-04
5.082231E+03	5.605951E-03	7.363436E-04
5.092176E+03	5.623271E-03	7.384856E-04
5.102122E+03	5.647165E-03	7.414973E-04
5.112068E+03	5.678101E-03	7.454396E-04
5.122013E+03	5.716283E-03	7.503391E-04
5.131959E+03	5.761952E-03	7.562273E-04
5.141905E+03	5.815124E-03	7.631060E-04
5.151850E+03	5.875789E-03	7.709740E-04
5.161796E+03	5.943885E-03	7.798229E-04
5.171742E+03	6.019121E-03	7.896147E-04
5.181687E+03	6.101223E-03	8.003137E-04
5.191633E+03	6.189671E-03	8.118516E-04
5.201579E+03	6.283893E-03	8.241539E-04
5.211524E+03	6.383214E-03	8.371323E-04
5.221470E+03	6.486923E-03	8.506940E-04
5.231416E+03	6.593997E-03	8.647054E-04
5.241361E+03	6.703555E-03	8.790513E-04
5.251307E+03	6.814500E-03	8.935886E-04
5.261253E+03	6.925834E-03	9.081871E-04
5.271198E+03	7.036320E-03	9.226850E-04
5.281144E+03	7.145026E-03	9.369607E-04
5.291089E+03	7.250660E-03	9.508454E-04
5.301035E+03	7.352368E-03	9.642279E-04
5.310981E+03	7.449134E-03	9.769751E-04
5.320926E+03	7.540035E-03	9.889666E-04
5.330872E+03	7.624320E-03	1.000104E-03
5.340818E+03	7.701358E-03	1.010306E-03
5.350763E+03	7.770535E-03	1.019491E-03
5.360709E+03	7.831422E-03	1.027603E-03
5.370655E+03	7.883503E-03	1.034574E-03
5.380600E+03	7.926669E-03	1.040391E-03
5.390546E+03	7.960585E-03	1.045009E-03
5.400492E+03	7.984852E-03	1.048375E-03
5.410437E+03	7.999294E-03	1.050466E-03
5.420383E+03	8.003503E-03	1.051227E-03
5.430329E+03	7.997217E-03	1.050624E-03
5.440274E+03	7.979928E-03	1.048588E-03
5.450220E+03	7.951421E-03	1.045089E-03
5.460166E+03	7.911463E-03	1.040097E-03
5.470111E+03	7.859933E-03	1.033592E-03
5.480057E+03	7.796856E-03	1.025578E-03
5.490003E+03	7.722502E-03	1.016088E-03
5.499948E+03	7.637171E-03	1.005159E-03
5.509894E+03	7.541551E-03	9.928810E-04
5.519840E+03	7.436462E-03	9.793592E-04
5.529785E+03	7.323027E-03	9.647401E-04
5.539731E+03	7.202579E-03	9.491975E-04
5.549677E+03	7.076500E-03	9.329120E-04
5.559622E+03	6.946551E-03	9.161143E-04
5.569568E+03	6.814474E-03	8.990332E-04
5.579514E+03	6.682093E-03	8.819081E-04
5.589459E+03	6.551412E-03	8.650031E-04
5.599405E+03	6.424216E-03	8.485535E-04
5.609351E+03	6.302299E-03	8.327964E-04
5.619296E+03	6.187505E-03	8.179756E-04
5.629242E+03	6.081414E-03	8.043008E-04
5.639187E+03	5.985437E-03	7.919597E-04
5.649133E+03	5.900884E-03	7.811270E-04
5.659079E+03	5.828741E-03	7.719348E-04
5.669024E+03	5.769916E-03	7.645055E-04
5.678970E+03	5.725039E-03	7.589247E-04
5.688916E+03	5.694596E-03	7.552592E-04
5.698861E+03	5.678784E-03	7.535378E-04
5.708807E+03	5.677578E-03	7.537599E-04
5.718753E+03	5.690719E-03	7.558941E-04
5.728698E+03	5.717659E-03	7.598701E-04
5.738644E+03	5.757850E-03	7.656182E-04
5.748590E+03	5.810130E-03	7.729866E-04
5.758535E+03	5.873391E-03	7.818305E-04
5.768481E+03	5.946167E-03	7.919569E-04
5.778427E+03	6.026683E-03	8.031316E-04
5.788372E+03	6.113006E-03	8.150988E-04
5.798318E+03	6.203158E-03	8.275961E-04
5.808264E+03	6.294669E-03	8.402948E-04
5.818209E+03	6.385325E-03	8.528995E-04
5.828155E+03	6.472737E-03	8.650910E-04
5.838101E+03	6.554423E-03	8.765367E-04
5.848046E+03	6.628309E-03	8.869578E-04
5.857992E+03	6.692383E-03	8.960829E-04
5.867938E+03	6.744752E-03	9.036563E-04
5.877883E+03	6.784088E-03	9.094968E-04
5.887829E+03	6.809380E-03	9.134658E-04
5.897775E+03	6.819961E-03	9.154698E-04
5.907720E+03	6.815736E-03	9.154924E-04
5.917666E+03	6.796893E-03	9.135547E-04
5.927612E+03	6.764090E-03	9.097414E-04
5.937557E+03	6.718323E-03	9.041826E-04
5.947503E+03	6.660879E-03	8.970480E-04
5.957449E+03	6.593191E-03	8.885273E-04
5.967394E+03	6.516910E-03	8.788400E-04
5.977340E+03	6.433703E-03	8.682088E-04
5.987285E+03	6.345445E-03	8.568845E-04
5.997231E+03	6.253683E-03	8.450744E-04
6.007177E+03	6.160011E-03	8.329930E-04
6.017122E+03	6.065815E-03	8.208270E-04
6.027068E+03	5.972515E-03	8.087681E-04
6.037014E+03	5.881025E-03	7.969402E-04
6.046959E+03	5.792396E-03	7.854864E-04
6.056905E+03	5.707300E-03	7.744982E-04
6.066851E+03	5.626226E-03	7.640428E-04
6.076796E+03	5.549570E-03	7.541749E-04
6.086742E+03	5.477643E-03	7.449383E-04
6.096688E+03	5.410433E-03	7.363321E-04
6.106633E+03	5.348005E-03	7.283667E-04
6.116579E+03	5.290286E-03	7.210332E-04
6.126525E+03	5.237117E-03	7.143112E-04
6.136470E+03	5.188239E-03	7.081668E-04
6.146416E+03	5.143424E-03	7.025697E-04
6.156362E+03	5.102424E-03	6.974873E-04
6.166307E+03	5.064990E-03	6.928865E-04
6.176253E+03	5.030947E-03	6.887443E-04
6.186199E+03	4.999972E-03	6.850175E-04
6.196144E+03	4.971993E-03	6.816969E-04
6.206090E+03	4.946757E-03	6.787488E-04
6.216036E+03	4.924274E-03	6.761754E-04
6.225981E+03	4.904426E-03	6.739610E-04
6.235927E+03	4.887248E-03	6.721112E-04
6.245873E+03	4.872635E-03	6.706125E-04
6.255818E+03	4.860741E-03	6.694867E-04
6.265764E+03	4.851551E-03	6.687326E-04
6.275710E+03	4.845173E-03	6.683659E-04
6.285655E+03	4.841647E-03	6.683928E-04
6.295601E+03	4.840920E-03	6.688071E-04
6.305546E+03	4.843010E-03	6.696118E-04
6.315492E+03	4.847814E-03	6.707939E-04
6.325438E+03	4.855094E-03	6.723208E-04
6.335383E+03	4.864690E-03	6.741714E-04
6.345329E+03	4.876170E-03	6.762863E-04
6.355275E+03	4.889041E-03	6.785979E-04
6.365220E+03	4.902692E-03	6.810215E-04
6.375166E+03	4.916405E-03	6.834575E-04
6.385112E+03	4.929388E-03	6.857958E-04
6.395057E+03	4.940642E-03	6.878971E-04
6.405003E+03	4.949135E-03	6.896168E-04
6.414949E+03	4.953817E-03	6.908075E-04
6.424894E+03	4.953558E-03	6.913105E-04
6.434840E+03	4.947207E-03	6.909631E-04
6.444786E+03	4.933600E-03	6.896007E-04
6.454731E+03	4.911806E-03	6.870908E-04
6.464677E+03	4.880848E-03	6.832936E-04
6.474623E+03	4.839947E-03	6.780970E-04
6.484568E+03	4.788589E-03	6.714255E-04
6.494514E+03	4.726354E-03	6.632171E-04
6.504460E+03	4.653188E-03	6.534601E-04
6.514405E+03	4.569300E-03	6.421805E-04
6.524351E+03	4.475037E-03	6.294234E-04
6.534297E+03	4.371123E-03	6.152875E-04
6.544242E+03	4.258456E-03	5.998958E-04
6.554188E+03	4.138126E-03	5.833989E-04
6.564134E+03	4.011396E-03	5.659729E-04
6.574079E+03	3.879744E-03	5.478241E-04
6.584025E+03	3.744516E-03	5.291410E-04
6.593971E+03	3.607280E-03	5.101443E-04
6.603916E+03	3.469478E-03	4.910373E-04
6.613862E+03	3.332450E-03	4.720095E-04
6.623808E+03	3.197564E-03	4.532552E-04
6.633753E+03	3.065939E-03	4.349339E-04
6.643699E+03	2.938598E-03	4.171916E-04
6.653644E+03	2.816479E-03	4.001633E-04
6.663590E+03	2.700256E-03	3.839465E-04
6.673536E+03	2.590524E-03	3.686276E-04
6.683481E+03	2.487666E-03	3.542634E-04
6.693427E+03	2.392000E-03	3.409016E-04
6.703373E+03	2.303699E-03	3.285690E-04
6.713318E+03	2.222861E-03	3.172824E-04
6.723264E+03	2.149418E-03	3.070340E-04
6.733210E+03	2.083375E-03	2.978273E-04
6.743155E+03	2.024568E-03	2.896413E-04
6.753101E+03	1.972803E-03	2.824503E-04
6.763047E+03	1.927903E-03	2.762317E-04
6.772992E+03	1.889677E-03	2.709599E-04
6.782938E+03	1.857871E-03	2.666008E-04
6.792884E+03	1.832275E-03	2.631265E-04
6.802829E+03	1.812635E-03	2.605023E-04
6.812775E+03	1.798746E-03	2.587008E-04
6.822721E+03	1.790386E-03	2.576918E-04
6.832666E+03	1.787343E-03	2.574465E-04
6.842612E+03	1.789385E-03	2.579333E-04
6.852558E+03	1.796364E-03	2.591325E-04
6.862503E+03	1.808042E-03	2.610113E-04
6.872449E+03	1.824285E-03	2.635516E-04
6.882395E+03	1.844891E-03	2.667261E-04
6.892340E+03	1.869692E-03	2.705114E-04
6.902286E+03	1.898519E-03	2.748847E-04
6.912232E+03	1.931210E-03	2.798238E-04
6.922177E+03	1.967608E-03	2.853068E-04
6.932123E+03	2.007581E-03	2.913160E-04
6.942069E+03	2.050952E-03	2.978267E-04
6.952014E+03	2.097540E-03	3.048137E-04
6.961960E+03	2.147255E-03	3.122648E-04
6.971906E+03	2.199922E-03	3.201556E-04
6.981851E+03	2.255396E-03	3.284658E-04
6.991797E+03	2.313535E-03	3.371755E-04
7.001742E+03	2.374195E-03	3.462647E-04
7.011688E+03	2.437233E-03	3.557131E-04
7.021634E+03	2.502468E-03	3.654947E-04
7.031579E+03	2.569780E-03	3.755932E-04
7.041525E+03	2.639014E-03	3.859860E-04
7.051471E+03	2.709966E-03	3.966441E-04
7.061416E+03	2.782496E-03	4.075474E-04
7.071362E+03	2.856339E-03	4.186573E-04
7.081308E+03	2.931367E-03	4.299556E-04
7.091253E+03	3.007323E-03	4.414049E-04
7.101199E+03	3.083932E-03	4.529648E-04
7.111145E+03	3.160985E-03	4.646047E-04
7.121090E+03	3.238217E-03	4.762860E-04
7.131036E+03	3.315263E-03	4.879547E-04
7.140982E+03	3.391921E-03	4.995810E-04
7.150927E+03	3.467802E-03	5.111076E-04
7.160873E+03	3.542700E-03	5.225033E-04
7.170819E+03	3.616167E-03	5.337020E-04
7.180764E+03	3.688001E-03	5.446734E-04
7.190710E+03	3.757813E-03	5.553593E-04
7.200656E+03	3.825379E-03	5.657260E-04
7.210601E+03	3.890386E-03	5.757262E-04
7.220547E+03	3.952660E-03	5.853337E-04
7.230493E+03	4.011881E-03	5.944999E-04
7.240438E+03	4.067882E-03	6.031992E-04
7.250384E+03	4.120567E-03	6.114162E-04
7.260330E+03	4.169725E-03	6.191188E-04
7.270275E+03	4.215284E-03	6.262950E-04
7.280221E+03	4.257262E-03	6.329465E-04
7.290167E+03	4.295609E-03	6.390647E-04
7.300112E+03	4.330287E-03	6.446428E-04
7.310058E+03	4.361363E-03	6.496898E-04
7.320004E+03	4.388916E-03	6.542164E-04
7.329949E+03	4.413053E-03	6.582374E-04
7.339895E+03	4.433831E-03	6.617602E-04
7.349840E+03	4.451442E-03	6.648128E-04
7.359786E+03	4.465894E-03	6.673952E-04
7.369732E+03	4.477391E-03	6.695373E-04
7.379677E+03	4.486068E-03	6.712580E-04
7.389623E+03	4.492064E-03	6.725776E-04
7.399569E+03	4.495435E-03	6.735038E-04
7.409514E+03	4.496369E-03	6.740637E-04
7.419460E+03	4.494975E-03	6.742731E-04
7.429406E+03	4.491290E-03	6.741372E-04
7.439351E+03	4.485479E-03	6.736797E-04
7.449297E+03	4.477625E-03	6.729126E-04
7.459243E+03	4.467799E-03	6.718463E-04
7.469188E+03	4.456142E-03	6.705012E-04
7.479134E+03	4.442647E-03	6.688758E-04
7.489080E+03	4.427378E-03	6.669793E-04
7.499025E+03	4.410506E-03	6.648369E-04
7.508971E+03	4.392012E-03	6.624453E-04
7.518917E+03	4.371936E-03	6.598104E-04
7.528862E+03	4.350368E-03	6.569450E-04
7.538808E+03	4.327283E-03	6.538452E-04
7.548754E+03	4.302757E-03	6.505220E-04
7.558699E+03	4.276874E-03	6.469879E-04
7.568645E+03	4.249585E-03	6.432348E-04
7.578591E+03	4.220965E-03	6.392739E-04
7.588536E+03	4.191018E-03	6.351056E-04
7.598482E+03	4.159689E-03	6.307212E-04
7.608428E+03	4.127102E-03	6.261390E-04
7.618373E+03	4.093137E-03	6.213406E-04
7.628319E+03	4.057917E-03	6.163443E-04
7.638265E+03	4.021432E-03	6.111485E-04
7.648210E+03	3.983631E-03	6.057448E-04
7.658156E+03	3.944515E-03	6.001335E-04
7.668101E+03	3.904196E-03	5.943309E-04
7.678047E+03	3.862514E-03	5.883126E-04
7.687993E+03	3.819646E-03	5.821053E-04
7.697938E+03	3.775491E-03	5.756932E-04
7.707884E+03	3.730123E-03	5.690874E-04
7.717830E+03	3.683564E-03	5.622910E-04
