#wls	flux	fluxerr
1.591305E+03	3.990742E-04	3.613512E-05
1.631088E+03	3.934469E-04	3.556104E-05
1.670870E+03	3.869689E-04	3.491070E-05
1.710653E+03	3.796750E-04	3.418774E-05
1.750436E+03	3.715535E-04	3.339156E-05
1.790218E+03	3.624796E-04	3.251148E-05
1.830001E+03	3.521362E-04	3.151970E-05
1.869784E+03	3.403154E-04	3.039845E-05
1.909566E+03	3.267844E-04	2.912792E-05
1.949349E+03	3.114987E-04	2.770526E-05
1.989131E+03	2.948501E-04	2.616641E-05
2.028914E+03	2.780142E-04	2.461646E-05
2.068697E+03	2.629654E-04	2.323013E-05
2.108479E+03	2.521361E-04	2.222085E-05
2.148262E+03	2.474914E-04	2.175885E-05
2.188045E+03	2.494823E-04	2.187981E-05
2.227827E+03	2.571562E-04	2.249605E-05
2.267610E+03	2.686027E-04	2.343699E-05
2.307392E+03	2.820262E-04	2.454368E-05
2.347175E+03	2.961528E-04	2.570404E-05
2.386958E+03	3.102529E-04	2.685425E-05
2.426740E+03	3.240462E-04	2.796993E-05
2.466523E+03	3.375792E-04	2.905516E-05
2.506306E+03	3.510474E-04	3.012672E-05
2.546088E+03	3.646592E-04	3.120232E-05
2.585871E+03	3.787579E-04	3.231098E-05
2.625653E+03	3.935824E-04	3.347246E-05
2.665436E+03	4.094104E-04	3.470956E-05
2.705219E+03	4.265077E-04	3.604375E-05
2.745001E+03	4.452043E-04	3.750160E-05
2.784784E+03	4.657878E-04	3.910572E-05
2.824567E+03	4.885040E-04	4.087486E-05
2.864349E+03	5.138127E-04	4.284533E-05
2.904132E+03	5.421570E-04	4.505143E-05
2.943914E+03	5.740359E-04	4.753153E-05
2.983697E+03	6.099479E-04	5.032333E-05
2.993643E+03	6.196138E-04	5.107427E-05
3.003588E+03	6.296065E-04	5.185053E-05
3.013534E+03	6.399356E-04	5.265282E-05
3.023480E+03	6.506206E-04	5.348265E-05
3.033425E+03	6.616350E-04	5.433777E-05
3.043371E+03	6.731677E-04	5.523358E-05
3.053317E+03	6.850792E-04	5.615854E-05
3.063262E+03	6.974446E-04	5.711869E-05
3.073208E+03	7.103429E-04	5.812039E-05
3.083154E+03	7.236340E-04	5.915206E-05
3.093099E+03	7.374726E-04	6.022622E-05
3.103045E+03	7.517937E-04	6.133745E-05
3.112991E+03	7.666067E-04	6.248638E-05
3.122936E+03	7.819213E-04	6.367370E-05
3.132882E+03	7.978264E-04	6.490649E-05
3.142828E+03	8.142583E-04	6.617944E-05
3.152773E+03	8.312294E-04	6.749342E-05
3.162719E+03	8.488335E-04	6.885590E-05
3.172665E+03	8.670878E-04	7.026813E-05
3.182610E+03	8.859291E-04	7.172481E-05
3.192556E+03	9.054556E-04	7.323375E-05
3.202502E+03	9.256874E-04	7.479639E-05
3.212447E+03	9.466457E-04	7.641425E-05
3.222393E+03	9.682660E-04	7.808198E-05
3.232339E+03	9.906547E-04	7.980795E-05
3.242284E+03	1.013922E-03	8.160082E-05
3.252230E+03	1.037917E-03	8.344835E-05
3.262175E+03	1.062842E-03	8.536641E-05
3.272121E+03	1.088633E-03	8.734977E-05
3.282067E+03	1.115407E-03	8.940758E-05
3.292012E+03	1.143010E-03	9.152716E-05
3.301958E+03	1.171744E-03	9.373255E-05
3.311904E+03	1.201359E-03	9.600347E-05
3.321849E+03	1.232166E-03	9.836445E-05
3.331795E+03	1.264004E-03	1.008024E-04
3.341741E+03	1.296998E-03	1.033270E-04
3.351686E+03	1.331178E-03	1.059404E-04
3.361632E+03	1.366572E-03	1.086444E-04
3.371578E+03	1.403209E-03	1.114412E-04
3.381523E+03	1.441220E-03	1.143406E-04
3.391469E+03	1.480425E-03	1.173281E-04
3.401415E+03	1.521058E-03	1.204220E-04
3.411360E+03	1.563144E-03	1.236238E-04
3.421306E+03	1.606600E-03	1.269266E-04
3.431252E+03	1.651555E-03	1.303402E-04
3.441197E+03	1.697915E-03	1.338568E-04
3.451143E+03	1.745920E-03	1.374951E-04
3.461089E+03	1.795357E-03	1.412376E-04
3.471034E+03	1.846461E-03	1.451026E-04
3.480980E+03	1.899120E-03	1.490809E-04
3.490926E+03	1.953329E-03	1.531717E-04
3.500871E+03	2.009200E-03	1.573832E-04
3.510817E+03	2.066714E-03	1.617137E-04
3.520763E+03	2.125723E-03	1.661510E-04
3.530708E+03	2.186311E-03	1.707015E-04
3.540654E+03	2.248428E-03	1.753606E-04
3.550600E+03	2.312009E-03	1.801231E-04
3.560545E+03	2.376976E-03	1.849824E-04
3.570491E+03	2.443366E-03	1.899411E-04
3.580436E+03	2.510939E-03	1.949802E-04
3.590382E+03	2.579570E-03	2.000896E-04
3.600328E+03	2.649393E-03	2.052795E-04
3.610273E+03	2.719982E-03	2.105165E-04
3.620219E+03	2.791311E-03	2.157985E-04
3.630165E+03	2.863349E-03	2.211228E-04
3.640110E+03	2.935633E-03	2.264536E-04
3.650056E+03	3.008268E-03	2.317990E-04
3.660002E+03	3.081086E-03	2.371458E-04
3.669947E+03	3.153787E-03	2.424709E-04
3.679893E+03	3.226542E-03	2.477876E-04
3.689839E+03	3.298996E-03	2.530685E-04
3.699784E+03	3.371283E-03	2.583241E-04
3.709730E+03	3.443488E-03	2.635609E-04
3.719676E+03	3.515929E-03	2.688032E-04
3.729621E+03	3.588729E-03	2.740604E-04
3.739567E+03	3.662418E-03	2.793728E-04
3.749513E+03	3.737455E-03	2.847752E-04
3.759458E+03	3.814225E-03	2.902965E-04
3.769404E+03	3.893608E-03	2.960032E-04
3.779350E+03	3.976050E-03	3.019285E-04
3.789295E+03	4.062128E-03	3.081155E-04
3.799241E+03	4.152367E-03	3.146029E-04
3.809187E+03	4.247351E-03	3.214340E-04
3.819132E+03	4.347236E-03	3.286192E-04
3.829078E+03	4.452310E-03	3.361792E-04
3.839024E+03	4.562650E-03	3.441184E-04
3.848969E+03	4.677617E-03	3.523873E-04
3.858915E+03	4.796740E-03	3.609495E-04
3.868861E+03	4.919067E-03	3.697322E-04
3.878806E+03	5.043288E-03	3.786363E-04
3.888752E+03	5.167918E-03	3.875501E-04
3.898698E+03	5.290813E-03	3.963129E-04
3.908643E+03	5.409718E-03	4.047564E-04
3.918589E+03	5.522349E-03	4.127111E-04
3.928534E+03	5.626022E-03	4.199783E-04
3.938480E+03	5.718435E-03	4.263887E-04
3.948426E+03	5.797322E-03	4.317764E-04
3.958371E+03	5.860606E-03	4.359905E-04
3.968317E+03	5.907023E-03	4.389411E-04
3.978263E+03	5.935553E-03	4.405568E-04
3.988208E+03	5.946150E-03	4.408389E-04
3.998154E+03	5.939249E-03	4.398241E-04
4.008100E+03	5.915754E-03	4.375837E-04
4.018045E+03	5.877417E-03	4.342517E-04
4.027991E+03	5.825981E-03	4.299602E-04
4.037937E+03	5.764218E-03	4.249170E-04
4.047882E+03	5.694214E-03	4.192783E-04
4.057828E+03	5.618795E-03	4.132540E-04
4.067774E+03	5.540174E-03	4.070082E-04
4.077719E+03	5.460911E-03	4.007294E-04
4.087665E+03	5.382833E-03	3.945517E-04
4.097611E+03	5.307736E-03	3.886063E-04
4.107556E+03	5.237229E-03	3.830101E-04
4.117502E+03	5.172264E-03	3.778316E-04
4.127448E+03	5.113929E-03	3.731487E-04
4.137393E+03	5.062575E-03	3.689855E-04
4.147339E+03	5.018390E-03	3.653537E-04
4.157285E+03	4.981592E-03	3.622677E-04
4.167230E+03	4.951748E-03	3.596941E-04
4.177176E+03	4.928396E-03	3.575978E-04
4.187122E+03	4.910889E-03	3.559301E-04
4.197067E+03	4.898309E-03	3.546234E-04
4.207013E+03	4.889717E-03	3.536086E-04
4.216959E+03	4.883981E-03	3.528029E-04
4.226904E+03	4.879940E-03	3.521220E-04
4.236850E+03	4.876521E-03	3.514882E-04
4.246796E+03	4.872688E-03	3.508265E-04
4.256741E+03	4.867336E-03	3.500580E-04
4.266687E+03	4.859679E-03	3.491264E-04
4.276632E+03	4.849108E-03	3.479887E-04
4.286578E+03	4.835023E-03	3.466024E-04
4.296524E+03	4.817408E-03	3.449675E-04
4.306469E+03	4.796345E-03	3.430904E-04
4.316415E+03	4.772396E-03	3.410124E-04
4.326361E+03	4.746345E-03	3.387898E-04
4.336306E+03	4.719398E-03	3.365093E-04
4.346252E+03	4.693046E-03	3.342773E-04
4.356198E+03	4.669309E-03	3.322374E-04
4.366143E+03	4.650106E-03	3.305254E-04
4.376089E+03	4.637799E-03	3.293080E-04
4.386035E+03	4.634698E-03	3.287477E-04
4.395980E+03	4.643224E-03	3.290139E-04
4.405926E+03	4.665640E-03	3.302642E-04
4.415872E+03	4.704331E-03	3.326644E-04
4.425817E+03	4.761462E-03	3.363639E-04
4.435763E+03	4.839180E-03	3.415104E-04
4.445709E+03	4.939460E-03	3.482391E-04
4.455654E+03	5.064076E-03	3.566700E-04
4.465600E+03	5.214576E-03	3.669074E-04
4.475546E+03	5.392012E-03	3.790199E-04
4.485491E+03	5.597152E-03	3.930562E-04
4.495437E+03	5.829916E-03	4.090054E-04
4.505383E+03	6.089539E-03	4.268086E-04
4.515328E+03	6.374168E-03	4.463310E-04
4.525274E+03	6.680725E-03	4.673528E-04
4.535220E+03	7.004844E-03	4.895650E-04
4.545165E+03	7.340613E-03	5.125518E-04
4.555111E+03	7.680631E-03	5.357953E-04
4.565057E+03	8.016258E-03	5.586931E-04
4.575002E+03	8.337714E-03	5.805658E-04
4.584948E+03	8.634540E-03	6.006887E-04
4.594894E+03	8.896584E-03	6.183618E-04
4.604839E+03	9.114247E-03	6.329252E-04
4.614785E+03	9.279389E-03	6.438232E-04
4.624730E+03	9.386017E-03	6.506501E-04
4.634676E+03	9.430930E-03	6.531952E-04
4.644622E+03	9.413885E-03	6.514531E-04
4.654567E+03	9.337378E-03	6.456073E-04
4.664513E+03	9.206930E-03	6.360498E-04
4.674459E+03	9.030121E-03	6.233131E-04
4.684404E+03	8.815741E-03	6.080112E-04
4.694350E+03	8.573975E-03	5.908521E-04
4.704296E+03	8.314502E-03	5.725064E-04
4.714241E+03	8.046811E-03	5.536296E-04
4.724187E+03	7.779438E-03	5.348094E-04
4.734133E+03	7.519527E-03	5.165360E-04
4.744078E+03	7.272967E-03	4.992120E-04
4.754024E+03	7.044134E-03	4.831348E-04
4.763970E+03	6.836378E-03	4.685310E-04
4.773915E+03	6.651919E-03	4.555488E-04
4.783861E+03	6.492002E-03	4.442696E-04
4.793807E+03	6.357030E-03	4.347169E-04
4.803752E+03	6.246836E-03	4.268754E-04
4.813698E+03	6.160613E-03	4.206861E-04
4.823644E+03	6.097218E-03	4.160675E-04
4.833589E+03	6.055158E-03	4.129144E-04
4.843535E+03	6.032574E-03	4.110970E-04
4.853481E+03	6.027444E-03	4.104750E-04
4.863426E+03	6.037339E-03	4.108809E-04
4.873372E+03	6.059688E-03	4.121376E-04
4.883318E+03	6.091537E-03	4.140431E-04
4.893263E+03	6.129780E-03	4.163852E-04
4.903209E+03	6.171218E-03	4.189462E-04
4.913155E+03	6.212479E-03	4.214969E-04
4.923100E+03	6.250408E-03	4.238237E-04
4.933046E+03	6.282057E-03	4.257274E-04
4.942991E+03	6.304905E-03	4.270381E-04
4.952937E+03	6.317033E-03	4.276269E-04
4.962883E+03	6.317327E-03	4.274199E-04
4.972828E+03	6.305397E-03	4.263920E-04
4.982774E+03	6.281668E-03	4.245733E-04
4.992720E+03	6.247375E-03	4.220484E-04
5.002665E+03	6.204205E-03	4.189321E-04
5.012611E+03	6.154642E-03	4.153931E-04
5.022557E+03	6.101232E-03	4.116036E-04
5.032502E+03	6.046751E-03	4.077511E-04
5.042448E+03	5.994023E-03	4.040258E-04
5.052394E+03	5.945658E-03	4.006035E-04
5.062339E+03	5.904185E-03	3.976541E-04
5.072285E+03	5.871833E-03	3.953270E-04
5.082231E+03	5.850624E-03	3.937575E-04
5.092176E+03	5.842192E-03	3.930549E-04
5.102122E+03	5.848040E-03	3.933194E-04
5.112068E+03	5.869304E-03	3.946264E-04
5.122013E+03	5.907034E-03	3.970458E-04
5.131959E+03	5.962004E-03	4.006289E-04
5.141905E+03	6.034797E-03	4.054139E-04
5.151850E+03	6.125849E-03	4.114297E-04
5.161796E+03	6.235189E-03	4.186777E-04
5.171742E+03	6.362864E-03	4.271606E-04
5.181687E+03	6.508380E-03	4.368450E-04
5.191633E+03	6.671214E-03	4.476958E-04
5.201579E+03	6.850381E-03	4.596470E-04
5.211524E+03	7.044393E-03	4.725988E-04
5.221470E+03	7.251685E-03	4.864469E-04
5.231416E+03	7.470129E-03	5.010489E-04
5.241361E+03	7.697350E-03	5.162463E-04
5.251307E+03	7.930774E-03	5.318673E-04
5.261253E+03	8.167418E-03	5.477128E-04
5.271198E+03	8.404450E-03	5.635939E-04
5.281144E+03	8.639084E-03	5.793249E-04
5.291089E+03	8.868350E-03	5.947075E-04
5.301035E+03	9.090089E-03	6.095981E-04
5.310981E+03	9.302097E-03	6.238498E-04
5.320926E+03	9.502941E-03	6.373674E-04
5.330872E+03	9.691632E-03	6.500855E-04
5.340818E+03	9.867547E-03	6.619628E-04
5.350763E+03	1.003096E-02	6.730186E-04
5.360709E+03	1.018242E-02	6.832894E-04
5.370655E+03	1.032255E-02	6.928185E-04
5.380600E+03	1.045267E-02	7.016942E-04
5.390546E+03	1.057351E-02	7.099664E-04
5.400492E+03	1.068586E-02	7.176880E-04
5.410437E+03	1.078984E-02	7.248669E-04
5.420383E+03	1.088427E-02	7.314250E-04
5.430329E+03	1.096712E-02	7.372246E-04
5.440274E+03	1.103568E-02	7.420836E-04
5.450220E+03	1.108695E-02	7.457987E-04
5.460166E+03	1.111723E-02	7.481204E-04
5.470111E+03	1.112287E-02	7.488010E-04
5.480057E+03	1.109973E-02	7.475595E-04
5.490003E+03	1.104456E-02	7.441742E-04
5.499948E+03	1.095408E-02	7.384208E-04
5.509894E+03	1.082640E-02	7.301671E-04
5.519840E+03	1.066079E-02	7.193605E-04
5.529785E+03	1.045764E-02	7.060223E-04
5.539731E+03	1.021927E-02	6.903043E-04
5.549677E+03	9.949409E-03	6.724532E-04
5.559622E+03	9.653170E-03	6.528102E-04
5.569568E+03	9.336644E-03	6.317830E-04
5.579514E+03	9.007137E-03	6.098624E-04
5.589459E+03	8.672147E-03	5.875535E-04
5.599405E+03	8.339433E-03	5.653801E-04
5.609351E+03	8.016300E-03	5.438368E-04
5.619296E+03	7.709669E-03	5.233936E-04
5.629242E+03	7.425519E-03	5.044575E-04
5.639187E+03	7.169092E-03	4.873872E-04
5.649133E+03	6.944591E-03	4.724716E-04
5.659079E+03	6.755555E-03	4.599557E-04
5.669024E+03	6.604488E-03	4.500147E-04
5.678970E+03	6.493522E-03	4.427993E-04
5.688916E+03	6.423974E-03	4.384054E-04
5.698861E+03	6.396951E-03	4.369150E-04
5.708807E+03	6.412952E-03	4.383690E-04
5.718753E+03	6.472178E-03	4.427884E-04
5.728698E+03	6.574238E-03	4.501539E-04
5.738644E+03	6.718232E-03	4.604116E-04
5.748590E+03	6.902661E-03	4.734663E-04
5.758535E+03	7.125015E-03	4.891535E-04
5.768481E+03	7.381897E-03	5.072471E-04
5.778427E+03	7.668636E-03	5.274329E-04
5.788372E+03	7.979144E-03	5.492981E-04
5.798318E+03	8.306109E-03	5.723440E-04
5.808264E+03	8.640843E-03	5.959754E-04
5.818209E+03	8.973461E-03	6.195120E-04
5.828155E+03	9.293427E-03	6.422259E-04
5.838101E+03	9.590138E-03	6.633818E-04
5.848046E+03	9.852982E-03	6.822407E-04
5.857992E+03	1.007250E-02	6.981408E-04
5.867938E+03	1.024097E-02	7.105365E-04
5.877883E+03	1.035256E-02	7.190135E-04
5.887829E+03	1.040417E-02	7.233444E-04
5.897775E+03	1.039507E-02	7.234637E-04
5.907720E+03	1.032753E-02	7.195184E-04
5.917666E+03	1.020594E-02	7.117998E-04
5.927612E+03	1.003672E-02	7.007446E-04
5.937557E+03	9.827640E-03	6.868846E-04
5.947503E+03	9.587538E-03	6.708287E-04
5.957449E+03	9.325342E-03	6.531947E-04
5.967394E+03	9.049954E-03	6.346010E-04
5.977340E+03	8.769382E-03	6.156062E-04
5.987285E+03	8.490972E-03	5.967247E-04
5.997231E+03	8.220792E-03	5.783833E-04
6.007177E+03	7.963816E-03	5.609339E-04
6.017122E+03	7.723743E-03	5.446397E-04
6.027068E+03	7.503322E-03	5.296985E-04
6.037014E+03	7.304135E-03	5.162264E-04
6.046959E+03	7.126891E-03	5.042781E-04
6.056905E+03	6.971625E-03	4.938614E-04
6.066851E+03	6.837701E-03	4.849360E-04
6.076796E+03	6.724048E-03	4.774309E-04
6.086742E+03	6.629231E-03	4.712490E-04
6.096688E+03	6.551386E-03	4.662620E-04
6.106633E+03	6.488660E-03	4.623420E-04
6.116579E+03	6.438999E-03	4.593461E-04
6.126525E+03	6.400168E-03	4.571178E-04
6.136470E+03	6.370116E-03	4.555131E-04
6.146416E+03	6.346787E-03	4.543869E-04
6.156362E+03	6.328156E-03	4.535958E-04
6.166307E+03	6.312554E-03	4.530209E-04
6.176253E+03	6.298403E-03	4.525498E-04
6.186199E+03	6.284388E-03	4.520880E-04
6.196144E+03	6.269502E-03	4.515630E-04
6.206090E+03	6.253182E-03	4.509338E-04
6.216036E+03	6.235178E-03	4.501820E-04
6.225981E+03	6.215673E-03	4.493202E-04
6.235927E+03	6.195245E-03	4.483900E-04
6.245873E+03	6.174933E-03	4.474660E-04
6.255818E+03	6.156122E-03	4.466489E-04
6.265764E+03	6.140349E-03	4.460506E-04
6.275710E+03	6.129478E-03	4.458074E-04
6.285655E+03	6.125363E-03	4.460556E-04
6.295601E+03	6.130070E-03	4.469475E-04
6.305546E+03	6.145415E-03	4.486180E-04
6.315492E+03	6.173115E-03	4.511955E-04
6.325438E+03	6.214655E-03	4.547919E-04
6.335383E+03	6.271283E-03	4.595023E-04
6.345329E+03	6.343671E-03	4.653802E-04
6.355275E+03	6.432294E-03	4.724646E-04
6.365220E+03	6.536932E-03	4.807438E-04
6.375166E+03	6.656840E-03	4.901672E-04
6.385112E+03	6.790636E-03	5.006373E-04
6.395057E+03	6.936175E-03	5.119992E-04
6.405003E+03	7.090631E-03	5.240475E-04
6.414949E+03	7.250419E-03	5.365193E-04
6.424894E+03	7.411220E-03	5.490960E-04
6.434840E+03	7.568010E-03	5.614052E-04
6.444786E+03	7.715109E-03	5.730239E-04
6.454731E+03	7.846509E-03	5.835027E-04
6.464677E+03	7.955941E-03	5.923703E-04
6.474623E+03	8.037501E-03	5.991806E-04
6.484568E+03	8.085571E-03	6.035067E-04
6.494514E+03	8.095138E-03	6.049644E-04
6.504460E+03	8.062728E-03	6.032834E-04
6.514405E+03	7.985923E-03	5.982707E-04
6.524351E+03	7.864130E-03	5.898695E-04
6.534297E+03	7.698186E-03	5.781303E-04
6.544242E+03	7.490741E-03	5.632401E-04
6.554188E+03	7.245934E-03	5.454990E-04
6.564134E+03	6.969087E-03	5.252978E-04
6.574079E+03	6.666501E-03	5.031031E-04
6.584025E+03	6.344952E-03	4.794199E-04
6.593971E+03	6.011461E-03	4.547738E-04
6.603916E+03	5.672785E-03	4.296737E-04
6.613862E+03	5.335268E-03	4.045990E-04
6.623808E+03	5.004415E-03	3.799680E-04
6.633753E+03	4.685060E-03	3.561502E-04
6.643699E+03	4.380913E-03	3.334310E-04
6.653644E+03	4.094872E-03	3.120355E-04
6.663590E+03	3.828944E-03	2.921218E-04
6.673536E+03	3.584210E-03	2.737782E-04
6.683481E+03	3.361312E-03	2.570593E-04
6.693427E+03	3.160131E-03	2.419624E-04
6.703373E+03	2.980267E-03	2.284625E-04
6.713318E+03	2.821011E-03	2.165111E-04
6.723264E+03	2.681388E-03	2.060392E-04
6.733210E+03	2.560346E-03	1.969711E-04
6.743155E+03	2.456811E-03	1.892290E-04
6.753101E+03	2.369700E-03	1.827345E-04
6.763047E+03	2.297879E-03	1.774042E-04
6.772992E+03	2.240351E-03	1.731655E-04
6.782938E+03	2.196179E-03	1.699497E-04
6.792884E+03	2.164447E-03	1.676893E-04
6.802829E+03	2.144331E-03	1.663239E-04
6.812775E+03	2.135095E-03	1.657996E-04
6.822721E+03	2.136008E-03	1.660622E-04
6.832666E+03	2.146459E-03	1.670671E-04
6.842612E+03	2.165741E-03	1.687617E-04
6.852558E+03	2.193326E-03	1.711071E-04
6.862503E+03	2.228593E-03	1.740571E-04
6.872449E+03	2.270925E-03	1.775654E-04
6.882395E+03	2.319756E-03	1.815896E-04
6.892340E+03	2.374488E-03	1.860845E-04
6.902286E+03	2.434552E-03	1.910071E-04
6.912232E+03	2.499290E-03	1.963070E-04
6.922177E+03	2.568144E-03	2.019415E-04
6.932123E+03	2.640543E-03	2.078667E-04
6.942069E+03	2.715955E-03	2.140416E-04
6.952014E+03	2.793890E-03	2.204283E-04
6.961960E+03	2.873891E-03	2.269912E-04
6.971906E+03	2.955672E-03	2.337083E-04
6.981851E+03	3.038928E-03	2.405559E-04
6.991797E+03	3.123432E-03	2.475161E-04
7.001742E+03	3.209111E-03	2.545837E-04
7.011688E+03	3.295931E-03	2.617560E-04
7.021634E+03	3.383916E-03	2.690351E-04
7.031579E+03	3.473130E-03	2.764265E-04
7.041525E+03	3.563615E-03	2.839339E-04
7.051471E+03	3.655459E-03	2.915643E-04
7.061416E+03	3.748769E-03	2.993266E-04
7.071362E+03	3.843577E-03	3.072238E-04
7.081308E+03	3.939758E-03	3.152461E-04
7.091253E+03	4.037310E-03	3.233936E-04
7.101199E+03	4.136006E-03	3.316484E-04
7.111145E+03	4.235582E-03	3.399896E-04
7.121090E+03	4.335686E-03	3.483889E-04
7.131036E+03	4.435872E-03	3.568106E-04
7.140982E+03	4.535627E-03	3.652133E-04
7.150927E+03	4.634288E-03	3.735434E-04
7.160873E+03	4.731197E-03	3.817473E-04
7.170819E+03	4.825711E-03	3.897728E-04
7.180764E+03	4.917106E-03	3.975606E-04
7.190710E+03	5.004530E-03	4.050407E-04
7.200656E+03	5.087330E-03	4.121594E-04
7.210601E+03	5.164842E-03	4.188615E-04
7.220547E+03	5.236468E-03	4.250972E-04
7.230493E+03	5.301630E-03	4.308180E-04
7.240438E+03	5.359923E-03	4.359892E-04
7.250384E+03	5.411127E-03	4.405913E-04
7.260330E+03	5.454952E-03	4.445988E-04
7.270275E+03	5.491443E-03	4.480136E-04
7.280221E+03	5.520699E-03	4.508421E-04
7.290167E+03	5.542821E-03	4.530906E-04
7.300112E+03	5.558293E-03	4.547970E-04
7.310058E+03	5.567417E-03	4.559846E-04
7.320004E+03	5.570713E-03	4.566943E-04
7.329949E+03	5.568673E-03	4.569651E-04
7.339895E+03	5.561972E-03	4.568514E-04
7.349840E+03	5.551063E-03	4.563890E-04
7.359786E+03	5.536449E-03	4.556187E-04
7.369732E+03	5.518732E-03	4.545890E-04
7.379677E+03	5.498245E-03	4.533266E-04
7.389623E+03	5.475338E-03	4.518598E-04
7.399569E+03	5.450363E-03	4.502173E-04
7.409514E+03	5.423688E-03	4.484289E-04
7.419460E+03	5.395631E-03	4.465205E-04
7.429406E+03	5.366409E-03	4.445099E-04
7.439351E+03	5.336259E-03	4.424164E-04
7.449297E+03	5.305334E-03	4.402526E-04
7.459243E+03	5.273814E-03	4.380332E-04
7.469188E+03	5.241735E-03	4.357612E-04
7.479134E+03	5.209309E-03	4.334540E-04
7.489080E+03	5.176522E-03	4.311106E-04
7.499025E+03	5.143481E-03	4.287396E-04
7.508971E+03	5.110214E-03	4.263435E-04
7.518917E+03	5.076792E-03	4.239280E-04
7.528862E+03	5.043080E-03	4.214821E-04
7.538808E+03	5.009185E-03	4.190144E-04
7.548754E+03	4.975018E-03	4.165177E-04
7.558699E+03	4.940597E-03	4.139934E-04
7.568645E+03	4.905878E-03	4.114375E-04
7.578591E+03	4.870795E-03	4.088449E-04
7.588536E+03	4.835219E-03	4.062045E-04
7.598482E+03	4.799211E-03	4.035212E-04
7.608428E+03	4.762629E-03	4.007831E-04
7.618373E+03	4.725456E-03	3.979888E-04
7.628319E+03	4.687484E-03	3.951205E-04
7.638265E+03	4.648768E-03	3.921828E-04
7.648210E+03	4.609222E-03	3.891682E-04
7.658156E+03	4.568713E-03	3.860655E-04
7.668101E+03	4.527227E-03	3.828733E-04
7.678047E+03	4.484647E-03	3.795814E-04
7.687993E+03	4.440971E-03	3.761895E-04
7.697938E+03	4.396088E-03	3.726881E-04
7.707884E+03	4.350019E-03	3.690787E-04
7.717830E+03	4.302724E-03	3.653577E-04
