#wls	flux	fluxerr
1.591305E+03	2.906731E-04	4.264096E-05
1.631088E+03	2.880784E-04	4.218482E-05
1.670870E+03	2.847679E-04	4.162396E-05
1.710653E+03	2.808072E-04	4.096854E-05
1.750436E+03	2.760800E-04	4.020219E-05
1.790218E+03	2.705358E-04	3.931830E-05
1.830001E+03	2.639800E-04	3.828938E-05
1.869784E+03	2.561555E-04	3.707919E-05
1.909566E+03	2.469273E-04	3.566948E-05
1.949349E+03	2.362553E-04	3.405586E-05
1.989131E+03	2.244697E-04	3.228731E-05
2.028914E+03	2.123866E-04	3.048219E-05
2.068697E+03	2.015660E-04	2.886437E-05
2.108479E+03	1.939000E-04	2.770313E-05
2.148262E+03	1.909087E-04	2.721217E-05
2.188045E+03	1.930557E-04	2.745281E-05
2.227827E+03	1.995858E-04	2.831264E-05
2.267610E+03	2.090873E-04	2.958725E-05
2.307392E+03	2.201847E-04	3.107922E-05
2.347175E+03	2.318591E-04	3.264317E-05
2.386958E+03	2.435408E-04	3.419829E-05
2.426740E+03	2.550830E-04	3.572380E-05
2.466523E+03	2.664455E-04	3.721405E-05
2.506306E+03	2.777361E-04	3.868408E-05
2.546088E+03	2.892358E-04	4.017280E-05
2.585871E+03	3.010461E-04	4.169384E-05
2.625653E+03	3.134791E-04	4.328974E-05
2.665436E+03	3.266845E-04	4.498016E-05
2.705219E+03	3.409431E-04	4.680251E-05
2.745001E+03	3.564117E-04	4.877673E-05
2.784784E+03	3.734822E-04	5.095453E-05
2.824567E+03	3.922899E-04	5.335203E-05
2.864349E+03	4.132197E-04	5.601894E-05
2.904132E+03	4.365415E-04	5.898865E-05
2.943914E+03	4.626534E-04	6.231134E-05
2.983697E+03	4.919943E-04	6.604187E-05
2.993643E+03	4.998305E-04	6.703721E-05
3.003588E+03	5.079381E-04	6.806699E-05
3.013534E+03	5.163243E-04	6.913208E-05
3.023480E+03	5.249493E-04	7.022707E-05
3.033425E+03	5.338469E-04	7.135636E-05
3.043371E+03	5.431090E-04	7.253215E-05
3.053317E+03	5.526804E-04	7.374694E-05
3.063262E+03	5.625621E-04	7.500073E-05
3.073208E+03	5.728126E-04	7.630122E-05
3.083154E+03	5.834356E-04	7.764876E-05
3.093099E+03	5.943762E-04	7.903592E-05
3.103045E+03	6.056970E-04	8.047088E-05
3.112991E+03	6.173429E-04	8.194620E-05
3.122936E+03	6.293788E-04	8.347036E-05
3.132882E+03	6.418107E-04	8.504402E-05
3.142828E+03	6.545834E-04	8.665971E-05
3.152773E+03	6.678274E-04	8.833457E-05
3.162719E+03	6.814257E-04	9.005298E-05
3.172665E+03	6.953847E-04	9.181562E-05
3.182610E+03	7.098400E-04	9.364026E-05
3.192556E+03	7.246716E-04	9.551091E-05
3.202502E+03	7.400195E-04	9.744585E-05
3.212447E+03	7.557618E-04	9.942884E-05
3.222393E+03	7.720418E-04	1.014786E-04
3.232339E+03	7.887353E-04	1.035786E-04
3.242284E+03	8.059894E-04	1.057479E-04
3.252230E+03	8.236779E-04	1.079699E-04
3.262175E+03	8.419522E-04	1.102641E-04
3.272121E+03	8.607547E-04	1.126229E-04
3.282067E+03	8.800980E-04	1.150477E-04
3.292012E+03	8.999950E-04	1.175399E-04
3.301958E+03	9.205338E-04	1.201109E-04
3.311904E+03	9.416553E-04	1.227527E-04
3.321849E+03	9.634496E-04	1.254767E-04
3.331795E+03	9.858571E-04	1.282751E-04
3.341741E+03	1.008892E-03	1.311494E-04
3.351686E+03	1.032650E-03	1.341118E-04
3.361632E+03	1.057069E-03	1.371540E-04
3.371578E+03	1.082247E-03	1.402883E-04
3.381523E+03	1.108202E-03	1.435170E-04
3.391469E+03	1.134956E-03	1.468424E-04
3.401415E+03	1.162444E-03	1.502561E-04
3.411360E+03	1.190771E-03	1.537709E-04
3.421306E+03	1.219956E-03	1.573895E-04
3.431252E+03	1.250023E-03	1.611144E-04
3.441197E+03	1.280906E-03	1.649365E-04
3.451143E+03	1.312802E-03	1.688813E-04
3.461089E+03	1.345648E-03	1.729401E-04
3.471034E+03	1.379466E-03	1.771154E-04
3.480980E+03	1.414281E-03	1.814100E-04
3.490926E+03	1.450114E-03	1.858262E-04
3.500871E+03	1.486990E-03	1.903669E-04
3.510817E+03	1.525029E-03	1.950470E-04
3.520763E+03	1.564158E-03	1.998568E-04
3.530708E+03	1.604502E-03	2.048116E-04
3.540654E+03	1.645982E-03	2.099013E-04
3.550600E+03	1.688622E-03	2.151282E-04
3.560545E+03	1.732546E-03	2.205077E-04
3.570491E+03	1.777777E-03	2.260423E-04
3.580436E+03	1.824231E-03	2.317208E-04
3.590382E+03	1.872034E-03	2.375588E-04
3.600328E+03	1.921206E-03	2.435581E-04
3.610273E+03	1.971764E-03	2.497208E-04
3.620219E+03	2.023727E-03	2.560483E-04
3.630165E+03	2.076993E-03	2.625275E-04
3.640110E+03	2.131804E-03	2.691883E-04
3.650056E+03	2.187938E-03	2.760023E-04
3.660002E+03	2.245638E-03	2.829993E-04
3.669947E+03	2.304789E-03	2.901647E-04
3.679893E+03	2.365393E-03	2.974978E-04
3.689839E+03	2.427445E-03	3.049976E-04
3.699784E+03	2.491058E-03	3.126780E-04
3.709730E+03	2.556096E-03	3.205209E-04
3.719676E+03	2.622530E-03	3.285225E-04
3.729621E+03	2.690456E-03	3.366943E-04
3.739567E+03	2.759702E-03	3.450139E-04
3.749513E+03	2.830204E-03	3.534733E-04
3.759458E+03	2.902156E-03	3.620960E-04
3.769404E+03	2.975197E-03	3.708366E-04
3.779350E+03	3.049211E-03	3.796801E-04
3.789295E+03	3.124197E-03	3.886263E-04
3.799241E+03	3.199983E-03	3.976533E-04
3.809187E+03	3.276385E-03	4.067380E-04
3.819132E+03	3.353028E-03	4.158338E-04
3.829078E+03	3.429798E-03	4.249266E-04
3.839024E+03	3.506407E-03	4.339807E-04
3.848969E+03	3.582535E-03	4.429565E-04
3.858915E+03	3.657685E-03	4.517928E-04
3.868861E+03	3.731625E-03	4.604618E-04
3.878806E+03	3.804111E-03	4.689335E-04
3.888752E+03	3.874435E-03	4.771216E-04
3.898698E+03	3.942325E-03	4.849935E-04
3.908643E+03	4.007370E-03	4.924994E-04
3.918589E+03	4.069019E-03	4.995730E-04
3.928534E+03	4.127193E-03	5.062059E-04
3.938480E+03	4.181252E-03	5.123210E-04
3.948426E+03	4.231049E-03	5.179018E-04
3.958371E+03	4.276349E-03	5.229215E-04
3.968317E+03	4.316972E-03	5.273596E-04
3.978263E+03	4.352672E-03	5.311879E-04
3.988208E+03	4.383566E-03	5.344226E-04
3.998154E+03	4.409712E-03	5.370726E-04
4.008100E+03	4.431088E-03	5.391369E-04
4.018045E+03	4.447902E-03	5.406426E-04
4.027991E+03	4.460568E-03	5.416420E-04
4.037937E+03	4.469418E-03	5.421766E-04
4.047882E+03	4.474550E-03	5.422598E-04
4.057828E+03	4.476664E-03	5.419778E-04
4.067774E+03	4.476065E-03	5.413685E-04
4.077719E+03	4.473211E-03	5.404885E-04
4.087665E+03	4.468432E-03	5.393783E-04
4.097611E+03	4.462312E-03	5.381091E-04
4.107556E+03	4.455276E-03	5.367326E-04
4.117502E+03	4.447730E-03	5.352982E-04
4.127448E+03	4.439785E-03	5.338192E-04
4.137393E+03	4.432024E-03	5.323661E-04
4.147339E+03	4.424604E-03	5.309574E-04
4.157285E+03	4.417764E-03	5.296220E-04
4.167230E+03	4.411582E-03	5.283689E-04
4.177176E+03	4.406338E-03	5.272315E-04
4.187122E+03	4.402032E-03	5.262094E-04
4.197067E+03	4.398757E-03	5.253136E-04
4.207013E+03	4.396691E-03	5.245649E-04
4.216959E+03	4.395541E-03	5.239282E-04
4.226904E+03	4.395684E-03	5.234479E-04
4.236850E+03	4.396832E-03	5.230896E-04
4.246796E+03	4.399253E-03	5.228846E-04
4.256741E+03	4.402795E-03	5.228147E-04
4.266687E+03	4.407663E-03	5.229039E-04
4.276632E+03	4.413977E-03	5.231659E-04
4.286578E+03	4.421695E-03	5.235956E-04
4.296524E+03	4.431132E-03	5.242296E-04
4.306469E+03	4.442543E-03	5.250976E-04
4.316415E+03	4.456127E-03	5.262227E-04
4.326361E+03	4.472339E-03	5.276579E-04
4.336306E+03	4.491377E-03	5.294258E-04
4.346252E+03	4.513792E-03	5.315905E-04
4.356198E+03	4.539969E-03	5.341963E-04
4.366143E+03	4.570428E-03	5.373032E-04
4.376089E+03	4.605806E-03	5.409850E-04
4.386035E+03	4.646349E-03	5.452691E-04
4.395980E+03	4.692891E-03	5.502518E-04
4.405926E+03	4.745641E-03	5.559560E-04
4.415872E+03	4.805179E-03	5.624475E-04
4.425817E+03	4.871917E-03	5.697730E-04
4.435763E+03	4.946200E-03	5.779706E-04
4.445709E+03	5.028175E-03	5.870556E-04
4.455654E+03	5.117870E-03	5.970290E-04
4.465600E+03	5.215487E-03	6.079125E-04
4.475546E+03	5.320755E-03	6.196726E-04
4.485491E+03	5.433125E-03	6.322431E-04
4.495437E+03	5.552367E-03	6.455960E-04
4.505383E+03	5.677404E-03	6.596044E-04
4.515328E+03	5.807351E-03	6.741641E-04
4.525274E+03	5.940990E-03	6.891330E-04
4.535220E+03	6.076865E-03	7.043418E-04
4.545165E+03	6.213310E-03	7.195971E-04
4.555111E+03	6.348348E-03	7.346705E-04
4.565057E+03	6.479952E-03	7.493284E-04
4.575002E+03	6.606004E-03	7.633273E-04
4.584948E+03	6.724440E-03	7.764307E-04
4.594894E+03	6.832883E-03	7.883667E-04
4.604839E+03	6.929526E-03	7.989299E-04
4.614785E+03	7.012387E-03	8.078954E-04
4.624730E+03	7.079736E-03	8.150677E-04
4.634676E+03	7.130419E-03	8.203180E-04
4.644622E+03	7.163536E-03	8.235472E-04
4.654567E+03	7.178604E-03	8.247044E-04
4.664513E+03	7.175464E-03	8.237758E-04
4.674459E+03	7.154629E-03	8.208243E-04
4.684404E+03	7.116903E-03	8.159466E-04
4.694350E+03	7.063458E-03	8.092808E-04
4.704296E+03	6.995663E-03	8.009870E-04
4.714241E+03	6.915478E-03	7.912927E-04
4.724187E+03	6.824582E-03	7.803924E-04
4.734133E+03	6.725084E-03	7.685295E-04
4.744078E+03	6.619016E-03	7.559373E-04
4.754024E+03	6.508261E-03	7.428321E-04
4.763970E+03	6.394933E-03	7.294559E-04
4.773915E+03	6.280682E-03	7.159966E-04
4.783861E+03	6.167107E-03	7.026368E-04
4.793807E+03	6.055699E-03	6.895455E-04
4.803752E+03	5.947563E-03	6.768477E-04
4.813698E+03	5.843687E-03	6.646551E-04
4.823644E+03	5.744950E-03	6.530664E-04
4.833589E+03	5.651938E-03	6.421470E-04
4.843535E+03	5.564979E-03	6.319326E-04
4.853481E+03	5.484407E-03	6.224601E-04
4.863426E+03	5.410320E-03	6.137392E-04
4.873372E+03	5.342777E-03	6.057753E-04
4.883318E+03	5.281487E-03	5.985339E-04
4.893263E+03	5.226393E-03	5.920077E-04
4.903209E+03	5.177221E-03	5.861644E-04
4.913155E+03	5.133558E-03	5.809561E-04
4.923100E+03	5.095057E-03	5.763427E-04
4.933046E+03	5.061512E-03	5.723000E-04
4.942991E+03	5.032401E-03	5.687684E-04
4.952937E+03	5.007466E-03	5.657179E-04
4.962883E+03	4.986474E-03	5.631216E-04
4.972828E+03	4.969080E-03	5.609402E-04
4.982774E+03	4.955067E-03	5.591484E-04
4.992720E+03	4.944344E-03	5.577359E-04
5.002665E+03	4.936727E-03	5.566813E-04
5.012611E+03	4.932234E-03	5.559864E-04
5.022557E+03	4.930791E-03	5.556426E-04
5.032502E+03	4.932587E-03	5.556710E-04
5.042448E+03	4.937559E-03	5.560641E-04
5.052394E+03	4.945893E-03	5.568428E-04
5.062339E+03	4.957733E-03	5.580228E-04
5.072285E+03	4.973295E-03	5.596284E-04
5.082231E+03	4.992585E-03	5.616603E-04
5.092176E+03	5.015885E-03	5.641498E-04
5.102122E+03	5.043172E-03	5.670943E-04
5.112068E+03	5.074757E-03	5.705287E-04
5.122013E+03	5.110474E-03	5.744342E-04
5.131959E+03	5.150481E-03	5.788286E-04
5.141905E+03	5.194652E-03	5.836978E-04
5.151850E+03	5.242895E-03	5.890315E-04
5.161796E+03	5.295114E-03	5.948192E-04
5.171742E+03	5.351004E-03	6.010266E-04
5.181687E+03	5.410265E-03	6.076204E-04
5.191633E+03	5.472524E-03	6.145590E-04
5.201579E+03	5.537425E-03	6.218025E-04
5.211524E+03	5.604454E-03	6.292940E-04
5.221470E+03	5.672883E-03	6.369519E-04
5.231416E+03	5.742244E-03	6.447241E-04
5.241361E+03	5.811687E-03	6.525158E-04
5.251307E+03	5.880649E-03	6.602641E-04
5.261253E+03	5.948296E-03	6.678761E-04
5.271198E+03	6.013849E-03	6.752645E-04
5.281144E+03	6.076520E-03	6.823415E-04
5.291089E+03	6.135534E-03	6.890204E-04
5.301035E+03	6.190141E-03	6.952174E-04
5.310981E+03	6.239533E-03	7.008419E-04
5.320926E+03	6.283215E-03	7.058386E-04
5.330872E+03	6.320410E-03	7.101204E-04
5.340818E+03	6.350667E-03	7.136365E-04
5.350763E+03	6.373450E-03	7.163267E-04
5.360709E+03	6.388563E-03	7.181688E-04
5.370655E+03	6.395463E-03	7.191014E-04
5.380600E+03	6.394232E-03	7.191332E-04
5.390546E+03	6.384498E-03	7.182218E-04
5.400492E+03	6.366510E-03	7.163945E-04
5.410437E+03	6.340142E-03	7.136362E-04
5.420383E+03	6.305513E-03	7.099591E-04
5.430329E+03	6.262890E-03	7.053920E-04
5.440274E+03	6.212434E-03	6.999516E-04
5.450220E+03	6.154548E-03	6.936822E-04
5.460166E+03	6.089630E-03	6.866270E-04
5.470111E+03	6.018049E-03	6.788263E-04
5.480057E+03	5.940340E-03	6.703391E-04
5.490003E+03	5.857264E-03	6.612498E-04
5.499948E+03	5.769322E-03	6.516135E-04
5.509894E+03	5.677253E-03	6.415124E-04
5.519840E+03	5.582003E-03	6.310522E-04
5.529785E+03	5.484270E-03	6.203107E-04
5.539731E+03	5.385109E-03	6.094060E-04
5.549677E+03	5.285306E-03	5.984264E-04
5.559622E+03	5.185978E-03	5.874976E-04
5.569568E+03	5.088034E-03	5.767222E-04
5.579514E+03	4.992469E-03	5.662124E-04
5.589459E+03	4.900318E-03	5.560859E-04
5.599405E+03	4.812470E-03	5.464434E-04
5.609351E+03	4.729821E-03	5.373873E-04
5.619296E+03	4.653362E-03	5.290306E-04
5.629242E+03	4.583744E-03	5.214484E-04
5.639187E+03	4.521737E-03	5.147294E-04
5.649133E+03	4.467964E-03	5.089457E-04
5.659079E+03	4.423013E-03	5.041661E-04
5.669024E+03	4.387193E-03	5.004273E-04
5.678970E+03	4.360949E-03	4.977822E-04
5.688916E+03	4.344432E-03	4.962501E-04
5.698861E+03	4.337805E-03	4.958518E-04
5.708807E+03	4.340981E-03	4.965796E-04
5.718753E+03	4.353861E-03	4.984247E-04
5.728698E+03	4.376158E-03	5.013565E-04
5.738644E+03	4.407374E-03	5.053205E-04
5.748590E+03	4.446976E-03	5.102578E-04
5.758535E+03	4.494285E-03	5.160927E-04
5.768481E+03	4.548264E-03	5.227083E-04
5.778427E+03	4.607905E-03	5.299905E-04
5.788372E+03	4.672043E-03	5.378069E-04
5.798318E+03	4.739181E-03	5.459866E-04
5.808264E+03	4.807959E-03	5.543734E-04
5.818209E+03	4.876725E-03	5.627776E-04
5.828155E+03	4.943838E-03	5.710097E-04
5.838101E+03	5.007725E-03	5.788874E-04
5.848046E+03	5.066623E-03	5.862059E-04
5.857992E+03	5.119177E-03	5.928069E-04
5.867938E+03	5.164026E-03	5.985308E-04
5.877883E+03	5.199873E-03	6.032247E-04
5.887829E+03	5.225968E-03	6.067987E-04
5.897775E+03	5.241619E-03	6.091693E-04
5.907720E+03	5.246596E-03	6.103066E-04
5.917666E+03	5.240760E-03	6.101906E-04
5.927612E+03	5.224575E-03	6.088720E-04
5.937557E+03	5.198569E-03	6.064087E-04
5.947503E+03	5.163582E-03	6.028956E-04
5.957449E+03	5.120660E-03	5.984516E-04
5.967394E+03	5.071066E-03	5.932218E-04
5.977340E+03	5.015933E-03	5.873362E-04
5.987285E+03	4.956727E-03	5.809647E-04
5.997231E+03	4.894608E-03	5.742417E-04
6.007177E+03	4.830953E-03	5.673278E-04
6.017122E+03	4.766775E-03	5.603411E-04
6.027068E+03	4.703161E-03	5.534093E-04
6.037014E+03	4.641057E-03	5.466438E-04
6.046959E+03	4.581050E-03	5.401140E-04
6.056905E+03	4.523701E-03	5.338868E-04
6.066851E+03	4.469553E-03	5.280271E-04
6.076796E+03	4.418737E-03	5.225512E-04
6.086742E+03	4.371377E-03	5.174749E-04
6.096688E+03	4.327607E-03	5.128151E-04
6.106633E+03	4.287201E-03	5.085463E-04
6.116579E+03	4.249981E-03	5.046483E-04
6.126525E+03	4.215764E-03	5.011005E-04
6.136470E+03	4.184258E-03	4.978690E-04
6.146416E+03	4.155082E-03	4.949094E-04
6.156362E+03	4.127913E-03	4.921839E-04
6.166307E+03	4.102486E-03	4.896617E-04
6.176253E+03	4.078445E-03	4.873004E-04
6.186199E+03	4.055583E-03	4.850761E-04
6.196144E+03	4.033620E-03	4.829554E-04
6.206090E+03	4.012390E-03	4.809187E-04
6.216036E+03	3.991835E-03	4.789592E-04
6.225981E+03	3.971847E-03	4.770641E-04
6.235927E+03	3.952480E-03	4.752401E-04
6.245873E+03	3.933727E-03	4.734865E-04
6.255818E+03	3.915677E-03	4.718142E-04
6.265764E+03	3.898522E-03	4.702465E-04
6.275710E+03	3.882403E-03	4.688008E-04
6.285655E+03	3.867350E-03	4.674809E-04
6.295601E+03	3.853681E-03	4.663258E-04
6.305546E+03	3.841392E-03	4.653353E-04
6.315492E+03	3.830556E-03	4.645189E-04
6.325438E+03	3.821247E-03	4.638861E-04
6.335383E+03	3.813414E-03	4.634311E-04
6.345329E+03	3.806862E-03	4.631308E-04
6.355275E+03	3.801428E-03	4.629657E-04
6.365220E+03	3.796789E-03	4.628970E-04
6.375166E+03	3.792528E-03	4.628739E-04
6.385112E+03	3.788069E-03	4.628262E-04
6.395057E+03	3.782921E-03	4.626936E-04
6.405003E+03	3.776277E-03	4.623773E-04
6.414949E+03	3.767500E-03	4.617982E-04
6.424894E+03	3.755732E-03	4.608504E-04
6.434840E+03	3.740152E-03	4.594316E-04
6.444786E+03	3.719946E-03	4.574404E-04
6.454731E+03	3.694404E-03	4.547872E-04
6.464677E+03	3.662766E-03	4.513766E-04
6.474623E+03	3.624443E-03	4.471331E-04
6.484568E+03	3.579092E-03	4.420119E-04
6.494514E+03	3.526308E-03	4.359600E-04
6.504460E+03	3.465985E-03	4.289611E-04
6.514405E+03	3.398320E-03	4.210368E-04
6.524351E+03	3.323491E-03	4.122063E-04
6.534297E+03	3.242085E-03	4.025394E-04
6.544242E+03	3.154656E-03	3.921023E-04
6.554188E+03	3.062119E-03	3.810065E-04
6.564134E+03	2.965357E-03	3.693600E-04
6.574079E+03	2.865443E-03	3.572948E-04
6.584025E+03	2.763405E-03	3.449378E-04
6.593971E+03	2.660377E-03	3.324301E-04
6.603916E+03	2.557382E-03	3.198991E-04
6.613862E+03	2.455481E-03	3.074777E-04
6.623808E+03	2.355610E-03	2.952837E-04
6.633753E+03	2.258609E-03	2.834233E-04
6.643699E+03	2.165209E-03	2.719894E-04
6.653644E+03	2.075991E-03	2.610564E-04
6.663590E+03	1.991555E-03	2.507018E-04
6.673536E+03	1.912184E-03	2.409629E-04
6.683481E+03	1.838220E-03	2.318849E-04
6.693427E+03	1.769814E-03	2.234892E-04
6.703373E+03	1.707095E-03	2.157941E-04
6.713318E+03	1.650059E-03	2.088014E-04
6.723264E+03	1.598703E-03	2.025130E-04
6.733210E+03	1.552946E-03	1.969209E-04
6.743155E+03	1.512647E-03	1.920094E-04
6.753101E+03	1.477716E-03	1.877692E-04
6.763047E+03	1.447942E-03	1.841755E-04
6.772992E+03	1.423177E-03	1.812117E-04
6.782938E+03	1.403246E-03	1.788573E-04
6.792884E+03	1.387968E-03	1.770911E-04
6.802829E+03	1.377165E-03	1.758923E-04
6.812775E+03	1.370685E-03	1.752431E-04
6.822721E+03	1.368309E-03	1.751171E-04
6.832666E+03	1.369917E-03	1.755008E-04
6.842612E+03	1.375323E-03	1.763716E-04
6.852558E+03	1.384369E-03	1.777108E-04
6.862503E+03	1.396899E-03	1.794999E-04
6.872449E+03	1.412787E-03	1.817237E-04
6.882395E+03	1.431860E-03	1.843614E-04
6.892340E+03	1.453970E-03	1.873952E-04
6.902286E+03	1.478974E-03	1.908076E-04
6.912232E+03	1.506754E-03	1.945847E-04
6.922177E+03	1.537146E-03	1.987062E-04
6.932123E+03	1.570013E-03	2.031552E-04
6.942069E+03	1.605248E-03	2.079191E-04
6.952014E+03	1.642668E-03	2.129749E-04
6.961960E+03	1.682205E-03	2.183144E-04
6.971906E+03	1.723710E-03	2.239192E-04
6.981851E+03	1.767070E-03	2.297752E-04
6.991797E+03	1.812173E-03	2.358686E-04
7.001742E+03	1.858913E-03	2.421863E-04
7.011688E+03	1.907221E-03	2.487196E-04
7.021634E+03	1.956927E-03	2.554470E-04
7.031579E+03	2.007959E-03	2.623596E-04
7.041525E+03	2.060172E-03	2.694387E-04
7.051471E+03	2.113522E-03	2.766792E-04
7.061416E+03	2.167809E-03	2.840552E-04
7.071362E+03	2.222933E-03	2.915537E-04
7.081308E+03	2.278740E-03	2.991549E-04
7.091253E+03	2.335019E-03	3.068311E-04
7.101199E+03	2.391578E-03	3.145575E-04
7.111145E+03	2.448249E-03	3.223117E-04
7.121090E+03	2.504719E-03	3.300525E-04
7.131036E+03	2.560871E-03	3.377646E-04
7.140982E+03	2.616311E-03	3.453954E-04
7.150927E+03	2.670808E-03	3.529142E-04
7.160873E+03	2.724077E-03	3.602831E-04
7.170819E+03	2.775832E-03	3.674635E-04
7.180764E+03	2.825735E-03	3.744102E-04
7.190710E+03	2.873607E-03	3.810986E-04
7.200656E+03	2.919031E-03	3.874725E-04
7.210601E+03	2.961859E-03	3.935115E-04
7.220547E+03	3.001869E-03	3.991850E-04
7.230493E+03	3.038816E-03	4.044593E-04
7.240438E+03	3.072485E-03	4.093047E-04
7.250384E+03	3.102863E-03	4.137181E-04
7.260330E+03	3.129815E-03	4.176805E-04
7.270275E+03	3.153300E-03	4.211850E-04
7.280221E+03	3.173320E-03	4.242307E-04
7.290167E+03	3.189858E-03	4.268142E-04
7.300112E+03	3.203049E-03	4.289521E-04
7.310058E+03	3.213004E-03	4.306581E-04
7.320004E+03	3.219802E-03	4.319419E-04
7.329949E+03	3.223604E-03	4.328238E-04
7.339895E+03	3.224645E-03	4.333343E-04
7.349840E+03	3.223051E-03	4.334897E-04
7.359786E+03	3.219014E-03	4.333146E-04
7.369732E+03	3.212780E-03	4.328413E-04
7.379677E+03	3.204472E-03	4.320859E-04
7.389623E+03	3.194205E-03	4.310631E-04
7.399569E+03	3.182255E-03	4.298093E-04
7.409514E+03	3.168709E-03	4.283361E-04
7.419460E+03	3.153644E-03	4.266531E-04
7.429406E+03	3.137294E-03	4.247916E-04
7.439351E+03	3.119713E-03	4.227584E-04
7.449297E+03	3.100947E-03	4.205594E-04
7.459243E+03	3.081151E-03	4.182153E-04
7.469188E+03	3.060421E-03	4.157388E-04
7.479134E+03	3.038855E-03	4.131429E-04
7.489080E+03	3.016554E-03	4.104412E-04
7.499025E+03	2.993622E-03	4.076476E-04
7.508971E+03	2.970117E-03	4.047697E-04
7.518917E+03	2.946206E-03	4.018302E-04
7.528862E+03	2.922005E-03	3.988447E-04
7.538808E+03	2.897627E-03	3.958289E-04
7.548754E+03	2.873129E-03	3.927902E-04
7.558699E+03	2.848717E-03	3.897569E-04
7.568645E+03	2.824371E-03	3.867265E-04
7.578591E+03	2.800212E-03	3.837154E-04
7.588536E+03	2.776285E-03	3.807298E-04
7.598482E+03	2.752557E-03	3.777655E-04
7.608428E+03	2.729120E-03	3.748351E-04
7.618373E+03	2.705831E-03	3.719190E-04
7.628319E+03	2.682667E-03	3.690144E-04
7.638265E+03	2.659527E-03	3.661071E-04
7.648210E+03	2.636278E-03	3.631790E-04
7.658156E+03	2.612716E-03	3.602018E-04
7.668101E+03	2.588762E-03	3.571648E-04
7.678047E+03	2.564129E-03	3.540282E-04
7.687993E+03	2.538669E-03	3.507711E-04
7.697938E+03	2.512136E-03	3.473596E-04
7.707884E+03	2.484433E-03	3.437799E-04
7.717830E+03	2.455292E-03	3.399944E-04
