#wls	flux	fluxerr
1.591305E+03	2.899953E-04	3.071718E-05
1.631088E+03	2.874242E-04	3.039268E-05
1.670870E+03	2.840808E-04	2.998649E-05
1.710653E+03	2.800797E-04	2.951114E-05
1.750436E+03	2.753073E-04	2.895509E-05
1.790218E+03	2.696658E-04	2.830857E-05
1.830001E+03	2.630116E-04	2.755710E-05
1.869784E+03	2.550908E-04	2.667480E-05
1.909566E+03	2.457713E-04	2.564877E-05
1.949349E+03	2.349774E-04	2.447210E-05
1.989131E+03	2.230467E-04	2.318095E-05
2.028914E+03	2.108010E-04	2.186143E-05
2.068697E+03	1.998274E-04	2.067813E-05
2.108479E+03	1.919958E-04	1.982339E-05
2.148262E+03	1.887387E-04	1.944270E-05
2.188045E+03	1.905564E-04	1.958428E-05
2.227827E+03	1.966492E-04	2.016246E-05
2.267610E+03	2.055709E-04	2.102612E-05
2.307392E+03	2.160129E-04	2.203949E-05
2.347175E+03	2.268636E-04	2.308815E-05
2.386958E+03	2.376583E-04	2.412448E-05
2.426740E+03	2.481820E-04	2.512658E-05
2.466523E+03	2.583924E-04	2.609028E-05
2.506306E+03	2.684326E-04	2.703010E-05
2.546088E+03	2.784575E-04	2.796159E-05
2.585871E+03	2.886788E-04	2.890585E-05
2.625653E+03	2.993127E-04	2.988415E-05
2.665436E+03	3.104494E-04	3.090497E-05
2.705219E+03	3.223822E-04	3.199687E-05
2.745001E+03	3.352836E-04	3.317604E-05
2.784784E+03	3.493282E-04	3.445867E-05
2.824567E+03	3.646970E-04	3.586137E-05
2.864349E+03	3.816750E-04	3.741064E-05
2.904132E+03	4.004259E-04	3.912079E-05
2.943914E+03	4.212752E-04	4.102161E-05
2.983697E+03	4.444789E-04	4.313572E-05
2.993643E+03	4.506994E-04	4.370228E-05
3.003588E+03	4.570513E-04	4.428044E-05
3.013534E+03	4.636418E-04	4.488054E-05
3.023480E+03	4.703795E-04	4.549368E-05
3.033425E+03	4.773461E-04	4.612770E-05
3.043371E+03	4.845726E-04	4.678554E-05
3.053317E+03	4.920588E-04	4.746712E-05
3.063262E+03	4.997503E-04	4.816712E-05
3.073208E+03	5.077554E-04	4.889591E-05
3.083154E+03	5.160216E-04	4.964836E-05
3.093099E+03	5.244951E-04	5.041922E-05
3.103045E+03	5.332327E-04	5.121390E-05
3.112991E+03	5.422935E-04	5.203799E-05
3.122936E+03	5.515680E-04	5.288091E-05
3.132882E+03	5.611156E-04	5.374829E-05
3.142828E+03	5.709991E-04	5.464606E-05
3.152773E+03	5.811063E-04	5.556341E-05
3.162719E+03	5.915002E-04	5.650629E-05
3.172665E+03	6.021856E-04	5.747507E-05
3.182610E+03	6.132294E-04	5.847607E-05
3.192556E+03	6.245162E-04	5.949819E-05
3.202502E+03	6.361748E-04	6.055361E-05
3.212447E+03	6.480875E-04	6.163105E-05
3.222393E+03	6.603877E-04	6.274309E-05
3.232339E+03	6.730193E-04	6.388434E-05
3.242284E+03	6.859905E-04	6.505544E-05
3.252230E+03	6.993090E-04	6.625705E-05
3.262175E+03	7.129827E-04	6.748983E-05
3.272121E+03	7.270205E-04	6.875449E-05
3.282067E+03	7.414996E-04	7.005825E-05
3.292012E+03	7.563619E-04	7.139551E-05
3.301958E+03	7.716167E-04	7.276701E-05
3.311904E+03	7.872734E-04	7.417355E-05
3.321849E+03	8.034143E-04	7.562275E-05
3.331795E+03	8.199060E-04	7.710195E-05
3.341741E+03	8.369037E-04	7.862561E-05
3.351686E+03	8.544215E-04	8.019493E-05
3.361632E+03	8.723213E-04	8.179682E-05
3.371578E+03	8.907659E-04	8.344640E-05
3.381523E+03	9.096921E-04	8.513763E-05
3.391469E+03	9.291923E-04	8.687899E-05
3.401415E+03	9.492029E-04	8.866441E-05
3.411360E+03	9.697392E-04	9.049515E-05
3.421306E+03	9.908989E-04	9.238020E-05
3.431252E+03	1.012621E-03	9.431364E-05
3.441197E+03	1.034923E-03	9.629707E-05
3.451143E+03	1.057913E-03	9.834028E-05
3.461089E+03	1.081532E-03	1.004375E-04
3.471034E+03	1.105891E-03	1.025992E-04
3.480980E+03	1.130934E-03	1.048196E-04
3.490926E+03	1.156781E-03	1.071098E-04
3.500871E+03	1.183375E-03	1.094643E-04
3.510817E+03	1.210842E-03	1.118945E-04
3.520763E+03	1.239125E-03	1.143950E-04
3.530708E+03	1.268354E-03	1.169775E-04
3.540654E+03	1.298567E-03	1.196452E-04
3.550600E+03	1.329607E-03	1.223834E-04
3.560545E+03	1.361803E-03	1.252221E-04
3.570491E+03	1.394992E-03	1.281462E-04
3.580436E+03	1.429207E-03	1.311582E-04
3.590382E+03	1.464685E-03	1.342797E-04
3.600328E+03	1.501145E-03	1.374845E-04
3.610273E+03	1.538929E-03	1.408037E-04
3.620219E+03	1.577847E-03	1.442196E-04
3.630165E+03	1.617914E-03	1.477332E-04
3.640110E+03	1.659367E-03	1.513659E-04
3.650056E+03	1.701992E-03	1.550977E-04
3.660002E+03	1.745791E-03	1.589285E-04
3.669947E+03	1.790882E-03	1.628687E-04
3.679893E+03	1.837275E-03	1.669189E-04
3.689839E+03	1.884984E-03	1.710801E-04
3.699784E+03	1.933916E-03	1.753433E-04
3.709730E+03	1.984238E-03	1.797235E-04
3.719676E+03	2.035895E-03	1.842152E-04
3.729621E+03	2.089113E-03	1.888386E-04
3.739567E+03	2.144028E-03	1.936054E-04
3.749513E+03	2.200803E-03	1.985301E-04
3.759458E+03	2.259492E-03	2.036169E-04
3.769404E+03	2.320442E-03	2.088964E-04
3.779350E+03	2.383731E-03	2.143753E-04
3.789295E+03	2.449860E-03	2.200978E-04
3.799241E+03	2.518596E-03	2.260422E-04
3.809187E+03	2.590535E-03	2.322615E-04
3.819132E+03	2.665491E-03	2.387379E-04
3.829078E+03	2.743640E-03	2.454865E-04
3.839024E+03	2.824755E-03	2.524861E-04
3.848969E+03	2.908794E-03	2.597322E-04
3.858915E+03	2.995412E-03	2.671933E-04
3.868861E+03	3.083925E-03	2.748076E-04
3.878806E+03	3.173790E-03	2.825266E-04
3.888752E+03	3.263926E-03	2.902536E-04
3.898698E+03	3.353407E-03	2.979064E-04
3.908643E+03	3.440948E-03	3.053713E-04
3.918589E+03	3.524930E-03	3.125051E-04
3.928534E+03	3.603823E-03	3.191735E-04
3.938480E+03	3.676249E-03	3.252560E-04
3.948426E+03	3.740530E-03	3.306061E-04
3.958371E+03	3.795514E-03	3.351241E-04
3.968317E+03	3.839906E-03	3.386988E-04
3.978263E+03	3.873136E-03	3.412825E-04
3.988208E+03	3.894634E-03	3.428283E-04
3.998154E+03	3.904447E-03	3.433434E-04
4.008100E+03	3.903050E-03	3.428727E-04
4.018045E+03	3.891521E-03	3.415139E-04
4.027991E+03	3.870894E-03	3.393603E-04
4.037937E+03	3.842682E-03	3.365468E-04
4.047882E+03	3.808575E-03	3.332234E-04
4.057828E+03	3.770534E-03	3.295632E-04
4.067774E+03	3.729996E-03	3.256924E-04
4.077719E+03	3.688864E-03	3.217778E-04
4.087665E+03	3.648884E-03	3.179718E-04
4.097611E+03	3.611134E-03	3.143679E-04
4.107556E+03	3.576977E-03	3.110840E-04
4.117502E+03	3.547371E-03	3.082024E-04
4.127448E+03	3.523031E-03	3.057841E-04
4.137393E+03	3.504437E-03	3.038693E-04
4.147339E+03	3.491668E-03	3.024632E-04
4.157285E+03	3.484884E-03	3.015785E-04
4.167230E+03	3.483862E-03	3.011942E-04
4.177176E+03	3.488046E-03	3.012609E-04
4.187122E+03	3.496819E-03	3.017241E-04
4.197067E+03	3.509553E-03	3.025284E-04
4.207013E+03	3.525322E-03	3.035933E-04
4.216959E+03	3.542948E-03	3.048168E-04
4.226904E+03	3.561174E-03	3.060903E-04
4.236850E+03	3.579259E-03	3.073500E-04
4.246796E+03	3.595610E-03	3.084596E-04
4.256741E+03	3.609260E-03	3.093365E-04
4.266687E+03	3.619337E-03	3.099068E-04
4.276632E+03	3.624713E-03	3.100749E-04
4.286578E+03	3.624889E-03	3.097994E-04
4.296524E+03	3.619637E-03	3.090622E-04
4.306469E+03	3.608632E-03	3.078367E-04
4.316415E+03	3.592152E-03	3.061481E-04
4.326361E+03	3.570969E-03	3.040634E-04
4.336306E+03	3.546049E-03	3.016660E-04
4.346252E+03	3.518692E-03	2.990672E-04
4.356198E+03	3.490353E-03	2.963911E-04
4.366143E+03	3.462850E-03	2.937922E-04
4.376089E+03	3.438312E-03	2.914508E-04
4.386035E+03	3.418752E-03	2.895366E-04
4.395980E+03	3.406385E-03	2.882359E-04
4.405926E+03	3.403459E-03	2.877373E-04
4.415872E+03	3.412337E-03	2.882382E-04
4.425817E+03	3.435007E-03	2.899040E-04
4.435763E+03	3.473886E-03	2.929354E-04
4.445709E+03	3.530883E-03	2.974898E-04
4.455654E+03	3.608200E-03	3.037489E-04
4.465600E+03	3.707991E-03	3.118897E-04
4.475546E+03	3.831960E-03	3.220509E-04
4.485491E+03	3.981886E-03	3.343771E-04
4.495437E+03	4.159583E-03	3.490154E-04
4.505383E+03	4.365957E-03	3.660365E-04
4.515328E+03	4.601581E-03	3.854830E-04
4.525274E+03	4.866364E-03	4.073419E-04
4.535220E+03	5.158956E-03	4.314951E-04
4.545165E+03	5.476439E-03	4.576936E-04
4.555111E+03	5.814317E-03	4.855581E-04
4.565057E+03	6.166366E-03	5.145657E-04
4.575002E+03	6.524004E-03	5.439991E-04
4.584948E+03	6.877143E-03	5.730172E-04
4.594894E+03	7.213565E-03	6.006045E-04
4.604839E+03	7.521061E-03	6.257490E-04
4.614785E+03	7.786843E-03	6.473936E-04
4.624730E+03	7.999499E-03	6.645982E-04
4.634676E+03	8.150089E-03	6.766306E-04
4.644622E+03	8.232099E-03	6.829618E-04
4.654567E+03	8.243484E-03	6.834342E-04
4.664513E+03	8.186082E-03	6.782125E-04
4.674459E+03	8.064561E-03	6.676947E-04
4.684404E+03	7.887468E-03	6.525985E-04
4.694350E+03	7.664611E-03	6.337437E-04
4.704296E+03	7.406843E-03	6.120340E-04
4.714241E+03	7.125568E-03	5.884164E-04
4.724187E+03	6.831538E-03	5.637811E-04
4.734133E+03	6.533763E-03	5.388728E-04
4.744078E+03	6.240427E-03	5.143657E-04
4.754024E+03	5.957980E-03	4.907900E-04
4.763970E+03	5.691379E-03	4.685516E-04
4.773915E+03	5.444236E-03	4.479446E-04
4.783861E+03	5.218988E-03	4.291660E-04
4.793807E+03	5.016958E-03	4.123210E-04
4.803752E+03	4.839108E-03	3.974851E-04
4.813698E+03	4.685235E-03	3.846376E-04
4.823644E+03	4.555066E-03	3.737528E-04
4.833589E+03	4.447850E-03	3.647656E-04
4.843535E+03	4.362548E-03	3.575877E-04
4.853481E+03	4.297921E-03	3.521147E-04
4.863426E+03	4.252533E-03	3.482263E-04
4.873372E+03	4.224644E-03	3.457776E-04
4.883318E+03	4.212654E-03	3.446358E-04
4.893263E+03	4.214268E-03	3.446113E-04
4.903209E+03	4.227287E-03	3.455229E-04
4.913155E+03	4.249262E-03	3.471695E-04
4.923100E+03	4.277200E-03	3.493056E-04
4.933046E+03	4.308319E-03	3.517039E-04
4.942991E+03	4.339739E-03	3.541290E-04
4.952937E+03	4.368745E-03	3.563597E-04
4.962883E+03	4.392966E-03	3.582028E-04
4.972828E+03	4.410450E-03	3.595000E-04
4.982774E+03	4.420239E-03	3.601739E-04
4.992720E+03	4.421758E-03	3.601782E-04
5.002665E+03	4.415291E-03	3.595370E-04
5.012611E+03	4.401776E-03	3.583271E-04
5.022557E+03	4.382692E-03	3.566696E-04
5.032502E+03	4.359905E-03	3.547166E-04
5.042448E+03	4.335375E-03	3.526277E-04
5.052394E+03	4.311460E-03	3.505949E-04
5.062339E+03	4.290210E-03	3.487846E-04
5.072285E+03	4.273291E-03	3.473322E-04
5.082231E+03	4.262459E-03	3.463800E-04
5.092176E+03	4.259197E-03	3.460484E-04
5.102122E+03	4.264372E-03	3.464074E-04
5.112068E+03	4.279010E-03	3.475400E-04
5.122013E+03	4.303563E-03	3.494827E-04
5.131959E+03	4.338360E-03	3.522621E-04
5.141905E+03	4.383536E-03	3.558888E-04
5.151850E+03	4.439062E-03	3.603606E-04
5.161796E+03	4.504862E-03	3.656713E-04
5.171742E+03	4.580389E-03	3.717766E-04
5.181687E+03	4.665405E-03	3.786573E-04
5.191633E+03	4.759176E-03	3.862542E-04
5.201579E+03	4.861039E-03	3.945138E-04
5.211524E+03	4.969886E-03	4.033468E-04
5.221470E+03	5.084405E-03	4.126470E-04
5.231416E+03	5.203546E-03	4.223298E-04
5.241361E+03	5.325271E-03	4.322305E-04
5.251307E+03	5.447962E-03	4.422182E-04
5.261253E+03	5.569408E-03	4.521144E-04
5.271198E+03	5.687377E-03	4.617381E-04
5.281144E+03	5.799723E-03	4.709157E-04
5.291089E+03	5.904021E-03	4.794506E-04
5.301035E+03	5.998245E-03	4.871787E-04
5.310981E+03	6.080141E-03	4.939170E-04
5.320926E+03	6.148361E-03	4.995558E-04
5.330872E+03	6.201643E-03	5.039923E-04
5.340818E+03	6.239009E-03	5.071466E-04
5.350763E+03	6.260110E-03	5.089897E-04
5.360709E+03	6.265224E-03	5.095434E-04
5.370655E+03	6.254761E-03	5.088402E-04
5.380600E+03	6.229676E-03	5.069565E-04
5.390546E+03	6.191371E-03	5.040054E-04
5.400492E+03	6.141302E-03	5.001040E-04
5.410437E+03	6.080847E-03	4.953631E-04
5.420383E+03	6.011510E-03	4.899041E-04
5.430329E+03	5.934809E-03	4.838494E-04
5.440274E+03	5.851721E-03	4.772776E-04
5.450220E+03	5.763218E-03	4.702666E-04
5.460166E+03	5.669733E-03	4.628510E-04
5.470111E+03	5.571173E-03	4.550219E-04
5.480057E+03	5.467311E-03	4.467597E-04
5.490003E+03	5.357305E-03	4.379943E-04
5.499948E+03	5.240328E-03	4.286568E-04
5.509894E+03	5.115175E-03	4.186470E-04
5.519840E+03	4.980998E-03	4.078940E-04
5.529785E+03	4.837098E-03	3.963382E-04
5.539731E+03	4.683159E-03	3.839521E-04
5.549677E+03	4.519857E-03	3.707887E-04
5.559622E+03	4.348053E-03	3.569167E-04
5.569568E+03	4.170009E-03	3.425199E-04
5.579514E+03	3.988102E-03	3.277918E-04
5.589459E+03	3.805511E-03	3.129926E-04
5.599405E+03	3.625576E-03	2.983963E-04
5.609351E+03	3.451666E-03	2.842802E-04
5.619296E+03	3.286898E-03	2.709014E-04
5.629242E+03	3.134299E-03	2.585107E-04
5.639187E+03	2.996149E-03	2.472977E-04
5.649133E+03	2.874513E-03	2.374353E-04
5.659079E+03	2.770959E-03	2.290555E-04
5.669024E+03	2.686698E-03	2.222616E-04
5.678970E+03	2.622679E-03	2.171356E-04
5.688916E+03	2.579609E-03	2.137396E-04
5.698861E+03	2.558286E-03	2.121439E-04
5.708807E+03	2.559279E-03	2.123999E-04
5.718753E+03	2.583202E-03	2.145631E-04
5.728698E+03	2.630593E-03	2.186830E-04
5.738644E+03	2.702118E-03	2.248200E-04
5.748590E+03	2.798105E-03	2.330067E-04
5.758535E+03	2.918674E-03	2.432585E-04
5.768481E+03	3.063498E-03	2.555539E-04
5.778427E+03	3.231606E-03	2.698174E-04
5.788372E+03	3.421253E-03	2.859086E-04
5.798318E+03	3.629372E-03	3.035765E-04
5.808264E+03	3.852004E-03	3.224941E-04
5.818209E+03	4.083618E-03	3.422019E-04
5.828155E+03	4.317480E-03	3.621375E-04
5.838101E+03	4.545783E-03	3.816465E-04
5.848046E+03	4.759961E-03	4.000082E-04
5.857992E+03	4.951338E-03	4.164899E-04
5.867938E+03	5.111388E-03	4.303684E-04
5.877883E+03	5.232771E-03	4.410177E-04
5.887829E+03	5.310020E-03	4.479674E-04
5.897775E+03	5.339712E-03	4.509174E-04
5.907720E+03	5.321178E-03	4.497994E-04
5.917666E+03	5.256470E-03	4.447746E-04
5.927612E+03	5.150282E-03	4.362288E-04
5.937557E+03	5.009079E-03	4.246990E-04
5.947503E+03	4.840979E-03	4.108652E-04
5.957449E+03	4.654529E-03	3.954459E-04
5.967394E+03	4.458394E-03	3.791730E-04
5.977340E+03	4.260638E-03	3.627300E-04
5.987285E+03	4.068406E-03	3.467252E-04
5.997231E+03	3.887464E-03	3.316515E-04
6.007177E+03	3.722110E-03	3.178785E-04
6.017122E+03	3.575411E-03	3.056726E-04
6.027068E+03	3.449299E-03	2.952037E-04
6.037014E+03	3.344466E-03	2.865366E-04
6.046959E+03	3.260901E-03	2.796759E-04
6.056905E+03	3.197728E-03	2.745520E-04
6.066851E+03	3.153693E-03	2.710629E-04
6.076796E+03	3.126978E-03	2.690571E-04
6.086742E+03	3.115547E-03	2.683641E-04
6.096688E+03	3.117311E-03	2.688080E-04
6.106633E+03	3.129652E-03	2.701664E-04
6.116579E+03	3.150269E-03	2.722436E-04
6.126525E+03	3.176685E-03	2.748274E-04
6.136470E+03	3.206369E-03	2.777003E-04
6.146416E+03	3.237022E-03	2.806639E-04
6.156362E+03	3.266375E-03	2.835216E-04
6.166307E+03	3.292140E-03	2.860740E-04
6.176253E+03	3.312635E-03	2.881740E-04
6.186199E+03	3.325997E-03	2.896576E-04
6.196144E+03	3.330907E-03	2.904077E-04
6.206090E+03	3.326233E-03	2.903232E-04
6.216036E+03	3.311449E-03	2.893551E-04
6.225981E+03	3.286442E-03	2.874907E-04
6.235927E+03	3.251571E-03	2.847582E-04
6.245873E+03	3.207938E-03	2.812515E-04
6.255818E+03	3.157117E-03	2.771058E-04
6.265764E+03	3.101077E-03	2.724923E-04
6.275710E+03	3.042318E-03	2.676290E-04
6.285655E+03	2.983469E-03	2.627468E-04
6.295601E+03	2.927145E-03	2.580760E-04
6.305546E+03	2.876019E-03	2.538534E-04
6.315492E+03	2.832470E-03	2.502905E-04
6.325438E+03	2.798566E-03	2.475726E-04
6.335383E+03	2.775935E-03	2.458466E-04
6.345329E+03	2.766029E-03	2.452448E-04
6.355275E+03	2.769605E-03	2.458379E-04
6.365220E+03	2.787232E-03	2.476807E-04
6.375166E+03	2.818920E-03	2.507780E-04
6.385112E+03	2.864465E-03	2.551162E-04
6.395057E+03	2.922903E-03	2.606131E-04
6.405003E+03	2.993055E-03	2.671676E-04
6.414949E+03	3.072875E-03	2.746002E-04
6.424894E+03	3.159947E-03	2.826978E-04
6.434840E+03	3.251168E-03	2.911845E-04
6.444786E+03	3.342854E-03	2.997313E-04
6.454731E+03	3.430820E-03	3.079627E-04
6.464677E+03	3.510538E-03	3.154704E-04
6.474623E+03	3.577350E-03	3.218332E-04
6.484568E+03	3.626749E-03	3.266411E-04
6.494514E+03	3.654695E-03	3.295246E-04
6.504460E+03	3.657936E-03	3.301836E-04
6.514405E+03	3.634386E-03	3.284221E-04
6.524351E+03	3.582939E-03	3.241322E-04
6.534297E+03	3.504149E-03	3.173556E-04
6.544242E+03	3.399893E-03	3.082540E-04
6.554188E+03	3.272936E-03	2.970710E-04
6.564134E+03	3.127320E-03	2.841669E-04
6.574079E+03	2.967408E-03	2.699330E-04
6.584025E+03	2.797918E-03	2.547947E-04
6.593971E+03	2.623514E-03	2.391744E-04
6.603916E+03	2.448612E-03	2.234736E-04
6.613862E+03	2.276909E-03	2.080300E-04
6.623808E+03	2.111727E-03	1.931484E-04
6.633753E+03	1.955550E-03	1.790583E-04
6.643699E+03	1.810070E-03	1.659174E-04
6.653644E+03	1.676551E-03	1.538450E-04
6.663590E+03	1.555541E-03	1.428950E-04
6.673536E+03	1.447181E-03	1.330841E-04
6.683481E+03	1.351292E-03	1.243998E-04
6.693427E+03	1.267364E-03	1.167986E-04
6.703373E+03	1.194797E-03	1.102288E-04
6.713318E+03	1.132804E-03	1.046211E-04
6.723264E+03	1.080703E-03	9.991550E-05
6.733210E+03	1.037759E-03	9.604713E-05
6.743155E+03	1.003263E-03	9.295275E-05
6.753101E+03	9.765955E-04	9.057763E-05
6.763047E+03	9.572405E-04	8.887605E-05
6.772992E+03	9.446963E-04	8.780355E-05
6.782938E+03	9.385565E-04	8.732431E-05
6.792884E+03	9.384974E-04	8.741004E-05
6.802829E+03	9.442145E-04	8.803415E-05
6.812775E+03	9.553825E-04	8.916794E-05
6.822721E+03	9.718272E-04	9.079671E-05
6.832666E+03	9.932173E-04	9.289098E-05
6.842612E+03	1.019344E-03	9.543266E-05
6.852558E+03	1.049922E-03	9.839628E-05
6.862503E+03	1.084597E-03	1.017499E-04
6.872449E+03	1.122994E-03	1.054595E-04
6.882395E+03	1.164712E-03	1.094884E-04
6.892340E+03	1.209231E-03	1.137886E-04
6.902286E+03	1.256038E-03	1.183124E-04
6.912232E+03	1.304506E-03	1.230016E-04
6.922177E+03	1.354015E-03	1.277978E-04
6.932123E+03	1.403980E-03	1.326462E-04
6.942069E+03	1.453815E-03	1.374914E-04
6.952014E+03	1.502959E-03	1.422802E-04
6.961960E+03	1.550998E-03	1.469731E-04
6.971906E+03	1.597656E-03	1.515437E-04
6.981851E+03	1.642875E-03	1.559859E-04
6.991797E+03	1.686678E-03	1.603017E-04
7.001742E+03	1.729352E-03	1.645177E-04
7.011688E+03	1.771235E-03	1.686658E-04
7.021634E+03	1.812818E-03	1.727926E-04
7.031579E+03	1.854703E-03	1.769555E-04
7.041525E+03	1.897398E-03	1.812029E-04
7.051471E+03	1.941412E-03	1.855837E-04
7.061416E+03	1.987221E-03	1.901438E-04
7.071362E+03	2.035059E-03	1.949061E-04
7.081308E+03	2.085060E-03	1.998838E-04
7.091253E+03	2.137188E-03	2.050741E-04
7.101199E+03	2.191237E-03	2.104578E-04
7.111145E+03	2.246910E-03	2.160067E-04
7.121090E+03	2.303645E-03	2.216671E-04
7.131036E+03	2.360829E-03	2.273803E-04
7.140982E+03	2.417767E-03	2.330793E-04
7.150927E+03	2.473784E-03	2.386988E-04
7.160873E+03	2.527964E-03	2.441502E-04
7.170819E+03	2.579681E-03	2.493724E-04
7.180764E+03	2.628038E-03	2.542778E-04
7.190710E+03	2.672478E-03	2.588115E-04
7.200656E+03	2.712271E-03	2.629019E-04
7.210601E+03	2.746830E-03	2.664906E-04
7.220547E+03	2.775563E-03	2.695187E-04
7.230493E+03	2.798201E-03	2.719588E-04
7.240438E+03	2.814334E-03	2.737689E-04
7.250384E+03	2.823651E-03	2.749176E-04
7.260330E+03	2.826218E-03	2.754091E-04
7.270275E+03	2.821909E-03	2.752296E-04
7.280221E+03	2.811087E-03	2.744128E-04
7.290167E+03	2.793965E-03	2.729777E-04
7.300112E+03	2.771187E-03	2.709858E-04
7.310058E+03	2.743498E-03	2.685086E-04
7.320004E+03	2.711731E-03	2.656265E-04
7.329949E+03	2.677085E-03	2.624559E-04
7.339895E+03	2.640512E-03	2.590898E-04
7.349840E+03	2.603206E-03	2.556447E-04
7.359786E+03	2.566206E-03	2.522228E-04
7.369732E+03	2.530331E-03	2.489046E-04
7.379677E+03	2.496344E-03	2.457656E-04
7.389623E+03	2.464677E-03	2.428490E-04
7.399569E+03	2.435422E-03	2.401643E-04
7.409514E+03	2.408542E-03	2.377084E-04
7.419460E+03	2.383679E-03	2.354467E-04
7.429406E+03	2.360197E-03	2.333168E-04
7.439351E+03	2.337454E-03	2.312555E-04
7.449297E+03	2.314587E-03	2.291775E-04
7.459243E+03	2.290863E-03	2.270102E-04
7.469188E+03	2.265550E-03	2.246809E-04
7.479134E+03	2.237986E-03	2.221235E-04
7.489080E+03	2.207777E-03	2.192983E-04
7.499025E+03	2.174832E-03	2.161956E-04
7.508971E+03	2.139252E-03	2.128250E-04
7.518917E+03	2.101333E-03	2.092154E-04
7.528862E+03	2.061670E-03	2.054255E-04
7.538808E+03	2.021103E-03	2.015386E-04
7.548754E+03	1.980530E-03	1.976442E-04
7.558699E+03	1.940784E-03	1.938257E-04
7.568645E+03	1.902978E-03	1.901944E-04
7.578591E+03	1.867797E-03	1.868193E-04
7.588536E+03	1.836088E-03	1.837859E-04
7.598482E+03	1.808362E-03	1.811460E-04
7.608428E+03	1.785050E-03	1.789440E-04
7.618373E+03	1.766270E-03	1.771925E-04
7.628319E+03	1.751983E-03	1.758888E-04
7.638265E+03	1.742000E-03	1.750148E-04
7.648210E+03	1.735825E-03	1.745216E-04
7.658156E+03	1.732842E-03	1.743483E-04
7.668101E+03	1.732335E-03	1.744231E-04
7.678047E+03	1.733357E-03	1.746514E-04
7.687993E+03	1.734928E-03	1.749347E-04
7.697938E+03	1.736079E-03	1.751753E-04
7.707884E+03	1.735679E-03	1.752588E-04
7.717830E+03	1.732916E-03	1.751031E-04
