#wls	flux	fluxerr
1.591305E+03	2.256637E-04	5.884624E-05
1.631088E+03	2.238737E-04	5.837908E-05
1.670870E+03	2.214863E-04	5.775615E-05
1.710653E+03	2.185495E-04	5.698994E-05
1.750436E+03	2.150104E-04	5.606669E-05
1.790218E+03	2.107538E-04	5.495632E-05
1.830001E+03	2.056313E-04	5.362019E-05
1.869784E+03	1.994822E-04	5.201635E-05
1.909566E+03	1.922042E-04	5.011817E-05
1.949349E+03	1.837712E-04	4.791885E-05
1.989131E+03	1.743881E-04	4.547182E-05
2.028914E+03	1.647612E-04	4.296123E-05
2.068697E+03	1.560536E-04	4.069040E-05
2.108479E+03	1.497836E-04	3.905519E-05
2.148262E+03	1.470620E-04	3.834520E-05
2.188045E+03	1.482190E-04	3.864654E-05
2.227827E+03	1.526361E-04	3.979789E-05
2.267610E+03	1.591924E-04	4.150696E-05
2.307392E+03	1.668065E-04	4.349181E-05
2.347175E+03	1.746546E-04	4.553761E-05
2.386958E+03	1.822899E-04	4.752790E-05
2.426740E+03	1.895651E-04	4.942424E-05
2.466523E+03	1.964410E-04	5.121642E-05
2.506306E+03	2.030222E-04	5.293172E-05
2.546088E+03	2.094211E-04	5.459943E-05
2.585871E+03	2.157279E-04	5.624311E-05
2.625653E+03	2.221275E-04	5.791094E-05
2.665436E+03	2.287040E-04	5.962482E-05
2.705219E+03	2.355673E-04	6.141342E-05
2.745001E+03	2.428233E-04	6.330434E-05
2.784784E+03	2.506115E-04	6.533397E-05
2.824567E+03	2.590032E-04	6.752086E-05
2.864349E+03	2.681443E-04	6.990304E-05
2.904132E+03	2.781528E-04	7.251127E-05
2.943914E+03	2.891181E-04	7.536886E-05
2.983697E+03	3.012576E-04	7.853245E-05
2.993643E+03	3.044728E-04	7.937034E-05
3.003588E+03	3.077613E-04	8.022733E-05
3.013534E+03	3.111662E-04	8.111466E-05
3.023480E+03	3.146544E-04	8.202371E-05
3.033425E+03	3.182448E-04	8.295938E-05
3.043371E+03	3.219990E-04	8.393773E-05
3.053317E+03	3.258742E-04	8.494763E-05
3.063262E+03	3.298689E-04	8.598866E-05
3.073208E+03	3.339824E-04	8.706068E-05
3.083154E+03	3.382579E-04	8.817489E-05
3.093099E+03	3.426529E-04	8.932028E-05
3.103045E+03	3.471673E-04	9.049676E-05
3.112991E+03	3.518025E-04	9.170470E-05
3.122936E+03	3.566042E-04	9.295608E-05
3.132882E+03	3.615302E-04	9.423980E-05
3.142828E+03	3.665820E-04	9.555635E-05
3.152773E+03	3.717621E-04	9.690631E-05
3.162719E+03	3.771198E-04	9.830257E-05
3.172665E+03	3.826123E-04	9.973392E-05
3.182610E+03	3.882425E-04	1.012012E-04
3.192556E+03	3.940627E-04	1.027180E-04
3.202502E+03	4.000293E-04	1.042729E-04
3.212447E+03	4.061467E-04	1.058671E-04
3.222393E+03	4.124189E-04	1.075017E-04
3.232339E+03	4.189022E-04	1.091912E-04
3.242284E+03	4.255516E-04	1.109241E-04
3.252230E+03	4.323732E-04	1.127018E-04
3.262175E+03	4.394255E-04	1.145397E-04
3.272121E+03	4.466629E-04	1.164258E-04
3.282067E+03	4.540926E-04	1.183620E-04
3.292012E+03	4.617212E-04	1.203500E-04
3.301958E+03	4.696117E-04	1.224063E-04
3.311904E+03	4.777180E-04	1.245188E-04
3.321849E+03	4.860475E-04	1.266895E-04
3.331795E+03	4.946672E-04	1.289358E-04
3.341741E+03	5.035301E-04	1.312454E-04
3.351686E+03	5.126447E-04	1.336207E-04
3.361632E+03	5.220218E-04	1.360644E-04
3.371578E+03	5.317323E-04	1.385949E-04
3.381523E+03	5.417279E-04	1.411997E-04
3.391469E+03	5.520198E-04	1.438818E-04
3.401415E+03	5.626836E-04	1.466607E-04
3.411360E+03	5.736052E-04	1.495069E-04
3.421306E+03	5.849923E-04	1.524743E-04
3.431252E+03	5.966633E-04	1.555157E-04
3.441197E+03	6.087657E-04	1.586696E-04
3.451143E+03	6.212483E-04	1.619225E-04
3.461089E+03	6.341266E-04	1.652786E-04
3.471034E+03	6.474172E-04	1.687420E-04
3.480980E+03	6.612090E-04	1.723361E-04
3.490926E+03	6.754500E-04	1.760472E-04
3.500871E+03	6.902334E-04	1.798997E-04
3.510817E+03	7.054300E-04	1.838598E-04
3.520763E+03	7.212116E-04	1.879724E-04
3.530708E+03	7.375244E-04	1.922234E-04
3.540654E+03	7.544708E-04	1.966395E-04
3.550600E+03	7.719968E-04	2.012066E-04
3.560545E+03	7.901263E-04	2.059310E-04
3.570491E+03	8.088849E-04	2.108193E-04
3.580436E+03	8.282992E-04	2.158785E-04
3.590382E+03	8.484858E-04	2.211389E-04
3.600328E+03	8.693880E-04	2.265858E-04
3.610273E+03	8.911291E-04	2.322513E-04
3.620219E+03	9.135584E-04	2.380961E-04
3.630165E+03	9.368956E-04	2.441775E-04
3.640110E+03	9.610838E-04	2.504806E-04
3.650056E+03	9.862606E-04	2.570413E-04
3.660002E+03	1.012266E-03	2.638179E-04
3.669947E+03	1.039343E-03	2.708738E-04
3.679893E+03	1.067434E-03	2.781940E-04
3.689839E+03	1.096585E-03	2.857902E-04
3.699784E+03	1.126954E-03	2.937039E-04
3.709730E+03	1.158484E-03	3.019201E-04
3.719676E+03	1.191227E-03	3.104526E-04
3.729621E+03	1.225239E-03	3.193155E-04
3.739567E+03	1.260701E-03	3.285561E-04
3.749513E+03	1.297429E-03	3.381269E-04
3.759458E+03	1.335739E-03	3.481096E-04
3.769404E+03	1.375573E-03	3.584897E-04
3.779350E+03	1.417140E-03	3.693213E-04
3.789295E+03	1.460246E-03	3.805537E-04
3.799241E+03	1.505243E-03	3.922789E-04
3.809187E+03	1.552072E-03	4.044815E-04
3.819132E+03	1.600804E-03	4.171801E-04
3.829078E+03	1.651647E-03	4.304286E-04
3.839024E+03	1.704316E-03	4.441529E-04
3.848969E+03	1.759105E-03	4.584297E-04
3.858915E+03	1.815785E-03	4.731992E-04
3.868861E+03	1.874209E-03	4.884228E-04
3.878806E+03	1.934138E-03	5.040387E-04
3.888752E+03	1.995219E-03	5.199547E-04
3.898698E+03	2.057148E-03	5.360916E-04
3.908643E+03	2.119107E-03	5.522363E-04
3.918589E+03	2.180116E-03	5.681332E-04
3.928534E+03	2.239643E-03	5.836439E-04
3.938480E+03	2.296480E-03	5.984534E-04
3.948426E+03	2.349805E-03	6.123475E-04
3.958371E+03	2.398229E-03	6.249645E-04
3.968317E+03	2.441313E-03	6.361900E-04
3.978263E+03	2.477951E-03	6.457355E-04
3.988208E+03	2.508141E-03	6.536006E-04
3.998154E+03	2.531494E-03	6.596840E-04
4.008100E+03	2.547891E-03	6.639548E-04
4.018045E+03	2.558168E-03	6.666305E-04
4.027991E+03	2.562759E-03	6.678247E-04
4.037937E+03	2.562771E-03	6.678257E-04
4.047882E+03	2.558854E-03	6.668028E-04
4.057828E+03	2.552452E-03	6.651325E-04
4.067774E+03	2.544847E-03	6.631486E-04
4.077719E+03	2.537527E-03	6.612390E-04
4.087665E+03	2.531269E-03	6.596061E-04
4.097611E+03	2.527345E-03	6.585816E-04
4.107556E+03	2.526821E-03	6.584431E-04
4.117502E+03	2.529932E-03	6.592516E-04
4.127448E+03	2.537547E-03	6.612340E-04
4.137393E+03	2.549487E-03	6.643433E-04
4.147339E+03	2.566220E-03	6.687015E-04
4.157285E+03	2.587210E-03	6.741691E-04
4.167230E+03	2.612379E-03	6.807255E-04
4.177176E+03	2.641493E-03	6.883098E-04
4.187122E+03	2.673522E-03	6.966537E-04
4.197067E+03	2.708129E-03	7.056695E-04
4.207013E+03	2.743987E-03	7.150110E-04
4.216959E+03	2.780334E-03	7.244799E-04
4.226904E+03	2.816154E-03	7.338117E-04
4.236850E+03	2.850428E-03	7.427404E-04
4.246796E+03	2.882173E-03	7.510101E-04
4.256741E+03	2.910483E-03	7.583848E-04
4.266687E+03	2.934531E-03	7.646489E-04
4.276632E+03	2.953565E-03	7.696063E-04
4.286578E+03	2.966923E-03	7.730850E-04
4.296524E+03	2.973835E-03	7.748841E-04
4.306469E+03	2.974167E-03	7.749686E-04
4.316415E+03	2.968010E-03	7.733621E-04
4.326361E+03	2.955019E-03	7.699752E-04
4.336306E+03	2.935818E-03	7.649700E-04
4.346252E+03	2.911116E-03	7.585316E-04
4.356198E+03	2.881721E-03	7.508706E-04
4.366143E+03	2.849435E-03	7.424561E-04
4.376089E+03	2.815541E-03	7.336228E-04
4.386035E+03	2.782261E-03	7.249497E-04
4.395980E+03	2.751844E-03	7.170223E-04
4.405926E+03	2.726736E-03	7.104785E-04
4.415872E+03	2.709469E-03	7.059778E-04
4.425817E+03	2.702311E-03	7.041112E-04
4.435763E+03	2.707794E-03	7.055381E-04
4.445709E+03	2.728116E-03	7.108318E-04
4.455654E+03	2.765327E-03	7.205258E-04
4.465600E+03	2.821306E-03	7.351099E-04
4.475546E+03	2.897628E-03	7.549946E-04
4.485491E+03	2.996214E-03	7.806802E-04
4.495437E+03	3.118680E-03	8.125876E-04
4.505383E+03	3.266290E-03	8.510465E-04
4.515328E+03	3.440540E-03	8.964462E-04
4.525274E+03	3.642275E-03	9.490074E-04
4.535220E+03	3.871684E-03	1.008779E-03
4.545165E+03	4.127628E-03	1.075464E-03
4.555111E+03	4.408338E-03	1.148601E-03
4.565057E+03	4.708763E-03	1.226875E-03
4.575002E+03	5.023825E-03	1.308963E-03
4.584948E+03	5.344855E-03	1.392605E-03
4.594894E+03	5.662372E-03	1.475332E-03
4.604839E+03	5.965234E-03	1.554240E-03
4.614785E+03	6.241281E-03	1.626162E-03
4.624730E+03	6.479334E-03	1.688183E-03
4.634676E+03	6.668502E-03	1.737468E-03
4.644622E+03	6.801421E-03	1.772097E-03
4.654567E+03	6.871658E-03	1.790395E-03
4.664513E+03	6.876911E-03	1.791761E-03
4.674459E+03	6.819265E-03	1.776739E-03
4.684404E+03	6.701630E-03	1.746087E-03
4.694350E+03	6.532318E-03	1.701971E-03
4.704296E+03	6.319392E-03	1.646492E-03
4.714241E+03	6.073423E-03	1.582404E-03
4.724187E+03	5.804457E-03	1.512324E-03
4.734133E+03	5.523022E-03	1.438995E-03
4.744078E+03	5.238269E-03	1.364803E-03
4.754024E+03	4.957633E-03	1.291683E-03
4.763970E+03	4.687675E-03	1.221346E-03
4.773915E+03	4.433130E-03	1.155025E-03
4.783861E+03	4.197130E-03	1.093535E-03
4.793807E+03	3.982258E-03	1.037551E-03
4.803752E+03	3.789599E-03	9.873537E-04
4.813698E+03	3.619932E-03	9.431472E-04
4.823644E+03	3.473076E-03	9.048842E-04
4.833589E+03	3.348119E-03	8.723270E-04
4.843535E+03	3.244219E-03	8.452559E-04
4.853481E+03	3.159767E-03	8.232521E-04
4.863426E+03	3.093418E-03	8.059645E-04
4.873372E+03	3.043562E-03	7.929745E-04
4.883318E+03	3.008375E-03	7.838064E-04
4.893263E+03	2.986382E-03	7.780757E-04
4.903209E+03	2.975587E-03	7.752630E-04
4.913155E+03	2.974176E-03	7.748949E-04
4.923100E+03	2.979752E-03	7.763472E-04
4.933046E+03	2.990149E-03	7.790559E-04
4.942991E+03	3.002918E-03	7.823821E-04
4.952937E+03	3.015488E-03	7.856570E-04
4.962883E+03	3.026037E-03	7.884053E-04
4.972828E+03	3.032952E-03	7.902065E-04
4.982774E+03	3.035654E-03	7.909104E-04
4.992720E+03	3.034075E-03	7.904989E-04
5.002665E+03	3.028673E-03	7.890911E-04
5.012611E+03	3.020821E-03	7.870453E-04
5.022557E+03	3.011789E-03	7.846922E-04
5.032502E+03	3.003352E-03	7.824939E-04
5.042448E+03	2.997124E-03	7.808713E-04
5.052394E+03	2.994499E-03	7.801875E-04
5.062339E+03	2.996973E-03	7.808322E-04
5.072285E+03	3.006071E-03	7.832026E-04
5.082231E+03	3.022846E-03	7.875734E-04
5.092176E+03	3.047792E-03	7.940728E-04
5.102122E+03	3.081430E-03	8.028372E-04
5.112068E+03	3.123782E-03	8.138719E-04
5.122013E+03	3.174355E-03	8.270484E-04
5.131959E+03	3.232775E-03	8.422696E-04
5.141905E+03	3.298071E-03	8.592822E-04
5.151850E+03	3.369495E-03	8.778914E-04
5.161796E+03	3.445757E-03	8.977613E-04
5.171742E+03	3.525912E-03	9.186455E-04
5.181687E+03	3.608786E-03	9.402383E-04
5.191633E+03	3.692977E-03	9.621741E-04
5.201579E+03	3.777543E-03	9.842078E-04
5.211524E+03	3.861154E-03	1.005993E-03
5.221470E+03	3.942974E-03	1.027311E-03
5.231416E+03	4.021970E-03	1.047894E-03
5.241361E+03	4.096852E-03	1.067405E-03
5.251307E+03	4.166826E-03	1.085637E-03
5.261253E+03	4.230548E-03	1.102240E-03
5.271198E+03	4.287139E-03	1.116986E-03
5.281144E+03	4.335415E-03	1.129565E-03
5.291089E+03	4.373908E-03	1.139596E-03
5.301035E+03	4.401681E-03	1.146833E-03
5.310981E+03	4.417318E-03	1.150909E-03
5.320926E+03	4.420365E-03	1.151704E-03
5.330872E+03	4.409222E-03	1.148802E-03
5.340818E+03	4.384169E-03	1.142276E-03
5.350763E+03	4.344223E-03	1.131870E-03
5.360709E+03	4.290368E-03	1.117840E-03
5.370655E+03	4.222660E-03	1.100201E-03
5.380600E+03	4.142372E-03	1.079284E-03
5.390546E+03	4.050666E-03	1.055392E-03
5.400492E+03	3.949751E-03	1.029101E-03
5.410437E+03	3.840822E-03	1.000721E-03
5.420383E+03	3.726598E-03	9.709619E-04
5.430329E+03	3.608617E-03	9.402238E-04
5.440274E+03	3.488752E-03	9.089949E-04
5.450220E+03	3.369062E-03	8.778114E-04
5.460166E+03	3.250254E-03	8.468573E-04
5.470111E+03	3.133823E-03	8.165229E-04
5.480057E+03	3.019797E-03	7.868149E-04
5.490003E+03	2.908355E-03	7.577798E-04
5.499948E+03	2.799093E-03	7.293130E-04
5.509894E+03	2.691130E-03	7.011845E-04
5.519840E+03	2.583794E-03	6.732192E-04
5.529785E+03	2.476330E-03	6.452204E-04
5.539731E+03	2.368084E-03	6.170179E-04
5.549677E+03	2.259061E-03	5.886127E-04
5.559622E+03	2.149484E-03	5.600630E-04
5.569568E+03	2.040502E-03	5.316683E-04
5.579514E+03	1.933152E-03	5.036988E-04
5.589459E+03	1.829023E-03	4.765682E-04
5.599405E+03	1.730069E-03	4.507861E-04
5.609351E+03	1.637759E-03	4.267348E-04
5.619296E+03	1.553656E-03	4.048220E-04
5.629242E+03	1.478846E-03	3.853304E-04
5.639187E+03	1.414307E-03	3.685151E-04
5.649133E+03	1.360641E-03	3.545327E-04
5.659079E+03	1.318227E-03	3.434823E-04
5.669024E+03	1.287271E-03	3.354170E-04
5.678970E+03	1.268140E-03	3.304331E-04
5.688916E+03	1.261191E-03	3.286234E-04
5.698861E+03	1.266792E-03	3.300839E-04
5.708807E+03	1.285574E-03	3.349788E-04
5.718753E+03	1.317850E-03	3.433897E-04
5.728698E+03	1.364116E-03	3.554464E-04
5.738644E+03	1.425123E-03	3.713439E-04
5.748590E+03	1.501350E-03	3.912077E-04
5.758535E+03	1.593503E-03	4.152214E-04
5.768481E+03	1.701906E-03	4.434693E-04
5.778427E+03	1.826752E-03	4.760023E-04
5.788372E+03	1.967219E-03	5.126059E-04
5.798318E+03	2.122027E-03	5.529464E-04
5.808264E+03	2.288839E-03	5.964153E-04
5.818209E+03	2.464110E-03	6.420886E-04
5.828155E+03	2.643526E-03	6.888426E-04
5.838101E+03	2.821733E-03	7.352814E-04
5.848046E+03	2.992607E-03	7.798101E-04
5.857992E+03	3.149557E-03	8.207107E-04
5.867938E+03	3.285757E-03	8.562046E-04
5.877883E+03	3.395206E-03	8.847276E-04
5.887829E+03	3.472752E-03	9.049377E-04
5.897775E+03	3.514858E-03	9.159129E-04
5.907720E+03	3.519739E-03	9.171882E-04
5.917666E+03	3.488448E-03	9.090372E-04
5.927612E+03	3.423436E-03	8.920990E-04
5.937557E+03	3.329632E-03	8.676582E-04
5.947503E+03	3.212880E-03	8.372370E-04
5.957449E+03	3.080381E-03	8.027122E-04
5.967394E+03	2.938677E-03	7.657884E-04
5.977340E+03	2.794421E-03	7.281994E-04
5.987285E+03	2.653260E-03	6.914166E-04
5.997231E+03	2.519790E-03	6.566379E-04
6.007177E+03	2.397411E-03	6.247490E-04
6.017122E+03	2.288223E-03	5.962975E-04
6.027068E+03	2.193776E-03	5.716872E-04
6.037014E+03	2.114254E-03	5.509661E-04
6.046959E+03	2.049558E-03	5.341088E-04
6.056905E+03	1.998975E-03	5.209287E-04
6.066851E+03	1.961308E-03	5.111147E-04
6.076796E+03	1.935399E-03	5.043646E-04
6.086742E+03	1.919404E-03	5.001983E-04
6.096688E+03	1.911710E-03	4.981949E-04
6.106633E+03	1.910483E-03	4.978772E-04
6.116579E+03	1.913840E-03	4.987539E-04
6.126525E+03	1.919914E-03	5.003387E-04
6.136470E+03	1.926908E-03	5.021632E-04
6.146416E+03	1.933015E-03	5.037565E-04
6.156362E+03	1.936943E-03	5.047822E-04
6.166307E+03	1.937166E-03	5.048420E-04
6.176253E+03	1.932741E-03	5.036909E-04
6.186199E+03	1.922859E-03	5.011174E-04
6.196144E+03	1.906984E-03	4.969819E-04
6.206090E+03	1.884864E-03	4.912192E-04
6.216036E+03	1.856561E-03	4.838449E-04
6.225981E+03	1.822363E-03	4.749342E-04
6.235927E+03	1.783211E-03	4.647325E-04
6.245873E+03	1.739923E-03	4.534527E-04
6.255818E+03	1.693937E-03	4.414697E-04
6.265764E+03	1.646756E-03	4.291751E-04
6.275710E+03	1.600044E-03	4.170027E-04
6.285655E+03	1.555164E-03	4.053077E-04
6.295601E+03	1.513610E-03	3.944792E-04
6.305546E+03	1.476928E-03	3.849206E-04
6.315492E+03	1.446246E-03	3.769258E-04
6.325438E+03	1.422636E-03	3.707739E-04
6.335383E+03	1.406906E-03	3.666755E-04
6.345329E+03	1.399932E-03	3.648595E-04
6.355275E+03	1.402090E-03	3.654232E-04
6.365220E+03	1.413832E-03	3.684849E-04
6.375166E+03	1.435395E-03	3.741063E-04
6.385112E+03	1.466522E-03	3.822202E-04
6.395057E+03	1.506914E-03	3.927494E-04
6.405003E+03	1.555781E-03	4.054872E-04
6.414949E+03	1.611904E-03	4.201162E-04
6.424894E+03	1.673642E-03	4.362087E-04
6.434840E+03	1.738914E-03	4.532228E-04
6.444786E+03	1.805116E-03	4.704792E-04
6.454731E+03	1.869652E-03	4.873014E-04
6.464677E+03	1.929410E-03	5.028785E-04
6.474623E+03	1.981210E-03	5.163816E-04
6.484568E+03	2.022383E-03	5.271151E-04
6.494514E+03	2.050153E-03	5.343551E-04
6.504460E+03	2.062792E-03	5.376514E-04
6.514405E+03	2.058797E-03	5.366120E-04
6.524351E+03	2.038030E-03	5.312015E-04
6.534297E+03	2.000712E-03	5.214767E-04
6.544242E+03	1.948233E-03	5.078001E-04
6.554188E+03	1.882654E-03	4.907091E-04
6.564134E+03	1.806141E-03	4.707679E-04
6.574079E+03	1.721421E-03	4.486874E-04
6.584025E+03	1.631127E-03	4.251542E-04
6.593971E+03	1.537794E-03	4.008283E-04
6.603916E+03	1.443776E-03	3.763237E-04
6.613862E+03	1.351188E-03	3.521918E-04
6.623808E+03	1.261826E-03	3.289005E-04
6.633753E+03	1.177108E-03	3.068196E-04
6.643699E+03	1.098075E-03	2.862204E-04
6.653644E+03	1.025414E-03	2.672817E-04
6.663590E+03	9.594927E-04	2.500998E-04
6.673536E+03	9.004158E-04	2.347018E-04
6.683481E+03	8.480981E-04	2.210656E-04
6.693427E+03	8.023287E-04	2.091361E-04
6.703373E+03	7.627656E-04	1.988242E-04
6.713318E+03	7.291728E-04	1.900686E-04
6.723264E+03	7.011530E-04	1.827655E-04
6.733210E+03	6.783147E-04	1.768131E-04
6.743155E+03	6.604170E-04	1.721484E-04
6.753101E+03	6.471185E-04	1.686825E-04
6.763047E+03	6.381159E-04	1.663365E-04
6.772992E+03	6.332633E-04	1.650722E-04
6.782938E+03	6.323337E-04	1.648305E-04
6.792884E+03	6.351340E-04	1.655610E-04
6.802829E+03	6.416194E-04	1.672522E-04
6.812775E+03	6.516060E-04	1.698561E-04
6.822721E+03	6.650819E-04	1.733695E-04
6.832666E+03	6.818714E-04	1.777467E-04
6.842612E+03	7.019618E-04	1.829844E-04
6.852558E+03	7.251487E-04	1.890294E-04
6.862503E+03	7.513798E-04	1.958679E-04
6.872449E+03	7.803870E-04	2.034302E-04
6.882395E+03	8.120021E-04	2.116723E-04
6.892340E+03	8.460243E-04	2.205420E-04
6.902286E+03	8.820550E-04	2.299353E-04
6.912232E+03	9.198212E-04	2.397811E-04
6.922177E+03	9.590276E-04	2.500024E-04
6.932123E+03	9.991819E-04	2.604709E-04
6.942069E+03	1.039966E-03	2.711037E-04
6.952014E+03	1.081022E-03	2.818074E-04
6.961960E+03	1.122043E-03	2.925020E-04
6.971906E+03	1.162808E-03	3.031300E-04
6.981851E+03	1.203199E-03	3.136603E-04
6.991797E+03	1.243286E-03	3.241118E-04
7.001742E+03	1.283027E-03	3.344729E-04
7.011688E+03	1.322702E-03	3.448172E-04
7.021634E+03	1.362472E-03	3.551860E-04
7.031579E+03	1.402751E-03	3.656878E-04
7.041525E+03	1.443666E-03	3.763554E-04
7.051471E+03	1.485354E-03	3.872245E-04
7.061416E+03	1.527844E-03	3.983029E-04
7.071362E+03	1.571050E-03	4.095677E-04
7.081308E+03	1.614663E-03	4.209389E-04
7.091253E+03	1.658561E-03	4.323844E-04
7.101199E+03	1.702208E-03	4.437647E-04
7.111145E+03	1.744980E-03	4.549168E-04
7.121090E+03	1.786531E-03	4.657507E-04
7.131036E+03	1.826035E-03	4.760511E-04
7.140982E+03	1.863007E-03	4.856915E-04
7.150927E+03	1.897000E-03	4.945551E-04
7.160873E+03	1.927250E-03	5.024431E-04
7.170819E+03	1.953425E-03	5.092686E-04
7.180764E+03	1.975166E-03	5.149382E-04
7.190710E+03	1.992344E-03	5.194184E-04
7.200656E+03	2.004559E-03	5.226046E-04
7.210601E+03	2.011915E-03	5.245242E-04
7.220547E+03	2.014497E-03	5.251990E-04
7.230493E+03	2.012342E-03	5.246387E-04
7.240438E+03	2.005944E-03	5.229724E-04
7.250384E+03	1.995453E-03	5.202390E-04
7.260330E+03	1.981043E-03	5.164838E-04
7.270275E+03	1.963287E-03	5.118562E-04
7.280221E+03	1.942252E-03	5.063737E-04
7.290167E+03	1.918534E-03	5.001915E-04
7.300112E+03	1.892242E-03	4.933384E-04
7.310058E+03	1.863895E-03	4.859494E-04
7.320004E+03	1.833918E-03	4.781352E-04
7.329949E+03	1.802770E-03	4.700159E-04
7.339895E+03	1.770929E-03	4.617158E-04
7.349840E+03	1.738856E-03	4.533551E-04
7.359786E+03	1.706977E-03	4.450448E-04
7.369732E+03	1.675547E-03	4.368516E-04
7.379677E+03	1.645065E-03	4.289058E-04
7.389623E+03	1.615480E-03	4.211936E-04
7.399569E+03	1.587065E-03	4.137862E-04
7.409514E+03	1.559554E-03	4.066147E-04
7.419460E+03	1.532893E-03	3.996646E-04
7.429406E+03	1.506838E-03	3.928725E-04
7.439351E+03	1.481102E-03	3.861637E-04
7.449297E+03	1.455381E-03	3.794587E-04
7.459243E+03	1.429291E-03	3.726574E-04
7.469188E+03	1.402792E-03	3.657493E-04
7.479134E+03	1.375551E-03	3.586476E-04
7.489080E+03	1.347613E-03	3.513644E-04
7.499025E+03	1.319041E-03	3.439158E-04
7.508971E+03	1.290014E-03	3.363486E-04
7.518917E+03	1.260805E-03	3.287337E-04
7.528862E+03	1.231749E-03	3.211586E-04
7.538808E+03	1.203229E-03	3.137234E-04
7.548754E+03	1.175563E-03	3.065110E-04
7.558699E+03	1.149295E-03	2.996627E-04
7.568645E+03	1.124617E-03	2.932291E-04
7.578591E+03	1.101918E-03	2.873113E-04
7.588536E+03	1.081454E-03	2.819763E-04
7.598482E+03	1.063426E-03	2.772765E-04
7.608428E+03	1.047903E-03	2.732298E-04
7.618373E+03	1.035089E-03	2.698895E-04
7.628319E+03	1.024819E-03	2.672122E-04
7.638265E+03	1.017047E-03	2.651864E-04
7.648210E+03	1.011560E-03	2.637565E-04
7.658156E+03	1.008040E-03	2.628393E-04
7.668101E+03	1.006085E-03	2.623302E-04
7.678047E+03	1.005173E-03	2.620933E-04
7.687993E+03	1.004958E-03	2.620378E-04
7.697938E+03	1.004807E-03	2.619991E-04
7.707884E+03	1.004312E-03	2.618707E-04
7.717830E+03	1.003034E-03	2.615383E-04
