#wls	flux	fluxerr
1.591305E+03	2.317667E-04	5.991990E-05
1.631088E+03	2.299104E-04	5.943956E-05
1.670870E+03	2.274396E-04	5.880031E-05
1.710653E+03	2.243654E-04	5.800510E-05
1.750436E+03	2.206738E-04	5.705026E-05
1.790218E+03	2.162472E-04	5.590540E-05
1.830001E+03	2.109699E-04	5.454062E-05
1.869784E+03	2.046395E-04	5.290363E-05
1.909566E+03	1.971519E-04	5.096748E-05
1.949349E+03	1.884493E-04	4.871725E-05
1.989131E+03	1.788070E-04	4.622413E-05
2.028914E+03	1.689165E-04	4.366690E-05
2.068697E+03	1.599705E-04	4.135385E-05
2.108479E+03	1.534997E-04	3.968071E-05
2.148262E+03	1.507171E-04	3.896100E-05
2.188045E+03	1.518846E-04	3.926241E-05
2.227827E+03	1.563922E-04	4.042720E-05
2.267610E+03	1.631162E-04	4.216491E-05
2.307392E+03	1.708975E-04	4.417587E-05
2.347175E+03	1.789169E-04	4.624831E-05
2.386958E+03	1.867460E-04	4.827151E-05
2.426740E+03	1.941767E-04	5.019168E-05
2.466523E+03	2.012281E-04	5.201375E-05
2.506306E+03	2.079783E-04	5.375791E-05
2.546088E+03	2.145424E-04	5.545392E-05
2.585871E+03	2.210460E-04	5.713422E-05
2.625653E+03	2.276132E-04	5.883091E-05
2.665436E+03	2.343965E-04	6.058343E-05
2.705219E+03	2.414761E-04	6.241244E-05
2.745001E+03	2.489605E-04	6.434601E-05
2.784784E+03	2.569928E-04	6.642115E-05
2.824567E+03	2.656834E-04	6.866633E-05
2.864349E+03	2.751089E-04	7.110140E-05
2.904132E+03	2.854656E-04	7.377704E-05
2.943914E+03	2.968086E-04	7.670747E-05
2.983697E+03	3.093618E-04	7.995057E-05
2.993643E+03	3.127276E-04	8.082013E-05
3.003588E+03	3.161278E-04	8.169857E-05
3.013534E+03	3.196476E-04	8.260792E-05
3.023480E+03	3.232955E-04	8.355036E-05
3.033425E+03	3.270071E-04	8.450926E-05
3.043371E+03	3.308875E-04	8.551174E-05
3.053317E+03	3.348921E-04	8.654633E-05
3.063262E+03	3.390204E-04	8.761291E-05
3.073208E+03	3.433151E-04	8.872246E-05
3.083154E+03	3.477328E-04	8.986377E-05
3.093099E+03	3.522737E-04	9.103692E-05
3.103045E+03	3.569383E-04	9.224204E-05
3.112991E+03	3.617728E-04	9.349105E-05
3.122936E+03	3.667340E-04	9.477278E-05
3.132882E+03	3.718695E-04	9.609955E-05
3.142828E+03	3.770893E-04	9.744811E-05
3.152773E+03	3.824892E-04	9.884319E-05
3.162719E+03	3.880250E-04	1.002734E-04
3.172665E+03	3.937484E-04	1.017520E-04
3.182610E+03	3.996154E-04	1.032678E-04
3.192556E+03	4.056299E-04	1.048216E-04
3.202502E+03	4.117956E-04	1.064145E-04
3.212447E+03	4.181676E-04	1.080607E-04
3.222393E+03	4.247015E-04	1.097488E-04
3.232339E+03	4.314020E-04	1.114799E-04
3.242284E+03	4.383271E-04	1.132689E-04
3.252230E+03	4.454317E-04	1.151044E-04
3.262175E+03	4.527218E-04	1.169878E-04
3.272121E+03	4.602579E-04	1.189348E-04
3.282067E+03	4.679946E-04	1.209335E-04
3.292012E+03	4.759391E-04	1.229860E-04
3.301958E+03	4.840985E-04	1.250939E-04
3.311904E+03	4.925389E-04	1.272745E-04
3.321849E+03	5.012124E-04	1.295152E-04
3.331795E+03	5.101873E-04	1.318339E-04
3.341741E+03	5.193561E-04	1.342026E-04
3.351686E+03	5.288469E-04	1.366545E-04
3.361632E+03	5.386726E-04	1.391929E-04
3.371578E+03	5.487226E-04	1.417892E-04
3.381523E+03	5.591313E-04	1.444783E-04
3.391469E+03	5.699133E-04	1.472637E-04
3.401415E+03	5.809547E-04	1.501162E-04
3.411360E+03	5.923966E-04	1.530721E-04
3.421306E+03	6.041895E-04	1.561187E-04
3.431252E+03	6.164149E-04	1.592771E-04
3.441197E+03	6.290220E-04	1.625340E-04
3.451143E+03	6.420267E-04	1.658936E-04
3.461089E+03	6.554453E-04	1.693602E-04
3.471034E+03	6.693665E-04	1.729566E-04
3.480980E+03	6.837390E-04	1.766696E-04
3.490926E+03	6.985809E-04	1.805038E-04
3.500871E+03	7.139876E-04	1.844840E-04
3.510817E+03	7.299062E-04	1.885963E-04
3.520763E+03	7.463575E-04	1.928464E-04
3.530708E+03	7.634443E-04	1.972605E-04
3.540654E+03	7.811122E-04	2.018247E-04
3.550600E+03	7.993855E-04	2.065454E-04
3.560545E+03	8.183746E-04	2.114510E-04
3.570491E+03	8.379368E-04	2.165046E-04
3.580436E+03	8.582723E-04	2.217579E-04
3.590382E+03	8.794150E-04	2.272198E-04
3.600328E+03	9.012158E-04	2.328517E-04
3.610273E+03	9.238894E-04	2.387090E-04
3.620219E+03	9.474742E-04	2.448017E-04
3.630165E+03	9.718147E-04	2.510896E-04
3.640110E+03	9.971414E-04	2.576323E-04
3.650056E+03	1.023396E-03	2.644147E-04
3.660002E+03	1.050618E-03	2.714469E-04
3.669947E+03	1.078956E-03	2.787675E-04
3.679893E+03	1.108351E-03	2.863611E-04
3.689839E+03	1.138849E-03	2.942394E-04
3.699784E+03	1.170496E-03	3.024147E-04
3.709730E+03	1.203459E-03	3.109299E-04
3.719676E+03	1.237678E-03	3.197697E-04
3.729621E+03	1.273207E-03	3.289478E-04
3.739567E+03	1.310227E-03	3.385111E-04
3.749513E+03	1.348548E-03	3.484103E-04
3.759458E+03	1.388483E-03	3.587264E-04
3.769404E+03	1.429965E-03	3.694422E-04
3.779350E+03	1.473193E-03	3.806089E-04
3.789295E+03	1.517948E-03	3.921702E-04
3.799241E+03	1.564563E-03	4.042117E-04
3.809187E+03	1.612938E-03	4.167081E-04
3.819132E+03	1.663252E-03	4.297052E-04
3.829078E+03	1.715200E-03	4.431242E-04
3.839024E+03	1.769056E-03	4.570363E-04
3.848969E+03	1.824586E-03	4.713807E-04
3.858915E+03	1.881651E-03	4.861213E-04
3.868861E+03	1.940038E-03	5.012036E-04
3.878806E+03	1.999632E-03	5.165977E-04
3.888752E+03	2.059691E-03	5.321116E-04
3.898698E+03	2.120086E-03	5.477123E-04
3.908643E+03	2.180046E-03	5.632004E-04
3.918589E+03	2.239081E-03	5.784495E-04
3.928534E+03	2.296044E-03	5.931630E-04
3.938480E+03	2.350327E-03	6.071844E-04
3.948426E+03	2.401343E-03	6.203614E-04
3.958371E+03	2.448138E-03	6.324480E-04
3.968317E+03	2.490060E-03	6.432757E-04
3.978263E+03	2.526600E-03	6.527129E-04
3.988208E+03	2.557430E-03	6.606750E-04
3.998154E+03	2.582432E-03	6.671314E-04
4.008100E+03	2.601928E-03	6.721655E-04
4.018045E+03	2.615807E-03	6.757484E-04
4.027991E+03	2.625044E-03	6.781320E-04
4.037937E+03	2.629915E-03	6.793879E-04
4.047882E+03	2.631724E-03	6.798528E-04
4.057828E+03	2.631213E-03	6.797183E-04
4.067774E+03	2.629393E-03	6.792455E-04
4.077719E+03	2.627269E-03	6.786945E-04
4.087665E+03	2.625798E-03	6.783121E-04
4.097611E+03	2.625839E-03	6.783203E-04
4.107556E+03	2.628127E-03	6.789089E-04
4.117502E+03	2.633245E-03	6.802286E-04
4.127448E+03	2.641617E-03	6.823888E-04
4.137393E+03	2.653500E-03	6.854561E-04
4.147339E+03	2.669199E-03	6.895092E-04
4.157285E+03	2.688225E-03	6.944217E-04
4.167230E+03	2.710570E-03	7.001914E-04
4.177176E+03	2.735870E-03	7.067244E-04
4.187122E+03	2.763625E-03	7.138917E-04
4.197067E+03	2.793220E-03	7.215340E-04
4.207013E+03	2.823937E-03	7.294665E-04
4.216959E+03	2.854989E-03	7.374854E-04
4.226904E+03	2.885544E-03	7.453755E-04
4.236850E+03	2.914752E-03	7.529180E-04
4.246796E+03	2.941558E-03	7.598399E-04
4.256741E+03	2.965619E-03	7.660527E-04
4.266687E+03	2.985990E-03	7.713125E-04
4.276632E+03	3.001817E-03	7.753982E-04
4.286578E+03	3.012814E-03	7.782365E-04
4.296524E+03	3.018846E-03	7.797923E-04
4.306469E+03	3.019278E-03	7.799014E-04
4.316415E+03	3.014358E-03	7.786283E-04
4.326361E+03	3.004123E-03	7.759821E-04
4.336306E+03	2.989526E-03	7.722094E-04
4.346252E+03	2.971118E-03	7.674525E-04
4.356198E+03	2.949726E-03	7.619245E-04
4.366143E+03	2.926867E-03	7.560177E-04
4.376089E+03	2.904074E-03	7.501283E-04
4.386035E+03	2.883082E-03	7.447040E-04
4.395980E+03	2.865779E-03	7.402325E-04
4.405926E+03	2.853947E-03	7.371743E-04
4.415872E+03	2.849825E-03	7.361077E-04
4.425817E+03	2.855434E-03	7.375546E-04
4.435763E+03	2.872745E-03	7.420240E-04
4.445709E+03	2.903447E-03	7.499526E-04
4.455654E+03	2.949752E-03	7.619112E-04
4.465600E+03	3.012948E-03	7.782325E-04
4.475546E+03	3.094614E-03	7.993245E-04
4.485491E+03	3.196638E-03	8.256750E-04
4.495437E+03	3.319872E-03	8.575037E-04
4.505383E+03	3.465578E-03	8.951367E-04
4.515328E+03	3.634202E-03	9.386890E-04
4.525274E+03	3.826419E-03	9.883351E-04
4.535220E+03	4.041200E-03	1.043809E-03
4.545165E+03	4.277345E-03	1.104801E-03
4.555111E+03	4.531965E-03	1.170565E-03
4.565057E+03	4.801418E-03	1.240160E-03
4.575002E+03	5.080357E-03	1.312204E-03
4.584948E+03	5.361661E-03	1.384859E-03
4.594894E+03	5.638037E-03	1.456242E-03
4.604839E+03	5.899437E-03	1.523755E-03
4.614785E+03	6.137697E-03	1.585292E-03
4.624730E+03	6.342915E-03	1.638294E-03
4.634676E+03	6.507309E-03	1.680752E-03
4.644622E+03	6.623804E-03	1.710838E-03
4.654567E+03	6.688300E-03	1.727494E-03
4.664513E+03	6.698302E-03	1.730074E-03
4.674459E+03	6.655227E-03	1.718946E-03
4.684404E+03	6.561214E-03	1.694661E-03
4.694350E+03	6.421465E-03	1.658564E-03
4.704296E+03	6.243255E-03	1.612532E-03
4.714241E+03	6.034491E-03	1.558610E-03
4.724187E+03	5.803165E-03	1.498860E-03
4.734133E+03	5.557958E-03	1.435525E-03
4.744078E+03	5.306238E-03	1.370508E-03
4.754024E+03	5.055208E-03	1.305670E-03
4.763970E+03	4.810615E-03	1.242494E-03
4.773915E+03	4.576777E-03	1.182097E-03
4.783861E+03	4.357515E-03	1.125464E-03
4.793807E+03	4.155042E-03	1.073168E-03
4.803752E+03	3.971225E-03	1.025690E-03
4.813698E+03	3.806879E-03	9.832421E-04
4.823644E+03	3.661968E-03	9.458135E-04
4.833589E+03	3.536422E-03	9.133866E-04
4.843535E+03	3.429332E-03	8.857264E-04
4.853481E+03	3.339936E-03	8.626366E-04
4.863426E+03	3.266834E-03	8.437551E-04
4.873372E+03	3.208888E-03	8.287883E-04
4.883318E+03	3.164436E-03	8.173066E-04
4.893263E+03	3.132112E-03	8.089574E-04
4.903209E+03	3.110253E-03	8.033113E-04
4.913155E+03	3.096921E-03	7.998672E-04
4.923100E+03	3.090496E-03	7.982074E-04
4.933046E+03	3.088961E-03	7.978106E-04
4.942991E+03	3.090544E-03	7.982189E-04
4.952937E+03	3.093999E-03	7.991111E-04
4.962883E+03	3.097575E-03	8.000344E-04
4.972828E+03	3.100245E-03	8.007236E-04
4.982774E+03	3.101581E-03	8.010686E-04
4.992720E+03	3.101216E-03	8.009739E-04
5.002665E+03	3.099572E-03	8.005492E-04
5.012611E+03	3.097244E-03	7.999479E-04
5.022557E+03	3.094910E-03	7.993449E-04
5.032502E+03	3.093800E-03	7.990583E-04
5.042448E+03	3.094862E-03	7.993325E-04
5.052394E+03	3.099423E-03	8.005105E-04
5.062339E+03	3.108375E-03	8.028225E-04
5.072285E+03	3.122859E-03	8.065635E-04
5.082231E+03	3.143464E-03	8.118856E-04
5.092176E+03	3.170945E-03	8.189836E-04
5.102122E+03	3.205444E-03	8.278941E-04
5.112068E+03	3.247245E-03	8.386906E-04
5.122013E+03	3.296213E-03	8.513383E-04
5.131959E+03	3.351802E-03	8.656959E-04
5.141905E+03	3.413666E-03	8.816744E-04
5.151850E+03	3.480895E-03	8.990389E-04
5.161796E+03	3.552856E-03	9.176252E-04
5.171742E+03	3.628394E-03	9.371355E-04
5.181687E+03	3.706703E-03	9.573617E-04
5.191633E+03	3.786501E-03	9.779725E-04
5.201579E+03	3.866907E-03	9.987407E-04
5.211524E+03	3.946825E-03	1.019383E-03
5.221470E+03	4.024908E-03	1.039551E-03
5.231416E+03	4.100026E-03	1.058953E-03
5.241361E+03	4.171534E-03	1.077423E-03
5.251307E+03	4.237812E-03	1.094543E-03
5.261253E+03	4.297711E-03	1.110015E-03
5.271198E+03	4.350329E-03	1.123606E-03
5.281144E+03	4.394263E-03	1.134955E-03
5.291089E+03	4.428922E-03	1.143908E-03
5.301035E+03	4.452477E-03	1.149993E-03
5.310981E+03	4.464504E-03	1.153102E-03
5.320926E+03	4.464224E-03	1.153031E-03
5.330872E+03	4.451060E-03	1.149633E-03
5.340818E+03	4.424419E-03	1.142754E-03
5.350763E+03	4.384276E-03	1.132387E-03
5.360709E+03	4.331426E-03	1.118739E-03
5.370655E+03	4.265722E-03	1.101770E-03
5.380600E+03	4.188837E-03	1.081914E-03
5.390546E+03	4.101472E-03	1.059351E-03
5.400492E+03	4.005296E-03	1.034512E-03
5.410437E+03	3.901634E-03	1.007740E-03
5.420383E+03	3.792342E-03	9.795129E-04
5.430329E+03	3.678793E-03	9.501867E-04
5.440274E+03	3.562690E-03	9.202007E-04
5.450220E+03	3.445320E-03	8.898873E-04
5.460166E+03	3.327534E-03	8.594665E-04
5.470111E+03	3.210301E-03	8.291884E-04
5.480057E+03	3.094096E-03	7.991755E-04
5.490003E+03	2.978953E-03	7.694370E-04
5.499948E+03	2.865052E-03	7.400192E-04
5.509894E+03	2.752093E-03	7.108445E-04
5.519840E+03	2.640218E-03	6.819499E-04
5.529785E+03	2.528854E-03	6.531871E-04
5.539731E+03	2.418495E-03	6.246838E-04
5.549677E+03	2.309121E-03	5.964346E-04
5.559622E+03	2.201400E-03	5.686124E-04
5.569568E+03	2.095991E-03	5.413872E-04
5.579514E+03	1.994018E-03	5.150493E-04
5.589459E+03	1.896607E-03	4.898897E-04
5.599405E+03	1.804833E-03	4.661859E-04
5.609351E+03	1.719952E-03	4.442626E-04
5.619296E+03	1.642998E-03	4.243867E-04
5.629242E+03	1.574855E-03	4.067866E-04
5.639187E+03	1.516155E-03	3.916255E-04
5.649133E+03	1.467558E-03	3.790741E-04
5.659079E+03	1.429429E-03	3.692264E-04
5.669024E+03	1.402222E-03	3.621997E-04
5.678970E+03	1.386269E-03	3.580802E-04
5.688916E+03	1.381904E-03	3.569538E-04
5.698861E+03	1.389403E-03	3.588920E-04
5.708807E+03	1.409231E-03	3.640149E-04
5.718753E+03	1.441805E-03	3.724303E-04
5.728698E+03	1.487477E-03	3.842290E-04
5.738644E+03	1.546848E-03	3.995664E-04
5.748590E+03	1.620029E-03	4.184713E-04
5.758535E+03	1.707539E-03	4.410777E-04
5.768481E+03	1.809204E-03	4.673407E-04
5.778427E+03	1.924887E-03	4.972247E-04
5.788372E+03	2.053420E-03	5.304284E-04
5.798318E+03	2.193670E-03	5.666592E-04
5.808264E+03	2.343195E-03	6.052858E-04
5.818209E+03	2.499109E-03	6.455634E-04
5.828155E+03	2.657610E-03	6.865096E-04
5.838101E+03	2.814176E-03	7.269561E-04
5.848046E+03	2.963566E-03	7.655492E-04
5.857992E+03	3.100577E-03	8.009451E-04
5.867938E+03	3.219920E-03	8.317769E-04
5.877883E+03	3.316765E-03	8.567973E-04
5.887829E+03	3.386965E-03	8.749351E-04
5.897775E+03	3.428205E-03	8.855916E-04
5.907720E+03	3.438910E-03	8.883605E-04
5.917666E+03	3.419545E-03	8.833614E-04
5.927612E+03	3.372573E-03	8.712306E-04
5.937557E+03	3.301058E-03	8.527596E-04
5.947503E+03	3.209697E-03	8.291617E-04
5.957449E+03	3.103611E-03	8.017597E-04
5.967394E+03	2.988110E-03	7.719252E-04
5.977340E+03	2.868297E-03	7.409766E-04
5.987285E+03	2.748606E-03	7.100593E-04
5.997231E+03	2.633084E-03	6.802189E-04
6.007177E+03	2.524785E-03	6.522439E-04
6.017122E+03	2.425928E-03	6.267082E-04
6.027068E+03	2.337954E-03	6.039837E-04
6.037014E+03	2.261485E-03	5.842311E-04
6.046959E+03	2.196833E-03	5.675312E-04
6.056905E+03	2.143821E-03	5.538385E-04
6.066851E+03	2.101407E-03	5.428834E-04
6.076796E+03	2.068999E-03	5.345131E-04
6.086742E+03	2.045289E-03	5.283901E-04
6.096688E+03	2.028817E-03	5.241369E-04
6.106633E+03	2.018365E-03	5.214388E-04
6.116579E+03	2.012183E-03	5.198439E-04
6.126525E+03	2.008858E-03	5.189871E-04
6.136470E+03	2.006890E-03	5.184807E-04
6.146416E+03	2.004856E-03	5.179574E-04
6.156362E+03	2.001339E-03	5.170510E-04
6.166307E+03	1.995434E-03	5.155278E-04
6.176253E+03	1.985973E-03	5.130855E-04
6.186199E+03	1.972362E-03	5.095714E-04
6.196144E+03	1.954264E-03	5.048977E-04
6.206090E+03	1.931267E-03	4.989586E-04
6.216036E+03	1.903477E-03	4.917809E-04
6.225981E+03	1.871498E-03	4.835207E-04
6.235927E+03	1.835859E-03	4.743151E-04
6.245873E+03	1.797332E-03	4.643634E-04
6.255818E+03	1.757192E-03	4.539946E-04
6.265764E+03	1.716420E-03	4.434624E-04
6.275710E+03	1.676376E-03	4.331183E-04
6.285655E+03	1.638412E-03	4.233117E-04
6.295601E+03	1.603549E-03	4.143061E-04
6.305546E+03	1.573008E-03	4.064168E-04
6.315492E+03	1.547704E-03	3.998810E-04
6.325438E+03	1.528694E-03	3.949709E-04
6.335383E+03	1.516606E-03	3.918495E-04
6.345329E+03	1.511916E-03	3.906394E-04
6.355275E+03	1.515196E-03	3.914887E-04
6.365220E+03	1.526482E-03	3.944063E-04
6.375166E+03	1.545961E-03	3.994410E-04
6.385112E+03	1.573230E-03	4.064884E-04
6.395057E+03	1.607890E-03	4.154456E-04
6.405003E+03	1.649153E-03	4.261089E-04
6.414949E+03	1.696001E-03	4.382156E-04
6.424894E+03	1.746782E-03	4.513383E-04
6.434840E+03	1.799801E-03	4.650397E-04
6.444786E+03	1.852860E-03	4.787514E-04
6.454731E+03	1.903853E-03	4.919294E-04
6.464677E+03	1.950220E-03	5.039120E-04
6.474623E+03	1.989503E-03	5.140645E-04
6.484568E+03	2.019392E-03	5.217899E-04
6.494514E+03	2.037766E-03	5.265398E-04
6.504460E+03	2.043317E-03	5.279765E-04
6.514405E+03	2.034832E-03	5.257862E-04
6.524351E+03	2.012229E-03	5.199480E-04
6.534297E+03	1.975610E-03	5.104881E-04
6.544242E+03	1.926176E-03	4.977168E-04
6.554188E+03	1.865188E-03	4.819598E-04
6.564134E+03	1.794653E-03	4.637357E-04
6.574079E+03	1.716806E-03	4.436221E-04
6.584025E+03	1.633673E-03	4.221424E-04
6.593971E+03	1.547564E-03	3.998934E-04
6.603916E+03	1.460632E-03	3.774317E-04
6.613862E+03	1.374551E-03	3.551896E-04
6.623808E+03	1.290994E-03	3.335995E-04
6.633753E+03	1.211240E-03	3.129921E-04
6.643699E+03	1.136265E-03	2.936194E-04
6.653644E+03	1.066753E-03	2.756580E-04
6.663590E+03	1.003127E-03	2.592178E-04
6.673536E+03	9.455950E-04	2.443519E-04
6.683481E+03	8.941878E-04	2.310687E-04
6.693427E+03	8.488101E-04	2.193435E-04
6.703373E+03	8.092756E-04	2.091282E-04
6.713318E+03	7.753415E-04	2.003600E-04
6.723264E+03	7.467379E-04	1.929692E-04
6.733210E+03	7.231843E-04	1.868833E-04
6.743155E+03	7.044077E-04	1.820319E-04
6.753101E+03	6.901512E-04	1.783485E-04
6.763047E+03	6.801401E-04	1.757622E-04
6.772992E+03	6.742511E-04	1.742411E-04
6.782938E+03	6.722626E-04	1.737279E-04
6.792884E+03	6.740207E-04	1.741830E-04
6.802829E+03	6.793514E-04	1.755613E-04
6.812775E+03	6.882199E-04	1.778539E-04
6.822721E+03	7.004797E-04	1.810229E-04
6.832666E+03	7.160278E-04	1.850417E-04
6.842612E+03	7.347122E-04	1.898711E-04
6.852558E+03	7.565026E-04	1.955031E-04
6.862503E+03	7.812194E-04	2.018915E-04
6.872449E+03	8.086541E-04	2.089824E-04
6.882395E+03	8.387171E-04	2.167525E-04
6.892340E+03	8.710927E-04	2.251204E-04
6.902286E+03	9.056415E-04	2.340499E-04
6.912232E+03	9.419867E-04	2.434438E-04
6.922177E+03	9.799545E-04	2.532571E-04
6.932123E+03	1.019131E-03	2.633829E-04
6.942069E+03	1.059348E-03	2.737776E-04
6.952014E+03	1.100206E-03	2.843379E-04
6.961960E+03	1.141599E-03	2.950368E-04
6.971906E+03	1.183205E-03	3.057908E-04
6.981851E+03	1.224966E-03	3.165849E-04
6.991797E+03	1.266903E-03	3.274245E-04
7.001742E+03	1.308865E-03	3.382708E-04
7.011688E+03	1.350983E-03	3.491574E-04
7.021634E+03	1.393427E-03	3.601282E-04
7.031579E+03	1.436117E-03	3.711628E-04
7.041525E+03	1.479208E-03	3.823012E-04
7.051471E+03	1.522730E-03	3.935509E-04
7.061416E+03	1.566647E-03	4.049030E-04
7.071362E+03	1.610851E-03	4.163289E-04
7.081308E+03	1.655145E-03	4.277787E-04
7.091253E+03	1.699253E-03	4.391802E-04
7.101199E+03	1.742819E-03	4.504416E-04
7.111145E+03	1.785419E-03	4.614536E-04
7.121090E+03	1.826470E-03	4.720655E-04
7.131036E+03	1.865696E-03	4.822055E-04
7.140982E+03	1.902479E-03	4.917142E-04
7.150927E+03	1.936324E-03	5.004638E-04
7.160873E+03	1.966652E-03	5.083042E-04
7.170819E+03	1.993303E-03	5.151942E-04
7.180764E+03	2.015695E-03	5.209839E-04
7.190710E+03	2.033705E-03	5.256405E-04
7.200656E+03	2.047298E-03	5.291558E-04
7.210601E+03	2.056153E-03	5.314464E-04
7.220547E+03	2.060415E-03	5.325502E-04
7.230493E+03	2.060185E-03	5.324926E-04
7.240438E+03	2.055629E-03	5.313168E-04
7.250384E+03	2.046968E-03	5.290801E-04
7.260330E+03	2.034469E-03	5.258515E-04
7.270275E+03	2.018435E-03	5.217089E-04
7.280221E+03	1.999193E-03	5.167373E-04
7.290167E+03	1.976975E-03	5.109964E-04
7.300112E+03	1.952407E-03	5.046480E-04
7.310058E+03	1.925635E-03	4.977298E-04
7.320004E+03	1.897311E-03	4.904105E-04
7.329949E+03	1.867606E-03	4.827340E-04
7.339895E+03	1.837043E-03	4.748359E-04
7.349840E+03	1.806004E-03	4.668146E-04
7.359786E+03	1.774831E-03	4.587585E-04
7.369732E+03	1.743809E-03	4.507415E-04
7.379677E+03	1.713051E-03	4.427926E-04
7.389623E+03	1.682921E-03	4.350060E-04
7.399569E+03	1.653373E-03	4.273699E-04
7.409514E+03	1.624296E-03	4.198553E-04
7.419460E+03	1.595720E-03	4.124702E-04
7.429406E+03	1.567520E-03	4.051823E-04
7.439351E+03	1.539540E-03	3.979512E-04
7.449297E+03	1.511615E-03	3.907342E-04
7.459243E+03	1.483596E-03	3.834929E-04
7.469188E+03	1.455368E-03	3.761976E-04
7.479134E+03	1.426782E-03	3.688096E-04
7.489080E+03	1.398027E-03	3.613779E-04
7.499025E+03	1.369000E-03	3.538757E-04
7.508971E+03	1.339937E-03	3.463642E-04
7.518917E+03	1.311045E-03	3.388970E-04
7.528862E+03	1.282578E-03	3.315395E-04
7.538808E+03	1.254818E-03	3.243648E-04
7.548754E+03	1.227982E-03	3.174286E-04
7.558699E+03	1.202519E-03	3.108476E-04
7.568645E+03	1.178541E-03	3.046503E-04
7.578591E+03	1.156363E-03	2.989183E-04
7.588536E+03	1.136178E-03	2.937013E-04
7.598482E+03	1.118124E-03	2.890352E-04
7.608428E+03	1.102211E-03	2.849227E-04
7.618373E+03	1.088600E-03	2.814050E-04
7.628319E+03	1.077094E-03	2.784315E-04
7.638265E+03	1.067639E-03	2.759884E-04
7.648210E+03	1.060042E-03	2.740253E-04
7.658156E+03	1.054041E-03	2.724748E-04
7.668101E+03	1.049322E-03	2.712556E-04
7.678047E+03	1.045454E-03	2.702566E-04
7.687993E+03	1.042191E-03	2.694139E-04
7.697938E+03	1.038997E-03	2.685890E-04
7.707884E+03	1.035550E-03	2.676987E-04
7.717830E+03	1.031479E-03	2.666470E-04
