#wls	flux	fluxerr
1.591305E+03	2.424323E-04	6.131008E-05
1.631088E+03	2.404315E-04	6.080352E-05
1.670870E+03	2.377462E-04	6.012385E-05
1.710653E+03	2.344714E-04	5.929509E-05
1.750436E+03	2.305518E-04	5.830325E-05
1.790218E+03	2.259033E-04	5.712711E-05
1.830001E+03	2.203284E-04	5.571671E-05
1.869784E+03	2.136560E-04	5.402882E-05
1.909566E+03	2.057788E-04	5.203624E-05
1.949349E+03	1.966704E-04	4.973239E-05
1.989131E+03	1.865521E-04	4.717320E-05
2.028914E+03	1.761806E-04	4.455004E-05
2.068697E+03	1.668547E-04	4.219132E-05
2.108479E+03	1.600835E-04	4.047861E-05
2.148262E+03	1.571343E-04	3.973237E-05
2.188045E+03	1.583553E-04	4.004058E-05
2.227827E+03	1.630586E-04	4.122926E-05
2.267610E+03	1.700461E-04	4.299544E-05
2.307392E+03	1.781622E-04	4.504694E-05
2.347175E+03	1.865272E-04	4.716129E-05
2.386958E+03	1.946946E-04	4.922560E-05
2.426740E+03	2.024788E-04	5.119295E-05
2.466523E+03	2.098704E-04	5.306098E-05
2.506306E+03	2.169509E-04	5.485026E-05
2.546088E+03	2.238735E-04	5.659956E-05
2.585871E+03	2.307035E-04	5.832537E-05
2.625653E+03	2.376724E-04	6.008623E-05
2.665436E+03	2.448022E-04	6.188771E-05
2.705219E+03	2.523169E-04	6.378638E-05
2.745001E+03	2.602977E-04	6.580283E-05
2.784784E+03	2.688220E-04	6.795656E-05
2.824567E+03	2.780798E-04	7.029563E-05
2.864349E+03	2.881939E-04	7.285105E-05
2.904132E+03	2.992157E-04	7.563583E-05
2.943914E+03	3.114043E-04	7.871541E-05
2.983697E+03	3.248365E-04	8.210920E-05
2.993643E+03	3.284244E-04	8.301572E-05
3.003588E+03	3.320931E-04	8.394267E-05
3.013534E+03	3.358458E-04	8.489083E-05
3.023480E+03	3.397327E-04	8.587289E-05
3.033425E+03	3.437324E-04	8.688347E-05
3.043371E+03	3.479099E-04	8.793897E-05
3.053317E+03	3.521761E-04	8.901688E-05
3.063262E+03	3.566181E-04	9.013921E-05
3.073208E+03	3.612360E-04	9.130599E-05
3.083154E+03	3.659401E-04	9.249456E-05
3.093099E+03	3.708209E-04	9.372776E-05
3.103045E+03	3.758803E-04	9.500610E-05
3.112991E+03	3.810272E-04	9.630655E-05
3.122936E+03	3.863559E-04	9.765292E-05
3.132882E+03	3.918699E-04	9.904612E-05
3.142828E+03	3.975241E-04	1.004747E-04
3.152773E+03	4.033216E-04	1.019396E-04
3.162719E+03	4.092653E-04	1.034413E-04
3.172665E+03	4.154080E-04	1.049934E-04
3.182610E+03	4.217048E-04	1.065843E-04
3.192556E+03	4.281598E-04	1.082153E-04
3.202502E+03	4.348290E-04	1.099003E-04
3.212447E+03	4.416665E-04	1.116279E-04
3.222393E+03	4.487306E-04	1.134127E-04
3.232339E+03	4.559218E-04	1.152297E-04
3.242284E+03	4.634063E-04	1.171207E-04
3.252230E+03	4.710300E-04	1.190469E-04
3.262175E+03	4.789087E-04	1.210376E-04
3.272121E+03	4.869954E-04	1.230807E-04
3.282067E+03	4.953541E-04	1.251926E-04
3.292012E+03	5.039381E-04	1.273614E-04
3.301958E+03	5.127550E-04	1.295891E-04
3.311904E+03	5.218735E-04	1.318929E-04
3.321849E+03	5.312447E-04	1.342606E-04
3.331795E+03	5.408792E-04	1.366949E-04
3.341741E+03	5.508479E-04	1.392135E-04
3.351686E+03	5.611027E-04	1.418044E-04
3.361632E+03	5.717174E-04	1.444863E-04
3.371578E+03	5.826428E-04	1.472466E-04
3.381523E+03	5.938916E-04	1.500887E-04
3.391469E+03	6.055426E-04	1.530323E-04
3.401415E+03	6.175454E-04	1.560648E-04
3.411360E+03	6.299141E-04	1.591898E-04
3.421306E+03	6.427330E-04	1.624285E-04
3.431252E+03	6.559508E-04	1.657680E-04
3.441197E+03	6.695833E-04	1.692122E-04
3.451143E+03	6.837205E-04	1.727840E-04
3.461089E+03	6.983838E-04	1.764887E-04
3.471034E+03	7.134452E-04	1.802939E-04
3.480980E+03	7.290732E-04	1.842423E-04
3.490926E+03	7.452140E-04	1.883202E-04
3.500871E+03	7.619676E-04	1.925529E-04
3.510817E+03	7.792805E-04	1.969269E-04
3.520763E+03	7.972567E-04	2.014685E-04
3.530708E+03	8.157582E-04	2.061428E-04
3.540654E+03	8.350603E-04	2.110194E-04
3.550600E+03	8.549388E-04	2.160415E-04
3.560545E+03	8.755917E-04	2.212593E-04
3.570491E+03	8.969627E-04	2.266585E-04
3.580436E+03	9.191727E-04	2.322697E-04
3.590382E+03	9.421638E-04	2.380781E-04
3.600328E+03	9.659675E-04	2.440919E-04
3.610273E+03	9.907136E-04	2.503437E-04
3.620219E+03	1.016343E-03	2.568186E-04
3.630165E+03	1.042890E-03	2.635254E-04
3.640110E+03	1.070494E-03	2.704993E-04
3.650056E+03	1.099094E-03	2.777247E-04
3.660002E+03	1.128728E-03	2.852110E-04
3.669947E+03	1.159544E-03	2.929962E-04
3.679893E+03	1.191477E-03	3.010636E-04
3.689839E+03	1.224567E-03	3.094232E-04
3.699784E+03	1.258972E-03	3.181151E-04
3.709730E+03	1.294621E-03	3.271210E-04
3.719676E+03	1.331551E-03	3.364507E-04
3.729621E+03	1.369929E-03	3.461460E-04
3.739567E+03	1.409669E-03	3.561854E-04
3.749513E+03	1.450803E-03	3.665770E-04
3.759458E+03	1.493359E-03	3.773277E-04
3.769404E+03	1.537496E-03	3.884777E-04
3.779350E+03	1.583234E-03	4.000325E-04
3.789295E+03	1.630294E-03	4.119207E-04
3.799241E+03	1.678945E-03	4.242111E-04
3.809187E+03	1.729011E-03	4.368588E-04
3.819132E+03	1.780432E-03	4.498488E-04
3.829078E+03	1.833281E-03	4.631992E-04
3.839024E+03	1.887117E-03	4.767992E-04
3.848969E+03	1.942107E-03	4.906904E-04
3.858915E+03	1.998058E-03	5.048242E-04
3.868861E+03	2.054378E-03	5.190514E-04
3.878806E+03	2.111120E-03	5.333847E-04
3.888752E+03	2.167762E-03	5.476931E-04
3.898698E+03	2.223916E-03	5.618775E-04
3.908643E+03	2.279342E-03	5.758782E-04
3.918589E+03	2.333399E-03	5.895329E-04
3.928534E+03	2.385616E-03	6.027223E-04
3.938480E+03	2.435522E-03	6.153279E-04
3.948426E+03	2.482671E-03	6.272370E-04
3.958371E+03	2.526662E-03	6.383479E-04
3.968317E+03	2.567365E-03	6.486281E-04
3.978263E+03	2.604319E-03	6.579611E-04
3.988208E+03	2.637368E-03	6.663075E-04
3.998154E+03	2.666467E-03	6.736556E-04
4.008100E+03	2.691684E-03	6.800232E-04
4.018045E+03	2.713422E-03	6.855117E-04
4.027991E+03	2.731541E-03	6.900859E-04
4.037937E+03	2.746862E-03	6.939533E-04
4.047882E+03	2.759635E-03	6.971767E-04
4.057828E+03	2.770379E-03	6.998877E-04
4.067774E+03	2.779649E-03	7.022262E-04
4.077719E+03	2.788005E-03	7.043341E-04
4.087665E+03	2.795995E-03	7.063491E-04
4.097611E+03	2.804126E-03	7.084000E-04
4.107556E+03	2.813066E-03	7.106551E-04
4.117502E+03	2.822765E-03	7.131022E-04
4.127448E+03	2.833737E-03	7.158707E-04
4.137393E+03	2.846404E-03	7.190672E-04
4.147339E+03	2.860447E-03	7.226116E-04
4.157285E+03	2.876312E-03	7.266162E-04
4.167230E+03	2.893492E-03	7.309531E-04
4.177176E+03	2.912037E-03	7.356344E-04
4.187122E+03	2.931914E-03	7.406525E-04
4.197067E+03	2.952377E-03	7.458186E-04
4.207013E+03	2.973486E-03	7.511478E-04
4.216959E+03	2.994395E-03	7.564265E-04
4.226904E+03	3.014882E-03	7.615986E-04
4.236850E+03	3.034506E-03	7.665525E-04
4.246796E+03	3.052838E-03	7.711803E-04
4.256741E+03	3.069488E-03	7.753829E-04
4.266687E+03	3.084119E-03	7.790755E-04
4.276632E+03	3.096471E-03	7.821926E-04
4.286578E+03	3.106379E-03	7.846923E-04
4.296524E+03	3.113575E-03	7.865068E-04
4.306469E+03	3.118570E-03	7.877655E-04
4.316415E+03	3.121145E-03	7.884128E-04
4.326361E+03	3.121880E-03	7.885954E-04
4.336306E+03	3.121288E-03	7.884428E-04
4.346252E+03	3.120031E-03	7.881223E-04
4.356198E+03	3.118910E-03	7.878363E-04
4.366143E+03	3.118646E-03	7.877666E-04
4.376089E+03	3.120496E-03	7.882311E-04
4.386035E+03	3.125598E-03	7.895168E-04
4.395980E+03	3.135156E-03	7.919284E-04
4.405926E+03	3.150214E-03	7.957290E-04
4.415872E+03	3.172465E-03	8.013468E-04
4.425817E+03	3.202758E-03	8.089957E-04
4.435763E+03	3.242331E-03	8.189889E-04
4.445709E+03	3.292802E-03	8.317347E-04
4.455654E+03	3.354853E-03	8.474055E-04
4.465600E+03	3.429705E-03	8.663096E-04
4.475546E+03	3.518226E-03	8.886664E-04
4.485491E+03	3.620862E-03	9.145882E-04
4.495437E+03	3.738296E-03	9.442477E-04
4.505383E+03	3.870683E-03	9.776841E-04
4.515328E+03	4.017564E-03	1.014781E-03
4.525274E+03	4.178528E-03	1.055436E-03
4.535220E+03	4.352414E-03	1.099353E-03
4.545165E+03	4.537183E-03	1.146020E-03
4.555111E+03	4.730692E-03	1.194894E-03
4.565057E+03	4.929556E-03	1.245120E-03
4.575002E+03	5.130332E-03	1.295829E-03
4.584948E+03	5.328684E-03	1.345926E-03
4.594894E+03	5.519483E-03	1.394114E-03
4.604839E+03	5.697976E-03	1.439195E-03
4.614785E+03	5.859056E-03	1.479876E-03
4.624730E+03	5.997473E-03	1.514834E-03
4.634676E+03	6.109235E-03	1.543059E-03
4.644622E+03	6.190421E-03	1.563561E-03
4.654567E+03	6.238893E-03	1.575801E-03
4.664513E+03	6.252962E-03	1.579351E-03
4.674459E+03	6.232979E-03	1.574300E-03
4.684404E+03	6.180179E-03	1.560961E-03
4.694350E+03	6.096558E-03	1.539837E-03
4.704296E+03	5.985482E-03	1.511779E-03
4.714241E+03	5.851751E-03	1.477999E-03
4.724187E+03	5.698836E-03	1.439374E-03
4.734133E+03	5.532199E-03	1.397283E-03
4.744078E+03	5.356513E-03	1.352907E-03
4.754024E+03	5.175909E-03	1.307289E-03
4.763970E+03	4.994741E-03	1.261529E-03
4.773915E+03	4.816238E-03	1.216442E-03
4.783861E+03	4.643662E-03	1.172852E-03
4.793807E+03	4.479117E-03	1.131292E-03
4.803752E+03	4.324688E-03	1.092286E-03
4.813698E+03	4.181415E-03	1.056098E-03
4.823644E+03	4.050373E-03	1.022999E-03
4.833589E+03	3.931732E-03	9.930327E-04
4.843535E+03	3.825803E-03	9.662771E-04
4.853481E+03	3.732137E-03	9.426190E-04
4.863426E+03	3.650295E-03	9.219471E-04
4.873372E+03	3.579857E-03	9.041559E-04
4.883318E+03	3.520044E-03	8.890480E-04
4.893263E+03	3.469772E-03	8.763501E-04
4.903209E+03	3.428296E-03	8.658737E-04
4.913155E+03	3.394434E-03	8.573206E-04
4.923100E+03	3.367200E-03	8.504416E-04
4.933046E+03	3.345826E-03	8.450424E-04
4.942991E+03	3.329215E-03	8.408464E-04
4.952937E+03	3.316742E-03	8.376957E-04
4.962883E+03	3.307711E-03	8.354142E-04
4.972828E+03	3.301191E-03	8.337672E-04
4.982774E+03	3.297346E-03	8.327956E-04
4.992720E+03	3.295380E-03	8.322986E-04
5.002665E+03	3.295589E-03	8.323511E-04
5.012611E+03	3.298043E-03	8.329707E-04
5.022557E+03	3.302753E-03	8.341602E-04
5.032502E+03	3.310198E-03	8.360403E-04
5.042448E+03	3.320552E-03	8.386554E-04
5.052394E+03	3.334209E-03	8.421046E-04
5.062339E+03	3.351747E-03	8.465342E-04
5.072285E+03	3.373345E-03	8.519890E-04
5.082231E+03	3.399495E-03	8.585937E-04
5.092176E+03	3.430428E-03	8.664065E-04
5.102122E+03	3.466089E-03	8.754134E-04
5.112068E+03	3.506498E-03	8.856196E-04
5.122013E+03	3.551755E-03	8.970504E-04
5.131959E+03	3.601455E-03	9.096034E-04
5.141905E+03	3.655265E-03	9.231943E-04
5.151850E+03	3.713142E-03	9.378127E-04
5.161796E+03	3.773927E-03	9.531655E-04
5.171742E+03	3.837377E-03	9.691916E-04
5.181687E+03	3.902756E-03	9.857049E-04
5.191633E+03	3.969034E-03	1.002445E-03
5.201579E+03	4.035543E-03	1.019244E-03
5.211524E+03	4.101124E-03	1.035809E-03
5.221470E+03	4.164795E-03	1.051891E-03
5.231416E+03	4.225771E-03	1.067293E-03
5.241361E+03	4.283032E-03	1.081757E-03
5.251307E+03	4.335318E-03	1.094964E-03
5.261253E+03	4.381615E-03	1.106659E-03
5.271198E+03	4.421181E-03	1.116653E-03
5.281144E+03	4.453091E-03	1.124715E-03
5.291089E+03	4.476259E-03	1.130568E-03
5.301035E+03	4.489929E-03	1.134022E-03
5.310981E+03	4.493725E-03	1.134983E-03
5.320926E+03	4.487164E-03	1.133328E-03
5.330872E+03	4.469697E-03	1.128918E-03
5.340818E+03	4.441448E-03	1.121786E-03
5.350763E+03	4.402244E-03	1.111886E-03
5.360709E+03	4.352592E-03	1.099348E-03
5.370655E+03	4.292719E-03	1.084228E-03
5.380600E+03	4.223267E-03	1.066689E-03
5.390546E+03	4.145468E-03	1.047041E-03
5.400492E+03	4.059771E-03	1.025399E-03
5.410437E+03	3.967167E-03	1.002012E-03
5.420383E+03	3.868900E-03	9.771944E-04
5.430329E+03	3.765792E-03	9.511541E-04
5.440274E+03	3.659048E-03	9.241956E-04
5.450220E+03	3.549604E-03	8.965548E-04
5.460166E+03	3.438132E-03	8.684018E-04
5.470111E+03	3.325594E-03	8.399795E-04
5.480057E+03	3.212497E-03	8.114159E-04
5.490003E+03	3.099620E-03	7.829078E-04
5.499948E+03	2.987337E-03	7.545495E-04
5.509894E+03	2.876308E-03	7.265077E-04
5.519840E+03	2.767001E-03	6.989010E-04
5.529785E+03	2.659750E-03	6.718132E-04
5.539731E+03	2.555199E-03	6.454075E-04
5.549677E+03	2.453748E-03	6.197842E-04
5.559622E+03	2.356097E-03	5.951210E-04
5.569568E+03	2.262842E-03	5.715681E-04
5.579514E+03	2.174484E-03	5.492518E-04
5.589459E+03	2.091768E-03	5.283605E-04
5.599405E+03	2.015194E-03	5.090205E-04
5.609351E+03	1.945453E-03	4.914066E-04
5.619296E+03	1.883082E-03	4.756538E-04
5.629242E+03	1.828465E-03	4.618599E-04
5.639187E+03	1.782134E-03	4.501586E-04
5.649133E+03	1.744464E-03	4.406450E-04
5.659079E+03	1.715692E-03	4.333792E-04
5.669024E+03	1.696203E-03	4.284580E-04
5.678970E+03	1.686255E-03	4.259468E-04
5.688916E+03	1.685993E-03	4.258825E-04
5.698861E+03	1.695720E-03	4.283413E-04
5.708807E+03	1.715532E-03	4.333477E-04
5.718753E+03	1.745763E-03	4.409862E-04
5.728698E+03	1.786237E-03	4.512119E-04
5.738644E+03	1.837253E-03	4.641008E-04
5.748590E+03	1.898528E-03	4.795813E-04
5.758535E+03	1.969908E-03	4.976146E-04
5.768481E+03	2.050940E-03	5.180864E-04
5.778427E+03	2.140802E-03	5.407889E-04
5.788372E+03	2.238581E-03	5.654913E-04
5.798318E+03	2.342911E-03	5.918491E-04
5.808264E+03	2.451926E-03	6.193906E-04
5.818209E+03	2.563631E-03	6.476119E-04
5.828155E+03	2.675571E-03	6.758928E-04
5.838101E+03	2.785011E-03	7.035424E-04
5.848046E+03	2.888887E-03	7.297869E-04
5.857992E+03	2.984393E-03	7.539173E-04
5.867938E+03	3.068705E-03	7.752199E-04
5.877883E+03	3.139296E-03	7.930565E-04
5.887829E+03	3.193937E-03	8.068640E-04
5.897775E+03	3.231343E-03	8.163177E-04
5.907720E+03	3.250781E-03	8.212324E-04
5.917666E+03	3.252105E-03	8.215710E-04
5.927612E+03	3.236262E-03	8.175728E-04
5.937557E+03	3.204701E-03	8.096038E-04
5.947503E+03	3.159425E-03	7.981696E-04
5.957449E+03	3.102828E-03	7.838756E-04
5.967394E+03	3.037373E-03	7.673435E-04
5.977340E+03	2.965908E-03	7.492928E-04
5.987285E+03	2.891019E-03	7.303770E-04
5.997231E+03	2.815077E-03	7.111951E-04
6.007177E+03	2.740008E-03	6.922333E-04
6.017122E+03	2.667821E-03	6.739998E-04
6.027068E+03	2.599568E-03	6.567597E-04
6.037014E+03	2.536357E-03	6.407934E-04
6.046959E+03	2.478667E-03	6.262218E-04
6.056905E+03	2.427057E-03	6.131860E-04
6.066851E+03	2.381274E-03	6.016225E-04
6.076796E+03	2.341226E-03	5.915077E-04
6.086742E+03	2.306491E-03	5.827350E-04
6.096688E+03	2.276494E-03	5.751596E-04
6.106633E+03	2.250549E-03	5.686075E-04
6.116579E+03	2.227770E-03	5.628555E-04
6.126525E+03	2.207596E-03	5.577613E-04
6.136470E+03	2.188977E-03	5.530602E-04
6.146416E+03	2.171251E-03	5.485848E-04
6.156362E+03	2.153695E-03	5.441521E-04
6.166307E+03	2.135557E-03	5.395724E-04
6.176253E+03	2.116542E-03	5.347709E-04
6.186199E+03	2.096028E-03	5.295906E-04
6.196144E+03	2.073993E-03	5.240262E-04
6.206090E+03	2.050123E-03	5.179979E-04
6.216036E+03	2.024592E-03	5.115501E-04
6.225981E+03	1.997618E-03	5.047373E-04
6.235927E+03	1.969444E-03	4.976214E-04
6.245873E+03	1.940753E-03	4.903750E-04
6.255818E+03	1.912002E-03	4.831131E-04
6.265764E+03	1.883717E-03	4.759689E-04
6.275710E+03	1.856669E-03	4.691371E-04
6.285655E+03	1.831529E-03	4.627873E-04
6.295601E+03	1.809047E-03	4.571093E-04
6.305546E+03	1.789538E-03	4.521823E-04
6.315492E+03	1.773835E-03	4.482169E-04
6.325438E+03	1.762296E-03	4.453038E-04
6.335383E+03	1.755274E-03	4.435321E-04
6.345329E+03	1.753010E-03	4.429624E-04
6.355275E+03	1.755516E-03	4.435982E-04
6.365220E+03	1.762953E-03	4.454799E-04
6.375166E+03	1.774944E-03	4.485125E-04
6.385112E+03	1.791237E-03	4.526322E-04
6.395057E+03	1.811311E-03	4.577075E-04
6.405003E+03	1.834568E-03	4.635871E-04
6.414949E+03	1.859935E-03	4.699998E-04
6.424894E+03	1.886469E-03	4.767076E-04
6.434840E+03	1.912982E-03	4.834100E-04
6.444786E+03	1.938169E-03	4.897775E-04
6.454731E+03	1.960551E-03	4.954364E-04
6.464677E+03	1.978956E-03	5.000903E-04
6.474623E+03	1.991947E-03	5.033760E-04
6.484568E+03	1.998316E-03	5.049884E-04
6.494514E+03	1.996944E-03	5.046444E-04
6.504460E+03	1.987294E-03	5.022087E-04
6.514405E+03	1.968701E-03	4.975130E-04
6.524351E+03	1.941269E-03	4.905834E-04
6.534297E+03	1.905012E-03	4.814235E-04
6.544242E+03	1.860695E-03	4.702265E-04
6.554188E+03	1.808949E-03	4.571522E-04
6.564134E+03	1.751047E-03	4.425219E-04
6.574079E+03	1.688028E-03	4.265981E-04
6.584025E+03	1.621317E-03	4.097414E-04
6.593971E+03	1.552355E-03	3.923153E-04
6.603916E+03	1.482277E-03	3.746071E-04
6.613862E+03	1.412395E-03	3.569484E-04
6.623808E+03	1.343805E-03	3.396157E-04
6.633753E+03	1.277445E-03	3.228466E-04
6.643699E+03	1.214158E-03	3.068539E-04
6.653644E+03	1.154415E-03	2.917567E-04
6.663590E+03	1.098739E-03	2.776872E-04
6.673536E+03	1.047440E-03	2.647237E-04
6.683481E+03	1.000704E-03	2.529134E-04
6.693427E+03	9.586176E-04	2.422780E-04
6.703373E+03	9.211841E-04	2.328185E-04
6.713318E+03	8.883470E-04	2.245205E-04
6.723264E+03	8.600059E-04	2.173588E-04
6.733210E+03	8.360321E-04	2.113008E-04
6.743155E+03	8.162813E-04	2.063101E-04
6.753101E+03	8.006025E-04	2.023485E-04
6.763047E+03	7.888886E-04	1.993889E-04
6.772992E+03	7.809061E-04	1.973725E-04
6.782938E+03	7.765188E-04	1.962647E-04
6.792884E+03	7.756868E-04	1.960554E-04
6.802829E+03	7.782482E-04	1.967039E-04
6.812775E+03	7.840915E-04	1.981819E-04
6.822721E+03	7.931126E-04	2.004631E-04
6.832666E+03	8.052097E-04	2.035218E-04
6.842612E+03	8.202811E-04	2.073323E-04
6.852558E+03	8.382216E-04	2.118680E-04
6.862503E+03	8.589215E-04	2.171013E-04
6.872449E+03	8.822602E-04	2.230016E-04
6.882395E+03	9.081089E-04	2.295364E-04
6.892340E+03	9.363267E-04	2.366700E-04
6.902286E+03	9.667603E-04	2.443639E-04
6.912232E+03	9.991906E-04	2.525625E-04
6.922177E+03	1.033559E-03	2.612511E-04
6.932123E+03	1.069635E-03	2.703713E-04
6.942069E+03	1.107242E-03	2.798788E-04
6.952014E+03	1.146209E-03	2.897300E-04
6.961960E+03	1.186371E-03	2.998833E-04
6.971906E+03	1.227505E-03	3.102825E-04
6.981851E+03	1.269609E-03	3.209272E-04
6.991797E+03	1.312492E-03	3.317686E-04
7.001742E+03	1.355964E-03	3.427592E-04
7.011688E+03	1.400076E-03	3.539115E-04
7.021634E+03	1.444655E-03	3.651821E-04
7.031579E+03	1.489516E-03	3.765241E-04
7.041525E+03	1.534717E-03	3.879521E-04
7.051471E+03	1.579958E-03	3.993902E-04
7.061416E+03	1.625264E-03	4.108452E-04
7.071362E+03	1.670272E-03	4.222246E-04
7.081308E+03	1.714953E-03	4.335216E-04
7.091253E+03	1.758864E-03	4.446242E-04
7.101199E+03	1.801818E-03	4.554847E-04
7.111145E+03	1.843608E-03	4.660512E-04
7.121090E+03	1.883690E-03	4.761861E-04
7.131036E+03	1.921820E-03	4.858275E-04
7.140982E+03	1.957645E-03	4.948862E-04
7.150927E+03	1.990821E-03	5.032756E-04
7.160873E+03	2.021023E-03	5.109129E-04
7.170819E+03	2.047954E-03	5.177236E-04
7.180764E+03	2.071359E-03	5.236429E-04
7.190710E+03	2.091029E-03	5.286181E-04
7.200656E+03	2.106810E-03	5.326102E-04
7.210601E+03	2.118482E-03	5.355636E-04
7.220547E+03	2.126255E-03	5.375311E-04
7.230493E+03	2.130026E-03	5.384869E-04
7.240438E+03	2.129749E-03	5.384196E-04
7.250384E+03	2.125679E-03	5.373930E-04
7.260330E+03	2.118115E-03	5.354833E-04
7.270275E+03	2.107027E-03	5.326826E-04
7.280221E+03	2.092790E-03	5.290858E-04
7.290167E+03	2.075681E-03	5.247629E-04
7.300112E+03	2.055997E-03	5.197890E-04
7.310058E+03	2.034046E-03	5.142418E-04
7.320004E+03	2.010023E-03	5.081705E-04
7.329949E+03	1.984471E-03	5.017128E-04
7.339895E+03	1.957568E-03	4.949134E-04
7.349840E+03	1.929477E-03	4.878136E-04
7.359786E+03	1.900566E-03	4.805067E-04
7.369732E+03	1.871059E-03	4.730487E-04
7.379677E+03	1.841143E-03	4.654873E-04
7.389623E+03	1.810971E-03	4.578610E-04
7.399569E+03	1.780661E-03	4.501998E-04
7.409514E+03	1.750300E-03	4.425257E-04
7.419460E+03	1.719846E-03	4.348281E-04
7.429406E+03	1.689544E-03	4.271686E-04
7.439351E+03	1.659217E-03	4.195028E-04
7.449297E+03	1.628988E-03	4.118617E-04
7.459243E+03	1.598880E-03	4.042512E-04
7.469188E+03	1.568927E-03	3.966797E-04
7.479134E+03	1.539085E-03	3.891364E-04
7.489080E+03	1.509608E-03	3.816850E-04
7.499025E+03	1.480400E-03	3.743019E-04
7.508971E+03	1.451662E-03	3.670373E-04
7.518917E+03	1.423517E-03	3.599227E-04
7.528862E+03	1.396103E-03	3.529927E-04
7.538808E+03	1.369561E-03	3.462832E-04
7.548754E+03	1.344033E-03	3.398301E-04
7.558699E+03	1.319575E-03	3.336473E-04
7.568645E+03	1.296387E-03	3.277856E-04
7.578591E+03	1.274566E-03	3.222698E-04
7.588536E+03	1.254185E-03	3.171177E-04
7.598482E+03	1.235282E-03	3.123395E-04
7.608428E+03	1.217789E-03	3.079176E-04
7.618373E+03	1.201822E-03	3.038815E-04
7.628319E+03	1.187164E-03	3.001764E-04
7.638265E+03	1.173782E-03	2.967938E-04
7.648210E+03	1.161462E-03	2.936799E-04
7.658156E+03	1.150174E-03	2.908268E-04
7.668101E+03	1.139577E-03	2.881484E-04
7.678047E+03	1.129521E-03	2.856067E-04
7.687993E+03	1.119773E-03	2.831430E-04
7.697938E+03	1.110094E-03	2.806966E-04
7.707884E+03	1.100248E-03	2.782080E-04
7.717830E+03	1.089941E-03	2.756030E-04
