#wls	flux	fluxerr
1.570321E+03	5.455440E-05	4.135984E-06
1.609579E+03	5.397867E-05	4.075357E-06
1.648837E+03	5.352871E-05	4.024148E-06
1.688095E+03	5.319699E-05	3.981675E-06
1.727353E+03	5.299556E-05	3.948718E-06
1.766611E+03	5.293055E-05	3.925597E-06
1.805869E+03	5.300885E-05	3.912672E-06
1.845127E+03	5.323831E-05	3.910360E-06
1.884385E+03	5.362257E-05	3.918749E-06
1.923643E+03	5.417772E-05	3.938819E-06
1.962901E+03	5.492121E-05	3.971616E-06
2.002159E+03	5.586712E-05	4.017906E-06
2.041417E+03	5.703210E-05	4.078608E-06
2.080675E+03	5.845105E-05	4.155894E-06
2.119933E+03	6.016213E-05	4.252102E-06
2.159191E+03	6.220790E-05	4.369792E-06
2.198449E+03	6.466171E-05	4.513585E-06
2.237707E+03	6.759457E-05	4.687783E-06
2.276965E+03	7.107735E-05	4.896526E-06
2.316223E+03	7.518295E-05	5.143926E-06
2.355481E+03	7.997838E-05	5.433522E-06
2.394739E+03	8.557913E-05	5.771951E-06
2.433997E+03	9.209621E-05	6.165272E-06
2.473255E+03	9.969349E-05	6.622775E-06
2.512513E+03	1.085519E-04	7.154472E-06
2.551772E+03	1.189163E-04	7.774093E-06
2.591030E+03	1.310664E-04	8.497016E-06
2.630288E+03	1.453523E-04	9.342414E-06
2.669546E+03	1.621989E-04	1.033329E-05
2.708804E+03	1.821386E-04	1.149835E-05
2.748062E+03	2.058015E-04	1.287092E-05
2.787320E+03	2.340138E-04	1.449479E-05
2.826578E+03	2.677905E-04	1.642303E-05
2.865836E+03	3.084844E-04	1.872633E-05
2.905094E+03	3.578493E-04	2.149570E-05
2.944352E+03	4.182030E-04	2.485058E-05
2.954166E+03	4.353495E-04	2.579827E-05
2.963981E+03	4.534095E-04	2.679400E-05
2.973795E+03	4.724484E-04	2.784114E-05
2.983610E+03	4.925361E-04	2.894326E-05
2.993424E+03	5.137342E-04	3.010342E-05
3.003239E+03	5.361081E-04	3.132482E-05
3.013053E+03	5.597560E-04	3.261256E-05
3.022868E+03	5.847397E-04	3.396953E-05
3.032682E+03	6.111394E-04	3.539965E-05
3.042497E+03	6.390717E-04	3.690886E-05
3.052311E+03	6.686303E-04	3.850172E-05
3.062126E+03	6.999317E-04	4.018402E-05
3.071940E+03	7.330497E-04	4.195902E-05
3.081755E+03	7.681668E-04	4.383613E-05
3.091569E+03	8.053728E-04	4.581932E-05
3.101384E+03	8.448177E-04	4.791595E-05
3.111198E+03	8.866631E-04	5.013388E-05
3.121013E+03	9.310618E-04	5.248038E-05
3.130827E+03	9.781982E-04	5.496437E-05
3.140642E+03	1.028251E-03	5.759426E-05
3.150456E+03	1.081430E-03	6.038015E-05
3.160271E+03	1.137941E-03	6.333174E-05
3.170085E+03	1.198028E-03	6.646058E-05
3.179900E+03	1.261929E-03	6.977778E-05
3.189714E+03	1.329898E-03	7.329516E-05
3.199529E+03	1.402234E-03	7.702679E-05
3.209343E+03	1.479235E-03	8.098639E-05
3.219158E+03	1.561244E-03	8.519006E-05
3.228972E+03	1.648608E-03	8.965359E-05
3.238787E+03	1.741694E-03	9.439389E-05
3.248601E+03	1.840901E-03	9.942902E-05
3.258416E+03	1.946688E-03	1.047801E-04
3.268230E+03	2.059518E-03	1.104681E-04
3.278045E+03	2.179889E-03	1.165153E-04
3.287859E+03	2.308334E-03	1.229459E-04
3.297674E+03	2.445392E-03	1.297833E-04
3.307488E+03	2.591712E-03	1.370569E-04
3.317303E+03	2.747917E-03	1.447938E-04
3.327117E+03	2.914752E-03	1.530272E-04
3.336932E+03	3.092929E-03	1.617879E-04
3.346746E+03	3.283156E-03	1.711058E-04
3.356561E+03	3.486370E-03	1.810224E-04
3.366376E+03	3.703321E-03	1.915683E-04
3.376190E+03	3.934937E-03	2.027831E-04
3.386005E+03	4.182137E-03	2.147048E-04
3.395819E+03	4.445868E-03	2.273722E-04
3.405634E+03	4.727044E-03	2.408216E-04
3.415448E+03	5.026643E-03	2.550918E-04
3.425263E+03	5.345519E-03	2.702145E-04
3.435077E+03	5.684705E-03	2.862295E-04
3.444892E+03	6.045013E-03	3.031648E-04
3.454706E+03	6.427200E-03	3.210449E-04
3.464521E+03	6.832046E-03	3.398946E-04
3.474335E+03	7.260013E-03	3.597224E-04
3.484150E+03	7.711595E-03	3.805380E-04
3.493964E+03	8.187191E-03	4.023456E-04
3.503779E+03	8.686987E-03	4.251389E-04
3.513593E+03	9.211007E-03	4.489034E-04
3.523408E+03	9.758989E-03	4.736105E-04
3.533222E+03	1.033091E-02	4.992435E-04
3.543037E+03	1.092616E-02	5.257569E-04
3.552851E+03	1.154424E-02	5.531117E-04
3.562666E+03	1.218446E-02	5.812595E-04
3.572480E+03	1.284595E-02	6.101444E-04
3.582295E+03	1.352765E-02	6.397013E-04
3.592109E+03	1.422841E-02	6.698629E-04
3.601924E+03	1.494706E-02	7.005606E-04
3.611738E+03	1.568209E-02	7.317123E-04
3.621553E+03	1.643171E-02	7.632223E-04
3.631367E+03	1.719449E-02	7.950146E-04
3.641182E+03	1.796828E-02	8.269811E-04
3.650996E+03	1.875123E-02	8.590281E-04
3.660811E+03	1.954121E-02	8.910516E-04
3.670625E+03	2.033611E-02	9.229508E-04
3.680440E+03	2.113337E-02	9.546055E-04
3.690254E+03	2.193071E-02	9.859098E-04
3.700069E+03	2.272592E-02	1.016765E-03
3.709883E+03	2.351617E-02	1.047044E-03
3.719698E+03	2.429898E-02	1.076641E-03
3.729512E+03	2.507181E-02	1.105446E-03
3.739327E+03	2.583213E-02	1.133354E-03
3.749141E+03	2.657716E-02	1.160252E-03
3.758956E+03	2.730439E-02	1.186039E-03
3.768770E+03	2.801156E-02	1.210629E-03
3.778585E+03	2.869578E-02	1.233910E-03
3.788399E+03	2.935493E-02	1.255806E-03
3.798214E+03	2.998676E-02	1.276237E-03
3.808028E+03	3.058889E-02	1.295119E-03
3.817843E+03	3.115928E-02	1.312387E-03
3.827657E+03	3.169607E-02	1.327983E-03
3.837472E+03	3.219731E-02	1.341848E-03
3.847286E+03	3.266173E-02	1.353953E-03
3.857101E+03	3.308750E-02	1.364246E-03
3.866915E+03	3.347376E-02	1.372718E-03
3.876730E+03	3.381964E-02	1.379361E-03
3.886544E+03	3.412397E-02	1.384153E-03
3.896359E+03	3.438633E-02	1.387107E-03
3.906173E+03	3.460659E-02	1.388245E-03
3.915988E+03	3.478488E-02	1.387601E-03
3.925802E+03	3.492104E-02	1.385197E-03
3.935617E+03	3.501568E-02	1.381087E-03
3.945431E+03	3.506975E-02	1.375336E-03
3.955246E+03	3.508414E-02	1.368006E-03
3.965060E+03	3.506012E-02	1.359176E-03
3.974875E+03	3.499951E-02	1.348940E-03
3.984689E+03	3.490403E-02	1.337390E-03
3.994504E+03	3.477538E-02	1.324616E-03
4.004318E+03	3.461623E-02	1.310742E-03
4.014133E+03	3.442857E-02	1.295863E-03
4.023947E+03	3.421505E-02	1.280101E-03
4.033762E+03	3.397815E-02	1.263563E-03
4.043576E+03	3.372015E-02	1.246353E-03
4.053391E+03	3.344419E-02	1.228599E-03
4.063205E+03	3.315262E-02	1.210402E-03
4.073020E+03	3.284810E-02	1.191868E-03
4.082834E+03	3.253349E-02	1.173110E-03
4.092649E+03	3.221137E-02	1.154228E-03
4.102463E+03	3.188431E-02	1.135321E-03
4.112278E+03	3.155512E-02	1.116490E-03
4.122092E+03	3.122603E-02	1.097816E-03
4.131907E+03	3.089996E-02	1.079403E-03
4.141721E+03	3.057897E-02	1.061320E-03
4.151536E+03	3.026574E-02	1.043657E-03
4.161350E+03	2.996208E-02	1.026471E-03
4.171165E+03	2.967059E-02	1.009846E-03
4.180979E+03	2.939301E-02	9.938316E-04
4.190794E+03	2.913117E-02	9.784812E-04
4.200608E+03	2.888674E-02	9.638407E-04
4.210423E+03	2.866172E-02	9.499657E-04
4.220238E+03	2.845775E-02	9.368973E-04
4.230052E+03	2.827609E-02	9.246638E-04
4.239867E+03	2.811833E-02	9.133026E-04
4.249681E+03	2.798573E-02	9.028392E-04
4.259496E+03	2.787965E-02	8.933019E-04
4.269310E+03	2.780136E-02	8.847138E-04
4.279125E+03	2.775156E-02	8.770801E-04
4.288939E+03	2.773061E-02	8.703946E-04
4.298754E+03	2.773786E-02	8.646189E-04
4.308568E+03	2.777343E-02	8.597399E-04
4.318383E+03	2.783641E-02	8.557125E-04
4.328197E+03	2.792665E-02	8.525155E-04
4.338012E+03	2.804316E-02	8.501035E-04
4.347826E+03	2.818521E-02	8.484392E-04
4.357641E+03	2.835191E-02	8.474812E-04
4.367455E+03	2.854215E-02	8.471827E-04
4.377270E+03	2.875454E-02	8.474906E-04
4.387084E+03	2.898773E-02	8.483532E-04
4.396899E+03	2.924034E-02	8.497197E-04
4.406713E+03	2.950968E-02	8.515032E-04
4.416528E+03	2.979401E-02	8.536459E-04
4.426342E+03	3.009076E-02	8.560682E-04
4.436157E+03	3.039658E-02	8.586711E-04
4.445971E+03	3.070831E-02	8.613633E-04
4.455786E+03	3.102228E-02	8.640422E-04
4.465600E+03	3.133483E-02	8.666084E-04
4.475415E+03	3.164158E-02	8.689457E-04
4.485229E+03	3.193884E-02	8.709604E-04
4.495044E+03	3.222204E-02	8.725376E-04
4.504858E+03	3.248745E-02	8.735883E-04
4.514673E+03	3.273030E-02	8.739988E-04
4.524487E+03	3.294737E-02	8.736998E-04
4.534302E+03	3.313428E-02	8.725933E-04
4.544116E+03	3.328776E-02	8.706137E-04
4.553931E+03	3.340483E-02	8.677047E-04
4.563745E+03	3.348265E-02	8.638151E-04
4.573560E+03	3.351853E-02	8.588997E-04
4.583374E+03	3.351115E-02	8.529493E-04
4.593189E+03	3.345860E-02	8.459396E-04
4.603003E+03	3.336097E-02	8.378977E-04
4.612818E+03	3.321727E-02	8.288229E-04
4.622632E+03	3.302855E-02	8.187649E-04
4.632447E+03	3.279612E-02	8.077786E-04
4.642261E+03	3.252253E-02	7.959473E-04
4.652076E+03	3.221101E-02	7.833688E-04
4.661890E+03	3.186541E-02	7.701527E-04
4.671705E+03	3.148960E-02	7.564068E-04
4.681519E+03	3.108762E-02	7.422395E-04
4.691334E+03	3.066385E-02	7.277642E-04
4.701148E+03	3.022249E-02	7.130873E-04
4.710963E+03	2.976768E-02	6.983109E-04
4.720777E+03	2.930347E-02	6.835326E-04
4.730592E+03	2.883383E-02	6.688449E-04
4.740406E+03	2.836283E-02	6.543411E-04
4.750221E+03	2.789387E-02	6.400959E-04
4.760035E+03	2.743070E-02	6.261884E-04
4.769850E+03	2.697644E-02	6.126805E-04
4.779664E+03	2.653458E-02	5.996409E-04
4.789479E+03	2.610813E-02	5.871272E-04
4.799293E+03	2.569965E-02	5.751847E-04
4.809108E+03	2.531186E-02	5.638626E-04
4.818922E+03	2.494662E-02	5.531900E-04
4.828737E+03	2.460612E-02	5.432031E-04
4.838551E+03	2.429122E-02	5.339083E-04
4.848366E+03	2.400291E-02	5.253149E-04
4.858180E+03	2.374157E-02	5.174194E-04
4.867995E+03	2.350735E-02	5.102136E-04
4.877809E+03	2.330016E-02	5.036846E-04
4.887624E+03	2.311955E-02	4.978114E-04
4.897438E+03	2.296550E-02	4.925838E-04
4.907253E+03	2.283686E-02	4.879673E-04
4.917067E+03	2.273299E-02	4.839391E-04
4.926882E+03	2.265298E-02	4.804715E-04
4.936696E+03	2.259588E-02	4.775360E-04
4.946511E+03	2.256073E-02	4.751045E-04
4.956325E+03	2.254639E-02	4.731462E-04
4.966140E+03	2.255231E-02	4.716423E-04
4.975954E+03	2.257777E-02	4.705718E-04
4.985769E+03	2.262199E-02	4.699120E-04
4.995583E+03	2.268496E-02	4.696569E-04
5.005398E+03	2.276636E-02	4.697939E-04
5.015212E+03	2.286627E-02	4.703193E-04
5.025027E+03	2.298433E-02	4.712201E-04
5.034841E+03	2.312054E-02	4.724909E-04
5.044656E+03	2.327420E-02	4.741122E-04
5.054471E+03	2.344545E-02	4.760815E-04
5.064285E+03	2.363345E-02	4.783766E-04
5.074100E+03	2.383816E-02	4.809921E-04
5.083914E+03	2.405852E-02	4.839015E-04
5.093729E+03	2.429404E-02	4.870900E-04
5.103543E+03	2.454364E-02	4.905319E-04
5.113358E+03	2.480661E-02	4.942081E-04
5.123172E+03	2.508189E-02	4.980932E-04
5.132987E+03	2.536781E-02	5.021501E-04
5.142801E+03	2.566356E-02	5.063590E-04
5.152616E+03	2.596752E-02	5.106839E-04
5.162430E+03	2.627798E-02	5.150881E-04
5.172245E+03	2.659370E-02	5.195439E-04
5.182059E+03	2.691318E-02	5.240191E-04
5.191874E+03	2.723485E-02	5.284807E-04
5.201688E+03	2.755661E-02	5.328853E-04
5.211503E+03	2.787738E-02	5.372102E-04
5.221317E+03	2.819524E-02	5.414165E-04
5.231132E+03	2.850838E-02	5.454681E-04
5.240946E+03	2.881462E-02	5.493227E-04
5.250761E+03	2.911232E-02	5.529483E-04
5.260575E+03	2.939914E-02	5.563005E-04
5.270390E+03	2.967323E-02	5.593448E-04
5.280204E+03	2.993189E-02	5.620314E-04
5.290019E+03	3.017334E-02	5.643283E-04
5.299833E+03	3.039541E-02	5.661972E-04
5.309648E+03	3.059554E-02	5.675931E-04
5.319462E+03	3.077148E-02	5.684782E-04
5.329277E+03	3.092109E-02	5.688170E-04
5.339091E+03	3.104079E-02	5.685486E-04
5.348906E+03	3.112829E-02	5.676376E-04
5.358720E+03	3.118073E-02	5.660388E-04
5.368535E+03	3.119545E-02	5.637118E-04
5.378349E+03	3.117058E-02	5.606319E-04
5.388164E+03	3.110527E-02	5.567935E-04
5.397978E+03	3.099783E-02	5.521769E-04
5.407793E+03	3.084798E-02	5.467881E-04
5.417607E+03	3.065623E-02	5.406479E-04
5.427422E+03	3.042267E-02	5.337696E-04
5.437236E+03	3.014896E-02	5.261943E-04
5.447051E+03	2.983692E-02	5.179660E-04
5.456865E+03	2.948892E-02	5.091377E-04
5.466680E+03	2.910783E-02	4.997703E-04
5.476494E+03	2.869728E-02	4.899371E-04
5.486309E+03	2.826146E-02	4.797197E-04
5.496123E+03	2.780566E-02	4.692170E-04
5.505938E+03	2.733471E-02	4.585179E-04
5.515752E+03	2.685508E-02	4.477376E-04
5.525567E+03	2.637321E-02	4.369874E-04
5.535381E+03	2.589632E-02	4.263898E-04
5.545196E+03	2.543204E-02	4.160701E-04
5.555010E+03	2.498686E-02	4.061325E-04
5.564825E+03	2.456777E-02	3.966861E-04
5.574639E+03	2.418070E-02	3.878199E-04
5.584454E+03	2.383135E-02	3.796166E-04
5.594268E+03	2.352512E-02	3.721514E-04
5.604083E+03	2.326612E-02	3.654771E-04
5.613897E+03	2.305668E-02	3.596158E-04
5.623712E+03	2.289851E-02	3.545797E-04
5.633526E+03	2.279328E-02	3.503789E-04
5.643341E+03	2.274176E-02	3.470095E-04
5.653155E+03	2.274507E-02	3.444715E-04
5.662970E+03	2.280378E-02	3.427570E-04
5.672784E+03	2.291784E-02	3.418481E-04
5.682599E+03	2.308744E-02	3.417307E-04
5.692413E+03	2.331219E-02	3.423820E-04
5.702228E+03	2.359105E-02	3.437704E-04
5.712042E+03	2.392256E-02	3.458586E-04
5.721857E+03	2.430452E-02	3.485999E-04
5.731671E+03	2.473336E-02	3.519293E-04
5.741486E+03	2.520487E-02	3.557750E-04
5.751300E+03	2.571350E-02	3.600486E-04
5.761115E+03	2.625323E-02	3.646585E-04
5.770929E+03	2.681691E-02	3.695006E-04
5.780744E+03	2.739664E-02	3.744647E-04
5.790558E+03	2.798421E-02	3.794398E-04
5.800373E+03	2.856974E-02	3.842974E-04
5.810187E+03	2.914447E-02	3.889284E-04
5.820002E+03	2.969805E-02	3.932066E-04
5.829816E+03	3.021983E-02	3.970071E-04
5.839631E+03	3.070094E-02	4.002325E-04
5.849445E+03	3.113210E-02	4.027836E-04
5.859260E+03	3.150588E-02	4.045889E-04
5.869074E+03	3.181563E-02	4.055892E-04
5.878889E+03	3.205552E-02	4.057372E-04
5.888704E+03	3.222070E-02	4.049999E-04
5.898518E+03	3.230780E-02	4.033630E-04
5.908333E+03	3.231654E-02	4.008506E-04
5.918147E+03	3.224707E-02	3.974903E-04
5.927962E+03	3.210185E-02	3.933367E-04
5.937776E+03	3.188565E-02	3.884699E-04
5.947591E+03	3.160405E-02	3.829765E-04
5.957405E+03	3.126360E-02	3.769512E-04
5.967220E+03	3.087131E-02	3.704908E-04
5.977034E+03	3.043356E-02	3.636809E-04
5.986849E+03	2.995830E-02	3.566231E-04
5.996663E+03	2.945195E-02	3.493969E-04
6.006478E+03	2.892218E-02	3.420945E-04
6.016292E+03	2.837533E-02	3.347895E-04
6.026107E+03	2.781797E-02	3.275562E-04
6.035921E+03	2.725628E-02	3.204627E-04
6.045736E+03	2.669692E-02	3.135785E-04
6.055550E+03	2.614520E-02	3.069518E-04
6.065365E+03	2.560631E-02	3.006293E-04
6.075179E+03	2.508368E-02	2.946372E-04
6.084994E+03	2.458093E-02	2.890051E-04
6.094808E+03	2.410070E-02	2.837515E-04
6.104623E+03	2.364428E-02	2.788806E-04
6.114437E+03	2.321190E-02	2.743848E-04
6.124252E+03	2.280448E-02	2.702657E-04
6.134066E+03	2.242128E-02	2.665064E-04
6.143881E+03	2.206194E-02	2.630954E-04
6.153695E+03	2.172626E-02	2.600236E-04
6.163510E+03	2.141290E-02	2.572694E-04
6.173324E+03	2.112168E-02	2.548254E-04
6.183139E+03	2.085109E-02	2.526693E-04
6.192953E+03	2.060044E-02	2.507888E-04
6.202768E+03	2.036845E-02	2.491650E-04
6.212582E+03	2.015410E-02	2.477823E-04
6.222397E+03	1.995631E-02	2.466250E-04
6.232211E+03	1.977405E-02	2.456781E-04
6.242026E+03	1.960630E-02	2.449267E-04
6.251840E+03	1.945175E-02	2.443527E-04
6.261655E+03	1.930943E-02	2.439421E-04
6.271469E+03	1.917814E-02	2.436783E-04
6.281284E+03	1.905731E-02	2.435523E-04
6.291098E+03	1.894620E-02	2.435534E-04
6.300913E+03	1.884413E-02	2.436716E-04
6.310727E+03	1.875031E-02	2.438955E-04
6.320542E+03	1.866469E-02	2.442233E-04
6.330356E+03	1.858740E-02	2.446558E-04
6.340171E+03	1.851801E-02	2.451865E-04
6.349985E+03	1.845771E-02	2.458308E-04
6.359800E+03	1.840714E-02	2.465969E-04
6.369614E+03	1.836695E-02	2.474937E-04
6.379429E+03	1.833830E-02	2.485374E-04
6.389243E+03	1.832209E-02	2.497408E-04
6.399058E+03	1.831857E-02	2.511085E-04
6.408872E+03	1.832869E-02	2.526548E-04
6.418687E+03	1.835303E-02	2.543890E-04
6.428501E+03	1.839214E-02	2.563205E-04
6.438316E+03	1.844584E-02	2.584485E-04
6.448130E+03	1.851502E-02	2.607875E-04
6.457945E+03	1.859918E-02	2.633321E-04
6.467759E+03	1.869822E-02	2.660827E-04
6.477574E+03	1.881121E-02	2.690278E-04
6.487388E+03	1.893729E-02	2.721565E-04
6.497203E+03	1.907567E-02	2.754587E-04
6.507017E+03	1.922475E-02	2.789123E-04
6.516832E+03	1.938266E-02	2.824909E-04
6.526646E+03	1.954810E-02	2.861755E-04
6.536461E+03	1.971824E-02	2.899248E-04
6.546275E+03	1.989068E-02	2.937025E-04
6.556090E+03	2.006344E-02	2.974779E-04
6.565904E+03	2.023305E-02	3.011976E-04
6.575719E+03	2.039708E-02	3.048227E-04
6.585533E+03	2.055245E-02	3.083046E-04
6.595348E+03	2.069693E-02	3.116063E-04
6.605162E+03	2.082767E-02	3.146813E-04
6.614977E+03	2.094274E-02	3.174967E-04
6.624791E+03	2.103971E-02	3.200119E-04
6.634606E+03	2.111713E-02	3.222008E-04
6.644420E+03	2.117314E-02	3.240310E-04
6.654235E+03	2.120695E-02	3.254863E-04
6.664049E+03	2.121782E-02	3.265518E-04
6.673864E+03	2.120520E-02	3.272155E-04
6.683678E+03	2.116971E-02	3.274840E-04
6.693493E+03	2.111176E-02	3.273604E-04
6.703307E+03	2.103310E-02	3.268698E-04
6.713122E+03	2.093558E-02	3.260388E-04
6.722937E+03	2.082096E-02	3.248936E-04
6.732751E+03	2.069213E-02	3.234782E-04
6.742566E+03	2.055181E-02	3.218345E-04
6.752380E+03	2.040286E-02	3.200076E-04
6.762195E+03	2.024793E-02	3.180390E-04
6.772009E+03	2.009081E-02	3.159890E-04
6.781824E+03	1.993376E-02	3.138941E-04
6.791638E+03	1.978004E-02	3.118068E-04
6.801453E+03	1.963237E-02	3.097713E-04
6.811267E+03	1.949295E-02	3.078237E-04
6.821082E+03	1.936292E-02	3.059833E-04
6.830896E+03	1.924290E-02	3.042615E-04
6.840711E+03	1.913326E-02	3.026653E-04
6.850525E+03	1.903436E-02	3.012020E-04
6.860340E+03	1.894529E-02	2.998582E-04
6.870154E+03	1.886642E-02	2.986410E-04
6.879969E+03	1.879692E-02	2.975380E-04
6.889783E+03	1.873615E-02	2.965404E-04
6.899598E+03	1.868341E-02	2.956379E-04
6.909412E+03	1.863820E-02	2.948235E-04
6.919227E+03	1.859922E-02	2.940775E-04
6.929041E+03	1.856585E-02	2.933912E-04
6.938856E+03	1.853667E-02	2.927427E-04
6.948670E+03	1.851092E-02	2.921211E-04
6.958485E+03	1.848716E-02	2.915046E-04
6.968299E+03	1.846467E-02	2.908830E-04
6.978114E+03	1.844242E-02	2.902410E-04
6.987928E+03	1.841950E-02	2.895657E-04
6.997743E+03	1.839518E-02	2.888466E-04
7.007557E+03	1.836846E-02	2.880696E-04
7.017372E+03	1.833955E-02	2.872395E-04
7.027186E+03	1.830760E-02	2.863444E-04
7.037001E+03	1.827222E-02	2.853799E-04
7.046815E+03	1.823308E-02	2.843427E-04
7.056630E+03	1.819035E-02	2.832371E-04
7.066444E+03	1.814389E-02	2.820629E-04
7.076259E+03	1.809325E-02	2.808149E-04
7.086073E+03	1.803881E-02	2.795010E-04
7.095888E+03	1.798022E-02	2.781178E-04
7.105702E+03	1.791834E-02	2.766808E-04
7.115517E+03	1.785254E-02	2.751820E-04
7.125331E+03	1.778372E-02	2.736377E-04
7.135146E+03	1.771128E-02	2.720405E-04
7.144960E+03	1.763602E-02	2.704051E-04
7.154775E+03	1.755761E-02	2.687282E-04
7.164589E+03	1.747609E-02	2.670125E-04
7.174404E+03	1.739151E-02	2.652610E-04
7.184218E+03	1.730389E-02	2.634762E-04
7.194033E+03	1.721333E-02	2.616615E-04
7.203847E+03	1.711956E-02	2.598150E-04
7.213662E+03	1.702276E-02	2.579413E-04
7.223476E+03	1.692316E-02	2.560458E-04
7.233291E+03	1.682106E-02	2.541352E-04
7.243105E+03	1.671571E-02	2.521998E-04
7.252920E+03	1.660833E-02	2.502601E-04
7.262734E+03	1.649844E-02	2.483102E-04
7.272549E+03	1.638673E-02	2.463626E-04
7.282363E+03	1.627357E-02	2.444241E-04
7.292178E+03	1.615971E-02	2.425074E-04
7.301992E+03	1.604550E-02	2.406192E-04
7.311807E+03	1.593309E-02	2.387928E-04
7.321621E+03	1.582260E-02	2.370317E-04
7.331436E+03	1.571481E-02	2.353481E-04
7.341250E+03	1.561066E-02	2.337573E-04
7.351065E+03	1.550998E-02	2.322577E-04
7.360879E+03	1.541280E-02	2.308509E-04
7.370694E+03	1.531863E-02	2.295301E-04
7.380508E+03	1.522681E-02	2.282864E-04
7.390323E+03	1.513728E-02	2.271183E-04
7.400137E+03	1.504839E-02	2.259984E-04
7.409952E+03	1.495974E-02	2.249184E-04
7.419766E+03	1.486972E-02	2.238518E-04
7.429581E+03	1.477667E-02	2.227710E-04
7.439395E+03	1.467994E-02	2.216633E-04
7.449210E+03	1.457778E-02	2.204999E-04
7.459024E+03	1.446890E-02	2.192581E-04
7.468839E+03	1.435181E-02	2.179123E-04
7.478653E+03	1.422628E-02	2.164558E-04
7.488468E+03	1.409094E-02	2.148647E-04
7.498282E+03	1.394555E-02	2.131315E-04
7.508097E+03	1.379060E-02	2.112606E-04
7.517911E+03	1.362672E-02	2.092581E-04
7.527726E+03	1.345446E-02	2.071292E-04
7.537540E+03	1.327537E-02	2.048946E-04
7.547355E+03	1.309039E-02	2.025659E-04
7.557169E+03	1.290087E-02	2.001613E-04
7.566984E+03	1.270849E-02	1.977042E-04
7.576799E+03	1.251418E-02	1.952072E-04
7.586613E+03	1.231948E-02	1.926922E-04
7.596428E+03	1.212515E-02	1.901696E-04
7.606242E+03	1.193252E-02	1.876587E-04
7.616057E+03	1.174247E-02	1.851722E-04
