#wls	flux	fluxerr
1.570321E+03	5.306654E-05	8.742456E-06
1.609579E+03	5.170288E-05	8.487785E-06
1.648837E+03	5.043380E-05	8.249315E-06
1.688095E+03	4.927495E-05	8.029472E-06
1.727353E+03	4.821548E-05	7.826335E-06
1.766611E+03	4.727029E-05	7.642157E-06
1.805869E+03	4.642124E-05	7.473830E-06
1.845127E+03	4.569125E-05	7.324861E-06
1.884385E+03	4.507885E-05	7.194794E-06
1.923643E+03	4.458333E-05	7.083280E-06
1.962901E+03	4.421960E-05	6.992434E-06
2.002159E+03	4.398796E-05	6.922009E-06
2.041417E+03	4.390427E-05	6.874179E-06
2.080675E+03	4.397065E-05	6.848910E-06
2.119933E+03	4.420491E-05	6.848571E-06
2.159191E+03	4.462618E-05	6.875653E-06
2.198449E+03	4.522717E-05	6.928509E-06
2.237707E+03	4.603118E-05	7.010152E-06
2.276965E+03	4.703585E-05	7.119597E-06
2.316223E+03	4.826285E-05	7.259450E-06
2.355481E+03	4.971574E-05	7.429498E-06
2.394739E+03	5.141574E-05	7.632093E-06
2.433997E+03	5.338811E-05	7.870065E-06
2.473255E+03	5.566286E-05	8.146787E-06
2.512513E+03	5.827554E-05	8.466260E-06
2.551772E+03	6.126041E-05	8.832093E-06
2.591030E+03	6.466660E-05	9.249801E-06
2.630288E+03	6.855217E-05	9.725873E-06
2.669546E+03	7.300296E-05	1.027035E-05
2.708804E+03	7.809352E-05	1.089119E-05
2.748062E+03	8.394061E-05	1.160171E-05
2.787320E+03	9.065394E-05	1.241352E-05
2.826578E+03	9.836436E-05	1.334042E-05
2.865836E+03	1.072168E-04	1.439718E-05
2.905094E+03	1.173948E-04	1.560274E-05
2.944352E+03	1.291292E-04	1.698098E-05
2.954166E+03	1.323454E-04	1.735681E-05
2.963981E+03	1.356754E-04	1.774494E-05
2.973795E+03	1.391368E-04	1.814755E-05
2.983610E+03	1.427220E-04	1.856349E-05
2.993424E+03	1.464498E-04	1.899502E-05
3.003239E+03	1.503262E-04	1.944275E-05
3.013053E+03	1.543437E-04	1.990553E-05
3.022868E+03	1.585224E-04	2.038575E-05
3.032682E+03	1.628695E-04	2.088414E-05
3.042497E+03	1.673773E-04	2.139950E-05
3.052311E+03	1.720830E-04	2.193637E-05
3.062126E+03	1.769645E-04	2.249166E-05
3.071940E+03	1.820611E-04	2.307013E-05
3.081755E+03	1.873498E-04	2.366862E-05
3.091569E+03	1.928720E-04	2.429207E-05
3.101384E+03	1.986214E-04	2.493938E-05
3.111198E+03	2.046079E-04	2.561150E-05
3.121013E+03	2.108597E-04	2.631163E-05
3.130827E+03	2.173706E-04	2.703865E-05
3.140642E+03	2.241707E-04	2.779593E-05
3.150456E+03	2.312538E-04	2.858234E-05
3.160271E+03	2.386715E-04	2.940384E-05
3.170085E+03	2.463993E-04	3.025698E-05
3.179900E+03	2.544713E-04	3.114550E-05
3.189714E+03	2.629237E-04	3.207336E-05
3.199529E+03	2.717528E-04	3.303959E-05
3.209343E+03	2.809754E-04	3.404571E-05
3.219158E+03	2.906543E-04	3.509875E-05
3.228972E+03	3.007645E-04	3.619508E-05
3.238787E+03	3.113489E-04	3.733924E-05
3.248601E+03	3.224290E-04	3.853315E-05
3.258416E+03	3.340521E-04	3.978175E-05
3.268230E+03	3.462436E-04	4.108727E-05
3.278045E+03	3.590029E-04	4.244888E-05
3.287859E+03	3.724095E-04	4.387510E-05
3.297674E+03	3.864937E-04	4.536860E-05
3.307488E+03	4.012582E-04	4.692871E-05
3.317303E+03	4.167624E-04	4.856140E-05
3.327117E+03	4.330705E-04	5.027305E-05
3.336932E+03	4.502195E-04	5.206678E-05
3.346746E+03	4.682160E-04	5.394214E-05
3.356561E+03	4.871959E-04	5.591348E-05
3.366376E+03	5.071377E-04	5.797695E-05
3.376190E+03	5.281534E-04	6.014386E-05
3.386005E+03	5.502923E-04	6.241825E-05
3.395819E+03	5.736421E-04	6.480837E-05
3.405634E+03	5.982201E-04	6.731438E-05
3.415448E+03	6.241579E-04	6.994921E-05
3.425263E+03	6.515168E-04	7.271768E-05
3.435077E+03	6.803600E-04	7.562468E-05
3.444892E+03	7.107941E-04	7.867981E-05
3.454706E+03	7.429323E-04	8.189312E-05
3.464521E+03	7.768486E-04	8.527019E-05
3.474335E+03	8.126187E-04	8.881659E-05
3.484150E+03	8.503665E-04	9.254298E-05
3.493964E+03	8.901258E-04	9.645000E-05
3.503779E+03	9.320738E-04	1.005537E-04
3.513593E+03	9.761948E-04	1.048489E-04
3.523408E+03	1.022567E-03	1.093408E-04
3.533222E+03	1.071324E-03	1.140399E-04
3.543037E+03	1.122547E-03	1.189511E-04
3.552851E+03	1.176201E-03	1.240670E-04
3.562666E+03	1.232476E-03	1.294034E-04
3.572480E+03	1.291325E-03	1.349516E-04
3.582295E+03	1.352878E-03	1.407207E-04
3.592109E+03	1.417136E-03	1.467065E-04
3.601924E+03	1.484223E-03	1.529175E-04
3.611738E+03	1.554062E-03	1.593411E-04
3.621553E+03	1.626765E-03	1.659842E-04
3.631367E+03	1.702376E-03	1.728467E-04
3.641182E+03	1.780930E-03	1.799272E-04
3.650996E+03	1.862308E-03	1.872089E-04
3.660811E+03	1.946673E-03	1.947033E-04
3.670625E+03	2.033883E-03	2.023913E-04
3.680440E+03	2.123933E-03	2.102676E-04
3.690254E+03	2.216889E-03	2.183337E-04
3.700069E+03	2.312563E-03	2.265665E-04
3.709883E+03	2.411002E-03	2.349654E-04
3.719698E+03	2.512071E-03	2.435129E-04
3.729512E+03	2.615708E-03	2.521983E-04
3.739327E+03	2.721747E-03	2.610010E-04
3.749141E+03	2.830191E-03	2.699171E-04
3.758956E+03	2.940752E-03	2.789148E-04
3.768770E+03	3.053405E-03	2.879880E-04
3.778585E+03	3.168024E-03	2.971209E-04
3.788399E+03	3.284269E-03	3.062782E-04
3.798214E+03	3.402082E-03	3.154512E-04
3.808028E+03	3.521189E-03	3.246118E-04
3.817843E+03	3.641303E-03	3.337309E-04
3.827657E+03	3.762330E-03	3.427978E-04
3.837472E+03	3.883957E-03	3.517822E-04
3.847286E+03	4.005966E-03	3.606629E-04
3.857101E+03	4.128016E-03	3.694084E-04
3.866915E+03	4.249869E-03	3.779968E-04
3.876730E+03	4.371163E-03	3.863960E-04
3.886544E+03	4.491755E-03	3.945939E-04
3.896359E+03	4.611155E-03	4.025486E-04
3.906173E+03	4.729094E-03	4.102380E-04
3.915988E+03	4.845417E-03	4.176510E-04
3.925802E+03	4.959497E-03	4.247362E-04
3.935617E+03	5.071295E-03	4.314936E-04
3.945431E+03	5.180418E-03	4.378935E-04
3.955246E+03	5.286486E-03	4.439083E-04
3.965060E+03	5.389172E-03	4.495155E-04
3.974875E+03	5.488543E-03	4.547261E-04
3.984689E+03	5.584079E-03	4.595028E-04
3.994504E+03	5.675789E-03	4.638527E-04
4.004318E+03	5.763592E-03	4.677755E-04
4.014133E+03	5.847188E-03	4.712536E-04
4.023947E+03	5.926814E-03	4.743131E-04
4.033762E+03	6.002121E-03	4.769331E-04
4.043576E+03	6.073404E-03	4.791442E-04
4.053391E+03	6.140617E-03	4.809499E-04
4.063205E+03	6.203747E-03	4.823560E-04
4.073020E+03	6.263046E-03	4.833893E-04
4.082834E+03	6.318558E-03	4.840600E-04
4.092649E+03	6.370360E-03	4.843804E-04
4.102463E+03	6.418912E-03	4.843920E-04
4.112278E+03	6.464220E-03	4.841012E-04
4.122092E+03	6.506558E-03	4.835342E-04
4.131907E+03	6.546330E-03	4.827261E-04
4.141721E+03	6.583826E-03	4.817032E-04
4.151536E+03	6.619230E-03	4.804830E-04
4.161350E+03	6.652963E-03	4.791000E-04
4.171165E+03	6.685212E-03	4.775707E-04
4.180979E+03	6.716399E-03	4.759282E-04
4.190794E+03	6.746947E-03	4.742045E-04
4.200608E+03	6.776924E-03	4.724060E-04
4.210423E+03	6.806979E-03	4.705792E-04
4.220238E+03	6.837180E-03	4.687290E-04
4.230052E+03	6.868048E-03	4.668914E-04
4.239867E+03	6.899760E-03	4.650777E-04
4.249681E+03	6.932822E-03	4.633210E-04
4.259496E+03	6.967394E-03	4.616303E-04
4.269310E+03	7.003966E-03	4.600359E-04
4.279125E+03	7.042786E-03	4.585514E-04
4.288939E+03	7.084078E-03	4.571880E-04
4.298754E+03	7.128270E-03	4.559700E-04
4.308568E+03	7.175446E-03	4.548985E-04
4.318383E+03	7.225876E-03	4.539864E-04
4.328197E+03	7.279815E-03	4.532451E-04
4.338012E+03	7.337391E-03	4.526777E-04
4.347826E+03	7.398717E-03	4.522860E-04
4.357641E+03	7.463987E-03	4.520768E-04
4.367455E+03	7.533172E-03	4.520431E-04
4.377270E+03	7.606426E-03	4.521887E-04
4.387084E+03	7.683670E-03	4.525039E-04
4.396899E+03	7.764920E-03	4.529845E-04
4.406713E+03	7.850133E-03	4.536232E-04
4.416528E+03	7.939008E-03	4.543980E-04
4.426342E+03	8.031555E-03	4.553055E-04
4.436157E+03	8.127505E-03	4.563267E-04
4.445971E+03	8.226540E-03	4.574405E-04
4.455786E+03	8.328431E-03	4.586319E-04
4.465600E+03	8.432728E-03	4.598741E-04
4.475415E+03	8.538943E-03	4.611397E-04
4.485229E+03	8.646732E-03	4.624101E-04
4.495044E+03	8.755323E-03	4.636449E-04
4.504858E+03	8.864083E-03	4.648127E-04
4.514673E+03	8.972298E-03	4.658794E-04
4.524487E+03	9.078928E-03	4.667959E-04
4.534302E+03	9.183348E-03	4.675363E-04
4.544116E+03	9.284378E-03	4.680479E-04
4.553931E+03	9.381052E-03	4.682914E-04
4.563745E+03	9.472365E-03	4.682274E-04
4.573560E+03	9.557289E-03	4.678172E-04
4.583374E+03	9.634722E-03	4.670204E-04
4.593189E+03	9.703929E-03	4.658164E-04
4.603003E+03	9.763618E-03	4.641590E-04
4.612818E+03	9.813276E-03	4.620412E-04
4.622632E+03	9.851860E-03	4.594316E-04
4.632447E+03	9.878638E-03	4.563149E-04
4.642261E+03	9.893182E-03	4.526903E-04
4.652076E+03	9.894925E-03	4.485511E-04
4.661890E+03	9.883749E-03	4.439112E-04
4.671705E+03	9.859560E-03	4.387852E-04
4.681519E+03	9.822508E-03	4.331977E-04
4.691334E+03	9.773184E-03	4.271919E-04
4.701148E+03	9.712178E-03	4.208091E-04
4.710963E+03	9.640634E-03	4.141130E-04
4.720777E+03	9.559695E-03	4.071646E-04
4.730592E+03	9.471156E-03	4.000502E-04
4.740406E+03	9.376727E-03	3.928495E-04
4.750221E+03	9.278078E-03	3.856374E-04
4.760035E+03	9.177193E-03	3.784993E-04
4.769850E+03	9.076010E-03	3.715157E-04
4.779664E+03	8.976170E-03	3.647525E-04
4.789479E+03	8.879418E-03	3.582775E-04
4.799293E+03	8.787293E-03	3.521486E-04
4.809108E+03	8.701068E-03	3.464112E-04
4.818922E+03	8.622057E-03	3.411113E-04
4.828737E+03	8.551349E-03	3.362852E-04
4.838551E+03	8.489866E-03	3.319605E-04
4.848366E+03	8.438118E-03	3.281460E-04
4.858180E+03	8.396746E-03	3.248553E-04
4.867995E+03	8.366007E-03	3.220873E-04
4.877809E+03	8.346039E-03	3.198371E-04
4.887624E+03	8.336885E-03	3.180964E-04
4.897438E+03	8.338442E-03	3.168523E-04
4.907253E+03	8.350511E-03	3.160888E-04
4.917067E+03	8.372550E-03	3.157774E-04
4.926882E+03	8.404067E-03	3.158926E-04
4.936696E+03	8.444040E-03	3.163897E-04
4.946511E+03	8.491474E-03	3.172256E-04
4.956325E+03	8.545164E-03	3.183503E-04
4.966140E+03	8.603671E-03	3.197058E-04
4.975954E+03	8.665733E-03	3.212413E-04
4.985769E+03	8.729799E-03	3.228958E-04
4.995583E+03	8.794423E-03	3.246126E-04
5.005398E+03	8.858557E-03	3.263503E-04
5.015212E+03	8.920694E-03	3.280506E-04
5.025027E+03	8.980270E-03	3.296901E-04
5.034841E+03	9.036723E-03	3.312457E-04
5.044656E+03	9.089721E-03	3.327025E-04
5.054471E+03	9.139439E-03	3.340641E-04
5.064285E+03	9.186474E-03	3.353495E-04
5.074100E+03	9.231474E-03	3.365793E-04
5.083914E+03	9.275197E-03	3.377781E-04
5.093729E+03	9.318474E-03	3.389727E-04
5.103543E+03	9.362069E-03	3.401877E-04
5.113358E+03	9.406752E-03	3.414475E-04
5.123172E+03	9.452901E-03	3.427623E-04
5.132987E+03	9.501217E-03	3.441542E-04
5.142801E+03	9.552071E-03	3.456329E-04
5.152616E+03	9.605662E-03	3.472021E-04
5.162430E+03	9.662220E-03	3.488665E-04
5.172245E+03	9.721882E-03	3.506276E-04
5.182059E+03	9.784840E-03	3.524886E-04
5.191874E+03	9.851136E-03	3.544474E-04
5.201688E+03	9.920631E-03	3.564954E-04
5.211503E+03	9.993242E-03	3.586260E-04
5.221317E+03	1.006891E-02	3.608334E-04
5.231132E+03	1.014732E-02	3.631028E-04
5.240946E+03	1.022799E-02	3.654132E-04
5.250761E+03	1.031042E-02	3.677436E-04
5.260575E+03	1.039409E-02	3.700714E-04
5.270390E+03	1.047816E-02	3.723640E-04
5.280204E+03	1.056193E-02	3.745926E-04
5.290019E+03	1.064436E-02	3.767181E-04
5.299833E+03	1.072446E-02	3.787022E-04
5.309648E+03	1.080128E-02	3.805098E-04
5.319462E+03	1.087369E-02	3.820984E-04
5.329277E+03	1.094062E-02	3.834290E-04
5.339091E+03	1.100110E-02	3.844668E-04
5.348906E+03	1.105399E-02	3.851717E-04
5.358720E+03	1.109842E-02	3.855128E-04
5.368535E+03	1.113332E-02	3.854546E-04
5.378349E+03	1.115791E-02	3.849712E-04
5.388164E+03	1.117160E-02	3.840445E-04
5.397978E+03	1.117371E-02	3.826537E-04
5.407793E+03	1.116382E-02	3.807878E-04
5.417607E+03	1.114162E-02	3.784409E-04
5.427422E+03	1.110700E-02	3.756137E-04
5.437236E+03	1.105987E-02	3.723089E-04
5.447051E+03	1.100023E-02	3.685320E-04
5.456865E+03	1.092828E-02	3.642960E-04
5.466680E+03	1.084408E-02	3.596108E-04
5.476494E+03	1.074810E-02	3.544983E-04
5.486309E+03	1.064074E-02	3.489806E-04
5.496123E+03	1.052269E-02	3.430873E-04
5.505938E+03	1.039463E-02	3.368492E-04
5.515752E+03	1.025762E-02	3.303090E-04
5.525567E+03	1.011288E-02	3.235134E-04
5.535381E+03	9.961766E-03	3.165131E-04
5.545196E+03	9.805921E-03	3.093677E-04
5.555010E+03	9.646984E-03	3.021348E-04
5.564825E+03	9.487051E-03	2.948848E-04
5.574639E+03	9.328341E-03	2.876905E-04
5.584454E+03	9.173093E-03	2.806229E-04
5.594268E+03	9.023712E-03	2.737558E-04
5.604083E+03	8.882614E-03	2.671610E-04
5.613897E+03	8.752359E-03	2.609114E-04
5.623712E+03	8.635266E-03	2.550702E-04
5.633526E+03	8.533752E-03	2.497003E-04
5.643341E+03	8.449904E-03	2.448519E-04
5.653155E+03	8.385880E-03	2.405745E-04
5.662970E+03	8.343558E-03	2.369065E-04
5.672784E+03	8.324735E-03	2.338813E-04
5.682599E+03	8.330962E-03	2.315227E-04
5.692413E+03	8.363826E-03	2.298530E-04
5.702228E+03	8.424446E-03	2.288791E-04
5.712042E+03	8.514006E-03	2.286080E-04
5.721857E+03	8.633336E-03	2.290349E-04
5.731671E+03	8.782825E-03	2.301423E-04
5.741486E+03	8.962695E-03	2.319072E-04
5.751300E+03	9.172878E-03	2.342988E-04
5.761115E+03	9.413095E-03	2.372810E-04
5.770929E+03	9.682817E-03	2.408118E-04
5.780744E+03	9.981141E-03	2.448409E-04
5.790558E+03	1.030652E-02	2.493038E-04
5.800373E+03	1.065676E-02	2.541237E-04
5.810187E+03	1.102878E-02	2.592061E-04
5.820002E+03	1.141834E-02	2.644350E-04
5.829816E+03	1.182022E-02	2.696792E-04
5.839631E+03	1.222778E-02	2.747841E-04
5.849445E+03	1.263318E-02	2.795785E-04
5.859260E+03	1.302793E-02	2.838897E-04
5.869074E+03	1.340238E-02	2.875330E-04
5.878889E+03	1.374745E-02	2.903504E-04
5.888704E+03	1.405398E-02	2.921952E-04
5.898518E+03	1.431366E-02	2.929506E-04
5.908333E+03	1.452002E-02	2.925487E-04
5.918147E+03	1.466795E-02	2.909557E-04
5.927962E+03	1.475428E-02	2.881821E-04
5.937776E+03	1.477815E-02	2.842839E-04
5.947591E+03	1.474087E-02	2.793579E-04
5.957405E+03	1.464503E-02	2.735194E-04
5.967220E+03	1.449538E-02	2.669178E-04
5.977034E+03	1.429744E-02	2.597071E-04
5.986849E+03	1.405826E-02	2.520585E-04
5.996663E+03	1.378521E-02	2.441382E-04
6.006478E+03	1.348626E-02	2.361118E-04
6.016292E+03	1.316949E-02	2.281357E-04
6.026107E+03	1.284285E-02	2.203546E-04
6.035921E+03	1.251404E-02	2.129000E-04
6.045736E+03	1.219009E-02	2.058850E-04
6.055550E+03	1.187753E-02	1.994090E-04
6.065365E+03	1.158167E-02	1.935470E-04
6.075179E+03	1.130712E-02	1.883610E-04
6.084994E+03	1.105683E-02	1.838834E-04
6.094808E+03	1.083267E-02	1.801205E-04
6.104623E+03	1.063498E-02	1.770522E-04
6.114437E+03	1.046345E-02	1.746502E-04
6.124252E+03	1.031672E-02	1.728724E-04
6.134066E+03	1.019310E-02	1.716739E-04
6.143881E+03	1.009083E-02	1.710105E-04
6.153695E+03	1.000749E-02	1.708297E-04
6.163510E+03	9.941057E-03	1.710858E-04
6.173324E+03	9.889208E-03	1.717297E-04
6.183139E+03	9.849827E-03	1.727159E-04
6.192953E+03	9.820897E-03	1.740008E-04
6.202768E+03	9.800434E-03	1.755412E-04
6.212582E+03	9.787013E-03	1.773037E-04
6.222397E+03	9.779121E-03	1.792529E-04
6.232211E+03	9.775322E-03	1.813546E-04
6.242026E+03	9.774395E-03	1.835778E-04
6.251840E+03	9.774948E-03	1.858881E-04
6.261655E+03	9.775806E-03	1.882544E-04
6.271469E+03	9.775818E-03	1.906455E-04
6.281284E+03	9.773744E-03	1.930280E-04
6.291098E+03	9.768433E-03	1.953693E-04
6.300913E+03	9.758934E-03	1.976402E-04
6.310727E+03	9.744430E-03	1.998140E-04
6.320542E+03	9.724702E-03	2.018759E-04
6.330356E+03	9.699492E-03	2.038104E-04
6.340171E+03	9.669061E-03	2.056134E-04
6.349985E+03	9.633920E-03	2.072870E-04
6.359800E+03	9.594901E-03	2.088411E-04
6.369614E+03	9.552848E-03	2.102875E-04
6.379429E+03	9.508721E-03	2.116413E-04
6.389243E+03	9.463525E-03	2.129205E-04
6.399058E+03	9.418347E-03	2.141462E-04
6.408872E+03	9.374524E-03	2.153463E-04
6.418687E+03	9.333472E-03	2.165525E-04
6.428501E+03	9.296643E-03	2.177986E-04
6.438316E+03	9.265799E-03	2.191273E-04
6.448130E+03	9.242481E-03	2.205777E-04
6.457945E+03	9.228535E-03	2.221975E-04
6.467759E+03	9.225300E-03	2.240238E-04
6.477574E+03	9.234467E-03	2.261030E-04
6.487388E+03	9.257278E-03	2.284716E-04
6.497203E+03	9.294926E-03	2.311658E-04
6.507017E+03	9.348302E-03	2.342146E-04
6.516832E+03	9.418038E-03	2.376406E-04
6.526646E+03	9.504138E-03	2.414506E-04
6.536461E+03	9.606406E-03	2.456458E-04
6.546275E+03	9.724256E-03	2.502164E-04
6.556090E+03	9.856663E-03	2.551409E-04
6.565904E+03	1.000218E-02	2.603853E-04
6.575719E+03	1.015944E-02	2.659164E-04
6.585533E+03	1.032646E-02	2.716842E-04
6.595348E+03	1.050085E-02	2.776255E-04
6.605162E+03	1.068012E-02	2.836739E-04
6.614977E+03	1.086124E-02	2.897467E-04
6.624791E+03	1.104125E-02	2.957620E-04
6.634606E+03	1.121667E-02	3.016208E-04
6.644420E+03	1.138419E-02	3.072286E-04
6.654235E+03	1.154007E-02	3.124770E-04
6.664049E+03	1.168138E-02	3.172797E-04
6.673864E+03	1.180492E-02	3.215417E-04
6.683678E+03	1.190821E-02	3.251884E-04
6.693493E+03	1.198889E-02	3.281479E-04
6.703307E+03	1.204575E-02	3.303804E-04
6.713122E+03	1.207746E-02	3.318437E-04
6.722937E+03	1.208382E-02	3.325273E-04
6.732751E+03	1.206500E-02	3.324325E-04
6.742566E+03	1.202176E-02	3.315772E-04
6.752380E+03	1.195584E-02	3.300081E-04
6.762195E+03	1.186943E-02	3.277859E-04
6.772009E+03	1.176488E-02	3.249761E-04
6.781824E+03	1.164543E-02	3.216703E-04
6.791638E+03	1.151429E-02	3.179596E-04
6.801453E+03	1.137494E-02	3.139432E-04
6.811267E+03	1.123097E-02	3.097238E-04
6.821082E+03	1.108571E-02	3.053971E-04
6.830896E+03	1.094249E-02	3.010577E-04
6.840711E+03	1.080449E-02	2.967967E-04
6.850525E+03	1.067426E-02	2.926867E-04
6.860340E+03	1.055417E-02	2.887946E-04
6.870154E+03	1.044634E-02	2.851799E-04
6.879969E+03	1.035192E-02	2.818745E-04
6.889783E+03	1.027227E-02	2.789153E-04
6.899598E+03	1.020797E-02	2.763173E-04
6.909412E+03	1.015919E-02	2.740833E-04
6.919227E+03	1.012578E-02	2.722074E-04
6.929041E+03	1.010731E-02	2.706758E-04
6.938856E+03	1.010286E-02	2.694610E-04
6.948670E+03	1.011168E-02	2.685398E-04
6.958485E+03	1.013218E-02	2.678678E-04
6.968299E+03	1.016279E-02	2.674004E-04
6.978114E+03	1.020182E-02	2.670912E-04
6.987928E+03	1.024732E-02	2.668877E-04
6.997743E+03	1.029700E-02	2.667295E-04
7.007557E+03	1.034907E-02	2.665701E-04
7.017372E+03	1.040133E-02	2.663546E-04
7.027186E+03	1.045183E-02	2.660351E-04
7.037001E+03	1.049903E-02	2.655759E-04
7.046815E+03	1.054127E-02	2.649394E-04
7.056630E+03	1.057741E-02	2.641028E-04
7.066444E+03	1.060652E-02	2.630491E-04
7.076259E+03	1.062798E-02	2.617708E-04
7.086073E+03	1.064184E-02	2.602765E-04
7.095888E+03	1.064808E-02	2.585740E-04
7.105702E+03	1.064744E-02	2.566901E-04
7.115517E+03	1.064033E-02	2.546429E-04
7.125331E+03	1.062749E-02	2.524586E-04
7.135146E+03	1.060962E-02	2.501623E-04
7.144960E+03	1.058737E-02	2.477776E-04
7.154775E+03	1.056117E-02	2.453223E-04
7.164589E+03	1.053152E-02	2.428166E-04
7.174404E+03	1.049869E-02	2.402747E-04
7.184218E+03	1.046292E-02	2.377097E-04
7.194033E+03	1.042479E-02	2.351434E-04
7.203847E+03	1.038412E-02	2.325795E-04
7.213662E+03	1.034111E-02	2.300305E-04
7.223476E+03	1.029601E-02	2.275098E-04
7.233291E+03	1.024846E-02	2.250177E-04
7.243105E+03	1.019833E-02	2.225593E-04
7.252920E+03	1.014526E-02	2.201347E-04
7.262734E+03	1.008908E-02	2.177485E-04
7.272549E+03	1.002920E-02	2.153951E-04
7.282363E+03	9.965309E-03	2.130759E-04
7.292178E+03	9.897296E-03	2.107956E-04
7.301992E+03	9.824837E-03	2.085539E-04
7.311807E+03	9.747630E-03	2.063506E-04
7.321621E+03	9.665789E-03	2.041933E-04
7.331436E+03	9.579056E-03	2.020809E-04
7.341250E+03	9.487600E-03	2.000206E-04
7.351065E+03	9.391011E-03	1.980061E-04
7.360879E+03	9.289620E-03	1.960455E-04
7.370694E+03	9.183236E-03	1.941348E-04
7.380508E+03	9.071998E-03	1.922713E-04
7.390323E+03	8.955958E-03	1.904451E-04
7.400137E+03	8.835397E-03	1.886497E-04
7.409952E+03	8.710552E-03	1.868777E-04
7.419766E+03	8.581723E-03	1.851223E-04
7.429581E+03	8.449359E-03	1.833800E-04
7.439395E+03	8.313872E-03	1.816466E-04
7.449210E+03	8.175423E-03	1.799125E-04
7.459024E+03	8.034564E-03	1.781769E-04
7.468839E+03	7.891377E-03	1.764294E-04
7.478653E+03	7.746478E-03	1.746714E-04
7.488468E+03	7.600187E-03	1.728989E-04
7.498282E+03	7.453247E-03	1.711181E-04
7.508097E+03	7.306064E-03	1.693284E-04
7.517911E+03	7.159541E-03	1.675418E-04
7.527726E+03	7.014210E-03	1.657630E-04
7.537540E+03	6.871112E-03	1.640098E-04
7.547355E+03	6.730632E-03	1.622859E-04
7.557169E+03	6.593565E-03	1.606059E-04
7.566984E+03	6.460424E-03	1.589788E-04
7.576799E+03	6.331557E-03	1.574107E-04
7.586613E+03	6.207310E-03	1.559086E-04
7.596428E+03	6.088059E-03	1.544809E-04
7.606242E+03	5.974039E-03	1.531335E-04
7.616057E+03	5.865248E-03	1.518667E-04
