#wls	flux	fluxerr
1.570321E+03	1.456605E-04	7.295534E-06
1.609579E+03	1.482978E-04	7.424667E-06
1.648837E+03	1.511400E-04	7.563868E-06
1.688095E+03	1.542536E-04	7.716437E-06
1.727353E+03	1.576260E-04	7.881726E-06
1.766611E+03	1.612723E-04	8.060462E-06
1.805869E+03	1.652375E-04	8.254869E-06
1.845127E+03	1.695408E-04	8.465871E-06
1.884385E+03	1.742026E-04	8.694458E-06
1.923643E+03	1.792451E-04	8.941693E-06
1.962901E+03	1.847235E-04	9.210286E-06
2.002159E+03	1.906329E-04	9.499958E-06
2.041417E+03	1.970339E-04	9.813663E-06
2.080675E+03	2.039578E-04	1.015292E-05
2.119933E+03	2.114730E-04	1.052106E-05
2.159191E+03	2.195824E-04	1.091816E-05
2.198449E+03	2.283977E-04	1.134969E-05
2.237707E+03	2.379277E-04	1.181602E-05
2.276965E+03	2.482572E-04	1.232126E-05
2.316223E+03	2.594785E-04	1.286987E-05
2.355481E+03	2.716084E-04	1.346259E-05
2.394739E+03	2.847895E-04	1.410635E-05
2.433997E+03	2.990452E-04	1.480215E-05
2.473255E+03	3.145322E-04	1.555762E-05
2.512513E+03	3.313741E-04	1.637867E-05
2.551772E+03	3.496049E-04	1.726678E-05
2.591030E+03	3.693541E-04	1.822815E-05
2.630288E+03	3.908623E-04	1.927441E-05
2.669546E+03	4.141204E-04	2.040484E-05
2.708804E+03	4.393826E-04	2.163167E-05
2.748062E+03	4.667481E-04	2.295945E-05
2.787320E+03	4.964907E-04	2.440130E-05
2.826578E+03	5.285892E-04	2.595577E-05
2.865836E+03	5.634455E-04	2.764218E-05
2.905094E+03	6.010897E-04	2.946151E-05
2.944352E+03	6.417307E-04	3.142349E-05
2.954166E+03	6.524344E-04	3.193989E-05
2.963981E+03	6.633092E-04	3.246437E-05
2.973795E+03	6.743550E-04	3.299691E-05
2.983610E+03	6.856432E-04	3.354101E-05
2.993424E+03	6.971754E-04	3.409671E-05
3.003239E+03	7.088799E-04	3.466052E-05
3.013053E+03	7.208304E-04	3.523601E-05
3.022868E+03	7.330264E-04	3.582317E-05
3.032682E+03	7.453953E-04	3.641842E-05
3.042497E+03	7.580118E-04	3.702541E-05
3.052311E+03	7.708751E-04	3.764409E-05
3.062126E+03	7.839099E-04	3.827077E-05
3.071940E+03	7.972683E-04	3.891286E-05
3.081755E+03	8.107973E-04	3.956288E-05
3.091569E+03	8.245724E-04	4.022450E-05
3.101384E+03	8.386724E-04	4.090157E-05
3.111198E+03	8.529401E-04	4.158639E-05
3.121013E+03	8.674524E-04	4.228270E-05
3.130827E+03	8.822880E-04	4.299434E-05
3.140642E+03	8.972865E-04	4.371345E-05
3.150456E+03	9.126068E-04	4.444779E-05
3.160271E+03	9.281666E-04	4.519333E-05
3.170085E+03	9.439645E-04	4.594997E-05
3.179900E+03	9.600808E-04	4.672162E-05
3.189714E+03	9.764308E-04	4.750414E-05
3.199529E+03	9.930117E-04	4.829739E-05
3.209343E+03	1.009905E-03	4.910529E-05
3.219158E+03	1.027107E-03	4.992771E-05
3.228972E+03	1.044532E-03	5.076040E-05
3.238787E+03	1.062176E-03	5.160317E-05
3.248601E+03	1.080120E-03	5.245994E-05
3.258416E+03	1.098361E-03	5.333057E-05
3.268230E+03	1.116896E-03	5.421485E-05
3.278045E+03	1.135719E-03	5.511257E-05
3.287859E+03	1.154740E-03	5.601923E-05
3.297674E+03	1.174129E-03	5.694313E-05
3.307488E+03	1.193704E-03	5.787544E-05
3.317303E+03	1.213638E-03	5.882446E-05
3.327117E+03	1.233746E-03	5.978128E-05
3.336932E+03	1.254201E-03	6.075423E-05
3.346746E+03	1.274908E-03	6.173870E-05
3.356561E+03	1.295951E-03	6.273873E-05
3.366376E+03	1.317232E-03	6.374956E-05
3.376190E+03	1.338743E-03	6.477084E-05
3.386005E+03	1.360569E-03	6.580657E-05
3.395819E+03	1.382609E-03	6.685194E-05
3.405634E+03	1.404948E-03	6.791097E-05
3.415448E+03	1.427578E-03	6.898331E-05
3.425263E+03	1.450490E-03	7.006847E-05
3.435077E+03	1.473581E-03	7.116148E-05
3.444892E+03	1.496935E-03	7.226639E-05
3.454706E+03	1.520638E-03	7.338726E-05
3.464521E+03	1.544489E-03	7.451448E-05
3.474335E+03	1.568668E-03	7.565667E-05
3.484150E+03	1.593069E-03	7.680871E-05
3.493964E+03	1.617682E-03	7.797007E-05
3.503779E+03	1.642590E-03	7.914473E-05
3.513593E+03	1.667686E-03	8.032756E-05
3.523408E+03	1.692958E-03	8.151795E-05
3.533222E+03	1.718489E-03	8.271991E-05
3.543037E+03	1.744268E-03	8.393284E-05
3.552851E+03	1.770282E-03	8.515609E-05
3.562666E+03	1.796420E-03	8.638438E-05
3.572480E+03	1.822864E-03	8.762637E-05
3.582295E+03	1.849406E-03	8.887207E-05
3.592109E+03	1.876226E-03	9.013012E-05
3.601924E+03	1.903117E-03	9.139057E-05
3.611738E+03	1.930257E-03	9.266197E-05
3.621553E+03	1.957633E-03	9.394364E-05
3.631367E+03	1.985134E-03	9.523024E-05
3.641182E+03	2.012745E-03	9.652108E-05
3.650996E+03	2.040548E-03	9.782003E-05
3.660811E+03	2.068434E-03	9.912183E-05
3.670625E+03	2.096481E-03	1.004303E-04
3.680440E+03	2.124676E-03	1.017447E-04
3.690254E+03	2.153004E-03	1.030644E-04
3.700069E+03	2.181451E-03	1.043887E-04
3.709883E+03	2.210001E-03	1.057167E-04
3.719698E+03	2.238640E-03	1.070478E-04
3.729512E+03	2.267353E-03	1.083814E-04
3.739327E+03	2.296127E-03	1.097166E-04
3.749141E+03	2.325040E-03	1.110574E-04
3.758956E+03	2.353985E-03	1.123985E-04
3.768770E+03	2.383042E-03	1.137437E-04
3.778585E+03	2.412009E-03	1.150835E-04
3.788399E+03	2.441155E-03	1.164305E-04
3.798214E+03	2.470279E-03	1.177753E-04
3.808028E+03	2.499461E-03	1.191217E-04
3.817843E+03	2.528596E-03	1.204646E-04
3.827657E+03	2.557765E-03	1.218078E-04
3.837472E+03	2.586956E-03	1.231509E-04
3.847286E+03	2.616158E-03	1.244932E-04
3.857101E+03	2.645268E-03	1.258299E-04
3.866915E+03	2.674368E-03	1.271649E-04
3.876730E+03	2.703449E-03	1.284977E-04
3.886544E+03	2.732502E-03	1.298279E-04
3.896359E+03	2.761518E-03	1.311550E-04
3.906173E+03	2.790399E-03	1.324745E-04
3.915988E+03	2.819228E-03	1.337903E-04
3.925802E+03	2.848001E-03	1.351021E-04
3.935617E+03	2.876710E-03	1.364096E-04
3.945431E+03	2.905351E-03	1.377125E-04
3.955246E+03	2.933832E-03	1.390067E-04
3.965060E+03	2.962239E-03	1.402960E-04
3.974875E+03	2.990482E-03	1.415762E-04
3.984689E+03	3.018561E-03	1.428474E-04
3.994504E+03	3.046561E-03	1.441136E-04
4.004318E+03	3.074483E-03	1.453748E-04
4.014133E+03	3.102159E-03	1.466230E-04
4.023947E+03	3.129677E-03	1.478626E-04
4.033762E+03	3.157040E-03	1.490935E-04
4.043576E+03	3.184254E-03	1.503161E-04
4.053391E+03	3.211242E-03	1.515267E-04
4.063205E+03	3.238092E-03	1.527296E-04
4.073020E+03	3.264732E-03	1.539213E-04
4.082834E+03	3.291089E-03	1.550983E-04
4.092649E+03	3.317336E-03	1.562689E-04
4.102463E+03	3.343322E-03	1.574260E-04
4.112278E+03	3.369060E-03	1.585701E-04
4.122092E+03	3.394485E-03	1.596983E-04
4.131907E+03	3.419768E-03	1.608185E-04
4.141721E+03	3.444768E-03	1.619242E-04
4.151536E+03	3.469501E-03	1.630160E-04
4.161350E+03	3.493983E-03	1.640949E-04
4.171165E+03	3.518155E-03	1.651580E-04
4.180979E+03	3.542036E-03	1.662063E-04
4.190794E+03	3.565569E-03	1.672370E-04
4.200608E+03	3.588850E-03	1.682547E-04
4.210423E+03	3.611821E-03	1.692568E-04
4.220238E+03	3.634505E-03	1.702441E-04
4.230052E+03	3.656774E-03	1.712109E-04
4.239867E+03	3.678795E-03	1.721650E-04
4.249681E+03	3.700370E-03	1.730970E-04
4.259496E+03	3.721667E-03	1.740150E-04
4.269310E+03	3.742562E-03	1.749130E-04
4.279125E+03	3.763076E-03	1.757921E-04
4.288939E+03	3.783230E-03	1.766534E-04
4.298754E+03	3.802976E-03	1.774944E-04
4.308568E+03	3.822332E-03	1.783163E-04
4.318383E+03	3.841251E-03	1.791168E-04
4.328197E+03	3.859752E-03	1.798968E-04
4.338012E+03	3.877856E-03	1.806573E-04
4.347826E+03	3.895514E-03	1.813959E-04
4.357641E+03	3.912811E-03	1.821169E-04
4.367455E+03	3.929566E-03	1.828117E-04
4.377270E+03	3.945930E-03	1.834874E-04
4.387084E+03	3.961855E-03	1.841417E-04
4.396899E+03	3.977357E-03	1.847756E-04
4.406713E+03	3.992324E-03	1.853836E-04
4.416528E+03	4.006904E-03	1.859729E-04
4.426342E+03	4.021047E-03	1.865411E-04
4.436157E+03	4.034705E-03	1.870860E-04
4.445971E+03	4.047896E-03	1.876084E-04
4.455786E+03	4.060699E-03	1.881122E-04
4.465600E+03	4.073003E-03	1.885920E-04
4.475415E+03	4.084887E-03	1.890517E-04
4.485229E+03	4.096366E-03	1.894920E-04
4.495044E+03	4.107394E-03	1.899107E-04
4.504858E+03	4.117988E-03	1.903087E-04
4.514673E+03	4.128162E-03	1.906867E-04
4.524487E+03	4.137996E-03	1.910483E-04
4.534302E+03	4.147443E-03	1.913915E-04
4.544116E+03	4.156458E-03	1.917142E-04
4.553931E+03	4.165183E-03	1.920229E-04
4.563745E+03	4.173511E-03	1.923128E-04
4.573560E+03	4.181520E-03	1.925875E-04
4.583374E+03	4.189229E-03	1.928478E-04
4.593189E+03	4.196655E-03	1.930947E-04
4.603003E+03	4.203755E-03	1.933261E-04
4.612818E+03	4.210668E-03	1.935484E-04
4.622632E+03	4.217291E-03	1.937570E-04
4.632447E+03	4.223760E-03	1.939580E-04
4.642261E+03	4.229973E-03	1.941469E-04
4.652076E+03	4.236064E-03	1.943298E-04
4.661890E+03	4.241987E-03	1.945046E-04
4.671705E+03	4.247754E-03	1.946719E-04
4.681519E+03	4.253378E-03	1.948322E-04
4.691334E+03	4.258984E-03	1.949913E-04
4.701148E+03	4.264461E-03	1.951443E-04
4.710963E+03	4.269874E-03	1.952939E-04
4.720777E+03	4.275226E-03	1.954404E-04
4.730592E+03	4.280521E-03	1.955840E-04
4.740406E+03	4.285819E-03	1.957273E-04
4.750221E+03	4.291068E-03	1.958681E-04
4.760035E+03	4.296332E-03	1.960093E-04
4.769850E+03	4.301680E-03	1.961541E-04
4.779664E+03	4.307011E-03	1.962977E-04
4.789479E+03	4.312463E-03	1.964465E-04
4.799293E+03	4.318056E-03	1.966015E-04
4.809108E+03	4.323815E-03	1.967637E-04
4.818922E+03	4.329766E-03	1.969344E-04
4.828737E+03	4.335991E-03	1.971172E-04
4.838551E+03	4.342452E-03	1.973104E-04
4.848366E+03	4.349226E-03	1.975174E-04
4.858180E+03	4.356384E-03	1.977416E-04
4.867995E+03	4.363825E-03	1.979782E-04
4.877809E+03	4.371725E-03	1.982352E-04
4.887624E+03	4.379974E-03	1.985078E-04
4.897438E+03	4.388629E-03	1.987982E-04
4.907253E+03	4.397686E-03	1.991064E-04
4.917067E+03	4.407195E-03	1.994347E-04
4.926882E+03	4.417086E-03	1.997798E-04
4.936696E+03	4.427461E-03	2.001462E-04
4.946511E+03	4.438191E-03	2.005283E-04
4.956325E+03	4.449314E-03	2.009275E-04
4.966140E+03	4.460810E-03	2.013430E-04
4.975954E+03	4.472711E-03	2.017763E-04
4.985769E+03	4.484995E-03	2.022263E-04
4.995583E+03	4.497578E-03	2.026892E-04
5.005398E+03	4.510435E-03	2.031639E-04
5.015212E+03	4.523651E-03	2.036541E-04
5.025027E+03	4.537081E-03	2.041533E-04
5.034841E+03	4.550810E-03	2.046654E-04
5.044656E+03	4.564692E-03	2.051837E-04
5.054471E+03	4.578751E-03	2.057093E-04
5.064285E+03	4.593011E-03	2.062434E-04
5.074100E+03	4.607323E-03	2.067791E-04
5.083914E+03	4.621765E-03	2.073200E-04
5.093729E+03	4.636241E-03	2.078618E-04
5.103543E+03	4.650657E-03	2.084003E-04
5.113358E+03	4.665084E-03	2.089386E-04
5.123172E+03	4.679365E-03	2.094698E-04
5.132987E+03	4.693572E-03	2.099970E-04
5.142801E+03	4.707542E-03	2.105130E-04
5.152616E+03	4.721226E-03	2.110157E-04
5.162430E+03	4.734689E-03	2.115079E-04
5.172245E+03	4.747706E-03	2.119797E-04
5.182059E+03	4.760337E-03	2.124336E-04
5.191874E+03	4.772470E-03	2.128649E-04
5.201688E+03	4.784107E-03	2.132735E-04
5.211503E+03	4.795071E-03	2.136517E-04
5.221317E+03	4.805305E-03	2.139970E-04
5.231132E+03	4.814868E-03	2.143120E-04
5.240946E+03	4.823526E-03	2.145865E-04
5.250761E+03	4.831339E-03	2.148230E-04
5.260575E+03	4.838194E-03	2.150168E-04
5.270390E+03	4.844034E-03	2.151652E-04
5.280204E+03	4.848751E-03	2.152637E-04
5.290019E+03	4.852412E-03	2.153151E-04
5.299833E+03	4.854793E-03	2.153099E-04
5.309648E+03	4.855971E-03	2.152513E-04
5.319462E+03	4.855844E-03	2.151349E-04
5.329277E+03	4.854375E-03	2.149593E-04
5.339091E+03	4.851531E-03	2.147231E-04
5.348906E+03	4.847283E-03	2.144250E-04
5.358720E+03	4.841606E-03	2.140641E-04
5.368535E+03	4.834425E-03	2.136372E-04
5.378349E+03	4.825845E-03	2.131490E-04
5.388164E+03	4.815743E-03	2.125942E-04
5.397978E+03	4.804179E-03	2.119755E-04
5.407793E+03	4.791163E-03	2.112934E-04
5.417607E+03	4.776709E-03	2.105488E-04
5.427422E+03	4.760843E-03	2.097427E-04
5.437236E+03	4.743654E-03	2.088792E-04
5.447051E+03	4.725124E-03	2.079578E-04
5.456865E+03	4.705304E-03	2.069805E-04
5.466680E+03	4.684306E-03	2.059525E-04
5.476494E+03	4.662197E-03	2.048768E-04
5.486309E+03	4.639106E-03	2.037591E-04
5.496123E+03	4.615004E-03	2.025983E-04
5.505938E+03	4.590148E-03	2.014056E-04
5.515752E+03	4.564525E-03	2.001806E-04
5.525567E+03	4.538294E-03	1.989302E-04
5.535381E+03	4.511568E-03	1.976595E-04
5.545196E+03	4.484516E-03	1.963758E-04
5.555010E+03	4.457207E-03	1.950823E-04
5.564825E+03	4.429819E-03	1.937867E-04
5.574639E+03	4.402535E-03	1.924970E-04
5.584454E+03	4.375430E-03	1.912166E-04
5.594268E+03	4.348634E-03	1.899510E-04
5.604083E+03	4.322330E-03	1.887082E-04
5.613897E+03	4.296646E-03	1.874938E-04
5.623712E+03	4.271703E-03	1.863131E-04
5.633526E+03	4.247622E-03	1.851712E-04
5.643341E+03	4.224569E-03	1.840753E-04
5.653155E+03	4.202597E-03	1.830278E-04
5.662970E+03	4.181806E-03	1.820327E-04
5.672784E+03	4.162338E-03	1.810963E-04
5.682599E+03	4.144323E-03	1.802241E-04
5.692413E+03	4.127682E-03	1.794127E-04
5.702228E+03	4.112625E-03	1.786710E-04
5.712042E+03	4.099155E-03	1.779990E-04
5.721857E+03	4.087310E-03	1.773983E-04
5.731671E+03	4.077121E-03	1.768703E-04
5.741486E+03	4.068608E-03	1.764155E-04
5.751300E+03	4.061781E-03	1.760344E-04
5.761115E+03	4.056642E-03	1.757270E-04
5.770929E+03	4.053187E-03	1.754929E-04
5.780744E+03	4.051451E-03	1.753336E-04
5.790558E+03	4.051318E-03	1.752439E-04
5.800373E+03	4.052813E-03	1.752249E-04
5.810187E+03	4.055910E-03	1.752753E-04
5.820002E+03	4.060580E-03	1.753938E-04
5.829816E+03	4.066744E-03	1.755769E-04
5.839631E+03	4.074423E-03	1.758253E-04
5.849445E+03	4.083591E-03	1.761380E-04
5.859260E+03	4.094174E-03	1.765115E-04
5.869074E+03	4.106152E-03	1.769451E-04
5.878889E+03	4.119564E-03	1.774402E-04
5.888704E+03	4.134352E-03	1.779944E-04
5.898518E+03	4.150518E-03	1.786075E-04
5.908333E+03	4.168067E-03	1.792798E-04
5.918147E+03	4.186968E-03	1.800098E-04
5.927962E+03	4.207348E-03	1.808030E-04
5.937776E+03	4.229083E-03	1.816540E-04
5.947591E+03	4.252373E-03	1.825712E-04
5.957405E+03	4.277106E-03	1.835497E-04
5.967220E+03	4.303442E-03	1.845965E-04
5.977034E+03	4.331385E-03	1.857114E-04
5.986849E+03	4.360994E-03	1.868972E-04
5.996663E+03	4.392332E-03	1.881562E-04
6.006478E+03	4.425459E-03	1.894910E-04
6.016292E+03	4.460375E-03	1.909016E-04
6.026107E+03	4.497187E-03	1.923923E-04
6.035921E+03	4.535877E-03	1.939625E-04
6.045736E+03	4.576533E-03	1.956156E-04
6.055550E+03	4.619111E-03	1.973499E-04
6.065365E+03	4.663661E-03	1.991672E-04
6.075179E+03	4.710096E-03	2.010638E-04
6.084994E+03	4.758353E-03	2.030371E-04
6.094808E+03	4.808339E-03	2.050828E-04
6.104623E+03	4.859920E-03	2.071952E-04
6.114437E+03	4.912988E-03	2.093697E-04
6.124252E+03	4.967211E-03	2.115920E-04
6.134066E+03	5.022468E-03	2.138569E-04
6.143881E+03	5.078413E-03	2.161496E-04
6.153695E+03	5.134660E-03	2.184538E-04
6.163510E+03	5.190988E-03	2.207599E-04
6.173324E+03	5.246944E-03	2.230488E-04
6.183139E+03	5.302113E-03	2.253029E-04
6.192953E+03	5.356052E-03	2.275033E-04
6.202768E+03	5.408365E-03	2.296334E-04
6.212582E+03	5.458433E-03	2.316669E-04
6.222397E+03	5.505904E-03	2.335891E-04
6.232211E+03	5.550213E-03	2.353760E-04
6.242026E+03	5.590941E-03	2.370103E-04
6.251840E+03	5.627539E-03	2.384686E-04
6.261655E+03	5.659549E-03	2.397320E-04
6.271469E+03	5.686619E-03	2.407856E-04
6.281284E+03	5.708289E-03	2.416102E-04
6.291098E+03	5.724365E-03	2.421980E-04
6.300913E+03	5.734412E-03	2.425308E-04
6.310727E+03	5.738277E-03	2.426023E-04
6.320542E+03	5.735797E-03	2.424061E-04
6.330356E+03	5.726803E-03	2.419353E-04
6.340171E+03	5.711497E-03	2.411987E-04
6.349985E+03	5.689697E-03	2.401888E-04
6.359800E+03	5.661667E-03	2.389173E-04
6.369614E+03	5.627508E-03	2.373885E-04
6.379429E+03	5.587534E-03	2.356160E-04
6.389243E+03	5.542035E-03	2.336123E-04
6.399058E+03	5.491275E-03	2.313888E-04
6.408872E+03	5.435781E-03	2.289678E-04
6.418687E+03	5.375814E-03	2.263606E-04
6.428501E+03	5.312026E-03	2.235948E-04
6.438316E+03	5.244647E-03	2.206803E-04
6.448130E+03	5.174280E-03	2.176425E-04
6.457945E+03	5.101380E-03	2.145006E-04
6.467759E+03	5.026400E-03	2.112739E-04
6.477574E+03	4.949781E-03	2.079810E-04
6.487388E+03	4.872018E-03	2.046426E-04
6.497203E+03	4.793383E-03	2.012701E-04
6.507017E+03	4.714459E-03	1.978883E-04
6.516832E+03	4.635477E-03	1.945066E-04
6.526646E+03	4.556834E-03	1.911417E-04
6.536461E+03	4.478837E-03	1.878066E-04
6.546275E+03	4.401769E-03	1.845129E-04
6.556090E+03	4.325942E-03	1.812738E-04
6.565904E+03	4.251521E-03	1.780960E-04
6.575719E+03	4.178769E-03	1.749905E-04
6.585533E+03	4.107861E-03	1.719645E-04
6.595348E+03	4.038951E-03	1.690244E-04
6.605162E+03	3.972169E-03	1.661756E-04
6.614977E+03	3.907629E-03	1.634226E-04
6.624791E+03	3.845481E-03	1.607717E-04
6.634606E+03	3.785747E-03	1.582236E-04
6.644420E+03	3.728542E-03	1.557831E-04
6.654235E+03	3.673861E-03	1.534499E-04
6.664049E+03	3.621797E-03	1.512276E-04
6.673864E+03	3.572427E-03	1.491195E-04
6.683678E+03	3.525662E-03	1.471216E-04
6.693493E+03	3.481566E-03	1.452366E-04
6.703307E+03	3.440191E-03	1.434665E-04
6.713122E+03	3.401483E-03	1.418089E-04
6.722937E+03	3.365433E-03	1.402633E-04
6.732751E+03	3.332080E-03	1.388313E-04
6.742566E+03	3.301360E-03	1.375101E-04
6.752380E+03	3.273308E-03	1.363010E-04
6.762195E+03	3.247862E-03	1.352014E-04
6.772009E+03	3.225054E-03	1.342124E-04
6.781824E+03	3.204869E-03	1.333334E-04
6.791638E+03	3.187241E-03	1.325615E-04
6.801453E+03	3.172148E-03	1.318958E-04
6.811267E+03	3.159664E-03	1.313391E-04
6.821082E+03	3.149667E-03	1.308863E-04
6.830896E+03	3.142178E-03	1.305383E-04
6.840711E+03	3.137120E-03	1.302916E-04
6.850525E+03	3.134507E-03	1.301469E-04
6.860340E+03	3.134302E-03	1.301025E-04
6.870154E+03	3.136419E-03	1.301548E-04
6.879969E+03	3.140861E-03	1.303037E-04
6.889783E+03	3.147533E-03	1.305454E-04
6.899598E+03	3.156429E-03	1.308794E-04
6.909412E+03	3.167396E-03	1.312994E-04
6.919227E+03	3.180515E-03	1.318086E-04
6.929041E+03	3.195571E-03	1.323982E-04
6.938856E+03	3.212584E-03	1.330688E-04
6.948670E+03	3.231424E-03	1.338150E-04
6.958485E+03	3.251949E-03	1.346309E-04
6.968299E+03	3.274158E-03	1.355165E-04
6.978114E+03	3.297845E-03	1.364631E-04
6.987928E+03	3.322942E-03	1.374680E-04
6.997743E+03	3.349273E-03	1.385237E-04
7.007557E+03	3.376753E-03	1.396268E-04
7.017372E+03	3.405185E-03	1.407690E-04
7.027186E+03	3.434466E-03	1.419463E-04
7.037001E+03	3.464327E-03	1.431473E-04
7.046815E+03	3.494646E-03	1.443671E-04
7.056630E+03	3.525237E-03	1.455980E-04
7.066444E+03	3.555855E-03	1.468299E-04
7.076259E+03	3.586354E-03	1.480567E-04
7.086073E+03	3.616414E-03	1.492654E-04
7.095888E+03	3.645932E-03	1.504516E-04
7.105702E+03	3.674632E-03	1.516041E-04
7.115517E+03	3.702234E-03	1.527112E-04
7.125331E+03	3.728566E-03	1.537660E-04
7.135146E+03	3.753403E-03	1.547593E-04
7.144960E+03	3.776403E-03	1.556769E-04
7.154775E+03	3.797459E-03	1.565146E-04
7.164589E+03	3.816237E-03	1.572586E-04
7.174404E+03	3.832586E-03	1.579029E-04
7.184218E+03	3.846309E-03	1.584393E-04
7.194033E+03	3.857160E-03	1.588578E-04
7.203847E+03	3.864971E-03	1.591515E-04
7.213662E+03	3.869592E-03	1.593145E-04
7.223476E+03	3.870896E-03	1.593414E-04
7.233291E+03	3.868778E-03	1.592281E-04
7.243105E+03	3.863161E-03	1.589714E-04
7.252920E+03	3.853935E-03	1.585671E-04
7.262734E+03	3.841146E-03	1.580169E-04
7.272549E+03	3.824746E-03	1.573190E-04
7.282363E+03	3.804843E-03	1.564779E-04
7.292178E+03	3.781457E-03	1.554945E-04
7.301992E+03	3.754703E-03	1.543736E-04
7.311807E+03	3.724786E-03	1.531236E-04
7.321621E+03	3.691766E-03	1.517471E-04
7.331436E+03	3.655962E-03	1.502572E-04
7.341250E+03	3.617551E-03	1.486613E-04
7.351065E+03	3.576840E-03	1.469719E-04
7.360879E+03	3.533993E-03	1.451958E-04
7.370694E+03	3.489409E-03	1.433494E-04
7.380508E+03	3.443333E-03	1.414428E-04
7.390323E+03	3.396073E-03	1.394887E-04
7.400137E+03	3.347992E-03	1.375019E-04
7.409952E+03	3.299348E-03	1.354931E-04
7.419766E+03	3.250495E-03	1.334767E-04
7.429581E+03	3.201678E-03	1.314627E-04
7.439395E+03	3.153230E-03	1.294649E-04
7.449210E+03	3.105419E-03	1.274943E-04
7.459024E+03	3.058444E-03	1.255588E-04
7.468839E+03	3.012581E-03	1.236698E-04
7.478653E+03	2.968031E-03	1.218356E-04
7.488468E+03	2.924967E-03	1.200632E-04
7.498282E+03	2.883529E-03	1.183582E-04
7.508097E+03	2.843817E-03	1.167248E-04
7.517911E+03	2.805890E-03	1.151653E-04
7.527726E+03	2.769778E-03	1.136810E-04
7.537540E+03	2.735488E-03	1.122720E-04
7.547355E+03	2.703054E-03	1.109398E-04
7.557169E+03	2.672367E-03	1.096798E-04
7.566984E+03	2.643482E-03	1.084943E-04
7.576799E+03	2.616315E-03	1.073799E-04
7.586613E+03	2.590862E-03	1.063362E-04
7.596428E+03	2.566990E-03	1.053580E-04
7.606242E+03	2.544728E-03	1.044462E-04
7.616057E+03	2.523979E-03	1.035970E-04
