#wls	flux	fluxerr
1.570321E+03	1.899479E-04	1.202852E-05
1.609579E+03	1.946586E-04	1.232378E-05
1.648837E+03	1.997254E-04	1.264136E-05
1.688095E+03	2.051703E-04	1.298260E-05
1.727353E+03	2.110531E-04	1.335126E-05
1.766611E+03	2.173265E-04	1.374433E-05
1.805869E+03	2.240915E-04	1.416814E-05
1.845127E+03	2.313794E-04	1.462465E-05
1.884385E+03	2.392238E-04	1.511593E-05
1.923643E+03	2.476189E-04	1.564158E-05
1.962901E+03	2.566849E-04	1.620913E-05
2.002159E+03	2.664217E-04	1.681852E-05
2.041417E+03	2.769176E-04	1.747526E-05
2.080675E+03	2.882220E-04	1.818240E-05
2.119933E+03	3.003871E-04	1.894314E-05
2.159191E+03	3.134674E-04	1.976087E-05
2.198449E+03	3.275722E-04	2.064236E-05
2.237707E+03	3.427664E-04	2.159160E-05
2.276965E+03	3.591727E-04	2.261621E-05
2.316223E+03	3.768095E-04	2.371723E-05
2.355481E+03	3.958080E-04	2.490278E-05
2.394739E+03	4.163088E-04	2.618154E-05
2.433997E+03	4.383989E-04	2.755882E-05
2.473255E+03	4.622317E-04	2.904409E-05
2.512513E+03	4.878325E-04	3.063873E-05
2.551772E+03	5.154994E-04	3.236125E-05
2.591030E+03	5.451892E-04	3.420867E-05
2.630288E+03	5.771384E-04	3.619560E-05
2.669546E+03	6.115188E-04	3.833250E-05
2.708804E+03	6.484214E-04	4.062477E-05
2.748062E+03	6.880956E-04	4.308768E-05
2.787320E+03	7.305320E-04	4.572028E-05
2.826578E+03	7.760549E-04	4.854247E-05
2.865836E+03	8.247186E-04	5.155719E-05
2.905094E+03	8.765430E-04	5.476525E-05
2.944352E+03	9.318187E-04	5.818429E-05
2.954166E+03	9.462457E-04	5.907625E-05
2.963981E+03	9.607703E-04	5.997399E-05
2.973795E+03	9.755972E-04	6.089027E-05
2.983610E+03	9.906227E-04	6.181860E-05
2.993424E+03	1.005845E-03	6.275889E-05
3.003239E+03	1.021368E-03	6.371759E-05
3.013053E+03	1.037086E-03	6.468806E-05
3.022868E+03	1.052995E-03	6.567010E-05
3.032682E+03	1.069092E-03	6.666354E-05
3.042497E+03	1.085485E-03	6.767500E-05
3.052311E+03	1.102062E-03	6.869758E-05
3.062126E+03	1.118930E-03	6.973793E-05
3.071940E+03	1.135977E-03	7.078903E-05
3.081755E+03	1.153198E-03	7.185054E-05
3.091569E+03	1.170703E-03	7.292935E-05
3.101384E+03	1.188489E-03	7.402525E-05
3.111198E+03	1.206439E-03	7.513091E-05
3.121013E+03	1.224547E-03	7.624600E-05
3.130827E+03	1.243042E-03	7.738469E-05
3.140642E+03	1.261569E-03	7.852498E-05
3.150456E+03	1.280474E-03	7.968833E-05
3.160271E+03	1.299519E-03	8.085992E-05
3.170085E+03	1.318816E-03	8.204671E-05
3.179900E+03	1.338240E-03	8.324090E-05
3.189714E+03	1.358025E-03	8.445707E-05
3.199529E+03	1.377924E-03	8.567987E-05
3.209343E+03	1.398053E-03	8.691641E-05
3.219158E+03	1.418281E-03	8.815862E-05
3.228972E+03	1.438846E-03	8.942128E-05
3.238787E+03	1.459620E-03	9.069639E-05
3.248601E+03	1.480472E-03	9.197578E-05
3.258416E+03	1.501641E-03	9.327430E-05
3.268230E+03	1.522869E-03	9.457599E-05
3.278045E+03	1.544400E-03	9.589591E-05
3.287859E+03	1.566099E-03	9.722567E-05
3.297674E+03	1.587956E-03	9.856469E-05
3.307488E+03	1.609836E-03	9.990452E-05
3.317303E+03	1.632110E-03	1.012682E-04
3.327117E+03	1.654385E-03	1.026314E-04
3.336932E+03	1.676908E-03	1.040094E-04
3.346746E+03	1.699541E-03	1.053935E-04
3.356561E+03	1.722270E-03	1.067830E-04
3.366376E+03	1.745086E-03	1.081773E-04
3.376190E+03	1.768106E-03	1.095836E-04
3.386005E+03	1.791320E-03	1.110012E-04
3.395819E+03	1.814585E-03	1.124214E-04
3.405634E+03	1.837889E-03	1.138433E-04
3.415448E+03	1.861350E-03	1.152743E-04
3.425263E+03	1.884957E-03	1.167136E-04
3.435077E+03	1.908564E-03	1.181523E-04
3.444892E+03	1.932290E-03	1.195977E-04
3.454706E+03	1.955989E-03	1.210408E-04
3.464521E+03	1.979914E-03	1.224971E-04
3.474335E+03	2.003785E-03	1.239493E-04
3.484150E+03	2.027589E-03	1.253967E-04
3.493964E+03	2.051576E-03	1.268548E-04
3.503779E+03	2.075600E-03	1.283144E-04
3.513593E+03	2.099515E-03	1.297665E-04
3.523408E+03	2.123571E-03	1.312267E-04
3.533222E+03	2.147488E-03	1.326775E-04
3.543037E+03	2.171517E-03	1.341345E-04
3.552851E+03	2.195379E-03	1.355805E-04
3.562666E+03	2.219324E-03	1.370309E-04
3.572480E+03	2.243206E-03	1.384766E-04
3.582295E+03	2.267009E-03	1.399167E-04
3.592109E+03	2.290720E-03	1.413504E-04
3.601924E+03	2.314455E-03	1.427849E-04
3.611738E+03	2.338070E-03	1.442111E-04
3.621553E+03	2.361549E-03	1.456283E-04
3.631367E+03	2.384879E-03	1.470355E-04
3.641182E+03	2.408178E-03	1.484401E-04
3.650996E+03	2.431301E-03	1.498330E-04
3.660811E+03	2.454364E-03	1.512215E-04
3.670625E+03	2.477225E-03	1.525968E-04
3.680440E+03	2.500001E-03	1.539661E-04
3.690254E+03	2.522549E-03	1.553206E-04
3.700069E+03	2.544859E-03	1.566597E-04
3.709883E+03	2.567175E-03	1.579983E-04
3.719698E+03	2.589100E-03	1.593123E-04
3.729512E+03	2.611009E-03	1.606244E-04
3.739327E+03	2.632633E-03	1.619183E-04
3.749141E+03	2.654092E-03	1.632013E-04
3.758956E+03	2.675248E-03	1.644650E-04
3.768770E+03	2.696220E-03	1.657166E-04
3.778585E+03	2.716873E-03	1.669478E-04
3.788399E+03	2.737448E-03	1.681735E-04
3.798214E+03	2.757689E-03	1.693780E-04
3.808028E+03	2.777592E-03	1.705610E-04
3.817843E+03	2.797394E-03	1.717371E-04
3.827657E+03	2.816845E-03	1.728909E-04
3.837472E+03	2.835943E-03	1.740223E-04
3.847286E+03	2.854803E-03	1.751385E-04
3.857101E+03	2.873423E-03	1.762391E-04
3.866915E+03	2.891799E-03	1.773242E-04
3.876730E+03	2.909810E-03	1.783862E-04
3.886544E+03	2.927574E-03	1.794323E-04
3.896359E+03	2.944973E-03	1.804555E-04
3.906173E+03	2.962125E-03	1.814628E-04
3.915988E+03	2.978915E-03	1.824473E-04
3.925802E+03	2.995460E-03	1.834161E-04
3.935617E+03	3.011650E-03	1.843626E-04
3.945431E+03	3.027489E-03	1.852869E-04
3.955246E+03	3.043093E-03	1.861962E-04
3.965060E+03	3.058356E-03	1.870840E-04
3.974875E+03	3.073285E-03	1.879507E-04
3.984689E+03	3.087996E-03	1.888036E-04
3.994504E+03	3.102279E-03	1.896297E-04
4.004318E+03	3.116253E-03	1.904362E-04
4.014133E+03	3.129928E-03	1.912239E-04
4.023947E+03	3.143313E-03	1.919934E-04
4.033762E+03	3.156419E-03	1.927452E-04
4.043576E+03	3.169154E-03	1.934739E-04
4.053391E+03	3.181637E-03	1.941865E-04
4.063205E+03	3.193878E-03	1.948840E-04
4.073020E+03	3.205692E-03	1.955547E-04
4.082834E+03	3.217297E-03	1.962122E-04
4.092649E+03	3.228609E-03	1.968514E-04
4.102463E+03	3.239648E-03	1.974733E-04
4.112278E+03	3.250335E-03	1.980733E-04
4.122092E+03	3.260886E-03	1.986646E-04
4.131907E+03	3.271031E-03	1.992307E-04
4.141721E+03	3.281084E-03	1.997906E-04
4.151536E+03	3.290779E-03	2.003283E-04
4.161350E+03	3.300333E-03	2.008569E-04
4.171165E+03	3.309674E-03	2.013721E-04
4.180979E+03	3.318828E-03	2.018755E-04
4.190794E+03	3.327728E-03	2.023630E-04
4.200608E+03	3.336491E-03	2.028418E-04
4.210423E+03	3.345052E-03	2.033078E-04
4.220238E+03	3.353434E-03	2.037625E-04
4.230052E+03	3.361750E-03	2.042128E-04
4.239867E+03	3.369843E-03	2.046491E-04
4.249681E+03	3.377827E-03	2.050784E-04
4.259496E+03	3.385721E-03	2.055019E-04
4.269310E+03	3.393460E-03	2.059155E-04
4.279125E+03	3.401067E-03	2.063207E-04
4.288939E+03	3.408561E-03	2.067187E-04
4.298754E+03	3.415962E-03	2.071107E-04
4.308568E+03	3.423288E-03	2.074978E-04
4.318383E+03	3.430473E-03	2.078759E-04
4.328197E+03	3.437531E-03	2.082459E-04
4.338012E+03	3.444559E-03	2.086138E-04
4.347826E+03	3.451486E-03	2.089752E-04
4.357641E+03	3.458320E-03	2.093306E-04
4.367455E+03	3.464990E-03	2.096757E-04
4.377270E+03	3.471586E-03	2.100160E-04
4.387084E+03	3.478036E-03	2.103471E-04
4.396899E+03	3.484430E-03	2.106745E-04
4.406713E+03	3.490699E-03	2.109940E-04
4.416528E+03	3.496857E-03	2.113065E-04
4.426342E+03	3.502841E-03	2.116081E-04
4.436157E+03	3.508819E-03	2.119090E-04
4.445971E+03	3.514649E-03	2.122007E-04
4.455786E+03	3.520344E-03	2.124840E-04
4.465600E+03	3.525991E-03	2.127640E-04
4.475415E+03	3.531523E-03	2.130368E-04
4.485229E+03	3.536948E-03	2.133029E-04
4.495044E+03	3.542273E-03	2.135626E-04
4.504858E+03	3.547576E-03	2.138208E-04
4.514673E+03	3.552712E-03	2.140686E-04
4.524487E+03	3.557756E-03	2.143106E-04
4.534302E+03	3.562709E-03	2.145468E-04
4.544116E+03	3.567494E-03	2.147727E-04
4.553931E+03	3.572183E-03	2.149925E-04
4.563745E+03	3.576773E-03	2.152062E-04
4.573560E+03	3.581189E-03	2.154091E-04
4.583374E+03	3.585504E-03	2.156058E-04
4.593189E+03	3.589651E-03	2.157921E-04
4.603003E+03	3.593706E-03	2.159726E-04
4.612818E+03	3.597602E-03	2.161434E-04
4.622632E+03	3.601347E-03	2.163050E-04
4.632447E+03	3.605016E-03	2.164617E-04
4.642261E+03	3.608541E-03	2.166097E-04
4.652076E+03	3.611996E-03	2.167532E-04
4.661890E+03	3.615311E-03	2.168883E-04
4.671705E+03	3.618488E-03	2.170148E-04
4.681519E+03	3.621591E-03	2.171367E-04
4.691334E+03	3.624550E-03	2.172499E-04
4.701148E+03	3.627432E-03	2.173583E-04
4.710963E+03	3.630165E-03	2.174577E-04
4.720777E+03	3.632750E-03	2.175480E-04
4.730592E+03	3.635321E-03	2.176375E-04
4.740406E+03	3.637681E-03	2.177141E-04
4.750221E+03	3.640039E-03	2.177905E-04
4.760035E+03	3.642272E-03	2.178594E-04
4.769850E+03	3.644467E-03	2.179259E-04
4.779664E+03	3.646648E-03	2.179915E-04
4.789479E+03	3.648847E-03	2.180581E-04
4.799293E+03	3.651034E-03	2.181238E-04
4.809108E+03	3.653382E-03	2.181991E-04
4.818922E+03	3.655802E-03	2.182786E-04
4.828737E+03	3.658472E-03	2.183730E-04
4.838551E+03	3.661370E-03	2.184808E-04
4.848366E+03	3.664540E-03	2.186049E-04
4.858180E+03	3.668025E-03	2.187475E-04
4.867995E+03	3.671925E-03	2.189148E-04
4.877809E+03	3.676211E-03	2.191049E-04
4.887624E+03	3.680974E-03	2.193234E-04
4.897438E+03	3.686169E-03	2.195674E-04
4.907253E+03	3.691873E-03	2.198415E-04
4.917067E+03	3.698091E-03	2.201461E-04
4.926882E+03	3.704755E-03	2.204769E-04
4.936696E+03	3.711916E-03	2.208371E-04
4.946511E+03	3.719555E-03	2.212255E-04
4.956325E+03	3.727649E-03	2.216407E-04
4.966140E+03	3.736167E-03	2.220808E-04
4.975954E+03	3.745011E-03	2.225400E-04
4.985769E+03	3.754273E-03	2.230237E-04
4.995583E+03	3.763848E-03	2.235258E-04
5.005398E+03	3.773697E-03	2.240437E-04
5.015212E+03	3.783779E-03	2.245752E-04
5.025027E+03	3.794056E-03	2.251178E-04
5.034841E+03	3.804557E-03	2.256735E-04
5.044656E+03	3.815189E-03	2.262365E-04
5.054471E+03	3.825932E-03	2.268058E-04
5.064285E+03	3.836773E-03	2.273806E-04
5.074100E+03	3.847775E-03	2.279645E-04
5.083914E+03	3.858877E-03	2.285540E-04
5.093729E+03	3.870088E-03	2.291496E-04
5.103543E+03	3.881480E-03	2.297555E-04
5.113358E+03	3.892990E-03	2.303681E-04
5.123172E+03	3.904616E-03	2.309872E-04
5.132987E+03	3.916410E-03	2.316158E-04
5.142801E+03	3.928289E-03	2.322491E-04
5.152616E+03	3.940288E-03	2.328891E-04
5.162430E+03	3.952236E-03	2.335258E-04
5.172245E+03	3.964274E-03	2.341674E-04
5.182059E+03	3.976142E-03	2.347986E-04
5.191874E+03	3.987889E-03	2.354223E-04
5.201688E+03	3.999356E-03	2.360291E-04
5.211503E+03	4.010439E-03	2.366129E-04
5.221317E+03	4.021094E-03	2.371711E-04
5.231132E+03	4.031135E-03	2.376929E-04
5.240946E+03	4.040520E-03	2.381757E-04
5.250761E+03	4.049009E-03	2.386055E-04
5.260575E+03	4.056646E-03	2.389849E-04
5.270390E+03	4.063288E-03	2.393055E-04
5.280204E+03	4.068944E-03	2.395679E-04
5.290019E+03	4.073433E-03	2.397615E-04
5.299833E+03	4.076849E-03	2.398920E-04
5.309648E+03	4.079093E-03	2.399534E-04
5.319462E+03	4.080131E-03	2.399440E-04
5.329277E+03	4.079996E-03	2.398657E-04
5.339091E+03	4.078584E-03	2.397125E-04
5.348906E+03	4.075856E-03	2.394821E-04
5.358720E+03	4.071769E-03	2.391721E-04
5.368535E+03	4.066344E-03	2.387839E-04
5.378349E+03	4.059473E-03	2.383110E-04
5.388164E+03	4.051114E-03	2.377512E-04
5.397978E+03	4.041297E-03	2.371062E-04
5.407793E+03	4.029924E-03	2.363706E-04
5.417607E+03	4.017038E-03	2.355467E-04
5.427422E+03	4.002490E-03	2.346260E-04
5.437236E+03	3.986467E-03	2.336194E-04
5.447051E+03	3.968835E-03	2.325194E-04
5.456865E+03	3.949601E-03	2.313262E-04
5.466680E+03	3.928842E-03	2.300446E-04
5.476494E+03	3.906579E-03	2.286758E-04
5.486309E+03	3.882840E-03	2.272215E-04
5.496123E+03	3.857604E-03	2.256807E-04
5.505938E+03	3.830985E-03	2.240600E-04
5.515752E+03	3.803050E-03	2.223634E-04
5.525567E+03	3.773821E-03	2.205923E-04
5.535381E+03	3.743526E-03	2.187600E-04
5.545196E+03	3.712233E-03	2.168706E-04
5.555010E+03	3.680096E-03	2.149332E-04
5.564825E+03	3.647300E-03	2.129586E-04
5.574639E+03	3.614055E-03	2.109590E-04
5.584454E+03	3.580658E-03	2.089518E-04
5.594268E+03	3.547308E-03	2.069487E-04
5.604083E+03	3.514280E-03	2.049656E-04
5.613897E+03	3.481910E-03	2.030222E-04
5.623712E+03	3.450422E-03	2.011315E-04
5.633526E+03	3.420150E-03	1.993128E-04
5.643341E+03	3.391298E-03	1.975781E-04
5.653155E+03	3.364172E-03	1.959450E-04
5.662970E+03	3.338999E-03	1.944268E-04
5.672784E+03	3.315987E-03	1.930354E-04
5.682599E+03	3.295264E-03	1.917782E-04
5.692413E+03	3.277039E-03	1.906672E-04
5.702228E+03	3.261434E-03	1.897094E-04
5.712042E+03	3.248537E-03	1.889098E-04
5.721857E+03	3.238391E-03	1.882708E-04
5.731671E+03	3.231005E-03	1.877929E-04
5.741486E+03	3.226299E-03	1.874711E-04
5.751300E+03	3.224322E-03	1.873084E-04
5.761115E+03	3.224947E-03	1.872970E-04
5.770929E+03	3.228078E-03	1.874315E-04
5.780744E+03	3.233605E-03	1.877052E-04
5.790558E+03	3.241403E-03	1.881110E-04
5.800373E+03	3.251332E-03	1.886404E-04
5.810187E+03	3.263289E-03	1.892875E-04
5.820002E+03	3.276990E-03	1.900357E-04
5.829816E+03	3.292356E-03	1.908805E-04
5.839631E+03	3.309130E-03	1.918067E-04
5.849445E+03	3.327102E-03	1.928023E-04
5.859260E+03	3.346069E-03	1.938554E-04
5.869074E+03	3.365838E-03	1.949548E-04
5.878889E+03	3.386240E-03	1.960907E-04
5.888704E+03	3.407197E-03	1.972586E-04
5.898518E+03	3.428498E-03	1.984462E-04
5.908333E+03	3.450200E-03	1.996570E-04
5.918147E+03	3.472237E-03	2.008869E-04
5.927962E+03	3.494588E-03	2.021348E-04
5.937776E+03	3.517461E-03	2.034129E-04
5.947591E+03	3.540992E-03	2.047288E-04
5.957405E+03	3.565242E-03	2.060862E-04
5.967220E+03	3.590482E-03	2.075007E-04
5.977034E+03	3.616951E-03	2.089861E-04
5.986849E+03	3.644907E-03	2.105573E-04
5.996663E+03	3.674681E-03	2.122332E-04
6.006478E+03	3.706419E-03	2.140224E-04
6.016292E+03	3.740453E-03	2.159440E-04
6.026107E+03	3.777112E-03	2.180169E-04
6.035921E+03	3.816519E-03	2.202481E-04
6.045736E+03	3.858980E-03	2.226551E-04
6.055550E+03	3.904715E-03	2.252508E-04
6.065365E+03	3.953995E-03	2.280505E-04
6.075179E+03	4.006855E-03	2.310562E-04
6.084994E+03	4.063501E-03	2.342798E-04
6.094808E+03	4.124029E-03	2.377266E-04
6.104623E+03	4.188484E-03	2.413992E-04
6.114437E+03	4.256856E-03	2.452970E-04
6.124252E+03	4.329073E-03	2.494156E-04
6.134066E+03	4.404995E-03	2.537470E-04
6.143881E+03	4.484409E-03	2.582787E-04
6.153695E+03	4.567011E-03	2.629933E-04
6.163510E+03	4.652404E-03	2.678678E-04
6.173324E+03	4.740081E-03	2.728731E-04
6.183139E+03	4.829425E-03	2.779734E-04
6.192953E+03	4.919695E-03	2.831263E-04
6.202768E+03	5.010035E-03	2.882825E-04
6.212582E+03	5.099562E-03	2.933912E-04
6.222397E+03	5.187019E-03	2.983801E-04
6.232211E+03	5.271405E-03	3.031918E-04
6.242026E+03	5.351278E-03	3.077435E-04
6.251840E+03	5.425507E-03	3.119702E-04
6.261655E+03	5.492652E-03	3.157894E-04
6.271469E+03	5.551477E-03	3.191302E-04
6.281284E+03	5.600613E-03	3.219140E-04
6.291098E+03	5.638897E-03	3.240744E-04
6.300913E+03	5.665336E-03	3.255545E-04
6.310727E+03	5.679258E-03	3.263158E-04
6.320542E+03	5.680154E-03	3.263295E-04
6.330356E+03	5.667613E-03	3.255722E-04
6.340171E+03	5.642045E-03	3.240677E-04
6.349985E+03	5.603662E-03	3.218284E-04
6.359800E+03	5.553256E-03	3.189000E-04
6.369614E+03	5.491636E-03	3.153291E-04
6.379429E+03	5.419970E-03	3.111830E-04
6.389243E+03	5.339426E-03	3.065288E-04
6.399058E+03	5.251215E-03	3.014363E-04
6.408872E+03	5.156550E-03	2.959750E-04
6.418687E+03	5.056615E-03	2.902131E-04
6.428501E+03	4.952449E-03	2.842100E-04
6.438316E+03	4.845290E-03	2.780371E-04
6.448130E+03	4.736021E-03	2.717448E-04
6.457945E+03	4.625529E-03	2.653840E-04
6.467759E+03	4.514685E-03	2.590047E-04
6.477574E+03	4.404096E-03	2.526417E-04
6.487388E+03	4.294362E-03	2.463293E-04
6.497203E+03	4.185991E-03	2.400967E-04
6.507017E+03	4.079487E-03	2.339725E-04
6.516832E+03	3.975203E-03	2.279770E-04
6.526646E+03	3.873359E-03	2.221228E-04
6.536461E+03	3.774275E-03	2.164282E-04
6.546275E+03	3.678082E-03	2.109005E-04
6.556090E+03	3.585084E-03	2.055572E-04
6.565904E+03	3.495276E-03	2.003978E-04
6.575719E+03	3.408825E-03	1.954320E-04
6.585533E+03	3.325804E-03	1.906637E-04
6.595348E+03	3.246257E-03	1.860955E-04
6.605162E+03	3.170198E-03	1.817281E-04
6.614977E+03	3.097563E-03	1.775579E-04
6.624791E+03	3.028504E-03	1.735932E-04
6.634606E+03	2.962801E-03	1.698218E-04
6.644420E+03	2.900466E-03	1.662440E-04
6.654235E+03	2.841499E-03	1.628599E-04
6.664049E+03	2.785785E-03	1.596628E-04
6.673864E+03	2.733268E-03	1.566495E-04
6.683678E+03	2.683890E-03	1.538166E-04
6.693493E+03	2.637645E-03	1.511638E-04
6.703307E+03	2.594427E-03	1.486850E-04
6.713122E+03	2.554232E-03	1.463798E-04
6.722937E+03	2.516958E-03	1.442425E-04
6.732751E+03	2.482560E-03	1.422703E-04
6.742566E+03	2.451039E-03	1.404635E-04
6.752380E+03	2.422356E-03	1.388196E-04
6.762195E+03	2.396431E-03	1.373342E-04
6.772009E+03	2.373233E-03	1.360054E-04
6.781824E+03	2.352785E-03	1.348345E-04
6.791638E+03	2.335018E-03	1.338176E-04
6.801453E+03	2.319962E-03	1.329564E-04
6.811267E+03	2.307601E-03	1.322500E-04
6.821082E+03	2.297877E-03	1.316951E-04
6.830896E+03	2.290781E-03	1.312910E-04
6.840711E+03	2.286343E-03	1.310397E-04
6.850525E+03	2.284507E-03	1.309378E-04
6.860340E+03	2.285300E-03	1.309870E-04
6.870154E+03	2.288662E-03	1.311837E-04
6.879969E+03	2.294614E-03	1.315293E-04
6.889783E+03	2.303089E-03	1.320199E-04
6.899598E+03	2.314061E-03	1.326540E-04
6.909412E+03	2.327544E-03	1.334325E-04
6.919227E+03	2.343462E-03	1.343510E-04
6.929041E+03	2.361775E-03	1.354073E-04
6.938856E+03	2.382489E-03	1.366017E-04
6.948670E+03	2.405465E-03	1.379263E-04
6.958485E+03	2.430744E-03	1.393835E-04
6.968299E+03	2.458219E-03	1.409672E-04
6.978114E+03	2.487822E-03	1.426735E-04
6.987928E+03	2.519475E-03	1.444980E-04
6.997743E+03	2.553086E-03	1.464354E-04
7.007557E+03	2.588551E-03	1.484799E-04
7.017372E+03	2.625744E-03	1.506242E-04
7.027186E+03	2.664468E-03	1.528571E-04
7.037001E+03	2.704613E-03	1.551722E-04
7.046815E+03	2.746000E-03	1.575595E-04
7.056630E+03	2.788437E-03	1.600079E-04
7.066444E+03	2.831669E-03	1.625028E-04
7.076259E+03	2.875541E-03	1.650353E-04
7.086073E+03	2.919784E-03	1.675901E-04
7.095888E+03	2.964236E-03	1.701579E-04
7.105702E+03	3.008550E-03	1.727188E-04
7.115517E+03	3.052670E-03	1.752695E-04
7.125331E+03	3.096165E-03	1.777854E-04
7.135146E+03	3.138895E-03	1.802585E-04
7.144960E+03	3.180461E-03	1.826658E-04
7.154775E+03	3.220702E-03	1.849982E-04
7.164589E+03	3.259257E-03	1.872347E-04
7.174404E+03	3.295748E-03	1.893539E-04
7.184218E+03	3.329987E-03	1.913447E-04
7.194033E+03	3.361514E-03	1.931808E-04
7.203847E+03	3.390062E-03	1.948468E-04
7.213662E+03	3.415298E-03	1.963234E-04
7.223476E+03	3.436892E-03	1.975918E-04
7.233291E+03	3.454453E-03	1.986291E-04
7.243105E+03	3.467669E-03	1.994177E-04
7.252920E+03	3.476324E-03	1.999447E-04
7.262734E+03	3.480153E-03	2.001949E-04
7.272549E+03	3.478853E-03	2.001509E-04
7.282363E+03	3.472305E-03	1.998055E-04
7.292178E+03	3.460295E-03	1.991463E-04
7.301992E+03	3.442744E-03	1.981687E-04
7.311807E+03	3.419650E-03	1.968723E-04
7.321621E+03	3.391173E-03	1.952662E-04
7.331436E+03	3.357443E-03	1.933577E-04
7.341250E+03	3.318778E-03	1.911649E-04
7.351065E+03	3.275611E-03	1.887127E-04
7.360879E+03	3.228527E-03	1.860346E-04
7.370694E+03	3.177971E-03	1.831560E-04
7.380508E+03	3.124679E-03	1.801193E-04
7.390323E+03	3.069186E-03	1.769552E-04
7.400137E+03	3.012020E-03	1.736940E-04
7.409952E+03	2.953866E-03	1.703751E-04
7.419766E+03	2.895186E-03	1.670251E-04
7.429581E+03	2.836468E-03	1.636722E-04
7.439395E+03	2.778155E-03	1.603419E-04
7.449210E+03	2.720651E-03	1.570574E-04
7.459024E+03	2.664255E-03	1.538360E-04
7.468839E+03	2.609393E-03	1.507023E-04
7.478653E+03	2.556273E-03	1.476684E-04
7.488468E+03	2.505117E-03	1.447470E-04
7.498282E+03	2.456045E-03	1.419452E-04
7.508097E+03	2.409279E-03	1.392758E-04
7.517911E+03	2.364783E-03	1.367369E-04
7.527726E+03	2.322635E-03	1.343330E-04
7.537540E+03	2.282881E-03	1.320668E-04
7.547355E+03	2.245404E-03	1.299316E-04
7.557169E+03	2.210165E-03	1.279253E-04
7.566984E+03	2.177204E-03	1.260502E-04
7.576799E+03	2.146408E-03	1.242999E-04
7.586613E+03	2.117657E-03	1.226675E-04
7.596428E+03	2.090962E-03	1.211536E-04
7.606242E+03	2.066148E-03	1.197483E-04
7.616057E+03	2.043127E-03	1.184465E-04
