#wls	flux	fluxerr
1.570321E+03	3.661314E-04	1.201068E-05
1.609579E+03	3.815490E-04	1.251274E-05
1.648837E+03	3.980999E-04	1.305155E-05
1.688095E+03	4.157270E-04	1.362518E-05
1.727353E+03	4.346525E-04	1.424088E-05
1.766611E+03	4.549739E-04	1.490177E-05
1.805869E+03	4.767153E-04	1.560857E-05
1.845127E+03	4.999781E-04	1.636454E-05
1.884385E+03	5.250458E-04	1.717888E-05
1.923643E+03	5.518730E-04	1.805001E-05
1.962901E+03	5.806781E-04	1.898498E-05
2.002159E+03	6.116037E-04	1.998835E-05
2.041417E+03	6.448008E-04	2.106493E-05
2.080675E+03	6.804280E-04	2.221978E-05
2.119933E+03	7.186527E-04	2.345823E-05
2.159191E+03	7.597698E-04	2.478975E-05
2.198449E+03	8.038508E-04	2.621650E-05
2.237707E+03	8.512179E-04	2.774881E-05
2.276965E+03	9.020829E-04	2.939337E-05
2.316223E+03	9.566644E-04	3.115709E-05
2.355481E+03	1.015027E-03	3.304182E-05
2.394739E+03	1.077695E-03	3.506439E-05
2.433997E+03	1.144740E-03	3.722683E-05
2.473255E+03	1.216374E-03	3.953573E-05
2.512513E+03	1.292991E-03	4.200354E-05
2.551772E+03	1.374805E-03	4.463688E-05
2.591030E+03	1.461801E-03	4.743485E-05
2.630288E+03	1.554558E-03	5.041586E-05
2.669546E+03	1.653010E-03	5.357730E-05
2.708804E+03	1.757245E-03	5.692157E-05
2.748062E+03	1.867554E-03	6.045761E-05
2.787320E+03	1.983673E-03	6.417637E-05
2.826578E+03	2.105774E-03	6.808288E-05
2.865836E+03	2.233989E-03	7.218086E-05
2.905094E+03	2.367786E-03	7.645255E-05
2.944352E+03	2.506784E-03	8.088514E-05
2.954166E+03	2.542198E-03	8.201360E-05
2.963981E+03	2.578120E-03	8.315793E-05
2.973795E+03	2.614216E-03	8.430740E-05
2.983610E+03	2.650804E-03	8.547229E-05
2.993424E+03	2.687211E-03	8.663080E-05
3.003239E+03	2.724427E-03	8.781493E-05
3.013053E+03	2.761430E-03	8.899168E-05
3.022868E+03	2.798887E-03	9.018252E-05
3.032682E+03	2.836789E-03	9.138718E-05
3.042497E+03	2.874426E-03	9.258280E-05
3.052311E+03	2.912479E-03	9.379129E-05
3.062126E+03	2.950940E-03	9.501240E-05
3.071940E+03	2.989439E-03	9.623414E-05
3.081755E+03	3.027955E-03	9.745592E-05
3.091569E+03	3.066836E-03	9.868887E-05
3.101384E+03	3.105699E-03	9.992069E-05
3.111198E+03	3.144523E-03	1.011507E-04
3.121013E+03	3.183661E-03	1.023902E-04
3.130827E+03	3.222722E-03	1.036267E-04
3.140642E+03	3.262061E-03	1.048716E-04
3.150456E+03	3.301281E-03	1.061120E-04
3.160271E+03	3.340356E-03	1.073472E-04
3.170085E+03	3.379650E-03	1.085888E-04
3.179900E+03	3.418753E-03	1.098238E-04
3.189714E+03	3.458036E-03	1.110638E-04
3.199529E+03	3.497078E-03	1.122956E-04
3.209343E+03	3.535854E-03	1.135183E-04
3.219158E+03	3.574739E-03	1.147438E-04
3.228972E+03	3.613305E-03	1.159584E-04
3.238787E+03	3.651931E-03	1.171744E-04
3.248601E+03	3.690185E-03	1.183779E-04
3.258416E+03	3.728449E-03	1.195811E-04
3.268230E+03	3.766284E-03	1.207699E-04
3.278045E+03	3.803660E-03	1.219433E-04
3.287859E+03	3.840964E-03	1.231139E-04
3.297674E+03	3.878170E-03	1.242807E-04
3.307488E+03	3.914408E-03	1.254159E-04
3.317303E+03	3.950488E-03	1.265454E-04
3.327117E+03	3.986385E-03	1.276684E-04
3.336932E+03	4.021642E-03	1.287704E-04
3.346746E+03	4.056656E-03	1.298640E-04
3.356561E+03	4.090538E-03	1.309207E-04
3.366376E+03	4.124547E-03	1.319810E-04
3.376190E+03	4.157793E-03	1.330162E-04
3.386005E+03	4.190242E-03	1.340253E-04
3.395819E+03	4.221863E-03	1.350074E-04
3.405634E+03	4.253495E-03	1.359893E-04
3.415448E+03	4.283803E-03	1.369283E-04
3.425263E+03	4.313626E-03	1.378513E-04
3.435077E+03	4.342937E-03	1.387573E-04
3.444892E+03	4.370828E-03	1.396174E-04
3.454706E+03	4.398587E-03	1.404728E-04
3.464521E+03	4.424868E-03	1.412805E-04
3.474335E+03	4.450959E-03	1.420816E-04
3.484150E+03	4.475515E-03	1.428332E-04
3.493964E+03	4.499387E-03	1.435625E-04
3.503779E+03	4.522550E-03	1.442686E-04
3.513593E+03	4.544537E-03	1.449369E-04
3.523408E+03	4.565325E-03	1.455664E-04
3.533222E+03	4.585329E-03	1.461705E-04
3.543037E+03	4.604086E-03	1.467344E-04
3.552851E+03	4.622015E-03	1.472715E-04
3.562666E+03	4.638655E-03	1.477672E-04
3.572480E+03	4.653988E-03	1.482208E-04
3.582295E+03	4.668434E-03	1.486459E-04
3.592109E+03	4.681973E-03	1.490417E-04
3.601924E+03	4.693722E-03	1.493802E-04
3.611738E+03	4.704967E-03	1.497024E-04
3.621553E+03	4.714401E-03	1.499666E-04
3.631367E+03	4.722874E-03	1.502000E-04
3.641182E+03	4.730376E-03	1.504023E-04
3.650996E+03	4.736046E-03	1.505460E-04
3.660811E+03	4.741156E-03	1.506718E-04
3.670625E+03	4.744429E-03	1.507390E-04
3.680440E+03	4.746710E-03	1.507744E-04
3.690254E+03	4.747996E-03	1.507782E-04
3.700069E+03	4.747454E-03	1.507237E-04
3.709883E+03	4.746337E-03	1.506508E-04
3.719698E+03	4.743407E-03	1.505203E-04
3.729512E+03	4.739500E-03	1.503587E-04
3.739327E+03	4.734213E-03	1.501533E-04
3.749141E+03	4.727965E-03	1.499174E-04
3.758956E+03	4.720365E-03	1.496386E-04
3.768770E+03	4.711433E-03	1.493175E-04
3.778585E+03	4.701582E-03	1.489673E-04
3.788399E+03	4.690436E-03	1.485762E-04
3.798214E+03	4.678021E-03	1.481449E-04
3.808028E+03	4.664748E-03	1.476865E-04
3.817843E+03	4.649874E-03	1.471776E-04
3.827657E+03	4.634571E-03	1.466552E-04
3.837472E+03	4.617732E-03	1.460843E-04
3.847286E+03	4.600141E-03	1.454898E-04
3.857101E+03	4.581456E-03	1.448609E-04
3.866915E+03	4.562079E-03	1.442103E-04
3.876730E+03	4.541319E-03	1.435162E-04
3.886544E+03	4.519939E-03	1.428027E-04
3.896359E+03	4.497616E-03	1.420597E-04
3.906173E+03	4.474742E-03	1.412996E-04
3.915988E+03	4.450663E-03	1.405017E-04
3.925802E+03	4.426114E-03	1.396892E-04
3.935617E+03	4.400793E-03	1.388527E-04
3.945431E+03	4.375082E-03	1.380042E-04
3.955246E+03	4.348355E-03	1.371241E-04
3.965060E+03	4.321326E-03	1.362347E-04
3.974875E+03	4.293707E-03	1.353271E-04
3.984689E+03	4.265551E-03	1.344030E-04
3.994504E+03	4.236909E-03	1.334639E-04
4.004318E+03	4.207834E-03	1.325116E-04
4.014133E+03	4.178687E-03	1.315575E-04
4.023947E+03	4.148903E-03	1.305836E-04
4.033762E+03	4.119146E-03	1.296111E-04
4.043576E+03	4.089158E-03	1.286317E-04
4.053391E+03	4.058699E-03	1.276380E-04
4.063205E+03	4.028405E-03	1.266499E-04
4.073020E+03	3.998028E-03	1.256596E-04
4.082834E+03	3.967899E-03	1.246776E-04
4.092649E+03	3.937498E-03	1.236875E-04
4.102463E+03	3.907157E-03	1.226997E-04
4.112278E+03	3.876923E-03	1.217157E-04
4.122092E+03	3.846845E-03	1.207371E-04
4.131907E+03	3.816968E-03	1.197653E-04
4.141721E+03	3.787598E-03	1.188098E-04
4.151536E+03	3.758258E-03	1.178557E-04
4.161350E+03	3.729256E-03	1.169127E-04
4.171165E+03	3.700636E-03	1.159821E-04
4.180979E+03	3.672445E-03	1.150653E-04
4.190794E+03	3.644723E-03	1.141637E-04
4.200608E+03	3.617510E-03	1.132785E-04
4.210423E+03	3.590844E-03	1.124109E-04
4.220238E+03	3.564526E-03	1.115545E-04
4.230052E+03	3.539065E-03	1.107254E-04
4.239867E+03	3.514025E-03	1.099099E-04
4.249681E+03	3.489673E-03	1.091163E-04
4.259496E+03	3.466037E-03	1.083454E-04
4.269310E+03	3.443141E-03	1.075981E-04
4.279125E+03	3.421008E-03	1.068749E-04
4.288939E+03	3.399442E-03	1.061698E-04
4.298754E+03	3.378899E-03	1.054971E-04
4.308568E+03	3.358964E-03	1.048436E-04
4.318383E+03	3.339868E-03	1.042166E-04
4.328197E+03	3.321414E-03	1.036100E-04
4.338012E+03	3.304031E-03	1.030370E-04
4.347826E+03	3.287310E-03	1.024850E-04
4.357641E+03	3.271262E-03	1.019542E-04
4.367455E+03	3.256298E-03	1.014575E-04
4.377270E+03	3.242016E-03	1.009822E-04
4.387084E+03	3.228619E-03	1.005347E-04
4.396899E+03	3.216103E-03	1.001149E-04
4.406713E+03	3.204270E-03	9.971657E-05
4.416528E+03	3.193310E-03	9.934554E-05
4.426342E+03	3.183023E-03	9.899563E-05
4.436157E+03	3.173593E-03	9.867254E-05
4.445971E+03	3.165008E-03	9.837585E-05
4.455786E+03	3.157067E-03	9.809933E-05
4.465600E+03	3.149948E-03	9.784845E-05
4.475415E+03	3.143637E-03	9.762276E-05
4.485229E+03	3.137932E-03	9.741603E-05
4.495044E+03	3.133006E-03	9.723352E-05
4.504858E+03	3.128655E-03	9.706894E-05
4.514673E+03	3.125044E-03	9.692740E-05
4.524487E+03	3.121968E-03	9.680249E-05
4.534302E+03	3.119582E-03	9.669900E-05
4.544116E+03	3.117677E-03	9.661047E-05
4.553931E+03	3.116402E-03	9.654147E-05
4.563745E+03	3.115723E-03	9.649094E-05
4.573560E+03	3.115248E-03	9.644674E-05
4.583374E+03	3.115473E-03	9.642422E-05
4.593189E+03	3.116006E-03	9.641121E-05
4.603003E+03	3.116807E-03	9.640648E-05
4.612818E+03	3.118011E-03	9.641418E-05
4.622632E+03	3.119399E-03	9.642759E-05
4.632447E+03	3.121104E-03	9.645076E-05
4.642261E+03	3.122908E-03	9.647694E-05
4.652076E+03	3.124942E-03	9.651023E-05
4.661890E+03	3.126990E-03	9.654388E-05
4.671705E+03	3.129182E-03	9.658199E-05
4.681519E+03	3.131133E-03	9.661261E-05
4.691334E+03	3.133320E-03	9.665050E-05
4.701148E+03	3.135362E-03	9.668389E-05
4.710963E+03	3.137222E-03	9.671166E-05
4.720777E+03	3.139040E-03	9.673811E-05
4.730592E+03	3.140618E-03	9.675717E-05
4.740406E+03	3.141934E-03	9.676815E-05
4.750221E+03	3.143144E-03	9.677587E-05
4.760035E+03	3.144073E-03	9.677494E-05
4.769850E+03	3.144896E-03	9.677078E-05
4.779664E+03	3.145464E-03	9.675875E-05
4.789479E+03	3.145809E-03	9.673991E-05
4.799293E+03	3.146140E-03	9.672067E-05
4.809108E+03	3.146339E-03	9.669738E-05
4.818922E+03	3.146461E-03	9.667173E-05
4.828737E+03	3.146729E-03	9.665060E-05
4.838551E+03	3.147200E-03	9.663575E-05
4.848366E+03	3.147598E-03	9.661865E-05
4.858180E+03	3.148305E-03	9.661105E-05
4.867995E+03	3.149369E-03	9.661443E-05
4.877809E+03	3.150502E-03	9.661991E-05
4.887624E+03	3.152069E-03	9.663872E-05
4.897438E+03	3.154103E-03	9.667182E-05
4.907253E+03	3.156460E-03	9.671483E-05
4.917067E+03	3.159158E-03	9.676826E-05
4.926882E+03	3.162375E-03	9.683756E-05
4.936696E+03	3.165956E-03	9.691795E-05
4.946511E+03	3.169905E-03	9.700957E-05
4.956325E+03	3.174384E-03	9.711738E-05
4.966140E+03	3.179223E-03	9.723611E-05
4.975954E+03	3.184405E-03	9.736527E-05
4.985769E+03	3.190073E-03	9.750924E-05
4.995583E+03	3.196036E-03	9.766212E-05
5.005398E+03	3.202260E-03	9.782291E-05
5.015212E+03	3.208874E-03	9.799552E-05
5.025027E+03	3.215847E-03	9.817898E-05
5.034841E+03	3.222820E-03	9.836234E-05
5.044656E+03	3.230092E-03	9.855472E-05
5.054471E+03	3.237644E-03	9.875556E-05
5.064285E+03	3.245136E-03	9.895446E-05
5.074100E+03	3.253050E-03	9.916608E-05
5.083914E+03	3.260892E-03	9.937543E-05
5.093729E+03	3.268992E-03	9.959252E-05
5.103543E+03	3.277178E-03	9.981209E-05
5.113358E+03	3.285585E-03	1.000383E-04
5.123172E+03	3.294009E-03	1.002649E-04
5.132987E+03	3.302569E-03	1.004955E-04
5.142801E+03	3.310875E-03	1.007182E-04
5.152616E+03	3.319360E-03	1.009463E-04
5.162430E+03	3.327458E-03	1.011625E-04
5.172245E+03	3.335588E-03	1.013796E-04
5.182059E+03	3.343171E-03	1.015799E-04
5.191874E+03	3.350465E-03	1.017714E-04
5.201688E+03	3.357241E-03	1.019470E-04
5.211503E+03	3.363613E-03	1.021103E-04
5.221317E+03	3.369362E-03	1.022546E-04
5.231132E+03	3.374606E-03	1.023836E-04
5.240946E+03	3.379133E-03	1.024907E-04
5.250761E+03	3.382890E-03	1.025744E-04
5.260575E+03	3.385991E-03	1.026382E-04
5.270390E+03	3.388374E-03	1.026803E-04
5.280204E+03	3.389647E-03	1.026887E-04
5.290019E+03	3.390250E-03	1.026769E-04
5.299833E+03	3.389623E-03	1.026279E-04
5.309648E+03	3.388213E-03	1.025552E-04
5.319462E+03	3.385472E-03	1.024423E-04
5.329277E+03	3.381695E-03	1.022982E-04
5.339091E+03	3.376845E-03	1.021218E-04
5.348906E+03	3.370735E-03	1.019074E-04
5.358720E+03	3.363347E-03	1.016546E-04
5.368535E+03	3.354833E-03	1.013679E-04
5.378349E+03	3.345187E-03	1.010472E-04
5.388164E+03	3.334242E-03	1.006875E-04
5.397978E+03	3.321998E-03	1.002889E-04
5.407793E+03	3.308619E-03	9.985629E-05
5.417607E+03	3.294108E-03	9.938980E-05
5.427422E+03	3.278305E-03	9.888467E-05
5.437236E+03	3.261216E-03	9.834112E-05
5.447051E+03	3.243007E-03	9.776415E-05
5.456865E+03	3.223679E-03	9.715385E-05
5.466680E+03	3.203084E-03	9.650577E-05
5.476494E+03	3.181384E-03	9.582481E-05
5.486309E+03	3.158432E-03	9.510662E-05
5.496123E+03	3.134240E-03	9.435154E-05
5.505938E+03	3.109122E-03	9.356911E-05
5.515752E+03	3.082639E-03	9.274610E-05
5.525567E+03	3.055268E-03	9.189691E-05
5.535381E+03	3.026737E-03	9.101337E-05
5.545196E+03	2.997099E-03	9.009710E-05
5.555010E+03	2.966586E-03	8.915514E-05
5.564825E+03	2.935304E-03	8.819064E-05
5.574639E+03	2.903238E-03	8.720320E-05
5.584454E+03	2.870711E-03	8.620253E-05
5.594268E+03	2.837778E-03	8.519030E-05
5.604083E+03	2.804778E-03	8.417669E-05
5.613897E+03	2.771914E-03	8.316778E-05
5.623712E+03	2.739253E-03	8.216560E-05
5.633526E+03	2.707120E-03	8.117986E-05
5.643341E+03	2.675689E-03	8.021576E-05
5.653155E+03	2.644992E-03	7.927427E-05
5.662970E+03	2.615310E-03	7.836378E-05
5.672784E+03	2.586652E-03	7.748452E-05
5.682599E+03	2.559269E-03	7.664401E-05
5.692413E+03	2.533273E-03	7.584554E-05
5.702228E+03	2.508633E-03	7.508817E-05
5.712042E+03	2.485555E-03	7.437801E-05
5.721857E+03	2.463988E-03	7.371353E-05
5.731671E+03	2.444223E-03	7.310337E-05
5.741486E+03	2.426061E-03	7.254157E-05
5.751300E+03	2.409543E-03	7.202928E-05
5.761115E+03	2.394934E-03	7.157439E-05
5.770929E+03	2.382027E-03	7.117071E-05
5.780744E+03	2.370851E-03	7.081900E-05
5.790558E+03	2.361657E-03	7.052678E-05
5.800373E+03	2.354234E-03	7.028769E-05
5.810187E+03	2.348713E-03	7.010560E-05
5.820002E+03	2.344991E-03	6.997737E-05
5.829816E+03	2.343189E-03	6.990660E-05
5.839631E+03	2.343315E-03	6.989347E-05
5.849445E+03	2.345374E-03	6.993813E-05
5.859260E+03	2.349260E-03	7.003733E-05
5.869074E+03	2.355209E-03	7.019810E-05
5.878889E+03	2.362883E-03	7.041030E-05
5.888704E+03	2.372635E-03	7.068446E-05
5.898518E+03	2.384244E-03	7.101393E-05
5.908333E+03	2.397959E-03	7.140609E-05
5.918147E+03	2.413563E-03	7.185446E-05
5.927962E+03	2.431082E-03	7.235975E-05
5.937776E+03	2.450790E-03	7.293011E-05
5.947591E+03	2.472496E-03	7.355978E-05
5.957405E+03	2.496371E-03	7.425388E-05
5.967220E+03	2.522481E-03	7.501429E-05
5.977034E+03	2.550771E-03	7.583932E-05
5.986849E+03	2.581434E-03	7.673473E-05
5.996663E+03	2.614668E-03	7.770634E-05
6.006478E+03	2.650283E-03	7.874846E-05
6.016292E+03	2.688339E-03	7.986286E-05
6.026107E+03	2.729158E-03	8.105907E-05
6.035921E+03	2.772530E-03	8.233078E-05
6.045736E+03	2.818634E-03	8.368331E-05
6.055550E+03	2.867506E-03	8.511766E-05
6.065365E+03	2.919164E-03	8.663439E-05
6.075179E+03	2.973614E-03	8.823359E-05
6.084994E+03	3.030676E-03	8.990991E-05
6.094808E+03	3.090577E-03	9.167005E-05
6.104623E+03	3.152895E-03	9.350148E-05
6.114437E+03	3.217614E-03	9.540370E-05
6.124252E+03	3.284530E-03	9.737063E-05
6.134066E+03	3.353400E-03	9.939506E-05
6.143881E+03	3.423764E-03	1.014633E-04
6.153695E+03	3.495626E-03	1.035756E-04
6.163510E+03	3.568264E-03	1.057104E-04
6.173324E+03	3.641421E-03	1.078601E-04
6.183139E+03	3.714618E-03	1.100106E-04
6.192953E+03	3.787333E-03	1.121465E-04
6.202768E+03	3.858991E-03	1.142507E-04
6.212582E+03	3.928975E-03	1.163050E-04
6.222397E+03	3.996419E-03	1.182838E-04
6.232211E+03	4.060992E-03	1.201773E-04
6.242026E+03	4.121525E-03	1.219511E-04
6.251840E+03	4.177635E-03	1.235938E-04
6.261655E+03	4.228096E-03	1.250693E-04
6.271469E+03	4.272306E-03	1.263598E-04
6.281284E+03	4.309506E-03	1.274430E-04
6.291098E+03	4.339058E-03	1.283000E-04
6.300913E+03	4.360413E-03	1.289149E-04
6.310727E+03	4.373139E-03	1.292748E-04
6.320542E+03	4.376996E-03	1.293728E-04
6.330356E+03	4.371664E-03	1.291995E-04
6.340171E+03	4.357617E-03	1.287691E-04
6.349985E+03	4.334654E-03	1.280756E-04
6.359800E+03	4.303576E-03	1.271429E-04
6.369614E+03	4.264406E-03	1.259716E-04
6.379429E+03	4.218147E-03	1.245916E-04
6.389243E+03	4.165009E-03	1.230090E-04
6.399058E+03	4.105881E-03	1.212501E-04
6.408872E+03	4.041674E-03	1.193419E-04
6.418687E+03	3.972694E-03	1.172934E-04
6.428501E+03	3.899849E-03	1.151316E-04
6.438316E+03	3.823807E-03	1.128761E-04
6.448130E+03	3.745207E-03	1.105457E-04
6.457945E+03	3.664651E-03	1.081583E-04
6.467759E+03	3.582693E-03	1.057302E-04
6.477574E+03	3.499848E-03	1.032766E-04
6.487388E+03	3.416593E-03	1.008116E-04
6.497203E+03	3.333356E-03	9.834778E-05
6.507017E+03	3.250532E-03	9.589673E-05
6.516832E+03	3.168476E-03	9.346896E-05
6.526646E+03	3.087510E-03	9.107391E-05
6.536461E+03	3.007919E-03	8.871998E-05
6.546275E+03	2.929951E-03	8.641448E-05
6.556090E+03	2.853811E-03	8.416339E-05
6.565904E+03	2.779670E-03	8.197174E-05
6.575719E+03	2.707669E-03	7.984365E-05
6.585533E+03	2.637913E-03	7.778220E-05
6.595348E+03	2.570351E-03	7.578587E-05
6.605162E+03	2.505313E-03	7.386437E-05
6.614977E+03	2.442712E-03	7.201507E-05
6.624791E+03	2.382578E-03	7.023887E-05
6.634606E+03	2.324930E-03	6.853629E-05
6.644420E+03	2.269767E-03	6.690729E-05
6.654235E+03	2.217080E-03	6.535154E-05
6.664049E+03	2.166848E-03	6.386848E-05
6.673864E+03	2.118934E-03	6.245398E-05
6.683678E+03	2.073527E-03	6.111362E-05
6.693493E+03	2.030474E-03	5.984288E-05
6.703307E+03	1.989731E-03	5.864042E-05
6.713122E+03	1.951247E-03	5.750477E-05
6.722937E+03	1.914973E-03	5.643446E-05
6.732751E+03	1.880858E-03	5.542794E-05
6.742566E+03	1.848853E-03	5.448377E-05
6.752380E+03	1.818907E-03	5.360047E-05
6.762195E+03	1.790974E-03	5.277662E-05
6.772009E+03	1.764914E-03	5.200815E-05
6.781824E+03	1.740868E-03	5.129916E-05
6.791638E+03	1.718697E-03	5.064558E-05
6.801453E+03	1.698358E-03	5.004609E-05
6.811267E+03	1.679806E-03	4.949941E-05
6.821082E+03	1.662999E-03	4.900426E-05
6.830896E+03	1.647894E-03	4.855942E-05
6.840711E+03	1.634451E-03	4.816366E-05
6.850525E+03	1.622630E-03	4.781579E-05
6.860340E+03	1.612389E-03	4.751465E-05
6.870154E+03	1.603693E-03	4.725913E-05
6.879969E+03	1.596503E-03	4.704813E-05
6.889783E+03	1.590785E-03	4.688059E-05
6.899598E+03	1.586420E-03	4.675306E-05
6.909412E+03	1.583542E-03	4.666950E-05
6.919227E+03	1.582034E-03	4.662643E-05
6.929041E+03	1.581865E-03	4.662296E-05
6.938856E+03	1.583002E-03	4.665808E-05
6.948670E+03	1.585411E-03	4.673085E-05
6.958485E+03	1.588976E-03	4.683785E-05
6.968299E+03	1.593833E-03	4.698307E-05
6.978114E+03	1.599863E-03	4.716299E-05
6.987928E+03	1.606939E-03	4.737394E-05
6.997743E+03	1.615179E-03	4.761935E-05
7.007557E+03	1.624438E-03	4.789496E-05
7.017372E+03	1.634562E-03	4.819628E-05
7.027186E+03	1.645657E-03	4.852640E-05
7.037001E+03	1.657473E-03	4.887796E-05
7.046815E+03	1.670108E-03	4.925388E-05
7.056630E+03	1.683307E-03	4.964662E-05
7.066444E+03	1.697073E-03	5.005631E-05
7.076259E+03	1.711412E-03	5.048312E-05
7.086073E+03	1.726049E-03	5.091894E-05
7.095888E+03	1.740980E-03	5.136367E-05
7.105702E+03	1.756104E-03	5.181432E-05
7.115517E+03	1.771312E-03	5.226772E-05
7.125331E+03	1.786493E-03	5.272056E-05
7.135146E+03	1.801530E-03	5.316942E-05
7.144960E+03	1.816203E-03	5.360779E-05
7.154775E+03	1.830581E-03	5.403774E-05
7.164589E+03	1.844338E-03	5.444961E-05
7.174404E+03	1.857536E-03	5.484526E-05
7.184218E+03	1.869837E-03	5.521467E-05
7.194033E+03	1.881300E-03	5.555963E-05
7.203847E+03	1.891581E-03	5.586996E-05
7.213662E+03	1.900642E-03	5.614450E-05
7.223476E+03	1.908341E-03	5.637909E-05
7.233291E+03	1.914437E-03	5.656657E-05
7.243105E+03	1.919000E-03	5.670903E-05
7.252920E+03	1.921798E-03	5.679955E-05
7.262734E+03	1.922603E-03	5.683137E-05
7.272549E+03	1.921403E-03	5.680415E-05
7.282363E+03	1.918214E-03	5.671834E-05
7.292178E+03	1.912773E-03	5.656608E-05
7.301992E+03	1.905052E-03	5.634660E-05
7.311807E+03	1.895256E-03	5.606586E-05
7.321621E+03	1.883308E-03	5.572157E-05
7.331436E+03	1.869153E-03	5.531207E-05
7.341250E+03	1.853070E-03	5.484560E-05
7.351065E+03	1.834965E-03	5.431931E-05
7.360879E+03	1.815070E-03	5.374007E-05
7.370694E+03	1.793438E-03	5.310939E-05
7.380508E+03	1.770452E-03	5.243858E-05
7.390323E+03	1.746113E-03	5.172765E-05
7.400137E+03	1.720822E-03	5.098844E-05
7.409952E+03	1.694603E-03	5.022167E-05
7.419766E+03	1.667773E-03	4.943668E-05
7.429581E+03	1.640452E-03	4.863700E-05
7.439395E+03	1.613031E-03	4.783423E-05
7.449210E+03	1.585528E-03	4.702884E-05
7.459024E+03	1.558215E-03	4.622894E-05
7.468839E+03	1.531261E-03	4.543951E-05
7.478653E+03	1.504817E-03	4.466504E-05
7.488468E+03	1.479012E-03	4.390934E-05
7.498282E+03	1.453868E-03	4.317308E-05
7.508097E+03	1.429540E-03	4.246086E-05
7.517911E+03	1.406068E-03	4.177387E-05
7.527726E+03	1.383469E-03	4.111263E-05
7.537540E+03	1.361675E-03	4.047512E-05
7.547355E+03	1.340763E-03	3.986365E-05
7.557169E+03	1.320724E-03	3.927799E-05
7.566984E+03	1.301546E-03	3.871775E-05
7.576799E+03	1.283214E-03	3.818250E-05
7.586613E+03	1.265636E-03	3.766954E-05
7.596428E+03	1.248868E-03	3.718053E-05
7.606242E+03	1.232887E-03	3.671480E-05
7.616057E+03	1.217672E-03	3.627174E-05
