#wls	flux	fluxerr
1.592848E+03	2.172168E-03	3.720859E-05
1.632669E+03	2.239246E-03	3.815756E-05
1.672491E+03	2.311424E-03	3.917639E-05
1.712312E+03	2.388919E-03	4.026679E-05
1.752133E+03	2.472163E-03	4.143399E-05
1.791954E+03	2.561804E-03	4.268652E-05
1.831775E+03	2.657634E-03	4.401845E-05
1.871597E+03	2.760524E-03	4.544152E-05
1.911418E+03	2.870701E-03	4.695658E-05
1.951239E+03	2.988404E-03	4.856437E-05
1.991060E+03	3.113657E-03	5.026204E-05
2.030881E+03	3.246714E-03	5.205022E-05
2.070703E+03	3.387406E-03	5.392263E-05
2.110524E+03	3.535149E-03	5.586638E-05
2.150345E+03	3.690018E-03	5.787904E-05
2.190166E+03	3.851248E-03	5.994496E-05
2.229987E+03	4.018299E-03	6.205227E-05
2.269809E+03	4.191098E-03	6.419636E-05
2.309630E+03	4.370007E-03	6.637918E-05
2.349451E+03	4.556076E-03	6.861276E-05
2.389272E+03	4.750598E-03	7.091210E-05
2.429093E+03	4.954921E-03	7.329218E-05
2.468915E+03	5.171088E-03	7.577732E-05
2.508736E+03	5.400565E-03	7.838211E-05
2.548557E+03	5.645343E-03	8.112768E-05
2.588378E+03	5.906866E-03	8.402600E-05
2.628199E+03	6.186905E-03	8.709257E-05
2.668021E+03	6.486957E-03	9.033767E-05
2.707842E+03	6.808668E-03	9.377252E-05
2.747663E+03	7.153897E-03	9.740983E-05
2.787484E+03	7.524502E-03	1.012608E-04
2.827305E+03	7.922613E-03	1.053387E-04
2.867127E+03	8.351094E-03	1.096647E-04
2.906948E+03	8.812728E-03	1.142566E-04
2.946769E+03	9.311791E-03	1.191489E-04
2.986590E+03	9.852323E-03	1.243697E-04
2.996546E+03	9.994782E-03	1.257340E-04
3.006501E+03	1.014009E-02	1.271199E-04
3.016456E+03	1.028829E-02	1.285277E-04
3.026411E+03	1.043993E-02	1.299636E-04
3.036367E+03	1.059482E-02	1.314248E-04
3.046322E+03	1.075304E-02	1.329118E-04
3.056277E+03	1.091488E-02	1.344276E-04
3.066233E+03	1.108018E-02	1.359698E-04
3.076188E+03	1.124901E-02	1.375385E-04
3.086143E+03	1.142189E-02	1.391398E-04
3.096099E+03	1.159843E-02	1.407681E-04
3.106054E+03	1.177894E-02	1.424266E-04
3.116009E+03	1.196323E-02	1.441125E-04
3.125964E+03	1.215208E-02	1.458346E-04
3.135920E+03	1.234484E-02	1.475843E-04
3.145875E+03	1.254181E-02	1.493646E-04
3.155830E+03	1.274328E-02	1.511781E-04
3.165786E+03	1.294929E-02	1.530250E-04
3.175741E+03	1.315940E-02	1.548991E-04
3.185696E+03	1.337437E-02	1.568087E-04
3.195652E+03	1.359374E-02	1.587477E-04
3.205607E+03	1.381775E-02	1.607181E-04
3.215562E+03	1.404616E-02	1.627165E-04
3.225517E+03	1.427918E-02	1.647446E-04
3.235473E+03	1.451677E-02	1.668012E-04
3.245428E+03	1.475886E-02	1.688847E-04
3.255383E+03	1.500510E-02	1.709905E-04
3.265339E+03	1.525561E-02	1.731191E-04
3.275294E+03	1.551021E-02	1.752679E-04
3.285249E+03	1.576841E-02	1.774307E-04
3.295205E+03	1.603019E-02	1.796067E-04
3.305160E+03	1.629493E-02	1.817883E-04
3.315115E+03	1.656244E-02	1.839728E-04
3.325070E+03	1.683191E-02	1.861510E-04
3.335026E+03	1.710267E-02	1.883150E-04
3.344981E+03	1.737390E-02	1.904555E-04
3.354936E+03	1.764461E-02	1.925616E-04
3.364892E+03	1.791362E-02	1.946205E-04
3.374847E+03	1.817927E-02	1.966143E-04
3.384802E+03	1.844021E-02	1.985290E-04
3.394758E+03	1.869404E-02	2.003396E-04
3.404713E+03	1.893920E-02	2.020302E-04
3.414668E+03	1.917282E-02	2.035717E-04
3.424623E+03	1.939235E-02	2.049389E-04
3.434579E+03	1.959510E-02	2.061055E-04
3.444534E+03	1.977798E-02	2.070415E-04
3.454489E+03	1.993836E-02	2.077226E-04
3.464445E+03	2.007314E-02	2.081199E-04
3.474400E+03	2.017930E-02	2.082062E-04
3.484355E+03	2.025430E-02	2.079597E-04
3.494311E+03	2.029562E-02	2.073595E-04
3.504266E+03	2.030167E-02	2.063943E-04
3.514221E+03	2.027029E-02	2.050479E-04
3.524176E+03	2.020093E-02	2.033203E-04
3.534132E+03	2.009318E-02	2.012135E-04
3.544087E+03	1.994759E-02	1.987388E-04
3.554042E+03	1.976503E-02	1.959105E-04
3.563998E+03	1.954738E-02	1.927532E-04
3.573953E+03	1.929783E-02	1.893037E-04
3.583908E+03	1.901950E-02	1.855972E-04
3.593864E+03	1.871722E-02	1.816853E-04
3.603819E+03	1.839611E-02	1.776213E-04
3.613774E+03	1.806160E-02	1.734603E-04
3.623729E+03	1.771981E-02	1.692629E-04
3.633685E+03	2.417242E-02	2.296499E-04
3.634949E+03	2.432765E-02	2.309647E-04
3.636213E+03	2.447932E-02	2.322439E-04
3.637478E+03	2.464330E-02	2.336376E-04
3.638742E+03	2.481165E-02	2.350706E-04
3.640006E+03	2.496503E-02	2.363596E-04
3.641281E+03	2.509989E-02	2.374701E-04
3.642545E+03	2.523035E-02	2.385384E-04
3.643809E+03	2.536606E-02	2.396547E-04
3.645074E+03	2.549648E-02	2.407191E-04
3.646338E+03	2.561633E-02	2.416821E-04
3.647602E+03	2.573176E-02	2.426018E-04
3.648867E+03	2.583749E-02	2.434286E-04
3.650131E+03	2.592739E-02	2.441049E-04
3.651395E+03	2.600847E-02	2.446971E-04
3.652660E+03	2.607899E-02	2.451888E-04
3.653924E+03	2.613367E-02	2.455308E-04
3.655198E+03	2.617602E-02	2.457550E-04
3.656462E+03	2.622541E-02	2.460459E-04
3.657727E+03	2.628182E-02	2.464020E-04
3.658991E+03	2.632942E-02	2.466748E-04
3.660255E+03	2.635768E-02	2.467659E-04
3.661520E+03	2.636396E-02	2.466509E-04
3.662784E+03	2.634388E-02	2.462893E-04
3.664048E+03	2.630621E-02	2.457637E-04
3.665313E+03	2.626854E-02	2.452387E-04
3.666577E+03	2.623967E-02	2.447960E-04
3.667841E+03	2.621518E-02	2.443947E-04
3.669116E+03	2.618365E-02	2.439267E-04
3.670380E+03	2.613720E-02	2.433215E-04
3.671644E+03	2.606967E-02	2.425209E-04
3.672909E+03	2.598546E-02	2.415660E-04
3.674173E+03	2.589334E-02	2.405388E-04
3.675437E+03	2.579685E-02	2.394721E-04
3.676702E+03	2.569684E-02	2.383741E-04
3.677966E+03	2.558807E-02	2.371962E-04
3.679230E+03	2.545823E-02	2.358245E-04
3.680495E+03	2.529855E-02	2.341783E-04
3.681759E+03	2.511781E-02	2.323394E-04
3.683023E+03	2.492569E-02	2.303976E-04
3.684298E+03	2.472128E-02	2.283435E-04
3.685562E+03	2.449056E-02	2.260507E-04
3.686826E+03	2.422653E-02	2.234535E-04
3.688090E+03	2.393882E-02	2.206417E-04
3.689355E+03	2.364062E-02	2.177369E-04
3.690619E+03	2.333367E-02	2.147557E-04
3.691883E+03	2.302063E-02	2.117223E-04
3.693148E+03	2.271376E-02	2.087498E-04
3.694412E+03	2.242096E-02	2.059106E-04
3.695676E+03	2.212381E-02	2.030354E-04
3.696941E+03	2.180214E-02	1.999391E-04
3.698215E+03	2.145681E-02	1.966291E-04
3.699479E+03	2.110275E-02	1.932450E-04
3.700744E+03	2.074962E-02	1.898740E-04
3.702008E+03	2.040092E-02	1.865482E-04
3.703272E+03	2.005665E-02	1.832674E-04
3.704537E+03	1.970891E-02	1.799595E-04
3.705801E+03	1.935157E-02	1.765687E-04
3.707065E+03	1.898551E-02	1.731029E-04
3.708330E+03	1.861511E-02	1.696026E-04
3.709594E+03	1.823774E-02	1.660436E-04
3.710858E+03	1.785429E-02	1.624343E-04
3.712133E+03	1.746737E-02	1.587976E-04
3.713397E+03	1.708051E-02	1.551675E-04
3.714661E+03	1.669107E-02	1.515191E-04
3.715925E+03	1.629905E-02	1.478525E-04
3.717190E+03	1.591059E-02	1.442232E-04
3.718454E+03	1.552393E-02	1.406155E-04
3.719718E+03	1.513119E-02	1.369578E-04
3.720983E+03	1.473324E-02	1.332582E-04
3.722247E+03	1.433797E-02	1.295882E-04
3.723511E+03	1.396204E-02	1.260979E-04
3.724776E+03	1.361155E-02	1.228422E-04
3.726050E+03	1.327511E-02	1.197173E-04
3.727314E+03	1.293173E-02	1.165349E-04
3.728579E+03	1.258401E-02	1.133180E-04
3.729843E+03	1.224947E-02	1.102243E-04
3.731107E+03	1.194300E-02	1.073874E-04
3.732372E+03	1.166546E-02	1.048145E-04
3.733636E+03	1.143174E-02	1.026387E-04
3.734900E+03	1.121556E-02	1.006234E-04
3.736165E+03	1.100291E-02	9.864257E-05
3.737429E+03	1.080517E-02	9.679815E-05
3.738693E+03	1.063459E-02	9.519947E-05
3.739968E+03	1.044477E-02	9.343040E-05
3.741232E+03	1.016572E-02	9.086679E-05
3.742496E+03	9.798317E-03	8.751777E-05
3.743761E+03	9.418722E-03	8.406478E-05
3.745025E+03	9.122299E-03	8.135860E-05
3.746289E+03	8.931783E-03	7.960019E-05
3.747553E+03	8.801652E-03	7.838206E-05
3.748818E+03	8.688164E-03	7.731376E-05
3.750082E+03	8.590345E-03	7.638628E-05
3.751346E+03	8.515543E-03	7.566462E-05
3.752611E+03	8.480454E-03	7.529656E-05
3.753885E+03	8.473960E-03	7.518221E-05
3.755149E+03	8.481201E-03	7.519016E-05
3.756414E+03	8.474626E-03	7.507562E-05
3.757678E+03	8.462278E-03	7.491005E-05
3.758942E+03	8.454299E-03	7.478330E-05
3.760207E+03	8.422285E-03	7.444420E-05
3.761471E+03	8.352247E-03	7.376970E-05
3.762735E+03	8.273737E-03	7.302134E-05
3.764000E+03	8.217353E-03	7.246915E-05
3.765264E+03	8.189205E-03	7.216654E-05
3.766528E+03	8.184825E-03	7.207360E-05
3.767793E+03	8.194775E-03	7.210679E-05
3.769067E+03	8.201046E-03	7.210709E-05
3.770331E+03	8.196490E-03	7.201260E-05
3.771596E+03	8.201889E-03	7.200557E-05
3.772860E+03	8.245548E-03	7.233410E-05
3.774124E+03	8.325881E-03	7.298353E-05
3.775389E+03	8.422274E-03	7.377256E-05
3.776653E+03	8.491574E-03	7.432317E-05
3.777917E+03	8.513968E-03	7.446263E-05
3.779181E+03	8.513482E-03	7.440183E-05
3.780446E+03	8.513955E-03	7.434942E-05
3.781710E+03	8.536777E-03	7.449201E-05
3.782984E+03	8.583593E-03	7.484306E-05
3.784249E+03	8.648561E-03	7.535209E-05
3.785513E+03	8.709766E-03	7.582749E-05
3.786777E+03	8.753854E-03	7.615318E-05
3.788042E+03	8.804653E-03	7.653661E-05
3.789306E+03	8.894711E-03	7.726038E-05
3.790570E+03	9.011800E-03	7.821756E-05
3.791835E+03	9.099204E-03	7.891573E-05
3.793099E+03	9.132506E-03	7.914389E-05
3.794363E+03	9.145734E-03	7.919777E-05
3.795628E+03	9.183383E-03	7.946278E-05
3.796902E+03	9.248927E-03	7.996800E-05
3.798166E+03	9.317084E-03	8.049540E-05
3.799431E+03	9.383482E-03	8.100672E-05
3.800695E+03	9.450740E-03	8.152457E-05
3.801959E+03	9.531936E-03	8.216166E-05
3.803224E+03	9.630556E-03	8.294775E-05
3.804488E+03	9.734387E-03	8.377738E-05
3.805752E+03	9.821638E-03	8.446305E-05
3.807016E+03	9.891439E-03	8.499760E-05
3.808281E+03	9.974300E-03	8.564337E-05
3.809545E+03	1.009462E-02	8.660943E-05
3.810819E+03	1.025326E-02	8.790185E-05
3.812084E+03	1.043714E-02	8.940897E-05
3.813348E+03	1.063755E-02	9.105507E-05
3.814612E+03	1.083878E-02	9.270563E-05
3.815877E+03	1.102867E-02	9.425646E-05
3.817141E+03	1.120719E-02	9.570776E-05
3.818405E+03	1.138568E-02	9.715645E-05
3.819670E+03	1.156240E-02	9.858760E-05
3.820934E+03	1.173299E-02	9.996423E-05
3.822198E+03	1.190268E-02	1.013309E-04
3.823463E+03	1.207930E-02	1.027543E-04
3.824737E+03	1.226546E-02	1.042558E-04
3.826001E+03	1.245159E-02	1.057553E-04
3.827266E+03	1.262464E-02	1.071411E-04
3.828530E+03	1.278633E-02	1.084285E-04
3.829794E+03	1.294452E-02	1.096839E-04
3.831059E+03	1.311138E-02	1.110107E-04
3.832323E+03	1.328081E-02	1.123571E-04
3.833587E+03	1.344325E-02	1.136422E-04
3.834852E+03	1.360219E-02	1.148954E-04
3.836116E+03	1.377588E-02	1.162711E-04
3.837380E+03	1.398086E-02	1.179083E-04
3.838654E+03	1.420579E-02	1.197103E-04
3.839919E+03	1.443330E-02	1.215317E-04
3.841183E+03	1.465730E-02	1.233205E-04
3.842447E+03	1.487950E-02	1.250913E-04
3.843712E+03	1.510080E-02	1.268515E-04
3.844976E+03	1.533163E-02	1.286887E-04
3.846240E+03	1.558587E-02	1.307194E-04
3.847505E+03	1.586703E-02	1.329721E-04
3.848769E+03	1.616985E-02	1.354026E-04
3.850033E+03	1.648392E-02	1.379232E-04
3.851298E+03	1.679880E-02	1.404464E-04
3.852562E+03	1.710059E-02	1.428560E-04
3.853836E+03	1.739362E-02	1.451876E-04
3.855101E+03	1.769181E-02	1.475594E-04
3.856365E+03	1.800994E-02	1.500933E-04
3.857629E+03	1.836361E-02	1.529190E-04
3.858894E+03	1.877281E-02	1.562020E-04
3.860158E+03	1.922189E-02	1.598111E-04
3.861422E+03	1.967348E-02	1.634353E-04
3.862687E+03	2.010937E-02	1.669230E-04
3.863951E+03	2.052953E-02	1.702746E-04
3.865215E+03	2.094528E-02	1.735840E-04
3.866480E+03	2.136876E-02	1.769519E-04
3.867754E+03	2.181558E-02	1.805063E-04
3.869018E+03	2.228316E-02	1.842274E-04
3.870282E+03	2.274892E-02	1.879273E-04
3.871547E+03	2.319289E-02	1.914413E-04
3.872811E+03	2.361161E-02	1.947411E-04
3.874075E+03	2.402071E-02	1.979561E-04
3.875340E+03	2.444013E-02	2.012507E-04
3.876604E+03	2.488030E-02	2.047104E-04
3.877868E+03	2.533772E-02	2.083062E-04
3.879133E+03	2.578725E-02	2.118311E-04
3.880397E+03	2.621761E-02	2.151927E-04
3.881671E+03	2.664613E-02	2.185322E-04
3.882936E+03	2.710147E-02	2.220871E-04
3.884200E+03	2.759313E-02	2.259334E-04
3.885464E+03	2.809683E-02	2.298717E-04
3.886729E+03	2.859696E-02	2.337742E-04
3.887993E+03	2.909439E-02	2.376481E-04
3.889257E+03	2.959172E-02	2.415146E-04
3.890522E+03	3.008375E-02	2.453313E-04
3.891786E+03	3.056789E-02	2.490772E-04
3.893050E+03	3.105365E-02	2.528300E-04
3.894315E+03	3.154625E-02	2.566320E-04
3.895589E+03	3.204220E-02	2.604530E-04
3.896853E+03	3.252766E-02	2.641840E-04
3.898117E+03	3.300177E-02	2.678165E-04
3.899382E+03	3.346712E-02	2.713717E-04
3.900646E+03	3.392545E-02	2.748639E-04
3.901910E+03	3.437590E-02	2.782862E-04
3.903175E+03	3.480806E-02	2.815548E-04
3.904439E+03	3.522802E-02	2.847190E-04
3.905703E+03	3.564529E-02	2.878560E-04
3.906968E+03	3.606160E-02	2.909798E-04
3.908232E+03	3.646312E-02	2.939788E-04
3.909506E+03	3.684548E-02	2.968164E-04
3.910771E+03	3.721827E-02	2.995738E-04
3.912035E+03	3.759273E-02	3.023397E-04
3.913299E+03	3.795842E-02	3.050303E-04
3.914564E+03	3.831452E-02	3.076390E-04
3.915828E+03	3.867231E-02	3.102567E-04
3.917092E+03	3.903605E-02	3.129174E-04
3.918357E+03	3.939280E-02	3.155173E-04
3.919621E+03	3.972524E-02	3.179180E-04
3.920885E+03	4.002648E-02	3.200650E-04
3.922150E+03	4.031296E-02	3.220900E-04
3.923424E+03	4.061062E-02	3.241984E-04
3.924688E+03	4.092893E-02	3.264698E-04
3.925952E+03	4.124633E-02	3.287298E-04
3.927217E+03	4.153341E-02	3.307442E-04
3.928481E+03	4.178499E-02	3.324724E-04
3.929745E+03	4.201234E-02	3.340047E-04
3.931010E+03	4.223097E-02	3.354648E-04
3.932274E+03	4.244699E-02	3.369014E-04
3.933538E+03	4.265603E-02	3.382797E-04
3.934803E+03	4.285289E-02	3.395589E-04
3.936067E+03	4.304284E-02	3.407809E-04
3.937331E+03	4.323706E-02	3.420342E-04
3.938606E+03	4.343980E-02	3.433500E-04
3.939870E+03	4.365290E-02	3.447473E-04
3.941134E+03	4.387024E-02	3.461753E-04
3.942399E+03	4.407548E-02	3.475052E-04
3.943663E+03	4.425476E-02	3.486279E-04
3.944927E+03	4.441328E-02	3.495848E-04
3.946192E+03	4.456311E-02	3.504715E-04
3.947456E+03	4.470344E-02	3.512815E-04
3.948720E+03	4.482563E-02	3.519474E-04
3.949985E+03	4.492791E-02	3.524555E-04
3.951249E+03	4.500860E-02	3.527931E-04
3.952523E+03	4.507115E-02	3.529853E-04
3.953787E+03	4.512160E-02	3.530844E-04
3.955052E+03	4.516947E-02	3.531627E-04
3.956316E+03	4.522334E-02	3.532874E-04
3.957580E+03	4.528754E-02	3.534920E-04
3.958845E+03	4.534396E-02	3.536352E-04
3.960109E+03	4.537275E-02	3.535623E-04
3.961373E+03	4.536796E-02	3.532279E-04
3.962638E+03	4.534591E-02	3.527592E-04
3.963902E+03	4.531609E-02	3.522304E-04
3.965166E+03	4.528541E-02	3.516954E-04
3.966441E+03	4.525641E-02	3.511717E-04
3.967705E+03	4.522745E-02	3.506510E-04
3.968969E+03	4.518986E-02	3.500640E-04
3.970234E+03	4.513681E-02	3.493578E-04
3.971498E+03	4.506220E-02	3.484857E-04
3.972762E+03	4.496177E-02	3.474151E-04
3.974027E+03	4.484156E-02	3.461932E-04
3.975291E+03	4.472136E-02	3.449729E-04
3.976555E+03	4.462612E-02	3.439468E-04
3.977820E+03	4.456103E-02	3.431541E-04
3.979084E+03	4.450112E-02	3.424022E-04
3.980358E+03	4.441448E-02	3.414434E-04
3.981623E+03	4.428832E-02	3.401845E-04
3.982887E+03	4.413209E-02	3.386967E-04
3.984151E+03	4.396724E-02	3.371448E-04
3.985415E+03	4.380247E-02	3.355957E-04
3.986680E+03	4.363684E-02	3.340423E-04
3.987944E+03	4.347726E-02	3.325374E-04
3.989208E+03	4.332628E-02	3.311003E-04
3.990473E+03	4.317793E-02	3.296854E-04
3.991737E+03	4.301239E-02	3.281414E-04
3.993001E+03	4.282543E-02	3.264364E-04
3.994276E+03	4.263242E-02	3.246856E-04
3.995540E+03	4.243774E-02	3.229269E-04
3.996804E+03	4.224742E-02	3.212039E-04
3.998069E+03	4.206573E-02	3.195491E-04
3.999333E+03	4.188750E-02	3.179229E-04
4.000597E+03	4.169727E-02	3.162082E-04
4.001862E+03	4.149504E-02	3.144050E-04
4.003126E+03	4.129284E-02	3.126049E-04
4.004390E+03	4.109156E-02	3.108144E-04
4.005655E+03	4.088172E-02	3.089619E-04
4.006919E+03	4.065651E-02	3.069961E-04
4.008193E+03	4.041407E-02	3.049013E-04
4.009458E+03	4.016402E-02	3.027545E-04
4.010722E+03	3.992089E-02	3.006630E-04
4.011986E+03	3.969413E-02	2.986980E-04
4.013251E+03	3.947251E-02	2.967747E-04
4.014515E+03	3.923465E-02	2.947323E-04
4.015779E+03	3.898055E-02	2.925712E-04
4.017043E+03	3.872136E-02	2.903753E-04
4.018308E+03	3.846393E-02	2.881961E-04
4.019572E+03	3.820396E-02	2.860012E-04
4.020836E+03	3.793462E-02	2.837397E-04
4.022101E+03	3.765077E-02	2.813733E-04
4.023375E+03	3.735581E-02	2.789258E-04
4.024639E+03	3.705922E-02	2.764720E-04
4.025904E+03	3.677297E-02	2.740992E-04
4.027168E+03	3.649536E-02	2.717944E-04
4.028432E+03	3.621265E-02	2.694554E-04
4.029697E+03	3.591630E-02	2.670187E-04
4.030961E+03	3.561572E-02	2.645546E-04
4.032225E+03	3.532549E-02	2.621711E-04
4.033490E+03	3.504474E-02	2.598618E-04
4.034754E+03	3.475804E-02	2.575121E-04
4.036018E+03	3.446200E-02	2.550971E-04
4.037293E+03	3.416769E-02	2.526970E-04
4.038557E+03	3.388461E-02	2.503855E-04
4.039821E+03	3.361271E-02	2.481602E-04
4.041086E+03	3.334856E-02	2.459958E-04
4.042350E+03	3.307848E-02	2.437911E-04
4.043614E+03	3.279050E-02	2.414581E-04
4.044878E+03	3.248633E-02	2.390098E-04
4.046143E+03	3.218564E-02	2.365911E-04
4.047407E+03	3.190554E-02	2.343275E-04
4.048671E+03	3.164260E-02	2.321935E-04
4.049936E+03	3.139254E-02	2.301574E-04
4.051210E+03	3.115618E-02	2.282234E-04
4.052474E+03	3.093101E-02	2.263760E-04
4.053739E+03	3.070589E-02	2.245319E-04
4.055003E+03	3.046287E-02	2.225600E-04
4.056267E+03	3.020880E-02	2.205106E-04
4.057532E+03	2.995478E-02	2.184649E-04
4.058796E+03	2.970850E-02	2.164790E-04
4.060060E+03	2.947424E-02	2.145837E-04
4.061325E+03	2.925368E-02	2.127912E-04
4.062589E+03	2.904172E-02	2.110641E-04
4.063853E+03	2.881613E-02	2.092409E-04
4.065128E+03	2.857009E-02	2.072707E-04
4.066392E+03	2.831815E-02	2.052625E-04
4.067656E+03	2.809016E-02	2.034310E-04
4.068921E+03	2.789806E-02	2.018622E-04
4.070185E+03	2.772989E-02	2.004689E-04
4.071449E+03	2.756944E-02	1.991336E-04
4.072714E+03	2.740560E-02	1.977760E-04
4.073978E+03	2.723071E-02	1.963408E-04
4.075242E+03	2.705416E-02	1.948960E-04
4.076506E+03	2.689555E-02	1.935826E-04
4.077771E+03	2.675999E-02	1.924371E-04
4.079045E+03	2.663125E-02	1.913410E-04
4.080309E+03	2.650000E-02	1.902301E-04
4.081574E+03	2.638157E-02	1.892127E-04
4.082838E+03	2.628361E-02	1.883437E-04
4.084102E+03	2.619504E-02	1.875432E-04
4.085367E+03	2.610053E-02	1.867014E-04
4.086631E+03	2.599495E-02	1.857818E-04
4.087895E+03	2.589281E-02	1.848881E-04
4.089160E+03	2.580601E-02	1.841053E-04
4.090424E+03	2.573881E-02	1.834633E-04
4.091688E+03	2.568950E-02	1.829497E-04
4.092963E+03	2.564528E-02	1.824717E-04
4.094227E+03	2.559258E-02	1.819354E-04
4.095491E+03	2.552797E-02	1.813152E-04
4.096756E+03	2.546593E-02	1.807141E-04
4.098020E+03	2.541665E-02	1.802045E-04
4.099284E+03	2.538355E-02	1.798100E-04
4.100549E+03	2.535639E-02	1.794582E-04
4.101813E+03	2.532754E-02	1.790949E-04
4.103077E+03	2.529359E-02	1.786959E-04
4.104342E+03	2.526560E-02	1.783395E-04
4.105606E+03	2.525885E-02	1.781334E-04
4.106870E+03	2.526740E-02	1.780352E-04
4.108144E+03	2.527422E-02	1.779236E-04
4.109409E+03	2.526406E-02	1.776938E-04
4.110673E+03	2.524030E-02	1.773686E-04
4.111937E+03	2.520974E-02	1.769961E-04
4.113202E+03	2.518344E-02	1.766539E-04
4.114466E+03	2.516562E-02	1.763716E-04
4.115730E+03	2.515630E-02	1.761491E-04
4.116995E+03	2.515631E-02	1.759922E-04
4.118259E+03	2.516310E-02	1.758827E-04
4.119523E+03	2.517328E-02	1.757968E-04
4.120788E+03	2.518091E-02	1.756932E-04
4.122062E+03	2.518426E-02	1.755584E-04
4.123326E+03	2.519612E-02	1.754842E-04
4.124591E+03	2.522323E-02	1.755161E-04
4.125855E+03	2.525966E-02	1.756125E-04
4.127119E+03	2.529098E-02	1.756731E-04
4.128384E+03	2.532060E-02	1.757216E-04
4.129648E+03	2.536631E-02	1.758814E-04
4.130912E+03	2.542641E-02	1.761404E-04
4.132177E+03	2.548564E-02	1.763927E-04
4.133441E+03	2.553977E-02	1.766091E-04
4.134705E+03	2.560573E-02	1.769067E-04
4.135979E+03	2.568351E-02	1.772839E-04
4.137244E+03	2.575789E-02	1.776381E-04
4.138508E+03	2.582209E-02	1.779212E-04
4.139772E+03	2.588880E-02	1.782209E-04
4.141037E+03	2.596395E-02	1.785781E-04
4.142301E+03	2.604500E-02	1.789749E-04
4.143565E+03	2.613026E-02	1.793997E-04
4.144830E+03	2.621971E-02	1.798523E-04
4.146094E+03	2.631083E-02	1.803153E-04
4.147358E+03	2.639599E-02	1.807366E-04
4.148623E+03	2.647604E-02	1.811219E-04
4.149897E+03	2.655518E-02	1.814989E-04
4.151161E+03	2.663771E-02	1.818994E-04
4.152426E+03	2.671767E-02	1.822815E-04
4.153690E+03	2.678492E-02	1.825761E-04
