#wls	flux	fluxerr
1.592848E+03	1.950756E-03	8.503456E-05
1.632669E+03	2.002822E-03	8.678267E-05
1.672491E+03	2.058888E-03	8.866348E-05
1.712312E+03	2.119094E-03	9.067857E-05
1.752133E+03	2.183771E-03	9.283732E-05
1.791954E+03	2.253437E-03	9.515636E-05
1.831775E+03	2.327852E-03	9.761984E-05
1.871597E+03	2.407723E-03	1.002514E-04
1.911418E+03	2.493195E-03	1.030502E-04
1.951239E+03	2.584419E-03	1.060155E-04
1.991060E+03	2.681372E-03	1.091388E-04
2.030881E+03	2.784232E-03	1.124195E-04
2.070703E+03	2.892824E-03	1.158424E-04
2.110524E+03	3.006637E-03	1.193790E-04
2.150345E+03	3.125739E-03	1.230239E-04
2.190166E+03	3.249504E-03	1.267442E-04
2.229987E+03	3.377536E-03	1.305167E-04
2.269809E+03	3.509841E-03	1.343339E-04
2.309630E+03	3.646834E-03	1.382034E-04
2.349451E+03	3.789516E-03	1.421541E-04
2.389272E+03	3.939123E-03	1.462216E-04
2.429093E+03	4.096958E-03	1.504421E-04
2.468915E+03	4.264944E-03	1.548713E-04
2.508736E+03	4.444581E-03	1.595465E-04
2.548557E+03	4.637862E-03	1.645192E-04
2.588378E+03	4.846408E-03	1.698242E-04
2.628199E+03	5.072244E-03	1.755062E-04
2.668021E+03	5.317284E-03	1.816024E-04
2.707842E+03	5.583752E-03	1.881555E-04
2.747663E+03	5.874253E-03	1.952162E-04
2.787484E+03	6.191661E-03	2.028380E-04
2.827305E+03	6.539404E-03	2.110855E-04
2.867127E+03	6.921924E-03	2.200477E-04
2.906948E+03	7.344100E-03	2.298170E-04
2.946769E+03	7.812718E-03	2.405331E-04
2.986590E+03	8.335170E-03	2.523385E-04
2.996546E+03	8.475477E-03	2.554876E-04
3.006501E+03	8.619755E-03	2.587152E-04
3.016456E+03	8.768156E-03	2.620240E-04
3.026411E+03	8.921220E-03	2.654285E-04
3.036367E+03	9.078912E-03	2.689254E-04
3.046322E+03	9.241407E-03	2.725178E-04
3.056277E+03	9.409069E-03	2.762143E-04
3.066233E+03	9.581893E-03	2.800126E-04
3.076188E+03	9.760056E-03	2.839154E-04
3.086143E+03	9.944168E-03	2.879380E-04
3.096099E+03	1.013403E-02	2.920720E-04
3.106054E+03	1.033005E-02	2.963266E-04
3.116009E+03	1.053224E-02	3.006994E-04
3.125964E+03	1.074146E-02	3.052119E-04
3.135920E+03	1.095731E-02	3.098496E-04
3.145875E+03	1.118023E-02	3.146223E-04
3.155830E+03	1.141067E-02	3.195392E-04
3.165786E+03	1.164889E-02	3.246039E-04
3.175741E+03	1.189469E-02	3.298075E-04
3.185696E+03	1.214897E-02	3.351714E-04
3.195652E+03	1.241153E-02	3.406863E-04
3.205607E+03	1.268281E-02	3.463607E-04
3.215562E+03	1.296283E-02	3.521904E-04
3.225517E+03	1.325201E-02	3.581833E-04
3.235473E+03	1.355053E-02	3.643399E-04
3.245428E+03	1.385856E-02	3.706603E-04
3.255383E+03	1.417597E-02	3.771370E-04
3.265339E+03	1.450307E-02	3.837736E-04
3.275294E+03	1.483989E-02	3.905664E-04
3.285249E+03	1.518613E-02	3.975028E-04
3.295205E+03	1.554190E-02	4.045815E-04
3.305160E+03	1.590670E-02	4.117849E-04
3.315115E+03	1.628042E-02	4.191062E-04
3.325070E+03	1.666231E-02	4.265215E-04
3.335026E+03	1.705170E-02	4.340100E-04
3.344981E+03	1.744771E-02	4.415456E-04
3.354936E+03	1.784925E-02	4.490978E-04
3.364892E+03	1.825494E-02	4.566293E-04
3.374847E+03	1.866286E-02	4.640899E-04
3.384802E+03	1.907126E-02	4.714353E-04
3.394758E+03	1.947717E-02	4.785916E-04
3.404713E+03	1.987828E-02	4.855032E-04
3.414668E+03	2.027081E-02	4.920802E-04
3.424623E+03	2.065117E-02	4.982396E-04
3.434579E+03	2.101540E-02	5.038916E-04
3.444534E+03	2.135891E-02	5.089336E-04
3.454489E+03	2.167764E-02	5.132788E-04
3.464445E+03	2.196670E-02	5.168228E-04
3.474400E+03	2.222107E-02	5.194617E-04
3.484355E+03	2.243646E-02	5.211115E-04
3.494311E+03	2.260836E-02	5.216855E-04
3.504266E+03	2.273293E-02	5.211157E-04
3.514221E+03	2.280608E-02	5.193300E-04
3.524176E+03	2.282515E-02	5.162925E-04
3.534132E+03	2.278743E-02	5.119665E-04
3.544087E+03	2.269171E-02	5.063517E-04
3.554042E+03	2.253699E-02	4.994525E-04
3.563998E+03	2.232351E-02	4.913015E-04
3.573953E+03	2.205413E-02	4.819888E-04
3.583908E+03	2.173216E-02	4.716123E-04
3.593864E+03	2.136360E-02	4.603259E-04
3.603819E+03	2.095628E-02	4.483191E-04
3.613774E+03	2.051844E-02	4.357854E-04
3.623729E+03	2.005885E-02	4.229241E-04
3.633685E+03	1.958764E-02	4.099579E-04
3.643640E+03	1.911421E-02	3.970878E-04
3.653595E+03	1.864826E-02	3.845152E-04
3.663551E+03	1.819943E-02	3.724344E-04
3.673506E+03	1.777746E-02	3.610356E-04
3.683461E+03	1.739114E-02	3.504837E-04
3.693417E+03	1.704945E-02	3.409421E-04
3.703372E+03	1.676039E-02	3.325489E-04
3.713327E+03	1.653150E-02	3.254280E-04
3.723282E+03	1.636939E-02	3.196810E-04
3.733238E+03	1.628054E-02	3.154020E-04
3.743193E+03	1.627092E-02	3.126719E-04
3.753148E+03	1.634589E-02	3.115556E-04
3.763104E+03	1.651076E-02	3.121143E-04
3.773059E+03	1.677094E-02	3.144070E-04
3.783014E+03	1.713102E-02	3.184746E-04
3.792970E+03	1.759476E-02	3.243397E-04
3.802925E+03	1.816628E-02	3.320293E-04
3.812880E+03	1.884736E-02	3.415248E-04
3.822835E+03	1.963789E-02	3.527732E-04
3.832791E+03	2.053629E-02	3.656954E-04
3.842746E+03	2.153708E-02	3.801443E-04
3.852701E+03	2.263098E-02	3.959097E-04
3.862657E+03	2.380456E-02	4.127161E-04
3.872612E+03	2.503837E-02	4.301921E-04
3.882567E+03	2.630811E-02	4.478970E-04
3.892523E+03	2.758469E-02	4.653239E-04
3.902478E+03	2.883503E-02	4.819180E-04
3.912433E+03	3.002342E-02	4.971011E-04
3.922388E+03	3.111374E-02	5.103114E-04
3.932344E+03	3.207283E-02	5.210570E-04
3.942299E+03	3.287136E-02	5.289287E-04
3.952254E+03	3.348597E-02	5.336301E-04
3.962210E+03	3.390334E-02	5.350381E-04
3.972165E+03	3.411824E-02	5.331632E-04
3.982120E+03	3.413501E-02	5.281676E-04
3.992076E+03	3.396705E-02	5.203491E-04
4.002031E+03	3.363481E-02	5.101037E-04
4.011986E+03	3.316486E-02	4.979064E-04
4.021941E+03	3.258611E-02	4.842502E-04
4.031897E+03	3.192965E-02	4.696425E-04
4.041852E+03	3.122571E-02	4.545587E-04
4.051807E+03	3.050154E-02	4.394131E-04
4.061763E+03	2.978176E-02	4.245653E-04
4.071718E+03	2.908763E-02	4.103133E-04
4.081673E+03	2.843444E-02	3.968585E-04
4.091629E+03	2.783410E-02	3.843470E-04
4.101584E+03	2.729547E-02	3.728759E-04
4.111539E+03	2.682158E-02	3.624586E-04
4.121494E+03	2.641340E-02	3.530799E-04
4.131450E+03	2.606950E-02	3.446917E-04
4.141405E+03	2.578540E-02	3.372078E-04
4.151360E+03	2.555515E-02	3.305256E-04
4.161316E+03	2.537184E-02	3.245341E-04
4.171271E+03	2.522723E-02	3.191094E-04
4.181226E+03	2.511261E-02	3.141270E-04
4.191182E+03	2.501948E-02	3.094698E-04
4.201137E+03	2.493961E-02	3.050291E-04
4.211092E+03	2.486504E-02	3.007040E-04
4.221047E+03	2.478856E-02	2.964073E-04
4.231003E+03	2.470397E-02	2.920671E-04
4.240958E+03	2.460558E-02	2.876215E-04
4.250913E+03	2.448839E-02	2.830191E-04
4.260869E+03	2.434960E-02	2.782359E-04
4.270824E+03	2.418754E-02	2.732626E-04
4.280779E+03	2.400189E-02	2.681050E-04
4.290735E+03	2.379362E-02	2.627836E-04
4.300690E+03	2.356491E-02	2.573307E-04
4.310645E+03	2.331931E-02	2.517930E-04
4.320601E+03	2.305911E-02	2.462008E-04
4.330556E+03	2.278845E-02	2.406023E-04
4.340511E+03	2.251055E-02	2.350334E-04
4.350466E+03	2.222401E-02	2.294807E-04
4.360422E+03	2.193119E-02	2.239698E-04
4.370377E+03	2.164104E-02	2.185916E-04
4.380332E+03	2.136340E-02	2.134420E-04
4.390288E+03	2.111741E-02	2.087045E-04
4.400243E+03	2.092683E-02	2.046001E-04
4.410198E+03	2.080978E-02	2.012853E-04
4.420154E+03	2.078244E-02	1.988916E-04
4.430109E+03	2.085795E-02	1.975156E-04
4.440064E+03	2.104303E-02	1.971899E-04
4.450019E+03	2.134095E-02	1.979137E-04
4.459975E+03	2.175092E-02	1.996488E-04
4.469930E+03	2.226599E-02	2.023026E-04
4.479885E+03	2.287503E-02	2.057487E-04
4.489841E+03	2.356306E-02	2.098320E-04
4.499796E+03	2.430970E-02	2.143557E-04
4.509751E+03	2.509110E-02	2.191010E-04
4.519707E+03	2.588122E-02	2.238387E-04
4.529662E+03	2.665152E-02	2.283272E-04
4.539617E+03	2.737324E-02	2.323323E-04
4.549572E+03	2.801891E-02	2.356395E-04
4.559528E+03	2.856268E-02	2.380555E-04
4.569483E+03	2.898186E-02	2.394197E-04
4.579438E+03	2.925889E-02	2.396193E-04
4.589394E+03	2.937902E-02	2.385671E-04
4.599349E+03	2.933364E-02	2.362278E-04
4.609304E+03	2.912006E-02	2.326138E-04
4.619260E+03	2.874068E-02	2.277761E-04
4.629215E+03	2.820257E-02	2.217998E-04
4.639170E+03	2.752156E-02	2.148344E-04
4.649125E+03	2.671723E-02	2.070528E-04
4.659081E+03	2.581430E-02	1.986613E-04
4.669036E+03	2.484106E-02	1.898864E-04
4.678991E+03	2.382613E-02	1.809502E-04
4.688947E+03	2.279878E-02	1.720733E-04
4.698902E+03	2.178460E-02	1.634425E-04
4.708857E+03	2.080127E-02	1.551801E-04
4.718813E+03	1.986306E-02	1.473790E-04
4.728768E+03	1.897757E-02	1.400815E-04
4.738723E+03	1.814016E-02	1.332398E-04
4.748678E+03	1.734600E-02	1.268065E-04
4.758634E+03	1.659529E-02	1.207721E-04
4.768589E+03	1.588657E-02	1.151162E-04
4.778544E+03	1.523365E-02	1.099291E-04
4.788500E+03	1.465835E-02	1.053583E-04
4.798455E+03	1.417305E-02	1.014817E-04
4.808410E+03	1.378594E-02	9.834697E-05
4.818366E+03	1.350169E-02	9.597680E-05
4.828321E+03	1.331473E-02	9.432153E-05
4.838276E+03	1.321609E-02	9.330877E-05
4.848231E+03	1.319583E-02	9.286070E-05
4.858187E+03	1.324157E-02	9.288354E-05
4.868142E+03	1.333933E-02	9.327384E-05
4.878097E+03	1.347465E-02	9.392624E-05
4.888053E+03	1.363208E-02	9.472976E-05
4.898008E+03	1.379684E-02	9.557939E-05
4.907963E+03	1.395574E-02	9.638262E-05
4.917919E+03	1.409865E-02	9.706890E-05
4.927874E+03	1.421922E-02	9.759457E-05
4.937829E+03	1.431443E-02	9.793948E-05
4.947784E+03	1.438523E-02	9.811058E-05
4.957740E+03	1.443558E-02	9.813562E-05
4.967695E+03	1.447199E-02	9.805904E-05
4.977650E+03	1.450182E-02	9.793077E-05
4.987606E+03	1.453380E-02	9.780922E-05
4.997561E+03	1.457582E-02	9.774659E-05
5.007516E+03	1.463404E-02	9.778259E-05
5.017472E+03	1.471358E-02	9.794965E-05
5.027427E+03	1.481794E-02	9.826880E-05
5.037382E+03	1.494810E-02	9.874405E-05
5.047337E+03	1.510363E-02	9.937008E-05
5.057293E+03	1.528329E-02	1.001362E-04
5.067248E+03	1.548462E-02	1.010241E-04
5.077203E+03	1.570495E-02	1.020139E-04
5.087159E+03	1.594183E-02	1.030879E-04
5.097114E+03	1.619286E-02	1.042288E-04
5.107069E+03	1.645676E-02	1.054268E-04
5.117025E+03	1.673201E-02	1.066707E-04
5.126980E+03	1.701877E-02	1.079606E-04
5.136935E+03	1.731724E-02	1.092963E-04
5.146890E+03	1.762801E-02	1.106805E-04
5.156846E+03	1.795188E-02	1.121172E-04
5.166801E+03	1.828923E-02	1.136077E-04
5.176756E+03	1.863985E-02	1.151496E-04
5.186712E+03	1.900228E-02	1.167331E-04
5.196667E+03	1.937435E-02	1.183446E-04
5.206622E+03	1.975145E-02	1.199558E-04
5.216578E+03	2.012815E-02	1.215343E-04
5.226533E+03	2.049734E-02	1.230390E-04
5.236488E+03	2.085093E-02	1.244235E-04
5.246443E+03	2.118026E-02	1.256401E-04
5.256399E+03	2.147702E-02	1.266439E-04
5.266354E+03	2.173284E-02	1.273915E-04
5.276309E+03	2.194170E-02	1.278542E-04
5.286265E+03	2.209836E-02	1.280091E-04
5.296220E+03	2.219917E-02	1.278428E-04
5.306175E+03	2.224247E-02	1.273541E-04
5.316131E+03	2.222804E-02	1.265498E-04
5.326086E+03	2.215619E-02	1.254398E-04
5.336041E+03	2.202997E-02	1.240490E-04
5.345996E+03	2.185193E-02	1.223990E-04
5.355952E+03	2.162589E-02	1.205176E-04
5.365907E+03	2.135721E-02	1.184403E-04
5.375862E+03	2.105155E-02	1.162035E-04
5.385818E+03	2.071448E-02	1.138416E-04
5.395773E+03	2.035397E-02	1.114016E-04
5.405728E+03	1.997844E-02	1.089314E-04
5.415684E+03	1.959667E-02	1.064800E-04
5.425639E+03	1.922218E-02	1.041208E-04
5.435594E+03	1.886882E-02	1.019282E-04
5.445549E+03	1.855184E-02	9.998229E-05
5.455505E+03	1.828888E-02	9.837271E-05
5.465460E+03	1.809052E-02	9.715062E-05
5.475415E+03	1.795508E-02	9.630161E-05
5.485371E+03	1.786821E-02	9.574426E-05
5.495326E+03	1.780678E-02	9.535103E-05
5.505281E+03	1.774474E-02	9.497923E-05
5.515237E+03	1.766146E-02	9.451568E-05
5.525192E+03	1.754118E-02	9.387319E-05
5.535147E+03	1.737366E-02	9.299412E-05
5.545102E+03	1.715318E-02	9.184472E-05
5.555058E+03	1.687915E-02	9.041866E-05
5.565013E+03	1.655520E-02	8.873209E-05
5.574968E+03	1.618985E-02	8.682767E-05
5.584924E+03	1.579344E-02	8.475793E-05
5.594879E+03	1.537812E-02	8.258561E-05
5.604834E+03	1.495829E-02	8.038584E-05
5.614790E+03	1.454789E-02	7.823178E-05
5.624745E+03	1.415986E-02	7.619176E-05
5.634700E+03	1.380631E-02	7.433002E-05
5.644655E+03	1.349808E-02	7.270414E-05
5.654611E+03	1.324393E-02	7.136078E-05
5.664566E+03	1.305016E-02	7.033349E-05
5.674521E+03	1.292158E-02	6.964764E-05
5.684477E+03	1.286143E-02	6.931998E-05
5.694432E+03	1.287055E-02	6.935426E-05
5.704387E+03	1.294797E-02	6.974398E-05
5.714343E+03	1.309200E-02	7.047863E-05
5.724298E+03	1.329850E-02	7.153400E-05
5.734253E+03	1.356157E-02	7.287629E-05
5.744209E+03	1.387419E-02	7.446528E-05
5.754164E+03	1.422758E-02	7.625134E-05
5.764119E+03	1.461097E-02	7.817405E-05
5.774074E+03	1.501216E-02	8.016554E-05
5.784030E+03	1.541804E-02	8.215354E-05
5.793985E+03	1.581395E-02	8.405810E-05
5.803940E+03	1.618574E-02	8.580282E-05
5.813896E+03	1.652039E-02	8.731836E-05
5.823851E+03	1.680657E-02	8.854552E-05
5.833806E+03	1.703563E-02	8.944025E-05
5.843762E+03	1.720190E-02	8.997552E-05
5.853717E+03	1.730378E-02	9.014627E-05
5.863672E+03	1.734199E-02	8.996046E-05
5.873627E+03	1.732025E-02	8.944199E-05
5.883583E+03	1.724441E-02	8.862595E-05
5.893538E+03	1.712163E-02	8.755403E-05
5.903493E+03	1.695968E-02	8.627087E-05
5.913449E+03	1.676603E-02	8.481890E-05
5.923404E+03	1.654822E-02	8.324061E-05
5.933359E+03	1.631295E-02	8.157344E-05
5.943315E+03	1.606601E-02	7.984980E-05
5.953270E+03	1.581203E-02	7.809573E-05
5.963225E+03	1.555498E-02	7.633351E-05
5.973180E+03	1.529710E-02	7.457655E-05
5.983136E+03	1.504089E-02	7.283925E-05
5.993091E+03	1.478640E-02	7.112394E-05
6.003046E+03	1.453345E-02	6.943176E-05
6.013002E+03	1.428122E-02	6.776086E-05
6.022957E+03	1.402720E-02	6.610155E-05
6.032912E+03	1.376873E-02	6.444373E-05
6.042868E+03	1.350316E-02	6.277755E-05
6.052823E+03	1.322906E-02	6.109902E-05
6.062778E+03	1.294539E-02	5.940612E-05
6.072733E+03	1.265394E-02	5.770954E-05
6.082689E+03	1.235870E-02	5.602957E-05
6.092644E+03	1.206576E-02	5.439540E-05
6.102599E+03	1.178333E-02	5.284480E-05
6.112555E+03	1.152174E-02	5.142420E-05
6.122510E+03	1.129162E-02	5.018048E-05
6.132465E+03	1.110281E-02	4.915630E-05
6.142421E+03	1.096312E-02	4.838515E-05
6.152376E+03	1.087796E-02	4.789008E-05
6.162331E+03	1.084887E-02	4.767730E-05
6.172286E+03	1.086715E-02	4.770731E-05
6.182242E+03	1.092067E-02	4.792634E-05
6.192197E+03	1.099219E-02	4.825877E-05
6.202152E+03	1.104985E-02	4.856512E-05
6.212108E+03	1.107162E-02	4.874842E-05
6.222063E+03	1.105692E-02	4.880506E-05
6.232018E+03	1.101280E-02	4.876457E-05
6.241974E+03	1.095779E-02	4.870715E-05
6.251929E+03	1.091420E-02	4.873101E-05
6.261884E+03	1.089549E-02	4.889632E-05
6.271839E+03	1.090915E-02	4.923799E-05
6.281795E+03	1.095844E-02	4.977282E-05
6.291750E+03	1.104095E-02	5.049283E-05
6.301705E+03	1.115068E-02	5.137362E-05
6.311661E+03	1.128009E-02	5.238325E-05
6.321616E+03	1.141988E-02	5.348091E-05
6.331571E+03	1.156029E-02	5.462215E-05
6.341527E+03	1.169251E-02	5.576563E-05
6.351482E+03	1.180723E-02	5.686581E-05
6.361437E+03	1.189712E-02	5.788469E-05
6.371392E+03	1.195748E-02	5.879438E-05
6.381348E+03	1.198549E-02	5.957437E-05
6.391303E+03	1.198098E-02	6.021633E-05
6.401258E+03	1.194711E-02	6.072860E-05
6.411214E+03	1.188731E-02	6.112142E-05
6.421169E+03	1.180696E-02	6.141568E-05
6.431124E+03	1.171298E-02	6.164169E-05
6.441080E+03	1.161178E-02	6.182880E-05
6.451035E+03	1.151020E-02	6.201022E-05
6.460990E+03	1.141422E-02	6.221643E-05
6.470945E+03	1.132880E-02	6.247381E-05
6.480901E+03	1.125782E-02	6.280430E-05
6.490856E+03	1.120445E-02	6.322691E-05
6.500811E+03	1.117099E-02	6.375647E-05
6.510767E+03	1.115858E-02	6.440207E-05
6.520722E+03	1.116746E-02	6.516769E-05
6.530677E+03	1.119657E-02	6.604986E-05
6.540633E+03	1.124453E-02	6.704287E-05
6.550588E+03	1.130912E-02	6.813560E-05
6.560543E+03	1.138704E-02	6.930989E-05
6.570498E+03	1.147479E-02	7.054535E-05
6.580454E+03	1.156844E-02	7.181810E-05
6.590409E+03	1.166312E-02	7.309751E-05
6.600364E+03	1.175438E-02	7.435431E-05
6.610320E+03	1.183761E-02	7.555726E-05
6.620275E+03	1.190872E-02	7.667753E-05
6.630230E+03	1.196344E-02	7.768423E-05
6.640186E+03	1.199869E-02	7.855354E-05
6.650141E+03	1.201208E-02	7.926566E-05
6.660096E+03	1.200204E-02	7.980598E-05
6.670051E+03	1.196783E-02	8.016538E-05
6.680007E+03	1.190945E-02	8.033990E-05
6.689962E+03	1.182813E-02	8.033413E-05
6.699917E+03	1.172555E-02	8.015619E-05
6.709873E+03	1.160403E-02	7.981934E-05
6.719828E+03	1.146592E-02	7.933747E-05
6.729783E+03	1.131483E-02	7.873408E-05
6.739739E+03	1.115339E-02	7.802647E-05
6.749694E+03	1.098526E-02	7.723964E-05
6.759649E+03	1.081338E-02	7.639436E-05
6.769604E+03	1.064089E-02	7.551312E-05
6.779560E+03	1.047069E-02	7.461742E-05
6.789515E+03	1.030554E-02	7.372780E-05
6.799470E+03	1.014818E-02	7.286524E-05
6.809426E+03	1.000090E-02	7.204748E-05
6.819381E+03	9.866134E-03	7.129363E-05
6.829336E+03	9.745227E-03	7.061494E-05
6.839292E+03	9.639986E-03	7.002599E-05
6.849247E+03	9.551425E-03	6.953554E-05
6.859202E+03	9.480327E-03	6.915060E-05
6.869157E+03	9.426997E-03	6.887451E-05
6.879113E+03	9.391931E-03	6.871185E-05
6.889068E+03	9.374150E-03	6.865620E-05
6.899023E+03	9.373392E-03	6.870620E-05
6.908979E+03	9.388179E-03	6.885134E-05
6.918934E+03	9.416935E-03	6.908022E-05
6.928889E+03	9.458002E-03	6.938067E-05
6.938845E+03	9.509154E-03	6.973620E-05
6.948800E+03	9.567963E-03	7.012878E-05
6.958755E+03	9.631856E-03	7.053926E-05
6.968710E+03	9.698160E-03	7.094778E-05
6.978666E+03	9.764014E-03	7.133318E-05
6.988621E+03	9.826410E-03	7.167336E-05
6.998576E+03	9.883038E-03	7.195150E-05
7.008532E+03	9.930669E-03	7.214431E-05
7.018487E+03	9.967542E-03	7.223946E-05
7.028442E+03	9.991076E-03	7.221894E-05
7.038398E+03	9.999931E-03	7.207408E-05
7.048353E+03	9.992652E-03	7.179563E-05
7.058308E+03	9.968597E-03	7.138051E-05
7.068263E+03	9.927970E-03	7.083191E-05
7.078219E+03	9.870980E-03	7.015323E-05
7.088174E+03	9.799109E-03	6.935705E-05
7.098129E+03	9.714341E-03	6.845944E-05
7.108085E+03	9.619466E-03	6.748204E-05
7.118040E+03	9.517253E-03	6.644609E-05
7.127995E+03	9.410599E-03	6.537343E-05
7.137951E+03	9.302666E-03	6.428735E-05
7.147906E+03	9.195671E-03	6.320425E-05
7.157861E+03	9.092122E-03	6.214217E-05
7.167817E+03	8.993542E-03	6.111205E-05
7.177772E+03	8.901012E-03	6.012157E-05
7.187727E+03	8.815246E-03	5.917577E-05
7.197682E+03	8.736394E-03	5.827577E-05
7.207638E+03	8.664167E-03	5.741969E-05
7.217593E+03	8.598089E-03	5.660449E-05
7.227548E+03	8.537460E-03	5.582570E-05
7.237504E+03	8.481504E-03	5.507851E-05
7.247459E+03	8.429579E-03	5.435908E-05
7.257414E+03	8.380637E-03	5.366109E-05
7.267370E+03	8.334299E-03	5.298269E-05
7.277325E+03	8.289887E-03	5.232021E-05
7.287280E+03	8.246765E-03	5.167039E-05
7.297235E+03	8.204662E-03	5.103236E-05
7.307191E+03	8.162830E-03	5.040239E-05
7.317146E+03	8.120971E-03	4.977962E-05
7.327101E+03	8.078847E-03	4.916367E-05
7.337057E+03	8.035840E-03	4.855185E-05
7.347012E+03	7.991769E-03	4.794424E-05
7.356967E+03	7.945880E-03	4.733754E-05
7.366923E+03	7.898119E-03	4.673267E-05
7.376878E+03	7.847844E-03	4.612711E-05
7.386833E+03	7.795006E-03	4.552186E-05
7.396788E+03	7.739145E-03	4.491550E-05
7.406744E+03	7.680074E-03	4.430818E-05
7.416699E+03	7.617953E-03	4.370202E-05
7.426654E+03	7.552625E-03	4.309722E-05
7.436610E+03	7.484736E-03	4.249847E-05
7.446565E+03	7.414299E-03	4.190660E-05
7.456520E+03	7.342168E-03	4.132626E-05
7.466476E+03	7.268843E-03	4.075940E-05
7.476431E+03	7.195547E-03	4.021201E-05
7.486386E+03	7.123147E-03	3.968795E-05
7.496341E+03	7.052729E-03	3.919228E-05
7.506297E+03	6.985475E-03	3.873055E-05
7.516252E+03	6.922310E-03	3.830687E-05
7.526207E+03	6.864318E-03	3.792628E-05
7.536163E+03	6.811652E-03	3.758871E-05
7.546118E+03	6.764299E-03	3.729323E-05
7.556073E+03	6.721935E-03	3.703731E-05
7.566029E+03	6.683749E-03	3.681582E-05
7.575984E+03	6.649022E-03	3.662420E-05
7.585939E+03	6.616817E-03	3.645676E-05
7.595894E+03	6.586846E-03	3.631146E-05
7.605850E+03	6.558288E-03	3.618335E-05
7.615805E+03	6.531038E-03	3.607146E-05
7.625760E+03	6.504520E-03	3.597230E-05
7.635716E+03	6.478834E-03	3.588611E-05
7.645671E+03	6.453608E-03	3.581059E-05
7.655626E+03	6.429169E-03	3.574733E-05
7.665582E+03	6.405602E-03	3.569663E-05
7.675537E+03	6.383223E-03	3.566015E-05
7.685492E+03	6.362415E-03	3.563997E-05
7.695447E+03	6.343666E-03	3.563883E-05
7.705403E+03	6.327417E-03	3.565929E-05
7.715358E+03	6.313858E-03	3.570259E-05
7.725313E+03	6.303528E-03	3.577198E-05
