#wls	flux	fluxerr
1.592848E+03	7.332028E-04	6.710596E-05
1.632669E+03	7.495367E-04	6.838693E-05
1.672491E+03	7.665928E-04	6.971890E-05
1.712312E+03	7.843539E-04	7.109919E-05
1.752133E+03	8.029048E-04	7.253435E-05
1.791954E+03	8.223258E-04	7.403036E-05
1.831775E+03	8.425869E-04	7.558315E-05
1.871597E+03	8.638650E-04	7.720715E-05
1.911418E+03	8.861159E-04	7.889679E-05
1.951239E+03	9.095032E-04	8.066494E-05
1.991060E+03	9.341828E-04	8.252351E-05
2.030881E+03	9.603001E-04	8.448317E-05
2.070703E+03	9.878730E-04	8.654315E-05
2.110524E+03	1.017239E-03	8.873040E-05
2.150345E+03	1.048374E-03	9.103994E-05
2.190166E+03	1.081794E-03	9.351332E-05
2.229987E+03	1.117415E-03	9.613949E-05
2.269809E+03	1.155562E-03	9.894262E-05
2.309630E+03	1.196172E-03	1.019128E-04
2.349451E+03	1.239346E-03	1.050543E-04
2.389272E+03	1.284665E-03	1.083270E-04
2.429093E+03	1.331972E-03	1.117134E-04
2.468915E+03	1.380691E-03	1.151613E-04
2.508736E+03	1.430273E-03	1.186214E-04
2.548557E+03	1.480298E-03	1.220563E-04
2.588378E+03	1.529922E-03	1.253945E-04
2.628199E+03	1.578534E-03	1.285850E-04
2.668021E+03	1.625217E-03	1.315535E-04
2.707842E+03	1.669183E-03	1.342379E-04
2.747663E+03	1.709271E-03	1.365481E-04
2.787484E+03	1.744580E-03	1.384174E-04
2.827305E+03	1.774180E-03	1.397790E-04
2.867127E+03	1.797063E-03	1.405625E-04
2.906948E+03	1.812368E-03	1.407116E-04
2.946769E+03	1.819813E-03	1.402171E-04
2.986590E+03	1.819405E-03	1.390928E-04
2.996546E+03	1.818093E-03	1.387163E-04
3.006501E+03	1.816345E-03	1.383058E-04
3.016456E+03	1.814148E-03	1.378603E-04
3.026411E+03	1.811490E-03	1.373793E-04
3.036367E+03	1.808361E-03	1.368622E-04
3.046322E+03	1.804820E-03	1.363137E-04
3.056277E+03	1.800857E-03	1.357331E-04
3.066233E+03	1.796527E-03	1.351250E-04
3.076188E+03	1.791756E-03	1.344838E-04
3.086143E+03	1.786602E-03	1.338141E-04
3.096099E+03	1.781120E-03	1.331204E-04
3.106054E+03	1.775241E-03	1.323974E-04
3.116009E+03	1.769019E-03	1.316496E-04
3.125964E+03	1.762512E-03	1.308813E-04
3.135920E+03	1.755653E-03	1.300879E-04
3.145875E+03	1.748557E-03	1.292778E-04
3.155830E+03	1.741218E-03	1.284509E-04
3.165786E+03	1.733579E-03	1.276031E-04
3.175741E+03	1.725748E-03	1.267425E-04
3.185696E+03	1.717726E-03	1.258692E-04
3.195652E+03	1.709512E-03	1.249833E-04
3.205607E+03	1.701109E-03	1.240852E-04
3.215562E+03	1.692621E-03	1.231824E-04
3.225517E+03	1.684050E-03	1.222753E-04
3.235473E+03	1.675353E-03	1.213608E-04
3.245428E+03	1.666631E-03	1.204461E-04
3.255383E+03	1.657890E-03	1.195320E-04
3.265339E+03	1.649140E-03	1.186189E-04
3.275294E+03	1.640391E-03	1.177078E-04
3.285249E+03	1.631743E-03	1.168057E-04
3.295205E+03	1.623163E-03	1.159103E-04
3.305160E+03	1.614709E-03	1.150258E-04
3.315115E+03	1.606398E-03	1.141532E-04
3.325070E+03	1.598287E-03	1.132966E-04
3.335026E+03	1.590358E-03	1.124545E-04
3.344981E+03	1.582672E-03	1.116313E-04
3.354936E+03	1.575219E-03	1.108260E-04
3.364892E+03	1.568099E-03	1.100457E-04
3.374847E+03	1.561308E-03	1.092898E-04
3.384802E+03	1.554878E-03	1.085605E-04
3.394758E+03	1.548815E-03	1.078580E-04
3.404713E+03	1.543193E-03	1.071873E-04
3.414668E+03	1.538025E-03	1.065489E-04
3.424623E+03	1.533327E-03	1.059438E-04
3.434579E+03	1.529155E-03	1.053757E-04
3.444534E+03	1.525565E-03	1.048480E-04
3.454489E+03	1.522530E-03	1.043586E-04
3.464445E+03	1.520119E-03	1.039120E-04
3.474400E+03	1.518374E-03	1.035106E-04
3.484355E+03	1.517317E-03	1.031555E-04
3.494311E+03	1.516999E-03	1.028501E-04
3.504266E+03	1.517428E-03	1.025941E-04
3.514221E+03	1.518692E-03	1.023933E-04
3.524176E+03	1.520805E-03	1.022481E-04
3.534132E+03	1.523838E-03	1.021627E-04
3.544087E+03	1.527839E-03	1.021398E-04
3.554042E+03	1.532832E-03	1.021806E-04
3.563998E+03	1.538895E-03	1.022896E-04
3.573953E+03	1.546080E-03	1.024696E-04
3.583908E+03	1.554419E-03	1.027221E-04
3.593864E+03	1.563991E-03	1.030515E-04
3.603819E+03	1.574850E-03	1.034608E-04
3.613774E+03	1.587071E-03	1.039540E-04
3.623729E+03	1.600752E-03	1.045369E-04
3.633685E+03	1.615966E-03	1.052131E-04
3.643640E+03	1.632781E-03	1.059863E-04
3.653595E+03	1.651308E-03	1.068626E-04
3.663551E+03	1.671635E-03	1.078467E-04
3.673506E+03	1.693819E-03	1.089411E-04
3.683461E+03	1.717939E-03	1.101497E-04
3.693417E+03	1.744066E-03	1.114760E-04
3.703372E+03	1.772290E-03	1.129243E-04
3.713327E+03	1.802648E-03	1.144958E-04
3.723282E+03	1.835190E-03	1.161922E-04
3.733238E+03	1.869980E-03	1.180162E-04
3.743193E+03	1.907047E-03	1.199683E-04
3.753148E+03	1.946383E-03	1.220465E-04
3.763104E+03	1.988010E-03	1.242507E-04
3.773059E+03	2.031909E-03	1.265784E-04
3.783014E+03	2.078067E-03	1.290271E-04
3.792970E+03	2.126371E-03	1.315884E-04
3.802925E+03	2.176783E-03	1.342588E-04
3.812880E+03	2.229190E-03	1.370297E-04
3.822835E+03	2.283422E-03	1.398895E-04
3.832791E+03	2.339355E-03	1.428294E-04
3.842746E+03	2.396759E-03	1.458342E-04
3.852701E+03	2.455364E-03	1.488867E-04
3.862657E+03	2.514982E-03	1.519746E-04
3.872612E+03	2.575254E-03	1.550756E-04
3.882567E+03	2.635904E-03	1.581727E-04
3.892523E+03	2.696516E-03	1.612405E-04
3.902478E+03	2.756764E-03	1.642599E-04
3.912433E+03	2.816219E-03	1.672053E-04
3.922388E+03	2.874529E-03	1.700564E-04
3.932344E+03	2.931215E-03	1.727857E-04
3.942299E+03	2.985890E-03	1.753714E-04
3.952254E+03	3.038180E-03	1.777929E-04
3.962210E+03	3.087695E-03	1.800288E-04
3.972165E+03	3.134039E-03	1.820581E-04
3.982120E+03	3.176916E-03	1.838655E-04
3.992076E+03	3.216073E-03	1.854387E-04
4.002031E+03	3.251242E-03	1.867647E-04
4.011986E+03	3.282247E-03	1.878359E-04
4.021941E+03	3.309008E-03	1.886506E-04
4.031897E+03	3.331486E-03	1.892092E-04
4.041852E+03	3.349717E-03	1.895166E-04
4.051807E+03	3.363811E-03	1.895819E-04
4.061763E+03	3.373989E-03	1.894200E-04
4.071718E+03	3.380474E-03	1.890462E-04
4.081673E+03	3.383589E-03	1.884808E-04
4.091629E+03	3.383743E-03	1.877487E-04
4.101584E+03	3.381317E-03	1.868731E-04
4.111539E+03	3.376789E-03	1.858820E-04
4.121494E+03	3.370585E-03	1.848002E-04
4.131450E+03	3.363196E-03	1.836555E-04
4.141405E+03	3.355038E-03	1.824716E-04
4.151360E+03	3.346541E-03	1.812722E-04
4.161316E+03	3.338107E-03	1.800793E-04
4.171271E+03	3.330106E-03	1.789128E-04
4.181226E+03	3.322869E-03	1.777903E-04
4.191182E+03	3.316632E-03	1.767236E-04
4.201137E+03	3.311682E-03	1.757276E-04
4.211092E+03	3.308178E-03	1.748098E-04
4.221047E+03	3.306305E-03	1.739791E-04
4.231003E+03	3.306185E-03	1.732408E-04
4.240958E+03	3.307942E-03	1.726002E-04
4.250913E+03	3.311584E-03	1.720567E-04
4.260869E+03	3.317159E-03	1.716114E-04
4.270824E+03	3.324704E-03	1.712651E-04
4.280779E+03	3.334242E-03	1.710177E-04
4.290735E+03	3.345700E-03	1.708642E-04
4.300690E+03	3.359132E-03	1.708061E-04
4.310645E+03	3.374499E-03	1.708403E-04
4.320601E+03	3.391836E-03	1.709673E-04
4.330556E+03	3.411129E-03	1.711850E-04
4.340511E+03	3.432443E-03	1.714956E-04
4.350466E+03	3.455898E-03	1.719037E-04
4.360422E+03	3.481712E-03	1.724189E-04
4.370377E+03	3.510085E-03	1.730495E-04
4.380332E+03	3.541440E-03	1.738146E-04
4.390288E+03	3.576132E-03	1.747297E-04
4.400243E+03	3.614609E-03	1.758146E-04
4.410198E+03	3.657331E-03	1.770890E-04
4.420154E+03	3.704738E-03	1.785716E-04
4.430109E+03	3.757138E-03	1.802741E-04
4.440064E+03	3.814916E-03	1.822118E-04
4.450019E+03	3.878316E-03	1.843930E-04
4.459975E+03	3.947415E-03	1.868176E-04
4.469930E+03	4.022290E-03	1.894858E-04
4.479885E+03	4.102819E-03	1.923883E-04
4.489841E+03	4.188687E-03	1.955068E-04
4.499796E+03	4.279499E-03	1.988198E-04
4.509751E+03	4.374635E-03	2.022954E-04
4.519707E+03	4.473264E-03	2.058930E-04
4.529662E+03	4.574382E-03	2.095645E-04
4.539617E+03	4.676774E-03	2.132533E-04
4.549572E+03	4.779097E-03	2.168976E-04
4.559528E+03	4.879762E-03	2.204262E-04
4.569483E+03	4.977215E-03	2.237704E-04
4.579438E+03	5.069658E-03	2.268522E-04
4.589394E+03	5.155521E-03	2.296052E-04
4.599349E+03	5.232996E-03	2.319536E-04
4.609304E+03	5.300694E-03	2.338418E-04
4.619260E+03	5.357141E-03	2.352114E-04
4.629215E+03	5.401300E-03	2.360245E-04
4.639170E+03	5.432223E-03	2.362477E-04
4.649125E+03	5.449476E-03	2.358707E-04
4.659081E+03	5.452893E-03	2.348951E-04
4.669036E+03	5.442624E-03	2.333359E-04
4.678991E+03	5.419256E-03	2.312268E-04
4.688947E+03	5.383704E-03	2.286146E-04
4.698902E+03	5.337163E-03	2.255575E-04
4.708857E+03	5.281246E-03	2.221298E-04
4.718813E+03	5.217652E-03	2.184085E-04
4.728768E+03	5.148456E-03	2.144844E-04
4.738723E+03	5.075633E-03	2.104428E-04
4.748678E+03	5.001385E-03	2.063766E-04
4.758634E+03	4.927801E-03	2.023724E-04
4.768589E+03	4.856796E-03	1.985079E-04
4.778544E+03	4.790164E-03	1.948545E-04
4.788500E+03	4.729464E-03	1.914726E-04
4.798455E+03	4.676092E-03	1.884151E-04
4.808410E+03	4.631146E-03	1.857215E-04
4.818366E+03	4.595602E-03	1.834261E-04
4.828321E+03	4.570159E-03	1.815513E-04
4.838276E+03	4.555382E-03	1.801138E-04
4.848231E+03	4.551432E-03	1.791137E-04
4.858187E+03	4.558437E-03	1.785499E-04
4.868142E+03	4.576057E-03	1.784031E-04
4.878097E+03	4.603870E-03	1.786510E-04
4.888053E+03	4.641055E-03	1.792564E-04
4.898008E+03	4.686647E-03	1.801770E-04
4.907963E+03	4.739225E-03	1.813540E-04
4.917919E+03	4.797317E-03	1.827276E-04
4.927874E+03	4.858941E-03	1.842199E-04
4.937829E+03	4.922173E-03	1.857564E-04
4.947784E+03	4.984772E-03	1.872523E-04
4.957740E+03	5.044545E-03	1.886260E-04
4.967695E+03	5.099226E-03	1.897944E-04
4.977650E+03	5.146956E-03	1.906916E-04
4.987606E+03	5.186109E-03	1.912612E-04
4.997561E+03	5.215456E-03	1.914623E-04
5.007516E+03	5.234404E-03	1.912782E-04
5.017472E+03	5.242816E-03	1.907092E-04
5.027427E+03	5.241211E-03	1.897791E-04
5.037382E+03	5.230543E-03	1.885274E-04
5.047337E+03	5.212167E-03	1.870069E-04
5.057293E+03	5.187674E-03	1.852782E-04
5.067248E+03	5.158918E-03	1.834099E-04
5.077203E+03	5.127752E-03	1.814697E-04
5.087159E+03	5.095943E-03	1.795208E-04
5.097114E+03	5.065257E-03	1.776252E-04
5.107069E+03	5.037140E-03	1.758327E-04
5.117025E+03	5.013118E-03	1.741951E-04
5.126980E+03	4.994216E-03	1.727455E-04
5.136935E+03	4.981528E-03	1.715193E-04
5.146890E+03	4.975816E-03	1.705394E-04
5.156846E+03	4.977673E-03	1.698227E-04
5.166801E+03	4.987683E-03	1.693854E-04
5.176756E+03	5.006071E-03	1.692313E-04
5.186712E+03	5.033011E-03	1.693623E-04
5.196667E+03	5.068558E-03	1.697763E-04
5.206622E+03	5.112498E-03	1.704621E-04
5.216578E+03	5.164478E-03	1.714042E-04
5.226533E+03	5.223958E-03	1.725812E-04
5.236488E+03	5.290199E-03	1.739653E-04
5.246443E+03	5.362211E-03	1.755212E-04
5.256399E+03	5.438917E-03	1.772112E-04
5.266354E+03	5.518961E-03	1.789894E-04
5.276309E+03	5.600904E-03	1.808079E-04
5.286265E+03	5.683163E-03	1.826150E-04
5.296220E+03	5.764205E-03	1.843619E-04
5.306175E+03	5.842475E-03	1.859996E-04
5.316131E+03	5.916386E-03	1.874792E-04
5.326086E+03	5.984672E-03	1.887628E-04
5.336041E+03	6.046225E-03	1.898184E-04
5.345996E+03	6.100146E-03	1.906208E-04
5.355952E+03	6.145946E-03	1.911583E-04
5.365907E+03	6.183262E-03	1.914234E-04
5.375862E+03	6.212206E-03	1.914233E-04
5.385818E+03	6.233043E-03	1.911699E-04
5.395773E+03	6.246354E-03	1.906844E-04
5.405728E+03	6.252687E-03	1.899869E-04
5.415684E+03	6.252888E-03	1.891060E-04
5.425639E+03	6.247519E-03	1.880613E-04
5.435594E+03	6.237187E-03	1.868733E-04
5.445549E+03	6.222157E-03	1.855523E-04
5.455505E+03	6.202451E-03	1.841009E-04
5.465460E+03	6.177661E-03	1.825090E-04
5.475415E+03	6.146973E-03	1.807549E-04
5.485371E+03	6.109110E-03	1.788036E-04
5.495326E+03	6.062345E-03	1.766080E-04
5.505281E+03	6.005144E-03	1.741269E-04
5.515237E+03	5.936098E-03	1.713238E-04
5.525192E+03	5.854196E-03	1.681740E-04
5.535147E+03	5.758978E-03	1.646693E-04
5.545102E+03	5.650721E-03	1.608227E-04
5.555058E+03	5.530332E-03	1.566646E-04
5.565013E+03	5.399435E-03	1.522454E-04
5.574968E+03	5.260530E-03	1.476391E-04
5.584924E+03	5.116314E-03	1.429237E-04
5.594879E+03	4.970171E-03	1.381951E-04
5.604834E+03	4.825407E-03	1.335454E-04
5.614790E+03	4.685473E-03	1.290686E-04
5.624745E+03	4.553739E-03	1.248551E-04
5.634700E+03	4.433303E-03	1.209860E-04
5.644655E+03	4.326964E-03	1.175327E-04
5.654611E+03	4.237184E-03	1.145564E-04
5.664566E+03	4.166098E-03	1.121078E-04
5.674521E+03	4.115535E-03	1.102290E-04
5.684477E+03	4.087051E-03	1.089534E-04
5.694432E+03	4.081966E-03	1.083078E-04
5.704387E+03	4.101461E-03	1.083146E-04
5.714343E+03	4.146496E-03	1.089899E-04
5.724298E+03	4.217816E-03	1.103438E-04
5.734253E+03	4.316019E-03	1.123822E-04
5.744209E+03	4.441549E-03	1.151070E-04
5.754164E+03	4.594339E-03	1.185066E-04
5.764119E+03	4.774093E-03	1.225638E-04
5.774074E+03	4.979791E-03	1.272432E-04
5.784030E+03	5.209971E-03	1.324985E-04
5.793985E+03	5.462278E-03	1.382619E-04
5.803940E+03	5.733651E-03	1.444489E-04
5.813896E+03	6.020138E-03	1.509543E-04
5.823851E+03	6.316875E-03	1.576520E-04
5.833806E+03	6.618369E-03	1.644030E-04
5.843762E+03	6.918533E-03	1.710558E-04
5.853717E+03	7.210635E-03	1.774463E-04
5.863672E+03	7.488202E-03	1.834196E-04
5.873627E+03	7.744552E-03	1.888189E-04
5.883583E+03	7.973685E-03	1.935069E-04
5.893538E+03	8.170640E-03	1.973738E-04
5.903493E+03	8.331346E-03	2.003336E-04
5.913449E+03	8.453181E-03	2.023365E-04
5.923404E+03	8.535087E-03	2.033710E-04
5.933359E+03	8.577289E-03	2.034561E-04
5.943315E+03	8.581568E-03	2.026474E-04
5.953270E+03	8.550892E-03	2.010272E-04
5.963225E+03	8.488840E-03	1.986907E-04
5.973180E+03	8.400026E-03	1.957556E-04
5.983136E+03	8.289108E-03	1.923383E-04
5.993091E+03	8.161122E-03	1.885618E-04
6.003046E+03	8.020462E-03	1.845324E-04
6.013002E+03	7.871782E-03	1.803603E-04
6.022957E+03	7.718896E-03	1.761346E-04
6.032912E+03	7.565186E-03	1.719332E-04
6.042868E+03	7.413478E-03	1.678201E-04
6.052823E+03	7.266041E-03	1.638455E-04
6.062778E+03	7.124692E-03	1.600489E-04
6.072733E+03	6.990688E-03	1.564566E-04
6.082689E+03	6.864933E-03	1.530866E-04
6.092644E+03	6.747792E-03	1.499448E-04
6.102599E+03	6.639588E-03	1.470360E-04
6.112555E+03	6.540364E-03	1.443591E-04
6.122510E+03	6.449889E-03	1.419067E-04
6.132465E+03	6.368016E-03	1.396737E-04
6.142421E+03	6.294391E-03	1.376505E-04
6.152376E+03	6.228109E-03	1.358157E-04
6.162331E+03	6.168389E-03	1.341511E-04
6.172286E+03	6.114286E-03	1.326349E-04
6.182242E+03	6.064953E-03	1.312481E-04
6.192197E+03	6.019605E-03	1.299729E-04
6.202152E+03	5.977749E-03	1.287984E-04
6.212108E+03	5.938751E-03	1.277105E-04
6.222063E+03	5.902241E-03	1.267009E-04
6.232018E+03	5.867746E-03	1.257586E-04
6.241974E+03	5.835041E-03	1.248782E-04
6.251929E+03	5.803885E-03	1.240539E-04
6.261884E+03	5.774226E-03	1.232839E-04
6.271839E+03	5.746133E-03	1.225692E-04
6.281795E+03	5.719832E-03	1.219140E-04
6.291750E+03	5.695552E-03	1.213228E-04
6.301705E+03	5.673477E-03	1.207989E-04
6.311661E+03	5.653955E-03	1.203494E-04
6.321616E+03	5.637268E-03	1.199797E-04
6.331571E+03	5.623645E-03	1.196944E-04
6.341527E+03	5.613286E-03	1.194975E-04
6.351482E+03	5.606389E-03	1.193929E-04
6.361437E+03	5.602939E-03	1.193803E-04
6.371392E+03	5.602927E-03	1.194591E-04
6.381348E+03	5.606262E-03	1.196276E-04
6.391303E+03	5.612863E-03	1.198839E-04
6.401258E+03	5.622372E-03	1.202206E-04
6.411214E+03	5.634620E-03	1.206340E-04
6.421169E+03	5.649330E-03	1.211184E-04
6.431124E+03	5.666227E-03	1.216680E-04
6.441080E+03	5.684882E-03	1.222738E-04
6.451035E+03	5.705202E-03	1.229340E-04
6.460990E+03	5.726817E-03	1.236401E-04
6.470945E+03	5.749559E-03	1.243882E-04
6.480901E+03	5.773414E-03	1.251775E-04
6.490856E+03	5.798200E-03	1.260036E-04
6.500811E+03	5.824120E-03	1.268705E-04
6.510767E+03	5.851639E-03	1.277878E-04
6.520722E+03	5.881459E-03	1.287705E-04
6.530677E+03	5.914627E-03	1.298415E-04
6.540633E+03	5.951673E-03	1.310124E-04
6.550588E+03	5.993182E-03	1.322962E-04
6.560543E+03	6.039023E-03	1.336902E-04
6.570498E+03	6.088882E-03	1.351878E-04
6.580454E+03	6.141946E-03	1.367711E-04
6.590409E+03	6.196985E-03	1.384127E-04
6.600364E+03	6.252439E-03	1.400774E-04
6.610320E+03	6.306372E-03	1.417212E-04
6.620275E+03	6.356885E-03	1.433005E-04
6.630230E+03	6.402011E-03	1.447694E-04
6.640186E+03	6.439549E-03	1.460762E-04
6.650141E+03	6.467748E-03	1.471789E-04
6.660096E+03	6.485009E-03	1.480382E-04
6.670051E+03	6.490074E-03	1.486223E-04
6.680007E+03	6.482178E-03	1.489105E-04
6.689962E+03	6.460688E-03	1.488845E-04
6.699917E+03	6.425824E-03	1.485460E-04
6.709873E+03	6.377945E-03	1.478998E-04
6.719828E+03	6.318022E-03	1.469651E-04
6.729783E+03	6.247190E-03	1.457652E-04
6.739739E+03	6.167008E-03	1.443339E-04
6.749694E+03	6.079376E-03	1.427133E-04
6.759649E+03	5.986266E-03	1.409480E-04
6.769604E+03	5.889676E-03	1.390836E-04
6.779560E+03	5.791832E-03	1.371719E-04
6.789515E+03	5.694766E-03	1.352608E-04
6.799470E+03	5.600709E-03	1.334034E-04
6.809426E+03	5.511413E-03	1.316420E-04
6.819381E+03	5.428755E-03	1.300223E-04
6.829336E+03	5.354245E-03	1.285819E-04
6.839292E+03	5.289461E-03	1.273603E-04
6.849247E+03	5.235490E-03	1.263854E-04
6.859202E+03	5.193210E-03	1.256805E-04
6.869157E+03	5.163497E-03	1.252688E-04
6.879113E+03	5.146647E-03	1.251595E-04
6.889068E+03	5.143035E-03	1.253640E-04
6.899023E+03	5.152411E-03	1.258781E-04
6.908979E+03	5.174595E-03	1.266993E-04
6.918934E+03	5.208834E-03	1.278110E-04
6.928889E+03	5.254072E-03	1.291886E-04
6.938845E+03	5.309278E-03	1.308082E-04
6.948800E+03	5.372576E-03	1.326243E-04
6.958755E+03	5.442161E-03	1.345931E-04
6.968710E+03	5.515985E-03	1.366641E-04
6.978666E+03	5.591538E-03	1.387752E-04
6.988621E+03	5.666610E-03	1.408710E-04
6.998576E+03	5.738710E-03	1.428891E-04
7.008532E+03	5.805685E-03	1.447747E-04
7.018487E+03	5.865403E-03	1.464737E-04
7.028442E+03	5.916179E-03	1.479427E-04
7.038398E+03	5.956733E-03	1.491485E-04
7.048353E+03	5.986264E-03	1.500695E-04
7.058308E+03	6.004567E-03	1.506995E-04
7.068263E+03	6.011814E-03	1.510416E-04
7.078219E+03	6.008513E-03	1.511077E-04
7.088174E+03	5.995644E-03	1.509217E-04
7.098129E+03	5.974485E-03	1.505150E-04
7.108085E+03	5.946722E-03	1.499299E-04
7.118040E+03	5.913568E-03	1.491967E-04
7.127995E+03	5.876794E-03	1.483601E-04
7.137951E+03	5.837857E-03	1.474568E-04
7.147906E+03	5.798076E-03	1.465205E-04
7.157861E+03	5.758460E-03	1.455768E-04
7.167817E+03	5.720015E-03	1.446514E-04
7.177772E+03	5.683406E-03	1.437616E-04
7.187727E+03	5.649057E-03	1.429183E-04
7.197682E+03	5.617065E-03	1.421243E-04
7.207638E+03	5.587653E-03	1.413856E-04
7.217593E+03	5.560523E-03	1.406949E-04
7.227548E+03	5.535469E-03	1.400472E-04
7.237504E+03	5.511931E-03	1.394286E-04
7.247459E+03	5.489400E-03	1.388265E-04
7.257414E+03	5.467529E-03	1.382324E-04
7.267370E+03	5.445518E-03	1.376263E-04
7.277325E+03	5.423036E-03	1.370002E-04
7.287280E+03	5.399458E-03	1.363385E-04
7.297235E+03	5.374457E-03	1.356333E-04
7.307191E+03	5.347780E-03	1.348788E-04
7.317146E+03	5.319053E-03	1.340657E-04
7.327101E+03	5.288326E-03	1.331960E-04
7.337057E+03	5.255405E-03	1.322650E-04
7.347012E+03	5.220392E-03	1.312760E-04
7.356967E+03	5.183460E-03	1.302338E-04
7.366923E+03	5.144718E-03	1.291416E-04
7.376878E+03	5.104410E-03	1.280062E-04
7.386833E+03	5.062687E-03	1.268318E-04
7.396788E+03	5.019817E-03	1.256256E-04
7.406744E+03	4.975736E-03	1.243867E-04
7.416699E+03	4.930591E-03	1.231191E-04
7.426654E+03	4.884536E-03	1.218273E-04
7.436610E+03	4.837605E-03	1.205127E-04
7.446565E+03	4.789848E-03	1.191770E-04
7.456520E+03	4.741334E-03	1.178224E-04
7.466476E+03	4.692254E-03	1.164542E-04
7.476431E+03	4.642829E-03	1.150783E-04
7.486386E+03	4.593308E-03	1.137013E-04
7.496341E+03	4.543773E-03	1.123255E-04
7.506297E+03	4.494658E-03	1.109619E-04
7.516252E+03	4.446315E-03	1.096196E-04
7.526207E+03	4.399020E-03	1.083056E-04
7.536163E+03	4.353170E-03	1.070298E-04
7.546118E+03	4.309162E-03	1.058021E-04
7.556073E+03	4.267478E-03	1.046346E-04
7.566029E+03	4.228302E-03	1.035317E-04
7.575984E+03	4.192091E-03	1.025046E-04
7.585939E+03	4.159103E-03	1.015598E-04
7.595894E+03	4.129909E-03	1.007111E-04
7.605850E+03	4.104675E-03	9.996257E-05
7.615805E+03	4.083788E-03	9.932342E-05
7.625760E+03	4.067354E-03	9.879625E-05
7.635716E+03	4.055569E-03	9.838567E-05
7.645671E+03	4.048424E-03	9.809144E-05
7.655626E+03	4.045809E-03	9.791081E-05
7.665582E+03	4.047392E-03	9.783578E-05
7.675537E+03	4.052922E-03	9.786037E-05
7.685492E+03	4.061966E-03	9.797421E-05
7.695447E+03	4.073985E-03	9.816453E-05
7.705403E+03	4.088375E-03	9.841707E-05
7.715358E+03	4.104380E-03	9.871397E-05
7.725313E+03	4.121498E-03	9.904361E-05
