#wls	flux	fluxerr
1.592848E+03	7.425232E-04	5.432993E-05
1.632669E+03	7.580294E-04	5.531990E-05
1.672491E+03	7.741407E-04	5.634428E-05
1.712312E+03	7.908360E-04	5.740086E-05
1.752133E+03	8.083091E-04	5.850301E-05
1.791954E+03	8.265326E-04	5.964792E-05
1.831775E+03	8.455842E-04	6.084034E-05
1.871597E+03	8.654226E-04	6.207639E-05
1.911418E+03	8.863368E-04	6.337581E-05
1.951239E+03	9.081575E-04	6.472537E-05
1.991060E+03	9.312726E-04	6.615152E-05
2.030881E+03	9.557179E-04	6.765541E-05
2.070703E+03	9.816294E-04	6.924512E-05
2.110524E+03	1.009124E-03	7.092721E-05
2.150345E+03	1.038297E-03	7.270655E-05
2.190166E+03	1.069565E-03	7.461032E-05
2.229987E+03	1.102964E-03	7.663852E-05
2.269809E+03	1.138369E-03	7.878010E-05
2.309630E+03	1.176192E-03	8.106094E-05
2.349451E+03	1.215970E-03	8.344633E-05
2.389272E+03	1.257757E-03	8.593739E-05
2.429093E+03	1.301074E-03	8.849869E-05
2.468915E+03	1.345481E-03	9.109808E-05
2.508736E+03	1.390573E-03	9.370615E-05
2.548557E+03	1.435637E-03	9.627334E-05
2.588378E+03	1.480210E-03	9.876776E-05
2.628199E+03	1.523523E-03	1.011377E-04
2.668021E+03	1.564627E-03	1.033207E-04
2.707842E+03	1.602930E-03	1.052792E-04
2.747663E+03	1.637269E-03	1.069391E-04
2.787484E+03	1.666956E-03	1.082593E-04
2.827305E+03	1.690998E-03	1.091799E-04
2.867127E+03	1.708444E-03	1.096457E-04
2.906948E+03	1.718598E-03	1.096195E-04
2.946769E+03	1.721113E-03	1.090874E-04
2.986590E+03	1.716123E-03	1.080670E-04
2.996546E+03	1.713792E-03	1.077422E-04
3.006501E+03	1.710970E-03	1.073863E-04
3.016456E+03	1.707723E-03	1.070035E-04
3.026411E+03	1.704043E-03	1.065935E-04
3.036367E+03	1.699994E-03	1.061602E-04
3.046322E+03	1.695565E-03	1.057034E-04
3.056277E+03	1.690681E-03	1.052183E-04
3.066233E+03	1.685474E-03	1.047133E-04
3.076188E+03	1.679869E-03	1.041839E-04
3.086143E+03	1.673927E-03	1.036340E-04
3.096099E+03	1.667644E-03	1.030635E-04
3.106054E+03	1.661080E-03	1.024761E-04
3.116009E+03	1.654166E-03	1.018678E-04
3.125964E+03	1.647026E-03	1.012462E-04
3.135920E+03	1.639534E-03	1.006039E-04
3.145875E+03	1.631869E-03	9.995173E-05
3.155830E+03	1.623969E-03	9.928609E-05
3.165786E+03	1.615835E-03	9.860717E-05
3.175741E+03	1.607525E-03	9.791849E-05
3.185696E+03	1.599094E-03	9.722348E-05
3.195652E+03	1.590489E-03	9.651905E-05
3.205607E+03	1.581768E-03	9.580869E-05
3.215562E+03	1.572933E-03	9.509271E-05
3.225517E+03	1.564091E-03	9.437751E-05
3.235473E+03	1.555196E-03	9.366032E-05
3.245428E+03	1.546254E-03	9.294165E-05
3.255383E+03	1.537369E-03	9.222764E-05
3.265339E+03	1.528501E-03	9.151595E-05
3.275294E+03	1.519705E-03	9.080991E-05
3.285249E+03	1.510993E-03	9.011014E-05
3.295205E+03	1.502419E-03	8.941990E-05
3.305160E+03	1.493997E-03	8.873991E-05
3.315115E+03	1.485780E-03	8.807338E-05
3.325070E+03	1.477745E-03	8.741883E-05
3.335026E+03	1.469989E-03	8.678192E-05
3.344981E+03	1.462491E-03	8.616138E-05
3.354936E+03	1.455312E-03	8.556061E-05
3.364892E+03	1.448473E-03	8.498086E-05
3.374847E+03	1.441966E-03	8.442146E-05
3.384802E+03	1.435890E-03	8.388811E-05
3.394758E+03	1.430207E-03	8.337845E-05
3.404713E+03	1.425018E-03	8.289827E-05
3.414668E+03	1.420297E-03	8.244573E-05
3.424623E+03	1.416115E-03	8.202494E-05
3.434579E+03	1.412455E-03	8.163462E-05
3.444534E+03	1.409396E-03	8.127925E-05
3.454489E+03	1.406962E-03	8.095982E-05
3.464445E+03	1.405149E-03	8.067600E-05
3.474400E+03	1.404021E-03	8.043114E-05
3.484355E+03	1.403584E-03	8.022541E-05
3.494311E+03	1.403856E-03	8.005949E-05
3.504266E+03	1.404911E-03	7.993733E-05
3.514221E+03	1.406745E-03	7.985848E-05
3.524176E+03	1.409441E-03	7.982725E-05
3.534132E+03	1.412980E-03	7.984220E-05
3.544087E+03	1.417473E-03	7.990933E-05
3.554042E+03	1.422907E-03	8.002756E-05
3.563998E+03	1.429350E-03	8.020021E-05
3.573953E+03	1.436844E-03	8.042924E-05
3.583908E+03	1.445407E-03	8.071534E-05
3.593864E+03	1.455063E-03	8.105928E-05
3.603819E+03	1.465904E-03	8.146579E-05
3.613774E+03	1.477999E-03	8.193818E-05
3.623729E+03	1.491438E-03	8.248091E-05
3.633685E+03	1.506307E-03	8.309818E-05
3.643640E+03	1.522692E-03	8.379411E-05
3.653595E+03	1.540675E-03	8.457252E-05
3.663551E+03	1.560335E-03	8.543709E-05
3.673506E+03	1.581771E-03	8.639253E-05
3.683461E+03	1.605055E-03	8.744198E-05
3.693417E+03	1.630233E-03	8.858709E-05
3.703372E+03	1.657389E-03	8.983168E-05
3.713327E+03	1.686580E-03	9.117794E-05
3.723282E+03	1.717831E-03	9.262634E-05
3.733238E+03	1.751230E-03	9.418069E-05
3.743193E+03	1.786760E-03	9.583908E-05
3.753148E+03	1.824460E-03	9.760276E-05
3.763104E+03	1.864335E-03	9.947092E-05
3.773059E+03	1.906347E-03	1.014406E-04
3.783014E+03	1.950513E-03	1.035118E-04
3.792970E+03	1.996732E-03	1.056781E-04
3.802925E+03	2.044980E-03	1.079374E-04
3.812880E+03	2.095108E-03	1.102809E-04
3.822835E+03	2.147014E-03	1.127023E-04
3.832791E+03	2.200547E-03	1.151928E-04
3.842746E+03	2.255550E-03	1.177437E-04
3.852701E+03	2.311757E-03	1.203402E-04
3.862657E+03	2.368981E-03	1.229721E-04
3.872612E+03	2.426896E-03	1.256221E-04
3.882567E+03	2.485259E-03	1.282772E-04
3.892523E+03	2.543749E-03	1.309205E-04
3.902478E+03	2.601959E-03	1.335313E-04
3.912433E+03	2.659618E-03	1.360955E-04
3.922388E+03	2.716287E-03	1.385911E-04
3.932344E+03	2.771582E-03	1.409988E-04
3.942299E+03	2.825181E-03	1.433030E-04
3.952254E+03	2.876641E-03	1.454818E-04
3.962210E+03	2.925624E-03	1.475193E-04
3.972165E+03	2.971818E-03	1.494007E-04
3.982120E+03	3.014835E-03	1.511080E-04
3.992076E+03	3.054456E-03	1.526314E-04
4.002031E+03	3.090438E-03	1.539605E-04
4.011986E+03	3.122522E-03	1.550840E-04
4.021941E+03	3.150674E-03	1.560020E-04
4.031897E+03	3.174757E-03	1.567096E-04
4.041852E+03	3.194772E-03	1.572085E-04
4.051807E+03	3.210859E-03	1.575077E-04
4.061763E+03	3.223100E-03	1.576129E-04
4.071718E+03	3.231748E-03	1.575381E-04
4.081673E+03	3.237087E-03	1.572990E-04
4.091629E+03	3.239460E-03	1.569135E-04
4.101584E+03	3.239249E-03	1.564018E-04
4.111539E+03	3.236870E-03	1.557848E-04
4.121494E+03	3.232722E-03	1.550828E-04
4.131450E+03	3.227274E-03	1.543191E-04
4.141405E+03	3.220919E-03	1.535131E-04
4.151360E+03	3.214102E-03	1.526863E-04
4.161316E+03	3.207144E-03	1.518542E-04
4.171271E+03	3.200436E-03	1.510353E-04
4.181226E+03	3.194300E-03	1.502448E-04
4.191182E+03	3.188963E-03	1.494930E-04
4.201137E+03	3.184682E-03	1.487915E-04
4.211092E+03	3.181676E-03	1.481501E-04
4.221047E+03	3.180074E-03	1.475742E-04
4.231003E+03	3.180034E-03	1.470706E-04
4.240958E+03	3.181661E-03	1.466432E-04
4.250913E+03	3.185036E-03	1.462951E-04
4.260869E+03	3.190193E-03	1.460270E-04
4.270824E+03	3.197182E-03	1.458405E-04
4.280779E+03	3.206018E-03	1.457353E-04
4.290735E+03	3.216772E-03	1.457137E-04
4.300690E+03	3.229395E-03	1.457728E-04
4.310645E+03	3.243964E-03	1.459151E-04
4.320601E+03	3.260473E-03	1.461394E-04
4.330556E+03	3.278985E-03	1.464477E-04
4.340511E+03	3.299610E-03	1.468439E-04
4.350466E+03	3.322412E-03	1.473299E-04
4.360422E+03	3.347574E-03	1.479128E-04
4.370377E+03	3.375354E-03	1.486028E-04
4.380332E+03	3.406101E-03	1.494141E-04
4.390288E+03	3.440222E-03	1.503630E-04
4.400243E+03	3.478091E-03	1.514643E-04
4.410198E+03	3.520143E-03	1.527351E-04
4.420154E+03	3.566834E-03	1.541932E-04
4.430109E+03	3.618477E-03	1.558498E-04
4.440064E+03	3.675367E-03	1.577154E-04
4.450019E+03	3.737723E-03	1.597968E-04
4.459975E+03	3.805715E-03	1.620987E-04
4.469930E+03	3.879302E-03	1.646168E-04
4.479885E+03	3.958359E-03	1.673431E-04
4.489841E+03	4.042693E-03	1.702671E-04
4.499796E+03	4.131856E-03	1.733674E-04
4.509751E+03	4.225215E-03	1.766154E-04
4.519707E+03	4.322059E-03	1.799795E-04
4.529662E+03	4.421350E-03	1.834152E-04
4.539617E+03	4.522019E-03	1.868772E-04
4.549572E+03	4.622733E-03	1.903100E-04
4.559528E+03	4.721987E-03	1.936520E-04
4.569483E+03	4.818201E-03	1.968396E-04
4.579438E+03	4.909845E-03	1.998119E-04
4.589394E+03	4.995186E-03	2.025011E-04
4.599349E+03	5.072642E-03	2.048461E-04
4.609304E+03	5.140735E-03	2.067916E-04
4.619260E+03	5.198149E-03	2.082893E-04
4.629215E+03	5.243731E-03	2.092982E-04
4.639170E+03	5.276589E-03	2.097885E-04
4.649125E+03	5.296177E-03	2.097446E-04
4.659081E+03	5.302228E-03	2.091623E-04
4.669036E+03	5.294739E-03	2.080479E-04
4.678991E+03	5.274262E-03	2.064292E-04
4.688947E+03	5.241524E-03	2.043408E-04
4.698902E+03	5.197681E-03	2.018331E-04
4.708857E+03	5.144253E-03	1.989702E-04
4.718813E+03	5.082998E-03	1.958242E-04
4.728768E+03	5.015860E-03	1.924732E-04
4.738723E+03	4.944839E-03	1.889964E-04
4.748678E+03	4.872107E-03	1.854782E-04
4.758634E+03	4.799712E-03	1.819970E-04
4.768589E+03	4.729568E-03	1.786251E-04
4.778544E+03	4.663489E-03	1.754294E-04
4.788500E+03	4.602975E-03	1.724645E-04
4.798455E+03	4.549427E-03	1.697799E-04
4.808410E+03	4.504085E-03	1.674188E-04
4.818366E+03	4.467850E-03	1.654109E-04
4.828321E+03	4.441496E-03	1.637805E-04
4.838276E+03	4.425534E-03	1.625423E-04
4.848231E+03	4.420299E-03	1.617037E-04
4.858187E+03	4.425874E-03	1.612631E-04
4.868142E+03	4.442068E-03	1.612088E-04
4.878097E+03	4.468393E-03	1.615185E-04
4.888053E+03	4.504229E-03	1.621655E-04
4.898008E+03	4.548594E-03	1.631105E-04
4.907963E+03	4.600188E-03	1.643034E-04
4.917919E+03	4.657560E-03	1.656895E-04
4.927874E+03	4.718822E-03	1.671996E-04
4.937829E+03	4.782024E-03	1.687631E-04
4.947784E+03	4.844975E-03	1.703023E-04
4.957740E+03	4.905300E-03	1.717343E-04
4.967695E+03	4.960917E-03	1.729874E-04
4.977650E+03	5.009700E-03	1.739900E-04
4.987606E+03	5.049988E-03	1.746874E-04
4.997561E+03	5.080542E-03	1.750406E-04
5.007516E+03	5.100613E-03	1.750278E-04
5.017472E+03	5.110143E-03	1.746514E-04
5.027427E+03	5.109593E-03	1.739315E-04
5.037382E+03	5.099890E-03	1.729036E-04
5.047337E+03	5.082463E-03	1.716196E-04
5.057293E+03	5.058924E-03	1.701368E-04
5.067248E+03	5.031145E-03	1.685204E-04
5.077203E+03	5.000979E-03	1.668339E-04
5.087159E+03	4.970135E-03	1.651350E-04
5.097114E+03	4.940432E-03	1.634841E-04
5.107069E+03	4.913236E-03	1.619256E-04
5.117025E+03	4.889918E-03	1.605035E-04
5.126980E+03	4.871601E-03	1.592530E-04
5.136935E+03	4.859267E-03	1.582039E-04
5.146890E+03	4.853591E-03	1.573758E-04
5.156846E+03	4.855185E-03	1.567857E-04
5.166801E+03	4.864602E-03	1.564486E-04
5.176756E+03	4.882029E-03	1.563673E-04
5.186712E+03	4.907743E-03	1.565475E-04
5.196667E+03	4.941726E-03	1.569854E-04
5.206622E+03	4.983855E-03	1.576740E-04
5.216578E+03	5.033827E-03	1.586005E-04
5.226533E+03	5.091117E-03	1.597455E-04
5.236488E+03	5.155092E-03	1.610864E-04
5.246443E+03	5.224846E-03	1.625924E-04
5.256399E+03	5.299377E-03	1.642305E-04
5.266354E+03	5.377368E-03	1.659583E-04
5.276309E+03	5.457512E-03	1.677342E-04
5.286265E+03	5.538363E-03	1.695134E-04
5.296220E+03	5.618360E-03	1.712482E-04
5.306175E+03	5.696017E-03	1.728938E-04
5.316131E+03	5.769970E-03	1.744100E-04
5.326086E+03	5.838835E-03	1.757568E-04
5.336041E+03	5.901519E-03	1.769034E-04
5.345996E+03	5.957238E-03	1.778288E-04
5.355952E+03	6.005411E-03	1.785186E-04
5.365907E+03	6.045621E-03	1.789633E-04
5.375862E+03	6.077891E-03	1.791666E-04
5.385818E+03	6.102351E-03	1.791354E-04
5.395773E+03	6.119438E-03	1.788856E-04
5.405728E+03	6.129536E-03	1.784310E-04
5.415684E+03	6.133248E-03	1.777918E-04
5.425639E+03	6.131033E-03	1.769837E-04
5.435594E+03	6.123218E-03	1.760183E-04
5.445549E+03	6.110016E-03	1.749038E-04
5.455505E+03	6.091294E-03	1.736384E-04
5.465460E+03	6.066668E-03	1.722133E-04
5.475415E+03	6.035387E-03	1.706094E-04
5.485371E+03	5.996176E-03	1.687932E-04
5.495326E+03	5.947538E-03	1.667255E-04
5.505281E+03	5.888069E-03	1.643706E-04
5.515237E+03	5.816392E-03	1.616936E-04
5.525192E+03	5.731766E-03	1.586782E-04
5.535147E+03	5.633892E-03	1.553205E-04
5.545102E+03	5.523078E-03	1.516333E-04
5.555058E+03	5.400453E-03	1.476517E-04
5.565013E+03	5.267724E-03	1.434259E-04
5.574968E+03	5.127324E-03	1.390251E-04
5.584924E+03	4.982115E-03	1.345289E-04
5.594879E+03	4.835287E-03	1.300246E-04
5.604834E+03	4.690197E-03	1.256021E-04
5.614790E+03	4.550165E-03	1.213494E-04
5.624745E+03	4.418511E-03	1.173525E-04
5.634700E+03	4.298183E-03	1.136866E-04
5.644655E+03	4.191880E-03	1.104188E-04
5.654611E+03	4.102020E-03	1.076078E-04
5.664566E+03	4.030604E-03	1.053005E-04
5.674521E+03	3.979384E-03	1.035362E-04
5.684477E+03	3.949936E-03	1.023493E-04
5.694432E+03	3.943463E-03	1.017640E-04
5.704387E+03	3.961065E-03	1.018010E-04
5.714343E+03	4.003771E-03	1.024794E-04
5.724298E+03	4.072348E-03	1.038107E-04
5.734253E+03	4.167410E-03	1.058028E-04
5.744209E+03	4.289404E-03	1.084589E-04
5.754164E+03	4.438308E-03	1.117705E-04
5.764119E+03	4.613929E-03	1.157248E-04
5.774074E+03	4.815317E-03	1.202904E-04
5.784030E+03	5.040966E-03	1.254225E-04
5.793985E+03	5.288741E-03	1.310615E-04
5.803940E+03	5.555545E-03	1.371249E-04
5.813896E+03	5.837497E-03	1.435125E-04
5.823851E+03	6.129872E-03	1.501048E-04
5.833806E+03	6.427260E-03	1.567677E-04
5.843762E+03	6.723575E-03	1.633527E-04
5.853717E+03	7.012214E-03	1.697012E-04
5.863672E+03	7.286571E-03	1.756571E-04
5.873627E+03	7.540221E-03	1.810711E-04
5.883583E+03	7.767077E-03	1.858041E-04
5.893538E+03	7.961989E-03	1.897418E-04
5.903493E+03	8.121045E-03	1.928007E-04
5.913449E+03	8.241531E-03	1.949271E-04
5.923404E+03	8.322486E-03	1.961094E-04
5.933359E+03	8.364174E-03	1.963646E-04
5.943315E+03	8.368323E-03	1.957439E-04
5.953270E+03	8.337838E-03	1.943250E-04
5.963225E+03	8.276637E-03	1.922078E-04
5.973180E+03	8.189165E-03	1.895030E-04
5.983136E+03	8.080092E-03	1.863248E-04
5.993091E+03	7.954433E-03	1.827935E-04
6.003046E+03	7.816660E-03	1.790154E-04
6.013002E+03	7.671257E-03	1.750954E-04
6.022957E+03	7.521889E-03	1.711185E-04
6.032912E+03	7.372041E-03	1.671641E-04
6.042868E+03	7.224358E-03	1.632919E-04
6.052823E+03	7.081026E-03	1.595502E-04
6.062778E+03	6.943796E-03	1.559772E-04
6.072733E+03	6.813770E-03	1.525960E-04
6.082689E+03	6.691806E-03	1.494238E-04
6.092644E+03	6.578418E-03	1.464702E-04
6.102599E+03	6.473574E-03	1.437326E-04
6.112555E+03	6.377426E-03	1.412125E-04
6.122510E+03	6.289690E-03	1.389019E-04
6.132465E+03	6.210025E-03	1.367914E-04
6.142421E+03	6.137910E-03	1.348683E-04
6.152376E+03	6.072675E-03	1.331165E-04
6.162331E+03	6.013768E-03	1.315225E-04
6.172286E+03	5.960379E-03	1.300679E-04
6.182242E+03	5.911874E-03	1.287380E-04
6.192197E+03	5.867501E-03	1.275156E-04
6.202152E+03	5.826847E-03	1.263913E-04
6.212108E+03	5.789337E-03	1.253521E-04
6.222063E+03	5.754493E-03	1.243874E-04
6.232018E+03	5.721847E-03	1.234863E-04
6.241974E+03	5.691010E-03	1.226399E-04
6.251929E+03	5.661789E-03	1.218436E-04
6.261884E+03	5.633892E-03	1.210907E-04
6.271839E+03	5.607506E-03	1.203848E-04
6.281795E+03	5.582546E-03	1.197237E-04
6.291750E+03	5.559228E-03	1.191116E-04
6.301705E+03	5.537748E-03	1.185524E-04
6.311661E+03	5.518335E-03	1.180507E-04
6.321616E+03	5.501228E-03	1.176112E-04
6.331571E+03	5.486718E-03	1.172398E-04
6.341527E+03	5.474920E-03	1.169387E-04
6.351482E+03	5.466120E-03	1.167137E-04
6.361437E+03	5.460244E-03	1.165631E-04
6.371392E+03	5.457368E-03	1.164883E-04
6.381348E+03	5.457437E-03	1.164879E-04
6.391303E+03	5.460327E-03	1.165593E-04
6.401258E+03	5.465940E-03	1.167001E-04
6.411214E+03	5.473846E-03	1.169013E-04
6.421169E+03	5.484059E-03	1.171631E-04
6.431124E+03	5.496131E-03	1.174759E-04
6.441080E+03	5.509868E-03	1.178355E-04
6.451035E+03	5.525101E-03	1.182385E-04
6.460990E+03	5.541711E-03	1.186820E-04
6.470945E+03	5.559541E-03	1.191624E-04
6.480901E+03	5.578503E-03	1.196776E-04
6.490856E+03	5.598675E-03	1.202290E-04
6.500811E+03	5.620375E-03	1.208231E-04
6.510767E+03	5.643996E-03	1.214681E-04
6.520722E+03	5.670598E-03	1.221868E-04
6.530677E+03	5.700862E-03	1.229937E-04
6.540633E+03	5.735694E-03	1.239084E-04
6.550588E+03	5.775518E-03	1.249402E-04
6.560543E+03	5.820272E-03	1.260878E-04
6.570498E+03	5.869507E-03	1.273416E-04
6.580454E+03	5.922420E-03	1.286845E-04
6.590409E+03	5.977617E-03	1.300862E-04
6.600364E+03	6.033539E-03	1.315125E-04
6.610320E+03	6.088198E-03	1.329200E-04
6.620275E+03	6.139710E-03	1.342670E-04
6.630230E+03	6.185795E-03	1.355029E-04
6.640186E+03	6.224511E-03	1.365842E-04
6.650141E+03	6.253996E-03	1.374687E-04
6.660096E+03	6.272660E-03	1.381201E-04
6.670051E+03	6.279360E-03	1.385115E-04
6.680007E+03	6.273055E-03	1.386182E-04
6.689962E+03	6.253521E-03	1.384333E-04
6.699917E+03	6.220788E-03	1.379555E-04
6.709873E+03	6.175219E-03	1.371909E-04
6.719828E+03	6.117765E-03	1.361589E-04
6.729783E+03	6.049550E-03	1.348826E-04
6.739739E+03	5.972184E-03	1.333964E-04
6.749694E+03	5.887426E-03	1.317384E-04
6.759649E+03	5.797203E-03	1.299505E-04
6.769604E+03	5.703551E-03	1.280775E-04
6.779560E+03	5.608467E-03	1.261638E-04
6.789515E+03	5.514208E-03	1.242598E-04
6.799470E+03	5.422700E-03	1.224090E-04
6.809426E+03	5.335847E-03	1.206546E-04
6.819381E+03	5.255337E-03	1.190352E-04
6.829336E+03	5.183008E-03	1.175931E-04
6.839292E+03	5.120008E-03	1.163552E-04
6.849247E+03	5.067695E-03	1.153535E-04
6.859202E+03	5.026873E-03	1.146073E-04
6.869157E+03	4.998453E-03	1.141385E-04
6.879113E+03	4.982926E-03	1.139597E-04
6.889068E+03	4.980372E-03	1.140739E-04
6.899023E+03	4.990926E-03	1.144853E-04
6.908979E+03	5.014275E-03	1.151880E-04
6.918934E+03	5.049630E-03	1.161650E-04
6.928889E+03	5.096228E-03	1.173996E-04
6.938845E+03	5.152795E-03	1.188633E-04
6.948800E+03	5.217655E-03	1.205180E-04
6.958755E+03	5.288888E-03	1.223199E-04
6.968710E+03	5.364330E-03	1.242192E-04
6.978666E+03	5.441698E-03	1.261629E-04
6.988621E+03	5.518444E-03	1.280919E-04
6.998576E+03	5.592222E-03	1.299512E-04
7.008532E+03	5.660611E-03	1.316841E-04
7.018487E+03	5.721655E-03	1.332444E-04
7.028442E+03	5.773537E-03	1.345888E-04
7.038398E+03	5.814972E-03	1.356867E-04
7.048353E+03	5.845272E-03	1.365210E-04
7.058308E+03	5.864053E-03	1.370819E-04
7.068263E+03	5.871635E-03	1.373761E-04
7.078219E+03	5.868588E-03	1.374163E-04
7.088174E+03	5.856081E-03	1.372291E-04
7.098129E+03	5.835458E-03	1.368457E-04
7.108085E+03	5.808142E-03	1.362991E-04
7.118040E+03	5.775744E-03	1.356268E-04
7.127995E+03	5.740068E-03	1.348711E-04
7.137951E+03	5.702278E-03	1.340594E-04
7.147906E+03	5.664026E-03	1.332305E-04
7.157861E+03	5.626319E-03	1.324083E-04
7.167817E+03	5.589942E-03	1.316115E-04
7.177772E+03	5.555739E-03	1.308601E-04
7.187727E+03	5.523904E-03	1.301588E-04
7.197682E+03	5.494807E-03	1.295167E-04
7.207638E+03	5.468307E-03	1.289306E-04
7.217593E+03	5.444284E-03	1.283978E-04
7.227548E+03	5.422262E-03	1.279075E-04
7.237504E+03	5.401865E-03	1.274507E-04
7.247459E+03	5.382520E-03	1.270142E-04
7.257414E+03	5.363731E-03	1.265865E-04
7.267370E+03	5.344773E-03	1.261506E-04
7.277325E+03	5.325143E-03	1.256947E-04
7.287280E+03	5.304303E-03	1.252065E-04
7.297235E+03	5.281775E-03	1.246746E-04
7.307191E+03	5.257283E-03	1.240929E-04
7.317146E+03	5.230658E-03	1.234574E-04
7.327101E+03	5.201615E-03	1.227618E-04
7.337057E+03	5.170191E-03	1.220071E-04
7.347012E+03	5.136401E-03	1.211938E-04
7.356967E+03	5.100438E-03	1.203268E-04
7.366923E+03	5.062446E-03	1.194097E-04
7.376878E+03	5.022607E-03	1.184471E-04
7.386833E+03	4.981016E-03	1.174415E-04
7.396788E+03	4.938073E-03	1.164026E-04
7.406744E+03	4.893775E-03	1.153305E-04
7.416699E+03	4.848307E-03	1.142299E-04
7.426654E+03	4.801951E-03	1.131077E-04
7.436610E+03	4.754780E-03	1.119658E-04
7.446565E+03	4.706869E-03	1.108064E-04
7.456520E+03	4.658407E-03	1.096340E-04
7.466476E+03	4.609491E-03	1.084512E-04
7.476431E+03	4.560442E-03	1.072658E-04
7.486386E+03	4.511309E-03	1.060792E-04
7.496341E+03	4.462467E-03	1.049003E-04
7.506297E+03	4.414232E-03	1.037367E-04
7.516252E+03	4.366752E-03	1.025920E-04
7.526207E+03	4.320404E-03	1.014753E-04
7.536163E+03	4.275671E-03	1.003980E-04
7.546118E+03	4.232937E-03	9.936932E-05
7.556073E+03	4.192400E-03	9.839393E-05
7.566029E+03	4.154522E-03	9.748283E-05
7.575984E+03	4.119660E-03	9.664451E-05
7.585939E+03	4.088159E-03	9.588721E-05
7.595894E+03	4.060393E-03	9.521976E-05
7.605850E+03	4.036598E-03	9.464785E-05
7.615805E+03	4.017148E-03	9.418036E-05
7.625760E+03	4.002136E-03	9.381964E-05
7.635716E+03	3.991668E-03	9.356830E-05
7.645671E+03	3.985818E-03	9.342831E-05
7.655626E+03	3.984466E-03	9.339701E-05
7.665582E+03	3.987293E-03	9.346717E-05
7.675537E+03	3.993950E-03	9.363086E-05
7.685492E+03	4.004095E-03	9.388036E-05
7.695447E+03	4.017179E-03	9.420307E-05
7.705403E+03	4.032501E-03	9.458291E-05
7.715358E+03	4.049386E-03	9.500436E-05
7.725313E+03	4.067217E-03	9.545328E-05
