#wls	flux	fluxerr
1.592848E+03	6.608682E-04	4.572126E-05
1.632669E+03	6.694713E-04	4.614389E-05
1.672491E+03	6.782826E-04	4.657177E-05
1.712312E+03	6.871579E-04	4.699460E-05
1.752133E+03	6.961757E-04	4.741737E-05
1.791954E+03	7.052972E-04	4.783704E-05
1.831775E+03	7.145957E-04	4.825819E-05
1.871597E+03	7.241441E-04	4.868522E-05
1.911418E+03	7.338907E-04	4.911413E-05
1.951239E+03	7.440172E-04	4.955650E-05
1.991060E+03	7.544611E-04	5.000748E-05
2.030881E+03	7.652711E-04	5.046960E-05
2.070703E+03	7.766092E-04	5.095274E-05
2.110524E+03	7.883841E-04	5.145000E-05
2.150345E+03	8.009805E-04	5.198546E-05
2.190166E+03	8.141553E-04	5.254211E-05
2.229987E+03	8.280150E-04	5.312567E-05
2.269809E+03	8.422795E-04	5.371700E-05
2.309630E+03	8.567719E-04	5.430389E-05
2.349451E+03	8.711768E-04	5.486569E-05
2.389272E+03	8.854040E-04	5.539631E-05
2.429093E+03	8.989889E-04	5.586656E-05
2.468915E+03	9.118163E-04	5.626962E-05
2.508736E+03	9.235274E-04	5.658395E-05
2.548557E+03	9.338798E-04	5.679583E-05
2.588378E+03	9.427460E-04	5.689894E-05
2.628199E+03	9.496718E-04	5.686774E-05
2.668021E+03	9.546647E-04	5.670509E-05
2.707842E+03	9.574247E-04	5.639583E-05
2.747663E+03	9.580977E-04	5.595159E-05
2.787484E+03	9.565412E-04	5.536714E-05
2.827305E+03	9.528477E-04	5.465116E-05
2.867127E+03	9.465988E-04	5.378329E-05
2.906948E+03	9.378409E-04	5.277037E-05
2.946769E+03	9.263624E-04	5.160497E-05
2.986590E+03	9.126322E-04	5.031782E-05
2.996546E+03	9.088690E-04	4.997866E-05
3.006501E+03	9.049291E-04	4.963026E-05
3.016456E+03	9.009715E-04	4.928138E-05
3.026411E+03	8.968492E-04	4.892403E-05
3.036367E+03	8.926431E-04	4.856268E-05
3.046322E+03	8.883585E-04	4.819767E-05
3.056277E+03	8.840015E-04	4.782938E-05
3.066233E+03	8.795060E-04	4.745427E-05
3.076188E+03	8.750214E-04	4.708046E-05
3.086143E+03	8.704812E-04	4.670438E-05
3.096099E+03	8.658925E-04	4.632645E-05
3.106054E+03	8.612608E-04	4.594699E-05
3.116009E+03	8.566602E-04	4.556998E-05
3.125964E+03	8.519633E-04	4.518865E-05
3.135920E+03	8.473731E-04	4.481379E-05
3.145875E+03	8.427015E-04	4.443544E-05
3.155830E+03	8.381452E-04	4.406400E-05
3.165786E+03	8.335839E-04	4.369311E-05
3.175741E+03	8.290246E-04	4.332316E-05
3.185696E+03	8.245949E-04	4.296078E-05
3.195652E+03	8.202383E-04	4.260301E-05
3.205607E+03	8.159603E-04	4.225010E-05
3.215562E+03	8.117661E-04	4.190229E-05
3.225517E+03	8.076613E-04	4.155984E-05
3.235473E+03	8.037073E-04	4.122586E-05
3.245428E+03	7.998530E-04	4.089767E-05
3.255383E+03	7.962116E-04	4.058102E-05
3.265339E+03	7.926783E-04	4.027046E-05
3.275294E+03	7.893646E-04	3.997161E-05
3.285249E+03	7.862197E-04	3.968180E-05
3.295205E+03	7.832994E-04	3.940375E-05
3.305160E+03	7.805548E-04	3.913493E-05
3.315115E+03	7.780902E-04	3.888044E-05
3.325070E+03	7.758568E-04	3.863773E-05
3.335026E+03	7.738571E-04	3.840681E-05
3.344981E+03	7.721901E-04	3.819247E-05
3.354936E+03	7.708082E-04	3.799218E-05
3.364892E+03	7.697127E-04	3.780588E-05
3.374847E+03	7.689518E-04	3.763577E-05
3.384802E+03	7.685725E-04	3.748399E-05
3.394758E+03	7.685742E-04	3.735030E-05
3.404713E+03	7.689578E-04	3.723454E-05
3.414668E+03	7.697687E-04	3.713871E-05
3.424623E+03	7.710072E-04	3.706261E-05
3.434579E+03	7.727191E-04	3.700819E-05
3.444534E+03	7.749492E-04	3.697733E-05
3.454489E+03	7.776562E-04	3.696780E-05
3.464445E+03	7.809720E-04	3.698559E-05
3.474400E+03	7.848992E-04	3.703049E-05
3.484355E+03	7.894433E-04	3.710240E-05
3.494311E+03	7.946530E-04	3.720329E-05
3.504266E+03	8.005368E-04	3.733316E-05
3.514221E+03	8.072273E-04	3.749781E-05
3.524176E+03	8.146562E-04	3.769362E-05
3.534132E+03	8.228791E-04	3.792273E-05
3.544087E+03	8.319151E-04	3.818557E-05
3.554042E+03	8.417847E-04	3.848261E-05
3.563998E+03	8.525133E-04	3.881452E-05
3.573953E+03	8.640903E-04	3.918033E-05
3.583908E+03	8.765470E-04	3.958095E-05
3.593864E+03	8.898808E-04	4.001576E-05
3.603819E+03	9.041684E-04	4.048766E-05
3.613774E+03	9.194135E-04	4.099626E-05
3.623729E+03	9.356620E-04	4.154303E-05
3.633685E+03	9.528872E-04	4.212619E-05
3.643640E+03	9.712168E-04	4.275077E-05
3.653595E+03	9.906305E-04	4.341522E-05
3.663551E+03	1.011186E-03	4.412141E-05
3.673506E+03	1.032908E-03	4.486966E-05
3.683461E+03	1.055895E-03	4.566361E-05
3.693417E+03	1.080175E-03	4.650368E-05
3.703372E+03	1.105777E-03	4.739026E-05
3.713327E+03	1.132767E-03	4.832537E-05
3.723282E+03	1.161211E-03	4.931097E-05
3.733238E+03	1.191136E-03	5.034731E-05
3.743193E+03	1.222604E-03	5.143610E-05
3.753148E+03	1.255676E-03	5.257886E-05
3.763104E+03	1.290366E-03	5.377526E-05
3.773059E+03	1.326723E-03	5.502629E-05
3.783014E+03	1.364748E-03	5.633089E-05
3.792970E+03	1.404469E-03	5.768920E-05
3.802925E+03	1.445904E-03	5.910093E-05
3.812880E+03	1.489017E-03	6.056346E-05
3.822835E+03	1.533795E-03	6.207521E-05
3.832791E+03	1.580163E-03	6.363214E-05
3.842746E+03	1.628070E-03	6.523110E-05
3.852701E+03	1.677439E-03	6.686811E-05
3.862657E+03	1.728126E-03	6.853649E-05
3.872612E+03	1.780005E-03	7.023038E-05
3.882567E+03	1.832874E-03	7.194112E-05
3.892523E+03	1.886553E-03	7.366094E-05
3.902478E+03	1.940829E-03	7.538110E-05
3.912433E+03	1.995420E-03	7.709023E-05
3.922388E+03	2.050016E-03	7.877620E-05
3.932344E+03	2.104379E-03	8.042987E-05
3.942299E+03	2.158161E-03	8.203811E-05
3.952254E+03	2.210997E-03	8.358743E-05
3.962210E+03	2.262563E-03	8.506626E-05
3.972165E+03	2.312486E-03	8.646136E-05
3.982120E+03	2.360497E-03	8.776377E-05
3.992076E+03	2.406242E-03	8.896157E-05
4.002031E+03	2.449387E-03	9.004393E-05
4.011986E+03	2.489628E-03	9.100131E-05
4.021941E+03	2.526849E-03	9.183137E-05
4.031897E+03	2.560725E-03	9.252423E-05
4.041852E+03	2.591180E-03	9.307934E-05
4.051807E+03	2.618092E-03	9.349449E-05
4.061763E+03	2.641445E-03	9.377140E-05
4.071718E+03	2.661277E-03	9.391370E-05
4.081673E+03	2.677634E-03	9.392523E-05
4.091629E+03	2.690661E-03	9.381329E-05
4.101584E+03	2.700501E-03	9.358505E-05
4.111539E+03	2.707390E-03	9.325068E-05
4.121494E+03	2.711600E-03	9.282137E-05
4.131450E+03	2.713424E-03	9.230895E-05
4.141405E+03	2.713136E-03	9.172414E-05
4.151360E+03	2.711063E-03	9.107944E-05
4.161316E+03	2.707591E-03	9.038881E-05
4.171271E+03	2.702959E-03	8.966124E-05
4.181226E+03	2.697543E-03	8.890987E-05
4.191182E+03	2.691615E-03	8.814417E-05
4.201137E+03	2.685520E-03	8.737577E-05
4.211092E+03	2.679539E-03	8.661391E-05
4.221047E+03	2.673886E-03	8.586550E-05
4.231003E+03	2.668883E-03	8.514061E-05
4.240958E+03	2.664651E-03	8.444278E-05
4.250913E+03	2.661456E-03	8.377996E-05
4.260869E+03	2.659450E-03	8.315629E-05
4.270824E+03	2.658757E-03	8.257496E-05
4.280779E+03	2.659511E-03	8.203939E-05
4.290735E+03	2.661778E-03	8.155073E-05
4.300690E+03	2.665635E-03	8.111046E-05
4.310645E+03	2.671087E-03	8.071785E-05
4.320601E+03	2.678235E-03	8.037499E-05
4.330556E+03	2.686950E-03	8.007710E-05
4.340511E+03	2.697284E-03	7.982484E-05
4.350466E+03	2.709160E-03	7.961505E-05
4.360422E+03	2.722602E-03	7.944759E-05
4.370377E+03	2.737620E-03	7.932189E-05
4.380332E+03	2.754430E-03	7.924333E-05
4.390288E+03	2.773331E-03	7.921952E-05
4.400243E+03	2.794690E-03	7.925968E-05
4.410198E+03	2.818842E-03	7.937193E-05
4.420154E+03	2.846223E-03	7.956690E-05
4.430109E+03	2.877068E-03	7.984938E-05
4.440064E+03	2.911563E-03	8.022260E-05
4.450019E+03	2.949874E-03	8.068907E-05
4.459975E+03	2.992095E-03	8.124933E-05
4.469930E+03	3.038082E-03	8.189740E-05
4.479885E+03	3.087855E-03	8.263182E-05
4.489841E+03	3.141091E-03	8.344212E-05
4.499796E+03	3.197628E-03	8.432227E-05
4.509751E+03	3.256993E-03	8.525833E-05
4.519707E+03	3.318700E-03	8.623637E-05
4.529662E+03	3.382209E-03	8.724150E-05
4.539617E+03	3.446846E-03	8.825583E-05
4.549572E+03	3.511810E-03	8.925879E-05
4.559528E+03	3.576361E-03	9.023198E-05
4.569483E+03	3.639573E-03	9.115289E-05
4.579438E+03	3.700575E-03	9.200105E-05
4.589394E+03	3.758434E-03	9.275514E-05
4.599349E+03	3.812225E-03	9.339472E-05
4.609304E+03	3.861107E-03	9.390193E-05
4.619260E+03	3.904293E-03	9.426093E-05
4.629215E+03	3.941030E-03	9.445711E-05
4.639170E+03	3.970765E-03	9.448110E-05
4.649125E+03	3.992919E-03	9.432328E-05
4.659081E+03	4.007196E-03	9.398094E-05
4.669036E+03	4.013401E-03	9.345385E-05
4.678991E+03	4.011537E-03	9.274644E-05
4.688947E+03	4.001668E-03	9.186441E-05
4.698902E+03	3.984152E-03	9.081995E-05
4.708857E+03	3.959337E-03	8.962482E-05
4.718813E+03	3.927840E-03	8.829640E-05
4.728768E+03	3.890285E-03	8.685179E-05
4.738723E+03	3.847439E-03	8.531078E-05
4.748678E+03	3.800169E-03	8.369472E-05
4.758634E+03	3.749473E-03	8.202739E-05
4.768589E+03	3.696537E-03	8.033583E-05
4.778544E+03	3.642812E-03	7.865217E-05
4.788500E+03	3.589836E-03	7.700952E-05
4.798455E+03	3.539047E-03	7.543800E-05
4.808410E+03	3.491741E-03	7.396394E-05
4.818366E+03	3.449035E-03	7.260922E-05
4.828321E+03	3.411961E-03	7.139339E-05
4.838276E+03	3.381156E-03	7.032704E-05
4.848231E+03	3.357246E-03	6.942036E-05
4.858187E+03	3.340510E-03	6.867615E-05
4.868142E+03	3.331142E-03	6.809551E-05
4.878097E+03	3.329070E-03	6.767410E-05
4.888053E+03	3.334103E-03	6.740540E-05
4.898008E+03	3.345824E-03	6.727849E-05
4.907963E+03	3.363595E-03	6.727831E-05
4.917919E+03	3.386671E-03	6.738803E-05
4.927874E+03	3.414106E-03	6.758726E-05
4.937829E+03	3.444772E-03	6.785244E-05
4.947784E+03	3.477544E-03	6.816056E-05
4.957740E+03	3.511078E-03	6.848480E-05
4.967695E+03	3.544166E-03	6.880153E-05
4.977650E+03	3.575537E-03	6.908629E-05
4.987606E+03	3.604108E-03	6.931872E-05
4.997561E+03	3.628894E-03	6.948068E-05
5.007516E+03	3.649217E-03	6.956013E-05
5.017472E+03	3.664584E-03	6.954882E-05
5.027427E+03	3.674905E-03	6.944613E-05
5.037382E+03	3.680252E-03	6.925451E-05
5.047337E+03	3.680994E-03	6.898190E-05
5.057293E+03	3.677716E-03	6.864011E-05
5.067248E+03	3.671211E-03	6.824460E-05
5.077203E+03	3.662304E-03	6.781116E-05
5.087159E+03	3.651955E-03	6.735778E-05
5.097114E+03	3.641088E-03	6.690159E-05
5.107069E+03	3.630560E-03	6.645814E-05
5.117025E+03	3.621272E-03	6.604358E-05
5.126980E+03	3.613887E-03	6.566957E-05
5.136935E+03	3.609125E-03	6.534854E-05
5.146890E+03	3.607487E-03	6.508890E-05
5.156846E+03	3.609413E-03	6.489781E-05
5.166801E+03	3.615245E-03	6.478061E-05
5.176756E+03	3.625268E-03	6.474158E-05
5.186712E+03	3.639603E-03	6.478204E-05
5.196667E+03	3.658320E-03	6.490239E-05
5.206622E+03	3.681439E-03	6.510219E-05
5.216578E+03	3.708852E-03	6.537876E-05
5.226533E+03	3.740325E-03	6.572727E-05
5.236488E+03	3.775570E-03	6.614199E-05
5.246443E+03	3.814246E-03	6.661639E-05
5.256399E+03	3.855887E-03	6.714189E-05
5.266354E+03	3.899908E-03	6.770787E-05
5.276309E+03	3.945730E-03	6.830403E-05
5.286265E+03	3.992634E-03	6.891778E-05
5.296220E+03	4.039896E-03	6.953657E-05
5.306175E+03	4.086815E-03	7.014842E-05
5.316131E+03	4.132594E-03	7.073984E-05
5.326086E+03	4.176540E-03	7.129927E-05
5.336041E+03	4.217917E-03	7.181452E-05
5.345996E+03	4.256090E-03	7.227531E-05
5.355952E+03	4.290546E-03	7.267346E-05
5.365907E+03	4.320732E-03	7.300024E-05
5.375862E+03	4.346372E-03	7.325165E-05
5.385818E+03	4.367163E-03	7.342326E-05
5.395773E+03	4.382887E-03	7.351212E-05
5.405728E+03	4.393561E-03	7.351922E-05
5.415684E+03	4.399111E-03	7.344402E-05
5.425639E+03	4.399508E-03	7.328669E-05
5.435594E+03	4.394810E-03	7.304884E-05
5.445549E+03	4.384977E-03	7.273044E-05
5.455505E+03	4.369804E-03	7.232870E-05
5.465460E+03	4.349015E-03	7.183965E-05
5.475415E+03	4.322000E-03	7.125383E-05
5.485371E+03	4.287781E-03	7.055575E-05
5.495326E+03	4.245378E-03	6.972986E-05
5.505281E+03	4.193825E-03	6.876069E-05
5.515237E+03	4.132577E-03	6.763976E-05
5.525192E+03	4.061350E-03	6.636283E-05
5.535147E+03	3.980398E-03	6.493450E-05
5.545102E+03	3.890526E-03	6.336826E-05
5.555058E+03	3.792952E-03	6.168416E-05
5.565013E+03	3.689404E-03	5.991050E-05
5.574968E+03	3.581912E-03	5.808023E-05
5.584924E+03	3.472769E-03	5.623041E-05
5.594879E+03	3.364306E-03	5.439850E-05
5.604834E+03	3.258894E-03	5.262243E-05
5.614790E+03	3.158845E-03	5.093899E-05
5.624745E+03	3.066242E-03	4.938115E-05
5.634700E+03	2.983032E-03	4.797949E-05
5.644655E+03	2.910897E-03	4.676031E-05
5.654611E+03	2.851300E-03	4.574621E-05
5.664566E+03	2.805493E-03	4.495636E-05
5.674521E+03	2.774543E-03	4.440694E-05
5.684477E+03	2.759363E-03	4.411159E-05
5.694432E+03	2.760738E-03	4.408188E-05
5.704387E+03	2.779346E-03	4.432765E-05
5.714343E+03	2.815795E-03	4.485760E-05
5.724298E+03	2.870506E-03	4.567747E-05
5.734253E+03	2.943891E-03	4.679283E-05
5.744209E+03	3.036143E-03	4.820576E-05
5.754164E+03	3.147176E-03	4.991396E-05
5.764119E+03	3.276731E-03	5.191244E-05
5.774074E+03	3.424088E-03	5.418891E-05
5.784030E+03	3.588131E-03	5.672496E-05
5.793985E+03	3.767136E-03	5.949266E-05
5.803940E+03	3.958771E-03	6.245464E-05
5.813896E+03	4.160189E-03	6.556563E-05
5.823851E+03	4.367807E-03	6.876899E-05
5.833806E+03	4.577528E-03	7.200023E-05
5.843762E+03	4.784821E-03	7.518834E-05
5.853717E+03	4.984897E-03	7.825859E-05
5.863672E+03	5.172868E-03	8.113499E-05
5.873627E+03	5.344147E-03	8.374658E-05
5.883583E+03	5.494507E-03	8.602825E-05
5.893538E+03	5.620486E-03	8.792713E-05
5.903493E+03	5.719347E-03	8.940179E-05
5.913449E+03	5.789564E-03	9.042983E-05
5.923404E+03	5.830450E-03	9.100195E-05
5.933359E+03	5.842544E-03	9.112792E-05
5.943315E+03	5.827180E-03	9.082978E-05
5.953270E+03	5.786747E-03	9.014585E-05
5.963225E+03	5.724115E-03	8.912174E-05
5.973180E+03	5.642646E-03	8.781052E-05
5.983136E+03	5.545878E-03	8.626777E-05
5.993091E+03	5.437461E-03	8.455063E-05
6.003046E+03	5.320975E-03	8.271497E-05
6.013002E+03	5.199595E-03	8.081021E-05
6.022957E+03	5.076316E-03	7.888289E-05
6.032912E+03	4.953710E-03	7.697289E-05
6.042868E+03	4.833872E-03	7.511264E-05
6.052823E+03	4.718607E-03	7.333007E-05
6.062778E+03	4.609287E-03	7.164638E-05
6.072733E+03	4.506891E-03	7.007671E-05
6.082689E+03	4.412180E-03	6.863285E-05
6.092644E+03	4.325617E-03	6.732205E-05
6.102599E+03	4.247384E-03	6.614719E-05
6.112555E+03	4.177620E-03	6.511063E-05
6.122510E+03	4.116165E-03	6.421011E-05
6.132465E+03	4.062867E-03	6.344355E-05
6.142421E+03	4.017245E-03	6.280383E-05
6.152376E+03	3.979016E-03	6.228693E-05
6.162331E+03	3.947532E-03	6.188324E-05
6.172286E+03	3.922267E-03	6.158502E-05
6.182242E+03	3.902516E-03	6.138177E-05
6.192197E+03	3.887594E-03	6.126330E-05
6.202152E+03	3.876663E-03	6.121686E-05
6.212108E+03	3.868958E-03	6.123048E-05
6.222063E+03	3.863796E-03	6.129338E-05
6.232018E+03	3.860475E-03	6.139438E-05
6.241974E+03	3.858391E-03	6.152383E-05
6.251929E+03	3.856967E-03	6.167239E-05
6.261884E+03	3.855648E-03	6.183099E-05
6.271839E+03	3.854012E-03	6.199259E-05
6.281795E+03	3.851591E-03	6.214935E-05
6.291750E+03	3.848165E-03	6.229730E-05
6.301705E+03	3.843482E-03	6.243191E-05
6.311661E+03	3.837380E-03	6.255009E-05
6.321616E+03	3.829914E-03	6.265218E-05
6.331571E+03	3.821005E-03	6.273636E-05
6.341527E+03	3.810881E-03	6.280585E-05
6.351482E+03	3.799584E-03	6.286081E-05
6.361437E+03	3.787378E-03	6.290513E-05
6.371392E+03	3.774429E-03	6.294107E-05
6.381348E+03	3.760993E-03	6.297249E-05
6.391303E+03	3.747233E-03	6.300176E-05
6.401258E+03	3.733392E-03	6.303264E-05
6.411214E+03	3.719700E-03	6.306872E-05
6.421169E+03	3.706380E-03	6.311356E-05
6.431124E+03	3.693696E-03	6.317151E-05
6.441080E+03	3.681819E-03	6.324538E-05
6.451035E+03	3.671048E-03	6.334020E-05
6.460990E+03	3.661486E-03	6.345766E-05
6.470945E+03	3.653308E-03	6.360073E-05
6.480901E+03	3.646656E-03	6.377192E-05
6.490856E+03	3.641720E-03	6.397458E-05
6.500811E+03	3.638697E-03	6.421234E-05
6.510767E+03	3.637878E-03	6.449048E-05
6.520722E+03	3.639510E-03	6.481367E-05
6.530677E+03	3.643818E-03	6.518628E-05
6.540633E+03	3.651044E-03	6.561299E-05
6.550588E+03	3.661014E-03	6.609116E-05
6.560543E+03	3.673622E-03	6.661926E-05
6.570498E+03	3.688420E-03	6.718953E-05
6.580454E+03	3.704805E-03	6.779126E-05
6.590409E+03	3.722113E-03	6.841237E-05
6.600364E+03	3.739366E-03	6.903478E-05
6.610320E+03	3.755729E-03	6.964276E-05
6.620275E+03	3.770084E-03	7.021506E-05
6.630230E+03	3.781509E-03	7.073369E-05
6.640186E+03	3.789008E-03	7.117902E-05
6.650141E+03	3.791783E-03	7.153482E-05
6.660096E+03	3.789147E-03	7.178675E-05
6.670051E+03	3.780599E-03	7.192378E-05
6.680007E+03	3.765856E-03	7.193895E-05
6.689962E+03	3.744860E-03	7.182956E-05
6.699917E+03	3.717878E-03	7.159909E-05
6.709873E+03	3.685159E-03	7.125093E-05
6.719828E+03	3.647433E-03	7.079783E-05
6.729783E+03	3.605409E-03	7.025239E-05
6.739739E+03	3.559946E-03	6.963040E-05
6.749694E+03	3.512136E-03	6.895256E-05
6.759649E+03	3.463009E-03	6.823863E-05
6.769604E+03	3.413676E-03	6.751032E-05
6.779560E+03	3.365297E-03	6.679063E-05
6.789515E+03	3.318920E-03	6.610067E-05
6.799470E+03	3.275588E-03	6.546176E-05
6.809426E+03	3.236320E-03	6.489501E-05
6.819381E+03	3.202010E-03	6.441924E-05
6.829336E+03	3.173409E-03	6.405066E-05
6.839292E+03	3.151247E-03	6.380518E-05
6.849247E+03	3.136054E-03	6.369479E-05
6.859202E+03	3.128317E-03	6.373073E-05
6.869157E+03	3.128304E-03	6.391985E-05
6.879113E+03	3.136270E-03	6.426869E-05
6.889068E+03	3.152103E-03	6.477631E-05
6.899023E+03	3.175784E-03	6.544359E-05
6.908979E+03	3.206910E-03	6.626341E-05
6.918934E+03	3.245027E-03	6.722746E-05
6.928889E+03	3.289408E-03	6.832159E-05
6.938845E+03	3.339232E-03	6.952949E-05
6.948800E+03	3.393406E-03	7.082904E-05
6.958755E+03	3.450774E-03	7.219643E-05
6.968710E+03	3.509955E-03	7.360294E-05
6.978666E+03	3.569583E-03	7.501991E-05
6.988621E+03	3.628154E-03	7.641546E-05
6.998576E+03	3.684306E-03	7.776050E-05
7.008532E+03	3.736672E-03	7.902557E-05
7.018487E+03	3.784111E-03	8.018579E-05
7.028442E+03	3.825706E-03	8.122094E-05
7.038398E+03	3.860816E-03	8.211651E-05
7.048353E+03	3.889109E-03	8.286459E-05
7.058308E+03	3.910565E-03	8.346387E-05
7.068263E+03	3.925464E-03	8.391958E-05
7.078219E+03	3.934347E-03	8.424256E-05
7.088174E+03	3.937979E-03	8.444864E-05
7.098129E+03	3.937222E-03	8.455585E-05
7.108085E+03	3.933077E-03	8.458534E-05
7.118040E+03	3.926637E-03	8.456044E-05
7.127995E+03	3.918834E-03	8.450113E-05
7.137951E+03	3.910564E-03	8.442674E-05
7.147906E+03	3.902585E-03	8.435372E-05
7.157861E+03	3.895485E-03	8.429490E-05
7.167817E+03	3.889594E-03	8.425763E-05
7.177772E+03	3.885159E-03	8.424744E-05
7.187727E+03	3.882106E-03	8.426293E-05
7.197682E+03	3.880226E-03	8.429977E-05
7.207638E+03	3.879133E-03	8.434970E-05
7.217593E+03	3.878290E-03	8.440125E-05
7.227548E+03	3.877045E-03	8.444031E-05
7.237504E+03	3.874545E-03	8.444838E-05
7.247459E+03	3.870128E-03	8.441112E-05
7.257414E+03	3.862900E-03	8.430906E-05
7.267370E+03	3.852189E-03	8.412752E-05
7.277325E+03	3.837343E-03	8.385232E-05
7.287280E+03	3.817727E-03	8.346955E-05
7.297235E+03	3.793027E-03	8.297239E-05
7.307191E+03	3.763003E-03	8.235561E-05
7.317146E+03	3.727655E-03	8.161923E-05
7.327101E+03	3.687174E-03	8.076751E-05
7.337057E+03	3.641882E-03	7.980757E-05
7.347012E+03	3.592372E-03	7.875254E-05
7.356967E+03	3.539199E-03	7.761473E-05
7.366923E+03	3.483175E-03	7.641207E-05
7.376878E+03	3.425014E-03	7.516039E-05
7.386833E+03	3.365654E-03	7.388048E-05
7.396788E+03	3.305856E-03	7.258927E-05
7.406744E+03	3.246394E-03	7.130392E-05
7.416699E+03	3.187967E-03	7.004002E-05
7.426654E+03	3.131238E-03	6.881235E-05
7.436610E+03	3.076627E-03	6.763037E-05
7.446565E+03	3.024645E-03	6.650551E-05
7.456520E+03	2.975556E-03	6.544383E-05
7.466476E+03	2.929621E-03	6.445122E-05
7.476431E+03	2.887003E-03	6.353152E-05
7.486386E+03	2.847691E-03	6.268464E-05
7.496341E+03	2.811684E-03	6.191069E-05
7.506297E+03	2.778870E-03	6.120728E-05
7.516252E+03	2.749122E-03	6.057173E-05
7.526207E+03	2.722178E-03	5.999840E-05
7.536163E+03	2.697832E-03	5.948283E-05
7.546118E+03	2.675819E-03	5.901931E-05
7.556073E+03	2.655879E-03	5.860224E-05
7.566029E+03	2.637791E-03	5.822679E-05
7.575984E+03	2.621435E-03	5.789049E-05
7.585939E+03	2.606753E-03	5.759212E-05
7.595894E+03	2.593797E-03	5.733296E-05
7.605850E+03	2.582662E-03	5.711525E-05
7.615805E+03	2.573608E-03	5.694486E-05
7.625760E+03	2.566724E-03	5.682390E-05
7.635716E+03	2.562225E-03	5.675734E-05
7.645671E+03	2.560143E-03	5.674605E-05
7.655626E+03	2.560516E-03	5.679103E-05
7.665582E+03	2.563171E-03	5.688872E-05
7.675537E+03	2.568059E-03	5.703821E-05
7.685492E+03	2.574799E-03	5.723127E-05
7.695447E+03	2.583147E-03	5.746269E-05
7.705403E+03	2.592631E-03	5.772219E-05
7.715358E+03	2.602904E-03	5.800226E-05
7.725313E+03	2.613511E-03	5.829294E-05
