#wls	flux	fluxerr
1.592848E+03	5.276758E-04	3.110579E-05
1.632669E+03	5.328705E-04	3.127240E-05
1.672491E+03	5.381984E-04	3.144037E-05
1.712312E+03	5.434378E-04	3.159653E-05
1.752133E+03	5.486587E-04	3.174478E-05
1.791954E+03	5.539313E-04	3.188903E-05
1.831775E+03	5.591216E-04	3.202132E-05
1.871597E+03	5.645012E-04	3.215701E-05
1.911418E+03	5.698284E-04	3.228203E-05
1.951239E+03	5.752680E-04	3.240549E-05
1.991060E+03	5.807768E-04	3.252467E-05
2.030881E+03	5.865155E-04	3.264820E-05
2.070703E+03	5.923276E-04	3.276697E-05
2.110524E+03	5.982595E-04	3.288321E-05
2.150345E+03	6.044575E-04	3.300454E-05
2.190166E+03	6.106410E-04	3.311520E-05
2.229987E+03	6.170475E-04	3.322773E-05
2.269809E+03	6.233829E-04	3.332589E-05
2.309630E+03	6.295567E-04	3.340470E-05
2.349451E+03	6.355777E-04	3.346452E-05
2.389272E+03	6.411406E-04	3.348936E-05
2.429093E+03	6.463499E-04	3.348492E-05
2.468915E+03	6.508012E-04	3.343065E-05
2.508736E+03	6.546013E-04	3.333275E-05
2.548557E+03	6.574631E-04	3.317740E-05
2.588378E+03	6.594069E-04	3.296671E-05
2.628199E+03	6.604581E-04	3.270310E-05
2.668021E+03	6.603743E-04	3.237583E-05
2.707842E+03	6.592161E-04	3.198942E-05
2.747663E+03	6.568828E-04	3.154061E-05
2.787484E+03	6.534765E-04	3.103604E-05
2.827305E+03	6.489521E-04	3.047531E-05
2.867127E+03	6.433040E-04	2.986003E-05
2.906948E+03	6.365656E-04	2.919369E-05
2.946769E+03	6.289597E-04	2.848837E-05
2.986590E+03	6.208691E-04	2.776287E-05
2.996546E+03	6.187724E-04	2.757853E-05
3.006501E+03	6.166240E-04	2.739207E-05
3.016456E+03	6.144974E-04	2.720677E-05
3.026411E+03	6.123948E-04	2.702271E-05
3.036367E+03	6.103182E-04	2.683996E-05
3.046322E+03	6.082021E-04	2.665567E-05
3.056277E+03	6.061183E-04	2.647298E-05
3.066233E+03	6.040017E-04	2.628906E-05
3.076188E+03	6.019892E-04	2.610984E-05
3.086143E+03	5.999507E-04	2.592968E-05
3.096099E+03	5.980195E-04	2.575433E-05
3.106054E+03	5.960689E-04	2.557830E-05
3.116009E+03	5.942296E-04	2.540719E-05
3.125964E+03	5.923776E-04	2.523568E-05
3.135920E+03	5.906412E-04	2.506922E-05
3.145875E+03	5.890210E-04	2.490779E-05
3.155830E+03	5.873973E-04	2.474629E-05
3.165786E+03	5.858942E-04	2.458993E-05
3.175741E+03	5.845135E-04	2.443874E-05
3.185696E+03	5.831971E-04	2.429023E-05
3.195652E+03	5.820067E-04	2.414695E-05
3.205607E+03	5.809428E-04	2.400886E-05
3.215562E+03	5.800073E-04	2.387596E-05
3.225517E+03	5.792016E-04	2.374827E-05
3.235473E+03	5.785828E-04	2.362804E-05
3.245428E+03	5.780393E-04	2.351066E-05
3.255383E+03	5.776848E-04	2.340069E-05
3.265339E+03	5.775190E-04	2.329802E-05
3.275294E+03	5.775416E-04	2.320256E-05
3.285249E+03	5.777524E-04	2.311419E-05
3.295205E+03	5.780979E-04	2.303069E-05
3.305160E+03	5.786856E-04	2.295626E-05
3.315115E+03	5.795136E-04	2.289070E-05
3.325070E+03	5.805278E-04	2.283176E-05
3.335026E+03	5.817799E-04	2.278136E-05
3.344981E+03	5.833200E-04	2.274134E-05
3.354936E+03	5.850421E-04	2.270743E-05
3.364892E+03	5.870477E-04	2.268345E-05
3.374847E+03	5.893325E-04	2.266908E-05
3.384802E+03	5.918939E-04	2.266409E-05
3.394758E+03	5.947274E-04	2.266813E-05
3.404713E+03	5.978791E-04	2.268283E-05
3.414668E+03	6.012945E-04	2.270594E-05
3.424623E+03	6.050661E-04	2.274079E-05
3.434579E+03	6.091388E-04	2.278513E-05
3.444534E+03	6.135064E-04	2.283856E-05
3.454489E+03	6.182120E-04	2.290250E-05
3.464445E+03	6.232491E-04	2.297653E-05
3.474400E+03	6.286606E-04	2.306203E-05
3.484355E+03	6.343983E-04	2.315703E-05
3.494311E+03	6.405102E-04	2.326308E-05
3.504266E+03	6.469991E-04	2.338007E-05
3.514221E+03	6.539193E-04	2.350973E-05
3.524176E+03	6.612355E-04	2.365054E-05
3.534132E+03	6.690047E-04	2.380431E-05
3.544087E+03	6.771944E-04	2.396962E-05
3.554042E+03	6.859102E-04	2.414993E-05
3.563998E+03	6.951208E-04	2.434384E-05
3.573953E+03	7.048882E-04	2.455321E-05
3.583908E+03	7.151853E-04	2.477678E-05
3.593864E+03	7.260322E-04	2.501491E-05
3.603819E+03	7.375409E-04	2.527112E-05
3.613774E+03	7.496476E-04	2.554283E-05
3.623729E+03	7.624249E-04	2.583214E-05
3.633685E+03	7.758613E-04	2.613826E-05
3.643640E+03	7.900805E-04	2.646492E-05
3.653595E+03	8.050775E-04	2.681149E-05
3.663551E+03	8.208954E-04	2.717892E-05
3.673506E+03	8.375357E-04	2.756674E-05
3.683461E+03	8.551374E-04	2.797901E-05
3.693417E+03	8.736696E-04	2.841411E-05
3.703372E+03	8.932815E-04	2.887632E-05
3.713327E+03	9.139490E-04	2.936417E-05
3.723282E+03	9.357809E-04	2.988050E-05
3.733238E+03	9.588432E-04	3.042666E-05
3.743193E+03	9.831583E-04	3.100261E-05
3.753148E+03	1.008835E-03	3.161094E-05
3.763104E+03	1.035892E-03	3.225144E-05
3.773059E+03	1.064438E-03	3.292658E-05
3.783014E+03	1.094487E-03	3.363580E-05
3.792970E+03	1.126093E-03	3.437988E-05
3.802925E+03	1.159353E-03	3.516075E-05
3.812880E+03	1.194214E-03	3.597573E-05
3.822835E+03	1.230701E-03	3.682461E-05
3.832791E+03	1.268882E-03	3.770830E-05
3.842746E+03	1.308701E-03	3.862415E-05
3.852701E+03	1.350185E-03	3.957186E-05
3.862657E+03	1.393191E-03	4.054618E-05
3.872612E+03	1.437682E-03	4.154509E-05
3.882567E+03	1.483545E-03	4.256436E-05
3.892523E+03	1.530529E-03	4.359598E-05
3.902478E+03	1.578551E-03	4.463682E-05
3.912433E+03	1.627335E-03	4.567845E-05
3.922388E+03	1.676577E-03	4.671191E-05
3.932344E+03	1.726000E-03	4.772923E-05
3.942299E+03	1.775307E-03	4.872205E-05
3.952254E+03	1.824177E-03	4.968174E-05
3.962210E+03	1.872231E-03	5.059825E-05
3.972165E+03	1.919186E-03	5.146450E-05
3.982120E+03	1.964585E-03	5.226900E-05
3.992076E+03	2.008142E-03	5.300520E-05
4.002031E+03	2.049466E-03	5.366396E-05
4.011986E+03	2.088232E-03	5.423829E-05
4.021941E+03	2.124150E-03	5.472233E-05
4.031897E+03	2.156904E-03	5.510984E-05
4.041852E+03	2.186289E-03	5.539764E-05
4.051807E+03	2.212193E-03	5.558506E-05
4.061763E+03	2.234515E-03	5.567184E-05
4.071718E+03	2.253331E-03	5.566216E-05
4.081673E+03	2.268692E-03	5.555956E-05
4.091629E+03	2.280713E-03	5.536907E-05
4.101584E+03	2.289661E-03	5.509928E-05
4.111539E+03	2.295741E-03	5.475707E-05
4.121494E+03	2.299243E-03	5.435124E-05
4.131450E+03	2.300430E-03	5.388960E-05
4.141405E+03	2.299675E-03	5.338236E-05
4.151360E+03	2.297261E-03	5.283732E-05
4.161316E+03	2.293520E-03	5.226320E-05
4.171271E+03	2.288776E-03	5.166817E-05
4.181226E+03	2.283340E-03	5.105993E-05
4.191182E+03	2.277463E-03	5.044453E-05
4.201137E+03	2.271458E-03	4.982918E-05
4.211092E+03	2.265523E-03	4.921834E-05
4.221047E+03	2.259883E-03	4.861687E-05
4.231003E+03	2.254727E-03	4.802867E-05
4.240958E+03	2.250265E-03	4.745795E-05
4.250913E+03	2.246558E-03	4.690561E-05
4.260869E+03	2.243768E-03	4.637460E-05
4.270824E+03	2.241996E-03	4.586649E-05
4.280779E+03	2.241322E-03	4.538233E-05
4.290735E+03	2.241747E-03	4.492155E-05
4.300690E+03	2.243378E-03	4.448565E-05
4.310645E+03	2.246147E-03	4.407268E-05
4.320601E+03	2.250091E-03	4.368274E-05
4.330556E+03	2.255207E-03	4.331512E-05
4.340511E+03	2.261458E-03	4.296853E-05
4.350466E+03	2.268886E-03	4.264318E-05
4.360422E+03	2.277523E-03	4.233904E-05
4.370377E+03	2.287402E-03	4.205615E-05
4.380332E+03	2.298696E-03	4.179701E-05
4.390288E+03	2.311700E-03	4.156623E-05
4.400243E+03	2.326716E-03	4.136834E-05
4.410198E+03	2.344099E-03	4.120850E-05
4.420154E+03	2.364129E-03	4.109039E-05
4.430109E+03	2.387120E-03	4.101801E-05
4.440064E+03	2.413297E-03	4.099367E-05
4.450019E+03	2.442935E-03	4.102038E-05
4.459975E+03	2.476201E-03	4.109910E-05
4.469930E+03	2.513198E-03	4.122971E-05
4.479885E+03	2.554046E-03	4.141230E-05
4.489841E+03	2.598625E-03	4.164309E-05
4.499796E+03	2.646707E-03	4.191672E-05
4.509751E+03	2.697981E-03	4.222676E-05
4.519707E+03	2.751946E-03	4.256410E-05
4.529662E+03	2.807940E-03	4.291763E-05
4.539617E+03	2.865174E-03	4.327483E-05
4.549572E+03	2.922772E-03	4.362250E-05
4.559528E+03	2.979737E-03	4.394628E-05
4.569483E+03	3.035050E-03	4.423227E-05
4.579438E+03	3.087714E-03	4.446758E-05
4.589394E+03	3.136867E-03	4.464190E-05
4.599349E+03	3.181628E-03	4.474524E-05
4.609304E+03	3.221356E-03	4.477153E-05
4.619260E+03	3.255438E-03	4.471540E-05
4.629215E+03	3.283346E-03	4.457304E-05
4.639170E+03	3.304691E-03	4.434270E-05
4.649125E+03	3.319003E-03	4.402175E-05
4.659081E+03	3.326047E-03	4.361083E-05
4.669036E+03	3.325497E-03	4.310941E-05
4.678991E+03	3.317217E-03	4.251946E-05
4.688947E+03	3.301226E-03	4.184487E-05
4.698902E+03	3.277663E-03	4.109086E-05
4.708857E+03	3.247060E-03	4.026729E-05
4.718813E+03	3.210033E-03	3.938459E-05
4.728768E+03	3.167555E-03	3.845707E-05
4.738723E+03	3.120788E-03	3.750065E-05
4.748678E+03	3.070996E-03	3.653178E-05
4.758634E+03	3.019636E-03	3.556843E-05
4.768589E+03	2.968049E-03	3.462649E-05
4.778544E+03	2.917369E-03	3.371882E-05
4.788500E+03	2.868739E-03	3.285785E-05
4.798455E+03	2.823137E-03	3.205369E-05
4.808410E+03	2.781695E-03	3.131784E-05
4.818366E+03	2.745383E-03	3.065962E-05
4.828321E+03	2.715127E-03	3.008760E-05
4.838276E+03	2.691744E-03	2.960896E-05
4.848231E+03	2.676015E-03	2.922999E-05
4.858187E+03	2.668405E-03	2.895340E-05
4.868142E+03	2.669340E-03	2.878156E-05
4.878097E+03	2.679118E-03	2.871554E-05
4.888053E+03	2.697757E-03	2.875355E-05
4.898008E+03	2.725177E-03	2.889297E-05
4.907963E+03	2.760999E-03	2.912823E-05
4.917919E+03	2.804485E-03	2.945020E-05
4.927874E+03	2.854575E-03	2.984671E-05
4.937829E+03	2.909823E-03	3.030183E-05
4.947784E+03	2.968345E-03	3.079543E-05
4.957740E+03	3.027940E-03	3.130442E-05
4.967695E+03	3.086212E-03	3.180402E-05
4.977650E+03	3.140591E-03	3.226793E-05
4.987606E+03	3.188638E-03	3.267143E-05
4.997561E+03	3.228381E-03	3.299474E-05
5.007516E+03	3.258624E-03	3.322610E-05
5.017472E+03	3.279074E-03	3.336287E-05
5.027427E+03	3.289897E-03	3.340701E-05
5.037382E+03	3.292073E-03	3.336862E-05
5.047337E+03	3.287069E-03	3.326254E-05
5.057293E+03	3.276616E-03	3.310615E-05
5.067248E+03	3.262526E-03	3.291749E-05
5.077203E+03	3.246690E-03	3.271531E-05
5.087159E+03	3.230775E-03	3.251597E-05
5.097114E+03	3.216086E-03	3.233216E-05
5.107069E+03	3.203654E-03	3.217379E-05
5.117025E+03	3.194299E-03	3.204861E-05
5.126980E+03	3.188466E-03	3.196064E-05
5.136935E+03	3.186426E-03	3.191216E-05
5.146890E+03	3.188354E-03	3.190451E-05
5.156846E+03	3.194255E-03	3.193735E-05
5.166801E+03	3.204133E-03	3.201035E-05
5.176756E+03	3.217978E-03	3.212306E-05
5.186712E+03	3.235851E-03	3.227574E-05
5.196667E+03	3.257941E-03	3.246996E-05
5.206622E+03	3.284268E-03	3.270560E-05
5.216578E+03	3.314946E-03	3.298347E-05
5.226533E+03	3.349880E-03	3.330231E-05
5.236488E+03	3.388963E-03	3.366077E-05
5.246443E+03	3.431937E-03	3.405596E-05
5.256399E+03	3.478304E-03	3.448267E-05
5.266354E+03	3.527598E-03	3.493602E-05
5.276309E+03	3.579135E-03	3.540894E-05
5.286265E+03	3.632169E-03	3.589385E-05
5.296220E+03	3.685902E-03	3.638265E-05
5.306175E+03	3.739563E-03	3.686758E-05
5.316131E+03	3.792244E-03	3.733955E-05
5.326086E+03	3.843203E-03	3.779118E-05
5.336041E+03	3.891658E-03	3.821476E-05
5.345996E+03	3.936952E-03	3.860384E-05
5.355952E+03	3.978385E-03	3.895166E-05
5.365907E+03	4.015586E-03	3.925469E-05
5.375862E+03	4.048209E-03	3.950973E-05
5.385818E+03	4.076045E-03	3.971495E-05
5.395773E+03	4.099497E-03	3.987452E-05
5.405728E+03	4.119087E-03	3.999377E-05
5.415684E+03	4.135375E-03	4.007838E-05
5.425639E+03	4.149338E-03	4.013805E-05
5.435594E+03	4.161743E-03	4.018039E-05
5.445549E+03	4.173282E-03	4.021227E-05
5.455505E+03	4.184431E-03	4.023842E-05
5.465460E+03	4.195171E-03	4.025880E-05
5.475415E+03	4.204176E-03	4.026086E-05
5.485371E+03	4.208304E-03	4.021482E-05
5.495326E+03	4.203427E-03	4.008165E-05
5.505281E+03	4.185608E-03	3.982417E-05
5.515237E+03	4.151466E-03	3.941085E-05
5.525192E+03	4.098346E-03	3.881735E-05
5.535147E+03	4.025037E-03	3.803329E-05
5.545102E+03	3.932272E-03	3.706681E-05
5.555058E+03	3.822114E-03	3.593856E-05
5.565013E+03	3.697512E-03	3.467743E-05
5.574968E+03	3.562452E-03	3.332183E-05
5.584924E+03	3.421147E-03	3.191195E-05
5.594879E+03	3.277803E-03	3.048759E-05
5.604834E+03	3.136466E-03	2.908665E-05
5.614790E+03	3.000856E-03	2.774360E-05
5.624745E+03	2.874120E-03	2.648723E-05
5.634700E+03	2.759013E-03	2.534234E-05
5.644655E+03	2.657764E-03	2.432853E-05
5.654611E+03	2.572195E-03	2.346135E-05
5.664566E+03	2.503682E-03	2.275198E-05
5.674521E+03	2.453395E-03	2.220947E-05
5.684477E+03	2.422247E-03	2.184026E-05
5.694432E+03	2.410981E-03	2.164904E-05
5.704387E+03	2.420286E-03	2.163976E-05
5.714343E+03	2.450814E-03	2.181582E-05
5.724298E+03	2.503114E-03	2.217945E-05
5.734253E+03	2.577752E-03	2.273282E-05
5.744209E+03	2.675175E-03	2.347680E-05
5.754164E+03	2.795534E-03	2.440946E-05
5.764119E+03	2.938590E-03	2.552533E-05
5.774074E+03	3.103680E-03	2.681518E-05
5.784030E+03	3.289227E-03	2.826196E-05
5.793985E+03	3.492736E-03	2.984096E-05
5.803940E+03	3.710690E-03	3.151921E-05
5.813896E+03	3.938408E-03	3.325458E-05
5.823851E+03	4.170109E-03	3.499667E-05
5.833806E+03	4.399235E-03	3.668983E-05
5.843762E+03	4.619477E-03	3.828192E-05
5.853717E+03	4.824683E-03	3.972358E-05
5.863672E+03	5.008873E-03	4.096832E-05
5.873627E+03	5.166950E-03	4.197830E-05
5.883583E+03	5.294877E-03	4.272551E-05
5.893538E+03	5.389445E-03	4.318968E-05
5.903493E+03	5.449026E-03	4.336393E-05
5.913449E+03	5.473189E-03	4.325136E-05
5.923404E+03	5.462778E-03	4.286524E-05
5.933359E+03	5.420275E-03	4.223146E-05
5.943315E+03	5.349222E-03	4.138353E-05
5.953270E+03	5.253893E-03	4.035976E-05
5.963225E+03	5.139331E-03	3.920333E-05
5.973180E+03	5.010683E-03	3.795697E-05
5.983136E+03	4.872917E-03	3.666090E-05
5.993091E+03	4.730537E-03	3.535066E-05
6.003046E+03	4.587474E-03	3.405656E-05
6.013002E+03	4.447096E-03	3.280387E-05
6.022957E+03	4.311867E-03	3.161052E-05
6.032912E+03	4.183771E-03	3.049046E-05
6.042868E+03	4.064299E-03	2.945371E-05
6.052823E+03	3.954283E-03	2.850533E-05
6.062778E+03	3.854284E-03	2.764835E-05
6.072733E+03	3.764535E-03	2.688347E-05
6.082689E+03	3.685035E-03	2.620979E-05
6.092644E+03	3.615471E-03	2.562432E-05
6.102599E+03	3.555556E-03	2.512446E-05
6.112555E+03	3.504853E-03	2.470669E-05
6.122510E+03	3.462945E-03	2.436786E-05
6.132465E+03	3.429281E-03	2.410405E-05
6.142421E+03	3.403339E-03	2.391173E-05
6.152376E+03	3.384462E-03	2.378660E-05
6.162331E+03	3.372068E-03	2.372506E-05
6.172286E+03	3.365501E-03	2.372310E-05
6.182242E+03	3.364140E-03	2.377699E-05
6.192197E+03	3.367203E-03	2.388123E-05
6.202152E+03	3.373834E-03	2.402948E-05
6.212108E+03	3.383035E-03	2.421433E-05
6.222063E+03	3.393854E-03	2.442864E-05
6.232018E+03	3.405115E-03	2.466347E-05
6.241974E+03	3.415748E-03	2.491046E-05
6.251929E+03	3.424704E-03	2.516112E-05
6.261884E+03	3.431139E-03	2.540822E-05
6.271839E+03	3.434250E-03	2.564455E-05
6.281795E+03	3.433434E-03	2.586415E-05
6.291750E+03	3.428429E-03	2.606338E-05
6.301705E+03	3.419315E-03	2.624112E-05
6.311661E+03	3.406181E-03	2.639624E-05
6.321616E+03	3.389603E-03	2.653145E-05
6.331571E+03	3.370216E-03	2.665004E-05
6.341527E+03	3.348644E-03	2.675543E-05
6.351482E+03	3.325546E-03	2.685153E-05
6.361437E+03	3.301436E-03	2.694132E-05
6.371392E+03	3.276819E-03	2.702787E-05
6.381348E+03	3.251985E-03	2.711275E-05
6.391303E+03	3.227201E-03	2.719741E-05
6.401258E+03	3.202518E-03	2.728165E-05
6.411214E+03	3.178008E-03	2.736547E-05
6.421169E+03	3.153599E-03	2.744770E-05
6.431124E+03	3.129249E-03	2.752748E-05
6.441080E+03	3.105034E-03	2.760496E-05
6.451035E+03	3.081116E-03	2.768114E-05
6.460990E+03	3.057758E-03	2.775803E-05
6.470945E+03	3.035444E-03	2.783981E-05
6.480901E+03	3.014761E-03	2.793179E-05
6.490856E+03	2.996496E-03	2.804145E-05
6.500811E+03	2.981459E-03	2.817676E-05
6.510767E+03	2.970557E-03	2.834698E-05
6.520722E+03	2.964751E-03	2.856218E-05
6.530677E+03	2.964722E-03	2.883009E-05
6.540633E+03	2.970991E-03	2.915711E-05
6.550588E+03	2.983769E-03	2.954671E-05
6.560543E+03	3.002574E-03	2.999552E-05
6.570498E+03	3.026628E-03	3.049696E-05
6.580454E+03	3.054857E-03	3.104115E-05
6.590409E+03	3.085811E-03	3.161397E-05
6.600364E+03	3.117832E-03	3.219863E-05
6.610320E+03	3.149158E-03	3.277674E-05
6.620275E+03	3.178010E-03	3.332911E-05
6.630230E+03	3.202491E-03	3.383482E-05
6.640186E+03	3.221038E-03	3.427590E-05
6.650141E+03	3.232496E-03	3.463837E-05
6.660096E+03	3.235992E-03	3.491102E-05
6.670051E+03	3.231052E-03	3.508682E-05
6.680007E+03	3.217668E-03	3.516377E-05
6.689962E+03	3.196138E-03	3.514334E-05
6.699917E+03	3.167055E-03	3.503048E-05
6.709873E+03	3.131136E-03	3.483173E-05
6.719828E+03	3.089419E-03	3.455753E-05
6.729783E+03	3.042959E-03	3.421882E-05
6.739739E+03	2.992964E-03	3.382863E-05
6.749694E+03	2.940662E-03	3.340053E-05
6.759649E+03	2.887303E-03	3.294867E-05
6.769604E+03	2.834124E-03	3.248733E-05
6.779560E+03	2.782338E-03	3.203081E-05
6.789515E+03	2.733109E-03	3.159304E-05
6.799470E+03	2.687549E-03	3.118759E-05
6.809426E+03	2.646608E-03	3.082628E-05
6.819381E+03	2.611319E-03	3.052203E-05
6.829336E+03	2.582462E-03	3.028489E-05
6.839292E+03	2.560844E-03	3.012529E-05
6.849247E+03	2.547150E-03	3.005225E-05
6.859202E+03	2.542037E-03	3.007448E-05
6.869157E+03	2.546055E-03	3.019937E-05
6.879113E+03	2.559604E-03	3.043251E-05
6.889068E+03	2.582826E-03	3.077636E-05
6.899023E+03	2.615652E-03	3.123074E-05
6.908979E+03	2.657945E-03	3.179453E-05
6.918934E+03	2.709197E-03	3.246209E-05
6.928889E+03	2.768768E-03	3.322602E-05
6.938845E+03	2.835705E-03	3.407502E-05
6.948800E+03	2.908477E-03	3.499071E-05
6.958755E+03	2.985226E-03	3.595062E-05
6.968710E+03	3.063879E-03	3.692955E-05
6.978666E+03	3.141960E-03	3.789736E-05
6.988621E+03	3.216954E-03	3.882336E-05
6.998576E+03	3.286384E-03	3.967728E-05
7.008532E+03	3.348091E-03	4.043276E-05
7.018487E+03	3.400352E-03	4.106870E-05
7.028442E+03	3.441857E-03	4.156914E-05
7.038398E+03	3.472154E-03	4.192860E-05
7.048353E+03	3.491265E-03	4.214743E-05
7.058308E+03	3.499921E-03	4.223465E-05
7.068263E+03	3.499325E-03	4.220510E-05
7.078219E+03	3.491082E-03	4.207850E-05
7.088174E+03	3.477134E-03	4.187867E-05
7.098129E+03	3.459586E-03	4.163139E-05
7.108085E+03	3.440555E-03	4.136249E-05
7.118040E+03	3.422022E-03	4.109615E-05
7.127995E+03	3.405844E-03	4.085492E-05
7.137951E+03	3.393444E-03	4.065609E-05
7.147906E+03	3.386029E-03	4.051421E-05
7.157861E+03	3.384222E-03	4.043681E-05
7.167817E+03	3.388279E-03	4.042697E-05
7.177772E+03	3.398195E-03	4.048459E-05
7.187727E+03	3.413471E-03	4.060376E-05
7.197682E+03	3.433206E-03	4.077375E-05
7.207638E+03	3.456371E-03	4.098244E-05
7.217593E+03	3.481526E-03	4.121292E-05
7.227548E+03	3.507208E-03	4.144814E-05
7.237504E+03	3.531676E-03	4.166787E-05
7.247459E+03	3.553237E-03	4.185269E-05
7.257414E+03	3.570151E-03	4.198267E-05
7.267370E+03	3.580795E-03	4.203949E-05
7.277325E+03	3.583669E-03	4.200637E-05
7.287280E+03	3.577577E-03	4.187018E-05
7.297235E+03	3.561458E-03	4.161946E-05
7.307191E+03	3.534987E-03	4.125138E-05
7.317146E+03	3.498027E-03	4.076524E-05
7.327101E+03	3.451075E-03	4.016767E-05
7.337057E+03	3.395084E-03	3.947051E-05
7.347012E+03	3.331494E-03	3.869111E-05
7.356967E+03	3.261825E-03	3.784756E-05
7.366923E+03	3.187917E-03	3.696156E-05
7.376878E+03	3.111489E-03	3.605318E-05
7.386833E+03	3.034313E-03	3.514306E-05
7.396788E+03	2.957881E-03	3.424845E-05
7.406744E+03	2.883584E-03	3.338540E-05
7.416699E+03	2.812486E-03	3.256613E-05
7.426654E+03	2.745510E-03	3.180124E-05
7.436610E+03	2.683350E-03	3.109868E-05
7.446565E+03	2.626439E-03	3.046347E-05
7.456520E+03	2.575030E-03	2.989856E-05
7.466476E+03	2.529272E-03	2.940579E-05
7.476431E+03	2.489062E-03	2.898411E-05
7.486386E+03	2.454255E-03	2.863205E-05
7.496341E+03	2.424520E-03	2.834576E-05
7.506297E+03	2.399469E-03	2.812063E-05
7.516252E+03	2.378624E-03	2.795107E-05
7.526207E+03	2.361416E-03	2.783045E-05
7.536163E+03	2.347185E-03	2.775105E-05
7.546118E+03	2.335171E-03	2.770387E-05
7.556073E+03	2.324486E-03	2.767840E-05
7.566029E+03	2.314369E-03	2.766543E-05
7.575984E+03	2.304284E-03	2.765838E-05
7.585939E+03	2.293998E-03	2.765420E-05
7.595894E+03	2.283903E-03	2.765735E-05
7.605850E+03	2.274704E-03	2.767623E-05
7.615805E+03	2.267262E-03	2.772124E-05
7.625760E+03	2.262383E-03	2.780243E-05
7.635716E+03	2.260605E-03	2.792672E-05
7.645671E+03	2.262362E-03	2.809992E-05
7.655626E+03	2.267782E-03	2.832418E-05
7.665582E+03	2.276933E-03	2.860104E-05
7.675537E+03	2.289579E-03	2.892819E-05
7.685492E+03	2.305409E-03	2.930239E-05
7.695447E+03	2.323814E-03	2.971651E-05
7.705403E+03	2.343992E-03	3.016081E-05
7.715358E+03	2.365146E-03	3.062536E-05
7.725313E+03	2.386235E-03	3.109679E-05
