#wls	flux	fluxerr
1.592848E+03	3.690673E-04	1.712825E-05
1.632669E+03	3.733974E-04	1.726836E-05
1.672491E+03	3.776212E-04	1.740060E-05
1.712312E+03	3.819432E-04	1.753433E-05
1.752133E+03	3.862017E-04	1.766203E-05
1.791954E+03	3.905308E-04	1.778975E-05
1.831775E+03	3.947632E-04	1.790977E-05
1.871597E+03	3.991114E-04	1.803164E-05
1.911418E+03	4.034055E-04	1.814757E-05
1.951239E+03	4.077046E-04	1.826014E-05
1.991060E+03	4.119909E-04	1.836845E-05
2.030881E+03	4.162452E-04	1.847156E-05
2.070703E+03	4.205280E-04	1.857205E-05
2.110524E+03	4.248198E-04	1.866895E-05
2.150345E+03	4.291011E-04	1.876130E-05
2.190166E+03	4.333514E-04	1.884810E-05
2.229987E+03	4.376312E-04	1.893188E-05
2.269809E+03	4.418399E-04	1.900820E-05
2.309630E+03	4.460380E-04	1.907956E-05
2.349451E+03	4.502871E-04	1.914849E-05
2.389272E+03	4.544876E-04	1.921062E-05
2.429093E+03	4.586214E-04	1.926512E-05
2.468915E+03	4.628330E-04	1.931795E-05
2.508736E+03	4.670262E-04	1.936494E-05
2.548557E+03	4.712664E-04	1.940869E-05
2.588378E+03	4.756204E-04	1.945176E-05
2.628199E+03	4.799968E-04	1.949022E-05
2.668021E+03	4.845429E-04	1.952986E-05
2.707842E+03	4.892488E-04	1.956999E-05
2.747663E+03	4.941822E-04	1.961304E-05
2.787484E+03	4.994105E-04	1.966129E-05
2.827305E+03	5.049983E-04	1.971685E-05
2.867127E+03	5.110812E-04	1.978445E-05
2.906948E+03	5.176425E-04	1.986279E-05
2.946769E+03	5.249499E-04	1.996139E-05
2.986590E+03	5.330429E-04	2.008078E-05
2.996546E+03	5.351510E-04	2.011233E-05
3.006501E+03	5.373629E-04	2.014716E-05
3.016456E+03	5.396765E-04	2.018515E-05
3.026411E+03	5.420212E-04	2.022364E-05
3.036367E+03	5.443961E-04	2.026258E-05
3.046322E+03	5.468705E-04	2.030453E-05
3.056277E+03	5.493730E-04	2.034684E-05
3.066233E+03	5.519726E-04	2.039201E-05
3.076188E+03	5.546674E-04	2.043996E-05
3.086143E+03	5.574560E-04	2.049060E-05
3.096099E+03	5.602689E-04	2.054136E-05
3.106054E+03	5.631729E-04	2.059467E-05
3.116009E+03	5.661672E-04	2.065046E-05
3.125964E+03	5.692490E-04	2.070860E-05
3.135920E+03	5.724178E-04	2.076906E-05
3.145875E+03	5.756712E-04	2.083170E-05
3.155830E+03	5.790745E-04	2.089887E-05
3.165786E+03	5.824925E-04	2.096563E-05
3.175741E+03	5.860562E-04	2.103669E-05
3.185696E+03	5.896974E-04	2.110956E-05
3.195652E+03	5.934143E-04	2.118414E-05
3.205607E+03	5.972707E-04	2.126268E-05
3.215562E+03	6.012637E-04	2.134502E-05
3.225517E+03	6.053258E-04	2.142875E-05
3.235473E+03	6.095204E-04	2.151604E-05
3.245428E+03	6.138445E-04	2.160677E-05
3.255383E+03	6.182324E-04	2.169858E-05
3.265339E+03	6.228087E-04	2.179581E-05
3.275294E+03	6.274444E-04	2.189387E-05
3.285249E+03	6.322636E-04	2.199709E-05
3.295205E+03	6.372005E-04	2.210310E-05
3.305160E+03	6.422535E-04	2.221180E-05
3.315115E+03	6.474828E-04	2.232523E-05
3.325070E+03	6.528233E-04	2.244109E-05
3.335026E+03	6.583353E-04	2.256140E-05
3.344981E+03	6.639555E-04	2.268394E-05
3.354936E+03	6.698041E-04	2.281275E-05
3.364892E+03	6.757576E-04	2.294357E-05
3.374847E+03	6.819361E-04	2.308042E-05
3.384802E+03	6.882172E-04	2.321908E-05
3.394758E+03	6.947208E-04	2.336355E-05
3.404713E+03	7.013855E-04	2.351169E-05
3.414668E+03	7.082711E-04	2.366544E-05
3.424623E+03	7.153771E-04	2.382468E-05
3.434579E+03	7.226442E-04	2.398739E-05
3.444534E+03	7.301331E-04	2.415549E-05
3.454489E+03	7.378441E-04	2.432892E-05
3.464445E+03	7.458368E-04	2.450955E-05
3.474400E+03	7.539978E-04	2.469356E-05
3.484355E+03	7.624449E-04	2.488473E-05
3.494311E+03	7.711812E-04	2.508305E-05
3.504266E+03	7.802095E-04	2.528850E-05
3.514221E+03	7.894769E-04	2.549926E-05
3.524176E+03	7.990456E-04	2.571725E-05
3.534132E+03	8.089764E-04	2.594429E-05
3.544087E+03	8.192181E-04	2.617861E-05
3.554042E+03	8.297773E-04	2.642030E-05
3.563998E+03	8.407158E-04	2.667119E-05
3.573953E+03	8.520402E-04	2.693135E-05
3.583908E+03	8.637576E-04	2.720086E-05
3.593864E+03	8.758747E-04	2.747976E-05
3.603819E+03	8.883988E-04	2.776813E-05
3.613774E+03	9.013924E-04	2.806776E-05
3.623729E+03	9.148076E-04	2.837698E-05
3.633685E+03	9.287060E-04	2.869752E-05
3.643640E+03	9.430939E-04	2.902938E-05
3.653595E+03	9.579776E-04	2.937257E-05
3.663551E+03	9.734164E-04	2.972871E-05
3.673506E+03	9.893600E-04	3.009602E-05
3.683461E+03	1.005866E-03	3.047607E-05
3.693417E+03	1.022882E-03	3.086705E-05
3.703372E+03	1.040516E-03	3.127199E-05
3.713327E+03	1.058713E-03	3.168897E-05
3.723282E+03	1.077468E-03	3.211766E-05
3.733238E+03	1.096828E-03	3.255921E-05
3.743193E+03	1.116732E-03	3.301154E-05
3.753148E+03	1.137273E-03	3.347719E-05
3.763104E+03	1.158329E-03	3.395232E-05
3.773059E+03	1.179988E-03	3.443927E-05
3.783014E+03	1.202173E-03	3.493556E-05
3.792970E+03	1.224857E-03	3.544018E-05
3.802925E+03	1.248062E-03	3.595353E-05
3.812880E+03	1.271750E-03	3.647433E-05
3.822835E+03	1.295934E-03	3.700272E-05
3.832791E+03	1.320463E-03	3.753418E-05
3.842746E+03	1.345339E-03	3.806862E-05
3.852701E+03	1.370559E-03	3.860578E-05
3.862657E+03	1.396062E-03	3.914384E-05
3.872612E+03	1.421732E-03	3.967937E-05
3.882567E+03	1.447553E-03	4.021184E-05
3.892523E+03	1.473504E-03	4.074060E-05
3.902478E+03	1.499405E-03	4.126062E-05
3.912433E+03	1.525231E-03	4.177119E-05
3.922388E+03	1.550901E-03	4.227012E-05
3.932344E+03	1.576384E-03	4.275663E-05
3.942299E+03	1.601498E-03	4.322580E-05
3.952254E+03	1.626313E-03	4.367969E-05
3.962210E+03	1.650598E-03	4.411218E-05
3.972165E+03	1.674376E-03	4.452411E-05
3.982120E+03	1.697574E-03	4.491371E-05
3.992076E+03	1.720073E-03	4.527804E-05
4.002031E+03	1.741808E-03	4.561572E-05
4.011986E+03	1.762723E-03	4.592556E-05
4.021941E+03	1.782818E-03	4.620785E-05
4.031897E+03	1.802002E-03	4.646058E-05
4.041852E+03	1.820241E-03	4.668325E-05
4.051807E+03	1.837466E-03	4.687445E-05
4.061763E+03	1.853755E-03	4.703662E-05
4.071718E+03	1.869013E-03	4.716767E-05
4.081673E+03	1.883246E-03	4.726821E-05
4.091629E+03	1.896515E-03	4.734021E-05
4.101584E+03	1.908759E-03	4.738248E-05
4.111539E+03	1.920058E-03	4.739747E-05
4.121494E+03	1.930414E-03	4.738562E-05
4.131450E+03	1.939841E-03	4.734764E-05
4.141405E+03	1.948487E-03	4.728754E-05
4.151360E+03	1.956296E-03	4.720430E-05
4.161316E+03	1.963349E-03	4.710021E-05
4.171271E+03	1.969771E-03	4.697857E-05
4.181226E+03	1.975532E-03	4.683896E-05
4.191182E+03	1.980807E-03	4.668577E-05
4.201137E+03	1.985577E-03	4.651879E-05
4.211092E+03	1.989982E-03	4.634153E-05
4.221047E+03	1.994053E-03	4.615481E-05
4.231003E+03	1.997895E-03	4.596125E-05
4.240958E+03	2.001541E-03	4.576170E-05
4.250913E+03	2.005099E-03	4.555872E-05
4.260869E+03	2.008640E-03	4.535396E-05
4.270824E+03	2.012198E-03	4.514822E-05
4.280779E+03	2.015845E-03	4.494309E-05
4.290735E+03	2.019647E-03	4.474003E-05
4.300690E+03	2.023671E-03	4.454045E-05
4.310645E+03	2.027913E-03	4.434421E-05
4.320601E+03	2.032498E-03	4.415394E-05
4.330556E+03	2.037385E-03	4.396863E-05
4.340511E+03	2.042689E-03	4.379063E-05
4.350466E+03	2.048328E-03	4.361805E-05
4.360422E+03	2.054402E-03	4.345287E-05
4.370377E+03	2.060904E-03	4.329479E-05
4.380332E+03	2.067815E-03	4.314324E-05
4.390288E+03	2.075098E-03	4.299730E-05
4.400243E+03	2.082735E-03	4.285648E-05
4.410198E+03	2.090697E-03	4.272005E-05
4.420154E+03	2.098946E-03	4.258711E-05
4.430109E+03	2.107434E-03	4.245664E-05
4.440064E+03	2.116076E-03	4.232683E-05
4.450019E+03	2.124867E-03	4.219757E-05
4.459975E+03	2.133707E-03	4.206684E-05
4.469930E+03	2.142547E-03	4.193367E-05
4.479885E+03	2.151358E-03	4.179757E-05
4.489841E+03	2.160048E-03	4.165679E-05
4.499796E+03	2.168606E-03	4.151122E-05
4.509751E+03	2.176958E-03	4.135953E-05
4.519707E+03	2.185027E-03	4.120042E-05
4.529662E+03	2.192763E-03	4.103309E-05
4.539617E+03	2.200141E-03	4.085728E-05
4.549572E+03	2.207082E-03	4.067172E-05
4.559528E+03	2.213563E-03	4.047622E-05
4.569483E+03	2.219510E-03	4.026967E-05
4.579438E+03	2.224879E-03	4.005157E-05
4.589394E+03	2.229691E-03	3.982257E-05
4.599349E+03	2.233860E-03	3.958144E-05
4.609304E+03	2.237393E-03	3.932862E-05
4.619260E+03	2.240306E-03	3.906471E-05
4.629215E+03	2.242570E-03	3.878953E-05
4.639170E+03	2.244197E-03	3.850356E-05
4.649125E+03	2.245260E-03	3.820844E-05
4.659081E+03	2.245741E-03	3.790408E-05
4.669036E+03	2.245712E-03	3.759201E-05
4.678991E+03	2.245230E-03	3.727346E-05
4.688947E+03	2.244366E-03	3.694980E-05
4.698902E+03	2.243175E-03	3.662215E-05
4.708857E+03	2.241801E-03	3.629304E-05
4.718813E+03	2.240293E-03	3.596340E-05
4.728768E+03	2.238736E-03	3.563465E-05
4.738723E+03	2.237275E-03	3.530918E-05
4.748678E+03	2.235977E-03	3.498805E-05
4.758634E+03	2.234964E-03	3.467315E-05
4.768589E+03	2.234343E-03	3.436607E-05
4.778544E+03	2.234176E-03	3.406765E-05
4.788500E+03	2.234513E-03	3.377853E-05
4.798455E+03	2.235451E-03	3.350001E-05
4.808410E+03	2.236976E-03	3.323176E-05
4.818366E+03	2.239179E-03	3.297488E-05
4.828321E+03	2.242066E-03	3.272923E-05
4.838276E+03	2.245667E-03	3.249495E-05
4.848231E+03	2.250029E-03	3.227247E-05
4.858187E+03	2.255118E-03	3.206099E-05
4.868142E+03	2.260967E-03	3.186075E-05
4.878097E+03	2.267578E-03	3.167147E-05
4.888053E+03	2.274891E-03	3.149206E-05
4.898008E+03	2.282943E-03	3.132279E-05
4.907963E+03	2.291685E-03	3.116272E-05
4.917919E+03	2.301084E-03	3.101121E-05
4.927874E+03	2.311077E-03	3.086718E-05
4.937829E+03	2.321619E-03	3.072987E-05
4.947784E+03	2.332686E-03	3.059879E-05
4.957740E+03	2.344171E-03	3.047241E-05
4.967695E+03	2.356069E-03	3.035054E-05
4.977650E+03	2.368267E-03	3.023167E-05
4.987606E+03	2.380705E-03	3.011496E-05
4.997561E+03	2.393349E-03	2.999996E-05
5.007516E+03	2.406113E-03	2.988558E-05
5.017472E+03	2.418966E-03	2.977148E-05
5.027427E+03	2.431829E-03	2.965670E-05
5.037382E+03	2.444650E-03	2.954070E-05
5.047337E+03	2.457385E-03	2.942303E-05
5.057293E+03	2.469991E-03	2.930328E-05
5.067248E+03	2.482458E-03	2.918147E-05
5.077203E+03	2.494700E-03	2.905670E-05
5.087159E+03	2.506741E-03	2.892943E-05
5.097114E+03	2.518503E-03	2.879892E-05
5.107069E+03	2.530017E-03	2.866570E-05
5.117025E+03	2.541237E-03	2.852943E-05
5.126980E+03	2.552143E-03	2.839009E-05
5.136935E+03	2.562720E-03	2.824772E-05
5.146890E+03	2.572950E-03	2.810232E-05
5.156846E+03	2.582843E-03	2.795424E-05
5.166801E+03	2.592327E-03	2.780292E-05
5.176756E+03	2.601435E-03	2.764896E-05
5.186712E+03	2.610119E-03	2.749210E-05
5.196667E+03	2.618355E-03	2.733232E-05
5.206622E+03	2.626143E-03	2.716993E-05
5.216578E+03	2.633401E-03	2.700431E-05
5.226533E+03	2.640152E-03	2.683600E-05
5.236488E+03	2.646334E-03	2.666468E-05
5.246443E+03	2.651942E-03	2.649058E-05
5.256399E+03	2.656882E-03	2.631308E-05
5.266354E+03	2.661172E-03	2.613268E-05
5.276309E+03	2.664746E-03	2.594908E-05
5.286265E+03	2.667593E-03	2.576248E-05
5.296220E+03	2.669621E-03	2.557234E-05
5.306175E+03	2.670847E-03	2.537918E-05
5.316131E+03	2.671209E-03	2.518275E-05
5.326086E+03	2.670673E-03	2.498308E-05
5.336041E+03	2.669237E-03	2.478050E-05
5.345996E+03	2.666817E-03	2.457458E-05
5.355952E+03	2.663445E-03	2.436594E-05
5.365907E+03	2.659046E-03	2.415423E-05
5.375862E+03	2.653659E-03	2.394014E-05
5.385818E+03	2.647246E-03	2.372362E-05
5.395773E+03	2.639776E-03	2.350468E-05
5.405728E+03	2.631304E-03	2.328411E-05
5.415684E+03	2.621788E-03	2.306177E-05
5.425639E+03	2.611273E-03	2.283829E-05
5.435594E+03	2.599790E-03	2.261416E-05
5.445549E+03	2.587355E-03	2.238969E-05
5.455505E+03	2.574054E-03	2.216579E-05
5.465460E+03	2.559935E-03	2.194298E-05
5.475415E+03	2.545093E-03	2.172212E-05
5.485371E+03	2.529613E-03	2.150371E-05
5.495326E+03	2.513624E-03	2.128855E-05
5.505281E+03	2.497293E-03	2.107775E-05
5.515237E+03	2.480774E-03	2.087227E-05
5.525192E+03	2.464254E-03	2.067333E-05
5.535147E+03	2.447877E-03	2.048178E-05
5.545102E+03	2.431861E-03	2.029908E-05
5.555058E+03	2.416330E-03	2.012589E-05
5.565013E+03	2.401504E-03	1.996369E-05
5.574968E+03	2.387550E-03	1.981348E-05
5.584924E+03	2.374586E-03	1.967590E-05
5.594879E+03	2.362817E-03	1.955230E-05
5.604834E+03	2.352393E-03	1.944359E-05
5.614790E+03	2.343431E-03	1.935042E-05
5.624745E+03	2.336061E-03	1.927357E-05
5.634700E+03	2.330425E-03	1.921390E-05
5.644655E+03	2.326603E-03	1.917182E-05
5.654611E+03	2.324704E-03	1.914797E-05
5.664566E+03	2.324753E-03	1.914233E-05
5.674521E+03	2.326847E-03	1.915546E-05
5.684477E+03	2.331016E-03	1.918742E-05
5.694432E+03	2.337246E-03	1.923791E-05
5.704387E+03	2.345522E-03	1.930661E-05
5.714343E+03	2.355807E-03	1.939306E-05
5.724298E+03	2.368035E-03	1.949656E-05
5.734253E+03	2.382116E-03	1.961623E-05
5.744209E+03	2.397958E-03	1.975117E-05
5.754164E+03	2.415371E-03	1.989969E-05
5.764119E+03	2.434211E-03	2.006046E-05
5.774074E+03	2.454283E-03	2.023177E-05
5.784030E+03	2.475371E-03	2.041172E-05
5.793985E+03	2.497214E-03	2.059802E-05
5.803940E+03	2.519580E-03	2.078865E-05
5.813896E+03	2.542198E-03	2.098128E-05
5.823851E+03	2.564738E-03	2.117306E-05
5.833806E+03	2.586963E-03	2.136192E-05
5.843762E+03	2.608562E-03	2.154520E-05
5.853717E+03	2.629252E-03	2.172047E-05
5.863672E+03	2.648764E-03	2.188540E-05
5.873627E+03	2.666844E-03	2.203782E-05
5.883583E+03	2.683238E-03	2.217555E-05
5.893538E+03	2.697744E-03	2.229684E-05
5.903493E+03	2.710217E-03	2.240046E-05
5.913449E+03	2.720502E-03	2.248506E-05
5.923404E+03	2.728479E-03	2.254963E-05
5.933359E+03	2.734124E-03	2.259395E-05
5.943315E+03	2.737402E-03	2.261773E-05
5.953270E+03	2.738347E-03	2.262126E-05
5.963225E+03	2.737033E-03	2.260517E-05
5.973180E+03	2.733570E-03	2.257041E-05
5.983136E+03	2.728078E-03	2.251800E-05
5.993091E+03	2.720706E-03	2.244924E-05
6.003046E+03	2.711680E-03	2.236605E-05
6.013002E+03	2.701218E-03	2.227033E-05
6.022957E+03	2.689503E-03	2.216366E-05
6.032912E+03	2.676805E-03	2.204835E-05
6.042868E+03	2.663320E-03	2.192610E-05
6.052823E+03	2.649321E-03	2.179928E-05
6.062778E+03	2.635026E-03	2.166978E-05
6.072733E+03	2.620669E-03	2.153962E-05
6.082689E+03	2.606450E-03	2.141054E-05
6.092644E+03	2.592552E-03	2.128419E-05
6.102599E+03	2.579173E-03	2.116226E-05
6.112555E+03	2.566489E-03	2.104633E-05
6.122510E+03	2.554660E-03	2.093783E-05
6.132465E+03	2.543805E-03	2.083783E-05
6.142421E+03	2.534071E-03	2.074767E-05
6.152376E+03	2.525565E-03	2.066833E-05
6.162331E+03	2.518394E-03	2.060083E-05
6.172286E+03	2.512626E-03	2.054583E-05
6.182242E+03	2.508279E-03	2.050362E-05
6.192197E+03	2.505420E-03	2.047491E-05
6.202152E+03	2.504016E-03	2.045954E-05
6.212108E+03	2.504024E-03	2.045728E-05
6.222063E+03	2.505436E-03	2.046818E-05
6.232018E+03	2.508090E-03	2.049103E-05
6.241974E+03	2.511868E-03	2.052499E-05
6.251929E+03	2.516631E-03	2.056904E-05
6.261884E+03	2.522252E-03	2.062231E-05
6.271839E+03	2.528499E-03	2.068303E-05
6.281795E+03	2.535209E-03	2.075002E-05
6.291750E+03	2.542250E-03	2.082235E-05
6.301705E+03	2.549419E-03	2.089853E-05
6.311661E+03	2.556597E-03	2.097774E-05
6.321616E+03	2.563573E-03	2.105840E-05
6.331571E+03	2.570253E-03	2.113989E-05
6.341527E+03	2.576499E-03	2.122123E-05
6.351482E+03	2.582219E-03	2.130180E-05
6.361437E+03	2.587277E-03	2.138062E-05
6.371392E+03	2.591605E-03	2.145725E-05
6.381348E+03	2.595150E-03	2.153136E-05
6.391303E+03	2.597816E-03	2.160228E-05
6.401258E+03	2.599546E-03	2.166961E-05
6.411214E+03	2.600347E-03	2.173348E-05
6.421169E+03	2.600153E-03	2.179342E-05
6.431124E+03	2.598962E-03	2.184943E-05
6.441080E+03	2.596747E-03	2.190124E-05
6.451035E+03	2.593487E-03	2.194842E-05
6.460990E+03	2.589192E-03	2.199072E-05
6.470945E+03	2.583789E-03	2.202723E-05
6.480901E+03	2.577339E-03	2.205812E-05
6.490856E+03	2.569771E-03	2.208245E-05
6.500811E+03	2.561100E-03	2.210001E-05
6.510767E+03	2.551342E-03	2.211056E-05
6.520722E+03	2.540512E-03	2.211388E-05
6.530677E+03	2.528688E-03	2.211030E-05
6.540633E+03	2.515894E-03	2.209967E-05
6.550588E+03	2.502205E-03	2.208229E-05
6.560543E+03	2.487661E-03	2.205818E-05
6.570498E+03	2.472300E-03	2.202734E-05
6.580454E+03	2.456133E-03	2.198954E-05
6.590409E+03	2.439249E-03	2.194527E-05
6.600364E+03	2.421662E-03	2.189434E-05
6.610320E+03	2.403414E-03	2.183684E-05
6.620275E+03	2.384554E-03	2.177292E-05
6.630230E+03	2.365162E-03	2.170307E-05
6.640186E+03	2.345273E-03	2.162734E-05
6.650141E+03	2.324984E-03	2.154639E-05
6.660096E+03	2.304370E-03	2.146071E-05
6.670051E+03	2.283490E-03	2.137065E-05
6.680007E+03	2.262463E-03	2.127714E-05
6.689962E+03	2.241387E-03	2.118095E-05
6.699917E+03	2.220343E-03	2.108272E-05
6.709873E+03	2.199490E-03	2.098386E-05
6.719828E+03	2.178892E-03	2.088489E-05
6.729783E+03	2.158690E-03	2.078711E-05
6.739739E+03	2.139025E-03	2.069183E-05
6.749694E+03	2.119965E-03	2.059969E-05
6.759649E+03	2.101649E-03	2.051205E-05
6.769604E+03	2.084187E-03	2.043001E-05
6.779560E+03	2.067685E-03	2.035464E-05
6.789515E+03	2.052240E-03	2.028697E-05
6.799470E+03	2.037944E-03	2.022798E-05
6.809426E+03	2.024880E-03	2.017857E-05
6.819381E+03	2.013143E-03	2.013978E-05
6.829336E+03	2.002749E-03	2.011187E-05
6.839292E+03	1.993770E-03	2.009567E-05
6.849247E+03	1.986270E-03	2.009192E-05
6.859202E+03	1.980227E-03	2.010053E-05
6.869157E+03	1.975705E-03	2.012222E-05
6.879113E+03	1.972656E-03	2.015662E-05
6.889068E+03	1.971118E-03	2.020421E-05
6.899023E+03	1.971045E-03	2.026460E-05
6.908979E+03	1.972403E-03	2.033751E-05
6.918934E+03	1.975123E-03	2.042228E-05
6.928889E+03	1.979195E-03	2.051889E-05
6.938845E+03	1.984555E-03	2.062669E-05
6.948800E+03	1.991078E-03	2.074442E-05
6.958755E+03	1.998705E-03	2.087147E-05
6.968710E+03	2.007346E-03	2.100689E-05
6.978666E+03	2.016925E-03	2.114990E-05
6.988621E+03	2.027293E-03	2.129888E-05
6.998576E+03	2.038389E-03	2.145317E-05
7.008532E+03	2.050079E-03	2.161130E-05
7.018487E+03	2.062222E-03	2.177173E-05
7.028442E+03	2.074753E-03	2.193371E-05
7.038398E+03	2.087529E-03	2.209565E-05
7.048353E+03	2.100431E-03	2.225620E-05
7.058308E+03	2.113340E-03	2.241403E-05
7.068263E+03	2.126137E-03	2.256777E-05
7.078219E+03	2.138700E-03	2.271606E-05
7.088174E+03	2.150938E-03	2.285782E-05
7.098129E+03	2.162675E-03	2.299111E-05
7.108085E+03	2.173816E-03	2.311485E-05
7.118040E+03	2.184269E-03	2.322795E-05
7.127995E+03	2.193883E-03	2.332875E-05
7.137951E+03	2.202535E-03	2.341588E-05
7.147906E+03	2.210102E-03	2.348799E-05
7.157861E+03	2.216462E-03	2.354375E-05
7.167817E+03	2.221522E-03	2.358215E-05
7.177772E+03	2.225108E-03	2.360131E-05
7.187727E+03	2.227161E-03	2.360066E-05
7.197682E+03	2.227546E-03	2.357877E-05
7.207638E+03	2.226190E-03	2.353493E-05
7.217593E+03	2.222975E-03	2.346797E-05
7.227548E+03	2.217823E-03	2.337715E-05
7.237504E+03	2.210699E-03	2.326225E-05
7.247459E+03	2.201531E-03	2.312264E-05
7.257414E+03	2.190291E-03	2.295820E-05
7.267370E+03	2.177004E-03	2.276939E-05
7.277325E+03	2.161688E-03	2.255660E-05
7.287280E+03	2.144357E-03	2.232021E-05
7.297235E+03	2.125106E-03	2.206145E-05
7.307191E+03	2.103995E-03	2.178122E-05
7.317146E+03	2.081167E-03	2.148128E-05
7.327101E+03	2.056756E-03	2.116327E-05
7.337057E+03	2.030890E-03	2.082879E-05
7.347012E+03	2.003768E-03	2.048017E-05
7.356967E+03	1.975575E-03	2.011957E-05
7.366923E+03	1.946482E-03	1.974901E-05
7.376878E+03	1.916719E-03	1.937106E-05
7.386833E+03	1.886522E-03	1.898833E-05
7.396788E+03	1.856073E-03	1.860288E-05
7.406744E+03	1.825580E-03	1.821697E-05
7.416699E+03	1.795270E-03	1.783302E-05
7.426654E+03	1.765314E-03	1.745287E-05
7.436610E+03	1.735876E-03	1.707824E-05
7.446565E+03	1.707177E-03	1.671138E-05
7.456520E+03	1.679314E-03	1.635328E-05
7.466476E+03	1.652485E-03	1.600589E-05
7.476431E+03	1.626809E-03	1.567033E-05
7.486386E+03	1.602436E-03	1.534799E-05
7.496341E+03	1.579440E-03	1.503951E-05
7.506297E+03	1.557970E-03	1.474620E-05
7.516252E+03	1.538102E-03	1.446863E-05
7.526207E+03	1.519903E-03	1.420724E-05
7.536163E+03	1.503492E-03	1.396293E-05
7.546118E+03	1.488900E-03	1.373572E-05
7.556073E+03	1.476208E-03	1.352610E-05
7.566029E+03	1.465467E-03	1.333427E-05
7.575984E+03	1.456710E-03	1.316020E-05
7.585939E+03	1.449917E-03	1.300338E-05
7.595894E+03	1.445043E-03	1.286310E-05
7.605850E+03	1.442050E-03	1.273869E-05
7.615805E+03	1.440788E-03	1.262851E-05
7.625760E+03	1.441197E-03	1.253173E-05
7.635716E+03	1.443177E-03	1.244719E-05
7.645671E+03	1.446606E-03	1.237358E-05
7.655626E+03	1.451381E-03	1.230977E-05
7.665582E+03	1.457422E-03	1.225483E-05
7.675537E+03	1.464603E-03	1.220753E-05
7.685492E+03	1.472820E-03	1.216681E-05
7.695447E+03	1.481985E-03	1.213180E-05
7.705403E+03	1.491967E-03	1.210130E-05
7.715358E+03	1.502674E-03	1.207447E-05
7.725313E+03	1.513966E-03	1.205013E-05
