#wls	flux	fluxerr
1.592848E+03	3.957240E-04	1.673476E-05
1.632669E+03	3.999217E-04	1.685793E-05
1.672491E+03	4.042280E-04	1.698309E-05
1.712312E+03	4.084719E-04	1.710294E-05
1.752133E+03	4.126335E-04	1.721661E-05
1.791954E+03	4.168557E-04	1.732998E-05
1.831775E+03	4.211219E-04	1.744228E-05
1.871597E+03	4.253304E-04	1.754918E-05
1.911418E+03	4.294606E-04	1.764980E-05
1.951239E+03	4.336573E-04	1.774999E-05
1.991060E+03	4.378159E-04	1.784539E-05
2.030881E+03	4.419985E-04	1.793844E-05
2.070703E+03	4.460957E-04	1.802461E-05
2.110524E+03	4.502552E-04	1.810979E-05
2.150345E+03	4.542804E-04	1.818599E-05
2.190166E+03	4.583179E-04	1.825903E-05
2.229987E+03	4.623419E-04	1.832778E-05
2.269809E+03	4.663269E-04	1.839113E-05
2.309630E+03	4.701614E-04	1.844464E-05
2.349451E+03	4.739062E-04	1.849068E-05
2.389272E+03	4.776239E-04	1.853164E-05
2.429093E+03	4.812911E-04	1.856651E-05
2.468915E+03	4.847166E-04	1.858791E-05
2.508736E+03	4.881383E-04	1.860497E-05
2.548557E+03	4.914551E-04	1.861376E-05
2.588378E+03	4.947389E-04	1.861695E-05
2.628199E+03	4.978975E-04	1.861104E-05
2.668021E+03	5.010914E-04	1.860196E-05
2.707842E+03	5.042376E-04	1.858654E-05
2.747663E+03	5.075006E-04	1.857073E-05
2.787484E+03	5.108843E-04	1.855447E-05
2.827305E+03	5.144761E-04	1.854070E-05
2.867127E+03	5.183630E-04	1.853225E-05
2.906948E+03	5.227065E-04	1.853448E-05
2.946769E+03	5.275881E-04	1.854971E-05
2.986590E+03	5.331598E-04	1.858263E-05
2.996546E+03	5.347329E-04	1.859605E-05
3.006501E+03	5.363485E-04	1.861048E-05
3.016456E+03	5.379348E-04	1.862343E-05
3.026411E+03	5.396357E-04	1.863986E-05
3.036367E+03	5.414505E-04	1.865972E-05
3.046322E+03	5.433070E-04	1.868050E-05
3.056277E+03	5.452055E-04	1.870220E-05
3.066233E+03	5.472161E-04	1.872721E-05
3.076188E+03	5.492676E-04	1.875306E-05
3.086143E+03	5.514304E-04	1.878214E-05
3.096099E+03	5.536333E-04	1.881199E-05
3.106054E+03	5.559462E-04	1.884498E-05
3.116009E+03	5.583672E-04	1.888101E-05
3.125964E+03	5.608272E-04	1.891772E-05
3.135920E+03	5.634623E-04	1.895967E-05
3.145875E+03	5.661354E-04	1.900222E-05
3.155830E+03	5.689131E-04	1.904758E-05
3.165786E+03	5.718622E-04	1.909795E-05
3.175741E+03	5.748467E-04	1.914875E-05
3.185696E+03	5.779996E-04	1.920439E-05
3.195652E+03	5.812525E-04	1.926255E-05
3.205607E+03	5.846046E-04	1.932318E-05
3.215562E+03	5.881205E-04	1.938838E-05
3.225517E+03	5.917323E-04	1.945586E-05
3.235473E+03	5.955050E-04	1.952773E-05
3.245428E+03	5.993713E-04	1.960174E-05
3.255383E+03	6.033948E-04	1.967992E-05
3.265339E+03	6.075734E-04	1.976218E-05
3.275294E+03	6.119059E-04	1.984841E-05
3.285249E+03	6.163903E-04	1.993851E-05
3.295205E+03	6.210248E-04	2.003238E-05
3.305160E+03	6.258080E-04	2.012991E-05
3.315115E+03	6.308013E-04	2.023304E-05
3.325070E+03	6.359402E-04	2.033963E-05
3.335026E+03	6.412227E-04	2.044957E-05
3.344981E+03	6.467109E-04	2.056479E-05
3.354936E+03	6.524029E-04	2.068517E-05
3.364892E+03	6.582972E-04	2.081059E-05
3.374847E+03	6.643308E-04	2.093901E-05
3.384802E+03	6.706272E-04	2.107425E-05
3.394758E+03	6.771236E-04	2.121426E-05
3.404713E+03	6.838803E-04	2.136087E-05
3.414668E+03	6.907763E-04	2.151021E-05
3.424623E+03	6.979938E-04	2.166791E-05
3.434579E+03	7.054122E-04	2.183011E-05
3.444534E+03	7.130932E-04	2.199867E-05
3.454489E+03	7.210387E-04	2.217354E-05
3.464445E+03	7.292505E-04	2.235469E-05
3.474400E+03	7.377311E-04	2.254212E-05
3.484355E+03	7.465437E-04	2.273765E-05
3.494311E+03	7.556913E-04	2.294127E-05
3.504266E+03	7.651196E-04	2.315121E-05
3.514221E+03	7.748922E-04	2.336931E-05
3.524176E+03	7.850156E-04	2.359564E-05
3.534132E+03	7.954955E-04	2.383025E-05
3.544087E+03	8.063969E-04	2.407495E-05
3.554042E+03	8.176696E-04	2.432812E-05
3.563998E+03	8.293216E-04	2.458986E-05
3.573953E+03	8.414771E-04	2.486370E-05
3.583908E+03	8.540292E-04	2.514633E-05
3.593864E+03	8.671024E-04	2.544126E-05
3.603819E+03	8.806481E-04	2.574689E-05
3.613774E+03	8.946766E-04	2.606335E-05
3.623729E+03	9.092539E-04	2.639238E-05
3.633685E+03	9.243893E-04	2.673407E-05
3.643640E+03	9.400924E-04	2.708849E-05
3.653595E+03	9.563718E-04	2.745569E-05
3.663551E+03	9.732358E-04	2.783570E-05
3.673506E+03	9.907486E-04	2.823013E-05
3.683461E+03	1.008917E-03	2.863896E-05
3.693417E+03	1.027690E-03	2.906047E-05
3.703372E+03	1.047183E-03	2.949775E-05
3.713327E+03	1.067287E-03	2.994742E-05
3.723282E+03	1.088113E-03	3.041241E-05
3.733238E+03	1.109660E-03	3.089237E-05
3.743193E+03	1.131864E-03	3.138531E-05
3.753148E+03	1.154774E-03	3.189231E-05
3.763104E+03	1.178377E-03	3.241275E-05
3.773059E+03	1.202713E-03	3.294745E-05
3.783014E+03	1.227647E-03	3.349249E-05
3.792970E+03	1.253268E-03	3.405000E-05
3.802925E+03	1.279543E-03	3.461887E-05
3.812880E+03	1.306438E-03	3.519788E-05
3.822835E+03	1.333852E-03	3.578412E-05
3.832791E+03	1.361852E-03	3.637912E-05
3.842746E+03	1.390325E-03	3.697969E-05
3.852701E+03	1.419212E-03	3.758403E-05
3.862657E+03	1.448447E-03	3.819022E-05
3.872612E+03	1.478013E-03	3.879768E-05
3.882567E+03	1.507832E-03	3.940421E-05
3.892523E+03	1.537764E-03	4.000603E-05
3.902478E+03	1.567834E-03	4.060371E-05
3.912433E+03	1.597835E-03	4.119185E-05
3.922388E+03	1.627728E-03	4.176942E-05
3.932344E+03	1.657414E-03	4.233389E-05
3.942299E+03	1.686848E-03	4.288417E-05
3.952254E+03	1.715818E-03	4.341493E-05
3.962210E+03	1.744278E-03	4.392519E-05
3.972165E+03	1.772187E-03	4.441402E-05
3.982120E+03	1.799339E-03	4.487646E-05
3.992076E+03	1.825754E-03	4.531327E-05
4.002031E+03	1.851292E-03	4.572125E-05
4.011986E+03	1.875823E-03	4.609747E-05
4.021941E+03	1.899335E-03	4.644196E-05
4.031897E+03	1.921767E-03	4.675363E-05
4.041852E+03	1.943073E-03	4.703173E-05
4.051807E+03	1.963164E-03	4.727450E-05
4.061763E+03	1.982017E-03	4.748184E-05
4.071718E+03	1.999621E-03	4.765394E-05
4.081673E+03	2.015930E-03	4.779014E-05
4.091629E+03	2.031010E-03	4.789247E-05
4.101584E+03	2.044889E-03	4.796205E-05
4.111539E+03	2.057461E-03	4.799686E-05
4.121494E+03	2.068927E-03	4.800205E-05
4.131450E+03	2.079209E-03	4.797621E-05
4.141405E+03	2.088431E-03	4.792266E-05
4.151360E+03	2.096634E-03	4.784271E-05
4.161316E+03	2.103867E-03	4.773789E-05
4.171271E+03	2.110234E-03	4.761092E-05
4.181226E+03	2.115801E-03	4.746361E-05
4.191182E+03	2.120685E-03	4.729888E-05
4.201137E+03	2.124962E-03	4.711869E-05
4.211092E+03	2.128714E-03	4.692508E-05
4.221047E+03	2.132067E-03	4.672102E-05
4.231003E+03	2.135066E-03	4.650765E-05
4.240958E+03	2.137798E-03	4.628704E-05
4.250913E+03	2.140433E-03	4.606290E-05
4.260869E+03	2.142976E-03	4.583544E-05
4.270824E+03	2.145552E-03	4.560735E-05
4.280779E+03	2.148247E-03	4.538039E-05
4.290735E+03	2.151101E-03	4.515543E-05
4.300690E+03	2.154267E-03	4.493558E-05
4.310645E+03	2.157742E-03	4.472068E-05
4.320601E+03	2.161597E-03	4.451205E-05
4.330556E+03	2.165964E-03	4.431226E-05
4.340511E+03	2.170791E-03	4.412009E-05
4.350466E+03	2.176197E-03	4.393773E-05
4.360422E+03	2.182219E-03	4.376570E-05
4.370377E+03	2.188847E-03	4.360360E-05
4.380332E+03	2.196129E-03	4.345210E-05
4.390288E+03	2.204029E-03	4.331027E-05
4.400243E+03	2.212533E-03	4.317758E-05
4.410198E+03	2.221613E-03	4.305327E-05
4.420154E+03	2.231233E-03	4.293642E-05
4.430109E+03	2.241376E-03	4.282650E-05
4.440064E+03	2.251983E-03	4.272218E-05
4.450019E+03	2.262984E-03	4.262197E-05
4.459975E+03	2.274362E-03	4.252542E-05
4.469930E+03	2.286028E-03	4.243070E-05
4.479885E+03	2.297946E-03	4.233708E-05
4.489841E+03	2.309974E-03	4.224187E-05
4.499796E+03	2.322093E-03	4.214467E-05
4.509751E+03	2.334145E-03	4.204265E-05
4.519707E+03	2.346064E-03	4.193467E-05
4.529662E+03	2.357746E-03	4.181896E-05
4.539617E+03	2.369084E-03	4.169375E-05
4.549572E+03	2.380001E-03	4.155786E-05
4.559528E+03	2.390387E-03	4.140958E-05
4.569483E+03	2.400165E-03	4.124785E-05
4.579438E+03	2.409200E-03	4.107064E-05
4.589394E+03	2.417455E-03	4.087767E-05
4.599349E+03	2.424839E-03	4.066774E-05
4.609304E+03	2.431301E-03	4.044041E-05
4.619260E+03	2.436769E-03	4.019492E-05
4.629215E+03	2.441246E-03	3.993175E-05
4.639170E+03	2.444659E-03	3.965016E-05
4.649125E+03	2.447071E-03	3.935164E-05
4.659081E+03	2.448472E-03	3.903649E-05
4.669036E+03	2.448899E-03	3.870576E-05
4.678991E+03	2.448413E-03	3.836083E-05
4.688947E+03	2.447093E-03	3.800334E-05
4.698902E+03	2.445039E-03	3.763523E-05
4.708857E+03	2.442376E-03	3.725875E-05
4.718813E+03	2.439281E-03	3.687687E-05
4.728768E+03	2.435925E-03	3.649235E-05
4.738723E+03	2.432498E-03	3.610817E-05
4.748678E+03	2.429204E-03	3.572742E-05
4.758634E+03	2.426245E-03	3.535303E-05
4.768589E+03	2.423705E-03	3.498610E-05
4.778544E+03	2.421730E-03	3.462863E-05
4.788500E+03	2.420325E-03	3.428048E-05
4.798455E+03	2.419544E-03	3.394223E-05
4.808410E+03	2.419469E-03	3.361483E-05
4.818366E+03	2.420102E-03	3.329806E-05
4.828321E+03	2.421558E-03	3.299319E-05
4.838276E+03	2.423804E-03	3.269951E-05
4.848231E+03	2.426972E-03	3.241845E-05
4.858187E+03	2.431039E-03	3.214939E-05
4.868142E+03	2.436055E-03	3.189265E-05
4.878097E+03	2.442000E-03	3.164759E-05
4.888053E+03	2.448889E-03	3.141412E-05
4.898008E+03	2.456668E-03	3.119120E-05
4.907963E+03	2.465350E-03	3.097866E-05
4.917919E+03	2.474817E-03	3.077476E-05
4.927874E+03	2.485026E-03	3.057868E-05
4.937829E+03	2.495861E-03	3.038880E-05
4.947784E+03	2.507285E-03	3.020447E-05
4.957740E+03	2.519167E-03	3.002397E-05
4.967695E+03	2.531376E-03	2.984565E-05
4.977650E+03	2.543862E-03	2.966886E-05
4.987606E+03	2.556495E-03	2.949208E-05
4.997561E+03	2.569209E-03	2.931457E-05
5.007516E+03	2.581858E-03	2.913475E-05
5.017472E+03	2.594424E-03	2.895251E-05
5.027427E+03	2.606812E-03	2.876696E-05
5.037382E+03	2.619002E-03	2.857801E-05
5.047337E+03	2.630925E-03	2.838512E-05
5.057293E+03	2.642586E-03	2.818854E-05
5.067248E+03	2.653974E-03	2.798835E-05
5.077203E+03	2.665056E-03	2.778445E-05
5.087159E+03	2.675841E-03	2.757715E-05
5.097114E+03	2.686371E-03	2.736712E-05
5.107069E+03	2.696665E-03	2.715478E-05
5.117025E+03	2.706744E-03	2.694056E-05
5.126980E+03	2.716600E-03	2.672461E-05
5.136935E+03	2.726281E-03	2.650762E-05
5.146890E+03	2.735804E-03	2.628998E-05
5.156846E+03	2.745147E-03	2.607171E-05
5.166801E+03	2.754373E-03	2.585365E-05
5.176756E+03	2.763421E-03	2.563542E-05
5.186712E+03	2.772277E-03	2.541717E-05
5.196667E+03	2.780980E-03	2.519951E-05
5.206622E+03	2.789441E-03	2.498190E-05
5.216578E+03	2.797653E-03	2.476456E-05
5.226533E+03	2.805542E-03	2.454716E-05
5.236488E+03	2.813086E-03	2.432981E-05
5.246443E+03	2.820225E-03	2.411236E-05
5.256399E+03	2.826898E-03	2.389465E-05
5.266354E+03	2.833009E-03	2.367626E-05
5.276309E+03	2.838489E-03	2.345702E-05
5.286265E+03	2.843298E-03	2.323705E-05
5.296220E+03	2.847337E-03	2.301598E-05
5.306175E+03	2.850569E-03	2.279398E-05
5.316131E+03	2.852899E-03	2.257078E-05
5.326086E+03	2.854268E-03	2.234638E-05
5.336041E+03	2.854651E-03	2.212109E-05
5.345996E+03	2.853939E-03	2.189457E-05
5.355952E+03	2.852147E-03	2.166742E-05
5.365907E+03	2.849211E-03	2.143962E-05
5.375862E+03	2.845068E-03	2.121118E-05
5.385818E+03	2.839751E-03	2.098280E-05
5.395773E+03	2.833176E-03	2.075429E-05
5.405728E+03	2.825354E-03	2.052615E-05
5.415684E+03	2.816263E-03	2.029860E-05
5.425639E+03	2.805882E-03	2.007184E-05
5.435594E+03	2.794162E-03	1.984584E-05
5.445549E+03	2.781137E-03	1.962112E-05
5.455505E+03	2.766734E-03	1.939742E-05
5.465460E+03	2.750989E-03	1.917519E-05
5.475415E+03	2.733934E-03	1.895472E-05
5.485371E+03	2.715727E-03	1.873686E-05
5.495326E+03	2.696518E-03	1.852227E-05
5.505281E+03	2.676530E-03	1.831210E-05
5.515237E+03	2.655941E-03	1.810712E-05
5.525192E+03	2.634987E-03	1.790849E-05
5.535147E+03	2.613912E-03	1.771737E-05
5.545102E+03	2.592886E-03	1.753442E-05
5.555058E+03	2.572170E-03	1.736091E-05
5.565013E+03	2.552004E-03	1.719794E-05
5.574968E+03	2.532659E-03	1.704686E-05
5.584924E+03	2.514338E-03	1.690856E-05
5.594879E+03	2.497346E-03	1.678460E-05
5.604834E+03	2.481887E-03	1.667593E-05
5.614790E+03	2.468258E-03	1.658412E-05
5.624745E+03	2.456650E-03	1.651008E-05
5.634700E+03	2.447338E-03	1.645530E-05
5.644655E+03	2.440505E-03	1.642070E-05
5.654611E+03	2.436316E-03	1.640709E-05
5.664566E+03	2.434957E-03	1.641548E-05
5.674521E+03	2.436585E-03	1.644671E-05
5.684477E+03	2.441252E-03	1.650093E-05
5.694432E+03	2.449046E-03	1.657859E-05
5.704387E+03	2.459968E-03	1.667954E-05
5.714343E+03	2.474049E-03	1.680389E-05
5.724298E+03	2.491177E-03	1.695079E-05
5.734253E+03	2.511245E-03	1.711939E-05
5.744209E+03	2.534116E-03	1.730871E-05
5.754164E+03	2.559584E-03	1.751724E-05
5.764119E+03	2.587340E-03	1.774281E-05
5.774074E+03	2.617125E-03	1.798354E-05
5.784030E+03	2.648558E-03	1.823674E-05
5.793985E+03	2.681239E-03	1.849954E-05
5.803940E+03	2.714730E-03	1.876881E-05
5.813896E+03	2.748533E-03	1.904097E-05
5.823851E+03	2.782183E-03	1.931264E-05
5.833806E+03	2.815146E-03	1.957995E-05
5.843762E+03	2.846940E-03	1.983937E-05
5.853717E+03	2.877043E-03	2.008707E-05
5.863672E+03	2.904955E-03	2.031933E-05
5.873627E+03	2.930266E-03	2.053309E-05
5.883583E+03	2.952592E-03	2.072544E-05
5.893538E+03	2.971577E-03	2.089366E-05
5.903493E+03	2.986966E-03	2.103575E-05
5.913449E+03	2.998605E-03	2.115042E-05
5.923404E+03	3.006307E-03	2.123617E-05
5.933359E+03	3.010139E-03	2.129330E-05
5.943315E+03	3.010073E-03	2.132147E-05
5.953270E+03	3.006301E-03	2.132192E-05
5.963225E+03	2.998969E-03	2.129557E-05
5.973180E+03	2.988368E-03	2.124442E-05
5.983136E+03	2.974782E-03	2.117045E-05
5.993091E+03	2.958563E-03	2.107614E-05
6.003046E+03	2.940090E-03	2.096419E-05
6.013002E+03	2.919733E-03	2.083725E-05
6.022957E+03	2.897921E-03	2.069845E-05
6.032912E+03	2.875027E-03	2.055050E-05
6.042868E+03	2.851411E-03	2.039605E-05
6.052823E+03	2.827471E-03	2.023805E-05
6.062778E+03	2.803552E-03	2.007906E-05
6.072733E+03	2.779944E-03	1.992128E-05
6.082689E+03	2.756931E-03	1.976687E-05
6.092644E+03	2.734768E-03	1.961777E-05
6.102599E+03	2.713670E-03	1.947566E-05
6.112555E+03	2.693825E-03	1.934202E-05
6.122510E+03	2.675357E-03	1.921790E-05
6.132465E+03	2.658416E-03	1.910449E-05
6.142421E+03	2.643070E-03	1.900245E-05
6.152376E+03	2.629367E-03	1.891226E-05
6.162331E+03	2.617357E-03	1.883445E-05
6.172286E+03	2.607104E-03	1.876962E-05
6.182242E+03	2.598632E-03	1.871811E-05
6.192197E+03	2.591985E-03	1.868040E-05
6.202152E+03	2.587166E-03	1.865669E-05
6.212108E+03	2.584142E-03	1.864685E-05
6.222063E+03	2.582833E-03	1.865046E-05
6.232018E+03	2.583055E-03	1.866631E-05
6.241974E+03	2.584558E-03	1.869275E-05
6.251929E+03	2.587189E-03	1.872881E-05
6.261884E+03	2.590652E-03	1.877250E-05
6.271839E+03	2.594816E-03	1.882303E-05
6.281795E+03	2.599464E-03	1.887897E-05
6.291750E+03	2.604441E-03	1.893934E-05
6.301705E+03	2.609556E-03	1.900292E-05
6.311661E+03	2.614736E-03	1.906932E-05
6.321616E+03	2.619790E-03	1.913731E-05
6.331571E+03	2.624647E-03	1.920651E-05
6.341527E+03	2.629197E-03	1.927626E-05
6.351482E+03	2.633344E-03	1.934600E-05
6.361437E+03	2.637059E-03	1.941565E-05
6.371392E+03	2.640244E-03	1.948462E-05
6.381348E+03	2.642896E-03	1.955302E-05
6.391303E+03	2.644995E-03	1.962080E-05
6.401258E+03	2.646506E-03	1.968782E-05
6.411214E+03	2.647399E-03	1.975397E-05
6.421169E+03	2.647737E-03	1.981979E-05
6.431124E+03	2.647476E-03	1.988504E-05
6.441080E+03	2.646659E-03	1.995014E-05
6.451035E+03	2.645249E-03	2.001473E-05
6.460990E+03	2.643294E-03	2.007897E-05
6.470945E+03	2.640759E-03	2.014233E-05
6.480901E+03	2.637662E-03	2.020473E-05
6.490856E+03	2.633937E-03	2.026540E-05
6.500811E+03	2.629631E-03	2.032442E-05
6.510767E+03	2.624714E-03	2.038131E-05
6.520722E+03	2.619165E-03	2.043563E-05
6.530677E+03	2.612963E-03	2.048693E-05
6.540633E+03	2.606136E-03	2.053517E-05
6.550588E+03	2.598649E-03	2.057977E-05
6.560543E+03	2.590486E-03	2.062033E-05
6.570498E+03	2.581594E-03	2.065615E-05
6.580454E+03	2.571945E-03	2.068670E-05
6.590409E+03	2.561507E-03	2.071144E-05
6.600364E+03	2.550248E-03	2.072981E-05
6.610320E+03	2.538141E-03	2.074130E-05
6.620275E+03	2.525165E-03	2.074543E-05
6.630230E+03	2.511309E-03	2.074184E-05
6.640186E+03	2.496577E-03	2.073026E-05
6.650141E+03	2.480961E-03	2.071033E-05
6.660096E+03	2.464525E-03	2.068233E-05
6.670051E+03	2.447352E-03	2.064670E-05
6.680007E+03	2.429493E-03	2.060360E-05
6.689962E+03	2.411015E-03	2.055340E-05
6.699917E+03	2.392089E-03	2.049734E-05
6.709873E+03	2.372846E-03	2.043636E-05
6.719828E+03	2.353407E-03	2.037137E-05
6.729783E+03	2.333932E-03	2.030361E-05
6.739739E+03	2.314618E-03	2.023471E-05
6.749694E+03	2.295616E-03	2.016590E-05
6.759649E+03	2.277156E-03	2.009919E-05
6.769604E+03	2.259365E-03	2.003569E-05
6.779560E+03	2.242446E-03	1.997720E-05
6.789515E+03	2.226593E-03	1.992551E-05
6.799470E+03	2.211914E-03	1.988163E-05
6.809426E+03	2.198582E-03	1.984721E-05
6.819381E+03	2.186755E-03	1.982378E-05
6.829336E+03	2.176522E-03	1.981227E-05
6.839292E+03	2.167982E-03	1.981368E-05
6.849247E+03	2.161213E-03	1.982885E-05
6.859202E+03	2.156295E-03	1.985868E-05
6.869157E+03	2.153237E-03	1.990336E-05
6.879113E+03	2.152052E-03	1.996313E-05
6.889068E+03	2.152755E-03	2.003826E-05
6.899023E+03	2.155287E-03	2.012830E-05
6.908979E+03	2.159617E-03	2.023306E-05
6.918934E+03	2.165645E-03	2.035168E-05
6.928889E+03	2.173273E-03	2.048330E-05
6.938845E+03	2.182413E-03	2.062714E-05
6.948800E+03	2.192934E-03	2.078199E-05
6.958755E+03	2.204640E-03	2.094599E-05
6.968710E+03	2.217455E-03	2.111841E-05
6.978666E+03	2.231135E-03	2.129690E-05
6.988621E+03	2.245568E-03	2.148034E-05
6.998576E+03	2.260586E-03	2.166705E-05
7.008532E+03	2.275966E-03	2.185485E-05
7.018487E+03	2.291602E-03	2.204259E-05
7.028442E+03	2.307311E-03	2.222845E-05
7.038398E+03	2.322977E-03	2.241119E-05
7.048353E+03	2.338438E-03	2.258913E-05
7.058308E+03	2.353571E-03	2.276098E-05
7.068263E+03	2.368266E-03	2.292557E-05
7.078219E+03	2.382422E-03	2.308180E-05
7.088174E+03	2.395951E-03	2.322870E-05
7.098129E+03	2.408800E-03	2.336568E-05
7.108085E+03	2.420835E-03	2.349132E-05
7.118040E+03	2.432043E-03	2.360542E-05
7.127995E+03	2.442294E-03	2.370661E-05
7.137951E+03	2.451544E-03	2.379441E-05
7.147906E+03	2.459748E-03	2.386832E-05
7.157861E+03	2.466764E-03	2.392690E-05
7.167817E+03	2.472533E-03	2.396955E-05
7.177772E+03	2.476962E-03	2.399534E-05
7.187727E+03	2.479950E-03	2.400328E-05
7.197682E+03	2.481360E-03	2.399205E-05
7.207638E+03	2.481146E-03	2.396126E-05
7.217593E+03	2.479138E-03	2.390929E-05
7.227548E+03	2.475264E-03	2.383552E-05
7.237504E+03	2.469395E-03	2.373882E-05
7.247459E+03	2.461511E-03	2.361911E-05
7.257414E+03	2.451481E-03	2.347528E-05
7.267370E+03	2.439290E-03	2.330735E-05
7.277325E+03	2.424914E-03	2.311530E-05
7.287280E+03	2.408328E-03	2.289910E-05
7.297235E+03	2.389628E-03	2.265990E-05
7.307191E+03	2.368786E-03	2.239772E-05
7.317146E+03	2.345993E-03	2.211460E-05
7.327101E+03	2.321341E-03	2.181174E-05
7.337057E+03	2.294959E-03	2.149060E-05
7.347012E+03	2.267057E-03	2.115347E-05
7.356967E+03	2.237807E-03	2.080226E-05
7.366923E+03	2.207461E-03	2.043956E-05
7.376878E+03	2.176252E-03	2.006783E-05
7.386833E+03	2.144365E-03	1.968902E-05
7.396788E+03	2.112103E-03	1.930615E-05
7.406744E+03	2.079655E-03	1.892116E-05
7.416699E+03	2.047288E-03	1.853666E-05
7.426654E+03	2.015231E-03	1.815488E-05
7.436610E+03	1.983728E-03	1.777814E-05
7.446565E+03	1.952954E-03	1.740809E-05
7.456520E+03	1.923097E-03	1.704645E-05
7.466476E+03	1.894349E-03	1.669496E-05
7.476431E+03	1.866837E-03	1.635470E-05
7.486386E+03	1.840694E-03	1.602680E-05
7.496341E+03	1.816062E-03	1.571241E-05
7.506297E+03	1.793019E-03	1.541211E-05
7.516252E+03	1.771675E-03	1.512670E-05
7.526207E+03	1.752061E-03	1.485626E-05
7.536163E+03	1.734287E-03	1.460153E-05
7.546118E+03	1.718386E-03	1.436256E-05
7.556073E+03	1.704400E-03	1.413947E-05
7.566029E+03	1.692365E-03	1.393229E-05
7.575984E+03	1.682297E-03	1.374086E-05
7.585939E+03	1.674183E-03	1.356482E-05
7.595894E+03	1.667955E-03	1.340331E-05
7.605850E+03	1.663583E-03	1.325580E-05
7.615805E+03	1.660959E-03	1.312114E-05
7.625760E+03	1.659967E-03	1.299817E-05
7.635716E+03	1.660534E-03	1.288605E-05
7.645671E+03	1.662561E-03	1.278379E-05
7.655626E+03	1.665951E-03	1.269043E-05
7.665582E+03	1.670604E-03	1.260501E-05
7.675537E+03	1.676394E-03	1.252643E-05
7.685492E+03	1.683240E-03	1.245395E-05
7.695447E+03	1.691035E-03	1.238666E-05
7.705403E+03	1.699666E-03	1.232367E-05
7.715358E+03	1.709021E-03	1.226412E-05
7.725313E+03	1.718956E-03	1.220698E-05
