#wls	flux	fluxerr
1.592848E+03	3.891041E-04	1.496537E-05
1.632669E+03	3.936815E-04	1.508625E-05
1.672491E+03	3.983018E-04	1.520606E-05
1.712312E+03	4.029520E-04	1.532422E-05
1.752133E+03	4.076179E-04	1.544010E-05
1.791954E+03	4.122843E-04	1.555302E-05
1.831775E+03	4.169352E-04	1.566231E-05
1.871597E+03	4.216347E-04	1.577028E-05
1.911418E+03	4.262848E-04	1.587318E-05
1.951239E+03	4.310314E-04	1.597635E-05
1.991060E+03	4.356931E-04	1.607296E-05
2.030881E+03	4.404165E-04	1.616834E-05
2.070703E+03	4.450994E-04	1.625863E-05
2.110524E+03	4.498914E-04	1.634919E-05
2.150345E+03	4.546047E-04	1.643309E-05
2.190166E+03	4.593036E-04	1.651257E-05
2.229987E+03	4.640536E-04	1.658988E-05
2.269809E+03	4.688353E-04	1.666421E-05
2.309630E+03	4.736288E-04	1.673474E-05
2.349451E+03	4.784151E-04	1.680067E-05
2.389272E+03	4.832602E-04	1.686422E-05
2.429093E+03	4.881452E-04	1.692457E-05
2.468915E+03	4.931365E-04	1.698389E-05
2.508736E+03	4.981321E-04	1.703850E-05
2.548557E+03	5.032826E-04	1.709340E-05
2.588378E+03	5.085708E-04	1.714778E-05
2.628199E+03	5.140616E-04	1.720360E-05
2.668021E+03	5.197372E-04	1.725999E-05
2.707842E+03	5.256614E-04	1.731878E-05
2.747663E+03	5.319751E-04	1.738425E-05
2.787484E+03	5.386540E-04	1.745517E-05
2.827305E+03	5.457511E-04	1.753280E-05
2.867127E+03	5.533919E-04	1.762065E-05
2.906948E+03	5.616916E-04	1.772171E-05
2.946769E+03	5.707541E-04	1.783850E-05
2.986590E+03	5.805938E-04	1.797061E-05
2.996546E+03	5.832325E-04	1.800770E-05
3.006501E+03	5.858955E-04	1.804492E-05
3.016456E+03	5.885813E-04	1.808221E-05
3.026411E+03	5.914369E-04	1.812408E-05
3.036367E+03	5.942387E-04	1.816364E-05
3.046322E+03	5.972063E-04	1.820760E-05
3.056277E+03	6.001912E-04	1.825140E-05
3.066233E+03	6.032645E-04	1.829719E-05
3.076188E+03	6.063523E-04	1.834271E-05
3.086143E+03	6.095971E-04	1.839225E-05
3.096099E+03	6.128527E-04	1.844138E-05
3.106054E+03	6.161888E-04	1.849217E-05
3.116009E+03	6.196752E-04	1.854669E-05
3.125964E+03	6.231661E-04	1.860056E-05
3.135920E+03	6.268017E-04	1.865793E-05
3.145875E+03	6.305089E-04	1.871660E-05
3.155830E+03	6.342846E-04	1.877646E-05
3.165786E+03	6.381269E-04	1.883743E-05
3.175741E+03	6.421030E-04	1.890146E-05
3.185696E+03	6.461398E-04	1.896638E-05
3.195652E+03	6.503043E-04	1.903412E-05
3.205607E+03	6.545247E-04	1.910255E-05
3.215562E+03	6.588660E-04	1.917355E-05
3.225517E+03	6.633253E-04	1.924699E-05
3.235473E+03	6.678316E-04	1.932079E-05
3.245428E+03	6.725172E-04	1.939874E-05
3.255383E+03	6.772438E-04	1.947682E-05
3.265339E+03	6.820753E-04	1.955685E-05
3.275294E+03	6.870752E-04	1.964060E-05
3.285249E+03	6.921729E-04	1.972602E-05
3.295205E+03	6.973661E-04	1.981301E-05
3.305160E+03	7.027164E-04	1.990328E-05
3.315115E+03	7.081552E-04	1.999485E-05
3.325070E+03	7.137440E-04	2.008942E-05
3.335026E+03	7.194154E-04	2.018506E-05
3.344981E+03	7.252309E-04	2.028346E-05
3.354936E+03	7.311876E-04	2.038448E-05
3.364892E+03	7.373452E-04	2.048976E-05
3.374847E+03	7.435745E-04	2.059564E-05
3.384802E+03	7.499368E-04	2.070380E-05
3.394758E+03	7.564926E-04	2.081586E-05
3.404713E+03	7.632389E-04	2.093167E-05
3.414668E+03	7.701121E-04	2.104944E-05
3.424623E+03	7.771729E-04	2.117079E-05
3.434579E+03	7.843592E-04	2.129396E-05
3.444534E+03	7.917921E-04	2.142219E-05
3.454489E+03	7.993503E-04	2.155213E-05
3.464445E+03	8.071556E-04	2.168702E-05
3.474400E+03	8.151477E-04	2.182517E-05
3.484355E+03	8.233888E-04	2.196817E-05
3.494311E+03	8.318212E-04	2.211442E-05
3.504266E+03	8.405070E-04	2.226549E-05
3.514221E+03	8.494496E-04	2.242139E-05
3.524176E+03	8.586525E-04	2.258214E-05
3.534132E+03	8.681213E-04	2.274780E-05
3.544087E+03	8.779183E-04	2.291992E-05
3.554042E+03	8.879921E-04	2.309705E-05
3.563998E+03	8.983498E-04	2.327928E-05
3.573953E+03	9.091128E-04	2.346967E-05
3.583908E+03	9.201746E-04	2.366533E-05
3.593864E+03	9.316566E-04	2.386930E-05
3.603819E+03	9.434550E-04	2.407878E-05
3.613774E+03	9.557459E-04	2.429816E-05
3.623729E+03	9.683722E-04	2.452329E-05
3.633685E+03	9.815087E-04	2.475848E-05
3.643640E+03	9.950536E-04	2.500100E-05
3.653595E+03	1.009125E-03	2.525369E-05
3.663551E+03	1.023677E-03	2.551522E-05
3.673506E+03	1.038716E-03	2.578561E-05
3.683461E+03	1.054304E-03	2.606621E-05
3.693417E+03	1.070444E-03	2.635694E-05
3.703372E+03	1.087087E-03	2.665641E-05
3.713327E+03	1.104341E-03	2.696711E-05
3.723282E+03	1.122152E-03	2.728751E-05
3.733238E+03	1.140517E-03	2.761737E-05
3.743193E+03	1.159484E-03	2.795763E-05
3.753148E+03	1.178990E-03	2.830661E-05
3.763104E+03	1.199127E-03	2.866635E-05
3.773059E+03	1.219774E-03	2.903372E-05
3.783014E+03	1.241014E-03	2.941055E-05
3.792970E+03	1.262770E-03	2.979480E-05
3.802925E+03	1.285063E-03	3.018679E-05
3.812880E+03	1.307804E-03	3.058429E-05
3.822835E+03	1.331005E-03	3.098741E-05
3.832791E+03	1.354567E-03	3.139369E-05
3.842746E+03	1.378541E-03	3.180421E-05
3.852701E+03	1.402819E-03	3.221630E-05
3.862657E+03	1.427336E-03	3.262842E-05
3.872612E+03	1.452076E-03	3.304011E-05
3.882567E+03	1.476916E-03	3.344846E-05
3.892523E+03	1.501778E-03	3.385171E-05
3.902478E+03	1.526632E-03	3.424918E-05
3.912433E+03	1.551394E-03	3.463898E-05
3.922388E+03	1.575928E-03	3.501811E-05
3.932344E+03	1.600199E-03	3.538583E-05
3.942299E+03	1.624118E-03	3.574033E-05
3.952254E+03	1.647600E-03	3.607981E-05
3.962210E+03	1.670511E-03	3.640151E-05
3.972165E+03	1.692871E-03	3.670603E-05
3.982120E+03	1.714503E-03	3.698974E-05
3.992076E+03	1.735387E-03	3.725246E-05
4.002031E+03	1.755410E-03	3.749202E-05
4.011986E+03	1.774566E-03	3.770855E-05
4.021941E+03	1.792759E-03	3.790033E-05
4.031897E+03	1.809998E-03	3.806788E-05
4.041852E+03	1.826209E-03	3.820995E-05
4.051807E+03	1.841374E-03	3.832653E-05
4.061763E+03	1.855488E-03	3.841784E-05
4.071718E+03	1.868554E-03	3.848433E-05
4.081673E+03	1.880543E-03	3.852576E-05
4.091629E+03	1.891527E-03	3.854393E-05
4.101584E+03	1.901453E-03	3.853817E-05
4.111539E+03	1.910415E-03	3.851068E-05
4.121494E+03	1.918467E-03	3.846290E-05
4.131450E+03	1.925591E-03	3.839478E-05
4.141405E+03	1.931902E-03	3.830895E-05
4.151360E+03	1.937440E-03	3.820646E-05
4.161316E+03	1.942332E-03	3.809008E-05
4.171271E+03	1.946551E-03	3.795952E-05
4.181226E+03	1.950233E-03	3.781768E-05
4.191182E+03	1.953479E-03	3.766668E-05
4.201137E+03	1.956354E-03	3.750793E-05
4.211092E+03	1.958926E-03	3.734289E-05
4.221047E+03	1.961263E-03	3.717297E-05
4.231003E+03	1.963511E-03	3.700101E-05
4.240958E+03	1.965702E-03	3.682767E-05
4.250913E+03	1.967907E-03	3.665433E-05
4.260869E+03	1.970264E-03	3.648357E-05
4.270824E+03	1.972771E-03	3.631531E-05
4.280779E+03	1.975562E-03	3.615199E-05
4.290735E+03	1.978663E-03	3.599402E-05
4.300690E+03	1.982165E-03	3.584299E-05
4.310645E+03	1.986058E-03	3.569860E-05
4.320601E+03	1.990456E-03	3.556280E-05
4.330556E+03	1.995340E-03	3.543513E-05
4.340511E+03	2.000752E-03	3.531620E-05
4.350466E+03	2.006698E-03	3.520598E-05
4.360422E+03	2.013212E-03	3.510493E-05
4.370377E+03	2.020265E-03	3.501241E-05
4.380332E+03	2.027838E-03	3.492797E-05
4.390288E+03	2.035832E-03	3.484978E-05
4.400243E+03	2.044175E-03	3.477652E-05
4.410198E+03	2.052790E-03	3.470683E-05
4.420154E+03	2.061563E-03	3.463875E-05
4.430109E+03	2.070371E-03	3.457023E-05
4.440064E+03	2.079225E-03	3.450148E-05
4.450019E+03	2.088095E-03	3.443202E-05
4.459975E+03	2.096995E-03	3.436214E-05
4.469930E+03	2.105956E-03	3.429236E-05
4.479885E+03	2.114970E-03	3.422259E-05
4.489841E+03	2.123962E-03	3.415167E-05
4.499796E+03	2.132964E-03	3.408015E-05
4.509751E+03	2.141861E-03	3.400625E-05
4.519707E+03	2.150615E-03	3.392947E-05
4.529662E+03	2.159187E-03	3.384930E-05
4.539617E+03	2.167481E-03	3.376433E-05
4.549572E+03	2.175400E-03	3.367322E-05
4.559528E+03	2.182936E-03	3.357600E-05
4.569483E+03	2.189971E-03	3.347105E-05
4.579438E+03	2.196452E-03	3.335775E-05
4.589394E+03	2.202358E-03	3.323604E-05
4.599349E+03	2.207600E-03	3.310476E-05
4.609304E+03	2.212178E-03	3.296419E-05
4.619260E+03	2.216052E-03	3.281397E-05
4.629215E+03	2.219222E-03	3.265437E-05
4.639170E+03	2.221673E-03	3.248541E-05
4.649125E+03	2.223486E-03	3.230853E-05
4.659081E+03	2.224646E-03	3.212373E-05
4.669036E+03	2.225203E-03	3.193198E-05
4.678991E+03	2.225218E-03	3.173435E-05
4.688947E+03	2.224760E-03	3.153203E-05
4.698902E+03	2.223904E-03	3.132625E-05
4.708857E+03	2.222729E-03	3.111826E-05
4.718813E+03	2.221339E-03	3.090965E-05
4.728768E+03	2.219759E-03	3.070086E-05
4.738723E+03	2.218061E-03	3.049299E-05
4.748678E+03	2.216368E-03	3.028778E-05
4.758634E+03	2.214694E-03	3.008550E-05
4.768589E+03	2.213129E-03	2.988739E-05
4.778544E+03	2.211780E-03	2.969491E-05
4.788500E+03	2.210861E-03	2.951094E-05
4.798455E+03	2.210424E-03	2.933608E-05
4.808410E+03	2.210608E-03	2.917214E-05
4.818366E+03	2.211486E-03	2.901992E-05
4.828321E+03	2.213164E-03	2.888061E-05
4.838276E+03	2.215655E-03	2.875418E-05
4.848231E+03	2.219029E-03	2.864135E-05
4.858187E+03	2.223291E-03	2.854198E-05
4.868142E+03	2.228482E-03	2.845636E-05
4.878097E+03	2.234552E-03	2.838366E-05
4.888053E+03	2.241487E-03	2.832352E-05
4.898008E+03	2.249287E-03	2.827575E-05
4.907963E+03	2.257889E-03	2.823938E-05
4.917919E+03	2.267220E-03	2.821336E-05
4.927874E+03	2.277273E-03	2.819744E-05
4.937829E+03	2.287932E-03	2.819007E-05
4.947784E+03	2.299150E-03	2.819057E-05
4.957740E+03	2.310850E-03	2.819789E-05
4.967695E+03	2.322927E-03	2.821066E-05
4.977650E+03	2.335299E-03	2.822785E-05
4.987606E+03	2.347882E-03	2.824841E-05
4.997561E+03	2.360624E-03	2.827166E-05
5.007516E+03	2.373447E-03	2.829668E-05
5.017472E+03	2.386226E-03	2.832196E-05
5.027427E+03	2.398944E-03	2.834734E-05
5.037382E+03	2.411515E-03	2.837179E-05
5.047337E+03	2.423909E-03	2.839503E-05
5.057293E+03	2.436050E-03	2.841619E-05
5.067248E+03	2.447898E-03	2.843486E-05
5.077203E+03	2.459443E-03	2.845096E-05
5.087159E+03	2.470653E-03	2.846420E-05
5.097114E+03	2.481479E-03	2.847406E-05
5.107069E+03	2.491898E-03	2.848034E-05
5.117025E+03	2.501919E-03	2.848322E-05
5.126980E+03	2.511525E-03	2.848256E-05
5.136935E+03	2.520702E-03	2.847828E-05
5.146890E+03	2.529407E-03	2.846996E-05
5.156846E+03	2.537678E-03	2.845809E-05
5.166801E+03	2.545445E-03	2.844197E-05
5.176756E+03	2.552716E-03	2.842175E-05
5.186712E+03	2.559470E-03	2.839728E-05
5.196667E+03	2.565683E-03	2.836836E-05
5.206622E+03	2.571328E-03	2.833477E-05
5.216578E+03	2.576376E-03	2.829629E-05
5.226533E+03	2.580797E-03	2.825264E-05
5.236488E+03	2.584583E-03	2.820384E-05
5.246443E+03	2.587673E-03	2.814929E-05
5.256399E+03	2.590003E-03	2.808841E-05
5.266354E+03	2.591617E-03	2.802174E-05
5.276309E+03	2.592398E-03	2.794813E-05
5.286265E+03	2.592364E-03	2.786784E-05
5.296220E+03	2.591453E-03	2.778031E-05
5.306175E+03	2.589633E-03	2.768530E-05
5.316131E+03	2.586903E-03	2.758288E-05
5.326086E+03	2.583211E-03	2.747257E-05
5.336041E+03	2.578535E-03	2.735427E-05
5.345996E+03	2.572860E-03	2.722787E-05
5.355952E+03	2.566203E-03	2.709365E-05
5.365907E+03	2.558533E-03	2.695137E-05
5.375862E+03	2.549827E-03	2.680084E-05
5.385818E+03	2.540146E-03	2.664281E-05
5.395773E+03	2.529480E-03	2.647721E-05
5.405728E+03	2.517855E-03	2.630439E-05
5.415684E+03	2.505302E-03	2.612470E-05
5.425639E+03	2.491860E-03	2.593863E-05
5.435594E+03	2.477577E-03	2.574669E-05
5.445549E+03	2.462485E-03	2.554925E-05
5.455505E+03	2.446676E-03	2.534728E-05
5.465460E+03	2.430249E-03	2.514181E-05
5.475415E+03	2.413241E-03	2.493313E-05
5.485371E+03	2.395752E-03	2.472215E-05
5.495326E+03	2.377937E-03	2.451036E-05
5.505281E+03	2.359889E-03	2.429861E-05
5.515237E+03	2.341711E-03	2.408782E-05
5.525192E+03	2.323559E-03	2.387947E-05
5.535147E+03	2.305593E-03	2.367511E-05
5.545102E+03	2.287912E-03	2.347560E-05
5.555058E+03	2.270684E-03	2.328258E-05
5.565013E+03	2.254083E-03	2.309767E-05
5.574968E+03	2.238214E-03	2.292185E-05
5.584924E+03	2.223270E-03	2.275700E-05
5.594879E+03	2.209377E-03	2.260428E-05
5.604834E+03	2.196679E-03	2.246504E-05
5.614790E+03	2.185312E-03	2.234061E-05
5.624745E+03	2.175425E-03	2.223240E-05
5.634700E+03	2.167096E-03	2.214112E-05
5.644655E+03	2.160495E-03	2.206840E-05
5.654611E+03	2.155649E-03	2.201447E-05
5.664566E+03	2.152678E-03	2.198048E-05
5.674521E+03	2.151619E-03	2.196673E-05
5.684477E+03	2.152512E-03	2.197357E-05
5.694432E+03	2.155375E-03	2.200114E-05
5.704387E+03	2.160225E-03	2.204956E-05
5.714343E+03	2.166993E-03	2.211807E-05
5.724298E+03	2.175668E-03	2.220653E-05
5.734253E+03	2.186131E-03	2.231369E-05
5.744209E+03	2.198322E-03	2.243890E-05
5.754164E+03	2.212066E-03	2.258036E-05
5.764119E+03	2.227233E-03	2.273669E-05
5.774074E+03	2.243640E-03	2.290602E-05
5.784030E+03	2.261086E-03	2.308628E-05
5.793985E+03	2.279323E-03	2.327491E-05
5.803940E+03	2.298108E-03	2.346941E-05
5.813896E+03	2.317203E-03	2.366734E-05
5.823851E+03	2.336340E-03	2.386595E-05
5.833806E+03	2.355196E-03	2.406191E-05
5.843762E+03	2.373537E-03	2.425283E-05
5.853717E+03	2.391045E-03	2.443545E-05
5.863672E+03	2.407478E-03	2.460727E-05
5.873627E+03	2.422612E-03	2.476600E-05
5.883583E+03	2.436176E-03	2.490886E-05
5.893538E+03	2.447972E-03	2.503380E-05
5.903493E+03	2.457859E-03	2.513939E-05
5.913449E+03	2.465710E-03	2.522431E-05
5.923404E+03	2.471388E-03	2.528716E-05
5.933359E+03	2.474898E-03	2.532797E-05
5.943315E+03	2.476189E-03	2.534622E-05
5.953270E+03	2.475350E-03	2.534284E-05
5.963225E+03	2.472415E-03	2.531815E-05
5.973180E+03	2.467528E-03	2.527365E-05
5.983136E+03	2.460822E-03	2.521068E-05
5.993091E+03	2.452481E-03	2.513116E-05
6.003046E+03	2.442717E-03	2.503724E-05
6.013002E+03	2.431735E-03	2.493108E-05
6.022957E+03	2.419805E-03	2.481541E-05
6.032912E+03	2.407156E-03	2.469262E-05
6.042868E+03	2.394041E-03	2.456534E-05
6.052823E+03	2.380693E-03	2.443595E-05
6.062778E+03	2.367378E-03	2.430724E-05
6.072733E+03	2.354287E-03	2.418118E-05
6.082689E+03	2.341639E-03	2.406005E-05
6.092644E+03	2.329637E-03	2.394599E-05
6.102599E+03	2.318440E-03	2.384067E-05
6.112555E+03	2.308210E-03	2.374578E-05
6.122510E+03	2.299059E-03	2.366254E-05
6.132465E+03	2.291079E-03	2.359195E-05
6.142421E+03	2.284357E-03	2.353495E-05
6.152376E+03	2.278954E-03	2.349224E-05
6.162331E+03	2.274887E-03	2.346404E-05
6.172286E+03	2.272190E-03	2.345079E-05
6.182242E+03	2.270874E-03	2.345268E-05
6.192197E+03	2.270908E-03	2.346943E-05
6.202152E+03	2.272301E-03	2.350122E-05
6.212108E+03	2.274937E-03	2.354688E-05
6.222063E+03	2.278770E-03	2.360596E-05
6.232018E+03	2.283643E-03	2.367688E-05
6.241974E+03	2.289381E-03	2.375786E-05
6.251929E+03	2.295848E-03	2.384752E-05
6.261884E+03	2.302854E-03	2.394393E-05
6.271839E+03	2.310211E-03	2.404515E-05
6.281795E+03	2.317749E-03	2.414945E-05
6.291750E+03	2.325283E-03	2.425491E-05
6.301705E+03	2.332656E-03	2.435992E-05
6.311661E+03	2.339700E-03	2.446273E-05
6.321616E+03	2.346257E-03	2.456169E-05
6.331571E+03	2.352184E-03	2.465532E-05
6.341527E+03	2.357380E-03	2.474252E-05
6.351482E+03	2.361711E-03	2.482189E-05
6.361437E+03	2.365111E-03	2.489270E-05
6.371392E+03	2.367482E-03	2.495391E-05
6.381348E+03	2.368792E-03	2.500514E-05
6.391303E+03	2.368981E-03	2.504572E-05
6.401258E+03	2.368000E-03	2.507509E-05
6.411214E+03	2.365869E-03	2.509341E-05
6.421169E+03	2.362545E-03	2.510018E-05
6.431124E+03	2.358051E-03	2.509557E-05
6.441080E+03	2.352371E-03	2.507937E-05
6.451035E+03	2.345577E-03	2.505222E-05
6.460990E+03	2.337655E-03	2.501385E-05
6.470945E+03	2.328705E-03	2.496514E-05
6.480901E+03	2.318812E-03	2.490685E-05
6.490856E+03	2.308116E-03	2.484035E-05
6.500811E+03	2.296715E-03	2.476656E-05
6.510767E+03	2.284676E-03	2.468605E-05
6.520722E+03	2.272013E-03	2.459886E-05
6.530677E+03	2.258692E-03	2.450448E-05
6.540633E+03	2.244733E-03	2.440301E-05
6.550588E+03	2.230094E-03	2.429384E-05
6.560543E+03	2.214814E-03	2.417732E-05
6.570498E+03	2.198897E-03	2.405333E-05
6.580454E+03	2.182352E-03	2.392186E-05
6.590409E+03	2.165223E-03	2.378328E-05
6.600364E+03	2.147536E-03	2.363778E-05
6.610320E+03	2.129303E-03	2.348539E-05
6.620275E+03	2.110615E-03	2.332698E-05
6.630230E+03	2.091499E-03	2.316280E-05
6.640186E+03	2.072013E-03	2.299340E-05
6.650141E+03	2.052228E-03	2.281947E-05
6.660096E+03	2.032240E-03	2.264203E-05
6.670051E+03	2.012111E-03	2.246171E-05
6.680007E+03	1.991955E-03	2.227974E-05
6.689962E+03	1.971825E-03	2.209667E-05
6.699917E+03	1.951872E-03	2.191414E-05
6.709873E+03	1.932180E-03	2.173312E-05
6.719828E+03	1.912886E-03	2.155510E-05
6.729783E+03	1.894082E-03	2.138113E-05
6.739739E+03	1.875884E-03	2.121253E-05
6.749694E+03	1.858406E-03	2.105061E-05
6.759649E+03	1.841761E-03	2.089666E-05
6.769604E+03	1.826058E-03	2.075196E-05
6.779560E+03	1.811421E-03	2.061795E-05
6.789515E+03	1.797905E-03	2.049529E-05
6.799470E+03	1.785641E-03	2.038553E-05
6.809426E+03	1.774688E-03	2.028939E-05
6.819381E+03	1.765096E-03	2.020749E-05
6.829336E+03	1.756967E-03	2.014104E-05
6.839292E+03	1.750329E-03	2.009042E-05
6.849247E+03	1.745219E-03	2.005610E-05
6.859202E+03	1.741643E-03	2.003819E-05
6.869157E+03	1.739654E-03	2.003735E-05
6.879113E+03	1.739234E-03	2.005340E-05
6.889068E+03	1.740372E-03	2.008625E-05
6.899023E+03	1.743023E-03	2.013540E-05
6.908979E+03	1.747195E-03	2.020098E-05
6.918934E+03	1.752802E-03	2.028199E-05
6.928889E+03	1.759830E-03	2.037827E-05
6.938845E+03	1.768171E-03	2.048859E-05
6.948800E+03	1.777795E-03	2.061258E-05
6.958755E+03	1.788576E-03	2.074878E-05
6.968710E+03	1.800472E-03	2.089666E-05
6.978666E+03	1.813345E-03	2.105459E-05
6.988621E+03	1.827140E-03	2.122193E-05
6.998576E+03	1.841714E-03	2.139696E-05
7.008532E+03	1.856984E-03	2.157868E-05
7.018487E+03	1.872869E-03	2.176611E-05
7.028442E+03	1.889219E-03	2.195743E-05
7.038398E+03	1.905972E-03	2.215191E-05
7.048353E+03	1.923000E-03	2.234799E-05
7.058308E+03	1.940172E-03	2.254410E-05
7.068263E+03	1.957430E-03	2.273950E-05
7.078219E+03	1.974640E-03	2.293261E-05
7.088174E+03	1.991691E-03	2.312209E-05
7.098129E+03	2.008469E-03	2.330657E-05
7.108085E+03	2.024858E-03	2.348464E-05
7.118040E+03	2.040733E-03	2.365484E-05
7.127995E+03	2.055991E-03	2.381595E-05
7.137951E+03	2.070473E-03	2.396609E-05
7.147906E+03	2.084034E-03	2.410359E-05
7.157861E+03	2.096528E-03	2.422673E-05
7.167817E+03	2.107826E-03	2.433405E-05
7.177772E+03	2.117743E-03	2.442343E-05
7.187727E+03	2.126144E-03	2.449335E-05
7.197682E+03	2.132815E-03	2.454139E-05
7.207638E+03	2.137679E-03	2.456672E-05
7.217593E+03	2.140503E-03	2.456676E-05
7.227548E+03	2.141231E-03	2.454097E-05
7.237504E+03	2.139683E-03	2.448739E-05
7.247459E+03	2.135756E-03	2.440498E-05
7.257414E+03	2.129397E-03	2.429331E-05
7.267370E+03	2.120557E-03	2.415195E-05
7.277325E+03	2.109213E-03	2.398087E-05
7.287280E+03	2.095382E-03	2.378043E-05
7.297235E+03	2.079113E-03	2.355140E-05
7.307191E+03	2.060491E-03	2.329497E-05
7.317146E+03	2.039665E-03	2.301304E-05
7.327101E+03	2.016764E-03	2.270727E-05
7.337057E+03	1.991971E-03	2.237996E-05
7.347012E+03	1.965527E-03	2.203402E-05
7.356967E+03	1.937639E-03	2.167197E-05
7.366923E+03	1.908609E-03	2.129740E-05
7.376878E+03	1.878648E-03	2.091282E-05
7.386833E+03	1.848051E-03	2.052167E-05
7.396788E+03	1.817061E-03	2.012679E-05
7.406744E+03	1.785992E-03	1.973177E-05
7.416699E+03	1.755027E-03	1.933872E-05
7.426654E+03	1.724480E-03	1.895118E-05
7.436610E+03	1.694509E-03	1.857092E-05
7.446565E+03	1.665368E-03	1.820076E-05
7.456520E+03	1.637248E-03	1.784278E-05
7.466476E+03	1.610272E-03	1.749831E-05
7.476431E+03	1.584613E-03	1.716917E-05
7.486386E+03	1.560399E-03	1.685672E-05
7.496341E+03	1.537719E-03	1.656184E-05
7.506297E+03	1.516687E-03	1.628567E-05
7.516252E+03	1.497359E-03	1.602870E-05
7.526207E+03	1.479796E-03	1.579148E-05
7.536163E+03	1.464046E-03	1.557439E-05
7.546118E+03	1.450147E-03	1.537768E-05
7.556073E+03	1.438106E-03	1.520127E-05
7.566029E+03	1.427977E-03	1.504559E-05
7.575984E+03	1.419707E-03	1.490993E-05
7.585939E+03	1.413345E-03	1.479463E-05
7.595894E+03	1.408805E-03	1.469864E-05
7.605850E+03	1.406023E-03	1.462116E-05
7.615805E+03	1.404931E-03	1.456133E-05
7.625760E+03	1.405473E-03	1.451845E-05
7.635716E+03	1.407553E-03	1.449139E-05
7.645671E+03	1.411110E-03	1.447942E-05
7.655626E+03	1.416039E-03	1.448136E-05
7.665582E+03	1.422256E-03	1.449625E-05
7.675537E+03	1.429668E-03	1.452309E-05
7.685492E+03	1.438183E-03	1.456086E-05
7.695447E+03	1.447721E-03	1.460873E-05
7.705403E+03	1.458160E-03	1.466539E-05
7.715358E+03	1.469410E-03	1.472997E-05
7.725313E+03	1.481318E-03	1.480090E-05
