#wls	flux	fluxerr
1.592848E+03	2.152669E-04	5.904865E-05
1.632669E+03	2.189640E-04	5.970419E-05
1.672491E+03	2.227333E-04	6.035890E-05
1.712312E+03	2.265265E-04	6.099885E-05
1.752133E+03	2.304231E-04	6.164461E-05
1.791954E+03	2.343295E-04	6.227015E-05
1.831775E+03	2.383720E-04	6.290817E-05
1.871597E+03	2.424093E-04	6.352021E-05
1.911418E+03	2.465699E-04	6.413911E-05
1.951239E+03	2.507546E-04	6.473790E-05
1.991060E+03	2.550488E-04	6.533757E-05
2.030881E+03	2.593976E-04	6.592288E-05
2.070703E+03	2.637917E-04	6.649037E-05
2.110524E+03	2.683197E-04	6.706118E-05
2.150345E+03	2.728752E-04	6.760733E-05
2.190166E+03	2.775974E-04	6.816203E-05
2.229987E+03	2.823282E-04	6.868492E-05
2.269809E+03	2.872081E-04	6.920895E-05
2.309630E+03	2.922289E-04	6.973028E-05
2.349451E+03	2.973297E-04	7.023266E-05
2.389272E+03	3.025516E-04	7.072423E-05
2.429093E+03	3.079886E-04	7.122490E-05
2.468915E+03	3.135266E-04	7.170600E-05
2.508736E+03	3.192587E-04	7.218682E-05
2.548557E+03	3.252267E-04	7.267418E-05
2.588378E+03	3.313657E-04	7.315083E-05
2.628199E+03	3.378204E-04	7.364582E-05
2.668021E+03	3.445238E-04	7.414101E-05
2.707842E+03	3.515647E-04	7.465197E-05
2.747663E+03	3.589768E-04	7.518161E-05
2.787484E+03	3.667904E-04	7.573171E-05
2.827305E+03	3.750321E-04	7.630272E-05
2.867127E+03	3.837750E-04	7.690401E-05
2.906948E+03	3.930854E-04	7.754259E-05
2.946769E+03	4.030212E-04	7.822276E-05
2.986590E+03	4.136311E-04	7.894624E-05
2.996546E+03	4.164273E-04	7.914020E-05
3.006501E+03	4.192387E-04	7.933105E-05
3.016456E+03	4.220637E-04	7.951845E-05
3.026411E+03	4.250022E-04	7.972104E-05
3.036367E+03	4.279521E-04	7.991947E-05
3.046322E+03	4.309624E-04	8.012276E-05
3.056277E+03	4.339817E-04	8.032126E-05
3.066233E+03	4.371085E-04	8.053304E-05
3.076188E+03	4.402911E-04	8.074831E-05
3.086143E+03	4.434784E-04	8.095758E-05
3.096099E+03	4.467680E-04	8.117852E-05
3.106054E+03	4.501088E-04	8.140163E-05
3.116009E+03	4.534988E-04	8.162634E-05
3.125964E+03	4.569360E-04	8.185218E-05
3.135920E+03	4.604680E-04	8.208745E-05
3.145875E+03	4.639949E-04	8.231417E-05
3.155830E+03	4.676607E-04	8.255771E-05
3.165786E+03	4.713177E-04	8.279174E-05
3.175741E+03	4.751089E-04	8.304125E-05
3.185696E+03	4.788871E-04	8.328025E-05
3.195652E+03	4.827949E-04	8.353339E-05
3.205607E+03	4.867331E-04	8.378325E-05
3.215562E+03	4.907475E-04	8.403752E-05
3.225517E+03	4.948354E-04	8.429552E-05
3.235473E+03	4.989944E-04	8.455660E-05
3.245428E+03	5.032213E-04	8.481997E-05
3.255383E+03	5.075138E-04	8.508507E-05
3.265339E+03	5.118687E-04	8.535111E-05
3.275294E+03	5.163303E-04	8.562524E-05
3.285249E+03	5.208485E-04	8.589885E-05
3.295205E+03	5.254204E-04	8.617129E-05
3.305160E+03	5.300895E-04	8.644945E-05
3.315115E+03	5.348061E-04	8.672496E-05
3.325070E+03	5.396134E-04	8.700462E-05
3.335026E+03	5.445081E-04	8.728761E-05
3.344981E+03	5.494869E-04	8.757311E-05
3.354936E+03	5.545460E-04	8.786022E-05
3.364892E+03	5.597277E-04	8.815536E-05
3.374847E+03	5.649384E-04	8.844347E-05
3.384802E+03	5.702203E-04	8.873101E-05
3.394758E+03	5.756592E-04	8.903096E-05
3.404713E+03	5.811187E-04	8.932191E-05
3.414668E+03	5.867284E-04	8.962352E-05
3.424623E+03	5.923977E-04	8.992158E-05
3.434579E+03	5.981680E-04	9.022209E-05
3.444534E+03	6.040373E-04	9.052444E-05
3.454489E+03	6.100034E-04	9.082795E-05
3.464445E+03	6.160656E-04	9.113218E-05
3.474400E+03	6.222653E-04	9.144291E-05
3.484355E+03	6.285603E-04	9.175351E-05
3.494311E+03	6.349931E-04	9.206982E-05
3.504266E+03	6.415229E-04	9.238550E-05
3.514221E+03	6.482361E-04	9.271257E-05
3.524176E+03	6.550936E-04	9.304490E-05
3.534132E+03	6.620584E-04	9.337678E-05
3.544087E+03	6.692183E-04	9.372012E-05
3.554042E+03	6.765792E-04	9.407514E-05
3.563998E+03	6.841076E-04	9.443652E-05
3.573953E+03	6.918528E-04	9.481048E-05
3.583908E+03	6.998243E-04	9.519760E-05
3.593864E+03	7.079933E-04	9.559325E-05
3.603819E+03	7.164513E-04	9.600902E-05
3.613774E+03	7.251719E-04	9.644048E-05
3.623729E+03	7.342085E-04	9.689381E-05
3.633685E+03	7.435368E-04	9.736481E-05
3.643640E+03	7.532124E-04	9.785973E-05
3.653595E+03	7.632522E-04	9.837962E-05
3.663551E+03	7.736730E-04	9.892545E-05
3.673506E+03	7.844931E-04	9.949828E-05
3.683461E+03	7.957685E-04	1.001038E-04
3.693417E+03	8.074409E-04	1.007334E-04
3.703372E+03	8.196419E-04	1.014019E-04
3.713327E+03	8.323122E-04	1.021004E-04
3.723282E+03	8.455425E-04	1.028383E-04
3.733238E+03	8.592714E-04	1.036063E-04
3.743193E+03	8.735485E-04	1.044089E-04
3.753148E+03	8.884204E-04	1.052496E-04
3.763104E+03	9.038557E-04	1.061229E-04
3.773059E+03	9.198946E-04	1.070315E-04
3.783014E+03	9.364982E-04	1.079689E-04
3.792970E+03	9.536966E-04	1.089367E-04
3.802925E+03	9.714789E-04	1.099316E-04
3.812880E+03	9.898265E-04	1.109497E-04
3.822835E+03	1.008715E-03	1.119862E-04
3.832791E+03	1.028113E-03	1.130360E-04
3.842746E+03	1.047982E-03	1.140930E-04
3.852701E+03	1.068312E-03	1.151546E-04
3.862657E+03	1.089011E-03	1.162094E-04
3.872612E+03	1.110017E-03	1.172496E-04
3.882567E+03	1.131297E-03	1.182705E-04
3.892523E+03	1.152736E-03	1.192594E-04
3.902478E+03	1.174288E-03	1.202110E-04
3.912433E+03	1.195826E-03	1.211118E-04
3.922388E+03	1.217255E-03	1.219525E-04
3.932344E+03	1.238518E-03	1.227276E-04
3.942299E+03	1.259477E-03	1.234241E-04
3.952254E+03	1.280074E-03	1.240372E-04
3.962210E+03	1.300137E-03	1.245517E-04
3.972165E+03	1.319650E-03	1.249678E-04
3.982120E+03	1.338488E-03	1.252756E-04
3.992076E+03	1.356536E-03	1.254666E-04
4.002031E+03	1.373761E-03	1.255405E-04
4.011986E+03	1.390067E-03	1.254912E-04
4.021941E+03	1.405405E-03	1.253176E-04
4.031897E+03	1.419777E-03	1.250228E-04
4.041852E+03	1.433085E-03	1.246018E-04
4.051807E+03	1.445321E-03	1.240575E-04
4.061763E+03	1.456524E-03	1.233967E-04
4.071718E+03	1.466641E-03	1.226184E-04
4.081673E+03	1.475702E-03	1.217290E-04
4.091629E+03	1.483782E-03	1.207380E-04
4.101584E+03	1.490867E-03	1.196478E-04
4.111539E+03	1.497021E-03	1.184668E-04
4.121494E+03	1.502284E-03	1.172013E-04
4.131450E+03	1.506768E-03	1.158631E-04
4.141405E+03	1.510495E-03	1.144565E-04
4.151360E+03	1.513558E-03	1.129912E-04
4.161316E+03	1.516053E-03	1.114764E-04
4.171271E+03	1.518017E-03	1.099171E-04
4.181226E+03	1.519551E-03	1.083221E-04
4.191182E+03	1.520758E-03	1.067005E-04
4.201137E+03	1.521708E-03	1.050581E-04
4.211092E+03	1.522476E-03	1.034012E-04
4.221047E+03	1.523132E-03	1.017351E-04
4.231003E+03	1.523777E-03	1.000670E-04
4.240958E+03	1.524506E-03	9.840321E-05
4.250913E+03	1.525359E-03	9.674614E-05
4.260869E+03	1.526401E-03	9.509960E-05
4.270824E+03	1.527749E-03	9.347023E-05
4.280779E+03	1.529462E-03	9.186072E-05
4.290735E+03	1.531596E-03	9.027337E-05
4.300690E+03	1.534208E-03	8.871013E-05
4.310645E+03	1.537397E-03	8.717530E-05
4.320601E+03	1.541211E-03	8.566979E-05
4.330556E+03	1.545719E-03	8.419547E-05
4.340511E+03	1.550987E-03	8.275373E-05
4.350466E+03	1.557076E-03	8.134545E-05
4.360422E+03	1.564045E-03	7.997114E-05
4.370377E+03	1.571972E-03	7.863206E-05
4.380332E+03	1.580929E-03	7.732883E-05
4.390288E+03	1.590959E-03	7.606040E-05
4.400243E+03	1.602124E-03	7.482632E-05
4.410198E+03	1.614497E-03	7.362663E-05
4.420154E+03	1.628073E-03	7.245748E-05
4.430109E+03	1.642906E-03	7.131762E-05
4.440064E+03	1.658965E-03	7.020202E-05
4.450019E+03	1.676202E-03	6.910525E-05
4.459975E+03	1.694554E-03	6.802139E-05
4.469930E+03	1.713962E-03	6.694510E-05
4.479885E+03	1.734255E-03	6.586703E-05
4.489841E+03	1.755381E-03	6.478312E-05
4.499796E+03	1.777130E-03	6.368383E-05
4.509751E+03	1.799386E-03	6.256398E-05
4.519707E+03	1.821926E-03	6.141520E-05
4.529662E+03	1.844602E-03	6.023269E-05
4.539617E+03	1.867183E-03	5.900976E-05
4.549572E+03	1.889502E-03	5.774262E-05
4.559528E+03	1.911315E-03	5.642605E-05
4.569483E+03	1.932426E-03	5.505734E-05
4.579438E+03	1.952646E-03	5.363481E-05
4.589394E+03	1.971799E-03	5.215798E-05
4.599349E+03	1.989723E-03	5.062758E-05
4.609304E+03	2.006254E-03	4.904505E-05
4.619260E+03	2.021302E-03	4.741432E-05
4.629215E+03	2.034779E-03	4.573991E-05
4.639170E+03	2.046605E-03	4.402694E-05
4.649125E+03	2.056755E-03	4.228222E-05
4.659081E+03	2.065261E-03	4.051398E-05
4.669036E+03	2.072141E-03	3.873029E-05
4.678991E+03	2.077491E-03	3.694093E-05
4.688947E+03	2.081414E-03	3.515583E-05
4.698902E+03	2.084020E-03	3.338515E-05
4.708857E+03	2.085471E-03	3.164009E-05
4.718813E+03	2.085979E-03	2.993274E-05
4.728768E+03	2.085734E-03	2.827515E-05
4.738723E+03	2.084968E-03	2.668043E-05
4.748678E+03	2.083977E-03	2.516305E-05
4.758634E+03	2.082960E-03	2.373706E-05
4.768589E+03	2.082182E-03	2.241836E-05
4.778544E+03	2.081793E-03	2.122274E-05
4.788500E+03	2.081963E-03	2.016733E-05
4.798455E+03	2.082826E-03	1.926957E-05
4.808410E+03	2.084511E-03	1.854659E-05
4.818366E+03	2.087164E-03	1.801402E-05
4.828321E+03	2.090923E-03	1.768402E-05
4.838276E+03	2.095908E-03	1.756088E-05
4.848231E+03	2.102177E-03	1.763435E-05
4.858187E+03	2.109855E-03	1.788828E-05
4.868142E+03	2.118930E-03	1.830206E-05
4.878097E+03	2.129451E-03	1.885433E-05
4.888053E+03	2.141391E-03	1.952333E-05
4.898008E+03	2.154715E-03	2.028868E-05
4.907963E+03	2.169333E-03	2.113157E-05
4.917919E+03	2.185144E-03	2.203531E-05
4.927874E+03	2.201975E-03	2.298463E-05
4.937829E+03	2.219667E-03	2.396634E-05
4.947784E+03	2.238046E-03	2.496861E-05
4.957740E+03	2.256869E-03	2.598021E-05
4.967695E+03	2.275935E-03	2.699135E-05
4.977650E+03	2.295018E-03	2.799279E-05
4.987606E+03	2.313897E-03	2.897596E-05
4.997561E+03	2.332394E-03	2.993337E-05
5.007516E+03	2.350301E-03	3.085763E-05
5.017472E+03	2.367465E-03	3.174239E-05
5.027427E+03	2.383787E-03	3.258252E-05
5.037382E+03	2.399206E-03	3.337373E-05
5.047337E+03	2.413618E-03	3.411154E-05
5.057293E+03	2.426998E-03	3.479300E-05
5.067248E+03	2.439403E-03	3.541667E-05
5.077203E+03	2.450859E-03	3.598112E-05
5.087159E+03	2.461360E-03	3.648475E-05
5.097114E+03	2.471010E-03	3.692798E-05
5.107069E+03	2.479841E-03	3.731050E-05
5.117025E+03	2.487936E-03	3.763306E-05
5.126980E+03	2.495320E-03	3.789581E-05
5.136935E+03	2.502034E-03	3.809949E-05
5.146890E+03	2.508160E-03	3.824565E-05
5.156846E+03	2.513664E-03	3.833435E-05
5.166801E+03	2.518577E-03	3.836688E-05
5.176756E+03	2.522888E-03	3.834418E-05
5.186712E+03	2.526553E-03	3.826689E-05
5.196667E+03	2.529592E-03	3.813691E-05
5.206622E+03	2.531937E-03	3.795510E-05
5.216578E+03	2.533539E-03	3.772290E-05
5.226533E+03	2.534345E-03	3.744198E-05
5.236488E+03	2.534318E-03	3.711464E-05
5.246443E+03	2.533368E-03	3.674273E-05
5.256399E+03	2.531453E-03	3.632920E-05
5.266354E+03	2.528479E-03	3.587664E-05
5.276309E+03	2.524403E-03	3.538882E-05
5.286265E+03	2.519134E-03	3.486924E-05
5.296220E+03	2.512659E-03	3.432295E-05
5.306175E+03	2.504871E-03	3.375416E-05
5.316131E+03	2.495746E-03	3.316862E-05
5.326086E+03	2.485243E-03	3.257230E-05
5.336041E+03	2.473360E-03	3.197202E-05
5.345996E+03	2.460029E-03	3.137409E-05
5.355952E+03	2.445298E-03	3.078652E-05
5.365907E+03	2.429177E-03	3.021701E-05
5.375862E+03	2.411644E-03	2.967282E-05
5.385818E+03	2.392785E-03	2.916248E-05
5.395773E+03	2.372628E-03	2.869342E-05
5.405728E+03	2.351259E-03	2.827330E-05
5.415684E+03	2.328726E-03	2.790857E-05
5.425639E+03	2.305129E-03	2.760543E-05
5.435594E+03	2.280525E-03	2.736835E-05
5.445549E+03	2.254998E-03	2.719788E-05
5.455505E+03	2.228659E-03	2.708857E-05
5.465460E+03	2.201573E-03	2.703322E-05
5.475415E+03	2.173834E-03	2.702460E-05
5.485371E+03	2.145454E-03	2.705427E-05
5.495326E+03	2.116525E-03	2.711486E-05
5.505281E+03	2.087078E-03	2.719845E-05
5.515237E+03	2.057199E-03	2.729824E-05
5.525192E+03	2.026932E-03	2.740739E-05
5.535147E+03	1.996427E-03	2.752106E-05
5.545102E+03	1.965799E-03	2.763466E-05
5.555058E+03	1.935209E-03	2.774495E-05
5.565013E+03	1.904844E-03	2.784985E-05
5.574968E+03	1.874911E-03	2.794834E-05
5.584924E+03	1.845638E-03	2.804048E-05
5.594879E+03	1.817261E-03	2.812725E-05
5.604834E+03	1.790027E-03	2.821045E-05
5.614790E+03	1.764181E-03	2.829257E-05
5.624745E+03	1.739948E-03	2.837634E-05
5.634700E+03	1.717557E-03	2.846513E-05
5.644655E+03	1.697241E-03	2.856278E-05
5.654611E+03	1.679175E-03	2.867257E-05
5.664566E+03	1.663546E-03	2.879825E-05
5.674521E+03	1.650463E-03	2.894241E-05
5.684477E+03	1.640053E-03	2.910811E-05
5.694432E+03	1.632393E-03	2.929756E-05
5.704387E+03	1.627512E-03	2.951204E-05
5.714343E+03	1.625417E-03	2.975236E-05
5.724298E+03	1.626092E-03	3.001879E-05
5.734253E+03	1.629437E-03	3.030984E-05
5.744209E+03	1.635376E-03	3.062422E-05
5.754164E+03	1.643728E-03	3.095848E-05
5.764119E+03	1.654322E-03	3.130906E-05
5.774074E+03	1.666914E-03	3.167078E-05
5.784030E+03	1.681256E-03	3.203813E-05
5.793985E+03	1.697013E-03	3.240376E-05
5.803940E+03	1.713883E-03	3.276079E-05
5.813896E+03	1.731468E-03	3.310036E-05
5.823851E+03	1.749399E-03	3.341413E-05
5.833806E+03	1.767258E-03	3.369283E-05
5.843762E+03	1.784651E-03	3.392779E-05
5.853717E+03	1.801157E-03	3.410995E-05
5.863672E+03	1.816384E-03	3.423111E-05
5.873627E+03	1.829967E-03	3.428389E-05
5.883583E+03	1.841579E-03	3.426203E-05
5.893538E+03	1.850924E-03	3.416027E-05
5.903493E+03	1.857800E-03	3.397555E-05
5.913449E+03	1.862054E-03	3.370623E-05
5.923404E+03	1.863585E-03	3.335206E-05
5.933359E+03	1.862390E-03	3.291492E-05
5.943315E+03	1.858554E-03	3.239871E-05
5.953270E+03	1.852222E-03	3.180854E-05
5.963225E+03	1.843564E-03	3.115023E-05
5.973180E+03	1.832886E-03	3.043194E-05
5.983136E+03	1.820505E-03	2.966198E-05
5.993091E+03	1.806759E-03	2.884884E-05
6.003046E+03	1.792048E-03	2.800177E-05
6.013002E+03	1.776768E-03	2.712962E-05
6.022957E+03	1.761322E-03	2.624089E-05
6.032912E+03	1.746124E-03	2.534379E-05
6.042868E+03	1.731558E-03	2.444555E-05
6.052823E+03	1.717971E-03	2.355236E-05
6.062778E+03	1.705755E-03	2.267053E-05
6.072733E+03	1.695187E-03	2.180428E-05
6.082689E+03	1.686588E-03	2.095798E-05
6.092644E+03	1.680192E-03	2.013456E-05
6.102599E+03	1.676240E-03	1.933678E-05
6.112555E+03	1.674926E-03	1.856666E-05
6.122510E+03	1.676415E-03	1.782593E-05
6.132465E+03	1.680825E-03	1.711598E-05
6.142421E+03	1.688262E-03	1.643846E-05
6.152376E+03	1.698765E-03	1.579499E-05
6.162331E+03	1.712429E-03	1.518855E-05
6.172286E+03	1.729228E-03	1.462210E-05
6.182242E+03	1.749166E-03	1.410031E-05
6.192197E+03	1.772172E-03	1.362880E-05
6.202152E+03	1.798111E-03	1.321456E-05
6.212108E+03	1.826836E-03	1.286636E-05
6.222063E+03	1.858120E-03	1.259412E-05
6.232018E+03	1.891694E-03	1.240867E-05
6.241974E+03	1.927262E-03	1.232101E-05
6.251929E+03	1.964494E-03	1.233657E-05
6.261884E+03	2.002939E-03	1.244871E-05
6.271839E+03	2.042220E-03	1.264767E-05
6.281795E+03	2.081892E-03	1.292128E-05
6.291750E+03	2.121511E-03	1.325616E-05
6.301705E+03	2.160689E-03	1.363877E-05
6.311661E+03	2.199046E-03	1.405576E-05
6.321616E+03	2.236213E-03	1.449455E-05
6.331571E+03	2.271886E-03	1.494402E-05
6.341527E+03	2.305860E-03	1.539500E-05
6.351482E+03	2.337888E-03	1.583957E-05
6.361437E+03	2.367847E-03	1.627217E-05
6.371392E+03	2.395666E-03	1.668928E-05
6.381348E+03	2.421272E-03	1.708899E-05
6.391303E+03	2.444708E-03	1.747181E-05
6.401258E+03	2.465998E-03	1.783973E-05
6.411214E+03	2.485220E-03	1.819661E-05
6.421169E+03	2.502414E-03	1.854742E-05
6.431124E+03	2.517730E-03	1.889923E-05
6.441080E+03	2.531239E-03	1.925960E-05
6.451035E+03	2.543030E-03	1.963710E-05
6.460990E+03	2.553170E-03	2.004074E-05
6.470945E+03	2.561705E-03	2.047966E-05
6.480901E+03	2.568578E-03	2.096213E-05
6.490856E+03	2.573848E-03	2.149690E-05
6.500811E+03	2.577446E-03	2.209069E-05
6.510767E+03	2.579483E-03	2.274474E-05
6.520722E+03	2.579954E-03	2.345237E-05
6.530677E+03	2.578960E-03	2.420691E-05
6.540633E+03	2.576487E-03	2.500031E-05
6.550588E+03	2.572599E-03	2.582513E-05
6.560543E+03	2.567222E-03	2.667261E-05
6.570498E+03	2.560339E-03	2.753474E-05
6.580454E+03	2.551862E-03	2.840292E-05
6.590409E+03	2.541724E-03	2.926904E-05
6.600364E+03	2.529854E-03	3.012520E-05
6.610320E+03	2.516220E-03	3.096423E-05
6.620275E+03	2.500748E-03	3.177880E-05
6.630230E+03	2.483413E-03	3.256249E-05
6.640186E+03	2.464251E-03	3.331000E-05
6.650141E+03	2.443299E-03	3.401653E-05
6.660096E+03	2.420606E-03	3.467782E-05
6.670051E+03	2.396343E-03	3.529184E-05
6.680007E+03	2.370608E-03	3.585606E-05
6.689962E+03	2.343617E-03	3.637024E-05
6.699917E+03	2.315619E-03	3.683528E-05
6.709873E+03	2.286836E-03	3.725233E-05
6.719828E+03	2.257565E-03	3.762436E-05
6.729783E+03	2.228095E-03	3.795482E-05
6.739739E+03	2.198696E-03	3.824750E-05
6.749694E+03	2.169718E-03	3.850816E-05
6.759649E+03	2.141436E-03	3.874179E-05
6.769604E+03	2.114139E-03	3.895416E-05
6.779560E+03	2.088106E-03	3.915128E-05
6.789515E+03	2.063621E-03	3.933966E-05
6.799470E+03	2.040924E-03	3.952534E-05
6.809426E+03	2.020208E-03	3.971367E-05
6.819381E+03	2.001707E-03	3.991105E-05
6.829336E+03	1.985537E-03	4.012160E-05
6.839292E+03	1.971848E-03	4.035023E-05
6.849247E+03	1.960759E-03	4.060122E-05
6.859202E+03	1.952288E-03	4.087667E-05
6.869157E+03	1.946506E-03	4.117975E-05
6.879113E+03	1.943407E-03	4.151177E-05
6.889068E+03	1.942923E-03	4.187259E-05
6.899023E+03	1.944975E-03	4.226158E-05
6.908979E+03	1.949472E-03	4.267762E-05
6.918934E+03	1.956268E-03	4.311808E-05
6.928889E+03	1.965160E-03	4.357889E-05
6.938845E+03	1.975970E-03	4.405617E-05
6.948800E+03	1.988471E-03	4.454477E-05
6.958755E+03	2.002395E-03	4.503840E-05
6.968710E+03	2.017540E-03	4.553197E-05
6.978666E+03	2.033602E-03	4.601801E-05
6.988621E+03	2.050358E-03	4.649069E-05
6.998576E+03	2.067599E-03	4.694444E-05
7.008532E+03	2.085062E-03	4.737238E-05
7.018487E+03	2.102612E-03	4.777060E-05
7.028442E+03	2.120048E-03	4.813360E-05
7.038398E+03	2.137305E-03	4.845910E-05
7.048353E+03	2.154280E-03	4.874400E-05
7.058308E+03	2.170930E-03	4.898662E-05
7.068263E+03	2.187245E-03	4.918610E-05
7.078219E+03	2.203269E-03	4.934288E-05
7.088174E+03	2.219006E-03	4.945661E-05
7.098129E+03	2.234499E-03	4.952780E-05
7.108085E+03	2.249813E-03	4.955759E-05
7.118040E+03	2.264944E-03	4.954564E-05
7.127995E+03	2.279922E-03	4.949239E-05
7.137951E+03	2.294711E-03	4.939699E-05
7.147906E+03	2.309203E-03	4.925716E-05
7.157861E+03	2.323298E-03	4.907096E-05
7.167817E+03	2.336779E-03	4.883430E-05
7.177772E+03	2.349464E-03	4.854407E-05
7.187727E+03	2.360992E-03	4.819389E-05
7.197682E+03	2.371071E-03	4.777936E-05
7.207638E+03	2.379274E-03	4.729393E-05
7.217593E+03	2.385170E-03	4.673170E-05
7.227548E+03	2.388312E-03	4.608724E-05
7.237504E+03	2.388281E-03	4.535658E-05
7.247459E+03	2.384619E-03	4.453579E-05
7.257414E+03	2.376939E-03	4.362328E-05
7.267370E+03	2.364977E-03	4.262054E-05
7.277325E+03	2.348432E-03	4.152907E-05
7.287280E+03	2.327163E-03	4.035398E-05
7.297235E+03	2.301204E-03	3.910384E-05
7.307191E+03	2.270589E-03	3.778745E-05
7.317146E+03	2.235535E-03	3.641679E-05
7.327101E+03	2.196408E-03	3.500601E-05
7.337057E+03	2.153617E-03	3.356958E-05
7.347012E+03	2.107720E-03	3.212361E-05
7.356967E+03	2.059257E-03	3.068314E-05
7.366923E+03	2.008871E-03	2.926378E-05
7.376878E+03	1.957248E-03	2.788076E-05
7.386833E+03	1.904993E-03	2.654699E-05
7.396788E+03	1.852768E-03	2.527505E-05
7.406744E+03	1.801114E-03	2.407487E-05
7.416699E+03	1.750643E-03	2.295623E-05
7.426654E+03	1.701776E-03	2.192551E-05
7.436610E+03	1.654938E-03	2.098832E-05
7.446565E+03	1.610458E-03	2.014831E-05
7.456520E+03	1.568612E-03	1.940787E-05
7.466476E+03	1.529588E-03	1.876775E-05
7.476431E+03	1.493488E-03	1.822697E-05
7.486386E+03	1.460399E-03	1.778077E-05
7.496341E+03	1.430305E-03	1.742100E-05
7.506297E+03	1.403167E-03	1.713965E-05
7.516252E+03	1.378926E-03	1.692900E-05
7.526207E+03	1.357452E-03	1.678112E-05
7.536163E+03	1.338632E-03	1.668885E-05
7.546118E+03	1.322281E-03	1.664473E-05
7.556073E+03	1.308261E-03	1.664243E-05
7.566029E+03	1.296413E-03	1.667590E-05
7.575984E+03	1.286592E-03	1.673964E-05
7.585939E+03	1.278663E-03	1.682873E-05
7.595894E+03	1.272548E-03	1.693930E-05
7.605850E+03	1.268218E-03	1.706844E-05
7.615805E+03	1.265619E-03	1.721322E-05
7.625760E+03	1.264720E-03	1.737120E-05
7.635716E+03	1.265500E-03	1.754025E-05
7.645671E+03	1.267880E-03	1.771758E-05
7.655626E+03	1.271820E-03	1.790101E-05
7.665582E+03	1.277271E-03	1.808826E-05
7.675537E+03	1.284119E-03	1.827616E-05
7.685492E+03	1.292291E-03	1.846207E-05
7.695447E+03	1.301688E-03	1.864298E-05
7.705403E+03	1.312199E-03	1.881570E-05
7.715358E+03	1.323730E-03	1.897720E-05
7.725313E+03	1.336126E-03	1.912358E-05
