#wls	flux	fluxerr
1.592848E+03	7.553356E-05	4.965216E-05
1.632669E+03	7.796875E-05	5.085916E-05
1.672491E+03	8.048089E-05	5.208511E-05
1.712312E+03	8.308477E-05	5.333768E-05
1.752133E+03	8.576726E-05	5.460641E-05
1.791954E+03	8.854353E-05	5.589894E-05
1.831775E+03	9.141470E-05	5.721372E-05
1.871597E+03	9.438165E-05	5.854900E-05
1.911418E+03	9.744497E-05	5.990276E-05
1.951239E+03	1.006050E-04	6.127280E-05
1.991060E+03	1.038618E-04	6.265660E-05
2.030881E+03	1.072325E-04	6.406193E-05
2.070703E+03	1.106999E-04	6.547558E-05
2.110524E+03	1.142811E-04	6.690504E-05
2.150345E+03	1.179761E-04	6.834720E-05
2.190166E+03	1.217649E-04	6.978750E-05
2.229987E+03	1.256845E-04	7.124422E-05
2.269809E+03	1.297146E-04	7.270232E-05
2.309630E+03	1.338737E-04	7.416885E-05
2.349451E+03	1.381392E-04	7.562789E-05
2.389272E+03	1.425295E-04	7.708609E-05
2.429093E+03	1.470421E-04	7.853840E-05
2.468915E+03	1.516739E-04	7.997948E-05
2.508736E+03	1.564441E-04	8.141565E-05
2.548557E+03	1.613264E-04	8.282922E-05
2.588378E+03	1.663397E-04	8.422607E-05
2.628199E+03	1.715041E-04	8.561207E-05
2.668021E+03	1.767915E-04	8.696882E-05
2.707842E+03	1.821972E-04	8.828984E-05
2.747663E+03	1.877662E-04	8.959263E-05
2.787484E+03	1.934441E-04	9.084651E-05
2.827305E+03	1.993032E-04	9.208094E-05
2.867127E+03	2.052888E-04	9.326535E-05
2.906948E+03	2.114235E-04	9.440539E-05
2.946769E+03	2.177317E-04	9.550672E-05
2.986590E+03	2.242126E-04	9.656332E-05
2.996546E+03	2.258530E-04	9.681690E-05
3.006501E+03	2.275179E-04	9.707308E-05
3.016456E+03	2.291800E-04	9.732014E-05
3.026411E+03	2.308666E-04	9.756961E-05
3.036367E+03	2.325504E-04	9.780982E-05
3.046322E+03	2.342589E-04	9.805227E-05
3.056277E+03	2.359647E-04	9.828535E-05
3.066233E+03	2.376953E-04	9.852050E-05
3.076188E+03	2.394510E-04	9.875760E-05
3.086143E+03	2.412040E-04	9.898515E-05
3.096099E+03	2.429823E-04	9.921450E-05
3.106054E+03	2.447582E-04	9.943420E-05
3.116009E+03	2.465595E-04	9.965555E-05
3.125964E+03	2.483585E-04	9.986718E-05
3.135920E+03	2.501833E-04	1.000803E-04
3.145875E+03	2.520059E-04	1.002837E-04
3.155830E+03	2.538828E-04	1.004996E-04
3.165786E+03	2.557297E-04	1.006945E-04
3.175741E+03	2.576315E-04	1.009018E-04
3.185696E+03	2.595317E-04	1.010990E-04
3.195652E+03	2.614303E-04	1.012864E-04
3.205607E+03	2.633848E-04	1.014858E-04
3.215562E+03	2.653098E-04	1.016643E-04
3.225517E+03	2.672911E-04	1.018546E-04
3.235473E+03	2.692717E-04	1.020349E-04
3.245428E+03	2.712808E-04	1.022161E-04
3.255383E+03	2.732900E-04	1.023873E-04
3.265339E+03	2.753278E-04	1.025591E-04
3.275294E+03	2.773949E-04	1.027316E-04
3.285249E+03	2.794918E-04	1.029048E-04
3.295205E+03	2.815897E-04	1.030678E-04
3.305160E+03	2.837181E-04	1.032315E-04
3.315115E+03	2.858482E-04	1.033851E-04
3.325070E+03	2.880094E-04	1.035391E-04
3.335026E+03	2.902022E-04	1.036936E-04
3.344981E+03	2.924270E-04	1.038485E-04
3.354936E+03	2.946552E-04	1.039933E-04
3.364892E+03	2.969162E-04	1.041384E-04
3.374847E+03	2.992107E-04	1.042838E-04
3.384802E+03	3.015097E-04	1.044191E-04
3.394758E+03	3.038429E-04	1.045546E-04
3.404713E+03	3.062112E-04	1.046903E-04
3.414668E+03	3.085856E-04	1.048161E-04
3.424623E+03	3.110252E-04	1.049519E-04
3.434579E+03	3.134721E-04	1.050778E-04
3.444534E+03	3.159559E-04	1.052035E-04
3.454489E+03	3.184477E-04	1.053193E-04
3.464445E+03	3.209782E-04	1.054351E-04
3.474400E+03	3.235471E-04	1.055506E-04
3.484355E+03	3.261556E-04	1.056659E-04
3.494311E+03	3.288046E-04	1.057809E-04
3.504266E+03	3.314643E-04	1.058859E-04
3.514221E+03	3.341654E-04	1.059905E-04
3.524176E+03	3.369088E-04	1.060947E-04
3.534132E+03	3.396647E-04	1.061888E-04
3.544087E+03	3.424644E-04	1.062824E-04
3.554042E+03	3.453080E-04	1.063752E-04
3.563998E+03	3.481965E-04	1.064673E-04
3.573953E+03	3.511306E-04	1.065586E-04
3.583908E+03	3.540807E-04	1.066396E-04
3.593864E+03	3.570778E-04	1.067197E-04
3.603819E+03	3.601226E-04	1.067986E-04
3.613774E+03	3.632162E-04	1.068763E-04
3.623729E+03	3.663282E-04	1.069436E-04
3.633685E+03	3.694906E-04	1.070096E-04
3.643640E+03	3.727035E-04	1.070739E-04
3.653595E+03	3.759677E-04	1.071365E-04
3.663551E+03	3.792540E-04	1.071887E-04
3.673506E+03	3.826235E-04	1.072474E-04
3.683461E+03	3.860167E-04	1.072954E-04
3.693417E+03	3.894338E-04	1.073327E-04
3.703372E+03	3.929366E-04	1.073760E-04
3.713327E+03	3.964653E-04	1.074085E-04
3.723282E+03	4.000510E-04	1.074382E-04
3.733238E+03	4.036949E-04	1.074651E-04
3.743193E+03	4.073663E-04	1.074807E-04
3.753148E+03	4.110972E-04	1.074931E-04
3.763104E+03	4.148890E-04	1.075022E-04
3.773059E+03	4.187419E-04	1.075077E-04
3.783014E+03	4.226264E-04	1.075016E-04
3.792970E+03	4.265738E-04	1.074916E-04
3.802925E+03	4.305853E-04	1.074775E-04
3.812880E+03	4.346308E-04	1.074513E-04
3.822835E+03	4.387424E-04	1.074207E-04
3.832791E+03	4.429209E-04	1.073855E-04
3.842746E+03	4.471362E-04	1.073378E-04
3.852701E+03	4.514205E-04	1.072851E-04
3.862657E+03	4.557756E-04	1.072273E-04
3.872612E+03	4.602020E-04	1.071641E-04
3.882567E+03	4.646689E-04	1.070877E-04
3.892523E+03	4.691778E-04	1.069983E-04
3.902478E+03	4.737615E-04	1.069029E-04
3.912433E+03	4.784218E-04	1.068015E-04
3.922388E+03	4.831596E-04	1.066936E-04
3.932344E+03	4.879437E-04	1.065720E-04
3.942299E+03	4.927761E-04	1.064366E-04
3.952254E+03	4.976897E-04	1.062943E-04
3.962210E+03	5.026869E-04	1.061449E-04
3.972165E+03	5.077359E-04	1.059812E-04
3.982120E+03	5.128715E-04	1.058100E-04
3.992076E+03	5.180616E-04	1.056243E-04
4.002031E+03	5.233082E-04	1.054239E-04
4.011986E+03	5.286456E-04	1.052154E-04
4.021941E+03	5.340761E-04	1.049987E-04
4.031897E+03	5.395680E-04	1.047668E-04
4.041852E+03	5.451228E-04	1.045196E-04
4.051807E+03	5.507758E-04	1.042636E-04
4.061763E+03	5.564949E-04	1.039919E-04
4.071718E+03	5.622823E-04	1.037045E-04
4.081673E+03	5.681734E-04	1.034075E-04
4.091629E+03	5.741364E-04	1.030944E-04
4.101584E+03	5.801726E-04	1.027650E-04
4.111539E+03	5.863186E-04	1.024253E-04
4.121494E+03	5.925071E-04	1.020628E-04
4.131450E+03	5.988092E-04	1.016896E-04
4.141405E+03	6.052267E-04	1.013050E-04
4.151360E+03	6.116920E-04	1.008973E-04
4.161316E+03	6.182764E-04	1.004777E-04
4.171271E+03	6.249469E-04	1.000402E-04
4.181226E+03	6.316696E-04	9.957901E-05
4.191182E+03	6.385170E-04	9.910503E-05
4.201137E+03	6.454911E-04	9.861780E-05
4.211092E+03	6.525215E-04	9.810596E-05
4.221047E+03	6.596454E-04	9.757475E-05
4.231003E+03	6.668641E-04	9.702381E-05
4.240958E+03	6.741789E-04	9.645284E-05
4.250913E+03	6.815907E-04	9.586141E-05
4.260869E+03	6.891003E-04	9.524911E-05
4.270824E+03	6.967086E-04	9.461558E-05
4.280779E+03	7.044162E-04	9.396036E-05
4.290735E+03	7.122232E-04	9.328299E-05
4.300690E+03	7.200928E-04	9.257824E-05
4.310645E+03	7.280999E-04	9.185537E-05
4.320601E+03	7.361688E-04	9.110427E-05
4.330556E+03	7.443373E-04	9.032937E-05
4.340511E+03	7.525656E-04	8.952554E-05
4.350466E+03	7.609297E-04	8.870150E-05
4.360422E+03	7.693518E-04	8.784776E-05
4.370377E+03	7.778689E-04	8.696838E-05
4.380332E+03	7.864398E-04	8.605858E-05
4.390288E+03	7.951016E-04	8.512234E-05
4.400243E+03	8.038523E-04	8.415924E-05
4.410198E+03	8.126489E-04	8.316473E-05
4.420154E+03	8.215286E-04	8.214268E-05
4.430109E+03	8.304472E-04	8.108874E-05
4.440064E+03	8.394420E-04	8.000674E-05
4.450019E+03	8.484671E-04	7.889248E-05
4.459975E+03	8.575602E-04	7.774979E-05
4.469930E+03	8.666737E-04	7.657473E-05
4.479885E+03	8.758450E-04	7.537108E-05
4.489841E+03	8.850265E-04	7.413524E-05
4.499796E+03	8.942534E-04	7.287089E-05
4.509751E+03	9.034360E-04	7.157151E-05
4.519707E+03	9.126934E-04	7.024757E-05
4.529662E+03	9.218919E-04	6.888964E-05
4.539617E+03	9.311090E-04	6.750487E-05
4.549572E+03	9.402936E-04	6.609083E-05
4.559528E+03	9.494379E-04	6.464855E-05
4.569483E+03	9.585768E-04	6.318208E-05
4.579438E+03	9.676577E-04	6.168973E-05
4.589394E+03	9.766720E-04	6.017314E-05
4.599349E+03	9.856096E-04	5.863406E-05
4.609304E+03	9.945054E-04	5.707714E-05
4.619260E+03	1.003306E-03	5.550207E-05
4.629215E+03	1.011956E-03	5.390912E-05
4.639170E+03	1.020534E-03	5.230621E-05
4.649125E+03	1.029031E-03	5.069651E-05
4.659081E+03	1.037347E-03	4.907944E-05
4.669036E+03	1.045515E-03	4.746169E-05
4.678991E+03	1.053571E-03	4.585022E-05
4.688947E+03	1.061415E-03	4.424661E-05
4.698902E+03	1.069125E-03	4.266103E-05
4.708857E+03	1.076602E-03	4.109692E-05
4.718813E+03	1.083928E-03	3.956582E-05
4.728768E+03	1.091046E-03	3.807486E-05
4.738723E+03	1.097949E-03	3.663403E-05
4.748678E+03	1.104581E-03	3.525286E-05
4.758634E+03	1.111026E-03	3.394653E-05
4.768589E+03	1.117232E-03	3.272657E-05
4.778544E+03	1.123194E-03	3.160702E-05
4.788500E+03	1.128909E-03	3.060240E-05
4.798455E+03	1.134327E-03	2.972604E-05
4.808410E+03	1.139540E-03	2.899445E-05
4.818366E+03	1.144500E-03	2.841896E-05
4.828321E+03	1.149204E-03	2.800998E-05
4.838276E+03	1.153606E-03	2.777194E-05
4.848231E+03	1.157797E-03	2.770184E-05
4.858187E+03	1.161732E-03	2.778779E-05
4.868142E+03	1.165362E-03	2.801506E-05
4.878097E+03	1.168781E-03	2.837022E-05
4.888053E+03	1.171897E-03	2.883410E-05
4.898008E+03	1.174805E-03	2.939181E-05
4.907963E+03	1.177411E-03	3.002408E-05
4.917919E+03	1.179763E-03	3.071601E-05
4.927874E+03	1.181909E-03	3.145393E-05
4.937829E+03	1.183757E-03	3.222179E-05
4.947784E+03	1.185355E-03	3.300864E-05
4.957740E+03	1.186706E-03	3.380370E-05
4.967695E+03	1.187809E-03	3.459752E-05
4.977650E+03	1.188668E-03	3.538183E-05
4.987606E+03	1.189283E-03	3.614951E-05
4.997561E+03	1.189657E-03	3.689444E-05
5.007516E+03	1.189791E-03	3.761137E-05
5.017472E+03	1.189687E-03	3.829585E-05
5.027427E+03	1.189346E-03	3.894417E-05
5.037382E+03	1.188724E-03	3.955168E-05
5.047337E+03	1.187915E-03	4.011889E-05
5.057293E+03	1.186874E-03	4.064227E-05
5.067248E+03	1.185558E-03	4.111859E-05
5.077203E+03	1.184059E-03	4.154991E-05
5.087159E+03	1.182334E-03	4.193381E-05
5.097114E+03	1.180339E-03	4.226821E-05
5.107069E+03	1.178167E-03	4.255621E-05
5.117025E+03	1.175728E-03	4.279469E-05
5.126980E+03	1.173114E-03	4.298735E-05
5.136935E+03	1.170238E-03	4.313157E-05
5.146890E+03	1.167190E-03	4.323157E-05
5.156846E+03	1.163885E-03	4.328520E-05
5.166801E+03	1.160411E-03	4.329712E-05
5.176756E+03	1.156683E-03	4.326563E-05
5.186712E+03	1.152790E-03	4.319579E-05
5.196667E+03	1.148648E-03	4.308633E-05
5.206622E+03	1.144345E-03	4.294268E-05
5.216578E+03	1.139797E-03	4.276396E-05
5.226533E+03	1.135093E-03	4.255596E-05
5.236488E+03	1.130192E-03	4.231976E-05
5.246443E+03	1.125053E-03	4.205668E-05
5.256399E+03	1.119764E-03	4.177295E-05
5.266354E+03	1.114286E-03	4.147018E-05
5.276309E+03	1.108621E-03	4.115172E-05
5.286265E+03	1.102772E-03	4.082105E-05
5.296220E+03	1.096742E-03	4.048176E-05
5.306175E+03	1.090534E-03	4.013756E-05
5.316131E+03	1.084151E-03	3.979221E-05
5.326086E+03	1.077638E-03	3.945100E-05
5.336041E+03	1.070915E-03	3.911485E-05
5.345996E+03	1.064069E-03	3.879053E-05
5.355952E+03	1.057021E-03	3.847894E-05
5.365907E+03	1.049856E-03	3.818666E-05
5.375862E+03	1.042538E-03	3.791586E-05
5.385818E+03	1.035070E-03	3.766997E-05
5.395773E+03	1.027457E-03	3.745218E-05
5.405728E+03	1.019742E-03	3.726679E-05
5.415684E+03	1.011853E-03	3.711364E-05
5.425639E+03	1.003871E-03	3.699609E-05
5.435594E+03	9.957644E-04	3.690994E-05
5.445549E+03	9.875460E-04	3.685195E-05
5.455505E+03	9.792272E-04	3.681880E-05
5.465460E+03	9.708575E-04	3.680856E-05
5.475415E+03	9.623779E-04	3.681519E-05
5.485371E+03	9.538739E-04	3.683821E-05
5.495326E+03	9.453243E-04	3.687318E-05
5.505281E+03	9.367775E-04	3.691848E-05
5.515237E+03	9.281772E-04	3.696855E-05
5.525192E+03	9.196056E-04	3.702346E-05
5.535147E+03	9.110415E-04	3.707940E-05
5.545102E+03	9.025302E-04	3.713542E-05
5.555058E+03	8.940170E-04	3.718671E-05
5.565013E+03	8.855796E-04	3.723410E-05
5.574968E+03	8.771963E-04	3.727454E-05
5.584924E+03	8.689092E-04	3.730783E-05
5.594879E+03	8.606966E-04	3.733131E-05
5.604834E+03	8.525680E-04	3.734377E-05
5.614790E+03	8.445324E-04	3.734419E-05
5.624745E+03	8.366299E-04	3.733308E-05
5.634700E+03	8.288366E-04	3.730831E-05
5.644655E+03	8.211610E-04	3.726929E-05
5.654611E+03	8.136404E-04	3.721690E-05
5.664566E+03	8.062510E-04	3.714935E-05
5.674521E+03	7.990289E-04	3.706773E-05
5.684477E+03	7.919504E-04	3.697046E-05
5.694432E+03	7.850211E-04	3.685739E-05
5.704387E+03	7.782753E-04	3.672983E-05
5.714343E+03	7.716889E-04	3.658639E-05
5.724298E+03	7.652944E-04	3.642845E-05
5.734253E+03	7.590686E-04	3.625478E-05
5.744209E+03	7.530146E-04	3.606547E-05
5.754164E+03	7.471650E-04	3.586204E-05
5.764119E+03	7.414948E-04	3.564332E-05
5.774074E+03	7.360356E-04	3.541085E-05
5.784030E+03	7.307623E-04	3.516350E-05
5.793985E+03	7.257058E-04	3.490285E-05
5.803940E+03	7.208419E-04	3.462782E-05
5.813896E+03	7.162001E-04	3.433996E-05
5.823851E+03	7.117566E-04	3.403823E-05
5.833806E+03	7.075404E-04	3.372416E-05
5.843762E+03	7.035546E-04	3.339799E-05
5.853717E+03	6.997491E-04	3.305749E-05
5.863672E+03	6.962054E-04	3.270662E-05
5.873627E+03	6.928736E-04	3.234314E-05
5.883583E+03	6.897573E-04	3.196733E-05
5.893538E+03	6.868846E-04	3.158057E-05
5.903493E+03	6.842587E-04	3.118309E-05
5.913449E+03	6.818570E-04	3.077392E-05
5.923404E+03	6.797081E-04	3.035439E-05
5.933359E+03	6.777899E-04	2.992356E-05
5.943315E+03	6.761312E-04	2.948274E-05
5.953270E+03	6.747104E-04	2.903097E-05
5.963225E+03	6.735812E-04	2.857058E-05
5.973180E+03	6.726725E-04	2.809849E-05
5.983136E+03	6.720634E-04	2.761802E-05
5.993091E+03	6.717076E-04	2.712721E-05
6.003046E+03	6.716352E-04	2.662723E-05
6.013002E+03	6.718254E-04	2.611723E-05
6.022957E+03	6.723082E-04	2.559836E-05
6.032912E+03	6.730883E-04	2.507076E-05
6.042868E+03	6.741460E-04	2.453370E-05
6.052823E+03	6.755121E-04	2.398835E-05
6.062778E+03	6.771917E-04	2.343493E-05
6.072733E+03	6.791660E-04	2.287293E-05
6.082689E+03	6.814659E-04	2.230361E-05
6.092644E+03	6.840980E-04	2.172745E-05
6.102599E+03	6.870693E-04	2.114505E-05
6.112555E+03	6.903606E-04	2.055638E-05
6.122510E+03	6.940051E-04	1.996318E-05
6.132465E+03	6.980098E-04	1.936660E-05
6.142421E+03	7.023565E-04	1.876733E-05
6.152376E+03	7.071058E-04	1.816858E-05
6.162331E+03	7.122131E-04	1.757110E-05
6.172286E+03	7.177133E-04	1.697824E-05
6.182242E+03	7.235883E-04	1.639261E-05
6.192197E+03	7.298741E-04	1.581880E-05
6.202152E+03	7.366085E-04	1.526213E-05
6.212108E+03	7.437170E-04	1.472653E-05
6.222063E+03	7.512937E-04	1.422046E-05
6.232018E+03	7.593174E-04	1.375115E-05
6.241974E+03	7.677640E-04	1.332702E-05
6.251929E+03	7.766639E-04	1.295859E-05
6.261884E+03	7.860167E-04	1.265661E-05
6.271839E+03	7.958179E-04	1.243220E-05
6.281795E+03	8.060592E-04	1.229615E-05
6.291750E+03	8.166958E-04	1.225595E-05
6.301705E+03	8.277714E-04	1.231032E-05
6.311661E+03	8.392035E-04	1.245130E-05
6.321616E+03	8.510020E-04	1.267051E-05
6.331571E+03	8.631454E-04	1.295797E-05
6.341527E+03	8.756095E-04	1.330322E-05
6.351482E+03	8.883704E-04	1.369588E-05
6.361437E+03	9.013668E-04	1.412558E-05
6.371392E+03	9.146399E-04	1.458434E-05
6.381348E+03	9.280912E-04	1.506301E-05
6.391303E+03	9.417619E-04	1.555577E-05
6.401258E+03	9.555471E-04	1.605553E-05
6.411214E+03	9.694505E-04	1.655811E-05
6.421169E+03	9.834375E-04	1.705981E-05
6.431124E+03	9.974722E-04	1.755802E-05
6.441080E+03	1.011518E-03	1.805119E-05
6.451035E+03	1.025537E-03	1.853885E-05
6.460990E+03	1.039491E-03	1.902160E-05
6.470945E+03	1.053340E-03	1.950110E-05
6.480901E+03	1.067043E-03	1.998012E-05
6.490856E+03	1.080560E-03	2.046248E-05
6.500811E+03	1.093810E-03	2.095231E-05
6.510767E+03	1.106845E-03	2.145728E-05
6.520722E+03	1.119591E-03	2.198354E-05
6.530677E+03	1.132020E-03	2.253896E-05
6.540633E+03	1.144106E-03	2.313208E-05
6.550588E+03	1.155784E-03	2.377100E-05
6.560543E+03	1.167125E-03	2.446684E-05
6.570498E+03	1.178070E-03	2.522801E-05
6.580454E+03	1.188610E-03	2.606351E-05
6.590409E+03	1.198741E-03	2.698025E-05
6.600364E+03	1.208460E-03	2.797708E-05
6.610320E+03	1.217721E-03	2.904877E-05
6.620275E+03	1.226620E-03	3.019276E-05
6.630230E+03	1.235115E-03	3.140268E-05
6.640186E+03	1.243258E-03	3.267425E-05
6.650141E+03	1.250955E-03	3.399919E-05
6.660096E+03	1.258262E-03	3.537304E-05
6.670051E+03	1.265183E-03	3.679011E-05
6.680007E+03	1.271728E-03	3.824491E-05
6.689962E+03	1.277954E-03	3.973368E-05
6.699917E+03	1.283766E-03	4.124823E-05
6.709873E+03	1.289278E-03	4.278693E-05
6.719828E+03	1.294393E-03	4.434180E-05
6.729783E+03	1.299225E-03	4.591198E-05
6.739739E+03	1.303730E-03	4.749163E-05
6.749694E+03	1.307919E-03	4.907689E-05
6.759649E+03	1.311800E-03	5.066410E-05
6.769604E+03	1.315383E-03	5.224984E-05
6.779560E+03	1.318675E-03	5.383084E-05
6.789515E+03	1.321688E-03	5.540410E-05
6.799470E+03	1.324427E-03	5.696672E-05
6.809426E+03	1.326904E-03	5.851604E-05
6.819381E+03	1.329178E-03	6.005194E-05
6.829336E+03	1.331151E-03	6.156725E-05
6.839292E+03	1.332937E-03	6.306459E-05
6.849247E+03	1.334489E-03	6.453939E-05
6.859202E+03	1.335815E-03	6.598965E-05
6.869157E+03	1.336919E-03	6.741341E-05
6.879113E+03	1.337807E-03	6.880886E-05
6.889068E+03	1.338485E-03	7.017427E-05
6.899023E+03	1.338957E-03	7.150793E-05
6.908979E+03	1.339226E-03	7.280825E-05
6.918934E+03	1.339297E-03	7.407372E-05
6.928889E+03	1.339227E-03	7.530595E-05
6.938845E+03	1.338910E-03	7.649744E-05
6.948800E+03	1.338458E-03	7.765302E-05
6.958755E+03	1.337817E-03	7.876831E-05
6.968710E+03	1.336934E-03	7.983880E-05
6.978666E+03	1.335920E-03	8.086976E-05
6.988621E+03	1.334721E-03	8.185684E-05
6.998576E+03	1.333338E-03	8.279886E-05
7.008532E+03	1.331771E-03	8.369482E-05
7.018487E+03	1.330018E-03	8.454360E-05
7.028442E+03	1.328082E-03	8.534432E-05
7.038398E+03	1.325961E-03	8.609596E-05
7.048353E+03	1.323655E-03	8.679767E-05
7.058308E+03	1.321164E-03	8.744865E-05
7.068263E+03	1.318542E-03	8.805171E-05
7.078219E+03	1.315678E-03	8.859889E-05
7.088174E+03	1.312629E-03	8.909316E-05
7.098129E+03	1.309393E-03	8.953391E-05
7.108085E+03	1.306025E-03	8.992433E-05
7.118040E+03	1.302417E-03	9.025655E-05
7.127995E+03	1.298623E-03	9.053381E-05
7.137951E+03	1.294644E-03	9.075584E-05
7.147906E+03	1.290482E-03	9.092244E-05
7.157861E+03	1.286191E-03	9.103716E-05
7.167817E+03	1.281666E-03	9.109238E-05
7.177772E+03	1.276963E-03	9.109191E-05
7.187727E+03	1.272084E-03	9.103577E-05
7.197682E+03	1.267033E-03	9.092423E-05
7.207638E+03	1.261814E-03	9.075747E-05
7.217593E+03	1.256430E-03	9.053584E-05
7.227548E+03	1.250885E-03	9.025980E-05
7.237504E+03	1.245185E-03	8.992984E-05
7.247459E+03	1.239284E-03	8.954280E-05
7.257414E+03	1.233291E-03	8.910692E-05
7.267370E+03	1.227108E-03	8.861545E-05
7.277325E+03	1.220847E-03	8.807663E-05
7.287280E+03	1.214410E-03	8.748396E-05
7.297235E+03	1.207857E-03	8.684214E-05
7.307191E+03	1.201196E-03	8.615219E-05
7.317146E+03	1.194434E-03	8.541520E-05
7.327101E+03	1.187531E-03	8.462870E-05
7.337057E+03	1.180594E-03	8.380105E-05
7.347012E+03	1.173534E-03	8.292639E-05
7.356967E+03	1.166459E-03	8.201301E-05
7.366923E+03	1.159277E-03	8.105513E-05
7.376878E+03	1.152000E-03	8.005422E-05
7.386833E+03	1.144733E-03	7.901836E-05
7.396788E+03	1.137438E-03	7.794551E-05
7.406744E+03	1.130075E-03	7.683359E-05
7.416699E+03	1.122700E-03	7.568733E-05
7.426654E+03	1.115324E-03	7.450805E-05
7.436610E+03	1.107907E-03	7.329381E-05
7.446565E+03	1.100551E-03	7.205220E-05
7.456520E+03	1.093171E-03	7.077829E-05
7.466476E+03	1.085821E-03	6.947636E-05
7.476431E+03	1.078461E-03	6.814465E-05
7.486386E+03	1.071193E-03	6.679023E-05
7.496341E+03	1.063928E-03	6.540836E-05
7.506297E+03	1.056719E-03	6.400306E-05
7.516252E+03	1.049527E-03	6.257265E-05
7.526207E+03	1.042401E-03	6.112090E-05
7.536163E+03	1.035347E-03	5.964887E-05
7.546118E+03	1.028366E-03	5.815739E-05
7.556073E+03	1.021420E-03	5.664498E-05
7.566029E+03	1.014553E-03	5.511508E-05
7.575984E+03	1.007770E-03	5.356857E-05
7.585939E+03	1.001071E-03	5.200639E-05
7.595894E+03	9.944138E-04	5.042718E-05
7.605850E+03	9.877996E-04	4.883208E-05
7.615805E+03	9.813151E-04	4.722641E-05
7.625760E+03	9.748728E-04	4.560694E-05
7.635716E+03	9.685156E-04	4.397696E-05
7.645671E+03	9.621994E-04	4.233580E-05
7.655626E+03	9.559648E-04	4.068682E-05
7.665582E+03	9.498101E-04	3.903161E-05
7.675537E+03	9.436902E-04	3.737027E-05
7.685492E+03	9.376445E-04	3.570669E-05
7.695447E+03	9.316288E-04	3.404187E-05
7.705403E+03	9.257214E-04	3.238180E-05
7.715358E+03	9.197957E-04	3.072578E-05
7.725313E+03	9.139712E-04	2.908247E-05
