#wls	flux	fluxerr
1.592848E+03	3.155256E-05	1.176969E-05
1.632669E+03	3.247666E-05	1.203494E-05
1.672491E+03	3.344056E-05	1.230894E-05
1.712312E+03	3.444001E-05	1.258971E-05
1.752133E+03	3.547644E-05	1.287735E-05
1.791954E+03	3.655142E-05	1.317200E-05
1.831775E+03	3.766650E-05	1.347375E-05
1.871597E+03	3.883030E-05	1.378518E-05
1.911418E+03	4.003097E-05	1.410155E-05
1.951239E+03	4.128435E-05	1.442792E-05
1.991060E+03	4.258553E-05	1.476195E-05
2.030881E+03	4.393656E-05	1.510375E-05
2.070703E+03	4.533956E-05	1.545340E-05
2.110524E+03	4.679684E-05	1.581102E-05
2.150345E+03	4.831930E-05	1.617955E-05
2.190166E+03	4.989262E-05	1.655341E-05
2.229987E+03	5.153679E-05	1.693846E-05
2.269809E+03	5.324607E-05	1.733192E-05
2.309630E+03	5.502340E-05	1.773385E-05
2.349451E+03	5.687183E-05	1.814428E-05
2.389272E+03	5.880490E-05	1.856651E-05
2.429093E+03	6.080576E-05	1.899412E-05
2.468915E+03	6.289891E-05	1.943369E-05
2.508736E+03	6.507785E-05	1.988196E-05
2.548557E+03	6.734652E-05	2.033886E-05
2.588378E+03	6.970907E-05	2.080435E-05
2.628199E+03	7.218238E-05	2.128201E-05
2.668021E+03	7.474627E-05	2.176438E-05
2.707842E+03	7.743112E-05	2.225878E-05
2.747663E+03	8.022932E-05	2.276128E-05
2.787484E+03	8.314603E-05	2.327160E-05
2.827305E+03	8.618665E-05	2.378941E-05
2.867127E+03	8.935674E-05	2.431431E-05
2.906948E+03	9.267808E-05	2.485012E-05
2.946769E+03	9.612516E-05	2.538778E-05
2.986590E+03	9.973668E-05	2.593529E-05
2.996546E+03	1.006591E-04	2.607183E-05
3.006501E+03	1.015913E-04	2.620865E-05
3.016456E+03	1.025509E-04	2.635026E-05
3.026411E+03	1.035029E-04	2.648762E-05
3.036367E+03	1.044649E-04	2.662520E-05
3.046322E+03	1.054370E-04	2.676301E-05
3.056277E+03	1.064375E-04	2.690564E-05
3.066233E+03	1.074303E-04	2.704388E-05
3.076188E+03	1.084334E-04	2.718228E-05
3.086143E+03	1.094470E-04	2.732083E-05
3.096099E+03	1.104902E-04	2.746423E-05
3.106054E+03	1.115253E-04	2.760307E-05
3.116009E+03	1.125711E-04	2.774201E-05
3.125964E+03	1.136473E-04	2.788579E-05
3.135920E+03	1.147153E-04	2.802489E-05
3.145875E+03	1.157943E-04	2.816404E-05
3.155830E+03	1.168846E-04	2.830320E-05
3.165786E+03	1.180063E-04	2.844722E-05
3.175741E+03	1.191194E-04	2.858638E-05
3.185696E+03	1.202440E-04	2.872548E-05
3.195652E+03	1.214010E-04	2.886944E-05
3.205607E+03	1.225490E-04	2.900840E-05
3.215562E+03	1.237300E-04	2.915221E-05
3.225517E+03	1.249020E-04	2.929092E-05
3.235473E+03	1.260860E-04	2.942944E-05
3.245428E+03	1.273037E-04	2.957281E-05
3.255383E+03	1.285121E-04	2.971092E-05
3.265339E+03	1.297328E-04	2.984877E-05
3.275294E+03	1.309881E-04	2.999144E-05
3.285249E+03	1.322338E-04	3.012869E-05
3.295205E+03	1.335147E-04	3.027074E-05
3.305160E+03	1.347858E-04	3.040727E-05
3.315115E+03	1.360696E-04	3.054339E-05
3.325070E+03	1.373895E-04	3.068425E-05
3.335026E+03	1.386992E-04	3.081944E-05
3.344981E+03	1.400456E-04	3.095934E-05
3.354936E+03	1.413816E-04	3.109345E-05
3.364892E+03	1.427548E-04	3.123224E-05
3.374847E+03	1.441172E-04	3.136512E-05
3.384802E+03	1.455176E-04	3.150265E-05
3.394758E+03	1.469069E-04	3.163413E-05
3.404713E+03	1.483347E-04	3.177023E-05
3.414668E+03	1.497511E-04	3.190016E-05
3.424623E+03	1.511810E-04	3.202923E-05
3.434579E+03	1.526503E-04	3.216284E-05
3.444534E+03	1.541078E-04	3.229009E-05
3.454489E+03	1.556052E-04	3.242181E-05
3.464445E+03	1.570902E-04	3.254703E-05
3.474400E+03	1.586159E-04	3.267668E-05
3.484355E+03	1.601288E-04	3.279969E-05
3.494311E+03	1.616829E-04	3.292706E-05
3.504266E+03	1.632239E-04	3.304764E-05
3.514221E+03	1.648065E-04	3.317251E-05
3.524176E+03	1.663756E-04	3.329046E-05
3.534132E+03	1.679869E-04	3.341261E-05
3.544087E+03	1.695843E-04	3.352770E-05
3.554042E+03	1.712243E-04	3.364690E-05
3.563998E+03	1.728499E-04	3.375889E-05
3.573953E+03	1.745187E-04	3.387492E-05
3.583908E+03	1.761724E-04	3.398357E-05
3.593864E+03	1.778700E-04	3.409617E-05
3.603819E+03	1.795820E-04	3.420696E-05
3.613774E+03	1.812781E-04	3.431014E-05
3.623729E+03	1.830188E-04	3.441712E-05
3.633685E+03	1.847428E-04	3.451632E-05
3.643640E+03	1.865119E-04	3.461921E-05
3.653595E+03	1.882638E-04	3.471416E-05
3.663551E+03	1.900611E-04	3.481269E-05
3.673506E+03	1.918404E-04	3.490312E-05
3.683461E+03	1.936657E-04	3.499701E-05
3.693417E+03	1.954722E-04	3.508261E-05
3.703372E+03	1.973250E-04	3.517157E-05
3.713327E+03	1.991584E-04	3.525207E-05
3.723282E+03	2.010384E-04	3.533579E-05
3.733238E+03	2.029319E-04	3.541679E-05
3.743193E+03	2.048047E-04	3.548906E-05
3.753148E+03	2.067246E-04	3.556437E-05
3.763104E+03	2.086229E-04	3.563078E-05
3.773059E+03	2.105686E-04	3.570008E-05
3.783014E+03	2.124917E-04	3.576031E-05
3.792970E+03	2.144624E-04	3.582328E-05
3.802925E+03	2.164095E-04	3.587701E-05
3.812880E+03	2.184045E-04	3.593335E-05
3.822835E+03	2.203749E-04	3.598026E-05
3.832791E+03	2.223932E-04	3.602963E-05
3.842746E+03	2.243858E-04	3.606940E-05
3.852701E+03	2.264265E-04	3.611147E-05
3.862657E+03	2.284402E-04	3.614378E-05
3.872612E+03	2.305022E-04	3.617823E-05
3.882567E+03	2.325745E-04	3.620875E-05
3.892523E+03	2.346180E-04	3.622926E-05
3.902478E+03	2.367097E-04	3.625167E-05
3.912433E+03	2.387713E-04	3.626391E-05
3.922388E+03	2.408810E-04	3.627790E-05
3.932344E+03	2.429592E-04	3.628155E-05
3.942299E+03	2.450855E-04	3.628679E-05
3.952254E+03	2.471787E-04	3.628155E-05
3.962210E+03	2.493199E-04	3.627774E-05
3.972165E+03	2.514265E-04	3.626329E-05
3.982120E+03	2.535809E-04	3.625013E-05
3.992076E+03	2.556991E-04	3.622620E-05
4.002031E+03	2.578648E-04	3.620339E-05
4.011986E+03	2.599926E-04	3.616969E-05
4.021941E+03	2.621676E-04	3.613696E-05
4.031897E+03	2.643030E-04	3.609322E-05
4.041852E+03	2.664851E-04	3.605031E-05
4.051807E+03	2.686258E-04	3.599628E-05
4.061763E+03	2.707682E-04	3.593704E-05
4.071718E+03	2.729566E-04	3.587841E-05
4.081673E+03	2.751008E-04	3.580854E-05
4.091629E+03	2.772904E-04	3.573917E-05
4.101584E+03	2.794338E-04	3.565848E-05
4.111539E+03	2.816220E-04	3.557818E-05
4.121494E+03	2.837621E-04	3.548652E-05
4.131450E+03	2.859461E-04	3.539512E-05
4.141405E+03	2.880799E-04	3.529234E-05
4.151360E+03	2.902094E-04	3.518397E-05
4.161316E+03	2.923816E-04	3.507574E-05
4.171271E+03	2.945004E-04	3.495611E-05
4.181226E+03	2.966610E-04	3.483654E-05
4.191182E+03	2.987660E-04	3.470561E-05
4.201137E+03	3.008626E-04	3.456905E-05
4.211092E+03	3.029997E-04	3.443247E-05
4.221047E+03	3.050776E-04	3.428462E-05
4.231003E+03	3.071447E-04	3.413116E-05
4.240958E+03	3.092506E-04	3.397767E-05
4.250913E+03	3.112937E-04	3.381306E-05
4.260869E+03	3.133234E-04	3.364294E-05
4.270824E+03	3.153901E-04	3.347282E-05
4.280779E+03	3.173904E-04	3.329179E-05
4.290735E+03	3.193744E-04	3.310542E-05
4.300690E+03	3.213937E-04	3.291914E-05
4.310645E+03	3.233427E-04	3.272226E-05
4.320601E+03	3.252727E-04	3.252028E-05
4.330556E+03	3.272358E-04	3.231854E-05
4.340511E+03	3.291249E-04	3.210660E-05
4.350466E+03	3.309921E-04	3.188986E-05
4.360422E+03	3.328362E-04	3.166846E-05
4.370377E+03	3.347107E-04	3.144764E-05
4.380332E+03	3.365060E-04	3.121728E-05
4.390288E+03	3.382754E-04	3.098270E-05
4.400243E+03	3.400178E-04	3.074405E-05
4.410198E+03	3.417876E-04	3.050647E-05
4.420154E+03	3.434733E-04	3.026021E-05
4.430109E+03	3.451289E-04	3.001046E-05
4.440064E+03	3.467536E-04	2.975743E-05
4.450019E+03	3.483463E-04	2.950135E-05
4.459975E+03	3.499061E-04	2.924245E-05
4.469930E+03	3.514889E-04	2.898569E-05
4.479885E+03	3.529802E-04	2.872189E-05
4.489841E+03	3.544356E-04	2.845606E-05
4.499796E+03	3.558543E-04	2.818850E-05
4.509751E+03	3.572353E-04	2.791950E-05
4.519707E+03	3.585779E-04	2.764938E-05
4.529662E+03	3.598809E-04	2.737845E-05
4.539617E+03	3.611437E-04	2.710707E-05
4.549572E+03	3.623654E-04	2.683558E-05
4.559528E+03	3.635451E-04	2.656434E-05
4.569483E+03	3.646821E-04	2.629372E-05
4.579438E+03	3.658347E-04	2.602831E-05
4.589394E+03	3.668843E-04	2.576006E-05
4.599349E+03	3.678889E-04	2.549362E-05
4.609304E+03	3.688481E-04	2.522939E-05
4.619260E+03	3.697611E-04	2.496782E-05
4.629215E+03	3.706273E-04	2.470931E-05
4.639170E+03	3.713866E-04	2.445037E-05
4.649125E+03	3.721577E-04	2.419936E-05
4.659081E+03	3.728807E-04	2.395274E-05
4.669036E+03	3.735551E-04	2.371095E-05
4.678991E+03	3.741805E-04	2.347444E-05
4.688947E+03	3.747567E-04	2.324364E-05
4.698902E+03	3.752832E-04	2.301901E-05
4.708857E+03	3.757599E-04	2.280096E-05
4.718813E+03	3.761866E-04	2.258992E-05
4.728768E+03	3.765630E-04	2.238629E-05
4.738723E+03	3.768285E-04	2.218692E-05
4.748678E+03	3.771040E-04	2.199932E-05
4.758634E+03	3.773287E-04	2.182026E-05
4.768589E+03	3.775024E-04	2.165007E-05
4.778544E+03	3.776250E-04	2.148903E-05
4.788500E+03	3.776358E-04	2.133373E-05
4.798455E+03	3.776560E-04	2.119083E-05
4.808410E+03	3.776254E-04	2.105663E-05
4.818366E+03	3.775442E-04	2.093085E-05
4.828321E+03	3.773525E-04	2.080988E-05
4.838276E+03	3.771713E-04	2.070008E-05
4.848231E+03	3.769408E-04	2.059775E-05
4.858187E+03	3.766612E-04	2.050255E-05
4.868142E+03	3.762729E-04	2.041085E-05
4.878097E+03	3.758968E-04	2.032880E-05
4.888053E+03	3.754735E-04	2.025276E-05
4.898008E+03	3.749433E-04	2.017910E-05
4.907963E+03	3.744271E-04	2.011388E-05
4.917919E+03	3.738058E-04	2.005027E-05
4.927874E+03	3.731997E-04	1.999429E-05
4.937829E+03	3.725497E-04	1.994232E-05
4.947784E+03	3.717972E-04	1.989081E-05
4.957740E+03	3.710621E-04	1.984574E-05
4.967695E+03	3.702265E-04	1.980037E-05
4.977650E+03	3.694099E-04	1.976067E-05
4.987606E+03	3.684950E-04	1.971998E-05
4.997561E+03	3.676006E-04	1.968425E-05
5.007516E+03	3.666102E-04	1.964686E-05
5.017472E+03	3.656421E-04	1.961378E-05
5.027427E+03	3.645804E-04	1.957844E-05
5.037382E+03	3.635427E-04	1.954679E-05
5.047337E+03	3.624141E-04	1.951235E-05
5.057293E+03	3.612537E-04	1.947796E-05
5.067248E+03	3.601200E-04	1.944650E-05
5.077203E+03	3.588992E-04	1.941154E-05
5.087159E+03	3.577070E-04	1.937907E-05
5.097114E+03	3.564305E-04	1.934272E-05
5.107069E+03	3.551279E-04	1.930541E-05
5.117025E+03	3.538567E-04	1.927005E-05
5.126980E+03	3.525052E-04	1.923037E-05
5.136935E+03	3.511313E-04	1.918931E-05
5.146890E+03	3.497359E-04	1.914676E-05
5.156846E+03	3.483757E-04	1.910567E-05
5.166801E+03	3.469408E-04	1.905988E-05
5.176756E+03	3.454881E-04	1.901236E-05
5.186712E+03	3.440187E-04	1.896307E-05
5.196667E+03	3.425882E-04	1.891496E-05
5.206622E+03	3.410886E-04	1.886200E-05
5.216578E+03	3.395758E-04	1.880718E-05
5.226533E+03	3.380510E-04	1.875050E-05
5.236488E+03	3.365151E-04	1.869197E-05
5.246443E+03	3.349695E-04	1.863159E-05
5.256399E+03	3.334680E-04	1.857235E-05
5.266354E+03	3.319059E-04	1.850837E-05
5.276309E+03	3.303372E-04	1.844265E-05
5.286265E+03	3.287631E-04	1.837525E-05
5.296220E+03	3.271848E-04	1.830623E-05
5.306175E+03	3.256032E-04	1.823565E-05
5.316131E+03	3.240193E-04	1.816357E-05
5.326086E+03	3.224344E-04	1.809009E-05
5.336041E+03	3.208493E-04	1.801528E-05
5.345996E+03	3.192651E-04	1.793922E-05
5.355952E+03	3.176827E-04	1.786201E-05
5.365907E+03	3.161033E-04	1.778374E-05
5.375862E+03	3.145277E-04	1.770451E-05
5.385818E+03	3.129569E-04	1.762442E-05
5.395773E+03	3.113919E-04	1.754357E-05
5.405728E+03	3.098336E-04	1.746206E-05
5.415684E+03	3.082828E-04	1.738000E-05
5.425639E+03	3.067406E-04	1.729750E-05
5.435594E+03	3.051594E-04	1.721192E-05
5.445549E+03	3.036370E-04	1.712877E-05
5.455505E+03	3.021259E-04	1.704523E-05
5.465460E+03	3.006270E-04	1.696127E-05
5.475415E+03	2.991412E-04	1.687683E-05
5.485371E+03	2.976696E-04	1.679184E-05
5.495326E+03	2.961661E-04	1.670364E-05
5.505281E+03	2.947256E-04	1.661745E-05
5.515237E+03	2.933016E-04	1.653059E-05
5.525192E+03	2.918952E-04	1.644302E-05
5.535147E+03	2.904611E-04	1.635211E-05
5.545102E+03	2.890922E-04	1.626301E-05
5.555058E+03	2.877431E-04	1.617309E-05
5.565013E+03	2.864146E-04	1.608233E-05
5.574968E+03	2.850624E-04	1.598818E-05
5.584924E+03	2.837775E-04	1.589569E-05
5.594879E+03	2.825153E-04	1.580228E-05
5.604834E+03	2.812321E-04	1.570548E-05
5.614790E+03	2.800178E-04	1.561024E-05
5.624745E+03	2.787842E-04	1.551161E-05
5.634700E+03	2.776204E-04	1.541450E-05
5.644655E+03	2.764827E-04	1.531644E-05
5.654611E+03	2.753285E-04	1.521504E-05
5.664566E+03	2.742454E-04	1.511510E-05
5.674521E+03	2.731473E-04	1.501185E-05
5.684477E+03	2.721213E-04	1.491006E-05
5.694432E+03	2.710819E-04	1.480501E-05
5.704387E+03	2.701155E-04	1.470139E-05
5.714343E+03	2.691374E-04	1.459458E-05
5.724298E+03	2.682331E-04	1.448921E-05
5.734253E+03	2.673186E-04	1.438071E-05
5.744209E+03	2.664790E-04	1.427365E-05
5.754164E+03	2.656306E-04	1.416354E-05
5.764119E+03	2.648580E-04	1.405489E-05
5.774074E+03	2.640781E-04	1.394327E-05
5.784030E+03	2.633336E-04	1.383095E-05
5.793985E+03	2.626662E-04	1.372012E-05
5.803940E+03	2.619939E-04	1.360648E-05
5.813896E+03	2.613998E-04	1.349436E-05
5.823851E+03	2.608021E-04	1.337954E-05
5.833806E+03	2.602427E-04	1.326419E-05
5.843762E+03	2.597632E-04	1.315043E-05
5.853717E+03	2.592822E-04	1.303415E-05
5.863672E+03	2.588414E-04	1.291749E-05
5.873627E+03	2.584822E-04	1.280251E-05
5.883583E+03	2.581237E-04	1.268521E-05
5.893538E+03	2.578073E-04	1.256770E-05
5.903493E+03	2.575338E-04	1.245003E-05
5.913449E+03	2.573442E-04	1.233421E-05
5.923404E+03	2.571583E-04	1.221641E-05
5.933359E+03	2.570173E-04	1.209867E-05
5.943315E+03	2.569218E-04	1.198106E-05
5.953270E+03	2.569131E-04	1.186555E-05
5.963225E+03	2.569110E-04	1.174847E-05
5.973180E+03	2.569567E-04	1.163181E-05
5.983136E+03	2.570510E-04	1.151568E-05
5.993091E+03	2.571945E-04	1.140020E-05
6.003046E+03	2.573882E-04	1.128548E-05
6.013002E+03	2.576734E-04	1.117344E-05
6.022957E+03	2.579697E-04	1.106067E-05
6.032912E+03	2.583187E-04	1.094912E-05
6.042868E+03	2.587210E-04	1.083895E-05
6.052823E+03	2.591777E-04	1.073034E-05
6.062778E+03	2.596895E-04	1.062351E-05
6.072733E+03	2.602573E-04	1.051866E-05
6.082689E+03	2.608821E-04	1.041602E-05
6.092644E+03	2.615647E-04	1.031584E-05
6.102599E+03	2.623061E-04	1.021840E-05
6.112555E+03	2.631072E-04	1.012398E-05
6.122510E+03	2.639689E-04	1.003289E-05
6.132465E+03	2.648922E-04	9.945462E-06
6.142421E+03	2.658780E-04	9.862052E-06
6.152376E+03	2.669272E-04	9.783036E-06
6.162331E+03	2.680407E-04	9.708815E-06
6.172286E+03	2.692195E-04	9.639817E-06
6.182242E+03	2.704644E-04	9.576487E-06
6.192197E+03	2.717763E-04	9.519297E-06
6.202152E+03	2.731558E-04	9.468738E-06
6.212108E+03	2.746037E-04	9.425321E-06
6.222063E+03	2.761207E-04	9.389573E-06
6.232018E+03	2.777071E-04	9.362036E-06
6.241974E+03	2.793634E-04	9.343265E-06
6.251929E+03	2.810895E-04	9.333806E-06
6.261884E+03	2.828400E-04	9.332718E-06
6.271839E+03	2.847021E-04	9.343297E-06
6.281795E+03	2.866291E-04	9.364073E-06
6.291750E+03	2.886186E-04	9.394978E-06
6.301705E+03	2.906682E-04	9.435931E-06
6.311661E+03	2.927753E-04	9.486833E-06
6.321616E+03	2.948906E-04	9.546065E-06
6.331571E+03	2.971040E-04	9.616497E-06
6.341527E+03	2.993664E-04	9.696494E-06
6.351482E+03	3.016749E-04	9.785906E-06
6.361437E+03	3.040264E-04	9.884570E-06
6.371392E+03	3.063694E-04	9.990743E-06
6.381348E+03	3.087969E-04	1.010738E-05
6.391303E+03	3.112575E-04	1.023274E-05
6.401258E+03	3.137478E-04	1.036663E-05
6.411214E+03	3.162145E-04	1.050722E-05
6.421169E+03	3.187530E-04	1.065760E-05
6.431124E+03	3.213104E-04	1.081594E-05
6.441080E+03	3.238318E-04	1.098033E-05
6.451035E+03	3.264149E-04	1.115400E-05
6.460990E+03	3.290052E-04	1.133506E-05
6.470945E+03	3.315465E-04	1.152151E-05
6.480901E+03	3.341387E-04	1.171675E-05
6.490856E+03	3.367260E-04	1.191883E-05
6.500811E+03	3.392507E-04	1.212564E-05
6.510767E+03	3.418153E-04	1.234080E-05
6.520722E+03	3.443626E-04	1.256223E-05
6.530677E+03	3.468336E-04	1.278776E-05
6.540633E+03	3.493336E-04	1.302120E-05
6.550588E+03	3.518050E-04	1.326043E-05
6.560543E+03	3.541888E-04	1.350318E-05
6.570498E+03	3.565943E-04	1.375355E-05
6.580454E+03	3.589079E-04	1.400689E-05
6.590409E+03	3.612409E-04	1.426713E-05
6.600364E+03	3.634785E-04	1.452933E-05
6.610320E+03	3.657335E-04	1.479758E-05
6.620275E+03	3.678899E-04	1.506678E-05
6.630230E+03	3.700620E-04	1.534118E-05
6.640186E+03	3.721911E-04	1.561797E-05
6.650141E+03	3.742171E-04	1.589419E-05
6.660096E+03	3.762566E-04	1.617435E-05
6.670051E+03	3.781904E-04	1.645295E-05
6.680007E+03	3.801364E-04	1.673468E-05
6.689962E+03	3.819743E-04	1.701388E-05
6.699917E+03	3.837629E-04	1.729270E-05
6.709873E+03	3.855622E-04	1.757351E-05
6.719828E+03	3.872502E-04	1.785038E-05
6.729783E+03	3.889482E-04	1.812850E-05
6.739739E+03	3.905330E-04	1.840180E-05
6.749694E+03	3.921271E-04	1.867565E-05
6.759649E+03	3.936064E-04	1.894383E-05
6.769604E+03	3.950945E-04	1.921192E-05
6.779560E+03	3.964665E-04	1.947352E-05
6.789515E+03	3.977841E-04	1.973129E-05
6.799470E+03	3.991100E-04	1.998805E-05
6.809426E+03	4.003180E-04	2.023720E-05
6.819381E+03	4.014709E-04	2.048155E-05
6.829336E+03	4.026319E-04	2.072406E-05
6.839292E+03	4.036738E-04	2.095794E-05
6.849247E+03	4.047239E-04	2.118948E-05
6.859202E+03	4.056543E-04	2.141176E-05
6.869157E+03	4.065289E-04	2.162783E-05
6.879113E+03	4.074120E-04	2.184088E-05
6.889068E+03	4.081748E-04	2.204382E-05
6.899023E+03	4.088818E-04	2.223983E-05
6.908979E+03	4.095978E-04	2.243225E-05
6.918934E+03	4.101935E-04	2.261380E-05
6.928889E+03	4.107337E-04	2.278781E-05
6.938845E+03	4.112185E-04	2.295408E-05
6.948800E+03	4.117134E-04	2.311612E-05
6.958755E+03	4.120883E-04	2.326646E-05
6.968710E+03	4.124086E-04	2.340858E-05
6.978666E+03	4.126746E-04	2.354234E-05
6.988621E+03	4.129520E-04	2.367137E-05
6.998576E+03	4.131104E-04	2.378805E-05
7.008532E+03	4.132155E-04	2.389602E-05
7.018487E+03	4.132676E-04	2.399516E-05
7.028442E+03	4.133328E-04	2.408921E-05
7.038398E+03	4.132805E-04	2.417048E-05
7.048353E+03	4.131766E-04	2.424267E-05
7.058308E+03	4.130216E-04	2.430575E-05
7.068263E+03	4.128160E-04	2.435967E-05
7.078219E+03	4.125603E-04	2.440437E-05
7.088174E+03	4.123204E-04	2.444371E-05
7.098129E+03	4.119660E-04	2.446991E-05
7.108085E+03	4.115633E-04	2.448685E-05
7.118040E+03	4.111126E-04	2.449451E-05
7.127995E+03	4.106146E-04	2.449290E-05
7.137951E+03	4.100700E-04	2.448203E-05
7.147906E+03	4.094793E-04	2.446194E-05
7.157861E+03	4.089081E-04	2.443654E-05
7.167817E+03	4.082271E-04	2.439810E-05
7.177772E+03	4.075020E-04	2.435057E-05
7.187727E+03	4.067334E-04	2.429399E-05
7.197682E+03	4.059219E-04	2.422845E-05
7.207638E+03	4.050684E-04	2.415401E-05
7.217593E+03	4.041734E-04	2.407076E-05
7.227548E+03	4.032377E-04	2.397880E-05
7.237504E+03	4.022618E-04	2.387823E-05
7.247459E+03	4.012467E-04	2.376916E-05
7.257414E+03	4.001929E-04	2.365170E-05
7.267370E+03	3.991011E-04	2.352598E-05
7.277325E+03	3.979721E-04	2.339214E-05
7.287280E+03	3.968067E-04	2.325032E-05
7.297235E+03	3.956054E-04	2.310067E-05
7.307191E+03	3.943691E-04	2.294334E-05
7.317146E+03	3.930985E-04	2.277850E-05
7.327101E+03	3.917943E-04	2.260633E-05
7.337057E+03	3.904572E-04	2.242701E-05
7.347012E+03	3.890879E-04	2.224072E-05
7.356967E+03	3.876873E-04	2.204766E-05
7.366923E+03	3.862559E-04	2.184804E-05
7.376878E+03	3.847946E-04	2.164208E-05
7.386833E+03	3.833041E-04	2.142999E-05
7.396788E+03	3.817849E-04	2.121201E-05
7.406744E+03	3.802381E-04	2.098838E-05
7.416699E+03	3.786641E-04	2.075933E-05
7.426654E+03	3.770638E-04	2.052515E-05
7.436610E+03	3.753780E-04	2.028285E-05
7.446565E+03	3.737273E-04	2.003921E-05
7.456520E+03	3.720525E-04	1.979127E-05
7.466476E+03	3.703540E-04	1.953930E-05
7.476431E+03	3.686328E-04	1.928364E-05
7.486386E+03	3.668895E-04	1.902458E-05
7.496341E+03	3.651247E-04	1.876247E-05
7.506297E+03	3.633392E-04	1.849766E-05
7.516252E+03	3.614759E-04	1.822758E-05
7.526207E+03	3.596512E-04	1.795847E-05
7.536163E+03	3.578078E-04	1.768778E-05
7.546118E+03	3.559463E-04	1.741589E-05
7.556073E+03	3.540675E-04	1.714324E-05
7.566029E+03	3.521157E-04	1.686755E-05
7.575984E+03	3.502044E-04	1.659471E-05
7.585939E+03	3.482776E-04	1.632245E-05
7.595894E+03	3.463362E-04	1.605127E-05
7.605850E+03	3.443255E-04	1.577915E-05
7.615805E+03	3.423567E-04	1.551170E-05
7.625760E+03	3.403751E-04	1.524691E-05
7.635716E+03	3.383812E-04	1.498536E-05
7.645671E+03	3.363219E-04	1.472527E-05
7.655626E+03	3.343058E-04	1.447203E-05
7.665582E+03	3.322793E-04	1.422385E-05
7.675537E+03	3.302430E-04	1.398142E-05
7.685492E+03	3.281450E-04	1.374319E-05
7.695447E+03	3.260913E-04	1.351430E-05
7.705403E+03	3.240297E-04	1.329323E-05
7.715358E+03	3.219091E-04	1.307860E-05
7.725313E+03	3.198336E-04	1.287537E-05
