#wls	flux	fluxerr
1.592848E+03	3.077238E-05	1.124363E-05
1.632669E+03	3.166935E-05	1.149626E-05
1.672491E+03	3.259931E-05	1.175522E-05
1.712312E+03	3.356960E-05	1.202277E-05
1.752133E+03	3.457600E-05	1.229699E-05
1.791954E+03	3.562000E-05	1.257799E-05
1.831775E+03	3.669665E-05	1.286360E-05
1.871597E+03	3.782049E-05	1.315847E-05
1.911418E+03	3.899382E-05	1.346287E-05
1.951239E+03	4.020485E-05	1.377218E-05
1.991060E+03	4.146219E-05	1.408886E-05
2.030881E+03	4.277543E-05	1.441557E-05
2.070703E+03	4.413956E-05	1.474997E-05
2.110524E+03	4.555684E-05	1.509217E-05
2.150345E+03	4.702959E-05	1.544227E-05
2.190166E+03	4.856031E-05	1.580036E-05
2.229987E+03	5.015157E-05	1.616653E-05
2.269809E+03	5.180611E-05	1.654086E-05
2.309630E+03	5.353620E-05	1.692639E-05
2.349451E+03	5.533605E-05	1.732034E-05
2.389272E+03	5.720882E-05	1.772275E-05
2.429093E+03	5.915787E-05	1.813365E-05
2.468915E+03	6.118672E-05	1.855306E-05
2.508736E+03	6.329901E-05	1.898097E-05
2.548557E+03	6.551007E-05	1.942074E-05
2.588378E+03	6.780140E-05	1.986561E-05
2.628199E+03	7.020053E-05	2.032235E-05
2.668021E+03	7.270048E-05	2.078746E-05
2.707842E+03	7.530581E-05	2.126075E-05
2.747663E+03	7.802141E-05	2.174204E-05
2.787484E+03	8.085225E-05	2.223107E-05
2.827305E+03	8.381812E-05	2.273148E-05
2.867127E+03	8.689572E-05	2.323506E-05
2.906948E+03	9.012035E-05	2.374936E-05
2.946769E+03	9.346694E-05	2.426567E-05
2.986590E+03	9.697322E-05	2.479171E-05
2.996546E+03	9.787302E-05	2.492401E-05
3.006501E+03	9.878227E-05	2.505660E-05
3.016456E+03	9.970109E-05	2.518948E-05
3.026411E+03	1.006296E-04	2.532262E-05
3.036367E+03	1.015678E-04	2.545601E-05
3.046322E+03	1.025159E-04	2.558965E-05
3.056277E+03	1.034740E-04	2.572350E-05
3.066233E+03	1.044601E-04	2.586202E-05
3.076188E+03	1.054385E-04	2.599629E-05
3.086143E+03	1.064272E-04	2.613075E-05
3.096099E+03	1.074262E-04	2.626537E-05
3.106054E+03	1.084356E-04	2.640012E-05
3.116009E+03	1.094556E-04	2.653500E-05
3.125964E+03	1.104862E-04	2.666999E-05
3.135920E+03	1.115275E-04	2.680506E-05
3.145875E+03	1.125797E-04	2.694019E-05
3.155830E+03	1.136428E-04	2.707538E-05
3.165786E+03	1.147169E-04	2.721059E-05
3.175741E+03	1.158020E-04	2.734580E-05
3.185696E+03	1.169185E-04	2.748570E-05
3.195652E+03	1.180264E-04	2.762087E-05
3.205607E+03	1.191456E-04	2.775598E-05
3.215562E+03	1.202764E-04	2.789099E-05
3.225517E+03	1.214187E-04	2.802588E-05
3.235473E+03	1.225727E-04	2.816064E-05
3.245428E+03	1.237384E-04	2.829522E-05
3.255383E+03	1.249374E-04	2.843447E-05
3.265339E+03	1.261271E-04	2.856866E-05
3.275294E+03	1.273289E-04	2.870259E-05
3.285249E+03	1.285427E-04	2.883624E-05
3.295205E+03	1.297688E-04	2.896958E-05
3.305160E+03	1.310071E-04	2.910256E-05
3.315115E+03	1.322803E-04	2.924017E-05
3.325070E+03	1.335436E-04	2.937238E-05
3.335026E+03	1.348195E-04	2.950417E-05
3.344981E+03	1.361079E-04	2.963546E-05
3.354936E+03	1.374090E-04	2.976624E-05
3.364892E+03	1.387464E-04	2.990156E-05
3.374847E+03	1.400732E-04	3.003122E-05
3.384802E+03	1.414129E-04	3.016025E-05
3.394758E+03	1.427656E-04	3.028862E-05
3.404713E+03	1.441312E-04	3.041627E-05
3.414668E+03	1.455347E-04	3.054837E-05
3.424623E+03	1.469267E-04	3.067450E-05
3.434579E+03	1.483319E-04	3.079980E-05
3.444534E+03	1.497503E-04	3.092422E-05
3.454489E+03	1.512076E-04	3.105299E-05
3.464445E+03	1.526528E-04	3.117553E-05
3.474400E+03	1.541114E-04	3.129705E-05
3.484355E+03	1.555833E-04	3.141752E-05
3.494311E+03	1.570953E-04	3.154221E-05
3.504266E+03	1.585943E-04	3.166040E-05
3.514221E+03	1.601068E-04	3.177739E-05
3.524176E+03	1.616327E-04	3.189310E-05
3.534132E+03	1.631998E-04	3.201291E-05
3.544087E+03	1.647530E-04	3.212594E-05
3.554042E+03	1.663197E-04	3.223754E-05
3.563998E+03	1.679283E-04	3.235312E-05
3.573953E+03	1.695222E-04	3.246170E-05
3.583908E+03	1.711296E-04	3.256868E-05
3.593864E+03	1.727506E-04	3.267400E-05
3.603819E+03	1.744143E-04	3.278313E-05
3.613774E+03	1.760623E-04	3.288496E-05
3.623729E+03	1.777237E-04	3.298494E-05
3.633685E+03	1.793983E-04	3.308301E-05
3.643640E+03	1.811168E-04	3.318470E-05
3.653595E+03	1.828182E-04	3.327878E-05
3.663551E+03	1.845327E-04	3.337075E-05
3.673506E+03	1.862917E-04	3.346619E-05
3.683461E+03	1.880326E-04	3.355376E-05
3.693417E+03	1.897863E-04	3.363904E-05
3.703372E+03	1.915529E-04	3.372194E-05
3.713327E+03	1.933646E-04	3.380807E-05
3.723282E+03	1.951567E-04	3.388601E-05
3.733238E+03	1.969612E-04	3.396137E-05
3.743193E+03	1.988114E-04	3.403979E-05
3.753148E+03	2.006406E-04	3.410977E-05
3.763104E+03	2.024819E-04	3.417695E-05
3.773059E+03	2.043349E-04	3.424125E-05
3.783014E+03	2.062342E-04	3.430834E-05
3.792970E+03	2.081107E-04	3.436667E-05
3.802925E+03	2.099985E-04	3.442190E-05
3.812880E+03	2.119328E-04	3.447972E-05
3.822835E+03	2.138427E-04	3.452852E-05
3.832791E+03	2.157633E-04	3.457400E-05
3.842746E+03	2.176943E-04	3.461607E-05
3.852701E+03	2.196720E-04	3.466046E-05
3.862657E+03	2.216232E-04	3.469550E-05
3.872612E+03	2.235839E-04	3.472691E-05
3.882567E+03	2.255915E-04	3.476042E-05
3.892523E+03	2.275708E-04	3.478435E-05
3.902478E+03	2.295587E-04	3.480442E-05
3.912433E+03	2.315548E-04	3.482056E-05
3.922388E+03	2.335979E-04	3.483850E-05
3.932344E+03	2.356099E-04	3.484656E-05
3.942299E+03	2.376291E-04	3.485046E-05
3.952254E+03	2.396551E-04	3.485015E-05
3.962210E+03	2.417277E-04	3.485134E-05
3.972165E+03	2.437665E-04	3.484238E-05
3.982120E+03	2.458108E-04	3.482898E-05
3.992076E+03	2.478601E-04	3.481108E-05
4.002031E+03	2.499556E-04	3.479441E-05
4.011986E+03	2.520141E-04	3.476732E-05
4.021941E+03	2.540762E-04	3.473554E-05
4.031897E+03	2.561414E-04	3.469902E-05
4.041852E+03	2.582522E-04	3.466345E-05
4.051807E+03	2.603224E-04	3.461726E-05
4.061763E+03	2.623941E-04	3.456615E-05
4.071718E+03	2.644668E-04	3.451009E-05
4.081673E+03	2.665398E-04	3.444901E-05
4.091629E+03	2.686570E-04	3.438857E-05
4.101584E+03	2.707292E-04	3.431733E-05
4.111539E+03	2.727998E-04	3.424094E-05
4.121494E+03	2.748682E-04	3.415939E-05
4.131450E+03	2.769338E-04	3.407264E-05
4.141405E+03	2.790419E-04	3.398628E-05
4.151360E+03	2.810999E-04	3.388902E-05
4.161316E+03	2.831530E-04	3.378650E-05
4.171271E+03	2.852004E-04	3.367869E-05
4.181226E+03	2.872413E-04	3.356558E-05
4.191182E+03	2.892749E-04	3.344718E-05
4.201137E+03	2.913006E-04	3.332347E-05
4.211092E+03	2.933659E-04	3.319994E-05
4.221047E+03	2.953735E-04	3.306563E-05
4.231003E+03	2.973706E-04	3.292605E-05
4.240958E+03	2.993565E-04	3.278123E-05
4.250913E+03	3.013303E-04	3.263120E-05
4.260869E+03	3.032911E-04	3.247599E-05
4.270824E+03	3.052381E-04	3.231564E-05
4.280779E+03	3.071703E-04	3.215020E-05
4.290735E+03	3.090870E-04	3.197975E-05
4.300690E+03	3.110383E-04	3.180956E-05
4.310645E+03	3.129212E-04	3.162921E-05
4.320601E+03	3.147859E-04	3.144406E-05
4.330556E+03	3.166312E-04	3.125418E-05
4.340511E+03	3.184563E-04	3.105968E-05
4.350466E+03	3.202602E-04	3.086067E-05
4.360422E+03	3.220420E-04	3.065725E-05
4.370377E+03	3.238007E-04	3.044956E-05
4.380332E+03	3.255353E-04	3.023772E-05
4.390288E+03	3.272450E-04	3.002189E-05
4.400243E+03	3.289286E-04	2.980221E-05
4.410198E+03	3.305854E-04	2.957885E-05
4.420154E+03	3.322141E-04	2.935198E-05
4.430109E+03	3.338141E-04	2.912179E-05
4.440064E+03	3.353841E-04	2.888848E-05
4.450019E+03	3.369234E-04	2.865224E-05
4.459975E+03	3.384309E-04	2.841331E-05
4.469930E+03	3.399057E-04	2.817190E-05
4.479885E+03	3.412911E-04	2.792370E-05
4.489841E+03	3.426975E-04	2.767811E-05
4.499796E+03	3.440683E-04	2.743081E-05
4.509751E+03	3.454028E-04	2.718206E-05
4.519707E+03	3.467000E-04	2.693216E-05
4.529662E+03	3.479591E-04	2.668138E-05
4.539617E+03	3.491792E-04	2.643005E-05
4.549572E+03	3.503594E-04	2.617848E-05
4.559528E+03	3.514989E-04	2.592700E-05
4.569483E+03	3.525396E-04	2.567176E-05
4.579438E+03	3.535954E-04	2.542152E-05
4.589394E+03	3.546082E-04	2.517241E-05
4.599349E+03	3.555775E-04	2.492480E-05
4.609304E+03	3.565024E-04	2.467906E-05
4.619260E+03	3.573243E-04	2.443159E-05
4.629215E+03	3.581587E-04	2.419079E-05
4.639170E+03	3.589470E-04	2.395301E-05
4.649125E+03	3.596888E-04	2.371867E-05
4.659081E+03	3.603249E-04	2.348433E-05
4.669036E+03	3.609720E-04	2.325808E-05
4.678991E+03	3.615713E-04	2.303646E-05
4.688947E+03	3.621224E-04	2.281986E-05
4.698902E+03	3.625661E-04	2.260501E-05
4.708857E+03	3.630199E-04	2.239968E-05
4.718813E+03	3.634247E-04	2.220055E-05
4.728768E+03	3.637214E-04	2.200440E-05
4.738723E+03	3.640278E-04	2.181877E-05
4.748678E+03	3.642846E-04	2.164039E-05
4.758634E+03	3.644328E-04	2.146612E-05
4.768589E+03	3.645903E-04	2.130323E-05
4.778544E+03	3.646978E-04	2.114847E-05
4.788500E+03	3.646961E-04	2.099844E-05
4.798455E+03	3.647036E-04	2.085977E-05
4.808410E+03	3.646025E-04	2.072548E-05
4.818366E+03	3.645113E-04	2.060205E-05
4.828321E+03	3.643711E-04	2.048584E-05
4.838276E+03	3.641235E-04	2.037329E-05
4.848231E+03	3.638868E-04	2.027071E-05
4.858187E+03	3.635437E-04	2.017122E-05
4.868142E+03	3.632124E-04	2.008105E-05
4.878097E+03	3.627760E-04	1.999334E-05
4.888053E+03	3.623524E-04	1.991426E-05
4.898008E+03	3.618251E-04	1.983700E-05
4.907963E+03	3.613120E-04	1.976765E-05
4.917919E+03	3.606968E-04	1.969945E-05
4.927874E+03	3.600388E-04	1.963527E-05
4.937829E+03	3.593970E-04	1.957793E-05
4.947784E+03	3.586560E-04	1.952074E-05
4.957740E+03	3.579326E-04	1.946969E-05
4.967695E+03	3.571121E-04	1.941815E-05
4.977650E+03	3.562533E-04	1.936895E-05
4.987606E+03	3.554145E-04	1.932490E-05
4.997561E+03	3.544819E-04	1.927945E-05
5.007516E+03	3.535141E-04	1.923543E-05
5.017472E+03	3.525688E-04	1.919567E-05
5.027427E+03	3.515334E-04	1.915370E-05
5.037382E+03	3.504659E-04	1.911236E-05
5.047337E+03	3.494237E-04	1.907449E-05
5.057293E+03	3.482951E-04	1.903371E-05
5.067248E+03	3.471377E-04	1.899288E-05
5.077203E+03	3.459526E-04	1.895182E-05
5.087159E+03	3.447964E-04	1.891337E-05
5.097114E+03	3.435591E-04	1.887128E-05
5.107069E+03	3.422975E-04	1.882844E-05
5.117025E+03	3.410127E-04	1.878470E-05
5.126980E+03	3.397606E-04	1.874297E-05
5.136935E+03	3.384327E-04	1.869708E-05
5.146890E+03	3.370851E-04	1.864995E-05
5.156846E+03	3.357188E-04	1.860151E-05
5.166801E+03	3.343351E-04	1.855168E-05
5.176756E+03	3.329351E-04	1.850039E-05
5.186712E+03	3.315198E-04	1.844759E-05
5.196667E+03	3.300904E-04	1.839325E-05
5.206622E+03	3.287008E-04	1.834028E-05
5.216578E+03	3.272464E-04	1.828276E-05
5.226533E+03	3.257811E-04	1.822365E-05
5.236488E+03	3.243061E-04	1.816294E-05
5.246443E+03	3.228226E-04	1.810064E-05
5.256399E+03	3.213315E-04	1.803678E-05
5.266354E+03	3.198339E-04	1.797138E-05
5.276309E+03	3.183309E-04	1.790448E-05
5.286265E+03	3.168235E-04	1.783613E-05
5.296220E+03	3.153127E-04	1.776636E-05
5.306175E+03	3.137996E-04	1.769523E-05
5.316131E+03	3.122852E-04	1.762282E-05
5.326086E+03	3.107704E-04	1.754917E-05
5.336041E+03	3.092562E-04	1.747438E-05
5.345996E+03	3.076944E-04	1.739571E-05
5.355952E+03	3.061846E-04	1.731884E-05
5.365907E+03	3.046783E-04	1.724105E-05
5.375862E+03	3.031765E-04	1.716243E-05
5.385818E+03	3.016800E-04	1.708307E-05
5.395773E+03	3.001897E-04	1.700304E-05
5.405728E+03	2.987066E-04	1.692246E-05
5.415684E+03	2.971838E-04	1.683871E-05
5.425639E+03	2.957177E-04	1.675728E-05
5.435594E+03	2.942612E-04	1.667558E-05
5.445549E+03	2.928153E-04	1.659361E-05
5.455505E+03	2.913808E-04	1.651133E-05
5.465460E+03	2.899122E-04	1.642607E-05
5.475415E+03	2.885035E-04	1.634304E-05
5.485371E+03	2.871088E-04	1.625955E-05
5.495326E+03	2.857289E-04	1.617555E-05
5.505281E+03	2.843192E-04	1.608844E-05
5.515237E+03	2.829716E-04	1.600334E-05
5.525192E+03	2.816410E-04	1.591760E-05
5.535147E+03	2.802835E-04	1.582869E-05
5.545102E+03	2.789896E-04	1.574163E-05
5.555058E+03	2.777149E-04	1.565385E-05
5.565013E+03	2.764159E-04	1.556285E-05
5.574968E+03	2.751819E-04	1.547358E-05
5.584924E+03	2.739254E-04	1.538108E-05
5.594879E+03	2.727348E-04	1.529025E-05
5.604834E+03	2.715668E-04	1.519862E-05
5.614790E+03	2.703788E-04	1.510375E-05
5.624745E+03	2.692579E-04	1.501048E-05
5.634700E+03	2.681187E-04	1.491400E-05
5.644655E+03	2.670476E-04	1.481908E-05
5.654611E+03	2.659597E-04	1.472098E-05
5.664566E+03	2.649406E-04	1.462442E-05
5.674521E+03	2.639064E-04	1.452471E-05
5.684477E+03	2.629419E-04	1.442651E-05
5.694432E+03	2.619636E-04	1.432523E-05
5.704387E+03	2.610559E-04	1.422545E-05
5.714343E+03	2.601359E-04	1.412263E-05
5.724298E+03	2.592874E-04	1.402132E-05
5.734253E+03	2.584281E-04	1.391704E-05
5.744209E+03	2.576411E-04	1.381427E-05
5.754164E+03	2.568446E-04	1.370861E-05
5.764119E+03	2.560805E-04	1.360230E-05
5.774074E+03	2.553900E-04	1.349752E-05
5.784030E+03	2.546921E-04	1.338999E-05
5.793985E+03	2.540689E-04	1.328401E-05
5.803940E+03	2.534397E-04	1.317537E-05
5.813896E+03	2.528456E-04	1.306623E-05
5.823851E+03	2.523276E-04	1.295871E-05
5.833806E+03	2.518055E-04	1.284868E-05
5.843762E+03	2.513205E-04	1.273828E-05
5.853717E+03	2.509130E-04	1.262957E-05
5.863672E+03	2.505035E-04	1.251854E-05
5.873627E+03	2.501328E-04	1.240728E-05
5.883583E+03	2.498015E-04	1.229585E-05
5.893538E+03	2.495499E-04	1.218624E-05
5.903493E+03	2.492991E-04	1.207461E-05
5.913449E+03	2.490896E-04	1.196299E-05
5.923404E+03	2.489220E-04	1.185145E-05
5.933359E+03	2.488366E-04	1.174193E-05
5.943315E+03	2.487548E-04	1.163075E-05
5.953270E+03	2.487168E-04	1.151989E-05
5.963225E+03	2.487236E-04	1.140944E-05
5.973180E+03	2.487757E-04	1.129950E-05
5.983136E+03	2.488738E-04	1.119017E-05
5.993091E+03	2.490585E-04	1.108333E-05
6.003046E+03	2.492510E-04	1.097556E-05
6.013002E+03	2.494919E-04	1.086877E-05
6.022957E+03	2.497819E-04	1.076310E-05
6.032912E+03	2.501219E-04	1.065871E-05
6.042868E+03	2.505126E-04	1.055576E-05
6.052823E+03	2.509548E-04	1.045443E-05
6.062778E+03	2.514494E-04	1.035490E-05
6.072733E+03	2.519973E-04	1.025739E-05
6.082689E+03	2.525993E-04	1.016210E-05
6.092644E+03	2.532967E-04	1.007090E-05
6.102599E+03	2.540097E-04	9.980792E-06
6.112555E+03	2.547795E-04	9.893684E-06
6.122510E+03	2.556070E-04	9.809862E-06
6.132465E+03	2.564931E-04	9.729638E-06
6.142421E+03	2.574387E-04	9.653343E-06
6.152376E+03	2.584447E-04	9.581330E-06
6.162331E+03	2.595119E-04	9.513969E-06
6.172286E+03	2.606413E-04	9.451656E-06
6.182242E+03	2.618338E-04	9.394805E-06
6.192197E+03	2.630900E-04	9.343847E-06
6.202152E+03	2.643685E-04	9.297753E-06
6.212108E+03	2.657542E-04	9.259958E-06
6.222063E+03	2.672054E-04	9.229455E-06
6.232018E+03	2.687228E-04	9.206736E-06
6.241974E+03	2.703065E-04	9.192301E-06
6.251929E+03	2.719564E-04	9.186644E-06
6.261884E+03	2.736716E-04	9.190241E-06
6.271839E+03	2.754504E-04	9.203386E-06
6.281795E+03	2.772904E-04	9.226063E-06
6.291750E+03	2.791894E-04	9.258208E-06
6.301705E+03	2.811001E-04	9.298257E-06
6.311661E+03	2.831093E-04	9.349075E-06
6.321616E+03	2.851699E-04	9.409077E-06
6.331571E+03	2.872792E-04	9.478146E-06
6.341527E+03	2.894343E-04	9.556150E-06
6.351482E+03	2.916324E-04	9.642946E-06
6.361437E+03	2.938237E-04	9.736836E-06
6.371392E+03	2.960983E-04	9.840744E-06
6.381348E+03	2.984068E-04	9.952972E-06
6.391303E+03	3.007457E-04	1.007335E-05
6.401258E+03	3.030635E-04	1.020007E-05
6.411214E+03	3.054531E-04	1.033619E-05
6.421169E+03	3.078629E-04	1.047993E-05
6.431124E+03	3.102894E-04	1.063109E-05
6.441080E+03	3.126792E-04	1.078778E-05
6.451035E+03	3.151278E-04	1.095322E-05
6.460990E+03	3.175821E-04	1.112554E-05
6.470945E+03	3.200382E-04	1.130455E-05
6.480901E+03	3.224410E-04	1.148823E-05
6.490856E+03	3.248889E-04	1.168005E-05
6.500811E+03	3.273270E-04	1.187800E-05
6.510767E+03	3.296989E-04	1.208000E-05
6.520722E+03	3.321056E-04	1.228967E-05
6.530677E+03	3.344908E-04	1.250496E-05
6.540633E+03	3.367973E-04	1.272364E-05
6.550588E+03	3.391291E-04	1.294961E-05
6.560543E+03	3.414301E-04	1.318073E-05
6.570498E+03	3.436434E-04	1.341471E-05
6.580454E+03	3.458771E-04	1.365546E-05
6.590409E+03	3.480197E-04	1.389824E-05
6.600364E+03	3.501806E-04	1.414701E-05
6.610320E+03	3.523036E-04	1.439916E-05
6.620275E+03	3.543310E-04	1.465190E-05
6.630230E+03	3.563743E-04	1.490947E-05
6.640186E+03	3.583193E-04	1.516669E-05
6.650141E+03	3.602789E-04	1.542794E-05
6.660096E+03	3.621375E-04	1.568793E-05
6.670051E+03	3.640097E-04	1.595120E-05
6.680007E+03	3.658370E-04	1.621488E-05
6.689962E+03	3.675601E-04	1.647593E-05
6.699917E+03	3.692952E-04	1.673918E-05
6.709873E+03	3.709241E-04	1.699894E-05
6.719828E+03	3.725643E-04	1.726020E-05
6.729783E+03	3.740966E-04	1.751714E-05
6.739739E+03	3.756395E-04	1.777493E-05
6.749694E+03	3.770730E-04	1.802759E-05
6.759649E+03	3.785168E-04	1.828049E-05
6.769604E+03	3.798497E-04	1.852749E-05
6.779560E+03	3.811926E-04	1.877414E-05
6.789515E+03	3.824235E-04	1.901418E-05
6.799470E+03	3.836028E-04	1.925024E-05
6.809426E+03	3.847919E-04	1.948515E-05
6.819381E+03	3.858677E-04	1.971243E-05
6.829336E+03	3.869531E-04	1.993807E-05
6.839292E+03	3.879246E-04	2.015545E-05
6.849247E+03	3.889059E-04	2.037073E-05
6.859202E+03	3.897726E-04	2.057717E-05
6.869157E+03	3.905869E-04	2.077778E-05
6.879113E+03	3.914113E-04	2.097566E-05
6.889068E+03	3.921208E-04	2.116393E-05
6.899023E+03	3.928407E-04	2.134911E-05
6.908979E+03	3.934456E-04	2.152421E-05
6.918934E+03	3.939983E-04	2.169243E-05
6.928889E+03	3.945621E-04	2.185707E-05
6.938845E+03	3.950109E-04	2.201101E-05
6.948800E+03	3.954082E-04	2.215756E-05
6.958755E+03	3.958173E-04	2.230014E-05
6.968710E+03	3.961120E-04	2.243149E-05
6.978666E+03	3.963558E-04	2.255503E-05
6.988621E+03	3.966126E-04	2.267428E-05
6.998576E+03	3.967555E-04	2.278187E-05
7.008532E+03	3.968485E-04	2.288133E-05
7.018487E+03	3.969556E-04	2.297624E-05
7.028442E+03	3.969499E-04	2.305917E-05
7.038398E+03	3.968955E-04	2.313372E-05
7.048353E+03	3.967927E-04	2.319982E-05
7.058308E+03	3.967055E-04	2.326115E-05
7.068263E+03	3.965074E-04	2.331022E-05
7.078219E+03	3.962622E-04	2.335071E-05
7.088174E+03	3.959705E-04	2.338259E-05
7.098129E+03	3.956964E-04	2.340960E-05
7.108085E+03	3.953132E-04	2.342422E-05
7.118040E+03	3.948852E-04	2.343021E-05
7.127995E+03	3.944127E-04	2.342757E-05
7.137951E+03	3.938965E-04	2.341632E-05
7.147906E+03	3.934001E-04	2.340024E-05
7.157861E+03	3.927978E-04	2.337184E-05
7.167817E+03	3.921534E-04	2.333493E-05
7.177772E+03	3.914675E-04	2.328956E-05
7.187727E+03	3.907408E-04	2.323579E-05
7.197682E+03	3.900364E-04	2.317739E-05
7.207638E+03	3.892296E-04	2.310700E-05
7.217593E+03	3.883838E-04	2.302841E-05
7.227548E+03	3.874996E-04	2.294173E-05
7.237504E+03	3.865776E-04	2.284704E-05
7.247459E+03	3.856186E-04	2.274446E-05
7.257414E+03	3.846231E-04	2.263408E-05
7.267370E+03	3.835918E-04	2.251604E-05
7.277325E+03	3.825869E-04	2.239405E-05
7.287280E+03	3.814858E-04	2.226103E-05
7.297235E+03	3.803509E-04	2.212075E-05
7.307191E+03	3.791829E-04	2.197334E-05
7.317146E+03	3.779824E-04	2.181897E-05
7.327101E+03	3.767501E-04	2.165779E-05
7.337057E+03	3.754867E-04	2.148998E-05
7.347012E+03	3.741928E-04	2.131573E-05
7.356967E+03	3.728690E-04	2.113520E-05
7.366923E+03	3.715162E-04	2.094860E-05
7.376878E+03	3.701349E-04	2.075613E-05
7.386833E+03	3.687258E-04	2.055800E-05
7.396788E+03	3.672896E-04	2.035443E-05
7.406744E+03	3.658270E-04	2.014563E-05
7.416699E+03	3.643385E-04	1.993186E-05
7.426654E+03	3.628249E-04	1.971334E-05
7.436610E+03	3.612869E-04	1.949033E-05
7.446565E+03	3.597249E-04	1.926309E-05
7.456520E+03	3.581399E-04	1.903189E-05
7.466476E+03	3.565323E-04	1.879702E-05
7.476431E+03	3.549029E-04	1.855876E-05
7.486386E+03	3.532522E-04	1.831742E-05
7.496341E+03	3.515810E-04	1.807330E-05
7.506297E+03	3.498898E-04	1.782673E-05
7.516252E+03	3.481792E-04	1.757806E-05
7.526207E+03	3.464500E-04	1.732762E-05
7.536163E+03	3.447027E-04	1.707578E-05
7.546118E+03	3.429380E-04	1.682291E-05
7.556073E+03	3.411564E-04	1.656941E-05
7.566029E+03	3.393586E-04	1.631568E-05
7.575984E+03	3.375451E-04	1.606214E-05
7.585939E+03	3.356624E-04	1.580668E-05
7.595894E+03	3.338199E-04	1.555490E-05
7.605850E+03	3.319634E-04	1.530467E-05
7.615805E+03	3.300937E-04	1.505649E-05
7.625760E+03	3.282114E-04	1.481086E-05
7.635716E+03	3.263169E-04	1.456830E-05
7.645671E+03	3.244110E-04	1.432937E-05
7.655626E+03	3.224941E-04	1.409463E-05
7.665582E+03	3.205150E-04	1.386241E-05
7.675537E+03	3.185782E-04	1.363783E-05
7.685492E+03	3.166321E-04	1.341923E-05
7.695447E+03	3.146774E-04	1.320723E-05
7.705403E+03	3.127145E-04	1.300249E-05
7.715358E+03	3.106938E-04	1.280356E-05
7.725313E+03	3.087166E-04	1.261530E-05
