#wls	flux	fluxerr
1.586090E+03	2.138728E-02	2.516871E-03
1.625742E+03	1.711131E-02	1.988590E-03
1.665394E+03	1.356959E-02	1.556949E-03
1.705047E+03	1.067705E-02	1.209190E-03
1.744699E+03	8.345176E-03	9.326255E-04
1.784351E+03	6.489627E-03	7.155091E-04
1.824003E+03	5.030363E-03	5.470371E-04
1.863656E+03	3.897036E-03	4.179037E-04
1.903308E+03	3.025211E-03	3.198371E-04
1.942960E+03	2.361716E-03	2.461187E-04
1.982612E+03	1.862136E-03	1.912452E-04
2.022265E+03	1.490410E-03	1.508249E-04
2.061917E+03	1.217915E-03	1.214244E-04
2.101569E+03	1.024001E-03	1.005665E-04
2.141221E+03	8.938676E-04	8.646547E-05
2.180874E+03	8.177304E-04	7.790397E-05
2.220526E+03	7.906512E-04	7.418022E-05
2.260178E+03	8.124814E-04	7.506707E-05
2.299830E+03	8.868826E-04	8.068968E-05
2.339483E+03	1.022234E-03	9.158066E-05
2.379135E+03	1.233204E-03	1.087861E-04
2.418787E+03	1.539956E-03	1.337561E-04
2.458439E+03	1.967260E-03	1.682335E-04
2.498092E+03	2.538532E-03	2.137254E-04
2.537744E+03	3.269416E-03	2.709832E-04
2.577396E+03	4.153905E-03	3.389241E-04
2.617048E+03	5.159096E-03	4.143510E-04
2.656701E+03	6.232513E-03	4.927007E-04
2.696353E+03	7.316445E-03	5.692774E-04
2.736005E+03	8.354244E-03	6.397593E-04
2.775657E+03	9.293515E-03	7.004255E-04
2.815310E+03	1.009774E-02	7.489826E-04
2.854962E+03	1.074415E-02	7.843089E-04
2.894614E+03	1.122820E-02	8.066846E-04
2.934266E+03	1.156080E-02	8.174911E-04
2.973919E+03	1.176544E-02	8.189218E-04
2.983832E+03	1.180065E-02	8.181490E-04
2.993745E+03	1.182979E-02	8.169571E-04
3.003658E+03	1.185394E-02	8.154264E-04
3.013571E+03	1.187419E-02	8.136351E-04
3.023484E+03	1.189101E-02	8.116195E-04
3.033397E+03	1.190432E-02	8.093779E-04
3.043310E+03	1.191521E-02	8.069864E-04
3.053223E+03	1.192418E-02	8.044816E-04
3.063136E+03	1.193175E-02	8.019011E-04
3.073049E+03	1.193899E-02	7.993163E-04
3.082962E+03	1.194587E-02	7.967278E-04
3.092875E+03	1.195401E-02	7.942428E-04
3.102789E+03	1.196287E-02	7.918260E-04
3.112702E+03	1.197461E-02	7.896188E-04
3.122615E+03	1.198822E-02	7.875539E-04
3.132528E+03	1.200587E-02	7.857727E-04
3.142441E+03	1.202769E-02	7.842804E-04
3.152354E+03	1.205484E-02	7.831505E-04
3.162267E+03	1.208755E-02	7.823945E-04
3.172180E+03	1.212711E-02	7.820919E-04
3.182093E+03	1.217479E-02	7.823210E-04
3.192006E+03	1.223102E-02	7.831015E-04
3.201919E+03	1.229720E-02	7.845164E-04
3.211832E+03	1.237475E-02	7.866486E-04
3.221745E+03	1.246467E-02	7.895532E-04
3.231658E+03	1.256755E-02	7.932571E-04
3.241571E+03	1.268532E-02	7.978733E-04
3.251484E+03	1.281904E-02	8.034574E-04
3.261398E+03	1.296930E-02	8.100345E-04
3.271311E+03	1.313803E-02	8.177148E-04
3.281224E+03	1.332626E-02	8.265479E-04
3.291137E+03	1.353539E-02	8.366074E-04
3.301050E+03	1.376593E-02	8.479111E-04
3.310963E+03	1.401876E-02	8.604987E-04
3.320876E+03	1.429608E-02	8.744900E-04
3.330789E+03	1.459779E-02	8.898617E-04
3.340702E+03	1.492504E-02	9.066693E-04
3.350615E+03	1.527847E-02	9.249333E-04
3.360528E+03	1.565911E-02	9.446996E-04
3.370441E+03	1.606787E-02	9.660040E-04
3.380354E+03	1.650417E-02	9.887935E-04
3.390267E+03	1.696917E-02	1.013120E-03
3.400180E+03	1.746302E-02	1.038973E-03
3.410093E+03	1.798529E-02	1.066306E-03
3.420007E+03	1.853593E-02	1.095100E-03
3.429920E+03	1.911570E-02	1.125378E-03
3.439833E+03	1.972217E-02	1.156979E-03
3.449746E+03	2.035480E-02	1.189852E-03
3.459659E+03	2.101253E-02	1.223918E-03
3.469572E+03	2.169263E-02	1.258999E-03
3.479485E+03	2.239313E-02	1.294966E-03
3.489398E+03	2.311079E-02	1.331616E-03
3.499311E+03	2.384247E-02	1.368755E-03
3.509224E+03	2.458413E-02	1.406141E-03
3.519137E+03	2.533093E-02	1.443488E-03
3.529050E+03	2.607788E-02	1.480506E-03
3.538963E+03	2.682052E-02	1.516939E-03
3.548876E+03	2.755352E-02	1.552486E-03
3.558789E+03	2.827196E-02	1.586874E-03
3.568702E+03	2.897100E-02	1.619836E-03
3.578616E+03	2.964656E-02	1.651155E-03
3.588529E+03	3.029615E-02	1.680703E-03
3.598442E+03	3.091721E-02	1.708352E-03
3.608355E+03	3.150969E-02	1.734113E-03
3.618268E+03	3.207437E-02	1.758045E-03
3.628181E+03	3.261354E-02	1.780288E-03
3.638094E+03	3.313117E-02	1.801069E-03
3.648007E+03	3.363256E-02	1.820688E-03
3.657920E+03	3.412474E-02	1.839529E-03
3.667833E+03	3.461648E-02	1.858066E-03
3.677746E+03	3.511741E-02	1.876812E-03
3.687659E+03	3.564055E-02	1.896446E-03
3.697572E+03	3.619775E-02	1.917579E-03
3.707485E+03	3.680300E-02	1.940920E-03
3.717398E+03	3.747106E-02	1.967205E-03
3.727311E+03	3.821759E-02	1.997203E-03
3.737225E+03	3.905566E-02	2.031532E-03
3.747138E+03	3.999958E-02	2.070860E-03
3.757051E+03	4.106154E-02	2.115732E-03
3.766964E+03	4.224953E-02	2.166465E-03
3.776877E+03	4.356925E-02	2.223246E-03
3.786790E+03	4.502247E-02	2.286059E-03
3.796703E+03	4.660429E-02	2.354546E-03
3.806616E+03	4.830348E-02	2.428036E-03
3.816529E+03	5.010476E-02	2.505664E-03
3.826442E+03	5.198445E-02	2.586162E-03
3.836355E+03	5.391379E-02	2.668035E-03
3.846268E+03	5.586008E-02	2.749622E-03
3.856181E+03	5.778408E-02	2.828978E-03
3.866094E+03	5.964565E-02	2.904155E-03
3.876007E+03	6.140527E-02	2.973280E-03
3.885920E+03	6.302462E-02	3.034580E-03
3.895834E+03	6.446851E-02	3.086478E-03
3.905747E+03	6.570879E-02	3.127769E-03
3.915660E+03	6.672573E-02	3.157683E-03
3.925573E+03	6.750885E-02	3.175908E-03
3.935486E+03	6.805763E-02	3.182614E-03
3.945399E+03	6.838206E-02	3.178461E-03
3.955312E+03	6.850057E-02	3.164492E-03
3.965225E+03	6.844118E-02	3.142170E-03
3.975138E+03	6.823730E-02	3.113178E-03
3.985051E+03	6.792584E-02	3.079315E-03
3.994964E+03	6.754647E-02	3.042468E-03
4.004877E+03	6.713812E-02	3.004443E-03
4.014790E+03	6.673920E-02	2.966979E-03
4.024703E+03	6.638258E-02	2.931525E-03
4.034616E+03	6.609895E-02	2.899396E-03
4.044529E+03	6.591136E-02	2.871537E-03
4.054443E+03	6.584017E-02	2.848748E-03
4.064356E+03	6.589675E-02	2.831419E-03
4.074269E+03	6.608886E-02	2.819771E-03
4.084182E+03	6.641731E-02	2.813722E-03
4.094095E+03	6.687573E-02	2.812885E-03
4.104008E+03	6.745274E-02	2.816671E-03
4.113921E+03	6.813163E-02	2.824286E-03
4.123834E+03	6.889061E-02	2.834746E-03
4.133747E+03	6.970260E-02	2.846878E-03
4.143660E+03	7.053871E-02	2.859469E-03
4.153573E+03	7.136567E-02	2.871166E-03
4.163486E+03	7.214999E-02	2.880649E-03
4.173399E+03	7.285858E-02	2.886656E-03
4.183312E+03	7.345785E-02	2.887944E-03
4.193225E+03	7.391766E-02	2.883449E-03
4.203138E+03	7.421016E-02	2.872231E-03
4.213052E+03	7.431435E-02	2.853649E-03
4.222965E+03	7.421136E-02	2.827167E-03
4.232878E+03	7.389189E-02	2.792634E-03
4.242791E+03	7.335352E-02	2.750166E-03
4.252704E+03	7.260135E-02	2.700161E-03
4.262617E+03	7.164973E-02	2.643351E-03
4.272530E+03	7.052257E-02	2.580798E-03
4.282443E+03	6.925041E-02	2.513775E-03
4.292356E+03	6.787370E-02	2.443872E-03
4.302269E+03	6.643760E-02	2.372798E-03
4.312182E+03	6.499638E-02	2.302531E-03
4.322095E+03	6.360262E-02	2.234926E-03
4.332008E+03	6.231631E-02	2.172035E-03
4.341921E+03	6.119636E-02	2.115805E-03
4.351834E+03	6.029997E-02	2.068059E-03
4.361747E+03	5.967742E-02	2.030327E-03
4.371661E+03	5.937677E-02	2.004011E-03
4.381574E+03	5.943816E-02	1.990203E-03
4.391487E+03	5.989058E-02	1.989588E-03
4.401400E+03	6.075957E-02	2.002717E-03
4.411313E+03	6.206737E-02	2.030015E-03
4.421226E+03	6.382483E-02	2.071528E-03
4.431139E+03	6.604000E-02	2.127215E-03
4.441052E+03	6.872182E-02	2.197067E-03
4.450965E+03	7.187090E-02	2.280821E-03
4.460878E+03	7.548694E-02	2.378198E-03
4.470791E+03	7.956133E-02	2.488679E-03
4.480704E+03	8.407067E-02	2.611308E-03
4.490617E+03	8.896990E-02	2.744502E-03
4.500530E+03	9.419615E-02	2.886184E-03
4.510443E+03	9.965896E-02	3.033501E-03
4.520356E+03	1.052388E-01	3.182777E-03
4.530270E+03	1.107897E-01	3.329626E-03
4.540183E+03	1.161463E-01	3.469184E-03
4.550096E+03	1.211261E-01	3.596191E-03
4.560009E+03	1.255431E-01	3.705399E-03
4.569922E+03	1.292285E-01	3.792175E-03
4.579835E+03	1.320369E-01	3.852656E-03
4.589748E+03	1.338594E-01	3.884120E-03
4.599661E+03	1.346471E-01	3.885613E-03
4.609574E+03	1.344033E-01	3.857687E-03
4.619487E+03	1.331773E-01	3.802195E-03
4.629400E+03	1.310689E-01	3.722366E-03
4.639313E+03	1.282083E-01	3.622220E-03
4.649226E+03	1.247501E-01	3.506382E-03
4.659139E+03	1.208579E-01	3.379626E-03
4.669052E+03	1.167007E-01	3.246794E-03
4.678965E+03	1.124330E-01	3.112219E-03
4.688879E+03	1.081916E-01	2.979674E-03
4.698792E+03	1.040958E-01	2.852377E-03
4.708705E+03	1.002445E-01	2.732928E-03
4.718618E+03	9.671096E-02	2.623183E-03
4.728531E+03	9.354821E-02	2.524417E-03
4.738444E+03	9.079501E-02	2.437496E-03
4.748357E+03	8.846815E-02	2.362680E-03
4.758270E+03	8.657517E-02	2.299976E-03
4.768183E+03	8.511121E-02	2.249058E-03
4.778096E+03	8.406140E-02	2.209343E-03
4.788009E+03	8.340127E-02	2.180001E-03
4.797922E+03	8.310528E-02	2.160189E-03
4.807835E+03	8.313775E-02	2.148814E-03
4.817748E+03	8.345708E-02	2.144648E-03
4.827661E+03	8.401851E-02	2.146406E-03
4.837574E+03	8.476320E-02	2.152471E-03
4.847488E+03	8.562601E-02	2.161099E-03
4.857401E+03	8.653872E-02	2.170510E-03
4.867314E+03	8.742966E-02	2.178878E-03
4.877227E+03	8.822686E-02	2.184420E-03
4.887140E+03	8.886552E-02	2.185574E-03
4.897053E+03	8.929365E-02	2.181140E-03
4.906966E+03	8.947530E-02	2.170345E-03
4.916879E+03	8.938974E-02	2.152811E-03
4.926792E+03	8.904262E-02	2.128811E-03
4.936705E+03	8.845780E-02	2.099052E-03
4.946618E+03	8.767336E-02	2.064565E-03
4.956531E+03	8.674704E-02	2.026815E-03
4.966444E+03	8.574274E-02	1.987374E-03
4.976357E+03	8.472683E-02	1.947824E-03
4.986270E+03	8.376701E-02	1.909729E-03
4.996183E+03	8.292897E-02	1.874556E-03
5.006097E+03	8.227041E-02	1.843544E-03
5.016010E+03	8.184568E-02	1.817809E-03
5.025923E+03	8.170331E-02	1.798294E-03
5.035836E+03	8.188742E-02	1.785807E-03
5.045749E+03	8.243797E-02	1.781028E-03
5.055662E+03	8.339281E-02	1.784556E-03
5.065575E+03	8.478586E-02	1.796877E-03
5.075488E+03	8.665093E-02	1.818445E-03
5.085401E+03	8.901635E-02	1.849574E-03
5.095314E+03	9.190845E-02	1.890514E-03
5.105227E+03	9.534217E-02	1.941267E-03
5.115140E+03	9.932567E-02	2.001691E-03
5.125053E+03	1.038572E-01	2.071447E-03
5.134966E+03	1.089138E-01	2.149788E-03
5.144879E+03	1.144505E-01	2.235573E-03
5.154792E+03	1.204089E-01	2.327453E-03
5.164706E+03	1.266935E-01	2.423431E-03
5.174619E+03	1.331853E-01	2.521165E-03
5.184532E+03	1.397400E-01	2.617953E-03
5.194445E+03	1.461909E-01	2.710806E-03
5.204358E+03	1.523577E-01	2.796633E-03
5.214271E+03	1.580494E-01	2.872293E-03
5.224184E+03	1.630851E-01	2.934969E-03
5.234097E+03	1.672941E-01	2.982153E-03
5.244010E+03	1.705342E-01	3.011941E-03
5.253923E+03	1.727175E-01	3.023449E-03
5.263836E+03	1.737948E-01	3.016480E-03
5.273749E+03	1.737702E-01	2.991740E-03
5.283662E+03	1.727034E-01	2.950827E-03
5.293575E+03	1.707005E-01	2.896031E-03
5.303488E+03	1.679099E-01	2.830242E-03
5.313401E+03	1.645283E-01	2.757032E-03
5.323315E+03	1.607685E-01	2.680112E-03
5.333228E+03	1.568579E-01	2.603311E-03
5.343141E+03	1.530422E-01	2.530664E-03
5.353054E+03	1.495442E-01	2.465758E-03
5.362967E+03	1.465400E-01	2.411350E-03
5.372880E+03	1.441753E-01	2.369599E-03
5.382793E+03	1.424527E-01	2.340325E-03
5.392706E+03	1.412443E-01	2.321244E-03
5.402619E+03	1.404066E-01	2.309863E-03
5.412532E+03	1.397692E-01	2.303256E-03
5.422445E+03	1.391559E-01	2.298405E-03
5.432358E+03	1.384194E-01	2.292743E-03
5.442271E+03	1.374230E-01	2.283855E-03
5.452184E+03	1.360611E-01	2.269806E-03
5.462097E+03	1.342685E-01	2.249296E-03
5.472010E+03	1.320155E-01	2.221599E-03
5.481924E+03	1.292984E-01	2.186409E-03
5.491837E+03	1.261470E-01	2.143982E-03
5.501750E+03	1.226127E-01	2.094954E-03
5.511663E+03	1.187613E-01	2.040226E-03
5.521576E+03	1.146715E-01	1.980958E-03
5.531489E+03	1.104283E-01	1.918456E-03
5.541402E+03	1.061136E-01	1.854017E-03
5.551315E+03	1.018064E-01	1.788931E-03
5.561228E+03	9.758008E-02	1.724436E-03
5.571141E+03	9.349649E-02	1.661601E-03
5.581054E+03	8.961365E-02	1.601468E-03
5.590967E+03	8.597897E-02	1.544918E-03
5.600880E+03	8.263097E-02	1.492698E-03
5.610793E+03	7.960350E-02	1.445489E-03
5.620706E+03	7.692348E-02	1.403865E-03
5.630619E+03	7.461234E-02	1.368307E-03
5.640533E+03	7.268678E-02	1.339219E-03
5.650446E+03	7.116079E-02	1.316955E-03
5.660359E+03	7.004644E-02	1.301836E-03
5.670272E+03	6.935067E-02	1.294085E-03
5.680185E+03	6.908143E-02	1.293937E-03
5.690098E+03	6.924467E-02	1.301586E-03
5.700011E+03	6.984120E-02	1.317119E-03
5.709924E+03	7.086986E-02	1.340577E-03
5.719837E+03	7.232920E-02	1.371986E-03
5.729750E+03	7.420664E-02	1.411147E-03
5.739663E+03	7.648463E-02	1.457754E-03
5.749576E+03	7.913926E-02	1.511365E-03
5.759489E+03	8.213160E-02	1.571238E-03
5.769402E+03	8.540966E-02	1.636367E-03
5.779315E+03	8.891236E-02	1.705561E-03
5.789228E+03	9.256120E-02	1.777280E-03
5.799142E+03	9.626701E-02	1.849774E-03
5.809055E+03	9.993055E-02	1.921095E-03
5.818968E+03	1.034450E-01	1.989150E-03
5.828881E+03	1.067009E-01	2.051799E-03
5.838794E+03	1.095880E-01	2.106897E-03
5.848707E+03	1.120056E-01	2.152500E-03
5.858620E+03	1.138672E-01	2.186953E-03
5.868533E+03	1.150961E-01	2.208810E-03
5.878446E+03	1.156454E-01	2.217219E-03
5.888359E+03	1.154877E-01	2.211722E-03
5.898272E+03	1.146168E-01	2.192282E-03
5.908185E+03	1.130555E-01	2.159433E-03
5.918098E+03	1.108473E-01	2.114111E-03
5.928011E+03	1.080553E-01	2.057631E-03
5.937924E+03	1.047642E-01	1.991709E-03
5.947837E+03	1.010681E-01	1.918238E-03
5.957751E+03	9.706958E-02	1.839253E-03
5.967664E+03	9.287693E-02	1.756880E-03
5.977577E+03	8.859503E-02	1.673161E-03
5.987490E+03	8.432276E-02	1.590007E-03
5.997403E+03	8.015159E-02	1.509166E-03
6.007316E+03	7.616418E-02	1.432206E-03
6.017229E+03	7.242714E-02	1.360379E-03
6.027142E+03	6.899954E-02	1.294786E-03
6.037055E+03	6.592707E-02	1.236273E-03
6.046968E+03	6.324152E-02	1.185421E-03
6.056881E+03	6.096692E-02	1.142674E-03
6.066794E+03	5.911696E-02	1.108287E-03
6.076707E+03	5.769584E-02	1.082350E-03
6.086620E+03	5.668990E-02	1.064632E-03
6.096533E+03	5.608093E-02	1.054831E-03
6.106446E+03	5.584557E-02	1.052567E-03
6.116360E+03	5.594640E-02	1.057209E-03
6.126273E+03	5.634328E-02	1.068089E-03
6.136186E+03	5.699345E-02	1.084496E-03
6.146099E+03	5.784942E-02	1.105641E-03
6.156012E+03	5.886044E-02	1.130666E-03
6.165925E+03	5.997341E-02	1.158668E-03
6.175838E+03	6.113852E-02	1.188788E-03
6.185751E+03	6.230519E-02	1.220105E-03
6.195664E+03	6.342600E-02	1.251705E-03
6.205577E+03	6.446032E-02	1.282774E-03
6.215490E+03	6.537507E-02	1.312613E-03
6.225403E+03	6.614107E-02	1.340567E-03
6.235316E+03	6.673919E-02	1.366150E-03
6.245229E+03	6.715877E-02	1.389022E-03
6.255142E+03	6.739946E-02	1.409039E-03
6.265055E+03	6.747105E-02	1.426255E-03
6.274969E+03	6.739385E-02	1.440949E-03
6.284882E+03	6.719527E-02	1.453565E-03
6.294795E+03	6.691452E-02	1.464825E-03
6.304708E+03	6.659621E-02	1.475609E-03
6.314621E+03	6.628609E-02	1.486869E-03
6.324534E+03	6.603639E-02	1.499755E-03
6.334447E+03	6.589262E-02	1.515322E-03
6.344360E+03	6.589415E-02	1.534541E-03
6.354273E+03	6.606499E-02	1.558072E-03
6.364186E+03	6.639872E-02	1.585880E-03
6.374099E+03	6.687336E-02	1.617552E-03
6.384012E+03	6.746340E-02	1.652566E-03
6.393925E+03	6.813824E-02	1.690244E-03
6.403838E+03	6.886379E-02	1.729784E-03
6.413751E+03	6.960757E-02	1.770384E-03
6.423664E+03	7.034123E-02	1.811306E-03
6.433578E+03	7.103227E-02	1.851669E-03
6.443491E+03	7.165430E-02	1.890713E-03
6.453404E+03	7.218196E-02	1.927669E-03
6.463317E+03	7.259437E-02	1.961859E-03
6.473230E+03	7.286994E-02	1.992557E-03
6.483143E+03	7.299138E-02	2.019131E-03
6.493056E+03	7.294492E-02	2.041025E-03
6.502969E+03	7.271825E-02	2.057710E-03
6.512882E+03	7.230430E-02	2.068793E-03
6.522795E+03	7.169855E-02	2.073948E-03
6.532708E+03	7.090105E-02	2.072980E-03
6.542621E+03	6.991581E-02	2.065817E-03
6.552534E+03	6.875200E-02	2.052547E-03
6.562447E+03	6.742184E-02	2.033367E-03
6.572360E+03	6.594305E-02	2.008662E-03
6.582273E+03	6.433544E-02	1.978904E-03
6.592187E+03	6.262214E-02	1.944700E-03
6.602100E+03	6.082860E-02	1.906758E-03
6.612013E+03	5.897891E-02	1.865778E-03
6.621926E+03	5.709916E-02	1.822553E-03
6.631839E+03	5.521262E-02	1.777820E-03
6.641752E+03	5.334305E-02	1.732358E-03
6.651665E+03	5.150983E-02	1.686832E-03
6.661578E+03	4.973051E-02	1.641866E-03
6.671491E+03	4.801989E-02	1.598014E-03
6.681404E+03	4.639068E-02	1.555772E-03
6.691317E+03	4.485151E-02	1.515513E-03
6.701230E+03	4.340982E-02	1.477575E-03
6.711143E+03	4.206917E-02	1.442169E-03
6.721056E+03	4.083303E-02	1.409506E-03
6.730969E+03	3.970047E-02	1.379641E-03
6.740882E+03	3.867042E-02	1.352624E-03
6.750796E+03	3.773988E-02	1.328432E-03
6.760709E+03	3.690420E-02	1.306978E-03
6.770622E+03	3.615900E-02	1.288178E-03
6.780535E+03	3.549753E-02	1.271858E-03
6.790448E+03	3.491321E-02	1.257840E-03
6.800361E+03	3.439886E-02	1.245917E-03
6.810274E+03	3.394712E-02	1.235868E-03
6.820187E+03	3.355080E-02	1.227470E-03
6.830100E+03	3.320271E-02	1.220496E-03
6.840013E+03	3.289599E-02	1.214719E-03
6.849926E+03	3.262431E-02	1.209931E-03
6.859839E+03	3.238193E-02	1.205936E-03
6.869752E+03	3.216426E-02	1.202580E-03
6.879665E+03	3.196589E-02	1.199673E-03
6.889578E+03	3.178423E-02	1.197129E-03
6.899491E+03	3.161590E-02	1.194827E-03
6.909405E+03	3.145869E-02	1.192692E-03
6.919318E+03	3.131064E-02	1.190653E-03
6.929231E+03	3.117186E-02	1.188721E-03
6.939144E+03	3.104144E-02	1.186864E-03
6.949057E+03	3.091942E-02	1.185090E-03
6.958970E+03	3.080609E-02	1.183411E-03
6.968883E+03	3.070192E-02	1.181851E-03
6.978796E+03	3.060737E-02	1.180430E-03
6.988709E+03	3.052289E-02	1.179169E-03
6.998622E+03	3.044829E-02	1.178064E-03
7.008535E+03	3.038467E-02	1.177159E-03
7.018448E+03	3.033134E-02	1.176431E-03
7.028361E+03	3.028807E-02	1.175872E-03
7.038274E+03	3.025368E-02	1.175438E-03
7.048187E+03	3.022855E-02	1.175145E-03
7.058100E+03	3.021078E-02	1.174921E-03
7.068014E+03	3.020055E-02	1.174772E-03
7.077927E+03	3.019635E-02	1.174640E-03
7.087840E+03	3.019675E-02	1.174469E-03
7.097753E+03	3.020193E-02	1.174267E-03
7.107666E+03	3.021047E-02	1.173978E-03
7.117579E+03	3.022156E-02	1.173570E-03
7.127492E+03	3.023439E-02	1.173012E-03
7.137405E+03	3.024867E-02	1.172293E-03
7.147318E+03	3.026303E-02	1.171359E-03
7.157231E+03	3.027717E-02	1.170199E-03
7.167144E+03	3.028961E-02	1.168756E-03
7.177057E+03	3.029989E-02	1.167014E-03
7.186970E+03	3.030694E-02	1.164932E-03
7.196883E+03	3.031012E-02	1.162487E-03
7.206796E+03	3.030708E-02	1.159592E-03
7.216709E+03	3.029762E-02	1.156242E-03
7.226623E+03	3.028045E-02	1.152391E-03
7.236536E+03	3.025427E-02	1.147994E-03
7.246449E+03	3.021733E-02	1.142990E-03
7.256362E+03	3.017030E-02	1.137410E-03
7.266275E+03	3.011121E-02	1.131187E-03
7.276188E+03	3.003947E-02	1.124308E-03
7.286101E+03	2.995598E-02	1.116813E-03
7.296014E+03	2.986022E-02	1.108694E-03
7.305927E+03	2.975332E-02	1.100001E-03
7.315840E+03	2.963553E-02	1.090754E-03
7.325753E+03	2.950810E-02	1.081008E-03
7.335666E+03	2.937318E-02	1.070854E-03
7.345579E+03	2.923261E-02	1.060365E-03
7.355492E+03	2.908773E-02	1.049601E-03
7.365405E+03	2.894059E-02	1.038643E-03
7.375318E+03	2.879318E-02	1.027569E-03
7.385232E+03	2.864735E-02	1.016451E-03
7.395145E+03	2.850533E-02	1.005374E-03
7.405058E+03	2.836741E-02	9.943529E-04
7.414971E+03	2.823528E-02	9.834492E-04
7.424884E+03	2.810974E-02	9.726940E-04
7.434797E+03	2.799131E-02	9.621075E-04
7.444710E+03	2.787904E-02	9.516597E-04
7.454623E+03	2.777394E-02	9.413868E-04
7.464536E+03	2.767448E-02	9.312404E-04
7.474449E+03	2.758060E-02	9.212209E-04
7.484362E+03	2.749080E-02	9.112826E-04
7.494275E+03	2.740395E-02	9.013936E-04
7.504188E+03	2.731885E-02	8.915197E-04
7.514101E+03	2.723370E-02	8.816106E-04
7.524014E+03	2.714785E-02	8.716541E-04
7.533927E+03	2.705905E-02	8.615883E-04
7.543841E+03	2.696776E-02	8.514398E-04
7.553754E+03	2.687228E-02	8.411675E-04
7.563667E+03	2.677287E-02	8.307933E-04
7.573580E+03	2.666977E-02	8.203388E-04
7.583493E+03	2.656281E-02	8.098132E-04
7.593406E+03	2.645311E-02	7.992654E-04
7.603319E+03	2.634045E-02	7.887029E-04
7.613232E+03	2.622743E-02	7.782183E-04
7.623145E+03	2.611327E-02	7.678021E-04
7.633058E+03	2.599986E-02	7.575239E-04
7.642971E+03	2.588678E-02	7.473846E-04
7.652884E+03	2.577575E-02	7.374481E-04
7.662797E+03	2.566684E-02	7.277296E-04
7.672710E+03	2.556065E-02	7.182602E-04
7.682623E+03	2.545840E-02	7.090877E-04
7.692536E+03	2.535999E-02	7.002228E-04
