#wls	flux	fluxerr
1.586090E+03	3.961635E-03	2.768395E-04
1.625742E+03	3.399963E-03	2.371089E-04
1.665394E+03	2.917392E-03	2.030320E-04
1.705047E+03	2.506246E-03	1.740462E-04
1.744699E+03	2.156531E-03	1.494316E-04
1.784351E+03	1.861048E-03	1.286661E-04
1.824003E+03	1.611730E-03	1.111711E-04
1.863656E+03	1.403081E-03	9.654911E-05
1.903308E+03	1.228763E-03	8.434744E-05
1.942960E+03	1.084132E-03	7.423272E-05
1.982612E+03	9.649624E-04	6.590275E-05
2.022265E+03	8.676961E-04	5.910321E-05
2.061917E+03	7.895266E-04	5.363271E-05
2.101569E+03	7.279912E-04	4.931481E-05
2.141221E+03	6.811135E-04	4.600731E-05
2.180874E+03	6.473423E-04	4.359782E-05
2.220526E+03	6.256157E-04	4.200764E-05
2.260178E+03	6.149596E-04	4.116449E-05
2.299830E+03	6.149266E-04	4.103174E-05
2.339483E+03	6.253204E-04	4.158953E-05
2.379135E+03	6.459465E-04	4.281797E-05
2.418787E+03	6.769077E-04	4.471669E-05
2.458439E+03	7.186997E-04	4.731079E-05
2.498092E+03	7.715813E-04	5.060903E-05
2.537744E+03	8.361365E-04	5.464082E-05
2.577396E+03	9.130226E-04	5.943944E-05
2.617048E+03	1.002628E-03	6.501965E-05
2.656701E+03	1.105821E-03	7.142645E-05
2.696353E+03	1.223197E-03	7.868591E-05
2.736005E+03	1.355583E-03	8.683787E-05
2.775657E+03	1.503934E-03	9.592891E-05
2.815310E+03	1.669387E-03	1.060156E-04
2.854962E+03	1.853602E-03	1.171858E-04
2.894614E+03	2.058077E-03	1.295146E-04
2.934266E+03	2.285878E-03	1.431728E-04
2.973919E+03	2.539831E-03	1.583121E-04
2.983832E+03	2.607588E-03	1.623364E-04
2.993745E+03	2.677498E-03	1.664832E-04
3.003658E+03	2.749629E-03	1.707564E-04
3.013571E+03	2.823692E-03	1.751372E-04
3.023484E+03	2.899739E-03	1.796285E-04
3.033397E+03	2.978207E-03	1.842566E-04
3.043310E+03	3.058788E-03	1.890021E-04
3.053223E+03	3.141936E-03	1.938921E-04
3.063136E+03	3.227732E-03	1.989311E-04
3.073049E+03	3.316266E-03	2.041239E-04
3.082962E+03	3.407211E-03	2.094496E-04
3.092875E+03	3.501054E-03	2.149375E-04
3.102789E+03	3.597892E-03	2.205926E-04
3.112702E+03	3.697815E-03	2.264198E-04
3.122615E+03	3.800920E-03	2.324240E-04
3.132528E+03	3.907306E-03	2.386104E-04
3.142441E+03	4.017532E-03	2.450122E-04
3.152354E+03	4.130782E-03	2.515787E-04
3.162267E+03	4.248090E-03	2.583717E-04
3.172180E+03	4.369093E-03	2.653684E-04
3.182093E+03	4.493895E-03	2.725738E-04
3.192006E+03	4.623099E-03	2.800233E-04
3.201919E+03	4.756830E-03	2.877234E-04
3.211832E+03	4.894692E-03	2.956488E-04
3.221745E+03	5.037313E-03	3.038361E-04
3.231658E+03	5.184810E-03	3.122912E-04
3.241571E+03	5.336755E-03	3.209868E-04
3.251484E+03	5.494345E-03	3.299936E-04
3.261398E+03	5.656583E-03	3.392501E-04
3.271311E+03	5.824694E-03	3.488283E-04
3.281224E+03	5.998213E-03	3.586988E-04
3.291137E+03	6.177224E-03	3.688649E-04
3.301050E+03	6.362407E-03	3.793656E-04
3.310963E+03	6.553233E-03	3.901675E-04
3.320876E+03	6.750378E-03	4.013093E-04
3.330789E+03	6.953261E-03	4.127545E-04
3.340702E+03	7.163194E-03	4.245791E-04
3.350615E+03	7.378909E-03	4.367061E-04
3.360528E+03	7.601717E-03	4.492112E-04
3.370441E+03	7.830256E-03	4.620118E-04
3.380354E+03	8.065833E-03	4.751831E-04
3.390267E+03	8.307686E-03	4.886783E-04
3.400180E+03	8.556417E-03	5.025307E-04
3.410093E+03	8.811904E-03	5.167311E-04
3.420007E+03	9.073255E-03	5.312251E-04
3.429920E+03	9.340986E-03	5.460411E-04
3.439833E+03	9.614859E-03	5.611631E-04
3.449746E+03	9.895359E-03	5.766174E-04
3.459659E+03	1.018063E-02	5.922942E-04
3.469572E+03	1.047186E-02	6.082602E-04
3.479485E+03	1.076865E-02	6.244914E-04
3.489398E+03	1.107060E-02	6.409613E-04
3.499311E+03	1.137640E-02	6.575943E-04
3.509224E+03	1.168638E-02	6.744067E-04
3.519137E+03	1.200084E-02	6.914147E-04
3.529050E+03	1.231842E-02	7.085387E-04
3.538963E+03	1.263857E-02	7.257456E-04
3.548876E+03	1.296158E-02	7.430515E-04
3.558789E+03	1.328692E-02	7.604247E-04
3.568702E+03	1.361407E-02	7.778348E-04
3.578616E+03	1.394255E-02	7.952527E-04
3.588529E+03	1.427189E-02	8.126519E-04
3.598442E+03	1.460255E-02	8.300578E-04
3.608355E+03	1.493329E-02	8.473996E-04
3.618268E+03	1.526470E-02	8.647100E-04
3.628181E+03	1.559654E-02	8.819750E-04
3.638094E+03	1.592863E-02	8.991848E-04
3.648007E+03	1.626177E-02	9.163831E-04
3.657920E+03	1.659502E-02	9.335168E-04
3.667833E+03	1.692927E-02	9.506359E-04
3.677746E+03	1.726368E-02	9.676930E-04
3.687659E+03	1.760016E-02	9.847938E-04
3.697572E+03	1.793790E-02	1.001893E-03
3.707485E+03	1.827701E-02	1.018996E-03
3.717398E+03	1.861849E-02	1.036157E-03
3.727311E+03	1.896145E-02	1.053327E-03
3.737225E+03	1.930766E-02	1.070602E-03
3.747138E+03	1.965513E-02	1.087873E-03
3.757051E+03	2.000540E-02	1.105221E-03
3.766964E+03	2.035706E-02	1.122571E-03
3.776877E+03	2.070950E-02	1.139885E-03
3.786790E+03	2.106271E-02	1.157165E-03
3.796703E+03	2.141558E-02	1.174349E-03
3.806616E+03	2.176769E-02	1.191412E-03
3.816529E+03	2.211568E-02	1.208174E-03
3.826442E+03	2.245866E-02	1.224584E-03
3.836355E+03	2.279551E-02	1.240585E-03
3.846268E+03	2.312408E-02	1.256061E-03
3.856181E+03	2.344122E-02	1.270844E-03
3.866094E+03	2.374543E-02	1.284856E-03
3.876007E+03	2.403520E-02	1.298019E-03
3.885920E+03	2.430646E-02	1.310119E-03
3.895834E+03	2.455784E-02	1.321087E-03
3.905747E+03	2.478729E-02	1.330821E-03
3.915660E+03	2.499375E-02	1.339269E-03
3.925573E+03	2.517406E-02	1.346271E-03
3.935486E+03	2.532938E-02	1.351895E-03
3.945399E+03	2.545643E-02	1.355977E-03
3.955312E+03	2.555629E-02	1.358581E-03
3.965225E+03	2.562885E-02	1.359712E-03
3.975138E+03	2.567363E-02	1.359352E-03
3.985051E+03	2.569129E-02	1.357546E-03
3.994964E+03	2.568291E-02	1.354358E-03
4.004877E+03	2.565053E-02	1.349905E-03
4.014790E+03	2.559505E-02	1.344243E-03
4.024703E+03	2.551838E-02	1.337478E-03
4.034616E+03	2.542186E-02	1.329687E-03
4.044529E+03	2.530901E-02	1.321062E-03
4.054443E+03	2.518076E-02	1.311656E-03
4.064356E+03	2.503943E-02	1.301595E-03
4.074269E+03	2.488789E-02	1.291032E-03
4.084182E+03	2.472717E-02	1.280024E-03
4.094095E+03	2.456003E-02	1.268717E-03
4.104008E+03	2.438798E-02	1.257190E-03
4.113921E+03	2.421241E-02	1.245517E-03
4.123834E+03	2.403627E-02	1.233852E-03
4.133747E+03	2.385966E-02	1.222198E-03
4.143660E+03	2.368426E-02	1.210644E-03
4.153573E+03	2.351204E-02	1.199289E-03
4.163486E+03	2.334300E-02	1.188131E-03
4.173399E+03	2.317941E-02	1.177286E-03
4.183312E+03	2.302119E-02	1.166748E-03
4.193225E+03	2.287002E-02	1.156600E-03
4.203138E+03	2.272625E-02	1.146857E-03
4.213052E+03	2.259111E-02	1.137581E-03
4.222965E+03	2.246501E-02	1.128787E-03
4.232878E+03	2.234916E-02	1.120536E-03
4.242791E+03	2.224451E-02	1.112870E-03
4.252704E+03	2.215161E-02	1.105813E-03
4.262617E+03	2.207146E-02	1.099413E-03
4.272530E+03	2.200521E-02	1.093721E-03
4.282443E+03	2.195398E-02	1.088790E-03
4.292356E+03	2.191827E-02	1.084639E-03
4.302269E+03	2.190010E-02	1.081363E-03
4.312182E+03	2.189971E-02	1.078969E-03
4.322095E+03	2.191914E-02	1.077550E-03
4.332008E+03	2.195836E-02	1.077100E-03
4.341921E+03	2.201937E-02	1.077710E-03
4.351834E+03	2.210306E-02	1.079416E-03
4.361747E+03	2.221027E-02	1.082253E-03
4.371661E+03	2.234168E-02	1.086247E-03
4.381574E+03	2.249811E-02	1.091428E-03
4.391487E+03	2.268017E-02	1.097820E-03
4.401400E+03	2.288815E-02	1.105427E-03
4.411313E+03	2.312204E-02	1.114242E-03
4.421226E+03	2.338108E-02	1.124220E-03
4.431139E+03	2.366498E-02	1.135340E-03
4.441052E+03	2.397193E-02	1.147506E-03
4.450965E+03	2.429999E-02	1.160620E-03
4.460878E+03	2.464690E-02	1.174567E-03
4.470791E+03	2.500903E-02	1.189169E-03
4.480704E+03	2.538318E-02	1.204269E-03
4.490617E+03	2.576487E-02	1.219652E-03
4.500530E+03	2.614909E-02	1.235079E-03
4.510443E+03	2.653067E-02	1.250305E-03
4.520356E+03	2.690440E-02	1.265088E-03
4.530270E+03	2.726411E-02	1.279139E-03
4.540183E+03	2.760415E-02	1.292200E-03
4.550096E+03	2.791812E-02	1.303977E-03
4.560009E+03	2.820013E-02	1.314205E-03
4.569922E+03	2.844527E-02	1.322665E-03
4.579835E+03	2.864769E-02	1.329098E-03
4.589748E+03	2.880320E-02	1.333323E-03
4.599661E+03	2.890845E-02	1.335201E-03
4.609574E+03	2.896023E-02	1.334599E-03
4.619487E+03	2.895672E-02	1.331450E-03
4.629400E+03	2.889787E-02	1.325769E-03
4.639313E+03	2.878333E-02	1.317558E-03
4.649226E+03	2.861488E-02	1.306913E-03
4.659139E+03	2.839497E-02	1.293965E-03
4.669052E+03	2.812701E-02	1.278883E-03
4.678965E+03	2.781487E-02	1.261858E-03
4.688879E+03	2.746410E-02	1.243154E-03
4.698792E+03	2.707944E-02	1.222997E-03
4.708705E+03	2.666629E-02	1.201641E-03
4.718618E+03	2.623088E-02	1.179374E-03
4.728531E+03	2.577852E-02	1.156440E-03
4.738444E+03	2.531504E-02	1.133106E-03
4.748357E+03	2.484596E-02	1.109621E-03
4.758270E+03	2.437620E-02	1.086206E-03
4.768183E+03	2.391025E-02	1.063060E-03
4.778096E+03	2.345270E-02	1.040387E-03
4.788009E+03	2.300651E-02	1.018313E-03
4.797922E+03	2.257523E-02	9.969919E-04
4.807835E+03	2.216114E-02	9.765202E-04
4.817748E+03	2.176626E-02	9.569809E-04
4.827661E+03	2.139251E-02	9.384522E-04
4.837574E+03	2.104059E-02	9.209584E-04
4.847488E+03	2.071165E-02	9.045433E-04
4.857401E+03	2.040628E-02	8.892256E-04
4.867314E+03	2.012439E-02	8.749943E-04
4.877227E+03	1.986658E-02	8.618688E-04
4.887140E+03	1.963267E-02	8.498341E-04
4.897053E+03	1.942254E-02	8.388780E-04
4.906966E+03	1.923587E-02	8.289794E-04
4.916879E+03	1.907245E-02	8.201231E-04
4.926792E+03	1.893232E-02	8.123040E-04
4.936705E+03	1.881492E-02	8.054913E-04
4.946618E+03	1.872055E-02	7.996915E-04
4.956531E+03	1.864872E-02	7.948777E-04
4.966444E+03	1.859942E-02	7.910426E-04
4.976357E+03	1.857294E-02	7.881922E-04
4.986270E+03	1.856915E-02	7.863156E-04
4.996183E+03	1.858844E-02	7.854226E-04
5.006097E+03	1.863081E-02	7.855071E-04
5.016010E+03	1.869649E-02	7.865727E-04
5.025923E+03	1.878577E-02	7.886253E-04
5.035836E+03	1.889887E-02	7.916688E-04
5.045749E+03	1.903630E-02	7.957171E-04
5.055662E+03	1.919784E-02	8.007561E-04
5.065575E+03	1.938413E-02	8.068059E-04
5.075488E+03	1.959487E-02	8.138479E-04
5.085401E+03	1.983057E-02	8.218971E-04
5.095314E+03	2.009099E-02	8.309383E-04
5.105227E+03	2.037602E-02	8.409606E-04
5.115140E+03	2.068542E-02	8.519489E-04
5.125053E+03	2.101884E-02	8.638826E-04
5.134966E+03	2.137599E-02	8.767452E-04
5.144879E+03	2.175576E-02	8.904858E-04
5.154792E+03	2.215779E-02	9.050846E-04
5.164706E+03	2.258084E-02	9.204872E-04
5.174619E+03	2.302370E-02	9.366397E-04
5.184532E+03	2.348524E-02	9.534926E-04
5.194445E+03	2.396338E-02	9.709584E-04
5.204358E+03	2.445685E-02	9.889826E-04
5.214271E+03	2.496344E-02	1.007475E-03
5.224184E+03	2.548131E-02	1.026358E-03
5.234097E+03	2.600765E-02	1.045518E-03
5.244010E+03	2.654057E-02	1.064879E-03
5.253923E+03	2.707731E-02	1.084331E-03
5.263836E+03	2.761559E-02	1.103782E-03
5.273749E+03	2.815219E-02	1.123107E-03
5.283662E+03	2.868509E-02	1.142226E-03
5.293575E+03	2.921141E-02	1.161028E-03
5.303488E+03	2.972863E-02	1.179416E-03
5.313401E+03	3.023463E-02	1.197310E-03
5.323315E+03	3.072655E-02	1.214601E-03
5.333228E+03	3.120286E-02	1.231234E-03
5.343141E+03	3.166095E-02	1.247110E-03
5.353054E+03	3.209966E-02	1.262190E-03
5.362967E+03	3.251703E-02	1.276403E-03
5.372880E+03	3.291116E-02	1.289680E-03
5.382793E+03	3.328119E-02	1.301994E-03
5.392706E+03	3.362496E-02	1.313266E-03
5.402619E+03	3.394138E-02	1.323463E-03
5.412532E+03	3.422923E-02	1.332542E-03
5.422445E+03	3.448708E-02	1.340454E-03
5.432358E+03	3.471442E-02	1.347188E-03
5.442271E+03	3.491026E-02	1.352710E-03
5.452184E+03	3.507419E-02	1.357011E-03
5.462097E+03	3.520572E-02	1.360078E-03
5.472010E+03	3.530502E-02	1.361923E-03
5.481924E+03	3.537287E-02	1.362582E-03
5.491837E+03	3.541008E-02	1.362090E-03
5.501750E+03	3.541813E-02	1.360511E-03
5.511663E+03	3.539816E-02	1.357891E-03
5.521576E+03	3.535273E-02	1.354334E-03
5.531489E+03	3.528340E-02	1.349902E-03
5.541402E+03	3.519342E-02	1.344723E-03
5.551315E+03	3.508576E-02	1.338913E-03
5.561228E+03	3.496293E-02	1.332570E-03
5.571141E+03	3.482911E-02	1.325853E-03
5.581054E+03	3.468794E-02	1.318904E-03
5.590967E+03	3.454284E-02	1.311852E-03
5.600880E+03	3.439763E-02	1.304841E-03
5.610793E+03	3.425641E-02	1.298027E-03
5.620706E+03	3.412239E-02	1.291531E-03
5.630619E+03	3.399930E-02	1.285491E-03
5.640533E+03	3.388952E-02	1.279996E-03
5.650446E+03	3.379631E-02	1.275168E-03
5.660359E+03	3.372186E-02	1.271085E-03
5.670272E+03	3.366744E-02	1.267794E-03
5.680185E+03	3.363402E-02	1.265328E-03
5.690098E+03	3.362199E-02	1.263701E-03
5.700011E+03	3.363102E-02	1.262896E-03
5.709924E+03	3.366007E-02	1.262874E-03
5.719837E+03	3.370779E-02	1.263580E-03
5.729750E+03	3.377111E-02	1.264900E-03
5.739663E+03	3.384733E-02	1.266730E-03
5.749576E+03	3.393278E-02	1.268932E-03
5.759489E+03	3.402334E-02	1.271352E-03
5.769402E+03	3.411408E-02	1.273804E-03
5.779315E+03	3.420040E-02	1.276119E-03
5.789228E+03	3.427721E-02	1.278106E-03
5.799142E+03	3.433869E-02	1.279551E-03
5.809055E+03	3.438042E-02	1.280289E-03
5.818968E+03	3.439731E-02	1.280132E-03
5.828881E+03	3.438488E-02	1.278917E-03
5.838794E+03	3.433930E-02	1.276501E-03
5.848707E+03	3.425735E-02	1.272769E-03
5.858620E+03	3.413628E-02	1.267619E-03
5.868533E+03	3.397448E-02	1.260995E-03
5.878446E+03	3.377164E-02	1.252885E-03
5.888359E+03	3.352763E-02	1.243288E-03
5.898272E+03	3.324329E-02	1.232235E-03
5.908185E+03	3.292091E-02	1.219814E-03
5.918098E+03	3.256295E-02	1.206114E-03
5.928011E+03	3.217281E-02	1.191264E-03
5.937924E+03	3.175451E-02	1.175411E-03
5.947837E+03	3.131245E-02	1.158720E-03
5.957751E+03	3.085101E-02	1.141351E-03
5.967664E+03	3.037478E-02	1.123473E-03
5.977577E+03	2.988893E-02	1.105277E-03
5.987490E+03	2.939820E-02	1.086937E-03
5.997403E+03	2.890663E-02	1.068601E-03
6.007316E+03	2.841879E-02	1.050437E-03
6.017229E+03	2.793805E-02	1.032568E-03
6.027142E+03	2.746821E-02	1.015132E-03
6.037055E+03	2.701205E-02	9.982324E-04
6.046968E+03	2.657220E-02	9.819637E-04
6.056881E+03	2.615054E-02	9.663945E-04
6.066794E+03	2.574849E-02	9.515763E-04
6.076707E+03	2.536735E-02	9.375562E-04
6.086620E+03	2.500798E-02	9.243645E-04
6.096533E+03	2.467087E-02	9.120193E-04
6.106446E+03	2.435598E-02	9.005180E-04
6.116360E+03	2.406345E-02	8.898659E-04
6.126273E+03	2.379294E-02	8.800498E-04
6.136186E+03	2.354423E-02	8.710612E-04
6.146099E+03	2.331668E-02	8.628765E-04
6.156012E+03	2.310936E-02	8.554614E-04
6.165925E+03	2.292198E-02	8.488055E-04
6.175838E+03	2.275359E-02	8.428732E-04
6.185751E+03	2.260349E-02	8.376395E-04
6.195664E+03	2.247174E-02	8.331055E-04
6.205577E+03	2.235732E-02	8.292340E-04
6.215490E+03	2.226003E-02	8.260173E-04
6.225403E+03	2.217976E-02	8.234515E-04
6.235316E+03	2.211671E-02	8.215442E-04
6.245229E+03	2.207033E-02	8.202748E-04
6.255142E+03	2.204076E-02	8.196498E-04
6.265055E+03	2.202840E-02	8.196840E-04
6.274969E+03	2.203302E-02	8.203694E-04
6.284882E+03	2.205500E-02	8.217211E-04
6.294795E+03	2.209375E-02	8.237177E-04
6.304708E+03	2.214939E-02	8.263648E-04
6.314621E+03	2.222147E-02	8.296465E-04
6.324534E+03	2.230951E-02	8.335458E-04
6.334447E+03	2.241229E-02	8.380180E-04
6.344360E+03	2.252876E-02	8.430251E-04
6.354273E+03	2.265753E-02	8.485158E-04
6.364186E+03	2.279635E-02	8.544067E-04
6.374099E+03	2.294288E-02	8.606106E-04
6.384012E+03	2.309479E-02	8.670409E-04
6.393925E+03	2.324870E-02	8.735708E-04
6.403838E+03	2.340135E-02	8.800774E-04
6.413751E+03	2.354889E-02	8.864157E-04
6.423664E+03	2.368720E-02	8.924299E-04
6.433578E+03	2.381219E-02	8.979644E-04
6.443491E+03	2.391892E-02	9.028314E-04
6.453404E+03	2.400368E-02	9.068884E-04
6.463317E+03	2.406162E-02	9.099487E-04
6.473230E+03	2.408881E-02	9.118613E-04
6.483143E+03	2.408146E-02	9.124778E-04
6.493056E+03	2.403594E-02	9.116572E-04
6.502969E+03	2.394974E-02	9.092988E-04
6.512882E+03	2.382049E-02	9.053074E-04
6.522795E+03	2.364709E-02	8.996358E-04
6.532708E+03	2.342900E-02	8.922578E-04
6.542621E+03	2.316652E-02	8.831788E-04
6.552534E+03	2.286053E-02	8.724264E-04
6.562447E+03	2.251348E-02	8.600881E-04
6.572360E+03	2.212779E-02	8.462516E-04
6.582273E+03	2.170684E-02	8.310403E-04
6.592187E+03	2.125455E-02	8.145994E-04
6.602100E+03	2.077552E-02	7.971012E-04
6.612013E+03	2.027419E-02	7.787120E-04
6.621926E+03	1.975566E-02	7.596243E-04
6.631839E+03	1.922482E-02	7.400237E-04
6.641752E+03	1.868630E-02	7.200869E-04
6.651665E+03	1.814502E-02	7.000015E-04
6.661578E+03	1.760535E-02	6.799353E-04
6.671491E+03	1.707116E-02	6.600384E-04
6.681404E+03	1.654654E-02	6.404686E-04
6.691317E+03	1.603432E-02	6.213370E-04
6.701230E+03	1.553750E-02	6.027605E-04
6.711143E+03	1.505857E-02	5.848377E-04
6.721056E+03	1.459907E-02	5.676304E-04
6.730969E+03	1.416066E-02	5.512056E-04
6.740882E+03	1.374438E-02	5.356067E-04
6.750796E+03	1.335097E-02	5.208643E-04
6.760709E+03	1.298080E-02	5.069964E-04
6.770622E+03	1.263399E-02	4.940102E-04
6.780535E+03	1.231041E-02	4.819037E-04
6.790448E+03	1.200987E-02	4.706726E-04
6.800361E+03	1.173162E-02	4.602897E-04
6.810274E+03	1.147517E-02	4.507394E-04
6.820187E+03	1.123997E-02	4.420023E-04
6.830100E+03	1.102498E-02	4.340403E-04
6.840013E+03	1.082966E-02	4.268347E-04
6.849926E+03	1.065292E-02	4.203453E-04
6.859839E+03	1.049419E-02	4.145522E-04
6.869752E+03	1.035255E-02	4.094205E-04
6.879665E+03	1.022720E-02	4.049218E-04
6.889578E+03	1.011729E-02	4.010237E-04
6.899491E+03	1.002235E-02	3.977101E-04
6.909405E+03	9.941721E-03	3.949568E-04
6.919318E+03	9.874571E-03	3.927324E-04
6.929231E+03	9.820464E-03	3.910213E-04
6.939144E+03	9.778901E-03	3.898055E-04
6.949057E+03	9.749554E-03	3.890735E-04
6.958970E+03	9.731785E-03	3.888014E-04
6.968883E+03	9.725479E-03	3.889863E-04
6.978796E+03	9.730201E-03	3.896122E-04
6.988709E+03	9.745553E-03	3.906647E-04
6.998622E+03	9.771522E-03	3.921446E-04
7.008535E+03	9.807760E-03	3.940394E-04
7.018448E+03	9.854051E-03	3.963419E-04
7.028361E+03	9.910188E-03	3.990451E-04
7.038274E+03	9.975960E-03	4.021417E-04
7.048187E+03	1.005115E-02	4.056242E-04
7.058100E+03	1.013564E-02	4.094894E-04
7.068014E+03	1.022891E-02	4.137176E-04
7.077927E+03	1.033079E-02	4.183027E-04
7.087840E+03	1.044106E-02	4.232376E-04
7.097753E+03	1.055921E-02	4.285022E-04
7.107666E+03	1.068480E-02	4.340798E-04
7.117579E+03	1.081732E-02	4.399509E-04
7.127492E+03	1.095621E-02	4.460938E-04
7.137405E+03	1.110100E-02	4.524899E-04
7.147318E+03	1.125072E-02	4.591011E-04
7.157231E+03	1.140495E-02	4.659100E-04
7.167144E+03	1.156274E-02	4.728795E-04
7.177057E+03	1.172344E-02	4.799829E-04
7.186970E+03	1.188605E-02	4.871800E-04
7.196883E+03	1.204971E-02	4.944355E-04
7.206796E+03	1.221369E-02	5.017203E-04
7.216709E+03	1.237699E-02	5.089927E-04
7.226623E+03	1.253875E-02	5.162180E-04
7.236536E+03	1.269834E-02	5.233699E-04
7.246449E+03	1.285502E-02	5.304174E-04
7.256362E+03	1.300793E-02	5.373252E-04
7.266275E+03	1.315663E-02	5.440747E-04
7.276188E+03	1.330043E-02	5.506367E-04
7.286101E+03	1.343907E-02	5.569999E-04
7.296014E+03	1.357221E-02	5.631497E-04
7.305927E+03	1.369942E-02	5.690679E-04
7.315840E+03	1.382074E-02	5.747548E-04
7.325753E+03	1.393608E-02	5.802072E-04
7.335666E+03	1.404529E-02	5.854172E-04
7.345579E+03	1.414864E-02	5.903957E-04
7.355492E+03	1.424646E-02	5.951563E-04
7.365405E+03	1.433880E-02	5.996998E-04
7.375318E+03	1.442591E-02	6.040365E-04
7.385232E+03	1.450829E-02	6.081867E-04
7.395145E+03	1.458610E-02	6.121568E-04
7.405058E+03	1.465953E-02	6.159540E-04
7.414971E+03	1.472937E-02	6.196117E-04
7.424884E+03	1.479547E-02	6.231229E-04
7.434797E+03	1.485870E-02	6.265241E-04
7.444710E+03	1.491934E-02	6.298266E-04
7.454623E+03	1.497809E-02	6.330605E-04
7.464536E+03	1.503508E-02	6.362310E-04
7.474449E+03	1.509125E-02	6.393775E-04
7.484362E+03	1.514697E-02	6.425159E-04
7.494275E+03	1.520252E-02	6.456590E-04
7.504188E+03	1.525885E-02	6.488465E-04
7.514101E+03	1.531604E-02	6.520831E-04
7.524014E+03	1.537473E-02	6.553958E-04
7.533927E+03	1.543526E-02	6.587998E-04
7.543841E+03	1.549792E-02	6.623085E-04
7.553754E+03	1.556266E-02	6.659200E-04
7.563667E+03	1.562949E-02	6.696355E-04
7.573580E+03	1.569870E-02	6.734679E-04
7.583493E+03	1.576937E-02	6.773787E-04
7.593406E+03	1.584140E-02	6.813643E-04
7.603319E+03	1.591412E-02	6.853957E-04
7.613232E+03	1.598638E-02	6.894248E-04
7.623145E+03	1.605707E-02	6.934034E-04
7.633058E+03	1.612508E-02	6.972835E-04
7.642971E+03	1.618868E-02	7.009904E-04
7.652884E+03	1.624615E-02	7.044490E-04
7.662797E+03	1.629588E-02	7.075882E-04
7.672710E+03	1.633567E-02	7.103122E-04
7.682623E+03	1.636371E-02	7.125397E-04
7.692536E+03	1.637766E-02	7.141678E-04
