#wls	flux	fluxerr
1.586090E+03	2.890599E-03	1.610822E-04
1.625742E+03	2.532237E-03	1.410321E-04
1.665394E+03	2.220742E-03	1.236116E-04
1.705047E+03	1.950656E-03	1.085133E-04
1.744699E+03	1.718057E-03	9.551558E-05
1.784351E+03	1.518181E-03	8.435058E-05
1.824003E+03	1.347095E-03	7.479694E-05
1.863656E+03	1.201268E-03	6.665610E-05
1.903308E+03	1.077974E-03	5.977440E-05
1.942960E+03	9.739634E-04	5.396962E-05
1.982612E+03	8.871894E-04	4.912648E-05
2.022265E+03	8.152108E-04	4.510807E-05
2.061917E+03	7.567180E-04	4.184040E-05
2.101569E+03	7.099070E-04	3.922229E-05
2.141221E+03	6.736906E-04	3.719236E-05
2.180874E+03	6.471930E-04	3.570104E-05
2.220526E+03	6.295134E-04	3.469747E-05
2.260178E+03	6.203006E-04	3.416114E-05
2.299830E+03	6.189274E-04	3.405641E-05
2.339483E+03	6.253754E-04	3.438116E-05
2.379135E+03	6.396589E-04	3.513500E-05
2.418787E+03	6.615935E-04	3.630662E-05
2.458439E+03	6.916684E-04	3.792160E-05
2.498092E+03	7.300316E-04	3.998670E-05
2.537744E+03	7.771538E-04	4.252623E-05
2.577396E+03	8.336042E-04	4.556975E-05
2.617048E+03	8.999080E-04	4.914419E-05
2.656701E+03	9.768057E-04	5.328809E-05
2.696353E+03	1.065303E-03	5.805416E-05
2.736005E+03	1.166222E-03	6.348487E-05
2.775657E+03	1.280667E-03	6.963765E-05
2.815310E+03	1.410106E-03	7.658943E-05
2.854962E+03	1.556268E-03	8.443078E-05
2.894614E+03	1.720742E-03	9.324406E-05
2.934266E+03	1.906332E-03	1.031770E-04
2.973919E+03	2.115365E-03	1.143507E-04
2.983832E+03	2.171651E-03	1.173571E-04
2.993745E+03	2.229804E-03	1.204623E-04
3.003658E+03	2.289883E-03	1.236693E-04
3.013571E+03	2.351665E-03	1.269661E-04
3.023484E+03	2.415480E-03	1.303704E-04
3.033397E+03	2.481399E-03	1.338858E-04
3.043310E+03	2.549184E-03	1.374994E-04
3.053223E+03	2.619498E-03	1.412470E-04
3.063136E+03	2.691808E-03	1.450994E-04
3.073049E+03	2.766486E-03	1.490768E-04
3.082962E+03	2.843608E-03	1.531830E-04
3.092875E+03	2.923250E-03	1.574220E-04
3.102789E+03	3.005829E-03	1.618161E-04
3.112702E+03	3.090766E-03	1.663339E-04
3.122615E+03	3.178817E-03	1.710161E-04
3.132528E+03	3.269740E-03	1.758493E-04
3.142441E+03	3.363626E-03	1.808384E-04
3.152354E+03	3.460932E-03	1.860076E-04
3.162267E+03	3.561774E-03	1.913631E-04
3.172180E+03	3.665515E-03	1.968704E-04
3.182093E+03	3.773389E-03	2.025955E-04
3.192006E+03	3.884758E-03	2.085040E-04
3.201919E+03	4.000127E-03	2.146228E-04
3.211832E+03	4.119623E-03	2.209584E-04
3.221745E+03	4.242964E-03	2.274954E-04
3.231658E+03	4.371101E-03	2.342846E-04
3.241571E+03	4.503761E-03	2.413111E-04
3.251484E+03	4.640640E-03	2.485583E-04
3.261398E+03	4.783180E-03	2.561031E-04
3.271311E+03	4.930201E-03	2.638820E-04
3.281224E+03	5.082729E-03	2.719497E-04
3.291137E+03	5.240444E-03	2.802887E-04
3.301050E+03	5.403939E-03	2.889303E-04
3.310963E+03	5.573350E-03	2.978815E-04
3.320876E+03	5.748309E-03	3.071222E-04
3.330789E+03	5.929403E-03	3.166835E-04
3.340702E+03	6.117243E-03	3.265975E-04
3.350615E+03	6.310892E-03	3.368138E-04
3.360528E+03	6.510905E-03	3.473617E-04
3.370441E+03	6.717846E-03	3.582707E-04
3.380354E+03	6.931737E-03	3.695418E-04
3.390267E+03	7.151443E-03	3.811138E-04
3.400180E+03	7.378546E-03	3.930707E-04
3.410093E+03	7.611811E-03	4.053462E-04
3.420007E+03	7.851623E-03	4.179605E-04
3.429920E+03	8.097752E-03	4.309008E-04
3.439833E+03	8.349899E-03	4.441508E-04
3.449746E+03	8.608308E-03	4.577231E-04
3.459659E+03	8.871936E-03	4.715618E-04
3.469572E+03	9.140261E-03	4.856389E-04
3.479485E+03	9.413327E-03	4.999562E-04
3.489398E+03	9.689841E-03	5.144448E-04
3.499311E+03	9.970382E-03	5.291353E-04
3.509224E+03	1.025354E-02	5.439524E-04
3.519137E+03	1.053851E-02	5.588531E-04
3.529050E+03	1.082444E-02	5.737925E-04
3.538963E+03	1.111117E-02	5.887620E-04
3.548876E+03	1.139720E-02	6.036815E-04
3.558789E+03	1.168243E-02	6.185459E-04
3.568702E+03	1.196613E-02	6.333172E-04
3.578616E+03	1.224769E-02	6.479621E-04
3.588529E+03	1.252658E-02	6.624534E-04
3.598442E+03	1.280313E-02	6.768087E-04
3.608355E+03	1.307641E-02	6.909787E-04
3.618268E+03	1.334709E-02	7.049984E-04
3.628181E+03	1.361455E-02	7.188364E-04
3.638094E+03	1.388054E-02	7.325848E-04
3.648007E+03	1.414483E-02	7.462308E-04
3.657920E+03	1.440805E-02	7.598082E-04
3.667833E+03	1.467098E-02	7.733583E-04
3.677746E+03	1.493524E-02	7.869665E-04
3.687659E+03	1.520182E-02	8.006847E-04
3.697572E+03	1.547175E-02	8.145663E-04
3.707485E+03	1.574606E-02	8.286660E-04
3.717398E+03	1.602572E-02	8.430346E-04
3.727311E+03	1.631166E-02	8.577202E-04
3.737225E+03	1.660531E-02	8.727978E-04
3.747138E+03	1.690653E-02	8.882591E-04
3.757051E+03	1.721634E-02	9.041576E-04
3.766964E+03	1.753476E-02	9.204936E-04
3.776877E+03	1.786147E-02	9.372493E-04
3.786790E+03	1.819580E-02	9.543898E-04
3.796703E+03	1.853670E-02	9.718583E-04
3.806616E+03	1.888336E-02	9.896130E-04
3.816529E+03	1.923320E-02	1.007518E-03
3.826442E+03	1.958464E-02	1.025490E-03
3.836355E+03	1.993427E-02	1.043351E-03
3.846268E+03	2.027980E-02	1.060980E-03
3.856181E+03	2.061719E-02	1.078168E-03
3.866094E+03	2.094367E-02	1.094769E-03
3.876007E+03	2.125629E-02	1.110630E-03
3.885920E+03	2.154999E-02	1.125488E-03
3.895834E+03	2.182192E-02	1.139195E-03
3.905747E+03	2.206869E-02	1.151576E-03
3.915660E+03	2.228659E-02	1.162440E-03
3.925573E+03	2.247440E-02	1.171723E-03
3.935486E+03	2.262866E-02	1.179249E-03
3.945399E+03	2.274856E-02	1.184977E-03
3.955312E+03	2.283331E-02	1.188868E-03
3.965225E+03	2.288210E-02	1.190883E-03
3.975138E+03	2.289619E-02	1.191090E-03
3.985051E+03	2.287618E-02	1.189523E-03
3.994964E+03	2.282457E-02	1.186313E-03
4.004877E+03	2.274257E-02	1.181526E-03
4.014790E+03	2.263367E-02	1.175345E-03
4.024703E+03	2.250111E-02	1.167941E-03
4.034616E+03	2.234780E-02	1.159464E-03
4.044529E+03	2.217736E-02	1.150107E-03
4.054443E+03	2.199344E-02	1.140058E-03
4.064356E+03	2.179905E-02	1.129474E-03
4.074269E+03	2.159763E-02	1.118535E-03
4.084182E+03	2.139231E-02	1.107403E-03
4.094095E+03	2.118550E-02	1.096203E-03
4.104008E+03	2.097973E-02	1.085066E-03
4.113921E+03	2.077675E-02	1.074082E-03
4.123834E+03	2.057838E-02	1.063345E-03
4.133747E+03	2.038612E-02	1.052933E-03
4.143660E+03	2.020022E-02	1.042858E-03
4.153573E+03	2.002157E-02	1.033165E-03
4.163486E+03	1.985073E-02	1.023884E-03
4.173399E+03	1.968763E-02	1.015009E-03
4.183312E+03	1.953242E-02	1.006549E-03
4.193225E+03	1.938402E-02	9.984454E-04
4.203138E+03	1.924315E-02	9.907370E-04
4.213052E+03	1.910900E-02	9.833807E-04
4.222965E+03	1.898120E-02	9.763574E-04
4.232878E+03	1.885948E-02	9.696524E-04
4.242791E+03	1.874401E-02	9.632743E-04
4.252704E+03	1.863512E-02	9.572399E-04
4.262617E+03	1.853242E-02	9.515280E-04
4.272530E+03	1.843670E-02	9.461796E-04
4.282443E+03	1.834898E-02	9.412458E-04
4.292356E+03	1.827023E-02	9.367760E-04
4.302269E+03	1.820170E-02	9.328340E-04
4.312182E+03	1.814488E-02	9.294951E-04
4.322095E+03	1.810148E-02	9.268459E-04
4.332008E+03	1.807369E-02	9.249983E-04
4.341921E+03	1.806415E-02	9.240852E-04
4.351834E+03	1.807473E-02	9.242020E-04
4.361747E+03	1.810823E-02	9.254897E-04
4.371661E+03	1.816714E-02	9.280747E-04
4.381574E+03	1.825419E-02	9.320937E-04
4.391487E+03	1.837220E-02	9.376894E-04
4.401400E+03	1.852333E-02	9.449692E-04
4.411313E+03	1.871048E-02	9.540792E-04
4.421226E+03	1.893442E-02	9.650561E-04
4.431139E+03	1.919578E-02	9.779290E-04
4.441052E+03	1.949490E-02	9.927133E-04
4.450965E+03	1.983108E-02	1.009371E-03
4.460878E+03	2.020344E-02	1.027854E-03
4.470791E+03	2.061002E-02	1.048060E-03
4.480704E+03	2.104853E-02	1.069871E-03
4.490617E+03	2.151509E-02	1.093087E-03
4.500530E+03	2.200565E-02	1.117502E-03
4.510443E+03	2.251451E-02	1.142823E-03
4.520356E+03	2.303518E-02	1.168721E-03
4.530270E+03	2.355984E-02	1.194798E-03
4.540183E+03	2.408068E-02	1.220658E-03
4.550096E+03	2.458819E-02	1.245819E-03
4.560009E+03	2.507236E-02	1.269776E-03
4.569922E+03	2.552382E-02	1.292056E-03
4.579835E+03	2.593268E-02	1.312161E-03
4.589748E+03	2.628942E-02	1.329612E-03
4.599661E+03	2.658537E-02	1.343975E-03
4.609574E+03	2.681298E-02	1.354872E-03
4.619487E+03	2.696684E-02	1.362035E-03
4.629400E+03	2.704230E-02	1.365233E-03
4.639313E+03	2.703764E-02	1.364387E-03
4.649226E+03	2.695217E-02	1.359466E-03
4.659139E+03	2.678791E-02	1.350578E-03
4.669052E+03	2.654910E-02	1.337941E-03
4.678965E+03	2.624072E-02	1.321812E-03
4.688879E+03	2.587016E-02	1.302567E-03
4.698792E+03	2.544561E-02	1.280623E-03
4.708705E+03	2.497569E-02	1.256417E-03
4.718618E+03	2.447009E-02	1.230438E-03
4.728531E+03	2.393792E-02	1.203148E-03
4.738444E+03	2.338866E-02	1.175024E-03
4.748357E+03	2.283049E-02	1.146478E-03
4.758270E+03	2.227167E-02	1.117926E-03
4.768183E+03	2.171868E-02	1.089692E-03
4.778096E+03	2.117787E-02	1.062094E-03
4.788009E+03	2.065415E-02	1.035378E-03
4.797922E+03	2.015178E-02	1.009755E-03
4.807835E+03	1.967415E-02	9.853953E-04
4.817748E+03	1.922380E-02	9.624230E-04
4.827661E+03	1.880233E-02	9.409164E-04
4.837574E+03	1.841109E-02	9.209415E-04
4.847488E+03	1.805046E-02	9.025153E-04
4.857401E+03	1.772078E-02	8.856524E-04
4.867314E+03	1.742158E-02	8.703271E-04
4.877227E+03	1.715247E-02	8.565189E-04
4.887140E+03	1.691270E-02	8.441879E-04
4.897053E+03	1.670132E-02	8.332845E-04
4.906966E+03	1.651749E-02	8.237651E-04
4.916879E+03	1.635978E-02	8.155571E-04
4.926792E+03	1.622749E-02	8.086239E-04
4.936705E+03	1.611966E-02	8.029155E-04
4.946618E+03	1.603529E-02	7.983810E-04
4.956531E+03	1.597339E-02	7.949700E-04
4.966444E+03	1.593357E-02	7.926610E-04
4.976357E+03	1.591503E-02	7.914133E-04
4.986270E+03	1.591726E-02	7.912002E-04
4.996183E+03	1.594001E-02	7.920081E-04
5.006097E+03	1.598280E-02	7.938119E-04
5.016010E+03	1.604558E-02	7.966076E-04
5.025923E+03	1.612819E-02	8.003867E-04
5.035836E+03	1.623050E-02	8.051414E-04
5.045749E+03	1.635242E-02	8.108663E-04
5.055662E+03	1.649386E-02	8.175551E-04
5.065575E+03	1.665467E-02	8.252002E-04
5.075488E+03	1.683472E-02	8.337938E-04
5.085401E+03	1.703396E-02	8.433321E-04
5.095314E+03	1.725195E-02	8.537926E-04
5.105227E+03	1.748849E-02	8.651645E-04
5.115140E+03	1.774316E-02	8.774256E-04
5.125053E+03	1.801521E-02	8.905386E-04
5.134966E+03	1.830423E-02	9.044818E-04
5.144879E+03	1.860946E-02	9.192173E-04
5.154792E+03	1.892991E-02	9.346955E-04
5.164706E+03	1.926503E-02	9.508883E-04
5.174619E+03	1.961360E-02	9.677348E-04
5.184532E+03	1.997447E-02	9.851776E-04
5.194445E+03	2.034637E-02	1.003154E-03
5.204358E+03	2.072785E-02	1.021592E-03
5.214271E+03	2.111740E-02	1.040417E-03
5.224184E+03	2.151350E-02	1.059554E-03
5.234097E+03	2.191430E-02	1.078911E-03
5.244010E+03	2.231732E-02	1.098367E-03
5.253923E+03	2.272109E-02	1.117850E-03
5.263836E+03	2.312286E-02	1.137223E-03
5.273749E+03	2.352021E-02	1.156369E-03
5.283662E+03	2.391095E-02	1.175181E-03
5.293575E+03	2.429260E-02	1.193537E-03
5.303488E+03	2.466276E-02	1.211320E-03
5.313401E+03	2.501888E-02	1.228405E-03
5.323315E+03	2.535907E-02	1.244702E-03
5.333228E+03	2.568144E-02	1.260117E-03
5.343141E+03	2.598441E-02	1.274575E-03
5.353054E+03	2.626635E-02	1.287997E-03
5.362967E+03	2.652678E-02	1.300361E-03
5.372880E+03	2.676441E-02	1.311604E-03
5.382793E+03	2.697891E-02	1.321712E-03
5.392706E+03	2.716986E-02	1.330664E-03
5.402619E+03	2.733668E-02	1.338436E-03
5.412532E+03	2.747981E-02	1.345048E-03
5.422445E+03	2.759862E-02	1.350471E-03
5.432358E+03	2.769314E-02	1.354708E-03
5.442271E+03	2.776358E-02	1.357769E-03
5.452184E+03	2.780987E-02	1.359654E-03
5.462097E+03	2.783151E-02	1.360338E-03
5.472010E+03	2.782822E-02	1.359808E-03
5.481924E+03	2.779957E-02	1.358045E-03
5.491837E+03	2.774544E-02	1.355044E-03
5.501750E+03	2.766520E-02	1.350774E-03
5.511663E+03	2.755896E-02	1.345242E-03
5.521576E+03	2.742682E-02	1.338455E-03
5.531489E+03	2.726916E-02	1.330430E-03
5.541402E+03	2.708740E-02	1.321239E-03
5.551315E+03	2.688317E-02	1.310961E-03
5.561228E+03	2.665965E-02	1.299753E-03
5.571141E+03	2.641945E-02	1.287742E-03
5.581054E+03	2.616732E-02	1.275160E-03
5.590967E+03	2.590810E-02	1.262243E-03
5.600880E+03	2.564697E-02	1.249243E-03
5.610793E+03	2.538999E-02	1.236455E-03
5.620706E+03	2.514268E-02	1.224148E-03
5.630619E+03	2.491156E-02	1.212640E-03
5.640533E+03	2.470221E-02	1.202200E-03
5.650446E+03	2.452005E-02	1.193092E-03
5.660359E+03	2.436995E-02	1.185551E-03
5.670272E+03	2.425585E-02	1.179769E-03
5.680185E+03	2.418155E-02	1.175929E-03
5.690098E+03	2.414892E-02	1.174121E-03
5.700011E+03	2.415936E-02	1.174411E-03
5.709924E+03	2.421337E-02	1.176823E-03
5.719837E+03	2.430991E-02	1.181305E-03
5.729750E+03	2.444721E-02	1.187771E-03
5.739663E+03	2.462169E-02	1.196045E-03
5.749576E+03	2.482935E-02	1.205932E-03
5.759489E+03	2.506486E-02	1.217172E-03
5.769402E+03	2.532194E-02	1.229461E-03
5.779315E+03	2.559312E-02	1.242435E-03
5.789228E+03	2.587078E-02	1.255724E-03
5.799142E+03	2.614624E-02	1.268907E-03
5.809055E+03	2.641080E-02	1.281562E-03
5.818968E+03	2.665600E-02	1.293280E-03
5.828881E+03	2.687288E-02	1.303624E-03
5.838794E+03	2.705379E-02	1.312227E-03
5.848707E+03	2.719172E-02	1.318747E-03
5.858620E+03	2.728045E-02	1.322886E-03
5.868533E+03	2.731592E-02	1.324446E-03
5.878446E+03	2.729422E-02	1.323239E-03
5.888359E+03	2.721436E-02	1.319218E-03
5.898272E+03	2.707612E-02	1.312373E-03
5.908185E+03	2.688114E-02	1.302785E-03
5.918098E+03	2.663276E-02	1.290616E-03
5.928011E+03	2.633476E-02	1.276051E-03
5.937924E+03	2.599305E-02	1.259375E-03
5.947837E+03	2.561328E-02	1.240864E-03
5.957751E+03	2.520243E-02	1.220855E-03
5.967664E+03	2.476769E-02	1.199697E-03
5.977577E+03	2.431563E-02	1.177709E-03
5.987490E+03	2.385324E-02	1.155228E-03
5.997403E+03	2.338700E-02	1.132568E-03
6.007316E+03	2.292277E-02	1.110014E-03
6.017229E+03	2.246576E-02	1.087817E-03
6.027142E+03	2.202031E-02	1.066186E-03
6.037055E+03	2.159055E-02	1.045322E-03
6.046968E+03	2.117907E-02	1.025350E-03
6.056881E+03	2.078830E-02	1.006386E-03
6.066794E+03	2.041975E-02	9.885031E-04
6.076707E+03	2.007411E-02	9.717351E-04
6.086620E+03	1.975206E-02	9.561144E-04
6.096533E+03	1.945281E-02	9.416020E-04
6.106446E+03	1.917632E-02	9.281963E-04
6.116360E+03	1.892145E-02	9.158415E-04
6.126273E+03	1.868698E-02	9.044786E-04
6.136186E+03	1.847153E-02	8.940404E-04
6.146099E+03	1.827366E-02	8.844570E-04
6.156012E+03	1.809186E-02	8.756557E-04
6.165925E+03	1.792471E-02	8.675672E-04
6.175838E+03	1.777090E-02	8.601283E-04
6.185751E+03	1.762948E-02	8.532923E-04
6.195664E+03	1.749913E-02	8.469960E-04
6.205577E+03	1.737955E-02	8.412245E-04
6.215490E+03	1.727035E-02	8.359588E-04
6.225403E+03	1.717128E-02	8.311865E-04
6.235316E+03	1.708252E-02	8.269162E-04
6.245229E+03	1.700473E-02	8.231802E-04
6.255142E+03	1.693845E-02	8.200046E-04
6.265055E+03	1.688501E-02	8.174532E-04
6.274969E+03	1.684514E-02	8.155620E-04
6.284882E+03	1.682018E-02	8.143957E-04
6.294795E+03	1.681134E-02	8.140127E-04
6.304708E+03	1.681975E-02	8.144683E-04
6.314621E+03	1.684636E-02	8.158080E-04
6.324534E+03	1.689194E-02	8.180696E-04
6.334447E+03	1.695709E-02	8.212821E-04
6.344360E+03	1.704174E-02	8.254425E-04
6.354273E+03	1.714576E-02	8.305445E-04
6.364186E+03	1.726827E-02	8.365460E-04
6.374099E+03	1.740838E-02	8.434035E-04
6.384012E+03	1.756382E-02	8.510083E-04
6.393925E+03	1.773220E-02	8.592437E-04
6.403838E+03	1.791037E-02	8.679581E-04
6.413751E+03	1.809428E-02	8.769551E-04
6.423664E+03	1.827899E-02	8.859952E-04
6.433578E+03	1.845973E-02	8.948471E-04
6.443491E+03	1.863024E-02	9.032074E-04
6.453404E+03	1.878468E-02	9.107932E-04
6.463317E+03	1.891648E-02	9.172857E-04
6.473230E+03	1.901908E-02	9.223655E-04
6.483143E+03	1.908639E-02	9.257377E-04
6.493056E+03	1.911328E-02	9.271524E-04
6.502969E+03	1.909429E-02	9.263442E-04
6.512882E+03	1.902622E-02	9.231567E-04
6.522795E+03	1.890599E-02	9.174397E-04
6.532708E+03	1.873240E-02	9.091339E-04
6.542621E+03	1.850568E-02	8.982488E-04
6.552534E+03	1.822676E-02	8.848296E-04
6.562447E+03	1.789875E-02	8.690250E-04
6.572360E+03	1.752557E-02	8.510248E-04
6.582273E+03	1.711194E-02	8.310569E-04
6.592187E+03	1.666366E-02	8.094025E-04
6.602100E+03	1.618747E-02	7.863873E-04
6.612013E+03	1.568983E-02	7.623253E-04
6.621926E+03	1.517753E-02	7.375450E-04
6.631839E+03	1.465721E-02	7.123687E-04
6.641752E+03	1.413516E-02	6.871025E-04
6.651665E+03	1.361735E-02	6.620357E-04
6.661578E+03	1.310880E-02	6.374130E-04
6.671491E+03	1.261418E-02	6.134608E-04
6.681404E+03	1.213711E-02	5.903558E-04
6.691317E+03	1.168078E-02	5.682532E-04
6.701230E+03	1.124753E-02	5.472673E-04
6.711143E+03	1.083903E-02	5.274799E-04
6.721056E+03	1.045636E-02	5.089441E-04
6.730969E+03	1.009996E-02	4.916818E-04
6.740882E+03	9.770170E-03	4.757098E-04
6.750796E+03	9.466582E-03	4.610091E-04
6.760709E+03	9.188610E-03	4.475517E-04
6.770622E+03	8.935418E-03	4.352974E-04
6.780535E+03	8.705988E-03	4.241972E-04
6.790448E+03	8.499267E-03	4.142003E-04
6.800361E+03	8.313906E-03	4.052417E-04
6.810274E+03	8.148615E-03	3.972587E-04
6.820187E+03	8.002175E-03	3.901926E-04
6.830100E+03	7.873178E-03	3.839751E-04
6.840013E+03	7.760439E-03	3.785489E-04
6.849926E+03	7.662717E-03	3.738539E-04
6.859839E+03	7.578746E-03	3.698286E-04
6.869752E+03	7.507419E-03	3.664195E-04
6.879665E+03	7.447891E-03	3.635855E-04
6.889578E+03	7.399038E-03	3.612721E-04
6.899491E+03	7.360103E-03	3.594427E-04
6.909405E+03	7.330249E-03	3.580566E-04
6.919318E+03	7.308909E-03	3.570865E-04
6.929231E+03	7.295620E-03	3.565098E-04
6.939144E+03	7.289750E-03	3.562960E-04
6.949057E+03	7.291032E-03	3.564322E-04
6.958970E+03	7.299108E-03	3.569012E-04
6.968883E+03	7.313980E-03	3.577032E-04
6.978796E+03	7.335457E-03	3.588291E-04
6.988709E+03	7.363508E-03	3.602775E-04
6.998622E+03	7.398156E-03	3.620500E-04
7.008535E+03	7.439475E-03	3.641501E-04
7.018448E+03	7.487559E-03	3.665829E-04
7.028361E+03	7.542528E-03	3.693542E-04
7.038274E+03	7.604491E-03	3.724699E-04
7.048187E+03	7.673645E-03	3.759397E-04
7.058100E+03	7.749959E-03	3.797623E-04
7.068014E+03	7.833454E-03	3.839391E-04
7.077927E+03	7.924086E-03	3.884681E-04
7.087840E+03	8.021842E-03	3.933489E-04
7.097753E+03	8.126426E-03	3.985673E-04
7.107666E+03	8.237656E-03	4.041146E-04
7.117579E+03	8.355048E-03	4.099673E-04
7.127492E+03	8.478229E-03	4.161074E-04
7.137405E+03	8.606630E-03	4.225070E-04
7.147318E+03	8.739475E-03	4.291283E-04
7.157231E+03	8.876010E-03	4.359346E-04
7.167144E+03	9.015638E-03	4.428964E-04
7.177057E+03	9.157244E-03	4.499594E-04
7.186970E+03	9.300015E-03	4.570835E-04
7.196883E+03	9.442996E-03	4.642219E-04
7.206796E+03	9.585223E-03	4.713273E-04
7.216709E+03	9.725757E-03	4.783534E-04
7.226623E+03	9.863558E-03	4.852492E-04
7.236536E+03	9.998045E-03	4.919858E-04
7.246449E+03	1.012833E-02	4.985195E-04
7.256362E+03	1.025375E-02	5.048177E-04
7.266275E+03	1.037363E-02	5.108468E-04
7.276188E+03	1.048783E-02	5.165999E-04
7.286101E+03	1.059593E-02	5.220562E-04
7.296014E+03	1.069780E-02	5.272087E-04
7.305927E+03	1.079357E-02	5.320636E-04
7.315840E+03	1.088305E-02	5.366122E-04
7.325753E+03	1.096677E-02	5.408793E-04
7.335666E+03	1.104488E-02	5.448730E-04
7.345579E+03	1.111807E-02	5.486263E-04
7.355492E+03	1.118646E-02	5.521457E-04
7.365405E+03	1.125066E-02	5.554610E-04
7.375318E+03	1.131128E-02	5.586022E-04
7.385232E+03	1.136848E-02	5.615769E-04
7.395145E+03	1.142269E-02	5.644061E-04
7.405058E+03	1.147431E-02	5.671097E-04
7.414971E+03	1.152386E-02	5.697136E-04
7.424884E+03	1.157138E-02	5.722193E-04
7.434797E+03	1.161734E-02	5.746499E-04
7.444710E+03	1.166187E-02	5.770124E-04
7.454623E+03	1.170527E-02	5.793210E-04
7.464536E+03	1.174798E-02	5.815980E-04
7.474449E+03	1.178999E-02	5.838425E-04
7.484362E+03	1.183194E-02	5.860857E-04
7.494275E+03	1.187398E-02	5.883363E-04
7.504188E+03	1.191631E-02	5.906033E-04
7.514101E+03	1.195943E-02	5.929120E-04
7.524014E+03	1.200369E-02	5.952796E-04
7.533927E+03	1.204925E-02	5.977142E-04
7.543841E+03	1.209655E-02	6.002376E-04
7.553754E+03	1.214564E-02	6.028527E-04
7.563667E+03	1.219664E-02	6.055653E-04
7.573580E+03	1.224973E-02	6.083846E-04
7.583493E+03	1.230478E-02	6.113038E-04
7.593406E+03	1.236114E-02	6.142915E-04
7.603319E+03	1.241868E-02	6.173405E-04
7.613232E+03	1.247653E-02	6.204086E-04
7.623145E+03	1.253382E-02	6.234514E-04
7.633058E+03	1.258943E-02	6.264144E-04
7.642971E+03	1.264207E-02	6.292324E-04
7.652884E+03	1.269024E-02	6.318313E-04
7.662797E+03	1.273247E-02	6.341370E-04
7.672710E+03	1.276678E-02	6.360517E-04
7.682623E+03	1.279132E-02	6.374815E-04
7.692536E+03	1.280415E-02	6.383302E-04
