#wls	flux	fluxerr
1.586090E+03	9.329128E-04	5.363653E-05
1.625742E+03	9.074885E-04	5.216799E-05
1.665394E+03	8.843048E-04	5.082846E-05
1.705047E+03	8.631806E-04	4.960751E-05
1.744699E+03	8.440972E-04	4.850400E-05
1.784351E+03	8.273175E-04	4.753301E-05
1.824003E+03	8.125330E-04	4.667676E-05
1.863656E+03	7.997337E-04	4.593464E-05
1.903308E+03	7.891773E-04	4.532139E-05
1.942960E+03	7.807198E-04	4.482870E-05
1.982612E+03	7.743622E-04	4.445657E-05
2.022265E+03	7.701137E-04	4.420548E-05
2.061917E+03	7.681178E-04	4.408359E-05
2.101569E+03	7.682758E-04	4.408518E-05
2.141221E+03	7.706275E-04	4.421247E-05
2.180874E+03	7.754711E-04	4.448251E-05
2.220526E+03	7.826236E-04	4.488470E-05
2.260178E+03	7.924118E-04	4.543772E-05
2.299830E+03	8.046831E-04	4.613272E-05
2.339483E+03	8.197989E-04	4.699033E-05
2.379135E+03	8.378934E-04	4.801814E-05
2.418787E+03	8.589923E-04	4.921752E-05
2.458439E+03	8.833979E-04	5.060565E-05
2.498092E+03	9.113096E-04	5.219382E-05
2.537744E+03	9.430878E-04	5.400255E-05
2.577396E+03	9.787102E-04	5.603038E-05
2.617048E+03	1.018874E-03	5.831706E-05
2.656701E+03	1.063757E-03	6.087257E-05
2.696353E+03	1.113703E-03	6.371638E-05
2.736005E+03	1.169085E-03	6.686957E-05
2.775657E+03	1.230469E-03	7.036426E-05
2.815310E+03	1.298128E-03	7.421589E-05
2.854962E+03	1.372873E-03	7.847034E-05
2.894614E+03	1.455032E-03	8.314618E-05
2.934266E+03	1.545313E-03	8.828336E-05
2.973919E+03	1.644261E-03	9.391277E-05
2.983832E+03	1.670398E-03	9.539955E-05
2.993745E+03	1.697236E-03	9.692620E-05
3.003658E+03	1.724578E-03	9.848136E-05
3.013571E+03	1.752641E-03	1.000775E-04
3.023484E+03	1.781223E-03	1.017031E-04
3.033397E+03	1.810329E-03	1.033583E-04
3.043310E+03	1.840185E-03	1.050561E-04
3.053223E+03	1.870580E-03	1.067845E-04
3.063136E+03	1.901742E-03	1.085564E-04
3.073049E+03	1.933685E-03	1.103726E-04
3.082962E+03	1.966189E-03	1.122206E-04
3.092875E+03	1.999262E-03	1.141008E-04
3.102789E+03	2.033140E-03	1.160266E-04
3.112702E+03	2.067596E-03	1.179852E-04
3.122615E+03	2.102876E-03	1.199904E-04
3.132528E+03	2.138991E-03	1.220431E-04
3.142441E+03	2.175704E-03	1.241296E-04
3.152354E+03	2.213018E-03	1.262500E-04
3.162267E+03	2.251188E-03	1.284189E-04
3.172180E+03	2.290223E-03	1.306369E-04
3.182093E+03	2.329876E-03	1.328899E-04
3.192006E+03	2.370145E-03	1.351776E-04
3.201919E+03	2.411563E-03	1.375305E-04
3.211832E+03	2.453340E-03	1.399035E-04
3.221745E+03	2.496284E-03	1.423428E-04
3.231658E+03	2.539586E-03	1.448020E-04
3.241571E+03	2.584069E-03	1.473283E-04
3.251484E+03	2.629187E-03	1.498903E-04
3.261398E+03	2.674937E-03	1.524881E-04
3.271311E+03	2.721892E-03	1.551541E-04
3.281224E+03	2.769193E-03	1.578395E-04
3.291137E+03	2.817710E-03	1.605937E-04
3.301050E+03	2.866564E-03	1.633668E-04
3.310963E+03	2.916641E-03	1.662091E-04
3.320876E+03	2.967345E-03	1.690868E-04
3.330789E+03	3.018980E-03	1.720170E-04
3.340702E+03	3.071233E-03	1.749820E-04
3.350615E+03	3.124413E-03	1.779994E-04
3.360528E+03	3.178200E-03	1.810510E-04
3.370441E+03	3.232908E-03	1.841545E-04
3.380354E+03	3.288536E-03	1.873099E-04
3.390267E+03	3.344754E-03	1.904985E-04
3.400180E+03	3.401882E-03	1.937384E-04
3.410093E+03	3.459918E-03	1.970295E-04
3.420007E+03	3.518519E-03	2.003523E-04
3.429920E+03	3.578015E-03	2.037256E-04
3.439833E+03	3.638052E-03	2.071292E-04
3.449746E+03	3.698968E-03	2.105822E-04
3.459659E+03	3.760757E-03	2.140845E-04
3.469572E+03	3.823052E-03	2.176150E-04
3.479485E+03	3.886200E-03	2.211935E-04
3.489398E+03	3.949825E-03	2.247986E-04
3.499311E+03	4.014650E-03	2.284715E-04
3.509224E+03	4.079553E-03	2.321482E-04
3.519137E+03	4.145635E-03	2.358915E-04
3.529050E+03	4.212137E-03	2.396580E-04
3.538963E+03	4.279421E-03	2.434685E-04
3.548876E+03	4.347084E-03	2.473000E-04
3.558789E+03	4.415499E-03	2.511736E-04
3.568702E+03	4.484253E-03	2.550660E-04
3.578616E+03	4.554124E-03	2.590212E-04
3.588529E+03	4.624300E-03	2.629933E-04
3.598442E+03	4.694757E-03	2.669806E-04
3.608355E+03	4.765876E-03	2.710050E-04
3.618268E+03	4.837643E-03	2.750657E-04
3.628181E+03	4.909623E-03	2.791378E-04
3.638094E+03	4.982208E-03	2.832437E-04
3.648007E+03	5.055382E-03	2.873824E-04
3.657920E+03	5.128696E-03	2.915285E-04
3.667833E+03	5.202552E-03	2.957048E-04
3.677746E+03	5.276932E-03	2.999101E-04
3.687659E+03	5.351376E-03	3.041185E-04
3.697572E+03	5.425851E-03	3.083280E-04
3.707485E+03	5.501218E-03	3.125875E-04
3.717398E+03	5.576121E-03	3.168200E-04
3.727311E+03	5.651870E-03	3.210999E-04
3.737225E+03	5.727547E-03	3.253751E-04
3.747138E+03	5.803578E-03	3.296697E-04
3.757051E+03	5.879476E-03	3.339561E-04
3.766964E+03	5.955677E-03	3.382591E-04
3.776877E+03	6.031691E-03	3.425508E-04
3.786790E+03	6.107958E-03	3.468562E-04
3.796703E+03	6.184457E-03	3.511741E-04
3.806616E+03	6.260691E-03	3.554764E-04
3.816529E+03	6.336634E-03	3.597615E-04
3.826442E+03	6.412741E-03	3.640551E-04
3.836355E+03	6.488992E-03	3.683564E-04
3.846268E+03	6.564887E-03	3.726368E-04
3.856181E+03	6.640893E-03	3.769229E-04
3.866094E+03	6.716505E-03	3.811860E-04
3.876007E+03	6.791706E-03	3.854251E-04
3.885920E+03	6.866975E-03	3.896675E-04
3.895834E+03	6.942305E-03	3.939126E-04
3.905747E+03	7.017194E-03	3.981322E-04
3.915660E+03	7.092134E-03	4.023540E-04
3.925573E+03	7.166119E-03	4.065210E-04
3.935486E+03	7.240658E-03	4.107189E-04
3.945399E+03	7.314240E-03	4.148618E-04
3.955312E+03	7.388390E-03	4.190364E-04
3.965225E+03	7.461594E-03	4.231567E-04
3.975138E+03	7.534879E-03	4.272811E-04
3.985051E+03	7.607752E-03	4.313815E-04
3.994964E+03	7.680743E-03	4.354880E-04
4.004877E+03	7.753357E-03	4.395725E-04
4.014790E+03	7.825616E-03	4.436364E-04
4.024703E+03	7.897542E-03	4.476809E-04
4.034616E+03	7.969686E-03	4.517371E-04
4.044529E+03	8.041555E-03	4.557772E-04
4.054443E+03	8.113705E-03	4.598327E-04
4.064356E+03	8.185119E-03	4.638460E-04
4.074269E+03	8.256881E-03	4.678784E-04
4.084182E+03	8.328501E-03	4.719023E-04
4.094095E+03	8.400012E-03	4.759194E-04
4.104008E+03	8.471985E-03	4.799622E-04
4.113921E+03	8.543387E-03	4.839722E-04
4.123834E+03	8.615320E-03	4.880117E-04
4.133747E+03	8.687287E-03	4.920526E-04
4.143660E+03	8.759315E-03	4.960965E-04
4.153573E+03	8.831438E-03	5.001453E-04
4.163486E+03	8.903680E-03	5.042003E-04
4.173399E+03	8.976064E-03	5.082629E-04
4.183312E+03	9.048613E-03	5.123344E-04
4.193225E+03	9.121884E-03	5.164462E-04
4.203138E+03	9.194802E-03	5.205376E-04
4.213052E+03	9.267916E-03	5.246396E-04
4.222965E+03	9.341224E-03	5.287521E-04
4.232878E+03	9.414720E-03	5.328749E-04
4.242791E+03	9.488388E-03	5.370068E-04
4.252704E+03	9.562205E-03	5.411468E-04
4.262617E+03	9.636141E-03	5.452931E-04
4.272530E+03	9.710154E-03	5.494433E-04
4.282443E+03	9.783642E-03	5.535634E-04
4.292356E+03	9.857649E-03	5.577124E-04
4.302269E+03	9.930995E-03	5.618237E-04
4.312182E+03	1.000415E-02	5.659239E-04
4.322095E+03	1.007647E-02	5.699762E-04
4.332008E+03	1.014896E-02	5.740375E-04
4.341921E+03	1.022037E-02	5.780380E-04
4.351834E+03	1.029115E-02	5.820019E-04
4.361747E+03	1.036113E-02	5.859210E-04
4.371661E+03	1.042962E-02	5.897548E-04
4.381574E+03	1.049699E-02	5.935255E-04
4.391487E+03	1.056252E-02	5.971914E-04
4.401400E+03	1.062714E-02	6.008059E-04
4.411313E+03	1.068898E-02	6.042628E-04
4.421226E+03	1.074954E-02	6.076476E-04
4.431139E+03	1.080754E-02	6.108869E-04
4.441052E+03	1.086281E-02	6.139724E-04
4.450965E+03	1.091582E-02	6.169291E-04
4.460878E+03	1.096645E-02	6.197518E-04
4.470791E+03	1.101406E-02	6.224041E-04
4.480704E+03	1.105918E-02	6.249148E-04
4.490617E+03	1.110117E-02	6.272492E-04
4.500530E+03	1.114000E-02	6.294050E-04
4.510443E+03	1.117620E-02	6.314119E-04
4.520356E+03	1.120916E-02	6.332361E-04
4.530270E+03	1.123942E-02	6.349077E-04
4.540183E+03	1.126639E-02	6.363935E-04
4.550096E+03	1.129060E-02	6.377238E-04
4.560009E+03	1.131148E-02	6.388659E-04
4.569922E+03	1.132901E-02	6.398195E-04
4.579835E+03	1.134376E-02	6.406157E-04
4.589748E+03	1.135461E-02	6.411919E-04
4.599661E+03	1.136324E-02	6.416429E-04
4.609574E+03	1.136800E-02	6.418761E-04
4.619487E+03	1.137004E-02	6.419557E-04
4.629400E+03	1.136885E-02	6.418529E-04
4.639313E+03	1.136447E-02	6.415708E-04
4.649226E+03	1.135751E-02	6.411436E-04
4.659139E+03	1.134751E-02	6.405447E-04
4.669052E+03	1.133455E-02	6.397791E-04
4.678965E+03	1.131873E-02	6.388522E-04
4.688879E+03	1.130067E-02	6.378000E-04
4.698792E+03	1.127997E-02	6.365987E-04
4.708705E+03	1.125622E-02	6.352259E-04
4.718618E+03	1.123113E-02	6.337779E-04
4.728531E+03	1.120327E-02	6.321738E-04
4.738444E+03	1.117330E-02	6.304515E-04
4.748357E+03	1.114190E-02	6.286486E-04
4.758270E+03	1.110869E-02	6.267446E-04
4.768183E+03	1.107384E-02	6.247484E-04
4.778096E+03	1.103751E-02	6.226692E-04
4.788009E+03	1.099987E-02	6.205162E-04
4.797922E+03	1.096156E-02	6.183265E-04
4.807835E+03	1.092176E-02	6.160529E-04
4.817748E+03	1.088161E-02	6.137602E-04
4.827661E+03	1.084077E-02	6.114292E-04
4.837574E+03	1.079940E-02	6.090683E-04
4.847488E+03	1.075763E-02	6.066857E-04
4.857401E+03	1.071560E-02	6.042892E-04
4.867314E+03	1.067392E-02	6.019130E-04
4.877227E+03	1.063177E-02	5.995105E-04
4.887140E+03	1.059020E-02	5.971415E-04
4.897053E+03	1.054885E-02	5.947856E-04
4.906966E+03	1.050736E-02	5.924220E-04
4.916879E+03	1.046675E-02	5.901083E-04
4.926792E+03	1.042663E-02	5.878228E-04
4.936705E+03	1.038707E-02	5.855695E-04
4.946618E+03	1.034858E-02	5.833774E-04
4.956531E+03	1.031032E-02	5.811982E-04
4.966444E+03	1.027322E-02	5.790854E-04
4.976357E+03	1.023643E-02	5.769902E-04
4.986270E+03	1.020086E-02	5.749642E-04
4.996183E+03	1.016607E-02	5.729832E-04
5.006097E+03	1.013209E-02	5.710476E-04
5.016010E+03	1.009890E-02	5.691574E-04
5.025923E+03	1.006650E-02	5.673121E-04
5.035836E+03	1.003487E-02	5.655107E-04
5.045749E+03	1.000441E-02	5.637761E-04
5.055662E+03	9.974251E-03	5.620584E-04
5.065575E+03	9.945197E-03	5.604035E-04
5.075488E+03	9.916782E-03	5.587852E-04
5.085401E+03	9.888962E-03	5.572007E-04
5.095314E+03	9.861685E-03	5.556474E-04
5.105227E+03	9.834900E-03	5.541222E-04
5.115140E+03	9.808545E-03	5.526217E-04
5.125053E+03	9.782977E-03	5.511660E-04
5.134966E+03	9.757715E-03	5.497279E-04
5.144879E+03	9.732289E-03	5.482811E-04
5.154792E+03	9.707449E-03	5.468677E-04
5.164706E+03	9.682723E-03	5.454612E-04
5.174619E+03	9.658446E-03	5.440805E-04
5.184532E+03	9.633746E-03	5.426763E-04
5.194445E+03	9.609365E-03	5.412906E-04
5.204358E+03	9.584837E-03	5.398970E-04
5.214271E+03	9.560100E-03	5.384921E-04
5.224184E+03	9.535099E-03	5.370728E-04
5.234097E+03	9.509775E-03	5.356358E-04
5.244010E+03	9.484473E-03	5.342004E-04
5.253923E+03	9.458356E-03	5.327196E-04
5.263836E+03	9.432164E-03	5.312350E-04
5.273749E+03	9.405854E-03	5.297442E-04
5.283662E+03	9.378611E-03	5.282013E-04
5.293575E+03	9.351179E-03	5.266482E-04
5.303488E+03	9.323147E-03	5.250618E-04
5.313401E+03	9.294490E-03	5.234407E-04
5.323315E+03	9.265196E-03	5.217841E-04
5.333228E+03	9.235253E-03	5.200915E-04
5.343141E+03	9.205030E-03	5.183835E-04
5.353054E+03	9.174150E-03	5.166390E-04
5.362967E+03	9.142986E-03	5.148789E-04
5.372880E+03	9.110797E-03	5.130616E-04
5.382793E+03	9.078342E-03	5.112297E-04
5.392706E+03	9.045258E-03	5.093628E-04
5.402619E+03	9.011934E-03	5.074829E-04
5.412532E+03	8.978021E-03	5.055701E-04
5.422445E+03	8.943543E-03	5.036259E-04
5.432358E+03	8.908526E-03	5.016518E-04
5.442271E+03	8.873365E-03	4.996700E-04
5.452184E+03	8.837727E-03	4.976617E-04
5.462097E+03	8.801648E-03	4.956289E-04
5.472010E+03	8.765520E-03	4.935938E-04
5.481924E+03	8.729021E-03	4.915381E-04
5.491837E+03	8.692192E-03	4.894642E-04
5.501750E+03	8.655424E-03	4.873941E-04
5.511663E+03	8.618399E-03	4.853098E-04
5.521576E+03	8.581155E-03	4.832136E-04
5.531489E+03	8.544079E-03	4.811271E-04
5.541402E+03	8.506855E-03	4.790326E-04
5.551315E+03	8.469515E-03	4.769319E-04
5.561228E+03	8.432437E-03	4.748462E-04
5.571141E+03	8.395642E-03	4.727768E-04
5.581054E+03	8.358475E-03	4.706868E-04
5.590967E+03	8.321973E-03	4.686345E-04
5.600880E+03	8.285139E-03	4.665638E-04
5.610793E+03	8.248663E-03	4.645135E-04
5.620706E+03	8.212550E-03	4.624839E-04
5.630619E+03	8.176469E-03	4.604564E-04
5.640533E+03	8.140422E-03	4.584310E-04
5.650446E+03	8.104738E-03	4.564264E-04
5.660359E+03	8.069074E-03	4.544232E-04
5.670272E+03	8.033747E-03	4.524391E-04
5.680185E+03	7.998412E-03	4.504549E-04
5.690098E+03	7.963372E-03	4.484875E-04
5.700011E+03	7.928274E-03	4.465171E-04
5.709924E+03	7.893416E-03	4.445603E-04
5.719837E+03	7.858438E-03	4.425971E-04
5.729750E+03	7.823625E-03	4.406434E-04
5.739663E+03	7.788620E-03	4.386790E-04
5.749576E+03	7.753698E-03	4.367196E-04
5.759489E+03	7.718500E-03	4.347448E-04
5.769402E+03	7.683297E-03	4.327699E-04
5.779315E+03	7.647730E-03	4.307746E-04
5.789228E+03	7.612064E-03	4.287740E-04
5.799142E+03	7.576253E-03	4.267655E-04
5.809055E+03	7.539946E-03	4.247291E-04
5.818968E+03	7.503406E-03	4.226798E-04
5.828881E+03	7.466286E-03	4.205979E-04
5.838794E+03	7.428852E-03	4.184986E-04
5.848707E+03	7.391069E-03	4.163797E-04
5.858620E+03	7.352601E-03	4.142224E-04
5.868533E+03	7.313721E-03	4.120420E-04
5.878446E+03	7.274105E-03	4.098203E-04
5.888359E+03	7.234032E-03	4.075730E-04
5.898272E+03	7.193483E-03	4.052990E-04
5.908185E+03	7.152153E-03	4.029810E-04
5.918098E+03	7.110328E-03	4.006353E-04
5.928011E+03	7.067715E-03	3.982453E-04
5.937924E+03	7.024893E-03	3.958436E-04
5.947837E+03	6.981292E-03	3.933981E-04
5.957751E+03	6.936926E-03	3.909096E-04
5.967664E+03	6.892378E-03	3.884108E-04
5.977577E+03	6.847097E-03	3.858709E-04
5.987490E+03	6.801108E-03	3.832911E-04
5.997403E+03	6.754996E-03	3.807045E-04
6.007316E+03	6.708230E-03	3.780810E-04
6.017229E+03	6.660844E-03	3.754226E-04
6.027142E+03	6.613418E-03	3.727620E-04
6.037055E+03	6.565436E-03	3.700701E-04
6.046968E+03	6.517207E-03	3.673643E-04
6.056881E+03	6.468763E-03	3.646464E-04
6.066794E+03	6.419872E-03	3.619033E-04
6.076707E+03	6.371101E-03	3.591670E-04
6.086620E+03	6.321955E-03	3.564095E-04
6.096533E+03	6.272468E-03	3.536329E-04
6.106446E+03	6.223196E-03	3.508682E-04
6.116360E+03	6.173648E-03	3.480881E-04
6.126273E+03	6.124113E-03	3.453087E-04
6.136186E+03	6.074613E-03	3.425312E-04
6.146099E+03	6.025175E-03	3.397572E-04
6.156012E+03	5.975568E-03	3.369736E-04
6.165925E+03	5.926064E-03	3.341958E-04
6.175838E+03	5.876678E-03	3.314246E-04
6.185751E+03	5.827421E-03	3.286606E-04
6.195664E+03	5.778304E-03	3.259044E-04
6.205577E+03	5.729333E-03	3.231565E-04
6.215490E+03	5.680275E-03	3.204035E-04
6.225403E+03	5.631371E-03	3.176591E-04
6.235316E+03	5.582621E-03	3.149233E-04
6.245229E+03	5.534018E-03	3.121958E-04
6.255142E+03	5.485557E-03	3.094761E-04
6.265055E+03	5.437000E-03	3.067510E-04
6.274969E+03	5.388794E-03	3.040455E-04
6.284882E+03	5.340469E-03	3.013331E-04
6.294795E+03	5.292242E-03	2.986262E-04
6.304708E+03	5.244311E-03	2.959359E-04
6.314621E+03	5.196223E-03	2.932365E-04
6.324534E+03	5.147962E-03	2.905273E-04
6.334447E+03	5.099949E-03	2.878319E-04
6.344360E+03	5.051956E-03	2.851374E-04
6.354273E+03	5.003971E-03	2.824433E-04
6.364186E+03	4.955778E-03	2.797373E-04
6.374099E+03	4.907802E-03	2.770433E-04
6.384012E+03	4.859623E-03	2.743377E-04
6.393925E+03	4.811455E-03	2.716326E-04
6.403838E+03	4.763507E-03	2.689397E-04
6.413751E+03	4.715377E-03	2.662363E-04
6.423664E+03	4.667278E-03	2.635345E-04
6.433578E+03	4.619219E-03	2.608347E-04
6.443491E+03	4.571208E-03	2.581374E-04
6.453404E+03	4.523260E-03	2.554435E-04
6.463317E+03	4.475388E-03	2.527537E-04
6.473230E+03	4.427608E-03	2.500689E-04
6.483143E+03	4.379937E-03	2.473899E-04
6.493056E+03	4.332395E-03	2.447181E-04
6.502969E+03	4.285007E-03	2.420547E-04
6.512882E+03	4.237613E-03	2.393908E-04
6.522795E+03	4.190606E-03	2.367485E-04
6.532708E+03	4.143831E-03	2.341190E-04
6.542621E+03	4.097319E-03	2.315042E-04
6.552534E+03	4.051105E-03	2.289060E-04
6.562447E+03	4.005221E-03	2.263262E-04
6.572360E+03	3.959705E-03	2.237669E-04
6.582273E+03	3.914424E-03	2.212207E-04
6.592187E+03	3.869758E-03	2.187090E-04
6.602100E+03	3.825573E-03	2.162243E-04
6.612013E+03	3.781911E-03	2.137688E-04
6.621926E+03	3.738809E-03	2.113448E-04
6.631839E+03	3.696310E-03	2.089546E-04
6.641752E+03	3.654452E-03	2.066004E-04
6.651665E+03	3.613272E-03	2.042844E-04
6.661578E+03	3.572810E-03	2.020086E-04
6.671491E+03	3.533100E-03	1.997752E-04
6.681404E+03	3.494331E-03	1.975948E-04
6.691317E+03	3.456228E-03	1.954518E-04
6.701230E+03	3.418979E-03	1.933568E-04
6.711143E+03	3.382609E-03	1.913114E-04
6.721056E+03	3.347294E-03	1.893254E-04
6.730969E+03	3.312762E-03	1.873835E-04
6.740882E+03	3.279328E-03	1.855034E-04
6.750796E+03	3.246720E-03	1.836699E-04
6.760709E+03	3.215242E-03	1.819002E-04
6.770622E+03	3.184624E-03	1.801789E-04
6.780535E+03	3.155157E-03	1.785225E-04
6.790448E+03	3.126709E-03	1.769237E-04
6.800361E+03	3.099148E-03	1.753748E-04
6.810274E+03	3.072752E-03	1.738917E-04
6.820187E+03	3.047383E-03	1.724666E-04
6.830100E+03	3.023039E-03	1.710993E-04
6.840013E+03	2.999716E-03	1.697896E-04
6.849926E+03	2.977406E-03	1.685372E-04
6.859839E+03	2.956100E-03	1.673415E-04
6.869752E+03	2.935786E-03	1.662017E-04
6.879665E+03	2.916581E-03	1.651247E-04
6.889578E+03	2.898211E-03	1.640947E-04
6.899491E+03	2.880786E-03	1.631183E-04
6.909405E+03	2.864290E-03	1.621942E-04
6.919318E+03	2.848827E-03	1.613286E-04
6.929231E+03	2.834123E-03	1.605058E-04
6.939144E+03	2.820282E-03	1.597319E-04
6.949057E+03	2.807403E-03	1.590123E-04
6.958970E+03	2.795210E-03	1.583316E-04
6.968883E+03	2.783927E-03	1.577022E-04
6.978796E+03	2.773276E-03	1.571087E-04
6.988709E+03	2.763478E-03	1.565633E-04
6.998622E+03	2.754378E-03	1.560575E-04
7.008535E+03	2.745823E-03	1.555825E-04
7.018448E+03	2.738028E-03	1.551505E-04
7.028361E+03	2.730716E-03	1.547458E-04
7.038274E+03	2.724102E-03	1.543807E-04
7.048187E+03	2.718026E-03	1.540460E-04
7.058100E+03	2.712337E-03	1.537332E-04
7.068014E+03	2.707246E-03	1.534542E-04
7.077927E+03	2.702474E-03	1.531933E-04
7.087840E+03	2.698229E-03	1.529622E-04
7.097753E+03	2.694238E-03	1.527455E-04
7.107666E+03	2.690707E-03	1.525549E-04
7.117579E+03	2.687361E-03	1.523747E-04
7.127492E+03	2.684407E-03	1.522168E-04
7.137405E+03	2.681571E-03	1.520655E-04
7.147318E+03	2.678938E-03	1.519257E-04
7.157231E+03	2.676598E-03	1.518025E-04
7.167144E+03	2.674276E-03	1.516803E-04
7.177057E+03	2.672058E-03	1.515640E-04
7.186970E+03	2.669917E-03	1.514520E-04
7.196883E+03	2.667816E-03	1.513423E-04
7.206796E+03	2.665729E-03	1.512334E-04
7.216709E+03	2.663624E-03	1.511235E-04
7.226623E+03	2.661350E-03	1.510039E-04
7.236536E+03	2.659124E-03	1.508870E-04
7.246449E+03	2.656795E-03	1.507643E-04
7.256362E+03	2.654215E-03	1.506273E-04
7.266275E+03	2.651481E-03	1.504816E-04
7.276188E+03	2.648570E-03	1.503258E-04
7.286101E+03	2.645577E-03	1.501653E-04
7.296014E+03	2.642117E-03	1.499783E-04
7.305927E+03	2.638535E-03	1.497844E-04
7.315840E+03	2.634687E-03	1.495753E-04
7.325753E+03	2.630435E-03	1.493432E-04
7.335666E+03	2.626002E-03	1.491008E-04
7.345579E+03	2.621130E-03	1.488335E-04
7.355492E+03	2.615924E-03	1.485472E-04
7.365405E+03	2.610251E-03	1.482343E-04
7.375318E+03	2.604338E-03	1.479077E-04
7.385232E+03	2.597931E-03	1.475531E-04
7.395145E+03	2.591263E-03	1.471836E-04
7.405058E+03	2.584079E-03	1.467847E-04
7.414971E+03	2.576494E-03	1.463629E-04
7.424884E+03	2.568377E-03	1.459109E-04
7.434797E+03	2.559962E-03	1.454419E-04
7.444710E+03	2.551002E-03	1.449419E-04
7.454623E+03	2.541611E-03	1.444173E-04
7.464536E+03	2.531667E-03	1.438613E-04
7.474449E+03	2.521402E-03	1.432869E-04
7.484362E+03	2.510576E-03	1.426805E-04
7.494275E+03	2.499302E-03	1.420487E-04
7.504188E+03	2.487582E-03	1.413914E-04
7.514101E+03	2.475294E-03	1.407017E-04
7.524014E+03	2.462672E-03	1.399929E-04
7.533927E+03	2.449482E-03	1.392517E-04
7.543841E+03	2.435725E-03	1.384783E-04
7.553754E+03	2.421634E-03	1.376857E-04
7.563667E+03	2.406977E-03	1.368609E-04
7.573580E+03	2.391875E-03	1.360107E-04
7.583493E+03	2.376215E-03	1.351286E-04
7.593406E+03	2.360227E-03	1.342277E-04
7.603319E+03	2.343689E-03	1.332955E-04
7.613232E+03	2.326609E-03	1.323323E-04
7.623145E+03	2.309214E-03	1.313510E-04
7.633058E+03	2.291290E-03	1.303395E-04
7.642971E+03	2.272954E-03	1.293045E-04
7.652884E+03	2.254105E-03	1.282402E-04
7.662797E+03	2.234863E-03	1.271534E-04
7.672710E+03	2.215240E-03	1.260447E-04
7.682623E+03	2.195245E-03	1.249148E-04
7.692536E+03	2.174786E-03	1.237583E-04
