#wls	flux	fluxerr
1.586090E+03	9.203404E-04	2.815470E-05
1.625742E+03	8.998406E-04	2.749706E-05
1.665394E+03	8.812958E-04	2.689981E-05
1.705047E+03	8.643987E-04	2.635340E-05
1.744699E+03	8.494488E-04	2.586681E-05
1.784351E+03	8.364385E-04	2.543961E-05
1.824003E+03	8.252253E-04	2.506730E-05
1.863656E+03	8.158177E-04	2.474993E-05
1.903308E+03	8.084987E-04	2.449589E-05
1.942960E+03	8.030084E-04	2.429707E-05
1.982612E+03	7.995029E-04	2.415799E-05
2.022265E+03	7.980098E-04	2.407923E-05
2.061917E+03	7.985647E-04	2.406159E-05
2.101569E+03	8.012128E-04	2.410617E-05
2.141221E+03	8.060096E-04	2.421436E-05
2.180874E+03	8.131518E-04	2.439172E-05
2.220526E+03	8.225882E-04	2.463640E-05
2.260178E+03	8.345422E-04	2.495471E-05
2.299830E+03	8.491228E-04	2.534952E-05
2.339483E+03	8.664553E-04	2.582413E-05
2.379135E+03	8.865462E-04	2.637827E-05
2.418787E+03	9.098266E-04	2.702427E-05
2.458439E+03	9.363427E-04	2.776294E-05
2.498092E+03	9.662954E-04	2.859965E-05
2.537744E+03	1.000054E-03	2.954467E-05
2.577396E+03	1.037873E-03	3.060481E-05
2.617048E+03	1.079878E-03	3.178295E-05
2.656701E+03	1.126680E-03	3.309625E-05
2.696353E+03	1.178459E-03	3.454905E-05
2.736005E+03	1.235570E-03	3.615073E-05
2.775657E+03	1.298573E-03	3.791652E-05
2.815310E+03	1.367705E-03	3.985213E-05
2.854962E+03	1.443582E-03	4.197419E-05
2.894614E+03	1.526869E-03	4.430057E-05
2.934266E+03	1.617865E-03	4.683828E-05
2.973919E+03	1.717056E-03	4.959976E-05
2.983832E+03	1.743129E-03	5.032475E-05
2.993745E+03	1.769906E-03	5.106909E-05
3.003658E+03	1.797173E-03	5.182661E-05
3.013571E+03	1.825165E-03	5.260402E-05
3.023484E+03	1.853429E-03	5.338827E-05
3.033397E+03	1.882666E-03	5.419953E-05
3.043310E+03	1.912187E-03	5.501787E-05
3.053223E+03	1.942468E-03	5.585702E-05
3.063136E+03	1.973520E-03	5.671722E-05
3.073049E+03	2.004867E-03	5.758477E-05
3.082962E+03	2.037000E-03	5.847374E-05
3.092875E+03	2.069933E-03	5.938449E-05
3.102789E+03	2.103424E-03	6.031003E-05
3.112702E+03	2.137477E-03	6.125045E-05
3.122615E+03	2.172356E-03	6.221327E-05
3.132528E+03	2.207809E-03	6.319124E-05
3.142441E+03	2.243841E-03	6.418447E-05
3.152354E+03	2.280722E-03	6.520065E-05
3.162267E+03	2.318192E-03	6.623231E-05
3.172180E+03	2.356530E-03	6.728735E-05
3.182093E+03	2.395468E-03	6.835808E-05
3.192006E+03	2.435006E-03	6.944453E-05
3.201919E+03	2.475433E-03	7.055482E-05
3.211832E+03	2.516472E-03	7.168103E-05
3.221745E+03	2.558414E-03	7.283143E-05
3.231658E+03	2.600974E-03	7.399784E-05
3.241571E+03	2.644152E-03	7.518026E-05
3.251484E+03	2.688250E-03	7.638720E-05
3.261398E+03	2.732971E-03	7.761018E-05
3.271311E+03	2.778624E-03	7.885793E-05
3.281224E+03	2.824906E-03	8.012182E-05
3.291137E+03	2.872130E-03	8.141066E-05
3.301050E+03	2.919984E-03	8.271558E-05
3.310963E+03	2.968463E-03	8.403642E-05
3.320876E+03	3.017894E-03	8.538233E-05
3.330789E+03	3.068285E-03	8.675355E-05
3.340702E+03	3.118967E-03	8.813110E-05
3.350615E+03	3.170605E-03	8.953373E-05
3.360528E+03	3.223207E-03	9.096161E-05
3.370441E+03	3.276428E-03	9.240495E-05
3.380354E+03	3.330615E-03	9.387351E-05
3.390267E+03	3.385058E-03	9.534726E-05
3.400180E+03	3.440820E-03	9.685605E-05
3.410093E+03	3.497186E-03	9.837973E-05
3.420007E+03	3.554150E-03	9.991809E-05
3.429920E+03	3.611700E-03	1.014707E-04
3.439833E+03	3.670579E-03	1.030586E-04
3.449746E+03	3.729661E-03	1.046498E-04
3.459659E+03	3.789692E-03	1.062655E-04
3.469572E+03	3.850670E-03	1.079053E-04
3.479485E+03	3.911811E-03	1.095475E-04
3.489398E+03	3.974283E-03	1.112246E-04
3.499311E+03	4.036890E-03	1.129031E-04
3.509224E+03	4.100826E-03	1.146163E-04
3.519137E+03	4.164868E-03	1.163301E-04
3.529050E+03	4.229820E-03	1.180669E-04
3.538963E+03	4.295679E-03	1.198265E-04
3.548876E+03	4.362017E-03	1.215970E-04
3.558789E+03	4.428820E-03	1.233780E-04
3.568702E+03	4.496501E-03	1.251808E-04
3.578616E+03	4.564620E-03	1.269933E-04
3.588529E+03	4.633598E-03	1.288271E-04
3.598442E+03	4.702987E-03	1.306697E-04
3.608355E+03	4.772767E-03	1.325206E-04
3.618268E+03	4.843372E-03	1.343917E-04
3.628181E+03	4.914793E-03	1.362828E-04
3.638094E+03	4.986104E-03	1.381682E-04
3.648007E+03	5.058664E-03	1.400855E-04
3.657920E+03	5.131072E-03	1.419960E-04
3.667833E+03	5.204242E-03	1.439247E-04
3.677746E+03	5.278162E-03	1.458715E-04
3.687659E+03	5.351863E-03	1.478095E-04
3.697572E+03	5.426765E-03	1.497779E-04
3.707485E+03	5.501407E-03	1.517364E-04
3.717398E+03	5.576737E-03	1.537110E-04
3.727311E+03	5.652745E-03	1.557016E-04
3.737225E+03	5.728424E-03	1.576804E-04
3.747138E+03	5.805250E-03	1.596879E-04
3.757051E+03	5.881701E-03	1.616823E-04
3.766964E+03	5.958770E-03	1.636910E-04
3.776877E+03	6.035929E-03	1.656993E-04
3.786790E+03	6.113678E-03	1.677210E-04
3.796703E+03	6.191487E-03	1.697416E-04
3.806616E+03	6.269331E-03	1.717603E-04
3.816529E+03	6.347726E-03	1.737914E-04
3.826442E+03	6.426129E-03	1.758199E-04
3.836355E+03	6.504520E-03	1.778453E-04
3.846268E+03	6.583424E-03	1.798820E-04
3.856181E+03	6.661746E-03	1.819000E-04
3.866094E+03	6.741105E-03	1.839436E-04
3.876007E+03	6.819852E-03	1.859678E-04
3.885920E+03	6.899072E-03	1.880022E-04
3.895834E+03	6.978206E-03	1.900315E-04
3.905747E+03	7.057803E-03	1.920707E-04
3.915660E+03	7.136732E-03	1.940892E-04
3.925573E+03	7.216111E-03	1.961172E-04
3.935486E+03	7.295371E-03	1.981393E-04
3.945399E+03	7.375075E-03	2.001709E-04
3.955312E+03	7.454077E-03	2.021808E-04
3.965225E+03	7.533521E-03	2.042002E-04
3.975138E+03	7.612826E-03	2.062132E-04
3.985051E+03	7.692580E-03	2.082359E-04
3.994964E+03	7.771608E-03	2.102364E-04
4.004877E+03	7.851085E-03	2.122466E-04
4.014790E+03	7.930424E-03	2.142506E-04
4.024703E+03	8.009624E-03	2.162485E-04
4.034616E+03	8.088685E-03	2.182402E-04
4.044529E+03	8.167608E-03	2.202258E-04
4.054443E+03	8.246998E-03	2.222217E-04
4.064356E+03	8.325648E-03	2.241953E-04
4.074269E+03	8.404769E-03	2.261794E-04
4.084182E+03	8.483757E-03	2.281576E-04
4.094095E+03	8.561993E-03	2.301134E-04
4.104008E+03	8.640703E-03	2.320799E-04
4.113921E+03	8.719271E-03	2.340403E-04
4.123834E+03	8.798311E-03	2.360113E-04
4.133747E+03	8.876576E-03	2.379595E-04
4.143660E+03	8.954671E-03	2.399011E-04
4.153573E+03	9.032588E-03	2.418360E-04
4.163486E+03	9.110308E-03	2.437637E-04
4.173399E+03	9.187814E-03	2.456837E-04
4.183312E+03	9.265719E-03	2.476126E-04
4.193225E+03	9.342728E-03	2.495157E-04
4.203138E+03	9.419443E-03	2.514092E-04
4.213052E+03	9.495829E-03	2.532923E-04
4.222965E+03	9.571848E-03	2.551640E-04
4.232878E+03	9.647455E-03	2.570230E-04
4.242791E+03	9.722600E-03	2.588683E-04
4.252704E+03	9.797231E-03	2.606984E-04
4.262617E+03	9.870633E-03	2.624943E-04
4.272530E+03	9.944043E-03	2.642892E-04
4.282443E+03	1.001608E-02	2.660464E-04
4.292356E+03	1.008733E-02	2.677813E-04
4.302269E+03	1.015770E-02	2.694920E-04
4.312182E+03	1.022711E-02	2.711760E-04
4.322095E+03	1.029547E-02	2.728312E-04
4.332008E+03	1.036201E-02	2.744374E-04
4.341921E+03	1.042797E-02	2.760272E-04
4.351834E+03	1.049190E-02	2.775629E-04
4.361747E+03	1.055438E-02	2.790594E-04
4.371661E+03	1.061462E-02	2.804963E-04
4.381574E+03	1.067385E-02	2.819063E-04
4.391487E+03	1.073064E-02	2.832514E-04
4.401400E+03	1.078489E-02	2.845290E-04
4.411313E+03	1.083782E-02	2.857721E-04
4.421226E+03	1.088801E-02	2.869429E-04
4.431139E+03	1.093605E-02	2.880570E-04
4.441052E+03	1.098185E-02	2.891124E-04
4.450965E+03	1.102466E-02	2.900898E-04
4.460878E+03	1.106510E-02	2.910051E-04
4.470791E+03	1.110244E-02	2.918394E-04
4.480704E+03	1.113729E-02	2.926090E-04
4.490617E+03	1.116961E-02	2.933132E-04
4.500530E+03	1.119872E-02	2.939336E-04
4.510443E+03	1.122525E-02	2.944874E-04
4.520356E+03	1.124919E-02	2.949743E-04
4.530270E+03	1.126987E-02	2.953768E-04
4.540183E+03	1.128796E-02	2.957126E-04
4.550096E+03	1.130281E-02	2.959646E-04
4.560009E+03	1.131509E-02	2.961508E-04
4.569922E+03	1.132417E-02	2.962545E-04
4.579835E+03	1.133074E-02	2.962940E-04
4.589748E+03	1.133418E-02	2.962531E-04
4.599661E+03	1.133519E-02	2.961502E-04
4.609574E+03	1.133381E-02	2.959863E-04
4.619487E+03	1.132880E-02	2.957294E-04
4.629400E+03	1.132216E-02	2.954315E-04
4.639313E+03	1.131267E-02	2.950609E-04
4.649226E+03	1.130040E-02	2.946196E-04
4.659139E+03	1.128606E-02	2.941261E-04
4.669052E+03	1.126910E-02	2.935661E-04
4.678965E+03	1.125023E-02	2.929583E-04
4.688879E+03	1.122892E-02	2.922887E-04
4.698792E+03	1.120588E-02	2.915759E-04
4.708705E+03	1.118058E-02	2.908065E-04
4.718618E+03	1.115375E-02	2.899990E-04
4.728531E+03	1.112425E-02	2.891241E-04
4.738444E+03	1.109404E-02	2.882324E-04
4.748357E+03	1.106198E-02	2.872949E-04
4.758270E+03	1.102819E-02	2.863144E-04
4.768183E+03	1.099338E-02	2.853094E-04
4.778096E+03	1.095705E-02	2.842671E-04
4.788009E+03	1.091932E-02	2.831903E-04
4.797922E+03	1.088089E-02	2.820972E-04
4.807835E+03	1.084126E-02	2.809753E-04
4.817748E+03	1.080113E-02	2.798423E-04
4.827661E+03	1.076002E-02	2.786858E-04
4.837574E+03	1.071803E-02	2.775084E-04
4.847488E+03	1.067582E-02	2.763274E-04
4.857401E+03	1.063292E-02	2.751304E-04
4.867314E+03	1.058941E-02	2.739197E-04
4.877227E+03	1.054595E-02	2.727121E-04
4.887140E+03	1.050261E-02	2.715094E-04
4.897053E+03	1.045835E-02	2.702849E-04
4.906966E+03	1.041436E-02	2.690691E-04
4.916879E+03	1.037069E-02	2.678635E-04
4.926792E+03	1.032631E-02	2.666414E-04
4.936705E+03	1.028237E-02	2.654325E-04
4.946618E+03	1.023891E-02	2.642378E-04
4.956531E+03	1.019545E-02	2.630446E-04
4.966444E+03	1.015201E-02	2.618539E-04
4.976357E+03	1.010917E-02	2.606803E-04
4.986270E+03	1.006642E-02	2.595108E-04
4.996183E+03	1.002380E-02	2.583463E-04
5.006097E+03	9.981840E-03	2.572004E-04
5.016010E+03	9.940038E-03	2.560602E-04
5.025923E+03	9.898407E-03	2.549261E-04
5.035836E+03	9.857462E-03	2.538112E-04
5.045749E+03	9.816698E-03	2.527025E-04
5.055662E+03	9.776114E-03	2.516001E-04
5.065575E+03	9.736203E-03	2.505165E-04
5.075488E+03	9.696952E-03	2.494515E-04
5.085401E+03	9.657363E-03	2.483792E-04
5.095314E+03	9.618407E-03	2.473248E-04
5.105227E+03	9.580062E-03	2.462875E-04
5.115140E+03	9.541337E-03	2.452419E-04
5.125053E+03	9.503663E-03	2.442247E-04
5.134966E+03	9.465572E-03	2.431983E-04
5.144879E+03	9.427998E-03	2.421866E-04
5.154792E+03	9.390441E-03	2.411767E-04
5.164706E+03	9.353344E-03	2.401801E-04
5.174619E+03	9.316213E-03	2.391839E-04
5.184532E+03	9.279485E-03	2.381994E-04
5.194445E+03	9.242207E-03	2.372023E-04
5.204358E+03	9.205739E-03	2.362272E-04
5.214271E+03	9.168674E-03	2.352382E-04
5.224184E+03	9.132361E-03	2.342698E-04
5.234097E+03	9.095406E-03	2.332863E-04
5.244010E+03	9.058698E-03	2.323104E-04
5.253923E+03	9.021763E-03	2.313300E-04
5.263836E+03	8.985027E-03	2.303560E-04
5.273749E+03	8.948025E-03	2.293765E-04
5.283662E+03	8.911185E-03	2.284024E-04
5.293575E+03	8.874049E-03	2.274220E-04
5.303488E+03	8.836605E-03	2.264350E-04
5.313401E+03	8.799280E-03	2.254523E-04
5.323315E+03	8.762059E-03	2.244736E-04
5.333228E+03	8.724073E-03	2.234765E-04
5.343141E+03	8.686608E-03	2.224939E-04
5.353054E+03	8.648372E-03	2.214928E-04
5.362967E+03	8.610642E-03	2.205059E-04
5.372880E+03	8.572145E-03	2.195005E-04
5.382793E+03	8.533728E-03	2.184984E-04
5.392706E+03	8.495392E-03	2.174994E-04
5.402619E+03	8.456725E-03	2.164931E-04
5.412532E+03	8.417732E-03	2.154795E-04
5.422445E+03	8.378835E-03	2.144695E-04
5.432358E+03	8.340037E-03	2.134631E-04
5.442271E+03	8.300942E-03	2.124502E-04
5.452184E+03	8.261559E-03	2.114309E-04
5.462097E+03	8.222305E-03	2.104159E-04
5.472010E+03	8.183187E-03	2.094055E-04
5.481924E+03	8.143816E-03	2.083895E-04
5.491837E+03	8.104206E-03	2.073684E-04
5.501750E+03	8.064767E-03	2.063526E-04
5.511663E+03	8.025503E-03	2.053423E-04
5.521576E+03	7.986035E-03	2.043277E-04
5.531489E+03	7.946766E-03	2.033190E-04
5.541402E+03	7.907314E-03	2.023066E-04
5.551315E+03	7.867693E-03	2.012908E-04
5.561228E+03	7.828676E-03	2.002912E-04
5.571141E+03	7.789123E-03	1.992789E-04
5.581054E+03	7.750182E-03	1.982830E-04
5.590967E+03	7.711096E-03	1.972842E-04
5.600880E+03	7.671874E-03	1.962828E-04
5.610793E+03	7.632889E-03	1.952883E-04
5.620706E+03	7.594139E-03	1.943006E-04
5.630619E+03	7.555254E-03	1.933102E-04
5.640533E+03	7.516598E-03	1.923264E-04
5.650446E+03	7.477800E-03	1.913397E-04
5.660359E+03	7.439219E-03	1.903594E-04
5.670272E+03	7.400845E-03	1.893850E-04
5.680185E+03	7.362306E-03	1.884072E-04
5.690098E+03	7.323952E-03	1.874349E-04
5.700011E+03	7.285768E-03	1.864676E-04
5.709924E+03	7.247387E-03	1.854959E-04
5.719837E+03	7.209147E-03	1.845285E-04
5.729750E+03	7.170681E-03	1.835561E-04
5.739663E+03	7.132325E-03	1.825871E-04
5.749576E+03	7.094058E-03	1.816210E-04
5.759489E+03	7.055518E-03	1.806486E-04
5.769402E+03	7.017031E-03	1.796782E-04
5.779315E+03	6.978239E-03	1.787006E-04
5.789228E+03	6.939802E-03	1.777326E-04
5.799142E+03	6.901025E-03	1.767566E-04
5.809055E+03	6.861892E-03	1.757721E-04
5.818968E+03	6.823055E-03	1.747957E-04
5.828881E+03	6.783833E-03	1.738101E-04
5.838794E+03	6.744211E-03	1.728147E-04
5.848707E+03	6.704834E-03	1.718262E-04
5.858620E+03	6.665033E-03	1.708274E-04
5.868533E+03	6.625122E-03	1.698262E-04
5.878446E+03	6.584770E-03	1.688143E-04
5.888359E+03	6.544290E-03	1.677997E-04
5.898272E+03	6.503676E-03	1.667820E-04
5.908185E+03	6.462920E-03	1.657613E-04
5.918098E+03	6.421703E-03	1.647291E-04
5.928011E+03	6.380651E-03	1.637017E-04
5.937924E+03	6.338827E-03	1.626549E-04
5.947837E+03	6.297165E-03	1.616127E-04
5.957751E+03	6.255050E-03	1.605594E-04
5.967664E+03	6.213099E-03	1.595106E-04
5.977577E+03	6.170707E-03	1.584509E-04
5.987490E+03	6.127881E-03	1.573805E-04
5.997403E+03	6.085236E-03	1.563151E-04
6.007316E+03	6.042179E-03	1.552395E-04
6.017229E+03	5.999016E-03	1.541616E-04
6.027142E+03	5.955762E-03	1.530816E-04
6.037055E+03	5.912134E-03	1.519924E-04
6.046968E+03	5.868436E-03	1.509016E-04
6.056881E+03	5.824970E-03	1.498172E-04
6.066794E+03	5.781168E-03	1.487244E-04
6.076707E+03	5.737052E-03	1.476238E-04
6.086620E+03	5.693198E-03	1.465302E-04
6.096533E+03	5.649053E-03	1.454294E-04
6.106446E+03	5.604914E-03	1.443290E-04
6.116360E+03	5.560791E-03	1.432292E-04
6.126273E+03	5.516693E-03	1.421303E-04
6.136186E+03	5.472631E-03	1.410325E-04
6.146099E+03	5.428344E-03	1.399291E-04
6.156012E+03	5.384381E-03	1.388342E-04
6.165925E+03	5.340216E-03	1.377343E-04
6.175838E+03	5.296119E-03	1.366363E-04
6.185751E+03	5.252102E-03	1.355404E-04
6.195664E+03	5.208166E-03	1.344467E-04
6.205577E+03	5.164061E-03	1.333486E-04
6.215490E+03	5.120304E-03	1.322596E-04
6.225403E+03	5.076388E-03	1.311664E-04
6.235316E+03	5.032570E-03	1.300757E-04
6.245229E+03	4.988854E-03	1.289876E-04
6.255142E+03	4.945241E-03	1.279020E-04
6.265055E+03	4.901732E-03	1.268190E-04
6.274969E+03	4.858327E-03	1.257385E-04
6.284882E+03	4.814791E-03	1.246544E-04
6.294795E+03	4.771603E-03	1.235791E-04
6.304708E+03	4.728289E-03	1.225004E-04
6.314621E+03	4.685326E-03	1.214304E-04
6.324534E+03	4.642244E-03	1.203572E-04
6.334447E+03	4.599288E-03	1.192868E-04
6.344360E+03	4.556460E-03	1.182195E-04
6.354273E+03	4.513766E-03	1.171553E-04
6.364186E+03	4.471206E-03	1.160942E-04
6.374099E+03	4.428782E-03	1.150363E-04
6.384012E+03	4.386501E-03	1.139817E-04
6.393925E+03	4.344147E-03	1.129248E-04
6.403838E+03	4.302166E-03	1.118771E-04
6.413751E+03	4.260131E-03	1.108276E-04
6.423664E+03	4.218482E-03	1.097876E-04
6.433578E+03	4.176801E-03	1.087463E-04
6.443491E+03	4.135525E-03	1.077150E-04
6.453404E+03	4.094245E-03	1.066832E-04
6.463317E+03	4.053187E-03	1.056565E-04
6.473230E+03	4.012565E-03	1.046407E-04
6.483143E+03	3.971988E-03	1.036255E-04
6.493056E+03	3.931678E-03	1.026167E-04
6.502969E+03	3.891648E-03	1.016146E-04
6.512882E+03	3.851919E-03	1.006198E-04
6.522795E+03	3.812507E-03	9.963271E-05
6.532708E+03	3.773431E-03	9.865374E-05
6.542621E+03	3.734708E-03	9.768343E-05
6.552534E+03	3.696359E-03	9.672224E-05
6.562447E+03	3.658405E-03	9.577077E-05
6.572360E+03	3.620863E-03	9.482948E-05
6.582273E+03	3.583755E-03	9.389889E-05
6.592187E+03	3.547100E-03	9.297955E-05
6.602100E+03	3.510918E-03	9.207198E-05
6.612013E+03	3.475229E-03	9.117670E-05
6.621926E+03	3.440053E-03	9.029422E-05
6.631839E+03	3.405408E-03	8.942507E-05
6.641752E+03	3.371313E-03	8.856974E-05
6.651665E+03	3.337788E-03	8.772873E-05
6.661578E+03	3.304679E-03	8.689802E-05
6.671491E+03	3.272344E-03	8.608707E-05
6.681404E+03	3.240627E-03	8.529173E-05
6.691317E+03	3.209546E-03	8.451254E-05
6.701230E+03	3.179111E-03	8.374975E-05
6.711143E+03	3.149337E-03	8.300379E-05
6.721056E+03	3.120235E-03	8.227497E-05
6.730969E+03	3.091817E-03	8.156359E-05
6.740882E+03	3.063933E-03	8.086572E-05
6.750796E+03	3.036908E-03	8.018997E-05
6.760709E+03	3.010592E-03	7.953241E-05
6.770622E+03	2.984988E-03	7.889312E-05
6.780535E+03	2.960102E-03	7.827227E-05
6.790448E+03	2.935935E-03	7.766994E-05
6.800361E+03	2.912490E-03	7.708620E-05
6.810274E+03	2.889765E-03	7.652104E-05
6.820187E+03	2.867762E-03	7.597453E-05
6.830100E+03	2.846475E-03	7.544653E-05
6.840013E+03	2.825756E-03	7.493313E-05
6.849926E+03	2.805895E-03	7.444204E-05
6.859839E+03	2.786734E-03	7.396914E-05
6.869752E+03	2.768271E-03	7.351431E-05
6.879665E+03	2.750493E-03	7.307732E-05
6.889578E+03	2.733393E-03	7.265796E-05
6.899491E+03	2.716957E-03	7.225590E-05
6.909405E+03	2.701178E-03	7.187094E-05
6.919318E+03	2.686040E-03	7.150271E-05
6.929231E+03	2.671529E-03	7.115085E-05
6.939144E+03	2.657630E-03	7.081500E-05
6.949057E+03	2.644332E-03	7.049483E-05
6.958970E+03	2.631613E-03	7.018984E-05
6.968883E+03	2.619321E-03	6.989598E-05
6.978796E+03	2.607717E-03	6.962020E-05
6.988709E+03	2.596640E-03	6.935823E-05
6.998622E+03	2.586074E-03	6.910968E-05
7.008535E+03	2.576000E-03	6.887407E-05
7.018448E+03	2.566395E-03	6.865079E-05
7.028361E+03	2.557105E-03	6.843573E-05
7.038274E+03	2.548383E-03	6.823565E-05
7.048187E+03	2.540068E-03	6.804632E-05
7.058100E+03	2.532008E-03	6.786364E-05
7.068014E+03	2.524447E-03	6.769416E-05
7.077927E+03	2.517232E-03	6.753379E-05
7.087840E+03	2.510205E-03	6.737834E-05
7.097753E+03	2.503612E-03	6.723437E-05
7.107666E+03	2.497164E-03	6.709416E-05
7.117579E+03	2.491105E-03	6.696428E-05
7.127492E+03	2.485147E-03	6.683698E-05
7.137405E+03	2.479402E-03	6.671529E-05
7.147318E+03	2.473977E-03	6.660211E-05
7.157231E+03	2.468588E-03	6.648978E-05
7.167144E+03	2.463346E-03	6.638127E-05
7.177057E+03	2.458227E-03	6.627601E-05
7.186970E+03	2.453213E-03	6.617344E-05
7.196883E+03	2.448280E-03	6.607298E-05
7.206796E+03	2.443408E-03	6.597406E-05
7.216709E+03	2.438446E-03	6.587262E-05
7.226623E+03	2.433637E-03	6.577520E-05
7.236536E+03	2.428699E-03	6.567419E-05
7.246449E+03	2.423874E-03	6.557613E-05
7.256362E+03	2.418882E-03	6.547346E-05
7.266275E+03	2.413967E-03	6.537280E-05
7.276188E+03	2.408851E-03	6.526655E-05
7.286101E+03	2.403648E-03	6.515784E-05
7.296014E+03	2.398338E-03	6.504615E-05
7.305927E+03	2.392779E-03	6.492756E-05
7.315840E+03	2.387216E-03	6.480875E-05
7.325753E+03	2.381501E-03	6.468572E-05
7.335666E+03	2.375494E-03	6.455460E-05
7.345579E+03	2.369311E-03	6.441859E-05
7.355492E+03	2.363068E-03	6.428080E-05
7.365405E+03	2.356495E-03	6.413389E-05
7.375318E+03	2.349580E-03	6.397753E-05
7.385232E+03	2.342571E-03	6.381845E-05
7.395145E+03	2.335331E-03	6.365293E-05
7.405058E+03	2.327719E-03	6.347711E-05
7.414971E+03	2.319984E-03	6.329777E-05
7.424884E+03	2.311865E-03	6.310776E-05
7.434797E+03	2.303480E-03	6.291029E-05
7.444710E+03	2.294696E-03	6.270175E-05
7.454623E+03	2.285760E-03	6.248886E-05
7.464536E+03	2.276415E-03	6.226455E-05
7.474449E+03	2.266906E-03	6.203557E-05
7.484362E+03	2.256980E-03	6.179494E-05
7.494275E+03	2.246760E-03	6.154601E-05
7.504188E+03	2.236114E-03	6.128520E-05
7.514101E+03	2.225293E-03	6.101933E-05
7.524014E+03	2.214046E-03	6.074151E-05
7.533927E+03	2.202495E-03	6.045510E-05
7.543841E+03	2.190640E-03	6.016007E-05
7.553754E+03	2.178482E-03	5.985644E-05
7.563667E+03	2.166021E-03	5.954417E-05
7.573580E+03	2.153136E-03	5.921997E-05
7.583493E+03	2.139954E-03	5.888728E-05
7.593406E+03	2.126475E-03	5.854610E-05
7.603319E+03	2.112704E-03	5.819653E-05
7.613232E+03	2.098524E-03	5.783539E-05
7.623145E+03	2.084060E-03	5.746607E-05
7.633058E+03	2.069320E-03	5.708878E-05
7.642971E+03	2.054306E-03	5.670359E-05
7.652884E+03	2.039027E-03	5.631069E-05
7.662797E+03	2.023373E-03	5.590708E-05
7.672710E+03	2.007470E-03	5.549619E-05
7.682623E+03	1.991328E-03	5.507830E-05
7.692536E+03	1.974951E-03	5.465354E-05
