#wls	flux	fluxerr
1.574803E+03	4.843517E-17	2.784489E-18
1.614173E+03	4.932036E-17	2.823469E-18
1.653543E+03	5.014326E-17	2.858147E-18
1.692913E+03	5.089712E-17	2.888161E-18
1.732283E+03	5.158480E-17	2.913705E-18
1.771654E+03	5.218387E-17	2.933547E-18
1.811024E+03	5.266344E-17	2.946011E-18
1.850394E+03	5.298418E-17	2.948990E-18
1.889764E+03	5.309497E-17	2.939773E-18
1.929134E+03	5.297198E-17	2.917219E-18
1.968504E+03	5.258182E-17	2.879704E-18
2.007874E+03	5.199613E-17	2.831376E-18
2.047244E+03	5.137398E-17	2.781033E-18
2.086614E+03	5.101294E-17	2.744730E-18
2.125984E+03	5.128015E-17	2.741839E-18
2.165354E+03	5.247203E-17	2.787460E-18
2.204724E+03	5.468592E-17	2.885734E-18
2.244094E+03	5.781209E-17	3.029761E-18
2.283465E+03	6.163704E-17	3.207350E-18
2.322835E+03	6.592611E-17	3.405493E-18
2.362205E+03	7.052379E-17	3.615563E-18
2.401575E+03	7.531972E-17	3.831450E-18
2.440945E+03	8.027892E-17	4.051009E-18
2.480315E+03	8.539445E-17	4.273544E-18
2.519685E+03	9.067709E-17	4.499234E-18
2.559055E+03	9.615124E-17	4.728903E-18
2.598425E+03	1.018327E-16	4.962896E-18
2.637795E+03	1.077604E-16	5.202635E-18
2.677165E+03	1.139443E-16	5.448072E-18
2.716535E+03	1.204174E-16	5.700201E-18
2.755906E+03	1.272072E-16	5.959695E-18
2.795276E+03	1.343376E-16	6.226970E-18
2.834646E+03	1.418642E-16	6.503832E-18
2.874016E+03	1.498595E-16	6.792712E-18
2.913386E+03	1.584265E-16	7.097234E-18
2.952756E+03	1.676974E-16	7.422056E-18
2.962598E+03	1.701496E-16	7.507348E-18
2.972441E+03	1.726527E-16	7.594087E-18
2.982283E+03	1.752135E-16	7.682555E-18
2.992126E+03	1.778452E-16	7.773290E-18
3.001969E+03	1.805449E-16	7.866142E-18
3.011811E+03	1.833160E-16	7.961216E-18
3.021654E+03	1.861712E-16	8.059026E-18
3.031496E+03	1.891062E-16	8.159351E-18
3.041339E+03	1.921254E-16	8.262337E-18
3.051181E+03	1.952480E-16	8.368763E-18
3.061024E+03	1.984750E-16	8.478621E-18
3.070866E+03	2.018190E-16	8.592402E-18
3.080709E+03	2.052763E-16	8.709886E-18
3.090551E+03	2.088604E-16	8.831591E-18
3.100394E+03	2.125684E-16	8.957330E-18
3.110236E+03	2.164034E-16	9.087169E-18
3.120079E+03	2.203862E-16	9.221919E-18
3.129921E+03	2.245097E-16	9.361207E-18
3.139764E+03	2.287901E-16	9.505637E-18
3.149606E+03	2.332328E-16	9.655355E-18
3.159449E+03	2.378440E-16	9.810535E-18
3.169291E+03	2.426364E-16	9.971609E-18
3.179134E+03	2.476174E-16	1.013880E-17
3.188976E+03	2.528073E-16	1.031282E-17
3.198819E+03	2.582037E-16	1.049349E-17
3.208661E+03	2.638285E-16	1.068157E-17
3.218504E+03	2.696930E-16	1.087741E-17
3.228346E+03	2.758154E-16	1.108162E-17
3.238189E+03	2.822031E-16	1.129436E-17
3.248031E+03	2.888765E-16	1.151631E-17
3.257874E+03	2.958511E-16	1.174794E-17
3.267717E+03	3.031496E-16	1.198998E-17
3.277559E+03	3.107896E-16	1.224298E-17
3.287402E+03	3.187837E-16	1.250723E-17
3.297244E+03	3.271573E-16	1.278355E-17
3.307087E+03	3.359240E-16	1.307228E-17
3.316929E+03	3.451099E-16	1.337422E-17
3.326772E+03	3.547285E-16	1.368967E-17
3.336614E+03	3.647982E-16	1.401910E-17
3.346457E+03	3.753293E-16	1.436268E-17
3.356299E+03	3.863348E-16	1.472065E-17
3.366142E+03	3.978160E-16	1.509282E-17
3.375984E+03	4.097719E-16	1.547888E-17
3.385827E+03	4.221693E-16	1.587733E-17
3.395669E+03	4.349871E-16	1.628714E-17
3.405512E+03	4.481702E-16	1.670602E-17
3.415354E+03	4.616468E-16	1.713111E-17
3.425197E+03	4.753425E-16	1.755947E-17
3.435039E+03	4.891482E-16	1.798697E-17
3.444882E+03	5.029503E-16	1.840937E-17
3.454724E+03	5.166390E-16	1.882264E-17
3.464567E+03	5.300694E-16	1.922157E-17
3.474409E+03	5.431258E-16	1.960209E-17
3.484252E+03	5.556632E-16	1.995915E-17
3.494094E+03	5.675679E-16	2.028895E-17
3.503937E+03	5.787050E-16	2.058699E-17
3.513780E+03	5.889694E-16	2.084993E-17
3.523622E+03	5.982569E-16	2.107453E-17
3.533465E+03	6.064838E-16	2.125837E-17
3.543307E+03	6.135720E-16	2.139927E-17
3.553150E+03	6.194511E-16	2.149537E-17
3.562992E+03	6.240923E-16	2.154629E-17
3.572835E+03	6.274553E-16	2.155133E-17
3.582677E+03	6.295428E-16	2.151123E-17
3.592520E+03	6.303663E-16	2.142709E-17
3.602362E+03	6.299766E-16	2.130128E-17
3.612205E+03	6.284254E-16	2.113620E-17
3.622047E+03	6.257957E-16	2.093526E-17
3.631890E+03	6.221958E-16	2.070266E-17
3.641732E+03	6.177314E-16	2.044242E-17
3.651575E+03	6.125449E-16	2.015972E-17
3.661417E+03	6.067685E-16	1.985929E-17
3.671260E+03	6.005643E-16	1.954673E-17
3.681102E+03	5.940997E-16	1.922772E-17
3.690945E+03	5.875430E-16	1.890782E-17
3.700787E+03	5.810797E-16	1.859305E-17
3.710630E+03	5.748959E-16	1.828927E-17
3.720472E+03	5.691832E-16	1.800242E-17
3.730315E+03	5.641223E-16	1.773791E-17
3.740157E+03	5.598919E-16	1.750101E-17
3.750000E+03	5.566535E-16	1.729625E-17
3.759843E+03	5.545827E-16	1.712854E-17
3.769685E+03	5.538207E-16	1.700155E-17
3.779528E+03	5.545280E-16	1.691946E-17
3.789370E+03	5.568307E-16	1.688528E-17
3.799213E+03	5.608482E-16	1.690170E-17
3.809055E+03	5.666664E-16	1.697034E-17
3.818898E+03	5.743607E-16	1.709242E-17
3.828740E+03	5.839510E-16	1.726748E-17
3.838583E+03	5.954201E-16	1.749392E-17
3.848425E+03	6.087198E-16	1.776927E-17
3.858268E+03	6.237285E-16	1.808897E-17
3.868110E+03	6.402697E-16	1.844694E-17
3.877953E+03	6.581198E-16	1.883591E-17
3.887795E+03	6.769909E-16	1.924695E-17
3.897638E+03	6.965363E-16	1.966968E-17
3.907480E+03	7.163677E-16	2.009282E-17
3.917323E+03	7.360693E-16	2.050463E-17
3.927165E+03	7.552187E-16	2.089348E-17
3.937008E+03	7.733869E-16	2.124792E-17
3.946850E+03	7.901798E-16	2.155777E-17
3.956693E+03	8.052427E-16	2.181422E-17
3.966535E+03	8.182772E-16	2.201024E-17
3.976378E+03	8.290824E-16	2.214166E-17
3.986220E+03	8.375084E-16	2.220579E-17
3.996063E+03	8.435197E-16	2.220310E-17
4.005906E+03	8.471326E-16	2.213541E-17
4.015748E+03	8.484831E-16	2.200765E-17
4.025591E+03	8.477468E-16	2.182568E-17
4.035433E+03	8.451730E-16	2.159708E-17
4.045276E+03	8.410553E-16	2.133038E-17
4.055118E+03	8.357127E-16	2.103452E-17
4.064961E+03	8.294804E-16	2.071859E-17
4.074803E+03	8.226821E-16	2.039116E-17
4.084646E+03	8.156074E-16	2.005968E-17
4.094488E+03	8.085112E-16	1.973056E-17
4.104331E+03	8.016135E-16	1.940915E-17
4.114173E+03	7.950764E-16	1.909926E-17
4.124016E+03	7.890039E-16	1.880317E-17
4.133858E+03	7.834423E-16	1.852173E-17
4.143701E+03	7.784021E-16	1.825492E-17
4.153543E+03	7.738498E-16	1.800168E-17
4.163386E+03	7.697120E-16	1.776007E-17
4.173228E+03	7.658753E-16	1.752726E-17
4.183071E+03	7.622354E-16	1.730076E-17
4.192913E+03	7.586367E-16	1.707697E-17
4.202756E+03	7.549377E-16	1.685272E-17
4.212598E+03	7.509940E-16	1.662491E-17
4.222441E+03	7.466417E-16	1.639009E-17
4.232283E+03	7.417423E-16	1.614550E-17
4.242126E+03	7.361577E-16	1.588849E-17
4.251969E+03	7.297741E-16	1.561700E-17
4.261811E+03	7.225054E-16	1.532968E-17
4.271654E+03	7.142985E-16	1.502591E-17
4.281496E+03	7.051499E-16	1.470613E-17
4.291339E+03	6.951253E-16	1.437223E-17
4.301181E+03	6.843774E-16	1.402780E-17
4.311024E+03	6.731137E-16	1.367746E-17
4.320866E+03	6.616017E-16	1.332686E-17
4.330709E+03	6.501802E-16	1.298290E-17
4.340551E+03	6.392067E-16	1.265260E-17
4.350394E+03	6.290700E-16	1.234334E-17
4.360236E+03	6.201574E-16	1.206223E-17
4.370079E+03	6.128484E-16	1.181596E-17
4.379921E+03	6.075045E-16	1.161061E-17
4.389764E+03	6.044319E-16	1.145101E-17
4.399606E+03	6.039145E-16	1.134138E-17
4.409449E+03	6.061684E-16	1.128451E-17
4.419291E+03	6.113465E-16	1.128191E-17
4.429134E+03	6.195512E-16	1.133409E-17
4.438976E+03	6.308186E-16	1.144036E-17
4.448819E+03	6.451354E-16	1.159911E-17
4.458661E+03	6.624073E-16	1.180736E-17
4.468504E+03	6.824805E-16	1.206119E-17
4.478346E+03	7.051143E-16	1.235525E-17
4.488189E+03	7.299735E-16	1.268278E-17
4.498031E+03	7.566263E-16	1.303555E-17
4.507874E+03	7.845587E-16	1.340425E-17
4.517717E+03	8.131595E-16	1.377821E-17
4.527559E+03	8.417567E-16	1.414613E-17
4.537402E+03	8.696539E-16	1.449669E-17
4.547244E+03	8.961167E-16	1.481829E-17
4.557087E+03	9.204204E-16	1.509991E-17
4.566929E+03	9.419133E-16	1.533205E-17
4.576772E+03	9.599992E-16	1.550640E-17
4.586614E+03	9.741908E-16	1.561665E-17
4.596457E+03	9.841061E-16	1.565836E-17
4.606299E+03	9.895139E-16	1.562955E-17
4.616142E+03	9.902881E-16	1.552993E-17
4.625984E+03	9.864246E-16	1.536109E-17
4.635827E+03	9.780152E-16	1.512601E-17
4.645669E+03	9.652846E-16	1.482956E-17
4.655512E+03	9.485198E-16	1.447739E-17
4.665354E+03	9.280836E-16	1.407611E-17
4.675197E+03	9.044020E-16	1.363303E-17
4.685039E+03	8.780195E-16	1.315700E-17
4.694882E+03	8.494700E-16	1.265637E-17
4.704724E+03	8.193621E-16	1.214036E-17
4.714567E+03	7.883516E-16	1.161862E-17
4.724409E+03	7.571086E-16	1.110084E-17
4.734252E+03	7.262665E-16	1.059592E-17
4.744094E+03	6.964315E-16	1.011224E-17
4.753937E+03	6.681438E-16	9.657051E-18
4.763780E+03	6.418395E-16	9.236005E-18
4.773622E+03	6.178572E-16	8.853294E-18
4.783465E+03	5.964492E-16	8.511832E-18
4.793307E+03	5.777791E-16	8.213268E-18
4.803150E+03	5.619608E-16	7.958557E-18
4.812992E+03	5.490594E-16	7.747993E-18
4.822835E+03	5.390864E-16	7.581143E-18
4.832677E+03	5.320092E-16	7.457008E-18
4.842520E+03	5.277722E-16	7.374305E-18
4.852362E+03	5.262680E-16	7.331087E-18
4.862205E+03	5.273347E-16	7.324693E-18
4.872047E+03	5.307826E-16	7.352143E-18
4.881890E+03	5.363445E-16	7.409434E-18
4.891732E+03	5.436960E-16	7.491837E-18
4.901575E+03	5.524515E-16	7.593848E-18
4.911417E+03	5.622017E-16	7.709694E-18
4.921260E+03	5.725461E-16	7.833790E-18
4.931102E+03	5.830856E-16	7.960617E-18
4.940945E+03	5.934754E-16	8.085445E-18
4.950787E+03	6.034469E-16	8.204618E-18
4.960630E+03	6.128265E-16	8.315793E-18
4.970472E+03	6.215229E-16	8.417756E-18
4.980315E+03	6.295469E-16	8.510674E-18
4.990157E+03	6.370092E-16	8.596063E-18
5.000000E+03	6.440826E-16	8.676255E-18
5.009843E+03	6.509669E-16	8.753928E-18
5.019685E+03	6.579113E-16	8.832406E-18
5.029528E+03	6.651696E-16	8.915047E-18
5.039370E+03	6.729787E-16	9.004965E-18
5.049213E+03	6.815741E-16	9.105229E-18
5.059055E+03	6.911103E-16	9.217816E-18
5.068898E+03	7.016664E-16	9.343678E-18
5.078740E+03	7.132411E-16	9.482697E-18
5.088583E+03	7.258094E-16	9.634438E-18
5.098425E+03	7.393024E-16	9.797886E-18
5.108268E+03	7.536474E-16	9.971980E-18
5.118110E+03	7.687621E-16	1.015554E-17
5.127953E+03	7.845864E-16	1.034768E-17
5.137795E+03	8.010952E-16	1.054797E-17
5.147638E+03	8.182458E-16	1.075578E-17
5.157480E+03	8.359987E-16	1.097049E-17
5.167323E+03	8.543216E-16	1.119158E-17
5.177165E+03	8.731318E-16	1.141791E-17
5.187008E+03	8.923183E-16	1.164791E-17
5.196850E+03	9.116968E-16	1.187913E-17
5.206693E+03	9.310594E-16	1.210880E-17
5.216535E+03	9.501404E-16	1.233340E-17
5.226378E+03	9.686366E-16	1.254899E-17
5.236220E+03	9.862005E-16	1.275107E-17
5.246063E+03	1.002523E-15	1.293568E-17
5.255906E+03	1.017275E-15	1.309861E-17
5.265748E+03	1.030155E-15	1.323610E-17
5.275591E+03	1.040939E-15	1.334540E-17
5.285433E+03	1.049433E-15	1.342415E-17
5.295276E+03	1.055545E-15	1.347136E-17
5.305118E+03	1.059229E-15	1.348664E-17
5.314961E+03	1.060539E-15	1.347084E-17
5.324803E+03	1.059613E-15	1.342591E-17
5.334646E+03	1.056636E-15	1.335436E-17
5.344488E+03	1.051877E-15	1.325971E-17
5.354331E+03	1.045646E-15	1.314607E-17
5.364173E+03	1.038251E-15	1.301738E-17
5.374016E+03	1.030022E-15	1.287791E-17
5.383858E+03	1.021242E-15	1.273125E-17
5.393701E+03	1.012135E-15	1.258025E-17
5.403543E+03	1.002892E-15	1.242732E-17
5.413386E+03	9.936417E-16	1.227407E-17
5.423228E+03	9.844755E-16	1.212163E-17
5.433071E+03	9.753898E-16	1.196996E-17
5.442913E+03	9.663585E-16	1.181874E-17
5.452756E+03	9.573170E-16	1.166720E-17
5.462598E+03	9.481371E-16	1.151380E-17
5.472441E+03	9.387201E-16	1.135738E-17
5.482283E+03	9.289104E-16	1.119614E-17
5.492126E+03	9.185892E-16	1.102872E-17
5.501969E+03	9.076393E-16	1.085382E-17
5.511811E+03	8.959713E-16	1.067052E-17
5.521654E+03	8.835165E-16	1.047814E-17
5.531496E+03	8.702373E-16	1.027640E-17
5.541339E+03	8.560925E-16	1.006500E-17
5.551181E+03	8.410959E-16	9.844279E-18
5.561024E+03	8.252737E-16	9.614743E-18
5.570866E+03	8.086751E-16	9.377156E-18
5.580709E+03	7.914044E-16	9.132914E-18
5.590551E+03	7.735790E-16	8.883545E-18
5.600394E+03	7.553706E-16	8.631176E-18
5.610236E+03	7.369908E-16	8.378347E-18
5.620079E+03	7.186961E-16	8.128062E-18
5.629921E+03	7.007966E-16	7.883865E-18
5.639764E+03	6.836314E-16	7.649549E-18
5.649606E+03	6.675580E-16	7.429028E-18
5.659449E+03	6.529607E-16	7.226419E-18
5.669291E+03	6.402034E-16	7.045516E-18
5.679134E+03	6.296278E-16	6.889774E-18
5.688976E+03	6.215435E-16	6.762207E-18
5.698819E+03	6.162063E-16	6.665160E-18
5.708661E+03	6.138339E-16	6.600507E-18
5.718504E+03	6.145391E-16	6.568934E-18
5.728346E+03	6.183860E-16	6.570584E-18
5.738189E+03	6.253743E-16	6.604905E-18
5.748031E+03	6.353679E-16	6.669921E-18
5.757874E+03	6.481442E-16	6.762798E-18
5.767717E+03	6.633678E-16	6.879599E-18
5.777559E+03	6.805894E-16	7.015307E-18
5.787402E+03	6.992593E-16	7.164010E-18
5.797244E+03	7.187003E-16	7.318643E-18
5.807087E+03	7.381896E-16	7.471871E-18
5.816929E+03	7.569325E-16	7.615820E-18
5.826772E+03	7.741231E-16	7.742711E-18
5.836614E+03	7.890439E-16	7.845838E-18
5.846457E+03	8.010676E-16	7.919554E-18
5.856299E+03	8.096969E-16	7.959625E-18
5.866142E+03	8.146857E-16	7.964367E-18
5.875984E+03	8.159563E-16	7.933761E-18
5.885827E+03	8.136105E-16	7.869510E-18
5.895669E+03	8.079541E-16	7.775221E-18
5.905512E+03	7.993943E-16	7.655373E-18
5.915354E+03	7.884090E-16	7.515002E-18
5.925197E+03	7.755283E-16	7.359513E-18
5.935039E+03	7.612864E-16	7.194226E-18
5.944882E+03	7.461863E-16	7.024047E-18
5.954724E+03	7.306919E-16	6.853421E-18
5.964567E+03	7.152341E-16	6.686396E-18
5.974409E+03	7.001616E-16	6.526190E-18
5.984252E+03	6.857609E-16	6.375398E-18
5.994094E+03	6.722409E-16	6.235869E-18
6.003937E+03	6.597566E-16	6.108941E-18
6.013780E+03	6.483605E-16	5.995006E-18
6.023622E+03	6.380460E-16	5.893919E-18
6.033465E+03	6.287530E-16	5.805062E-18
6.043307E+03	6.203200E-16	5.726894E-18
6.053150E+03	6.125229E-16	5.657311E-18
6.062992E+03	6.051160E-16	5.593974E-18
6.072835E+03	5.978327E-16	5.534259E-18
6.082677E+03	5.903831E-16	5.475305E-18
6.092520E+03	5.825373E-16	5.414787E-18
6.102362E+03	5.740638E-16	5.350338E-18
6.112205E+03	5.648160E-16	5.280350E-18
6.122047E+03	5.547368E-16	5.204026E-18
6.131890E+03	5.438715E-16	5.121512E-18
6.141732E+03	5.323760E-16	5.033996E-18
6.151575E+03	5.204945E-16	4.943521E-18
6.161417E+03	5.085354E-16	4.852783E-18
6.171260E+03	4.968691E-16	4.765133E-18
6.181102E+03	4.858798E-16	4.684136E-18
6.190945E+03	4.759404E-16	4.613342E-18
6.200787E+03	4.673762E-16	4.555936E-18
6.210630E+03	4.604859E-16	4.514936E-18
6.220472E+03	4.554545E-16	4.492336E-18
6.230315E+03	4.524024E-16	4.489553E-18
6.240157E+03	4.513766E-16	4.507326E-18
6.250000E+03	4.522845E-16	4.545024E-18
6.259843E+03	4.549663E-16	4.601333E-18
6.269685E+03	4.592070E-16	4.674346E-18
6.279528E+03	4.647537E-16	4.761725E-18
6.289370E+03	4.712995E-16	4.860513E-18
6.299213E+03	4.785193E-16	4.967487E-18
6.309055E+03	4.860486E-16	5.078922E-18
6.318898E+03	4.935152E-16	5.190915E-18
6.328740E+03	5.005578E-16	5.299573E-18
6.338583E+03	5.068602E-16	5.401384E-18
6.348425E+03	5.121364E-16	5.493070E-18
6.358268E+03	5.161742E-16	5.572067E-18
6.368110E+03	5.188329E-16	5.636535E-18
6.377953E+03	5.200457E-16	5.685403E-18
6.387795E+03	5.198236E-16	5.718440E-18
6.397638E+03	5.182298E-16	5.736005E-18
6.407480E+03	5.154224E-16	5.739536E-18
6.417323E+03	5.115847E-16	5.730802E-18
6.427165E+03	5.069844E-16	5.712578E-18
6.437008E+03	5.018985E-16	5.687828E-18
6.446850E+03	4.966151E-16	5.659714E-18
6.456693E+03	4.914308E-16	5.631577E-18
6.466535E+03	4.866193E-16	5.606572E-18
6.476378E+03	4.824133E-16	5.587448E-18
6.486220E+03	4.790102E-16	5.576598E-18
6.496063E+03	4.765399E-16	5.575670E-18
6.505906E+03	4.751060E-16	5.586032E-18
6.515748E+03	4.747077E-16	5.607830E-18
6.525591E+03	4.753228E-16	5.640956E-18
6.535433E+03	4.768657E-16	5.684530E-18
6.545276E+03	4.792386E-16	5.737502E-18
6.555118E+03	4.823050E-16	5.798332E-18
6.564961E+03	4.859295E-16	5.865456E-18
6.574803E+03	4.899503E-16	5.936963E-18
6.584646E+03	4.942036E-16	6.010884E-18
6.594488E+03	4.985275E-16	6.085239E-18
6.604331E+03	5.027413E-16	6.157791E-18
6.614173E+03	5.066731E-16	6.226383E-18
6.624016E+03	5.101703E-16	6.289067E-18
6.633858E+03	5.130838E-16	6.343926E-18
6.643701E+03	5.152930E-16	6.389376E-18
6.653543E+03	5.166987E-16	6.424093E-18
6.663386E+03	5.172286E-16	6.447082E-18
6.673228E+03	5.168455E-16	6.457789E-18
6.683071E+03	5.155226E-16	6.455798E-18
6.692913E+03	5.132810E-16	6.441298E-18
6.702756E+03	5.101430E-16	6.414510E-18
6.712598E+03	5.061892E-16	6.376402E-18
6.722441E+03	5.015058E-16	6.328028E-18
6.732283E+03	4.961790E-16	6.270460E-18
6.742126E+03	4.903508E-16	6.205490E-18
6.751969E+03	4.841215E-16	6.134400E-18
6.761811E+03	4.776476E-16	6.059196E-18
6.771654E+03	4.710355E-16	5.981259E-18
6.781496E+03	4.644385E-16	5.902575E-18
6.791339E+03	4.579633E-16	5.824547E-18
6.801181E+03	4.517250E-16	5.748684E-18
6.811024E+03	4.458363E-16	5.676471E-18
6.820866E+03	4.403925E-16	5.609170E-18
6.830709E+03	4.354818E-16	5.547952E-18
6.840551E+03	4.311857E-16	5.493896E-18
6.850394E+03	4.275708E-16	5.447891E-18
6.860236E+03	4.247184E-16	5.411006E-18
6.870079E+03	4.226674E-16	5.383765E-18
6.879921E+03	4.214686E-16	5.366838E-18
6.889764E+03	4.211498E-16	5.360593E-18
6.899606E+03	4.217224E-16	5.365188E-18
6.909449E+03	4.231550E-16	5.380227E-18
6.919291E+03	4.254229E-16	5.405400E-18
6.929134E+03	4.284441E-16	5.439660E-18
6.938976E+03	4.321176E-16	5.481729E-18
6.948819E+03	4.363171E-16	5.530001E-18
6.958661E+03	4.408923E-16	5.582579E-18
6.968504E+03	4.456554E-16	5.637096E-18
6.978346E+03	4.504252E-16	5.691282E-18
6.988189E+03	4.549975E-16	5.742587E-18
6.998031E+03	4.591883E-16	5.788733E-18
7.007874E+03	4.628231E-16	5.827576E-18
7.017717E+03	4.657488E-16	5.857257E-18
7.027559E+03	4.678646E-16	5.876583E-18
7.037402E+03	4.691042E-16	5.884810E-18
7.047244E+03	4.694561E-16	5.881882E-18
7.057087E+03	4.689649E-16	5.868453E-18
7.066929E+03	4.676875E-16	5.845323E-18
7.076772E+03	4.657465E-16	5.814113E-18
7.086614E+03	4.632901E-16	5.776756E-18
7.096457E+03	4.604596E-16	5.735086E-18
7.106299E+03	4.574061E-16	5.691052E-18
7.116142E+03	4.542836E-16	5.646631E-18
7.125984E+03	4.512073E-16	5.603308E-18
7.135827E+03	4.482767E-16	5.562368E-18
7.145669E+03	4.455450E-16	5.524519E-18
7.155512E+03	4.430572E-16	5.490368E-18
7.165354E+03	4.408168E-16	5.460006E-18
7.175197E+03	4.388047E-16	5.433246E-18
7.185039E+03	4.369774E-16	5.409603E-18
7.194882E+03	4.353068E-16	5.388783E-18
7.204724E+03	4.337205E-16	5.369949E-18
7.214567E+03	4.321736E-16	5.352601E-18
7.224409E+03	4.306157E-16	5.336173E-18
7.234252E+03	4.290014E-16	5.320154E-18
7.244094E+03	4.272920E-16	5.304123E-18
7.253937E+03	4.254594E-16	5.287775E-18
7.263780E+03	4.234849E-16	5.270926E-18
7.273622E+03	4.213710E-16	5.253644E-18
7.283465E+03	4.191052E-16	5.235811E-18
7.293307E+03	4.167233E-16	5.217903E-18
7.303150E+03	4.142494E-16	5.200251E-18
7.312992E+03	4.117120E-16	5.183236E-18
7.322835E+03	4.091339E-16	5.167171E-18
7.332677E+03	4.065476E-16	5.152490E-18
7.342520E+03	4.039816E-16	5.139576E-18
7.352362E+03	4.014626E-16	5.128794E-18
7.362205E+03	3.990134E-16	5.120461E-18
7.372047E+03	3.966487E-16	5.114795E-18
7.381890E+03	3.943789E-16	5.111950E-18
7.391732E+03	3.922102E-16	5.111986E-18
7.401575E+03	3.901318E-16	5.114724E-18
7.411417E+03	3.881535E-16	5.120254E-18
7.421260E+03	3.862418E-16	5.128095E-18
7.431102E+03	3.843826E-16	5.138019E-18
7.440945E+03	3.825487E-16	5.149611E-18
7.450787E+03	3.807225E-16	5.162582E-18
7.460630E+03	3.788645E-16	5.176332E-18
7.470472E+03	3.769692E-16	5.190717E-18
7.480315E+03	3.750378E-16	5.205678E-18
7.490157E+03	3.730509E-16	5.220871E-18
7.500000E+03	3.710304E-16	5.236525E-18
7.509843E+03	3.689663E-16	5.252421E-18
7.519685E+03	3.668887E-16	5.268916E-18
7.529528E+03	3.648034E-16	5.286027E-18
7.539370E+03	3.627276E-16	5.303944E-18
7.549213E+03	3.606827E-16	5.322925E-18
7.559055E+03	3.586840E-16	5.343153E-18
7.568898E+03	3.567881E-16	5.365446E-18
7.578740E+03	3.550067E-16	5.389966E-18
7.588583E+03	3.533918E-16	5.417513E-18
7.598425E+03	3.519967E-16	5.448933E-18
7.608268E+03	3.508468E-16	5.484679E-18
7.618110E+03	3.500012E-16	5.525750E-18
7.627953E+03	3.494939E-16	5.572790E-18
7.637795E+03	3.493284E-16	5.625981E-18
