#wls	flux	fluxerr
1.574803E+03	2.114940E-17	1.427735E-18
1.614173E+03	2.120719E-17	1.419046E-18
1.653543E+03	2.122118E-17	1.407108E-18
1.692913E+03	2.119408E-17	1.392172E-18
1.732283E+03	2.113072E-17	1.374629E-18
1.771654E+03	2.102118E-17	1.353909E-18
1.811024E+03	2.086002E-17	1.329757E-18
1.850394E+03	2.063289E-17	1.301375E-18
1.889764E+03	2.032743E-17	1.268132E-18
1.929134E+03	1.993369E-17	1.229588E-18
1.968504E+03	1.945498E-17	1.186145E-18
2.007874E+03	1.891512E-17	1.139441E-18
2.047244E+03	1.837877E-17	1.093478E-18
2.086614E+03	1.795114E-17	1.054450E-18
2.125984E+03	1.775072E-17	1.028998E-18
2.165354E+03	1.786292E-17	1.021490E-18
2.204724E+03	1.830055E-17	1.031909E-18
2.244094E+03	1.900873E-17	1.056411E-18
2.283465E+03	1.989533E-17	1.089264E-18
2.322835E+03	2.087703E-17	1.125504E-18
2.362205E+03	2.189370E-17	1.161665E-18
2.401575E+03	2.291135E-17	1.195849E-18
2.440945E+03	2.391744E-17	1.227377E-18
2.480315E+03	2.491059E-17	1.256180E-18
2.519685E+03	2.588700E-17	1.282076E-18
2.559055E+03	2.685538E-17	1.305510E-18
2.598425E+03	2.781957E-17	1.326666E-18
2.637795E+03	2.878299E-17	1.345699E-18
2.677165E+03	2.975603E-17	1.363073E-18
2.716535E+03	3.073535E-17	1.378602E-18
2.755906E+03	3.172973E-17	1.392649E-18
2.795276E+03	3.273706E-17	1.405080E-18
2.834646E+03	3.375486E-17	1.415760E-18
2.874016E+03	3.478288E-17	1.424662E-18
2.913386E+03	3.582317E-17	1.431855E-18
2.952756E+03	3.688001E-17	1.437499E-18
2.962598E+03	3.714704E-17	1.438676E-18
2.972441E+03	3.741566E-17	1.439776E-18
2.982283E+03	3.768823E-17	1.440889E-18
2.992126E+03	3.796243E-17	1.441926E-18
3.001969E+03	3.823858E-17	1.442896E-18
3.011811E+03	3.851698E-17	1.443812E-18
3.021654E+03	3.879986E-17	1.444756E-18
3.031496E+03	3.908828E-17	1.445764E-18
3.041339E+03	3.937680E-17	1.446633E-18
3.051181E+03	3.967233E-17	1.447617E-18
3.061024E+03	3.997447E-17	1.448696E-18
3.070866E+03	4.028285E-17	1.449854E-18
3.080709E+03	4.059713E-17	1.451075E-18
3.090551E+03	4.091932E-17	1.452426E-18
3.100394E+03	4.124685E-17	1.453814E-18
3.110236E+03	4.157950E-17	1.455228E-18
3.120079E+03	4.191939E-17	1.456738E-18
3.129921E+03	4.226634E-17	1.458335E-18
3.139764E+03	4.262251E-17	1.460089E-18
3.149606E+03	4.298328E-17	1.461839E-18
3.159449E+03	4.335316E-17	1.463733E-18
3.169291E+03	4.372990E-17	1.465692E-18
3.179134E+03	4.411579E-17	1.467790E-18
3.188976E+03	4.451094E-17	1.470024E-18
3.198819E+03	4.491551E-17	1.472396E-18
3.208661E+03	4.533195E-17	1.474980E-18
3.218504E+03	4.575832E-17	1.477707E-18
3.228346E+03	4.619722E-17	1.480655E-18
3.238189E+03	4.664908E-17	1.483832E-18
3.248031E+03	4.711666E-17	1.487318E-18
3.257874E+03	4.759844E-17	1.491056E-18
3.267717E+03	4.809737E-17	1.495131E-18
3.277559E+03	4.861439E-17	1.499563E-18
3.287402E+03	4.915280E-17	1.504441E-18
3.297244E+03	4.971171E-17	1.509728E-18
3.307087E+03	5.029700E-17	1.515589E-18
3.316929E+03	5.090828E-17	1.521997E-18
3.326772E+03	5.154974E-17	1.529062E-18
3.336614E+03	5.222384E-17	1.536839E-18
3.346457E+03	5.293554E-17	1.545455E-18
3.356299E+03	5.368808E-17	1.554980E-18
3.366142E+03	5.448522E-17	1.565500E-18
3.375984E+03	5.533333E-17	1.577171E-18
3.385827E+03	5.623951E-17	1.590163E-18
3.395669E+03	5.720699E-17	1.604532E-18
3.405512E+03	5.824609E-17	1.620531E-18
3.415354E+03	5.936072E-17	1.638226E-18
3.425197E+03	6.056076E-17	1.657842E-18
3.435039E+03	6.184944E-17	1.679419E-18
3.444882E+03	6.321866E-17	1.702688E-18
3.454724E+03	6.466989E-17	1.727642E-18
3.464567E+03	6.619534E-17	1.754033E-18
3.474409E+03	6.779159E-17	1.781731E-18
3.484252E+03	6.945071E-17	1.810494E-18
3.494094E+03	7.117198E-17	1.840276E-18
3.503937E+03	7.294384E-17	1.870751E-18
3.513780E+03	7.476181E-17	1.901786E-18
3.523622E+03	7.662462E-17	1.933331E-18
3.533465E+03	7.852249E-17	1.965121E-18
3.543307E+03	8.045590E-17	1.997151E-18
3.553150E+03	8.241952E-17	2.029273E-18
3.562992E+03	8.441625E-17	2.061547E-18
3.572835E+03	8.644344E-17	2.093892E-18
3.582677E+03	8.850236E-17	2.126325E-18
3.592520E+03	9.059836E-17	2.158960E-18
3.602362E+03	9.273860E-17	2.191948E-18
3.612205E+03	9.492736E-17	2.225366E-18
3.622047E+03	9.717588E-17	2.259453E-18
3.631890E+03	9.949504E-17	2.294426E-18
3.641732E+03	1.019005E-16	2.330607E-18
3.651575E+03	1.044075E-16	2.368296E-18
3.661417E+03	1.070364E-16	2.407897E-18
3.671260E+03	1.098101E-16	2.449852E-18
3.681102E+03	1.127487E-16	2.494529E-18
3.690945E+03	1.158799E-16	2.542448E-18
3.700787E+03	1.192341E-16	2.594162E-18
3.710630E+03	1.228467E-16	2.650318E-18
3.720472E+03	1.267455E-16	2.711370E-18
3.730315E+03	1.309708E-16	2.778019E-18
3.740157E+03	1.355602E-16	2.850881E-18
3.750000E+03	1.405591E-16	2.930706E-18
3.759843E+03	1.460062E-16	3.018076E-18
3.769685E+03	1.519503E-16	3.113753E-18
3.779528E+03	1.584358E-16	3.218374E-18
3.789370E+03	1.655073E-16	3.332547E-18
3.799213E+03	1.732153E-16	3.456971E-18
3.809055E+03	1.816029E-16	3.592161E-18
3.818898E+03	1.907104E-16	3.738546E-18
3.828740E+03	2.005809E-16	3.896583E-18
3.838583E+03	2.112449E-16	4.066453E-18
3.848425E+03	2.227245E-16	4.248161E-18
3.858268E+03	2.350395E-16	4.441646E-18
3.868110E+03	2.481892E-16	4.646455E-18
3.877953E+03	2.621573E-16	4.861843E-18
3.887795E+03	2.769185E-16	5.086911E-18
3.897638E+03	2.924185E-16	5.320250E-18
3.907480E+03	3.085857E-16	5.560178E-18
3.917323E+03	3.253200E-16	5.804552E-18
3.927165E+03	3.425022E-16	6.050965E-18
3.937008E+03	3.599901E-16	6.296689E-18
3.946850E+03	3.776200E-16	6.538723E-18
3.956693E+03	3.951974E-16	6.773655E-18
3.966535E+03	4.125400E-16	6.998418E-18
3.976378E+03	4.294403E-16	7.209645E-18
3.986220E+03	4.457042E-16	7.404346E-18
3.996063E+03	4.611454E-16	7.579793E-18
4.005906E+03	4.755958E-16	7.733687E-18
4.015748E+03	4.889010E-16	7.864071E-18
4.025591E+03	5.009397E-16	7.969622E-18
4.035433E+03	5.116245E-16	8.049642E-18
4.045276E+03	5.208863E-16	8.103777E-18
4.055118E+03	5.287300E-16	8.132868E-18
4.064961E+03	5.352097E-16	8.138497E-18
4.074803E+03	5.404217E-16	8.122847E-18
4.084646E+03	5.444971E-16	8.088554E-18
4.094488E+03	5.475881E-16	8.038469E-18
4.104331E+03	5.498759E-16	7.975764E-18
4.114173E+03	5.515331E-16	7.903356E-18
4.124016E+03	5.527017E-16	7.823618E-18
4.133858E+03	5.535348E-16	7.738972E-18
4.143701E+03	5.541573E-16	7.651353E-18
4.153543E+03	5.546878E-16	7.562521E-18
4.163386E+03	5.552054E-16	7.473626E-18
4.173228E+03	5.557999E-16	7.385908E-18
4.183071E+03	5.565099E-16	7.299878E-18
4.192913E+03	5.573828E-16	7.216137E-18
4.202756E+03	5.584142E-16	7.134595E-18
4.212598E+03	5.595901E-16	7.055046E-18
4.222441E+03	5.608722E-16	6.977003E-18
4.232283E+03	5.621839E-16	6.899533E-18
4.242126E+03	5.634362E-16	6.821607E-18
4.251969E+03	5.644888E-16	6.741651E-18
4.261811E+03	5.652250E-16	6.658462E-18
4.271654E+03	5.654671E-16	6.570202E-18
4.281496E+03	5.650527E-16	6.475328E-18
4.291339E+03	5.637992E-16	6.372165E-18
4.301181E+03	5.614771E-16	6.258627E-18
4.311024E+03	5.578572E-16	6.132763E-18
4.320866E+03	5.527421E-16	5.993092E-18
4.330709E+03	5.459792E-16	5.838713E-18
4.340551E+03	5.374839E-16	5.669507E-18
4.350394E+03	5.273225E-16	5.486944E-18
4.360236E+03	5.158301E-16	5.295187E-18
4.370079E+03	5.037285E-16	5.102090E-18
4.379921E+03	4.918278E-16	4.915975E-18
4.389764E+03	4.809047E-16	4.744396E-18
4.399606E+03	4.716773E-16	4.593937E-18
4.409449E+03	4.647133E-16	4.469379E-18
4.419291E+03	4.602978E-16	4.372501E-18
4.429134E+03	4.586030E-16	4.303927E-18
4.438976E+03	4.597794E-16	4.264062E-18
4.448819E+03	4.639050E-16	4.252647E-18
4.458661E+03	4.710269E-16	4.269171E-18
4.468504E+03	4.811815E-16	4.313075E-18
4.478346E+03	4.943291E-16	4.383171E-18
4.488189E+03	5.103804E-16	4.477916E-18
4.498031E+03	5.291872E-16	4.595347E-18
4.507874E+03	5.505109E-16	4.732835E-18
4.517717E+03	5.740023E-16	4.886945E-18
4.527559E+03	5.992182E-16	5.053613E-18
4.537402E+03	6.255501E-16	5.227574E-18
4.547244E+03	6.522805E-16	5.402884E-18
4.557087E+03	6.785513E-16	5.572669E-18
4.566929E+03	7.034155E-16	5.729584E-18
4.576772E+03	7.258603E-16	5.865993E-18
4.586614E+03	7.449107E-16	5.974795E-18
4.596457E+03	7.597834E-16	6.050603E-18
4.606299E+03	7.698602E-16	6.089451E-18
4.616142E+03	7.748298E-16	6.089834E-18
4.625984E+03	7.750502E-16	6.055444E-18
4.635827E+03	7.711701E-16	5.992071E-18
4.645669E+03	7.640410E-16	5.906870E-18
4.655512E+03	7.547417E-16	5.808538E-18
4.665354E+03	7.443363E-16	5.705447E-18
4.675197E+03	7.337374E-16	5.604650E-18
4.685039E+03	7.235275E-16	5.510570E-18
4.694882E+03	7.134491E-16	5.421202E-18
4.704724E+03	7.029744E-16	5.332507E-18
4.714567E+03	6.916843E-16	5.241282E-18
4.724409E+03	6.792556E-16	5.144992E-18
4.734252E+03	6.654982E-16	5.042055E-18
4.744094E+03	6.505500E-16	4.933327E-18
4.753937E+03	6.346804E-16	4.820630E-18
4.763780E+03	6.182582E-16	4.706516E-18
4.773622E+03	6.016691E-16	4.593669E-18
4.783465E+03	5.853555E-16	4.485225E-18
4.793307E+03	5.698227E-16	4.384852E-18
4.803150E+03	5.555605E-16	4.296182E-18
4.812992E+03	5.430255E-16	4.222688E-18
4.822835E+03	5.325855E-16	4.167240E-18
4.832677E+03	5.244854E-16	4.131751E-18
4.842520E+03	5.188843E-16	4.117556E-18
4.852362E+03	5.158883E-16	4.125674E-18
4.862205E+03	5.155212E-16	4.156559E-18
4.872047E+03	5.177595E-16	4.210349E-18
4.881890E+03	5.225402E-16	4.286910E-18
4.891732E+03	5.297430E-16	4.385656E-18
4.901575E+03	5.392150E-16	4.505736E-18
4.911417E+03	5.506757E-16	4.645198E-18
4.921260E+03	5.635981E-16	4.799924E-18
4.931102E+03	5.773252E-16	4.964517E-18
4.940945E+03	5.910962E-16	5.132461E-18
4.950787E+03	6.040751E-16	5.296319E-18
4.960630E+03	6.154031E-16	5.448162E-18
4.970472E+03	6.242908E-16	5.580380E-18
4.980315E+03	6.302665E-16	5.687951E-18
4.990157E+03	6.330331E-16	5.767280E-18
5.000000E+03	6.325315E-16	5.816864E-18
5.009843E+03	6.290899E-16	5.838788E-18
5.019685E+03	6.232213E-16	5.836997E-18
5.029528E+03	6.155204E-16	5.816400E-18
5.039370E+03	6.066265E-16	5.782553E-18
5.049213E+03	5.971640E-16	5.741099E-18
5.059055E+03	5.877409E-16	5.697745E-18
5.068898E+03	5.788564E-16	5.657338E-18
5.078740E+03	5.709565E-16	5.624373E-18
5.088583E+03	5.643790E-16	5.602403E-18
5.098425E+03	5.592339E-16	5.592807E-18
5.108268E+03	5.555504E-16	5.596173E-18
5.118110E+03	5.533589E-16	5.613100E-18
5.127953E+03	5.526740E-16	5.644025E-18
5.137795E+03	5.535348E-16	5.689627E-18
5.147638E+03	5.559886E-16	5.750663E-18
5.157480E+03	5.601005E-16	5.828074E-18
5.167323E+03	5.659456E-16	5.922903E-18
5.177165E+03	5.735997E-16	6.036197E-18
5.187008E+03	5.830716E-16	6.168293E-18
5.196850E+03	5.943446E-16	6.319234E-18
5.206693E+03	6.073795E-16	6.488797E-18
5.216535E+03	6.220548E-16	6.675845E-18
5.226378E+03	6.381879E-16	6.878538E-18
5.236220E+03	6.555881E-16	7.094892E-18
5.246063E+03	6.739713E-16	7.321862E-18
5.255906E+03	6.930368E-16	7.556160E-18
5.265748E+03	7.124761E-16	7.794355E-18
5.275591E+03	7.320063E-16	8.033249E-18
5.285433E+03	7.513650E-16	8.269832E-18
5.295276E+03	7.703222E-16	8.501420E-18
5.305118E+03	7.887472E-16	8.726403E-18
5.314961E+03	8.064920E-16	8.942965E-18
5.324803E+03	8.233583E-16	9.148716E-18
5.334646E+03	8.390623E-16	9.340281E-18
5.344488E+03	8.533225E-16	9.514279E-18
5.354331E+03	8.658695E-16	9.667456E-18
5.364173E+03	8.765444E-16	9.797803E-18
5.374016E+03	8.852850E-16	9.904410E-18
5.383858E+03	8.921125E-16	9.987331E-18
5.393701E+03	8.971178E-16	1.004743E-17
5.403543E+03	9.004500E-16	1.008626E-17
5.413386E+03	9.022985E-16	1.010585E-17
5.423228E+03	9.027475E-16	1.010708E-17
5.433071E+03	9.018797E-16	1.009086E-17
5.442913E+03	8.997604E-16	1.005790E-17
5.452756E+03	8.963112E-16	1.000735E-17
5.462598E+03	8.914114E-16	9.937906E-18
5.472441E+03	8.849484E-16	9.848406E-18
5.482283E+03	8.767335E-16	9.736876E-18
5.492126E+03	8.665652E-16	9.601255E-18
5.501969E+03	8.543127E-16	9.440327E-18
5.511811E+03	8.398406E-16	9.252883E-18
5.521654E+03	8.230954E-16	9.038683E-18
5.531496E+03	8.040940E-16	8.798308E-18
5.541339E+03	7.829450E-16	8.533390E-18
5.551181E+03	7.598385E-16	8.246474E-18
5.561024E+03	7.350496E-16	7.941032E-18
5.570866E+03	7.089303E-16	7.621348E-18
5.580709E+03	6.818766E-16	7.292135E-18
5.590551E+03	6.543480E-16	6.958717E-18
5.600394E+03	6.268687E-16	6.627005E-18
5.610236E+03	5.999458E-16	6.302604E-18
5.620079E+03	5.740834E-16	5.990947E-18
5.629921E+03	5.497684E-16	5.697131E-18
5.639764E+03	5.274305E-16	5.425494E-18
5.649606E+03	5.074468E-16	5.179672E-18
5.659449E+03	4.901177E-16	4.962363E-18
5.669291E+03	4.756915E-16	4.775590E-18
5.679134E+03	4.643664E-16	4.620746E-18
5.688976E+03	4.562314E-16	4.498017E-18
5.698819E+03	4.513483E-16	4.407237E-18
5.708661E+03	4.497736E-16	4.348115E-18
5.718504E+03	4.515351E-16	4.320006E-18
5.728346E+03	4.566591E-16	4.322194E-18
5.738189E+03	4.651484E-16	4.353685E-18
5.748031E+03	4.769120E-16	4.412575E-18
5.757874E+03	4.917932E-16	4.496362E-18
5.767717E+03	5.095810E-16	4.602098E-18
5.777559E+03	5.299552E-16	4.725931E-18
5.787402E+03	5.524760E-16	4.863096E-18
5.797244E+03	5.766149E-16	5.008262E-18
5.807087E+03	6.017450E-16	5.155512E-18
5.816929E+03	6.271402E-16	5.298412E-18
5.826772E+03	6.520041E-16	5.430323E-18
5.836614E+03	6.755314E-16	5.544952E-18
5.846457E+03	6.969148E-16	5.636428E-18
5.856299E+03	7.154021E-16	5.699750E-18
5.866142E+03	7.304057E-16	5.731615E-18
5.875984E+03	7.414854E-16	5.730178E-18
5.885827E+03	7.483674E-16	5.695087E-18
5.895669E+03	7.510087E-16	5.627859E-18
5.905512E+03	7.495615E-16	5.531455E-18
5.915354E+03	7.442996E-16	5.409626E-18
5.925197E+03	7.356136E-16	5.266788E-18
5.935039E+03	7.239606E-16	5.107601E-18
5.944882E+03	7.098644E-16	4.936922E-18
5.954724E+03	6.939154E-16	4.759782E-18
5.964567E+03	6.766824E-16	4.580755E-18
5.974409E+03	6.587371E-16	4.404156E-18
5.984252E+03	6.405971E-16	4.233681E-18
5.994094E+03	6.227402E-16	4.072547E-18
6.003937E+03	6.055831E-16	3.923403E-18
6.013780E+03	5.894619E-16	3.788252E-18
6.023622E+03	5.746610E-16	3.668688E-18
6.033465E+03	5.613841E-16	3.565762E-18
6.043307E+03	5.497685E-16	3.480106E-18
6.053150E+03	5.399101E-16	3.412121E-18
6.062992E+03	5.318521E-16	3.361830E-18
6.072835E+03	5.256177E-16	3.329075E-18
6.082677E+03	5.211860E-16	3.313501E-18
6.092520E+03	5.184945E-16	3.314577E-18
6.102362E+03	5.174499E-16	3.331598E-18
6.112205E+03	5.177326E-16	3.362383E-18
6.122047E+03	5.187033E-16	3.402645E-18
6.131890E+03	5.196228E-16	3.447300E-18
6.141732E+03	5.198421E-16	3.491655E-18
6.151575E+03	5.189598E-16	3.532456E-18
6.161417E+03	5.168492E-16	3.568164E-18
6.171260E+03	5.135140E-16	3.598063E-18
6.181102E+03	5.090638E-16	3.622161E-18
6.190945E+03	5.037107E-16	3.641241E-18
6.200787E+03	4.976754E-16	3.656236E-18
6.210630E+03	4.912363E-16	3.668625E-18
6.220472E+03	4.846512E-16	3.679882E-18
6.230315E+03	4.781857E-16	3.691692E-18
6.240157E+03	4.720674E-16	3.705606E-18
6.250000E+03	4.664591E-16	3.722805E-18
6.259843E+03	4.614980E-16	3.744375E-18
6.269685E+03	4.572695E-16	3.771077E-18
6.279528E+03	4.538218E-16	3.803425E-18
6.289370E+03	4.511639E-16	3.841645E-18
6.299213E+03	4.492776E-16	3.885753E-18
6.309055E+03	4.481043E-16	3.935406E-18
6.318898E+03	4.475577E-16	3.989997E-18
6.328740E+03	4.475469E-16	4.048834E-18
6.338583E+03	4.479626E-16	4.111019E-18
6.348425E+03	4.486802E-16	4.175454E-18
6.358268E+03	4.496052E-16	4.241266E-18
6.368110E+03	4.506076E-16	4.307198E-18
6.377953E+03	4.515865E-16	4.372213E-18
6.387795E+03	4.524669E-16	4.435485E-18
6.397638E+03	4.531962E-16	4.496377E-18
6.407480E+03	4.537532E-16	4.554551E-18
6.417323E+03	4.541564E-16	4.610068E-18
6.427165E+03	4.544692E-16	4.663464E-18
6.437008E+03	4.547857E-16	4.715629E-18
6.446850E+03	4.552380E-16	4.767894E-18
6.456693E+03	4.559830E-16	4.821910E-18
6.466535E+03	4.572108E-16	4.879743E-18
6.476378E+03	4.590986E-16	4.943391E-18
6.486220E+03	4.618134E-16	5.014799E-18
6.496063E+03	4.655162E-16	5.095890E-18
6.505906E+03	4.703220E-16	5.188123E-18
6.515748E+03	4.762537E-16	5.291945E-18
6.525591E+03	4.832835E-16	5.407228E-18
6.535433E+03	4.913653E-16	5.533596E-18
6.545276E+03	5.003890E-16	5.669919E-18
6.555118E+03	5.102205E-16	5.814735E-18
6.564961E+03	5.207183E-16	5.966447E-18
6.574803E+03	5.316879E-16	6.122794E-18
6.584646E+03	5.429346E-16	6.281457E-18
6.594488E+03	5.542466E-16	6.439866E-18
6.604331E+03	5.653790E-16	6.595025E-18
6.614173E+03	5.760838E-16	6.743856E-18
6.624016E+03	5.861109E-16	6.883224E-18
6.633858E+03	5.952238E-16	7.010136E-18
6.643701E+03	6.031915E-16	7.121651E-18
6.653543E+03	6.097983E-16	7.215009E-18
6.663386E+03	6.148724E-16	7.287986E-18
6.673228E+03	6.182992E-16	7.339057E-18
6.683071E+03	6.199767E-16	7.366882E-18
6.692913E+03	6.198799E-16	7.371075E-18
6.702756E+03	6.180545E-16	7.352135E-18
6.712598E+03	6.145625E-16	7.310806E-18
6.722441E+03	6.095470E-16	7.248832E-18
6.732283E+03	6.031766E-16	7.168307E-18
6.742126E+03	5.956764E-16	7.072019E-18
6.751969E+03	5.872551E-16	6.962588E-18
6.761811E+03	5.781630E-16	6.843133E-18
6.771654E+03	5.686484E-16	6.716754E-18
6.781496E+03	5.589462E-16	6.586378E-18
6.791339E+03	5.493032E-16	6.455056E-18
6.801181E+03	5.399464E-16	6.325573E-18
6.811024E+03	5.310684E-16	6.200277E-18
6.820866E+03	5.228641E-16	6.081504E-18
6.830709E+03	5.155016E-16	5.971229E-18
6.840551E+03	5.091028E-16	5.870846E-18
6.850394E+03	5.037913E-16	5.781722E-18
6.860236E+03	4.996661E-16	5.704896E-18
6.870079E+03	4.967764E-16	5.640792E-18
6.879921E+03	4.951667E-16	5.589743E-18
6.889764E+03	4.948724E-16	5.551944E-18
6.899606E+03	4.958649E-16	5.526842E-18
6.909449E+03	4.980837E-16	5.513514E-18
6.919291E+03	5.014783E-16	5.511146E-18
6.929134E+03	5.059159E-16	5.518023E-18
6.938976E+03	5.112233E-16	5.532021E-18
6.948819E+03	5.172389E-16	5.551187E-18
6.958661E+03	5.237199E-16	5.572757E-18
6.968504E+03	5.304118E-16	5.593927E-18
6.978346E+03	5.370640E-16	5.612037E-18
6.988189E+03	5.433858E-16	5.624112E-18
6.998031E+03	5.491291E-16	5.627748E-18
7.007874E+03	5.540416E-16	5.620607E-18
7.017717E+03	5.579510E-16	5.601286E-18
7.027559E+03	5.606971E-16	5.568593E-18
7.037402E+03	5.621950E-16	5.522163E-18
7.047244E+03	5.624084E-16	5.462165E-18
7.057087E+03	5.613258E-16	5.389040E-18
7.066929E+03	5.590114E-16	5.303969E-18
7.076772E+03	5.555571E-16	5.208380E-18
7.086614E+03	5.510931E-16	5.104024E-18
7.096457E+03	5.457807E-16	4.992887E-18
7.106299E+03	5.397875E-16	4.876941E-18
7.116142E+03	5.333249E-16	4.758480E-18
7.125984E+03	5.265775E-16	4.639466E-18
7.135827E+03	5.197487E-16	4.521943E-18
7.145669E+03	5.130328E-16	4.407787E-18
7.155512E+03	5.066065E-16	4.298643E-18
7.165354E+03	5.005907E-16	4.195616E-18
7.175197E+03	4.950908E-16	4.099641E-18
7.185039E+03	4.901793E-16	4.011349E-18
7.194882E+03	4.858714E-16	3.930895E-18
7.204724E+03	4.821414E-16	3.858112E-18
7.214567E+03	4.789509E-16	3.792764E-18
7.224409E+03	4.762168E-16	3.734290E-18
7.234252E+03	4.738266E-16	3.681944E-18
7.244094E+03	4.716984E-16	3.635263E-18
7.253937E+03	4.697627E-16	3.593903E-18
7.263780E+03	4.679727E-16	3.557714E-18
7.273622E+03	4.663134E-16	3.526795E-18
7.283465E+03	4.647718E-16	3.501226E-18
7.293307E+03	4.633773E-16	3.481366E-18
7.303150E+03	4.621341E-16	3.467372E-18
7.312992E+03	4.610687E-16	3.459558E-18
7.322835E+03	4.601815E-16	3.458034E-18
7.332677E+03	4.594404E-16	3.462651E-18
7.342520E+03	4.587222E-16	3.472551E-18
7.352362E+03	4.578826E-16	3.486586E-18
7.362205E+03	4.567538E-16	3.503256E-18
7.372047E+03	4.550905E-16	3.520385E-18
7.381890E+03	4.526651E-16	3.535827E-18
7.391732E+03	4.492240E-16	3.547110E-18
7.401575E+03	4.445420E-16	3.551849E-18
7.411417E+03	4.384448E-16	3.547923E-18
7.421260E+03	4.308506E-16	3.533839E-18
7.431102E+03	4.218189E-16	3.509193E-18
7.440945E+03	4.115318E-16	3.474594E-18
7.450787E+03	4.002216E-16	3.431148E-18
7.460630E+03	3.881402E-16	3.380236E-18
7.470472E+03	3.755412E-16	3.323393E-18
7.480315E+03	3.626606E-16	3.262149E-18
7.490157E+03	3.497271E-16	3.198131E-18
7.500000E+03	3.369391E-16	3.132842E-18
7.509843E+03	3.244676E-16	3.067686E-18
7.519685E+03	3.124545E-16	3.003921E-18
7.529528E+03	3.010187E-16	2.942711E-18
7.539370E+03	2.902588E-16	2.885121E-18
7.549213E+03	2.802180E-16	2.831755E-18
7.559055E+03	2.708899E-16	2.782763E-18
7.568898E+03	2.622694E-16	2.738327E-18
7.578740E+03	2.543478E-16	2.698607E-18
7.588583E+03	2.471052E-16	2.663656E-18
7.598425E+03	2.405138E-16	2.633440E-18
7.608268E+03	2.345479E-16	2.607942E-18
7.618110E+03	2.291844E-16	2.587167E-18
7.627953E+03	2.243944E-16	2.571041E-18
7.637795E+03	2.201423E-16	2.559406E-18
