#wls	flux	fluxerr
1.574803E+03	1.866391E-17	1.087045E-18
1.614173E+03	1.871553E-17	1.080528E-18
1.653543E+03	1.872843E-17	1.071554E-18
1.692913E+03	1.870512E-17	1.060322E-18
1.732283E+03	1.864413E-17	1.046807E-18
1.771654E+03	1.854276E-17	1.030920E-18
1.811024E+03	1.839067E-17	1.012160E-18
1.850394E+03	1.817559E-17	9.899488E-19
1.889764E+03	1.789304E-17	9.641581E-19
1.929134E+03	1.753185E-17	9.343184E-19
1.968504E+03	1.709037E-17	9.004941E-19
2.007874E+03	1.659336E-17	8.641323E-19
2.047244E+03	1.609610E-17	8.281966E-19
2.086614E+03	1.569415E-17	7.975584E-19
2.125984E+03	1.548639E-17	7.770117E-19
2.165354E+03	1.555366E-17	7.701908E-19
2.204724E+03	1.590133E-17	7.768158E-19
2.244094E+03	1.647617E-17	7.937516E-19
2.283465E+03	1.719925E-17	8.167736E-19
2.322835E+03	1.799080E-17	8.418230E-19
2.362205E+03	1.880074E-17	8.664269E-19
2.401575E+03	1.959984E-17	8.891989E-19
2.440945E+03	2.037297E-17	9.094673E-19
2.480315E+03	2.111721E-17	9.271423E-19
2.519685E+03	2.183441E-17	9.423525E-19
2.559055E+03	2.253090E-17	9.554124E-19
2.598425E+03	2.320575E-17	9.663189E-19
2.637795E+03	2.386782E-17	9.754756E-19
2.677165E+03	2.452037E-17	9.830358E-19
2.716535E+03	2.516856E-17	9.892202E-19
2.755906E+03	2.581944E-17	9.943090E-19
2.795276E+03	2.647462E-17	9.983576E-19
2.834646E+03	2.713305E-17	1.001321E-18
2.874016E+03	2.778653E-17	1.002902E-18
2.913386E+03	2.844160E-17	1.003355E-18
2.952756E+03	2.909557E-17	1.002598E-18
2.962598E+03	2.925737E-17	1.002170E-18
2.972441E+03	2.942209E-17	1.001770E-18
2.982283E+03	2.958743E-17	1.001319E-18
2.992126E+03	2.975351E-17	1.000822E-18
3.001969E+03	2.992062E-17	1.000288E-18
3.011811E+03	3.008907E-17	9.997262E-19
3.021654E+03	3.025884E-17	9.991364E-19
3.031496E+03	3.043082E-17	9.985473E-19
3.041339E+03	3.060494E-17	9.979559E-19
3.051181E+03	3.078257E-17	9.974056E-19
3.061024E+03	3.096347E-17	9.968869E-19
3.070866E+03	3.114967E-17	9.964637E-19
3.080709E+03	3.133876E-17	9.960560E-19
3.090551E+03	3.153282E-17	9.957289E-19
3.100394E+03	3.173174E-17	9.954761E-19
3.110236E+03	3.193319E-17	9.952229E-19
3.120079E+03	3.213936E-17	9.950362E-19
3.129921E+03	3.235245E-17	9.949812E-19
3.139764E+03	3.256801E-17	9.949188E-19
3.149606E+03	3.279053E-17	9.949841E-19
3.159449E+03	3.301565E-17	9.950423E-19
3.169291E+03	3.325008E-17	9.952938E-19
3.179134E+03	3.348956E-17	9.956066E-19
3.188976E+03	3.373425E-17	9.959838E-19
3.198819E+03	3.398873E-17	9.965569E-19
3.208661E+03	3.424886E-17	9.972005E-19
3.218504E+03	3.451926E-17	9.980461E-19
3.228346E+03	3.479807E-17	9.990346E-19
3.238189E+03	3.508779E-17	1.000233E-18
3.248031E+03	3.538661E-17	1.001586E-18
3.257874E+03	3.569713E-17	1.003161E-18
3.267717E+03	3.602194E-17	1.005025E-18
3.277559E+03	3.635934E-17	1.007124E-18
3.287402E+03	3.671200E-17	1.009524E-18
3.297244E+03	3.708040E-17	1.012232E-18
3.307087E+03	3.746509E-17	1.015253E-18
3.316929E+03	3.786869E-17	1.018651E-18
3.326772E+03	3.829168E-17	1.022429E-18
3.336614E+03	3.873444E-17	1.026587E-18
3.346457E+03	3.919940E-17	1.031179E-18
3.356299E+03	3.968667E-17	1.036197E-18
3.366142E+03	4.020039E-17	1.041738E-18
3.375984E+03	4.073578E-17	1.047664E-18
3.385827E+03	4.129617E-17	1.054051E-18
3.395669E+03	4.188213E-17	1.060902E-18
3.405512E+03	4.249134E-17	1.068144E-18
3.415354E+03	4.312289E-17	1.075746E-18
3.425197E+03	4.377561E-17	1.083668E-18
3.435039E+03	4.444697E-17	1.091839E-18
3.444882E+03	4.514825E-17	1.100527E-18
3.454724E+03	4.587796E-17	1.109681E-18
3.464567E+03	4.664286E-17	1.119452E-18
3.474409E+03	4.744499E-17	1.129873E-18
3.484252E+03	4.829042E-17	1.141069E-18
3.494094E+03	4.917853E-17	1.153006E-18
3.503937E+03	5.011077E-17	1.165699E-18
3.513780E+03	5.108645E-17	1.179112E-18
3.523622E+03	5.210933E-17	1.193311E-18
3.533465E+03	5.317689E-17	1.208214E-18
3.543307E+03	5.429350E-17	1.223898E-18
3.553150E+03	5.545963E-17	1.240349E-18
3.562992E+03	5.667846E-17	1.257613E-18
3.572835E+03	5.794941E-17	1.275652E-18
3.582677E+03	5.928133E-17	1.294634E-18
3.592520E+03	6.067288E-17	1.314499E-18
3.602362E+03	6.213239E-17	1.335397E-18
3.612205E+03	6.366475E-17	1.357400E-18
3.622047E+03	6.527818E-17	1.380646E-18
3.631890E+03	6.697771E-17	1.405202E-18
3.641732E+03	6.877840E-17	1.431337E-18
3.651575E+03	7.068787E-17	1.459162E-18
3.661417E+03	7.271959E-17	1.488898E-18
3.671260E+03	7.488644E-17	1.520748E-18
3.681102E+03	7.720496E-17	1.554980E-18
3.690945E+03	7.969149E-17	1.591846E-18
3.700787E+03	8.236875E-17	1.631716E-18
3.710630E+03	8.525445E-17	1.674847E-18
3.720472E+03	8.837301E-17	1.721613E-18
3.730315E+03	9.175100E-17	1.772415E-18
3.740157E+03	9.541686E-17	1.827676E-18
3.750000E+03	9.939568E-17	1.887733E-18
3.759843E+03	1.037247E-16	1.953139E-18
3.769685E+03	1.084288E-16	2.024192E-18
3.779528E+03	1.135448E-16	2.101394E-18
3.789370E+03	1.191045E-16	2.185135E-18
3.799213E+03	1.251431E-16	2.275844E-18
3.809055E+03	1.316953E-16	2.373921E-18
3.818898E+03	1.387917E-16	2.479672E-18
3.828740E+03	1.464602E-16	2.593335E-18
3.838583E+03	1.547321E-16	2.715189E-18
3.848425E+03	1.636268E-16	2.845292E-18
3.858268E+03	1.731569E-16	2.983568E-18
3.868110E+03	1.833298E-16	3.129850E-18
3.877953E+03	1.941426E-16	3.283791E-18
3.887795E+03	2.055754E-16	3.444757E-18
3.897638E+03	2.175929E-16	3.611882E-18
3.907480E+03	2.301534E-16	3.784208E-18
3.917323E+03	2.431890E-16	3.960387E-18
3.927165E+03	2.566197E-16	4.138909E-18
3.937008E+03	2.703428E-16	4.317962E-18
3.946850E+03	2.842392E-16	4.495534E-18
3.956693E+03	6.135988E-16	9.609037E-18
3.965748E+03	5.617650E-16	8.716872E-18
3.974803E+03	5.270879E-16	8.103432E-18
3.983858E+03	4.966651E-16	7.564821E-18
3.992913E+03	4.904671E-16	7.400528E-18
4.001969E+03	4.985928E-16	7.452213E-18
4.011024E+03	5.244683E-16	7.764495E-18
4.020079E+03	5.590333E-16	8.196995E-18
4.029134E+03	6.047182E-16	8.781346E-18
4.038189E+03	6.392786E-16	9.193000E-18
4.047244E+03	6.639967E-16	9.454972E-18
4.056299E+03	6.684236E-16	9.424134E-18
4.065354E+03	6.412278E-16	8.950878E-18
4.074409E+03	6.188320E-16	8.551811E-18
4.083465E+03	6.028481E-16	8.246965E-18
4.092520E+03	5.466036E-16	7.401653E-18
4.101575E+03	5.174874E-16	6.935783E-18
4.110630E+03	4.824636E-16	6.399851E-18
4.119685E+03	4.629479E-16	6.077401E-18
4.128740E+03	4.431935E-16	5.757462E-18
4.137795E+03	4.263025E-16	5.479989E-18
4.146850E+03	4.189430E-16	5.328614E-18
4.155906E+03	4.133899E-16	5.202248E-18
4.164961E+03	4.050314E-16	5.042750E-18
4.174016E+03	4.075446E-16	5.019706E-18
4.183071E+03	3.927677E-16	4.785660E-18
4.192126E+03	3.844233E-16	4.633391E-18
4.201181E+03	3.721330E-16	4.436622E-18
4.210236E+03	3.642835E-16	4.295789E-18
4.219291E+03	3.616004E-16	4.217620E-18
4.228346E+03	3.634050E-16	4.192308E-18
4.237402E+03	3.563562E-16	4.065945E-18
4.246457E+03	3.563560E-16	4.021332E-18
4.255512E+03	3.566350E-16	3.980295E-18
4.264567E+03	3.546579E-16	3.914771E-18
4.273622E+03	3.618971E-16	3.950851E-18
4.282677E+03	3.603639E-16	3.891013E-18
4.291732E+03	3.567812E-16	3.810221E-18
4.300787E+03	3.468144E-16	3.663423E-18
4.309843E+03	3.321956E-16	3.470922E-18
4.318898E+03	3.186527E-16	3.293469E-18
4.327953E+03	3.078160E-16	3.147319E-18
4.337008E+03	2.934884E-16	2.968847E-18
4.346063E+03	2.780054E-16	2.782508E-18
4.355118E+03	2.707370E-16	2.681399E-18
4.364173E+03	2.669407E-16	2.616432E-18
4.373228E+03	2.701164E-16	2.620489E-18
4.382283E+03	2.701519E-16	2.594406E-18
4.391339E+03	2.743072E-16	2.608155E-18
4.400394E+03	2.815117E-16	2.650504E-18
4.409449E+03	2.844367E-16	2.652288E-18
4.418504E+03	2.898822E-16	2.677474E-18
4.427559E+03	2.836899E-16	2.595846E-18
4.436614E+03	2.790820E-16	2.530221E-18
4.445669E+03	2.788436E-16	2.505166E-18
4.454724E+03	2.788483E-16	2.482836E-18
4.463780E+03	2.810286E-16	2.480198E-18
4.472835E+03	2.865150E-16	2.506617E-18
4.481890E+03	2.983440E-16	2.587668E-18
4.490945E+03	3.141472E-16	2.701579E-18
4.500000E+03	3.312073E-16	2.824341E-18
4.509055E+03	3.480488E-16	2.943246E-18
4.518110E+03	3.646091E-16	3.057853E-18
4.527165E+03	3.873025E-16	3.221605E-18
4.536220E+03	4.118039E-16	3.397602E-18
4.545276E+03	4.356609E-16	3.565458E-18
4.554331E+03	4.595227E-16	3.730613E-18
4.563386E+03	4.829711E-16	3.889735E-18
4.572441E+03	5.055413E-16	4.039224E-18
4.581496E+03	5.302928E-16	4.203529E-18
4.590551E+03	5.555778E-16	4.369312E-18
4.599606E+03	5.816078E-16	4.538153E-18
4.608661E+03	6.011605E-16	4.654035E-18
4.617717E+03	6.181894E-16	4.748535E-18
4.626772E+03	6.256545E-16	4.768471E-18
4.635827E+03	6.326574E-16	4.784395E-18
4.644882E+03	6.331414E-16	4.750947E-18
4.653937E+03	6.294409E-16	4.686656E-18
4.662992E+03	6.238613E-16	4.609281E-18
4.672047E+03	6.140376E-16	4.501803E-18
4.681102E+03	6.050974E-16	4.402249E-18
4.690157E+03	5.939926E-16	4.288461E-18
4.699213E+03	5.827076E-16	4.175015E-18
4.708268E+03	5.677051E-16	4.036791E-18
4.717323E+03	5.539121E-16	3.909157E-18
4.726378E+03	5.392116E-16	3.777088E-18
4.735433E+03	5.208069E-16	3.621277E-18
4.744488E+03	4.973450E-16	3.432942E-18
4.753543E+03	4.703800E-16	3.223470E-18
4.762598E+03	4.374767E-16	2.976762E-18
4.771654E+03	4.015126E-16	2.713045E-18
4.780709E+03	3.693430E-16	2.478647E-18
4.789764E+03	3.404130E-16	2.269238E-18
4.798819E+03	3.139185E-16	2.078963E-18
4.807874E+03	2.930207E-16	1.928215E-18
4.816929E+03	2.783655E-16	1.820440E-18
4.825984E+03	2.700466E-16	1.755437E-18
4.835039E+03	2.687346E-16	1.736773E-18
4.844094E+03	2.699821E-16	1.735083E-18
4.853150E+03	2.734965E-16	1.748244E-18
4.862205E+03	2.781652E-16	1.768981E-18
4.871260E+03	2.809606E-16	1.778062E-18
4.880315E+03	2.852058E-16	1.796629E-18
4.889370E+03	2.918605E-16	1.830608E-18
4.898425E+03	3.044543E-16	1.901855E-18
4.907480E+03	3.246739E-16	2.020441E-18
4.916535E+03	3.512792E-16	2.178186E-18
4.925591E+03	3.922742E-16	2.424199E-18
4.934646E+03	4.480114E-16	2.759866E-18
4.943701E+03	5.146441E-16	3.160842E-18
4.952756E+03	5.880805E-16	3.601625E-18
4.961811E+03	6.585594E-16	4.022392E-18
4.970866E+03	7.175441E-16	4.371401E-18
4.979921E+03	7.611596E-16	4.625713E-18
4.988976E+03	7.855206E-16	4.762488E-18
4.998031E+03	7.831950E-16	4.737580E-18
5.007087E+03	7.626463E-16	4.603120E-18
5.016142E+03	7.230758E-16	4.354950E-18
5.025197E+03	6.748508E-16	4.056033E-18
5.034252E+03	6.249446E-16	3.748445E-18
5.043307E+03	5.758779E-16	3.447268E-18
5.052362E+03	5.373073E-16	3.210112E-18
5.061417E+03	5.130574E-16	3.059380E-18
5.070472E+03	5.006923E-16	2.980064E-18
5.079528E+03	5.013035E-16	2.978247E-18
5.088583E+03	5.172871E-16	3.067726E-18
5.097638E+03	5.412027E-16	3.203997E-18
5.106693E+03	5.684437E-16	3.359636E-18
5.115748E+03	5.889962E-16	3.475517E-18
5.124803E+03	6.055836E-16	3.567938E-18
5.133858E+03	6.188984E-16	3.641151E-18
5.142913E+03	6.237734E-16	3.664953E-18
5.151969E+03	6.225848E-16	3.653551E-18
5.161024E+03	6.202404E-16	3.635906E-18
5.170079E+03	6.177659E-16	3.618106E-18
5.179134E+03	6.131300E-16	3.588332E-18
5.188189E+03	6.136686E-16	3.589582E-18
5.197244E+03	6.157864E-16	3.600868E-18
5.206299E+03	6.255959E-16	3.658015E-18
5.215354E+03	6.399830E-16	3.742938E-18
5.224409E+03	6.659441E-16	3.896757E-18
5.233465E+03	6.970625E-16	4.082239E-18
5.242520E+03	7.305418E-16	4.283352E-18
5.251575E+03	7.740271E-16	4.545362E-18
5.260630E+03	8.214887E-16	4.833479E-18
5.269685E+03	8.696258E-16	5.128841E-18
5.278740E+03	9.160124E-16	5.417629E-18
5.287795E+03	9.584728E-16	5.687357E-18
5.296850E+03	9.928732E-16	5.913674E-18
5.305906E+03	1.020701E-15	6.105369E-18
5.314961E+03	1.043534E-15	6.271645E-18
5.324016E+03	1.062405E-15	6.418327E-18
5.333071E+03	1.079992E-15	6.561254E-18
5.342126E+03	1.094338E-15	6.688255E-18
5.351181E+03	1.106684E-15	6.806485E-18
5.360236E+03	1.115520E-15	6.906216E-18
5.369291E+03	1.121437E-15	6.990533E-18
5.378346E+03	1.115362E-15	7.001911E-18
5.387402E+03	1.101297E-15	6.963810E-18
5.396457E+03	1.075638E-15	6.851913E-18
5.405512E+03	1.049633E-15	6.736491E-18
5.414567E+03	1.025115E-15	6.629061E-18
5.423622E+03	1.002845E-15	6.534562E-18
5.432677E+03	9.794009E-16	6.430629E-18
5.441732E+03	9.618043E-16	6.363350E-18
5.450787E+03	9.500551E-16	6.333427E-18
5.459843E+03	9.442554E-16	6.342270E-18
5.468898E+03	9.460966E-16	6.402077E-18
5.477953E+03	9.550607E-16	6.510320E-18
5.487008E+03	9.646749E-16	6.623476E-18
5.496063E+03	9.718261E-16	6.719966E-18
5.505118E+03	9.693978E-16	6.749737E-18
5.514173E+03	9.576976E-16	6.713450E-18
5.523228E+03	9.356513E-16	6.602130E-18
5.532283E+03	9.056593E-16	6.431350E-18
5.541339E+03	8.705528E-16	6.220267E-18
5.550394E+03	8.347179E-16	5.999773E-18
5.559449E+03	7.993907E-16	5.778774E-18
5.568504E+03	7.649433E-16	5.560112E-18
5.577559E+03	7.300921E-16	5.334604E-18
5.586614E+03	6.930612E-16	5.089270E-18
5.595669E+03	6.517979E-16	4.808861E-18
5.604724E+03	6.100631E-16	4.520979E-18
5.613780E+03	5.668884E-16	4.218561E-18
5.622835E+03	5.205633E-16	3.888904E-18
5.631890E+03	4.706410E-16	3.528630E-18
5.640945E+03	4.206004E-16	3.163897E-18
5.650000E+03	3.699759E-16	2.791479E-18
5.659055E+03	3.222207E-16	2.437768E-18
5.668110E+03	2.805624E-16	2.127723E-18
5.677165E+03	2.466305E-16	1.874328E-18
5.686220E+03	2.221151E-16	1.691047E-18
5.695276E+03	2.067462E-16	1.576370E-18
5.704331E+03	1.980894E-16	1.512125E-18
5.713386E+03	1.976567E-16	1.510100E-18
5.722441E+03	2.032796E-16	1.553877E-18
5.731496E+03	2.126572E-16	1.625891E-18
5.740551E+03	2.237795E-16	1.710722E-18
5.749606E+03	2.375353E-16	1.815070E-18
5.758661E+03	2.524183E-16	1.927301E-18
5.767717E+03	2.682227E-16	2.045714E-18
5.776772E+03	2.869252E-16	2.185221E-18
5.785827E+03	3.048191E-16	2.317407E-18
5.794882E+03	3.243912E-16	2.461038E-18
5.803937E+03	3.440169E-16	2.603598E-18
5.812992E+03	3.619083E-16	2.731449E-18
5.822047E+03	3.772929E-16	2.838762E-18
5.831102E+03	3.888883E-16	2.915996E-18
5.840157E+03	3.958012E-16	2.956697E-18
5.849213E+03	3.986827E-16	2.966068E-18
5.858268E+03	3.974555E-16	2.943903E-18
5.867323E+03	3.927088E-16	2.894975E-18
5.876378E+03	3.854509E-16	2.827101E-18
5.885433E+03	3.760209E-16	2.743106E-18
5.894488E+03	3.642375E-16	2.642017E-18
5.903543E+03	3.524894E-16	2.541448E-18
5.912598E+03	3.417077E-16	2.448161E-18
5.921654E+03	3.312014E-16	2.357198E-18
5.930709E+03	3.216323E-16	2.273284E-18
5.939764E+03	3.124282E-16	2.192347E-18
5.948819E+03	3.039380E-16	2.116840E-18
5.957874E+03	2.952265E-16	2.040259E-18
5.966929E+03	2.867673E-16	1.965962E-18
5.975984E+03	2.781133E-16	1.890936E-18
5.985039E+03	2.685352E-16	1.810364E-18
5.994094E+03	2.599887E-16	1.737547E-18
6.003150E+03	2.512194E-16	1.664056E-18
6.012205E+03	2.429405E-16	1.594673E-18
6.021260E+03	2.348858E-16	1.527635E-18
6.030315E+03	2.278270E-16	1.467925E-18
6.039370E+03	2.217409E-16	1.415262E-18
6.048425E+03	2.176895E-16	1.376229E-18
6.057480E+03	2.155381E-16	1.349655E-18
6.066535E+03	2.147078E-16	1.331653E-18
6.075591E+03	2.152534E-16	1.322371E-18
6.084646E+03	2.152352E-16	1.309813E-18
6.093701E+03	2.148593E-16	1.295374E-18
6.102756E+03	2.152232E-16	1.285722E-18
6.111811E+03	2.144852E-16	1.269889E-18
6.120866E+03	2.132952E-16	1.251916E-18
6.129921E+03	2.121752E-16	1.234959E-18
6.138976E+03	2.116560E-16	1.222122E-18
6.148031E+03	2.123922E-16	1.217124E-18
6.157087E+03	2.150487E-16	1.223648E-18
6.166142E+03	2.201977E-16	1.244773E-18
6.175197E+03	2.262860E-16	1.271578E-18
6.184252E+03	2.341341E-16	1.308610E-18
6.193307E+03	2.420326E-16	1.346268E-18
6.202362E+03	2.488810E-16	1.378520E-18
6.211417E+03	2.557619E-16	1.411465E-18
6.220472E+03	2.588002E-16	1.423829E-18
6.229528E+03	2.601105E-16	1.427422E-18
6.238583E+03	2.589361E-16	1.418160E-18
6.247638E+03	2.564856E-16	1.402702E-18
6.256693E+03	2.539716E-16	1.387657E-18
6.265748E+03	2.527351E-16	1.380302E-18
6.274803E+03	2.528438E-16	1.380939E-18
6.283858E+03	2.540284E-16	1.388038E-18
6.292913E+03	2.568444E-16	1.404588E-18
6.301969E+03	2.626689E-16	1.438107E-18
6.311024E+03	2.685109E-16	1.472222E-18
6.320079E+03	2.760568E-16	1.516159E-18
6.329134E+03	2.847461E-16	1.566851E-18
6.338189E+03	2.941019E-16	1.621671E-18
6.347244E+03	3.040363E-16	1.680123E-18
6.356299E+03	3.162170E-16	1.751428E-18
6.365354E+03	3.299842E-16	1.831971E-18
6.374409E+03	3.450132E-16	1.919969E-18
6.383465E+03	3.610673E-16	2.014108E-18
6.392520E+03	3.768926E-16	2.107375E-18
6.401575E+03	3.923704E-16	2.199046E-18
6.410630E+03	4.081281E-16	2.292586E-18
6.419685E+03	4.196534E-16	2.362555E-18
6.428740E+03	4.297696E-16	2.424683E-18
6.437795E+03	4.352222E-16	2.460487E-18
6.446850E+03	4.374278E-16	2.477806E-18
6.455906E+03	4.368853E-16	2.479355E-18
6.464961E+03	4.395279E-16	2.498777E-18
6.474016E+03	4.343138E-16	2.473292E-18
6.483071E+03	4.268722E-16	2.434805E-18
6.492126E+03	4.259516E-16	2.433260E-18
6.501181E+03	4.334542E-16	2.479742E-18
6.510236E+03	4.482686E-16	2.568122E-18
6.519291E+03	4.746954E-16	2.723285E-18
6.528346E+03	5.100848E-16	2.930331E-18
6.537402E+03	5.521384E-16	3.176315E-18
6.546457E+03	6.016163E-16	3.465874E-18
6.555512E+03	6.563352E-16	3.786733E-18
6.564567E+03	7.135106E-16	4.123127E-18
6.573622E+03	7.733778E-16	4.476728E-18
6.582677E+03	8.344871E-16	4.839516E-18
6.591732E+03	8.982674E-16	5.220205E-18
6.600787E+03	9.610010E-16	5.597684E-18
6.609843E+03	1.021098E-15	5.963140E-18
6.618898E+03	1.079736E-15	6.323912E-18
6.627953E+03	1.133908E-15	6.662891E-18
6.637008E+03	1.183711E-15	6.981063E-18
6.646063E+03	1.239026E-15	7.337359E-18
6.655118E+03	1.294485E-15	7.701056E-18
6.664173E+03	1.353364E-15	8.092628E-18
6.673228E+03	1.408075E-15	8.467733E-18
6.682283E+03	1.457938E-15	8.822822E-18
6.691339E+03	1.500264E-15	9.141958E-18
6.700394E+03	1.529950E-15	9.393776E-18
6.709449E+03	1.545781E-15	9.569767E-18
6.718504E+03	1.551946E-15	9.694486E-18
6.727559E+03	1.544934E-15	9.744546E-18
6.736614E+03	1.524501E-15	9.716131E-18
6.745669E+03	1.500576E-15	9.670497E-18
6.754724E+03	1.470765E-15	9.591037E-18
6.763780E+03	1.440260E-15	9.509995E-18
6.772835E+03	1.407167E-15	9.413778E-18
6.781890E+03	1.379239E-15	9.353513E-18
6.790945E+03	1.364321E-15	9.383879E-18
6.800000E+03	1.355439E-15	9.459471E-18
6.809055E+03	1.357997E-15	9.619967E-18
6.818110E+03	1.371589E-15	9.865796E-18
6.827165E+03	1.382088E-15	1.009720E-17
6.836220E+03	1.383940E-15	1.027173E-17
6.845276E+03	1.380682E-15	1.041277E-17
6.854331E+03	1.358033E-15	1.040870E-17
6.863386E+03	1.329489E-15	1.035702E-17
6.872441E+03	1.316742E-15	1.042679E-17
6.881496E+03	1.318542E-15	1.061364E-17
6.890551E+03	1.321841E-15	1.081629E-17
6.899606E+03	1.343719E-15	1.117718E-17
6.908661E+03	1.366604E-15	1.155519E-17
6.917717E+03	1.404171E-15	1.206814E-17
6.926772E+03	1.450751E-15	1.267261E-17
6.935827E+03	1.501025E-15	1.332516E-17
6.944882E+03	1.564161E-15	1.411006E-17
6.953937E+03	1.629154E-15	1.493199E-17
6.962992E+03	1.704942E-15	1.587497E-17
6.972047E+03	1.785638E-15	1.688803E-17
6.981102E+03	1.866349E-15	1.792631E-17
6.990157E+03	1.943185E-15	1.895182E-17
6.999213E+03	2.002819E-15	1.983079E-17
7.008268E+03	2.048358E-15	2.058666E-17
7.017323E+03	2.066487E-15	2.107715E-17
7.026378E+03	2.062967E-15	2.134942E-17
7.035433E+03	2.048593E-15	2.150690E-17
7.044488E+03	2.020287E-15	2.151175E-17
7.053543E+03	1.975879E-15	2.133411E-17
7.062598E+03	1.927955E-15	2.110440E-17
7.071654E+03	1.873109E-15	2.078310E-17
7.080709E+03	1.819750E-15	2.046158E-17
7.089764E+03	1.761421E-15	2.006685E-17
7.098819E+03	1.720364E-15	1.985334E-17
7.107874E+03	1.678005E-15	1.961155E-17
7.116929E+03	1.638669E-15	1.939205E-17
7.125984E+03	1.594922E-15	1.910710E-17
7.135039E+03	1.557033E-15	1.887925E-17
7.144094E+03	1.515793E-15	1.859806E-17
7.153150E+03	1.461176E-15	1.813766E-17
7.162205E+03	1.412704E-15	1.773745E-17
7.171260E+03	1.375015E-15	1.745900E-17
7.180315E+03	1.343019E-15	1.724160E-17
7.189370E+03	1.308259E-15	1.697793E-17
7.198425E+03	1.275459E-15	1.672886E-17
7.207480E+03	1.250529E-15	1.657357E-17
7.216535E+03	1.214375E-15	1.625967E-17
7.225591E+03	1.170909E-15	1.583556E-17
7.234646E+03	1.130067E-15	1.543413E-17
7.243701E+03	1.088783E-15	1.501425E-17
7.252756E+03	1.039940E-15	1.447679E-17
7.261811E+03	9.819216E-16	1.379624E-17
7.270866E+03	9.204783E-16	1.305079E-17
7.279921E+03	8.524546E-16	1.219420E-17
7.288976E+03	7.760662E-16	1.119851E-17
7.298031E+03	6.986978E-16	1.016838E-17
7.307087E+03	6.236573E-16	9.152332E-18
7.316142E+03	5.473255E-16	8.097996E-18
7.325197E+03	4.694041E-16	7.000815E-18
7.334252E+03	3.967488E-16	5.963644E-18
7.343307E+03	3.274022E-16	4.959036E-18
