#wls	flux	fluxerr
1.574803E+03	2.124176E-17	2.018325E-18
1.614173E+03	2.121165E-17	2.001904E-18
1.653543E+03	2.113589E-17	1.980934E-18
1.692913E+03	2.101064E-17	1.955147E-18
1.732283E+03	2.084247E-17	1.925247E-18
1.771654E+03	2.062564E-17	1.890803E-18
1.811024E+03	2.034601E-17	1.850635E-18
1.850394E+03	2.000203E-17	1.804745E-18
1.889764E+03	1.957690E-17	1.751786E-18
1.929134E+03	1.906403E-17	1.691369E-18
1.968504E+03	1.846713E-17	1.624045E-18
2.007874E+03	1.780929E-17	1.552046E-18
2.047244E+03	1.715509E-17	1.481122E-18
2.086614E+03	1.660162E-17	1.419597E-18
2.125984E+03	1.625414E-17	1.376160E-18
2.165354E+03	1.618603E-17	1.356450E-18
2.204724E+03	1.639889E-17	1.359883E-18
2.244094E+03	1.683108E-17	1.380648E-18
2.283465E+03	1.739425E-17	1.410964E-18
2.322835E+03	1.800929E-17	1.444099E-18
2.362205E+03	1.861985E-17	1.475411E-18
2.401575E+03	1.919449E-17	1.502418E-18
2.440945E+03	1.972505E-17	1.524562E-18
2.480315E+03	2.020769E-17	1.541653E-18
2.519685E+03	2.064344E-17	1.553887E-18
2.559055E+03	2.104382E-17	1.562241E-18
2.598425E+03	2.140914E-17	1.566828E-18
2.637795E+03	2.174806E-17	1.568365E-18
2.677165E+03	2.206580E-17	1.567295E-18
2.716535E+03	2.236991E-17	1.564200E-18
2.755906E+03	2.266195E-17	1.559223E-18
2.795276E+03	2.294347E-17	1.552499E-18
2.834646E+03	2.321881E-17	1.544347E-18
2.874016E+03	2.348994E-17	1.534909E-18
2.913386E+03	2.375930E-17	1.524354E-18
2.952756E+03	2.403518E-17	1.513206E-18
2.962598E+03	2.410732E-17	1.510458E-18
2.972441E+03	2.418194E-17	1.507800E-18
2.982283E+03	2.425408E-17	1.504920E-18
2.992126E+03	2.433150E-17	1.502301E-18
3.001969E+03	2.440944E-17	1.499645E-18
3.011811E+03	2.448822E-17	1.496971E-18
3.021654E+03	2.457041E-17	1.494435E-18
3.031496E+03	2.465678E-17	1.492080E-18
3.041339E+03	2.474549E-17	1.489791E-18
3.051181E+03	2.483953E-17	1.487746E-18
3.061024E+03	2.493630E-17	1.485785E-18
3.070866E+03	2.504060E-17	1.484189E-18
3.080709E+03	2.514740E-17	1.482656E-18
3.090551E+03	2.526156E-17	1.481466E-18
3.100394E+03	2.537810E-17	1.480325E-18
3.110236E+03	2.550189E-17	1.479511E-18
3.120079E+03	2.563048E-17	1.478876E-18
3.129921E+03	2.576628E-17	1.478554E-18
3.139764E+03	2.590686E-17	1.478401E-18
3.149606E+03	2.605226E-17	1.478412E-18
3.159449E+03	2.620734E-17	1.478859E-18
3.169291E+03	2.636728E-17	1.479461E-18
3.179134E+03	2.653452E-17	1.480349E-18
3.188976E+03	2.670906E-17	1.481518E-18
3.198819E+03	2.689094E-17	1.482961E-18
3.208661E+03	2.708251E-17	1.484801E-18
3.218504E+03	2.728134E-17	1.486897E-18
3.228346E+03	2.748738E-17	1.489238E-18
3.238189E+03	2.770531E-17	1.492069E-18
3.248031E+03	2.793257E-17	1.495242E-18
3.257874E+03	2.816654E-17	1.498609E-18
3.267717E+03	2.841175E-17	1.502401E-18
3.277559E+03	2.866781E-17	1.506589E-18
3.287402E+03	2.893186E-17	1.511012E-18
3.297244E+03	2.920809E-17	1.515881E-18
3.307087E+03	2.949342E-17	1.521023E-18
3.316929E+03	2.978696E-17	1.526385E-18
3.326772E+03	3.009013E-17	1.532031E-18
3.336614E+03	3.040410E-17	1.538011E-18
3.346457E+03	3.072277E-17	1.544007E-18
3.356299E+03	3.105175E-17	1.550297E-18
3.366142E+03	3.138459E-17	1.556549E-18
3.375984E+03	3.172424E-17	1.562904E-18
3.385827E+03	3.206876E-17	1.569264E-18
3.395669E+03	3.241385E-17	1.575412E-18
3.405512E+03	3.276477E-17	1.581604E-18
3.415354E+03	3.311287E-17	1.587419E-18
3.425197E+03	3.346420E-17	1.593148E-18
3.435039E+03	3.381878E-17	1.598790E-18
3.444882E+03	3.417537E-17	1.604283E-18
3.454724E+03	3.454046E-17	1.609929E-18
3.464567E+03	3.491397E-17	1.615716E-18
3.474409E+03	3.530079E-17	1.621861E-18
3.484252E+03	3.570371E-17	1.628478E-18
3.494094E+03	3.612568E-17	1.635686E-18
3.503937E+03	3.657204E-17	1.643707E-18
3.513780E+03	3.704370E-17	1.652556E-18
3.523622E+03	3.754842E-17	1.662551E-18
3.533465E+03	3.808507E-17	1.673610E-18
3.543307E+03	3.865719E-17	1.685854E-18
3.553150E+03	3.927286E-17	1.699598E-18
3.562992E+03	3.993371E-17	1.714868E-18
3.572835E+03	4.064159E-17	1.731697E-18
3.582677E+03	4.140304E-17	1.750314E-18
3.592520E+03	4.222272E-17	1.770861E-18
3.602362E+03	4.310562E-17	1.793486E-18
3.612205E+03	4.405496E-17	1.818259E-18
3.622047E+03	4.507883E-17	1.845445E-18
3.631890E+03	4.618364E-17	1.875228E-18
3.641732E+03	4.737419E-17	1.907720E-18
3.651575E+03	4.865809E-17	1.943139E-18
3.661417E+03	5.004366E-17	1.981720E-18
3.671260E+03	5.153997E-17	2.023717E-18
3.681102E+03	5.315923E-17	2.069494E-18
3.690945E+03	5.490757E-17	2.119163E-18
3.700787E+03	5.679655E-17	2.173038E-18
3.710630E+03	5.884107E-17	2.231542E-18
3.720472E+03	6.105219E-17	2.294933E-18
3.730315E+03	6.344424E-17	2.363579E-18
3.740157E+03	6.603243E-17	2.437859E-18
3.750000E+03	6.883018E-17	2.518066E-18
3.759843E+03	7.185403E-17	2.604590E-18
3.769685E+03	7.512380E-17	2.697915E-18
3.779528E+03	7.865437E-17	2.798324E-18
3.789370E+03	8.245764E-17	2.905974E-18
3.799213E+03	8.655931E-17	3.021490E-18
3.809055E+03	9.096747E-17	3.144853E-18
3.818898E+03	9.570061E-17	3.276387E-18
3.828740E+03	1.007695E-16	3.416136E-18
3.838583E+03	1.061893E-16	3.564269E-18
3.848425E+03	1.119621E-16	3.720509E-18
3.858268E+03	1.180964E-16	3.884787E-18
3.868110E+03	1.245893E-16	4.056645E-18
3.877953E+03	1.314361E-16	4.235580E-18
3.887795E+03	1.386223E-16	4.420779E-18
3.897638E+03	1.461344E-16	4.611482E-18
3.907480E+03	1.539393E-16	4.806344E-18
3.917323E+03	1.620088E-16	5.004205E-18
3.927165E+03	1.702985E-16	5.203455E-18
3.937008E+03	1.787557E-16	5.402296E-18
3.946850E+03	1.873300E-16	5.599069E-18
3.956693E+03	1.959605E-16	5.791872E-18
3.966535E+03	2.045658E-16	5.978291E-18
3.976378E+03	2.130910E-16	6.156786E-18
3.986220E+03	2.214492E-16	6.324973E-18
3.996063E+03	2.295747E-16	6.481190E-18
4.005906E+03	2.373997E-16	6.623798E-18
4.015748E+03	2.448506E-16	6.751092E-18
4.025591E+03	2.518836E-16	6.862280E-18
4.035433E+03	2.584367E-16	6.956132E-18
4.045276E+03	2.644876E-16	7.032559E-18
4.055118E+03	2.700095E-16	7.091380E-18
4.064961E+03	2.749882E-16	7.132776E-18
4.074803E+03	2.794341E-16	7.157578E-18
4.084646E+03	2.833578E-16	7.166605E-18
4.094488E+03	2.867864E-16	7.161074E-18
4.104331E+03	2.897560E-16	7.142386E-18
4.114173E+03	2.923036E-16	7.111921E-18
4.124016E+03	2.944835E-16	7.071417E-18
4.133858E+03	2.963407E-16	7.022330E-18
4.143701E+03	2.979272E-16	6.966217E-18
4.153543E+03	2.993000E-16	6.904683E-18
4.163386E+03	3.004962E-16	6.838814E-18
4.173228E+03	3.015718E-16	6.770068E-18
4.183071E+03	3.025602E-16	6.699335E-18
4.192913E+03	3.034990E-16	6.627563E-18
4.202756E+03	3.044070E-16	6.555237E-18
4.212598E+03	3.052990E-16	6.482749E-18
4.222441E+03	3.061858E-16	6.410382E-18
4.232283E+03	3.070613E-16	6.338064E-18
4.242126E+03	3.079029E-16	6.265397E-18
4.251969E+03	3.086927E-16	6.192103E-18
4.261811E+03	3.093853E-16	6.117380E-18
4.271654E+03	3.099356E-16	6.040491E-18
4.281496E+03	3.102786E-16	5.960360E-18
4.291339E+03	3.103528E-16	5.876056E-18
4.301181E+03	3.100926E-16	5.786630E-18
4.311024E+03	3.094169E-16	5.690915E-18
4.320866E+03	3.082708E-16	5.588299E-18
4.330709E+03	3.065963E-16	5.478162E-18
4.340551E+03	3.043673E-16	5.360494E-18
4.350394E+03	3.015838E-16	5.235749E-18
4.360236E+03	2.983036E-16	5.105356E-18
4.370079E+03	2.946620E-16	4.971974E-18
4.379921E+03	2.908187E-16	4.838530E-18
4.389764E+03	2.869349E-16	4.707805E-18
4.399606E+03	2.831765E-16	4.582509E-18
4.409449E+03	2.797039E-16	4.465111E-18
4.419291E+03	2.766418E-16	4.357339E-18
4.429134E+03	2.741018E-16	4.260578E-18
4.438976E+03	2.721758E-16	4.175837E-18
4.448819E+03	2.709281E-16	4.103652E-18
4.458661E+03	2.703920E-16	4.044068E-18
4.468504E+03	2.705904E-16	3.996979E-18
4.478346E+03	2.715177E-16	3.961865E-18
4.488189E+03	2.731559E-16	3.938062E-18
4.498031E+03	2.754572E-16	3.924509E-18
4.507874E+03	2.783675E-16	3.920113E-18
4.517717E+03	2.818123E-16	3.923555E-18
4.527559E+03	2.856989E-16	3.933326E-18
4.537402E+03	2.899216E-16	3.947814E-18
4.547244E+03	2.943728E-16	3.965457E-18
4.557087E+03	2.989314E-16	3.984585E-18
4.566929E+03	3.034786E-16	4.003631E-18
4.576772E+03	3.078954E-16	4.021099E-18
4.586614E+03	3.120847E-16	4.035831E-18
4.596457E+03	3.159440E-16	4.046657E-18
4.606299E+03	3.194116E-16	4.052967E-18
4.616142E+03	3.224374E-16	4.054323E-18
4.625984E+03	3.250016E-16	4.050678E-18
4.635827E+03	3.271096E-16	4.042301E-18
4.645669E+03	3.287854E-16	4.029677E-18
4.655512E+03	3.300774E-16	4.013572E-18
4.665354E+03	3.310288E-16	3.994668E-18
4.675197E+03	3.316891E-16	3.973695E-18
4.685039E+03	3.320782E-16	3.951013E-18
4.694882E+03	3.321698E-16	3.926425E-18
4.704724E+03	3.319247E-16	3.899587E-18
4.714567E+03	3.313019E-16	3.870138E-18
4.724409E+03	3.302673E-16	3.837798E-18
4.734252E+03	3.288130E-16	3.802591E-18
4.744094E+03	3.269506E-16	3.764749E-18
4.753937E+03	3.247189E-16	3.724806E-18
4.763780E+03	3.221716E-16	3.683441E-18
4.773622E+03	3.193946E-16	3.641656E-18
4.783465E+03	3.164817E-16	3.600514E-18
4.793307E+03	3.135772E-16	3.561634E-18
4.803150E+03	3.108269E-16	3.526636E-18
4.812992E+03	3.083874E-16	3.497261E-18
4.822835E+03	3.063901E-16	3.474966E-18
4.832677E+03	3.049501E-16	3.461036E-18
4.842520E+03	3.041634E-16	3.456566E-18
4.852362E+03	3.040964E-16	3.462335E-18
4.862205E+03	3.047995E-16	3.478975E-18
4.872047E+03	3.062968E-16	3.506838E-18
4.881890E+03	3.085888E-16	3.545950E-18
4.891732E+03	3.116522E-16	3.596050E-18
4.901575E+03	3.154412E-16	3.656635E-18
4.911417E+03	3.198872E-16	3.726945E-18
4.921260E+03	3.249036E-16	3.806006E-18
4.931102E+03	3.303767E-16	3.892514E-18
4.940945E+03	3.361833E-16	3.985024E-18
4.950787E+03	3.421805E-16	4.081830E-18
4.960630E+03	3.482272E-16	4.181196E-18
4.970472E+03	3.541805E-16	4.281320E-18
4.980315E+03	3.599074E-16	4.380467E-18
4.990157E+03	3.652919E-16	4.477065E-18
5.000000E+03	3.702423E-16	4.569789E-18
5.009843E+03	3.746944E-16	4.657627E-18
5.019685E+03	3.786192E-16	4.739974E-18
5.029528E+03	3.820140E-16	4.816552E-18
5.039370E+03	3.849008E-16	4.887391E-18
5.049213E+03	3.873347E-16	4.952954E-18
5.059055E+03	3.893869E-16	5.013938E-18
5.068898E+03	3.911436E-16	5.071262E-18
5.078740E+03	3.926964E-16	5.125951E-18
5.088583E+03	3.941542E-16	5.179300E-18
5.098425E+03	3.956145E-16	5.232489E-18
5.108268E+03	3.971769E-16	5.286771E-18
5.118110E+03	3.989413E-16	5.343437E-18
5.127953E+03	4.009938E-16	5.403631E-18
5.137795E+03	4.034196E-16	5.468512E-18
5.147638E+03	4.063019E-16	5.539240E-18
5.157480E+03	4.097099E-16	5.616808E-18
5.167323E+03	4.137150E-16	5.702258E-18
5.177165E+03	4.183728E-16	5.796431E-18
5.187008E+03	4.237403E-16	5.900195E-18
5.196850E+03	4.298606E-16	6.014236E-18
5.206693E+03	4.367666E-16	6.139096E-18
5.216535E+03	4.444744E-16	6.275088E-18
5.226378E+03	4.529961E-16	6.422452E-18
5.236220E+03	4.623202E-16	6.581094E-18
5.246063E+03	4.724294E-16	6.750820E-18
5.255906E+03	4.832861E-16	6.931134E-18
5.265748E+03	4.948366E-16	7.121290E-18
5.275591E+03	5.070034E-16	7.320180E-18
5.285433E+03	5.196971E-16	7.526501E-18
5.295276E+03	5.327893E-16	7.738361E-18
5.305118E+03	5.461039E-16	7.953151E-18
5.314961E+03	5.594266E-16	8.167670E-18
5.324803E+03	5.725468E-16	8.378724E-18
5.334646E+03	5.852519E-16	8.583054E-18
5.344488E+03	5.973472E-16	8.777619E-18
5.354331E+03	6.086377E-16	8.959331E-18
5.364173E+03	6.189375E-16	9.125224E-18
5.374016E+03	6.280696E-16	9.272458E-18
5.383858E+03	6.358970E-16	9.398789E-18
5.393701E+03	6.422813E-16	9.501966E-18
5.403543E+03	6.471356E-16	9.580520E-18
5.413386E+03	6.503784E-16	9.633086E-18
5.423228E+03	6.519635E-16	9.658855E-18
5.433071E+03	6.518571E-16	9.657241E-18
5.442913E+03	6.500416E-16	9.627929E-18
5.452756E+03	6.465130E-16	9.570853E-18
5.462598E+03	6.412866E-16	9.486269E-18
5.472441E+03	6.343783E-16	9.374489E-18
5.482283E+03	6.258264E-16	9.236194E-18
5.492126E+03	6.156820E-16	9.072300E-18
5.501969E+03	6.040381E-16	8.884370E-18
5.511811E+03	5.909949E-16	8.674112E-18
5.521654E+03	5.766813E-16	8.443681E-18
5.531496E+03	5.612732E-16	8.195933E-18
5.541339E+03	5.449555E-16	7.933868E-18
5.551181E+03	5.279433E-16	7.660915E-18
5.561024E+03	5.104745E-16	7.380820E-18
5.570866E+03	4.927835E-16	7.097244E-18
5.580709E+03	4.751281E-16	6.814147E-18
5.590551E+03	4.577525E-16	6.535229E-18
5.600394E+03	4.408852E-16	6.263908E-18
5.610236E+03	4.247426E-16	6.003359E-18
5.620079E+03	4.095238E-16	5.756431E-18
5.629921E+03	3.953943E-16	5.525428E-18
5.639764E+03	3.825019E-16	5.312324E-18
5.649606E+03	3.709598E-16	5.118537E-18
5.659449E+03	3.608633E-16	4.945170E-18
5.669291E+03	3.522805E-16	4.792883E-18
5.679134E+03	3.452546E-16	4.661942E-18
5.688976E+03	3.398169E-16	4.552394E-18
5.698819E+03	3.359752E-16	4.463931E-18
5.708661E+03	3.337285E-16	4.396087E-18
5.718504E+03	3.330581E-16	4.348136E-18
5.728346E+03	3.339277E-16	4.319099E-18
5.738189E+03	3.362889E-16	4.307834E-18
5.748031E+03	3.400800E-16	4.313027E-18
5.757874E+03	3.452171E-16	4.333099E-18
5.767717E+03	3.515920E-16	4.366193E-18
5.777559E+03	3.590763E-16	4.410251E-18
5.787402E+03	3.675163E-16	4.462972E-18
5.797244E+03	3.767356E-16	4.521867E-18
5.807087E+03	3.865213E-16	4.584113E-18
5.816929E+03	3.966507E-16	4.646913E-18
5.826772E+03	4.068667E-16	4.707209E-18
5.836614E+03	4.169097E-16	4.762088E-18
5.846457E+03	4.265110E-16	4.808713E-18
5.856299E+03	4.354024E-16	4.844436E-18
5.866142E+03	4.433395E-16	4.867057E-18
5.875984E+03	4.500922E-16	4.874705E-18
5.885827E+03	4.554804E-16	4.866202E-18
5.895669E+03	4.593664E-16	4.840941E-18
5.905512E+03	4.616651E-16	4.798952E-18
5.915354E+03	4.623382E-16	4.740806E-18
5.925197E+03	4.614226E-16	4.667841E-18
5.935039E+03	4.589858E-16	4.581674E-18
5.944882E+03	4.551664E-16	4.484559E-18
5.954724E+03	4.501300E-16	4.378912E-18
5.964567E+03	4.440699E-16	4.267294E-18
5.974409E+03	4.372152E-16	4.152471E-18
5.984252E+03	4.297987E-16	4.037099E-18
5.994094E+03	4.220582E-16	3.923737E-18
6.003937E+03	4.142281E-16	3.814784E-18
6.013780E+03	4.065374E-16	3.712474E-18
6.023622E+03	3.991966E-16	3.618778E-18
6.033465E+03	3.923945E-16	3.535401E-18
6.043307E+03	3.863109E-16	3.463925E-18
6.053150E+03	3.810874E-16	3.405572E-18
6.062992E+03	3.768565E-16	3.361490E-18
6.072835E+03	3.737151E-16	3.332533E-18
6.082677E+03	3.717254E-16	3.319150E-18
6.092520E+03	3.709142E-16	3.321441E-18
6.102362E+03	3.712451E-16	3.339013E-18
6.112205E+03	3.725917E-16	3.370721E-18
6.122047E+03	3.747271E-16	3.414506E-18
6.131890E+03	3.773734E-16	3.467779E-18
6.141732E+03	3.802426E-16	3.527785E-18
6.151575E+03	3.831094E-16	3.592265E-18
6.161417E+03	3.858146E-16	3.659481E-18
6.171260E+03	3.882464E-16	3.728070E-18
6.181102E+03	3.903212E-16	3.796872E-18
6.190945E+03	3.919784E-16	3.864893E-18
6.200787E+03	3.931737E-16	3.931253E-18
6.210630E+03	3.938851E-16	3.995265E-18
6.220472E+03	3.941077E-16	4.056396E-18
6.230315E+03	3.938475E-16	4.114219E-18
6.240157E+03	3.931320E-16	4.168540E-18
6.250000E+03	3.919830E-16	4.219127E-18
6.259843E+03	3.904509E-16	4.266079E-18
6.269685E+03	3.885802E-16	4.309473E-18
6.279528E+03	3.864146E-16	4.349423E-18
6.289370E+03	3.840121E-16	4.386245E-18
6.299213E+03	3.814225E-16	4.420215E-18
6.309055E+03	3.786992E-16	4.451700E-18
6.318898E+03	3.758857E-16	4.480998E-18
6.328740E+03	3.730317E-16	4.508528E-18
6.338583E+03	3.701850E-16	4.534730E-18
6.348425E+03	3.673838E-16	4.559970E-18
6.358268E+03	3.646686E-16	4.584681E-18
6.368110E+03	3.620753E-16	4.609272E-18
6.377953E+03	3.596470E-16	4.634272E-18
6.387795E+03	3.574226E-16	4.660196E-18
6.397638E+03	3.554371E-16	4.687531E-18
6.407480E+03	3.537454E-16	4.717058E-18
6.417323E+03	3.523786E-16	4.749268E-18
6.427165E+03	3.513835E-16	4.784883E-18
6.437008E+03	3.507943E-16	4.824479E-18
6.446850E+03	3.506554E-16	4.868785E-18
6.456693E+03	3.510009E-16	4.918404E-18
6.466535E+03	3.518533E-16	4.973784E-18
6.476378E+03	3.532462E-16	5.035533E-18
6.486220E+03	3.551989E-16	5.104058E-18
6.496063E+03	3.577193E-16	5.179599E-18
6.505906E+03	3.608145E-16	5.262373E-18
6.515748E+03	3.644734E-16	5.352316E-18
6.525591E+03	3.686821E-16	5.449307E-18
6.535433E+03	3.734109E-16	5.552966E-18
6.545276E+03	3.786133E-16	5.662639E-18
6.555118E+03	3.842431E-16	5.777646E-18
6.564961E+03	3.902289E-16	5.896895E-18
6.574803E+03	3.964912E-16	6.019144E-18
6.584646E+03	4.029448E-16	6.143029E-18
6.594488E+03	4.094853E-16	6.266866E-18
6.604331E+03	4.160105E-16	6.388978E-18
6.614173E+03	4.224088E-16	6.507517E-18
6.624016E+03	4.285613E-16	6.620514E-18
6.633858E+03	4.343660E-16	6.726238E-18
6.643701E+03	4.397106E-16	6.822804E-18
6.653543E+03	4.445020E-16	6.908624E-18
6.663386E+03	4.486488E-16	6.982144E-18
6.673228E+03	4.520858E-16	7.042233E-18
6.683071E+03	4.547550E-16	7.087900E-18
6.692913E+03	4.566356E-16	7.118752E-18
6.702756E+03	4.577061E-16	7.134414E-18
6.712598E+03	4.579896E-16	7.135236E-18
6.722441E+03	4.575136E-16	7.121667E-18
6.732283E+03	4.563321E-16	7.094590E-18
6.742126E+03	4.545169E-16	7.055190E-18
6.751969E+03	4.521612E-16	7.004998E-18
6.761811E+03	4.493597E-16	6.945578E-18
6.771654E+03	4.462271E-16	6.878809E-18
6.781496E+03	4.428783E-16	6.806566E-18
6.791339E+03	4.394251E-16	6.730662E-18
6.801181E+03	4.359892E-16	6.653051E-18
6.811024E+03	4.326775E-16	6.575430E-18
6.820866E+03	4.296067E-16	6.499621E-18
6.830709E+03	4.268632E-16	6.426949E-18
6.840551E+03	4.245336E-16	6.358715E-18
6.850394E+03	4.227034E-16	6.296161E-18
6.860236E+03	4.214233E-16	6.239977E-18
6.870079E+03	4.207459E-16	6.190848E-18
6.879921E+03	4.207038E-16	6.149133E-18
6.889764E+03	4.213087E-16	6.114862E-18
6.899606E+03	4.225731E-16	6.088054E-18
6.909449E+03	4.244666E-16	6.068097E-18
6.919291E+03	4.269756E-16	6.054620E-18
6.929134E+03	4.300386E-16	6.046572E-18
6.938976E+03	4.336121E-16	6.043177E-18
6.948819E+03	4.376063E-16	6.043032E-18
6.958661E+03	4.419465E-16	6.044987E-18
6.968504E+03	4.465312E-16	6.047566E-18
6.978346E+03	4.512565E-16	6.049320E-18
6.988189E+03	4.560136E-16	6.048800E-18
6.998031E+03	4.606913E-16	6.044597E-18
7.007874E+03	4.651802E-16	6.035402E-18
7.017717E+03	4.693695E-16	6.019968E-18
7.027559E+03	4.731625E-16	5.997309E-18
7.037402E+03	4.764805E-16	5.966741E-18
7.047244E+03	4.792394E-16	5.927584E-18
7.057087E+03	4.813964E-16	5.879731E-18
7.066929E+03	4.828942E-16	5.822947E-18
7.076772E+03	4.837309E-16	5.757712E-18
7.086614E+03	4.838840E-16	5.684279E-18
7.096457E+03	4.833724E-16	5.603414E-18
7.106299E+03	4.822172E-16	5.515903E-18
7.116142E+03	4.804638E-16	5.422811E-18
7.125984E+03	4.781551E-16	5.325147E-18
7.135827E+03	4.753341E-16	5.223908E-18
7.145669E+03	4.720734E-16	5.120379E-18
7.155512E+03	4.684277E-16	5.015622E-18
7.165354E+03	4.644510E-16	4.910652E-18
7.175197E+03	4.601946E-16	4.806422E-18
7.185039E+03	4.557176E-16	4.703938E-18
7.194882E+03	4.510618E-16	4.603984E-18
7.204724E+03	4.462632E-16	4.507258E-18
7.214567E+03	4.413519E-16	4.414370E-18
7.224409E+03	4.363639E-16	4.325958E-18
7.234252E+03	4.313113E-16	4.242395E-18
7.244094E+03	4.262071E-16	4.164033E-18
7.253937E+03	4.210701E-16	4.091247E-18
7.263780E+03	4.159043E-16	4.024200E-18
7.273622E+03	4.107080E-16	3.962925E-18
7.283465E+03	4.054918E-16	3.907537E-18
7.293307E+03	4.002442E-16	3.857903E-18
7.303150E+03	3.949644E-16	3.813953E-18
7.312992E+03	3.896243E-16	3.775311E-18
7.322835E+03	3.842209E-16	3.741786E-18
7.332677E+03	3.787166E-16	3.712655E-18
7.342520E+03	3.730752E-16	3.687074E-18
7.352362E+03	3.672703E-16	3.664261E-18
7.362205E+03	3.612480E-16	3.643128E-18
7.372047E+03	3.549784E-16	3.622791E-18
7.381890E+03	3.484101E-16	3.602119E-18
7.391732E+03	3.415208E-16	3.580254E-18
7.401575E+03	3.342786E-16	3.556215E-18
7.411417E+03	3.266791E-16	3.529303E-18
7.421260E+03	3.187240E-16	3.498885E-18
7.431102E+03	3.104500E-16	3.464729E-18
7.440945E+03	3.019177E-16	3.426920E-18
7.450787E+03	2.931804E-16	3.385518E-18
7.460630E+03	2.843120E-16	3.340895E-18
7.470472E+03	2.753817E-16	3.293452E-18
7.480315E+03	2.664447E-16	3.243504E-18
7.490157E+03	2.575705E-16	3.191624E-18
7.500000E+03	2.488045E-16	3.138168E-18
7.509843E+03	2.402012E-16	3.083683E-18
7.519685E+03	2.318051E-16	3.028657E-18
7.529528E+03	2.236610E-16	2.973656E-18
7.539370E+03	2.158252E-16	2.919460E-18
7.549213E+03	2.083449E-16	2.866806E-18
7.559055E+03	2.012580E-16	2.816361E-18
7.568898E+03	1.945950E-16	2.768742E-18
7.578740E+03	1.883713E-16	2.724393E-18
7.588583E+03	1.825966E-16	2.683701E-18
7.598425E+03	1.772760E-16	2.647006E-18
7.608268E+03	1.724035E-16	2.614490E-18
7.618110E+03	1.679702E-16	2.586295E-18
7.627953E+03	1.639659E-16	2.562541E-18
7.637795E+03	1.603747E-16	2.543245E-18
