#wls	flux	fluxerr
1.574803E+03	1.490649E-17	1.347960E-18
1.614173E+03	1.482973E-17	1.335063E-18
1.653543E+03	1.471908E-17	1.319039E-18
1.692913E+03	1.457771E-17	1.300210E-18
1.732283E+03	1.440535E-17	1.278593E-18
1.771654E+03	1.420122E-17	1.254162E-18
1.811024E+03	1.395592E-17	1.226139E-18
1.850394E+03	1.366674E-17	1.194348E-18
1.889764E+03	1.332288E-17	1.157919E-18
1.929134E+03	1.292325E-17	1.116845E-18
1.968504E+03	1.246890E-17	1.071309E-18
2.007874E+03	1.197626E-17	1.022814E-18
2.047244E+03	1.148746E-17	9.750078E-19
2.086614E+03	1.106585E-17	9.332431E-19
2.125984E+03	1.078296E-17	9.034201E-19
2.165354E+03	1.068583E-17	8.892289E-19
2.204724E+03	1.076939E-17	8.899390E-19
2.244094E+03	1.099660E-17	9.021898E-19
2.283465E+03	1.130245E-17	9.204206E-19
2.322835E+03	1.163866E-17	9.405717E-19
2.362205E+03	1.196885E-17	9.596533E-19
2.401575E+03	1.227339E-17	9.760982E-19
2.440945E+03	1.255022E-17	9.897800E-19
2.480315E+03	1.279384E-17	1.000309E-18
2.519685E+03	1.301188E-17	1.008331E-18
2.559055E+03	1.320905E-17	1.014249E-18
2.598425E+03	1.338623E-17	1.018162E-18
2.637795E+03	1.355203E-17	1.020754E-18
2.677165E+03	1.370873E-17	1.022211E-18
2.716535E+03	1.386034E-17	1.022837E-18
2.755906E+03	1.400870E-17	1.022773E-18
2.795276E+03	1.415755E-17	1.022286E-18
2.834646E+03	1.431251E-17	1.021767E-18
2.874016E+03	1.447365E-17	1.021200E-18
2.913386E+03	1.464874E-17	1.021101E-18
2.952756E+03	1.484563E-17	1.021966E-18
2.962598E+03	1.489877E-17	1.022360E-18
2.972441E+03	1.495271E-17	1.022771E-18
2.982283E+03	1.501114E-17	1.023449E-18
2.992126E+03	1.507056E-17	1.024152E-18
3.001969E+03	1.513294E-17	1.025015E-18
3.011811E+03	1.519848E-17	1.026048E-18
3.021654E+03	1.526542E-17	1.027130E-18
3.031496E+03	1.533783E-17	1.028534E-18
3.041339E+03	1.541098E-17	1.029938E-18
3.051181E+03	1.549032E-17	1.031706E-18
3.061024E+03	1.557216E-17	1.033588E-18
3.070866E+03	1.565999E-17	1.035814E-18
3.080709E+03	1.575195E-17	1.038255E-18
3.090551E+03	1.584799E-17	1.040905E-18
3.100394E+03	1.594803E-17	1.043757E-18
3.110236E+03	1.605382E-17	1.046921E-18
3.120079E+03	1.616531E-17	1.050389E-18
3.129921E+03	1.628069E-17	1.054040E-18
3.139764E+03	1.639991E-17	1.057869E-18
3.149606E+03	1.652649E-17	1.062097E-18
3.159449E+03	1.665683E-17	1.066490E-18
3.169291E+03	1.679267E-17	1.071154E-18
3.179134E+03	1.693394E-17	1.076081E-18
3.188976E+03	1.708237E-17	1.081376E-18
3.198819E+03	1.723609E-17	1.086916E-18
3.208661E+03	1.739500E-17	1.092690E-18
3.218504E+03	1.755900E-17	1.098688E-18
3.228346E+03	1.773151E-17	1.105118E-18
3.238189E+03	1.790880E-17	1.111743E-18
3.248031E+03	1.809246E-17	1.118656E-18
3.257874E+03	1.828228E-17	1.125840E-18
3.267717E+03	1.847979E-17	1.133383E-18
3.277559E+03	1.868291E-17	1.141152E-18
3.287402E+03	1.889129E-17	1.149120E-18
3.297244E+03	1.910637E-17	1.157371E-18
3.307087E+03	1.932772E-17	1.165874E-18
3.316929E+03	1.955670E-17	1.174703E-18
3.326772E+03	1.978921E-17	1.183609E-18
3.336614E+03	2.002833E-17	1.192770E-18
3.346457E+03	2.027352E-17	1.202149E-18
3.356299E+03	2.052237E-17	1.211599E-18
3.366142E+03	2.077795E-17	1.221297E-18
3.375984E+03	2.103789E-17	1.231097E-18
3.385827E+03	2.130166E-17	1.240967E-18
3.395669E+03	2.157244E-17	1.251084E-18
3.405512E+03	2.184626E-17	1.261216E-18
3.415354E+03	2.212473E-17	1.271451E-18
3.425197E+03	2.240786E-17	1.281785E-18
3.435039E+03	2.269779E-17	1.292336E-18
3.444882E+03	2.299516E-17	1.303135E-18
3.454724E+03	2.330089E-17	1.314226E-18
3.464567E+03	2.361611E-17	1.325666E-18
3.474409E+03	2.394218E-17	1.337521E-18
3.484252E+03	2.428241E-17	1.349968E-18
3.494094E+03	2.463670E-17	1.362988E-18
3.503937E+03	2.501044E-17	1.376865E-18
3.513780E+03	2.540209E-17	1.391500E-18
3.523622E+03	2.581731E-17	1.407183E-18
3.533465E+03	2.625660E-17	1.423924E-18
3.543307E+03	2.672415E-17	1.441926E-18
3.553150E+03	2.722077E-17	1.461210E-18
3.562992E+03	2.775095E-17	1.481988E-18
3.572835E+03	2.831760E-17	1.504388E-18
3.582677E+03	2.892380E-17	1.528540E-18
3.592520E+03	2.957465E-17	1.554678E-18
3.602362E+03	3.027008E-17	1.582759E-18
3.612205E+03	3.101741E-17	1.613125E-18
3.622047E+03	3.181888E-17	1.645847E-18
3.631890E+03	3.268057E-17	1.681190E-18
3.641732E+03	3.360524E-17	1.719243E-18
3.651575E+03	3.459778E-17	1.760198E-18
3.661417E+03	3.566525E-17	1.804353E-18
3.671260E+03	3.681324E-17	1.851923E-18
3.681102E+03	3.804770E-17	1.903135E-18
3.690945E+03	3.937301E-17	1.958129E-18
3.700787E+03	4.079576E-17	2.017151E-18
3.710630E+03	4.232489E-17	2.080553E-18
3.720472E+03	4.396779E-17	2.148601E-18
3.730315E+03	4.573216E-17	2.221568E-18
3.740157E+03	4.762171E-17	2.299525E-18
3.750000E+03	4.965090E-17	2.383051E-18
3.759843E+03	5.182158E-17	2.472111E-18
3.769685E+03	5.414638E-17	2.567175E-18
3.779528E+03	5.663371E-17	2.668501E-18
3.789370E+03	5.928694E-17	2.776098E-18
3.799213E+03	6.211598E-17	2.890279E-18
3.809055E+03	6.513045E-17	3.011326E-18
3.818898E+03	6.833163E-17	3.139132E-18
3.828740E+03	7.172456E-17	3.273756E-18
3.838583E+03	7.531843E-17	3.415439E-18
3.848425E+03	7.910730E-17	3.563730E-18
3.858268E+03	8.309681E-17	3.718701E-18
3.868110E+03	8.728209E-17	3.879954E-18
3.877953E+03	9.165832E-17	4.047094E-18
3.887795E+03	9.621475E-17	4.219475E-18
3.897638E+03	1.009435E-16	4.396585E-18
3.907480E+03	1.058271E-16	4.577510E-18
3.917323E+03	1.108511E-16	4.761488E-18
3.927165E+03	1.159873E-16	4.947182E-18
3.937008E+03	1.212108E-16	5.133432E-18
3.946850E+03	1.264968E-16	5.319118E-18
3.956693E+03	1.318109E-16	5.502738E-18
3.966535E+03	1.371193E-16	5.682870E-18
3.976378E+03	1.423869E-16	5.858071E-18
3.986220E+03	1.475733E-16	6.026726E-18
3.996063E+03	1.526461E-16	6.187594E-18
4.005906E+03	1.575611E-16	6.339006E-18
4.015748E+03	1.622843E-16	6.479750E-18
4.025591E+03	1.667889E-16	6.608938E-18
4.035433E+03	1.710478E-16	6.725703E-18
4.045276E+03	1.750300E-16	6.829073E-18
4.055118E+03	1.787187E-16	6.918646E-18
4.064961E+03	1.821072E-16	6.994446E-18
4.074803E+03	1.851869E-16	7.056417E-18
4.084646E+03	1.879548E-16	7.104741E-18
4.094488E+03	1.904231E-16	7.140166E-18
4.104331E+03	1.926046E-16	7.163444E-18
4.114173E+03	1.945081E-16	7.175177E-18
4.124016E+03	1.961591E-16	7.176555E-18
4.133858E+03	1.975812E-16	7.168676E-18
4.143701E+03	1.987912E-16	7.152360E-18
4.153543E+03	1.998233E-16	7.129030E-18
4.163386E+03	2.006986E-16	7.099607E-18
4.173228E+03	2.014370E-16	7.064942E-18
4.183071E+03	2.020647E-16	7.026077E-18
4.192913E+03	2.025933E-16	6.983527E-18
4.202756E+03	2.030471E-16	6.938221E-18
4.212598E+03	2.034314E-16	6.890416E-18
4.222441E+03	2.037557E-16	6.840508E-18
4.232283E+03	2.040298E-16	6.788888E-18
4.242126E+03	2.042521E-16	6.735565E-18
4.251969E+03	2.044218E-16	6.680565E-18
4.261811E+03	2.045349E-16	6.623821E-18
4.271654E+03	2.045818E-16	6.565089E-18
4.281496E+03	2.045548E-16	6.504197E-18
4.291339E+03	2.044460E-16	6.440971E-18
4.301181E+03	2.042511E-16	6.375369E-18
4.311024E+03	2.039540E-16	6.306980E-18
4.320866E+03	2.035626E-16	6.236143E-18
4.330709E+03	2.030714E-16	6.162795E-18
4.340551E+03	2.024848E-16	6.087164E-18
4.350394E+03	2.018242E-16	6.009980E-18
4.360236E+03	2.011065E-16	5.931819E-18
4.370079E+03	2.003682E-16	5.853811E-18
4.379921E+03	1.996485E-16	5.777122E-18
4.389764E+03	1.989872E-16	5.702887E-18
4.399606E+03	1.984254E-16	5.632239E-18
4.409449E+03	1.980125E-16	5.566499E-18
4.419291E+03	1.977834E-16	5.506537E-18
4.429134E+03	1.977753E-16	5.453243E-18
4.438976E+03	1.980236E-16	5.407416E-18
4.448819E+03	1.985489E-16	5.369426E-18
4.458661E+03	1.993772E-16	5.339761E-18
4.468504E+03	2.005129E-16	5.318320E-18
4.478346E+03	2.019706E-16	5.305263E-18
4.488189E+03	2.037398E-16	5.300101E-18
4.498031E+03	2.058143E-16	5.302459E-18
4.507874E+03	2.081746E-16	5.311643E-18
4.517717E+03	2.107996E-16	5.326941E-18
4.527559E+03	2.136591E-16	5.347438E-18
4.537402E+03	2.167107E-16	5.371954E-18
4.547244E+03	2.199159E-16	5.399453E-18
4.557087E+03	2.232266E-16	5.428699E-18
4.566929E+03	2.265983E-16	5.458597E-18
4.576772E+03	2.299767E-16	5.487864E-18
4.586614E+03	2.333205E-16	5.515569E-18
4.596457E+03	2.365789E-16	5.540602E-18
4.606299E+03	2.397110E-16	5.562128E-18
4.616142E+03	2.426845E-16	5.579540E-18
4.625984E+03	2.454667E-16	5.592251E-18
4.635827E+03	2.480345E-16	5.599917E-18
4.645669E+03	2.503708E-16	5.602340E-18
4.655512E+03	2.524632E-16	5.599438E-18
4.665354E+03	2.542987E-16	5.591120E-18
4.675197E+03	2.558717E-16	5.577466E-18
4.685039E+03	2.571612E-16	5.558215E-18
4.694882E+03	2.581261E-16	5.532686E-18
4.704724E+03	2.587268E-16	5.500256E-18
4.714567E+03	2.589268E-16	5.460382E-18
4.724409E+03	2.587022E-16	5.412799E-18
4.734252E+03	2.580468E-16	5.357610E-18
4.744094E+03	2.569743E-16	5.295329E-18
4.753937E+03	2.555229E-16	5.226938E-18
4.763780E+03	2.537418E-16	5.153613E-18
4.773622E+03	2.517046E-16	5.076979E-18
4.783465E+03	2.495062E-16	4.999037E-18
4.793307E+03	2.472420E-16	4.921735E-18
4.803150E+03	2.450204E-16	4.847203E-18
4.812992E+03	2.429560E-16	4.777633E-18
4.822835E+03	2.411494E-16	4.714895E-18
4.832677E+03	2.396953E-16	4.660705E-18
4.842520E+03	2.386790E-16	4.616563E-18
4.852362E+03	2.381657E-16	4.583564E-18
4.862205E+03	2.382101E-16	4.562586E-18
4.872047E+03	2.388500E-16	4.554189E-18
4.881890E+03	2.401010E-16	4.558504E-18
4.891732E+03	2.419668E-16	4.575460E-18
4.901575E+03	2.444289E-16	4.604561E-18
4.911417E+03	2.474604E-16	4.645166E-18
4.921260E+03	2.510143E-16	4.696274E-18
4.931102E+03	2.550266E-16	4.756595E-18
4.940945E+03	2.594265E-16	4.824733E-18
4.950787E+03	2.641332E-16	4.899129E-18
4.960630E+03	2.690497E-16	4.977947E-18
4.970472E+03	2.740893E-16	5.059559E-18
4.980315E+03	2.791506E-16	5.142080E-18
4.990157E+03	2.841447E-16	5.223869E-18
5.000000E+03	2.889876E-16	5.303383E-18
5.009843E+03	2.936074E-16	5.379306E-18
5.019685E+03	2.979503E-16	5.450659E-18
5.029528E+03	3.019743E-16	5.516674E-18
5.039370E+03	3.056627E-16	5.577045E-18
5.049213E+03	3.090155E-16	5.631764E-18
5.059055E+03	3.120483E-16	5.681102E-18
5.068898E+03	3.148030E-16	5.725806E-18
5.078740E+03	3.173264E-16	5.766700E-18
5.088583E+03	3.196790E-16	5.804857E-18
5.098425E+03	3.219294E-16	5.841486E-18
5.108268E+03	3.241535E-16	5.877930E-18
5.118110E+03	3.264186E-16	5.915369E-18
5.127953E+03	3.288079E-16	5.955269E-18
5.137795E+03	3.313844E-16	5.998728E-18
5.147638E+03	3.342134E-16	6.046884E-18
5.157480E+03	3.373578E-16	6.100833E-18
5.167323E+03	3.408704E-16	6.161482E-18
5.177165E+03	3.447925E-16	6.229537E-18
5.187008E+03	3.491645E-16	6.305679E-18
5.196850E+03	3.540101E-16	6.390294E-18
5.206693E+03	3.593540E-16	6.483779E-18
5.216535E+03	3.651947E-16	6.586062E-18
5.226378E+03	3.715260E-16	6.696983E-18
5.236220E+03	3.783360E-16	6.816280E-18
5.246063E+03	3.855834E-16	6.943160E-18
5.255906E+03	3.932234E-16	7.076769E-18
5.265748E+03	4.011881E-16	7.215837E-18
5.275591E+03	4.094034E-16	7.358984E-18
5.285433E+03	4.177819E-16	7.504592E-18
5.295276E+03	4.262082E-16	7.650549E-18
5.305118E+03	4.345859E-16	7.795084E-18
5.314961E+03	4.427942E-16	7.935998E-18
5.324803E+03	4.507367E-16	8.071532E-18
5.334646E+03	4.583080E-16	8.199760E-18
5.344488E+03	4.654394E-16	8.319416E-18
5.354331E+03	4.720514E-16	8.429045E-18
5.364173E+03	4.780716E-16	8.527320E-18
5.374016E+03	4.834444E-16	8.613217E-18
5.383858E+03	4.881158E-16	8.685758E-18
5.393701E+03	4.920335E-16	8.744001E-18
5.403543E+03	4.951600E-16	8.787282E-18
5.413386E+03	4.974576E-16	8.814939E-18
5.423228E+03	4.988904E-16	8.826362E-18
5.433071E+03	4.994283E-16	8.821054E-18
5.442913E+03	4.990260E-16	8.798264E-18
5.452756E+03	4.976563E-16	8.757581E-18
5.462598E+03	4.952821E-16	8.698430E-18
5.472441E+03	4.918572E-16	8.620100E-18
5.482283E+03	4.873597E-16	8.522330E-18
5.492126E+03	4.817623E-16	8.404773E-18
5.501969E+03	4.750566E-16	8.267438E-18
5.511811E+03	4.672539E-16	8.110693E-18
5.521654E+03	4.583944E-16	7.935420E-18
5.531496E+03	4.485371E-16	7.742833E-18
5.541339E+03	4.377797E-16	7.534818E-18
5.551181E+03	4.262406E-16	7.313606E-18
5.561024E+03	4.140733E-16	7.082022E-18
5.570866E+03	4.014453E-16	6.843100E-18
5.580709E+03	3.885442E-16	6.600188E-18
5.590551E+03	3.755705E-16	6.356813E-18
5.600394E+03	3.627222E-16	6.116415E-18
5.610236E+03	3.501863E-16	5.882198E-18
5.620079E+03	3.381534E-16	5.657375E-18
5.629921E+03	3.267893E-16	5.444691E-18
5.639764E+03	3.162491E-16	5.246658E-18
5.649606E+03	3.066592E-16	5.065264E-18
5.659449E+03	2.981392E-16	4.902338E-18
5.669291E+03	2.907803E-16	4.759196E-18
5.679134E+03	2.846592E-16	4.636881E-18
5.688976E+03	2.798339E-16	4.536093E-18
5.698819E+03	2.763562E-16	4.457406E-18
5.708661E+03	2.742542E-16	4.400984E-18
5.718504E+03	2.735523E-16	4.366914E-18
5.728346E+03	2.742583E-16	4.355000E-18
5.738189E+03	2.763731E-16	4.364930E-18
5.748031E+03	2.798789E-16	4.396087E-18
5.757874E+03	2.847468E-16	4.447687E-18
5.767717E+03	2.909204E-16	4.518524E-18
5.777559E+03	2.983304E-16	4.607215E-18
5.787402E+03	3.068688E-16	4.711808E-18
5.797244E+03	3.164047E-16	4.830043E-18
5.807087E+03	3.267699E-16	4.959154E-18
5.816929E+03	3.377578E-16	5.095858E-18
5.826772E+03	3.491333E-16	5.236534E-18
5.836614E+03	3.606208E-16	5.377050E-18
5.846457E+03	3.719344E-16	5.513229E-18
5.856299E+03	3.827607E-16	5.640607E-18
5.866142E+03	3.927961E-16	5.754978E-18
5.875984E+03	4.017445E-16	5.852355E-18
5.885827E+03	4.093432E-16	5.929341E-18
5.895669E+03	4.153743E-16	5.983270E-18
5.905512E+03	4.196780E-16	6.012366E-18
5.915354E+03	4.221561E-16	6.015775E-18
5.925197E+03	4.227855E-16	5.993713E-18
5.935039E+03	4.216123E-16	5.947355E-18
5.944882E+03	4.187473E-16	5.878743E-18
5.954724E+03	4.143523E-16	5.790566E-18
5.964567E+03	4.086366E-16	5.686101E-18
5.974409E+03	4.018407E-16	5.568966E-18
5.984252E+03	3.942187E-16	5.442883E-18
5.994094E+03	3.860352E-16	5.311633E-18
6.003937E+03	3.775473E-16	5.178814E-18
6.013780E+03	3.690078E-16	5.047903E-18
6.023622E+03	3.606408E-16	4.921930E-18
6.033465E+03	3.526629E-16	4.803788E-18
6.043307E+03	3.452522E-16	4.695823E-18
6.053150E+03	3.385715E-16	4.600163E-18
6.062992E+03	3.327532E-16	4.518529E-18
6.072835E+03	3.279016E-16	4.452270E-18
6.082677E+03	3.240965E-16	4.402365E-18
6.092520E+03	3.213757E-16	4.369239E-18
6.102362E+03	3.197250E-16	4.352657E-18
6.112205E+03	3.190549E-16	4.351378E-18
6.122047E+03	3.191851E-16	4.362928E-18
6.131890E+03	3.198963E-16	4.384284E-18
6.141732E+03	3.209713E-16	4.412448E-18
6.151575E+03	3.222359E-16	4.444984E-18
6.161417E+03	3.235601E-16	4.480043E-18
6.171260E+03	3.248542E-16	4.516309E-18
6.181102E+03	3.260409E-16	4.552617E-18
6.190945E+03	3.270651E-16	4.588089E-18
6.200787E+03	3.278843E-16	4.622009E-18
6.210630E+03	3.284628E-16	4.653736E-18
6.220472E+03	3.287764E-16	4.682785E-18
6.230315E+03	3.288020E-16	4.708668E-18
6.240157E+03	3.285365E-16	4.731179E-18
6.250000E+03	3.279662E-16	4.749955E-18
6.259843E+03	3.271003E-16	4.764960E-18
6.269685E+03	3.259367E-16	4.775993E-18
6.279528E+03	3.244885E-16	4.783079E-18
6.289370E+03	3.227769E-16	4.786368E-18
6.299213E+03	3.208173E-16	4.785933E-18
6.309055E+03	3.186357E-16	4.782017E-18
6.318898E+03	3.162583E-16	4.774875E-18
6.328740E+03	3.137176E-16	4.764876E-18
6.338583E+03	3.110454E-16	4.752391E-18
6.348425E+03	3.082794E-16	4.737898E-18
6.358268E+03	3.054529E-16	4.721828E-18
6.368110E+03	3.026079E-16	4.704763E-18
6.377953E+03	2.997853E-16	4.687285E-18
6.387795E+03	2.970245E-16	4.669977E-18
6.397638E+03	2.943766E-16	4.653619E-18
6.407480E+03	2.918851E-16	4.638891E-18
6.417323E+03	2.896040E-16	4.626663E-18
6.427165E+03	2.875788E-16	4.617685E-18
6.437008E+03	2.858615E-16	4.612828E-18
6.446850E+03	2.844999E-16	4.612912E-18
6.456693E+03	2.835401E-16	4.618740E-18
6.466535E+03	2.830275E-16	4.631118E-18
6.476378E+03	2.829995E-16	4.650732E-18
6.486220E+03	2.834845E-16	4.678120E-18
6.496063E+03	2.845086E-16	4.713786E-18
6.505906E+03	2.860889E-16	4.758089E-18
6.515748E+03	2.882225E-16	4.811044E-18
6.525591E+03	2.909077E-16	4.872683E-18
6.535433E+03	2.941244E-16	4.942714E-18
6.545276E+03	2.978397E-16	5.020624E-18
6.555118E+03	3.020082E-16	5.105666E-18
6.564961E+03	3.065721E-16	5.196869E-18
6.574803E+03	3.114617E-16	5.293042E-18
6.584646E+03	3.166002E-16	5.392852E-18
6.594488E+03	3.218976E-16	5.494730E-18
6.604331E+03	3.272524E-16	5.596887E-18
6.614173E+03	3.325684E-16	5.697614E-18
6.624016E+03	3.377349E-16	5.794941E-18
6.633858E+03	3.426441E-16	5.886940E-18
6.643701E+03	3.471952E-16	5.971801E-18
6.653543E+03	3.512891E-16	6.047737E-18
6.663386E+03	3.548318E-16	6.113062E-18
6.673228E+03	3.577501E-16	6.166447E-18
6.683071E+03	3.599822E-16	6.206775E-18
6.692913E+03	3.614838E-16	6.233246E-18
6.702756E+03	3.622346E-16	6.245488E-18
6.712598E+03	3.622268E-16	6.243360E-18
6.722441E+03	3.614770E-16	6.227166E-18
6.732283E+03	3.600224E-16	6.197575E-18
6.742126E+03	3.579232E-16	6.155669E-18
6.751969E+03	3.552525E-16	6.102762E-18
6.761811E+03	3.520934E-16	6.040348E-18
6.771654E+03	3.485492E-16	5.970272E-18
6.781496E+03	3.447275E-16	5.894451E-18
6.791339E+03	3.407370E-16	5.814817E-18
6.801181E+03	3.366971E-16	5.733470E-18
6.811024E+03	3.327219E-16	5.652409E-18
6.820866E+03	3.289176E-16	5.573483E-18
6.830709E+03	3.253926E-16	5.498553E-18
6.840551E+03	3.222425E-16	5.429243E-18
6.850394E+03	3.195526E-16	5.366978E-18
6.860236E+03	3.173962E-16	5.312958E-18
6.870079E+03	3.158294E-16	5.268071E-18
6.879921E+03	3.148977E-16	5.233004E-18
6.889764E+03	3.146387E-16	5.208297E-18
6.899606E+03	3.150586E-16	5.193950E-18
6.909449E+03	3.161545E-16	5.189801E-18
6.919291E+03	3.179062E-16	5.195403E-18
6.929134E+03	3.202806E-16	5.210090E-18
6.938976E+03	3.232193E-16	5.232795E-18
6.948819E+03	3.266524E-16	5.262279E-18
6.958661E+03	3.304953E-16	5.297082E-18
6.968504E+03	3.346507E-16	5.335573E-18
6.978346E+03	3.390120E-16	5.376003E-18
6.988189E+03	3.434617E-16	5.416492E-18
6.998031E+03	3.478843E-16	5.455234E-18
7.007874E+03	3.521705E-16	5.490570E-18
7.017717E+03	3.562045E-16	5.520783E-18
7.027559E+03	3.598985E-16	5.544637E-18
7.037402E+03	3.631614E-16	5.560889E-18
7.047244E+03	3.659285E-16	5.568736E-18
7.057087E+03	3.681545E-16	5.567703E-18
7.066929E+03	3.698191E-16	5.557715E-18
7.076772E+03	3.709085E-16	5.538806E-18
7.086614E+03	3.714369E-16	5.511436E-18
7.096457E+03	3.714353E-16	5.476312E-18
7.106299E+03	3.709486E-16	5.434336E-18
7.116142E+03	3.700275E-16	5.386475E-18
7.125984E+03	3.687342E-16	5.333851E-18
7.135827E+03	3.671343E-16	5.277605E-18
7.145669E+03	3.652933E-16	5.218854E-18
7.155512E+03	3.632647E-16	5.158520E-18
7.165354E+03	3.611054E-16	5.097555E-18
7.175197E+03	3.588696E-16	5.036852E-18
7.185039E+03	3.565893E-16	4.976969E-18
7.194882E+03	3.542961E-16	4.918457E-18
7.204724E+03	3.520122E-16	4.861720E-18
7.214567E+03	3.497508E-16	4.807032E-18
7.224409E+03	3.475083E-16	4.754432E-18
7.234252E+03	3.452826E-16	4.703982E-18
7.244094E+03	3.430658E-16	4.655660E-18
7.253937E+03	3.408453E-16	4.609382E-18
7.263780E+03	3.386004E-16	4.564952E-18
7.273622E+03	3.363079E-16	4.522139E-18
7.283465E+03	3.339469E-16	4.480741E-18
7.293307E+03	3.314946E-16	4.440524E-18
7.303150E+03	3.289285E-16	4.401229E-18
7.312992E+03	3.262214E-16	4.362513E-18
7.322835E+03	3.233448E-16	4.323998E-18
7.332677E+03	3.202796E-16	4.285422E-18
7.342520E+03	3.169914E-16	4.246301E-18
7.352362E+03	3.134507E-16	4.206197E-18
7.362205E+03	3.096210E-16	4.164556E-18
7.372047E+03	3.054631E-16	4.120732E-18
7.381890E+03	3.009407E-16	4.074026E-18
7.391732E+03	2.960175E-16	4.023704E-18
7.401575E+03	2.906674E-16	3.969144E-18
7.411417E+03	2.848846E-16	3.909984E-18
7.421260E+03	2.786839E-16	3.846128E-18
7.431102E+03	2.721140E-16	3.777945E-18
7.440945E+03	2.652413E-16	3.706056E-18
7.450787E+03	2.581568E-16	3.631452E-18
7.460630E+03	2.509474E-16	3.555094E-18
7.470472E+03	2.437063E-16	3.478080E-18
7.480315E+03	2.365193E-16	3.401442E-18
7.490157E+03	2.294678E-16	3.326199E-18
7.500000E+03	2.226181E-16	3.253200E-18
7.509843E+03	2.160286E-16	3.183223E-18
7.519685E+03	2.097499E-16	3.116974E-18
7.529528E+03	2.038038E-16	3.054768E-18
7.539370E+03	1.981956E-16	2.996697E-18
7.549213E+03	1.929157E-16	2.942642E-18
7.559055E+03	1.879654E-16	2.892660E-18
7.568898E+03	1.833338E-16	2.846632E-18
7.578740E+03	1.790198E-16	2.804595E-18
7.588583E+03	1.750210E-16	2.766578E-18
7.598425E+03	1.713346E-16	2.732606E-18
7.608268E+03	1.679655E-16	2.702836E-18
7.618110E+03	1.649090E-16	2.677282E-18
7.627953E+03	1.621690E-16	2.656098E-18
7.637795E+03	1.597385E-16	2.639265E-18
