#wls	flux	fluxerr
1.574803E+03	1.399885E-17	1.281148E-18
1.614173E+03	1.392013E-17	1.268126E-18
1.653543E+03	1.381497E-17	1.252625E-18
1.692913E+03	1.367596E-17	1.234009E-18
1.732283E+03	1.351070E-17	1.213007E-18
1.771654E+03	1.331589E-17	1.189362E-18
1.811024E+03	1.308274E-17	1.162338E-18
1.850394E+03	1.280639E-17	1.131566E-18
1.889764E+03	1.248159E-17	1.096655E-18
1.929134E+03	1.210269E-17	1.057192E-18
1.968504E+03	1.167312E-17	1.013569E-18
2.007874E+03	1.120831E-17	9.672118E-19
2.047244E+03	1.074575E-17	9.214060E-19
2.086614E+03	1.034869E-17	8.815525E-19
2.125984E+03	1.008011E-17	8.528818E-19
2.165354E+03	9.983966E-18	8.388761E-19
2.204724E+03	1.005716E-17	8.389736E-19
2.244094E+03	1.026316E-17	8.498386E-19
2.283465E+03	1.054291E-17	8.663612E-19
2.322835E+03	1.084955E-17	8.845689E-19
2.362205E+03	1.115103E-17	9.018025E-19
2.401575E+03	1.142917E-17	9.165974E-19
2.440945E+03	1.168037E-17	9.287009E-19
2.480315E+03	1.190337E-17	9.380563E-19
2.519685E+03	1.210166E-17	9.449832E-19
2.559055E+03	1.227978E-17	9.498747E-19
2.598425E+03	1.244240E-17	9.531236E-19
2.637795E+03	1.259395E-17	9.550902E-19
2.677165E+03	1.273853E-17	9.560997E-19
2.716535E+03	1.287996E-17	9.564434E-19
2.755906E+03	1.302002E-17	9.562508E-19
2.795276E+03	1.316407E-17	9.559071E-19
2.834646E+03	1.331204E-17	9.553891E-19
2.874016E+03	1.347117E-17	9.551916E-19
2.913386E+03	1.364694E-17	9.556616E-19
2.952756E+03	1.384499E-17	9.571353E-19
2.962598E+03	1.389758E-17	9.576247E-19
2.972441E+03	1.395448E-17	9.583723E-19
2.982283E+03	1.401229E-17	9.591417E-19
2.992126E+03	1.407284E-17	9.600567E-19
3.001969E+03	1.413629E-17	9.611268E-19
3.011811E+03	1.420109E-17	9.622449E-19
3.021654E+03	1.427073E-17	9.636449E-19
3.031496E+03	1.434220E-17	9.651210E-19
3.041339E+03	1.441788E-17	9.668311E-19
3.051181E+03	1.449777E-17	9.687725E-19
3.061024E+03	1.458008E-17	9.708223E-19
3.070866E+03	1.466814E-17	9.731995E-19
3.080709E+03	1.476017E-17	9.757823E-19
3.090551E+03	1.485782E-17	9.786762E-19
3.100394E+03	1.495931E-17	9.817599E-19
3.110236E+03	1.506459E-17	9.850280E-19
3.120079E+03	1.517534E-17	9.885853E-19
3.129921E+03	1.528980E-17	9.923141E-19
3.139764E+03	1.541134E-17	9.964298E-19
3.149606E+03	1.553651E-17	1.000704E-18
3.159449E+03	1.566696E-17	1.005239E-18
3.169291E+03	1.580265E-17	1.010029E-18
3.179134E+03	1.594353E-17	1.015066E-18
3.188976E+03	1.608951E-17	1.020341E-18
3.198819E+03	1.624053E-17	1.025845E-18
3.208661E+03	1.639821E-17	1.031675E-18
3.218504E+03	1.656246E-17	1.037821E-18
3.228346E+03	1.673141E-17	1.044162E-18
3.238189E+03	1.690666E-17	1.050791E-18
3.248031E+03	1.708803E-17	1.057692E-18
3.257874E+03	1.727533E-17	1.064850E-18
3.267717E+03	1.746835E-17	1.072246E-18
3.277559E+03	1.766857E-17	1.079965E-18
3.287402E+03	1.787398E-17	1.087879E-18
3.297244E+03	1.808603E-17	1.096071E-18
3.307087E+03	1.830437E-17	1.104514E-18
3.316929E+03	1.852689E-17	1.113077E-18
3.326772E+03	1.875671E-17	1.121942E-18
3.336614E+03	1.899168E-17	1.130974E-18
3.346457E+03	1.923312E-17	1.140247E-18
3.356299E+03	1.948059E-17	1.149730E-18
3.366142E+03	1.973192E-17	1.159289E-18
3.375984E+03	1.999021E-17	1.169103E-18
3.385827E+03	2.025157E-17	1.178937E-18
3.395669E+03	2.051916E-17	1.188974E-18
3.405512E+03	2.079278E-17	1.199195E-18
3.415354E+03	2.107229E-17	1.209586E-18
3.425197E+03	2.135777E-17	1.220148E-18
3.435039E+03	2.164959E-17	1.230894E-18
3.444882E+03	2.195014E-17	1.241956E-18
3.454724E+03	2.225856E-17	1.253277E-18
3.464567E+03	2.257770E-17	1.265008E-18
3.474409E+03	2.290881E-17	1.277210E-18
3.484252E+03	2.325331E-17	1.289952E-18
3.494094E+03	2.361276E-17	1.303307E-18
3.503937E+03	2.399060E-17	1.317452E-18
3.513780E+03	2.438869E-17	1.332471E-18
3.523622E+03	2.480897E-17	1.348453E-18
3.533465E+03	2.525186E-17	1.365400E-18
3.543307E+03	2.572306E-17	1.383598E-18
3.553150E+03	2.622324E-17	1.403059E-18
3.562992E+03	2.675671E-17	1.423985E-18
3.572835E+03	2.732447E-17	1.446401E-18
3.582677E+03	2.793115E-17	1.470519E-18
3.592520E+03	2.857987E-17	1.496467E-18
3.602362E+03	2.927216E-17	1.524288E-18
3.612205E+03	3.001509E-17	1.554309E-18
3.622047E+03	3.081066E-17	1.586587E-18
3.631890E+03	3.166287E-17	1.621279E-18
3.641732E+03	3.257600E-17	1.658552E-18
3.651575E+03	3.355642E-17	1.698674E-18
3.661417E+03	3.460716E-17	1.741736E-18
3.671260E+03	3.573337E-17	1.787931E-18
3.681102E+03	3.694426E-17	1.837649E-18
3.690945E+03	3.823992E-17	1.890817E-18
3.700787E+03	3.963219E-17	1.947940E-18
3.710630E+03	4.112159E-17	2.008953E-18
3.720472E+03	4.272072E-17	2.074380E-18
3.730315E+03	4.443247E-17	2.144260E-18
3.740157E+03	4.626391E-17	2.218826E-18
3.750000E+03	4.822656E-17	2.298517E-18
3.759843E+03	5.032135E-17	2.383257E-18
3.769685E+03	5.256223E-17	2.473577E-18
3.779528E+03	5.494975E-17	2.569370E-18
3.789370E+03	5.749785E-17	2.671145E-18
3.799213E+03	6.020619E-17	2.778736E-18
3.809055E+03	6.308562E-17	2.892490E-18
3.818898E+03	6.613908E-17	3.012383E-18
3.828740E+03	6.937085E-17	3.138442E-18
3.838583E+03	7.278138E-17	3.270520E-18
3.848425E+03	7.637746E-17	3.408753E-18
3.858268E+03	8.015639E-17	3.552844E-18
3.868110E+03	8.411279E-17	3.702384E-18
3.877953E+03	8.824175E-17	3.856988E-18
3.887795E+03	9.253888E-17	4.016304E-18
3.897638E+03	9.699073E-17	4.179589E-18
3.907480E+03	1.015838E-16	4.346118E-18
3.917323E+03	1.062981E-16	4.514909E-18
3.927165E+03	1.111204E-16	4.685284E-18
3.937008E+03	1.160175E-16	4.855748E-18
3.946850E+03	1.209700E-16	5.025426E-18
3.956693E+03	1.259459E-16	5.192938E-18
3.966535E+03	1.309100E-16	5.356824E-18
3.976378E+03	1.358333E-16	5.515913E-18
3.986220E+03	1.406777E-16	5.668711E-18
3.996063E+03	1.454128E-16	5.814068E-18
4.005906E+03	1.499968E-16	5.950432E-18
4.015748E+03	1.543971E-16	6.076659E-18
4.025591E+03	1.585877E-16	6.191916E-18
4.035433E+03	1.625383E-16	6.295222E-18
4.045276E+03	1.662269E-16	6.385965E-18
4.055118E+03	1.696329E-16	6.463605E-18
4.064961E+03	1.727495E-16	6.528157E-18
4.074803E+03	1.755638E-16	6.579420E-18
4.084646E+03	1.780814E-16	6.617890E-18
4.094488E+03	1.803058E-16	6.643978E-18
4.104331E+03	1.822536E-16	6.658579E-18
4.114173E+03	1.839337E-16	6.662282E-18
4.124016E+03	1.853709E-16	6.656237E-18
4.133858E+03	1.865842E-16	6.641357E-18
4.143701E+03	1.875982E-16	6.618728E-18
4.153543E+03	1.884378E-16	6.589420E-18
4.163386E+03	1.891238E-16	6.554324E-18
4.173228E+03	1.896794E-16	6.514394E-18
4.183071E+03	1.901264E-16	6.470500E-18
4.192913E+03	1.904839E-16	6.423402E-18
4.202756E+03	1.907649E-16	6.373627E-18
4.212598E+03	1.909794E-16	6.321586E-18
4.222441E+03	1.911455E-16	6.267950E-18
4.232283E+03	1.912635E-16	6.212781E-18
4.242126E+03	1.913345E-16	6.156173E-18
4.251969E+03	1.913674E-16	6.098465E-18
4.261811E+03	1.913545E-16	6.039463E-18
4.271654E+03	1.912968E-16	5.979250E-18
4.281496E+03	1.911837E-16	5.917555E-18
4.291339E+03	1.910144E-16	5.854414E-18
4.301181E+03	1.907850E-16	5.789774E-18
4.311024E+03	1.904899E-16	5.723537E-18
4.320866E+03	1.901292E-16	5.655778E-18
4.330709E+03	1.897068E-16	5.586681E-18
4.340551E+03	1.892275E-16	5.516459E-18
4.350394E+03	1.887082E-16	5.445664E-18
4.360236E+03	1.881701E-16	5.374949E-18
4.370079E+03	1.876389E-16	5.305075E-18
4.379921E+03	1.871485E-16	5.236994E-18
4.389764E+03	1.867384E-16	5.171782E-18
4.399606E+03	1.864401E-16	5.110250E-18
4.409449E+03	1.862907E-16	5.053321E-18
4.419291E+03	1.863279E-16	5.001905E-18
4.429134E+03	1.865810E-16	4.956637E-18
4.438976E+03	1.870753E-16	4.918022E-18
4.448819E+03	1.878343E-16	4.886482E-18
4.458661E+03	1.888760E-16	4.862283E-18
4.468504E+03	1.902125E-16	4.845523E-18
4.478346E+03	1.918465E-16	4.836061E-18
4.488189E+03	1.937799E-16	4.833728E-18
4.498031E+03	1.960017E-16	4.838051E-18
4.507874E+03	1.984943E-16	4.848407E-18
4.517717E+03	2.012384E-16	4.864162E-18
4.527559E+03	2.042055E-16	4.884483E-18
4.537402E+03	2.073582E-16	4.908365E-18
4.547244E+03	2.106568E-16	4.934790E-18
4.557087E+03	2.140546E-16	4.962617E-18
4.566929E+03	2.175077E-16	4.990829E-18
4.576772E+03	2.209684E-16	5.018358E-18
4.586614E+03	2.243864E-16	5.044134E-18
4.596457E+03	2.277162E-16	5.067235E-18
4.606299E+03	2.309160E-16	5.086866E-18
4.616142E+03	2.339485E-16	5.102364E-18
4.625984E+03	2.367823E-16	5.113228E-18
4.635827E+03	2.393890E-16	5.119044E-18
4.645669E+03	2.417530E-16	5.119688E-18
4.655512E+03	2.438583E-16	5.115038E-18
4.665354E+03	2.456984E-16	5.105177E-18
4.675197E+03	2.472594E-16	5.090034E-18
4.685039E+03	2.485165E-16	5.069320E-18
4.694882E+03	2.494177E-16	5.042204E-18
4.704724E+03	2.499017E-16	5.007705E-18
4.714567E+03	2.499227E-16	4.965172E-18
4.724409E+03	2.494530E-16	4.914332E-18
4.734252E+03	2.484821E-16	4.855253E-18
4.744094E+03	2.470348E-16	4.788669E-18
4.753937E+03	2.451496E-16	4.715554E-18
4.763780E+03	2.429013E-16	4.637526E-18
4.773622E+03	2.403786E-16	4.556414E-18
4.783465E+03	2.376830E-16	4.474221E-18
4.793307E+03	2.349310E-16	4.393164E-18
4.803150E+03	2.322401E-16	4.315393E-18
4.812992E+03	2.297263E-16	4.242967E-18
4.822835E+03	2.274997E-16	4.177788E-18
4.832677E+03	2.256627E-16	4.121580E-18
4.842520E+03	2.243017E-16	4.075748E-18
4.852362E+03	2.234872E-16	4.041394E-18
4.862205E+03	2.232726E-16	4.019305E-18
4.872047E+03	2.236956E-16	4.009988E-18
4.881890E+03	2.247737E-16	4.013598E-18
4.891732E+03	2.265061E-16	4.029979E-18
4.901575E+03	2.288771E-16	4.058719E-18
4.911417E+03	2.318489E-16	4.099026E-18
4.921260E+03	2.353738E-16	4.149951E-18
4.931102E+03	2.393892E-16	4.210312E-18
4.940945E+03	2.438117E-16	4.278582E-18
4.950787E+03	2.485601E-16	4.353291E-18
4.960630E+03	2.535317E-16	4.432612E-18
4.970472E+03	2.586268E-16	4.514787E-18
4.980315E+03	2.637460E-16	4.598065E-18
4.990157E+03	2.687872E-16	4.680663E-18
5.000000E+03	2.736602E-16	4.761003E-18
5.009843E+03	2.782903E-16	4.837777E-18
5.019685E+03	2.826165E-16	4.909914E-18
5.029528E+03	2.865973E-16	4.976675E-18
5.039370E+03	2.902126E-16	5.037686E-18
5.049213E+03	2.934669E-16	5.092995E-18
5.059055E+03	2.963759E-16	5.142838E-18
5.068898E+03	2.989892E-16	5.188036E-18
5.078740E+03	3.013524E-16	5.229335E-18
5.088583E+03	3.035375E-16	5.267937E-18
5.098425E+03	3.056170E-16	5.305053E-18
5.108268E+03	3.076664E-16	5.341947E-18
5.118110E+03	3.097577E-16	5.379822E-18
5.127953E+03	3.119669E-16	5.419955E-18
5.137795E+03	3.143625E-16	5.463492E-18
5.147638E+03	3.170042E-16	5.511432E-18
5.157480E+03	3.199550E-16	5.564835E-18
5.167323E+03	3.232615E-16	5.624472E-18
5.177165E+03	3.269623E-16	5.690986E-18
5.187008E+03	3.310983E-16	5.765053E-18
5.196850E+03	3.356877E-16	5.846955E-18
5.206693E+03	3.407489E-16	5.936985E-18
5.216535E+03	3.462896E-16	6.035242E-18
5.226378E+03	3.522946E-16	6.141426E-18
5.236220E+03	3.587459E-16	6.255184E-18
5.246063E+03	3.656071E-16	6.375845E-18
5.255906E+03	3.728305E-16	6.502535E-18
5.265748E+03	3.803416E-16	6.633911E-18
5.275591E+03	3.880627E-16	6.768571E-18
5.285433E+03	3.959000E-16	6.904833E-18
5.295276E+03	4.037528E-16	7.040895E-18
5.305118E+03	4.115208E-16	7.174959E-18
5.314961E+03	4.191053E-16	7.305262E-18
5.324803E+03	4.264106E-16	7.430090E-18
5.334646E+03	4.333669E-16	7.548177E-18
5.344488E+03	4.398960E-16	7.658107E-18
5.354331E+03	4.459447E-16	7.758906E-18
5.364173E+03	4.514505E-16	7.849430E-18
5.374016E+03	4.563763E-16	7.928987E-18
5.383858E+03	4.606743E-16	7.996708E-18
5.393701E+03	4.643176E-16	8.052095E-18
5.403543E+03	4.672805E-16	8.094682E-18
5.413386E+03	4.695457E-16	8.124156E-18
5.423228E+03	4.710825E-16	8.139986E-18
5.433071E+03	4.718719E-16	8.141857E-18
5.442913E+03	4.718900E-16	8.129379E-18
5.452756E+03	4.710911E-16	8.101806E-18
5.462598E+03	4.694358E-16	8.058515E-18
5.472441E+03	4.668781E-16	7.998791E-18
5.482283E+03	4.633644E-16	7.921809E-18
5.492126E+03	4.588345E-16	7.826657E-18
5.501969E+03	4.532563E-16	7.712924E-18
5.511811E+03	4.466056E-16	7.580356E-18
5.521654E+03	4.388784E-16	7.429069E-18
5.531496E+03	4.301061E-16	7.259791E-18
5.541339E+03	4.203587E-16	7.073911E-18
5.551181E+03	4.097335E-16	6.873280E-18
5.561024E+03	3.983656E-16	6.660381E-18
5.570866E+03	3.864234E-16	6.438226E-18
5.580709E+03	3.740892E-16	6.210037E-18
5.590551E+03	3.615636E-16	5.979299E-18
5.600394E+03	3.490562E-16	5.749599E-18
5.610236E+03	3.367674E-16	5.524325E-18
5.620079E+03	3.248901E-16	5.306679E-18
5.629921E+03	3.136132E-16	5.099744E-18
5.639764E+03	3.030989E-16	4.906107E-18
5.649606E+03	2.934937E-16	4.728044E-18
5.659449E+03	2.849244E-16	4.567458E-18
5.669291E+03	2.774951E-16	4.425839E-18
5.679134E+03	2.712999E-16	4.304467E-18
5.688976E+03	2.664022E-16	4.204093E-18
5.698819E+03	2.628663E-16	4.125447E-18
5.708661E+03	2.607276E-16	4.068771E-18
5.718504E+03	2.600228E-16	4.034303E-18
5.728346E+03	2.607699E-16	4.021962E-18
5.738189E+03	2.629780E-16	4.031516E-18
5.748031E+03	2.666426E-16	4.062516E-18
5.757874E+03	2.717433E-16	4.114263E-18
5.767717E+03	2.782365E-16	4.185713E-18
5.777559E+03	2.860585E-16	4.275535E-18
5.787402E+03	2.951098E-16	4.381894E-18
5.797244E+03	3.052587E-16	4.502520E-18
5.807087E+03	3.163374E-16	4.634678E-18
5.816929E+03	3.281285E-16	4.774977E-18
5.826772E+03	3.403791E-16	4.919619E-18
5.836614E+03	3.528027E-16	5.064436E-18
5.846457E+03	3.650799E-16	5.204915E-18
5.856299E+03	3.768654E-16	5.336319E-18
5.866142E+03	3.878207E-16	5.454152E-18
5.875984E+03	3.976176E-16	5.554206E-18
5.885827E+03	4.059573E-16	5.632809E-18
5.895669E+03	4.125949E-16	5.687147E-18
5.905512E+03	4.173513E-16	5.715386E-18
5.915354E+03	4.201231E-16	5.716780E-18
5.925197E+03	4.208832E-16	5.691627E-18
5.935039E+03	4.196911E-16	5.641371E-18
5.944882E+03	4.166693E-16	5.568246E-18
5.954724E+03	4.119996E-16	5.475199E-18
5.964567E+03	4.059170E-16	5.365787E-18
5.974409E+03	3.986829E-16	5.243802E-18
5.984252E+03	3.905702E-16	5.113086E-18
5.994094E+03	3.818558E-16	4.977422E-18
6.003937E+03	3.728210E-16	4.840557E-18
6.013780E+03	3.637210E-16	4.705821E-18
6.023622E+03	3.547918E-16	4.576224E-18
6.033465E+03	3.462529E-16	4.454523E-18
6.043307E+03	3.382986E-16	4.343114E-18
6.053150E+03	3.310899E-16	4.243957E-18
6.062992E+03	3.247682E-16	4.158759E-18
6.072835E+03	3.194535E-16	4.088965E-18
6.082677E+03	3.152263E-16	4.035484E-18
6.092520E+03	3.121380E-16	3.998872E-18
6.102362E+03	3.101778E-16	3.978932E-18
6.112205E+03	3.092550E-16	3.974479E-18
6.122047E+03	3.091684E-16	3.982899E-18
6.131890E+03	3.096868E-16	4.001185E-18
6.141732E+03	3.105809E-16	4.026341E-18
6.151575E+03	3.116710E-16	4.055995E-18
6.161417E+03	3.128392E-16	4.088544E-18
6.171260E+03	3.139970E-16	4.122750E-18
6.181102E+03	3.150820E-16	4.157699E-18
6.190945E+03	3.160454E-16	4.192633E-18
6.200787E+03	3.168450E-16	4.226866E-18
6.210630E+03	3.174458E-16	4.259788E-18
6.220472E+03	3.178189E-16	4.290862E-18
6.230315E+03	3.179444E-16	4.319657E-18
6.240157E+03	3.178081E-16	4.345811E-18
6.250000E+03	3.173947E-16	4.368937E-18
6.259843E+03	3.167041E-16	4.388852E-18
6.269685E+03	3.157317E-16	4.405314E-18
6.279528E+03	3.144880E-16	4.418288E-18
6.289370E+03	3.129817E-16	4.427720E-18
6.299213E+03	3.112231E-16	4.433584E-18
6.309055E+03	3.092361E-16	4.436059E-18
6.318898E+03	3.070423E-16	4.435299E-18
6.328740E+03	3.046694E-16	4.431569E-18
6.338583E+03	3.021393E-16	4.425054E-18
6.348425E+03	2.994886E-16	4.416180E-18
6.358268E+03	2.967506E-16	4.405339E-18
6.368110E+03	2.939518E-16	4.392838E-18
6.377953E+03	2.911367E-16	4.379278E-18
6.387795E+03	2.883407E-16	4.365138E-18
6.397638E+03	2.856112E-16	4.351100E-18
6.407480E+03	2.830016E-16	4.337963E-18
6.417323E+03	2.805619E-16	4.326495E-18
6.427165E+03	2.783509E-16	4.317621E-18
6.437008E+03	2.764229E-16	4.312219E-18
6.446850E+03	2.748385E-16	4.311287E-18
6.456693E+03	2.736456E-16	4.315639E-18
6.466535E+03	2.729013E-16	4.326254E-18
6.476378E+03	2.726488E-16	4.343901E-18
6.486220E+03	2.729338E-16	4.369395E-18
6.496063E+03	2.737812E-16	4.403232E-18
6.505906E+03	2.752171E-16	4.445920E-18
6.515748E+03	2.772467E-16	4.497632E-18
6.525591E+03	2.798679E-16	4.558409E-18
6.535433E+03	2.830584E-16	4.627953E-18
6.545276E+03	2.867878E-16	4.705820E-18
6.555118E+03	2.910116E-16	4.791314E-18
6.564961E+03	2.956656E-16	4.883395E-18
6.574803E+03	3.006761E-16	4.980843E-18
6.584646E+03	3.059610E-16	5.082276E-18
6.594488E+03	3.114254E-16	5.186081E-18
6.604331E+03	3.169656E-16	5.290475E-18
6.614173E+03	3.224722E-16	5.393561E-18
6.624016E+03	3.278317E-16	5.493360E-18
6.633858E+03	3.329337E-16	5.587938E-18
6.643701E+03	3.376627E-16	5.675262E-18
6.653543E+03	3.419166E-16	5.753527E-18
6.663386E+03	3.455992E-16	5.821025E-18
6.673228E+03	3.486270E-16	5.876277E-18
6.683071E+03	3.509284E-16	5.918009E-18
6.692913E+03	3.524633E-16	5.945496E-18
6.702756E+03	3.531996E-16	5.958166E-18
6.712598E+03	3.531311E-16	5.955905E-18
6.722441E+03	3.522780E-16	5.939060E-18
6.732283E+03	3.506732E-16	5.908215E-18
6.742126E+03	3.483737E-16	5.864376E-18
6.751969E+03	3.454592E-16	5.808943E-18
6.761811E+03	3.420163E-16	5.743444E-18
6.771654E+03	3.381527E-16	5.669769E-18
6.781496E+03	3.339777E-16	5.589829E-18
6.791339E+03	3.296148E-16	5.505776E-18
6.801181E+03	3.251868E-16	5.419731E-18
6.811024E+03	3.208120E-16	5.333732E-18
6.820866E+03	3.166135E-16	5.249876E-18
6.830709E+03	3.127008E-16	5.170008E-18
6.840551E+03	3.091826E-16	5.095938E-18
6.850394E+03	3.061531E-16	5.029207E-18
6.860236E+03	3.036905E-16	4.971065E-18
6.870079E+03	3.018625E-16	4.922563E-18
6.879921E+03	3.007251E-16	4.884532E-18
6.889764E+03	3.003102E-16	4.857390E-18
6.899606E+03	3.006393E-16	4.841366E-18
6.909449E+03	3.017081E-16	4.836255E-18
6.919291E+03	3.034929E-16	4.841536E-18
6.929134E+03	3.059614E-16	4.856547E-18
6.938976E+03	3.090509E-16	4.880147E-18
6.948819E+03	3.126802E-16	4.910919E-18
6.958661E+03	3.167625E-16	4.947383E-18
6.968504E+03	3.211776E-16	4.987564E-18
6.978346E+03	3.258134E-16	5.029657E-18
6.988189E+03	3.305430E-16	5.071673E-18
6.998031E+03	3.352289E-16	5.111515E-18
7.007874E+03	3.397487E-16	5.147366E-18
7.017717E+03	3.439842E-16	5.177533E-18
7.027559E+03	3.478302E-16	5.200573E-18
7.037402E+03	3.511951E-16	5.215294E-18
7.047244E+03	3.540080E-16	5.220854E-18
7.057087E+03	3.562343E-16	5.216985E-18
7.066929E+03	3.578455E-16	5.203529E-18
7.076772E+03	3.588495E-16	5.180870E-18
7.086614E+03	3.592620E-16	5.149511E-18
7.096457E+03	3.591302E-16	5.110399E-18
7.106299E+03	3.585115E-16	5.064608E-18
7.116142E+03	3.574646E-16	5.013212E-18
7.125984E+03	3.560722E-16	4.957597E-18
7.135827E+03	3.544012E-16	4.898894E-18
7.145669E+03	3.525255E-16	4.838304E-18
7.155512E+03	3.505095E-16	4.776871E-18
7.165354E+03	3.484183E-16	4.715622E-18
7.175197E+03	3.462983E-16	4.655309E-18
7.185039E+03	3.441891E-16	4.596576E-18
7.194882E+03	3.421100E-16	4.539781E-18
7.204724E+03	3.400858E-16	4.485352E-18
7.214567E+03	3.381137E-16	4.433347E-18
7.224409E+03	3.361860E-16	4.383762E-18
7.234252E+03	3.343001E-16	4.336661E-18
7.244094E+03	3.324309E-16	4.291816E-18
7.253937E+03	3.305534E-16	4.249006E-18
7.263780E+03	3.286485E-16	4.208091E-18
7.273622E+03	3.266875E-16	4.168803E-18
7.283465E+03	3.246499E-16	4.130979E-18
7.293307E+03	3.225031E-16	4.094298E-18
7.303150E+03	3.202280E-16	4.058598E-18
7.312992E+03	3.178038E-16	4.023651E-18
7.322835E+03	3.152112E-16	3.989225E-18
7.332677E+03	3.124258E-16	3.955006E-18
7.342520E+03	3.094324E-16	3.920783E-18
7.352362E+03	3.061960E-16	3.886069E-18
7.362205E+03	3.026878E-16	3.850440E-18
7.372047E+03	2.988697E-16	3.813320E-18
7.381890E+03	2.947019E-16	3.774043E-18
7.391732E+03	2.901342E-16	3.731719E-18
7.401575E+03	2.851287E-16	3.685584E-18
7.411417E+03	2.796562E-16	3.634956E-18
7.421260E+03	2.737276E-16	3.579651E-18
7.431102E+03	2.673916E-16	3.519973E-18
7.440945E+03	2.607277E-16	3.456632E-18
7.450787E+03	2.538370E-16	3.390659E-18
7.460630E+03	2.468245E-16	3.323169E-18
7.470472E+03	2.397856E-16	3.255200E-18
7.480315E+03	2.328179E-16	3.187871E-18
7.490157E+03	2.259983E-16	3.122072E-18
7.500000E+03	2.194024E-16	3.058728E-18
7.509843E+03	2.130938E-16	2.998651E-18
7.519685E+03	2.071181E-16	2.942444E-18
7.529528E+03	2.014913E-16	2.890334E-18
7.539370E+03	1.962095E-16	2.842279E-18
7.549213E+03	1.912504E-16	2.797988E-18
7.559055E+03	1.866031E-16	2.757335E-18
7.568898E+03	1.822531E-16	2.720148E-18
7.578740E+03	1.781937E-16	2.686375E-18
7.588583E+03	1.744253E-16	2.656082E-18
7.598425E+03	1.709474E-16	2.629324E-18
7.608268E+03	1.677663E-16	2.606275E-18
7.618110E+03	1.648845E-16	2.587059E-18
7.627953E+03	1.623087E-16	2.571870E-18
7.637795E+03	1.600387E-16	2.560808E-18
