#wls	flux	fluxerr
1.574803E+03	1.441001E-17	1.306429E-18
1.614173E+03	1.432946E-17	1.293304E-18
1.653543E+03	1.422165E-17	1.277646E-18
1.692913E+03	1.407894E-17	1.258807E-18
1.732283E+03	1.390913E-17	1.237526E-18
1.771654E+03	1.370884E-17	1.213542E-18
1.811024E+03	1.346901E-17	1.186103E-18
1.850394E+03	1.318462E-17	1.154829E-18
1.889764E+03	1.285028E-17	1.119320E-18
1.929134E+03	1.246015E-17	1.079153E-18
1.968504E+03	1.201778E-17	1.034728E-18
2.007874E+03	1.153905E-17	9.874984E-19
2.047244E+03	1.106256E-17	9.408170E-19
2.086614E+03	1.065343E-17	9.002001E-19
2.125984E+03	1.037647E-17	8.709910E-19
2.165354E+03	1.027692E-17	8.567480E-19
2.204724E+03	1.035156E-17	8.569007E-19
2.244094E+03	1.056273E-17	8.680432E-19
2.283465E+03	1.084959E-17	8.849560E-19
2.322835E+03	1.116389E-17	9.035806E-19
2.362205E+03	1.147260E-17	9.211981E-19
2.401575E+03	1.175699E-17	9.363110E-19
2.440945E+03	1.201333E-17	9.486586E-19
2.480315E+03	1.224028E-17	9.581796E-19
2.519685E+03	1.244143E-17	9.652000E-19
2.559055E+03	1.262140E-17	9.701184E-19
2.598425E+03	1.278497E-17	9.733330E-19
2.637795E+03	1.293665E-17	9.752115E-19
2.677165E+03	1.308061E-17	9.760831E-19
2.716535E+03	1.322074E-17	9.762433E-19
2.755906E+03	1.335882E-17	9.758226E-19
2.795276E+03	1.350032E-17	9.752136E-19
2.834646E+03	1.364511E-17	9.743915E-19
2.874016E+03	1.380059E-17	9.738603E-19
2.913386E+03	1.397235E-17	9.739760E-19
2.952756E+03	1.416615E-17	9.750829E-19
2.962598E+03	1.421763E-17	9.754785E-19
2.972441E+03	1.427348E-17	9.761355E-19
2.982283E+03	1.433022E-17	9.768132E-19
2.992126E+03	1.438970E-17	9.776376E-19
3.001969E+03	1.445210E-17	9.786187E-19
3.011811E+03	1.451586E-17	9.796479E-19
3.021654E+03	1.458451E-17	9.809628E-19
3.031496E+03	1.465500E-17	9.823546E-19
3.041339E+03	1.472975E-17	9.839834E-19
3.051181E+03	1.480877E-17	9.858478E-19
3.061024E+03	1.489023E-17	9.878219E-19
3.070866E+03	1.497752E-17	9.901293E-19
3.080709E+03	1.506885E-17	9.926458E-19
3.090551E+03	1.516588E-17	9.954791E-19
3.100394E+03	1.526681E-17	9.985063E-19
3.110236E+03	1.537160E-17	1.001722E-18
3.120079E+03	1.548194E-17	1.005233E-18
3.129921E+03	1.559606E-17	1.008920E-18
3.139764E+03	1.571740E-17	1.013003E-18
3.149606E+03	1.584242E-17	1.017247E-18
3.159449E+03	1.597285E-17	1.021761E-18
3.169291E+03	1.610861E-17	1.026536E-18
3.179134E+03	1.624965E-17	1.031564E-18
3.188976E+03	1.639592E-17	1.036837E-18
3.198819E+03	1.654733E-17	1.042346E-18
3.208661E+03	1.670553E-17	1.048190E-18
3.218504E+03	1.687044E-17	1.054359E-18
3.228346E+03	1.704015E-17	1.060728E-18
3.238189E+03	1.721627E-17	1.067393E-18
3.248031E+03	1.739862E-17	1.074338E-18
3.257874E+03	1.758701E-17	1.081545E-18
3.267717E+03	1.778119E-17	1.088995E-18
3.277559E+03	1.798266E-17	1.096774E-18
3.287402E+03	1.818936E-17	1.104751E-18
3.297244E+03	1.840272E-17	1.113007E-18
3.307087E+03	1.862237E-17	1.121516E-18
3.316929E+03	1.884612E-17	1.130140E-18
3.326772E+03	1.907712E-17	1.139062E-18
3.336614E+03	1.931310E-17	1.148144E-18
3.346457E+03	1.955538E-17	1.157457E-18
3.356299E+03	1.980345E-17	1.166968E-18
3.366142E+03	2.005506E-17	1.176537E-18
3.375984E+03	2.031327E-17	1.186341E-18
3.385827E+03	2.057409E-17	1.196141E-18
3.395669E+03	2.084070E-17	1.206120E-18
3.405512E+03	2.111282E-17	1.216256E-18
3.415354E+03	2.139028E-17	1.226534E-18
3.425197E+03	2.167316E-17	1.236953E-18
3.435039E+03	2.196177E-17	1.247527E-18
3.444882E+03	2.225855E-17	1.258388E-18
3.454724E+03	2.256261E-17	1.269479E-18
3.464567E+03	2.287683E-17	1.280954E-18
3.474409E+03	2.320249E-17	1.292876E-18
3.484252E+03	2.354105E-17	1.305316E-18
3.494094E+03	2.389412E-17	1.318351E-18
3.503937E+03	2.426522E-17	1.332162E-18
3.513780E+03	2.465622E-17	1.346836E-18
3.523622E+03	2.506917E-17	1.362466E-18
3.533465E+03	2.550447E-17	1.379055E-18
3.543307E+03	2.596795E-17	1.396897E-18
3.553150E+03	2.646031E-17	1.416005E-18
3.562992E+03	2.698593E-17	1.436587E-18
3.572835E+03	2.754583E-17	1.458667E-18
3.582677E+03	2.814474E-17	1.482465E-18
3.592520E+03	2.878581E-17	1.508112E-18
3.602362E+03	2.947064E-17	1.535654E-18
3.612205E+03	3.020638E-17	1.565421E-18
3.622047E+03	3.099509E-17	1.597477E-18
3.631890E+03	3.184086E-17	1.631983E-18
3.641732E+03	3.274806E-17	1.669112E-18
3.651575E+03	3.372317E-17	1.709137E-18
3.661417E+03	3.476934E-17	1.752156E-18
3.671260E+03	3.589185E-17	1.798371E-18
3.681102E+03	3.710007E-17	1.848180E-18
3.690945E+03	3.839428E-17	1.901519E-18
3.700787E+03	3.978651E-17	1.958905E-18
3.710630E+03	4.127749E-17	2.020284E-18
3.720472E+03	4.288008E-17	2.086192E-18
3.730315E+03	4.459747E-17	2.156683E-18
3.740157E+03	4.643700E-17	2.232005E-18
3.750000E+03	4.841054E-17	2.312615E-18
3.759843E+03	5.051938E-17	2.398452E-18
3.769685E+03	5.277784E-17	2.490067E-18
3.779528E+03	5.518688E-17	2.587370E-18
3.789370E+03	5.776085E-17	2.690890E-18
3.799213E+03	6.049981E-17	2.800479E-18
3.809055E+03	6.341507E-17	2.916505E-18
3.818898E+03	6.650995E-17	3.038958E-18
3.828740E+03	6.978916E-17	3.167885E-18
3.838583E+03	7.325348E-17	3.303150E-18
3.848425E+03	7.691011E-17	3.444906E-18
3.858268E+03	8.075651E-17	3.592860E-18
3.868110E+03	8.478761E-17	3.746611E-18
3.877953E+03	8.899862E-17	3.905776E-18
3.887795E+03	9.338514E-17	4.069997E-18
3.897638E+03	9.793377E-17	4.238529E-18
3.907480E+03	1.026308E-16	4.410629E-18
3.917323E+03	1.074559E-16	4.585291E-18
3.927165E+03	1.123957E-16	4.761827E-18
3.937008E+03	1.174161E-16	4.938694E-18
3.946850E+03	1.224975E-16	5.114997E-18
3.956693E+03	1.276068E-16	5.289300E-18
3.966535E+03	1.327083E-16	5.460113E-18
3.976378E+03	1.377721E-16	5.626217E-18
3.986220E+03	1.427594E-16	5.786076E-18
3.996063E+03	1.476392E-16	5.938505E-18
4.005906E+03	1.523688E-16	6.081908E-18
4.015748E+03	1.569153E-16	6.215117E-18
4.025591E+03	1.612526E-16	6.337274E-18
4.035433E+03	1.653497E-16	6.447375E-18
4.045276E+03	1.691848E-16	6.544792E-18
4.055118E+03	1.727367E-16	6.628964E-18
4.064961E+03	1.759989E-16	6.699906E-18
4.074803E+03	1.789579E-16	6.757387E-18
4.084646E+03	1.816194E-16	6.801904E-18
4.094488E+03	1.839863E-16	6.833846E-18
4.104331E+03	1.860752E-16	6.854109E-18
4.114173E+03	1.878946E-16	6.863260E-18
4.124016E+03	1.894692E-16	6.862457E-18
4.133858E+03	1.908176E-16	6.852604E-18
4.143701E+03	1.919646E-16	6.834796E-18
4.153543E+03	1.929350E-16	6.810110E-18
4.163386E+03	1.937496E-16	6.779441E-18
4.173228E+03	1.944317E-16	6.743755E-18
4.183071E+03	1.950032E-16	6.703931E-18
4.192913E+03	1.954831E-16	6.660736E-18
4.202756E+03	1.958840E-16	6.614687E-18
4.212598E+03	1.962157E-16	6.566194E-18
4.222441E+03	1.964957E-16	6.515916E-18
4.232283E+03	1.967234E-16	6.463886E-18
4.242126E+03	1.968988E-16	6.410168E-18
4.251969E+03	1.970298E-16	6.355078E-18
4.261811E+03	1.971071E-16	6.298371E-18
4.271654E+03	1.971304E-16	6.240095E-18
4.281496E+03	1.970872E-16	6.179922E-18
4.291339E+03	1.969752E-16	6.117857E-18
4.301181E+03	1.967892E-16	6.053809E-18
4.311024E+03	1.965219E-16	5.987642E-18
4.320866E+03	1.961726E-16	5.919415E-18
4.330709E+03	1.957442E-16	5.849299E-18
4.340551E+03	1.952413E-16	5.777522E-18
4.350394E+03	1.946817E-16	5.704674E-18
4.360236E+03	1.940873E-16	5.631460E-18
4.370079E+03	1.934857E-16	5.558715E-18
4.379921E+03	1.929131E-16	5.487491E-18
4.389764E+03	1.924118E-16	5.418962E-18
4.399606E+03	1.920160E-16	5.354044E-18
4.409449E+03	1.917653E-16	5.293756E-18
4.419291E+03	1.917006E-16	5.239106E-18
4.429134E+03	1.918528E-16	5.190803E-18
4.438976E+03	1.922494E-16	5.149416E-18
4.448819E+03	1.929151E-16	5.115415E-18
4.458661E+03	1.938690E-16	5.089102E-18
4.468504E+03	1.951235E-16	5.070589E-18
4.478346E+03	1.966816E-16	5.059739E-18
4.488189E+03	1.985448E-16	5.056377E-18
4.498031E+03	2.007019E-16	5.060013E-18
4.507874E+03	2.031342E-16	5.069990E-18
4.517717E+03	2.058220E-16	5.085645E-18
4.527559E+03	2.087360E-16	5.106114E-18
4.537402E+03	2.118380E-16	5.130346E-18
4.547244E+03	2.150876E-16	5.157285E-18
4.557087E+03	2.184379E-16	5.185757E-18
4.566929E+03	2.218446E-16	5.214705E-18
4.576772E+03	2.252601E-16	5.243038E-18
4.586614E+03	2.286343E-16	5.269648E-18
4.596457E+03	2.319220E-16	5.293596E-18
4.606299E+03	2.350821E-16	5.314068E-18
4.616142E+03	2.380781E-16	5.330393E-18
4.625984E+03	2.408796E-16	5.342064E-18
4.635827E+03	2.434593E-16	5.348665E-18
4.645669E+03	2.458024E-16	5.350069E-18
4.655512E+03	2.478932E-16	5.346141E-18
4.665354E+03	2.497250E-16	5.336947E-18
4.675197E+03	2.512837E-16	5.322393E-18
4.685039E+03	2.525457E-16	5.302189E-18
4.694882E+03	2.534666E-16	5.275626E-18
4.704724E+03	2.539928E-16	5.241827E-18
4.714567E+03	2.540846E-16	5.200226E-18
4.724409E+03	2.537179E-16	5.150587E-18
4.734252E+03	2.528827E-16	5.092965E-18
4.744094E+03	2.516016E-16	5.028051E-18
4.753937E+03	2.499084E-16	4.956734E-18
4.763780E+03	2.478710E-16	4.880538E-18
4.773622E+03	2.455710E-16	4.801196E-18
4.783465E+03	2.431018E-16	4.720622E-18
4.793307E+03	2.405736E-16	4.640984E-18
4.803150E+03	2.380991E-16	4.564419E-18
4.812992E+03	2.357904E-16	4.492987E-18
4.822835E+03	2.337538E-16	4.428598E-18
4.832677E+03	2.320889E-16	4.372989E-18
4.842520E+03	2.308798E-16	4.327582E-18
4.852362E+03	2.301955E-16	4.293491E-18
4.862205E+03	2.300885E-16	4.271523E-18
4.872047E+03	2.305966E-16	4.262205E-18
4.881890E+03	2.317374E-16	4.265706E-18
4.891732E+03	2.335113E-16	4.281887E-18
4.901575E+03	2.359039E-16	4.310344E-18
4.911417E+03	2.388792E-16	4.350288E-18
4.921260E+03	2.423911E-16	4.400771E-18
4.931102E+03	2.463794E-16	4.460612E-18
4.940945E+03	2.507631E-16	4.528276E-18
4.950787E+03	2.554643E-16	4.602307E-18
4.960630E+03	2.603836E-16	4.680878E-18
4.970472E+03	2.654254E-16	4.762253E-18
4.980315E+03	2.704939E-16	4.844697E-18
4.990157E+03	2.754911E-16	4.926453E-18
5.000000E+03	2.803302E-16	5.005966E-18
5.009843E+03	2.849394E-16	5.081954E-18
5.019685E+03	2.892602E-16	5.153368E-18
5.029528E+03	2.932522E-16	5.219484E-18
5.039370E+03	2.968953E-16	5.279929E-18
5.049213E+03	3.001932E-16	5.334756E-18
5.059055E+03	3.031593E-16	5.384177E-18
5.068898E+03	3.058411E-16	5.429006E-18
5.078740E+03	3.082805E-16	5.469953E-18
5.088583E+03	3.105469E-16	5.508216E-18
5.098425E+03	3.127103E-16	5.544993E-18
5.108268E+03	3.148446E-16	5.581554E-18
5.118110E+03	3.170209E-16	5.619115E-18
5.127953E+03	3.193150E-16	5.658980E-18
5.137795E+03	3.217961E-16	5.702332E-18
5.147638E+03	3.245248E-16	5.750203E-18
5.157480E+03	3.275657E-16	5.803699E-18
5.167323E+03	3.309667E-16	5.863627E-18
5.177165E+03	3.347676E-16	5.930656E-18
5.187008E+03	3.390107E-16	6.005494E-18
5.196850E+03	3.437149E-16	6.088439E-18
5.206693E+03	3.489000E-16	6.179803E-18
5.216535E+03	3.545745E-16	6.279695E-18
5.226378E+03	3.607236E-16	6.387816E-18
5.236220E+03	3.673305E-16	6.503823E-18
5.246063E+03	3.743599E-16	6.627052E-18
5.255906E+03	3.817659E-16	6.756643E-18
5.265748E+03	3.894751E-16	6.891254E-18
5.275591E+03	3.974119E-16	7.029501E-18
5.285433E+03	4.054836E-16	7.169700E-18
5.295276E+03	4.135894E-16	7.310024E-18
5.305118E+03	4.216250E-16	7.448588E-18
5.314961E+03	4.294859E-16	7.583508E-18
5.324803E+03	4.370705E-16	7.712954E-18
5.334646E+03	4.443032E-16	7.835545E-18
5.344488E+03	4.511000E-16	7.949757E-18
5.354331E+03	4.574025E-16	8.054519E-18
5.364173E+03	4.631417E-16	8.148567E-18
5.374016E+03	4.682743E-16	8.231105E-18
5.383858E+03	4.727454E-16	8.301136E-18
5.393701E+03	4.765207E-16	8.358035E-18
5.403543E+03	4.795666E-16	8.401204E-18
5.413386E+03	4.818580E-16	8.430198E-18
5.423228E+03	4.833565E-16	8.444359E-18
5.433071E+03	4.840375E-16	8.443276E-18
5.442913E+03	4.838729E-16	8.426497E-18
5.452756E+03	4.828163E-16	8.393261E-18
5.462598E+03	4.808310E-16	8.343000E-18
5.472441E+03	4.778779E-16	8.275120E-18
5.482283E+03	4.739141E-16	8.188978E-18
5.492126E+03	4.688926E-16	8.083890E-18
5.501969E+03	4.627977E-16	7.959724E-18
5.511811E+03	4.556225E-16	7.816526E-18
5.521654E+03	4.473799E-16	7.654696E-18
5.531496E+03	4.381170E-16	7.475234E-18
5.541339E+03	4.279172E-16	7.279761E-18
5.551181E+03	4.168877E-16	7.070304E-18
5.561024E+03	4.051703E-16	6.849463E-18
5.570866E+03	3.929360E-16	6.620317E-18
5.580709E+03	3.803673E-16	6.386101E-18
5.590551E+03	3.676621E-16	6.150276E-18
5.600394E+03	3.550260E-16	5.916386E-18
5.610236E+03	3.426541E-16	5.687747E-18
5.620079E+03	3.307329E-16	5.467484E-18
5.629921E+03	3.194447E-16	5.258591E-18
5.639764E+03	3.089448E-16	5.063570E-18
5.649606E+03	2.993729E-16	4.884608E-18
5.659449E+03	2.908492E-16	4.723524E-18
5.669291E+03	2.834717E-16	4.581734E-18
5.679134E+03	2.773285E-16	4.460448E-18
5.688976E+03	2.724777E-16	4.360358E-18
5.698819E+03	2.689792E-16	4.282149E-18
5.708661E+03	2.668634E-16	4.226012E-18
5.718504E+03	2.661628E-16	4.192142E-18
5.728346E+03	2.668902E-16	4.180412E-18
5.738189E+03	2.690495E-16	4.190537E-18
5.748031E+03	2.726313E-16	4.222018E-18
5.757874E+03	2.776095E-16	4.274100E-18
5.767717E+03	2.839356E-16	4.345687E-18
5.777559E+03	2.915418E-16	4.435410E-18
5.787402E+03	3.003262E-16	4.541405E-18
5.797244E+03	3.101559E-16	4.661391E-18
5.807087E+03	3.208647E-16	4.792640E-18
5.816929E+03	3.322391E-16	4.931796E-18
5.826772E+03	3.440336E-16	5.075120E-18
5.836614E+03	3.559724E-16	5.218530E-18
5.846457E+03	3.677498E-16	5.357626E-18
5.856299E+03	3.790365E-16	5.487791E-18
5.866142E+03	3.895119E-16	5.604662E-18
5.875984E+03	3.988661E-16	5.704152E-18
5.885827E+03	4.068165E-16	5.782681E-18
5.895669E+03	4.131323E-16	5.837491E-18
5.905512E+03	4.176436E-16	5.866756E-18
5.915354E+03	4.202519E-16	5.869688E-18
5.925197E+03	4.209296E-16	5.846496E-18
5.935039E+03	4.197312E-16	5.798510E-18
5.944882E+03	4.167708E-16	5.727824E-18
5.954724E+03	4.122200E-16	5.637257E-18
5.964567E+03	4.063027E-16	5.530254E-18
5.974409E+03	3.992693E-16	5.410524E-18
5.984252E+03	3.913835E-16	5.281859E-18
5.994094E+03	3.829140E-16	5.148023E-18
6.003937E+03	3.741354E-16	5.012778E-18
6.013780E+03	3.652978E-16	4.879486E-18
6.023622E+03	3.566328E-16	4.751201E-18
6.033465E+03	3.483564E-16	4.630732E-18
6.043307E+03	3.406594E-16	4.520524E-18
6.053150E+03	3.336998E-16	4.422579E-18
6.062992E+03	3.276159E-16	4.338638E-18
6.072835E+03	3.225241E-16	4.270168E-18
6.082677E+03	3.185014E-16	4.218074E-18
6.092520E+03	3.155959E-16	4.182904E-18
6.102362E+03	3.137939E-16	4.164422E-18
6.112205E+03	3.130042E-16	4.161402E-18
6.122047E+03	3.130343E-16	4.171262E-18
6.131890E+03	3.136603E-16	4.190993E-18
6.141732E+03	3.146602E-16	4.217604E-18
6.151575E+03	3.158560E-16	4.248668E-18
6.161417E+03	3.171248E-16	4.282474E-18
6.171260E+03	3.183729E-16	4.317681E-18
6.181102E+03	3.195337E-16	4.353295E-18
6.190945E+03	3.205557E-16	4.388505E-18
6.200787E+03	3.213947E-16	4.422589E-18
6.210630E+03	3.220156E-16	4.454928E-18
6.220472E+03	3.223903E-16	4.484987E-18
6.230315E+03	3.225006E-16	4.512359E-18
6.240157E+03	3.223344E-16	4.536710E-18
6.250000E+03	3.218787E-16	4.557690E-18
6.259843E+03	3.211362E-16	4.575164E-18
6.269685E+03	3.201048E-16	4.588934E-18
6.279528E+03	3.187977E-16	4.599015E-18
6.289370E+03	3.172263E-16	4.605405E-18
6.299213E+03	3.154030E-16	4.608128E-18
6.309055E+03	3.133543E-16	4.607413E-18
6.318898E+03	3.111036E-16	4.603466E-18
6.328740E+03	3.086810E-16	4.596599E-18
6.338583E+03	3.061099E-16	4.587043E-18
6.348425E+03	3.034289E-16	4.575274E-18
6.358268E+03	3.006729E-16	4.561725E-18
6.368110E+03	2.978698E-16	4.546747E-18
6.377953E+03	2.950658E-16	4.530982E-18
6.387795E+03	2.922967E-16	4.514938E-18
6.397638E+03	2.896105E-16	4.499324E-18
6.407480E+03	2.870604E-16	4.484958E-18
6.417323E+03	2.846956E-16	4.472609E-18
6.427165E+03	2.825730E-16	4.463194E-18
6.437008E+03	2.807441E-16	4.457562E-18
6.446850E+03	2.792663E-16	4.456671E-18
6.456693E+03	2.781835E-16	4.461284E-18
6.466535E+03	2.775483E-16	4.472311E-18
6.476378E+03	2.773996E-16	4.490458E-18
6.486220E+03	2.777787E-16	4.516473E-18
6.496063E+03	2.787066E-16	4.550780E-18
6.505906E+03	2.802064E-16	4.593835E-18
6.515748E+03	2.822809E-16	4.645759E-18
6.525591E+03	2.849264E-16	4.706560E-18
6.535433E+03	2.881206E-16	4.775921E-18
6.545276E+03	2.918333E-16	4.853385E-18
6.555118E+03	2.960215E-16	4.938264E-18
6.564961E+03	3.006227E-16	5.029528E-18
6.574803E+03	3.055654E-16	5.125970E-18
6.584646E+03	3.107702E-16	5.226239E-18
6.594488E+03	3.161447E-16	5.328739E-18
6.604331E+03	3.215884E-16	5.431722E-18
6.614173E+03	3.269944E-16	5.533320E-18
6.624016E+03	3.322528E-16	5.631592E-18
6.633858E+03	3.372562E-16	5.724640E-18
6.643701E+03	3.418928E-16	5.810479E-18
6.653543E+03	3.460637E-16	5.887345E-18
6.663386E+03	3.496759E-16	5.953580E-18
6.673228E+03	3.526488E-16	6.007740E-18
6.683071E+03	3.549137E-16	6.048600E-18
6.692913E+03	3.564323E-16	6.075463E-18
6.702756E+03	3.571743E-16	6.087787E-18
6.712598E+03	3.571345E-16	6.085479E-18
6.722441E+03	3.563333E-16	6.068897E-18
6.732283E+03	3.548036E-16	6.038631E-18
6.742126E+03	3.526020E-16	5.995690E-18
6.751969E+03	3.498066E-16	5.941460E-18
6.761811E+03	3.465025E-16	5.877456E-18
6.771654E+03	3.427953E-16	5.805545E-18
6.781496E+03	3.387913E-16	5.727605E-18
6.791339E+03	3.346110E-16	5.645746E-18
6.801181E+03	3.303730E-16	5.562043E-18
6.811024E+03	3.261919E-16	5.478482E-18
6.820866E+03	3.221864E-16	5.397102E-18
6.830709E+03	3.184614E-16	5.319689E-18
6.840551E+03	3.151211E-16	5.247993E-18
6.850394E+03	3.122551E-16	5.183496E-18
6.860236E+03	3.099375E-16	5.127391E-18
6.870079E+03	3.082318E-16	5.080679E-18
6.879921E+03	3.071908E-16	5.044152E-18
6.889764E+03	3.068434E-16	5.018192E-18
6.899606E+03	3.072090E-16	5.003008E-18
6.909449E+03	3.082823E-16	4.998388E-18
6.919291E+03	3.100391E-16	5.003815E-18
6.929134E+03	3.124486E-16	5.018654E-18
6.938976E+03	3.154503E-16	5.041808E-18
6.948819E+03	3.189669E-16	5.071917E-18
6.958661E+03	3.229165E-16	5.107576E-18
6.968504E+03	3.271844E-16	5.146888E-18
6.978346E+03	3.316654E-16	5.188141E-18
6.988189E+03	3.362396E-16	5.229437E-18
6.998031E+03	3.407763E-16	5.268758E-18
7.007874E+03	3.451599E-16	5.304369E-18
7.017717E+03	3.492778E-16	5.334631E-18
7.027559E+03	3.530292E-16	5.358137E-18
7.037402E+03	3.563251E-16	5.373703E-18
7.047244E+03	3.590957E-16	5.380476E-18
7.057087E+03	3.613054E-16	5.378146E-18
7.066929E+03	3.629232E-16	5.366496E-18
7.076772E+03	3.639530E-16	5.345837E-18
7.086614E+03	3.644052E-16	5.316580E-18
7.096457E+03	3.643213E-16	5.279589E-18
7.106299E+03	3.637525E-16	5.235847E-18
7.116142E+03	3.627514E-16	5.186349E-18
7.125984E+03	3.613948E-16	5.132408E-18
7.135827E+03	3.597447E-16	5.075097E-18
7.145669E+03	3.578707E-16	5.015577E-18
7.155512E+03	3.558340E-16	4.954860E-18
7.165354E+03	3.536977E-16	4.893966E-18
7.175197E+03	3.515077E-16	4.833654E-18
7.185039E+03	3.493042E-16	4.774584E-18
7.194882E+03	3.471081E-16	4.717146E-18
7.204724E+03	3.449473E-16	4.661815E-18
7.214567E+03	3.428227E-16	4.608694E-18
7.224409E+03	3.407309E-16	4.557828E-18
7.234252E+03	3.386737E-16	4.509335E-18
7.244094E+03	3.366305E-16	4.463027E-18
7.253937E+03	3.345802E-16	4.418720E-18
7.263780E+03	3.325073E-16	4.376298E-18
7.273622E+03	3.303860E-16	4.335512E-18
7.283465E+03	3.281973E-16	4.296200E-18
7.293307E+03	3.259097E-16	4.258029E-18
7.303150E+03	3.235041E-16	4.220810E-18
7.312992E+03	3.209587E-16	4.184285E-18
7.322835E+03	3.182514E-16	4.148172E-18
7.332677E+03	3.153542E-16	4.112099E-18
7.342520E+03	3.122477E-16	4.075795E-18
7.352362E+03	3.088932E-16	4.038711E-18
7.362205E+03	3.052596E-16	4.000380E-18
7.372047E+03	3.013077E-16	3.960196E-18
7.381890E+03	2.969992E-16	3.917469E-18
7.391732E+03	2.922885E-16	3.871356E-18
7.401575E+03	2.871459E-16	3.821196E-18
7.411417E+03	2.815508E-16	3.766426E-18
7.421260E+03	2.755205E-16	3.706968E-18
7.431102E+03	2.691016E-16	3.643135E-18
7.440945E+03	2.623664E-16	3.575595E-18
7.450787E+03	2.554090E-16	3.505335E-18
7.460630E+03	2.483286E-16	3.433450E-18
7.470472E+03	2.412166E-16	3.360969E-18
7.480315E+03	2.341685E-16	3.289024E-18
7.490157E+03	2.272588E-16	3.218512E-18
7.500000E+03	2.205625E-16	3.150376E-18
7.509843E+03	2.141424E-16	3.085439E-18
7.519685E+03	2.080437E-16	3.024318E-18
7.529528E+03	2.022849E-16	2.967274E-18
7.539370E+03	1.968685E-16	2.914358E-18
7.549213E+03	1.917779E-16	2.865352E-18
7.559055E+03	1.870064E-16	2.820193E-18
7.568898E+03	1.825424E-16	2.778749E-18
7.578740E+03	1.783803E-16	2.740987E-18
7.588583E+03	1.745203E-16	2.706970E-18
7.598425E+03	1.709605E-16	2.676734E-18
7.608268E+03	1.677051E-16	2.650424E-18
7.618110E+03	1.647544E-16	2.628125E-18
7.627953E+03	1.621123E-16	2.609993E-18
7.637795E+03	1.597764E-16	2.596084E-18
