#wls	flux	fluxerr
1.574803E+03	1.800320E-17	1.514122E-18
1.614173E+03	1.798517E-17	1.499990E-18
1.653543E+03	1.792642E-17	1.482229E-18
1.692913E+03	1.783313E-17	1.461433E-18
1.732283E+03	1.770126E-17	1.437353E-18
1.771654E+03	1.753204E-17	1.410177E-18
1.811024E+03	1.731030E-17	1.378789E-18
1.850394E+03	1.703429E-17	1.343182E-18
1.889764E+03	1.669243E-17	1.302596E-18
1.929134E+03	1.627570E-17	1.256509E-18
1.968504E+03	1.578951E-17	1.205544E-18
2.007874E+03	1.525292E-17	1.151338E-18
2.047244E+03	1.472046E-17	1.098120E-18
2.086614E+03	1.427282E-17	1.051849E-18
2.125984E+03	1.400563E-17	1.019280E-18
2.165354E+03	1.398512E-17	1.004686E-18
2.204724E+03	1.420985E-17	1.007275E-18
2.244094E+03	1.463279E-17	1.023045E-18
2.283465E+03	1.517435E-17	1.045912E-18
2.322835E+03	1.576877E-17	1.071033E-18
2.362205E+03	1.636499E-17	1.094804E-18
2.401575E+03	1.693777E-17	1.115532E-18
2.440945E+03	1.747706E-17	1.132613E-18
2.480315E+03	1.798153E-17	1.146048E-18
2.519685E+03	1.845410E-17	1.156113E-18
2.559055E+03	1.889695E-17	1.163030E-18
2.598425E+03	1.931495E-17	1.167181E-18
2.637795E+03	1.971277E-17	1.168917E-18
2.677165E+03	2.009939E-17	1.168822E-18
2.716535E+03	2.047617E-17	1.167009E-18
2.755906E+03	2.085124E-17	1.163965E-18
2.795276E+03	2.122544E-17	1.159745E-18
2.834646E+03	2.159976E-17	1.154410E-18
2.874016E+03	2.197322E-17	1.147915E-18
2.913386E+03	2.234762E-17	1.140369E-18
2.952756E+03	2.272764E-17	1.132017E-18
2.962598E+03	2.282557E-17	1.129904E-18
2.972441E+03	2.292332E-17	1.127713E-18
2.982283E+03	2.302316E-17	1.125556E-18
2.992126E+03	2.312308E-17	1.123333E-18
3.001969E+03	2.322552E-17	1.121163E-18
3.011811E+03	2.333077E-17	1.119057E-18
3.021654E+03	2.343673E-17	1.116914E-18
3.031496E+03	2.354629E-17	1.114869E-18
3.041339E+03	2.365771E-17	1.112839E-18
3.051181E+03	2.377173E-17	1.110857E-18
3.061024E+03	2.389248E-17	1.109112E-18
3.070866E+03	2.401560E-17	1.107397E-18
3.080709E+03	2.414526E-17	1.105903E-18
3.090551E+03	2.427717E-17	1.104428E-18
3.100394E+03	2.441554E-17	1.103161E-18
3.110236E+03	2.455824E-17	1.102001E-18
3.120079E+03	2.470528E-17	1.100945E-18
3.129921E+03	2.485882E-17	1.100086E-18
3.139764E+03	2.501680E-17	1.099327E-18
3.149606E+03	2.518139E-17	1.098760E-18
3.159449E+03	2.535057E-17	1.098292E-18
3.169291E+03	2.552863E-17	1.098104E-18
3.179134E+03	2.571148E-17	1.098014E-18
3.188976E+03	2.590134E-17	1.098113E-18
3.198819E+03	2.610041E-17	1.098487E-18
3.208661E+03	2.630672E-17	1.099047E-18
3.218504E+03	2.652036E-17	1.099791E-18
3.228346E+03	2.674562E-17	1.100889E-18
3.238189E+03	2.697841E-17	1.102165E-18
3.248031E+03	2.722086E-17	1.103699E-18
3.257874E+03	2.747301E-17	1.105486E-18
3.267717E+03	2.773690E-17	1.107599E-18
3.277559E+03	2.801245E-17	1.110026E-18
3.287402E+03	2.829742E-17	1.112668E-18
3.297244E+03	2.859571E-17	1.115672E-18
3.307087E+03	2.890695E-17	1.119012E-18
3.316929E+03	2.922855E-17	1.122578E-18
3.326772E+03	2.956190E-17	1.126416E-18
3.336614E+03	2.990822E-17	1.130563E-18
3.346457E+03	3.026641E-17	1.134969E-18
3.356299E+03	3.063303E-17	1.139495E-18
3.366142E+03	3.101277E-17	1.144309E-18
3.375984E+03	3.139954E-17	1.149180E-18
3.385827E+03	3.179542E-17	1.154179E-18
3.395669E+03	3.219809E-17	1.159216E-18
3.405512E+03	3.260727E-17	1.164278E-18
3.415354E+03	3.301866E-17	1.169209E-18
3.425197E+03	3.343477E-17	1.174097E-18
3.435039E+03	3.385549E-17	1.178939E-18
3.444882E+03	3.428227E-17	1.183782E-18
3.454724E+03	3.471944E-17	1.188773E-18
3.464567E+03	3.517178E-17	1.194067E-18
3.474409E+03	3.564220E-17	1.199753E-18
3.484252E+03	3.613378E-17	1.205920E-18
3.494094E+03	3.665168E-17	1.212726E-18
3.503937E+03	3.719702E-17	1.220187E-18
3.513780E+03	3.777705E-17	1.228520E-18
3.523622E+03	3.839090E-17	1.237667E-18
3.533465E+03	3.904186E-17	1.247707E-18
3.543307E+03	3.973544E-17	1.258783E-18
3.553150E+03	4.047522E-17	1.270975E-18
3.562992E+03	4.126102E-17	1.284238E-18
3.572835E+03	4.210104E-17	1.298790E-18
3.582677E+03	4.299567E-17	1.314599E-18
3.592520E+03	4.395183E-17	1.331830E-18
3.602362E+03	4.497279E-17	1.350534E-18
3.612205E+03	4.606647E-17	1.370894E-18
3.622047E+03	4.723525E-17	1.392923E-18
3.631890E+03	4.848832E-17	1.416832E-18
3.641732E+03	4.983361E-17	1.442783E-18
3.651575E+03	5.127989E-17	1.470955E-18
3.661417E+03	5.283260E-17	1.501424E-18
3.671260E+03	5.450661E-17	1.534526E-18
3.681102E+03	5.630937E-17	1.570375E-18
3.690945E+03	5.825371E-17	1.609224E-18
3.700787E+03	6.035595E-17	1.651411E-18
3.710630E+03	6.262707E-17	1.697111E-18
3.720472E+03	6.508604E-17	1.746702E-18
3.730315E+03	6.774869E-17	1.800461E-18
3.740157E+03	7.063438E-17	1.858741E-18
3.750000E+03	7.376125E-17	1.921842E-18
3.759843E+03	7.715341E-17	1.990203E-18
3.769685E+03	8.082823E-17	2.064062E-18
3.779528E+03	8.481167E-17	2.143861E-18
3.789370E+03	8.912725E-17	2.229953E-18
3.799213E+03	9.379357E-17	2.322544E-18
3.809055E+03	9.883662E-17	2.422005E-18
3.818898E+03	1.042764E-16	2.528537E-18
3.828740E+03	1.101307E-16	2.642261E-18
3.838583E+03	1.164214E-16	2.763387E-18
3.848425E+03	1.231608E-16	2.891871E-18
3.858268E+03	1.303599E-16	3.027633E-18
3.868110E+03	1.380207E-16	3.170372E-18
3.877953E+03	1.461419E-16	3.319713E-18
3.887795E+03	1.547103E-16	3.475012E-18
3.897638E+03	1.637113E-16	3.635616E-18
3.907480E+03	1.731086E-16	3.800402E-18
3.917323E+03	1.828628E-16	3.968227E-18
3.927165E+03	1.929288E-16	4.137861E-18
3.937008E+03	2.032320E-16	4.307498E-18
3.946850E+03	2.137111E-16	4.475685E-18
3.956693E+03	2.242809E-16	4.640542E-18
3.966535E+03	2.348483E-16	4.800109E-18
3.976378E+03	2.453135E-16	4.952391E-18
3.986220E+03	2.555901E-16	5.095762E-18
3.996063E+03	2.655642E-16	5.228137E-18
4.005906E+03	2.751470E-16	5.348040E-18
4.015748E+03	2.842520E-16	5.454125E-18
4.025591E+03	2.927912E-16	5.545108E-18
4.035433E+03	3.007156E-16	5.620517E-18
4.045276E+03	3.079620E-16	5.679676E-18
4.055118E+03	3.145174E-16	5.722879E-18
4.064961E+03	3.203697E-16	5.750446E-18
4.074803E+03	3.255248E-16	5.763038E-18
4.084646E+03	3.300190E-16	5.761828E-18
4.094488E+03	3.338895E-16	5.747978E-18
4.104331E+03	3.371852E-16	5.722805E-18
4.114173E+03	3.399820E-16	5.688037E-18
4.124016E+03	3.423355E-16	5.644985E-18
4.133858E+03	3.443161E-16	5.595153E-18
4.143701E+03	3.460004E-16	5.540074E-18
4.153543E+03	3.474562E-16	5.481072E-18
4.163386E+03	3.487411E-16	5.419243E-18
4.173228E+03	3.499194E-16	5.355738E-18
4.183071E+03	3.510355E-16	5.291350E-18
4.192913E+03	3.521375E-16	5.226885E-18
4.202756E+03	3.532629E-16	5.162951E-18
4.212598E+03	3.544186E-16	5.099691E-18
4.222441E+03	3.556277E-16	5.037467E-18
4.232283E+03	3.568675E-16	4.975995E-18
4.242126E+03	3.581225E-16	4.915104E-18
4.251969E+03	3.593414E-16	4.854165E-18
4.261811E+03	3.604729E-16	4.792592E-18
4.271654E+03	3.614311E-16	4.729394E-18
4.281496E+03	3.621320E-16	4.663679E-18
4.291339E+03	3.624675E-16	4.594314E-18
4.301181E+03	3.623199E-16	4.520135E-18
4.311024E+03	3.615781E-16	4.440142E-18
4.320866E+03	3.601169E-16	4.353242E-18
4.330709E+03	3.578356E-16	4.258712E-18
4.340551E+03	3.546651E-16	4.156257E-18
4.350394E+03	3.505893E-16	4.046218E-18
4.360236E+03	3.457011E-16	3.930158E-18
4.370079E+03	3.402271E-16	3.811042E-18
4.379921E+03	3.344384E-16	3.692152E-18
4.389764E+03	3.286253E-16	3.576782E-18
4.399606E+03	3.230518E-16	3.467755E-18
4.409449E+03	3.179571E-16	3.367464E-18
4.419291E+03	3.135437E-16	3.277706E-18
4.429134E+03	3.099669E-16	3.199650E-18
4.438976E+03	3.073558E-16	3.134138E-18
4.448819E+03	3.057917E-16	3.081504E-18
4.458661E+03	3.053204E-16	3.041723E-18
4.468504E+03	3.059590E-16	3.014501E-18
4.478346E+03	3.076912E-16	2.999242E-18
4.488189E+03	3.104717E-16	2.995114E-18
4.498031E+03	3.142367E-16	3.001147E-18
4.507874E+03	3.188821E-16	3.016047E-18
4.517717E+03	3.242862E-16	3.038406E-18
4.527559E+03	3.303021E-16	3.066649E-18
4.537402E+03	3.367524E-16	3.098981E-18
4.547244E+03	3.434584E-16	3.133665E-18
4.557087E+03	3.502120E-16	3.168756E-18
4.566929E+03	3.568086E-16	3.202412E-18
4.576772E+03	3.630484E-16	3.232895E-18
4.586614E+03	3.687482E-16	3.258668E-18
4.596457E+03	3.737484E-16	3.278447E-18
4.606299E+03	3.779439E-16	3.291464E-18
4.616142E+03	3.812563E-16	3.297207E-18
4.625984E+03	3.836916E-16	3.295901E-18
4.635827E+03	3.852880E-16	3.288044E-18
4.645669E+03	3.861414E-16	3.274612E-18
4.655512E+03	3.863886E-16	3.256907E-18
4.665354E+03	3.861728E-16	3.236255E-18
4.675197E+03	3.856341E-16	3.213932E-18
4.685039E+03	3.848364E-16	3.190562E-18
4.694882E+03	3.837162E-16	3.165709E-18
4.704724E+03	3.821742E-16	3.138659E-18
4.714567E+03	3.801026E-16	3.108643E-18
4.724409E+03	3.774391E-16	3.075276E-18
4.734252E+03	3.741591E-16	3.038479E-18
4.744094E+03	3.703031E-16	2.998691E-18
4.753937E+03	3.659528E-16	2.956672E-18
4.763780E+03	3.612283E-16	2.913456E-18
4.773622E+03	3.562923E-16	2.870381E-18
4.783465E+03	3.513356E-16	2.828997E-18
4.793307E+03	3.465601E-16	2.790932E-18
4.803150E+03	3.421797E-16	2.757911E-18
4.812992E+03	3.383896E-16	2.731523E-18
4.822835E+03	3.353523E-16	2.713113E-18
4.832677E+03	3.332047E-16	2.703850E-18
4.842520E+03	3.320467E-16	2.704639E-18
4.852362E+03	3.319481E-16	2.716181E-18
4.862205E+03	3.329480E-16	2.738972E-18
4.872047E+03	3.350697E-16	2.773358E-18
4.881890E+03	3.382969E-16	2.819281E-18
4.891732E+03	3.425891E-16	2.876493E-18
4.901575E+03	3.478760E-16	2.944512E-18
4.911417E+03	3.540546E-16	3.022580E-18
4.921260E+03	3.609902E-16	3.109652E-18
4.931102E+03	3.685049E-16	3.204276E-18
4.940945E+03	3.763953E-16	3.304724E-18
4.950787E+03	3.844251E-16	3.408908E-18
4.960630E+03	3.923553E-16	3.514628E-18
4.970472E+03	3.999503E-16	3.619620E-18
4.980315E+03	4.069967E-16	3.721727E-18
4.990157E+03	4.133351E-16	3.819204E-18
5.000000E+03	4.188442E-16	3.910591E-18
5.009843E+03	4.234590E-16	3.994908E-18
5.019685E+03	4.271887E-16	4.071855E-18
5.029528E+03	4.300674E-16	4.141377E-18
5.039370E+03	4.321960E-16	4.204086E-18
5.049213E+03	4.336997E-16	4.260880E-18
5.059055E+03	4.347262E-16	4.312934E-18
5.068898E+03	4.354291E-16	4.361551E-18
5.078740E+03	4.359719E-16	4.408203E-18
5.088583E+03	4.365069E-16	4.454313E-18
5.098425E+03	4.371739E-16	4.501243E-18
5.108268E+03	4.380980E-16	4.550261E-18
5.118110E+03	4.393899E-16	4.602532E-18
5.127953E+03	4.411524E-16	4.659175E-18
5.137795E+03	4.434645E-16	4.721099E-18
5.147638E+03	4.464172E-16	4.789361E-18
5.157480E+03	4.500888E-16	4.864912E-18
5.167323E+03	4.545495E-16	4.948634E-18
5.177165E+03	4.598706E-16	5.041437E-18
5.187008E+03	4.661173E-16	5.144175E-18
5.196850E+03	4.733509E-16	5.257673E-18
5.206693E+03	4.816150E-16	5.382562E-18
5.216535E+03	4.909315E-16	5.519234E-18
5.226378E+03	5.013079E-16	5.667908E-18
5.236220E+03	5.127358E-16	5.828614E-18
5.246063E+03	5.251804E-16	6.001065E-18
5.255906E+03	5.385814E-16	6.184666E-18
5.265748E+03	5.528662E-16	6.378651E-18
5.275591E+03	5.679526E-16	6.582122E-18
5.285433E+03	5.837314E-16	6.793840E-18
5.295276E+03	6.000787E-16	7.012368E-18
5.305118E+03	6.168095E-16	7.235523E-18
5.314961E+03	6.337006E-16	7.460638E-18
5.324803E+03	6.504954E-16	7.684603E-18
5.334646E+03	6.668911E-16	7.903711E-18
5.344488E+03	6.825730E-16	8.114031E-18
5.354331E+03	6.972325E-16	8.311621E-18
5.364173E+03	7.105670E-16	8.492575E-18
5.374016E+03	7.223279E-16	8.653606E-18
5.383858E+03	7.323049E-16	8.791881E-18
5.393701E+03	7.403520E-16	8.905344E-18
5.403543E+03	7.463860E-16	8.992713E-18
5.413386E+03	7.503554E-16	9.053115E-18
5.423228E+03	7.522515E-16	9.086231E-18
5.433071E+03	7.520874E-16	9.092046E-18
5.442913E+03	7.498948E-16	9.070810E-18
5.452756E+03	7.456988E-16	9.022739E-18
5.462598E+03	7.395222E-16	8.948071E-18
5.472441E+03	7.313937E-16	8.847156E-18
5.482283E+03	7.213305E-16	8.720256E-18
5.492126E+03	7.093767E-16	8.568004E-18
5.501969E+03	6.955915E-16	8.391265E-18
5.511811E+03	6.800669E-16	8.191341E-18
5.521654E+03	6.629283E-16	7.969978E-18
5.531496E+03	6.443590E-16	7.729650E-18
5.541339E+03	6.245794E-16	7.473302E-18
5.551181E+03	6.038497E-16	7.204358E-18
5.561024E+03	5.824666E-16	6.926678E-18
5.570866E+03	5.607304E-16	6.644142E-18
5.580709E+03	5.389684E-16	6.360912E-18
5.590551E+03	5.175049E-16	6.081065E-18
5.600394E+03	4.966405E-16	5.808330E-18
5.610236E+03	4.766594E-16	5.546177E-18
5.620079E+03	4.578171E-16	5.297654E-18
5.629921E+03	4.403397E-16	5.065382E-18
5.639764E+03	4.244076E-16	4.851373E-18
5.649606E+03	4.101734E-16	4.657232E-18
5.659449E+03	3.977456E-16	4.483979E-18
5.669291E+03	3.872086E-16	4.332292E-18
5.679134E+03	3.786102E-16	4.202365E-18
5.688976E+03	3.719810E-16	4.094143E-18
5.698819E+03	3.673226E-16	4.007196E-18
5.708661E+03	3.646251E-16	3.940923E-18
5.718504E+03	3.638530E-16	3.894414E-18
5.728346E+03	3.649599E-16	3.866613E-18
5.738189E+03	3.678723E-16	3.856165E-18
5.748031E+03	3.724976E-16	3.861517E-18
5.757874E+03	3.787226E-16	3.880915E-18
5.767717E+03	3.863986E-16	3.912279E-18
5.777559E+03	3.953507E-16	3.953319E-18
5.787402E+03	4.053723E-16	4.001511E-18
5.797244E+03	4.162244E-16	4.054117E-18
5.807087E+03	4.276379E-16	4.108235E-18
5.816929E+03	4.393160E-16	4.160862E-18
5.826772E+03	4.509371E-16	4.208937E-18
5.836614E+03	4.621728E-16	4.249541E-18
5.846457E+03	4.726997E-16	4.280014E-18
5.856299E+03	4.822007E-16	4.297968E-18
5.866142E+03	4.903877E-16	4.301483E-18
5.875984E+03	4.970310E-16	4.289345E-18
5.885827E+03	5.019311E-16	4.260758E-18
5.895669E+03	5.049770E-16	4.215806E-18
5.905512E+03	5.061110E-16	4.155093E-18
5.915354E+03	5.053434E-16	4.079812E-18
5.925197E+03	5.027590E-16	3.991746E-18
5.935039E+03	4.984907E-16	3.892993E-18
5.944882E+03	4.927248E-16	3.785974E-18
5.954724E+03	4.856803E-16	3.673230E-18
5.964567E+03	4.776126E-16	3.557427E-18
5.974409E+03	4.687779E-16	3.441074E-18
5.984252E+03	4.594522E-16	3.326666E-18
5.994094E+03	4.498948E-16	3.216419E-18
6.003937E+03	4.403728E-16	3.112464E-18
6.013780E+03	4.311204E-16	3.016575E-18
6.023622E+03	4.223616E-16	2.930361E-18
6.033465E+03	4.142987E-16	2.855210E-18
6.043307E+03	4.071075E-16	2.792287E-18
6.053150E+03	4.009451E-16	2.742615E-18
6.062992E+03	3.959452E-16	2.707064E-18
6.072835E+03	3.922170E-16	2.686224E-18
6.082677E+03	3.898324E-16	2.680376E-18
6.092520E+03	3.888440E-16	2.689750E-18
6.102362E+03	3.892395E-16	2.714218E-18
6.112205E+03	3.908843E-16	2.752842E-18
6.122047E+03	3.934567E-16	2.803327E-18
6.131890E+03	3.965910E-16	2.862995E-18
6.141732E+03	3.999141E-16	2.929006E-18
6.151575E+03	4.031387E-16	2.999005E-18
6.161417E+03	4.060880E-16	3.071331E-18
6.171260E+03	4.086247E-16	3.144520E-18
6.181102E+03	4.106669E-16	3.217456E-18
6.190945E+03	4.121504E-16	3.289101E-18
6.200787E+03	4.130463E-16	3.358659E-18
6.210630E+03	4.133501E-16	3.425513E-18
6.220472E+03	4.130666E-16	3.489121E-18
6.230315E+03	4.122373E-16	3.549266E-18
6.240157E+03	4.109105E-16	3.605828E-18
6.250000E+03	4.091462E-16	3.658834E-18
6.259843E+03	4.070156E-16	3.708470E-18
6.269685E+03	4.045839E-16	3.754936E-18
6.279528E+03	4.019242E-16	3.798561E-18
6.289370E+03	3.991059E-16	3.839716E-18
6.299213E+03	3.961889E-16	3.878737E-18
6.309055E+03	3.932263E-16	3.915955E-18
6.318898E+03	3.902696E-16	3.951736E-18
6.328740E+03	3.873597E-16	3.986385E-18
6.338583E+03	3.845411E-16	4.020285E-18
6.348425E+03	3.818415E-16	4.053682E-18
6.358268E+03	3.792942E-16	4.086910E-18
6.368110E+03	3.769269E-16	4.120269E-18
6.377953E+03	3.747713E-16	4.154129E-18
6.387795E+03	3.728554E-16	4.188844E-18
6.397638E+03	3.712098E-16	4.224813E-18
6.407480E+03	3.698673E-16	4.262483E-18
6.417323E+03	3.688639E-16	4.302356E-18
6.427165E+03	3.682384E-16	4.344986E-18
6.437008E+03	3.680324E-16	4.390976E-18
6.446850E+03	3.682882E-16	4.440954E-18
6.456693E+03	3.690523E-16	4.495614E-18
6.466535E+03	3.703607E-16	4.555534E-18
6.476378E+03	3.722577E-16	4.621400E-18
6.486220E+03	3.747639E-16	4.693610E-18
6.496063E+03	3.779085E-16	4.772661E-18
6.505906E+03	3.816964E-16	4.858743E-18
6.515748E+03	3.861289E-16	4.951979E-18
6.525591E+03	3.911882E-16	5.052232E-18
6.535433E+03	3.968413E-16	5.159140E-18
6.545276E+03	4.030395E-16	5.272110E-18
6.555118E+03	4.097225E-16	5.390364E-18
6.564961E+03	4.168102E-16	5.512827E-18
6.574803E+03	4.242076E-16	5.638192E-18
6.584646E+03	4.318013E-16	5.764874E-18
6.594488E+03	4.394817E-16	5.891302E-18
6.604331E+03	4.471210E-16	6.015634E-18
6.614173E+03	4.545801E-16	6.135850E-18
6.624016E+03	4.617289E-16	6.250038E-18
6.633858E+03	4.684291E-16	6.356159E-18
6.643701E+03	4.745667E-16	6.452502E-18
6.653543E+03	4.800217E-16	6.537281E-18
6.663386E+03	4.847019E-16	6.609101E-18
6.673228E+03	4.885166E-16	6.666605E-18
6.683071E+03	4.914278E-16	6.709183E-18
6.692913E+03	4.933923E-16	6.736181E-18
6.702756E+03	4.944114E-16	6.747588E-18
6.712598E+03	4.945002E-16	6.743610E-18
6.722441E+03	4.937178E-16	6.725087E-18
6.732283E+03	4.921218E-16	6.692864E-18
6.742126E+03	4.898151E-16	6.648426E-18
6.751969E+03	4.868995E-16	6.593255E-18
6.761811E+03	4.834899E-16	6.529020E-18
6.771654E+03	4.797292E-16	6.457772E-18
6.781496E+03	4.757532E-16	6.381450E-18
6.791339E+03	4.716866E-16	6.301836E-18
6.801181E+03	4.676765E-16	6.220982E-18
6.811024E+03	4.638462E-16	6.140595E-18
6.820866E+03	4.603167E-16	6.062317E-18
6.830709E+03	4.572048E-16	5.987696E-18
6.840551E+03	4.546023E-16	5.917911E-18
6.850394E+03	4.525934E-16	5.853997E-18
6.860236E+03	4.512525E-16	5.796825E-18
6.870079E+03	4.506257E-16	5.746861E-18
6.879921E+03	4.507476E-16	5.704390E-18
6.889764E+03	4.516406E-16	5.669513E-18
6.899606E+03	4.532903E-16	5.641850E-18
6.909449E+03	4.556877E-16	5.621071E-18
6.919291E+03	4.587866E-16	5.606383E-18
6.929134E+03	4.625281E-16	5.596850E-18
6.938976E+03	4.668356E-16	5.591340E-18
6.948819E+03	4.716159E-16	5.588554E-18
6.958661E+03	4.767548E-16	5.586994E-18
6.968504E+03	4.821453E-16	5.585300E-18
6.978346E+03	4.876454E-16	5.581779E-18
6.988189E+03	4.931211E-16	5.574910E-18
6.998031E+03	4.984438E-16	5.563321E-18
7.007874E+03	5.034823E-16	5.545701E-18
7.017717E+03	5.080994E-16	5.520767E-18
7.027559E+03	5.121975E-16	5.487766E-18
7.037402E+03	5.156742E-16	5.445972E-18
7.047244E+03	5.184455E-16	5.394938E-18
7.057087E+03	5.204620E-16	5.334648E-18
7.066929E+03	5.216815E-16	5.265213E-18
7.076772E+03	5.220909E-16	5.187080E-18
7.086614E+03	5.216976E-16	5.100928E-18
7.096457E+03	5.205284E-16	5.007637E-18
7.106299E+03	5.186272E-16	4.908244E-18
7.116142E+03	5.160372E-16	4.803772E-18
7.125984E+03	5.128402E-16	4.695577E-18
7.135827E+03	5.090961E-16	4.584777E-18
7.145669E+03	5.048810E-16	4.472606E-18
7.155512E+03	5.002698E-16	4.360243E-18
7.165354E+03	4.953333E-16	4.248791E-18
7.175197E+03	4.901291E-16	4.139204E-18
7.185039E+03	4.847142E-16	4.032395E-18
7.194882E+03	4.791316E-16	3.929124E-18
7.204724E+03	4.734165E-16	3.830064E-18
7.214567E+03	4.676176E-16	3.735960E-18
7.224409E+03	4.617444E-16	3.647215E-18
7.234252E+03	4.558212E-16	3.564317E-18
7.244094E+03	4.498734E-16	3.487730E-18
7.253937E+03	4.439047E-16	3.417683E-18
7.263780E+03	4.379336E-16	3.354430E-18
7.273622E+03	4.319732E-16	3.298126E-18
7.283465E+03	4.260448E-16	3.248944E-18
7.293307E+03	4.201473E-16	3.206834E-18
7.303150E+03	4.142858E-16	3.171746E-18
7.312992E+03	4.084643E-16	3.143562E-18
7.322835E+03	4.026634E-16	3.121801E-18
7.332677E+03	3.968478E-16	3.105666E-18
7.342520E+03	3.909862E-16	3.094350E-18
7.352362E+03	3.850201E-16	3.086796E-18
7.362205E+03	3.788994E-16	3.081986E-18
7.372047E+03	3.725470E-16	3.078645E-18
7.381890E+03	3.659123E-16	3.075683E-18
7.391732E+03	3.589278E-16	3.071834E-18
7.401575E+03	3.515473E-16	3.065985E-18
7.411417E+03	3.437375E-16	3.057116E-18
7.421260E+03	3.354965E-16	3.044481E-18
7.431102E+03	3.268523E-16	3.027624E-18
7.440945E+03	3.178595E-16	3.006388E-18
7.450787E+03	3.085914E-16	2.980858E-18
7.460630E+03	2.991260E-16	2.951256E-18
7.470472E+03	2.895334E-16	2.917821E-18
7.480315E+03	2.798938E-16	2.880987E-18
7.490157E+03	2.702670E-16	2.841076E-18
7.500000E+03	2.607255E-16	2.798629E-18
7.509843E+03	2.513270E-16	2.754124E-18
7.519685E+03	2.421409E-16	2.708251E-18
7.529528E+03	2.332211E-16	2.661610E-18
7.539370E+03	2.246315E-16	2.614994E-18
7.549213E+03	2.164191E-16	2.569076E-18
7.559055E+03	2.086392E-16	2.524695E-18
7.568898E+03	2.013175E-16	2.482388E-18
7.578740E+03	1.944845E-16	2.442795E-18
7.588583E+03	1.881539E-16	2.406381E-18
7.598425E+03	1.823273E-16	2.373469E-18
7.608268E+03	1.770011E-16	2.344332E-18
7.618110E+03	1.721679E-16	2.319183E-18
7.627953E+03	1.678119E-16	2.298126E-18
7.637795E+03	1.639084E-16	2.281122E-18
