#wls	flux	fluxerr
1.574803E+03	8.215265E-18	9.092697E-19
1.614173E+03	8.148125E-18	8.967266E-19
1.653543E+03	8.063615E-18	8.822373E-19
1.692913E+03	7.962186E-18	8.658861E-19
1.732283E+03	7.846994E-18	8.480505E-19
1.771654E+03	7.714785E-18	8.284128E-19
1.811024E+03	7.563602E-18	8.068044E-19
1.850394E+03	7.387878E-18	7.826819E-19
1.889764E+03	7.184915E-18	7.558226E-19
1.929134E+03	6.951756E-18	7.259874E-19
1.968504E+03	6.690729E-18	6.934980E-19
2.007874E+03	6.410936E-18	6.593685E-19
2.047244E+03	6.133983E-18	6.258627E-19
2.086614E+03	5.893816E-18	5.964228E-19
2.125984E+03	5.727371E-18	5.746751E-19
2.165354E+03	5.660367E-18	5.629967E-19
2.204724E+03	5.689437E-18	5.607975E-19
2.244094E+03	5.792571E-18	5.656675E-19
2.283465E+03	5.939371E-18	5.744568E-19
2.322835E+03	6.101473E-18	5.843175E-19
2.362205E+03	6.261135E-18	5.935137E-19
2.401575E+03	6.410711E-18	6.013253E-19
2.440945E+03	6.546466E-18	6.074267E-19
2.480315E+03	6.670327E-18	6.120282E-19
2.519685E+03	6.784689E-18	6.153767E-19
2.559055E+03	6.891309E-18	6.176530E-19
2.598425E+03	6.995459E-18	6.193428E-19
2.637795E+03	7.099938E-18	6.206935E-19
2.677165E+03	7.206178E-18	6.218221E-19
2.716535E+03	7.317721E-18	6.230194E-19
2.755906E+03	7.437944E-18	6.245457E-19
2.795276E+03	7.568990E-18	6.265428E-19
2.834646E+03	7.715204E-18	6.293214E-19
2.874016E+03	7.878650E-18	6.329871E-19
2.913386E+03	8.064772E-18	6.379014E-19
2.952756E+03	8.275661E-18	6.441361E-19
2.962598E+03	8.333595E-18	6.459935E-19
2.972441E+03	8.392318E-18	6.478660E-19
2.982283E+03	8.454131E-18	6.499299E-19
2.992126E+03	8.517949E-18	6.520989E-19
3.001969E+03	8.583877E-18	6.543789E-19
3.011811E+03	8.652007E-18	6.567749E-19
3.021654E+03	8.723500E-18	6.593723E-19
3.031496E+03	8.797476E-18	6.621014E-19
3.041339E+03	8.873281E-18	6.649109E-19
3.051181E+03	8.951969E-18	6.678773E-19
3.061024E+03	9.035765E-18	6.711629E-19
3.070866E+03	9.121200E-18	6.745062E-19
3.080709E+03	9.211651E-18	6.781538E-19
3.090551E+03	9.303644E-18	6.818462E-19
3.100394E+03	9.400589E-18	6.858305E-19
3.110236E+03	9.500156E-18	6.899323E-19
3.120079E+03	9.604627E-18	6.943139E-19
3.129921E+03	9.711676E-18	6.988028E-19
3.139764E+03	9.822446E-18	7.034782E-19
3.149606E+03	9.936918E-18	7.083347E-19
3.159449E+03	1.005625E-17	7.134506E-19
3.169291E+03	1.017811E-17	7.186565E-19
3.179134E+03	1.030482E-17	7.241128E-19
3.188976E+03	1.043640E-17	7.298155E-19
3.198819E+03	1.057168E-17	7.356780E-19
3.208661E+03	1.071065E-17	7.416965E-19
3.218504E+03	1.085453E-17	7.479499E-19
3.228346E+03	1.100332E-17	7.544340E-19
3.238189E+03	1.115586E-17	7.610645E-19
3.248031E+03	1.131458E-17	7.680014E-19
3.257874E+03	1.147831E-17	7.751604E-19
3.267717E+03	1.164590E-17	7.824580E-19
3.277559E+03	1.182103E-17	7.901369E-19
3.287402E+03	1.200015E-17	7.979523E-19
3.297244E+03	1.218577E-17	8.060666E-19
3.307087E+03	1.237678E-17	8.143996E-19
3.316929E+03	1.257577E-17	8.231148E-19
3.326772E+03	1.278044E-17	8.320547E-19
3.336614E+03	1.299220E-17	8.413045E-19
3.346457E+03	1.321129E-17	8.508713E-19
3.356299E+03	1.343795E-17	8.607641E-19
3.366142E+03	1.367377E-17	8.710751E-19
3.375984E+03	1.391784E-17	8.817382E-19
3.385827E+03	1.417187E-17	8.928507E-19
3.395669E+03	1.443634E-17	9.044340E-19
3.405512E+03	1.471055E-17	9.164324E-19
3.415354E+03	1.499766E-17	9.290311E-19
3.425197E+03	1.529702E-17	9.421778E-19
3.435039E+03	1.560923E-17	9.558952E-19
3.444882E+03	1.593482E-17	9.702024E-19
3.454724E+03	1.627563E-17	9.851968E-19
3.464567E+03	1.663227E-17	1.000899E-18
3.474409E+03	1.700543E-17	1.017334E-18
3.484252E+03	1.739586E-17	1.034529E-18
3.494094E+03	1.780575E-17	1.052595E-18
3.503937E+03	1.823335E-17	1.071409E-18
3.513780E+03	1.868239E-17	1.091170E-18
3.523622E+03	1.915399E-17	1.111921E-18
3.533465E+03	1.964942E-17	1.133711E-18
3.543307E+03	2.016997E-17	1.156591E-18
3.553150E+03	2.071709E-17	1.180613E-18
3.562992E+03	2.129371E-17	1.205916E-18
3.572835E+03	2.190004E-17	1.232481E-18
3.582677E+03	2.253926E-17	1.260454E-18
3.592520E+03	2.321324E-17	1.289901E-18
3.602362E+03	2.392246E-17	1.320813E-18
3.612205E+03	2.467196E-17	1.353429E-18
3.622047E+03	2.546396E-17	1.387825E-18
3.631890E+03	2.629774E-17	1.423917E-18
3.641732E+03	2.718029E-17	1.462035E-18
3.651575E+03	2.811105E-17	1.502099E-18
3.661417E+03	2.909581E-17	1.544361E-18
3.671260E+03	3.013408E-17	1.588739E-18
3.681102E+03	3.123192E-17	1.635491E-18
3.690945E+03	3.239055E-17	1.684616E-18
3.700787E+03	3.361459E-17	1.736289E-18
3.710630E+03	3.490706E-17	1.790592E-18
3.720472E+03	3.626917E-17	1.847513E-18
3.730315E+03	3.770747E-17	1.907307E-18
3.740157E+03	3.922127E-17	1.969859E-18
3.750000E+03	4.081710E-17	2.035410E-18
3.759843E+03	4.249584E-17	2.103915E-18
3.769685E+03	4.426196E-17	2.175505E-18
3.779528E+03	4.611786E-17	2.250202E-18
3.789370E+03	4.806357E-17	2.327907E-18
3.799213E+03	5.010274E-17	2.408701E-18
3.809055E+03	5.223662E-17	2.492539E-18
3.818898E+03	5.446369E-17	2.579249E-18
3.828740E+03	5.678833E-17	2.668932E-18
3.838583E+03	5.920769E-17	2.761351E-18
3.848425E+03	6.172250E-17	2.856435E-18
3.858268E+03	6.432557E-17	2.953750E-18
3.868110E+03	6.701801E-17	3.053250E-18
3.877953E+03	6.979255E-17	3.154510E-18
3.887795E+03	7.264309E-17	3.257165E-18
3.897638E+03	7.556457E-17	3.360909E-18
3.907480E+03	7.854551E-17	3.465158E-18
3.917323E+03	8.157536E-17	3.569384E-18
3.927165E+03	8.464488E-17	3.673133E-18
3.937008E+03	8.773536E-17	3.775559E-18
3.946850E+03	9.083759E-17	3.876245E-18
3.956693E+03	9.393297E-17	3.974392E-18
3.966535E+03	9.700190E-17	4.069187E-18
3.976378E+03	1.000325E-16	4.160163E-18
3.986220E+03	1.030009E-16	4.246387E-18
3.996063E+03	1.058920E-16	4.327303E-18
4.005906E+03	1.086851E-16	4.402164E-18
4.015748E+03	1.113632E-16	4.470393E-18
4.025591E+03	1.139106E-16	4.531496E-18
4.035433E+03	1.163137E-16	4.585082E-18
4.045276E+03	1.185581E-16	4.630754E-18
4.055118E+03	1.206355E-16	4.668361E-18
4.064961E+03	1.225408E-16	4.697894E-18
4.074803E+03	1.242721E-16	4.719475E-18
4.084646E+03	1.258281E-16	4.733250E-18
4.094488E+03	1.272109E-16	4.739493E-18
4.104331E+03	1.284316E-16	4.738804E-18
4.114173E+03	1.294948E-16	4.731536E-18
4.124016E+03	1.304162E-16	4.718437E-18
4.133858E+03	1.312073E-16	4.700072E-18
4.143701E+03	1.318807E-16	4.677040E-18
4.153543E+03	1.324522E-16	4.650030E-18
4.163386E+03	1.329353E-16	4.619628E-18
4.173228E+03	1.333429E-16	4.586384E-18
4.183071E+03	1.336932E-16	4.551003E-18
4.192913E+03	1.339952E-16	4.513862E-18
4.202756E+03	1.342625E-16	4.475473E-18
4.212598E+03	1.345024E-16	4.436126E-18
4.222441E+03	1.347287E-16	4.396309E-18
4.232283E+03	1.349463E-16	4.356206E-18
4.242126E+03	1.351638E-16	4.316114E-18
4.251969E+03	1.353860E-16	4.276193E-18
4.261811E+03	1.356140E-16	4.236490E-18
4.271654E+03	1.358528E-16	4.197162E-18
4.281496E+03	1.361057E-16	4.158315E-18
4.291339E+03	1.363708E-16	4.119893E-18
4.301181E+03	1.366478E-16	4.081885E-18
4.311024E+03	1.369358E-16	4.044274E-18
4.320866E+03	1.372343E-16	4.007046E-18
4.330709E+03	1.375452E-16	3.970264E-18
4.340551E+03	1.378673E-16	3.933902E-18
4.350394E+03	1.382044E-16	3.898070E-18
4.360236E+03	1.385672E-16	3.863073E-18
4.370079E+03	1.389689E-16	3.829269E-18
4.379921E+03	1.394317E-16	3.797253E-18
4.389764E+03	1.399734E-16	3.767457E-18
4.399606E+03	1.406173E-16	3.740461E-18
4.409449E+03	1.413824E-16	3.716687E-18
4.419291E+03	1.422881E-16	3.696555E-18
4.429134E+03	1.433522E-16	3.680423E-18
4.438976E+03	1.445922E-16	3.668619E-18
4.448819E+03	1.460171E-16	3.661231E-18
4.458661E+03	1.476413E-16	3.658463E-18
4.468504E+03	1.494693E-16	3.660277E-18
4.478346E+03	1.515062E-16	3.666638E-18
4.488189E+03	1.537509E-16	3.677371E-18
4.498031E+03	1.561978E-16	3.692197E-18
4.507874E+03	1.588367E-16	3.710744E-18
4.517717E+03	1.616548E-16	3.732595E-18
4.527559E+03	1.646324E-16	3.757199E-18
4.537402E+03	1.677451E-16	3.783923E-18
4.547244E+03	1.709643E-16	3.812073E-18
4.557087E+03	1.742616E-16	3.840992E-18
4.566929E+03	1.775966E-16	3.869798E-18
4.576772E+03	1.809349E-16	3.897783E-18
4.586614E+03	1.842358E-16	3.924140E-18
4.596457E+03	1.874573E-16	3.948079E-18
4.606299E+03	1.905568E-16	3.968834E-18
4.616142E+03	1.934917E-16	3.985685E-18
4.625984E+03	1.962249E-16	3.998059E-18
4.635827E+03	1.987108E-16	4.005244E-18
4.645669E+03	2.009151E-16	4.006786E-18
4.655512E+03	2.027954E-16	4.002100E-18
4.665354E+03	2.043235E-16	3.990903E-18
4.675197E+03	2.054609E-16	3.972727E-18
4.685039E+03	2.061741E-16	3.947224E-18
4.694882E+03	2.064322E-16	3.914102E-18
4.704724E+03	2.062100E-16	3.873186E-18
4.714567E+03	2.054892E-16	3.824435E-18
4.724409E+03	2.042698E-16	3.768132E-18
4.734252E+03	2.025747E-16	3.704963E-18
4.744094E+03	2.004413E-16	3.635840E-18
4.753937E+03	1.979233E-16	3.561925E-18
4.763780E+03	1.950980E-16	3.484753E-18
4.773622E+03	1.920511E-16	3.405945E-18
4.783465E+03	1.888768E-16	3.327213E-18
4.793307E+03	1.856740E-16	3.250296E-18
4.803150E+03	1.825386E-16	3.176824E-18
4.812992E+03	1.795645E-16	3.108352E-18
4.822835E+03	1.768345E-16	3.046219E-18
4.832677E+03	1.744280E-16	2.991675E-18
4.842520E+03	1.724064E-16	2.945661E-18
4.852362E+03	1.708203E-16	2.908928E-18
4.862205E+03	1.697105E-16	2.882072E-18
4.872047E+03	1.690961E-16	2.865335E-18
4.881890E+03	1.689904E-16	2.858880E-18
4.891732E+03	1.693897E-16	2.862557E-18
4.901575E+03	1.702760E-16	2.875978E-18
4.911417E+03	1.716241E-16	2.898652E-18
4.921260E+03	1.733963E-16	2.929899E-18
4.931102E+03	1.755455E-16	2.968897E-18
4.940945E+03	1.780183E-16	3.014725E-18
4.950787E+03	1.807508E-16	3.066294E-18
4.960630E+03	1.836761E-16	3.122456E-18
4.970472E+03	1.867288E-16	3.182086E-18
4.980315E+03	1.898333E-16	3.243875E-18
4.990157E+03	1.929294E-16	3.306760E-18
5.000000E+03	1.959547E-16	3.369625E-18
5.009843E+03	1.988557E-16	3.431485E-18
5.019685E+03	2.015941E-16	3.491606E-18
5.029528E+03	2.041457E-16	3.549474E-18
5.039370E+03	2.064930E-16	3.604690E-18
5.049213E+03	2.086401E-16	3.657217E-18
5.059055E+03	2.106040E-16	3.707246E-18
5.068898E+03	2.124062E-16	3.755049E-18
5.078740E+03	2.140863E-16	3.801223E-18
5.088583E+03	2.156829E-16	3.846361E-18
5.098425E+03	2.172402E-16	3.891170E-18
5.108268E+03	2.188036E-16	3.936387E-18
5.118110E+03	2.204175E-16	3.982755E-18
5.127953E+03	2.221264E-16	4.031026E-18
5.137795E+03	2.239643E-16	4.081780E-18
5.147638E+03	2.259707E-16	4.135709E-18
5.157480E+03	2.281736E-16	4.193305E-18
5.167323E+03	2.305989E-16	4.255028E-18
5.177165E+03	2.332647E-16	4.321203E-18
5.187008E+03	2.361912E-16	4.392197E-18
5.196850E+03	2.393854E-16	4.468135E-18
5.206693E+03	2.428504E-16	4.549063E-18
5.216535E+03	2.465792E-16	4.634843E-18
5.226378E+03	2.505622E-16	4.725276E-18
5.236220E+03	2.547812E-16	4.820001E-18
5.246063E+03	2.592016E-16	4.918329E-18
5.255906E+03	2.637843E-16	5.019483E-18
5.265748E+03	2.684847E-16	5.122562E-18
5.275591E+03	2.732479E-16	5.226465E-18
5.285433E+03	2.780141E-16	5.329980E-18
5.295276E+03	2.827162E-16	5.431744E-18
5.305118E+03	2.873027E-16	5.530686E-18
5.314961E+03	2.917203E-16	5.625696E-18
5.324803E+03	2.959209E-16	5.715761E-18
5.334646E+03	2.998669E-16	5.800066E-18
5.344488E+03	3.035364E-16	5.878105E-18
5.354331E+03	3.069035E-16	5.949291E-18
5.364173E+03	3.099499E-16	6.013188E-18
5.374016E+03	3.126585E-16	6.069384E-18
5.383858E+03	3.150217E-16	6.117663E-18
5.393701E+03	3.170288E-16	6.157756E-18
5.403543E+03	3.186775E-16	6.189568E-18
5.413386E+03	3.199633E-16	6.212970E-18
5.423228E+03	3.208770E-16	6.227752E-18
5.433071E+03	3.214097E-16	6.233725E-18
5.442913E+03	3.215504E-16	6.230671E-18
5.452756E+03	3.212785E-16	6.218195E-18
5.462598E+03	3.205629E-16	6.195717E-18
5.472441E+03	3.193692E-16	6.162610E-18
5.482283E+03	3.176646E-16	6.118300E-18
5.492126E+03	3.154025E-16	6.061961E-18
5.501969E+03	3.125488E-16	5.993037E-18
5.511811E+03	3.090744E-16	5.911089E-18
5.521654E+03	3.049598E-16	5.815886E-18
5.531496E+03	3.002126E-16	5.707736E-18
5.541339E+03	2.948514E-16	5.587174E-18
5.551181E+03	2.889206E-16	5.455233E-18
5.561024E+03	2.824867E-16	5.313369E-18
5.570866E+03	2.756370E-16	5.163423E-18
5.580709E+03	2.684758E-16	5.007542E-18
5.590551E+03	2.611213E-16	4.848101E-18
5.600394E+03	2.536976E-16	4.687554E-18
5.610236E+03	2.463400E-16	4.528522E-18
5.620079E+03	2.391742E-16	4.373393E-18
5.629921E+03	2.323290E-16	4.224563E-18
5.639764E+03	2.259216E-16	4.084159E-18
5.649606E+03	2.200650E-16	3.954169E-18
5.659449E+03	2.148569E-16	3.836249E-18
5.669291E+03	2.103860E-16	3.731837E-18
5.679134E+03	2.067314E-16	3.642144E-18
5.688976E+03	2.039564E-16	3.568051E-18
5.698819E+03	2.021130E-16	3.510197E-18
5.708661E+03	2.012469E-16	3.469068E-18
5.718504E+03	2.013916E-16	3.444899E-18
5.728346E+03	2.025688E-16	3.437698E-18
5.738189E+03	2.047940E-16	3.447344E-18
5.748031E+03	2.080678E-16	3.473445E-18
5.757874E+03	2.123776E-16	3.515388E-18
5.767717E+03	2.177010E-16	3.572399E-18
5.777559E+03	2.239905E-16	3.643306E-18
5.787402E+03	2.311757E-16	3.726599E-18
5.797244E+03	2.391618E-16	3.820429E-18
5.807087E+03	2.478279E-16	3.922595E-18
5.816929E+03	2.570180E-16	4.030434E-18
5.826772E+03	2.665482E-16	4.140958E-18
5.836614E+03	2.762078E-16	4.250890E-18
5.846457E+03	2.857613E-16	4.356728E-18
5.856299E+03	2.949653E-16	4.454999E-18
5.866142E+03	3.035709E-16	4.542315E-18
5.875984E+03	3.113363E-16	4.615542E-18
5.885827E+03	3.180414E-16	4.672014E-18
5.895669E+03	3.235134E-16	4.709872E-18
5.905512E+03	3.276055E-16	4.727722E-18
5.915354E+03	3.302325E-16	4.725104E-18
5.925197E+03	3.313704E-16	4.702445E-18
5.935039E+03	3.310408E-16	4.660787E-18
5.944882E+03	3.293155E-16	4.601819E-18
5.954724E+03	3.263131E-16	4.527796E-18
5.964567E+03	3.221928E-16	4.441423E-18
5.974409E+03	3.171229E-16	4.345414E-18
5.984252E+03	3.113022E-16	4.242781E-18
5.994094E+03	3.049300E-16	4.136427E-18
6.003937E+03	2.981991E-16	4.029058E-18
6.013780E+03	2.913073E-16	3.923365E-18
6.023622E+03	2.844299E-16	3.821661E-18
6.033465E+03	2.777361E-16	3.726134E-18
6.043307E+03	2.713723E-16	3.638634E-18
6.053150E+03	2.654658E-16	3.560745E-18
6.062992E+03	2.601253E-16	3.493792E-18
6.072835E+03	2.554359E-16	3.438685E-18
6.082677E+03	2.514537E-16	3.395960E-18
6.092520E+03	2.482151E-16	3.365944E-18
6.102362E+03	2.457191E-16	3.348508E-18
6.112205E+03	2.439240E-16	3.343008E-18
6.122047E+03	2.427232E-16	3.347937E-18
6.131890E+03	2.419926E-16	3.361551E-18
6.141732E+03	2.416010E-16	3.381980E-18
6.151575E+03	2.414366E-16	3.407601E-18
6.161417E+03	2.414157E-16	3.437145E-18
6.171260E+03	2.414676E-16	3.469503E-18
6.181102E+03	2.415329E-16	3.503695E-18
6.190945E+03	2.415614E-16	3.538849E-18
6.200787E+03	2.415155E-16	3.574251E-18
6.210630E+03	2.413546E-16	3.609121E-18
6.220472E+03	2.410537E-16	3.642894E-18
6.230315E+03	2.405858E-16	3.674956E-18
6.240157E+03	2.399345E-16	3.704839E-18
6.250000E+03	2.390879E-16	3.732144E-18
6.259843E+03	2.380326E-16	3.756437E-18
6.269685E+03	2.367693E-16	3.777504E-18
6.279528E+03	2.352961E-16	3.795098E-18
6.289370E+03	2.336231E-16	3.809164E-18
6.299213E+03	2.317568E-16	3.819611E-18
6.309055E+03	2.297122E-16	3.826490E-18
6.318898E+03	2.275024E-16	3.829846E-18
6.328740E+03	2.251481E-16	3.829866E-18
6.338583E+03	2.226718E-16	3.826789E-18
6.348425E+03	2.200936E-16	3.820837E-18
6.358268E+03	2.174373E-16	3.812318E-18
6.368110E+03	2.147330E-16	3.801678E-18
6.377953E+03	2.120035E-16	3.789253E-18
6.387795E+03	2.092803E-16	3.775563E-18
6.397638E+03	2.065966E-16	3.761185E-18
6.407480E+03	2.039857E-16	3.746725E-18
6.417323E+03	2.014829E-16	3.732846E-18
6.427165E+03	1.991228E-16	3.720232E-18
6.437008E+03	1.969499E-16	3.709770E-18
6.446850E+03	1.949962E-16	3.702141E-18
6.456693E+03	1.933057E-16	3.698272E-18
6.466535E+03	1.919097E-16	3.698868E-18
6.476378E+03	1.908446E-16	3.704749E-18
6.486220E+03	1.901354E-16	3.716527E-18
6.496063E+03	1.898046E-16	3.734770E-18
6.505906E+03	1.898627E-16	3.759817E-18
6.515748E+03	1.903153E-16	3.791900E-18
6.525591E+03	1.911559E-16	3.831008E-18
6.535433E+03	1.923656E-16	3.876863E-18
6.545276E+03	1.939215E-16	3.929091E-18
6.555118E+03	1.957849E-16	3.986973E-18
6.564961E+03	1.979101E-16	4.049630E-18
6.574803E+03	2.002441E-16	4.115997E-18
6.584646E+03	2.027292E-16	4.184895E-18
6.594488E+03	2.052986E-16	4.254925E-18
6.604331E+03	2.078857E-16	4.324673E-18
6.614173E+03	2.104175E-16	4.392564E-18
6.624016E+03	2.128248E-16	4.457086E-18
6.633858E+03	2.150378E-16	4.516698E-18
6.643701E+03	2.169896E-16	4.569912E-18
6.653543E+03	2.186167E-16	4.615303E-18
6.663386E+03	2.198678E-16	4.651701E-18
6.673228E+03	2.207011E-16	4.678140E-18
6.683071E+03	2.210780E-16	4.693733E-18
6.692913E+03	2.209799E-16	4.698025E-18
6.702756E+03	2.204008E-16	4.690841E-18
6.712598E+03	2.193399E-16	4.672144E-18
6.722441E+03	2.178199E-16	4.642402E-18
6.732283E+03	2.158677E-16	4.602197E-18
6.742126E+03	2.135241E-16	4.552421E-18
6.751969E+03	2.108416E-16	4.494236E-18
6.761811E+03	2.078768E-16	4.428892E-18
6.771654E+03	2.046944E-16	4.357832E-18
6.781496E+03	2.013643E-16	4.282606E-18
6.791339E+03	1.979612E-16	4.204870E-18
6.801181E+03	1.945561E-16	4.126194E-18
6.811024E+03	1.912212E-16	4.048171E-18
6.820866E+03	1.880286E-16	3.972374E-18
6.830709E+03	1.850417E-16	3.900181E-18
6.840551E+03	1.823213E-16	3.832892E-18
6.850394E+03	1.799214E-16	3.771652E-18
6.860236E+03	1.778913E-16	3.717475E-18
6.870079E+03	1.762674E-16	3.671091E-18
6.879921E+03	1.750799E-16	3.633073E-18
6.889764E+03	1.743494E-16	3.603779E-18
6.899606E+03	1.740869E-16	3.583345E-18
6.909449E+03	1.742935E-16	3.571686E-18
6.919291E+03	1.749594E-16	3.568488E-18
6.929134E+03	1.760629E-16	3.573178E-18
6.938976E+03	1.775785E-16	3.585105E-18
6.948819E+03	1.794626E-16	3.603263E-18
6.958661E+03	1.816696E-16	3.626603E-18
6.968504E+03	1.841444E-16	3.653911E-18
6.978346E+03	1.868239E-16	3.683832E-18
6.988189E+03	1.896435E-16	3.715013E-18
6.998031E+03	1.925397E-16	3.746148E-18
7.007874E+03	1.954456E-16	3.775904E-18
7.017717E+03	1.983004E-16	3.803101E-18
7.027559E+03	2.010492E-16	3.826717E-18
7.037402E+03	2.036463E-16	3.845930E-18
7.047244E+03	2.060555E-16	3.860138E-18
7.057087E+03	2.082521E-16	3.868981E-18
7.066929E+03	2.102207E-16	3.872290E-18
7.076772E+03	2.119628E-16	3.870222E-18
7.086614E+03	2.134881E-16	3.863096E-18
7.096457E+03	2.148105E-16	3.851302E-18
7.106299E+03	2.159625E-16	3.835560E-18
7.116142E+03	2.169746E-16	3.816537E-18
7.125984E+03	2.178855E-16	3.795034E-18
7.135827E+03	2.187278E-16	3.771720E-18
7.145669E+03	2.195408E-16	3.747363E-18
7.155512E+03	2.203583E-16	3.722617E-18
7.165354E+03	2.212095E-16	3.698040E-18
7.175197E+03	2.221149E-16	3.674030E-18
7.185039E+03	2.230940E-16	3.650959E-18
7.194882E+03	2.241533E-16	3.628982E-18
7.204724E+03	2.252973E-16	3.608225E-18
7.214567E+03	2.265180E-16	3.588618E-18
7.224409E+03	2.278060E-16	3.570083E-18
7.234252E+03	2.291399E-16	3.552374E-18
7.244094E+03	2.304961E-16	3.535230E-18
7.253937E+03	2.318494E-16	3.518391E-18
7.263780E+03	2.331652E-16	3.501483E-18
7.273622E+03	2.344098E-16	3.484169E-18
7.283465E+03	2.355534E-16	3.466204E-18
7.293307E+03	2.365512E-16	3.447142E-18
7.303150E+03	2.373761E-16	3.426820E-18
7.312992E+03	2.379859E-16	3.404876E-18
7.322835E+03	2.383478E-16	3.381099E-18
7.332677E+03	2.384281E-16	3.355274E-18
7.342520E+03	2.381865E-16	3.327097E-18
7.352362E+03	2.375807E-16	3.296235E-18
7.362205E+03	2.365691E-16	3.262363E-18
7.372047E+03	2.351121E-16	3.225156E-18
7.381890E+03	2.331653E-16	3.184192E-18
7.391732E+03	2.306904E-16	3.139104E-18
7.401575E+03	2.276583E-16	3.089600E-18
7.411417E+03	2.240558E-16	3.035559E-18
7.421260E+03	2.198976E-16	2.977177E-18
7.431102E+03	2.152582E-16	2.915397E-18
7.440945E+03	2.102361E-16	2.851427E-18
7.450787E+03	2.049470E-16	2.786598E-18
7.460630E+03	1.995110E-16	2.722210E-18
7.470472E+03	1.940310E-16	2.659324E-18
7.480315E+03	1.886074E-16	2.598992E-18
7.490157E+03	1.833226E-16	2.542051E-18
7.500000E+03	1.782506E-16	2.489266E-18
7.509843E+03	1.734480E-16	2.441205E-18
7.519685E+03	1.689533E-16	2.398234E-18
7.529528E+03	1.647883E-16	2.360525E-18
7.539370E+03	1.609514E-16	2.327953E-18
7.549213E+03	1.574324E-16	2.300298E-18
7.559055E+03	1.542174E-16	2.277301E-18
7.568898E+03	1.512986E-16	2.258815E-18
7.578740E+03	1.486630E-16	2.244630E-18
7.588583E+03	1.463061E-16	2.234677E-18
7.598425E+03	1.442242E-16	2.228917E-18
7.608268E+03	1.424132E-16	2.227319E-18
7.618110E+03	1.408763E-16	2.229976E-18
7.627953E+03	1.396103E-16	2.236898E-18
7.637795E+03	1.386133E-16	2.248124E-18
