#wls	flux	fluxerr
1.574803E+03	8.701383E-18	8.343670E-19
1.614173E+03	8.674170E-18	8.283238E-19
1.653543E+03	8.630169E-18	8.206135E-19
1.692913E+03	8.569544E-18	8.112718E-19
1.732283E+03	8.492084E-18	8.002996E-19
1.771654E+03	8.395658E-18	7.875191E-19
1.811024E+03	8.276204E-18	7.725778E-19
1.850394E+03	8.130475E-18	7.552072E-19
1.889764E+03	7.951812E-18	7.348319E-19
1.929134E+03	7.739462E-18	7.114342E-19
1.968504E+03	7.490937E-18	6.848420E-19
2.007874E+03	7.218941E-18	6.562720E-19
2.047244E+03	6.946182E-18	6.278215E-19
2.086614E+03	6.713988E-18	6.032140E-19
2.125984E+03	6.562752E-18	5.859981E-19
2.165354E+03	6.522430E-18	5.787019E-19
2.204724E+03	6.594789E-18	5.812928E-19
2.244094E+03	6.754952E-18	5.913917E-19
2.283465E+03	6.967601E-18	6.057629E-19
2.322835E+03	7.201505E-18	6.216036E-19
2.362205E+03	7.437314E-18	6.372041E-19
2.401575E+03	7.664641E-18	6.516651E-19
2.440945E+03	7.881498E-18	6.648233E-19
2.480315E+03	8.087226E-18	6.766327E-19
2.519685E+03	8.287130E-18	6.875447E-19
2.559055E+03	8.484479E-18	6.978290E-19
2.598425E+03	8.683996E-18	7.078646E-19
2.637795E+03	8.888821E-18	7.178886E-19
2.677165E+03	9.103254E-18	7.282209E-19
2.716535E+03	9.332746E-18	7.392587E-19
2.755906E+03	9.579743E-18	7.511446E-19
2.795276E+03	9.847931E-18	7.641081E-19
2.834646E+03	1.014235E-17	7.784684E-19
2.874016E+03	1.046799E-17	7.945213E-19
2.913386E+03	1.082989E-17	8.125454E-19
2.952756E+03	1.123172E-17	8.326977E-19
2.962598E+03	1.133995E-17	8.381665E-19
2.972441E+03	1.145050E-17	8.437447E-19
2.982283E+03	1.156340E-17	8.494323E-19
2.992126E+03	1.168164E-17	8.554462E-19
3.001969E+03	1.180096E-17	8.614719E-19
3.011811E+03	1.192591E-17	8.678385E-19
3.021654E+03	1.205356E-17	8.743294E-19
3.031496E+03	1.218576E-17	8.810766E-19
3.041339E+03	1.232013E-17	8.879038E-19
3.051181E+03	1.246108E-17	8.951272E-19
3.061024E+03	1.260562E-17	9.025264E-19
3.070866E+03	1.275516E-17	9.101994E-19
3.080709E+03	1.291114E-17	9.182448E-19
3.090551E+03	1.307057E-17	9.264452E-19
3.100394E+03	1.323640E-17	9.350055E-19
3.110236E+03	1.340713E-17	9.438160E-19
3.120079E+03	1.358276E-17	9.528718E-19
3.129921E+03	1.376332E-17	9.621704E-19
3.139764E+03	1.395031E-17	9.718134E-19
3.149606E+03	1.414228E-17	9.816930E-19
3.159449E+03	1.434078E-17	9.919135E-19
3.169291E+03	1.454435E-17	1.002368E-18
3.179134E+03	1.475458E-17	1.013163E-18
3.188976E+03	1.497157E-17	1.024296E-18
3.198819E+03	1.519386E-17	1.035665E-18
3.208661E+03	1.542464E-17	1.047480E-18
3.218504E+03	1.566096E-17	1.059535E-18
3.228346E+03	1.590448E-17	1.071937E-18
3.238189E+03	1.615692E-17	1.084795E-18
3.248031E+03	1.641689E-17	1.098007E-18
3.257874E+03	1.668458E-17	1.111580E-18
3.267717E+03	1.696175E-17	1.125625E-18
3.277559E+03	1.724705E-17	1.140043E-18
3.287402E+03	1.754230E-17	1.154947E-18
3.297244E+03	1.784617E-17	1.170240E-18
3.307087E+03	1.816053E-17	1.186038E-18
3.316929E+03	1.848566E-17	1.202349E-18
3.326772E+03	1.882353E-17	1.219291E-18
3.336614E+03	1.917123E-17	1.236664E-18
3.346457E+03	1.953075E-17	1.254589E-18
3.356299E+03	1.990409E-17	1.273181E-18
3.366142E+03	2.029167E-17	1.292456E-18
3.375984E+03	2.069230E-17	1.312325E-18
3.385827E+03	2.110806E-17	1.332907E-18
3.395669E+03	2.153777E-17	1.354115E-18
3.405512E+03	2.198525E-17	1.376175E-18
3.415354E+03	2.244767E-17	1.398894E-18
3.425197E+03	2.292893E-17	1.422500E-18
3.435039E+03	2.342788E-17	1.446906E-18
3.444882E+03	2.394683E-17	1.472236E-18
3.454724E+03	2.448463E-17	1.498403E-18
3.464567E+03	2.504362E-17	1.525531E-18
3.474409E+03	2.562443E-17	1.553639E-18
3.484252E+03	2.622772E-17	1.582746E-18
3.494094E+03	2.685413E-17	1.612869E-18
3.503937E+03	2.750615E-17	1.644137E-18
3.513780E+03	2.818267E-17	1.676459E-18
3.523622E+03	2.888440E-17	1.709854E-18
3.533465E+03	2.961571E-17	1.744556E-18
3.543307E+03	3.037368E-17	1.780366E-18
3.553150E+03	3.116276E-17	1.817518E-18
3.562992E+03	3.198000E-17	1.855811E-18
3.572835E+03	3.283178E-17	1.895588E-18
3.582677E+03	3.371322E-17	1.936534E-18
3.592520E+03	3.463081E-17	1.978992E-18
3.602362E+03	3.558146E-17	2.022753E-18
3.612205E+03	3.656982E-17	2.068047E-18
3.622047E+03	3.759470E-17	2.114771E-18
3.631890E+03	3.865675E-17	2.162927E-18
3.641732E+03	3.975869E-17	2.212629E-18
3.651575E+03	4.090114E-17	2.263875E-18
3.661417E+03	4.208263E-17	2.316543E-18
3.671260E+03	4.330780E-17	2.370849E-18
3.681102E+03	4.457502E-17	2.426662E-18
3.690945E+03	4.588462E-17	2.483960E-18
3.700787E+03	4.723897E-17	2.542828E-18
3.710630E+03	4.863605E-17	2.603114E-18
3.720472E+03	5.008019E-17	2.665006E-18
3.730315E+03	5.156687E-17	2.728220E-18
3.740157E+03	5.310019E-17	2.792929E-18
3.750000E+03	5.467743E-17	2.858943E-18
3.759843E+03	5.630016E-17	2.926303E-18
3.769685E+03	5.796519E-17	2.994798E-18
3.779528E+03	5.967368E-17	3.064444E-18
3.789370E+03	6.142190E-17	3.135009E-18
3.799213E+03	6.321291E-17	3.206608E-18
3.809055E+03	6.504246E-17	3.278984E-18
3.818898E+03	6.690834E-17	3.351988E-18
3.828740E+03	6.881051E-17	3.425580E-18
3.838583E+03	7.074375E-17	3.499467E-18
3.848425E+03	7.270489E-17	3.573462E-18
3.858268E+03	7.469307E-17	3.647493E-18
3.868110E+03	7.670453E-17	3.721353E-18
3.877953E+03	7.873270E-17	3.794698E-18
3.887795E+03	8.077562E-17	3.867420E-18
3.897638E+03	8.282844E-17	3.939273E-18
3.907480E+03	8.488589E-17	4.009997E-18
3.917323E+03	8.693977E-17	4.079203E-18
3.927165E+03	8.898911E-17	4.146848E-18
3.937008E+03	9.102203E-17	4.212388E-18
3.946850E+03	9.303436E-17	4.275648E-18
3.956693E+03	9.501622E-17	4.336197E-18
3.966535E+03	9.696281E-17	4.393848E-18
3.976378E+03	9.886396E-17	4.448179E-18
3.986220E+03	1.007148E-16	4.499021E-18
3.996063E+03	1.025056E-16	4.545988E-18
4.005906E+03	1.042291E-16	4.588824E-18
4.015748E+03	1.058789E-16	4.627316E-18
4.025591E+03	1.074489E-16	4.661278E-18
4.035433E+03	1.089315E-16	4.690460E-18
4.045276E+03	1.103249E-16	4.714875E-18
4.055118E+03	1.116209E-16	4.734269E-18
4.064961E+03	1.128204E-16	4.748776E-18
4.074803E+03	1.139230E-16	4.758474E-18
4.084646E+03	1.149246E-16	4.763297E-18
4.094488E+03	1.158303E-16	4.763557E-18
4.104331E+03	1.166416E-16	4.759412E-18
4.114173E+03	1.173659E-16	4.751264E-18
4.124016E+03	1.180025E-16	4.739170E-18
4.133858E+03	1.185611E-16	4.723610E-18
4.143701E+03	1.190499E-16	4.704985E-18
4.153543E+03	1.194751E-16	4.683620E-18
4.163386E+03	1.198438E-16	4.659852E-18
4.173228E+03	1.201631E-16	4.634023E-18
4.183071E+03	1.204450E-16	4.606640E-18
4.192913E+03	1.206948E-16	4.577949E-18
4.202756E+03	1.209199E-16	4.548270E-18
4.212598E+03	1.211320E-16	4.518069E-18
4.222441E+03	1.213341E-16	4.487475E-18
4.232283E+03	1.215370E-16	4.456905E-18
4.242126E+03	1.217452E-16	4.426531E-18
4.251969E+03	1.219665E-16	4.396635E-18
4.261811E+03	1.222024E-16	4.367269E-18
4.271654E+03	1.224614E-16	4.338733E-18
4.281496E+03	1.227438E-16	4.311023E-18
4.291339E+03	1.230531E-16	4.284252E-18
4.301181E+03	1.233904E-16	4.258442E-18
4.311024E+03	1.237583E-16	4.233668E-18
4.320866E+03	1.241551E-16	4.209858E-18
4.330709E+03	1.245812E-16	4.187010E-18
4.340551E+03	1.250332E-16	4.164999E-18
4.350394E+03	1.255100E-16	4.143779E-18
4.360236E+03	1.260116E-16	4.123341E-18
4.370079E+03	1.265381E-16	4.103681E-18
4.379921E+03	1.270899E-16	4.084805E-18
4.389764E+03	1.276763E-16	4.067003E-18
4.399606E+03	1.283039E-16	4.050473E-18
4.409449E+03	1.289823E-16	4.035492E-18
4.419291E+03	1.297215E-16	4.022349E-18
4.429134E+03	1.305288E-16	4.011227E-18
4.438976E+03	1.314063E-16	4.002153E-18
4.448819E+03	1.323624E-16	3.995329E-18
4.458661E+03	1.333947E-16	3.990643E-18
4.468504E+03	1.345049E-16	3.988098E-18
4.478346E+03	1.356927E-16	3.987642E-18
4.488189E+03	1.369530E-16	3.989086E-18
4.498031E+03	1.382784E-16	3.992181E-18
4.507874E+03	1.396652E-16	3.996791E-18
4.517717E+03	1.411005E-16	4.002530E-18
4.527559E+03	1.425731E-16	4.009071E-18
4.537402E+03	1.440718E-16	4.016098E-18
4.547244E+03	1.455788E-16	4.023129E-18
4.557087E+03	1.470804E-16	4.029811E-18
4.566929E+03	1.485588E-16	4.035690E-18
4.576772E+03	1.499982E-16	4.040387E-18
4.586614E+03	1.513813E-16	4.043498E-18
4.596457E+03	1.526976E-16	4.044810E-18
4.606299E+03	1.539306E-16	4.043967E-18
4.616142E+03	1.550695E-16	4.040767E-18
4.625984E+03	1.561050E-16	4.035061E-18
4.635827E+03	1.570300E-16	4.026758E-18
4.645669E+03	1.578388E-16	4.015811E-18
4.655512E+03	1.585277E-16	4.002220E-18
4.665354E+03	1.590964E-16	3.986077E-18
4.675197E+03	1.595404E-16	3.967355E-18
4.685039E+03	1.598598E-16	3.946156E-18
4.694882E+03	1.600588E-16	3.922668E-18
4.704724E+03	1.601359E-16	3.896938E-18
4.714567E+03	1.600964E-16	3.869171E-18
4.724409E+03	1.599450E-16	3.839558E-18
4.734252E+03	1.596975E-16	3.808540E-18
4.744094E+03	1.593623E-16	3.776372E-18
4.753937E+03	1.589584E-16	3.743554E-18
4.763780E+03	1.585037E-16	3.710536E-18
4.773622E+03	1.580212E-16	3.677877E-18
4.783465E+03	1.575296E-16	3.646011E-18
4.793307E+03	1.570532E-16	3.615490E-18
4.803150E+03	1.566119E-16	3.586756E-18
4.812992E+03	1.562286E-16	3.560310E-18
4.822835E+03	1.559192E-16	3.536481E-18
4.832677E+03	1.557017E-16	3.515647E-18
4.842520E+03	1.555943E-16	3.498177E-18
4.852362E+03	1.556090E-16	3.484305E-18
4.862205E+03	1.557561E-16	3.474223E-18
4.872047E+03	1.560483E-16	3.468158E-18
4.881890E+03	1.564885E-16	3.466117E-18
4.891732E+03	1.570818E-16	3.468156E-18
4.901575E+03	1.578288E-16	3.474230E-18
4.911417E+03	1.587248E-16	3.484188E-18
4.921260E+03	1.597635E-16	3.497840E-18
4.931102E+03	1.609347E-16	3.514919E-18
4.940945E+03	1.622259E-16	3.535117E-18
4.950787E+03	1.636196E-16	3.558012E-18
4.960630E+03	1.650903E-16	3.583023E-18
4.970472E+03	1.666173E-16	3.609669E-18
4.980315E+03	1.681723E-16	3.637313E-18
4.990157E+03	1.697298E-16	3.665381E-18
5.000000E+03	1.712615E-16	3.693242E-18
5.009843E+03	1.727438E-16	3.720370E-18
5.019685E+03	1.741598E-16	3.746380E-18
5.029528E+03	1.754971E-16	3.770985E-18
5.039370E+03	1.767485E-16	3.794016E-18
5.049213E+03	1.779172E-16	3.815517E-18
5.059055E+03	1.790154E-16	3.835731E-18
5.068898E+03	1.800603E-16	3.855001E-18
5.078740E+03	1.810734E-16	3.873763E-18
5.088583E+03	1.820774E-16	3.892474E-18
5.098425E+03	1.831009E-16	3.911725E-18
5.108268E+03	1.841646E-16	3.931924E-18
5.118110E+03	1.852922E-16	3.953552E-18
5.127953E+03	1.865028E-16	3.976986E-18
5.137795E+03	1.878123E-16	4.002534E-18
5.147638E+03	1.892328E-16	4.030427E-18
5.157480E+03	1.907734E-16	4.060830E-18
5.167323E+03	1.924404E-16	4.093843E-18
5.177165E+03	1.942390E-16	4.129548E-18
5.187008E+03	1.961676E-16	4.167882E-18
5.196850E+03	1.982220E-16	4.208723E-18
5.206693E+03	2.004030E-16	4.252060E-18
5.216535E+03	2.026966E-16	4.297564E-18
5.226378E+03	2.050958E-16	4.345051E-18
5.236220E+03	2.075839E-16	4.394141E-18
5.246063E+03	2.101431E-16	4.444428E-18
5.255906E+03	2.127547E-16	4.495482E-18
5.265748E+03	2.153922E-16	4.546716E-18
5.275591E+03	2.180289E-16	4.597542E-18
5.285433E+03	2.206364E-16	4.647329E-18
5.295276E+03	2.231891E-16	4.695522E-18
5.305118E+03	2.256610E-16	4.741550E-18
5.314961E+03	2.280286E-16	4.784900E-18
5.324803E+03	2.302780E-16	4.825266E-18
5.334646E+03	2.323919E-16	4.862263E-18
5.344488E+03	2.343566E-16	4.895596E-18
5.354331E+03	2.361603E-16	4.925001E-18
5.364173E+03	2.377914E-16	4.950230E-18
5.374016E+03	2.392392E-16	4.971057E-18
5.383858E+03	2.404912E-16	4.987220E-18
5.393701E+03	2.415400E-16	4.998568E-18
5.403543E+03	2.423787E-16	5.004966E-18
5.413386E+03	2.429933E-16	5.006139E-18
5.423228E+03	2.433745E-16	5.001916E-18
5.433071E+03	2.435177E-16	4.992219E-18
5.442913E+03	2.434099E-16	4.976819E-18
5.452756E+03	2.430371E-16	4.955459E-18
5.462598E+03	2.423890E-16	4.927976E-18
5.472441E+03	2.414541E-16	4.894182E-18
5.482283E+03	2.402132E-16	4.853747E-18
5.492126E+03	2.386549E-16	4.806505E-18
5.501969E+03	2.367696E-16	4.752339E-18
5.511811E+03	2.345443E-16	4.691068E-18
5.521654E+03	2.319808E-16	4.622815E-18
5.531496E+03	2.290811E-16	4.547720E-18
5.541339E+03	2.258589E-16	4.466149E-18
5.551181E+03	2.223381E-16	4.378679E-18
5.561024E+03	2.185558E-16	4.286137E-18
5.570866E+03	2.145531E-16	4.189423E-18
5.580709E+03	2.103910E-16	4.089816E-18
5.590551E+03	2.061246E-16	3.988462E-18
5.600394E+03	2.018243E-16	3.886776E-18
5.610236E+03	1.975557E-16	3.786070E-18
5.620079E+03	1.933868E-16	3.687664E-18
5.629921E+03	1.893827E-16	3.592806E-18
5.639764E+03	1.856071E-16	3.502685E-18
5.649606E+03	1.821138E-16	3.418279E-18
5.659449E+03	1.789585E-16	3.340574E-18
5.669291E+03	1.761844E-16	3.270302E-18
5.679134E+03	1.738361E-16	3.208195E-18
5.688976E+03	1.719456E-16	3.154733E-18
5.698819E+03	1.705446E-16	3.110373E-18
5.708661E+03	1.696573E-16	3.075417E-18
5.718504E+03	1.693023E-16	3.050056E-18
5.728346E+03	1.694914E-16	3.034344E-18
5.738189E+03	1.702317E-16	3.028249E-18
5.748031E+03	1.715257E-16	3.031645E-18
5.757874E+03	1.733662E-16	3.044246E-18
5.767717E+03	1.757341E-16	3.065549E-18
5.777559E+03	1.786064E-16	3.095006E-18
5.787402E+03	1.819427E-16	3.131775E-18
5.797244E+03	1.856965E-16	3.174934E-18
5.807087E+03	1.898098E-16	3.223390E-18
5.816929E+03	1.942074E-16	3.275799E-18
5.826772E+03	1.988066E-16	3.330722E-18
5.836614E+03	2.035161E-16	3.386628E-18
5.846457E+03	2.082340E-16	3.441856E-18
5.856299E+03	2.128480E-16	3.494631E-18
5.866142E+03	2.172520E-16	3.543325E-18
5.875984E+03	2.213333E-16	3.586264E-18
5.885827E+03	2.249948E-16	3.622069E-18
5.895669E+03	2.281430E-16	3.649462E-18
5.905512E+03	2.307064E-16	3.667552E-18
5.915354E+03	2.326285E-16	3.675708E-18
5.925197E+03	2.338762E-16	3.673680E-18
5.935039E+03	2.344389E-16	3.661574E-18
5.944882E+03	2.343258E-16	3.639794E-18
5.954724E+03	2.335726E-16	3.609133E-18
5.964567E+03	2.322298E-16	3.570584E-18
5.974409E+03	2.303675E-16	3.525411E-18
5.984252E+03	2.280676E-16	3.475016E-18
5.994094E+03	2.254270E-16	3.420989E-18
6.003937E+03	2.225428E-16	3.364889E-18
6.013780E+03	2.195198E-16	3.308350E-18
6.023622E+03	2.164624E-16	3.252969E-18
6.033465E+03	2.134698E-16	3.200242E-18
6.043307E+03	2.106375E-16	3.151589E-18
6.053150E+03	2.080508E-16	3.108268E-18
6.062992E+03	2.057851E-16	3.071383E-18
6.072835E+03	2.039054E-16	3.041884E-18
6.082677E+03	2.024605E-16	3.020462E-18
6.092520E+03	2.014785E-16	3.007484E-18
6.102362E+03	2.009662E-16	3.003020E-18
6.112205E+03	2.008881E-16	3.006502E-18
6.122047E+03	2.011555E-16	3.016573E-18
6.131890E+03	2.016641E-16	3.031641E-18
6.141732E+03	2.022988E-16	3.049946E-18
6.151575E+03	2.029839E-16	3.070307E-18
6.161417E+03	2.036747E-16	3.092002E-18
6.171260E+03	2.043413E-16	3.114521E-18
6.181102E+03	2.049658E-16	3.137526E-18
6.190945E+03	2.055300E-16	3.160676E-18
6.200787E+03	2.060179E-16	3.183647E-18
6.210630E+03	2.064157E-16	3.206149E-18
6.220472E+03	2.067076E-16	3.227850E-18
6.230315E+03	2.068798E-16	3.248443E-18
6.240157E+03	2.069168E-16	3.267590E-18
6.250000E+03	2.068048E-16	3.284971E-18
6.259843E+03	2.065321E-16	3.300292E-18
6.269685E+03	2.060926E-16	3.313346E-18
6.279528E+03	2.054796E-16	3.323915E-18
6.289370E+03	2.046956E-16	3.331922E-18
6.299213E+03	2.037426E-16	3.337291E-18
6.309055E+03	2.026313E-16	3.340088E-18
6.318898E+03	2.013723E-16	3.340381E-18
6.328740E+03	1.999792E-16	3.338301E-18
6.338583E+03	1.984731E-16	3.334107E-18
6.348425E+03	1.968707E-16	3.327996E-18
6.358268E+03	1.951940E-16	3.320272E-18
6.368110E+03	1.934619E-16	3.311190E-18
6.377953E+03	1.916989E-16	3.301117E-18
6.387795E+03	1.899208E-16	3.290283E-18
6.397638E+03	1.881504E-16	3.279045E-18
6.407480E+03	1.864065E-16	3.267711E-18
6.417323E+03	1.847109E-16	3.256639E-18
6.427165E+03	1.830789E-16	3.246097E-18
6.437008E+03	1.815265E-16	3.236367E-18
6.446850E+03	1.800702E-16	3.227745E-18
6.456693E+03	1.787209E-16	3.220437E-18
6.466535E+03	1.774923E-16	3.214705E-18
6.476378E+03	1.763905E-16	3.210677E-18
6.486220E+03	1.754257E-16	3.208561E-18
6.496063E+03	1.746018E-16	3.208450E-18
6.505906E+03	1.739203E-16	3.210392E-18
6.515748E+03	1.733807E-16	3.214402E-18
6.525591E+03	1.729771E-16	3.220392E-18
6.535433E+03	1.726980E-16	3.228160E-18
6.545276E+03	1.725329E-16	3.237530E-18
6.555118E+03	1.724626E-16	3.248149E-18
6.564961E+03	1.724661E-16	3.259628E-18
6.574803E+03	1.725197E-16	3.271517E-18
6.584646E+03	1.725989E-16	3.283349E-18
6.594488E+03	1.726739E-16	3.294546E-18
6.604331E+03	1.727172E-16	3.304570E-18
6.614173E+03	1.726947E-16	3.312752E-18
6.624016E+03	1.725807E-16	3.318580E-18
6.633858E+03	1.723448E-16	3.321444E-18
6.643701E+03	1.719626E-16	3.320858E-18
6.653543E+03	1.714095E-16	3.316323E-18
6.663386E+03	1.706673E-16	3.307468E-18
6.673228E+03	1.697231E-16	3.294026E-18
6.683071E+03	1.685698E-16	3.275847E-18
6.692913E+03	1.672065E-16	3.252905E-18
6.702756E+03	1.656401E-16	3.225336E-18
6.712598E+03	1.638779E-16	3.193283E-18
6.722441E+03	1.619402E-16	3.157154E-18
6.732283E+03	1.598464E-16	3.117339E-18
6.742126E+03	1.576198E-16	3.074314E-18
6.751969E+03	1.552926E-16	3.028729E-18
6.761811E+03	1.528937E-16	2.981174E-18
6.771654E+03	1.504551E-16	2.932304E-18
6.781496E+03	1.480084E-16	2.882762E-18
6.791339E+03	1.455902E-16	2.833287E-18
6.801181E+03	1.432310E-16	2.784507E-18
6.811024E+03	1.409628E-16	2.737062E-18
6.820866E+03	1.388140E-16	2.691527E-18
6.830709E+03	1.368168E-16	2.648541E-18
6.840551E+03	1.349947E-16	2.608573E-18
6.850394E+03	1.333760E-16	2.572170E-18
6.860236E+03	1.319802E-16	2.539711E-18
6.870079E+03	1.308309E-16	2.511636E-18
6.879921E+03	1.299423E-16	2.488206E-18
6.889764E+03	1.293322E-16	2.469735E-18
6.899606E+03	1.290082E-16	2.456338E-18
6.909449E+03	1.289801E-16	2.448162E-18
6.919291E+03	1.292466E-16	2.445139E-18
6.929134E+03	1.298058E-16	2.447185E-18
6.938976E+03	1.306504E-16	2.454104E-18
6.948819E+03	1.317618E-16	2.465494E-18
6.958661E+03	1.331221E-16	2.480966E-18
6.968504E+03	1.347033E-16	2.499937E-18
6.978346E+03	1.364717E-16	2.521738E-18
6.988189E+03	1.383958E-16	2.545736E-18
6.998031E+03	1.404365E-16	2.571176E-18
7.007874E+03	1.425557E-16	2.597334E-18
7.017717E+03	1.447169E-16	2.623527E-18
7.027559E+03	1.468861E-16	2.649129E-18
7.037402E+03	1.490336E-16	2.673613E-18
7.047244E+03	1.511373E-16	2.696589E-18
7.057087E+03	1.531768E-16	2.717723E-18
7.066929E+03	1.551405E-16	2.736835E-18
7.076772E+03	1.570229E-16	2.753866E-18
7.086614E+03	1.588266E-16	2.768902E-18
7.096457E+03	1.605555E-16	2.782054E-18
7.106299E+03	1.622221E-16	2.793582E-18
7.116142E+03	1.638361E-16	2.803695E-18
7.125984E+03	1.654202E-16	2.812822E-18
7.135827E+03	1.669858E-16	2.821197E-18
7.145669E+03	1.685574E-16	2.829268E-18
7.155512E+03	1.701478E-16	2.837280E-18
7.165354E+03	1.717718E-16	2.845512E-18
7.175197E+03	1.734434E-16	2.854220E-18
7.185039E+03	1.751697E-16	2.863552E-18
7.194882E+03	1.769529E-16	2.873572E-18
7.204724E+03	1.787900E-16	2.884263E-18
7.214567E+03	1.806724E-16	2.895525E-18
7.224409E+03	1.825859E-16	2.907177E-18
7.234252E+03	1.845134E-16	2.919000E-18
7.244094E+03	1.864278E-16	2.930630E-18
7.253937E+03	1.882989E-16	2.941668E-18
7.263780E+03	1.900942E-16	2.951698E-18
7.273622E+03	1.917722E-16	2.960178E-18
7.283465E+03	1.932958E-16	2.966648E-18
7.293307E+03	1.946155E-16	2.970474E-18
7.303150E+03	1.956890E-16	2.971148E-18
7.312992E+03	1.964694E-16	2.968102E-18
7.322835E+03	1.969202E-16	2.960933E-18
7.332677E+03	1.969957E-16	2.949100E-18
7.342520E+03	1.966704E-16	2.932371E-18
7.352362E+03	1.959092E-16	2.910356E-18
7.362205E+03	1.946964E-16	2.882950E-18
7.372047E+03	1.930181E-16	2.850054E-18
7.381890E+03	1.908625E-16	2.811584E-18
7.391732E+03	1.882354E-16	2.767675E-18
7.401575E+03	1.851494E-16	2.718540E-18
7.411417E+03	1.816262E-16	2.664493E-18
7.421260E+03	1.777092E-16	2.606148E-18
7.431102E+03	1.734678E-16	2.544468E-18
7.440945E+03	1.689915E-16	2.480696E-18
7.450787E+03	1.643732E-16	2.416101E-18
7.460630E+03	1.597027E-16	2.351881E-18
7.470472E+03	1.550612E-16	2.289076E-18
7.480315E+03	1.505289E-16	2.228724E-18
7.490157E+03	1.461664E-16	2.171589E-18
7.500000E+03	1.420370E-16	2.118499E-18
7.509843E+03	1.381828E-16	2.069994E-18
7.519685E+03	1.346375E-16	2.026511E-18
7.529528E+03	1.314173E-16	1.988248E-18
7.539370E+03	1.285221E-16	1.955176E-18
7.549213E+03	1.259402E-16	1.927102E-18
7.559055E+03	1.236596E-16	1.903842E-18
7.568898E+03	1.216639E-16	1.885147E-18
7.578740E+03	1.199384E-16	1.870803E-18
7.588583E+03	1.184689E-16	1.860609E-18
7.598425E+03	1.172425E-16	1.854383E-18
7.608268E+03	1.162483E-16	1.851982E-18
7.618110E+03	1.154726E-16	1.853217E-18
7.627953E+03	1.149053E-16	1.857957E-18
7.637795E+03	1.145312E-16	1.865989E-18
