#wls	flux	fluxerr
1.574803E+03	8.659981E-18	8.168543E-19
1.614173E+03	8.638555E-18	8.111540E-19
1.653543E+03	8.598878E-18	8.036678E-19
1.692913E+03	8.542766E-18	7.945879E-19
1.732283E+03	8.468345E-18	7.837630E-19
1.771654E+03	8.376768E-18	7.713249E-19
1.811024E+03	8.262286E-18	7.567728E-19
1.850394E+03	8.121613E-18	7.398430E-19
1.889764E+03	7.948058E-18	7.199716E-19
1.929134E+03	7.740776E-18	6.971379E-19
1.968504E+03	7.497218E-18	6.711730E-19
2.007874E+03	7.230009E-18	6.432663E-19
2.047244E+03	6.961855E-18	6.154737E-19
2.086614E+03	6.732906E-18	5.913325E-19
2.125984E+03	6.587579E-18	5.746572E-19
2.165354E+03	6.552351E-18	5.675970E-19
2.204724E+03	6.630527E-18	5.702350E-19
2.244094E+03	6.797359E-18	5.802412E-19
2.283465E+03	7.017514E-18	5.944432E-19
2.322835E+03	7.259653E-18	6.100908E-19
2.362205E+03	7.505632E-18	6.256138E-19
2.401575E+03	7.742358E-18	6.399085E-19
2.440945E+03	7.969075E-18	6.529189E-19
2.480315E+03	8.187846E-18	6.648209E-19
2.519685E+03	8.399884E-18	6.757165E-19
2.559055E+03	8.609818E-18	6.859767E-19
2.598425E+03	8.822375E-18	6.959666E-19
2.637795E+03	9.042145E-18	7.060250E-19
2.677165E+03	9.272036E-18	7.163456E-19
2.716535E+03	9.517539E-18	7.273084E-19
2.755906E+03	9.781132E-18	7.390461E-19
2.795276E+03	1.006942E-17	7.519888E-19
2.834646E+03	1.038466E-17	7.662200E-19
2.874016E+03	1.073191E-17	7.820171E-19
2.913386E+03	1.111781E-17	7.997471E-19
2.952756E+03	1.154468E-17	8.194431E-19
2.962598E+03	1.165864E-17	8.247171E-19
2.972441E+03	1.177645E-17	8.301939E-19
2.982283E+03	1.189670E-17	8.357697E-19
2.992126E+03	1.202093E-17	8.415515E-19
3.001969E+03	1.214928E-17	8.475447E-19
3.011811E+03	1.228041E-17	8.536535E-19
3.021654E+03	1.241583E-17	8.599791E-19
3.031496E+03	1.255445E-17	8.664424E-19
3.041339E+03	1.269830E-17	8.731813E-19
3.051181E+03	1.284593E-17	8.800911E-19
3.061024E+03	1.300029E-17	8.873699E-19
3.070866E+03	1.315831E-17	8.948031E-19
3.080709E+03	1.332297E-17	9.025897E-19
3.090551E+03	1.349122E-17	9.105176E-19
3.100394E+03	1.366608E-17	9.187867E-19
3.110236E+03	1.384602E-17	9.272889E-19
3.120079E+03	1.403106E-17	9.360201E-19
3.129921E+03	1.422120E-17	9.449766E-19
3.139764E+03	1.441801E-17	9.542577E-19
3.149606E+03	1.462155E-17	9.638600E-19
3.159449E+03	1.483032E-17	9.736807E-19
3.169291E+03	1.504594E-17	9.838192E-19
3.179134E+03	1.526692E-17	9.941733E-19
3.188976E+03	1.549492E-17	1.004845E-18
3.198819E+03	1.573004E-17	1.015834E-18
3.208661E+03	1.597239E-17	1.027142E-18
3.218504E+03	1.622210E-17	1.038769E-18
3.228346E+03	1.647932E-17	1.050719E-18
3.238189E+03	1.674420E-17	1.062993E-18
3.248031E+03	1.701851E-17	1.075697E-18
3.257874E+03	1.729924E-17	1.088631E-18
3.267717E+03	1.759139E-17	1.102105E-18
3.277559E+03	1.789037E-17	1.115819E-18
3.287402E+03	1.820126E-17	1.130082E-18
3.297244E+03	1.852107E-17	1.144700E-18
3.307087E+03	1.885169E-17	1.159779E-18
3.316929E+03	1.919342E-17	1.175327E-18
3.326772E+03	1.954658E-17	1.191354E-18
3.336614E+03	1.991147E-17	1.207866E-18
3.346457E+03	2.029012E-17	1.224975E-18
3.356299E+03	2.068124E-17	1.242589E-18
3.366142E+03	2.108518E-17	1.260717E-18
3.375984E+03	2.150404E-17	1.279473E-18
3.385827E+03	2.193653E-17	1.298765E-18
3.395669E+03	2.238651E-17	1.318807E-18
3.405512E+03	2.285101E-17	1.339408E-18
3.415354E+03	2.333394E-17	1.360782E-18
3.425197E+03	2.383407E-17	1.382839E-18
3.435039E+03	2.435191E-17	1.405591E-18
3.444882E+03	2.488971E-17	1.429150E-18
3.454724E+03	2.544625E-17	1.453428E-18
3.464567E+03	2.602386E-17	1.478536E-18
3.474409E+03	2.662309E-17	1.504487E-18
3.484252E+03	2.724451E-17	1.531289E-18
3.494094E+03	2.788872E-17	1.558955E-18
3.503937E+03	2.855814E-17	1.587595E-18
3.513780E+03	2.925154E-17	1.617117E-18
3.523622E+03	2.996952E-17	1.647529E-18
3.533465E+03	3.071642E-17	1.679044E-18
3.543307E+03	3.148914E-17	1.711463E-18
3.553150E+03	3.229205E-17	1.744998E-18
3.562992E+03	3.312391E-17	1.779549E-18
3.572835E+03	3.398531E-17	1.815119E-18
3.582677E+03	3.487880E-17	1.851814E-18
3.592520E+03	3.580301E-17	1.889527E-18
3.602362E+03	3.676246E-17	1.928465E-18
3.612205E+03	3.775373E-17	1.968413E-18
3.622047E+03	3.878135E-17	2.009571E-18
3.631890E+03	3.984377E-17	2.051824E-18
3.641732E+03	4.094142E-17	2.095156E-18
3.651575E+03	4.207880E-17	2.139760E-18
3.661417E+03	4.325209E-17	2.185401E-18
3.671260E+03	4.446362E-17	2.232158E-18
3.681102E+03	4.571353E-17	2.279999E-18
3.690945E+03	4.700403E-17	2.328992E-18
3.700787E+03	4.833295E-17	2.378987E-18
3.710630E+03	4.970229E-17	2.430042E-18
3.720472E+03	5.111178E-17	2.482100E-18
3.730315E+03	5.255875E-17	2.534991E-18
3.740157E+03	5.404710E-17	2.588861E-18
3.750000E+03	5.557383E-17	2.643523E-18
3.759843E+03	5.713799E-17	2.698891E-18
3.769685E+03	5.874078E-17	2.754980E-18
3.779528E+03	6.038088E-17	2.811690E-18
3.789370E+03	6.205443E-17	2.868799E-18
3.799213E+03	6.376201E-17	2.926300E-18
3.809055E+03	6.550167E-17	2.984065E-18
3.818898E+03	6.727119E-17	3.041960E-18
3.828740E+03	6.906812E-17	3.099843E-18
3.838583E+03	7.089228E-17	3.157675E-18
3.848425E+03	7.273587E-17	3.215081E-18
3.858268E+03	7.460066E-17	3.272118E-18
3.868110E+03	7.648332E-17	3.328618E-18
3.877953E+03	7.837793E-17	3.384304E-18
3.887795E+03	8.028062E-17	3.438999E-18
3.897638E+03	8.219000E-17	3.492633E-18
3.907480E+03	8.410160E-17	3.545010E-18
3.917323E+03	8.600542E-17	3.595711E-18
3.927165E+03	8.790371E-17	3.644834E-18
3.937008E+03	8.978300E-17	3.691835E-18
3.946850E+03	9.164203E-17	3.736679E-18
3.956693E+03	9.347414E-17	3.779121E-18
3.966535E+03	9.526752E-17	3.818716E-18
3.976378E+03	9.701768E-17	3.855327E-18
3.986220E+03	9.872034E-17	3.888832E-18
3.996063E+03	1.003635E-16	3.918815E-18
4.005906E+03	1.019405E-16	3.945083E-18
4.015748E+03	1.034477E-16	3.967567E-18
4.025591E+03	1.048767E-16	3.986022E-18
4.035433E+03	1.062220E-16	4.000333E-18
4.045276E+03	1.074770E-16	4.010337E-18
4.055118E+03	1.086407E-16	4.016101E-18
4.064961E+03	1.097063E-16	4.017473E-18
4.074803E+03	1.106781E-16	4.014718E-18
4.084646E+03	1.115498E-16	4.007716E-18
4.094488E+03	1.123266E-16	3.996753E-18
4.104331E+03	1.130125E-16	3.982083E-18
4.114173E+03	1.136082E-16	3.963828E-18
4.124016E+03	1.141226E-16	3.942396E-18
4.133858E+03	1.145610E-16	3.918058E-18
4.143701E+03	1.149293E-16	3.891103E-18
4.153543E+03	1.152361E-16	3.861896E-18
4.163386E+03	1.154905E-16	3.830809E-18
4.173228E+03	1.156971E-16	3.798059E-18
4.183071E+03	1.158654E-16	3.764009E-18
4.192913E+03	1.160025E-16	3.728935E-18
4.202756E+03	1.161178E-16	3.693175E-18
4.212598E+03	1.162166E-16	3.656928E-18
4.222441E+03	1.163100E-16	3.620564E-18
4.232283E+03	1.164009E-16	3.584190E-18
4.242126E+03	1.165020E-16	3.548201E-18
4.251969E+03	1.166134E-16	3.512603E-18
4.261811E+03	1.167446E-16	3.477678E-18
4.271654E+03	1.168988E-16	3.443508E-18
4.281496E+03	1.170820E-16	3.410259E-18
4.291339E+03	1.172941E-16	3.377913E-18
4.301181E+03	1.175401E-16	3.346591E-18
4.311024E+03	1.178207E-16	3.316297E-18
4.320866E+03	1.181384E-16	3.287075E-18
4.330709E+03	1.184917E-16	3.258866E-18
4.340551E+03	1.188827E-16	3.231707E-18
4.350394E+03	1.193105E-16	3.205554E-18
4.360236E+03	1.197750E-16	3.180382E-18
4.370079E+03	1.202788E-16	3.156247E-18
4.379921E+03	1.208232E-16	3.133160E-18
4.389764E+03	1.214128E-16	3.111220E-18
4.399606E+03	1.220564E-16	3.090633E-18
4.409449E+03	1.227605E-16	3.071530E-18
4.419291E+03	1.235286E-16	3.053963E-18
4.429134E+03	1.243700E-16	3.038115E-18
4.438976E+03	1.252830E-16	3.023898E-18
4.448819E+03	1.262712E-16	3.011350E-18
4.458661E+03	1.273357E-16	3.000448E-18
4.468504E+03	1.284762E-16	2.991144E-18
4.478346E+03	1.296895E-16	2.983316E-18
4.488189E+03	1.309724E-16	2.976854E-18
4.498031E+03	1.323185E-16	2.971583E-18
4.507874E+03	1.337208E-16	2.967324E-18
4.517717E+03	1.351689E-16	2.963826E-18
4.527559E+03	1.366517E-16	2.960847E-18
4.537402E+03	1.381562E-16	2.958110E-18
4.547244E+03	1.396640E-16	2.955244E-18
4.557087E+03	1.411624E-16	2.952013E-18
4.566929E+03	1.426295E-16	2.948007E-18
4.576772E+03	1.440499E-16	2.942973E-18
4.586614E+03	1.454084E-16	2.936671E-18
4.596457E+03	1.466897E-16	2.928881E-18
4.606299E+03	1.478813E-16	2.919444E-18
4.616142E+03	1.489777E-16	2.908355E-18
4.625984E+03	1.499692E-16	2.895524E-18
4.635827E+03	1.508513E-16	2.880975E-18
4.645669E+03	1.516226E-16	2.864786E-18
4.655512E+03	1.522813E-16	2.847026E-18
4.665354E+03	1.528244E-16	2.827746E-18
4.675197E+03	1.532537E-16	2.807078E-18
4.685039E+03	1.535695E-16	2.785126E-18
4.694882E+03	1.537714E-16	2.761979E-18
4.704724E+03	1.538648E-16	2.737819E-18
4.714567E+03	1.538510E-16	2.712755E-18
4.724409E+03	1.537370E-16	2.686987E-18
4.734252E+03	1.535341E-16	2.660782E-18
4.744094E+03	1.532565E-16	2.634446E-18
4.753937E+03	1.529240E-16	2.608365E-18
4.763780E+03	1.525577E-16	2.582938E-18
4.773622E+03	1.521826E-16	2.558611E-18
4.783465E+03	1.518226E-16	2.535789E-18
4.793307E+03	1.514990E-16	2.514824E-18
4.803150E+03	1.512302E-16	2.496011E-18
4.812992E+03	1.510321E-16	2.479597E-18
4.822835E+03	1.509212E-16	2.465837E-18
4.832677E+03	1.509149E-16	2.454995E-18
4.842520E+03	1.510238E-16	2.447227E-18
4.852362E+03	1.512634E-16	2.442765E-18
4.862205E+03	1.516403E-16	2.441701E-18
4.872047E+03	1.521635E-16	2.444156E-18
4.881890E+03	1.528386E-16	2.450167E-18
4.891732E+03	1.536664E-16	2.459705E-18
4.901575E+03	1.546493E-16	2.472762E-18
4.911417E+03	1.557850E-16	2.489259E-18
4.921260E+03	1.570677E-16	2.509073E-18
4.931102E+03	1.584863E-16	2.531991E-18
4.940945E+03	1.600285E-16	2.557788E-18
4.950787E+03	1.616750E-16	2.586126E-18
4.960630E+03	1.634012E-16	2.616587E-18
4.970472E+03	1.651782E-16	2.648679E-18
4.980315E+03	1.669727E-16	2.681838E-18
4.990157E+03	1.687485E-16	2.715450E-18
5.000000E+03	1.704697E-16	2.748898E-18
5.009843E+03	1.721051E-16	2.781635E-18
5.019685E+03	1.736246E-16	2.813123E-18
5.029528E+03	1.750093E-16	2.843004E-18
5.039370E+03	1.762537E-16	2.871125E-18
5.049213E+03	1.773661E-16	2.897561E-18
5.059055E+03	1.783638E-16	2.922533E-18
5.068898E+03	1.792726E-16	2.946407E-18
5.078740E+03	1.801271E-16	2.969694E-18
5.088583E+03	1.809669E-16	2.992998E-18
5.098425E+03	1.818219E-16	3.016771E-18
5.108268E+03	1.827243E-16	3.041512E-18
5.118110E+03	1.836995E-16	3.067614E-18
5.127953E+03	1.847667E-16	3.095369E-18
5.137795E+03	1.859397E-16	3.124987E-18
5.147638E+03	1.872282E-16	3.156614E-18
5.157480E+03	1.886385E-16	3.190339E-18
5.167323E+03	1.901742E-16	3.226204E-18
5.177165E+03	1.918364E-16	3.264215E-18
5.187008E+03	1.936262E-16	3.304377E-18
5.196850E+03	1.955390E-16	3.346594E-18
5.206693E+03	1.975695E-16	3.390762E-18
5.216535E+03	1.997123E-16	3.436769E-18
5.226378E+03	2.019529E-16	3.484347E-18
5.236220E+03	2.042841E-16	3.533353E-18
5.246063E+03	2.066831E-16	3.583368E-18
5.255906E+03	2.091342E-16	3.634096E-18
5.265748E+03	2.116143E-16	3.685108E-18
5.275591E+03	2.140926E-16	3.735835E-18
5.285433E+03	2.165454E-16	3.785835E-18
5.295276E+03	2.189463E-16	3.834607E-18
5.305118E+03	2.212685E-16	3.881650E-18
5.314961E+03	2.234982E-16	3.926682E-18
5.324803E+03	2.256175E-16	3.969344E-18
5.334646E+03	2.276151E-16	4.009393E-18
5.344488E+03	2.294745E-16	4.046498E-18
5.354331E+03	2.311891E-16	4.080500E-18
5.364173E+03	2.327439E-16	4.111096E-18
5.374016E+03	2.341335E-16	4.138152E-18
5.383858E+03	2.353436E-16	4.161385E-18
5.393701E+03	2.363702E-16	4.180694E-18
5.403543E+03	2.372004E-16	4.195826E-18
5.413386E+03	2.378320E-16	4.206721E-18
5.423228E+03	2.382593E-16	4.213262E-18
5.433071E+03	2.384717E-16	4.215251E-18
5.442913E+03	2.384695E-16	4.212687E-18
5.452756E+03	2.382357E-16	4.205270E-18
5.462598E+03	2.377625E-16	4.192868E-18
5.472441E+03	2.370318E-16	4.175173E-18
5.482283E+03	2.360242E-16	4.151861E-18
5.492126E+03	2.347179E-16	4.122581E-18
5.501969E+03	2.330916E-16	4.086989E-18
5.511811E+03	2.311248E-16	4.044775E-18
5.521654E+03	2.288010E-16	3.995705E-18
5.531496E+03	2.261130E-16	3.939716E-18
5.541339E+03	2.230589E-16	3.876849E-18
5.551181E+03	2.196511E-16	3.807403E-18
5.561024E+03	2.159181E-16	3.731953E-18
5.570866E+03	2.119081E-16	3.651426E-18
5.580709E+03	2.076768E-16	3.566866E-18
5.590551E+03	2.032966E-16	3.479598E-18
5.600394E+03	1.988396E-16	3.390928E-18
5.610236E+03	1.943832E-16	3.302238E-18
5.620079E+03	1.899975E-16	3.214765E-18
5.629921E+03	1.857553E-16	3.129771E-18
5.639764E+03	1.817243E-16	3.048412E-18
5.649606E+03	1.779619E-16	2.971649E-18
5.659449E+03	1.745260E-16	2.900425E-18
5.669291E+03	1.714669E-16	2.835541E-18
5.679134E+03	1.688294E-16	2.777677E-18
5.688976E+03	1.666514E-16	2.727388E-18
5.698819E+03	1.649640E-16	2.685094E-18
5.708661E+03	1.637938E-16	2.651125E-18
5.718504E+03	1.631624E-16	2.625718E-18
5.728346E+03	1.630837E-16	2.608969E-18
5.738189E+03	1.635700E-16	2.600942E-18
5.748031E+03	1.646239E-16	2.601537E-18
5.757874E+03	1.662475E-16	2.610645E-18
5.767717E+03	1.684259E-16	2.627884E-18
5.777559E+03	1.711349E-16	2.652735E-18
5.787402E+03	1.743305E-16	2.684384E-18
5.797244E+03	1.779629E-16	2.721951E-18
5.807087E+03	1.819691E-16	2.764375E-18
5.816929E+03	1.862791E-16	2.810520E-18
5.826772E+03	1.908079E-16	2.859061E-18
5.836614E+03	1.954597E-16	2.908556E-18
5.846457E+03	2.001275E-16	2.957442E-18
5.856299E+03	2.046988E-16	3.004125E-18
5.866142E+03	2.090518E-16	3.046930E-18
5.875984E+03	2.130712E-16	3.084334E-18
5.885827E+03	2.166494E-16	3.114969E-18
5.895669E+03	2.196935E-16	3.137725E-18
5.905512E+03	2.221312E-16	3.151824E-18
5.915354E+03	2.239106E-16	3.156793E-18
5.925197E+03	2.250050E-16	3.152528E-18
5.935039E+03	2.254027E-16	3.139138E-18
5.944882E+03	2.251176E-16	3.117072E-18
5.954724E+03	2.241870E-16	3.087088E-18
5.964567E+03	2.226600E-16	3.050079E-18
5.974409E+03	2.206110E-16	3.007246E-18
5.984252E+03	2.181185E-16	2.959812E-18
5.994094E+03	2.152821E-16	2.909245E-18
6.003937E+03	2.121982E-16	2.856933E-18
6.013780E+03	2.089729E-16	2.804356E-18
6.023622E+03	2.057068E-16	2.752895E-18
6.033465E+03	2.024971E-16	2.703853E-18
6.043307E+03	1.994409E-16	2.658522E-18
6.053150E+03	1.966215E-16	2.617996E-18
6.062992E+03	1.941147E-16	2.583267E-18
6.072835E+03	1.919874E-16	2.555212E-18
6.082677E+03	1.902913E-16	2.534487E-18
6.092520E+03	1.890633E-16	2.521533E-18
6.102362E+03	1.883106E-16	2.516417E-18
6.112205E+03	1.880048E-16	2.518733E-18
6.122047E+03	1.880758E-16	2.527516E-18
6.131890E+03	1.884285E-16	2.541471E-18
6.141732E+03	1.889735E-16	2.559369E-18
6.151575E+03	1.896416E-16	2.580246E-18
6.161417E+03	1.903852E-16	2.603415E-18
6.171260E+03	1.911766E-16	2.628457E-18
6.181102E+03	1.919896E-16	2.654962E-18
6.190945E+03	1.928062E-16	2.682625E-18
6.200787E+03	1.936055E-16	2.711094E-18
6.210630E+03	1.943655E-16	2.739994E-18
6.220472E+03	1.950641E-16	2.768939E-18
6.230315E+03	1.956760E-16	2.797487E-18
6.240157E+03	1.961779E-16	2.825213E-18
6.250000E+03	1.965440E-16	2.851643E-18
6.259843E+03	1.967532E-16	2.876362E-18
6.269685E+03	1.967931E-16	2.899073E-18
6.279528E+03	1.966538E-16	2.919509E-18
6.289370E+03	1.963278E-16	2.937432E-18
6.299213E+03	1.958181E-16	2.952765E-18
6.309055E+03	1.951331E-16	2.965510E-18
6.318898E+03	1.942795E-16	2.975652E-18
6.328740E+03	1.932741E-16	2.983337E-18
6.338583E+03	1.921339E-16	2.988724E-18
6.348425E+03	1.908790E-16	2.992028E-18
6.358268E+03	1.895342E-16	2.993559E-18
6.368110E+03	1.881172E-16	2.993521E-18
6.377953E+03	1.866489E-16	2.992188E-18
6.387795E+03	1.851532E-16	2.989891E-18
6.397638E+03	1.836466E-16	2.986857E-18
6.407480E+03	1.821478E-16	2.983357E-18
6.417323E+03	1.806768E-16	2.979698E-18
6.427165E+03	1.792516E-16	2.976166E-18
6.437008E+03	1.778845E-16	2.972957E-18
6.446850E+03	1.765886E-16	2.970292E-18
6.456693E+03	1.753805E-16	2.968456E-18
6.466535E+03	1.742669E-16	2.967574E-18
6.476378E+03	1.732619E-16	2.967903E-18
6.486220E+03	1.723778E-16	2.969669E-18
6.496063E+03	1.716214E-16	2.973017E-18
6.505906E+03	1.710006E-16	2.978104E-18
6.515748E+03	1.705189E-16	2.985016E-18
6.525591E+03	1.701693E-16	2.993658E-18
6.535433E+03	1.699496E-16	3.004007E-18
6.545276E+03	1.698423E-16	3.015776E-18
6.555118E+03	1.698311E-16	3.028685E-18
6.564961E+03	1.698946E-16	3.042363E-18
6.574803E+03	1.700073E-16	3.056351E-18
6.584646E+03	1.701469E-16	3.070248E-18
6.594488E+03	1.702838E-16	3.083506E-18
6.604331E+03	1.703862E-16	3.095539E-18
6.614173E+03	1.704269E-16	3.105835E-18
6.624016E+03	1.703709E-16	3.113731E-18
6.633858E+03	1.701891E-16	3.118676E-18
6.643701E+03	1.698528E-16	3.120115E-18
6.653543E+03	1.693389E-16	3.117600E-18
6.663386E+03	1.686239E-16	3.110678E-18
6.673228E+03	1.676964E-16	3.099117E-18
6.683071E+03	1.665472E-16	3.082732E-18
6.692913E+03	1.651800E-16	3.061583E-18
6.702756E+03	1.635992E-16	3.035749E-18
6.712598E+03	1.618153E-16	3.005425E-18
6.722441E+03	1.598505E-16	2.971033E-18
6.732283E+03	1.577238E-16	2.932944E-18
6.742126E+03	1.554639E-16	2.891710E-18
6.751969E+03	1.531003E-16	2.847907E-18
6.761811E+03	1.506627E-16	2.802111E-18
6.771654E+03	1.481873E-16	2.755030E-18
6.781496E+03	1.457040E-16	2.707250E-18
6.791339E+03	1.432496E-16	2.659488E-18
6.801181E+03	1.408533E-16	2.612313E-18
6.811024E+03	1.385483E-16	2.566372E-18
6.820866E+03	1.363647E-16	2.522241E-18
6.830709E+03	1.343296E-16	2.480442E-18
6.840551E+03	1.324738E-16	2.441558E-18
6.850394E+03	1.308218E-16	2.406044E-18
6.860236E+03	1.293966E-16	2.374327E-18
6.870079E+03	1.282230E-16	2.346849E-18
6.879921E+03	1.273238E-16	2.324013E-18
6.889764E+03	1.267144E-16	2.306073E-18
6.899606E+03	1.264114E-16	2.293297E-18
6.909449E+03	1.264257E-16	2.285840E-18
6.919291E+03	1.267649E-16	2.283789E-18
6.929134E+03	1.274248E-16	2.287009E-18
6.938976E+03	1.283990E-16	2.295324E-18
6.948819E+03	1.296717E-16	2.308383E-18
6.958661E+03	1.312175E-16	2.325670E-18
6.968504E+03	1.330029E-16	2.346523E-18
6.978346E+03	1.349898E-16	2.370213E-18
6.988189E+03	1.371294E-16	2.395831E-18
6.998031E+03	1.393765E-16	2.422545E-18
7.007874E+03	1.416810E-16	2.449456E-18
7.017717E+03	1.439973E-16	2.475765E-18
7.027559E+03	1.462845E-16	2.500764E-18
7.037402E+03	1.485073E-16	2.523866E-18
7.047244E+03	1.506409E-16	2.544676E-18
7.057087E+03	1.526647E-16	2.562883E-18
7.066929E+03	1.545679E-16	2.578349E-18
7.076772E+03	1.563483E-16	2.591093E-18
7.086614E+03	1.580128E-16	2.601284E-18
7.096457E+03	1.595698E-16	2.609117E-18
7.106299E+03	1.610365E-16	2.614928E-18
7.116142E+03	1.624292E-16	2.619039E-18
7.125984E+03	1.637710E-16	2.621873E-18
7.135827E+03	1.650822E-16	2.623800E-18
7.145669E+03	1.663882E-16	2.625267E-18
7.155512E+03	1.677085E-16	2.626617E-18
7.165354E+03	1.690646E-16	2.628223E-18
7.175197E+03	1.704721E-16	2.630352E-18
7.185039E+03	1.719402E-16	2.633175E-18
7.194882E+03	1.734675E-16	2.636702E-18
7.204724E+03	1.750504E-16	2.640910E-18
7.214567E+03	1.766778E-16	2.645674E-18
7.224409E+03	1.783340E-16	2.650805E-18
7.234252E+03	1.799985E-16	2.656061E-18
7.244094E+03	1.816487E-16	2.661175E-18
7.253937E+03	1.832509E-16	2.665738E-18
7.263780E+03	1.847688E-16	2.669320E-18
7.273622E+03	1.861651E-16	2.671490E-18
7.283465E+03	1.873965E-16	2.671750E-18
7.293307E+03	1.884206E-16	2.669633E-18
7.303150E+03	1.891886E-16	2.664592E-18
7.312992E+03	1.896642E-16	2.656267E-18
7.322835E+03	1.898107E-16	2.644300E-18
7.332677E+03	1.895945E-16	2.628375E-18
7.342520E+03	1.889925E-16	2.608319E-18
7.352362E+03	1.879889E-16	2.584053E-18
7.362205E+03	1.865719E-16	2.555533E-18
7.372047E+03	1.847381E-16	2.522817E-18
7.381890E+03	1.824905E-16	2.486017E-18
7.391732E+03	1.798357E-16	2.445263E-18
7.401575E+03	1.767911E-16	2.400799E-18
7.411417E+03	1.733804E-16	2.352935E-18
7.421260E+03	1.696382E-16	2.302100E-18
7.431102E+03	1.656316E-16	2.249141E-18
7.440945E+03	1.614342E-16	2.194975E-18
7.450787E+03	1.571300E-16	2.140643E-18
7.460630E+03	1.527974E-16	2.087075E-18
7.470472E+03	1.485063E-16	2.035065E-18
7.480315E+03	1.443237E-16	1.985381E-18
7.490157E+03	1.403074E-16	1.938687E-18
7.500000E+03	1.365054E-16	1.895534E-18
7.509843E+03	1.329599E-16	1.856419E-18
7.519685E+03	1.297051E-16	1.821754E-18
7.529528E+03	1.267530E-16	1.791663E-18
7.539370E+03	1.240983E-16	1.766049E-18
7.549213E+03	1.217301E-16	1.744740E-18
7.559055E+03	1.196303E-16	1.727477E-18
7.568898E+03	1.177881E-16	1.714110E-18
7.578740E+03	1.161899E-16	1.704452E-18
7.588583E+03	1.148268E-16	1.698391E-18
7.598425E+03	1.136861E-16	1.695762E-18
7.608268E+03	1.127621E-16	1.696510E-18
7.618110E+03	1.120449E-16	1.700517E-18
7.627953E+03	1.115273E-16	1.707711E-18
7.637795E+03	1.111964E-16	1.717927E-18
