#wls	flux	fluxerr
1.574803E+03	7.809224E-18	8.595359E-19
1.614173E+03	7.856561E-18	8.616319E-19
1.653543E+03	7.890463E-18	8.621403E-19
1.692913E+03	7.910707E-18	8.610509E-19
1.732283E+03	7.916691E-18	8.583129E-19
1.771654E+03	7.907420E-18	8.538354E-19
1.811024E+03	7.877026E-18	8.470059E-19
1.850394E+03	7.821578E-18	8.374315E-19
1.889764E+03	7.735235E-18	8.245244E-19
1.929134E+03	7.613094E-18	8.078094E-19
1.968504E+03	7.454359E-18	7.872575E-19
2.007874E+03	7.268808E-18	7.639549E-19
2.047244E+03	7.079847E-18	7.403958E-19
2.086614E+03	6.927118E-18	7.207155E-19
2.125984E+03	6.857958E-18	7.097591E-19
2.165354E+03	6.904557E-18	7.107038E-19
2.204724E+03	7.074399E-18	7.241170E-19
2.244094E+03	7.344083E-18	7.473961E-19
2.283465E+03	7.679899E-18	7.769415E-19
2.322835E+03	8.050879E-18	8.095039E-19
2.362205E+03	8.434993E-18	8.427993E-19
2.401575E+03	8.820555E-18	8.756242E-19
2.440945E+03	9.204809E-18	9.076852E-19
2.480315E+03	9.589538E-18	9.391401E-19
2.519685E+03	9.977344E-18	9.702216E-19
2.559055E+03	1.037477E-17	1.001535E-18
2.598425E+03	1.078567E-17	1.033408E-18
2.637795E+03	1.121536E-17	1.066297E-18
2.677165E+03	1.166910E-17	1.100631E-18
2.716535E+03	1.215363E-17	1.136964E-18
2.755906E+03	1.267407E-17	1.175674E-18
2.795276E+03	1.323384E-17	1.216963E-18
2.834646E+03	1.384145E-17	1.261480E-18
2.874016E+03	1.450399E-17	1.309716E-18
2.913386E+03	1.522881E-17	1.362155E-18
2.952756E+03	1.602183E-17	1.419123E-18
2.962598E+03	1.623125E-17	1.434092E-18
2.972441E+03	1.644617E-17	1.449435E-18
2.982283E+03	1.666669E-17	1.465158E-18
2.992126E+03	1.689293E-17	1.481265E-18
3.001969E+03	1.712326E-17	1.497611E-18
3.011811E+03	1.736158E-17	1.514531E-18
3.021654E+03	1.760426E-17	1.531704E-18
3.031496E+03	1.785371E-17	1.549334E-18
3.041339E+03	1.811048E-17	1.567465E-18
3.051181E+03	1.837304E-17	1.585958E-18
3.061024E+03	1.864507E-17	1.605124E-18
3.070866E+03	1.892463E-17	1.624791E-18
3.080709E+03	1.921169E-17	1.644949E-18
3.090551E+03	1.950621E-17	1.665589E-18
3.100394E+03	1.981008E-17	1.686865E-18
3.110236E+03	2.012140E-17	1.708608E-18
3.120079E+03	2.044015E-17	1.730811E-18
3.129921E+03	2.076829E-17	1.753632E-18
3.139764E+03	2.110586E-17	1.777068E-18
3.149606E+03	2.145094E-17	1.800948E-18
3.159449E+03	2.180554E-17	1.825435E-18
3.169291E+03	2.216972E-17	1.850526E-18
3.179134E+03	2.254354E-17	1.876217E-18
3.188976E+03	2.292508E-17	1.902342E-18
3.198819E+03	2.331641E-17	1.929063E-18
3.208661E+03	2.371964E-17	1.956547E-18
3.218504E+03	2.413082E-17	1.984459E-18
3.228346E+03	2.455410E-17	2.013132E-18
3.238189E+03	2.498756E-17	2.042398E-18
3.248031E+03	2.543337E-17	2.072425E-18
3.257874E+03	2.588749E-17	2.102875E-18
3.267717E+03	2.635629E-17	2.134255E-18
3.277559E+03	2.683361E-17	2.166055E-18
3.287402E+03	2.732587E-17	2.198785E-18
3.297244E+03	2.782900E-17	2.232104E-18
3.307087E+03	2.834524E-17	2.266182E-18
3.316929E+03	2.887471E-17	2.301016E-18
3.326772E+03	2.941757E-17	2.336607E-18
3.336614E+03	2.997392E-17	2.372951E-18
3.346457E+03	3.054610E-17	2.410221E-18
3.356299E+03	3.112983E-17	2.448065E-18
3.366142E+03	3.172965E-17	2.486829E-18
3.375984E+03	3.234567E-17	2.526507E-18
3.385827E+03	3.297581E-17	2.566920E-18
3.395669E+03	3.362240E-17	2.608238E-18
3.405512E+03	3.428327E-17	2.650279E-18
3.415354E+03	3.496306E-17	2.693384E-18
3.425197E+03	3.565730E-17	2.737194E-18
3.435039E+03	3.637062E-17	2.782050E-18
3.444882E+03	3.710080E-17	2.827765E-18
3.454724E+03	3.784788E-17	2.874325E-18
3.464567E+03	3.861421E-17	2.921892E-18
3.474409E+03	3.939981E-17	2.970451E-18
3.484252E+03	4.020232E-17	3.019806E-18
3.494094E+03	4.102406E-17	3.070113E-18
3.503937E+03	4.186498E-17	3.121352E-18
3.513780E+03	4.272500E-17	3.173496E-18
3.523622E+03	4.360400E-17	3.226520E-18
3.533465E+03	4.450424E-17	3.280572E-18
3.543307E+03	4.542315E-17	3.335444E-18
3.553150E+03	4.636051E-17	3.391098E-18
3.562992E+03	4.732093E-17	3.447856E-18
3.572835E+03	4.829927E-17	3.505320E-18
3.582677E+03	4.929763E-17	3.563625E-18
3.592520E+03	5.031811E-17	3.622903E-18
3.602362E+03	5.135533E-17	3.682746E-18
3.612205E+03	5.241378E-17	3.743458E-18
3.622047E+03	5.349294E-17	3.804981E-18
3.631890E+03	5.458974E-17	3.867077E-18
3.641732E+03	5.570854E-17	3.930035E-18
3.651575E+03	5.684360E-17	3.993432E-18
3.661417E+03	5.799666E-17	4.057371E-18
3.671260E+03	5.916688E-17	4.121777E-18
3.681102E+03	6.035590E-17	4.186743E-18
3.690945E+03	6.156016E-17	4.252008E-18
3.700787E+03	6.278116E-17	4.317657E-18
3.710630E+03	6.401776E-17	4.383595E-18
3.720472E+03	6.526616E-17	4.449547E-18
3.730315E+03	6.653015E-17	4.515758E-18
3.740157E+03	6.780578E-17	4.581943E-18
3.750000E+03	6.909158E-17	4.647992E-18
3.759843E+03	7.038595E-17	4.713787E-18
3.769685E+03	7.168967E-17	4.779369E-18
3.779528E+03	7.299855E-17	4.844451E-18
3.789370E+03	7.431311E-17	4.909060E-18
3.799213E+03	7.563412E-17	4.973241E-18
3.809055E+03	7.695417E-17	5.036499E-18
3.818898E+03	7.827374E-17	5.098867E-18
3.828740E+03	7.959043E-17	5.160188E-18
3.838583E+03	8.090196E-17	5.220315E-18
3.848425E+03	8.220837E-17	5.279256E-18
3.858268E+03	8.350444E-17	5.336681E-18
3.868110E+03	8.478747E-17	5.392427E-18
3.877953E+03	8.605735E-17	5.446498E-18
3.887795E+03	8.730863E-17	5.498563E-18
3.897638E+03	8.854094E-17	5.548615E-18
3.907480E+03	8.975139E-17	5.596494E-18
3.917323E+03	9.093452E-17	5.641878E-18
3.927165E+03	9.208976E-17	5.684761E-18
3.937008E+03	9.321187E-17	5.724846E-18
3.946850E+03	9.430034E-17	5.762134E-18
3.956693E+03	9.535258E-17	5.796500E-18
3.966535E+03	9.636335E-17	5.827663E-18
3.976378E+03	9.733270E-17	5.855666E-18
3.986220E+03	9.825360E-17	5.880128E-18
3.996063E+03	9.913133E-17	5.901412E-18
4.005906E+03	9.995706E-17	5.919037E-18
4.015748E+03	1.007342E-16	5.933257E-18
4.025591E+03	1.014571E-16	5.943788E-18
4.035433E+03	1.021300E-16	5.950927E-18
4.045276E+03	1.027481E-16	5.954451E-18
4.055118E+03	1.033119E-16	5.954446E-18
4.064961E+03	1.038246E-16	5.951138E-18
4.074803E+03	1.042830E-16	5.944413E-18
4.084646E+03	1.046935E-16	5.934673E-18
4.094488E+03	1.050540E-16	5.921862E-18
4.104331E+03	1.053654E-16	5.906073E-18
4.114173E+03	1.056353E-16	5.887781E-18
4.124016E+03	1.058633E-16	5.867004E-18
4.133858E+03	1.060535E-16	5.844019E-18
4.143701E+03	1.062105E-16	5.819118E-18
4.153543E+03	1.063373E-16	5.792493E-18
4.163386E+03	1.064392E-16	5.764467E-18
4.173228E+03	1.065197E-16	5.735255E-18
4.183071E+03	1.065825E-16	5.705086E-18
4.192913E+03	1.066337E-16	5.674299E-18
4.202756E+03	1.066793E-16	5.643228E-18
4.212598E+03	1.067218E-16	5.612013E-18
4.222441E+03	1.067671E-16	5.580979E-18
4.232283E+03	1.068217E-16	5.550455E-18
4.242126E+03	1.068862E-16	5.520475E-18
4.251969E+03	1.069687E-16	5.491446E-18
4.261811E+03	1.070714E-16	5.463476E-18
4.271654E+03	1.072004E-16	5.436853E-18
4.281496E+03	1.073579E-16	5.411674E-18
4.291339E+03	1.075476E-16	5.388106E-18
4.301181E+03	1.077716E-16	5.366225E-18
4.311024E+03	1.080365E-16	5.346334E-18
4.320866E+03	1.083404E-16	5.328307E-18
4.330709E+03	1.086877E-16	5.312333E-18
4.340551E+03	1.090790E-16	5.298409E-18
4.350394E+03	1.095163E-16	5.286599E-18
4.360236E+03	1.099980E-16	5.276789E-18
4.370079E+03	1.105262E-16	5.269053E-18
4.379921E+03	1.110998E-16	5.263306E-18
4.389764E+03	1.117200E-16	5.259569E-18
4.399606E+03	1.123874E-16	5.257838E-18
4.409449E+03	1.131019E-16	5.258083E-18
4.419291E+03	1.138644E-16	5.260307E-18
4.429134E+03	1.146721E-16	5.264358E-18
4.438976E+03	1.155260E-16	5.270252E-18
4.448819E+03	1.164224E-16	5.277786E-18
4.458661E+03	1.173594E-16	5.286859E-18
4.468504E+03	1.183334E-16	5.297288E-18
4.478346E+03	1.193401E-16	5.308860E-18
4.488189E+03	1.203763E-16	5.321421E-18
4.498031E+03	1.214365E-16	5.334725E-18
4.507874E+03	1.225151E-16	5.348516E-18
4.517717E+03	1.236074E-16	5.362595E-18
4.527559E+03	1.247067E-16	5.376682E-18
4.537402E+03	1.258050E-16	5.390441E-18
4.547244E+03	1.268984E-16	5.403723E-18
4.557087E+03	1.279798E-16	5.416256E-18
4.566929E+03	1.290424E-16	5.427779E-18
4.576772E+03	1.300795E-16	5.438043E-18
4.586614E+03	1.310863E-16	5.446888E-18
4.596457E+03	1.320582E-16	5.454167E-18
4.606299E+03	1.329882E-16	5.459638E-18
4.616142E+03	1.338745E-16	5.463279E-18
4.625984E+03	1.347144E-16	5.465029E-18
4.635827E+03	1.355017E-16	5.464689E-18
4.645669E+03	1.362399E-16	5.462461E-18
4.655512E+03	1.369244E-16	5.458213E-18
4.665354E+03	1.375565E-16	5.452050E-18
4.675197E+03	1.381382E-16	5.444104E-18
4.685039E+03	1.386694E-16	5.434424E-18
4.694882E+03	1.391524E-16	5.423152E-18
4.704724E+03	1.395872E-16	5.410333E-18
4.714567E+03	1.399795E-16	5.396235E-18
4.724409E+03	1.403357E-16	5.381144E-18
4.734252E+03	1.406630E-16	5.365374E-18
4.744094E+03	1.409675E-16	5.349192E-18
4.753937E+03	1.412577E-16	5.332940E-18
4.763780E+03	1.415392E-16	5.316852E-18
4.773622E+03	1.418193E-16	5.301218E-18
4.783465E+03	1.421055E-16	5.286315E-18
4.793307E+03	1.424043E-16	5.272372E-18
4.803150E+03	1.427252E-16	5.259728E-18
4.812992E+03	1.430743E-16	5.248590E-18
4.822835E+03	1.434607E-16	5.239265E-18
4.832677E+03	1.438898E-16	5.231929E-18
4.842520E+03	1.443677E-16	5.226776E-18
4.852362E+03	1.449014E-16	5.224033E-18
4.862205E+03	1.454942E-16	5.223782E-18
4.872047E+03	1.461514E-16	5.226184E-18
4.881890E+03	1.468758E-16	5.231304E-18
4.891732E+03	1.476692E-16	5.239174E-18
4.901575E+03	1.485327E-16	5.249796E-18
4.911417E+03	1.494678E-16	5.263190E-18
4.921260E+03	1.504736E-16	5.279291E-18
4.931102E+03	1.515484E-16	5.298007E-18
4.940945E+03	1.526912E-16	5.319276E-18
4.950787E+03	1.538956E-16	5.342845E-18
4.960630E+03	1.551627E-16	5.368726E-18
4.970472E+03	1.564867E-16	5.396692E-18
4.980315E+03	1.578630E-16	5.426564E-18
4.990157E+03	1.592887E-16	5.458220E-18
5.000000E+03	1.607572E-16	5.491416E-18
5.009843E+03	1.622657E-16	5.526039E-18
5.019685E+03	1.638096E-16	5.561915E-18
5.029528E+03	1.653865E-16	5.598950E-18
5.039370E+03	1.669910E-16	5.636945E-18
5.049213E+03	1.686212E-16	5.675827E-18
5.059055E+03	1.702726E-16	5.715432E-18
5.068898E+03	1.719443E-16	5.755719E-18
5.078740E+03	1.736341E-16	5.796606E-18
5.088583E+03	1.753402E-16	5.838020E-18
5.098425E+03	1.770628E-16	5.879962E-18
5.108268E+03	1.787967E-16	5.922249E-18
5.118110E+03	1.805442E-16	5.964950E-18
5.127953E+03	1.823000E-16	6.007878E-18
5.137795E+03	1.840659E-16	6.051088E-18
5.147638E+03	1.858397E-16	6.094501E-18
5.157480E+03	1.876151E-16	6.137901E-18
5.167323E+03	1.893926E-16	6.181297E-18
5.177165E+03	1.911662E-16	6.224490E-18
5.187008E+03	1.929312E-16	6.267323E-18
5.196850E+03	1.946838E-16	6.309668E-18
5.206693E+03	1.964136E-16	6.351186E-18
5.216535E+03	1.981151E-16	6.391698E-18
5.226378E+03	1.997818E-16	6.430995E-18
5.236220E+03	2.013981E-16	6.468582E-18
5.246063E+03	2.029601E-16	6.504334E-18
5.255906E+03	2.044526E-16	6.537775E-18
5.265748E+03	2.058663E-16	6.568613E-18
5.275591E+03	2.071894E-16	6.596489E-18
5.285433E+03	2.084065E-16	6.620923E-18
5.295276E+03	2.095115E-16	6.641742E-18
5.305118E+03	2.104973E-16	6.658729E-18
5.314961E+03	2.113539E-16	6.671588E-18
5.324803E+03	2.120827E-16	6.680375E-18
5.334646E+03	2.126751E-16	6.684831E-18
5.344488E+03	2.131290E-16	6.684902E-18
5.354331E+03	2.134423E-16	6.680544E-18
5.364173E+03	2.136134E-16	6.671718E-18
5.374016E+03	2.136406E-16	6.658389E-18
5.383858E+03	2.135227E-16	6.640535E-18
5.393701E+03	2.132627E-16	6.618271E-18
5.403543E+03	2.128580E-16	6.591531E-18
5.413386E+03	2.123102E-16	6.560391E-18
5.423228E+03	2.116114E-16	6.524620E-18
5.433071E+03	2.107648E-16	6.484341E-18
5.442913E+03	2.097617E-16	6.439313E-18
5.452756E+03	2.086033E-16	6.389595E-18
5.462598E+03	2.072919E-16	6.335285E-18
5.472441E+03	2.058248E-16	6.276330E-18
5.482283E+03	2.042094E-16	6.212982E-18
5.492126E+03	2.024527E-16	6.145480E-18
5.501969E+03	2.005631E-16	6.074109E-18
5.511811E+03	1.985470E-16	5.999092E-18
5.521654E+03	1.964206E-16	5.920938E-18
5.531496E+03	1.941956E-16	5.840029E-18
5.541339E+03	1.918893E-16	5.756905E-18
5.551181E+03	1.895166E-16	5.672034E-18
5.561024E+03	1.870974E-16	5.586027E-18
5.570866E+03	1.846488E-16	5.499407E-18
5.580709E+03	1.821922E-16	5.412824E-18
5.590551E+03	1.797459E-16	5.326823E-18
5.600394E+03	1.773333E-16	5.242103E-18
5.610236E+03	1.749706E-16	5.159142E-18
5.620079E+03	1.726805E-16	5.078596E-18
5.629921E+03	1.704775E-16	5.000888E-18
5.639764E+03	1.683820E-16	4.926600E-18
5.649606E+03	1.664077E-16	4.856113E-18
5.659449E+03	1.645701E-16	4.789860E-18
5.669291E+03	1.628794E-16	4.728112E-18
5.679134E+03	1.613456E-16	4.671132E-18
5.688976E+03	1.599780E-16	4.619162E-18
5.698819E+03	1.587807E-16	4.572288E-18
5.708661E+03	1.577584E-16	4.530618E-18
5.718504E+03	1.569124E-16	4.494153E-18
5.728346E+03	1.562399E-16	4.462781E-18
5.738189E+03	1.557388E-16	4.436417E-18
5.748031E+03	1.554036E-16	4.414869E-18
5.757874E+03	1.552249E-16	4.397846E-18
5.767717E+03	1.551928E-16	4.385040E-18
5.777559E+03	1.552984E-16	4.376184E-18
5.787402E+03	1.555252E-16	4.370788E-18
5.797244E+03	1.558578E-16	4.368411E-18
5.807087E+03	1.562810E-16	4.368617E-18
5.816929E+03	1.567756E-16	4.370865E-18
5.826772E+03	1.573245E-16	4.374678E-18
5.836614E+03	1.579055E-16	4.379447E-18
5.846457E+03	1.585025E-16	4.384737E-18
5.856299E+03	1.590953E-16	4.390003E-18
5.866142E+03	1.596658E-16	4.394768E-18
5.875984E+03	1.601959E-16	4.398556E-18
5.885827E+03	1.606721E-16	4.401027E-18
5.895669E+03	1.610800E-16	4.401820E-18
5.905512E+03	1.614110E-16	4.400729E-18
5.915354E+03	1.616546E-16	4.397507E-18
5.925197E+03	1.618081E-16	4.392117E-18
5.935039E+03	1.618688E-16	4.384522E-18
5.944882E+03	1.618394E-16	4.374829E-18
5.954724E+03	1.617237E-16	4.363178E-18
5.964567E+03	1.615326E-16	4.349891E-18
5.974409E+03	1.612759E-16	4.335267E-18
5.984252E+03	1.609666E-16	4.319680E-18
5.994094E+03	1.606214E-16	4.303600E-18
6.003937E+03	1.602569E-16	4.287497E-18
6.013780E+03	1.598929E-16	4.271916E-18
6.023622E+03	1.595495E-16	4.257413E-18
6.033465E+03	1.592440E-16	4.244461E-18
6.043307E+03	1.589979E-16	4.233649E-18
6.053150E+03	1.588301E-16	4.225491E-18
6.062992E+03	1.587549E-16	4.220374E-18
6.072835E+03	1.587883E-16	4.218743E-18
6.082677E+03	1.589425E-16	4.220933E-18
6.092520E+03	1.592236E-16	4.227117E-18
6.102362E+03	1.596380E-16	4.237479E-18
6.112205E+03	1.601824E-16	4.251940E-18
6.122047E+03	1.608464E-16	4.270230E-18
6.131890E+03	1.616156E-16	4.291951E-18
6.141732E+03	1.624753E-16	4.316705E-18
6.151575E+03	1.634126E-16	4.344140E-18
6.161417E+03	1.644188E-16	4.374012E-18
6.171260E+03	1.654860E-16	4.406101E-18
6.181102E+03	1.666071E-16	4.440213E-18
6.190945E+03	1.677747E-16	4.476141E-18
6.200787E+03	1.689767E-16	4.513545E-18
6.210630E+03	1.702034E-16	4.552161E-18
6.220472E+03	1.714408E-16	4.591598E-18
6.230315E+03	1.726795E-16	4.631591E-18
6.240157E+03	1.739044E-16	4.671719E-18
6.250000E+03	1.751021E-16	4.711602E-18
6.259843E+03	1.762593E-16	4.750860E-18
6.269685E+03	1.773650E-16	4.789169E-18
6.279528E+03	1.784033E-16	4.826077E-18
6.289370E+03	1.793665E-16	4.861341E-18
6.299213E+03	1.802428E-16	4.894611E-18
6.309055E+03	1.810230E-16	4.925605E-18
6.318898E+03	1.817000E-16	4.954085E-18
6.328740E+03	1.822658E-16	4.979797E-18
6.338583E+03	1.827159E-16	5.002576E-18
6.348425E+03	1.830472E-16	5.022298E-18
6.358268E+03	1.832583E-16	5.038879E-18
6.368110E+03	1.833490E-16	5.052267E-18
6.377953E+03	1.833181E-16	5.062392E-18
6.387795E+03	1.831677E-16	5.069263E-18
6.397638E+03	1.828987E-16	5.072863E-18
6.407480E+03	1.825183E-16	5.073354E-18
6.417323E+03	1.820305E-16	5.070804E-18
6.427165E+03	1.814358E-16	5.065189E-18
6.437008E+03	1.807444E-16	5.056758E-18
6.446850E+03	1.799590E-16	5.045548E-18
6.456693E+03	1.790875E-16	5.031755E-18
6.466535E+03	1.781325E-16	5.015413E-18
6.476378E+03	1.770997E-16	4.996659E-18
6.486220E+03	1.759946E-16	4.975620E-18
6.496063E+03	1.748205E-16	4.952365E-18
6.505906E+03	1.735821E-16	4.927003E-18
6.515748E+03	1.722819E-16	4.899587E-18
6.525591E+03	1.709240E-16	4.870214E-18
6.535433E+03	1.695103E-16	4.838919E-18
6.545276E+03	1.680442E-16	4.805787E-18
6.555118E+03	1.665255E-16	4.770798E-18
6.564961E+03	1.649592E-16	4.734078E-18
6.574803E+03	1.633449E-16	4.695613E-18
6.584646E+03	1.616860E-16	4.655484E-18
6.594488E+03	1.599860E-16	4.613790E-18
6.604331E+03	1.582432E-16	4.570475E-18
6.614173E+03	1.564657E-16	4.525767E-18
6.624016E+03	1.546525E-16	4.479635E-18
6.633858E+03	1.528092E-16	4.432238E-18
6.643701E+03	1.509414E-16	4.383740E-18
6.653543E+03	1.490522E-16	4.334236E-18
6.663386E+03	1.471471E-16	4.283882E-18
6.673228E+03	1.452341E-16	4.232920E-18
6.683071E+03	1.433216E-16	4.181601E-18
6.692913E+03	1.414137E-16	4.130052E-18
6.702756E+03	1.395205E-16	4.078573E-18
6.712598E+03	1.376521E-16	4.027471E-18
6.722441E+03	1.358160E-16	3.976976E-18
6.732283E+03	1.340217E-16	3.927378E-18
6.742126E+03	1.322803E-16	3.879014E-18
6.751969E+03	1.306000E-16	3.832137E-18
6.761811E+03	1.289938E-16	3.787140E-18
6.771654E+03	1.274665E-16	3.744178E-18
6.781496E+03	1.260321E-16	3.703677E-18
6.791339E+03	1.246982E-16	3.665867E-18
6.801181E+03	1.234718E-16	3.630970E-18
6.811024E+03	1.223626E-16	3.599283E-18
6.820866E+03	1.213779E-16	3.571031E-18
6.830709E+03	1.205261E-16	3.546470E-18
6.840551E+03	1.198105E-16	3.525705E-18
6.850394E+03	1.192377E-16	3.508942E-18
6.860236E+03	1.188126E-16	3.496326E-18
6.870079E+03	1.185387E-16	3.487969E-18
6.879921E+03	1.184191E-16	3.483965E-18
6.889764E+03	1.184542E-16	3.484333E-18
6.899606E+03	1.186483E-16	3.489196E-18
6.909449E+03	1.189999E-16	3.498513E-18
6.919291E+03	1.195070E-16	3.512225E-18
6.929134E+03	1.201694E-16	3.530324E-18
6.938976E+03	1.209846E-16	3.552734E-18
6.948819E+03	1.219489E-16	3.579347E-18
6.958661E+03	1.230580E-16	3.610031E-18
6.968504E+03	1.243050E-16	3.644583E-18
6.978346E+03	1.256837E-16	3.682813E-18
6.988189E+03	1.271887E-16	3.724566E-18
6.998031E+03	1.288122E-16	3.769606E-18
7.007874E+03	1.305425E-16	3.817591E-18
7.017717E+03	1.323739E-16	3.868351E-18
7.027559E+03	1.342953E-16	3.921560E-18
7.037402E+03	1.362963E-16	3.976919E-18
7.047244E+03	1.383670E-16	4.034134E-18
7.057087E+03	1.404964E-16	4.092894E-18
7.066929E+03	1.426737E-16	4.152890E-18
7.076772E+03	1.448862E-16	4.213752E-18
7.086614E+03	1.471225E-16	4.275163E-18
7.096457E+03	1.493732E-16	4.336859E-18
7.106299E+03	1.516268E-16	4.398518E-18
7.116142E+03	1.538680E-16	4.459712E-18
7.125984E+03	1.560868E-16	4.520164E-18
7.135827E+03	1.582709E-16	4.579542E-18
7.145669E+03	1.604083E-16	4.637513E-18
7.155512E+03	1.624838E-16	4.693669E-18
7.165354E+03	1.644843E-16	4.747649E-18
7.175197E+03	1.663979E-16	4.799141E-18
7.185039E+03	1.682062E-16	4.847642E-18
7.194882E+03	1.698965E-16	4.892813E-18
7.204724E+03	1.714534E-16	4.934248E-18
7.214567E+03	1.728568E-16	4.971397E-18
7.224409E+03	1.740950E-16	5.003957E-18
7.234252E+03	1.751475E-16	5.031376E-18
7.244094E+03	1.759982E-16	5.053224E-18
7.253937E+03	1.766292E-16	5.069019E-18
7.263780E+03	1.770277E-16	5.078430E-18
7.273622E+03	1.771751E-16	5.080952E-18
7.283465E+03	1.770567E-16	5.076194E-18
7.293307E+03	1.766635E-16	5.063927E-18
7.303150E+03	1.759824E-16	5.043797E-18
7.312992E+03	1.750048E-16	5.015576E-18
7.322835E+03	1.737269E-16	4.979171E-18
7.332677E+03	1.721501E-16	4.934635E-18
7.342520E+03	1.702792E-16	4.882106E-18
7.352362E+03	1.681193E-16	4.821734E-18
7.362205E+03	1.656813E-16	4.753819E-18
7.372047E+03	1.629770E-16	4.678684E-18
7.381890E+03	1.600237E-16	4.596791E-18
7.391732E+03	1.568381E-16	4.508573E-18
7.401575E+03	1.534464E-16	4.414740E-18
7.411417E+03	1.498733E-16	4.315954E-18
7.421260E+03	1.461551E-16	4.213215E-18
7.431102E+03	1.423414E-16	4.107903E-18
7.440945E+03	1.384909E-16	4.001672E-18
7.450787E+03	1.346561E-16	3.895986E-18
7.460630E+03	1.308919E-16	3.792399E-18
7.470472E+03	1.272426E-16	3.692159E-18
7.480315E+03	1.237498E-16	3.596444E-18
7.490157E+03	1.204465E-16	3.506199E-18
7.500000E+03	1.173596E-16	3.422200E-18
7.509843E+03	1.145078E-16	3.344991E-18
7.519685E+03	1.119078E-16	3.275069E-18
7.529528E+03	1.095637E-16	3.212564E-18
7.539370E+03	1.074748E-16	3.157472E-18
7.549213E+03	1.056316E-16	3.109537E-18
7.559055E+03	1.040276E-16	3.068588E-18
7.568898E+03	1.026518E-16	3.034323E-18
7.578740E+03	1.014905E-16	3.006366E-18
7.588583E+03	1.005326E-16	2.984404E-18
7.598425E+03	9.976365E-17	2.968038E-18
7.608268E+03	9.917178E-17	2.956934E-18
7.618110E+03	9.874237E-17	2.950678E-18
7.627953E+03	9.846353E-17	2.948934E-18
7.637795E+03	9.832192E-17	2.951321E-18
