#wls	flux	fluxerr
1.574803E+03	9.298045E-18	1.178068E-18
1.614173E+03	9.308429E-18	1.175317E-18
1.653543E+03	9.301842E-18	1.170303E-18
1.692913E+03	9.276512E-18	1.162825E-18
1.732283E+03	9.233746E-18	1.153069E-18
1.771654E+03	9.172707E-18	1.140955E-18
1.811024E+03	9.086900E-18	1.125706E-18
1.850394E+03	8.972283E-18	1.106861E-18
1.889764E+03	8.822684E-18	1.083708E-18
1.929134E+03	8.633205E-18	1.055709E-18
1.968504E+03	8.403695E-18	1.022917E-18
2.007874E+03	8.144442E-18	9.866528E-19
2.047244E+03	7.885128E-18	9.505561E-19
2.086614E+03	7.666845E-18	9.195654E-19
2.125984E+03	7.542471E-18	8.999230E-19
2.165354E+03	7.545436E-18	8.954232E-19
2.204724E+03	7.680217E-18	9.063461E-19
2.244094E+03	7.921641E-18	9.294672E-19
2.283465E+03	8.228853E-18	9.597895E-19
2.322835E+03	8.568952E-18	9.933421E-19
2.362205E+03	8.916504E-18	1.027104E-18
2.401575E+03	9.260510E-18	1.059777E-18
2.440945E+03	9.598254E-18	1.091039E-18
2.480315E+03	9.930276E-18	1.120943E-18
2.519685E+03	1.026097E-17	1.149971E-18
2.559055E+03	1.059568E-17	1.178699E-18
2.598425E+03	1.093993E-17	1.207705E-18
2.637795E+03	1.129751E-17	1.237353E-18
2.677165E+03	1.167526E-17	1.268327E-18
2.716535E+03	1.207819E-17	1.301086E-18
2.755906E+03	1.251115E-17	1.336048E-18
2.795276E+03	1.297887E-17	1.373601E-18
2.834646E+03	1.348781E-17	1.414289E-18
2.874016E+03	1.404456E-17	1.458638E-18
2.913386E+03	1.465769E-17	1.507344E-18
2.952756E+03	1.533068E-17	1.560548E-18
2.962598E+03	1.550900E-17	1.574597E-18
2.972441E+03	1.569418E-17	1.589224E-18
2.982283E+03	1.588088E-17	1.603883E-18
2.992126E+03	1.607461E-17	1.619128E-18
3.001969E+03	1.627378E-17	1.634792E-18
3.011811E+03	1.647677E-17	1.650706E-18
3.021654E+03	1.668544E-17	1.667054E-18
3.031496E+03	1.690216E-17	1.684067E-18
3.041339E+03	1.712201E-17	1.701246E-18
3.051181E+03	1.734891E-17	1.718977E-18
3.061024E+03	1.758463E-17	1.737430E-18
3.070866E+03	1.782542E-17	1.756224E-18
3.080709E+03	1.807495E-17	1.775715E-18
3.090551E+03	1.833321E-17	1.795895E-18
3.100394E+03	1.859644E-17	1.816386E-18
3.110236E+03	1.886838E-17	1.837549E-18
3.120079E+03	1.914717E-17	1.859193E-18
3.129921E+03	1.943473E-17	1.881498E-18
3.139764E+03	1.973111E-17	1.904460E-18
3.149606E+03	2.003444E-17	1.927888E-18
3.159449E+03	2.034671E-17	1.951967E-18
3.169291E+03	2.066797E-17	1.976694E-18
3.179134E+03	2.099833E-17	2.002068E-18
3.188976E+03	2.133593E-17	2.027903E-18
3.198819E+03	2.168477E-17	2.054571E-18
3.208661E+03	2.204105E-17	2.081700E-18
3.218504E+03	2.240883E-17	2.109665E-18
3.228346E+03	2.278627E-17	2.138281E-18
3.238189E+03	2.317351E-17	2.167551E-18
3.248031E+03	2.357270E-17	2.197665E-18
3.257874E+03	2.398200E-17	2.228438E-18
3.267717E+03	2.440360E-17	2.260063E-18
3.277559E+03	2.483769E-17	2.292544E-18
3.287402E+03	2.528241E-17	2.325697E-18
3.297244E+03	2.574001E-17	2.359714E-18
3.307087E+03	2.621069E-17	2.394602E-18
3.316929E+03	2.669465E-17	2.430364E-18
3.326772E+03	2.719211E-17	2.467005E-18
3.336614E+03	2.770540E-17	2.504721E-18
3.346457E+03	2.823266E-17	2.543326E-18
3.356299E+03	2.877410E-17	2.582825E-18
3.366142E+03	2.933209E-17	2.623412E-18
3.375984E+03	2.990473E-17	2.664901E-18
3.385827E+03	3.049441E-17	2.707487E-18
3.395669E+03	3.110136E-17	2.751171E-18
3.405512E+03	3.172585E-17	2.795957E-18
3.415354E+03	3.236810E-17	2.841846E-18
3.425197E+03	3.303056E-17	2.889031E-18
3.435039E+03	3.370908E-17	2.937127E-18
3.444882E+03	3.440827E-17	2.986516E-18
3.454724E+03	3.512838E-17	3.037197E-18
3.464567E+03	3.586740E-17	3.088971E-18
3.474409E+03	3.663002E-17	3.142219E-18
3.484252E+03	3.741193E-17	3.196547E-18
3.494094E+03	3.821557E-17	3.252138E-18
3.503937E+03	3.904336E-17	3.309174E-18
3.513780E+03	3.989089E-17	3.367252E-18
3.523622E+03	4.076515E-17	3.426937E-18
3.533465E+03	4.166163E-17	3.487822E-18
3.543307E+03	4.258272E-17	3.550079E-18
3.553150E+03	4.352610E-17	3.613485E-18
3.562992E+03	4.449646E-17	3.678402E-18
3.572835E+03	4.549140E-17	3.744601E-18
3.582677E+03	4.651084E-17	3.812045E-18
3.592520E+03	4.755462E-17	3.880691E-18
3.602362E+03	4.862738E-17	3.950887E-18
3.612205E+03	4.972405E-17	4.022188E-18
3.622047E+03	5.084430E-17	4.094540E-18
3.631890E+03	5.199265E-17	4.168273E-18
3.641732E+03	5.316622E-17	4.243125E-18
3.651575E+03	5.436449E-17	4.319023E-18
3.661417E+03	5.558934E-17	4.396085E-18
3.671260E+03	5.683760E-17	4.474030E-18
3.681102E+03	5.811102E-17	4.552963E-18
3.690945E+03	5.940621E-17	4.632590E-18
3.700787E+03	6.072723E-17	4.713198E-18
3.710630E+03	6.207052E-17	4.794479E-18
3.720472E+03	6.343234E-17	4.876118E-18
3.730315E+03	6.481650E-17	4.958382E-18
3.740157E+03	6.622157E-17	5.041132E-18
3.750000E+03	6.764353E-17	5.124039E-18
3.759843E+03	6.908067E-17	5.206949E-18
3.769685E+03	7.053628E-17	5.290090E-18
3.779528E+03	7.200342E-17	5.372918E-18
3.789370E+03	7.347997E-17	5.455261E-18
3.799213E+03	7.496891E-17	5.537325E-18
3.809055E+03	7.646530E-17	5.618729E-18
3.818898E+03	7.796671E-17	5.699284E-18
3.828740E+03	7.947050E-17	5.778791E-18
3.838583E+03	8.097394E-17	5.857045E-18
3.848425E+03	8.247406E-17	5.933831E-18
3.858268E+03	8.396785E-17	6.008936E-18
3.868110E+03	8.545481E-17	6.082329E-18
3.877953E+03	8.692638E-17	6.153410E-18
3.887795E+03	8.838442E-17	6.222326E-18
3.897638E+03	8.982268E-17	6.288655E-18
3.907480E+03	9.123769E-17	6.352175E-18
3.917323E+03	9.262311E-17	6.412476E-18
3.927165E+03	9.398047E-17	6.469697E-18
3.937008E+03	9.530079E-17	6.523254E-18
3.946850E+03	9.658308E-17	6.573124E-18
3.956693E+03	9.782104E-17	6.618926E-18
3.966535E+03	9.901384E-17	6.660658E-18
3.976378E+03	1.001555E-16	6.697973E-18
3.986220E+03	1.012430E-16	6.730732E-18
3.996063E+03	1.022710E-16	6.758649E-18
4.005906E+03	1.032397E-16	6.781804E-18
4.015748E+03	1.041420E-16	6.799813E-18
4.025591E+03	1.049813E-16	6.812976E-18
4.035433E+03	1.057542E-16	6.821149E-18
4.045276E+03	1.064554E-16	6.824077E-18
4.055118E+03	1.070874E-16	6.822011E-18
4.064961E+03	1.076512E-16	6.815094E-18
4.074803E+03	1.081460E-16	6.803357E-18
4.084646E+03	1.085737E-16	6.787020E-18
4.094488E+03	1.089351E-16	6.766203E-18
4.104331E+03	1.092313E-16	6.741067E-18
4.114173E+03	1.094687E-16	6.712083E-18
4.124016E+03	1.096499E-16	6.679480E-18
4.133858E+03	1.097777E-16	6.643510E-18
4.143701E+03	1.098579E-16	6.604583E-18
4.153543E+03	1.098945E-16	6.563001E-18
4.163386E+03	1.098940E-16	6.519203E-18
4.173228E+03	1.098609E-16	6.473516E-18
4.183071E+03	1.098021E-16	6.426380E-18
4.192913E+03	1.097227E-16	6.378130E-18
4.202756E+03	1.096279E-16	6.329093E-18
4.212598E+03	1.095267E-16	6.279810E-18
4.222441E+03	1.094241E-16	6.230588E-18
4.232283E+03	1.093253E-16	6.181717E-18
4.242126E+03	1.092354E-16	6.133490E-18
4.251969E+03	1.091627E-16	6.086367E-18
4.261811E+03	1.091118E-16	6.040592E-18
4.271654E+03	1.090874E-16	5.996390E-18
4.281496E+03	1.090968E-16	5.954155E-18
4.291339E+03	1.091425E-16	5.913972E-18
4.301181E+03	1.092314E-16	5.876187E-18
4.311024E+03	1.093669E-16	5.840936E-18
4.320866E+03	1.095535E-16	5.808415E-18
4.330709E+03	1.097956E-16	5.778801E-18
4.340551E+03	1.100956E-16	5.752159E-18
4.350394E+03	1.104598E-16	5.728765E-18
4.360236E+03	1.108877E-16	5.708529E-18
4.370079E+03	1.113812E-16	5.691481E-18
4.379921E+03	1.119430E-16	5.677698E-18
4.389764E+03	1.125706E-16	5.666985E-18
4.399606E+03	1.132656E-16	5.659364E-18
4.409449E+03	1.140261E-16	5.654671E-18
4.419291E+03	1.148511E-16	5.652793E-18
4.429134E+03	1.157358E-16	5.653445E-18
4.438976E+03	1.166798E-16	5.656541E-18
4.448819E+03	1.176801E-16	5.661892E-18
4.458661E+03	1.187304E-16	5.669147E-18
4.468504E+03	1.198266E-16	5.678069E-18
4.478346E+03	1.209656E-16	5.688479E-18
4.488189E+03	1.221390E-16	5.699954E-18
4.498031E+03	1.233425E-16	5.712276E-18
4.507874E+03	1.245696E-16	5.725130E-18
4.517717E+03	1.258105E-16	5.738061E-18
4.527559E+03	1.270609E-16	5.750879E-18
4.537402E+03	1.283103E-16	5.763122E-18
4.547244E+03	1.295524E-16	5.774531E-18
4.557087E+03	1.307798E-16	5.784802E-18
4.566929E+03	1.319849E-16	5.793642E-18
4.576772E+03	1.331606E-16	5.800786E-18
4.586614E+03	1.342988E-16	5.805932E-18
4.596457E+03	1.353968E-16	5.809020E-18
4.606299E+03	1.364464E-16	5.809767E-18
4.616142E+03	1.374467E-16	5.808204E-18
4.625984E+03	1.383917E-16	5.804143E-18
4.635827E+03	1.392810E-16	5.797650E-18
4.645669E+03	1.401144E-16	5.788782E-18
4.655512E+03	1.408890E-16	5.777501E-18
4.665354E+03	1.416068E-16	5.763961E-18
4.675197E+03	1.422687E-16	5.748272E-18
4.685039E+03	1.428768E-16	5.730585E-18
4.694882E+03	1.434314E-16	5.710984E-18
4.704724E+03	1.439371E-16	5.689717E-18
4.714567E+03	1.443944E-16	5.666869E-18
4.724409E+03	1.448162E-16	5.642993E-18
4.734252E+03	1.452079E-16	5.618356E-18
4.744094E+03	1.455809E-16	5.593436E-18
4.753937E+03	1.459458E-16	5.568670E-18
4.763780E+03	1.463167E-16	5.544618E-18
4.773622E+03	1.466998E-16	5.521528E-18
4.783465E+03	1.471093E-16	5.499930E-18
4.793307E+03	1.475530E-16	5.480112E-18
4.803150E+03	1.480396E-16	5.462379E-18
4.812992E+03	1.485752E-16	5.446937E-18
4.822835E+03	1.491670E-16	5.434021E-18
4.832677E+03	1.498179E-16	5.423722E-18
4.842520E+03	1.505352E-16	5.416268E-18
4.852362E+03	1.513221E-16	5.411747E-18
4.862205E+03	1.521807E-16	5.410206E-18
4.872047E+03	1.531122E-16	5.411658E-18
4.881890E+03	1.541168E-16	5.416062E-18
4.891732E+03	1.551951E-16	5.423382E-18
4.901575E+03	1.563448E-16	5.433492E-18
4.911417E+03	1.575641E-16	5.446280E-18
4.921260E+03	1.588455E-16	5.461434E-18
4.931102E+03	1.601882E-16	5.478890E-18
4.940945E+03	1.615827E-16	5.498274E-18
4.950787E+03	1.630214E-16	5.519303E-18
4.960630E+03	1.645018E-16	5.541850E-18
4.970472E+03	1.660105E-16	5.565439E-18
4.980315E+03	1.675426E-16	5.589881E-18
4.990157E+03	1.690884E-16	5.614828E-18
5.000000E+03	1.706420E-16	5.640065E-18
5.009843E+03	1.721966E-16	5.665353E-18
5.019685E+03	1.737463E-16	5.690486E-18
5.029528E+03	1.752867E-16	5.715303E-18
5.039370E+03	1.768146E-16	5.739690E-18
5.049213E+03	1.783300E-16	5.763635E-18
5.059055E+03	1.798309E-16	5.787063E-18
5.068898E+03	1.813183E-16	5.809991E-18
5.078740E+03	1.827963E-16	5.832536E-18
5.088583E+03	1.842679E-16	5.854782E-18
5.098425E+03	1.857353E-16	5.876775E-18
5.108268E+03	1.872062E-16	5.898746E-18
5.118110E+03	1.886813E-16	5.920690E-18
5.127953E+03	1.901664E-16	5.942770E-18
5.137795E+03	1.916670E-16	5.965129E-18
5.147638E+03	1.931838E-16	5.987766E-18
5.157480E+03	1.947188E-16	6.010711E-18
5.167323E+03	1.962724E-16	6.033951E-18
5.177165E+03	1.978481E-16	6.057563E-18
5.187008E+03	1.994377E-16	6.081268E-18
5.196850E+03	2.010436E-16	6.105116E-18
5.206693E+03	2.026569E-16	6.128805E-18
5.216535E+03	2.042750E-16	6.152240E-18
5.226378E+03	2.058861E-16	6.175037E-18
5.236220E+03	2.074848E-16	6.197024E-18
5.246063E+03	2.090609E-16	6.217877E-18
5.255906E+03	2.106011E-16	6.237191E-18
5.265748E+03	2.120952E-16	6.254662E-18
5.275591E+03	2.135312E-16	6.269933E-18
5.285433E+03	2.148988E-16	6.282708E-18
5.295276E+03	2.161846E-16	6.292601E-18
5.305118E+03	2.173807E-16	6.299399E-18
5.314961E+03	2.184801E-16	6.302914E-18
5.324803E+03	2.194700E-16	6.302789E-18
5.334646E+03	2.203457E-16	6.298912E-18
5.344488E+03	2.210987E-16	6.291054E-18
5.354331E+03	2.217183E-16	6.278938E-18
5.364173E+03	2.222006E-16	6.262487E-18
5.374016E+03	2.225357E-16	6.241453E-18
5.383858E+03	2.227161E-16	6.215666E-18
5.393701E+03	2.227370E-16	6.185038E-18
5.403543E+03	2.225916E-16	6.149432E-18
5.413386E+03	2.222718E-16	6.108678E-18
5.423228E+03	2.217718E-16	6.062685E-18
5.433071E+03	2.210893E-16	6.011452E-18
5.442913E+03	2.202206E-16	5.954950E-18
5.452756E+03	2.191605E-16	5.893124E-18
5.462598E+03	2.179078E-16	5.826018E-18
5.472441E+03	2.164626E-16	5.753723E-18
5.482283E+03	2.148270E-16	5.676389E-18
5.492126E+03	2.130049E-16	5.594213E-18
5.501969E+03	2.110008E-16	5.507407E-18
5.511811E+03	2.088237E-16	5.416301E-18
5.521654E+03	2.064873E-16	5.321348E-18
5.531496E+03	2.040020E-16	5.222909E-18
5.541339E+03	2.013852E-16	5.121519E-18
5.551181E+03	1.986591E-16	5.017823E-18
5.561024E+03	1.958439E-16	4.912409E-18
5.570866E+03	1.929646E-16	4.805967E-18
5.580709E+03	1.900476E-16	4.699211E-18
5.590551E+03	1.871186E-16	4.592818E-18
5.600394E+03	1.842063E-16	4.487521E-18
5.610236E+03	1.813394E-16	4.384029E-18
5.620079E+03	1.785478E-16	4.283068E-18
5.629921E+03	1.758554E-16	4.185191E-18
5.639764E+03	1.732882E-16	4.090984E-18
5.649606E+03	1.708719E-16	4.001008E-18
5.659449E+03	1.686268E-16	3.915674E-18
5.669291E+03	1.665718E-16	3.835351E-18
5.679134E+03	1.647252E-16	3.760371E-18
5.688976E+03	1.630970E-16	3.690866E-18
5.698819E+03	1.616974E-16	3.626966E-18
5.708661E+03	1.605364E-16	3.568787E-18
5.718504E+03	1.596127E-16	3.516185E-18
5.728346E+03	1.589294E-16	3.469115E-18
5.738189E+03	1.584827E-16	3.427384E-18
5.748031E+03	1.582624E-16	3.390663E-18
5.757874E+03	1.582590E-16	3.358649E-18
5.767717E+03	1.584598E-16	3.330979E-18
5.777559E+03	1.588436E-16	3.307132E-18
5.787402E+03	1.593889E-16	3.286594E-18
5.797244E+03	1.600743E-16	3.268879E-18
5.807087E+03	1.608675E-16	3.253300E-18
5.816929E+03	1.617415E-16	3.239309E-18
5.826772E+03	1.626643E-16	3.226280E-18
5.836614E+03	1.635992E-16	3.213528E-18
5.846457E+03	1.645154E-16	3.200512E-18
5.856299E+03	1.653775E-16	3.186632E-18
5.866142E+03	1.661510E-16	3.171335E-18
5.875984E+03	1.668089E-16	3.154233E-18
5.885827E+03	1.673218E-16	3.134921E-18
5.895669E+03	1.676663E-16	3.113119E-18
5.905512E+03	1.678236E-16	3.088649E-18
5.915354E+03	1.677805E-16	3.061442E-18
5.925197E+03	1.675295E-16	3.031541E-18
5.935039E+03	1.670710E-16	2.999124E-18
5.944882E+03	1.664067E-16	2.964387E-18
5.954724E+03	1.655528E-16	2.927768E-18
5.964567E+03	1.645225E-16	2.889640E-18
5.974409E+03	1.633410E-16	2.850565E-18
5.984252E+03	1.620312E-16	2.811045E-18
5.994094E+03	1.606278E-16	2.771760E-18
6.003937E+03	1.591602E-16	2.733281E-18
6.013780E+03	1.576675E-16	2.696324E-18
6.023622E+03	1.561818E-16	2.661467E-18
6.033465E+03	1.547419E-16	2.629387E-18
6.043307E+03	1.533812E-16	2.600657E-18
6.053150E+03	1.521350E-16	2.575877E-18
6.062992E+03	1.510351E-16	2.555586E-18
6.072835E+03	1.501066E-16	2.540188E-18
6.082677E+03	1.493768E-16	2.530069E-18
6.092520E+03	1.488657E-16	2.525492E-18
6.102362E+03	1.485927E-16	2.526719E-18
6.112205E+03	1.485569E-16	2.533682E-18
6.122047E+03	1.487440E-16	2.546093E-18
6.131890E+03	1.491272E-16	2.563458E-18
6.141732E+03	1.496817E-16	2.585321E-18
6.151575E+03	1.503810E-16	2.611195E-18
6.161417E+03	1.512008E-16	2.640627E-18
6.171260E+03	1.521210E-16	2.673238E-18
6.181102E+03	1.531181E-16	2.708577E-18
6.190945E+03	1.541757E-16	2.746313E-18
6.200787E+03	1.552701E-16	2.785976E-18
6.210630E+03	1.563845E-16	2.827212E-18
6.220472E+03	1.575029E-16	2.869673E-18
6.230315E+03	1.586071E-16	2.912954E-18
6.240157E+03	1.596793E-16	2.956657E-18
6.250000E+03	1.607081E-16	3.000482E-18
6.259843E+03	1.616781E-16	3.044053E-18
6.269685E+03	1.625769E-16	3.087039E-18
6.279528E+03	1.633938E-16	3.129133E-18
6.289370E+03	1.641214E-16	3.170084E-18
6.299213E+03	1.647505E-16	3.209604E-18
6.309055E+03	1.652789E-16	3.247536E-18
6.318898E+03	1.656995E-16	3.283623E-18
6.328740E+03	1.660137E-16	3.317780E-18
6.338583E+03	1.662213E-16	3.349888E-18
6.348425E+03	1.663217E-16	3.379827E-18
6.358268E+03	1.663214E-16	3.407619E-18
6.368110E+03	1.662244E-16	3.433243E-18
6.377953E+03	1.660339E-16	3.456672E-18
6.387795E+03	1.657594E-16	3.478012E-18
6.397638E+03	1.654057E-16	3.497278E-18
6.407480E+03	1.649832E-16	3.514617E-18
6.417323E+03	1.644938E-16	3.529998E-18
6.427165E+03	1.639499E-16	3.543622E-18
6.437008E+03	1.633549E-16	3.555508E-18
6.446850E+03	1.627170E-16	3.565785E-18
6.456693E+03	1.620390E-16	3.574466E-18
6.466535E+03	1.613312E-16	3.581742E-18
6.476378E+03	1.605929E-16	3.587564E-18
6.486220E+03	1.598314E-16	3.592063E-18
6.496063E+03	1.590494E-16	3.595274E-18
6.505906E+03	1.582465E-16	3.597169E-18
6.515748E+03	1.574234E-16	3.597739E-18
6.525591E+03	1.565811E-16	3.596996E-18
6.535433E+03	1.557184E-16	3.594890E-18
6.545276E+03	1.548324E-16	3.591345E-18
6.555118E+03	1.539181E-16	3.586231E-18
6.564961E+03	1.529749E-16	3.579521E-18
6.574803E+03	1.519965E-16	3.571059E-18
6.584646E+03	1.509779E-16	3.560717E-18
6.594488E+03	1.499141E-16	3.548371E-18
6.604331E+03	1.488021E-16	3.533938E-18
6.614173E+03	1.476373E-16	3.517309E-18
6.624016E+03	1.464160E-16	3.498388E-18
6.633858E+03	1.451353E-16	3.477106E-18
6.643701E+03	1.437950E-16	3.453460E-18
6.653543E+03	1.423932E-16	3.427406E-18
6.663386E+03	1.409306E-16	3.398969E-18
6.673228E+03	1.394114E-16	3.368260E-18
6.683071E+03	1.378398E-16	3.335393E-18
6.692913E+03	1.362212E-16	3.300516E-18
6.702756E+03	1.345630E-16	3.263828E-18
6.712598E+03	1.328753E-16	3.225594E-18
6.722441E+03	1.311664E-16	3.186042E-18
6.732283E+03	1.294490E-16	3.145505E-18
6.742126E+03	1.277333E-16	3.104261E-18
6.751969E+03	1.260337E-16	3.062686E-18
6.761811E+03	1.243630E-16	3.021123E-18
6.771654E+03	1.227347E-16	2.979924E-18
6.781496E+03	1.211621E-16	2.939442E-18
6.791339E+03	1.196597E-16	2.900052E-18
6.801181E+03	1.182376E-16	2.862019E-18
6.811024E+03	1.169106E-16	2.825725E-18
6.820866E+03	1.156889E-16	2.791428E-18
6.830709E+03	1.145845E-16	2.759428E-18
6.840551E+03	1.136057E-16	2.729929E-18
6.850394E+03	1.127624E-16	2.703173E-18
6.860236E+03	1.120606E-16	2.679297E-18
6.870079E+03	1.115078E-16	2.658471E-18
6.879921E+03	1.111088E-16	2.640792E-18
6.889764E+03	1.108656E-16	2.626289E-18
6.899606E+03	1.107800E-16	2.614980E-18
6.909449E+03	1.108553E-16	2.606907E-18
6.919291E+03	1.110874E-16	2.601943E-18
6.929134E+03	1.114749E-16	2.600018E-18
6.938976E+03	1.120122E-16	2.600957E-18
6.948819E+03	1.126947E-16	2.604613E-18
6.958661E+03	1.135137E-16	2.610740E-18
6.968504E+03	1.144619E-16	2.619128E-18
6.978346E+03	1.155294E-16	2.629504E-18
6.988189E+03	1.167040E-16	2.641549E-18
6.998031E+03	1.179751E-16	2.654989E-18
7.007874E+03	1.193292E-16	2.669479E-18
7.017717E+03	1.207534E-16	2.684706E-18
7.027559E+03	1.222367E-16	2.700400E-18
7.037402E+03	1.237650E-16	2.716230E-18
7.047244E+03	1.253262E-16	2.731920E-18
7.057087E+03	1.269107E-16	2.747251E-18
7.066929E+03	1.285043E-16	2.761923E-18
7.076772E+03	1.301007E-16	2.775809E-18
7.086614E+03	1.316893E-16	2.788698E-18
7.096457E+03	1.332624E-16	2.800449E-18
7.106299E+03	1.348125E-16	2.810939E-18
7.116142E+03	1.363334E-16	2.820073E-18
7.125984E+03	1.378173E-16	2.827736E-18
7.135827E+03	1.392620E-16	2.833935E-18
7.145669E+03	1.406602E-16	2.838576E-18
7.155512E+03	1.420060E-16	2.841607E-18
7.165354E+03	1.432930E-16	2.842973E-18
7.175197E+03	1.445143E-16	2.842615E-18
7.185039E+03	1.456620E-16	2.840465E-18
7.194882E+03	1.467271E-16	2.836445E-18
7.204724E+03	1.476997E-16	2.830463E-18
7.214567E+03	1.485703E-16	2.822456E-18
7.224409E+03	1.493266E-16	2.812306E-18
7.234252E+03	1.499553E-16	2.799895E-18
7.244094E+03	1.504422E-16	2.785093E-18
7.253937E+03	1.507743E-16	2.767809E-18
7.263780E+03	1.509366E-16	2.747917E-18
7.273622E+03	1.509158E-16	2.725337E-18
7.283465E+03	1.506975E-16	2.699968E-18
7.293307E+03	1.502680E-16	2.671730E-18
7.303150E+03	1.496191E-16	2.640639E-18
7.312992E+03	1.487385E-16	2.606638E-18
7.322835E+03	1.476162E-16	2.569706E-18
7.332677E+03	1.462472E-16	2.529903E-18
7.342520E+03	1.446278E-16	2.487299E-18
7.352362E+03	1.427603E-16	2.442049E-18
7.362205E+03	1.406488E-16	2.394324E-18
7.372047E+03	1.383023E-16	2.344356E-18
7.381890E+03	1.357365E-16	2.292461E-18
7.391732E+03	1.329720E-16	2.239016E-18
7.401575E+03	1.300305E-16	2.184389E-18
7.411417E+03	1.269461E-16	2.129133E-18
7.421260E+03	1.237509E-16	2.073739E-18
7.431102E+03	1.204860E-16	2.018834E-18
7.440945E+03	1.171971E-16	1.965100E-18
7.450787E+03	1.139259E-16	1.913123E-18
7.460630E+03	1.107190E-16	1.863517E-18
7.470472E+03	1.076144E-16	1.816761E-18
7.480315E+03	1.046524E-16	1.773387E-18
7.490157E+03	1.018634E-16	1.733781E-18
7.500000E+03	9.927704E-17	1.698339E-18
7.509843E+03	9.691621E-17	1.667370E-18
7.519685E+03	9.479656E-17	1.641081E-18
7.529528E+03	9.292360E-17	1.619531E-18
7.539370E+03	9.129167E-17	1.602599E-18
7.549213E+03	8.988904E-17	1.590075E-18
7.559055E+03	8.870554E-17	1.581784E-18
7.568898E+03	8.772523E-17	1.577453E-18
7.578740E+03	8.693708E-17	1.576906E-18
7.588583E+03	8.632526E-17	1.579877E-18
7.598425E+03	8.587923E-17	1.586200E-18
7.608268E+03	8.558513E-17	1.595648E-18
7.618110E+03	8.543097E-17	1.608026E-18
7.627953E+03	8.540595E-17	1.623157E-18
7.637795E+03	8.549745E-17	1.640829E-18
