#wls	flux	fluxerr
1.574803E+03	8.775490E-18	9.337682E-19
1.614173E+03	8.777591E-18	9.308149E-19
1.653543E+03	8.761726E-18	9.258725E-19
1.692913E+03	8.731247E-18	9.193125E-19
1.732283E+03	8.682455E-18	9.107626E-19
1.771654E+03	8.616290E-18	9.003422E-19
1.811024E+03	8.526693E-18	8.874420E-19
1.850394E+03	8.409966E-18	8.717087E-19
1.889764E+03	8.258898E-18	8.524349E-19
1.929134E+03	8.072157E-18	8.295321E-19
1.968504E+03	7.848173E-18	8.028926E-19
2.007874E+03	7.596698E-18	7.735670E-19
2.047244E+03	7.342868E-18	7.441494E-19
2.086614E+03	7.130376E-18	7.190572E-19
2.125984E+03	7.004191E-18	7.027466E-19
2.165354E+03	6.996260E-18	6.982771E-19
2.204724E+03	7.111493E-18	7.059483E-19
2.244094E+03	7.322302E-18	7.228314E-19
2.283465E+03	7.594293E-18	7.453817E-19
2.322835E+03	7.894317E-18	7.702478E-19
2.362205E+03	8.200123E-18	7.952084E-19
2.401575E+03	8.501651E-18	8.192685E-19
2.440945E+03	8.795066E-18	8.420534E-19
2.480315E+03	9.082361E-18	8.637527E-19
2.519685E+03	9.367703E-18	8.847566E-19
2.559055E+03	9.654582E-18	9.053810E-19
2.598425E+03	9.948124E-18	9.260845E-19
2.637795E+03	1.025334E-17	9.473005E-19
2.677165E+03	1.057504E-17	9.694281E-19
2.716535E+03	1.091783E-17	9.928327E-19
2.755906E+03	1.128770E-17	1.017990E-18
2.795276E+03	1.168746E-17	1.045069E-18
2.834646E+03	1.212461E-17	1.074645E-18
2.874016E+03	1.260358E-17	1.106994E-18
2.913386E+03	1.313054E-17	1.142526E-18
2.952756E+03	1.371193E-17	1.181648E-18
2.962598E+03	1.386726E-17	1.192098E-18
2.972441E+03	1.402554E-17	1.202719E-18
2.982283E+03	1.418849E-17	1.213657E-18
2.992126E+03	1.435622E-17	1.224917E-18
3.001969E+03	1.452721E-17	1.236366E-18
3.011811E+03	1.470501E-17	1.248304E-18
3.021654E+03	1.488631E-17	1.260445E-18
3.031496E+03	1.507326E-17	1.272967E-18
3.041339E+03	1.526646E-17	1.285916E-18
3.051181E+03	1.546435E-17	1.299158E-18
3.061024E+03	1.566859E-17	1.312826E-18
3.070866E+03	1.588083E-17	1.327055E-18
3.080709E+03	1.609763E-17	1.341550E-18
3.090551E+03	1.632239E-17	1.356593E-18
3.100394E+03	1.655340E-17	1.372033E-18
3.110236E+03	1.679239E-17	1.388009E-18
3.120079E+03	1.703766E-17	1.404375E-18
3.129921E+03	1.728922E-17	1.421127E-18
3.139764E+03	1.754888E-17	1.438407E-18
3.149606E+03	1.781670E-17	1.456214E-18
3.159449E+03	1.809099E-17	1.474404E-18
3.169291E+03	1.837537E-17	1.493266E-18
3.179134E+03	1.866460E-17	1.512366E-18
3.188976E+03	1.896413E-17	1.532142E-18
3.198819E+03	1.927232E-17	1.552451E-18
3.208661E+03	1.958927E-17	1.573295E-18
3.218504E+03	1.991513E-17	1.594680E-18
3.228346E+03	2.025006E-17	1.616610E-18
3.238189E+03	2.059604E-17	1.639235E-18
3.248031E+03	2.094958E-17	1.662270E-18
3.257874E+03	2.131641E-17	1.686159E-18
3.267717E+03	2.169302E-17	1.710617E-18
3.277559E+03	2.207962E-17	1.735651E-18
3.287402E+03	2.248018E-17	1.761563E-18
3.297244E+03	2.289119E-17	1.788068E-18
3.307087E+03	2.331476E-17	1.815322E-18
3.316929E+03	2.375118E-17	1.843334E-18
3.326772E+03	2.420070E-17	1.872115E-18
3.336614E+03	2.466360E-17	1.901674E-18
3.346457E+03	2.514209E-17	1.932169E-18
3.356299E+03	2.563457E-17	1.963465E-18
3.366142E+03	2.614328E-17	1.995721E-18
3.375984E+03	2.666856E-17	2.028947E-18
3.385827E+03	2.720877E-17	2.063006E-18
3.395669E+03	2.776622E-17	2.098058E-18
3.405512E+03	2.834124E-17	2.134115E-18
3.415354E+03	2.893419E-17	2.171186E-18
3.425197E+03	2.954744E-17	2.209433E-18
3.435039E+03	3.017935E-17	2.248717E-18
3.444882E+03	3.083025E-17	2.289046E-18
3.454724E+03	3.150255E-17	2.330580E-18
3.464567E+03	3.219663E-17	2.373329E-18
3.474409E+03	3.291076E-17	2.417146E-18
3.484252E+03	3.364948E-17	2.462345E-18
3.494094E+03	3.441103E-17	2.508776E-18
3.503937E+03	3.519575E-17	2.556444E-18
3.513780E+03	3.600612E-17	2.605506E-18
3.523622E+03	3.684028E-17	2.655806E-18
3.533465E+03	3.770071E-17	2.707499E-18
3.543307E+03	3.858548E-17	2.760424E-18
3.553150E+03	3.949920E-17	2.814888E-18
3.562992E+03	4.043995E-17	2.870726E-18
3.572835E+03	4.140790E-17	2.927927E-18
3.582677E+03	4.240318E-17	2.986475E-18
3.592520E+03	4.342816E-17	3.046510E-18
3.602362E+03	4.448291E-17	3.108010E-18
3.612205E+03	4.556747E-17	3.170950E-18
3.622047E+03	4.667951E-17	3.235140E-18
3.631890E+03	4.782350E-17	3.300865E-18
3.641732E+03	4.899700E-17	3.367924E-18
3.651575E+03	5.020208E-17	3.436434E-18
3.661417E+03	5.143608E-17	3.506183E-18
3.671260E+03	5.269859E-17	3.577115E-18
3.681102E+03	5.399383E-17	3.649488E-18
3.690945E+03	5.531884E-17	3.723074E-18
3.700787E+03	5.667052E-17	3.797633E-18
3.710630E+03	5.805283E-17	3.873407E-18
3.720472E+03	5.946245E-17	3.950144E-18
3.730315E+03	6.090073E-17	4.027907E-18
3.740157E+03	6.236403E-17	4.106430E-18
3.750000E+03	6.385348E-17	4.185761E-18
3.759843E+03	6.536760E-17	4.265779E-18
3.769685E+03	6.690234E-17	4.346195E-18
3.779528E+03	6.846079E-17	4.427191E-18
3.789370E+03	7.003619E-17	4.508306E-18
3.799213E+03	7.163140E-17	4.589707E-18
3.809055E+03	7.323915E-17	4.670910E-18
3.818898E+03	7.486208E-17	4.752070E-18
3.828740E+03	7.649784E-17	4.833023E-18
3.838583E+03	7.813837E-17	4.913249E-18
3.848425E+03	7.978613E-17	4.992895E-18
3.858268E+03	8.143545E-17	5.071602E-18
3.868110E+03	8.308306E-17	5.149162E-18
3.877953E+03	8.472825E-17	5.225533E-18
3.887795E+03	8.636481E-17	5.300336E-18
3.897638E+03	8.798901E-17	5.373348E-18
3.907480E+03	8.959689E-17	5.444340E-18
3.917323E+03	9.118417E-17	5.513069E-18
3.927165E+03	9.274663E-17	5.579298E-18
3.937008E+03	9.427714E-17	5.642624E-18
3.946850E+03	9.577358E-17	5.702950E-18
3.956693E+03	9.723125E-17	5.760030E-18
3.966535E+03	9.864034E-17	5.813320E-18
3.976378E+03	1.000012E-16	5.862886E-18
3.986220E+03	1.013041E-16	5.908213E-18
3.996063E+03	1.025474E-16	5.949250E-18
4.005906E+03	1.037244E-16	5.985678E-18
4.015748E+03	1.048315E-16	6.017345E-18
4.025591E+03	1.058632E-16	6.044006E-18
4.035433E+03	1.068171E-16	6.065595E-18
4.045276E+03	1.076913E-16	6.082089E-18
4.055118E+03	1.084826E-16	6.093370E-18
4.064961E+03	1.091909E-16	6.099522E-18
4.074803E+03	1.098171E-16	6.100676E-18
4.084646E+03	1.103585E-16	6.096751E-18
4.094488E+03	1.108178E-16	6.087993E-18
4.104331E+03	1.112012E-16	6.074812E-18
4.114173E+03	1.115065E-16	6.057157E-18
4.124016E+03	1.117415E-16	6.035536E-18
4.133858E+03	1.119100E-16	6.010221E-18
4.143701E+03	1.120189E-16	5.981641E-18
4.153543E+03	1.120713E-16	5.950018E-18
4.163386E+03	1.120768E-16	5.915920E-18
4.173228E+03	1.120393E-16	5.879600E-18
4.183071E+03	1.119669E-16	5.841523E-18
4.192913E+03	1.118660E-16	5.802054E-18
4.202756E+03	1.117467E-16	5.761750E-18
4.212598E+03	1.116114E-16	5.720753E-18
4.222441E+03	1.114720E-16	5.679692E-18
4.232283E+03	1.113328E-16	5.638786E-18
4.242126E+03	1.112011E-16	5.598414E-18
4.251969E+03	1.110827E-16	5.558861E-18
4.261811E+03	1.109882E-16	5.520645E-18
4.271654E+03	1.109186E-16	5.483806E-18
4.281496E+03	1.108840E-16	5.448817E-18
4.291339E+03	1.108884E-16	5.415849E-18
4.301181E+03	1.109390E-16	5.385226E-18
4.311024E+03	1.110411E-16	5.357161E-18
4.320866E+03	1.111995E-16	5.331849E-18
4.330709E+03	1.114202E-16	5.309535E-18
4.340551E+03	1.117060E-16	5.290297E-18
4.350394E+03	1.120638E-16	5.274413E-18
4.360236E+03	1.124937E-16	5.261830E-18
4.370079E+03	1.130013E-16	5.252752E-18
4.379921E+03	1.135852E-16	5.247064E-18
4.389764E+03	1.142504E-16	5.244927E-18
4.399606E+03	1.149976E-16	5.246325E-18
4.409449E+03	1.158245E-16	5.251079E-18
4.419291E+03	1.167309E-16	5.259132E-18
4.429134E+03	1.177179E-16	5.270473E-18
4.438976E+03	1.187795E-16	5.284772E-18
4.448819E+03	1.199137E-16	5.301896E-18
4.458661E+03	1.211162E-16	5.321594E-18
4.468504E+03	1.223817E-16	5.343602E-18
4.478346E+03	1.237038E-16	5.367598E-18
4.488189E+03	1.250788E-16	5.393387E-18
4.498031E+03	1.264949E-16	5.420440E-18
4.507874E+03	1.279463E-16	5.448482E-18
4.517717E+03	1.294242E-16	5.477133E-18
4.527559E+03	1.309158E-16	5.505846E-18
4.537402E+03	1.324123E-16	5.534262E-18
4.547244E+03	1.339013E-16	5.561875E-18
4.557087E+03	1.353716E-16	5.588245E-18
4.566929E+03	1.368137E-16	5.613015E-18
4.576772E+03	1.382133E-16	5.635640E-18
4.586614E+03	1.395619E-16	5.655824E-18
4.596457E+03	1.408486E-16	5.673183E-18
4.606299E+03	1.420669E-16	5.687520E-18
4.616142E+03	1.432086E-16	5.698577E-18
4.625984E+03	1.442686E-16	5.706221E-18
4.635827E+03	1.452419E-16	5.710334E-18
4.645669E+03	1.461252E-16	5.710865E-18
4.655512E+03	1.469204E-16	5.707963E-18
4.665354E+03	1.476274E-16	5.701704E-18
4.675197E+03	1.482462E-16	5.692157E-18
4.685039E+03	1.487819E-16	5.679594E-18
4.694882E+03	1.492345E-16	5.664086E-18
4.704724E+03	1.496100E-16	5.645926E-18
4.714567E+03	1.499145E-16	5.625402E-18
4.724409E+03	1.501561E-16	5.602873E-18
4.734252E+03	1.503448E-16	5.578767E-18
4.744094E+03	1.504965E-16	5.553707E-18
4.753937E+03	1.506252E-16	5.528239E-18
4.763780E+03	1.507494E-16	5.503069E-18
4.773622E+03	1.508867E-16	5.478842E-18
4.783465E+03	1.510540E-16	5.456166E-18
4.793307E+03	1.512659E-16	5.435549E-18
4.803150E+03	1.515329E-16	5.417340E-18
4.812992E+03	1.518690E-16	5.402013E-18
4.822835E+03	1.522807E-16	5.389762E-18
4.832677E+03	1.527770E-16	5.380862E-18
4.842520E+03	1.533637E-16	5.375485E-18
4.852362E+03	1.540494E-16	5.373880E-18
4.862205E+03	1.548360E-16	5.376077E-18
4.872047E+03	1.557274E-16	5.382161E-18
4.881890E+03	1.567241E-16	5.392099E-18
4.891732E+03	1.578265E-16	5.405851E-18
4.901575E+03	1.590297E-16	5.423195E-18
4.911417E+03	1.603298E-16	5.443951E-18
4.921260E+03	1.617210E-16	5.467874E-18
4.931102E+03	1.631899E-16	5.494471E-18
4.940945E+03	1.647278E-16	5.523413E-18
4.950787E+03	1.663186E-16	5.554131E-18
4.960630E+03	1.679480E-16	5.586125E-18
4.970472E+03	1.695988E-16	5.618800E-18
4.980315E+03	1.712510E-16	5.651489E-18
4.990157E+03	1.728904E-16	5.683720E-18
5.000000E+03	1.744968E-16	5.714825E-18
5.009843E+03	1.760574E-16	5.744395E-18
5.019685E+03	1.775623E-16	5.772119E-18
5.029528E+03	1.790001E-16	5.797639E-18
5.039370E+03	1.803707E-16	5.820966E-18
5.049213E+03	1.816732E-16	5.842087E-18
5.059055E+03	1.829125E-16	5.861172E-18
5.068898E+03	1.840994E-16	5.878578E-18
5.078740E+03	1.852437E-16	5.894625E-18
5.088583E+03	1.863614E-16	5.909817E-18
5.098425E+03	1.874672E-16	5.924624E-18
5.108268E+03	1.885744E-16	5.939452E-18
5.118110E+03	1.896992E-16	5.954800E-18
5.127953E+03	1.908547E-16	5.971061E-18
5.137795E+03	1.920501E-16	5.988501E-18
5.147638E+03	1.932986E-16	6.007503E-18
5.157480E+03	1.946049E-16	6.028192E-18
5.167323E+03	1.959737E-16	6.050680E-18
5.177165E+03	1.974073E-16	6.075011E-18
5.187008E+03	1.989077E-16	6.101215E-18
5.196850E+03	2.004707E-16	6.129133E-18
5.206693E+03	2.020920E-16	6.158603E-18
5.216535E+03	2.037691E-16	6.189529E-18
5.226378E+03	2.054895E-16	6.221500E-18
5.236220E+03	2.072428E-16	6.254180E-18
5.246063E+03	2.090207E-16	6.287305E-18
5.255906E+03	2.108075E-16	6.320384E-18
5.265748E+03	2.125879E-16	6.352949E-18
5.275591E+03	2.143461E-16	6.384522E-18
5.285433E+03	2.160679E-16	6.414681E-18
5.295276E+03	2.177358E-16	6.442911E-18
5.305118E+03	2.193366E-16	6.468827E-18
5.314961E+03	2.208608E-16	6.492160E-18
5.324803E+03	2.222973E-16	6.512597E-18
5.334646E+03	2.236328E-16	6.529762E-18
5.344488E+03	2.248591E-16	6.543431E-18
5.354331E+03	2.259658E-16	6.553325E-18
5.364173E+03	2.269432E-16	6.559182E-18
5.374016E+03	2.277791E-16	6.560681E-18
5.383858E+03	2.284666E-16	6.557657E-18
5.393701E+03	2.289966E-16	6.549879E-18
5.403543E+03	2.293599E-16	6.537128E-18
5.413386E+03	2.295479E-16	6.519196E-18
5.423228E+03	2.295515E-16	6.495873E-18
5.433071E+03	2.293614E-16	6.466953E-18
5.442913E+03	2.289685E-16	6.432227E-18
5.452756E+03	2.283634E-16	6.391491E-18
5.462598E+03	2.275340E-16	6.344476E-18
5.472441E+03	2.264736E-16	6.291062E-18
5.482283E+03	2.251717E-16	6.231028E-18
5.492126E+03	2.236212E-16	6.164263E-18
5.501969E+03	2.218223E-16	6.090848E-18
5.511811E+03	2.197668E-16	6.010646E-18
5.521654E+03	2.174599E-16	5.923886E-18
5.531496E+03	2.149118E-16	5.830933E-18
5.541339E+03	2.121340E-16	5.732185E-18
5.551181E+03	2.091442E-16	5.628206E-18
5.561024E+03	2.059711E-16	5.519839E-18
5.570866E+03	2.026466E-16	5.408016E-18
5.580709E+03	1.992065E-16	5.293743E-18
5.590551E+03	1.956925E-16	5.178179E-18
5.600394E+03	1.921513E-16	5.062592E-18
5.610236E+03	1.886257E-16	4.948128E-18
5.620079E+03	1.851646E-16	4.836072E-18
5.629921E+03	1.818141E-16	4.727610E-18
5.639764E+03	1.786167E-16	4.623821E-18
5.649606E+03	1.756155E-16	4.525778E-18
5.659449E+03	1.728453E-16	4.434314E-18
5.669291E+03	1.703436E-16	4.350325E-18
5.679134E+03	1.681372E-16	4.274406E-18
5.688976E+03	1.662529E-16	4.207149E-18
5.698819E+03	1.647101E-16	4.148939E-18
5.708661E+03	1.635260E-16	4.100110E-18
5.718504E+03	1.627087E-16	4.060743E-18
5.728346E+03	1.622669E-16	4.030948E-18
5.738189E+03	1.621981E-16	4.010548E-18
5.748031E+03	1.624988E-16	3.999340E-18
5.757874E+03	1.631562E-16	3.996907E-18
5.767717E+03	1.641548E-16	4.002765E-18
5.777559E+03	1.654691E-16	4.016201E-18
5.787402E+03	1.670671E-16	4.036360E-18
5.797244E+03	1.689148E-16	4.062355E-18
5.807087E+03	1.709652E-16	4.093009E-18
5.816929E+03	1.731704E-16	4.127141E-18
5.826772E+03	1.754752E-16	4.163427E-18
5.836614E+03	1.778165E-16	4.200382E-18
5.846457E+03	1.801351E-16	4.236638E-18
5.856299E+03	1.823653E-16	4.270706E-18
5.866142E+03	1.844437E-16	4.301172E-18
5.875984E+03	1.863114E-16	4.326762E-18
5.885827E+03	1.879094E-16	4.346211E-18
5.895669E+03	1.891914E-16	4.358573E-18
5.905512E+03	1.901202E-16	4.363125E-18
5.915354E+03	1.906639E-16	4.359267E-18
5.925197E+03	1.908079E-16	4.346807E-18
5.935039E+03	1.905500E-16	4.325825E-18
5.944882E+03	1.898966E-16	4.296596E-18
5.954724E+03	1.888694E-16	4.259725E-18
5.964567E+03	1.874996E-16	4.216013E-18
5.974409E+03	1.858254E-16	4.166410E-18
5.984252E+03	1.839009E-16	4.112190E-18
5.994094E+03	1.817764E-16	4.054533E-18
6.003937E+03	1.795139E-16	3.994854E-18
6.013780E+03	1.771741E-16	3.934522E-18
6.023622E+03	1.748195E-16	3.874928E-18
6.033465E+03	1.725100E-16	3.817395E-18
6.043307E+03	1.703059E-16	3.763242E-18
6.053150E+03	1.682603E-16	3.713621E-18
6.062992E+03	1.664227E-16	3.669608E-18
6.072835E+03	1.648364E-16	3.632132E-18
6.082677E+03	1.635325E-16	3.601834E-18
6.092520E+03	1.625409E-16	3.579329E-18
6.102362E+03	1.618694E-16	3.564750E-18
6.112205E+03	1.615190E-16	3.558081E-18
6.122047E+03	1.614633E-16	3.558708E-18
6.131890E+03	1.616711E-16	3.565921E-18
6.141732E+03	1.621067E-16	3.578915E-18
6.151575E+03	1.627328E-16	3.596850E-18
6.161417E+03	1.635192E-16	3.619043E-18
6.171260E+03	1.644353E-16	3.644809E-18
6.181102E+03	1.654534E-16	3.673518E-18
6.190945E+03	1.665464E-16	3.704555E-18
6.200787E+03	1.676860E-16	3.737277E-18
6.210630E+03	1.688466E-16	3.771085E-18
6.220472E+03	1.700029E-16	3.805398E-18
6.230315E+03	1.711309E-16	3.839646E-18
6.240157E+03	1.722076E-16	3.873281E-18
6.250000E+03	1.732101E-16	3.905750E-18
6.259843E+03	1.741230E-16	3.936660E-18
6.269685E+03	1.749295E-16	3.965589E-18
6.279528E+03	1.756126E-16	3.992094E-18
6.289370E+03	1.761670E-16	4.016005E-18
6.299213E+03	1.765836E-16	4.037055E-18
6.309055E+03	1.768606E-16	4.055142E-18
6.318898E+03	1.769973E-16	4.070192E-18
6.328740E+03	1.769996E-16	4.082282E-18
6.338583E+03	1.768710E-16	4.091431E-18
6.348425E+03	1.766208E-16	4.097799E-18
6.358268E+03	1.762621E-16	4.101635E-18
6.368110E+03	1.758057E-16	4.103142E-18
6.377953E+03	1.752637E-16	4.102553E-18
6.387795E+03	1.746523E-16	4.100202E-18
6.397638E+03	1.739822E-16	4.096307E-18
6.407480E+03	1.732681E-16	4.091174E-18
6.417323E+03	1.725223E-16	4.085066E-18
6.427165E+03	1.717533E-16	4.078152E-18
6.437008E+03	1.709757E-16	4.070761E-18
6.446850E+03	1.701946E-16	4.062992E-18
6.456693E+03	1.694234E-16	4.055145E-18
6.466535E+03	1.686670E-16	4.047323E-18
6.476378E+03	1.679308E-16	4.039648E-18
6.486220E+03	1.672245E-16	4.032335E-18
6.496063E+03	1.665486E-16	4.025395E-18
6.505906E+03	1.659073E-16	4.018918E-18
6.515748E+03	1.652970E-16	4.012812E-18
6.525591E+03	1.647195E-16	4.007111E-18
6.535433E+03	1.641683E-16	4.001658E-18
6.545276E+03	1.636369E-16	3.996280E-18
6.555118E+03	1.631181E-16	3.990801E-18
6.564961E+03	1.625975E-16	3.984860E-18
6.574803E+03	1.620664E-16	3.978231E-18
6.584646E+03	1.615108E-16	3.970569E-18
6.594488E+03	1.609146E-16	3.961465E-18
6.604331E+03	1.602645E-16	3.950583E-18
6.614173E+03	1.595456E-16	3.937550E-18
6.624016E+03	1.587440E-16	3.922008E-18
6.633858E+03	1.578484E-16	3.903674E-18
6.643701E+03	1.568443E-16	3.882183E-18
6.653543E+03	1.557281E-16	3.857443E-18
6.663386E+03	1.544905E-16	3.829218E-18
6.673228E+03	1.531303E-16	3.797479E-18
6.683071E+03	1.516463E-16	3.762199E-18
6.692913E+03	1.500476E-16	3.723612E-18
6.702756E+03	1.483363E-16	3.681774E-18
6.712598E+03	1.465263E-16	3.637044E-18
6.722441E+03	1.446292E-16	3.589725E-18
6.732283E+03	1.426644E-16	3.540311E-18
6.742126E+03	1.406466E-16	3.489184E-18
6.751969E+03	1.385969E-16	3.436890E-18
6.761811E+03	1.365363E-16	3.383965E-18
6.771654E+03	1.344863E-16	3.330961E-18
6.781496E+03	1.324689E-16	3.278441E-18
6.791339E+03	1.305073E-16	3.226999E-18
6.801181E+03	1.286214E-16	3.177139E-18
6.811024E+03	1.268334E-16	3.129421E-18
6.820866E+03	1.251615E-16	3.084308E-18
6.830709E+03	1.236259E-16	3.042300E-18
6.840551E+03	1.222438E-16	3.003823E-18
6.850394E+03	1.210295E-16	2.969228E-18
6.860236E+03	1.199985E-16	2.938889E-18
6.870079E+03	1.191630E-16	2.913093E-18
6.879921E+03	1.185332E-16	2.892076E-18
6.889764E+03	1.181169E-16	2.876006E-18
6.899606E+03	1.179191E-16	2.864987E-18
6.909449E+03	1.179423E-16	2.859049E-18
6.919291E+03	1.181854E-16	2.858139E-18
6.929134E+03	1.186447E-16	2.862130E-18
6.938976E+03	1.193122E-16	2.870802E-18
6.948819E+03	1.201786E-16	2.883892E-18
6.958661E+03	1.212263E-16	2.900946E-18
6.968504E+03	1.224407E-16	2.921578E-18
6.978346E+03	1.237999E-16	2.945241E-18
6.988189E+03	1.252814E-16	2.971369E-18
6.998031E+03	1.268629E-16	2.999413E-18
7.007874E+03	1.285182E-16	3.028735E-18
7.017717E+03	1.302229E-16	3.058752E-18
7.027559E+03	1.319557E-16	3.088956E-18
7.037402E+03	1.336934E-16	3.118810E-18
7.047244E+03	1.354190E-16	3.147922E-18
7.057087E+03	1.371152E-16	3.175905E-18
7.066929E+03	1.387710E-16	3.202524E-18
7.076772E+03	1.403777E-16	3.227601E-18
7.086614E+03	1.419278E-16	3.250992E-18
7.096457E+03	1.434223E-16	3.272751E-18
7.106299E+03	1.448576E-16	3.292828E-18
7.116142E+03	1.462379E-16	3.311352E-18
7.125984E+03	1.475669E-16	3.328444E-18
7.135827E+03	1.488512E-16	3.344287E-18
7.145669E+03	1.500935E-16	3.358978E-18
7.155512E+03	1.512980E-16	3.372648E-18
7.165354E+03	1.524676E-16	3.385397E-18
7.175197E+03	1.536073E-16	3.397377E-18
7.185039E+03	1.547120E-16	3.408510E-18
7.194882E+03	1.557796E-16	3.418794E-18
7.204724E+03	1.568011E-16	3.428073E-18
7.214567E+03	1.577706E-16	3.436265E-18
7.224409E+03	1.586711E-16	3.443050E-18
7.234252E+03	1.594888E-16	3.448184E-18
7.244094E+03	1.602054E-16	3.451328E-18
7.253937E+03	1.607983E-16	3.452061E-18
7.263780E+03	1.612475E-16	3.450021E-18
7.273622E+03	1.615260E-16	3.444700E-18
7.283465E+03	1.616106E-16	3.435679E-18
7.293307E+03	1.614812E-16	3.422608E-18
7.303150E+03	1.611105E-16	3.404988E-18
7.312992E+03	1.604825E-16	3.382554E-18
7.322835E+03	1.595823E-16	3.355069E-18
7.332677E+03	1.584016E-16	3.322426E-18
7.342520E+03	1.569320E-16	3.284513E-18
7.352362E+03	1.551749E-16	3.241413E-18
7.362205E+03	1.531348E-16	3.193267E-18
7.372047E+03	1.508242E-16	3.140366E-18
7.381890E+03	1.482571E-16	3.083021E-18
7.391732E+03	1.454574E-16	3.021735E-18
7.401575E+03	1.424508E-16	2.957032E-18
7.411417E+03	1.392719E-16	2.889615E-18
7.421260E+03	1.359587E-16	2.820244E-18
7.431102E+03	1.325512E-16	2.749716E-18
7.440945E+03	1.290999E-16	2.679035E-18
7.450787E+03	1.256511E-16	2.609109E-18
7.460630E+03	1.222518E-16	2.540833E-18
7.470472E+03	1.189467E-16	2.475060E-18
7.480315E+03	1.157757E-16	2.412548E-18
7.490157E+03	1.127763E-16	2.354017E-18
7.500000E+03	1.099824E-16	2.300118E-18
7.509843E+03	1.074202E-16	2.251364E-18
7.519685E+03	1.051053E-16	2.208052E-18
7.529528E+03	1.030468E-16	2.170354E-18
7.539370E+03	1.012404E-16	2.138170E-18
7.549213E+03	9.967743E-17	2.111315E-18
7.559055E+03	9.834306E-17	2.089478E-18
7.568898E+03	9.722395E-17	2.072382E-18
7.578740E+03	9.630966E-17	2.059813E-18
7.588583E+03	9.558483E-17	2.051456E-18
7.598425E+03	9.503840E-17	2.047085E-18
7.608268E+03	9.465867E-17	2.046463E-18
7.618110E+03	9.443459E-17	2.049365E-18
7.627953E+03	9.435514E-17	2.055567E-18
7.637795E+03	9.440814E-17	2.064816E-18
