#wls	flux	fluxerr
1.574803E+03	7.296209E-18	6.810114E-19
1.614173E+03	7.394387E-18	6.877868E-19
1.653543E+03	7.481867E-18	6.934482E-19
1.692913E+03	7.558189E-18	6.979603E-19
1.732283E+03	7.623860E-18	7.013784E-19
1.771654E+03	7.674883E-18	7.033442E-19
1.811024E+03	7.706569E-18	7.034428E-19
1.850394E+03	7.715839E-18	7.014136E-19
1.889764E+03	7.693551E-18	6.964526E-19
1.929134E+03	7.635350E-18	6.882026E-19
1.968504E+03	7.540753E-18	6.766629E-19
2.007874E+03	7.417292E-18	6.625512E-19
2.047244E+03	7.288241E-18	6.479745E-19
2.086614E+03	7.194557E-18	6.365661E-19
2.125984E+03	7.185494E-18	6.326187E-19
2.165354E+03	7.299772E-18	6.394117E-19
2.204724E+03	7.546109E-18	6.575347E-19
2.244094E+03	7.905306E-18	6.851336E-19
2.283465E+03	8.342440E-18	7.190275E-19
2.322835E+03	8.825467E-18	7.563437E-19
2.362205E+03	9.329618E-18	7.948875E-19
2.401575E+03	9.845007E-18	8.337727E-19
2.440945E+03	1.036550E-17	8.724472E-19
2.480315E+03	1.089590E-17	9.112864E-19
2.519685E+03	1.143592E-17	9.502306E-19
2.559055E+03	1.199434E-17	9.899704E-19
2.598425E+03	1.257396E-17	1.030682E-18
2.637795E+03	1.318267E-17	1.072951E-18
2.677165E+03	1.382491E-17	1.117063E-18
2.716535E+03	1.450868E-17	1.163575E-18
2.755906E+03	1.524024E-17	1.212885E-18
2.795276E+03	1.602589E-17	1.265374E-18
2.834646E+03	1.687205E-17	1.321414E-18
2.874016E+03	1.778522E-17	1.381361E-18
2.913386E+03	1.877626E-17	1.445885E-18
2.952756E+03	1.985223E-17	1.515335E-18
2.962598E+03	2.013685E-17	1.533620E-18
2.972441E+03	2.042637E-17	1.552166E-18
2.982283E+03	2.072087E-17	1.570974E-18
2.992126E+03	2.102264E-17	1.590213E-18
3.001969E+03	2.133195E-17	1.609902E-18
3.011811E+03	2.164688E-17	1.629888E-18
3.021654E+03	2.196965E-17	1.650336E-18
3.031496E+03	2.230098E-17	1.671295E-18
3.041339E+03	2.263695E-17	1.692467E-18
3.051181E+03	2.298479E-17	1.714387E-18
3.061024E+03	2.333988E-17	1.736705E-18
3.070866E+03	2.370439E-17	1.759577E-18
3.080709E+03	2.407822E-17	1.782989E-18
3.090551E+03	2.446131E-17	1.806932E-18
3.100394E+03	2.485126E-17	1.831223E-18
3.110236E+03	2.525270E-17	1.856196E-18
3.120079E+03	2.566323E-17	1.881670E-18
3.129921E+03	2.608284E-17	1.907637E-18
3.139764E+03	2.651388E-17	1.934263E-18
3.149606E+03	2.695156E-17	1.961192E-18
3.159449E+03	2.740065E-17	1.988765E-18
3.169291E+03	2.785874E-17	2.016802E-18
3.179134E+03	2.832582E-17	2.045293E-18
3.188976E+03	2.880435E-17	2.074412E-18
3.198819E+03	2.929187E-17	2.103973E-18
3.208661E+03	2.979088E-17	2.134150E-18
3.218504E+03	3.029889E-17	2.164757E-18
3.228346E+03	3.081843E-17	2.195967E-18
3.238189E+03	3.134953E-17	2.227775E-18
3.248031E+03	3.188964E-17	2.259994E-18
3.257874E+03	3.244135E-17	2.292798E-18
3.267717E+03	3.300465E-17	2.326181E-18
3.277559E+03	3.357698E-17	2.359953E-18
3.287402E+03	3.416355E-17	2.394473E-18
3.297244E+03	3.476177E-17	2.429551E-18
3.307087E+03	3.537163E-17	2.465177E-18
3.316929E+03	3.599046E-17	2.501159E-18
3.326772E+03	3.662626E-17	2.538044E-18
3.336614E+03	3.727099E-17	2.575264E-18
3.346457E+03	3.792999E-17	2.613182E-18
3.356299E+03	3.860055E-17	2.651599E-18
3.366142E+03	3.928258E-17	2.690503E-18
3.375984E+03	3.997878E-17	2.730069E-18
3.385827E+03	4.068910E-17	2.770285E-18
3.395669E+03	4.141069E-17	2.810946E-18
3.405512E+03	4.214623E-17	2.852225E-18
3.415354E+03	4.289564E-17	2.894106E-18
3.425197E+03	4.365879E-17	2.936572E-18
3.435039E+03	4.443269E-17	2.979412E-18
3.444882E+03	4.522289E-17	3.022987E-18
3.454724E+03	4.602635E-17	3.067086E-18
3.464567E+03	4.684289E-17	3.111684E-18
3.474409E+03	4.767227E-17	3.156757E-18
3.484252E+03	4.851715E-17	3.202470E-18
3.494094E+03	4.937436E-17	3.248605E-18
3.503937E+03	5.024361E-17	3.295132E-18
3.513780E+03	5.113045E-17	3.342405E-18
3.523622E+03	5.202867E-17	3.390007E-18
3.533465E+03	5.293787E-17	3.437902E-18
3.543307E+03	5.386360E-17	3.486442E-18
3.553150E+03	5.479947E-17	3.535201E-18
3.562992E+03	5.575099E-17	3.584527E-18
3.572835E+03	5.671169E-17	3.633993E-18
3.582677E+03	5.768702E-17	3.683940E-18
3.592520E+03	5.867346E-17	3.734131E-18
3.602362E+03	5.967036E-17	3.784518E-18
3.612205E+03	6.068016E-17	3.835247E-18
3.622047E+03	6.169915E-17	3.886072E-18
3.631890E+03	6.272964E-17	3.937133E-18
3.641732E+03	6.377101E-17	3.988381E-18
3.651575E+03	6.482235E-17	4.039752E-18
3.661417E+03	6.587985E-17	4.091000E-18
3.671260E+03	6.694884E-17	4.142449E-18
3.681102E+03	6.802230E-17	4.193658E-18
3.690945E+03	6.910542E-17	4.244943E-18
3.700787E+03	7.019421E-17	4.296050E-18
3.710630E+03	7.128772E-17	4.346916E-18
3.720472E+03	7.238492E-17	4.397475E-18
3.730315E+03	7.349097E-17	4.448036E-18
3.740157E+03	7.459554E-17	4.497969E-18
3.750000E+03	7.570372E-17	4.547578E-18
3.759843E+03	7.681446E-17	4.596800E-18
3.769685E+03	7.792663E-17	4.645563E-18
3.779528E+03	7.903906E-17	4.693796E-18
3.789370E+03	8.014756E-17	4.741250E-18
3.799213E+03	8.125713E-17	4.788223E-18
3.809055E+03	8.236048E-17	4.834284E-18
3.818898E+03	8.346255E-17	4.879727E-18
3.828740E+03	8.455926E-17	4.924315E-18
3.838583E+03	8.564933E-17	4.967976E-18
3.848425E+03	8.673170E-17	5.010654E-18
3.858268E+03	8.780521E-17	5.052288E-18
3.868110E+03	8.887185E-17	5.092997E-18
3.877953E+03	8.992740E-17	5.132545E-18
3.887795E+03	9.097370E-17	5.171046E-18
3.897638E+03	9.200645E-17	5.208262E-18
3.907480E+03	9.302408E-17	5.244115E-18
3.917323E+03	9.402458E-17	5.278503E-18
3.927165E+03	9.500867E-17	5.311479E-18
3.937008E+03	9.597060E-17	5.342735E-18
3.946850E+03	9.691028E-17	5.372283E-18
3.956693E+03	9.782149E-17	5.399795E-18
3.966535E+03	9.870095E-17	5.425113E-18
3.976378E+03	9.954535E-17	5.448079E-18
3.986220E+03	1.003514E-16	5.468540E-18
3.996063E+03	1.011189E-16	5.486512E-18
4.005906E+03	1.018393E-16	5.501567E-18
4.015748E+03	1.025131E-16	5.513762E-18
4.025591E+03	1.031380E-16	5.523010E-18
4.035433E+03	1.037096E-16	5.529116E-18
4.045276E+03	1.042298E-16	5.532210E-18
4.055118E+03	1.046949E-16	5.532151E-18
4.064961E+03	1.051055E-16	5.529000E-18
4.074803E+03	1.054596E-16	5.522698E-18
4.084646E+03	1.057641E-16	5.513643E-18
4.094488E+03	1.060158E-16	5.501712E-18
4.104331E+03	1.062178E-16	5.487102E-18
4.114173E+03	1.063734E-16	5.470018E-18
4.124016E+03	1.064863E-16	5.450690E-18
4.133858E+03	1.065582E-16	5.429237E-18
4.143701E+03	1.065936E-16	5.405917E-18
4.153543E+03	1.065973E-16	5.380999E-18
4.163386E+03	1.065716E-16	5.354633E-18
4.173228E+03	1.065219E-16	5.327100E-18
4.183071E+03	1.064534E-16	5.298685E-18
4.192913E+03	1.063716E-16	5.269673E-18
4.202756E+03	1.062778E-16	5.240149E-18
4.212598E+03	1.061781E-16	5.210414E-18
4.222441E+03	1.060809E-16	5.180890E-18
4.232283E+03	1.059882E-16	5.151674E-18
4.242126E+03	1.059062E-16	5.123072E-18
4.251969E+03	1.058412E-16	5.095376E-18
4.261811E+03	1.057974E-16	5.068777E-18
4.271654E+03	1.057801E-16	5.043524E-18
4.281496E+03	1.057931E-16	5.019776E-18
4.291339E+03	1.058394E-16	4.997662E-18
4.301181E+03	1.059278E-16	4.977572E-18
4.311024E+03	1.060570E-16	4.959426E-18
4.320866E+03	1.062316E-16	4.943408E-18
4.330709E+03	1.064558E-16	4.929688E-18
4.340551E+03	1.067337E-16	4.918425E-18
4.350394E+03	1.070673E-16	4.909679E-18
4.360236E+03	1.074586E-16	4.903512E-18
4.370079E+03	1.079129E-16	4.900128E-18
4.379921E+03	1.084318E-16	4.899559E-18
4.389764E+03	1.090163E-16	4.901818E-18
4.399606E+03	1.096690E-16	4.906985E-18
4.409449E+03	1.103922E-16	4.915119E-18
4.419291E+03	1.111858E-16	4.926177E-18
4.429134E+03	1.120508E-16	4.940167E-18
4.438976E+03	1.129895E-16	4.957153E-18
4.448819E+03	1.139985E-16	4.976936E-18
4.458661E+03	1.150764E-16	4.999434E-18
4.468504E+03	1.162233E-16	5.024602E-18
4.478346E+03	1.174343E-16	5.052204E-18
4.488189E+03	1.187033E-16	5.081946E-18
4.498031E+03	1.200263E-16	5.113631E-18
4.507874E+03	1.213956E-16	5.146916E-18
4.517717E+03	1.228004E-16	5.181319E-18
4.527559E+03	1.242317E-16	5.216458E-18
4.537402E+03	1.256735E-16	5.251660E-18
4.547244E+03	1.271159E-16	5.286522E-18
4.557087E+03	1.285429E-16	5.320395E-18
4.566929E+03	1.299399E-16	5.352695E-18
4.576772E+03	1.312924E-16	5.382867E-18
4.586614E+03	1.325888E-16	5.410473E-18
4.596457E+03	1.338133E-16	5.434916E-18
4.606299E+03	1.349575E-16	5.455913E-18
4.616142E+03	1.360130E-16	5.473188E-18
4.625984E+03	1.369758E-16	5.486642E-18
4.635827E+03	1.378382E-16	5.496029E-18
4.645669E+03	1.386020E-16	5.501491E-18
4.655512E+03	1.392648E-16	5.502998E-18
4.665354E+03	1.398289E-16	5.500710E-18
4.675197E+03	1.402936E-16	5.494654E-18
4.685039E+03	1.406605E-16	5.484959E-18
4.694882E+03	1.409280E-16	5.471624E-18
4.704724E+03	1.410922E-16	5.454557E-18
4.714567E+03	1.411564E-16	5.433942E-18
4.724409E+03	1.411202E-16	5.409827E-18
4.734252E+03	1.409880E-16	5.382424E-18
4.744094E+03	1.407699E-16	5.352178E-18
4.753937E+03	1.404715E-16	5.319343E-18
4.763780E+03	1.401063E-16	5.284458E-18
4.773622E+03	1.396897E-16	5.248130E-18
4.783465E+03	1.392376E-16	5.210963E-18
4.793307E+03	1.387656E-16	5.173547E-18
4.803150E+03	1.382963E-16	5.136719E-18
4.812992E+03	1.378480E-16	5.101145E-18
4.822835E+03	1.374433E-16	5.067640E-18
4.832677E+03	1.371011E-16	5.036869E-18
4.842520E+03	1.368468E-16	5.009735E-18
4.852362E+03	1.366941E-16	4.986691E-18
4.862205E+03	1.366648E-16	4.968484E-18
4.872047E+03	1.367694E-16	4.955442E-18
4.881890E+03	1.370211E-16	4.947988E-18
4.891732E+03	1.374253E-16	4.946254E-18
4.901575E+03	1.379812E-16	4.950156E-18
4.911417E+03	1.386898E-16	4.959670E-18
4.921260E+03	1.395419E-16	4.974421E-18
4.931102E+03	1.405343E-16	4.994236E-18
4.940945E+03	1.416521E-16	5.018547E-18
4.950787E+03	1.428833E-16	5.046885E-18
4.960630E+03	1.442114E-16	5.078637E-18
4.970472E+03	1.456183E-16	5.113133E-18
4.980315E+03	1.470860E-16	5.149718E-18
4.990157E+03	1.485938E-16	5.187660E-18
5.000000E+03	1.501200E-16	5.226182E-18
5.009843E+03	1.516496E-16	5.264767E-18
5.019685E+03	1.531624E-16	5.302713E-18
5.029528E+03	1.546475E-16	5.339646E-18
5.039370E+03	1.560979E-16	5.375339E-18
5.049213E+03	1.575079E-16	5.409601E-18
5.059055E+03	1.588784E-16	5.442475E-18
5.068898E+03	1.602159E-16	5.474193E-18
5.078740E+03	1.615323E-16	5.505170E-18
5.088583E+03	1.628391E-16	5.535798E-18
5.098425E+03	1.641431E-16	5.566315E-18
5.108268E+03	1.654579E-16	5.597176E-18
5.118110E+03	1.667905E-16	5.628614E-18
5.127953E+03	1.681410E-16	5.660628E-18
5.137795E+03	1.695150E-16	5.693400E-18
5.147638E+03	1.709100E-16	5.726840E-18
5.157480E+03	1.723237E-16	5.760870E-18
5.167323E+03	1.737536E-16	5.795394E-18
5.177165E+03	1.751963E-16	5.830299E-18
5.187008E+03	1.766467E-16	5.865414E-18
5.196850E+03	1.781042E-16	5.900710E-18
5.206693E+03	1.795636E-16	5.936021E-18
5.216535E+03	1.810218E-16	5.971243E-18
5.226378E+03	1.824776E-16	6.006330E-18
5.236220E+03	1.839222E-16	6.041000E-18
5.246063E+03	1.853501E-16	6.075070E-18
5.255906E+03	1.867568E-16	6.108400E-18
5.265748E+03	1.881323E-16	6.140670E-18
5.275591E+03	1.894683E-16	6.171611E-18
5.285433E+03	1.907560E-16	6.200946E-18
5.295276E+03	1.919850E-16	6.228348E-18
5.305118E+03	1.931481E-16	6.253599E-18
5.314961E+03	1.942423E-16	6.276604E-18
5.324803E+03	1.952579E-16	6.297065E-18
5.334646E+03	1.961931E-16	6.314933E-18
5.344488E+03	1.970441E-16	6.330101E-18
5.354331E+03	1.978058E-16	6.342410E-18
5.364173E+03	1.984777E-16	6.351860E-18
5.374016E+03	1.990528E-16	6.358239E-18
5.383858E+03	1.995331E-16	6.361625E-18
5.393701E+03	1.999157E-16	6.361941E-18
5.403543E+03	2.001923E-16	6.358936E-18
5.413386E+03	2.003638E-16	6.352649E-18
5.423228E+03	2.004226E-16	6.342864E-18
5.433071E+03	2.003654E-16	6.329484E-18
5.442913E+03	2.001825E-16	6.312223E-18
5.452756E+03	1.998667E-16	6.290879E-18
5.462598E+03	1.994072E-16	6.265124E-18
5.472441E+03	1.987909E-16	6.234573E-18
5.482283E+03	1.980029E-16	6.198786E-18
5.492126E+03	1.970298E-16	6.157366E-18
5.501969E+03	1.958555E-16	6.109843E-18
5.511811E+03	1.944652E-16	6.055786E-18
5.521654E+03	1.928487E-16	5.994917E-18
5.531496E+03	1.909963E-16	5.926963E-18
5.541339E+03	1.889088E-16	5.851987E-18
5.551181E+03	1.865922E-16	5.770217E-18
5.561024E+03	1.840642E-16	5.682227E-18
5.570866E+03	1.813495E-16	5.588818E-18
5.580709E+03	1.784794E-16	5.490974E-18
5.590551E+03	1.754976E-16	5.390067E-18
5.600394E+03	1.724488E-16	5.287484E-18
5.610236E+03	1.693780E-16	5.184607E-18
5.620079E+03	1.663356E-16	5.082979E-18
5.629921E+03	1.633619E-16	4.983827E-18
5.639764E+03	1.605020E-16	4.888514E-18
5.649606E+03	1.577917E-16	4.798108E-18
5.659449E+03	1.552664E-16	4.713663E-18
5.669291E+03	1.529556E-16	4.636045E-18
5.679134E+03	1.508845E-16	4.565988E-18
5.688976E+03	1.490735E-16	4.504070E-18
5.698819E+03	1.475382E-16	4.450731E-18
5.708661E+03	1.462913E-16	4.406309E-18
5.718504E+03	1.453345E-16	4.370827E-18
5.728346E+03	1.446718E-16	4.344358E-18
5.738189E+03	1.442969E-16	4.326686E-18
5.748031E+03	1.442028E-16	4.317562E-18
5.757874E+03	1.443748E-16	4.316514E-18
5.767717E+03	1.447983E-16	4.323086E-18
5.777559E+03	1.454510E-16	4.336579E-18
5.787402E+03	1.463162E-16	4.356482E-18
5.797244E+03	1.473647E-16	4.381908E-18
5.807087E+03	1.485738E-16	4.412170E-18
5.816929E+03	1.499131E-16	4.446361E-18
5.826772E+03	1.513498E-16	4.483503E-18
5.836614E+03	1.528538E-16	4.522713E-18
5.846457E+03	1.543879E-16	4.562891E-18
5.856299E+03	1.559141E-16	4.602930E-18
5.866142E+03	1.573916E-16	4.641644E-18
5.875984E+03	1.587831E-16	4.677948E-18
5.885827E+03	1.600490E-16	4.710698E-18
5.895669E+03	1.611563E-16	4.738955E-18
5.905512E+03	1.620707E-16	4.761736E-18
5.915354E+03	1.627718E-16	4.778469E-18
5.925197E+03	1.632384E-16	4.788559E-18
5.935039E+03	1.634654E-16	4.791887E-18
5.944882E+03	1.634492E-16	4.788375E-18
5.954724E+03	1.632003E-16	4.778349E-18
5.964567E+03	1.627377E-16	4.762387E-18
5.974409E+03	1.620879E-16	4.741282E-18
5.984252E+03	1.612783E-16	4.715849E-18
5.994094E+03	1.603394E-16	4.686987E-18
6.003937E+03	1.593075E-16	4.655768E-18
6.013780E+03	1.582182E-16	4.623235E-18
6.023622E+03	1.571078E-16	4.590451E-18
6.033465E+03	1.560079E-16	4.558343E-18
6.043307E+03	1.549569E-16	4.528034E-18
6.053150E+03	1.539852E-16	4.500415E-18
6.062992E+03	1.531223E-16	4.476352E-18
6.072835E+03	1.523938E-16	4.456596E-18
6.082677E+03	1.518215E-16	4.441792E-18
6.092520E+03	1.514243E-16	4.432501E-18
6.102362E+03	1.512178E-16	4.429176E-18
6.112205E+03	1.512125E-16	4.432124E-18
6.122047E+03	1.514197E-16	4.441677E-18
6.131890E+03	1.518457E-16	4.458023E-18
6.141732E+03	1.524911E-16	4.481189E-18
6.151575E+03	1.533558E-16	4.511185E-18
6.161417E+03	1.544327E-16	4.547814E-18
6.171260E+03	1.557078E-16	4.590684E-18
6.181102E+03	1.571663E-16	4.639365E-18
6.190945E+03	1.587825E-16	4.693123E-18
6.200787E+03	1.605311E-16	4.751223E-18
6.210630E+03	1.623730E-16	4.812515E-18
6.220472E+03	1.642665E-16	4.875773E-18
6.230315E+03	1.661698E-16	4.939758E-18
6.240157E+03	1.680309E-16	5.002924E-18
6.250000E+03	1.698065E-16	5.063965E-18
6.259843E+03	1.714463E-16	5.121363E-18
6.269685E+03	1.729120E-16	5.173945E-18
6.279528E+03	1.741618E-16	5.220429E-18
6.289370E+03	1.751693E-16	5.259977E-18
6.299213E+03	1.759091E-16	5.291780E-18
6.309055E+03	1.763679E-16	5.315380E-18
6.318898E+03	1.765432E-16	5.330650E-18
6.328740E+03	1.764373E-16	5.337594E-18
6.338583E+03	1.760651E-16	5.336608E-18
6.348425E+03	1.754465E-16	5.328235E-18
6.358268E+03	1.746034E-16	5.313085E-18
6.368110E+03	1.735653E-16	5.292008E-18
6.377953E+03	1.723632E-16	5.265896E-18
6.387795E+03	1.710196E-16	5.235401E-18
6.397638E+03	1.695632E-16	5.201367E-18
6.407480E+03	1.680151E-16	5.164405E-18
6.417323E+03	1.663899E-16	5.124936E-18
6.427165E+03	1.647019E-16	5.083378E-18
6.437008E+03	1.629595E-16	5.039970E-18
6.446850E+03	1.611682E-16	4.994858E-18
6.456693E+03	1.593306E-16	4.948110E-18
6.466535E+03	1.574507E-16	4.899829E-18
6.476378E+03	1.555280E-16	4.849985E-18
6.486220E+03	1.535673E-16	4.798710E-18
6.496063E+03	1.515724E-16	4.746110E-18
6.505906E+03	1.495497E-16	4.692376E-18
6.515748E+03	1.475027E-16	4.637602E-18
6.525591E+03	1.454368E-16	4.581954E-18
6.535433E+03	1.433587E-16	4.525631E-18
6.545276E+03	1.412719E-16	4.468739E-18
6.555118E+03	1.391786E-16	4.411341E-18
6.564961E+03	1.370804E-16	4.353483E-18
6.574803E+03	1.349793E-16	4.295231E-18
6.584646E+03	1.328756E-16	4.236584E-18
6.594488E+03	1.307664E-16	4.177454E-18
6.604331E+03	1.286545E-16	4.117923E-18
6.614173E+03	1.265346E-16	4.057823E-18
6.624016E+03	1.244089E-16	3.997222E-18
6.633858E+03	1.222758E-16	3.936068E-18
6.643701E+03	1.201326E-16	3.874275E-18
6.653543E+03	1.179795E-16	3.811843E-18
6.663386E+03	1.158211E-16	3.748926E-18
6.673228E+03	1.136586E-16	3.685560E-18
6.683071E+03	1.114945E-16	3.621826E-18
6.692913E+03	1.093378E-16	3.558024E-18
6.702756E+03	1.071955E-16	3.494380E-18
6.712598E+03	1.050744E-16	3.431125E-18
6.722441E+03	1.029840E-16	3.368576E-18
6.732283E+03	1.009362E-16	3.307127E-18
6.742126E+03	9.894185E-17	3.247149E-18
6.751969E+03	9.701140E-17	3.188995E-18
6.761811E+03	9.515828E-17	3.133121E-18
6.771654E+03	9.339465E-17	3.079945E-18
6.781496E+03	9.173378E-17	3.029920E-18
6.791339E+03	9.018466E-17	2.983363E-18
6.801181E+03	8.875938E-17	2.940697E-18
6.811024E+03	8.746813E-17	2.902280E-18
6.820866E+03	8.631990E-17	2.868434E-18
6.830709E+03	8.532306E-17	2.839461E-18
6.840551E+03	8.448511E-17	2.815635E-18
6.850394E+03	8.381404E-17	2.797249E-18
6.860236E+03	8.331340E-17	2.784447E-18
6.870079E+03	8.298951E-17	2.777466E-18
6.879921E+03	8.284798E-17	2.776520E-18
6.889764E+03	8.288993E-17	2.781674E-18
6.899606E+03	8.311895E-17	2.793073E-18
6.909449E+03	8.353625E-17	2.810786E-18
6.919291E+03	8.414144E-17	2.834823E-18
6.929134E+03	8.493188E-17	2.865122E-18
6.938976E+03	8.590136E-17	2.901498E-18
6.948819E+03	8.704397E-17	2.943773E-18
6.958661E+03	8.834979E-17	2.991635E-18
6.968504E+03	8.980500E-17	3.044635E-18
6.978346E+03	9.139462E-17	3.102286E-18
6.988189E+03	9.310175E-17	3.164028E-18
6.998031E+03	9.490936E-17	3.229298E-18
7.007874E+03	9.679571E-17	3.297369E-18
7.017717E+03	9.874531E-17	3.367723E-18
7.027559E+03	1.007379E-16	3.439677E-18
7.037402E+03	1.027588E-16	3.512736E-18
7.047244E+03	1.047928E-16	3.586388E-18
7.057087E+03	1.068284E-16	3.660235E-18
7.066929E+03	1.088559E-16	3.733956E-18
7.076772E+03	1.108701E-16	3.807373E-18
7.086614E+03	1.128629E-16	3.880206E-18
7.096457E+03	1.148312E-16	3.952351E-18
7.106299E+03	1.167756E-16	4.023830E-18
7.116142E+03	1.186963E-16	4.094657E-18
7.125984E+03	1.205914E-16	4.164762E-18
7.135827E+03	1.224647E-16	4.234282E-18
7.145669E+03	1.243167E-16	4.303236E-18
7.155512E+03	1.261511E-16	4.371759E-18
7.165354E+03	1.279670E-16	4.439823E-18
7.175197E+03	1.297637E-16	4.507411E-18
7.185039E+03	1.315384E-16	4.574426E-18
7.194882E+03	1.332852E-16	4.640672E-18
7.204724E+03	1.349934E-16	4.705779E-18
7.214567E+03	1.366509E-16	4.769327E-18
7.224409E+03	1.382421E-16	4.830776E-18
7.234252E+03	1.397485E-16	4.889481E-18
7.244094E+03	1.411487E-16	4.944688E-18
7.253937E+03	1.424195E-16	4.995574E-18
7.263780E+03	1.435331E-16	5.041165E-18
7.273622E+03	1.444637E-16	5.080536E-18
7.283465E+03	1.451876E-16	5.112839E-18
7.293307E+03	1.456761E-16	5.137038E-18
7.303150E+03	1.459118E-16	5.152495E-18
7.312992E+03	1.458753E-16	5.158497E-18
7.322835E+03	1.455526E-16	5.154510E-18
7.332677E+03	1.449431E-16	5.140479E-18
7.342520E+03	1.440459E-16	5.116331E-18
7.352362E+03	1.428765E-16	5.082575E-18
7.362205E+03	1.414496E-16	5.039695E-18
7.372047E+03	1.397940E-16	4.988676E-18
7.381890E+03	1.379447E-16	4.930730E-18
7.391732E+03	1.359347E-16	4.867005E-18
7.401575E+03	1.338066E-16	4.799000E-18
7.411417E+03	1.316029E-16	4.728208E-18
7.421260E+03	1.293576E-16	4.655828E-18
7.431102E+03	1.270993E-16	4.582868E-18
7.440945E+03	1.248518E-16	4.510178E-18
7.450787E+03	1.226312E-16	4.438321E-18
7.460630E+03	1.204555E-16	4.367954E-18
7.470472E+03	1.183383E-16	4.299560E-18
7.480315E+03	1.162973E-16	4.233788E-18
7.490157E+03	1.143423E-16	4.170999E-18
7.500000E+03	1.124874E-16	4.111715E-18
7.509843E+03	1.107439E-16	4.056359E-18
7.519685E+03	1.091213E-16	4.005302E-18
7.529528E+03	1.076286E-16	3.958883E-18
7.539370E+03	1.062691E-16	3.917254E-18
7.549213E+03	1.050462E-16	3.880561E-18
7.559055E+03	1.039623E-16	3.848914E-18
7.568898E+03	1.030202E-16	3.822448E-18
7.578740E+03	1.022203E-16	3.801206E-18
7.588583E+03	1.015591E-16	3.785083E-18
7.598425E+03	1.010395E-16	3.774225E-18
7.608268E+03	1.006555E-16	3.768428E-18
7.618110E+03	1.004027E-16	3.767562E-18
7.627953E+03	1.002771E-16	3.771506E-18
7.637795E+03	1.002698E-16	3.779954E-18
