#wls	flux	fluxerr
1.574803E+03	7.556611E-18	7.277746E-19
1.614173E+03	7.654713E-18	7.350551E-19
1.653543E+03	7.740155E-18	7.410140E-19
1.692913E+03	7.815245E-18	7.458796E-19
1.732283E+03	7.877738E-18	7.494450E-19
1.771654E+03	7.924915E-18	7.514613E-19
1.811024E+03	7.953367E-18	7.516187E-19
1.850394E+03	7.957173E-18	7.493755E-19
1.889764E+03	7.929729E-18	7.441352E-19
1.929134E+03	7.865211E-18	7.353841E-19
1.968504E+03	7.761865E-18	7.229974E-19
2.007874E+03	7.628915E-18	7.078733E-19
2.047244E+03	7.491616E-18	6.923800E-19
2.086614E+03	7.389491E-18	6.801626E-19
2.125984E+03	7.375539E-18	6.760408E-19
2.165354E+03	7.488046E-18	6.834064E-19
2.204724E+03	7.735717E-18	7.028971E-19
2.244094E+03	8.097331E-18	7.324225E-19
2.283465E+03	8.539434E-18	7.688188E-19
2.322835E+03	9.026443E-18	8.087828E-19
2.362205E+03	9.535690E-18	8.502205E-19
2.401575E+03	1.005570E-17	8.920688E-19
2.440945E+03	1.058019E-17	9.337427E-19
2.480315E+03	1.111409E-17	9.756506E-19
2.519685E+03	1.165705E-17	1.017734E-18
2.559055E+03	1.221808E-17	1.060742E-18
2.598425E+03	1.279997E-17	1.104872E-18
2.637795E+03	1.341254E-17	1.150916E-18
2.677165E+03	1.405859E-17	1.199044E-18
2.716535E+03	1.474620E-17	1.249869E-18
2.755906E+03	1.548171E-17	1.303833E-18
2.795276E+03	1.627147E-17	1.361368E-18
2.834646E+03	1.712195E-17	1.422893E-18
2.874016E+03	1.804386E-17	1.489162E-18
2.913386E+03	1.904209E-17	1.560419E-18
2.952756E+03	2.012800E-17	1.637424E-18
2.962598E+03	2.041358E-17	1.657584E-18
2.972441E+03	2.070629E-17	1.678221E-18
2.982283E+03	2.100402E-17	1.699161E-18
2.992126E+03	2.130910E-17	1.720589E-18
3.001969E+03	2.162179E-17	1.742523E-18
3.011811E+03	2.194014E-17	1.764800E-18
3.021654E+03	2.226642E-17	1.787602E-18
3.031496E+03	2.260135E-17	1.810979E-18
3.041339E+03	2.294324E-17	1.834794E-18
3.051181E+03	2.329257E-17	1.859079E-18
3.061024E+03	2.365150E-17	1.884004E-18
3.070866E+03	2.402228E-17	1.909740E-18
3.080709E+03	2.440018E-17	1.935907E-18
3.090551E+03	2.478744E-17	1.962679E-18
3.100394E+03	2.518400E-17	1.990045E-18
3.110236E+03	2.559221E-17	2.018184E-18
3.120079E+03	2.600725E-17	2.046712E-18
3.129921E+03	2.643388E-17	2.075997E-18
3.139764E+03	2.686968E-17	2.105845E-18
3.149606E+03	2.731462E-17	2.136246E-18
3.159449E+03	2.776870E-17	2.167196E-18
3.169291E+03	2.823436E-17	2.198879E-18
3.179134E+03	2.871164E-17	2.231292E-18
3.188976E+03	2.919556E-17	2.264041E-18
3.198819E+03	2.969363E-17	2.297704E-18
3.208661E+03	3.019832E-17	2.331692E-18
3.218504E+03	3.071724E-17	2.366584E-18
3.228346E+03	3.124533E-17	2.401986E-18
3.238189E+03	3.178516E-17	2.438089E-18
3.248031E+03	3.233678E-17	2.474887E-18
3.257874E+03	3.289758E-17	2.512177E-18
3.267717E+03	3.347281E-17	2.550352E-18
3.277559E+03	3.405726E-17	2.589006E-18
3.287402E+03	3.465620E-17	2.628536E-18
3.297244E+03	3.526436E-17	2.668530E-18
3.307087E+03	3.588705E-17	2.709388E-18
3.316929E+03	3.652162E-17	2.750897E-18
3.326772E+03	3.717078E-17	2.793256E-18
3.336614E+03	3.782906E-17	2.836046E-18
3.346457E+03	3.850465E-17	2.879872E-18
3.356299E+03	3.918929E-17	2.924108E-18
3.366142E+03	3.989122E-17	2.969361E-18
3.375984E+03	4.060206E-17	3.014998E-18
3.385827E+03	4.133010E-17	3.061628E-18
3.395669E+03	4.207251E-17	3.109031E-18
3.405512E+03	4.282637E-17	3.156982E-18
3.415354E+03	4.359440E-17	3.205673E-18
3.425197E+03	4.437932E-17	3.255296E-18
3.435039E+03	4.517530E-17	3.305413E-18
3.444882E+03	4.598791E-17	3.356423E-18
3.454724E+03	4.681409E-17	3.408093E-18
3.464567E+03	4.765367E-17	3.460401E-18
3.474409E+03	4.850930E-17	3.513531E-18
3.484252E+03	4.937784E-17	3.567245E-18
3.494094E+03	5.026193E-17	3.621725E-18
3.503937E+03	5.116133E-17	3.676943E-18
3.513780E+03	5.207271E-17	3.732652E-18
3.523622E+03	5.300169E-17	3.789244E-18
3.533465E+03	5.394192E-17	3.846255E-18
3.543307E+03	5.489896E-17	3.904072E-18
3.553150E+03	5.586638E-17	3.962230E-18
3.562992E+03	5.684971E-17	4.021110E-18
3.572835E+03	5.784542E-17	4.080454E-18
3.582677E+03	5.885600E-17	4.140429E-18
3.592520E+03	5.987782E-17	4.200770E-18
3.602362E+03	6.091331E-17	4.261639E-18
3.612205E+03	6.195875E-17	4.322767E-18
3.622047E+03	6.301959E-17	4.384525E-18
3.631890E+03	6.408895E-17	4.446426E-18
3.641732E+03	6.516908E-17	4.508621E-18
3.651575E+03	6.626238E-17	4.571265E-18
3.661417E+03	6.736169E-17	4.633858E-18
3.671260E+03	6.847236E-17	4.696762E-18
3.681102E+03	6.959342E-17	4.759902E-18
3.690945E+03	7.071783E-17	4.822792E-18
3.700787E+03	7.185372E-17	4.885980E-18
3.710630E+03	7.299405E-17	4.948982E-18
3.720472E+03	7.414068E-17	5.011918E-18
3.730315E+03	7.528944E-17	5.074504E-18
3.740157E+03	7.644552E-17	5.137085E-18
3.750000E+03	7.760143E-17	5.199155E-18
3.759843E+03	7.876228E-17	5.261053E-18
3.769685E+03	7.992370E-17	5.322485E-18
3.779528E+03	8.108454E-17	5.383373E-18
3.789370E+03	8.224660E-17	5.443837E-18
3.799213E+03	8.340555E-17	5.503588E-18
3.809055E+03	8.456023E-17	5.562552E-18
3.818898E+03	8.571236E-17	5.620843E-18
3.828740E+03	8.686078E-17	5.678386E-18
3.838583E+03	8.800111E-17	5.734899E-18
3.848425E+03	8.913521E-17	5.790506E-18
3.858268E+03	9.026183E-17	5.845129E-18
3.868110E+03	9.137669E-17	5.898498E-18
3.877953E+03	9.248465E-17	5.950931E-18
3.887795E+03	9.357834E-17	6.001960E-18
3.897638E+03	9.465930E-17	6.051693E-18
3.907480E+03	9.572581E-17	6.100027E-18
3.917323E+03	9.677559E-17	6.146827E-18
3.927165E+03	9.780621E-17	6.191951E-18
3.937008E+03	9.881458E-17	6.235214E-18
3.946850E+03	9.979461E-17	6.276249E-18
3.956693E+03	1.007487E-16	6.315223E-18
3.966535E+03	1.016674E-16	6.351566E-18
3.976378E+03	1.025501E-16	6.385257E-18
3.986220E+03	1.033933E-16	6.416110E-18
3.996063E+03	1.041908E-16	6.443763E-18
4.005906E+03	1.049426E-16	6.468242E-18
4.015748E+03	1.056456E-16	6.489397E-18
4.025591E+03	1.062921E-16	6.506777E-18
4.035433E+03	1.068858E-16	6.520651E-18
4.045276E+03	1.074199E-16	6.530638E-18
4.055118E+03	1.078992E-16	6.537066E-18
4.064961E+03	1.083183E-16	6.539655E-18
4.074803E+03	1.086809E-16	6.538654E-18
4.084646E+03	1.089858E-16	6.534039E-18
4.094488E+03	1.092332E-16	6.525852E-18
4.104331E+03	1.094310E-16	6.514612E-18
4.114173E+03	1.095782E-16	6.500280E-18
4.124016E+03	1.096787E-16	6.483135E-18
4.133858E+03	1.097373E-16	6.463477E-18
4.143701E+03	1.097563E-16	6.441479E-18
4.153543E+03	1.097433E-16	6.417607E-18
4.163386E+03	1.096987E-16	6.391912E-18
4.173228E+03	1.096305E-16	6.364878E-18
4.183071E+03	1.095398E-16	6.336583E-18
4.192913E+03	1.094371E-16	6.307649E-18
4.202756E+03	1.093218E-16	6.278057E-18
4.212598E+03	1.092026E-16	6.248312E-18
4.222441E+03	1.090841E-16	6.218678E-18
4.232283E+03	1.089708E-16	6.189418E-18
4.242126E+03	1.088715E-16	6.161027E-18
4.251969E+03	1.087888E-16	6.133640E-18
4.261811E+03	1.087289E-16	6.107601E-18
4.271654E+03	1.086977E-16	6.083236E-18
4.281496E+03	1.086993E-16	6.060743E-18
4.291339E+03	1.087368E-16	6.040291E-18
4.301181E+03	1.088156E-16	6.022150E-18
4.311024E+03	1.089405E-16	6.006563E-18
4.320866E+03	1.091123E-16	5.993551E-18
4.330709E+03	1.093373E-16	5.983438E-18
4.340551E+03	1.096183E-16	5.976336E-18
4.350394E+03	1.099576E-16	5.972340E-18
4.360236E+03	1.103593E-16	5.971649E-18
4.370079E+03	1.108253E-16	5.974328E-18
4.379921E+03	1.113595E-16	5.980546E-18
4.389764E+03	1.119648E-16	5.990421E-18
4.399606E+03	1.126421E-16	6.003967E-18
4.409449E+03	1.133936E-16	6.021256E-18
4.419291E+03	1.142208E-16	6.042337E-18
4.429134E+03	1.151215E-16	6.067041E-18
4.438976E+03	1.160993E-16	6.095530E-18
4.448819E+03	1.171523E-16	6.127662E-18
4.458661E+03	1.182758E-16	6.163148E-18
4.468504E+03	1.194728E-16	6.202111E-18
4.478346E+03	1.207346E-16	6.244065E-18
4.488189E+03	1.220581E-16	6.288828E-18
4.498031E+03	1.234373E-16	6.336051E-18
4.507874E+03	1.248625E-16	6.385213E-18
4.517717E+03	1.263275E-16	6.435994E-18
4.527559E+03	1.278161E-16	6.487547E-18
4.537402E+03	1.293192E-16	6.539410E-18
4.547244E+03	1.308229E-16	6.590880E-18
4.557087E+03	1.323088E-16	6.641050E-18
4.566929E+03	1.337656E-16	6.689370E-18
4.576772E+03	1.351781E-16	6.735110E-18
4.586614E+03	1.365285E-16	6.777422E-18
4.596457E+03	1.378075E-16	6.815883E-18
4.606299E+03	1.390019E-16	6.849899E-18
4.616142E+03	1.401043E-16	6.879160E-18
4.625984E+03	1.411040E-16	6.903197E-18
4.635827E+03	1.420015E-16	6.922105E-18
4.645669E+03	1.427880E-16	6.935518E-18
4.655512E+03	1.434671E-16	6.943676E-18
4.665354E+03	1.440341E-16	6.946411E-18
4.675197E+03	1.444900E-16	6.943849E-18
4.685039E+03	1.448344E-16	6.936021E-18
4.694882E+03	1.450664E-16	6.922953E-18
4.704724E+03	1.451859E-16	6.904705E-18
4.714567E+03	1.451962E-16	6.881494E-18
4.724409E+03	1.451005E-16	6.853529E-18
4.734252E+03	1.449025E-16	6.821042E-18
4.744094E+03	1.446137E-16	6.784623E-18
4.753937E+03	1.442425E-16	6.744711E-18
4.763780E+03	1.438032E-16	6.702004E-18
4.773622E+03	1.433103E-16	6.657212E-18
4.783465E+03	1.427804E-16	6.611117E-18
4.793307E+03	1.422337E-16	6.564659E-18
4.803150E+03	1.416881E-16	6.518669E-18
4.812992E+03	1.411683E-16	6.474263E-18
4.822835E+03	1.406937E-16	6.432323E-18
4.832677E+03	1.402877E-16	6.393885E-18
4.842520E+03	1.399731E-16	6.359945E-18
4.852362E+03	1.397657E-16	6.331184E-18
4.862205E+03	1.396877E-16	6.308554E-18
4.872047E+03	1.397497E-16	6.292470E-18
4.881890E+03	1.399650E-16	6.283479E-18
4.891732E+03	1.403375E-16	6.281682E-18
4.901575E+03	1.408716E-16	6.287213E-18
4.911417E+03	1.415615E-16	6.299754E-18
4.921260E+03	1.424065E-16	6.319213E-18
4.931102E+03	1.433927E-16	6.344909E-18
4.940945E+03	1.445134E-16	6.376503E-18
4.950787E+03	1.457520E-16	6.413211E-18
4.960630E+03	1.470910E-16	6.454228E-18
4.970472E+03	1.485131E-16	6.498752E-18
4.980315E+03	1.499954E-16	6.545770E-18
4.990157E+03	1.515203E-16	6.594484E-18
5.000000E+03	1.530632E-16	6.643824E-18
5.009843E+03	1.546086E-16	6.693113E-18
5.019685E+03	1.561380E-16	6.741549E-18
5.029528E+03	1.576382E-16	6.788576E-18
5.039370E+03	1.591028E-16	6.833930E-18
5.049213E+03	1.605280E-16	6.877468E-18
5.059055E+03	1.619137E-16	6.919192E-18
5.068898E+03	1.632680E-16	6.959466E-18
5.078740E+03	1.646010E-16	6.998730E-18
5.088583E+03	1.659218E-16	7.037386E-18
5.098425E+03	1.672436E-16	7.075986E-18
5.108268E+03	1.685759E-16	7.114944E-18
5.118110E+03	1.699263E-16	7.154568E-18
5.127953E+03	1.712967E-16	7.194943E-18
5.137795E+03	1.726908E-16	7.236216E-18
5.147638E+03	1.741059E-16	7.278266E-18
5.157480E+03	1.755419E-16	7.321089E-18
5.167323E+03	1.769936E-16	7.364465E-18
5.177165E+03	1.784577E-16	7.408255E-18
5.187008E+03	1.799313E-16	7.452336E-18
5.196850E+03	1.814115E-16	7.496587E-18
5.206693E+03	1.828935E-16	7.540813E-18
5.216535E+03	1.843743E-16	7.584893E-18
5.226378E+03	1.858525E-16	7.628770E-18
5.236220E+03	1.873216E-16	7.672185E-18
5.246063E+03	1.887738E-16	7.714822E-18
5.255906E+03	1.902020E-16	7.756400E-18
5.265748E+03	1.916004E-16	7.796694E-18
5.275591E+03	1.929579E-16	7.835264E-18
5.285433E+03	1.942628E-16	7.871645E-18
5.295276E+03	1.955063E-16	7.905502E-18
5.305118E+03	1.966807E-16	7.936544E-18
5.314961E+03	1.977822E-16	7.964628E-18
5.324803E+03	1.987985E-16	7.989283E-18
5.334646E+03	1.997293E-16	8.010517E-18
5.344488E+03	2.005682E-16	8.028094E-18
5.354331E+03	2.013121E-16	8.041906E-18
5.364173E+03	2.019580E-16	8.051861E-18
5.374016E+03	2.025011E-16	8.057788E-18
5.383858E+03	2.029414E-16	8.059709E-18
5.393701E+03	2.032737E-16	8.057437E-18
5.403543E+03	2.034972E-16	8.050972E-18
5.413386E+03	2.036059E-16	8.040093E-18
5.423228E+03	2.035999E-16	8.024828E-18
5.433071E+03	2.034690E-16	8.004803E-18
5.442913E+03	2.032084E-16	7.979852E-18
5.452756E+03	2.028091E-16	7.949650E-18
5.462598E+03	2.022601E-16	7.913795E-18
5.472441E+03	2.015530E-16	7.871990E-18
5.482283E+03	2.006687E-16	7.823518E-18
5.492126E+03	1.995958E-16	7.767971E-18
5.501969E+03	1.983163E-16	7.704684E-18
5.511811E+03	1.968171E-16	7.633195E-18
5.521654E+03	1.950860E-16	7.553067E-18
5.531496E+03	1.931200E-16	7.464229E-18
5.541339E+03	1.909144E-16	7.366540E-18
5.551181E+03	1.884790E-16	7.260426E-18
5.561024E+03	1.858330E-16	7.146660E-18
5.570866E+03	1.830053E-16	7.026388E-18
5.580709E+03	1.800267E-16	6.900824E-18
5.590551E+03	1.769422E-16	6.771706E-18
5.600394E+03	1.737965E-16	6.640764E-18
5.610236E+03	1.706362E-16	6.509777E-18
5.620079E+03	1.675072E-16	6.380493E-18
5.629921E+03	1.644556E-16	6.254651E-18
5.639764E+03	1.615224E-16	6.133796E-18
5.649606E+03	1.587437E-16	6.019264E-18
5.659449E+03	1.561568E-16	5.912441E-18
5.669291E+03	1.537902E-16	5.814365E-18
5.679134E+03	1.516698E-16	5.725980E-18
5.688976E+03	1.498196E-16	5.648142E-18
5.698819E+03	1.482553E-16	5.581399E-18
5.708661E+03	1.469908E-16	5.526228E-18
5.718504E+03	1.460318E-16	5.482798E-18
5.728346E+03	1.453770E-16	5.451009E-18
5.738189E+03	1.450231E-16	5.430699E-18
5.748031E+03	1.449599E-16	5.421445E-18
5.757874E+03	1.451731E-16	5.422674E-18
5.767717E+03	1.456438E-16	5.433644E-18
5.777559E+03	1.463534E-16	5.453635E-18
5.787402E+03	1.472794E-16	5.481785E-18
5.797244E+03	1.483957E-16	5.517103E-18
5.807087E+03	1.496768E-16	5.558624E-18
5.816929E+03	1.510917E-16	5.605191E-18
5.826772E+03	1.526102E-16	5.655678E-18
5.836614E+03	1.541960E-16	5.708736E-18
5.846457E+03	1.558102E-16	5.762934E-18
5.856299E+03	1.574173E-16	5.816969E-18
5.866142E+03	1.589747E-16	5.869278E-18
5.875984E+03	1.604397E-16	5.918305E-18
5.885827E+03	1.617744E-16	5.962677E-18
5.895669E+03	1.629415E-16	6.001036E-18
5.905512E+03	1.639093E-16	6.032250E-18
5.915354E+03	1.646534E-16	6.055438E-18
5.925197E+03	1.651568E-16	6.070015E-18
5.935039E+03	1.654096E-16	6.075632E-18
5.944882E+03	1.654145E-16	6.072417E-18
5.954724E+03	1.651796E-16	6.060693E-18
5.964567E+03	1.647252E-16	6.041214E-18
5.974409E+03	1.640718E-16	6.014758E-18
5.984252E+03	1.632516E-16	5.982507E-18
5.994094E+03	1.622963E-16	5.945637E-18
6.003937E+03	1.612439E-16	5.905540E-18
6.013780E+03	1.601293E-16	5.863505E-18
6.023622E+03	1.589903E-16	5.820909E-18
6.033465E+03	1.578653E-16	5.779164E-18
6.043307E+03	1.567862E-16	5.739433E-18
6.053150E+03	1.557863E-16	5.702934E-18
6.062992E+03	1.548992E-16	5.670901E-18
6.072835E+03	1.541457E-16	5.644091E-18
6.082677E+03	1.535537E-16	5.623530E-18
6.092520E+03	1.531365E-16	5.609710E-18
6.102362E+03	1.529132E-16	5.603321E-18
6.112205E+03	1.528936E-16	5.604722E-18
6.122047E+03	1.530855E-16	5.614200E-18
6.131890E+03	1.534949E-16	5.631973E-18
6.141732E+03	1.541206E-16	5.658010E-18
6.151575E+03	1.549598E-16	5.692209E-18
6.161417E+03	1.560052E-16	5.734316E-18
6.171260E+03	1.572452E-16	5.783913E-18
6.181102E+03	1.586625E-16	5.840377E-18
6.190945E+03	1.602360E-16	5.902941E-18
6.200787E+03	1.619346E-16	5.970475E-18
6.210630E+03	1.637233E-16	6.041696E-18
6.220472E+03	1.655637E-16	6.115192E-18
6.230315E+03	1.674094E-16	6.189255E-18
6.240157E+03	1.692138E-16	6.262155E-18
6.250000E+03	1.709323E-16	6.332235E-18
6.259843E+03	1.725198E-16	6.397813E-18
6.269685E+03	1.739326E-16	6.457248E-18
6.279528E+03	1.751371E-16	6.509258E-18
6.289370E+03	1.761036E-16	6.552716E-18
6.299213E+03	1.768086E-16	6.586708E-18
6.309055E+03	1.772439E-16	6.610883E-18
6.318898E+03	1.774035E-16	6.624972E-18
6.328740E+03	1.772916E-16	6.629090E-18
6.338583E+03	1.769205E-16	6.623646E-18
6.348425E+03	1.763083E-16	6.609276E-18
6.358268E+03	1.754802E-16	6.586876E-18
6.368110E+03	1.744617E-16	6.557365E-18
6.377953E+03	1.732772E-16	6.521624E-18
6.387795E+03	1.719550E-16	6.480684E-18
6.397638E+03	1.705187E-16	6.435397E-18
6.407480E+03	1.689910E-16	6.386601E-18
6.417323E+03	1.673843E-16	6.334738E-18
6.427165E+03	1.657153E-16	6.280417E-18
6.437008E+03	1.639923E-16	6.223938E-18
6.446850E+03	1.622209E-16	6.165495E-18
6.456693E+03	1.604040E-16	6.105182E-18
6.466535E+03	1.585434E-16	6.043049E-18
6.476378E+03	1.566406E-16	5.979143E-18
6.486220E+03	1.547002E-16	5.913621E-18
6.496063E+03	1.527255E-16	5.846599E-18
6.505906E+03	1.507206E-16	5.778225E-18
6.515748E+03	1.486905E-16	5.708675E-18
6.525591E+03	1.466420E-16	5.638202E-18
6.535433E+03	1.445792E-16	5.566960E-18
6.545276E+03	1.425035E-16	5.494990E-18
6.555118E+03	1.404206E-16	5.422509E-18
6.564961E+03	1.383298E-16	5.349481E-18
6.574803E+03	1.362333E-16	5.275991E-18
6.584646E+03	1.341291E-16	5.201957E-18
6.594488E+03	1.320203E-16	5.127490E-18
6.604331E+03	1.299023E-16	5.052414E-18
6.614173E+03	1.277773E-16	4.976809E-18
6.624016E+03	1.256423E-16	4.900552E-18
6.633858E+03	1.234975E-16	4.823653E-18
6.643701E+03	1.213420E-16	4.746070E-18
6.653543E+03	1.191757E-16	4.667801E-18
6.663386E+03	1.170000E-16	4.588892E-18
6.673228E+03	1.148190E-16	4.509508E-18
6.683071E+03	1.126354E-16	4.429750E-18
6.692913E+03	1.104548E-16	4.349846E-18
6.702756E+03	1.082865E-16	4.270152E-18
6.712598E+03	1.061387E-16	4.191006E-18
6.722441E+03	1.040200E-16	4.112745E-18
6.732283E+03	1.019439E-16	4.035913E-18
6.742126E+03	9.991909E-17	3.960860E-18
6.751969E+03	9.796039E-17	3.888184E-18
6.761811E+03	9.607878E-17	3.818334E-18
6.771654E+03	9.428643E-17	3.751807E-18
6.781496E+03	9.259673E-17	3.689151E-18
6.791339E+03	9.101996E-17	3.630793E-18
6.801181E+03	8.956687E-17	3.577180E-18
6.811024E+03	8.824885E-17	3.528789E-18
6.820866E+03	8.707367E-17	3.485950E-18
6.830709E+03	8.604966E-17	3.449020E-18
6.840551E+03	8.518554E-17	3.418371E-18
6.850394E+03	8.448791E-17	3.394291E-18
6.860236E+03	8.396034E-17	3.376950E-18
6.870079E+03	8.361145E-17	3.366717E-18
6.879921E+03	8.344194E-17	3.363646E-18
6.889764E+03	8.345780E-17	3.368004E-18
6.899606E+03	8.366134E-17	3.379909E-18
6.909449E+03	8.405156E-17	3.399345E-18
6.919291E+03	8.463068E-17	3.426427E-18
6.929134E+03	8.539512E-17	3.461035E-18
6.938976E+03	8.634034E-17	3.503006E-18
6.948819E+03	8.745938E-17	3.552082E-18
6.958661E+03	8.874227E-17	3.607878E-18
6.968504E+03	9.017610E-17	3.669889E-18
6.978346E+03	9.174606E-17	3.737529E-18
6.988189E+03	9.343372E-17	3.810063E-18
6.998031E+03	9.522061E-17	3.886750E-18
7.007874E+03	9.708920E-17	3.966886E-18
7.017717E+03	9.901964E-17	4.049667E-18
7.027559E+03	1.009943E-16	4.134382E-18
7.037402E+03	1.029971E-16	4.220369E-18
7.047244E+03	1.050139E-16	4.307058E-18
7.057087E+03	1.070311E-16	4.393894E-18
7.066929E+03	1.090406E-16	4.480537E-18
7.076772E+03	1.110331E-16	4.566614E-18
7.086614E+03	1.130037E-16	4.651913E-18
7.096457E+03	1.149475E-16	4.736234E-18
7.106299E+03	1.168647E-16	4.819583E-18
7.116142E+03	1.187558E-16	4.901982E-18
7.125984E+03	1.206205E-16	4.983413E-18
7.135827E+03	1.224588E-16	5.063882E-18
7.145669E+03	1.242768E-16	5.143629E-18
7.155512E+03	1.260704E-16	5.222497E-18
7.165354E+03	1.278436E-16	5.300644E-18
7.175197E+03	1.295933E-16	5.377945E-18
7.185039E+03	1.313158E-16	5.454249E-18
7.194882E+03	1.330033E-16	5.529227E-18
7.204724E+03	1.346484E-16	5.602575E-18
7.214567E+03	1.362351E-16	5.673626E-18
7.224409E+03	1.377518E-16	5.741893E-18
7.234252E+03	1.391761E-16	5.806434E-18
7.244094E+03	1.404891E-16	5.866458E-18
7.253937E+03	1.416657E-16	5.920911E-18
7.263780E+03	1.426815E-16	5.968760E-18
7.273622E+03	1.435120E-16	6.008962E-18
7.283465E+03	1.441324E-16	6.040466E-18
7.293307E+03	1.445199E-16	6.062293E-18
7.303150E+03	1.446524E-16	6.073493E-18
7.312992E+03	1.445165E-16	6.073477E-18
7.322835E+03	1.441021E-16	6.061797E-18
7.332677E+03	1.434037E-16	6.038191E-18
7.342520E+03	1.424275E-16	6.002890E-18
7.352362E+03	1.411831E-16	5.956261E-18
7.362205E+03	1.396912E-16	5.899153E-18
7.372047E+03	1.379774E-16	5.832624E-18
7.381890E+03	1.360729E-16	5.757958E-18
7.391732E+03	1.340105E-16	5.676527E-18
7.401575E+03	1.318296E-16	5.589975E-18
7.411417E+03	1.295670E-16	5.499853E-18
7.421260E+03	1.272572E-16	5.407600E-18
7.431102E+03	1.249302E-16	5.314484E-18
7.440945E+03	1.226073E-16	5.221407E-18
7.450787E+03	1.203091E-16	5.129238E-18
7.460630E+03	1.180557E-16	5.038834E-18
7.470472E+03	1.158643E-16	4.950927E-18
7.480315E+03	1.137505E-16	4.866196E-18
7.490157E+03	1.117290E-16	4.785267E-18
7.500000E+03	1.098116E-16	4.708657E-18
7.509843E+03	1.080136E-16	4.637032E-18
7.519685E+03	1.063450E-16	4.570834E-18
7.529528E+03	1.048117E-16	4.510336E-18
7.539370E+03	1.034181E-16	4.455737E-18
7.549213E+03	1.021686E-16	4.407250E-18
7.559055E+03	1.010633E-16	4.364894E-18
7.568898E+03	1.001056E-16	4.328840E-18
7.578740E+03	9.929216E-17	4.298957E-18
7.588583E+03	9.862302E-17	4.275272E-18
7.598425E+03	9.809431E-17	4.257635E-18
7.608268E+03	9.770551E-17	4.246045E-18
7.618110E+03	9.744906E-17	4.240191E-18
7.627953E+03	9.732072E-17	4.239909E-18
7.637795E+03	9.731309E-17	4.244895E-18
