#wls	flux	fluxerr
1.574803E+03	7.955174E-18	7.736004E-19
1.614173E+03	8.049573E-18	7.807768E-19
1.653543E+03	8.131729E-18	7.866713E-19
1.692913E+03	8.201187E-18	7.912466E-19
1.732283E+03	8.257088E-18	7.944278E-19
1.771654E+03	8.298101E-18	7.960961E-19
1.811024E+03	8.317764E-18	7.956436E-19
1.850394E+03	8.312902E-18	7.927840E-19
1.889764E+03	8.273793E-18	7.866134E-19
1.929134E+03	8.195977E-18	7.767392E-19
1.968504E+03	8.079160E-18	7.631692E-19
2.007874E+03	7.931648E-18	7.467231E-19
2.047244E+03	7.777165E-18	7.296583E-19
2.086614E+03	7.662057E-18	7.163167E-19
2.125984E+03	7.638383E-18	7.115102E-19
2.165354E+03	7.744165E-18	7.186735E-19
2.204724E+03	7.990439E-18	7.386886E-19
2.244094E+03	8.353519E-18	7.692178E-19
2.283465E+03	8.797128E-18	8.067965E-19
2.322835E+03	9.287049E-18	8.481978E-19
2.362205E+03	9.796980E-18	8.909636E-19
2.401575E+03	1.031804E-17	9.342519E-19
2.440945E+03	1.084231E-17	9.773210E-19
2.480315E+03	1.137317E-17	1.020455E-18
2.519685E+03	1.191527E-17	1.064047E-18
2.559055E+03	1.247104E-17	1.108281E-18
2.598425E+03	1.305026E-17	1.153987E-18
2.637795E+03	1.365763E-17	1.201533E-18
2.677165E+03	1.429769E-17	1.251257E-18
2.716535E+03	1.498053E-17	1.303975E-18
2.755906E+03	1.570870E-17	1.359825E-18
2.795276E+03	1.649248E-17	1.419606E-18
2.834646E+03	1.733847E-17	1.483775E-18
2.874016E+03	1.825338E-17	1.552786E-18
2.913386E+03	1.924837E-17	1.627449E-18
2.952756E+03	2.032857E-17	1.708040E-18
2.962598E+03	2.061378E-17	1.729249E-18
2.972441E+03	2.090390E-17	1.750780E-18
2.982283E+03	2.120121E-17	1.772822E-18
2.992126E+03	2.150589E-17	1.795385E-18
3.001969E+03	2.181593E-17	1.818299E-18
3.011811E+03	2.213613E-17	1.841960E-18
3.021654E+03	2.245974E-17	1.865802E-18
3.031496E+03	2.279427E-17	1.890448E-18
3.041339E+03	2.313578E-17	1.915564E-18
3.051181E+03	2.348472E-17	1.941186E-18
3.061024E+03	2.384564E-17	1.967684E-18
3.070866E+03	2.421378E-17	1.994660E-18
3.080709E+03	2.459138E-17	2.022296E-18
3.090551E+03	2.498074E-17	2.050776E-18
3.100394E+03	2.537708E-17	2.079701E-18
3.110236E+03	2.578512E-17	2.109454E-18
3.120079E+03	2.620242E-17	2.139830E-18
3.129921E+03	2.662896E-17	2.170824E-18
3.139764E+03	2.706471E-17	2.202427E-18
3.149606E+03	2.751212E-17	2.234834E-18
3.159449E+03	2.796873E-17	2.267840E-18
3.169291E+03	2.843454E-17	2.301438E-18
3.179134E+03	2.891204E-17	2.335827E-18
3.188976E+03	2.940127E-17	2.371003E-18
3.198819E+03	2.989974E-17	2.406760E-18
3.208661E+03	3.041001E-17	2.443296E-18
3.218504E+03	3.092953E-17	2.480404E-18
3.228346E+03	3.146090E-17	2.518285E-18
3.238189E+03	3.200415E-17	2.556937E-18
3.248031E+03	3.255934E-17	2.596355E-18
3.257874E+03	3.312648E-17	2.636537E-18
3.267717E+03	3.370563E-17	2.677479E-18
3.277559E+03	3.429682E-17	2.719177E-18
3.287402E+03	3.490005E-17	2.761625E-18
3.297244E+03	3.551805E-17	2.805033E-18
3.307087E+03	3.614547E-17	2.848969E-18
3.316929E+03	3.678769E-17	2.893853E-18
3.326772E+03	3.744477E-17	2.939679E-18
3.336614E+03	3.811397E-17	2.986228E-18
3.346457E+03	3.879529E-17	3.033490E-18
3.356299E+03	3.949145E-17	3.081671E-18
3.366142E+03	4.020245E-17	3.130764E-18
3.375984E+03	4.092547E-17	3.180540E-18
3.385827E+03	4.166606E-17	3.231423E-18
3.395669E+03	4.241854E-17	3.282965E-18
3.405512E+03	4.318566E-17	3.335369E-18
3.415354E+03	4.397018E-17	3.388842E-18
3.425197E+03	4.476916E-17	3.443146E-18
3.435039E+03	4.558246E-17	3.498263E-18
3.444882E+03	4.640995E-17	3.554174E-18
3.454724E+03	4.725433E-17	3.611079E-18
3.464567E+03	4.811254E-17	3.668732E-18
3.474409E+03	4.898727E-17	3.727331E-18
3.484252E+03	4.987830E-17	3.786851E-18
3.494094E+03	5.078242E-17	3.847038E-18
3.503937E+03	5.170229E-17	3.908084E-18
3.513780E+03	5.264057E-17	3.970183E-18
3.523622E+03	5.359096E-17	4.032848E-18
3.533465E+03	5.455905E-17	4.096493E-18
3.543307E+03	5.554144E-17	4.160852E-18
3.553150E+03	5.653767E-17	4.225881E-18
3.562992E+03	5.755028E-17	4.291762E-18
3.572835E+03	5.857571E-17	4.358221E-18
3.582677E+03	5.961644E-17	4.425434E-18
3.592520E+03	6.067189E-17	4.493346E-18
3.602362E+03	6.174141E-17	4.561904E-18
3.612205E+03	6.282432E-17	4.631046E-18
3.622047E+03	6.391990E-17	4.700713E-18
3.631890E+03	6.502738E-17	4.770839E-18
3.641732E+03	6.614595E-17	4.841358E-18
3.651575E+03	6.727784E-17	4.912425E-18
3.661417E+03	6.841909E-17	4.983744E-18
3.671260E+03	6.957181E-17	5.055461E-18
3.681102E+03	7.073194E-17	5.127275E-18
3.690945E+03	7.190151E-17	5.199327E-18
3.700787E+03	7.308271E-17	5.271770E-18
3.710630E+03	7.426801E-17	5.344053E-18
3.720472E+03	7.545952E-17	5.416325E-18
3.730315E+03	7.665913E-17	5.488717E-18
3.740157E+03	7.786246E-17	5.560910E-18
3.750000E+03	7.906830E-17	5.632816E-18
3.759843E+03	8.027850E-17	5.704562E-18
3.769685E+03	8.148849E-17	5.775822E-18
3.779528E+03	8.270023E-17	5.846734E-18
3.789370E+03	8.391218E-17	5.917187E-18
3.799213E+03	8.512300E-17	5.987085E-18
3.809055E+03	8.632822E-17	6.056116E-18
3.818898E+03	8.753264E-17	6.124617E-18
3.828740E+03	8.872848E-17	6.192044E-18
3.838583E+03	8.992057E-17	6.258738E-18
3.848425E+03	9.110437E-17	6.324386E-18
3.858268E+03	9.227830E-17	6.388881E-18
3.868110E+03	9.344082E-17	6.452123E-18
3.877953E+03	9.459351E-17	6.514227E-18
3.887795E+03	9.573159E-17	6.574869E-18
3.897638E+03	9.685636E-17	6.634146E-18
3.907480E+03	9.796271E-17	6.691716E-18
3.917323E+03	9.904817E-17	6.747421E-18
3.927165E+03	1.001130E-16	6.801293E-18
3.937008E+03	1.011541E-16	6.853124E-18
3.946850E+03	1.021650E-16	6.902504E-18
3.956693E+03	1.031424E-16	6.949217E-18
3.966535E+03	1.040826E-16	6.993042E-18
3.976378E+03	1.049851E-16	7.033960E-18
3.986220E+03	1.058435E-16	7.071565E-18
3.996063E+03	1.066573E-16	7.105855E-18
4.005906E+03	1.074179E-16	7.136281E-18
4.015748E+03	1.081281E-16	7.163065E-18
4.025591E+03	1.087802E-16	7.185713E-18
4.035433E+03	1.093750E-16	7.204327E-18
4.045276E+03	1.099114E-16	7.218859E-18
4.055118E+03	1.103860E-16	7.229127E-18
4.064961E+03	1.107991E-16	7.235183E-18
4.074803E+03	1.111543E-16	7.237297E-18
4.084646E+03	1.114480E-16	7.235275E-18
4.094488E+03	1.116831E-16	7.229333E-18
4.104331E+03	1.118655E-16	7.219891E-18
4.114173E+03	1.119965E-16	7.207066E-18
4.124016E+03	1.120806E-16	7.191177E-18
4.133858E+03	1.121204E-16	7.172410E-18
4.143701E+03	1.121185E-16	7.150973E-18
4.153543E+03	1.120852E-16	7.127539E-18
4.163386E+03	1.120193E-16	7.102047E-18
4.173228E+03	1.119311E-16	7.075175E-18
4.183071E+03	1.118201E-16	7.046898E-18
4.192913E+03	1.116969E-16	7.017910E-18
4.202756E+03	1.115617E-16	6.988221E-18
4.212598E+03	1.114254E-16	6.958524E-18
4.222441E+03	1.112887E-16	6.928871E-18
4.232283E+03	1.111627E-16	6.899941E-18
4.242126E+03	1.110482E-16	6.871788E-18
4.251969E+03	1.109539E-16	6.844942E-18
4.261811E+03	1.108844E-16	6.819672E-18
4.271654E+03	1.108440E-16	6.796235E-18
4.281496E+03	1.108385E-16	6.774975E-18
4.291339E+03	1.108718E-16	6.756104E-18
4.301181E+03	1.109473E-16	6.739812E-18
4.311024E+03	1.110702E-16	6.726392E-18
4.320866E+03	1.112453E-16	6.716108E-18
4.330709E+03	1.114736E-16	6.708995E-18
4.340551E+03	1.117599E-16	6.705310E-18
4.350394E+03	1.121083E-16	6.705276E-18
4.360236E+03	1.125215E-16	6.709012E-18
4.370079E+03	1.130015E-16	6.716614E-18
4.379921E+03	1.135536E-16	6.728356E-18
4.389764E+03	1.141773E-16	6.744167E-18
4.399606E+03	1.148750E-16	6.764166E-18
4.409449E+03	1.156487E-16	6.788418E-18
4.419291E+03	1.164996E-16	6.816962E-18
4.429134E+03	1.174267E-16	6.849699E-18
4.438976E+03	1.184282E-16	6.886485E-18
4.448819E+03	1.195066E-16	6.927431E-18
4.458661E+03	1.206567E-16	6.972202E-18
4.468504E+03	1.218759E-16	7.020610E-18
4.478346E+03	1.231602E-16	7.072394E-18
4.488189E+03	1.245061E-16	7.127324E-18
4.498031E+03	1.259039E-16	7.184815E-18
4.507874E+03	1.273471E-16	7.244481E-18
4.517717E+03	1.288265E-16	7.305779E-18
4.527559E+03	1.303314E-16	7.368096E-18
4.537402E+03	1.318480E-16	7.430640E-18
4.547244E+03	1.333629E-16	7.492666E-18
4.557087E+03	1.348659E-16	7.553608E-18
4.566929E+03	1.363391E-16	7.612476E-18
4.576772E+03	1.377678E-16	7.668482E-18
4.586614E+03	1.391399E-16	7.720978E-18
4.596457E+03	1.404425E-16	7.769295E-18
4.606299E+03	1.416620E-16	7.812717E-18
4.616142E+03	1.427899E-16	7.850833E-18
4.625984E+03	1.438182E-16	7.883251E-18
4.635827E+03	1.447385E-16	7.909575E-18
4.645669E+03	1.455493E-16	7.929785E-18
4.655512E+03	1.462432E-16	7.943538E-18
4.665354E+03	1.468195E-16	7.950861E-18
4.675197E+03	1.472765E-16	7.951725E-18
4.685039E+03	1.476154E-16	7.946258E-18
4.694882E+03	1.478345E-16	7.934431E-18
4.704724E+03	1.479373E-16	7.916496E-18
4.714567E+03	1.479274E-16	7.892701E-18
4.724409E+03	1.478084E-16	7.863296E-18
4.734252E+03	1.475930E-16	7.829010E-18
4.744094E+03	1.472851E-16	7.790101E-18
4.753937E+03	1.469016E-16	7.747499E-18
4.763780E+03	1.464535E-16	7.701822E-18
4.773622E+03	1.459578E-16	7.653979E-18
4.783465E+03	1.454289E-16	7.604746E-18
4.793307E+03	1.448883E-16	7.555252E-18
4.803150E+03	1.443531E-16	7.506390E-18
4.812992E+03	1.438450E-16	7.459280E-18
4.822835E+03	1.433841E-16	7.414939E-18
4.832677E+03	1.429921E-16	7.374472E-18
4.842520E+03	1.426900E-16	7.338920E-18
4.852362E+03	1.424924E-16	7.308993E-18
4.862205E+03	1.424179E-16	7.285599E-18
4.872047E+03	1.424813E-16	7.269432E-18
4.881890E+03	1.426884E-16	7.260738E-18
4.891732E+03	1.430492E-16	7.259959E-18
4.901575E+03	1.435615E-16	7.266925E-18
4.911417E+03	1.442266E-16	7.281641E-18
4.921260E+03	1.450396E-16	7.303796E-18
4.931102E+03	1.459906E-16	7.332842E-18
4.940945E+03	1.470709E-16	7.368287E-18
4.950787E+03	1.482682E-16	7.409471E-18
4.960630E+03	1.495668E-16	7.455561E-18
4.970472E+03	1.509470E-16	7.505555E-18
4.980315E+03	1.523917E-16	7.558567E-18
4.990157E+03	1.538816E-16	7.613620E-18
5.000000E+03	1.553994E-16	7.669853E-18
5.009843E+03	1.569264E-16	7.726340E-18
5.019685E+03	1.584493E-16	7.782419E-18
5.029528E+03	1.599562E-16	7.837514E-18
5.039370E+03	1.614393E-16	7.891257E-18
5.049213E+03	1.628933E-16	7.943396E-18
5.059055E+03	1.643218E-16	7.994123E-18
5.068898E+03	1.657261E-16	8.043506E-18
5.078740E+03	1.671174E-16	8.092106E-18
5.088583E+03	1.685025E-16	8.140258E-18
5.098425E+03	1.698881E-16	8.188285E-18
5.108268E+03	1.712858E-16	8.236746E-18
5.118110E+03	1.727015E-16	8.285928E-18
5.127953E+03	1.741345E-16	8.335798E-18
5.137795E+03	1.755878E-16	8.386489E-18
5.147638E+03	1.770590E-16	8.437885E-18
5.157480E+03	1.785501E-16	8.490075E-18
5.167323E+03	1.800540E-16	8.542730E-18
5.177165E+03	1.815699E-16	8.595801E-18
5.187008E+03	1.830927E-16	8.649054E-18
5.196850E+03	1.846195E-16	8.702347E-18
5.206693E+03	1.861472E-16	8.755543E-18
5.216535E+03	1.876700E-16	8.808373E-18
5.226378E+03	1.891862E-16	8.860757E-18
5.236220E+03	1.906886E-16	8.912366E-18
5.246063E+03	1.921705E-16	8.962899E-18
5.255906E+03	1.936243E-16	9.012013E-18
5.265748E+03	1.950373E-16	9.059124E-18
5.275591E+03	1.964042E-16	9.104008E-18
5.285433E+03	1.977108E-16	9.146023E-18
5.295276E+03	1.989478E-16	9.184762E-18
5.305118E+03	2.001076E-16	9.219893E-18
5.314961E+03	2.011808E-16	9.251012E-18
5.324803E+03	2.021639E-16	9.277973E-18
5.334646E+03	2.030472E-16	9.300367E-18
5.344488E+03	2.038283E-16	9.318110E-18
5.354331E+03	2.045014E-16	9.330961E-18
5.364173E+03	2.050632E-16	9.338795E-18
5.374016E+03	2.055108E-16	9.341519E-18
5.383858E+03	2.058416E-16	9.339030E-18
5.393701E+03	2.060525E-16	9.331228E-18
5.403543E+03	2.061380E-16	9.317893E-18
5.413386E+03	2.060990E-16	9.299089E-18
5.423228E+03	2.059266E-16	9.274454E-18
5.433071E+03	2.056182E-16	9.243895E-18
5.442913E+03	2.051696E-16	9.207258E-18
5.452756E+03	2.045709E-16	9.164131E-18
5.462598E+03	2.038151E-16	9.114232E-18
5.472441E+03	2.028918E-16	9.057140E-18
5.482283E+03	2.017917E-16	8.992470E-18
5.492126E+03	2.005027E-16	8.919724E-18
5.501969E+03	1.990157E-16	8.838537E-18
5.511811E+03	1.973180E-16	8.748386E-18
5.521654E+03	1.954060E-16	8.649162E-18
5.531496E+03	1.932747E-16	8.540685E-18
5.541339E+03	1.909304E-16	8.423270E-18
5.551181E+03	1.883875E-16	8.297602E-18
5.561024E+03	1.856602E-16	8.164336E-18
5.570866E+03	1.827779E-16	8.024801E-18
5.580709E+03	1.797762E-16	7.880580E-18
5.590551E+03	1.766928E-16	7.733346E-18
5.600394E+03	1.735684E-16	7.584885E-18
5.610236E+03	1.704468E-16	7.437114E-18
5.620079E+03	1.673675E-16	7.291740E-18
5.629921E+03	1.643734E-16	7.150618E-18
5.639764E+03	1.614981E-16	7.015189E-18
5.649606E+03	1.587795E-16	6.887065E-18
5.659449E+03	1.562487E-16	6.767555E-18
5.669291E+03	1.539317E-16	6.657748E-18
5.679134E+03	1.518565E-16	6.558809E-18
5.688976E+03	1.500405E-16	6.471442E-18
5.698819E+03	1.485027E-16	6.396412E-18
5.708661E+03	1.472552E-16	6.334191E-18
5.718504E+03	1.463047E-16	6.285020E-18
5.728346E+03	1.456485E-16	6.248724E-18
5.738189E+03	1.452851E-16	6.225196E-18
5.748031E+03	1.452027E-16	6.213882E-18
5.757874E+03	1.453871E-16	6.214135E-18
5.767717E+03	1.458215E-16	6.225197E-18
5.777559E+03	1.464861E-16	6.246193E-18
5.787402E+03	1.473593E-16	6.276168E-18
5.797244E+03	1.484172E-16	6.314083E-18
5.807087E+03	1.496318E-16	6.358726E-18
5.816929E+03	1.509778E-16	6.409017E-18
5.826772E+03	1.524213E-16	6.463499E-18
5.836614E+03	1.539289E-16	6.520760E-18
5.846457E+03	1.554652E-16	6.579300E-18
5.856299E+03	1.569951E-16	6.637637E-18
5.866142E+03	1.584766E-16	6.694017E-18
5.875984E+03	1.598753E-16	6.746995E-18
5.885827E+03	1.611490E-16	6.794818E-18
5.895669E+03	1.622709E-16	6.836374E-18
5.905512E+03	1.632074E-16	6.870276E-18
5.915354E+03	1.639378E-16	6.895684E-18
5.925197E+03	1.644480E-16	6.912030E-18
5.935039E+03	1.647292E-16	6.918973E-18
5.944882E+03	1.647836E-16	6.916633E-18
5.954724E+03	1.646187E-16	6.905345E-18
5.964567E+03	1.642487E-16	6.885726E-18
5.974409E+03	1.636987E-16	6.858851E-18
5.984252E+03	1.629907E-16	6.825652E-18
5.994094E+03	1.621594E-16	6.787590E-18
6.003937E+03	1.612357E-16	6.745972E-18
6.013780E+03	1.602543E-16	6.702256E-18
6.023622E+03	1.592485E-16	6.657827E-18
6.033465E+03	1.582542E-16	6.614197E-18
6.043307E+03	1.573029E-16	6.572672E-18
6.053150E+03	1.564259E-16	6.534561E-18
6.062992E+03	1.556532E-16	6.501114E-18
6.072835E+03	1.550054E-16	6.473191E-18
6.082677E+03	1.545052E-16	6.451737E-18
6.092520E+03	1.541698E-16	6.437462E-18
6.102362E+03	1.540124E-16	6.430918E-18
6.112205E+03	1.540425E-16	6.432487E-18
6.122047E+03	1.542634E-16	6.442305E-18
6.131890E+03	1.546785E-16	6.460505E-18
6.141732E+03	1.552861E-16	6.487021E-18
6.151575E+03	1.560799E-16	6.521582E-18
6.161417E+03	1.570533E-16	6.563925E-18
6.171260E+03	1.581931E-16	6.613488E-18
6.181102E+03	1.594868E-16	6.669758E-18
6.190945E+03	1.609096E-16	6.731706E-18
6.200787E+03	1.624374E-16	6.798321E-18
6.210630E+03	1.640402E-16	6.868352E-18
6.220472E+03	1.656809E-16	6.940254E-18
6.230315E+03	1.673255E-16	7.012594E-18
6.240157E+03	1.689323E-16	7.083631E-18
6.250000E+03	1.704620E-16	7.151708E-18
6.259843E+03	1.718784E-16	7.215294E-18
6.269685E+03	1.731420E-16	7.272726E-18
6.279528E+03	1.742269E-16	7.322892E-18
6.289370E+03	1.751079E-16	7.364721E-18
6.299213E+03	1.757624E-16	7.397234E-18
6.309055E+03	1.761853E-16	7.420196E-18
6.318898E+03	1.763680E-16	7.433217E-18
6.328740E+03	1.763149E-16	7.436448E-18
6.338583E+03	1.760339E-16	7.430199E-18
6.348425E+03	1.755384E-16	7.415006E-18
6.358268E+03	1.748452E-16	7.391548E-18
6.368110E+03	1.739738E-16	7.360620E-18
6.377953E+03	1.729471E-16	7.323170E-18
6.387795E+03	1.717838E-16	7.279963E-18
6.397638E+03	1.705033E-16	7.231794E-18
6.407480E+03	1.691271E-16	7.179565E-18
6.417323E+03	1.676662E-16	7.123714E-18
6.427165E+03	1.661358E-16	7.064876E-18
6.437008E+03	1.645406E-16	7.003232E-18
6.446850E+03	1.628927E-16	6.939285E-18
6.456693E+03	1.611920E-16	6.873016E-18
6.466535E+03	1.594429E-16	6.804600E-18
6.476378E+03	1.576499E-16	6.734218E-18
6.486220E+03	1.558138E-16	6.661889E-18
6.496063E+03	1.539379E-16	6.587750E-18
6.505906E+03	1.520300E-16	6.512115E-18
6.515748E+03	1.500921E-16	6.435067E-18
6.525591E+03	1.481286E-16	6.356782E-18
6.535433E+03	1.461446E-16	6.277478E-18
6.545276E+03	1.441429E-16	6.197258E-18
6.555118E+03	1.421247E-16	6.116177E-18
6.564961E+03	1.400931E-16	6.034357E-18
6.574803E+03	1.380468E-16	5.951739E-18
6.584646E+03	1.359876E-16	5.868398E-18
6.594488E+03	1.339158E-16	5.784336E-18
6.604331E+03	1.318309E-16	5.699533E-18
6.614173E+03	1.297342E-16	5.614038E-18
6.624016E+03	1.276254E-16	5.527835E-18
6.633858E+03	1.255039E-16	5.440897E-18
6.643701E+03	1.233680E-16	5.353144E-18
6.653543E+03	1.212217E-16	5.264752E-18
6.663386E+03	1.190655E-16	5.175734E-18
6.673228E+03	1.169041E-16	5.086295E-18
6.683071E+03	1.147418E-16	4.996625E-18
6.692913E+03	1.125836E-16	4.906935E-18
6.702756E+03	1.104398E-16	4.817680E-18
6.712598E+03	1.083160E-16	4.729109E-18
6.722441E+03	1.062252E-16	4.641785E-18
6.732283E+03	1.041765E-16	4.556110E-18
6.742126E+03	1.021810E-16	4.472582E-18
6.751969E+03	1.002519E-16	4.391783E-18
6.761811E+03	9.839961E-17	4.314179E-18
6.771654E+03	9.663727E-17	4.240353E-18
6.781496E+03	9.497621E-17	4.170814E-18
6.791339E+03	9.342620E-17	4.106003E-18
6.801181E+03	9.199886E-17	4.046445E-18
6.811024E+03	9.070349E-17	3.992563E-18
6.820866E+03	8.954891E-17	3.944759E-18
6.830709E+03	8.854179E-17	3.903342E-18
6.840551E+03	8.769046E-17	3.868696E-18
6.850394E+03	8.700242E-17	3.841168E-18
6.860236E+03	8.647965E-17	3.820862E-18
6.870079E+03	8.613045E-17	3.808161E-18
6.879921E+03	8.595755E-17	3.803203E-18
6.889764E+03	8.596297E-17	3.806093E-18
6.899606E+03	8.615009E-17	3.816999E-18
6.909449E+03	8.652006E-17	3.835987E-18
6.919291E+03	8.707158E-17	3.863016E-18
6.929134E+03	8.780354E-17	3.898053E-18
6.938976E+03	8.871079E-17	3.940883E-18
6.948819E+03	8.978712E-17	3.991245E-18
6.958661E+03	9.102441E-17	4.048791E-18
6.968504E+03	9.240982E-17	4.112962E-18
6.978346E+03	9.393117E-17	4.183227E-18
6.988189E+03	9.557046E-17	4.258794E-18
6.998031E+03	9.731227E-17	4.338983E-18
7.007874E+03	9.913800E-17	4.422971E-18
7.017717E+03	1.010337E-16	4.510139E-18
7.027559E+03	1.029788E-16	4.599577E-18
7.037402E+03	1.049608E-16	4.690729E-18
7.047244E+03	1.069648E-16	4.782923E-18
7.057087E+03	1.089789E-16	4.875634E-18
7.066929E+03	1.109927E-16	4.968393E-18
7.076772E+03	1.129965E-16	5.060768E-18
7.086614E+03	1.149839E-16	5.152470E-18
7.096457E+03	1.169502E-16	5.243287E-18
7.106299E+03	1.188942E-16	5.333161E-18
7.116142E+03	1.208094E-16	5.421805E-18
7.125984E+03	1.226985E-16	5.509330E-18
7.135827E+03	1.245613E-16	5.595735E-18
7.145669E+03	1.263942E-16	5.680850E-18
7.155512E+03	1.281964E-16	5.764638E-18
7.165354E+03	1.299673E-16	5.847079E-18
7.175197E+03	1.317018E-16	5.927934E-18
7.185039E+03	1.333924E-16	6.006870E-18
7.194882E+03	1.350331E-16	6.083615E-18
7.204724E+03	1.366120E-16	6.157626E-18
7.214567E+03	1.381163E-16	6.228329E-18
7.224409E+03	1.395305E-16	6.295022E-18
7.234252E+03	1.408367E-16	6.356895E-18
7.244094E+03	1.420115E-16	6.412882E-18
7.253937E+03	1.430357E-16	6.462113E-18
7.263780E+03	1.438896E-16	6.503696E-18
7.273622E+03	1.445456E-16	6.536369E-18
7.283465E+03	1.449888E-16	6.559452E-18
7.293307E+03	1.451939E-16	6.571785E-18
7.303150E+03	1.451488E-16	6.572816E-18
7.312992E+03	1.448419E-16	6.561998E-18
7.322835E+03	1.442618E-16	6.538813E-18
7.332677E+03	1.434098E-16	6.503293E-18
7.342520E+03	1.422930E-16	6.455751E-18
7.352362E+03	1.409191E-16	6.396520E-18
7.362205E+03	1.393096E-16	6.326562E-18
7.372047E+03	1.374879E-16	6.246934E-18
7.381890E+03	1.354799E-16	6.158790E-18
7.391732E+03	1.333169E-16	6.063546E-18
7.401575E+03	1.310341E-16	5.962794E-18
7.411417E+03	1.286650E-16	5.858050E-18
7.421260E+03	1.262418E-16	5.750766E-18
7.431102E+03	1.237924E-16	5.642212E-18
7.440945E+03	1.213415E-16	5.533504E-18
7.450787E+03	1.189134E-16	5.425753E-18
7.460630E+03	1.165293E-16	5.319926E-18
7.470472E+03	1.142073E-16	5.216847E-18
7.480315E+03	1.119676E-16	5.117441E-18
7.490157E+03	1.098288E-16	5.022557E-18
7.500000E+03	1.078044E-16	4.932824E-18
7.509843E+03	1.059094E-16	4.848928E-18
7.519685E+03	1.041533E-16	4.771318E-18
7.529528E+03	1.025439E-16	4.700352E-18
7.539370E+03	1.010880E-16	4.636350E-18
7.549213E+03	9.978570E-17	4.579334E-18
7.559055E+03	9.863612E-17	4.529269E-18
7.568898E+03	9.764124E-17	4.486257E-18
7.578740E+03	9.679780E-17	4.450159E-18
7.588583E+03	9.610273E-17	4.420844E-18
7.598425E+03	9.555244E-17	4.398157E-18
7.608268E+03	9.514232E-17	4.381895E-18
7.618110E+03	9.486819E-17	4.371877E-18
7.627953E+03	9.472200E-17	4.367740E-18
7.637795E+03	9.469607E-17	4.369139E-18
