#wls	flux	fluxerr
1.574803E+03	7.604963E-18	5.519384E-19
1.614173E+03	7.713205E-18	5.588181E-19
1.653543E+03	7.810655E-18	5.648636E-19
1.692913E+03	7.896815E-18	5.700416E-19
1.732283E+03	7.970773E-18	5.742895E-19
1.771654E+03	8.031122E-18	5.775097E-19
1.811024E+03	8.071520E-18	5.792517E-19
1.850394E+03	8.087252E-18	5.791853E-19
1.889764E+03	8.071482E-18	5.768321E-19
1.929134E+03	8.018125E-18	5.717723E-19
1.968504E+03	7.925178E-18	5.638808E-19
2.007874E+03	7.801845E-18	5.538304E-19
2.047244E+03	7.672536E-18	5.433657E-19
2.086614E+03	7.580359E-18	5.355362E-19
2.125984E+03	7.577331E-18	5.339891E-19
2.165354E+03	7.704508E-18	5.415629E-19
2.204724E+03	7.971419E-18	5.588527E-19
2.244094E+03	8.356778E-18	5.842888E-19
2.283465E+03	8.825104E-18	6.153245E-19
2.322835E+03	9.341176E-18	6.494556E-19
2.362205E+03	9.881626E-18	6.850261E-19
2.401575E+03	1.043301E-17	7.210837E-19
2.440945E+03	1.099186E-17	7.573736E-19
2.480315E+03	1.155665E-17	7.937782E-19
2.519685E+03	1.213515E-17	8.308155E-19
2.559055E+03	1.272805E-17	8.685153E-19
2.598425E+03	1.334506E-17	9.075175E-19
2.637795E+03	1.399086E-17	9.481121E-19
2.677165E+03	1.466992E-17	9.905708E-19
2.716535E+03	1.539044E-17	1.035408E-18
2.755906E+03	1.615875E-17	1.083006E-18
2.795276E+03	1.697915E-17	1.133603E-18
2.834646E+03	1.785999E-17	1.187700E-18
2.874016E+03	1.880775E-17	1.245661E-18
2.913386E+03	1.982895E-17	1.307849E-18
2.952756E+03	2.093474E-17	1.374917E-18
2.962598E+03	2.122431E-17	1.392430E-18
2.972441E+03	2.151881E-17	1.410217E-18
2.982283E+03	2.182060E-17	1.428432E-18
2.992126E+03	2.212750E-17	1.446931E-18
3.001969E+03	2.244208E-17	1.465879E-18
3.011811E+03	2.276228E-17	1.485140E-18
3.021654E+03	2.309045E-17	1.504867E-18
3.031496E+03	2.342497E-17	1.524950E-18
3.041339E+03	2.376640E-17	1.545426E-18
3.051181E+03	2.411522E-17	1.566323E-18
3.061024E+03	2.447366E-17	1.587784E-18
3.070866E+03	2.484163E-17	1.609801E-18
3.080709E+03	2.521658E-17	1.632205E-18
3.090551E+03	2.560081E-17	1.655145E-18
3.100394E+03	2.599428E-17	1.678614E-18
3.110236E+03	2.639689E-17	1.702604E-18
3.120079E+03	2.680608E-17	1.726947E-18
3.129921E+03	2.722427E-17	1.751798E-18
3.139764E+03	2.765141E-17	1.777150E-18
3.149606E+03	2.809001E-17	1.803161E-18
3.159449E+03	2.853494E-17	1.829501E-18
3.169291E+03	2.898869E-17	1.856326E-18
3.179134E+03	2.945124E-17	1.883633E-18
3.188976E+03	2.992254E-17	1.911416E-18
3.198819E+03	3.040258E-17	1.939672E-18
3.208661E+03	3.089397E-17	1.968563E-18
3.218504E+03	3.139140E-17	1.997750E-18
3.228346E+03	3.190015E-17	2.027567E-18
3.238189E+03	3.241754E-17	2.057838E-18
3.248031E+03	3.294624E-17	2.088733E-18
3.257874E+03	3.348084E-17	2.119903E-18
3.267717E+03	3.402943E-17	2.151860E-18
3.277559E+03	3.458383E-17	2.184082E-18
3.287402E+03	3.515224E-17	2.217085E-18
3.297244E+03	3.572633E-17	2.250340E-18
3.307087E+03	3.631442E-17	2.284368E-18
3.316929E+03	3.691089E-17	2.318812E-18
3.326772E+03	3.751849E-17	2.353843E-18
3.336614E+03	3.813434E-17	2.389276E-18
3.346457E+03	3.876121E-17	2.425281E-18
3.356299E+03	3.939904E-17	2.461853E-18
3.366142E+03	4.005064E-17	2.499162E-18
3.375984E+03	4.070728E-17	2.536661E-18
3.385827E+03	4.137752E-17	2.574880E-18
3.395669E+03	4.205836E-17	2.613629E-18
3.405512E+03	4.275262E-17	2.653080E-18
3.415354E+03	4.345431E-17	2.692856E-18
3.425197E+03	4.416618E-17	2.733126E-18
3.435039E+03	4.489106E-17	2.774062E-18
3.444882E+03	4.562581E-17	2.815465E-18
3.454724E+03	4.637322E-17	2.857504E-18
3.464567E+03	4.713009E-17	2.899978E-18
3.474409E+03	4.789618E-17	2.942870E-18
3.484252E+03	4.867426E-17	2.986346E-18
3.494094E+03	4.946410E-17	3.030388E-18
3.503937E+03	5.026235E-17	3.074787E-18
3.513780E+03	5.107175E-17	3.119708E-18
3.523622E+03	5.189200E-17	3.165129E-18
3.533465E+03	5.272274E-17	3.211025E-18
3.543307E+03	5.356051E-17	3.257180E-18
3.553150E+03	5.441112E-17	3.303946E-18
3.562992E+03	5.526792E-17	3.350915E-18
3.572835E+03	5.613670E-17	3.398436E-18
3.582677E+03	5.701389E-17	3.446288E-18
3.592520E+03	5.789898E-17	3.494437E-18
3.602362E+03	5.879145E-17	3.542851E-18
3.612205E+03	5.969389E-17	3.591681E-18
3.622047E+03	6.060261E-17	3.640702E-18
3.631890E+03	6.151698E-17	3.689875E-18
3.641732E+03	6.243955E-17	3.739350E-18
3.651575E+03	6.336968E-17	3.789085E-18
3.661417E+03	6.430353E-17	3.838848E-18
3.671260E+03	6.524355E-17	3.888785E-18
3.681102E+03	6.618583E-17	3.938659E-18
3.690945E+03	6.713287E-17	3.988618E-18
3.700787E+03	6.808384E-17	4.038612E-18
3.710630E+03	6.903794E-17	4.088590E-18
3.720472E+03	6.999441E-17	4.138507E-18
3.730315E+03	7.095238E-17	4.188310E-18
3.740157E+03	7.191104E-17	4.237949E-18
3.750000E+03	7.286949E-17	4.287372E-18
3.759843E+03	7.382360E-17	4.336336E-18
3.769685E+03	7.477898E-17	4.385170E-18
3.779528E+03	7.573466E-17	4.433816E-18
3.789370E+03	7.668332E-17	4.481847E-18
3.799213E+03	7.763036E-17	4.529579E-18
3.809055E+03	7.856858E-17	4.576592E-18
3.818898E+03	7.950649E-17	4.623384E-18
3.828740E+03	8.043363E-17	4.669347E-18
3.838583E+03	8.135538E-17	4.714797E-18
3.848425E+03	8.226746E-17	4.759485E-18
3.858268E+03	8.316899E-17	4.803365E-18
3.868110E+03	8.406193E-17	4.846553E-18
3.877953E+03	8.493900E-17	4.888631E-18
3.887795E+03	8.580821E-17	4.930065E-18
3.897638E+03	8.665915E-17	4.970259E-18
3.907480E+03	8.749648E-17	5.009486E-18
3.917323E+03	8.831558E-17	5.047486E-18
3.927165E+03	8.911495E-17	5.084178E-18
3.937008E+03	8.989578E-17	5.119637E-18
3.946850E+03	9.065013E-17	5.153417E-18
3.956693E+03	9.138224E-17	5.185766E-18
3.966535E+03	9.208719E-17	5.216413E-18
3.976378E+03	9.276002E-17	5.245085E-18
3.986220E+03	9.340497E-17	5.272031E-18
3.996063E+03	9.401450E-17	5.296838E-18
4.005906E+03	9.459004E-17	5.319593E-18
4.015748E+03	9.513027E-17	5.340236E-18
4.025591E+03	9.563150E-17	5.358570E-18
4.035433E+03	9.609584E-17	5.374726E-18
4.045276E+03	9.651732E-17	5.388382E-18
4.055118E+03	9.690160E-17	5.399867E-18
4.064961E+03	9.724903E-17	5.409213E-18
4.074803E+03	9.755222E-17	5.416020E-18
4.084646E+03	9.782053E-17	5.420823E-18
4.094488E+03	9.804999E-17	5.423413E-18
4.104331E+03	9.824530E-17	5.424062E-18
4.114173E+03	9.840597E-17	5.422754E-18
4.124016E+03	9.853210E-17	5.419506E-18
4.133858E+03	9.863160E-17	5.414763E-18
4.143701E+03	9.870248E-17	5.408426E-18
4.153543E+03	9.875051E-17	5.400820E-18
4.163386E+03	9.877438E-17	5.391882E-18
4.173228E+03	9.878269E-17	5.382087E-18
4.183071E+03	9.877440E-17	5.371385E-18
4.192913E+03	9.875604E-17	5.360136E-18
4.202756E+03	9.872932E-17	5.348438E-18
4.212598E+03	9.869852E-17	5.336524E-18
4.222441E+03	9.866560E-17	5.324502E-18
4.232283E+03	9.863733E-17	5.312739E-18
4.242126E+03	9.861563E-17	5.301337E-18
4.251969E+03	9.860269E-17	5.290413E-18
4.261811E+03	9.860699E-17	5.280418E-18
4.271654E+03	9.862614E-17	5.271220E-18
4.281496E+03	9.866837E-17	5.263256E-18
4.291339E+03	9.873319E-17	5.256491E-18
4.301181E+03	9.882622E-17	5.251220E-18
4.311024E+03	9.894892E-17	5.247511E-18
4.320866E+03	9.910440E-17	5.245521E-18
4.330709E+03	9.929364E-17	5.245293E-18
4.340551E+03	9.952164E-17	5.247080E-18
4.350394E+03	9.978705E-17	5.250800E-18
4.360236E+03	1.000963E-16	5.256783E-18
4.370079E+03	1.004479E-16	5.264933E-18
4.379921E+03	1.008438E-16	5.275344E-18
4.389764E+03	1.012859E-16	5.288104E-18
4.399606E+03	1.017777E-16	5.303378E-18
4.409449E+03	1.023145E-16	5.320916E-18
4.419291E+03	1.029011E-16	5.340944E-18
4.429134E+03	1.035358E-16	5.363366E-18
4.438976E+03	1.042185E-16	5.388164E-18
4.448819E+03	1.049485E-16	5.415282E-18
4.458661E+03	1.057223E-16	5.444539E-18
4.468504E+03	1.065399E-16	5.475917E-18
4.478346E+03	1.073965E-16	5.509155E-18
4.488189E+03	1.082866E-16	5.543965E-18
4.498031E+03	1.092094E-16	5.580298E-18
4.507874E+03	1.101578E-16	5.617783E-18
4.517717E+03	1.111236E-16	5.655999E-18
4.527559E+03	1.121018E-16	5.694690E-18
4.537402E+03	1.130833E-16	5.733385E-18
4.547244E+03	1.140598E-16	5.771678E-18
4.557087E+03	1.150255E-16	5.809266E-18
4.566929E+03	1.159701E-16	5.845647E-18
4.576772E+03	1.168878E-16	5.880533E-18
4.586614E+03	1.177674E-16	5.913374E-18
4.596457E+03	1.186063E-16	5.944049E-18
4.606299E+03	1.193950E-16	5.972095E-18
4.616142E+03	1.201326E-16	5.997497E-18
4.625984E+03	1.208141E-16	6.020008E-18
4.635827E+03	1.214352E-16	6.039441E-18
4.645669E+03	1.219986E-16	6.055946E-18
4.655512E+03	1.225022E-16	6.069441E-18
4.665354E+03	1.229481E-16	6.080051E-18
4.675197E+03	1.233332E-16	6.087632E-18
4.685039E+03	1.236614E-16	6.092404E-18
4.694882E+03	1.239308E-16	6.094286E-18
4.704724E+03	1.241431E-16	6.093379E-18
4.714567E+03	1.242964E-16	6.089618E-18
4.724409E+03	1.243922E-16	6.083079E-18
4.734252E+03	1.244364E-16	6.074080E-18
4.744094E+03	1.244290E-16	6.062631E-18
4.753937E+03	1.243772E-16	6.049098E-18
4.763780E+03	1.242878E-16	6.033821E-18
4.773622E+03	1.241687E-16	6.017195E-18
4.783465E+03	1.240311E-16	5.999765E-18
4.793307E+03	1.238834E-16	5.981947E-18
4.803150E+03	1.237369E-16	5.964285E-18
4.812992E+03	1.236050E-16	5.947419E-18
4.822835E+03	1.235014E-16	5.932005E-18
4.832677E+03	1.234322E-16	5.918330E-18
4.842520E+03	1.234157E-16	5.907261E-18
4.852362E+03	1.234569E-16	5.899020E-18
4.862205E+03	1.235683E-16	5.894194E-18
4.872047E+03	1.237556E-16	5.893034E-18
4.881890E+03	1.240264E-16	5.895882E-18
4.891732E+03	1.243828E-16	5.902817E-18
4.901575E+03	1.248304E-16	5.914082E-18
4.911417E+03	1.253670E-16	5.929560E-18
4.921260E+03	1.259892E-16	5.949060E-18
4.931102E+03	1.266986E-16	5.972644E-18
4.940945E+03	1.274846E-16	5.999793E-18
4.950787E+03	1.283441E-16	6.030345E-18
4.960630E+03	1.292696E-16	6.063924E-18
4.970472E+03	1.302520E-16	6.100104E-18
4.980315E+03	1.312805E-16	6.138357E-18
4.990157E+03	1.323474E-16	6.178317E-18
5.000000E+03	1.334452E-16	6.219629E-18
5.009843E+03	1.345611E-16	6.261698E-18
5.019685E+03	1.356915E-16	6.304342E-18
5.029528E+03	1.368277E-16	6.347163E-18
5.039370E+03	1.379647E-16	6.389928E-18
5.049213E+03	1.390992E-16	6.432492E-18
5.059055E+03	1.402316E-16	6.474864E-18
5.068898E+03	1.413597E-16	6.516957E-18
5.078740E+03	1.424850E-16	6.558832E-18
5.088583E+03	1.436114E-16	6.600680E-18
5.098425E+03	1.447414E-16	6.642610E-18
5.108268E+03	1.458756E-16	6.684657E-18
5.118110E+03	1.470162E-16	6.726917E-18
5.127953E+03	1.481649E-16	6.769472E-18
5.137795E+03	1.493246E-16	6.812452E-18
5.147638E+03	1.504958E-16	6.855881E-18
5.157480E+03	1.516739E-16	6.899546E-18
5.167323E+03	1.528619E-16	6.943592E-18
5.177165E+03	1.540565E-16	6.987861E-18
5.187008E+03	1.552554E-16	7.032258E-18
5.196850E+03	1.564586E-16	7.076774E-18
5.206693E+03	1.576588E-16	7.121089E-18
5.216535E+03	1.588550E-16	7.165160E-18
5.226378E+03	1.600436E-16	7.208825E-18
5.236220E+03	1.612203E-16	7.251896E-18
5.246063E+03	1.623805E-16	7.294170E-18
5.255906E+03	1.635190E-16	7.335418E-18
5.265748E+03	1.646281E-16	7.375302E-18
5.275591E+03	1.657039E-16	7.413661E-18
5.285433E+03	1.667384E-16	7.450136E-18
5.295276E+03	1.677282E-16	7.484596E-18
5.305118E+03	1.686669E-16	7.516753E-18
5.314961E+03	1.695504E-16	7.546446E-18
5.324803E+03	1.703778E-16	7.573637E-18
5.334646E+03	1.711432E-16	7.598078E-18
5.344488E+03	1.718431E-16	7.619630E-18
5.354331E+03	1.724744E-16	7.638155E-18
5.364173E+03	1.730356E-16	7.653609E-18
5.374016E+03	1.735206E-16	7.665732E-18
5.383858E+03	1.739233E-16	7.674265E-18
5.393701E+03	1.742439E-16	7.679233E-18
5.403543E+03	1.744779E-16	7.680449E-18
5.413386E+03	1.746155E-16	7.677496E-18
5.423228E+03	1.746559E-16	7.670355E-18
5.433071E+03	1.745908E-16	7.658677E-18
5.442913E+03	1.744164E-16	7.642306E-18
5.452756E+03	1.741210E-16	7.620752E-18
5.462598E+03	1.737049E-16	7.594045E-18
5.472441E+03	1.731563E-16	7.561686E-18
5.482283E+03	1.724710E-16	7.523506E-18
5.492126E+03	1.716405E-16	7.479155E-18
5.501969E+03	1.706644E-16	7.428637E-18
5.511811E+03	1.695348E-16	7.371631E-18
5.521654E+03	1.682554E-16	7.308308E-18
5.531496E+03	1.668256E-16	7.238667E-18
5.541339E+03	1.652504E-16	7.162941E-18
5.551181E+03	1.635408E-16	7.081626E-18
5.561024E+03	1.617072E-16	6.995182E-18
5.570866E+03	1.597680E-16	6.904425E-18
5.580709E+03	1.577431E-16	6.810218E-18
5.590551E+03	1.556551E-16	6.713547E-18
5.600394E+03	1.535289E-16	6.615488E-18
5.610236E+03	1.513927E-16	6.517259E-18
5.620079E+03	1.492689E-16	6.419820E-18
5.629921E+03	1.471877E-16	6.324465E-18
5.639764E+03	1.451741E-16	6.232262E-18
5.649606E+03	1.432494E-16	6.144109E-18
5.659449E+03	1.414368E-16	6.060987E-18
5.669291E+03	1.397547E-16	5.983672E-18
5.679134E+03	1.382191E-16	5.912825E-18
5.688976E+03	1.368427E-16	5.848980E-18
5.698819E+03	1.356355E-16	5.792541E-18
5.708661E+03	1.346045E-16	5.743787E-18
5.718504E+03	1.337538E-16	5.702871E-18
5.728346E+03	1.330845E-16	5.669823E-18
5.738189E+03	1.325968E-16	5.644631E-18
5.748031E+03	1.322846E-16	5.627018E-18
5.757874E+03	1.321413E-16	5.616687E-18
5.767717E+03	1.321596E-16	5.613310E-18
5.777559E+03	1.323264E-16	5.616324E-18
5.787402E+03	1.326305E-16	5.625232E-18
5.797244E+03	1.330550E-16	5.639309E-18
5.807087E+03	1.335830E-16	5.657838E-18
5.816929E+03	1.341986E-16	5.680127E-18
5.826772E+03	1.348800E-16	5.705260E-18
5.836614E+03	1.356069E-16	5.732370E-18
5.846457E+03	1.363599E-16	5.760637E-18
5.856299E+03	1.371155E-16	5.789069E-18
5.866142E+03	1.378541E-16	5.816843E-18
5.875984E+03	1.385509E-16	5.842917E-18
5.885827E+03	1.391902E-16	5.866634E-18
5.895669E+03	1.397522E-16	5.887165E-18
5.905512E+03	1.402217E-16	5.903882E-18
5.915354E+03	1.405865E-16	5.916279E-18
5.925197E+03	1.408381E-16	5.924006E-18
5.935039E+03	1.409740E-16	5.926962E-18
5.944882E+03	1.409897E-16	5.924978E-18
5.954724E+03	1.408892E-16	5.918217E-18
5.964567E+03	1.406841E-16	5.907180E-18
5.974409E+03	1.403833E-16	5.892252E-18
5.984252E+03	1.399991E-16	5.873944E-18
5.994094E+03	1.395477E-16	5.852948E-18
6.003937E+03	1.390513E-16	5.830190E-18
6.013780E+03	1.385250E-16	5.806317E-18
6.023622E+03	1.379888E-16	5.782156E-18
6.033465E+03	1.374646E-16	5.758632E-18
6.043307E+03	1.369702E-16	5.736486E-18
6.053150E+03	1.365242E-16	5.716502E-18
6.062992E+03	1.361466E-16	5.699507E-18
6.072835E+03	1.358513E-16	5.686090E-18
6.082677E+03	1.356550E-16	5.676944E-18
6.092520E+03	1.355664E-16	5.672425E-18
6.102362E+03	1.355997E-16	5.673130E-18
6.112205E+03	1.357610E-16	5.679303E-18
6.122047E+03	1.360555E-16	5.691159E-18
6.131890E+03	1.364853E-16	5.708785E-18
6.141732E+03	1.370497E-16	5.732148E-18
6.151575E+03	1.377470E-16	5.761176E-18
6.161417E+03	1.385670E-16	5.795437E-18
6.171260E+03	1.395038E-16	5.834688E-18
6.181102E+03	1.405420E-16	5.878282E-18
6.190945E+03	1.416645E-16	5.925505E-18
6.200787E+03	1.428512E-16	5.975512E-18
6.210630E+03	1.440785E-16	6.027323E-18
6.220472E+03	1.453231E-16	6.079956E-18
6.230315E+03	1.465552E-16	6.132170E-18
6.240157E+03	1.477461E-16	6.182764E-18
6.250000E+03	1.488674E-16	6.230542E-18
6.259843E+03	1.498935E-16	6.274434E-18
6.269685E+03	1.507961E-16	6.313252E-18
6.279528E+03	1.515522E-16	6.346028E-18
6.289370E+03	1.521442E-16	6.372027E-18
6.299213E+03	1.525568E-16	6.390591E-18
6.309055E+03	1.527767E-16	6.401166E-18
6.318898E+03	1.528002E-16	6.403587E-18
6.328740E+03	1.526262E-16	6.397792E-18
6.338583E+03	1.522554E-16	6.383815E-18
6.348425E+03	1.516972E-16	6.362032E-18
6.358268E+03	1.509617E-16	6.332862E-18
6.368110E+03	1.500617E-16	6.296828E-18
6.377953E+03	1.490132E-16	6.254596E-18
6.387795E+03	1.478261E-16	6.206576E-18
6.397638E+03	1.465196E-16	6.153561E-18
6.407480E+03	1.451050E-16	6.096018E-18
6.417323E+03	1.435972E-16	6.034566E-18
6.427165E+03	1.420052E-16	5.969578E-18
6.437008E+03	1.403412E-16	5.901556E-18
6.446850E+03	1.386137E-16	5.830858E-18
6.456693E+03	1.368285E-16	5.757714E-18
6.466535E+03	1.349965E-16	5.682583E-18
6.476378E+03	1.331196E-16	5.605539E-18
6.486220E+03	1.312079E-16	5.527003E-18
6.496063E+03	1.292648E-16	5.447111E-18
6.505906E+03	1.272956E-16	5.366085E-18
6.515748E+03	1.253073E-16	5.284214E-18
6.525591E+03	1.233047E-16	5.201696E-18
6.535433E+03	1.212900E-16	5.118627E-18
6.545276E+03	1.192690E-16	5.035245E-18
6.555118E+03	1.172452E-16	4.951690E-18
6.564961E+03	1.152211E-16	4.868079E-18
6.574803E+03	1.131994E-16	4.784511E-18
6.584646E+03	1.111822E-16	4.701077E-18
6.594488E+03	1.091727E-16	4.617913E-18
6.604331E+03	1.071708E-16	4.535014E-18
6.614173E+03	1.051780E-16	4.452440E-18
6.624016E+03	1.031974E-16	4.370324E-18
6.633858E+03	1.012307E-16	4.288733E-18
6.643701E+03	9.927813E-17	4.207681E-18
6.653543E+03	9.734533E-17	4.127404E-18
6.663386E+03	9.543184E-17	4.047884E-18
6.673228E+03	9.354266E-17	3.969332E-18
6.683071E+03	9.168324E-17	3.891981E-18
6.692913E+03	8.985493E-17	3.815888E-18
6.702756E+03	8.806580E-17	3.741398E-18
6.712598E+03	8.631976E-17	3.668677E-18
6.722441E+03	8.462276E-17	3.597981E-18
6.732283E+03	8.298250E-17	3.529640E-18
6.742126E+03	8.140390E-17	3.463864E-18
6.751969E+03	7.989375E-17	3.400947E-18
6.761811E+03	7.846002E-17	3.341229E-18
6.771654E+03	7.710803E-17	3.284943E-18
6.781496E+03	7.584554E-17	3.232423E-18
6.791339E+03	7.467876E-17	3.183937E-18
6.801181E+03	7.361232E-17	3.139687E-18
6.811024E+03	7.265176E-17	3.099915E-18
6.820866E+03	7.180330E-17	3.064893E-18
6.830709E+03	7.107149E-17	3.034818E-18
6.840551E+03	7.046031E-17	3.009868E-18
6.850394E+03	6.997093E-17	2.990097E-18
6.860236E+03	6.960976E-17	2.975787E-18
6.870079E+03	6.937677E-17	2.966940E-18
6.879921E+03	6.927363E-17	2.963637E-18
6.889764E+03	6.930245E-17	2.965971E-18
6.899606E+03	6.946343E-17	2.973960E-18
6.909449E+03	6.975476E-17	2.987530E-18
6.919291E+03	7.017484E-17	3.006619E-18
6.929134E+03	7.072107E-17	3.031123E-18
6.938976E+03	7.139101E-17	3.060942E-18
6.948819E+03	7.217875E-17	3.095828E-18
6.958661E+03	7.307971E-17	3.135590E-18
6.968504E+03	7.408460E-17	3.179834E-18
6.978346E+03	7.518689E-17	3.228285E-18
6.988189E+03	7.637802E-17	3.280578E-18
6.998031E+03	7.765021E-17	3.336384E-18
7.007874E+03	7.899007E-17	3.395131E-18
7.017717E+03	8.039202E-17	3.456580E-18
7.027559E+03	8.184399E-17	3.520217E-18
7.037402E+03	8.333835E-17	3.585714E-18
7.047244E+03	8.486523E-17	3.652649E-18
7.057087E+03	8.641837E-17	3.720754E-18
7.066929E+03	8.798938E-17	3.789667E-18
7.076772E+03	8.957205E-17	3.859123E-18
7.086614E+03	9.115955E-17	3.928827E-18
7.096457E+03	9.275057E-17	3.998724E-18
7.106299E+03	9.433951E-17	4.068572E-18
7.116142E+03	9.592147E-17	4.138160E-18
7.125984E+03	9.749517E-17	4.207432E-18
7.135827E+03	9.905776E-17	4.276266E-18
7.145669E+03	1.006046E-16	4.344463E-18
7.155512E+03	1.021327E-16	4.411888E-18
7.165354E+03	1.036382E-16	4.478377E-18
7.175197E+03	1.051164E-16	4.543730E-18
7.185039E+03	1.065636E-16	4.607781E-18
7.194882E+03	1.079692E-16	4.670074E-18
7.204724E+03	1.093267E-16	4.730325E-18
7.214567E+03	1.106244E-16	4.788027E-18
7.224409E+03	1.118532E-16	4.842784E-18
7.234252E+03	1.130006E-16	4.894053E-18
7.244094E+03	1.140511E-16	4.941163E-18
7.253937E+03	1.149906E-16	4.983491E-18
7.263780E+03	1.158064E-16	5.020493E-18
7.273622E+03	1.164824E-16	5.051459E-18
7.283465E+03	1.170051E-16	5.075799E-18
7.293307E+03	1.173604E-16	5.092901E-18
7.303150E+03	1.175426E-16	5.102510E-18
7.312992E+03	1.175426E-16	5.104218E-18
7.322835E+03	1.173567E-16	5.097864E-18
7.332677E+03	1.169832E-16	5.083365E-18
7.342520E+03	1.164306E-16	5.061080E-18
7.352362E+03	1.157034E-16	5.031202E-18
7.362205E+03	1.148166E-16	4.994377E-18
7.372047E+03	1.137869E-16	4.951319E-18
7.381890E+03	1.126321E-16	4.902801E-18
7.391732E+03	1.113761E-16	4.849861E-18
7.401575E+03	1.100423E-16	4.793510E-18
7.411417E+03	1.086535E-16	4.734742E-18
7.421260E+03	1.072291E-16	4.674393E-18
7.431102E+03	1.057892E-16	4.613347E-18
7.440945E+03	1.043496E-16	4.552280E-18
7.450787E+03	1.029218E-16	4.491701E-18
7.460630E+03	1.015215E-16	4.432290E-18
7.470472E+03	1.001558E-16	4.374364E-18
7.480315E+03	9.883513E-17	4.318376E-18
7.490157E+03	9.757236E-17	4.264890E-18
7.500000E+03	9.637271E-17	4.214134E-18
7.509843E+03	9.524564E-17	4.166527E-18
7.519685E+03	9.419794E-17	4.122367E-18
7.529528E+03	9.323462E-17	4.081877E-18
7.539370E+03	9.235951E-17	4.045227E-18
7.549213E+03	9.157323E-17	4.012449E-18
7.559055E+03	9.087885E-17	3.983682E-18
7.568898E+03	9.027707E-17	3.958959E-18
7.578740E+03	8.976784E-17	3.938284E-18
7.588583E+03	8.935016E-17	3.921616E-18
7.598425E+03	8.902219E-17	3.908879E-18
7.608268E+03	8.877985E-17	3.899898E-18
7.618110E+03	8.862089E-17	3.894579E-18
7.627953E+03	8.854087E-17	3.892731E-18
7.637795E+03	8.853385E-17	3.894095E-18
