#wls	flux	fluxerr
1.574803E+03	7.550384E-18	5.248540E-19
1.614173E+03	7.673349E-18	5.329852E-19
1.653543E+03	7.786312E-18	5.403972E-19
1.692913E+03	7.888733E-18	5.470536E-19
1.732283E+03	7.981016E-18	5.529835E-19
1.771654E+03	8.057510E-18	5.577968E-19
1.811024E+03	8.115915E-18	5.613366E-19
1.850394E+03	8.149945E-18	5.631713E-19
1.889764E+03	8.152529E-18	5.628170E-19
1.929134E+03	8.115896E-18	5.597437E-19
1.968504E+03	8.040507E-18	5.539909E-19
2.007874E+03	7.932698E-18	5.460028E-19
2.047244E+03	7.818473E-18	5.375747E-19
2.086614E+03	7.741803E-18	5.317282E-19
2.125984E+03	7.756161E-18	5.321238E-19
2.165354E+03	7.902983E-18	5.415799E-19
2.204724E+03	8.194163E-18	5.608785E-19
2.244094E+03	8.608677E-18	5.885455E-19
2.283465E+03	9.110659E-18	6.220990E-19
2.322835E+03	9.662745E-18	6.589653E-19
2.362205E+03	1.024079E-17	6.974834E-19
2.401575E+03	1.083238E-17	7.367980E-19
2.440945E+03	1.143226E-17	7.765441E-19
2.480315E+03	1.204215E-17	8.168321E-19
2.519685E+03	1.266315E-17	8.577297E-19
2.559055E+03	1.330473E-17	8.998693E-19
2.598425E+03	1.396793E-17	9.433098E-19
2.637795E+03	1.466112E-17	9.886042E-19
2.677165E+03	1.539091E-17	1.036184E-18
2.716535E+03	1.616188E-17	1.086338E-18
2.755906E+03	1.698257E-17	1.139621E-18
2.795276E+03	1.785528E-17	1.196165E-18
2.834646E+03	1.879081E-17	1.256667E-18
2.874016E+03	1.979363E-17	1.321397E-18
2.913386E+03	2.086806E-17	1.390610E-18
2.952756E+03	2.202544E-17	1.465026E-18
2.962598E+03	2.232994E-17	1.484584E-18
2.972441E+03	2.263725E-17	1.504307E-18
2.982283E+03	2.295229E-17	1.524520E-18
2.992126E+03	2.327276E-17	1.545070E-18
3.001969E+03	2.359888E-17	1.565972E-18
3.011811E+03	2.393343E-17	1.587407E-18
3.021654E+03	2.427392E-17	1.609211E-18
3.031496E+03	2.462109E-17	1.631432E-18
3.041339E+03	2.497305E-17	1.653944E-18
3.051181E+03	2.533531E-17	1.677111E-18
3.061024E+03	2.570517E-17	1.700753E-18
3.070866E+03	2.608507E-17	1.725031E-18
3.080709E+03	2.647228E-17	1.749762E-18
3.090551E+03	2.686667E-17	1.774938E-18
3.100394E+03	2.727075E-17	1.800723E-18
3.110236E+03	2.768444E-17	1.827111E-18
3.120079E+03	2.810501E-17	1.853921E-18
3.129921E+03	2.853235E-17	1.881144E-18
3.139764E+03	2.897179E-17	1.909130E-18
3.149606E+03	2.941513E-17	1.937339E-18
3.159449E+03	2.987049E-17	1.966304E-18
3.169291E+03	3.033235E-17	1.995661E-18
3.179134E+03	3.080342E-17	2.025586E-18
3.188976E+03	3.128086E-17	2.055892E-18
3.198819E+03	3.177024E-17	2.086944E-18
3.208661E+03	3.226591E-17	2.118369E-18
3.218504E+03	3.277065E-17	2.150350E-18
3.228346E+03	3.328157E-17	2.182695E-18
3.238189E+03	3.380437E-17	2.215776E-18
3.248031E+03	3.433618E-17	2.249406E-18
3.257874E+03	3.487404E-17	2.283387E-18
3.267717E+03	3.542377E-17	2.318101E-18
3.277559E+03	3.597945E-17	2.353159E-18
3.287402E+03	3.654697E-17	2.388943E-18
3.297244E+03	3.712334E-17	2.425259E-18
3.307087E+03	3.770851E-17	2.462101E-18
3.316929E+03	3.829941E-17	2.499268E-18
3.326772E+03	3.890507E-17	2.537348E-18
3.336614E+03	3.951635E-17	2.575742E-18
3.346457E+03	4.013928E-17	2.614843E-18
3.356299E+03	4.077074E-17	2.654446E-18
3.366142E+03	4.141064E-17	2.694545E-18
3.375984E+03	4.205889E-17	2.735131E-18
3.385827E+03	4.271853E-17	2.776402E-18
3.395669E+03	4.338951E-17	2.818351E-18
3.405512E+03	4.406855E-17	2.860766E-18
3.415354E+03	4.475553E-17	2.903636E-18
3.425197E+03	4.545350E-17	2.947159E-18
3.435039E+03	4.616234E-17	2.991325E-18
3.444882E+03	4.687869E-17	3.035914E-18
3.454724E+03	4.760562E-17	3.081125E-18
3.464567E+03	4.833969E-17	3.126733E-18
3.474409E+03	4.908725E-17	3.173147E-18
3.484252E+03	4.984156E-17	3.219930E-18
3.494094E+03	5.060238E-17	3.267066E-18
3.503937E+03	5.137606E-17	3.314963E-18
3.513780E+03	5.215909E-17	3.363392E-18
3.523622E+03	5.294785E-17	3.412119E-18
3.533465E+03	5.374874E-17	3.461556E-18
3.543307E+03	5.455476E-17	3.511249E-18
3.553150E+03	5.537230E-17	3.561610E-18
3.562992E+03	5.619430E-17	3.612181E-18
3.572835E+03	5.702714E-17	3.663373E-18
3.582677E+03	5.786708E-17	3.714943E-18
3.592520E+03	5.871372E-17	3.766864E-18
3.602362E+03	5.956664E-17	3.819108E-18
3.612205E+03	6.042881E-17	3.871866E-18
3.622047E+03	6.129637E-17	3.924887E-18
3.631890E+03	6.216881E-17	3.978138E-18
3.641732E+03	6.304565E-17	4.031588E-18
3.651575E+03	6.392981E-17	4.085422E-18
3.661417E+03	6.481729E-17	4.139383E-18
3.671260E+03	6.571100E-17	4.193657E-18
3.681102E+03	6.660687E-17	4.247982E-18
3.690945E+03	6.750779E-17	4.302542E-18
3.700787E+03	6.840963E-17	4.357073E-18
3.710630E+03	6.931174E-17	4.411534E-18
3.720472E+03	7.022043E-17	4.466325E-18
3.730315E+03	7.112451E-17	4.520734E-18
3.740157E+03	7.203382E-17	4.575386E-18
3.750000E+03	7.294055E-17	4.629784E-18
3.759843E+03	7.384744E-17	4.684102E-18
3.769685E+03	7.475032E-17	4.738076E-18
3.779528E+03	7.565172E-17	4.791865E-18
3.789370E+03	7.654746E-17	4.845206E-18
3.799213E+03	7.744369E-17	4.898488E-18
3.809055E+03	7.833238E-17	4.951202E-18
3.818898E+03	7.921286E-17	5.003307E-18
3.828740E+03	8.009103E-17	5.055177E-18
3.838583E+03	8.095902E-17	5.106315E-18
3.848425E+03	8.181589E-17	5.156663E-18
3.858268E+03	8.266416E-17	5.206380E-18
3.868110E+03	8.350268E-17	5.255396E-18
3.877953E+03	8.433046E-17	5.303649E-18
3.887795E+03	8.514300E-17	5.350857E-18
3.897638E+03	8.594256E-17	5.397165E-18
3.907480E+03	8.672471E-17	5.442296E-18
3.917323E+03	8.749165E-17	5.486390E-18
3.927165E+03	8.823891E-17	5.529169E-18
3.937008E+03	8.896870E-17	5.570774E-18
3.946850E+03	8.967661E-17	5.610932E-18
3.956693E+03	9.036161E-17	5.649579E-18
3.966535E+03	9.102603E-17	5.686866E-18
3.976378E+03	9.166551E-17	5.722524E-18
3.986220E+03	9.227936E-17	5.756512E-18
3.996063E+03	9.286998E-17	5.788984E-18
4.005906E+03	9.343042E-17	5.819508E-18
4.015748E+03	9.396341E-17	5.848261E-18
4.025591E+03	9.446875E-17	5.875234E-18
4.035433E+03	9.494632E-17	5.900422E-18
4.045276E+03	9.539618E-17	5.923834E-18
4.055118E+03	9.581554E-17	5.945299E-18
4.064961E+03	9.620815E-17	5.965056E-18
4.074803E+03	9.657459E-17	5.983145E-18
4.084646E+03	9.690973E-17	5.999250E-18
4.094488E+03	9.722104E-17	6.013839E-18
4.104331E+03	9.750670E-17	6.026803E-18
4.114173E+03	9.776838E-17	6.038250E-18
4.124016E+03	9.800502E-17	6.048116E-18
4.133858E+03	9.822438E-17	6.056885E-18
4.143701E+03	9.841986E-17	6.064152E-18
4.153543E+03	9.860255E-17	6.070603E-18
4.163386E+03	9.876613E-17	6.075852E-18
4.173228E+03	9.891891E-17	6.080413E-18
4.183071E+03	9.906073E-17	6.084278E-18
4.192913E+03	9.919424E-17	6.087610E-18
4.202756E+03	9.931932E-17	6.090405E-18
4.212598E+03	9.944173E-17	6.093015E-18
4.222441E+03	9.956129E-17	6.095432E-18
4.232283E+03	9.968091E-17	6.097833E-18
4.242126E+03	9.980592E-17	6.100546E-18
4.251969E+03	9.993369E-17	6.103406E-18
4.261811E+03	1.000695E-16	6.106737E-18
4.271654E+03	1.002157E-16	6.110686E-18
4.281496E+03	1.003723E-16	6.115242E-18
4.291339E+03	1.005415E-16	6.120544E-18
4.301181E+03	1.007255E-16	6.126730E-18
4.311024E+03	1.009263E-16	6.133910E-18
4.320866E+03	1.011461E-16	6.142214E-18
4.330709E+03	1.013839E-16	6.151588E-18
4.340551E+03	1.016417E-16	6.162142E-18
4.350394E+03	1.019234E-16	6.174118E-18
4.360236E+03	1.022283E-16	6.187461E-18
4.370079E+03	1.025577E-16	6.202254E-18
4.379921E+03	1.029108E-16	6.218436E-18
4.389764E+03	1.032910E-16	6.236223E-18
4.399606E+03	1.036972E-16	6.255531E-18
4.409449E+03	1.041323E-16	6.276541E-18
4.419291E+03	1.045946E-16	6.299137E-18
4.429134E+03	1.050840E-16	6.323322E-18
4.438976E+03	1.055981E-16	6.348934E-18
4.448819E+03	1.061410E-16	6.376227E-18
4.458661E+03	1.067071E-16	6.404850E-18
4.468504E+03	1.072950E-16	6.434722E-18
4.478346E+03	1.079053E-16	6.465874E-18
4.488189E+03	1.085336E-16	6.498041E-18
4.498031E+03	1.091772E-16	6.531063E-18
4.507874E+03	1.098335E-16	6.564771E-18
4.517717E+03	1.105016E-16	6.599119E-18
4.527559E+03	1.111734E-16	6.633622E-18
4.537402E+03	1.118478E-16	6.668208E-18
4.547244E+03	1.125208E-16	6.702647E-18
4.557087E+03	1.131866E-16	6.736585E-18
4.566929E+03	1.138436E-16	6.769933E-18
4.576772E+03	1.144881E-16	6.802474E-18
4.586614E+03	1.151143E-16	6.833863E-18
4.596457E+03	1.157212E-16	6.864042E-18
4.606299E+03	1.163035E-16	6.892706E-18
4.616142E+03	1.168607E-16	6.919824E-18
4.625984E+03	1.173881E-16	6.945127E-18
4.635827E+03	1.178838E-16	6.968508E-18
4.645669E+03	1.183485E-16	6.990006E-18
4.655512E+03	1.187786E-16	7.009421E-18
4.665354E+03	1.191756E-16	7.026843E-18
4.675197E+03	1.195367E-16	7.042115E-18
4.685039E+03	1.198616E-16	7.055220E-18
4.694882E+03	1.201526E-16	7.066306E-18
4.704724E+03	1.204077E-16	7.075261E-18
4.714567E+03	1.206301E-16	7.082270E-18
4.724409E+03	1.208186E-16	7.087275E-18
4.734252E+03	1.209750E-16	7.090388E-18
4.744094E+03	1.211061E-16	7.092004E-18
4.753937E+03	1.212080E-16	7.091909E-18
4.763780E+03	1.212907E-16	7.090687E-18
4.773622E+03	1.213539E-16	7.088322E-18
4.783465E+03	1.214042E-16	7.085207E-18
4.793307E+03	1.214467E-16	7.081642E-18
4.803150E+03	1.214870E-16	7.077948E-18
4.812992E+03	1.215288E-16	7.074340E-18
4.822835E+03	1.215820E-16	7.071407E-18
4.832677E+03	1.216484E-16	7.069238E-18
4.842520E+03	1.217377E-16	7.068405E-18
4.852362E+03	1.218532E-16	7.069084E-18
4.862205E+03	1.219993E-16	7.071542E-18
4.872047E+03	1.221806E-16	7.076025E-18
4.881890E+03	1.224026E-16	7.082856E-18
4.891732E+03	1.226660E-16	7.092064E-18
4.901575E+03	1.229751E-16	7.103895E-18
4.911417E+03	1.233291E-16	7.118296E-18
4.921260E+03	1.237308E-16	7.135414E-18
4.931102E+03	1.241799E-16	7.155237E-18
4.940945E+03	1.246735E-16	7.177586E-18
4.950787E+03	1.252125E-16	7.202503E-18
4.960630E+03	1.257948E-16	7.229866E-18
4.970472E+03	1.264183E-16	7.259539E-18
4.980315E+03	1.270801E-16	7.291361E-18
4.990157E+03	1.277752E-16	7.325036E-18
5.000000E+03	1.285050E-16	7.360637E-18
5.009843E+03	1.292644E-16	7.397866E-18
5.019685E+03	1.300502E-16	7.436542E-18
5.029528E+03	1.308599E-16	7.476513E-18
5.039370E+03	1.316907E-16	7.517617E-18
5.049213E+03	1.325427E-16	7.559853E-18
5.059055E+03	1.334114E-16	7.602972E-18
5.068898E+03	1.342950E-16	7.646864E-18
5.078740E+03	1.351922E-16	7.691446E-18
5.088583E+03	1.361036E-16	7.736760E-18
5.098425E+03	1.370259E-16	7.782614E-18
5.108268E+03	1.379579E-16	7.828937E-18
5.118110E+03	1.389009E-16	7.875803E-18
5.127953E+03	1.398516E-16	7.923022E-18
5.137795E+03	1.408087E-16	7.970520E-18
5.147638E+03	1.417732E-16	8.018355E-18
5.157480E+03	1.427415E-16	8.066319E-18
5.167323E+03	1.437141E-16	8.114446E-18
5.177165E+03	1.446845E-16	8.162364E-18
5.187008E+03	1.456576E-16	8.210347E-18
5.196850E+03	1.466238E-16	8.257858E-18
5.206693E+03	1.475853E-16	8.305023E-18
5.216535E+03	1.485364E-16	8.351527E-18
5.226378E+03	1.494743E-16	8.397202E-18
5.236220E+03	1.503976E-16	8.441982E-18
5.246063E+03	1.513004E-16	8.485532E-18
5.255906E+03	1.521810E-16	8.527769E-18
5.265748E+03	1.530306E-16	8.568195E-18
5.275591E+03	1.538499E-16	8.606854E-18
5.285433E+03	1.546322E-16	8.643379E-18
5.295276E+03	1.553755E-16	8.677669E-18
5.305118E+03	1.560706E-16	8.709205E-18
5.314961E+03	1.567182E-16	8.738039E-18
5.324803E+03	1.573112E-16	8.763789E-18
5.334646E+03	1.578455E-16	8.786226E-18
5.344488E+03	1.583194E-16	8.805263E-18
5.354331E+03	1.587261E-16	8.820534E-18
5.364173E+03	1.590616E-16	8.831823E-18
5.374016E+03	1.593215E-16	8.838900E-18
5.383858E+03	1.595046E-16	8.841709E-18
5.393701E+03	1.596042E-16	8.839889E-18
5.403543E+03	1.596165E-16	8.833237E-18
5.413386E+03	1.595406E-16	8.821720E-18
5.423228E+03	1.593703E-16	8.805010E-18
5.433071E+03	1.591052E-16	8.783089E-18
5.442913E+03	1.587375E-16	8.755546E-18
5.452756E+03	1.582727E-16	8.722697E-18
5.462598E+03	1.577040E-16	8.684181E-18
5.472441E+03	1.570307E-16	8.639976E-18
5.482283E+03	1.562553E-16	8.590229E-18
5.492126E+03	1.553788E-16	8.535016E-18
5.501969E+03	1.544034E-16	8.474459E-18
5.511811E+03	1.533297E-16	8.408616E-18
5.521654E+03	1.521648E-16	8.337884E-18
5.531496E+03	1.509145E-16	8.262595E-18
5.541339E+03	1.495836E-16	8.183016E-18
5.551181E+03	1.481852E-16	8.099884E-18
5.561024E+03	1.467265E-16	8.013598E-18
5.570866E+03	1.452182E-16	7.924744E-18
5.580709E+03	1.436719E-16	7.833966E-18
5.590551E+03	1.420998E-16	7.741934E-18
5.600394E+03	1.405169E-16	7.649468E-18
5.610236E+03	1.389339E-16	7.557146E-18
5.620079E+03	1.373637E-16	7.465676E-18
5.629921E+03	1.358214E-16	7.375871E-18
5.639764E+03	1.343167E-16	7.288257E-18
5.649606E+03	1.328634E-16	7.203574E-18
5.659449E+03	1.314699E-16	7.122268E-18
5.669291E+03	1.301478E-16	7.044965E-18
5.679134E+03	1.289053E-16	6.972097E-18
5.688976E+03	1.277495E-16	6.904037E-18
5.698819E+03	1.266838E-16	6.840960E-18
5.708661E+03	1.257147E-16	6.783196E-18
5.718504E+03	1.248450E-16	6.730888E-18
5.728346E+03	1.240761E-16	6.684104E-18
5.738189E+03	1.234080E-16	6.642825E-18
5.748031E+03	1.228395E-16	6.606977E-18
5.757874E+03	1.223661E-16	6.576302E-18
5.767717E+03	1.219881E-16	6.550808E-18
5.777559E+03	1.216987E-16	6.530112E-18
5.787402E+03	1.214922E-16	6.513902E-18
5.797244E+03	1.213618E-16	6.501804E-18
5.807087E+03	1.213001E-16	6.493411E-18
5.816929E+03	1.212991E-16	6.488292E-18
5.826772E+03	1.213523E-16	6.486083E-18
5.836614E+03	1.214470E-16	6.486102E-18
5.846457E+03	1.215780E-16	6.488070E-18
5.856299E+03	1.217345E-16	6.491406E-18
5.866142E+03	1.219078E-16	6.495642E-18
5.875984E+03	1.220897E-16	6.500341E-18
5.885827E+03	1.222723E-16	6.505089E-18
5.895669E+03	1.224491E-16	6.509526E-18
5.905512E+03	1.226159E-16	6.513444E-18
5.915354E+03	1.227640E-16	6.516371E-18
5.925197E+03	1.228938E-16	6.518341E-18
5.935039E+03	1.230008E-16	6.519114E-18
5.944882E+03	1.230819E-16	6.518532E-18
5.954724E+03	1.231416E-16	6.516830E-18
5.964567E+03	1.231814E-16	6.514096E-18
5.974409E+03	1.231998E-16	6.510255E-18
5.984252E+03	1.232029E-16	6.505622E-18
5.994094E+03	1.231952E-16	6.500451E-18
6.003937E+03	1.231823E-16	6.495029E-18
6.013780E+03	1.231723E-16	6.489789E-18
6.023622E+03	1.231678E-16	6.484861E-18
6.033465E+03	1.231772E-16	6.480696E-18
6.043307E+03	1.232097E-16	6.477769E-18
6.053150E+03	1.232673E-16	6.476185E-18
6.062992E+03	1.233584E-16	6.476387E-18
6.072835E+03	1.234885E-16	6.478656E-18
6.082677E+03	1.236648E-16	6.483360E-18
6.092520E+03	1.238871E-16	6.490487E-18
6.102362E+03	1.241603E-16	6.500293E-18
6.112205E+03	1.244864E-16	6.512863E-18
6.122047E+03	1.248657E-16	6.528222E-18
6.131890E+03	1.252973E-16	6.546303E-18
6.141732E+03	1.257788E-16	6.566986E-18
6.151575E+03	1.263064E-16	6.590056E-18
6.161417E+03	1.268746E-16	6.615231E-18
6.171260E+03	1.274769E-16	6.642157E-18
6.181102E+03	1.281050E-16	6.670405E-18
6.190945E+03	1.287494E-16	6.699481E-18
6.200787E+03	1.293999E-16	6.728839E-18
6.210630E+03	1.300446E-16	6.757872E-18
6.220472E+03	1.306714E-16	6.785946E-18
6.230315E+03	1.312698E-16	6.812517E-18
6.240157E+03	1.318220E-16	6.836671E-18
6.250000E+03	1.323198E-16	6.857977E-18
6.259843E+03	1.327457E-16	6.875538E-18
6.269685E+03	1.330924E-16	6.888985E-18
6.279528E+03	1.333466E-16	6.897636E-18
6.289370E+03	1.335007E-16	6.901106E-18
6.299213E+03	1.335440E-16	6.898849E-18
6.309055E+03	1.334695E-16	6.890520E-18
6.318898E+03	1.332721E-16	6.875864E-18
6.328740E+03	1.329510E-16	6.854848E-18
6.338583E+03	1.325041E-16	6.827385E-18
6.348425E+03	1.319271E-16	6.793257E-18
6.358268E+03	1.312285E-16	6.752911E-18
6.368110E+03	1.304064E-16	6.706272E-18
6.377953E+03	1.294675E-16	6.653687E-18
6.387795E+03	1.284146E-16	6.595311E-18
6.397638E+03	1.272561E-16	6.531591E-18
6.407480E+03	1.259986E-16	6.462870E-18
6.417323E+03	1.246490E-16	6.389517E-18
6.427165E+03	1.232147E-16	6.311913E-18
6.437008E+03	1.217032E-16	6.230453E-18
6.446850E+03	1.201197E-16	6.145410E-18
6.456693E+03	1.184759E-16	6.057390E-18
6.466535E+03	1.167769E-16	5.966656E-18
6.476378E+03	1.150297E-16	5.873573E-18
6.486220E+03	1.132432E-16	5.778593E-18
6.496063E+03	1.114216E-16	5.681948E-18
6.505906E+03	1.095713E-16	5.583951E-18
6.515748E+03	1.076981E-16	5.484915E-18
6.525591E+03	1.058098E-16	5.385227E-18
6.535433E+03	1.039114E-16	5.285149E-18
6.545276E+03	1.020061E-16	5.184843E-18
6.555118E+03	1.001006E-16	5.084650E-18
6.564961E+03	9.819750E-17	4.984699E-18
6.574803E+03	9.630454E-17	4.885387E-18
6.584646E+03	9.442226E-17	4.786738E-18
6.594488E+03	9.255610E-17	4.689027E-18
6.604331E+03	9.070986E-17	4.592445E-18
6.614173E+03	8.888701E-17	4.497164E-18
6.624016E+03	8.709092E-17	4.403355E-18
6.633858E+03	8.532331E-17	4.311099E-18
6.643701E+03	8.359237E-17	4.220810E-18
6.653543E+03	8.189647E-17	4.132400E-18
6.663386E+03	8.024048E-17	4.046112E-18
6.673228E+03	7.862913E-17	3.962180E-18
6.683071E+03	7.706413E-17	3.880687E-18
6.692913E+03	7.554871E-17	3.801789E-18
6.702756E+03	7.408608E-17	3.725644E-18
6.712598E+03	7.268086E-17	3.652478E-18
6.722441E+03	7.133477E-17	3.582373E-18
6.732283E+03	7.005229E-17	3.515547E-18
6.742126E+03	6.883505E-17	3.452076E-18
6.751969E+03	6.768602E-17	3.392101E-18
6.761811E+03	6.660932E-17	3.335822E-18
6.771654E+03	6.560758E-17	3.283365E-18
6.781496E+03	6.468206E-17	3.234783E-18
6.791339E+03	6.383510E-17	3.190186E-18
6.801181E+03	6.307012E-17	3.149737E-18
6.811024E+03	6.238783E-17	3.113463E-18
6.820866E+03	6.179118E-17	3.081503E-18
6.830709E+03	6.128167E-17	3.053921E-18
6.840551E+03	6.085931E-17	3.030710E-18
6.850394E+03	6.052515E-17	3.011912E-18
6.860236E+03	6.028111E-17	2.997614E-18
6.870079E+03	6.012644E-17	2.987769E-18
6.879921E+03	6.006249E-17	2.982434E-18
6.889764E+03	6.008794E-17	2.981535E-18
6.899606E+03	6.020352E-17	2.985097E-18
6.909449E+03	6.040726E-17	2.993013E-18
6.919291E+03	6.069799E-17	3.005216E-18
6.929134E+03	6.107544E-17	3.021683E-18
6.938976E+03	6.153655E-17	3.042254E-18
6.948819E+03	6.207909E-17	3.066808E-18
6.958661E+03	6.270172E-17	3.095270E-18
6.968504E+03	6.339899E-17	3.127364E-18
6.978346E+03	6.417012E-17	3.163042E-18
6.988189E+03	6.501024E-17	3.202056E-18
6.998031E+03	6.591543E-17	3.244205E-18
7.007874E+03	6.688147E-17	3.289276E-18
7.017717E+03	6.790396E-17	3.337043E-18
7.027559E+03	6.897823E-17	3.387273E-18
7.037402E+03	7.009950E-17	3.439724E-18
7.047244E+03	7.126138E-17	3.494078E-18
7.057087E+03	7.246021E-17	3.550150E-18
7.066929E+03	7.369084E-17	3.607686E-18
7.076772E+03	7.494807E-17	3.666426E-18
7.086614E+03	7.622506E-17	3.726033E-18
7.096457E+03	7.751797E-17	3.786317E-18
7.106299E+03	7.881977E-17	3.846935E-18
7.116142E+03	8.012647E-17	3.907689E-18
7.125984E+03	8.142912E-17	3.968144E-18
7.135827E+03	8.272677E-17	4.028253E-18
7.145669E+03	8.400842E-17	4.087483E-18
7.155512E+03	8.527115E-17	4.145693E-18
7.165354E+03	8.650503E-17	4.202404E-18
7.175197E+03	8.770678E-17	4.257458E-18
7.185039E+03	8.886760E-17	4.310435E-18
7.194882E+03	8.997852E-17	4.360903E-18
7.204724E+03	9.103568E-17	4.408682E-18
7.214567E+03	9.202799E-17	4.453242E-18
7.224409E+03	9.294957E-17	4.494307E-18
7.234252E+03	9.379303E-17	4.531526E-18
7.244094E+03	9.455113E-17	4.564562E-18
7.253937E+03	9.521517E-17	4.593003E-18
7.263780E+03	9.577883E-17	4.616557E-18
7.273622E+03	9.623849E-17	4.635061E-18
7.283465E+03	9.658979E-17	4.648319E-18
7.293307E+03	9.682745E-17	4.656087E-18
7.303150E+03	9.695126E-17	4.658371E-18
7.312992E+03	9.695871E-17	4.655063E-18
7.322835E+03	9.685098E-17	4.646234E-18
7.332677E+03	9.663050E-17	4.632013E-18
7.342520E+03	9.630360E-17	4.612717E-18
7.352362E+03	9.587395E-17	4.588534E-18
7.362205E+03	9.534878E-17	4.559823E-18
7.372047E+03	9.473665E-17	4.527002E-18
7.381890E+03	9.404886E-17	4.490623E-18
7.391732E+03	9.329199E-17	4.451008E-18
7.401575E+03	9.248079E-17	4.408868E-18
7.411417E+03	9.162443E-17	4.364646E-18
7.421260E+03	9.073237E-17	4.318798E-18
7.431102E+03	8.981951E-17	4.272038E-18
7.440945E+03	8.889466E-17	4.224786E-18
7.450787E+03	8.796814E-17	4.177534E-18
7.460630E+03	8.704976E-17	4.130747E-18
7.470472E+03	8.614872E-17	4.084861E-18
7.480315E+03	8.527169E-17	4.040192E-18
7.490157E+03	8.442997E-17	3.997270E-18
7.500000E+03	8.362872E-17	3.956336E-18
7.509843E+03	8.287399E-17	3.917671E-18
7.519685E+03	8.216912E-17	3.881427E-18
7.529528E+03	8.152130E-17	3.847937E-18
7.539370E+03	8.092939E-17	3.817141E-18
7.549213E+03	8.039640E-17	3.789176E-18
7.559055E+03	7.992448E-17	3.764134E-18
7.568898E+03	7.951005E-17	3.741841E-18
7.578740E+03	7.915221E-17	3.722249E-18
7.588583E+03	7.885278E-17	3.705436E-18
7.598425E+03	7.860798E-17	3.691218E-18
7.608268E+03	7.841343E-17	3.679385E-18
7.618110E+03	7.826920E-17	3.669934E-18
7.627953E+03	7.816813E-17	3.662524E-18
7.637795E+03	7.810584E-17	3.656945E-18
