#wls	flux	fluxerr
1.574803E+03	9.706243E-18	1.034663E-18
1.614173E+03	9.923734E-18	1.055267E-18
1.653543E+03	1.013176E-17	1.074682E-18
1.692913E+03	1.032765E-17	1.092626E-18
1.732283E+03	1.050985E-17	1.108939E-18
1.771654E+03	1.067783E-17	1.123572E-18
1.811024E+03	1.082091E-17	1.135410E-18
1.850394E+03	1.093014E-17	1.143534E-18
1.889764E+03	1.099901E-17	1.147292E-18
1.929134E+03	1.101620E-17	1.145541E-18
1.968504E+03	1.097762E-17	1.137905E-18
2.007874E+03	1.089289E-17	1.125432E-18
2.047244E+03	1.079710E-17	1.111782E-18
2.086614E+03	1.074938E-17	1.103036E-18
2.125984E+03	1.082523E-17	1.106861E-18
2.165354E+03	1.108822E-17	1.129594E-18
2.204724E+03	1.155253E-17	1.172455E-18
2.244094E+03	1.219468E-17	1.232821E-18
2.283465E+03	1.295989E-17	1.304947E-18
2.322835E+03	1.380160E-17	1.383989E-18
2.362205E+03	1.468359E-17	1.466210E-18
2.401575E+03	1.558319E-17	1.549273E-18
2.440945E+03	1.649424E-17	1.632517E-18
2.480315E+03	1.741593E-17	1.715815E-18
2.519685E+03	1.835414E-17	1.799696E-18
2.559055E+03	1.930860E-17	1.884079E-18
2.598425E+03	2.029318E-17	1.970253E-18
2.637795E+03	2.131111E-17	2.058449E-18
2.677165E+03	2.236799E-17	2.149119E-18
2.716535E+03	2.346907E-17	2.242666E-18
2.755906E+03	2.462254E-17	2.339757E-18
2.795276E+03	2.582984E-17	2.440402E-18
2.834646E+03	2.710220E-17	2.545522E-18
2.874016E+03	2.844052E-17	2.655046E-18
2.913386E+03	2.985248E-17	2.769521E-18
2.952756E+03	3.134199E-17	2.889127E-18
2.962598E+03	3.172656E-17	2.919814E-18
2.972441E+03	3.211846E-17	2.951034E-18
2.982283E+03	3.251384E-17	2.982431E-18
2.992126E+03	3.291675E-17	3.014373E-18
3.001969E+03	3.332356E-17	3.046523E-18
3.011811E+03	3.373456E-17	3.078904E-18
3.021654E+03	3.415373E-17	3.111878E-18
3.031496E+03	3.457801E-17	3.145160E-18
3.041339E+03	3.500880E-17	3.178875E-18
3.051181E+03	3.545027E-17	3.213396E-18
3.061024E+03	3.589800E-17	3.248316E-18
3.070866E+03	3.635166E-17	3.283604E-18
3.080709E+03	3.681522E-17	3.319612E-18
3.090551E+03	3.728421E-17	3.355932E-18
3.100394E+03	3.776269E-17	3.392926E-18
3.110236E+03	3.825052E-17	3.430575E-18
3.120079E+03	3.874318E-17	3.468469E-18
3.129921E+03	3.924044E-17	3.506583E-18
3.139764E+03	3.974657E-17	3.545296E-18
3.149606E+03	4.026147E-17	3.584593E-18
3.159449E+03	4.078054E-17	3.624059E-18
3.169291E+03	4.130360E-17	3.663676E-18
3.179134E+03	4.183968E-17	3.704239E-18
3.188976E+03	4.237494E-17	3.744518E-18
3.198819E+03	4.292313E-17	3.785725E-18
3.208661E+03	4.347022E-17	3.826617E-18
3.218504E+03	4.403017E-17	3.868420E-18
3.228346E+03	4.459351E-17	3.910296E-18
3.238189E+03	4.516014E-17	3.952231E-18
3.248031E+03	4.573961E-17	3.995060E-18
3.257874E+03	4.631738E-17	4.037504E-18
3.267717E+03	4.690798E-17	4.080829E-18
3.277559E+03	4.749668E-17	4.123747E-18
3.287402E+03	4.809819E-17	4.167533E-18
3.297244E+03	4.870259E-17	4.211321E-18
3.307087E+03	4.931484E-17	4.255535E-18
3.316929E+03	4.992985E-17	4.299733E-18
3.326772E+03	5.055264E-17	4.344342E-18
3.336614E+03	5.117806E-17	4.388916E-18
3.346457E+03	5.181119E-17	4.433887E-18
3.356299E+03	5.245204E-17	4.479250E-18
3.366142E+03	5.309536E-17	4.524551E-18
3.375984E+03	5.374632E-17	4.570229E-18
3.385827E+03	5.440492E-17	4.616277E-18
3.395669E+03	5.506582E-17	4.662238E-18
3.405512E+03	5.573428E-17	4.708553E-18
3.415354E+03	5.640486E-17	4.754760E-18
3.425197E+03	5.708293E-17	4.801305E-18
3.435039E+03	5.776843E-17	4.848180E-18
3.444882E+03	5.845585E-17	4.894917E-18
3.454724E+03	5.915060E-17	4.941966E-18
3.464567E+03	5.984707E-17	4.988854E-18
3.474409E+03	6.055634E-17	5.036499E-18
3.484252E+03	6.126157E-17	5.083496E-18
3.494094E+03	6.197948E-17	5.131231E-18
3.503937E+03	6.269875E-17	5.178759E-18
3.513780E+03	6.342493E-17	5.226536E-18
3.523622E+03	6.415221E-17	5.274079E-18
3.533465E+03	6.488620E-17	5.321846E-18
3.543307E+03	6.562101E-17	5.369350E-18
3.553150E+03	6.636813E-17	5.417527E-18
3.562992E+03	6.711582E-17	5.465413E-18
3.572835E+03	6.786388E-17	5.512991E-18
3.582677E+03	6.861804E-17	5.560722E-18
3.592520E+03	6.937816E-17	5.608591E-18
3.602362E+03	7.013815E-17	5.656103E-18
3.612205E+03	7.090377E-17	5.703718E-18
3.622047E+03	7.167489E-17	5.751422E-18
3.631890E+03	7.244528E-17	5.798714E-18
3.641732E+03	7.322069E-17	5.846050E-18
3.651575E+03	7.400110E-17	5.893424E-18
3.661417E+03	7.478009E-17	5.940325E-18
3.671260E+03	7.555736E-17	5.986726E-18
3.681102E+03	7.634503E-17	6.033587E-18
3.690945E+03	7.712425E-17	6.079414E-18
3.700787E+03	7.791345E-17	6.125659E-18
3.710630E+03	7.869985E-17	6.171315E-18
3.720472E+03	7.948942E-17	6.216849E-18
3.730315E+03	8.027555E-17	6.261743E-18
3.740157E+03	8.106428E-17	6.306467E-18
3.750000E+03	8.184891E-17	6.350500E-18
3.759843E+03	8.263548E-17	6.394312E-18
3.769685E+03	8.342352E-17	6.437863E-18
3.779528E+03	8.420648E-17	6.480648E-18
3.789370E+03	8.498381E-17	6.522629E-18
3.799213E+03	8.576154E-17	6.564269E-18
3.809055E+03	8.653920E-17	6.605531E-18
3.818898E+03	8.731001E-17	6.645900E-18
3.828740E+03	8.807993E-17	6.685832E-18
3.838583E+03	8.884196E-17	6.724798E-18
3.848425E+03	8.959555E-17	6.762760E-18
3.858268E+03	9.034658E-17	6.800167E-18
3.868110E+03	9.109449E-17	6.836978E-18
3.877953E+03	9.183199E-17	6.872650E-18
3.887795E+03	9.256474E-17	6.907611E-18
3.897638E+03	9.327871E-17	6.940822E-18
3.907480E+03	9.399238E-17	6.973665E-18
3.917323E+03	9.468483E-17	7.004593E-18
3.927165E+03	9.537424E-17	7.034962E-18
3.937008E+03	9.603934E-17	7.063209E-18
3.946850E+03	9.669149E-17	7.090185E-18
3.956693E+03	9.732238E-17	7.115289E-18
3.966535E+03	9.793670E-17	7.138880E-18
3.976378E+03	9.852613E-17	7.160363E-18
3.986220E+03	9.908901E-17	7.179635E-18
3.996063E+03	9.962379E-17	7.196604E-18
4.005906E+03	1.001357E-16	7.211663E-18
4.015748E+03	1.006169E-16	7.224272E-18
4.025591E+03	1.010733E-16	7.234866E-18
4.035433E+03	1.014910E-16	7.242478E-18
4.045276E+03	1.018830E-16	7.248052E-18
4.055118E+03	1.022425E-16	7.251137E-18
4.064961E+03	1.025700E-16	7.251780E-18
4.074803E+03	1.028726E-16	7.250507E-18
4.084646E+03	1.031384E-16	7.246500E-18
4.094488E+03	1.033813E-16	7.240763E-18
4.104331E+03	1.035965E-16	7.232971E-18
4.114173E+03	1.037856E-16	7.223260E-18
4.124016E+03	1.039506E-16	7.211781E-18
4.133858E+03	1.040933E-16	7.198687E-18
4.143701E+03	1.042160E-16	7.184153E-18
4.153543E+03	1.043209E-16	7.168336E-18
4.163386E+03	1.044166E-16	7.151846E-18
4.173228E+03	1.044931E-16	7.134004E-18
4.183071E+03	1.045590E-16	7.115413E-18
4.192913E+03	1.046168E-16	7.096251E-18
4.202756E+03	1.046692E-16	7.076703E-18
4.212598E+03	1.047183E-16	7.056930E-18
4.222441E+03	1.047668E-16	7.037109E-18
4.232283E+03	1.048171E-16	7.017405E-18
4.242126E+03	1.048716E-16	6.997976E-18
4.251969E+03	1.049265E-16	6.978575E-18
4.261811E+03	1.049961E-16	6.960144E-18
4.271654E+03	1.050704E-16	6.942026E-18
4.281496E+03	1.051573E-16	6.924738E-18
4.291339E+03	1.052529E-16	6.908009E-18
4.301181E+03	1.053705E-16	6.892714E-18
4.311024E+03	1.055000E-16	6.878181E-18
4.320866E+03	1.056485E-16	6.864872E-18
4.330709E+03	1.058174E-16	6.852859E-18
4.340551E+03	1.060019E-16	6.841835E-18
4.350394E+03	1.062090E-16	6.832228E-18
4.360236E+03	1.064339E-16	6.823723E-18
4.370079E+03	1.066884E-16	6.817077E-18
4.379921E+03	1.069563E-16	6.811228E-18
4.389764E+03	1.072549E-16	6.807277E-18
4.399606E+03	1.075731E-16	6.804503E-18
4.409449E+03	1.079109E-16	6.802897E-18
4.419291E+03	1.082738E-16	6.802797E-18
4.429134E+03	1.086612E-16	6.804156E-18
4.438976E+03	1.090670E-16	6.806579E-18
4.448819E+03	1.094957E-16	6.810335E-18
4.458661E+03	1.099405E-16	6.814993E-18
4.468504E+03	1.103995E-16	6.820439E-18
4.478346E+03	1.108765E-16	6.826888E-18
4.488189E+03	1.113632E-16	6.833836E-18
4.498031E+03	1.118623E-16	6.841442E-18
4.507874E+03	1.123647E-16	6.849154E-18
4.517717E+03	1.128723E-16	6.857080E-18
4.527559E+03	1.133752E-16	6.864629E-18
4.537402E+03	1.138687E-16	6.871529E-18
4.547244E+03	1.143538E-16	6.877843E-18
4.557087E+03	1.148143E-16	6.882617E-18
4.566929E+03	1.152620E-16	6.886577E-18
4.576772E+03	1.156756E-16	6.888458E-18
4.586614E+03	1.160619E-16	6.888698E-18
4.596457E+03	1.164115E-16	6.886762E-18
4.606299E+03	1.167212E-16	6.882479E-18
4.616142E+03	1.169939E-16	6.876063E-18
4.625984E+03	1.172223E-16	6.867103E-18
4.635827E+03	1.174054E-16	6.855567E-18
4.645669E+03	1.175426E-16	6.841464E-18
4.655512E+03	1.176399E-16	6.825163E-18
4.665354E+03	1.176924E-16	6.806409E-18
4.675197E+03	1.176960E-16	6.784997E-18
4.685039E+03	1.176687E-16	6.761994E-18
4.694882E+03	1.175961E-16	6.736592E-18
4.704724E+03	1.174859E-16	6.709262E-18
4.714567E+03	1.173459E-16	6.680473E-18
4.724409E+03	1.171739E-16	6.650114E-18
4.734252E+03	1.169731E-16	6.618387E-18
4.744094E+03	1.167472E-16	6.585523E-18
4.753937E+03	1.165005E-16	6.551777E-18
4.763780E+03	1.162430E-16	6.517718E-18
4.773622E+03	1.159693E-16	6.483057E-18
4.783465E+03	1.156959E-16	6.448725E-18
4.793307E+03	1.154242E-16	6.414799E-18
4.803150E+03	1.151615E-16	6.381682E-18
4.812992E+03	1.149154E-16	6.349791E-18
4.822835E+03	1.146934E-16	6.319525E-18
4.832677E+03	1.145082E-16	6.291560E-18
4.842520E+03	1.143563E-16	6.265694E-18
4.852362E+03	1.142542E-16	6.242796E-18
4.862205E+03	1.142019E-16	6.222847E-18
4.872047E+03	1.141987E-16	6.205779E-18
4.881890E+03	1.142575E-16	6.192263E-18
4.891732E+03	1.143745E-16	6.182073E-18
4.901575E+03	1.145502E-16	6.175191E-18
4.911417E+03	1.147879E-16	6.171780E-18
4.921260E+03	1.150750E-16	6.171132E-18
4.931102E+03	1.154174E-16	6.173537E-18
4.940945E+03	1.157997E-16	6.178147E-18
4.950787E+03	1.162254E-16	6.185132E-18
4.960630E+03	1.166819E-16	6.193805E-18
4.970472E+03	1.171610E-16	6.203714E-18
4.980315E+03	1.176541E-16	6.214394E-18
4.990157E+03	1.181526E-16	6.225385E-18
5.000000E+03	1.186483E-16	6.236256E-18
5.009843E+03	1.191395E-16	6.246910E-18
5.019685E+03	1.196105E-16	6.256532E-18
5.029528E+03	1.200678E-16	6.265461E-18
5.039370E+03	1.205045E-16	6.273347E-18
5.049213E+03	1.209207E-16	6.280195E-18
5.059055E+03	1.213182E-16	6.286107E-18
5.068898E+03	1.216999E-16	6.291238E-18
5.078740E+03	1.220698E-16	6.295794E-18
5.088583E+03	1.224371E-16	6.300251E-18
5.098425E+03	1.228008E-16	6.304558E-18
5.108268E+03	1.231592E-16	6.308627E-18
5.118110E+03	1.235255E-16	6.313136E-18
5.127953E+03	1.238968E-16	6.317923E-18
5.137795E+03	1.242794E-16	6.323306E-18
5.147638E+03	1.246632E-16	6.328773E-18
5.157480E+03	1.250585E-16	6.334839E-18
5.167323E+03	1.254592E-16	6.341191E-18
5.177165E+03	1.258642E-16	6.347767E-18
5.187008E+03	1.262720E-16	6.354493E-18
5.196850E+03	1.266813E-16	6.361296E-18
5.206693E+03	1.270956E-16	6.368351E-18
5.216535E+03	1.275028E-16	6.375054E-18
5.226378E+03	1.279118E-16	6.381841E-18
5.236220E+03	1.283209E-16	6.388631E-18
5.246063E+03	1.287175E-16	6.394795E-18
5.255906E+03	1.291103E-16	6.400766E-18
5.265748E+03	1.294916E-16	6.406165E-18
5.275591E+03	1.298590E-16	6.410871E-18
5.285433E+03	1.302096E-16	6.414749E-18
5.295276E+03	1.305405E-16	6.417658E-18
5.305118E+03	1.308538E-16	6.419706E-18
5.314961E+03	1.311406E-16	6.420460E-18
5.324803E+03	1.314025E-16	6.420011E-18
5.334646E+03	1.316247E-16	6.417632E-18
5.344488E+03	1.318137E-16	6.413658E-18
5.354331E+03	1.319596E-16	6.407612E-18
5.364173E+03	1.320629E-16	6.399536E-18
5.374016E+03	1.321133E-16	6.388939E-18
5.383858E+03	1.321057E-16	6.375593E-18
5.393701E+03	1.320348E-16	6.359252E-18
5.403543E+03	1.319003E-16	6.339928E-18
5.413386E+03	1.316914E-16	6.317110E-18
5.423228E+03	1.314020E-16	6.290538E-18
5.433071E+03	1.310318E-16	6.260208E-18
5.442913E+03	1.305690E-16	6.225590E-18
5.452756E+03	1.300075E-16	6.186417E-18
5.462598E+03	1.293465E-16	6.142672E-18
5.472441E+03	1.285745E-16	6.093845E-18
5.482283E+03	1.276857E-16	6.039689E-18
5.492126E+03	1.266802E-16	5.980241E-18
5.501969E+03	1.255486E-16	5.915092E-18
5.511811E+03	1.242881E-16	5.844147E-18
5.521654E+03	1.229033E-16	5.767646E-18
5.531496E+03	1.213955E-16	5.685697E-18
5.541339E+03	1.197598E-16	5.598094E-18
5.551181E+03	1.180186E-16	5.505922E-18
5.561024E+03	1.161688E-16	5.409060E-18
5.570866E+03	1.142345E-16	5.308659E-18
5.580709E+03	1.122326E-16	5.205522E-18
5.590551E+03	1.101777E-16	5.100345E-18
5.600394E+03	1.080901E-16	4.994078E-18
5.610236E+03	1.059950E-16	4.887884E-18
5.620079E+03	1.039079E-16	4.782490E-18
5.629921E+03	1.018524E-16	4.678965E-18
5.639764E+03	9.984190E-17	4.577915E-18
5.649606E+03	9.789604E-17	4.480230E-18
5.659449E+03	9.602440E-17	4.386326E-18
5.669291E+03	9.424238E-17	4.296886E-18
5.679134E+03	9.255544E-17	4.212134E-18
5.688976E+03	9.097471E-17	4.132550E-18
5.698819E+03	8.950180E-17	4.058180E-18
5.708661E+03	8.814406E-17	3.989329E-18
5.718504E+03	8.689985E-17	3.925892E-18
5.728346E+03	8.577321E-17	3.868023E-18
5.738189E+03	8.475979E-17	3.815499E-18
5.748031E+03	8.386105E-17	3.768357E-18
5.757874E+03	8.307406E-17	3.726439E-18
5.767717E+03	8.239138E-17	3.689385E-18
5.777559E+03	8.181177E-17	3.657116E-18
5.787402E+03	8.132642E-17	3.629216E-18
5.797244E+03	8.093253E-17	3.605541E-18
5.807087E+03	8.062335E-17	3.585770E-18
5.816929E+03	8.038831E-17	3.569417E-18
5.826772E+03	8.022272E-17	3.556260E-18
5.836614E+03	8.011505E-17	3.545776E-18
5.846457E+03	8.005995E-17	3.537719E-18
5.856299E+03	8.004847E-17	3.531684E-18
5.866142E+03	8.006843E-17	3.527129E-18
5.875984E+03	8.011425E-17	3.523807E-18
5.885827E+03	8.017434E-17	3.521204E-18
5.895669E+03	8.024746E-17	3.519268E-18
5.905512E+03	8.032032E-17	3.517417E-18
5.915354E+03	8.038743E-17	3.515414E-18
5.925197E+03	8.045128E-17	3.513374E-18
5.935039E+03	8.050293E-17	3.510909E-18
5.944882E+03	8.054188E-17	3.508003E-18
5.954724E+03	8.057598E-17	3.505004E-18
5.964567E+03	8.060189E-17	3.501771E-18
5.974409E+03	8.062453E-17	3.498521E-18
5.984252E+03	8.065737E-17	3.495842E-18
5.994094E+03	8.070168E-17	3.493792E-18
6.003937E+03	8.076999E-17	3.492913E-18
6.013780E+03	8.087225E-17	3.493636E-18
6.023622E+03	8.101548E-17	3.496262E-18
6.033465E+03	8.121694E-17	3.501535E-18
6.043307E+03	8.148020E-17	3.509604E-18
6.053150E+03	8.181518E-17	3.520894E-18
6.062992E+03	8.223783E-17	3.536085E-18
6.072835E+03	8.274989E-17	3.555240E-18
6.082677E+03	8.336197E-17	3.578803E-18
6.092520E+03	8.408044E-17	3.607035E-18
6.102362E+03	8.491019E-17	3.640134E-18
6.112205E+03	8.585048E-17	3.678058E-18
6.122047E+03	8.690568E-17	3.720984E-18
6.131890E+03	8.807425E-17	3.768836E-18
6.141732E+03	8.935282E-17	3.821461E-18
6.151575E+03	9.073561E-17	3.878604E-18
6.161417E+03	9.221436E-17	3.939906E-18
6.171260E+03	9.377404E-17	4.004718E-18
6.181102E+03	9.540470E-17	4.072611E-18
6.190945E+03	9.708951E-17	4.142863E-18
6.200787E+03	9.880860E-17	4.214622E-18
6.210630E+03	1.005391E-16	4.286912E-18
6.220472E+03	1.022511E-16	4.358454E-18
6.230315E+03	1.039252E-16	4.428425E-18
6.240157E+03	1.055232E-16	4.495192E-18
6.250000E+03	1.070191E-16	4.557651E-18
6.259843E+03	1.083875E-16	4.614722E-18
6.269685E+03	1.095908E-16	4.664803E-18
6.279528E+03	1.106032E-16	4.706799E-18
6.289370E+03	1.114124E-16	4.740186E-18
6.299213E+03	1.119968E-16	4.764049E-18
6.309055E+03	1.123453E-16	4.777914E-18
6.318898E+03	1.124481E-16	4.781363E-18
6.328740E+03	1.123151E-16	4.774824E-18
6.338583E+03	1.119434E-16	4.758163E-18
6.348425E+03	1.113485E-16	4.732050E-18
6.358268E+03	1.105503E-16	4.697319E-18
6.368110E+03	1.095572E-16	4.654333E-18
6.377953E+03	1.083936E-16	4.604120E-18
6.387795E+03	1.070795E-16	4.547537E-18
6.397638E+03	1.056351E-16	4.485431E-18
6.407480E+03	1.040792E-16	4.418606E-18
6.417323E+03	1.024293E-16	4.347796E-18
6.427165E+03	1.007007E-16	4.273653E-18
6.437008E+03	9.890700E-17	4.196750E-18
6.446850E+03	9.705960E-17	4.117572E-18
6.456693E+03	9.516836E-17	4.036536E-18
6.466535E+03	9.323759E-17	3.953822E-18
6.476378E+03	9.128265E-17	3.870083E-18
6.486220E+03	8.930586E-17	3.785415E-18
6.496063E+03	8.731305E-17	3.700066E-18
6.505906E+03	8.530971E-17	3.614268E-18
6.515748E+03	8.330130E-17	3.528254E-18
6.525591E+03	8.129289E-17	3.442238E-18
6.535433E+03	7.928615E-17	3.356293E-18
6.545276E+03	7.729318E-17	3.270932E-18
6.555118E+03	7.531548E-17	3.186218E-18
6.564961E+03	7.335783E-17	3.102356E-18
6.574803E+03	7.142507E-17	3.019551E-18
6.584646E+03	6.952170E-17	2.937994E-18
6.594488E+03	6.765200E-17	2.857868E-18
6.604331E+03	6.581999E-17	2.779343E-18
6.614173E+03	6.402935E-17	2.702576E-18
6.624016E+03	6.228346E-17	2.627710E-18
6.633858E+03	6.058798E-17	2.554984E-18
6.643701E+03	5.894028E-17	2.484287E-18
6.653543E+03	5.734549E-17	2.415837E-18
6.663386E+03	5.580574E-17	2.349722E-18
6.673228E+03	5.432531E-17	2.286123E-18
6.683071E+03	5.290111E-17	2.224908E-18
6.692913E+03	5.153940E-17	2.166340E-18
6.702756E+03	5.023704E-17	2.110286E-18
6.712598E+03	4.899986E-17	2.056989E-18
6.722441E+03	4.782480E-17	2.006318E-18
6.732283E+03	4.671734E-17	1.958501E-18
6.742126E+03	4.567651E-17	1.913495E-18
6.751969E+03	4.470149E-17	1.871261E-18
6.761811E+03	4.379736E-17	1.832010E-18
6.771654E+03	4.296316E-17	1.795696E-18
6.781496E+03	4.219987E-17	1.762356E-18
6.791339E+03	4.150838E-17	1.732023E-18
6.801181E+03	4.088951E-17	1.704724E-18
6.811024E+03	4.034394E-17	1.680483E-18
6.820866E+03	3.987229E-17	1.659318E-18
6.830709E+03	3.947680E-17	1.641317E-18
6.840551E+03	3.915434E-17	1.626340E-18
6.850394E+03	3.890697E-17	1.614468E-18
6.860236E+03	3.873493E-17	1.605700E-18
6.870079E+03	3.864002E-17	1.600103E-18
6.879921E+03	3.861882E-17	1.597526E-18
6.889764E+03	3.867291E-17	1.598026E-18
6.899606E+03	3.880375E-17	1.601652E-18
6.909449E+03	3.900739E-17	1.608232E-18
6.919291E+03	3.928661E-17	1.617869E-18
6.929134E+03	3.963693E-17	1.630369E-18
6.938976E+03	4.006060E-17	1.645813E-18
6.948819E+03	4.055425E-17	1.664051E-18
6.958661E+03	4.111407E-17	1.684917E-18
6.968504E+03	4.174141E-17	1.708455E-18
6.978346E+03	4.242991E-17	1.734394E-18
6.988189E+03	4.318037E-17	1.762756E-18
6.998031E+03	4.398765E-17	1.793321E-18
7.007874E+03	4.484629E-17	1.825856E-18
7.017717E+03	4.575663E-17	1.860367E-18
7.027559E+03	4.671083E-17	1.896525E-18
7.037402E+03	4.770931E-17	1.934341E-18
7.047244E+03	4.874403E-17	1.973479E-18
7.057087E+03	4.981565E-17	2.013960E-18
7.066929E+03	5.091609E-17	2.055452E-18
7.076772E+03	5.204642E-17	2.097991E-18
7.086614E+03	5.319847E-17	2.141245E-18
7.096457E+03	5.437112E-17	2.185164E-18
7.106299E+03	5.556342E-17	2.229707E-18
7.116142E+03	5.676682E-17	2.274527E-18
7.125984E+03	5.798002E-17	2.319574E-18
7.135827E+03	5.919909E-17	2.364687E-18
7.145669E+03	6.041976E-17	2.409698E-18
7.155512E+03	6.163737E-17	2.454422E-18
7.165354E+03	6.284685E-17	2.498660E-18
7.175197E+03	6.403963E-17	2.542075E-18
7.185039E+03	6.521534E-17	2.584659E-18
7.194882E+03	6.636428E-17	2.626033E-18
7.204724E+03	6.747585E-17	2.665786E-18
7.214567E+03	6.854491E-17	2.703725E-18
7.224409E+03	6.956268E-17	2.739518E-18
7.234252E+03	7.052308E-17	2.772937E-18
7.244094E+03	7.140653E-17	2.803230E-18
7.253937E+03	7.221264E-17	2.830398E-18
7.263780E+03	7.292781E-17	2.853929E-18
7.273622E+03	7.353831E-17	2.873307E-18
7.283465E+03	7.404093E-17	2.888431E-18
7.293307E+03	7.441941E-17	2.898692E-18
7.303150E+03	7.466868E-17	2.903919E-18
7.312992E+03	7.477812E-17	2.903728E-18
7.322835E+03	7.474924E-17	2.898207E-18
7.332677E+03	7.457169E-17	2.886983E-18
7.342520E+03	7.425138E-17	2.870314E-18
7.352362E+03	7.378288E-17	2.848019E-18
7.362205E+03	7.317385E-17	2.820421E-18
7.372047E+03	7.242773E-17	2.787679E-18
7.381890E+03	7.156069E-17	2.750440E-18
7.391732E+03	7.057771E-17	2.708914E-18
7.401575E+03	6.949595E-17	2.663779E-18
7.411417E+03	6.832769E-17	2.615521E-18
7.421260E+03	6.709627E-17	2.565047E-18
7.431102E+03	6.581325E-17	2.512804E-18
7.440945E+03	6.450044E-17	2.459632E-18
7.450787E+03	6.317676E-17	2.406254E-18
7.460630E+03	6.185820E-17	2.353278E-18
7.470472E+03	6.056920E-17	2.301628E-18
7.480315E+03	5.932172E-17	2.251755E-18
7.490157E+03	5.813250E-17	2.204280E-18
7.500000E+03	5.702204E-17	2.159966E-18
7.509843E+03	5.599760E-17	2.119069E-18
7.519685E+03	5.507193E-17	2.082053E-18
7.529528E+03	5.424822E-17	2.049023E-18
7.539370E+03	5.353285E-17	2.020199E-18
7.549213E+03	5.291929E-17	1.995319E-18
7.559055E+03	5.240466E-17	1.974260E-18
7.568898E+03	5.198995E-17	1.957043E-18
7.578740E+03	5.166541E-17	1.943289E-18
7.588583E+03	5.142832E-17	1.932881E-18
7.598425E+03	5.127064E-17	1.925507E-18
7.608268E+03	5.118896E-17	1.921028E-18
7.618110E+03	5.117708E-17	1.919202E-18
7.627953E+03	5.122849E-17	1.919774E-18
7.637795E+03	5.133386E-17	1.922388E-18
