#wls	flux	fluxerr
1.574803E+03	9.353607E-18	8.795488E-19
1.614173E+03	9.577250E-18	8.982624E-19
1.653543E+03	9.789262E-18	9.157180E-19
1.692913E+03	9.992006E-18	9.321395E-19
1.732283E+03	1.018401E-17	9.473923E-19
1.771654E+03	1.035779E-17	9.607839E-19
1.811024E+03	1.051158E-17	9.721626E-19
1.850394E+03	1.063313E-17	9.804096E-19
1.889764E+03	1.071415E-17	9.847871E-19
1.929134E+03	1.074523E-17	9.844646E-19
1.968504E+03	1.072217E-17	9.791009E-19
2.007874E+03	1.065239E-17	9.694193E-19
2.047244E+03	1.057187E-17	9.587263E-19
2.086614E+03	1.054022E-17	9.524200E-19
2.125984E+03	1.062831E-17	9.568309E-19
2.165354E+03	1.089910E-17	9.774829E-19
2.204724E+03	1.137071E-17	1.015799E-18
2.244094E+03	1.201530E-17	1.069078E-18
2.283465E+03	1.278493E-17	1.132869E-18
2.322835E+03	1.363019E-17	1.202653E-18
2.362205E+03	1.451748E-17	1.275371E-18
2.401575E+03	1.542218E-17	1.348795E-18
2.440945E+03	1.634044E-17	1.422545E-18
2.480315E+03	1.727157E-17	1.496516E-18
2.519685E+03	1.821612E-17	1.570716E-18
2.559055E+03	1.918163E-17	1.645743E-18
2.598425E+03	2.017373E-17	1.722025E-18
2.637795E+03	2.120110E-17	1.800234E-18
2.677165E+03	2.226639E-17	1.880513E-18
2.716535E+03	2.337468E-17	1.963206E-18
2.755906E+03	2.453740E-17	2.049172E-18
2.795276E+03	2.575267E-17	2.138144E-18
2.834646E+03	2.703174E-17	2.230932E-18
2.874016E+03	2.837536E-17	2.327466E-18
2.913386E+03	2.978735E-17	2.427918E-18
2.952756E+03	3.127911E-17	2.533061E-18
2.962598E+03	3.166461E-17	2.560067E-18
2.972441E+03	3.205364E-17	2.587236E-18
2.982283E+03	3.244621E-17	2.614566E-18
2.992126E+03	3.284650E-17	2.642390E-18
3.001969E+03	3.325486E-17	2.670734E-18
3.011811E+03	3.366340E-17	2.698960E-18
3.021654E+03	3.408030E-17	2.727722E-18
3.031496E+03	3.450660E-17	2.757100E-18
3.041339E+03	3.493544E-17	2.786541E-18
3.051181E+03	3.537089E-17	2.816368E-18
3.061024E+03	3.581693E-17	2.846893E-18
3.070866E+03	3.626900E-17	2.877750E-18
3.080709E+03	3.672681E-17	2.908911E-18
3.090551E+03	3.719452E-17	2.940703E-18
3.100394E+03	3.767196E-17	2.973107E-18
3.110236E+03	3.815002E-17	3.005401E-18
3.120079E+03	3.864196E-17	3.038625E-18
3.129921E+03	3.913408E-17	3.071699E-18
3.139764E+03	3.963527E-17	3.105316E-18
3.149606E+03	4.014545E-17	3.139467E-18
3.159449E+03	4.065989E-17	3.173776E-18
3.169291E+03	4.117841E-17	3.208228E-18
3.179134E+03	4.170560E-17	3.243177E-18
3.188976E+03	4.223664E-17	3.278243E-18
3.198819E+03	4.277621E-17	3.313786E-18
3.208661E+03	4.331942E-17	3.349425E-18
3.218504E+03	4.386615E-17	3.385145E-18
3.228346E+03	4.442120E-17	3.421316E-18
3.238189E+03	4.498459E-17	3.457933E-18
3.248031E+03	4.555128E-17	3.494606E-18
3.257874E+03	4.612117E-17	3.531324E-18
3.267717E+03	4.669924E-17	3.568465E-18
3.277559E+03	4.728038E-17	3.605635E-18
3.287402E+03	4.786965E-17	3.643217E-18
3.297244E+03	4.846186E-17	3.680811E-18
3.307087E+03	4.906216E-17	3.718805E-18
3.316929E+03	4.966528E-17	3.756797E-18
3.326772E+03	5.027645E-17	3.795178E-18
3.336614E+03	5.089033E-17	3.833541E-18
3.346457E+03	5.151221E-17	3.872283E-18
3.356299E+03	5.213668E-17	3.910992E-18
3.366142E+03	5.276365E-17	3.949660E-18
3.375984E+03	5.339853E-17	3.988687E-18
3.385827E+03	5.404131E-17	4.028069E-18
3.395669E+03	5.468643E-17	4.067388E-18
3.405512E+03	5.533380E-17	4.106634E-18
3.415354E+03	5.598895E-17	4.146216E-18
3.425197E+03	5.665188E-17	4.186127E-18
3.435039E+03	5.731686E-17	4.225942E-18
3.444882E+03	5.798377E-17	4.265649E-18
3.454724E+03	5.865830E-17	4.305663E-18
3.464567E+03	5.933458E-17	4.345552E-18
3.474409E+03	6.001835E-17	4.385731E-18
3.484252E+03	6.070369E-17	4.425765E-18
3.494094E+03	6.139638E-17	4.466072E-18
3.503937E+03	6.209040E-17	4.506211E-18
3.513780E+03	6.279162E-17	4.546605E-18
3.523622E+03	6.349394E-17	4.586810E-18
3.533465E+03	6.420326E-17	4.627249E-18
3.543307E+03	6.491341E-17	4.667472E-18
3.553150E+03	6.563033E-17	4.707908E-18
3.562992E+03	6.634778E-17	4.748102E-18
3.572835E+03	6.707176E-17	4.788484E-18
3.582677E+03	6.779593E-17	4.828598E-18
3.592520E+03	6.852008E-17	4.868426E-18
3.602362E+03	6.925029E-17	4.908401E-18
3.612205E+03	6.998642E-17	4.948507E-18
3.622047E+03	7.072194E-17	4.988281E-18
3.631890E+03	7.145669E-17	5.027710E-18
3.641732E+03	7.219671E-17	5.067219E-18
3.651575E+03	7.293552E-17	5.106351E-18
3.661417E+03	7.367921E-17	5.145530E-18
3.671260E+03	7.442108E-17	5.184287E-18
3.681102E+03	7.516737E-17	5.223055E-18
3.690945E+03	7.591137E-17	5.261367E-18
3.700787E+03	7.665276E-17	5.299202E-18
3.710630E+03	7.739773E-17	5.336986E-18
3.720472E+03	7.813939E-17	5.374244E-18
3.730315E+03	7.888415E-17	5.411417E-18
3.740157E+03	7.962499E-17	5.448022E-18
3.750000E+03	8.036822E-17	5.484492E-18
3.759843E+03	8.110683E-17	5.520348E-18
3.769685E+03	8.184043E-17	5.555565E-18
3.779528E+03	8.257532E-17	5.590574E-18
3.789370E+03	8.330435E-17	5.624889E-18
3.799213E+03	8.403396E-17	5.658948E-18
3.809055E+03	8.475012E-17	5.691808E-18
3.818898E+03	8.547273E-17	5.724808E-18
3.828740E+03	8.618093E-17	5.756554E-18
3.838583E+03	8.688791E-17	5.787930E-18
3.848425E+03	8.758633E-17	5.818449E-18
3.858268E+03	8.828258E-17	5.848541E-18
3.868110E+03	8.896915E-17	5.877710E-18
3.877953E+03	8.964558E-17	5.905931E-18
3.877953E+03	4.300144E-17	2.832974E-18
3.879921E+03	4.439604E-17	2.923218E-18
3.881890E+03	4.452721E-17	2.930217E-18
3.883858E+03	4.532293E-17	2.980914E-18
3.885827E+03	4.597847E-17	3.022337E-18
3.887795E+03	4.632805E-17	3.043610E-18
3.889764E+03	4.717731E-17	3.097666E-18
3.891732E+03	4.848904E-17	3.182008E-18
3.893701E+03	4.840334E-17	3.174600E-18
3.895669E+03	4.999198E-17	3.276950E-18
3.897638E+03	5.070692E-17	3.321944E-18
3.899606E+03	5.157354E-17	3.376816E-18
3.901575E+03	5.209193E-17	3.408836E-18
3.903543E+03	5.297629E-17	3.464752E-18
3.905512E+03	5.418874E-17	3.542047E-18
3.907480E+03	5.522289E-17	3.607606E-18
3.909449E+03	5.686306E-17	3.712654E-18
3.911417E+03	5.816938E-17	3.795795E-18
3.913386E+03	6.001046E-17	3.913716E-18
3.915354E+03	6.196162E-17	4.038673E-18
3.917323E+03	6.369420E-17	4.149248E-18
3.919291E+03	6.485059E-17	4.222180E-18
3.921260E+03	6.697054E-17	4.357723E-18
3.923228E+03	6.937377E-17	4.511531E-18
3.925197E+03	7.167386E-17	4.658458E-18
3.927165E+03	7.359370E-17	4.780513E-18
3.929134E+03	7.566995E-17	4.912579E-18
3.931102E+03	7.720428E-17	5.009328E-18
3.933071E+03	7.886610E-17	5.114231E-18
3.935039E+03	8.149248E-17	5.281522E-18
3.937008E+03	8.290132E-17	5.369755E-18
3.938976E+03	8.395834E-17	5.435107E-18
3.940945E+03	8.548348E-17	5.530666E-18
3.942913E+03	8.708417E-17	5.630997E-18
3.944882E+03	8.824052E-17	5.702493E-18
3.946850E+03	8.911979E-17	5.756006E-18
3.948819E+03	9.084316E-17	5.863940E-18
3.950787E+03	9.156713E-17	5.907271E-18
3.952756E+03	9.223347E-17	5.946831E-18
3.954724E+03	9.335103E-17	6.015418E-18
3.956693E+03	9.427817E-17	6.071656E-18
3.958661E+03	9.547737E-17	6.145336E-18
3.960630E+03	9.611013E-17	6.182489E-18
3.962598E+03	9.656378E-17	6.208079E-18
3.964567E+03	9.730685E-17	6.252230E-18
3.966535E+03	9.775508E-17	6.277393E-18
3.968504E+03	9.821499E-17	6.303270E-18
3.970472E+03	9.901666E-17	6.351033E-18
3.972441E+03	9.948279E-17	6.377227E-18
3.974409E+03	9.906900E-17	6.347012E-18
3.976378E+03	9.947742E-17	6.369472E-18
3.978346E+03	9.939954E-17	6.360781E-18
3.980315E+03	9.902037E-17	6.332826E-18
3.982283E+03	9.876864E-17	6.313045E-18
3.984252E+03	9.925850E-17	6.340655E-18
3.986220E+03	9.899518E-17	6.320143E-18
3.988189E+03	9.880138E-17	6.304085E-18
3.990157E+03	9.874091E-17	6.296543E-18
3.992126E+03	9.930075E-17	6.328538E-18
3.994094E+03	9.935056E-17	6.328005E-18
3.996063E+03	9.977157E-17	6.351097E-18
3.998031E+03	9.998395E-17	6.360883E-18
4.000000E+03	1.008751E-16	6.413814E-18
4.001969E+03	1.012445E-16	6.433515E-18
4.003937E+03	1.014340E-16	6.441773E-18
4.005906E+03	1.020358E-16	6.476176E-18
4.007874E+03	1.024056E-16	6.495822E-18
4.009843E+03	1.025839E-16	6.503299E-18
4.011811E+03	1.037553E-16	6.573681E-18
4.013780E+03	1.040965E-16	6.591410E-18
4.015748E+03	1.046528E-16	6.622724E-18
4.017717E+03	1.046749E-16	6.620208E-18
4.019685E+03	1.049875E-16	6.636053E-18
4.021654E+03	1.048644E-16	6.624351E-18
4.023622E+03	1.051249E-16	6.636872E-18
4.025591E+03	1.049379E-16	6.621138E-18
4.027559E+03	1.055823E-16	6.657846E-18
4.029528E+03	1.054593E-16	6.646146E-18
4.031496E+03	1.056679E-16	6.655336E-18
4.033465E+03	1.070806E-16	6.740306E-18
4.035433E+03	1.076211E-16	6.770299E-18
4.037402E+03	1.078651E-16	6.781610E-18
4.039370E+03	1.085341E-16	6.819607E-18
4.041339E+03	1.094186E-16	6.871086E-18
4.043307E+03	1.092381E-16	6.855661E-18
4.045276E+03	1.088539E-16	6.827469E-18
4.047244E+03	1.088887E-16	6.825577E-18
4.049213E+03	1.091159E-16	6.835731E-18
4.051181E+03	1.089238E-16	6.819614E-18
4.053150E+03	1.086267E-16	6.796945E-18
4.055118E+03	1.086617E-16	6.795062E-18
4.057087E+03	1.091397E-16	6.820865E-18
4.059055E+03	1.086328E-16	6.785113E-18
4.061024E+03	1.087554E-16	6.788692E-18
4.062992E+03	1.089363E-16	6.795904E-18
4.064961E+03	1.092632E-16	6.812199E-18
4.066929E+03	1.087561E-16	6.776506E-18
4.068898E+03	1.081439E-16	6.734305E-18
4.070866E+03	1.068722E-16	6.651107E-18
4.072835E+03	1.065629E-16	6.627865E-18
4.074803E+03	1.056525E-16	6.567275E-18
4.076772E+03	1.052905E-16	6.540825E-18
4.078740E+03	1.046306E-16	6.495910E-18
4.080709E+03	1.040523E-16	6.456105E-18
4.082677E+03	1.040579E-16	6.452548E-18
4.084646E+03	1.033275E-16	6.403380E-18
4.086614E+03	1.025677E-16	6.352444E-18
4.088583E+03	1.019946E-16	6.313127E-18
4.090551E+03	1.008487E-16	6.238413E-18
4.092520E+03	9.984258E-17	6.172432E-18
4.094488E+03	9.891229E-17	6.111210E-18
4.096457E+03	9.893471E-17	6.108883E-18
4.098425E+03	9.853030E-17	6.080216E-18
4.100394E+03	9.816086E-17	6.053735E-18
4.102362E+03	9.824763E-17	6.055401E-18
4.104331E+03	9.820571E-17	6.049133E-18
4.106299E+03	9.808779E-17	6.038189E-18
4.108268E+03	9.854338E-17	6.062538E-18
4.110236E+03	9.861282E-17	6.063110E-18
4.112205E+03	9.923857E-17	6.097860E-18
4.114173E+03	9.952484E-17	6.111716E-18
4.116142E+03	9.947156E-17	6.104713E-18
4.118110E+03	9.947100E-17	6.100947E-18
4.120079E+03	9.946457E-17	6.096821E-18
4.122047E+03	9.963403E-17	6.103470E-18
4.124016E+03	9.974492E-17	6.106522E-18
4.125984E+03	9.946902E-17	6.085900E-18
4.127953E+03	9.865356E-17	6.032306E-18
4.129921E+03	9.829530E-17	6.006713E-18
4.131890E+03	9.748534E-17	5.953560E-18
4.133858E+03	9.761954E-17	5.958095E-18
4.135827E+03	9.794157E-17	5.974076E-18
4.137795E+03	9.809946E-17	5.980028E-18
4.139764E+03	9.844516E-17	5.997409E-18
4.141732E+03	9.852694E-17	5.998697E-18
4.143701E+03	9.835622E-17	5.984615E-18
4.145669E+03	9.805047E-17	5.962334E-18
4.147638E+03	9.769761E-17	5.937215E-18
4.149606E+03	9.816121E-17	5.961708E-18
4.151575E+03	9.807851E-17	5.953009E-18
4.153543E+03	9.813104E-17	5.952519E-18
4.155512E+03	9.834818E-17	5.962005E-18
4.157480E+03	9.842424E-17	5.962927E-18
4.159449E+03	9.855334E-17	5.967055E-18
4.161417E+03	9.857079E-17	5.964418E-18
4.163386E+03	9.882939E-17	5.976363E-18
4.165354E+03	9.889988E-17	5.976920E-18
4.167323E+03	9.825257E-17	5.934121E-18
4.169291E+03	9.796988E-17	5.913378E-18
4.171260E+03	9.808155E-17	5.916445E-18
4.173228E+03	9.842866E-17	5.933697E-18
4.175197E+03	9.896437E-17	5.962287E-18
4.177165E+03	9.870532E-17	5.942984E-18
4.179134E+03	9.865231E-17	5.936100E-18
4.181102E+03	9.852860E-17	5.924968E-18
4.183071E+03	9.849914E-17	5.919511E-18
4.185039E+03	9.848732E-17	5.915115E-18
4.187008E+03	9.829286E-17	5.899759E-18
4.188976E+03	9.859944E-17	5.914472E-18
4.190945E+03	9.888256E-17	5.927757E-18
4.192913E+03	9.851119E-17	5.901810E-18
4.194882E+03	9.825765E-17	5.882947E-18
4.196850E+03	9.799227E-17	5.863394E-18
4.198819E+03	9.785663E-17	5.851621E-18
4.200787E+03	9.752621E-17	5.828218E-18
4.202756E+03	9.704216E-17	5.795665E-18
4.204724E+03	9.654619E-17	5.762437E-18
4.206693E+03	9.544181E-17	5.692957E-18
4.208661E+03	9.481547E-17	5.652056E-18
4.210630E+03	9.391720E-17	5.595003E-18
4.212598E+03	9.368616E-17	5.577741E-18
4.214567E+03	9.327198E-17	5.549601E-18
4.216535E+03	9.257386E-17	5.504610E-18
4.218504E+03	9.244896E-17	5.493734E-18
4.220472E+03	9.189838E-17	5.457588E-18
4.222441E+03	9.099272E-17	5.400410E-18
4.224409E+03	9.070190E-17	5.379768E-18
4.226378E+03	9.040506E-17	5.358793E-18
4.228346E+03	8.978270E-17	5.318556E-18
4.230315E+03	8.958034E-17	5.303231E-18
4.232283E+03	8.894575E-17	5.262350E-18
4.234252E+03	8.837610E-17	5.225356E-18
4.236220E+03	8.799576E-17	5.199592E-18
4.238189E+03	8.809499E-17	5.202177E-18
4.240157E+03	8.825346E-17	5.208250E-18
4.242126E+03	8.887415E-17	5.241574E-18
4.244094E+03	8.877219E-17	5.232259E-18
4.246063E+03	8.906134E-17	5.245990E-18
4.248031E+03	8.913722E-17	5.247146E-18
4.250000E+03	8.949774E-17	5.265043E-18
4.251969E+03	8.946106E-17	5.259561E-18
4.253937E+03	8.969129E-17	5.269766E-18
4.255906E+03	8.986228E-17	5.276475E-18
4.257874E+03	8.975450E-17	5.266816E-18
4.259843E+03	8.948647E-17	5.247767E-18
4.261811E+03	8.930737E-17	5.233951E-18
4.263780E+03	8.953782E-17	5.244136E-18
4.265748E+03	9.026725E-17	5.283511E-18
4.267717E+03	9.057520E-17	5.298179E-18
4.269685E+03	9.051499E-17	5.291303E-18
4.271654E+03	9.100733E-17	5.316714E-18
4.273622E+03	9.116120E-17	5.322327E-18
4.275591E+03	9.098822E-17	5.308860E-18
4.277559E+03	9.076764E-17	5.292631E-18
4.279528E+03	9.079667E-17	5.290966E-18
4.281496E+03	9.033810E-17	5.260903E-18
4.283465E+03	9.065258E-17	5.275866E-18
4.285433E+03	9.040202E-17	5.257944E-18
4.287402E+03	9.069887E-17	5.271859E-18
4.289370E+03	9.104343E-17	5.288525E-18
4.291339E+03	9.109045E-17	5.287894E-18
4.293307E+03	9.107800E-17	5.283811E-18
4.295276E+03	9.150024E-17	5.304932E-18
4.297244E+03	9.142835E-17	5.297393E-18
4.299213E+03	9.192234E-17	5.322627E-18
4.301181E+03	9.238071E-17	5.345766E-18
4.303150E+03	9.254138E-17	5.351655E-18
4.305118E+03	9.355442E-17	5.406795E-18
4.307087E+03	9.364980E-17	5.408862E-18
4.309055E+03	9.388237E-17	5.418841E-18
4.311024E+03	9.410911E-17	5.428469E-18
4.312992E+03	9.390642E-17	5.413326E-18
4.314961E+03	9.443154E-17	5.440129E-18
4.316929E+03	9.471819E-17	5.453164E-18
4.318898E+03	9.453341E-17	5.439057E-18
4.320866E+03	9.433071E-17	5.423934E-18
4.322835E+03	9.480860E-17	5.447935E-18
4.324803E+03	9.465963E-17	5.435906E-18
4.326772E+03	9.489285E-17	5.445822E-18
4.328740E+03	9.435552E-17	5.411531E-18
4.330709E+03	9.457090E-17	5.420421E-18
4.332677E+03	9.462499E-17	5.420060E-18
4.334646E+03	9.400368E-17	5.381034E-18
4.336614E+03	9.314296E-17	5.328360E-18
4.338583E+03	9.295762E-17	5.314362E-18
4.340551E+03	9.288589E-17	5.306869E-18
4.342520E+03	9.337646E-17	5.331490E-18
4.344488E+03	9.274831E-17	5.292242E-18
4.346457E+03	9.262865E-17	5.282037E-18
4.348425E+03	9.228742E-17	5.259216E-18
4.350394E+03	9.151503E-17	5.211867E-18
4.352362E+03	9.164061E-17	5.215682E-18
4.354331E+03	9.159851E-17	5.209954E-18
4.356299E+03	9.204755E-17	5.232148E-18
4.358268E+03	9.244894E-17	5.251604E-18
4.360236E+03	9.290435E-17	5.274099E-18
4.362205E+03	9.335998E-17	5.296575E-18
4.364173E+03	9.419347E-17	5.340444E-18
4.366142E+03	9.493737E-17	5.379178E-18
4.368110E+03	9.520772E-17	5.391046E-18
4.370079E+03	9.527427E-17	5.391363E-18
4.372047E+03	9.607887E-17	5.433416E-18
4.374016E+03	9.648762E-17	5.453041E-18
4.375984E+03	9.703467E-17	5.480449E-18
4.377953E+03	9.675945E-17	5.461409E-18
4.379921E+03	9.694651E-17	5.468466E-18
4.381890E+03	9.686934E-17	5.460617E-18
4.383858E+03	9.724272E-17	5.478157E-18
4.385827E+03	9.696130E-17	5.458808E-18
4.387795E+03	9.707048E-17	5.461458E-18
4.389764E+03	9.731787E-17	5.471874E-18
4.391732E+03	9.707841E-17	5.454917E-18
4.393701E+03	9.713351E-17	5.454521E-18
4.395669E+03	9.709247E-17	5.448727E-18
4.397638E+03	9.712352E-17	5.446982E-18
4.399606E+03	9.706441E-17	5.440184E-18
4.401575E+03	9.765509E-17	5.469787E-18
4.403543E+03	9.798723E-17	5.484880E-18
4.405512E+03	9.813295E-17	5.489521E-18
4.407480E+03	9.815820E-17	5.487421E-18
4.409449E+03	9.731035E-17	5.436543E-18
4.411417E+03	9.705846E-17	5.419001E-18
4.413386E+03	9.660166E-17	5.390047E-18
4.415354E+03	9.652422E-17	5.382280E-18
4.417323E+03	9.564530E-17	5.329860E-18
4.419291E+03	9.472978E-17	5.275466E-18
4.421260E+03	9.480878E-17	5.276489E-18
4.423228E+03	9.437514E-17	5.248996E-18
4.425197E+03	9.386903E-17	5.217509E-18
4.427165E+03	9.407454E-17	5.225589E-18
4.429134E+03	9.417759E-17	5.227968E-18
4.431102E+03	9.385822E-17	5.206909E-18
4.433071E+03	9.344819E-17	5.180849E-18
4.435039E+03	9.328555E-17	5.168527E-18
4.437008E+03	9.315300E-17	5.157885E-18
4.438976E+03	9.315936E-17	5.154941E-18
4.440945E+03	9.321405E-17	5.154673E-18
4.442913E+03	9.323244E-17	5.152396E-18
4.444882E+03	9.335366E-17	5.155801E-18
4.446850E+03	9.369253E-17	5.171212E-18
4.448819E+03	9.374730E-17	5.170931E-18
4.450787E+03	9.406217E-17	5.184987E-18
4.452756E+03	9.421393E-17	5.190038E-18
4.454724E+03	9.431123E-17	5.192083E-18
4.456693E+03	9.470500E-17	5.210435E-18
4.458661E+03	9.472989E-17	5.208480E-18
4.460630E+03	9.407073E-17	5.168939E-18
4.462598E+03	9.388960E-17	5.155697E-18
4.464567E+03	9.389607E-17	5.152766E-18
4.466535E+03	9.323640E-17	5.113304E-18
4.468504E+03	9.321856E-17	5.109068E-18
4.470472E+03	9.318254E-17	5.103841E-18
4.472441E+03	9.294647E-17	5.087668E-18
4.474409E+03	9.308618E-17	5.092071E-18
4.476378E+03	9.284397E-17	5.075589E-18
4.478346E+03	9.219541E-17	5.036926E-18
4.480315E+03	9.174675E-17	5.009225E-18
4.482283E+03	9.117049E-17	4.974596E-18
4.484252E+03	9.137667E-17	4.982675E-18
4.486220E+03	9.115818E-17	4.967602E-18
4.488189E+03	9.174691E-17	4.996507E-18
4.490157E+03	9.156475E-17	4.983418E-18
4.492126E+03	9.174694E-17	4.990162E-18
4.494094E+03	9.154053E-17	4.975774E-18
4.496063E+03	9.144330E-17	4.967334E-18
4.498031E+03	9.133997E-17	4.958573E-18
4.500000E+03	9.147368E-17	4.962682E-18
4.501969E+03	9.182011E-17	4.978318E-18
4.503937E+03	9.233086E-17	5.002836E-18
4.505906E+03	9.298770E-17	5.035234E-18
4.507874E+03	9.422264E-17	5.098874E-18
4.509843E+03	9.473419E-17	5.123310E-18
4.511811E+03	9.514244E-17	5.142132E-18
4.513780E+03	9.553874E-17	5.160284E-18
4.515748E+03	9.624559E-17	5.195174E-18
4.517717E+03	9.642310E-17	5.201465E-18
4.519685E+03	9.691118E-17	5.224491E-18
4.521654E+03	9.764915E-17	5.260950E-18
4.523622E+03	9.926467E-17	5.344610E-18
4.525591E+03	1.002411E-16	5.393775E-18
4.527559E+03	1.006633E-16	5.413078E-18
4.529528E+03	1.015916E-16	5.459550E-18
4.531496E+03	1.026056E-16	5.510567E-18
4.533465E+03	1.034005E-16	5.549762E-18
4.535433E+03	1.043055E-16	5.594808E-18
4.537402E+03	1.046374E-16	5.609079E-18
4.539370E+03	1.059946E-16	5.678255E-18
4.541339E+03	1.067053E-16	5.712735E-18
4.543307E+03	1.077215E-16	5.763516E-18
4.545276E+03	1.097760E-16	5.869752E-18
4.547244E+03	1.112452E-16	5.944572E-18
4.549213E+03	1.127760E-16	6.022591E-18
4.551181E+03	1.141118E-16	6.090109E-18
4.553150E+03	1.157477E-16	6.173543E-18
4.555118E+03	1.167058E-16	6.220743E-18
4.557087E+03	1.185751E-16	6.316425E-18
4.559055E+03	1.198704E-16	6.381429E-18
4.561024E+03	1.210195E-16	6.438571E-18
4.562992E+03	1.224014E-16	6.508023E-18
4.564961E+03	1.234719E-16	6.560840E-18
4.566929E+03	1.244205E-16	6.607118E-18
4.568898E+03	1.254062E-16	6.655303E-18
4.570866E+03	1.258719E-16	6.675854E-18
4.572835E+03	1.271093E-16	6.737278E-18
4.574803E+03	1.277042E-16	6.764595E-18
4.576772E+03	1.287464E-16	6.815556E-18
4.578740E+03	1.290662E-16	6.828235E-18
4.580709E+03	1.303725E-16	6.893057E-18
4.582677E+03	1.313300E-16	6.939372E-18
4.584646E+03	1.314483E-16	6.941308E-18
4.586614E+03	1.319895E-16	6.965565E-18
4.588583E+03	1.324145E-16	6.983659E-18
4.590551E+03	1.326862E-16	6.993657E-18
4.592520E+03	1.329827E-16	7.004941E-18
4.594488E+03	1.332117E-16	7.012666E-18
4.596457E+03	1.328947E-16	6.991651E-18
4.598425E+03	1.326634E-16	6.975174E-18
4.600394E+03	1.325303E-16	6.963873E-18
4.602362E+03	1.323358E-16	6.949362E-18
4.604331E+03	1.327983E-16	6.969352E-18
4.606299E+03	1.327818E-16	6.964194E-18
4.608268E+03	1.324274E-16	6.941332E-18
4.610236E+03	1.318515E-16	6.906899E-18
4.612205E+03	1.319763E-16	6.909185E-18
4.614173E+03	1.322055E-16	6.916939E-18
4.616142E+03	1.316724E-16	6.884817E-18
4.618110E+03	1.314465E-16	6.868793E-18
4.620079E+03	1.309314E-16	6.837687E-18
4.622047E+03	1.299730E-16	6.783487E-18
4.624016E+03	1.292482E-16	6.741534E-18
4.625984E+03	1.289417E-16	6.721435E-18
4.627953E+03	1.287335E-16	6.706486E-18
