#wls	flux	fluxerr
1.574803E+03	9.473284E-18	9.457788E-19
1.614173E+03	9.742617E-18	9.724134E-19
1.653543E+03	1.000287E-17	9.981219E-19
1.692913E+03	1.025635E-17	1.023134E-18
1.732283E+03	1.049783E-17	1.046929E-18
1.771654E+03	1.072471E-17	1.069247E-18
1.811024E+03	1.092946E-17	1.089340E-18
1.850394E+03	1.110449E-17	1.106451E-18
1.889764E+03	1.123503E-17	1.119113E-18
1.929134E+03	1.131436E-17	1.126659E-18
1.968504E+03	1.133546E-17	1.128396E-18
2.007874E+03	1.130733E-17	1.125224E-18
2.047244E+03	1.126396E-17	1.120531E-18
2.086614E+03	1.127090E-17	1.120834E-18
2.125984E+03	1.140652E-17	1.133920E-18
2.165354E+03	1.173814E-17	1.166467E-18
2.204724E+03	1.228526E-17	1.220386E-18
2.244094E+03	1.302139E-17	1.293025E-18
2.283465E+03	1.389584E-17	1.379329E-18
2.322835E+03	1.485559E-17	1.474016E-18
2.362205E+03	1.586176E-17	1.573221E-18
2.401575E+03	1.688933E-17	1.674455E-18
2.440945E+03	1.793114E-17	1.777000E-18
2.480315E+03	1.898565E-17	1.880703E-18
2.519685E+03	2.005566E-17	1.985836E-18
2.559055E+03	2.114596E-17	2.092865E-18
2.598425E+03	2.226198E-17	2.202327E-18
2.637795E+03	2.340923E-17	2.314756E-18
2.677165E+03	2.459656E-17	2.431023E-18
2.716535E+03	2.582152E-17	2.550874E-18
2.755906E+03	2.709596E-17	2.675473E-18
2.795276E+03	2.842009E-17	2.804830E-18
2.834646E+03	2.980166E-17	2.939699E-18
2.874016E+03	3.123972E-17	3.079974E-18
2.913386E+03	3.273687E-17	3.225897E-18
2.952756E+03	3.430005E-17	3.378142E-18
2.962598E+03	3.469915E-17	3.416992E-18
2.972441E+03	3.510650E-17	3.456640E-18
2.982283E+03	3.551233E-17	3.496127E-18
2.992126E+03	3.592656E-17	3.536428E-18
3.001969E+03	3.634458E-17	3.577089E-18
3.011811E+03	3.676669E-17	3.618139E-18
3.021654E+03	3.719792E-17	3.660074E-18
3.031496E+03	3.762907E-17	3.701987E-18
3.041339E+03	3.806746E-17	3.744598E-18
3.051181E+03	3.850711E-17	3.787320E-18
3.061024E+03	3.895813E-17	3.831146E-18
3.070866E+03	3.942030E-17	3.876054E-18
3.080709E+03	3.988260E-17	3.920959E-18
3.090551E+03	4.035001E-17	3.966353E-18
3.100394E+03	4.082775E-17	4.012747E-18
3.110236E+03	4.131014E-17	4.059582E-18
3.120079E+03	4.179128E-17	4.106279E-18
3.129921E+03	4.228775E-17	4.154466E-18
3.139764E+03	4.278249E-17	4.202467E-18
3.149606E+03	4.328087E-17	4.250810E-18
3.159449E+03	4.378849E-17	4.300045E-18
3.169291E+03	4.429945E-17	4.349590E-18
3.179134E+03	4.480764E-17	4.398846E-18
3.188976E+03	4.533061E-17	4.449536E-18
3.198819E+03	4.585044E-17	4.499902E-18
3.208661E+03	4.637289E-17	4.550507E-18
3.218504E+03	4.690391E-17	4.601936E-18
3.228346E+03	4.743117E-17	4.652978E-18
3.238189E+03	4.796681E-17	4.704824E-18
3.248031E+03	4.850456E-17	4.756859E-18
3.257874E+03	4.905060E-17	4.809690E-18
3.267717E+03	4.959223E-17	4.862069E-18
3.277559E+03	5.013557E-17	4.914598E-18
3.287402E+03	5.068697E-17	4.967898E-18
3.297244E+03	5.123993E-17	5.021333E-18
3.307087E+03	5.179434E-17	5.074892E-18
3.316929E+03	5.235007E-17	5.128560E-18
3.326772E+03	5.290701E-17	5.182327E-18
3.336614E+03	5.347175E-17	5.236840E-18
3.346457E+03	5.403755E-17	5.291437E-18
3.356299E+03	5.459748E-17	5.345440E-18
3.366142E+03	5.516500E-17	5.400166E-18
3.375984E+03	5.573322E-17	5.454942E-18
3.385827E+03	5.630898E-17	5.510436E-18
3.395669E+03	5.687829E-17	5.565278E-18
3.405512E+03	5.745499E-17	5.620823E-18
3.415354E+03	5.802486E-17	5.675680E-18
3.425197E+03	5.860197E-17	5.731225E-18
3.435039E+03	5.917910E-17	5.786753E-18
3.444882E+03	5.975613E-17	5.842250E-18
3.454724E+03	6.034021E-17	5.898415E-18
3.464567E+03	6.091663E-17	5.953813E-18
3.474409E+03	6.149991E-17	6.009859E-18
3.484252E+03	6.208259E-17	6.065827E-18
3.494094E+03	6.266451E-17	6.121699E-18
3.503937E+03	6.324551E-17	6.177460E-18
3.513780E+03	6.382543E-17	6.233096E-18
3.523622E+03	6.440409E-17	6.288588E-18
3.533465E+03	6.498899E-17	6.344668E-18
3.543307E+03	6.556467E-17	6.399827E-18
3.553150E+03	6.614631E-17	6.455547E-18
3.562992E+03	6.672606E-17	6.511062E-18
3.572835E+03	6.730372E-17	6.566353E-18
3.582677E+03	6.787911E-17	6.621401E-18
3.592520E+03	6.845201E-17	6.676185E-18
3.602362E+03	6.902224E-17	6.730688E-18
3.612205E+03	6.959755E-17	6.785667E-18
3.622047E+03	7.016985E-17	6.840330E-18
3.631890E+03	7.073081E-17	6.893868E-18
3.641732E+03	7.129632E-17	6.947829E-18
3.651575E+03	7.185813E-17	7.001409E-18
3.661417E+03	7.241602E-17	7.054586E-18
3.671260E+03	7.296972E-17	7.107335E-18
3.681102E+03	7.352727E-17	7.160439E-18
3.690945E+03	7.407195E-17	7.212269E-18
3.700787E+03	7.462005E-17	7.264413E-18
3.710630E+03	7.515472E-17	7.315229E-18
3.720472E+03	7.569238E-17	7.366317E-18
3.730315E+03	7.622447E-17	7.416842E-18
3.740157E+03	7.675071E-17	7.466780E-18
3.750000E+03	7.727086E-17	7.516106E-18
3.759843E+03	7.778467E-17	7.564797E-18
3.769685E+03	7.829188E-17	7.612826E-18
3.779528E+03	7.879221E-17	7.660169E-18
3.789370E+03	7.929402E-17	7.707637E-18
3.799213E+03	7.977986E-17	7.753535E-18
3.809055E+03	8.026682E-17	7.799523E-18
3.818898E+03	8.073718E-17	7.843882E-18
3.828740E+03	8.120818E-17	7.888285E-18
3.838583E+03	8.167081E-17	7.931859E-18
3.848425E+03	8.211626E-17	7.973747E-18
3.858268E+03	8.256156E-17	8.015605E-18
3.868110E+03	8.299791E-17	8.056577E-18
3.877953E+03	8.342505E-17	8.096640E-18
3.887795E+03	8.384272E-17	8.135770E-18
3.897638E+03	8.425093E-17	8.173965E-18
3.907480E+03	8.464932E-17	8.211193E-18
3.917323E+03	8.503779E-17	8.247446E-18
3.927165E+03	8.541632E-17	8.282721E-18
3.937008E+03	8.579352E-17	8.317853E-18
3.946850E+03	8.615172E-17	8.351130E-18
3.956693E+03	8.649966E-17	8.383400E-18
3.966535E+03	8.683732E-17	8.414662E-18
3.976378E+03	8.717364E-17	8.445782E-18
3.986220E+03	8.749081E-17	8.475036E-18
3.996063E+03	8.779792E-17	8.503305E-18
4.005906E+03	8.810387E-17	8.531451E-18
4.015748E+03	8.839111E-17	8.557775E-18
4.025591E+03	8.867754E-17	8.584010E-18
4.035433E+03	8.894574E-17	8.608472E-18
4.045276E+03	8.920485E-17	8.632045E-18
4.055118E+03	8.946412E-17	8.655626E-18
4.064961E+03	8.970608E-17	8.677524E-18
4.074803E+03	8.994008E-17	8.698644E-18
4.084646E+03	9.017545E-17	8.719890E-18
4.094488E+03	9.039495E-17	8.739594E-18
4.104331E+03	9.060808E-17	8.758676E-18
4.114173E+03	9.081530E-17	8.777181E-18
4.124016E+03	9.102618E-17	8.796033E-18
4.133858E+03	9.122355E-17	8.813574E-18
4.143701E+03	9.141698E-17	8.830729E-18
4.153543E+03	9.160726E-17	8.847575E-18
4.163386E+03	9.179493E-17	8.864164E-18
4.173228E+03	9.198089E-17	8.880583E-18
4.183071E+03	9.216576E-17	8.896893E-18
4.192913E+03	9.235035E-17	8.913172E-18
4.202756E+03	9.253539E-17	8.929489E-18
4.212598E+03	9.271293E-17	8.945079E-18
4.222441E+03	9.290104E-17	8.961685E-18
4.232283E+03	9.309189E-17	8.978551E-18
4.242126E+03	9.327731E-17	8.994891E-18
4.251969E+03	9.346676E-17	9.011615E-18
4.261811E+03	9.366961E-17	9.029627E-18
4.271654E+03	9.386909E-17	9.047311E-18
4.281496E+03	9.407440E-17	9.065553E-18
4.291339E+03	9.428623E-17	9.084420E-18
4.301181E+03	9.450498E-17	9.103950E-18
4.311024E+03	9.473108E-17	9.124184E-18
4.320866E+03	9.496504E-17	9.145171E-18
4.330709E+03	9.519841E-17	9.166098E-18
4.340551E+03	9.544901E-17	9.188681E-18
4.350394E+03	9.569962E-17	9.211259E-18
4.360236E+03	9.595910E-17	9.234688E-18
4.370079E+03	9.623639E-17	9.259826E-18
4.379921E+03	9.651410E-17	9.285001E-18
4.389764E+03	9.679222E-17	9.310210E-18
4.399606E+03	9.708818E-17	9.337132E-18
4.409449E+03	9.739317E-17	9.364918E-18
4.419291E+03	9.769832E-17	9.392714E-18
4.429134E+03	9.802079E-17	9.422171E-18
4.438976E+03	9.834301E-17	9.451599E-18
4.448819E+03	9.867325E-17	9.481795E-18
4.458661E+03	9.901129E-17	9.512735E-18
4.468504E+03	9.934795E-17	9.543538E-18
4.478346E+03	9.970030E-17	9.575844E-18
4.488189E+03	1.000504E-16	9.607932E-18
4.498031E+03	1.004065E-16	9.640585E-18
4.507874E+03	1.007681E-16	9.673770E-18
4.517717E+03	1.011347E-16	9.707423E-18
4.527559E+03	1.015058E-16	9.741510E-18
4.537402E+03	1.018720E-16	9.775128E-18
4.547244E+03	1.022506E-16	9.809927E-18
4.557087E+03	1.026233E-16	9.844157E-18
4.566929E+03	1.029985E-16	9.878622E-18
4.576772E+03	1.033670E-16	9.912440E-18
4.586614E+03	1.037461E-16	9.947274E-18
4.596457E+03	1.041175E-16	9.981376E-18
4.606299E+03	1.044901E-16	1.001558E-17
4.616142E+03	1.048634E-16	1.004985E-17
4.625984E+03	1.052374E-16	1.008419E-17
4.635827E+03	1.056118E-16	1.011857E-17
4.645669E+03	1.059778E-16	1.015215E-17
4.655512E+03	1.063443E-16	1.018577E-17
4.665354E+03	1.067114E-16	1.021944E-17
4.675197E+03	1.070793E-16	1.025320E-17
4.685039E+03	1.074393E-16	1.028620E-17
4.694882E+03	1.078099E-16	1.032022E-17
4.704724E+03	1.081734E-16	1.035356E-17
4.714567E+03	1.085305E-16	1.038628E-17
4.724409E+03	1.088998E-16	1.042017E-17
4.734252E+03	1.092639E-16	1.045358E-17
4.744094E+03	1.096418E-16	1.048830E-17
4.753937E+03	1.100158E-16	1.052266E-17
4.763780E+03	1.103869E-16	1.055674E-17
4.773622E+03	1.107740E-16	1.059235E-17
4.783465E+03	1.111594E-16	1.062781E-17
4.793307E+03	1.115532E-16	1.066406E-17
4.803150E+03	1.119560E-16	1.070118E-17
4.812992E+03	1.123591E-16	1.073834E-17
4.822835E+03	1.127818E-16	1.077736E-17
4.832677E+03	1.132059E-16	1.081653E-17
4.842520E+03	1.136413E-16	1.085678E-17
4.852362E+03	1.140788E-16	1.089723E-17
4.862205E+03	1.145375E-16	1.093970E-17
4.872047E+03	1.149989E-16	1.098243E-17
4.881890E+03	1.154722E-16	1.102631E-17
4.891732E+03	1.159481E-16	1.107044E-17
4.901575E+03	1.164451E-16	1.111658E-17
4.911417E+03	1.169440E-16	1.116291E-17
4.921260E+03	1.174541E-16	1.121030E-17
4.931102E+03	1.179745E-16	1.125869E-17
4.940945E+03	1.184954E-16	1.130712E-17
4.950787E+03	1.190253E-16	1.135641E-17
4.960630E+03	1.195634E-16	1.140649E-17
4.970472E+03	1.201088E-16	1.145727E-17
4.980315E+03	1.206605E-16	1.150865E-17
4.990157E+03	1.212076E-16	1.155959E-17
5.000000E+03	1.217586E-16	1.161091E-17
5.009843E+03	1.223026E-16	1.166156E-17
5.019685E+03	1.228576E-16	1.171328E-17
5.029528E+03	1.234028E-16	1.176405E-17
5.039370E+03	1.239466E-16	1.181470E-17
5.049213E+03	1.244875E-16	1.186507E-17
5.059055E+03	1.250240E-16	1.191503E-17
5.068898E+03	1.255447E-16	1.196349E-17
5.078740E+03	1.260579E-16	1.201124E-17
5.088583E+03	1.265620E-16	1.205813E-17
5.098425E+03	1.270455E-16	1.210306E-17
5.108268E+03	1.275268E-16	1.214779E-17
5.118110E+03	1.279841E-16	1.219024E-17
5.127953E+03	1.284258E-16	1.223121E-17
5.137795E+03	1.288401E-16	1.226959E-17
5.147638E+03	1.292456E-16	1.230713E-17
5.157480E+03	1.296204E-16	1.234176E-17
5.167323E+03	1.299728E-16	1.237426E-17
5.177165E+03	1.302909E-16	1.240351E-17
5.187008E+03	1.305935E-16	1.243130E-17
5.196850E+03	1.308585E-16	1.245552E-17
5.206693E+03	1.310943E-16	1.247698E-17
5.216535E+03	1.312993E-16	1.249552E-17
5.226378E+03	1.314618E-16	1.251002E-17
5.236220E+03	1.315903E-16	1.252131E-17
5.246063E+03	1.316834E-16	1.252923E-17
5.255906E+03	1.317395E-16	1.253367E-17
5.265748E+03	1.317575E-16	1.253449E-17
5.275591E+03	1.317255E-16	1.253057E-17
5.285433E+03	1.316529E-16	1.252281E-17
5.295276E+03	1.315384E-16	1.251108E-17
5.305118E+03	1.313812E-16	1.249531E-17
5.314961E+03	1.311701E-16	1.247444E-17
5.324803E+03	1.309250E-16	1.245034E-17
5.334646E+03	1.306248E-16	1.242104E-17
5.344488E+03	1.302694E-16	1.238650E-17
5.354331E+03	1.298787E-16	1.234863E-17
5.364173E+03	1.294325E-16	1.230551E-17
5.374016E+03	1.289411E-16	1.225811E-17
5.383858E+03	1.284049E-16	1.220647E-17
5.393701E+03	1.278242E-16	1.215063E-17
5.403543E+03	1.272000E-16	1.209067E-17
5.413386E+03	1.265234E-16	1.202576E-17
5.423228E+03	1.258053E-16	1.195693E-17
5.433071E+03	1.250472E-16	1.188432E-17
5.442913E+03	1.242508E-16	1.180809E-17
5.452756E+03	1.234082E-16	1.172751E-17
5.462598E+03	1.225405E-16	1.164456E-17
5.472441E+03	1.216310E-16	1.155766E-17
5.482283E+03	1.206915E-16	1.146793E-17
5.492126E+03	1.197155E-16	1.137476E-17
5.501969E+03	1.187241E-16	1.128015E-17
5.511811E+03	1.177018E-16	1.118263E-17
5.521654E+03	1.166609E-16	1.108337E-17
5.531496E+03	1.156046E-16	1.098266E-17
5.541339E+03	1.145359E-16	1.088081E-17
5.551181E+03	1.134585E-16	1.077814E-17
5.561024E+03	1.123667E-16	1.067414E-17
5.570866E+03	1.112730E-16	1.056997E-17
5.580709E+03	1.101807E-16	1.046596E-17
5.590551E+03	1.090931E-16	1.036242E-17
5.600394E+03	1.080136E-16	1.025967E-17
5.610236E+03	1.069374E-16	1.015725E-17
5.620079E+03	1.058840E-16	1.005701E-17
5.629921E+03	1.048402E-16	9.957710E-18
5.639764E+03	1.038170E-16	9.860388E-18
5.649606E+03	1.028175E-16	9.765330E-18
5.659449E+03	1.018362E-16	9.672024E-18
5.669291E+03	1.008914E-16	9.582203E-18
5.679134E+03	9.996991E-17	9.494606E-18
5.688976E+03	9.908154E-17	9.410176E-18
5.698819E+03	9.822809E-17	9.329080E-18
5.708661E+03	9.741122E-17	9.251474E-18
5.718504E+03	9.663262E-17	9.177519E-18
5.728346E+03	9.588613E-17	9.106630E-18
5.738189E+03	9.518756E-17	9.040307E-18
5.748031E+03	9.452333E-17	8.977261E-18
5.757874E+03	9.390153E-17	8.918260E-18
5.767717E+03	9.332268E-17	8.863353E-18
5.777559E+03	9.278726E-17	8.812587E-18
5.787402E+03	9.229561E-17	8.765992E-18
5.797244E+03	9.184088E-17	8.722919E-18
5.807087E+03	9.143724E-17	8.684713E-18
5.816929E+03	9.107066E-17	8.650042E-18
5.826772E+03	9.074806E-17	8.619562E-18
5.836614E+03	9.046924E-17	8.593257E-18
5.846457E+03	9.023399E-17	8.571105E-18
5.856299E+03	9.004199E-17	8.553077E-18
5.866142E+03	8.988608E-17	8.538492E-18
5.875984E+03	8.977962E-17	8.528621E-18
5.885827E+03	8.970852E-17	8.522126E-18
5.895669E+03	8.967924E-17	8.519619E-18
5.905512E+03	8.969135E-17	8.521061E-18
5.915354E+03	8.974446E-17	8.526415E-18
5.925197E+03	8.983809E-17	8.535638E-18
5.935039E+03	8.997182E-17	8.548688E-18
5.944882E+03	9.014516E-17	8.565520E-18
5.954724E+03	9.035068E-17	8.585430E-18
5.964567E+03	9.060167E-17	8.609679E-18
5.974409E+03	9.088366E-17	8.636896E-18
5.984252E+03	9.120289E-17	8.667672E-18
5.994094E+03	9.155859E-17	8.701935E-18
6.003937E+03	9.194988E-17	8.739604E-18
6.013780E+03	9.237574E-17	8.780582E-18
6.023622E+03	9.283501E-17	8.824760E-18
6.033465E+03	9.332632E-17	8.872008E-18
6.043307E+03	9.384090E-17	8.921494E-18
6.053150E+03	9.439129E-17	8.974411E-18
6.062992E+03	9.496097E-17	9.029189E-18
6.072835E+03	9.555477E-17	9.086289E-18
6.082677E+03	9.617737E-17	9.146156E-18
6.092520E+03	9.681110E-17	9.207111E-18
6.102362E+03	9.746002E-17	9.269541E-18
6.112205E+03	9.812032E-17	9.333083E-18
6.122047E+03	9.878806E-17	9.397364E-18
6.131890E+03	9.945145E-17	9.461261E-18
6.141732E+03	1.001210E-16	9.525771E-18
6.151575E+03	1.007845E-16	9.589741E-18
6.161417E+03	1.014293E-16	9.651963E-18
6.171260E+03	1.020661E-16	9.713460E-18
6.181102E+03	1.026744E-16	9.772260E-18
6.190945E+03	1.032643E-16	9.829350E-18
6.200787E+03	1.038149E-16	9.882727E-18
6.210630E+03	1.043286E-16	9.932615E-18
6.220472E+03	1.048001E-16	9.978522E-18
6.230315E+03	1.052241E-16	1.001993E-17
6.240157E+03	1.055954E-16	1.005634E-17
6.250000E+03	1.059090E-16	1.008729E-17
6.259843E+03	1.061603E-16	1.011233E-17
6.269685E+03	1.063448E-16	1.013102E-17
6.279528E+03	1.064502E-16	1.014220E-17
6.289370E+03	1.064897E-16	1.014712E-17
6.299213E+03	1.064517E-16	1.014467E-17
6.309055E+03	1.063256E-16	1.013384E-17
6.318898E+03	1.061260E-16	1.011602E-17
6.328740E+03	1.058350E-16	1.008949E-17
6.338583E+03	1.054601E-16	1.005498E-17
6.348425E+03	1.050096E-16	1.001327E-17
6.358268E+03	1.044676E-16	9.962827E-18
6.368110E+03	1.038435E-16	9.904559E-18
6.377953E+03	1.031390E-16	9.838624E-18
6.387795E+03	1.023565E-16	9.765243E-18
6.397638E+03	1.014988E-16	9.684681E-18
6.407480E+03	1.005694E-16	9.597271E-18
6.417323E+03	9.957190E-17	9.503344E-18
6.427165E+03	9.851051E-17	9.403309E-18
6.437008E+03	9.738966E-17	9.297584E-18
6.446850E+03	9.621420E-17	9.186626E-18
6.456693E+03	9.498898E-17	9.070896E-18
6.466535E+03	9.371184E-17	8.950187E-18
6.476378E+03	9.240273E-17	8.826401E-18
6.486220E+03	9.105952E-17	8.699332E-18
6.496063E+03	8.968052E-17	8.568817E-18
6.505906E+03	8.828510E-17	8.436705E-18
6.515748E+03	8.686456E-17	8.302161E-18
6.525591E+03	8.543768E-17	8.166983E-18
6.535433E+03	8.399596E-17	8.030354E-18
6.545276E+03	8.255746E-17	7.894000E-18
6.555118E+03	8.111375E-17	7.757115E-18
6.564961E+03	7.967581E-17	7.620748E-18
6.574803E+03	7.825399E-17	7.485890E-18
6.584646E+03	7.683987E-17	7.351734E-18
6.594488E+03	7.544343E-17	7.219235E-18
6.604331E+03	7.406816E-17	7.088728E-18
6.614173E+03	7.272304E-17	6.961072E-18
6.624016E+03	7.139950E-17	6.835449E-18
6.633858E+03	7.010615E-17	6.712683E-18
6.643701E+03	6.884552E-17	6.593015E-18
6.653543E+03	6.761987E-17	6.476667E-18
6.663386E+03	6.643131E-17	6.363839E-18
6.673228E+03	6.528165E-17	6.254706E-18
6.683071E+03	6.417257E-17	6.149432E-18
6.692913E+03	6.310051E-17	6.047676E-18
6.702756E+03	6.207678E-17	5.950524E-18
6.712598E+03	6.109740E-17	5.857597E-18
6.722441E+03	6.016328E-17	5.768982E-18
6.732283E+03	5.927518E-17	5.684756E-18
6.742126E+03	5.842907E-17	5.604532E-18
6.751969E+03	5.763475E-17	5.529254E-18
6.761811E+03	5.688785E-17	5.458504E-18
6.771654E+03	5.618414E-17	5.391879E-18
6.781496E+03	5.553270E-17	5.330251E-18
6.791339E+03	5.492466E-17	5.272771E-18
6.801181E+03	5.436867E-17	5.220273E-18
6.811024E+03	5.385588E-17	5.171907E-18
6.820866E+03	5.339458E-17	5.128474E-18
6.830709E+03	5.297590E-17	5.089121E-18
6.840551E+03	5.260784E-17	5.054622E-18
6.850394E+03	5.228146E-17	5.024118E-18
6.860236E+03	5.200041E-17	4.997961E-18
6.870079E+03	5.176396E-17	4.976086E-18
6.879921E+03	5.157552E-17	4.958821E-18
6.889764E+03	5.142599E-17	4.945293E-18
6.899606E+03	5.131862E-17	4.935817E-18
6.909449E+03	5.125242E-17	4.930299E-18
6.919291E+03	5.122636E-17	4.928642E-18
6.929134E+03	5.123930E-17	4.930740E-18
6.938976E+03	5.129004E-17	4.936478E-18
6.948819E+03	5.137729E-17	4.945733E-18
6.958661E+03	5.149968E-17	4.958376E-18
6.968504E+03	5.165575E-17	4.974267E-18
6.978346E+03	5.184396E-17	4.993261E-18
6.988189E+03	5.206267E-17	5.015200E-18
6.998031E+03	5.230595E-17	5.039514E-18
7.007874E+03	5.258037E-17	5.066839E-18
7.017717E+03	5.287982E-17	5.096586E-18
7.027559E+03	5.319802E-17	5.128152E-18
7.037402E+03	5.354141E-17	5.162158E-18
7.047244E+03	5.390353E-17	5.197983E-18
7.057087E+03	5.427772E-17	5.234985E-18
7.066929E+03	5.467035E-17	5.273778E-18
7.076772E+03	5.507015E-17	5.313278E-18
7.086614E+03	5.547898E-17	5.353663E-18
7.096457E+03	5.589877E-17	5.395119E-18
7.106299E+03	5.631784E-17	5.436522E-18
7.116142E+03	5.673798E-17	5.478042E-18
7.125984E+03	5.715641E-17	5.519412E-18
7.135827E+03	5.757040E-17	5.560367E-18
7.145669E+03	5.797713E-17	5.600635E-18
7.155512E+03	5.837384E-17	5.639949E-18
7.165354E+03	5.875775E-17	5.678040E-18
7.175197E+03	5.912616E-17	5.714645E-18
7.185039E+03	5.947641E-17	5.749507E-18
7.194882E+03	5.980595E-17	5.782379E-18
7.204724E+03	6.010738E-17	5.812544E-18
7.214567E+03	6.038819E-17	5.840724E-18
7.224409E+03	6.064132E-17	5.866235E-18
7.234252E+03	6.085978E-17	5.888401E-18
7.244094E+03	6.105175E-17	5.908010E-18
7.253937E+03	6.120567E-17	5.923942E-18
7.263780E+03	6.132520E-17	5.936550E-18
7.273622E+03	6.141434E-17	5.946218E-18
7.283465E+03	6.146224E-17	5.951896E-18
7.293307E+03	6.147345E-17	5.954021E-18
7.303150E+03	6.144780E-17	5.952574E-18
7.312992E+03	6.138541E-17	5.947567E-18
7.322835E+03	6.128671E-17	5.939037E-18
7.332677E+03	6.115245E-17	5.927057E-18
7.342520E+03	6.097862E-17	5.911235E-18
7.352362E+03	6.077663E-17	5.892676E-18
7.362205E+03	6.054301E-17	5.871043E-18
7.372047E+03	6.027461E-17	5.846026E-18
7.381890E+03	5.998346E-17	5.818794E-18
7.391732E+03	5.966185E-17	5.788594E-18
7.401575E+03	5.931716E-17	5.756143E-18
7.411417E+03	5.895681E-17	5.722159E-18
7.421260E+03	5.857358E-17	5.685941E-18
7.431102E+03	5.817505E-17	5.648223E-18
7.440945E+03	5.776386E-17	5.609261E-18
7.450787E+03	5.734264E-17	5.569309E-18
7.460630E+03	5.691395E-17	5.528618E-18
7.470472E+03	5.647554E-17	5.486965E-18
7.480315E+03	5.603919E-17	5.445498E-18
7.490157E+03	5.559767E-17	5.403511E-18
7.500000E+03	5.516229E-17	5.362106E-18
7.509843E+03	5.472556E-17	5.320552E-18
7.519685E+03	5.429821E-17	5.279896E-18
7.529528E+03	5.387244E-17	5.239377E-18
7.539370E+03	5.345388E-17	5.199544E-18
7.549213E+03	5.304339E-17	5.160482E-18
7.559055E+03	5.264158E-17	5.122249E-18
7.568898E+03	5.224884E-17	5.084883E-18
7.578740E+03	5.186092E-17	5.047971E-18
7.588583E+03	5.148659E-17	5.012370E-18
7.598425E+03	5.112123E-17	4.977627E-18
7.608268E+03	5.076012E-17	4.943285E-18
7.618110E+03	5.040709E-17	4.909716E-18
7.627953E+03	5.006571E-17	4.877270E-18
7.637795E+03	4.972668E-17	4.845040E-18
