#wls	flux	fluxerr
1.574803E+03	9.593585E-18	2.361776E-18
1.614173E+03	9.898811E-18	2.436836E-18
1.653543E+03	1.019462E-17	2.509571E-18
1.692913E+03	1.048315E-17	2.580504E-18
1.732283E+03	1.076055E-17	2.648693E-18
1.771654E+03	1.102203E-17	2.712955E-18
1.811024E+03	1.125951E-17	2.771300E-18
1.850394E+03	1.146480E-17	2.821718E-18
1.889764E+03	1.162413E-17	2.860817E-18
1.929134E+03	1.172616E-17	2.885808E-18
1.968504E+03	1.176510E-17	2.895270E-18
2.007874E+03	1.175203E-17	2.891928E-18
2.047244E+03	1.171998E-17	2.883912E-18
2.086614E+03	1.173513E-17	2.887508E-18
2.125984E+03	1.188111E-17	2.923293E-18
2.165354E+03	1.222816E-17	3.008540E-18
2.204724E+03	1.279619E-17	3.148141E-18
2.244094E+03	1.355696E-17	3.335141E-18
2.283465E+03	1.445441E-17	3.555740E-18
2.322835E+03	1.543448E-17	3.796637E-18
2.362205E+03	1.645282E-17	4.046917E-18
2.401575E+03	1.748465E-17	4.300485E-18
2.440945E+03	1.852174E-17	4.555312E-18
2.480315E+03	1.955816E-17	4.809940E-18
2.519685E+03	2.059528E-17	5.064707E-18
2.559055E+03	2.163650E-17	5.320447E-18
2.598425E+03	2.268974E-17	5.579104E-18
2.637795E+03	2.375542E-17	5.840783E-18
2.677165E+03	2.483713E-17	6.106365E-18
2.716535E+03	2.594237E-17	6.377691E-18
2.755906E+03	2.706965E-17	6.654393E-18
2.795276E+03	2.822100E-17	6.936967E-18
2.834646E+03	2.939797E-17	7.225791E-18
2.874016E+03	3.060678E-17	7.522396E-18
2.913386E+03	3.184331E-17	7.825764E-18
2.952756E+03	3.310777E-17	8.135943E-18
2.962598E+03	3.342542E-17	8.213859E-18
2.972441E+03	3.375041E-17	8.293572E-18
2.982283E+03	3.407717E-17	8.373718E-18
2.992126E+03	3.440000E-17	8.452896E-18
3.001969E+03	3.473063E-17	8.533984E-18
3.011811E+03	3.506362E-17	8.615652E-18
3.021654E+03	3.539297E-17	8.696420E-18
3.031496E+03	3.573138E-17	8.779412E-18
3.041339E+03	3.607016E-17	8.862489E-18
3.051181E+03	3.640742E-17	8.945190E-18
3.061024E+03	3.675484E-17	9.030385E-18
3.070866E+03	3.710606E-17	9.116508E-18
3.080709E+03	3.746073E-17	9.203476E-18
3.090551E+03	3.781226E-17	9.289667E-18
3.100394E+03	3.817285E-17	9.378083E-18
3.110236E+03	3.853601E-17	9.467125E-18
3.120079E+03	3.890148E-17	9.556730E-18
3.129921E+03	3.926901E-17	9.646838E-18
3.139764E+03	3.963839E-17	9.737395E-18
3.149606E+03	4.000277E-17	9.826721E-18
3.159449E+03	4.037515E-17	9.918009E-18
3.169291E+03	4.074879E-17	1.000960E-17
3.179134E+03	4.112351E-17	1.010145E-17
3.188976E+03	4.149915E-17	1.019353E-17
3.198819E+03	4.187558E-17	1.028579E-17
3.208661E+03	4.225263E-17	1.037821E-17
3.218504E+03	4.263019E-17	1.047074E-17
3.228346E+03	4.300815E-17	1.056337E-17
3.238189E+03	4.338637E-17	1.065606E-17
3.248031E+03	4.376476E-17	1.074878E-17
3.257874E+03	4.414322E-17	1.084152E-17
3.267717E+03	4.452165E-17	1.093425E-17
3.277559E+03	4.489998E-17	1.102695E-17
3.287402E+03	4.527811E-17	1.111959E-17
3.297244E+03	4.565596E-17	1.121217E-17
3.307087E+03	4.603348E-17	1.130465E-17
3.316929E+03	4.641057E-17	1.139703E-17
3.326772E+03	4.678718E-17	1.148928E-17
3.336614E+03	4.716324E-17	1.158140E-17
3.346457E+03	4.753870E-17	1.167336E-17
3.356299E+03	4.791349E-17	1.176516E-17
3.366142E+03	4.828756E-17	1.185677E-17
3.375984E+03	4.866878E-17	1.195014E-17
3.385827E+03	4.904129E-17	1.204136E-17
3.395669E+03	4.941291E-17	1.213236E-17
3.405512E+03	4.978359E-17	1.222312E-17
3.415354E+03	5.015327E-17	1.231363E-17
3.425197E+03	5.052190E-17	1.240389E-17
3.435039E+03	5.089771E-17	1.249590E-17
3.444882E+03	5.126414E-17	1.258560E-17
3.454724E+03	5.162938E-17	1.267501E-17
3.464567E+03	5.199336E-17	1.276410E-17
3.474409E+03	5.235602E-17	1.285287E-17
3.484252E+03	5.272584E-17	1.294339E-17
3.494094E+03	5.308576E-17	1.303147E-17
3.503937E+03	5.344420E-17	1.311919E-17
3.513780E+03	5.380110E-17	1.320652E-17
3.523622E+03	5.415639E-17	1.329346E-17
3.533465E+03	5.451882E-17	1.338214E-17
3.543307E+03	5.487077E-17	1.346825E-17
3.553150E+03	5.522092E-17	1.355391E-17
3.562992E+03	5.557817E-17	1.364131E-17
3.572835E+03	5.592458E-17	1.372605E-17
3.582677E+03	5.626900E-17	1.381029E-17
3.592520E+03	5.661134E-17	1.389402E-17
3.602362E+03	5.696068E-17	1.397946E-17
3.612205E+03	5.729869E-17	1.406212E-17
3.622047E+03	5.763440E-17	1.414421E-17
3.631890E+03	5.796772E-17	1.422571E-17
3.641732E+03	5.830790E-17	1.430889E-17
3.651575E+03	5.863624E-17	1.438916E-17
3.661417E+03	5.896194E-17	1.446878E-17
3.671260E+03	5.929438E-17	1.455005E-17
3.681102E+03	5.961456E-17	1.462830E-17
3.690945E+03	5.993183E-17	1.470584E-17
3.700787E+03	6.025568E-17	1.478499E-17
3.710630E+03	6.056686E-17	1.486103E-17
3.720472E+03	6.087482E-17	1.493627E-17
3.730315E+03	6.117946E-17	1.501069E-17
3.740157E+03	6.149046E-17	1.508668E-17
3.750000E+03	6.178819E-17	1.515940E-17
3.759843E+03	6.208228E-17	1.523123E-17
3.769685E+03	6.238252E-17	1.530456E-17
3.779528E+03	6.266904E-17	1.537452E-17
3.789370E+03	6.295158E-17	1.544351E-17
3.799213E+03	6.324005E-17	1.551394E-17
3.809055E+03	6.351431E-17	1.558089E-17
3.818898E+03	6.378426E-17	1.564678E-17
3.828740E+03	6.405987E-17	1.571405E-17
3.838583E+03	6.432081E-17	1.577772E-17
3.848425E+03	6.457705E-17	1.584024E-17
3.858268E+03	6.482846E-17	1.590156E-17
3.868110E+03	6.508517E-17	1.596419E-17
3.877953E+03	6.532656E-17	1.602305E-17
3.887795E+03	6.556274E-17	1.608064E-17
3.897638E+03	6.580391E-17	1.613945E-17
3.907480E+03	6.602928E-17	1.619437E-17
3.917323E+03	6.624902E-17	1.624792E-17
3.927165E+03	6.646301E-17	1.630005E-17
3.937008E+03	6.668156E-17	1.635330E-17
3.946850E+03	6.688364E-17	1.640251E-17
3.956693E+03	6.707955E-17	1.645020E-17
3.966535E+03	6.726914E-17	1.649635E-17
3.976378E+03	6.746283E-17	1.654349E-17
3.986220E+03	6.763940E-17	1.658644E-17
3.996063E+03	6.780922E-17	1.662773E-17
4.005906E+03	6.797216E-17	1.666733E-17
4.015748E+03	6.812807E-17	1.670521E-17
4.025591E+03	6.828746E-17	1.674394E-17
4.035433E+03	6.842891E-17	1.677826E-17
4.045276E+03	6.856289E-17	1.681076E-17
4.055118E+03	6.868926E-17	1.684139E-17
4.064961E+03	6.880789E-17	1.687012E-17
4.074803E+03	6.892934E-17	1.689955E-17
4.084646E+03	6.903205E-17	1.692437E-17
4.094488E+03	6.912657E-17	1.694719E-17
4.104331E+03	6.921277E-17	1.696797E-17
4.114173E+03	6.929050E-17	1.698667E-17
4.124016E+03	6.935962E-17	1.700327E-17
4.133858E+03	6.941999E-17	1.701771E-17
4.143701E+03	6.947147E-17	1.702998E-17
4.153543E+03	6.951392E-17	1.704004E-17
4.163386E+03	6.955796E-17	1.705048E-17
4.173228E+03	6.958195E-17	1.705602E-17
4.183071E+03	6.959651E-17	1.705923E-17
4.192913E+03	6.960149E-17	1.706011E-17
4.202756E+03	6.959679E-17	1.705861E-17
4.212598E+03	6.958227E-17	1.705471E-17
4.222441E+03	6.955781E-17	1.704837E-17
4.232283E+03	6.952329E-17	1.703957E-17
4.242126E+03	6.947860E-17	1.702827E-17
4.251969E+03	6.942362E-17	1.701446E-17
4.261811E+03	6.934759E-17	1.699549E-17
4.271654E+03	6.927175E-17	1.697656E-17
4.281496E+03	6.918530E-17	1.695505E-17
4.291339E+03	6.908819E-17	1.693091E-17
4.301181E+03	6.898030E-17	1.690415E-17
4.311024E+03	6.886158E-17	1.687472E-17
4.320866E+03	6.873195E-17	1.684263E-17
4.330709E+03	6.859135E-17	1.680785E-17
4.340551E+03	6.842926E-17	1.676782E-17
4.350394E+03	6.826660E-17	1.672764E-17
4.360236E+03	6.809287E-17	1.668475E-17
4.370079E+03	6.790803E-17	1.663915E-17
4.379921E+03	6.770177E-17	1.658830E-17
4.389764E+03	6.749480E-17	1.653728E-17
4.399606E+03	6.727680E-17	1.648356E-17
4.409449E+03	6.704782E-17	1.642716E-17
4.419291E+03	6.679780E-17	1.636560E-17
4.429134E+03	6.654723E-17	1.630391E-17
4.438976E+03	6.628606E-17	1.623963E-17
4.448819E+03	6.600444E-17	1.617035E-17
4.458661E+03	6.572272E-17	1.610105E-17
4.468504E+03	6.542118E-17	1.602689E-17
4.478346E+03	6.512007E-17	1.595284E-17
4.488189E+03	6.479999E-17	1.587416E-17
4.498031E+03	6.448111E-17	1.579577E-17
4.507874E+03	6.415411E-17	1.571539E-17
4.517717E+03	6.380994E-17	1.563082E-17
4.527559E+03	6.345909E-17	1.554461E-17
4.537402E+03	6.311193E-17	1.545932E-17
4.547244E+03	6.275020E-17	1.537045E-17
4.557087E+03	6.239394E-17	1.528294E-17
4.566929E+03	6.202533E-17	1.519241E-17
4.576772E+03	6.166438E-17	1.510375E-17
4.586614E+03	6.129369E-17	1.501272E-17
4.596457E+03	6.092402E-17	1.492194E-17
4.606299E+03	6.055682E-17	1.483177E-17
4.616142E+03	6.020271E-17	1.474481E-17
4.625984E+03	5.984509E-17	1.465700E-17
4.635827E+03	5.949473E-17	1.457097E-17
4.645669E+03	5.915332E-17	1.448714E-17
4.655512E+03	5.883139E-17	1.440808E-17
4.665354E+03	5.851292E-17	1.432988E-17
4.675197E+03	5.820850E-17	1.425512E-17
4.685039E+03	5.791981E-17	1.418422E-17
4.694882E+03	5.764847E-17	1.411757E-17
4.704724E+03	5.739605E-17	1.405556E-17
4.714567E+03	5.716407E-17	1.399856E-17
4.724409E+03	5.695397E-17	1.394692E-17
4.734252E+03	5.676709E-17	1.390097E-17
4.744094E+03	5.660468E-17	1.386102E-17
4.753937E+03	5.646788E-17	1.382734E-17
4.763780E+03	5.635773E-17	1.380019E-17
4.773622E+03	5.627513E-17	1.377979E-17
4.783465E+03	5.622090E-17	1.376634E-17
4.793307E+03	5.619568E-17	1.375999E-17
4.803150E+03	5.620001E-17	1.376089E-17
4.812992E+03	5.623430E-17	1.376912E-17
4.822835E+03	5.629040E-17	1.378269E-17
4.832677E+03	5.638521E-17	1.380574E-17
4.842520E+03	5.651032E-17	1.383622E-17
4.852362E+03	5.666556E-17	1.387407E-17
4.862205E+03	5.684214E-17	1.391715E-17
4.872047E+03	5.705651E-17	1.396948E-17
4.881890E+03	5.729960E-17	1.402884E-17
4.891732E+03	5.756206E-17	1.409295E-17
4.901575E+03	5.786008E-17	1.416576E-17
4.911417E+03	5.817540E-17	1.424281E-17
4.921260E+03	5.852407E-17	1.432803E-17
4.931102E+03	5.889611E-17	1.441896E-17
4.940945E+03	5.928122E-17	1.451310E-17
4.950787E+03	5.969532E-17	1.461434E-17
4.960630E+03	6.011898E-17	1.471791E-17
4.970472E+03	6.055912E-17	1.482552E-17
4.980315E+03	6.102277E-17	1.493889E-17
4.990157E+03	6.148982E-17	1.505309E-17
5.000000E+03	6.197621E-17	1.517202E-17
5.009843E+03	6.246139E-17	1.529066E-17
5.019685E+03	6.295210E-17	1.541065E-17
5.029528E+03	6.344589E-17	1.553139E-17
5.039370E+03	6.394973E-17	1.565459E-17
5.049213E+03	6.444220E-17	1.577502E-17
5.059055E+03	6.493006E-17	1.589431E-17
5.068898E+03	6.541065E-17	1.601182E-17
5.078740E+03	6.588126E-17	1.612689E-17
5.088583E+03	6.634894E-17	1.624125E-17
5.098425E+03	6.679138E-17	1.634943E-17
5.108268E+03	6.721553E-17	1.645313E-17
5.118110E+03	6.761862E-17	1.655167E-17
5.127953E+03	6.799787E-17	1.664438E-17
5.137795E+03	6.835057E-17	1.673060E-17
5.147638E+03	6.867405E-17	1.680966E-17
5.157480E+03	6.896576E-17	1.688095E-17
5.167323E+03	6.922325E-17	1.694386E-17
5.177165E+03	6.943399E-17	1.699533E-17
5.187008E+03	6.961631E-17	1.703985E-17
5.196850E+03	6.975809E-17	1.707444E-17
5.206693E+03	6.985764E-17	1.709870E-17
5.216535E+03	6.991354E-17	1.711228E-17
5.226378E+03	6.992463E-17	1.711489E-17
5.236220E+03	6.987974E-17	1.710381E-17
5.246063E+03	6.979888E-17	1.708392E-17
5.255906E+03	6.967148E-17	1.705264E-17
5.265748E+03	6.948730E-17	1.700747E-17
5.275591E+03	6.926714E-17	1.695350E-17
5.285433E+03	6.900130E-17	1.688834E-17
5.295276E+03	6.868054E-17	1.680975E-17
5.305118E+03	6.832612E-17	1.672293E-17
5.314961E+03	6.791925E-17	1.662327E-17
5.324803E+03	6.748138E-17	1.651602E-17
5.334646E+03	6.699427E-17	1.639673E-17
5.344488E+03	6.647941E-17	1.627065E-17
5.354331E+03	6.591907E-17	1.613344E-17
5.364173E+03	6.533459E-17	1.599032E-17
5.374016E+03	6.470869E-17	1.583708E-17
5.383858E+03	6.405304E-17	1.567655E-17
5.393701E+03	6.337892E-17	1.551151E-17
5.403543E+03	6.266961E-17	1.533786E-17
5.413386E+03	6.193646E-17	1.515837E-17
5.423228E+03	6.119031E-17	1.497571E-17
5.433071E+03	6.041501E-17	1.478592E-17
5.442913E+03	5.962146E-17	1.459167E-17
5.452756E+03	5.881142E-17	1.439338E-17
5.462598E+03	5.799516E-17	1.419357E-17
5.472441E+03	5.715731E-17	1.398848E-17
5.482283E+03	5.630825E-17	1.378065E-17
5.492126E+03	5.544971E-17	1.357051E-17
5.501969E+03	5.458347E-17	1.335848E-17
5.511811E+03	5.371134E-17	1.314502E-17
5.521654E+03	5.283518E-17	1.293057E-17
5.531496E+03	5.195691E-17	1.271560E-17
5.541339E+03	5.107847E-17	1.250060E-17
5.551181E+03	5.020188E-17	1.228606E-17
5.561024E+03	4.932923E-17	1.207247E-17
5.570866E+03	4.846261E-17	1.186037E-17
5.580709E+03	4.760416E-17	1.165027E-17
5.590551E+03	4.675604E-17	1.144270E-17
5.600394E+03	4.592038E-17	1.123818E-17
5.610236E+03	4.509273E-17	1.103562E-17
5.620079E+03	4.428846E-17	1.083879E-17
5.629921E+03	4.350288E-17	1.064653E-17
5.639764E+03	4.273794E-17	1.045933E-17
5.649606E+03	4.199548E-17	1.027763E-17
5.659449E+03	4.127119E-17	1.010037E-17
5.669291E+03	4.057884E-17	9.930937E-18
5.679134E+03	3.991376E-17	9.768179E-18
5.688976E+03	3.927156E-17	9.611018E-18
5.698819E+03	3.866497E-17	9.462577E-18
5.708661E+03	3.808922E-17	9.321682E-18
5.718504E+03	3.753974E-17	9.187218E-18
5.728346E+03	3.702831E-17	9.062067E-18
5.738189E+03	3.654469E-17	8.943725E-18
5.748031E+03	3.610013E-17	8.834941E-18
5.757874E+03	3.568444E-17	8.733226E-18
5.767717E+03	3.530841E-17	8.641217E-18
5.777559E+03	3.496192E-17	8.556438E-18
5.787402E+03	3.465538E-17	8.481439E-18
5.797244E+03	3.437877E-17	8.413766E-18
5.807087E+03	3.414225E-17	8.355905E-18
5.816929E+03	3.393591E-17	8.305429E-18
5.826772E+03	3.376483E-17	8.263587E-18
5.836614E+03	3.363401E-17	8.231598E-18
5.846457E+03	3.353375E-17	8.207090E-18
5.856299E+03	3.346917E-17	8.191317E-18
5.866142E+03	3.344540E-17	8.185530E-18
5.875984E+03	3.345300E-17	8.187425E-18
5.885827E+03	3.349728E-17	8.198297E-18
5.895669E+03	3.357877E-17	8.218280E-18
5.905512E+03	3.370303E-17	8.248730E-18
5.915354E+03	3.386102E-17	8.287438E-18
5.925197E+03	3.405850E-17	8.335815E-18
5.935039E+03	3.429650E-17	8.394110E-18
5.944882E+03	3.457613E-17	8.462598E-18
5.954724E+03	3.489867E-17	8.541590E-18
5.964567E+03	3.527059E-17	8.632668E-18
5.974409E+03	3.568311E-17	8.733690E-18
5.984252E+03	3.614285E-17	8.846271E-18
5.994094E+03	3.665136E-17	8.970792E-18
6.003937E+03	3.721024E-17	9.107643E-18
6.013780E+03	3.782102E-17	9.257205E-18
6.023622E+03	3.848523E-17	9.419847E-18
6.033465E+03	3.920423E-17	9.595905E-18
6.043307E+03	3.997925E-17	9.785678E-18
6.053150E+03	4.081126E-17	9.989409E-18
6.062992E+03	4.170094E-17	1.020726E-17
6.072835E+03	4.264858E-17	1.043930E-17
6.082677E+03	4.364761E-17	1.068393E-17
6.092520E+03	4.470984E-17	1.094404E-17
6.102362E+03	4.582765E-17	1.121775E-17
6.112205E+03	4.699882E-17	1.150454E-17
6.122047E+03	4.822032E-17	1.180366E-17
6.131890E+03	4.948811E-17	1.211411E-17
6.141732E+03	5.078973E-17	1.243286E-17
6.151575E+03	5.213359E-17	1.276195E-17
6.161417E+03	5.350512E-17	1.309783E-17
6.171260E+03	5.489573E-17	1.343839E-17
6.181102E+03	5.628745E-17	1.377923E-17
6.190945E+03	5.768552E-17	1.412163E-17
6.200787E+03	5.906990E-17	1.446070E-17
6.210630E+03	6.041878E-17	1.479108E-17
6.220472E+03	6.173580E-17	1.511368E-17
6.230315E+03	6.299799E-17	1.542286E-17
6.240157E+03	6.418134E-17	1.571275E-17
6.250000E+03	6.528976E-17	1.598431E-17
6.259843E+03	6.629975E-17	1.623178E-17
6.269685E+03	6.718788E-17	1.644943E-17
6.279528E+03	6.796104E-17	1.663893E-17
6.289370E+03	6.858834E-17	1.679273E-17
6.299213E+03	6.908017E-17	1.691337E-17
6.309055E+03	6.940888E-17	1.699408E-17
6.318898E+03	6.958927E-17	1.703848E-17
6.328740E+03	6.959793E-17	1.704084E-17
6.338583E+03	6.945441E-17	1.700593E-17
6.348425E+03	6.914000E-17	1.692919E-17
6.358268E+03	6.867877E-17	1.681649E-17
6.368110E+03	6.805657E-17	1.666438E-17
6.377953E+03	6.730122E-17	1.647967E-17
6.387795E+03	6.640248E-17	1.625984E-17
6.397638E+03	6.539072E-17	1.601233E-17
6.407480E+03	6.425864E-17	1.573535E-17
6.417323E+03	6.302864E-17	1.543439E-17
6.427165E+03	6.172282E-17	1.511486E-17
6.437008E+03	6.033623E-17	1.477553E-17
6.446850E+03	5.889122E-17	1.442189E-17
6.456693E+03	5.740897E-17	1.405913E-17
6.466535E+03	5.588476E-17	1.368607E-17
6.476378E+03	5.433877E-17	1.330768E-17
6.486220E+03	5.278947E-17	1.292846E-17
6.496063E+03	5.123112E-17	1.254701E-17
6.505906E+03	4.968058E-17	1.216747E-17
6.515748E+03	4.814585E-17	1.179179E-17
6.525591E+03	4.664078E-17	1.142336E-17
6.535433E+03	4.515764E-17	1.106029E-17
6.545276E+03	4.370868E-17	1.070558E-17
6.555118E+03	4.229829E-17	1.036031E-17
6.564961E+03	4.093009E-17	1.002536E-17
6.574803E+03	3.960696E-17	9.701446E-18
6.584646E+03	3.833678E-17	9.390487E-18
6.594488E+03	3.710983E-17	9.090108E-18
6.604331E+03	3.593310E-17	8.802019E-18
6.614173E+03	3.480730E-17	8.526399E-18
6.624016E+03	3.373282E-17	8.263340E-18
6.633858E+03	3.270967E-17	8.012846E-18
6.643701E+03	3.173762E-17	7.774865E-18
6.653543E+03	3.081623E-17	7.549285E-18
6.663386E+03	2.994486E-17	7.335951E-18
6.673228E+03	2.912273E-17	7.134674E-18
6.683071E+03	2.834897E-17	6.945239E-18
6.692913E+03	2.762262E-17	6.767413E-18
6.702756E+03	2.694268E-17	6.600952E-18
6.712598E+03	2.630810E-17	6.445600E-18
6.722441E+03	2.571785E-17	6.301103E-18
6.732283E+03	2.517089E-17	6.167207E-18
6.742126E+03	2.466618E-17	6.043660E-18
6.751969E+03	2.420275E-17	5.930223E-18
6.761811E+03	2.377964E-17	5.826659E-18
6.771654E+03	2.339593E-17	5.732749E-18
6.781496E+03	2.305077E-17	5.648280E-18
6.791339E+03	2.274336E-17	5.573059E-18
6.801181E+03	2.247295E-17	5.506902E-18
6.811024E+03	2.223885E-17	5.449642E-18
6.820866E+03	2.203724E-17	5.400339E-18
6.830709E+03	2.187402E-17	5.360446E-18
6.840551E+03	2.174547E-17	5.329044E-18
6.850394E+03	2.165113E-17	5.306027E-18
6.860236E+03	2.159066E-17	5.291310E-18
6.870079E+03	2.156058E-17	5.284042E-18
6.879921E+03	2.156699E-17	5.285715E-18
6.889764E+03	2.160652E-17	5.295507E-18
6.899606E+03	2.167904E-17	5.313384E-18
6.909449E+03	2.178447E-17	5.339329E-18
6.919291E+03	2.191953E-17	5.372538E-18
6.929134E+03	2.209066E-17	5.414587E-18
6.938976E+03	2.229468E-17	5.464702E-18
6.948819E+03	2.252833E-17	5.522081E-18
6.958661E+03	2.279829E-17	5.588363E-18
6.968504E+03	2.310136E-17	5.662763E-18
6.978346E+03	2.343419E-17	5.744463E-18
6.988189E+03	2.380372E-17	5.835160E-18
6.998031E+03	2.420660E-17	5.934040E-18
7.007874E+03	2.463925E-17	6.040220E-18
7.017717E+03	2.510886E-17	6.155464E-18
7.027559E+03	2.560801E-17	6.277958E-18
7.037402E+03	2.614406E-17	6.409499E-18
7.047244E+03	2.671305E-17	6.549125E-18
7.057087E+03	2.731065E-17	6.695769E-18
7.066929E+03	2.794434E-17	6.851267E-18
7.076772E+03	2.860535E-17	7.013471E-18
7.086614E+03	2.930125E-17	7.184235E-18
7.096457E+03	3.002251E-17	7.361223E-18
7.106299E+03	3.077669E-17	7.546293E-18
7.116142E+03	3.155339E-17	7.736890E-18
7.125984E+03	3.236012E-17	7.934858E-18
7.135827E+03	3.318545E-17	8.137396E-18
7.145669E+03	3.403680E-17	8.346321E-18
7.155512E+03	3.490160E-17	8.558555E-18
7.165354E+03	3.578709E-17	8.775868E-18
7.175197E+03	3.667947E-17	8.994883E-18
7.185039E+03	3.758021E-17	9.215954E-18
7.194882E+03	3.849091E-17	9.439476E-18
7.204724E+03	3.939585E-17	9.661596E-18
7.214567E+03	4.030172E-17	9.883952E-18
7.224409E+03	4.119156E-17	1.010239E-17
7.234252E+03	4.206570E-17	1.031698E-17
7.244094E+03	4.292475E-17	1.052788E-17
7.253937E+03	4.375014E-17	1.073053E-17
7.263780E+03	4.454203E-17	1.092497E-17
7.273622E+03	4.530098E-17	1.111134E-17
7.283465E+03	4.600756E-17	1.128488E-17
7.293307E+03	4.666248E-17	1.144574E-17
7.303150E+03	4.726006E-17	1.159255E-17
7.312992E+03	4.780217E-17	1.172576E-17
7.322835E+03	4.826994E-17	1.184074E-17
7.332677E+03	4.866633E-17	1.193821E-17
7.342520E+03	4.898799E-17	1.201735E-17
7.352362E+03	4.923240E-17	1.207755E-17
7.362205E+03	4.940532E-17	1.212021E-17
7.372047E+03	4.949145E-17	1.214158E-17
7.381890E+03	4.949843E-17	1.214353E-17
7.391732E+03	4.942759E-17	1.212639E-17
7.401575E+03	4.928117E-17	1.209070E-17
7.411417E+03	4.906233E-17	1.203725E-17
7.421260E+03	4.878228E-17	1.196877E-17
7.431102E+03	4.843107E-17	1.188283E-17
7.440945E+03	4.802124E-17	1.178251E-17
7.450787E+03	4.755846E-17	1.166919E-17
7.460630E+03	4.704872E-17	1.154434E-17
7.470472E+03	4.649820E-17	1.140948E-17
7.480315E+03	4.591312E-17	1.126614E-17
7.490157E+03	4.529962E-17	1.111581E-17
7.500000E+03	4.466368E-17	1.095997E-17
7.509843E+03	4.401099E-17	1.080002E-17
7.519685E+03	4.334687E-17	1.063725E-17
7.529528E+03	4.267623E-17	1.047288E-17
7.539370E+03	4.200350E-17	1.030799E-17
7.549213E+03	4.133260E-17	1.014354E-17
7.559055E+03	4.066694E-17	9.980366E-18
7.568898E+03	4.000939E-17	9.819178E-18
7.578740E+03	3.936228E-17	9.660549E-18
7.588583E+03	3.872170E-17	9.503514E-18
7.598425E+03	3.810067E-17	9.351270E-18
7.608268E+03	3.749422E-17	9.202600E-18
7.618110E+03	3.690285E-17	9.057625E-18
7.627953E+03	3.632670E-17	8.916380E-18
7.637795E+03	3.576555E-17	8.778810E-18
