#wls	flux	fluxerr
1.586043E+03	8.339547E-16	6.355366E-17
1.625694E+03	7.899469E-16	5.986221E-17
1.665345E+03	7.416690E-16	5.587969E-17
1.704996E+03	6.903010E-16	5.170133E-17
1.744647E+03	6.369478E-16	4.741489E-17
1.784298E+03	5.821582E-16	4.306516E-17
1.823949E+03	5.262195E-16	3.867679E-17
1.863600E+03	4.697465E-16	3.429790E-17
1.903251E+03	4.134422E-16	2.998191E-17
1.942902E+03	3.584997E-16	2.581614E-17
1.982554E+03	3.068402E-16	2.193754E-17
2.022205E+03	2.612423E-16	1.853981E-17
2.061856E+03	2.248699E-16	1.583761E-17
2.101507E+03	2.003725E-16	1.400233E-17
2.141158E+03	1.890603E-16	1.310605E-17
2.180809E+03	1.906477E-16	1.310733E-17
2.220460E+03	2.038411E-16	1.389586E-17
2.260111E+03	2.270420E-16	1.534290E-17
2.299762E+03	2.589075E-16	1.733991E-17
2.339413E+03	2.986852E-16	1.982017E-17
2.379064E+03	3.462479E-16	2.275935E-17
2.418715E+03	4.019300E-16	2.616292E-17
2.458366E+03	4.663425E-16	3.005277E-17
2.498017E+03	5.400243E-16	3.444403E-17
2.537669E+03	6.233153E-16	3.933719E-17
2.577320E+03	7.160835E-16	4.470174E-17
2.616971E+03	8.177031E-16	5.047636E-17
2.656622E+03	9.269405E-16	5.656380E-17
2.696273E+03	1.042038E-15	6.283819E-17
2.735924E+03	1.160817E-15	6.915317E-17
2.775575E+03	1.280792E-15	7.535048E-17
2.815226E+03	1.399374E-15	8.127322E-17
2.854877E+03	1.514137E-15	8.678166E-17
2.894528E+03	1.622827E-15	9.175351E-17
2.934179E+03	1.723776E-15	9.610668E-17
2.973830E+03	1.815669E-15	9.978423E-17
2.983743E+03	1.837183E-15	1.005979E-16
2.993656E+03	1.858052E-15	1.013666E-16
3.003569E+03	1.878269E-15	1.020901E-16
3.013481E+03	1.897962E-15	1.027760E-16
3.023394E+03	1.917275E-15	1.034322E-16
3.033307E+03	1.936412E-15	1.040699E-16
3.043220E+03	1.955329E-15	1.046868E-16
3.053132E+03	1.973997E-15	1.052815E-16
3.063045E+03	1.992363E-15	1.058513E-16
3.072958E+03	2.010464E-15	1.063982E-16
3.082871E+03	2.028173E-15	1.069159E-16
3.092784E+03	2.045496E-15	1.074048E-16
3.102696E+03	2.062358E-15	1.078611E-16
3.112609E+03	2.078855E-15	1.082903E-16
3.122522E+03	2.094841E-15	1.086848E-16
3.132435E+03	2.110338E-15	1.090462E-16
3.142347E+03	2.125371E-15	1.093761E-16
3.152260E+03	2.139930E-15	1.096741E-16
3.162173E+03	2.153926E-15	1.099362E-16
3.172086E+03	2.167476E-15	1.101685E-16
3.181998E+03	2.180500E-15	1.103672E-16
3.191911E+03	2.193039E-15	1.105349E-16
3.201824E+03	2.205062E-15	1.106702E-16
3.211737E+03	2.216614E-15	1.107757E-16
3.221649E+03	2.227707E-15	1.108524E-16
3.231562E+03	2.238355E-15	1.109012E-16
3.241475E+03	2.248535E-15	1.109212E-16
3.251388E+03	2.258302E-15	1.109155E-16
3.261301E+03	2.267678E-15	1.108855E-16
3.271213E+03	2.276645E-15	1.108304E-16
3.281126E+03	2.285265E-15	1.107537E-16
3.291039E+03	2.293526E-15	1.106549E-16
3.300952E+03	2.301491E-15	1.105374E-16
3.310864E+03	2.309150E-15	1.104009E-16
3.320777E+03	2.316535E-15	1.102470E-16
3.330690E+03	2.323675E-15	1.100775E-16
3.340603E+03	2.330602E-15	1.098939E-16
3.350515E+03	2.337349E-15	1.096979E-16
3.360428E+03	2.343915E-15	1.094898E-16
3.370341E+03	2.350371E-15	1.092729E-16
3.380254E+03	2.356684E-15	1.090457E-16
3.390167E+03	2.362959E-15	1.088134E-16
3.400079E+03	2.369169E-15	1.085745E-16
3.409992E+03	2.375354E-15	1.083311E-16
3.419905E+03	2.381556E-15	1.080852E-16
3.429818E+03	2.387786E-15	1.078371E-16
3.439730E+03	2.394120E-15	1.075904E-16
3.449643E+03	2.400576E-15	1.073458E-16
3.459556E+03	2.407170E-15	1.071040E-16
3.469469E+03	2.413958E-15	1.068674E-16
3.479381E+03	2.420966E-15	1.066371E-16
3.489294E+03	2.428289E-15	1.064171E-16
3.499207E+03	2.435902E-15	1.062061E-16
3.509120E+03	2.443913E-15	1.060087E-16
3.519033E+03	2.452373E-15	1.058269E-16
3.528945E+03	2.461373E-15	1.056643E-16
3.538858E+03	2.470952E-15	1.055222E-16
3.548771E+03	2.481190E-15	1.054038E-16
3.558684E+03	2.492230E-15	1.053146E-16
3.568596E+03	2.504113E-15	1.052559E-16
3.578509E+03	2.517001E-15	1.052339E-16
3.588422E+03	2.531006E-15	1.052528E-16
3.598335E+03	2.546220E-15	1.053155E-16
3.608247E+03	2.562767E-15	1.054265E-16
3.618160E+03	2.580803E-15	1.055913E-16
3.628073E+03	2.600430E-15	1.058130E-16
3.637986E+03	2.621832E-15	1.060981E-16
3.647898E+03	2.645076E-15	1.064481E-16
3.657811E+03	2.670306E-15	1.068676E-16
3.667724E+03	2.697627E-15	1.073595E-16
3.677637E+03	2.727161E-15	1.079273E-16
3.687550E+03	2.758953E-15	1.085713E-16
3.697462E+03	2.793088E-15	1.092935E-16
3.707375E+03	2.829599E-15	1.100935E-16
3.717288E+03	2.868519E-15	1.109712E-16
3.727201E+03	2.909829E-15	1.119244E-16
3.737113E+03	2.953503E-15	1.129504E-16
3.747026E+03	2.999457E-15	1.140448E-16
3.756939E+03	3.047572E-15	1.152015E-16
3.766852E+03	3.097782E-15	1.164167E-16
3.776764E+03	3.149838E-15	1.176800E-16
3.786677E+03	3.203576E-15	1.189840E-16
3.796590E+03	3.258799E-15	1.203206E-16
3.806503E+03	3.315185E-15	1.216771E-16
3.816416E+03	3.372445E-15	1.230423E-16
3.826328E+03	3.430291E-15	1.244055E-16
3.836241E+03	3.488389E-15	1.257544E-16
3.846154E+03	3.546379E-15	1.270761E-16
3.856067E+03	3.603860E-15	1.283565E-16
3.865979E+03	3.660482E-15	1.295839E-16
3.875892E+03	3.715858E-15	1.307453E-16
3.885805E+03	3.769608E-15	1.318286E-16
3.895718E+03	3.821354E-15	1.328218E-16
3.905630E+03	3.870726E-15	1.337137E-16
3.915543E+03	3.917408E-15	1.344953E-16
3.925456E+03	3.961064E-15	1.351569E-16
3.935369E+03	4.001342E-15	1.356888E-16
3.945282E+03	4.038024E-15	1.360862E-16
3.955194E+03	4.070814E-15	1.363414E-16
3.965107E+03	4.099508E-15	1.364506E-16
3.975020E+03	4.123905E-15	1.364098E-16
3.984933E+03	4.143795E-15	1.362151E-16
3.994845E+03	4.159119E-15	1.358674E-16
4.004758E+03	4.169737E-15	1.353654E-16
4.014671E+03	4.175627E-15	1.347114E-16
4.024584E+03	4.176774E-15	1.339080E-16
4.034496E+03	4.173202E-15	1.329591E-16
4.044409E+03	4.164983E-15	1.318699E-16
4.054322E+03	4.152274E-15	1.306484E-16
4.064235E+03	4.135205E-15	1.293013E-16
4.074148E+03	4.113981E-15	1.278379E-16
4.084060E+03	4.088938E-15	1.262710E-16
4.093973E+03	4.060308E-15	1.246100E-16
4.103886E+03	4.028461E-15	1.228684E-16
4.113799E+03	3.993788E-15	1.210600E-16
4.123711E+03	3.956698E-15	1.191987E-16
4.133624E+03	3.917632E-15	1.172991E-16
4.143537E+03	3.877061E-15	1.153763E-16
4.153450E+03	3.835468E-15	1.134455E-16
4.163362E+03	3.793344E-15	1.115216E-16
4.173275E+03	3.751192E-15	1.096197E-16
4.183188E+03	3.709509E-15	1.077540E-16
4.193101E+03	3.668739E-15	1.059373E-16
4.203013E+03	3.629355E-15	1.041826E-16
4.212926E+03	3.591829E-15	1.025026E-16
4.222839E+03	3.556562E-15	1.009077E-16
4.232752E+03	3.523851E-15	9.940520E-17
4.242665E+03	3.494042E-15	9.800353E-17
4.252577E+03	3.467391E-15	9.670848E-17
4.262490E+03	3.444091E-15	9.552390E-17
4.272403E+03	3.424271E-15	9.445188E-17
4.282316E+03	3.407960E-15	9.349162E-17
4.292228E+03	3.395210E-15	9.264282E-17
4.302141E+03	3.385883E-15	9.190015E-17
4.312054E+03	3.379894E-15	9.125974E-17
4.321967E+03	3.377030E-15	9.071446E-17
4.331879E+03	3.377047E-15	9.025647E-17
4.341792E+03	3.379617E-15	8.987593E-17
4.351705E+03	3.384393E-15	8.956265E-17
4.361618E+03	3.390951E-15	8.930472E-17
4.371531E+03	3.398888E-15	8.909098E-17
4.381443E+03	3.407702E-15	8.890788E-17
4.391356E+03	3.416853E-15	8.874125E-17
4.401269E+03	3.425837E-15	8.857799E-17
4.411182E+03	3.434064E-15	8.840314E-17
4.421094E+03	3.440966E-15	8.820247E-17
4.431007E+03	3.446008E-15	8.796290E-17
4.440920E+03	3.448581E-15	8.766958E-17
4.450833E+03	3.448200E-15	8.731108E-17
4.460745E+03	3.444399E-15	8.687659E-17
4.470658E+03	3.436744E-15	8.635622E-17
4.480571E+03	3.424910E-15	8.574291E-17
4.490484E+03	3.408663E-15	8.503187E-17
4.500397E+03	3.387864E-15	8.422077E-17
4.510309E+03	3.362477E-15	8.330971E-17
4.520222E+03	3.332538E-15	8.230056E-17
4.530135E+03	3.298185E-15	8.119756E-17
4.540048E+03	3.259743E-15	8.000941E-17
4.549960E+03	3.217497E-15	7.874370E-17
4.559873E+03	3.171837E-15	7.741041E-17
4.569786E+03	3.123272E-15	7.602222E-17
4.579699E+03	3.072324E-15	7.459192E-17
4.589611E+03	3.019450E-15	7.313060E-17
4.599524E+03	2.965296E-15	7.165371E-17
4.609437E+03	2.910294E-15	7.017130E-17
4.619350E+03	2.855028E-15	6.869680E-17
4.629262E+03	2.799965E-15	6.724075E-17
4.639175E+03	2.745534E-15	6.581270E-17
4.649088E+03	2.692122E-15	6.442116E-17
4.659001E+03	2.640073E-15	6.307353E-17
4.668914E+03	2.589734E-15	6.177730E-17
4.678826E+03	2.541326E-15	6.053700E-17
4.688739E+03	2.495060E-15	5.935679E-17
4.698652E+03	2.451128E-15	5.824059E-17
4.708565E+03	2.409619E-15	5.718976E-17
4.718477E+03	2.370717E-15	5.620799E-17
4.728390E+03	2.334437E-15	5.529498E-17
4.738303E+03	2.300893E-15	5.445288E-17
4.748216E+03	2.270134E-15	5.368230E-17
4.758128E+03	2.242154E-15	5.298253E-17
4.768041E+03	2.216997E-15	5.235420E-17
4.777954E+03	2.194702E-15	5.179775E-17
4.787867E+03	2.175228E-15	5.131186E-17
4.797780E+03	2.158599E-15	5.089670E-17
4.807692E+03	2.144806E-15	5.055178E-17
4.817605E+03	2.133816E-15	5.027599E-17
4.827518E+03	2.125613E-15	5.006871E-17
4.837431E+03	2.120194E-15	4.992964E-17
4.847343E+03	2.117510E-15	4.985738E-17
4.857256E+03	2.117543E-15	4.985137E-17
4.867169E+03	2.120204E-15	4.990934E-17
4.877082E+03	2.125459E-15	5.003034E-17
4.886994E+03	2.133241E-15	5.021268E-17
4.896907E+03	2.143449E-15	5.045385E-17
4.906820E+03	2.156014E-15	5.075217E-17
4.916733E+03	2.170810E-15	5.110457E-17
4.926646E+03	2.187742E-15	5.150876E-17
4.936558E+03	2.206660E-15	5.196112E-17
4.946471E+03	2.227419E-15	5.245823E-17
4.956384E+03	2.249843E-15	5.299585E-17
4.966297E+03	2.273810E-15	5.357107E-17
4.976209E+03	2.299094E-15	5.417856E-17
4.986122E+03	2.325506E-15	5.481378E-17
4.996035E+03	2.352867E-15	5.547252E-17
5.005948E+03	2.380945E-15	5.614926E-17
5.015860E+03	2.409524E-15	5.683883E-17
5.025773E+03	2.438381E-15	5.753598E-17
5.035686E+03	2.467293E-15	5.823538E-17
5.045599E+03	2.496010E-15	5.893110E-17
5.055511E+03	2.524312E-15	5.961789E-17
5.065424E+03	2.552013E-15	6.029129E-17
5.075337E+03	2.578859E-15	6.094527E-17
5.085250E+03	2.604715E-15	6.157656E-17
5.095163E+03	2.629331E-15	6.217925E-17
5.105075E+03	2.652614E-15	6.275103E-17
5.114988E+03	2.674414E-15	6.328830E-17
5.124901E+03	2.694631E-15	6.378868E-17
5.134814E+03	2.713199E-15	6.425048E-17
5.144726E+03	2.730048E-15	6.467206E-17
5.154639E+03	2.745167E-15	6.505309E-17
5.164552E+03	2.758548E-15	6.539331E-17
5.174465E+03	2.770292E-15	6.569512E-17
5.184377E+03	2.780387E-15	6.595815E-17
5.194290E+03	2.788955E-15	6.618530E-17
5.204203E+03	2.796110E-15	6.637925E-17
5.214116E+03	2.801983E-15	6.654306E-17
5.224029E+03	2.806656E-15	6.667871E-17
5.233941E+03	2.810308E-15	6.679046E-17
5.243854E+03	2.813066E-15	6.688130E-17
5.253767E+03	2.815085E-15	6.695495E-17
5.263680E+03	2.816493E-15	6.701446E-17
5.273592E+03	2.817473E-15	6.706423E-17
5.283505E+03	2.818119E-15	6.710653E-17
5.293418E+03	2.818581E-15	6.714497E-17
5.303331E+03	2.818975E-15	6.718237E-17
5.313243E+03	2.819474E-15	6.722291E-17
5.323156E+03	2.820133E-15	6.726795E-17
5.333069E+03	2.821117E-15	6.732152E-17
5.342982E+03	2.822535E-15	6.738616E-17
5.352895E+03	2.824487E-15	6.746417E-17
5.362807E+03	2.827006E-15	6.755623E-17
5.372720E+03	2.830166E-15	6.766406E-17
5.382633E+03	2.834025E-15	6.778893E-17
5.392546E+03	2.838503E-15	6.792882E-17
5.402458E+03	2.843608E-15	6.808389E-17
5.412371E+03	2.849237E-15	6.825157E-17
5.422284E+03	2.855319E-15	6.843006E-17
5.432197E+03	2.861895E-15	6.862031E-17
5.442109E+03	2.868873E-15	6.881998E-17
5.452022E+03	2.876250E-15	6.902899E-17
5.461935E+03	2.883951E-15	6.924541E-17
5.471848E+03	2.891973E-15	6.946911E-17
5.481761E+03	2.900159E-15	6.969625E-17
5.491673E+03	2.908431E-15	6.992487E-17
5.501586E+03	2.916650E-15	7.015158E-17
5.511499E+03	2.924767E-15	7.037512E-17
5.521412E+03	2.932618E-15	7.059146E-17
5.531324E+03	2.940105E-15	7.079817E-17
5.541237E+03	2.947105E-15	7.099224E-17
5.551150E+03	2.953569E-15	7.117240E-17
5.561063E+03	2.959368E-15	7.133547E-17
5.570975E+03	2.964444E-15	7.148001E-17
5.580888E+03	2.968753E-15	7.160491E-17
5.590801E+03	2.972235E-15	7.170866E-17
5.600714E+03	2.974873E-15	7.179080E-17
5.610626E+03	2.976601E-15	7.184968E-17
5.620539E+03	2.977425E-15	7.188545E-17
5.630452E+03	2.977362E-15	7.189849E-17
5.640365E+03	2.976409E-15	7.188868E-17
5.650278E+03	2.974567E-15	7.185608E-17
5.660190E+03	2.971846E-15	7.180087E-17
5.670103E+03	2.968319E-15	7.172486E-17
5.680016E+03	2.963936E-15	7.162686E-17
5.689929E+03	2.958777E-15	7.150877E-17
5.699841E+03	2.952850E-15	7.137087E-17
5.709754E+03	2.946137E-15	7.121271E-17
5.719667E+03	2.938676E-15	7.103526E-17
5.729580E+03	2.930501E-15	7.083940E-17
5.739492E+03	2.921583E-15	7.062447E-17
5.749405E+03	2.911919E-15	7.039045E-17
5.759318E+03	2.901570E-15	7.013888E-17
5.769231E+03	2.890467E-15	6.986819E-17
5.779144E+03	2.878640E-15	6.957913E-17
5.789056E+03	2.866089E-15	6.927178E-17
5.798969E+03	2.852817E-15	6.894632E-17
5.808882E+03	2.838865E-15	6.860383E-17
5.818795E+03	2.824186E-15	6.824326E-17
5.828707E+03	2.808869E-15	6.786684E-17
5.838620E+03	2.792918E-15	6.747478E-17
5.848533E+03	2.776380E-15	6.706831E-17
5.858446E+03	2.759314E-15	6.664895E-17
5.868358E+03	2.741794E-15	6.621858E-17
5.878271E+03	2.723936E-15	6.578014E-17
5.888184E+03	2.705778E-15	6.533463E-17
5.898097E+03	2.687435E-15	6.488494E-17
5.908010E+03	2.669065E-15	6.443499E-17
5.917922E+03	2.650808E-15	6.398823E-17
5.927835E+03	2.632752E-15	6.354693E-17
5.937748E+03	2.615116E-15	6.311648E-17
5.947661E+03	2.597973E-15	6.269873E-17
5.957573E+03	2.581582E-15	6.230001E-17
5.967486E+03	2.566017E-15	6.192226E-17
5.977399E+03	2.551445E-15	6.156954E-17
5.987312E+03	2.538051E-15	6.124650E-17
5.997224E+03	2.525955E-15	6.095610E-17
6.007137E+03	2.515291E-15	6.070170E-17
6.017050E+03	2.506120E-15	6.048491E-17
6.026963E+03	2.498607E-15	6.030977E-17
6.036875E+03	2.492744E-15	6.017628E-17
6.046788E+03	2.488653E-15	6.008749E-17
6.056701E+03	2.486343E-15	6.004379E-17
6.066614E+03	2.485797E-15	6.004489E-17
6.076527E+03	2.487001E-15	6.009067E-17
6.086439E+03	2.489948E-15	6.018109E-17
6.096352E+03	2.494540E-15	6.031401E-17
6.106265E+03	2.500686E-15	6.048737E-17
6.116178E+03	2.508327E-15	6.070002E-17
6.126090E+03	2.517261E-15	6.094725E-17
6.136003E+03	2.527354E-15	6.122602E-17
6.145916E+03	2.538455E-15	6.153290E-17
6.155829E+03	2.550399E-15	6.186396E-17
6.165741E+03	2.562945E-15	6.221338E-17
6.175654E+03	2.575879E-15	6.257596E-17
6.185567E+03	2.589023E-15	6.294733E-17
6.195480E+03	2.602134E-15	6.332162E-17
6.205393E+03	2.615048E-15	6.369476E-17
6.215305E+03	2.627581E-15	6.406223E-17
6.225218E+03	2.639595E-15	6.442060E-17
6.235131E+03	2.650938E-15	6.476608E-17
6.245044E+03	2.661470E-15	6.509517E-17
6.254956E+03	2.671109E-15	6.540572E-17
6.264869E+03	2.679790E-15	6.569603E-17
6.274782E+03	2.687394E-15	6.596301E-17
6.284695E+03	2.693891E-15	6.620584E-17
6.294607E+03	2.699275E-15	6.642414E-17
6.304520E+03	2.703478E-15	6.661612E-17
6.314433E+03	2.706562E-15	6.678310E-17
6.324346E+03	2.708528E-15	6.692485E-17
6.334259E+03	2.709391E-15	6.704150E-17
6.344171E+03	2.709176E-15	6.713339E-17
6.354084E+03	2.707997E-15	6.720312E-17
6.363997E+03	2.705860E-15	6.725058E-17
6.373910E+03	2.702893E-15	6.727874E-17
6.383822E+03	2.699155E-15	6.728877E-17
6.393735E+03	2.694702E-15	6.728191E-17
6.403648E+03	2.689636E-15	6.726046E-17
6.413561E+03	2.684018E-15	6.722572E-17
6.423473E+03	2.677946E-15	6.718001E-17
6.433386E+03	2.671397E-15	6.712253E-17
6.443299E+03	2.664506E-15	6.705653E-17
6.453212E+03	2.657326E-15	6.698316E-17
6.463125E+03	2.649863E-15	6.690244E-17
6.473037E+03	2.642206E-15	6.681646E-17
6.482950E+03	2.634396E-15	6.672614E-17
6.492863E+03	2.626472E-15	6.663236E-17
6.502776E+03	2.618473E-15	6.653599E-17
6.512688E+03	2.610474E-15	6.643884E-17
6.522601E+03	2.602467E-15	6.634063E-17
6.532514E+03	2.594482E-15	6.624203E-17
6.542427E+03	2.586591E-15	6.614480E-17
6.552339E+03	2.578820E-15	6.604959E-17
6.562252E+03	2.571155E-15	6.595594E-17
6.572165E+03	2.563662E-15	6.586552E-17
6.582078E+03	2.556323E-15	6.577782E-17
6.591990E+03	2.549247E-15	6.569562E-17
6.601903E+03	2.542369E-15	6.561722E-17
6.611816E+03	2.535709E-15	6.554313E-17
6.621729E+03	2.529332E-15	6.547500E-17
6.631642E+03	2.523256E-15	6.541327E-17
6.641554E+03	2.517454E-15	6.535731E-17
6.651467E+03	2.511943E-15	6.530749E-17
6.661380E+03	2.506781E-15	6.526537E-17
6.671293E+03	2.501937E-15	6.523015E-17
6.681205E+03	2.497467E-15	6.520332E-17
6.691118E+03	2.493292E-15	6.518281E-17
6.701031E+03	2.489509E-15	6.517121E-17
6.710944E+03	2.486033E-15	6.516631E-17
6.720856E+03	2.482957E-15	6.517062E-17
6.730769E+03	2.480194E-15	6.518184E-17
6.740682E+03	2.477786E-15	6.520114E-17
6.750595E+03	2.475732E-15	6.522853E-17
6.760508E+03	2.473980E-15	6.526269E-17
6.770420E+03	2.472569E-15	6.530469E-17
6.780333E+03	2.471443E-15	6.535311E-17
6.790246E+03	2.470639E-15	6.540896E-17
6.800159E+03	2.470050E-15	6.546948E-17
6.810071E+03	2.469756E-15	6.553681E-17
6.819984E+03	2.469694E-15	6.560937E-17
6.829897E+03	2.469847E-15	6.568676E-17
6.839810E+03	2.470151E-15	6.576731E-17
6.849722E+03	2.470679E-15	6.585307E-17
6.859635E+03	2.471273E-15	6.593982E-17
6.869548E+03	2.472050E-15	6.603081E-17
6.879461E+03	2.472897E-15	6.612305E-17
6.889374E+03	2.473792E-15	6.621601E-17
6.899286E+03	2.474759E-15	6.631042E-17
6.909199E+03	2.475729E-15	6.640450E-17
6.919112E+03	2.476679E-15	6.649772E-17
6.929025E+03	2.477587E-15	6.658953E-17
6.938937E+03	2.478432E-15	6.667943E-17
6.948850E+03	2.479191E-15	6.676690E-17
6.958763E+03	2.479795E-15	6.685014E-17
6.968676E+03	2.480320E-15	6.693131E-17
6.978588E+03	2.480598E-15	6.700595E-17
6.988501E+03	2.480760E-15	6.707765E-17
6.998414E+03	2.480638E-15	6.714194E-17
7.008327E+03	2.480313E-15	6.720115E-17
7.018239E+03	2.479719E-15	6.725357E-17
7.028152E+03	2.478841E-15	6.729884E-17
7.038065E+03	2.477716E-15	6.733807E-17
7.047978E+03	2.476230E-15	6.736826E-17
7.057891E+03	2.474422E-15	6.739058E-17
7.067803E+03	2.472234E-15	6.740350E-17
7.077716E+03	2.469707E-15	6.740825E-17
7.087629E+03	2.466835E-15	6.740476E-17
7.097542E+03	2.463566E-15	6.739167E-17
7.107454E+03	2.459945E-15	6.737036E-17
7.117367E+03	2.455875E-15	6.733824E-17
7.127280E+03	2.451458E-15	6.729818E-17
7.137193E+03	2.446649E-15	6.724905E-17
7.147105E+03	2.441405E-15	6.718979E-17
7.157018E+03	2.435787E-15	6.712212E-17
7.166931E+03	2.429809E-15	6.704652E-17
7.176844E+03	2.423433E-15	6.696207E-17
7.186757E+03	2.416680E-15	6.686939E-17
7.196669E+03	2.409569E-15	6.676913E-17
7.206582E+03	2.402124E-15	6.666201E-17
7.216495E+03	2.394370E-15	6.654881E-17
7.226408E+03	2.386234E-15	6.642762E-17
7.236320E+03	2.377847E-15	6.630213E-17
7.246233E+03	2.369189E-15	6.617188E-17
7.256146E+03	2.360245E-15	6.603653E-17
7.266059E+03	2.351097E-15	6.589844E-17
7.275971E+03	2.341682E-15	6.575593E-17
7.285884E+03	2.332032E-15	6.560997E-17
7.295797E+03	2.322180E-15	6.546158E-17
7.305710E+03	2.312110E-15	6.531031E-17
7.315623E+03	2.301896E-15	6.515838E-17
7.325535E+03	2.291417E-15	6.500241E-17
7.335448E+03	2.280789E-15	6.484574E-17
7.345361E+03	2.269931E-15	6.468608E-17
7.355274E+03	2.258896E-15	6.452504E-17
7.365186E+03	2.247638E-15	6.436126E-17
7.375099E+03	2.236152E-15	6.419441E-17
7.385012E+03	2.224472E-15	6.402531E-17
7.394925E+03	2.212534E-15	6.385188E-17
7.404837E+03	2.200451E-15	6.367723E-17
7.414750E+03	2.188095E-15	6.349745E-17
7.424663E+03	2.175521E-15	6.331391E-17
7.434576E+03	2.162638E-15	6.312373E-17
7.444489E+03	2.149537E-15	6.292942E-17
7.454401E+03	2.136124E-15	6.272794E-17
7.464314E+03	2.122350E-15	6.251764E-17
7.474227E+03	2.108216E-15	6.229833E-17
7.484140E+03	2.093681E-15	6.206852E-17
7.494052E+03	2.078801E-15	6.182959E-17
7.503965E+03	2.063449E-15	6.157755E-17
7.513878E+03	2.047647E-15	6.131273E-17
7.523791E+03	2.031416E-15	6.103549E-17
7.533703E+03	2.014694E-15	6.074368E-17
7.543616E+03	1.997512E-15	6.043795E-17
7.553529E+03	1.979817E-15	6.011640E-17
7.563442E+03	1.961697E-15	5.978136E-17
7.573354E+03	1.943064E-15	5.942989E-17
7.583267E+03	1.924015E-15	5.906464E-17
7.593180E+03	1.904475E-15	5.868299E-17
7.603093E+03	1.884549E-15	5.828791E-17
7.613006E+03	1.864173E-15	5.787715E-17
7.622918E+03	1.843462E-15	5.745395E-17
7.632831E+03	1.822403E-15	5.701766E-17
7.642744E+03	1.801032E-15	5.656915E-17
7.652657E+03	1.779386E-15	5.610933E-17
7.662569E+03	1.757505E-15	5.563924E-17
7.672482E+03	1.735431E-15	5.516000E-17
7.682395E+03	1.713166E-15	5.467148E-17
7.692308E+03	1.690835E-15	5.417744E-17
