#wls	flux	fluxerr
1.600000E+03	1.954723E-14	4.858595E-15
1.640000E+03	1.574449E-14	3.602004E-15
1.680000E+03	1.259839E-14	2.633648E-15
1.720000E+03	1.002429E-14	1.898788E-15
1.760000E+03	7.941640E-15	1.349829E-15
1.800000E+03	6.275152E-15	9.462256E-16
1.840000E+03	4.953999E-15	6.539627E-16
1.880000E+03	3.917855E-15	4.458575E-16
1.920000E+03	3.112947E-15	3.002296E-16
1.960000E+03	2.493883E-15	2.004573E-16
2.000000E+03	2.023023E-15	1.342095E-16
2.040000E+03	1.670202E-15	9.272980E-17
2.080000E+03	1.411512E-15	6.977486E-17
2.120000E+03	1.227914E-15	5.982710E-17
2.160000E+03	1.103416E-15	5.710255E-17
2.200000E+03	1.026744E-15	5.767771E-17
2.240000E+03	9.911612E-16	5.979707E-17
2.280000E+03	9.933902E-16	6.287813E-17
2.320000E+03	1.032883E-15	6.674152E-17
2.360000E+03	1.111376E-15	7.122883E-17
2.400000E+03	1.232307E-15	7.600987E-17
2.440000E+03	1.400046E-15	8.049695E-17
2.480000E+03	1.618957E-15	8.392085E-17
2.520000E+03	1.891478E-15	8.574070E-17
2.560000E+03	2.216696E-15	8.690791E-17
2.600000E+03	2.588900E-15	9.211303E-17
2.640000E+03	2.998177E-15	1.099986E-16
2.680000E+03	3.427292E-15	1.451772E-16
2.720000E+03	3.853864E-15	1.944924E-16
2.760000E+03	4.256236E-15	2.519993E-16
2.800000E+03	4.616295E-15	3.116892E-16
2.840000E+03	4.921799E-15	3.682143E-16
2.880000E+03	5.167890E-15	4.173004E-16
2.920000E+03	5.356609E-15	4.560028E-16
2.960000E+03	5.496899E-15	4.828775E-16
3.000000E+03	5.601882E-15	4.977437E-16
3.010000E+03	5.624629E-15	4.996774E-16
3.020000E+03	5.646365E-15	5.009210E-16
3.030000E+03	5.667350E-15	5.014948E-16
3.040000E+03	5.688101E-15	5.014429E-16
3.050000E+03	5.708748E-15	5.007762E-16
3.060000E+03	5.729552E-15	4.995176E-16
3.070000E+03	5.750893E-15	4.977007E-16
3.080000E+03	5.772902E-15	4.953375E-16
3.090000E+03	5.795831E-15	4.924506E-16
3.100000E+03	5.820166E-15	4.890820E-16
3.110000E+03	5.845907E-15	4.852316E-16
3.120000E+03	5.873408E-15	4.809287E-16
3.130000E+03	5.902780E-15	4.761816E-16
3.140000E+03	5.934596E-15	4.710351E-16
3.150000E+03	5.968716E-15	4.654755E-16
3.160000E+03	6.005462E-15	4.595251E-16
3.170000E+03	6.045146E-15	4.532040E-16
3.180000E+03	6.087953E-15	4.465213E-16
3.190000E+03	6.133828E-15	4.394681E-16
3.200000E+03	6.183278E-15	4.320757E-16
3.210000E+03	6.236229E-15	4.243328E-16
3.220000E+03	6.292931E-15	4.162514E-16
3.230000E+03	6.353397E-15	4.078277E-16
3.240000E+03	6.417849E-15	3.990723E-16
3.250000E+03	6.486380E-15	3.899887E-16
3.260000E+03	6.559065E-15	3.805812E-16
3.270000E+03	6.635847E-15	3.708496E-16
3.280000E+03	6.716873E-15	3.608094E-16
3.290000E+03	6.802154E-15	3.504727E-16
3.300000E+03	6.891567E-15	3.398514E-16
3.310000E+03	6.985186E-15	3.289746E-16
3.320000E+03	7.082832E-15	3.178683E-16
3.330000E+03	7.184525E-15	3.065785E-16
3.334000E+03	3.642823E-15	3.588187E-16
3.336000E+03	3.645389E-15	3.587213E-16
3.338000E+03	3.651008E-15	3.586791E-16
3.340000E+03	3.665593E-15	3.587989E-16
3.342000E+03	3.677123E-15	3.588627E-16
3.344000E+03	3.697997E-15	3.590952E-16
3.346000E+03	3.718295E-15	3.593166E-16
3.348000E+03	3.736111E-15	3.594923E-16
3.350000E+03	3.767463E-15	3.599139E-16
3.352000E+03	3.790610E-15	3.601858E-16
3.354000E+03	3.807651E-15	3.603455E-16
3.356000E+03	3.833841E-15	3.606719E-16
3.358000E+03	3.847634E-15	3.607708E-16
3.360000E+03	3.864855E-15	3.641314E-16
3.362000E+03	3.876737E-15	3.624644E-16
3.364000E+03	3.890141E-15	3.629979E-16
3.366000E+03	3.906400E-15	3.660635E-16
3.368000E+03	3.915987E-15	3.659096E-16
3.370000E+03	3.927859E-15	3.657793E-16
3.372000E+03	3.947350E-15	3.558685E-16
3.374000E+03	3.964550E-15	3.609913E-16
3.376000E+03	3.973175E-15	3.725105E-16
3.378000E+03	3.984084E-15	3.606880E-16
3.380000E+03	3.998800E-15	3.726663E-16
3.382000E+03	4.016370E-15	3.647346E-16
3.384000E+03	4.032985E-15	3.639029E-16
3.386000E+03	4.050167E-15	3.620287E-16
3.388000E+03	4.076296E-15	3.584430E-16
3.390000E+03	4.106228E-15	3.604533E-16
3.392000E+03	4.142056E-15	3.295568E-16
3.394000E+03	4.191584E-15	3.189284E-16
3.396000E+03	4.250239E-15	2.882177E-16
3.398000E+03	4.313643E-15	2.554686E-16
3.400000E+03	4.385219E-15	3.060136E-16
3.402000E+03	4.462872E-15	3.236580E-16
3.404000E+03	4.539179E-15	3.346215E-16
3.406000E+03	4.628221E-15	3.905222E-16
3.408000E+03	4.723335E-15	4.265008E-16
3.410000E+03	4.828325E-15	4.777953E-16
3.412000E+03	4.944330E-15	4.777144E-16
3.414000E+03	5.065259E-15	5.166647E-16
3.416000E+03	5.198149E-15	5.544249E-16
3.418000E+03	5.343377E-15	5.678430E-16
3.420000E+03	5.491242E-15	5.919787E-16
3.422000E+03	5.651821E-15	5.879750E-16
3.424000E+03	5.821687E-15	5.722453E-16
3.426000E+03	6.000459E-15	5.719277E-16
3.428000E+03	6.189274E-15	5.622785E-16
3.430000E+03	6.385849E-15	5.626405E-16
3.432000E+03	6.591132E-15	5.583709E-16
3.434000E+03	6.798661E-15	5.780777E-16
3.436000E+03	7.008623E-15	5.618358E-16
3.438000E+03	7.224438E-15	5.685125E-16
3.440000E+03	7.457885E-15	5.782940E-16
3.442000E+03	7.691100E-15	5.864046E-16
3.444000E+03	7.928264E-15	6.022355E-16
3.446000E+03	8.158928E-15	6.014028E-16
3.448000E+03	8.381195E-15	6.175284E-16
3.450000E+03	8.615577E-15	6.628320E-16
3.452000E+03	8.840612E-15	6.995943E-16
3.454000E+03	9.073392E-15	6.946734E-16
3.456000E+03	9.299106E-15	6.911030E-16
3.458000E+03	9.532374E-15	6.724430E-16
3.460000E+03	9.755729E-15	6.805385E-16
3.462000E+03	9.963860E-15	6.468582E-16
3.464000E+03	1.016208E-14	6.056568E-16
3.466000E+03	1.035932E-14	5.845286E-16
3.468000E+03	1.056032E-14	5.433351E-16
3.470000E+03	1.075863E-14	5.337666E-16
3.472000E+03	1.095329E-14	5.185604E-16
3.474000E+03	1.113787E-14	4.946877E-16
3.476000E+03	1.129434E-14	4.988128E-16
3.478000E+03	1.144698E-14	5.006646E-16
3.480000E+03	1.158879E-14	4.957507E-16
3.482000E+03	1.172090E-14	5.080108E-16
3.484000E+03	1.184407E-14	5.113607E-16
3.486000E+03	1.194996E-14	5.226618E-16
3.488000E+03	1.203783E-14	5.324494E-16
3.490000E+03	1.211923E-14	5.389889E-16
3.492000E+03	1.219512E-14	5.498190E-16
3.494000E+03	1.226227E-14	5.592724E-16
3.496000E+03	1.231671E-14	5.604775E-16
3.498000E+03	1.235011E-14	5.521429E-16
3.500000E+03	1.236493E-14	5.333127E-16
3.502000E+03	1.236932E-14	5.320305E-16
3.504000E+03	1.235401E-14	5.269974E-16
3.506000E+03	1.233112E-14	5.156834E-16
3.508000E+03	1.229251E-14	5.019166E-16
3.510000E+03	1.224917E-14	4.964102E-16
3.512000E+03	1.218917E-14	4.942439E-16
3.514000E+03	1.211555E-14	4.942040E-16
3.516000E+03	1.203418E-14	4.913485E-16
3.518000E+03	1.193729E-14	4.883168E-16
3.520000E+03	1.182925E-14	4.833005E-16
3.522000E+03	1.170721E-14	4.720057E-16
3.524000E+03	1.159221E-14	4.606813E-16
3.526000E+03	1.146321E-14	4.445709E-16
3.528000E+03	1.132705E-14	4.335164E-16
3.530000E+03	1.119943E-14	4.290982E-16
3.532000E+03	1.106123E-14	4.239326E-16
3.534000E+03	1.092513E-14	4.228099E-16
3.536000E+03	1.077412E-14	4.224771E-16
3.538000E+03	1.063845E-14	4.197368E-16
3.540000E+03	1.050224E-14	4.114960E-16
3.542000E+03	1.036019E-14	4.067370E-16
3.544000E+03	1.022119E-14	4.022501E-16
3.546000E+03	1.007370E-14	3.892607E-16
3.548000E+03	9.931727E-15	3.877396E-16
3.550000E+03	9.790910E-15	3.836434E-16
3.552000E+03	9.639531E-15	3.761121E-16
3.554000E+03	9.490259E-15	3.712467E-16
3.556000E+03	9.349518E-15	3.659788E-16
3.558000E+03	9.199163E-15	3.616161E-16
3.560000E+03	9.058851E-15	3.550112E-16
3.562000E+03	8.911572E-15	3.460904E-16
3.564000E+03	8.775467E-15	3.418988E-16
3.566000E+03	8.636363E-15	3.433820E-16
3.568000E+03	8.495206E-15	3.377348E-16
3.570000E+03	8.359741E-15	3.327300E-16
3.572000E+03	8.226378E-15	3.293016E-16
3.574000E+03	8.090016E-15	3.206318E-16
3.576000E+03	7.951225E-15	3.141819E-16
3.578000E+03	7.815856E-15	3.096430E-16
3.580000E+03	7.680513E-15	3.012621E-16
3.582000E+03	7.551801E-15	2.977147E-16
3.584000E+03	7.421790E-15	2.948468E-16
3.586000E+03	7.294446E-15	3.010877E-16
3.588000E+03	7.174108E-15	2.974465E-16
3.590000E+03	7.057188E-15	2.955339E-16
3.592000E+03	6.942743E-15	2.922655E-16
3.594000E+03	6.832469E-15	2.892381E-16
3.596000E+03	6.719196E-15	2.796159E-16
3.598000E+03	6.599719E-15	2.711801E-16
3.600000E+03	6.485356E-15	2.671346E-16
3.602000E+03	6.364036E-15	2.626828E-16
3.604000E+03	6.240098E-15	2.592646E-16
3.606000E+03	6.127873E-15	2.546217E-16
3.608000E+03	6.016801E-15	2.574624E-16
3.610000E+03	5.909142E-15	2.415552E-16
3.612000E+03	5.801881E-15	2.359201E-16
3.614000E+03	5.697278E-15	2.283522E-16
3.616000E+03	5.596275E-15	2.344320E-16
3.618000E+03	5.497741E-15	2.361433E-16
3.620000E+03	5.398848E-15	2.367697E-16
3.622000E+03	5.308830E-15	2.350658E-16
3.624000E+03	5.214494E-15	2.326678E-16
3.626000E+03	5.121872E-15	2.323184E-16
3.628000E+03	5.038309E-15	2.275033E-16
3.630000E+03	4.954949E-15	2.242998E-16
3.632000E+03	4.871229E-15	2.180421E-16
3.634000E+03	4.791290E-15	1.965291E-16
3.636000E+03	4.715508E-15	1.942519E-16
3.638000E+03	4.649720E-15	1.911172E-16
3.640000E+03	4.587145E-15	1.973166E-16
3.642000E+03	4.523075E-15	1.896525E-16
3.644000E+03	4.459581E-15	1.884824E-16
3.646000E+03	4.399299E-15	1.905014E-16
3.648000E+03	4.351637E-15	1.981773E-16
3.650000E+03	4.310570E-15	2.010275E-16
3.652000E+03	4.261043E-15	1.998994E-16
3.654000E+03	4.218299E-15	1.989485E-16
3.656000E+03	4.184968E-15	2.001398E-16
3.658000E+03	4.152584E-15	2.109182E-16
3.660000E+03	4.121522E-15	2.104898E-16
3.662000E+03	4.096108E-15	2.089512E-16
3.664000E+03	4.075399E-15	1.992308E-16
3.666000E+03	4.054130E-15	1.916828E-16
3.668000E+03	4.041513E-15	1.829083E-16
3.670000E+03	4.039050E-15	1.796958E-16
3.672000E+03	4.031324E-15	1.798932E-16
3.674000E+03	4.028673E-15	1.796921E-16
3.676000E+03	4.034856E-15	1.799919E-16
3.678000E+03	4.043291E-15	1.869995E-16
3.680000E+03	4.053980E-15	1.872105E-16
3.682000E+03	4.067672E-15	1.875310E-16
3.684000E+03	4.087185E-15	1.863470E-16
3.686000E+03	4.103500E-15	1.895381E-16
3.688000E+03	4.133522E-15	1.869123E-16
3.690000E+03	4.168985E-15	1.874147E-16
3.692000E+03	4.209323E-15	1.918588E-16
3.694000E+03	4.253783E-15	1.907817E-16
3.696000E+03	4.293164E-15	1.856142E-16
3.698000E+03	4.343802E-15	1.862599E-16
3.700000E+03	4.399497E-15	1.884619E-16
3.702000E+03	4.460060E-15	1.907006E-16
3.704000E+03	4.529056E-15	1.917316E-16
3.706000E+03	4.600853E-15	1.780310E-16
3.708000E+03	4.681829E-15	1.796451E-16
3.710000E+03	4.774609E-15	1.859525E-16
3.712000E+03	4.867557E-15	1.851509E-16
3.714000E+03	4.959548E-15	1.907598E-16
3.716000E+03	5.058085E-15	1.962590E-16
3.718000E+03	5.167667E-15	1.994557E-16
3.720000E+03	5.280226E-15	2.037425E-16
3.722000E+03	5.395574E-15	2.050925E-16
3.724000E+03	5.519524E-15	2.099092E-16
3.726000E+03	5.648509E-15	2.067186E-16
3.728000E+03	5.779904E-15	2.115267E-16
3.730000E+03	5.911647E-15	2.132377E-16
3.732000E+03	6.045986E-15	2.171168E-16
3.734000E+03	6.186481E-15	2.197851E-16
3.736000E+03	6.330507E-15	2.222937E-16
3.738000E+03	6.477501E-15	2.253077E-16
3.740000E+03	6.627086E-15	2.247172E-16
3.742000E+03	6.773456E-15	2.273090E-16
3.744000E+03	6.921293E-15	2.280594E-16
3.746000E+03	7.075654E-15	2.258716E-16
3.748000E+03	7.233728E-15	2.279493E-16
3.750000E+03	7.396262E-15	2.339790E-16
3.752000E+03	7.561571E-15	2.405573E-16
3.754000E+03	7.726282E-15	2.646704E-16
3.756000E+03	7.895452E-15	2.696743E-16
3.758000E+03	8.061778E-15	2.722192E-16
3.760000E+03	8.228068E-15	2.773249E-16
3.762000E+03	8.391329E-15	2.771653E-16
3.764000E+03	8.564098E-15	2.775114E-16
3.766000E+03	8.735521E-15	2.791988E-16
3.768000E+03	8.917382E-15	2.805544E-16
3.770000E+03	9.102384E-15	2.812332E-16
3.772000E+03	9.287160E-15	2.803796E-16
3.774000E+03	9.474327E-15	2.935261E-16
3.776000E+03	9.663137E-15	2.975795E-16
3.778000E+03	9.855085E-15	3.012915E-16
3.780000E+03	1.005746E-14	3.041589E-16
3.782000E+03	1.026166E-14	3.072681E-16
3.784000E+03	1.046152E-14	3.189611E-16
3.786000E+03	1.066489E-14	3.283629E-16
3.788000E+03	1.087568E-14	3.344638E-16
3.790000E+03	1.109167E-14	3.393167E-16
3.792000E+03	1.130405E-14	3.458786E-16
3.794000E+03	1.151882E-14	3.583986E-16
3.796000E+03	1.174008E-14	3.643829E-16
3.798000E+03	1.195942E-14	3.732061E-16
3.800000E+03	1.218152E-14	3.753829E-16
3.802000E+03	1.239834E-14	3.619515E-16
3.804000E+03	1.262968E-14	3.639346E-16
3.806000E+03	1.286507E-14	3.649604E-16
3.808000E+03	1.309929E-14	3.657058E-16
3.810000E+03	1.332973E-14	3.661789E-16
3.812000E+03	1.356403E-14	3.665038E-16
3.814000E+03	1.380127E-14	3.684553E-16
3.816000E+03	1.403621E-14	3.731389E-16
3.818000E+03	1.427484E-14	3.813953E-16
3.820000E+03	1.451155E-14	3.844781E-16
3.822000E+03	1.474149E-14	3.882108E-16
3.824000E+03	1.497119E-14	3.946245E-16
3.826000E+03	1.520345E-14	4.002305E-16
3.828000E+03	1.543622E-14	4.191582E-16
3.830000E+03	1.564842E-14	4.326896E-16
3.832000E+03	1.585722E-14	4.473718E-16
3.834000E+03	1.606840E-14	4.624582E-16
3.836000E+03	1.628214E-14	4.724078E-16
3.838000E+03	1.650366E-14	4.809757E-16
3.840000E+03	1.672121E-14	4.816458E-16
3.842000E+03	1.692772E-14	4.773948E-16
3.844000E+03	1.713083E-14	4.764412E-16
3.846000E+03	1.732980E-14	4.737393E-16
3.848000E+03	1.752164E-14	4.730372E-16
3.850000E+03	1.770114E-14	4.755197E-16
3.852000E+03	1.787390E-14	4.783602E-16
3.854000E+03	1.802781E-14	4.775240E-16
3.856000E+03	1.818224E-14	4.730369E-16
3.858000E+03	1.834352E-14	4.743059E-16
3.860000E+03	1.850663E-14	4.735979E-16
3.862000E+03	1.866542E-14	4.733548E-16
3.864000E+03	1.881784E-14	4.761073E-16
3.866000E+03	1.895906E-14	4.796590E-16
3.868000E+03	1.909280E-14	4.795576E-16
3.870000E+03	1.922093E-14	4.826118E-16
3.872000E+03	1.934530E-14	4.920871E-16
3.874000E+03	1.946593E-14	4.954271E-16
3.876000E+03	1.958653E-14	4.991221E-16
3.878000E+03	1.969593E-14	5.092642E-16
3.880000E+03	1.980717E-14	5.261130E-16
3.882000E+03	1.991467E-14	5.208895E-16
3.884000E+03	2.001470E-14	5.184571E-16
3.886000E+03	2.011656E-14	5.196831E-16
3.888000E+03	2.021654E-14	5.311077E-16
3.890000E+03	2.030906E-14	5.368218E-16
3.892000E+03	2.040156E-14	5.400214E-16
3.894000E+03	2.049589E-14	5.342868E-16
3.896000E+03	2.059205E-14	5.248629E-16
3.898000E+03	2.069005E-14	5.241827E-16
3.900000E+03	2.078616E-14	5.237624E-16
3.902000E+03	2.088039E-14	5.192937E-16
3.904000E+03	2.097646E-14	5.170755E-16
3.906000E+03	2.106878E-14	5.131670E-16
3.908000E+03	2.117037E-14	5.133134E-16
3.910000E+03	2.126821E-14	5.184354E-16
3.912000E+03	2.136046E-14	5.220954E-16
3.914000E+03	2.144898E-14	5.207052E-16
3.916000E+03	2.154118E-14	5.336093E-16
3.918000E+03	2.163336E-14	5.591938E-16
3.920000E+03	2.172180E-14	5.754665E-16
3.922000E+03	2.180651E-14	5.954934E-16
3.924000E+03	2.188934E-14	6.207813E-16
3.926000E+03	2.195731E-14	6.361771E-16
3.928000E+03	2.202341E-14	6.384307E-16
3.930000E+03	2.208764E-14	6.512901E-16
3.932000E+03	2.214999E-14	6.528652E-16
3.934000E+03	2.220676E-14	6.503858E-16
3.936000E+03	2.226166E-14	6.394518E-16
3.938000E+03	2.231099E-14	6.457699E-16
3.940000E+03	2.235845E-14	6.555804E-16
3.942000E+03	2.239107E-14	6.659727E-16
3.944000E+03	2.242923E-14	6.636712E-16
3.946000E+03	2.246368E-14	6.601514E-16
3.948000E+03	2.249071E-14	6.542294E-16
3.950000E+03	2.251217E-14	6.514379E-16
3.952000E+03	2.252066E-14	6.513721E-16
3.954000E+03	2.252359E-14	6.503321E-16
3.956000E+03	2.252096E-14	6.319209E-16
3.958000E+03	2.250722E-14	6.025544E-16
3.960000E+03	2.249163E-14	5.760213E-16
3.962000E+03	2.247048E-14	5.784423E-16
3.964000E+03	2.245304E-14	5.811267E-16
3.966000E+03	2.242819E-14	5.817032E-16
3.968000E+03	2.239965E-14	6.057625E-16
3.970000E+03	2.236001E-14	6.275571E-16
3.972000E+03	2.231853E-14	6.292885E-16
3.974000E+03	2.228075E-14	6.271759E-16
3.976000E+03	2.223928E-14	6.303148E-16
3.978000E+03	2.219412E-14	6.218720E-16
3.980000E+03	2.214526E-14	6.244785E-16
3.982000E+03	2.209642E-14	6.256164E-16
3.984000E+03	2.204943E-14	6.321615E-16
3.986000E+03	2.200244E-14	6.096640E-16
3.988000E+03	2.196101E-14	5.769471E-16
3.990000E+03	2.192143E-14	5.343050E-16
3.992000E+03	2.188925E-14	5.139986E-16
3.994000E+03	2.185892E-14	5.058999E-16
3.996000E+03	2.183413E-14	5.034163E-16
3.998000E+03	2.181304E-14	4.996507E-16
4.000000E+03	2.180118E-14	4.987517E-16
4.002000E+03	2.179487E-14	4.915249E-16
4.004000E+03	2.179962E-14	4.828175E-16
4.006000E+03	2.180806E-14	4.778122E-16
4.008000E+03	2.182388E-14	4.756198E-16
4.010000E+03	2.185077E-14	4.754472E-16
4.012000E+03	2.188318E-14	4.757354E-16
4.014000E+03	2.192296E-14	4.773404E-16
4.016000E+03	2.197010E-14	4.707141E-16
4.018000E+03	2.201908E-14	4.624549E-16
4.020000E+03	2.207726E-14	4.586622E-16
4.022000E+03	2.214095E-14	4.579794E-16
4.024000E+03	2.221569E-14	4.553610E-16
4.026000E+03	2.229962E-14	4.572402E-16
4.028000E+03	2.238722E-14	4.509818E-16
4.030000E+03	2.247479E-14	4.465162E-16
4.032000E+03	2.258077E-14	4.355924E-16
4.034000E+03	2.269777E-14	4.399718E-16
4.036000E+03	2.282579E-14	4.379773E-16
4.038000E+03	2.295194E-14	4.357597E-16
4.040000E+03	2.307437E-14	4.322634E-16
4.042000E+03	2.319123E-14	4.344529E-16
4.044000E+03	2.331359E-14	4.358072E-16
4.046000E+03	2.343039E-14	4.374408E-16
4.048000E+03	2.354532E-14	4.380766E-16
4.050000E+03	2.365284E-14	4.385557E-16
4.052000E+03	2.376218E-14	4.384190E-16
4.054000E+03	2.386965E-14	4.385867E-16
4.056000E+03	2.398812E-14	4.376212E-16
4.058000E+03	2.410656E-14	4.366087E-16
4.060000E+03	2.421209E-14	4.371040E-16
4.062000E+03	2.429919E-14	4.372686E-16
4.064000E+03	2.437339E-14	4.385534E-16
4.066000E+03	2.443653E-14	4.390322E-16
4.068000E+03	2.449230E-14	4.367289E-16
4.070000E+03	2.454253E-14	4.387725E-16
4.072000E+03	2.458722E-14	4.376555E-16
4.074000E+03	2.461720E-14	4.359697E-16
4.076000E+03	2.464165E-14	4.352738E-16
4.078000E+03	2.464404E-14	4.359425E-16
4.080000E+03	2.463907E-14	4.347245E-16
4.082000E+03	2.462123E-14	4.313238E-16
4.084000E+03	2.459054E-14	4.309460E-16
4.086000E+03	2.455434E-14	4.328107E-16
4.088000E+03	2.450345E-14	4.340239E-16
4.090000E+03	2.444522E-14	4.315735E-16
4.092000E+03	2.438517E-14	4.293604E-16
4.094000E+03	2.431779E-14	4.271877E-16
4.096000E+03	2.423573E-14	4.299773E-16
4.098000E+03	2.415002E-14	4.325066E-16
4.100000E+03	2.406249E-14	4.385638E-16
4.102000E+03	2.396947E-14	4.416635E-16
4.104000E+03	2.387281E-14	4.392845E-16
4.106000E+03	2.377249E-14	4.379316E-16
4.108000E+03	2.367036E-14	4.404505E-16
4.110000E+03	2.356092E-14	4.478626E-16
4.112000E+03	2.345334E-14	4.499618E-16
4.114000E+03	2.334577E-14	4.534460E-16
4.116000E+03	2.323640E-14	4.562452E-16
4.118000E+03	2.312339E-14	4.494841E-16
4.120000E+03	2.300674E-14	4.570477E-16
4.122000E+03	2.289011E-14	4.563921E-16
4.124000E+03	2.277167E-14	4.566258E-16
4.126000E+03	2.264960E-14	4.506028E-16
4.128000E+03	2.253305E-14	4.533037E-16
4.130000E+03	2.241836E-14	4.492590E-16
4.132000E+03	2.230736E-14	4.357969E-16
4.134000E+03	2.219821E-14	4.156640E-16
4.136000E+03	2.208359E-14	3.941589E-16
4.138000E+03	2.197083E-14	3.829140E-16
4.140000E+03	2.186176E-14	3.737941E-16
4.142000E+03	2.175271E-14	3.726979E-16
4.144000E+03	2.164918E-14	3.803828E-16
4.146000E+03	2.154201E-14	3.856097E-16
4.148000E+03	2.143303E-14	3.947179E-16
4.150000E+03	2.132042E-14	4.069161E-16
4.152000E+03	2.120967E-14	4.206945E-16
4.154000E+03	2.109711E-14	4.386445E-16
4.156000E+03	2.098823E-14	4.485998E-16
4.158000E+03	2.087389E-14	4.649880E-16
4.160000E+03	2.076324E-14	4.744989E-16
4.162000E+03	2.065079E-14	4.740551E-16
4.164000E+03	2.053287E-14	4.730551E-16
4.166000E+03	2.040951E-14	4.731888E-16
4.168000E+03	2.028617E-14	4.620199E-16
4.170000E+03	2.016103E-14	4.563580E-16
4.172000E+03	2.003045E-14	4.397926E-16
4.174000E+03	1.989625E-14	4.239879E-16
4.176000E+03	1.975842E-14	3.926921E-16
4.178000E+03	1.961880E-14	3.741013E-16
4.180000E+03	1.947557E-14	3.655463E-16
4.182000E+03	1.933419E-14	3.531382E-16
4.184000E+03	1.918738E-14	3.563452E-16
4.186000E+03	1.903513E-14	3.634142E-16
4.188000E+03	1.888656E-14	3.744984E-16
4.190000E+03	1.873621E-14	3.765386E-16
4.192000E+03	1.857859E-14	3.788353E-16
4.194000E+03	1.841008E-14	3.846163E-16
4.196000E+03	1.823978E-14	3.835744E-16
4.198000E+03	1.806588E-14	3.847047E-16
4.200000E+03	1.788547E-14	3.804284E-16
4.202000E+03	1.769908E-14	3.731863E-16
4.204000E+03	1.750873E-14	3.718891E-16
4.206000E+03	1.731552E-14	3.543023E-16
4.208000E+03	1.711069E-14	3.338550E-16
4.210000E+03	1.690082E-14	3.220534E-16
4.212000E+03	1.668681E-14	3.072964E-16
4.214000E+03	1.647450E-14	2.927850E-16
4.216000E+03	1.625806E-14	2.687462E-16
4.218000E+03	1.604149E-14	2.436273E-16
