#wls	flux	fluxerr
1.600000E+03	1.483710E-13	3.146404E-14
1.640000E+03	1.154583E-13	2.233134E-14
1.680000E+03	8.836390E-14	1.546029E-14
1.720000E+03	6.652481E-14	1.042882E-14
1.760000E+03	4.926848E-14	6.843413E-15
1.800000E+03	3.592818E-14	4.363569E-15
1.840000E+03	2.581754E-14	2.698742E-15
1.880000E+03	1.831325E-14	1.616721E-15
1.920000E+03	1.285141E-14	9.370051E-16
1.960000E+03	8.948261E-15	5.256633E-16
2.000000E+03	6.209057E-15	2.877254E-16
2.040000E+03	4.317829E-15	1.582966E-16
2.080000E+03	3.032785E-15	9.429565E-17
2.120000E+03	2.176474E-15	6.572782E-17
2.160000E+03	1.624292E-15	5.218378E-17
2.200000E+03	1.285510E-15	4.484671E-17
2.240000E+03	1.098829E-15	4.142811E-17
2.280000E+03	1.028965E-15	4.171276E-17
2.320000E+03	1.058949E-15	4.566087E-17
2.360000E+03	1.190164E-15	5.338863E-17
2.400000E+03	1.444362E-15	6.535477E-17
2.440000E+03	1.865497E-15	8.201763E-17
2.480000E+03	2.521965E-15	1.032681E-16
2.520000E+03	3.507037E-15	1.280889E-16
2.560000E+03	4.929545E-15	1.563522E-16
2.600000E+03	6.891136E-15	1.980203E-16
2.640000E+03	9.448266E-15	2.873790E-16
2.680000E+03	1.258542E-14	4.630658E-16
2.720000E+03	1.619988E-14	7.383638E-16
2.760000E+03	2.009554E-14	1.105201E-15
2.800000E+03	2.400517E-14	1.537912E-15
2.840000E+03	2.763179E-14	1.995915E-15
2.880000E+03	3.070299E-14	2.430550E-15
2.920000E+03	3.301986E-14	2.794914E-15
2.960000E+03	3.448502E-14	3.053109E-15
3.000000E+03	3.510771E-14	3.186119E-15
3.010000E+03	3.514146E-14	3.199299E-15
3.020000E+03	3.512974E-14	3.204577E-15
3.030000E+03	3.507621E-14	3.202265E-15
3.040000E+03	3.498154E-14	3.192436E-15
3.050000E+03	3.484962E-14	3.175492E-15
3.060000E+03	3.468290E-14	3.151724E-15
3.070000E+03	3.448459E-14	3.121524E-15
3.080000E+03	3.425578E-14	3.085111E-15
3.090000E+03	3.400117E-14	3.043051E-15
3.100000E+03	3.372188E-14	2.995600E-15
3.110000E+03	3.342181E-14	2.943278E-15
3.120000E+03	3.310339E-14	2.886482E-15
3.130000E+03	3.276837E-14	2.825556E-15
3.140000E+03	3.242036E-14	2.761009E-15
3.150000E+03	3.206097E-14	2.693179E-15
3.160000E+03	3.169295E-14	2.622501E-15
3.170000E+03	3.131834E-14	2.549347E-15
3.180000E+03	3.093910E-14	2.474075E-15
3.190000E+03	3.055764E-14	2.397076E-15
3.200000E+03	3.017566E-14	2.318673E-15
3.210000E+03	2.979428E-14	2.239140E-15
3.220000E+03	2.941608E-14	2.158849E-15
3.230000E+03	2.904197E-14	2.078039E-15
3.240000E+03	2.867379E-14	1.997005E-15
3.250000E+03	2.831278E-14	1.915988E-15
3.260000E+03	2.795964E-14	1.835186E-15
3.270000E+03	2.761637E-14	1.754871E-15
3.280000E+03	2.728312E-14	1.675186E-15
3.290000E+03	2.696170E-14	1.596372E-15
3.300000E+03	2.665299E-14	1.518602E-15
3.310000E+03	2.635703E-14	1.441998E-15
3.320000E+03	2.607542E-14	1.366769E-15
3.330000E+03	2.580893E-14	1.293067E-15
3.340000E+03	2.555789E-14	1.221032E-15
3.350000E+03	2.532300E-14	1.150822E-15
3.360000E+03	2.510496E-14	1.082602E-15
3.370000E+03	2.490439E-14	1.016548E-15
3.380000E+03	2.472192E-14	9.528451E-16
3.390000E+03	2.455812E-14	8.916997E-16
3.400000E+03	2.441318E-14	8.333285E-16
3.410000E+03	2.428730E-14	7.779793E-16
3.420000E+03	2.418151E-14	7.259617E-16
3.430000E+03	2.409521E-14	6.775684E-16
3.440000E+03	2.402889E-14	6.331610E-16
3.450000E+03	2.398219E-14	5.930954E-16
3.460000E+03	2.395438E-14	5.577027E-16
3.470000E+03	2.394321E-14	5.272181E-16
3.480000E+03	2.394563E-14	5.017432E-16
3.490000E+03	2.395692E-14	4.810353E-16
3.500000E+03	2.397045E-14	4.646473E-16
3.510000E+03	2.397944E-14	4.520641E-16
3.520000E+03	2.397554E-14	4.427002E-16
3.530000E+03	2.395101E-14	4.359566E-16
3.540000E+03	2.389721E-14	4.312419E-16
3.550000E+03	2.380656E-14	4.280018E-16
3.560000E+03	2.367293E-14	4.256953E-16
3.570000E+03	2.349123E-14	4.238411E-16
3.580000E+03	2.325971E-14	4.220611E-16
3.590000E+03	2.297937E-14	4.200270E-16
3.600000E+03	2.265369E-14	4.175063E-16
3.610000E+03	2.228914E-14	4.143786E-16
3.620000E+03	2.189413E-14	4.105791E-16
3.630000E+03	2.147911E-14	4.061343E-16
3.640000E+03	2.105555E-14	4.011387E-16
3.650000E+03	2.063620E-14	3.957225E-16
3.660000E+03	2.023405E-14	3.900609E-16
3.670000E+03	1.986161E-14	3.843655E-16
3.680000E+03	1.953110E-14	3.788589E-16
3.690000E+03	1.925404E-14	3.737745E-16
3.700000E+03	1.904066E-14	3.693211E-16
3.710000E+03	1.890065E-14	3.656588E-16
3.720000E+03	1.884211E-14	3.629060E-16
3.730000E+03	1.887300E-14	3.611730E-16
3.740000E+03	1.899969E-14	3.605145E-16
3.750000E+03	1.922839E-14	3.609788E-16
3.760000E+03	1.956555E-14	3.626206E-16
3.770000E+03	2.001610E-14	3.654533E-16
3.780000E+03	2.058580E-14	3.695145E-16
3.790000E+03	2.128015E-14	3.748453E-16
3.800000E+03	2.210301E-14	3.814463E-16
3.810000E+03	2.305810E-14	3.893398E-16
3.820000E+03	2.414756E-14	3.985471E-16
3.830000E+03	2.537012E-14	4.090304E-16
3.840000E+03	2.672145E-14	4.207554E-16
3.850000E+03	2.819386E-14	4.336971E-16
3.860000E+03	2.977279E-14	4.477423E-16
3.870000E+03	3.143852E-14	4.627830E-16
3.880000E+03	3.316539E-14	4.786890E-16
3.890000E+03	3.492285E-14	4.952234E-16
3.900000E+03	3.667559E-14	5.121119E-16
3.910000E+03	3.838583E-14	5.290412E-16
3.920000E+03	4.001849E-14	5.455829E-16
3.930000E+03	4.154134E-14	5.613006E-16
3.940000E+03	4.292634E-14	5.757921E-16
3.950000E+03	4.415482E-14	5.886452E-16
3.960000E+03	4.521673E-14	5.995535E-16
3.970000E+03	4.611006E-14	6.083091E-16
3.980000E+03	4.684363E-14	6.147078E-16
3.990000E+03	4.743389E-14	6.186748E-16
4.000000E+03	4.790130E-14	6.202851E-16
4.010000E+03	4.826785E-14	6.196392E-16
4.020000E+03	4.855684E-14	6.169711E-16
4.030000E+03	4.878841E-14	6.125468E-16
4.040000E+03	4.897596E-14	6.064661E-16
4.050000E+03	4.912776E-14	5.988637E-16
4.060000E+03	4.924793E-14	5.899987E-16
4.070000E+03	4.933546E-14	5.801513E-16
4.080000E+03	4.938555E-14	5.697332E-16
4.090000E+03	4.939208E-14	5.591760E-16
4.100000E+03	4.934688E-14	5.486716E-16
4.110000E+03	4.924171E-14	5.384065E-16
4.120000E+03	4.906925E-14	5.285766E-16
4.130000E+03	4.882448E-14	5.191961E-16
4.140000E+03	4.850450E-14	5.103189E-16
4.150000E+03	4.810707E-14	5.019928E-16
4.160000E+03	4.763128E-14	4.940256E-16
4.170000E+03	4.707629E-14	4.862293E-16
4.180000E+03	4.644274E-14	4.784487E-16
4.190000E+03	4.573133E-14	4.703312E-16
4.200000E+03	4.494485E-14	4.616216E-16
4.210000E+03	4.408713E-14	4.522146E-16
4.220000E+03	4.316548E-14	4.420105E-16
4.230000E+03	4.218835E-14	4.310870E-16
4.240000E+03	4.116786E-14	4.197220E-16
4.250000E+03	4.011785E-14	4.081735E-16
4.260000E+03	3.905506E-14	3.967937E-16
4.270000E+03	3.799629E-14	3.858607E-16
4.280000E+03	3.696043E-14	3.753536E-16
4.290000E+03	3.596721E-14	3.652076E-16
4.300000E+03	3.503297E-14	3.553837E-16
4.310000E+03	3.417284E-14	3.457852E-16
4.320000E+03	3.339843E-14	3.363887E-16
4.330000E+03	3.271995E-14	3.272793E-16
4.340000E+03	3.214320E-14	3.184978E-16
4.350000E+03	3.167206E-14	3.101742E-16
4.360000E+03	3.130919E-14	3.025329E-16
4.370000E+03	3.105667E-14	2.956913E-16
4.380000E+03	3.092302E-14	2.896156E-16
4.390000E+03	3.091539E-14	2.841959E-16
4.400000E+03	3.103834E-14	2.791523E-16
4.410000E+03	3.129403E-14	2.742311E-16
4.420000E+03	3.168312E-14	2.692908E-16
4.430000E+03	3.220308E-14	2.642345E-16
4.440000E+03	3.284941E-14	2.592564E-16
4.450000E+03	3.361479E-14	2.549653E-16
4.460000E+03	3.448857E-14	2.523658E-16
4.470000E+03	3.545633E-14	2.530465E-16
4.480000E+03	3.650023E-14	2.587391E-16
4.490000E+03	3.759460E-14	2.691417E-16
4.500000E+03	3.870837E-14	2.829545E-16
4.510000E+03	3.980787E-14	2.989742E-16
4.520000E+03	4.086015E-14	3.160763E-16
4.530000E+03	4.183117E-14	3.335038E-16
4.540000E+03	4.268957E-14	3.508471E-16
4.550000E+03	4.340977E-14	3.677022E-16
4.560000E+03	4.397035E-14	3.838398E-16
4.570000E+03	4.435637E-14	3.991189E-16
4.580000E+03	4.455952E-14	4.131216E-16
4.590000E+03	4.457808E-14	4.254998E-16
4.600000E+03	4.441359E-14	4.361471E-16
4.610000E+03	4.407244E-14	4.450651E-16
4.620000E+03	4.356355E-14	4.524486E-16
4.630000E+03	4.289888E-14	4.585404E-16
4.640000E+03	4.209504E-14	4.633413E-16
4.650000E+03	4.117127E-14	4.667585E-16
4.660000E+03	4.014857E-14	4.685664E-16
4.670000E+03	3.904983E-14	4.682354E-16
4.680000E+03	3.789971E-14	4.652735E-16
4.690000E+03	3.672096E-14	4.594352E-16
4.700000E+03	3.553391E-14	4.507081E-16
4.710000E+03	3.435748E-14	4.393640E-16
4.720000E+03	3.320823E-14	4.259170E-16
4.730000E+03	3.209934E-14	4.110146E-16
4.740000E+03	3.104260E-14	3.954137E-16
4.750000E+03	3.004653E-14	3.798155E-16
4.760000E+03	2.911733E-14	3.647363E-16
4.770000E+03	2.825860E-14	3.505651E-16
4.780000E+03	2.747116E-14	3.374886E-16
4.790000E+03	2.675320E-14	3.253840E-16
4.800000E+03	2.610087E-14	3.140535E-16
4.810000E+03	2.551041E-14	3.034212E-16
4.820000E+03	2.497753E-14	2.935289E-16
4.830000E+03	2.449848E-14	2.845591E-16
4.840000E+03	2.407043E-14	2.767149E-16
4.850000E+03	2.369218E-14	2.700811E-16
4.860000E+03	2.336281E-14	2.647163E-16
4.870000E+03	2.308172E-14	2.606529E-16
4.880000E+03	2.284784E-14	2.577861E-16
4.890000E+03	2.266028E-14	2.559831E-16
4.900000E+03	2.251615E-14	2.550377E-16
4.910000E+03	2.241050E-14	2.545615E-16
4.920000E+03	2.233705E-14	2.541492E-16
4.930000E+03	2.229013E-14	2.535123E-16
4.940000E+03	2.226456E-14	2.524567E-16
4.950000E+03	2.225645E-14	2.509297E-16
4.960000E+03	2.226453E-14	2.489751E-16
4.970000E+03	2.229097E-14	2.466376E-16
4.980000E+03	2.234072E-14	2.440469E-16
4.990000E+03	2.242020E-14	2.414334E-16
5.000000E+03	2.253818E-14	2.390729E-16
5.010000E+03	2.270411E-14	2.373011E-16
5.020000E+03	2.292629E-14	2.363781E-16
5.030000E+03	2.321093E-14	2.363053E-16
5.040000E+03	2.356255E-14	2.369890E-16
5.050000E+03	2.398332E-14	2.383082E-16
5.060000E+03	2.447225E-14	2.400388E-16
5.070000E+03	2.502550E-14	2.419994E-16
5.080000E+03	2.563638E-14	2.440910E-16
5.090000E+03	2.629561E-14	2.462163E-16
5.100000E+03	2.699085E-14	2.483954E-16
5.110000E+03	2.770700E-14	2.507299E-16
5.120000E+03	2.842623E-14	2.532313E-16
5.130000E+03	2.912842E-14	2.559769E-16
5.140000E+03	2.979254E-14	2.590688E-16
5.150000E+03	3.039756E-14	2.624000E-16
5.160000E+03	3.092373E-14	2.658822E-16
5.170000E+03	3.135238E-14	2.694528E-16
5.180000E+03	3.166965E-14	2.728781E-16
5.190000E+03	3.186450E-14	2.759994E-16
5.200000E+03	3.192970E-14	2.788146E-16
5.210000E+03	3.186249E-14	2.812760E-16
5.220000E+03	3.166429E-14	2.834261E-16
5.230000E+03	3.134111E-14	2.852786E-16
5.240000E+03	3.090684E-14	2.865459E-16
5.250000E+03	3.037891E-14	2.868715E-16
5.260000E+03	2.977836E-14	2.859616E-16
5.270000E+03	2.912943E-14	2.834727E-16
5.280000E+03	2.845759E-14	2.792109E-16
5.290000E+03	2.778689E-14	2.732269E-16
5.300000E+03	2.713918E-14	2.657287E-16
5.310000E+03	2.653338E-14	2.570519E-16
5.320000E+03	2.598310E-14	2.474690E-16
5.330000E+03	2.549615E-14	2.370010E-16
5.340000E+03	2.507489E-14	2.255847E-16
5.350000E+03	2.471850E-14	2.131824E-16
5.360000E+03	2.442185E-14	1.997501E-16
5.370000E+03	2.417612E-14	1.854238E-16
5.380000E+03	2.397161E-14	1.706685E-16
5.390000E+03	2.379543E-14	1.563616E-16
5.400000E+03	2.363390E-14	1.441466E-16
5.410000E+03	2.347227E-14	1.364782E-16
5.420000E+03	2.329642E-14	1.358434E-16
5.430000E+03	2.310423E-14	1.420792E-16
5.440000E+03	2.290584E-14	1.527391E-16
5.450000E+03	2.271391E-14	1.654786E-16
5.460000E+03	2.254188E-14	1.787584E-16
5.470000E+03	2.240050E-14	1.916700E-16
5.480000E+03	2.229692E-14	2.035224E-16
5.490000E+03	2.223638E-14	2.138319E-16
5.500000E+03	2.222172E-14	2.223290E-16
5.510000E+03	2.225366E-14	2.288805E-16
5.520000E+03	2.233157E-14	2.335009E-16
5.530000E+03	2.245278E-14	2.363259E-16
5.540000E+03	2.261283E-14	2.375699E-16
5.550000E+03	2.280458E-14	2.375444E-16
5.560000E+03	2.302024E-14	2.366254E-16
5.570000E+03	2.324894E-14	2.351334E-16
5.580000E+03	2.347830E-14	2.334204E-16
5.590000E+03	2.369607E-14	2.318183E-16
5.600000E+03	2.389082E-14	2.304860E-16
5.610000E+03	2.405176E-14	2.295282E-16
5.620000E+03	2.417063E-14	2.289801E-16
5.630000E+03	2.424116E-14	2.286490E-16
5.640000E+03	2.426040E-14	2.283219E-16
5.650000E+03	2.422647E-14	2.278157E-16
5.660000E+03	2.414110E-14	2.269072E-16
5.670000E+03	2.400739E-14	2.254811E-16
5.680000E+03	2.382963E-14	2.235684E-16
5.690000E+03	2.361428E-14	2.212441E-16
5.700000E+03	2.336858E-14	2.187018E-16
5.710000E+03	2.310103E-14	2.161783E-16
5.720000E+03	2.282100E-14	2.137779E-16
5.730000E+03	2.253811E-14	2.116226E-16
5.740000E+03	2.226248E-14	2.098793E-16
5.750000E+03	2.200333E-14	2.086268E-16
5.760000E+03	2.176892E-14	2.079804E-16
5.770000E+03	2.156641E-14	2.080677E-16
5.780000E+03	2.140065E-14	2.088757E-16
5.790000E+03	2.127460E-14	2.103988E-16
5.800000E+03	2.118919E-14	2.126721E-16
5.810000E+03	2.114335E-14	2.156648E-16
5.820000E+03	2.113448E-14	2.193877E-16
5.830000E+03	2.115878E-14	2.238945E-16
5.840000E+03	2.121106E-14	2.291577E-16
5.850000E+03	2.128589E-14	2.351175E-16
5.860000E+03	2.137727E-14	2.415794E-16
5.870000E+03	2.147918E-14	2.480503E-16
5.880000E+03	2.158512E-14	2.539180E-16
5.890000E+03	2.168825E-14	2.586324E-16
5.900000E+03	2.178212E-14	2.617482E-16
5.910000E+03	2.185970E-14	2.629731E-16
5.920000E+03	2.191485E-14	2.622045E-16
5.930000E+03	2.193983E-14	2.594771E-16
5.940000E+03	2.192786E-14	2.550129E-16
5.950000E+03	2.187207E-14	2.491559E-16
5.960000E+03	2.176493E-14	2.422825E-16
5.970000E+03	2.159938E-14	2.348577E-16
5.980000E+03	2.136923E-14	2.273665E-16
5.990000E+03	2.106858E-14	2.201732E-16
6.000000E+03	2.069337E-14	2.136183E-16
6.010000E+03	2.024110E-14	2.079549E-16
6.020000E+03	1.971322E-14	2.032202E-16
6.030000E+03	1.911311E-14	1.993375E-16
6.040000E+03	1.844884E-14	1.961376E-16
6.050000E+03	1.773198E-14	1.932492E-16
6.060000E+03	1.697779E-14	1.903022E-16
6.070000E+03	1.620276E-14	1.870040E-16
6.080000E+03	1.542549E-14	1.831182E-16
6.090000E+03	1.466384E-14	1.785269E-16
6.100000E+03	1.393463E-14	1.732542E-16
6.110000E+03	1.325201E-14	1.673928E-16
6.120000E+03	1.262861E-14	1.611192E-16
6.130000E+03	1.207369E-14	1.546451E-16
6.140000E+03	1.159477E-14	1.481906E-16
6.150000E+03	1.119757E-14	1.419814E-16
6.160000E+03	1.088633E-14	1.362361E-16
6.170000E+03	1.066334E-14	1.311361E-16
6.180000E+03	1.053065E-14	1.268631E-16
6.190000E+03	1.048891E-14	1.235700E-16
6.200000E+03	1.053650E-14	1.213422E-16
6.210000E+03	1.067061E-14	1.202529E-16
6.220000E+03	1.088736E-14	1.203475E-16
6.230000E+03	1.117997E-14	1.215667E-16
6.240000E+03	1.153911E-14	1.238024E-16
6.250000E+03	1.195429E-14	1.269099E-16
6.260000E+03	1.241356E-14	1.306393E-16
6.270000E+03	1.290319E-14	1.346944E-16
6.280000E+03	1.340870E-14	1.387767E-16
6.290000E+03	1.391558E-14	1.425591E-16
6.300000E+03	1.440926E-14	1.457482E-16
6.310000E+03	1.487601E-14	1.481119E-16
6.320000E+03	1.530409E-14	1.494492E-16
6.330000E+03	1.568421E-14	1.496642E-16
6.340000E+03	1.600890E-14	1.487748E-16
6.350000E+03	1.627502E-14	1.468883E-16
6.360000E+03	1.648225E-14	1.442726E-16
6.370000E+03	1.663330E-14	1.413770E-16
6.380000E+03	1.673382E-14	1.387641E-16
6.390000E+03	1.679198E-14	1.371517E-16
6.400000E+03	1.681736E-14	1.373125E-16
6.410000E+03	1.681800E-14	1.395722E-16
6.420000E+03	1.679518E-14	1.434336E-16
6.430000E+03	1.674988E-14	1.482739E-16
6.440000E+03	1.668394E-14	1.535018E-16
6.450000E+03	1.659960E-14	1.586774E-16
6.460000E+03	1.649938E-14	1.635183E-16
6.470000E+03	1.638593E-14	1.678140E-16
6.480000E+03	1.626158E-14	1.714619E-16
6.490000E+03	1.612817E-14	1.744512E-16
6.500000E+03	1.598802E-14	1.768017E-16
6.510000E+03	1.584268E-14	1.785803E-16
6.520000E+03	1.569320E-14	1.798734E-16
6.530000E+03	1.554075E-14	1.807237E-16
6.540000E+03	1.538604E-14	1.811788E-16
6.550000E+03	1.522941E-14	1.812993E-16
6.560000E+03	1.507129E-14	1.811183E-16
6.570000E+03	1.491253E-14	1.806927E-16
6.580000E+03	1.475272E-14	1.800833E-16
6.590000E+03	1.459263E-14	1.793341E-16
6.600000E+03	1.443252E-14	1.784982E-16
6.610000E+03	1.427215E-14	1.776307E-16
6.620000E+03	1.411218E-14	1.767576E-16
6.630000E+03	1.395232E-14	1.758996E-16
6.640000E+03	1.379321E-14	1.750958E-16
6.650000E+03	1.363463E-14	1.743363E-16
6.660000E+03	1.347705E-14	1.736265E-16
6.670000E+03	1.332073E-14	1.729756E-16
6.680000E+03	1.316573E-14	1.723535E-16
6.690000E+03	1.301235E-14	1.717432E-16
6.700000E+03	1.286110E-14	1.711466E-16
6.710000E+03	1.271202E-14	1.705418E-16
6.720000E+03	1.256532E-14	1.699274E-16
6.730000E+03	1.242120E-14	1.693188E-16
6.740000E+03	1.227979E-14	1.687124E-16
6.750000E+03	1.214120E-14	1.681194E-16
6.760000E+03	1.200549E-14	1.675661E-16
6.770000E+03	1.187254E-14	1.670580E-16
6.780000E+03	1.174261E-14	1.666182E-16
6.790000E+03	1.161572E-14	1.662744E-16
6.800000E+03	1.149162E-14	1.660256E-16
6.810000E+03	1.137047E-14	1.658798E-16
6.820000E+03	1.125194E-14	1.658388E-16
6.830000E+03	1.113589E-14	1.658760E-16
6.840000E+03	1.102212E-14	1.659637E-16
6.850000E+03	1.091045E-14	1.660762E-16
6.860000E+03	1.080087E-14	1.661672E-16
6.870000E+03	1.069282E-14	1.661880E-16
6.880000E+03	1.058634E-14	1.661141E-16
6.890000E+03	1.048138E-14	1.659155E-16
6.900000E+03	1.037770E-14	1.655764E-16
6.910000E+03	1.027554E-14	1.651045E-16
6.920000E+03	1.017498E-14	1.645026E-16
6.930000E+03	1.007595E-14	1.637834E-16
6.940000E+03	9.978593E-15	1.629722E-16
6.950000E+03	9.883268E-15	1.620846E-16
6.960000E+03	9.789959E-15	1.611353E-16
6.970000E+03	9.698832E-15	1.601451E-16
6.980000E+03	9.610030E-15	1.591178E-16
6.990000E+03	9.523679E-15	1.580609E-16
7.000000E+03	9.439706E-15	1.569846E-16
7.010000E+03	9.358562E-15	1.558984E-16
7.020000E+03	9.279951E-15	1.548074E-16
7.030000E+03	9.204110E-15	1.537351E-16
7.040000E+03	9.130898E-15	1.526917E-16
7.050000E+03	9.060339E-15	1.516987E-16
7.060000E+03	8.992606E-15	1.507855E-16
7.070000E+03	8.927470E-15	1.499618E-16
7.080000E+03	8.864667E-15	1.492403E-16
7.090000E+03	8.804415E-15	1.486445E-16
7.100000E+03	8.746320E-15	1.481721E-16
7.110000E+03	8.689934E-15	1.478216E-16
7.120000E+03	8.635108E-15	1.475979E-16
7.130000E+03	8.581263E-15	1.474825E-16
7.140000E+03	8.528122E-15	1.474630E-16
7.150000E+03	8.475033E-15	1.475211E-16
7.160000E+03	8.421659E-15	1.476288E-16
7.170000E+03	8.367128E-15	1.477500E-16
7.180000E+03	8.311100E-15	1.478614E-16
7.190000E+03	8.253247E-15	1.479288E-16
7.200000E+03	8.192746E-15	1.479137E-16
7.210000E+03	8.129146E-15	1.477891E-16
7.220000E+03	8.062208E-15	1.475236E-16
7.230000E+03	7.991554E-15	1.470907E-16
7.240000E+03	7.916684E-15	1.464714E-16
7.250000E+03	7.837498E-15	1.456541E-16
7.260000E+03	7.753610E-15	1.446324E-16
7.270000E+03	7.664873E-15	1.434129E-16
7.280000E+03	7.571388E-15	1.420030E-16
7.290000E+03	7.473001E-15	1.404126E-16
7.300000E+03	7.369964E-15	1.386655E-16
7.310000E+03	7.262315E-15	1.367767E-16
7.320000E+03	7.150337E-15	1.347709E-16
7.330000E+03	7.034711E-15	1.326840E-16
7.340000E+03	6.915610E-15	1.305345E-16
7.350000E+03	6.793900E-15	1.283557E-16
7.360000E+03	6.670048E-15	1.261734E-16
7.370000E+03	6.544910E-15	1.240091E-16
7.380000E+03	6.419367E-15	1.218843E-16
7.390000E+03	6.294019E-15	1.198153E-16
7.400000E+03	6.169917E-15	1.178173E-16
7.410000E+03	6.047805E-15	1.159007E-16
7.420000E+03	5.928534E-15	1.140804E-16
7.430000E+03	5.812792E-15	1.123615E-16
7.440000E+03	5.701229E-15	1.107520E-16
7.450000E+03	5.594585E-15	1.092659E-16
7.460000E+03	5.493173E-15	1.079056E-16
7.470000E+03	5.397531E-15	1.066827E-16
7.480000E+03	5.308011E-15	1.056094E-16
7.490000E+03	5.225144E-15	1.046989E-16
7.500000E+03	5.149152E-15	1.039611E-16
7.510000E+03	5.080166E-15	1.034060E-16
7.520000E+03	5.018320E-15	1.030367E-16
7.530000E+03	4.963657E-15	1.028536E-16
7.540000E+03	4.916000E-15	1.028492E-16
7.550000E+03	4.875269E-15	1.030060E-16
7.560000E+03	4.840951E-15	1.032926E-16
7.570000E+03	4.812956E-15	1.036814E-16
7.580000E+03	4.790791E-15	1.041246E-16
7.590000E+03	4.774055E-15	1.045745E-16
7.600000E+03	4.762229E-15	1.049885E-16
7.610000E+03	4.755024E-15	1.053361E-16
7.620000E+03	4.752038E-15	1.055953E-16
7.630000E+03	4.752872E-15	1.057565E-16
7.640000E+03	4.757008E-15	1.058176E-16
7.650000E+03	4.764168E-15	1.057933E-16
7.660000E+03	4.773838E-15	1.057011E-16
7.670000E+03	4.785875E-15	1.055699E-16
7.680000E+03	4.799546E-15	1.054202E-16
7.690000E+03	4.814854E-15	1.052903E-16
7.700000E+03	4.831352E-15	1.052013E-16
7.710000E+03	4.848609E-15	1.051728E-16
7.720000E+03	4.866438E-15	1.052254E-16
7.730000E+03	4.884536E-15	1.053643E-16
7.740000E+03	4.902597E-15	1.055885E-16
7.750000E+03	4.920295E-15	1.058889E-16
7.760000E+03	4.937409E-15	1.062433E-16
