#wls	flux	fluxerr
1.600000E+03	1.960313E-13	4.116308E-14
1.640000E+03	1.530177E-13	2.926765E-14
1.680000E+03	1.172778E-13	2.026207E-14
1.720000E+03	8.826066E-14	1.364054E-14
1.760000E+03	6.520727E-14	8.912569E-15
1.800000E+03	4.730610E-14	5.641539E-15
1.840000E+03	3.372563E-14	3.452996E-15
1.880000E+03	2.365509E-14	2.039326E-15
1.920000E+03	1.635607E-14	1.160257E-15
1.960000E+03	1.118237E-14	6.360717E-16
2.000000E+03	7.591463E-15	3.384769E-16
2.040000E+03	5.149566E-15	1.802935E-16
2.080000E+03	3.519539E-15	1.040351E-16
2.120000E+03	2.454537E-15	7.062525E-17
2.160000E+03	1.781879E-15	5.470692E-17
2.200000E+03	1.376710E-15	4.590603E-17
2.240000E+03	1.155499E-15	4.161743E-17
2.280000E+03	1.070443E-15	4.149939E-17
2.320000E+03	1.098652E-15	4.544517E-17
2.360000E+03	1.240978E-15	5.362026E-17
2.400000E+03	1.523864E-15	6.666967E-17
2.440000E+03	2.002042E-15	8.533413E-17
2.480000E+03	2.763460E-15	1.097667E-16
2.520000E+03	3.930621E-15	1.388569E-16
2.560000E+03	5.651197E-15	1.719832E-16
2.600000E+03	8.062250E-15	2.201383E-16
2.640000E+03	1.123007E-14	3.255218E-16
2.680000E+03	1.512027E-14	5.366422E-16
2.720000E+03	1.958726E-14	8.687137E-16
2.760000E+03	2.435932E-14	1.309434E-15
2.800000E+03	2.907395E-14	1.824076E-15
2.840000E+03	3.334752E-14	2.360138E-15
2.880000E+03	3.684904E-14	2.857352E-15
2.920000E+03	3.936395E-14	3.261018E-15
2.960000E+03	4.082050E-14	3.533021E-15
3.000000E+03	4.128095E-14	3.657218E-15
3.010000E+03	4.125751E-14	3.665324E-15
3.020000E+03	4.118485E-14	3.664674E-15
3.030000E+03	4.106616E-14	3.655561E-15
3.040000E+03	4.090565E-14	3.638401E-15
3.050000E+03	4.070576E-14	3.613491E-15
3.060000E+03	4.046993E-14	3.581239E-15
3.070000E+03	4.020326E-14	3.542229E-15
3.080000E+03	3.990741E-14	3.496757E-15
3.090000E+03	3.958734E-14	3.445428E-15
3.100000E+03	3.924542E-14	3.388631E-15
3.110000E+03	3.888475E-14	3.326829E-15
3.120000E+03	3.850983E-14	3.260610E-15
3.130000E+03	3.812193E-14	3.190285E-15
3.140000E+03	3.772447E-14	3.116353E-15
3.150000E+03	3.731994E-14	3.039227E-15
3.160000E+03	3.691134E-14	2.959362E-15
3.170000E+03	3.650011E-14	2.877074E-15
3.180000E+03	3.608887E-14	2.792772E-15
3.190000E+03	3.567940E-14	2.706783E-15
3.200000E+03	3.527263E-14	2.619370E-15
3.210000E+03	3.487065E-14	2.530867E-15
3.220000E+03	3.447529E-14	2.441583E-15
3.230000E+03	3.408642E-14	2.351676E-15
3.240000E+03	3.370614E-14	2.261455E-15
3.250000E+03	3.333408E-14	2.171052E-15
3.260000E+03	3.297251E-14	2.080772E-15
3.270000E+03	3.262023E-14	1.990691E-15
3.280000E+03	3.227813E-14	1.901019E-15
3.290000E+03	3.194693E-14	1.811955E-15
3.300000E+03	3.162616E-14	1.723633E-15
3.310000E+03	3.131624E-14	1.636246E-15
3.320000E+03	3.101604E-14	1.549915E-15
3.330000E+03	3.072575E-14	1.464854E-15
3.340000E+03	3.044499E-14	1.381265E-15
3.350000E+03	3.017325E-14	1.299374E-15
3.360000E+03	2.990993E-14	1.219440E-15
3.370000E+03	2.965391E-14	1.141744E-15
3.380000E+03	2.940441E-14	1.066641E-15
3.390000E+03	2.916059E-14	9.945445E-16
3.400000E+03	2.892151E-14	9.259435E-16
3.410000E+03	2.868576E-14	8.613965E-16
3.420000E+03	2.845229E-14	8.015646E-16
3.430000E+03	2.821999E-14	7.471903E-16
3.440000E+03	2.798733E-14	6.990630E-16
3.450000E+03	2.775315E-14	6.579817E-16
3.460000E+03	2.751622E-14	6.246441E-16
3.470000E+03	2.727459E-14	5.994938E-16
3.480000E+03	2.702710E-14	5.825260E-16
3.490000E+03	2.677118E-14	5.728600E-16
3.500000E+03	2.650419E-14	5.691529E-16
3.510000E+03	2.622413E-14	5.699171E-16
3.520000E+03	2.592888E-14	5.736771E-16
3.530000E+03	2.561761E-14	5.791244E-16
3.540000E+03	2.528996E-14	5.851648E-16
3.550000E+03	2.494643E-14	5.909473E-16
3.560000E+03	2.458844E-14	5.958560E-16
3.570000E+03	2.421837E-14	5.994870E-16
3.580000E+03	2.383928E-14	6.016118E-16
3.590000E+03	2.345563E-14	6.021672E-16
3.600000E+03	2.307218E-14	6.011998E-16
3.610000E+03	2.269489E-14	5.988654E-16
3.620000E+03	2.232955E-14	5.953727E-16
3.630000E+03	2.198332E-14	5.910067E-16
3.640000E+03	2.166248E-14	5.860536E-16
3.650000E+03	2.137437E-14	5.808408E-16
3.660000E+03	2.112589E-14	5.756877E-16
3.670000E+03	2.092432E-14	5.709184E-16
3.680000E+03	2.077613E-14	5.668263E-16
3.690000E+03	2.068825E-14	5.637027E-16
3.700000E+03	2.066698E-14	5.618059E-16
3.710000E+03	2.071879E-14	5.613825E-16
3.720000E+03	2.084956E-14	5.626454E-16
3.730000E+03	2.106555E-14	5.658019E-16
3.740000E+03	2.137203E-14	5.710175E-16
3.750000E+03	2.177481E-14	5.784601E-16
3.760000E+03	2.227907E-14	5.882681E-16
3.770000E+03	2.288980E-14	6.005668E-16
3.780000E+03	2.361127E-14	6.154554E-16
3.790000E+03	2.444750E-14	6.330213E-16
3.800000E+03	2.540093E-14	6.533069E-16
3.810000E+03	2.647337E-14	6.763387E-16
3.820000E+03	2.766489E-14	7.020970E-16
3.830000E+03	2.897360E-14	7.305144E-16
3.840000E+03	3.039531E-14	7.614676E-16
3.850000E+03	3.192294E-14	7.947637E-16
3.860000E+03	3.354737E-14	8.301621E-16
3.870000E+03	3.525597E-14	8.673380E-16
3.880000E+03	3.703285E-14	9.058885E-16
3.890000E+03	3.886000E-14	9.453603E-16
3.900000E+03	4.071682E-14	9.852376E-16
3.910000E+03	4.258141E-14	1.024972E-15
3.920000E+03	4.443029E-14	1.063978E-15
3.930000E+03	4.624109E-14	1.101695E-15
3.940000E+03	4.799125E-14	1.137559E-15
3.950000E+03	4.966120E-14	1.171080E-15
3.960000E+03	5.123268E-14	1.201805E-15
3.970000E+03	5.269084E-14	1.229371E-15
3.980000E+03	5.402500E-14	1.253521E-15
3.990000E+03	5.522651E-14	1.274063E-15
4.000000E+03	5.629067E-14	1.290912E-15
4.010000E+03	5.721503E-14	1.304052E-15
4.020000E+03	5.799972E-14	1.313544E-15
4.030000E+03	5.864597E-14	1.319489E-15
4.040000E+03	5.915598E-14	1.322024E-15
4.050000E+03	5.953289E-14	1.321319E-15
4.060000E+03	5.978003E-14	1.317551E-15
4.070000E+03	5.989908E-14	1.310865E-15
4.080000E+03	5.989405E-14	1.301451E-15
4.090000E+03	5.976637E-14	1.289434E-15
4.100000E+03	5.951946E-14	1.274967E-15
4.110000E+03	5.915560E-14	1.258161E-15
4.120000E+03	5.867857E-14	1.239139E-15
4.130000E+03	5.809252E-14	1.218008E-15
4.140000E+03	5.740269E-14	1.194876E-15
4.150000E+03	5.661559E-14	1.169857E-15
4.160000E+03	5.573913E-14	1.143076E-15
4.170000E+03	5.478312E-14	1.114678E-15
4.180000E+03	5.375829E-14	1.084820E-15
4.190000E+03	5.267622E-14	1.053665E-15
4.200000E+03	5.155004E-14	1.021404E-15
4.210000E+03	5.039371E-14	9.882429E-16
4.220000E+03	4.922210E-14	9.544062E-16
4.230000E+03	4.804940E-14	9.201078E-16
4.240000E+03	4.689003E-14	8.855690E-16
4.250000E+03	4.575741E-14	8.509976E-16
4.260000E+03	4.466480E-14	8.166046E-16
4.270000E+03	4.362340E-14	7.825729E-16
4.280000E+03	4.264319E-14	7.490789E-16
4.290000E+03	4.173238E-14	7.162883E-16
4.300000E+03	4.089649E-14	6.843510E-16
4.310000E+03	4.014032E-14	6.534441E-16
4.320000E+03	3.946520E-14	6.237332E-16
4.330000E+03	3.887102E-14	5.954102E-16
4.340000E+03	3.835541E-14	5.686696E-16
4.350000E+03	3.791536E-14	5.437013E-16
4.360000E+03	3.754516E-14	5.206005E-16
4.370000E+03	3.724308E-14	4.991841E-16
4.380000E+03	3.701510E-14	4.786089E-16
4.390000E+03	3.686840E-14	4.578943E-16
4.400000E+03	3.680918E-14	4.361608E-16
4.410000E+03	3.684184E-14	4.127565E-16
4.420000E+03	3.696992E-14	3.874119E-16
4.430000E+03	3.719423E-14	3.604239E-16
4.440000E+03	3.751557E-14	3.330084E-16
4.450000E+03	3.793254E-14	3.077742E-16
4.460000E+03	3.844276E-14	2.892693E-16
4.470000E+03	3.904305E-14	2.838514E-16
4.480000E+03	3.972556E-14	2.971585E-16
4.490000E+03	4.047386E-14	3.280910E-16
4.500000E+03	4.126298E-14	3.713882E-16
4.510000E+03	4.206774E-14	4.219123E-16
4.520000E+03	4.286078E-14	4.757236E-16
4.530000E+03	4.361507E-14	5.300270E-16
4.540000E+03	4.430447E-14	5.828398E-16
4.550000E+03	4.490389E-14	6.327141E-16
4.560000E+03	4.539258E-14	6.786069E-16
4.570000E+03	4.575181E-14	7.197448E-16
4.580000E+03	4.596782E-14	7.556053E-16
4.590000E+03	4.603155E-14	7.858749E-16
4.600000E+03	4.593883E-14	8.104246E-16
4.610000E+03	4.568986E-14	8.292798E-16
4.620000E+03	4.528947E-14	8.426044E-16
4.630000E+03	4.474695E-14	8.506845E-16
4.640000E+03	4.407511E-14	8.538973E-16
4.650000E+03	4.328945E-14	8.526872E-16
4.660000E+03	4.240660E-14	8.475280E-16
4.670000E+03	4.144551E-14	8.389435E-16
4.680000E+03	4.042471E-14	8.274517E-16
4.690000E+03	3.936240E-14	8.135665E-16
4.700000E+03	3.827627E-14	7.977937E-16
4.710000E+03	3.718227E-14	7.806063E-16
4.720000E+03	3.609472E-14	7.624438E-16
4.730000E+03	3.502608E-14	7.437058E-16
4.740000E+03	3.398688E-14	7.247474E-16
4.750000E+03	3.298575E-14	7.058763E-16
4.760000E+03	3.202949E-14	6.873524E-16
4.770000E+03	3.112327E-14	6.693892E-16
4.780000E+03	3.027050E-14	6.521508E-16
4.790000E+03	2.947393E-14	6.357760E-16
4.800000E+03	2.873445E-14	6.203520E-16
4.810000E+03	2.805326E-14	6.059633E-16
4.820000E+03	2.742983E-14	5.926480E-16
4.830000E+03	2.686401E-14	5.804441E-16
4.840000E+03	2.635508E-14	5.693687E-16
4.850000E+03	2.590160E-14	5.594162E-16
4.860000E+03	2.550305E-14	5.505924E-16
4.870000E+03	2.515807E-14	5.428784E-16
4.880000E+03	2.486583E-14	5.362590E-16
4.890000E+03	2.462451E-14	5.306926E-16
4.900000E+03	2.443385E-14	5.261665E-16
4.910000E+03	2.429246E-14	5.226408E-16
4.920000E+03	2.419979E-14	5.200929E-16
4.930000E+03	2.415502E-14	5.184940E-16
4.940000E+03	2.415796E-14	5.178310E-16
4.950000E+03	2.420792E-14	5.180822E-16
4.960000E+03	2.430513E-14	5.192479E-16
4.970000E+03	2.444995E-14	5.213338E-16
4.980000E+03	2.464212E-14	5.243335E-16
4.990000E+03	2.488180E-14	5.282505E-16
5.000000E+03	2.516924E-14	5.330892E-16
5.010000E+03	2.550407E-14	5.388400E-16
5.020000E+03	2.588487E-14	5.454684E-16
5.030000E+03	2.631018E-14	5.529373E-16
5.040000E+03	2.677731E-14	5.611814E-16
5.050000E+03	2.728237E-14	5.701096E-16
5.060000E+03	2.781986E-14	5.795964E-16
5.070000E+03	2.838303E-14	5.894922E-16
5.080000E+03	2.896390E-14	5.996238E-16
5.090000E+03	2.955213E-14	6.097722E-16
5.100000E+03	3.013689E-14	6.197113E-16
5.110000E+03	3.070560E-14	6.291822E-16
5.120000E+03	3.124526E-14	6.379177E-16
5.130000E+03	3.174255E-14	6.456442E-16
5.140000E+03	3.218440E-14	6.520905E-16
5.150000E+03	3.255829E-14	6.569911E-16
5.160000E+03	3.285382E-14	6.601159E-16
5.170000E+03	3.306167E-14	6.612470E-16
5.180000E+03	3.317610E-14	6.602266E-16
5.190000E+03	3.319363E-14	6.569297E-16
5.200000E+03	3.311432E-14	6.512876E-16
5.210000E+03	3.294142E-14	6.432807E-16
5.220000E+03	3.268124E-14	6.329350E-16
5.230000E+03	3.234212E-14	6.203033E-16
5.240000E+03	3.193597E-14	6.054935E-16
5.250000E+03	3.147463E-14	5.886019E-16
5.260000E+03	3.097252E-14	5.697621E-16
5.270000E+03	3.044301E-14	5.490800E-16
5.280000E+03	2.989999E-14	5.266630E-16
5.290000E+03	2.935575E-14	5.025832E-16
5.300000E+03	2.882110E-14	4.768834E-16
5.310000E+03	2.830566E-14	4.495840E-16
5.320000E+03	2.781616E-14	4.206631E-16
5.330000E+03	2.735805E-14	3.900953E-16
5.340000E+03	2.693418E-14	3.578502E-16
5.350000E+03	2.654546E-14	3.239389E-16
5.360000E+03	2.619136E-14	2.884803E-16
5.370000E+03	2.586989E-14	2.518086E-16
5.380000E+03	2.557793E-14	2.146897E-16
5.390000E+03	2.531108E-14	1.787612E-16
5.400000E+03	2.506534E-14	1.474471E-16
5.410000E+03	2.483624E-14	1.272005E-16
5.420000E+03	2.462041E-14	1.259545E-16
5.430000E+03	2.441544E-14	1.430543E-16
5.440000E+03	2.422258E-14	1.701127E-16
5.450000E+03	2.404617E-14	2.005744E-16
5.460000E+03	2.389274E-14	2.310764E-16
5.470000E+03	2.376661E-14	2.601039E-16
5.480000E+03	2.367020E-14	2.870332E-16
5.490000E+03	2.360541E-14	3.116821E-16
5.500000E+03	2.357362E-14	3.340939E-16
5.510000E+03	2.357578E-14	3.544300E-16
5.520000E+03	2.361025E-14	3.728776E-16
5.530000E+03	2.367542E-14	3.896519E-16
5.540000E+03	2.376716E-14	4.049354E-16
5.550000E+03	2.388094E-14	4.188966E-16
5.560000E+03	2.401123E-14	4.316724E-16
5.570000E+03	2.415182E-14	4.433662E-16
5.580000E+03	2.429561E-14	4.540396E-16
5.590000E+03	2.443587E-14	4.637325E-16
5.600000E+03	2.456613E-14	4.724596E-16
5.610000E+03	2.468019E-14	4.802118E-16
5.620000E+03	2.477269E-14	4.869682E-16
5.630000E+03	2.483985E-14	4.927146E-16
5.640000E+03	2.487834E-14	4.974274E-16
5.650000E+03	2.488671E-14	5.011065E-16
5.660000E+03	2.486462E-14	5.037668E-16
5.670000E+03	2.481332E-14	5.054536E-16
5.680000E+03	2.473504E-14	5.062341E-16
5.690000E+03	2.463307E-14	5.062025E-16
5.700000E+03	2.451182E-14	5.054821E-16
5.710000E+03	2.437636E-14	5.042158E-16
5.720000E+03	2.423164E-14	5.025483E-16
5.730000E+03	2.408326E-14	5.006408E-16
5.740000E+03	2.393651E-14	4.986472E-16
5.750000E+03	2.379638E-14	4.967128E-16
5.760000E+03	2.366784E-14	4.949783E-16
5.770000E+03	2.355424E-14	4.935436E-16
5.780000E+03	2.345910E-14	4.925049E-16
5.790000E+03	2.338430E-14	4.919153E-16
5.800000E+03	2.333122E-14	4.918087E-16
5.810000E+03	2.329998E-14	4.921820E-16
5.820000E+03	2.328960E-14	4.930001E-16
5.830000E+03	2.329830E-14	4.942011E-16
5.840000E+03	2.332273E-14	4.956811E-16
5.850000E+03	2.335903E-14	4.973178E-16
5.860000E+03	2.340210E-14	4.989581E-16
5.870000E+03	2.344570E-14	5.004227E-16
5.880000E+03	2.348355E-14	5.015348E-16
5.890000E+03	2.350770E-14	5.020890E-16
5.900000E+03	2.351071E-14	5.019041E-16
5.910000E+03	2.348412E-14	5.007930E-16
5.920000E+03	2.341968E-14	4.985929E-16
5.930000E+03	2.330969E-14	4.951729E-16
5.940000E+03	2.314629E-14	4.904178E-16
5.950000E+03	2.292340E-14	4.842653E-16
5.960000E+03	2.263632E-14	4.766924E-16
5.970000E+03	2.228131E-14	4.676994E-16
5.980000E+03	2.185750E-14	4.573424E-16
5.990000E+03	2.136607E-14	4.457093E-16
6.000000E+03	2.081043E-14	4.329177E-16
6.010000E+03	2.019669E-14	4.191209E-16
6.020000E+03	1.953329E-14	4.044987E-16
6.030000E+03	1.883045E-14	3.892476E-16
6.040000E+03	1.810019E-14	3.735849E-16
6.050000E+03	1.735579E-14	3.577418E-16
6.060000E+03	1.661012E-14	3.419361E-16
6.070000E+03	1.587695E-14	3.264033E-16
6.080000E+03	1.516840E-14	3.113496E-16
6.090000E+03	1.449639E-14	2.969847E-16
6.100000E+03	1.387051E-14	2.834791E-16
6.110000E+03	1.329942E-14	2.709932E-16
6.120000E+03	1.278962E-14	2.596498E-16
6.130000E+03	1.234641E-14	2.495532E-16
6.140000E+03	1.197315E-14	2.407697E-16
6.150000E+03	1.167200E-14	2.333414E-16
6.160000E+03	1.144422E-14	2.272897E-16
6.170000E+03	1.128964E-14	2.226018E-16
6.180000E+03	1.120761E-14	2.192481E-16
6.190000E+03	1.119648E-14	2.171701E-16
6.200000E+03	1.125376E-14	2.162817E-16
6.210000E+03	1.137609E-14	2.164662E-16
6.220000E+03	1.155944E-14	2.175790E-16
6.230000E+03	1.179843E-14	2.194324E-16
6.240000E+03	1.208668E-14	2.218020E-16
6.250000E+03	1.241664E-14	2.244234E-16
6.260000E+03	1.277994E-14	2.270003E-16
6.270000E+03	1.316660E-14	2.291943E-16
6.280000E+03	1.356614E-14	2.306544E-16
6.290000E+03	1.396792E-14	2.310317E-16
6.300000E+03	1.436123E-14	2.299978E-16
6.310000E+03	1.473575E-14	2.272732E-16
6.320000E+03	1.508237E-14	2.226659E-16
6.330000E+03	1.539409E-14	2.161175E-16
6.340000E+03	1.566541E-14	2.077355E-16
6.350000E+03	1.589372E-14	1.978652E-16
6.360000E+03	1.607877E-14	1.871479E-16
6.370000E+03	1.622282E-14	1.765961E-16
6.380000E+03	1.633039E-14	1.676335E-16
6.390000E+03	1.640776E-14	1.620093E-16
6.400000E+03	1.646231E-14	1.614534E-16
6.410000E+03	1.649941E-14	1.667044E-16
6.420000E+03	1.651971E-14	1.766997E-16
6.430000E+03	1.652275E-14	1.898325E-16
6.440000E+03	1.650848E-14	2.046069E-16
6.450000E+03	1.647713E-14	2.198607E-16
6.460000E+03	1.642879E-14	2.347749E-16
6.470000E+03	1.636463E-14	2.488262E-16
6.480000E+03	1.628555E-14	2.616960E-16
6.490000E+03	1.619292E-14	2.732206E-16
6.500000E+03	1.608768E-14	2.833322E-16
6.510000E+03	1.597160E-14	2.920475E-16
6.520000E+03	1.584567E-14	2.994171E-16
6.530000E+03	1.571136E-14	3.055307E-16
6.540000E+03	1.556956E-14	3.104852E-16
6.550000E+03	1.542159E-14	3.143953E-16
6.560000E+03	1.526865E-14	3.173772E-16
6.570000E+03	1.511115E-14	3.195293E-16
6.580000E+03	1.495012E-14	3.209588E-16
6.590000E+03	1.478651E-14	3.217658E-16
6.600000E+03	1.462049E-14	3.220263E-16
6.610000E+03	1.445311E-14	3.218285E-16
6.620000E+03	1.428442E-14	3.212307E-16
6.630000E+03	1.411537E-14	3.203045E-16
6.640000E+03	1.394594E-14	3.190925E-16
6.650000E+03	1.377678E-14	3.176465E-16
6.660000E+03	1.360826E-14	3.160066E-16
6.670000E+03	1.344052E-14	3.142023E-16
6.680000E+03	1.327412E-14	3.122693E-16
6.690000E+03	1.310917E-14	3.102283E-16
6.700000E+03	1.294596E-14	3.081024E-16
6.710000E+03	1.278499E-14	3.059168E-16
6.720000E+03	1.262629E-14	3.036842E-16
6.730000E+03	1.246990E-14	3.014151E-16
6.740000E+03	1.231646E-14	2.991343E-16
6.750000E+03	1.216572E-14	2.968439E-16
6.760000E+03	1.201807E-14	2.945604E-16
6.770000E+03	1.187366E-14	2.922935E-16
6.780000E+03	1.173238E-14	2.900464E-16
6.790000E+03	1.159434E-14	2.878260E-16
6.800000E+03	1.145961E-14	2.856374E-16
6.810000E+03	1.132845E-14	2.834895E-16
6.820000E+03	1.120066E-14	2.813792E-16
6.830000E+03	1.107607E-14	2.793023E-16
6.840000E+03	1.095486E-14	2.772635E-16
6.850000E+03	1.083703E-14	2.752614E-16
6.860000E+03	1.072253E-14	2.732942E-16
6.870000E+03	1.061116E-14	2.713546E-16
6.880000E+03	1.050286E-14	2.694406E-16
6.890000E+03	1.039782E-14	2.675556E-16
6.900000E+03	1.029579E-14	2.656933E-16
6.910000E+03	1.019675E-14	2.638532E-16
6.920000E+03	1.010068E-14	2.620356E-16
6.930000E+03	1.000756E-14	2.602413E-16
6.940000E+03	9.917360E-15	2.584718E-16
6.950000E+03	9.830072E-15	2.567290E-16
6.960000E+03	9.745483E-15	2.550102E-16
6.970000E+03	9.663572E-15	2.533177E-16
6.980000E+03	9.584496E-15	2.516589E-16
6.990000E+03	9.508215E-15	2.500360E-16
7.000000E+03	9.434308E-15	2.484413E-16
7.010000E+03	9.363083E-15	2.468865E-16
7.020000E+03	9.294274E-15	2.453682E-16
7.030000E+03	9.227784E-15	2.438876E-16
7.040000E+03	9.163312E-15	2.424404E-16
7.050000E+03	9.100899E-15	2.410314E-16
7.060000E+03	9.040376E-15	2.396597E-16
7.070000E+03	8.981551E-15	2.383235E-16
7.080000E+03	8.924023E-15	2.370151E-16
7.090000E+03	8.867548E-15	2.357305E-16
7.100000E+03	8.812028E-15	2.344690E-16
7.110000E+03	8.756986E-15	2.332191E-16
7.120000E+03	8.701924E-15	2.319680E-16
7.130000E+03	8.646852E-15	2.307156E-16
7.140000E+03	8.591235E-15	2.294466E-16
7.150000E+03	8.534702E-15	2.281491E-16
7.160000E+03	8.476706E-15	2.268060E-16
7.170000E+03	8.417046E-15	2.254088E-16
7.180000E+03	8.355356E-15	2.239443E-16
7.190000E+03	8.291115E-15	2.223948E-16
7.200000E+03	8.223997E-15	2.207477E-16
7.210000E+03	8.153875E-15	2.189963E-16
7.220000E+03	8.080324E-15	2.171260E-16
7.230000E+03	8.003131E-15	2.151286E-16
7.240000E+03	7.922140E-15	2.129980E-16
7.250000E+03	7.837249E-15	2.107307E-16
7.260000E+03	7.748263E-15	2.083215E-16
7.270000E+03	7.655537E-15	2.057808E-16
7.280000E+03	7.559013E-15	2.031088E-16
7.290000E+03	7.458553E-15	2.003044E-16
7.300000E+03	7.354882E-15	1.973903E-16
7.310000E+03	7.247854E-15	1.943662E-16
7.320000E+03	7.138171E-15	1.912549E-16
7.330000E+03	7.026134E-15	1.880684E-16
7.340000E+03	6.912255E-15	1.848243E-16
7.350000E+03	6.796949E-15	1.815374E-16
7.360000E+03	6.680822E-15	1.782272E-16
7.370000E+03	6.564510E-15	1.749133E-16
7.380000E+03	6.448666E-15	1.716157E-16
7.390000E+03	6.333681E-15	1.683465E-16
7.400000E+03	6.220361E-15	1.651286E-16
7.410000E+03	6.109098E-15	1.619733E-16
7.420000E+03	6.000404E-15	1.588948E-16
7.430000E+03	5.894772E-15	1.559067E-16
7.440000E+03	5.792914E-15	1.530278E-16
7.450000E+03	5.695364E-15	1.502723E-16
7.460000E+03	5.602850E-15	1.476588E-16
7.470000E+03	5.516031E-15	1.452041E-16
7.480000E+03	5.435136E-15	1.429131E-16
7.490000E+03	5.360573E-15	1.407948E-16
7.500000E+03	5.292808E-15	1.388592E-16
7.510000E+03	5.231763E-15	1.371010E-16
7.520000E+03	5.177779E-15	1.355251E-16
7.530000E+03	5.130897E-15	1.341275E-16
7.540000E+03	5.091107E-15	1.329019E-16
7.550000E+03	5.058346E-15	1.318398E-16
7.560000E+03	5.032507E-15	1.309307E-16
7.570000E+03	5.013552E-15	1.301655E-16
7.580000E+03	5.001178E-15	1.295285E-16
7.590000E+03	4.995277E-15	1.290089E-16
7.600000E+03	4.995481E-15	1.285904E-16
7.610000E+03	5.001625E-15	1.282628E-16
7.620000E+03	5.013407E-15	1.280140E-16
7.630000E+03	5.030385E-15	1.278301E-16
7.640000E+03	5.052329E-15	1.277043E-16
7.650000E+03	5.078872E-15	1.276282E-16
7.660000E+03	5.109506E-15	1.275913E-16
7.670000E+03	5.143935E-15	1.275897E-16
7.680000E+03	5.181600E-15	1.276135E-16
7.690000E+03	5.222275E-15	1.276612E-16
7.700000E+03	5.265213E-15	1.277176E-16
7.710000E+03	5.309995E-15	1.277747E-16
7.720000E+03	5.355913E-15	1.278149E-16
7.730000E+03	5.402462E-15	1.278228E-16
7.740000E+03	5.448968E-15	1.277754E-16
7.750000E+03	5.494706E-15	1.276440E-16
7.760000E+03	5.538770E-15	1.273913E-16
