#wls	flux	fluxerr
1.600000E+03	2.496142E-14	5.619362E-15
1.640000E+03	2.009353E-14	4.150111E-15
1.680000E+03	1.605731E-14	3.020962E-15
1.720000E+03	1.274608E-14	2.166624E-15
1.760000E+03	1.006140E-14	1.531042E-15
1.800000E+03	7.907655E-15	1.066009E-15
1.840000E+03	6.196998E-15	7.315156E-16
1.880000E+03	4.850946E-15	4.951894E-16
1.920000E+03	3.800719E-15	3.314470E-16
1.960000E+03	2.988632E-15	2.206681E-16
2.000000E+03	2.366312E-15	1.480442E-16
2.040000E+03	1.893992E-15	1.025579E-16
2.080000E+03	1.540016E-15	7.590009E-17
2.120000E+03	1.280259E-15	6.147738E-17
2.160000E+03	1.096723E-15	5.413925E-17
2.200000E+03	9.760088E-16	5.074958E-17
2.240000E+03	9.092205E-16	4.991284E-17
2.280000E+03	8.912667E-16	5.119525E-17
2.320000E+03	9.201996E-16	5.448304E-17
2.360000E+03	9.976027E-16	5.974618E-17
2.400000E+03	1.128971E-15	6.697844E-17
2.440000E+03	1.324054E-15	7.617780E-17
2.480000E+03	1.595285E-15	8.734235E-17
2.520000E+03	1.956989E-15	1.008195E-16
2.560000E+03	2.422032E-15	1.180542E-16
2.600000E+03	2.998890E-15	1.427779E-16
2.640000E+03	3.686958E-15	1.811775E-16
2.680000E+03	4.475188E-15	2.391641E-16
2.720000E+03	5.341041E-15	3.191893E-16
2.760000E+03	6.251014E-15	4.195137E-16
2.800000E+03	7.161917E-15	5.346192E-16
2.840000E+03	8.027423E-15	6.562566E-16
2.880000E+03	8.801823E-15	7.745043E-16
2.920000E+03	9.448422E-15	8.794406E-16
2.960000E+03	9.942745E-15	9.625354E-16
3.000000E+03	1.027550E-14	1.017878E-15
3.010000E+03	1.033382E-14	1.026991E-15
3.020000E+03	1.038215E-14	1.034135E-15
3.030000E+03	1.042089E-14	1.039326E-15
3.040000E+03	1.045048E-14	1.042593E-15
3.050000E+03	1.047111E-14	1.043942E-15
3.060000E+03	1.048298E-14	1.043396E-15
3.070000E+03	1.048689E-14	1.041037E-15
3.080000E+03	1.048284E-14	1.036875E-15
3.090000E+03	1.047112E-14	1.030959E-15
3.100000E+03	1.045256E-14	1.023393E-15
3.110000E+03	1.042749E-14	1.014237E-15
3.120000E+03	1.039647E-14	1.003581E-15
3.130000E+03	1.035938E-14	9.914484E-16
3.140000E+03	1.031752E-14	9.780077E-16
3.150000E+03	1.027077E-14	9.632912E-16
3.160000E+03	1.021973E-14	9.474031E-16
3.170000E+03	1.016497E-14	9.304485E-16
3.180000E+03	1.010684E-14	9.125125E-16
3.190000E+03	1.004592E-14	8.937013E-16
3.200000E+03	9.982533E-15	8.741018E-16
3.210000E+03	9.917230E-15	8.538198E-16
3.220000E+03	9.850333E-15	8.329426E-16
3.230000E+03	9.782355E-15	8.115744E-16
3.240000E+03	9.713602E-15	7.898021E-16
3.250000E+03	9.644375E-15	7.677135E-16
3.260000E+03	9.575150E-15	7.454106E-16
3.270000E+03	9.506206E-15	7.229808E-16
3.280000E+03	9.437988E-15	7.005248E-16
3.290000E+03	9.370753E-15	6.781301E-16
3.300000E+03	9.304755E-15	6.558860E-16
3.310000E+03	9.240241E-15	6.338838E-16
3.320000E+03	9.177610E-15	6.122272E-16
3.330000E+03	9.117088E-15	5.910111E-16
3.340000E+03	9.058903E-15	5.703337E-16
3.350000E+03	9.003275E-15	5.502971E-16
3.360000E+03	8.950284E-15	5.309987E-16
3.370000E+03	8.900296E-15	5.125579E-16
3.380000E+03	8.853392E-15	4.950805E-16
3.390000E+03	8.809929E-15	4.786915E-16
3.400000E+03	8.769996E-15	4.635023E-16
3.410000E+03	8.733572E-15	4.496188E-16
3.420000E+03	8.701146E-15	4.371705E-16
3.430000E+03	8.672595E-15	4.262486E-16
3.440000E+03	8.648179E-15	4.169530E-16
3.450000E+03	8.628048E-15	4.093620E-16
3.460000E+03	8.612370E-15	4.035350E-16
3.470000E+03	8.601215E-15	3.995020E-16
3.480000E+03	8.594795E-15	3.972674E-16
3.490000E+03	8.593140E-15	3.967832E-16
3.500000E+03	8.596628E-15	3.979855E-16
3.510000E+03	8.605341E-15	4.007757E-16
3.520000E+03	8.619389E-15	4.050413E-16
3.530000E+03	8.639005E-15	4.106668E-16
3.540000E+03	8.664151E-15	4.175200E-16
3.550000E+03	8.695014E-15	4.254806E-16
3.560000E+03	8.731798E-15	4.344349E-16
3.570000E+03	8.774633E-15	4.442735E-16
3.580000E+03	8.823669E-15	4.548981E-16
3.590000E+03	8.878975E-15	4.662172E-16
3.600000E+03	8.941007E-15	4.781710E-16
3.610000E+03	9.009855E-15	4.906918E-16
3.620000E+03	9.085889E-15	5.037379E-16
3.630000E+03	9.169478E-15	5.172775E-16
3.640000E+03	9.260984E-15	5.312879E-16
3.650000E+03	9.360765E-15	5.457543E-16
3.660000E+03	9.469252E-15	5.606733E-16
3.670000E+03	9.586954E-15	5.760526E-16
3.680000E+03	9.714269E-15	5.918982E-16
3.690000E+03	9.851478E-15	6.082136E-16
3.700000E+03	9.999196E-15	6.250255E-16
3.710000E+03	1.015764E-14	6.423391E-16
3.720000E+03	1.032725E-14	6.601750E-16
3.730000E+03	1.050835E-14	6.785465E-16
3.740000E+03	1.070126E-14	6.974694E-16
3.750000E+03	1.090608E-14	7.169427E-16
3.760000E+03	1.112302E-14	7.369721E-16
3.770000E+03	1.135229E-14	7.575630E-16
3.780000E+03	1.159372E-14	7.786938E-16
3.790000E+03	1.184725E-14	8.003469E-16
3.800000E+03	1.211270E-14	8.224946E-16
3.810000E+03	1.238977E-14	8.450992E-16
3.820000E+03	1.267792E-14	8.681041E-16
3.830000E+03	1.297661E-14	8.914481E-16
3.840000E+03	1.328526E-14	9.150654E-16
3.850000E+03	1.360283E-14	9.388555E-16
3.860000E+03	1.392848E-14	9.627287E-16
3.870000E+03	1.426114E-14	9.865765E-16
3.880000E+03	1.459949E-14	1.010272E-15
3.890000E+03	1.494224E-14	1.033685E-15
3.900000E+03	1.528799E-14	1.056681E-15
3.910000E+03	1.563515E-14	1.079107E-15
3.920000E+03	1.598234E-14	1.100826E-15
3.930000E+03	1.632774E-14	1.121670E-15
3.940000E+03	1.666993E-14	1.141501E-15
3.950000E+03	1.700739E-14	1.160174E-15
3.960000E+03	1.733836E-14	1.177528E-15
3.970000E+03	1.766142E-14	1.193431E-15
3.980000E+03	1.797525E-14	1.207760E-15
3.990000E+03	1.827864E-14	1.220403E-15
4.000000E+03	1.857023E-14	1.231241E-15
4.010000E+03	1.884907E-14	1.240191E-15
4.020000E+03	1.911438E-14	1.247183E-15
4.030000E+03	1.936539E-14	1.252154E-15
4.040000E+03	1.960148E-14	1.255055E-15
4.050000E+03	1.982232E-14	1.255865E-15
4.060000E+03	2.002760E-14	1.254566E-15
4.070000E+03	2.021696E-14	1.251145E-15
4.080000E+03	2.039063E-14	1.245631E-15
4.090000E+03	2.054851E-14	1.238038E-15
4.100000E+03	2.069085E-14	1.228406E-15
4.110000E+03	2.081785E-14	1.216778E-15
4.120000E+03	2.092959E-14	1.203195E-15
4.130000E+03	2.102669E-14	1.187733E-15
4.140000E+03	2.110927E-14	1.170448E-15
4.150000E+03	2.117767E-14	1.151409E-15
4.160000E+03	2.123236E-14	1.130699E-15
4.170000E+03	2.127366E-14	1.108397E-15
4.180000E+03	2.130187E-14	1.084587E-15
4.190000E+03	2.131746E-14	1.059363E-15
4.200000E+03	2.132052E-14	1.032806E-15
4.210000E+03	2.131168E-14	1.005027E-15
4.220000E+03	2.129101E-14	9.761132E-16
4.230000E+03	2.125912E-14	9.461794E-16
4.240000E+03	2.121611E-14	9.153186E-16
4.250000E+03	2.116278E-14	8.836548E-16
4.260000E+03	2.109944E-14	8.512894E-16
4.270000E+03	2.102661E-14	8.183299E-16
4.280000E+03	2.094486E-14	7.848806E-16
4.290000E+03	2.085515E-14	7.510528E-16
4.300000E+03	2.075833E-14	7.169428E-16
4.310000E+03	2.065517E-14	6.826312E-16
4.320000E+03	2.054684E-14	6.481974E-16
4.330000E+03	2.043440E-14	6.137005E-16
4.340000E+03	2.031919E-14	5.791890E-16
4.350000E+03	2.020259E-14	5.446950E-16
4.360000E+03	2.008574E-14	5.102249E-16
4.370000E+03	1.996987E-14	4.757371E-16
4.380000E+03	1.985601E-14	4.410988E-16
4.390000E+03	1.974598E-14	4.061929E-16
4.400000E+03	1.964094E-14	3.709459E-16
4.410000E+03	1.954265E-14	3.354076E-16
4.420000E+03	1.945229E-14	2.998103E-16
4.430000E+03	1.937128E-14	2.647246E-16
4.440000E+03	1.930088E-14	2.313058E-16
4.450000E+03	1.924227E-14	2.017182E-16
4.460000E+03	1.919644E-14	1.796631E-16
4.470000E+03	1.916438E-14	1.702532E-16
4.480000E+03	1.914680E-14	1.773389E-16
4.490000E+03	1.914224E-14	1.993550E-16
4.500000E+03	1.914919E-14	2.315318E-16
4.510000E+03	1.916563E-14	2.697235E-16
4.520000E+03	1.918928E-14	3.112455E-16
4.530000E+03	1.921811E-14	3.544955E-16
4.540000E+03	1.924985E-14	3.984994E-16
4.550000E+03	1.928241E-14	4.426339E-16
4.560000E+03	1.931336E-14	4.864600E-16
4.570000E+03	1.934081E-14	5.296579E-16
4.580000E+03	1.936251E-14	5.719583E-16
4.590000E+03	1.937679E-14	6.131440E-16
4.600000E+03	1.938153E-14	6.530047E-16
4.610000E+03	1.937565E-14	6.913765E-16
4.620000E+03	1.935748E-14	7.280871E-16
4.630000E+03	1.932614E-14	7.629994E-16
4.640000E+03	1.928103E-14	7.959972E-16
4.650000E+03	1.922170E-14	8.269794E-16
4.660000E+03	1.914785E-14	8.558603E-16
4.670000E+03	1.905996E-14	8.826001E-16
4.680000E+03	1.895816E-14	9.071536E-16
4.690000E+03	1.884362E-14	9.295386E-16
4.700000E+03	1.871678E-14	9.497489E-16
4.710000E+03	1.857907E-14	9.678405E-16
4.720000E+03	1.843174E-14	9.838731E-16
4.730000E+03	1.827613E-14	9.979233E-16
4.740000E+03	1.811364E-14	1.010082E-15
4.750000E+03	1.794588E-14	1.020461E-15
4.760000E+03	1.777422E-14	1.029168E-15
4.770000E+03	1.760003E-14	1.036320E-15
4.780000E+03	1.742474E-14	1.042040E-15
4.790000E+03	1.724952E-14	1.046445E-15
4.800000E+03	1.707544E-14	1.049646E-15
4.810000E+03	1.690342E-14	1.051750E-15
4.820000E+03	1.673430E-14	1.052858E-15
4.830000E+03	1.656890E-14	1.053072E-15
4.840000E+03	1.640766E-14	1.052469E-15
4.850000E+03	1.625119E-14	1.051133E-15
4.860000E+03	1.609970E-14	1.049125E-15
4.870000E+03	1.595363E-14	1.046517E-15
4.880000E+03	1.581321E-14	1.043361E-15
4.890000E+03	1.567847E-14	1.039698E-15
4.900000E+03	1.554969E-14	1.035581E-15
4.910000E+03	1.542686E-14	1.031040E-15
4.920000E+03	1.531040E-14	1.026130E-15
4.930000E+03	1.520017E-14	1.020867E-15
4.940000E+03	1.509649E-14	1.015292E-15
4.950000E+03	1.499957E-14	1.009440E-15
4.960000E+03	1.490967E-14	1.003340E-15
4.970000E+03	1.482710E-14	9.970256E-16
4.980000E+03	1.475205E-14	9.905179E-16
4.990000E+03	1.468522E-14	9.838662E-16
5.000000E+03	1.462676E-14	9.770820E-16
5.010000E+03	1.457727E-14	9.702019E-16
5.020000E+03	1.453726E-14	9.632509E-16
5.030000E+03	1.450720E-14	9.562494E-16
5.040000E+03	1.448761E-14	9.492130E-16
5.050000E+03	1.447880E-14	9.421415E-16
5.060000E+03	1.448134E-14	9.350445E-16
5.070000E+03	1.449561E-14	9.279133E-16
5.080000E+03	1.452175E-14	9.207198E-16
5.090000E+03	1.456010E-14	9.134416E-16
5.100000E+03	1.461061E-14	9.060260E-16
5.110000E+03	1.467337E-14	8.984240E-16
5.120000E+03	1.474806E-14	8.905553E-16
5.130000E+03	1.483449E-14	8.823424E-16
5.140000E+03	1.493187E-14	8.736683E-16
5.150000E+03	1.503982E-14	8.644363E-16
5.160000E+03	1.515721E-14	8.545039E-16
5.170000E+03	1.528332E-14	8.437508E-16
5.180000E+03	1.541672E-14	8.320152E-16
5.190000E+03	1.555623E-14	8.191536E-16
5.200000E+03	1.570030E-14	8.050030E-16
5.210000E+03	1.584755E-14	7.894163E-16
5.220000E+03	1.599642E-14	7.722416E-16
5.230000E+03	1.614501E-14	7.533196E-16
5.240000E+03	1.629204E-14	7.325318E-16
5.250000E+03	1.643585E-14	7.097514E-16
5.260000E+03	1.657488E-14	6.848697E-16
5.270000E+03	1.670800E-14	6.578114E-16
5.280000E+03	1.683414E-14	6.285161E-16
5.290000E+03	1.695241E-14	5.969459E-16
5.300000E+03	1.706180E-14	5.630759E-16
5.310000E+03	1.716217E-14	5.269291E-16
5.320000E+03	1.725311E-14	4.885368E-16
5.330000E+03	1.733450E-14	4.479648E-16
5.340000E+03	1.740620E-14	4.053097E-16
5.350000E+03	1.746847E-14	3.607269E-16
5.360000E+03	1.752120E-14	3.144461E-16
5.370000E+03	1.756453E-14	2.668588E-16
5.380000E+03	1.759791E-14	2.186784E-16
5.390000E+03	1.762102E-14	1.714241E-16
5.400000E+03	1.763307E-14	1.287881E-16
5.410000E+03	1.763267E-14	1.002805E-16
5.420000E+03	1.761842E-14	1.014191E-16
5.430000E+03	1.759001E-14	1.311409E-16
5.440000E+03	1.754760E-14	1.738131E-16
5.450000E+03	1.749280E-14	2.205239E-16
5.460000E+03	1.742688E-14	2.678302E-16
5.470000E+03	1.735078E-14	3.143144E-16
5.480000E+03	1.726539E-14	3.593142E-16
5.490000E+03	1.717170E-14	4.024933E-16
5.500000E+03	1.706993E-14	4.436536E-16
5.510000E+03	1.696053E-14	4.826853E-16
5.520000E+03	1.684416E-14	5.195341E-16
5.530000E+03	1.672098E-14	5.541642E-16
5.540000E+03	1.659173E-14	5.865814E-16
5.550000E+03	1.645710E-14	6.168086E-16
5.560000E+03	1.631787E-14	6.448888E-16
5.570000E+03	1.617476E-14	6.708762E-16
5.580000E+03	1.602879E-14	6.948482E-16
5.590000E+03	1.588104E-14	7.168974E-16
5.600000E+03	1.573285E-14	7.371378E-16
5.610000E+03	1.558511E-14	7.556720E-16
5.620000E+03	1.543936E-14	7.726420E-16
5.630000E+03	1.529650E-14	7.881649E-16
5.640000E+03	1.515772E-14	8.023767E-16
5.650000E+03	1.502445E-14	8.154311E-16
5.660000E+03	1.489739E-14	8.274462E-16
5.670000E+03	1.477762E-14	8.385606E-16
5.680000E+03	1.466576E-14	8.488883E-16
5.690000E+03	1.456243E-14	8.585418E-16
5.700000E+03	1.446824E-14	8.676317E-16
5.710000E+03	1.438348E-14	8.762458E-16
5.720000E+03	1.430809E-14	8.844476E-16
5.730000E+03	1.424197E-14	8.922939E-16
5.740000E+03	1.418501E-14	8.998338E-16
5.750000E+03	1.413658E-14	9.070801E-16
5.760000E+03	1.409616E-14	9.140474E-16
5.770000E+03	1.406292E-14	9.207231E-16
5.780000E+03	1.403570E-14	9.270677E-16
5.790000E+03	1.401349E-14	9.330458E-16
5.800000E+03	1.399499E-14	9.385975E-16
5.810000E+03	1.397877E-14	9.436495E-16
5.820000E+03	1.396333E-14	9.481179E-16
5.830000E+03	1.394708E-14	9.519099E-16
5.840000E+03	1.392842E-14	9.549268E-16
5.850000E+03	1.390586E-14	9.570776E-16
5.860000E+03	1.387769E-14	9.582499E-16
5.870000E+03	1.384253E-14	9.583562E-16
5.880000E+03	1.379899E-14	9.573044E-16
5.890000E+03	1.374577E-14	9.550122E-16
5.900000E+03	1.368196E-14	9.514205E-16
5.910000E+03	1.360634E-14	9.464519E-16
5.920000E+03	1.351870E-14	9.401014E-16
5.930000E+03	1.341846E-14	9.323378E-16
5.940000E+03	1.330528E-14	9.231499E-16
5.950000E+03	1.317972E-14	9.125896E-16
5.960000E+03	1.304180E-14	9.006737E-16
5.970000E+03	1.289226E-14	8.874702E-16
5.980000E+03	1.273204E-14	8.730633E-16
5.990000E+03	1.256216E-14	8.575418E-16
6.000000E+03	1.238381E-14	8.410066E-16
6.010000E+03	1.219830E-14	8.235686E-16
6.020000E+03	1.200739E-14	8.053655E-16
6.030000E+03	1.181242E-14	7.865080E-16
6.040000E+03	1.161511E-14	7.671279E-16
6.050000E+03	1.141716E-14	7.473542E-16
6.060000E+03	1.122010E-14	7.273012E-16
6.070000E+03	1.102556E-14	7.070854E-16
6.080000E+03	1.083509E-14	6.868135E-16
6.090000E+03	1.064987E-14	6.665634E-16
6.100000E+03	1.047149E-14	6.464352E-16
6.110000E+03	1.030091E-14	6.264807E-16
6.120000E+03	1.013945E-14	6.067707E-16
6.130000E+03	9.987917E-15	5.873363E-16
6.140000E+03	9.847096E-15	5.682017E-16
6.150000E+03	9.717636E-15	5.493765E-16
6.160000E+03	9.600308E-15	5.308703E-16
6.170000E+03	9.495236E-15	5.126497E-16
6.180000E+03	9.402555E-15	4.946768E-16
6.190000E+03	9.321909E-15	4.768832E-16
6.200000E+03	9.253224E-15	4.592118E-16
6.210000E+03	9.196325E-15	4.415966E-16
6.220000E+03	9.150830E-15	4.239580E-16
6.230000E+03	9.116148E-15	4.062056E-16
6.240000E+03	9.092127E-15	3.882673E-16
6.250000E+03	9.078053E-15	3.700454E-16
6.260000E+03	9.073411E-15	3.514521E-16
6.270000E+03	9.077778E-15	3.324041E-16
6.280000E+03	9.090312E-15	3.128059E-16
6.290000E+03	9.110661E-15	2.925842E-16
6.300000E+03	9.137933E-15	2.716547E-16
6.310000E+03	9.171608E-15	2.499560E-16
6.320000E+03	9.210882E-15	2.274344E-16
6.330000E+03	9.255053E-15	2.040648E-16
6.340000E+03	9.303391E-15	1.798630E-16
6.350000E+03	9.355117E-15	1.549193E-16
6.360000E+03	9.409394E-15	1.294727E-16
6.370000E+03	9.465171E-15	1.040966E-16
6.380000E+03	9.521440E-15	8.022305E-17
6.390000E+03	9.576943E-15	6.159194E-17
6.400000E+03	9.630612E-15	5.603795E-17
6.410000E+03	9.681499E-15	6.790054E-17
6.420000E+03	9.729265E-15	9.028558E-17
6.430000E+03	9.773516E-15	1.167965E-16
6.440000E+03	9.814064E-15	1.447011E-16
6.450000E+03	9.850642E-15	1.728795E-16
6.460000E+03	9.882467E-15	2.007964E-16
6.470000E+03	9.909308E-15	2.281640E-16
6.480000E+03	9.930454E-15	2.547919E-16
6.490000E+03	9.945190E-15	2.805406E-16
6.500000E+03	9.953123E-15	3.053074E-16
6.510000E+03	9.953750E-15	3.290039E-16
6.520000E+03	9.946316E-15	3.515439E-16
6.530000E+03	9.930608E-15	3.728665E-16
6.540000E+03	9.906348E-15	3.929167E-16
6.550000E+03	9.873360E-15	4.116498E-16
6.560000E+03	9.831265E-15	4.290184E-16
6.570000E+03	9.780420E-15	4.450124E-16
6.580000E+03	9.720669E-15	4.596063E-16
6.590000E+03	9.652434E-15	4.728069E-16
6.600000E+03	9.575931E-15	4.846183E-16
6.610000E+03	9.491624E-15	4.950631E-16
6.620000E+03	9.400215E-15	5.041829E-16
6.630000E+03	9.302172E-15	5.120134E-16
6.640000E+03	9.198024E-15	5.185987E-16
6.650000E+03	9.088795E-15	5.240159E-16
6.660000E+03	8.974940E-15	5.283149E-16
6.670000E+03	8.857234E-15	5.315678E-16
6.680000E+03	8.736743E-15	5.338682E-16
6.690000E+03	8.613939E-15	5.352772E-16
6.700000E+03	8.489713E-15	5.358836E-16
6.710000E+03	8.364637E-15	5.357585E-16
6.720000E+03	8.239529E-15	5.349900E-16
6.730000E+03	8.114883E-15	5.336462E-16
6.740000E+03	7.991420E-15	5.318103E-16
6.750000E+03	7.869531E-15	5.295442E-16
6.760000E+03	7.749825E-15	5.269239E-16
6.770000E+03	7.632586E-15	5.240025E-16
6.780000E+03	7.518305E-15	5.208468E-16
6.790000E+03	7.407285E-15	5.175096E-16
6.800000E+03	7.299647E-15	5.140297E-16
6.810000E+03	7.195718E-15	5.104589E-16
6.820000E+03	7.095525E-15	5.068263E-16
6.830000E+03	6.999298E-15	5.031743E-16
6.840000E+03	6.907103E-15	4.995318E-16
6.850000E+03	6.818845E-15	4.959145E-16
6.860000E+03	6.734642E-15	4.923522E-16
6.870000E+03	6.654456E-15	4.888619E-16
6.880000E+03	6.578228E-15	4.854576E-16
6.890000E+03	6.505756E-15	4.821412E-16
6.900000E+03	6.437172E-15	4.789383E-16
6.910000E+03	6.372124E-15	4.758372E-16
6.920000E+03	6.310597E-15	4.728500E-16
6.930000E+03	6.252450E-15	4.699785E-16
6.940000E+03	6.197532E-15	4.672225E-16
6.950000E+03	6.145687E-15	4.645807E-16
6.960000E+03	6.096754E-15	4.620505E-16
6.970000E+03	6.050570E-15	4.596281E-16
6.980000E+03	6.007083E-15	4.573175E-16
6.990000E+03	5.965901E-15	4.550963E-16
7.000000E+03	5.927086E-15	4.529756E-16
7.010000E+03	5.890360E-15	4.509405E-16
7.020000E+03	5.855561E-15	4.489840E-16
7.030000E+03	5.822528E-15	4.470988E-16
7.040000E+03	5.791216E-15	4.452859E-16
7.050000E+03	5.761356E-15	4.435289E-16
7.060000E+03	5.732906E-15	4.418282E-16
7.070000E+03	5.705603E-15	4.401670E-16
7.080000E+03	5.679410E-15	4.385455E-16
7.090000E+03	5.654069E-15	4.369464E-16
7.100000E+03	5.629550E-15	4.353697E-16
7.110000E+03	5.605710E-15	4.338066E-16
7.120000E+03	5.582413E-15	4.322485E-16
7.130000E+03	5.559524E-15	4.306865E-16
7.140000E+03	5.536800E-15	4.291032E-16
7.150000E+03	5.514338E-15	4.275073E-16
7.160000E+03	5.491903E-15	4.258815E-16
7.170000E+03	5.469376E-15	4.242175E-16
7.180000E+03	5.446643E-15	4.225072E-16
7.190000E+03	5.423711E-15	4.207514E-16
7.200000E+03	5.400476E-15	4.189426E-16
7.210000E+03	5.376734E-15	4.170650E-16
7.220000E+03	5.352508E-15	4.151207E-16
7.230000E+03	5.327609E-15	4.130948E-16
7.240000E+03	5.302192E-15	4.109994E-16
7.250000E+03	5.275972E-15	4.088120E-16
7.260000E+03	5.249124E-15	4.065460E-16
7.270000E+03	5.221384E-15	4.041806E-16
7.280000E+03	5.192951E-15	4.017304E-16
7.290000E+03	5.163695E-15	3.991849E-16
7.300000E+03	5.133614E-15	3.965433E-16
7.310000E+03	5.102716E-15	3.938055E-16
7.320000E+03	5.071023E-15	3.909721E-16
7.330000E+03	5.038568E-15	3.880450E-16
7.340000E+03	5.005287E-15	3.850179E-16
7.350000E+03	4.971237E-15	3.818943E-16
7.360000E+03	4.936490E-15	3.786782E-16
7.370000E+03	4.901123E-15	3.753745E-16
7.380000E+03	4.864899E-15	3.719633E-16
7.390000E+03	4.828137E-15	3.684676E-16
7.400000E+03	4.790615E-15	3.648688E-16
7.410000E+03	4.752449E-15	3.611740E-16
7.420000E+03	4.713649E-15	3.573822E-16
7.430000E+03	4.674340E-15	3.535010E-16
7.440000E+03	4.634537E-15	3.495295E-16
7.450000E+03	4.594793E-15	3.455071E-16
7.460000E+03	4.555119E-15	3.414322E-16
7.470000E+03	4.515735E-15	3.373186E-16
7.480000E+03	4.476963E-15	3.331870E-16
7.490000E+03	4.438900E-15	3.290417E-16
7.500000E+03	4.401745E-15	3.248933E-16
7.510000E+03	4.365578E-15	3.207440E-16
7.520000E+03	4.330473E-15	3.165948E-16
7.530000E+03	4.296700E-15	3.124610E-16
7.540000E+03	4.264104E-15	3.083258E-16
7.550000E+03	4.232932E-15	3.042022E-16
7.560000E+03	4.203112E-15	3.000791E-16
7.570000E+03	4.174559E-15	2.959445E-16
7.580000E+03	4.147491E-15	2.918076E-16
7.590000E+03	4.121804E-15	2.876542E-16
7.600000E+03	4.097486E-15	2.834767E-16
7.610000E+03	4.074415E-15	2.792593E-16
7.620000E+03	4.052767E-15	2.750066E-16
7.630000E+03	4.032298E-15	2.706942E-16
7.640000E+03	4.012962E-15	2.663110E-16
7.650000E+03	3.994807E-15	2.618519E-16
7.660000E+03	3.977770E-15	2.573043E-16
7.670000E+03	3.961679E-15	2.526483E-16
7.680000E+03	3.946559E-15	2.478766E-16
7.690000E+03	3.932223E-15	2.429686E-16
7.700000E+03	3.918579E-15	2.379097E-16
7.710000E+03	3.905632E-15	2.326915E-16
7.720000E+03	3.893173E-15	2.272924E-16
7.730000E+03	3.881193E-15	2.217035E-16
7.740000E+03	3.869469E-15	2.159036E-16
7.750000E+03	3.857979E-15	2.098838E-16
7.760000E+03	3.846590E-15	2.036292E-16
