#wls	flux	fluxerr
1.600000E+03	5.921278E-14	1.295691E-14
1.640000E+03	4.667587E-14	9.345747E-15
1.680000E+03	3.637842E-14	6.613491E-15
1.720000E+03	2.804672E-14	4.588107E-15
1.760000E+03	2.140973E-14	3.118672E-15
1.800000E+03	1.619797E-14	2.075158E-15
1.840000E+03	1.216552E-14	1.350727E-15
1.880000E+03	9.084735E-15	8.590242E-16
1.920000E+03	6.762398E-15	5.335668E-16
1.960000E+03	5.030999E-15	3.239867E-16
2.000000E+03	3.753620E-15	1.937874E-16
2.040000E+03	2.820597E-15	1.173804E-16
2.080000E+03	2.146010E-15	7.695019E-17
2.120000E+03	1.666046E-15	5.842518E-17
2.160000E+03	1.336766E-15	5.015110E-17
2.200000E+03	1.124851E-15	4.617605E-17
2.240000E+03	1.006024E-15	4.481596E-17
2.280000E+03	9.665871E-16	4.603537E-17
2.320000E+03	9.992502E-16	4.990173E-17
2.360000E+03	1.105241E-15	5.641551E-17
2.400000E+03	1.296523E-15	6.560533E-17
2.440000E+03	1.595455E-15	7.727281E-17
2.480000E+03	2.034789E-15	9.072201E-17
2.520000E+03	2.654523E-15	1.047635E-16
2.560000E+03	3.495844E-15	1.194456E-16
2.600000E+03	4.587457E-15	1.421187E-16
2.640000E+03	5.929725E-15	1.942755E-16
2.680000E+03	7.495979E-15	2.953100E-16
2.720000E+03	9.236336E-15	4.474192E-16
2.760000E+03	1.107143E-14	6.431571E-16
2.800000E+03	1.289769E-14	8.689125E-16
2.840000E+03	1.460178E-14	1.105898E-15
2.880000E+03	1.607347E-14	1.332027E-15
2.920000E+03	1.722680E-14	1.525670E-15
2.960000E+03	1.801666E-14	1.669761E-15
3.000000E+03	1.843475E-14	1.753705E-15
3.010000E+03	1.848376E-14	1.764780E-15
3.020000E+03	1.851165E-14	1.771879E-15
3.030000E+03	1.851902E-14	1.775032E-15
3.040000E+03	1.850744E-14	1.774376E-15
3.050000E+03	1.847719E-14	1.769942E-15
3.060000E+03	1.842954E-14	1.761868E-15
3.070000E+03	1.836532E-14	1.750265E-15
3.080000E+03	1.828586E-14	1.735301E-15
3.090000E+03	1.819208E-14	1.717118E-15
3.100000E+03	1.808533E-14	1.695906E-15
3.110000E+03	1.796657E-14	1.671825E-15
3.120000E+03	1.783678E-14	1.645047E-15
3.130000E+03	1.769732E-14	1.615780E-15
3.140000E+03	1.754914E-14	1.584201E-15
3.150000E+03	1.739390E-14	1.550555E-15
3.160000E+03	1.723184E-14	1.514956E-15
3.170000E+03	1.706456E-14	1.477643E-15
3.180000E+03	1.689294E-14	1.438791E-15
3.190000E+03	1.671814E-14	1.398596E-15
3.200000E+03	1.654069E-14	1.357197E-15
3.210000E+03	1.636198E-14	1.314807E-15
3.220000E+03	1.618275E-14	1.271576E-15
3.230000E+03	1.600343E-14	1.227630E-15
3.240000E+03	1.582528E-14	1.183154E-15
3.250000E+03	1.564920E-14	1.138300E-15
3.260000E+03	1.547523E-14	1.093154E-15
3.270000E+03	1.530450E-14	1.047876E-15
3.280000E+03	1.513751E-14	1.002581E-15
3.290000E+03	1.497476E-14	9.573802E-16
3.300000E+03	1.481673E-14	9.123833E-16
3.310000E+03	1.466408E-14	8.677128E-16
3.320000E+03	1.451720E-14	8.234772E-16
3.330000E+03	1.437648E-14	7.797902E-16
3.340000E+03	1.424226E-14	7.367741E-16
3.350000E+03	1.411487E-14	6.945650E-16
3.360000E+03	1.399482E-14	6.533283E-16
3.370000E+03	1.388217E-14	6.132368E-16
3.380000E+03	1.377720E-14	5.745122E-16
3.390000E+03	1.368015E-14	5.374258E-16
3.400000E+03	1.359124E-14	5.023131E-16
3.410000E+03	1.351069E-14	4.695890E-16
3.420000E+03	1.343852E-14	4.397553E-16
3.430000E+03	1.337474E-14	4.134136E-16
3.440000E+03	1.331970E-14	3.912619E-16
3.450000E+03	1.327339E-14	3.740287E-16
3.460000E+03	1.323563E-14	3.623961E-16
3.470000E+03	1.320653E-14	3.568917E-16
3.480000E+03	1.318607E-14	3.577034E-16
3.490000E+03	1.317418E-14	3.644327E-16
3.500000E+03	1.317084E-14	3.763425E-16
3.510000E+03	1.317631E-14	3.925743E-16
3.520000E+03	1.319016E-14	4.122460E-16
3.530000E+03	1.321257E-14	4.345747E-16
3.540000E+03	1.324306E-14	4.588765E-16
3.550000E+03	1.328139E-14	4.845987E-16
3.560000E+03	1.332737E-14	5.113051E-16
3.570000E+03	1.338075E-14	5.386533E-16
3.580000E+03	1.344152E-14	5.663872E-16
3.590000E+03	1.350943E-14	5.943042E-16
3.600000E+03	1.358435E-14	6.222521E-16
3.610000E+03	1.366656E-14	6.501369E-16
3.620000E+03	1.375655E-14	6.779039E-16
3.630000E+03	1.385495E-14	7.055319E-16
3.640000E+03	1.396255E-14	7.330288E-16
3.650000E+03	1.408040E-14	7.604336E-16
3.660000E+03	1.420932E-14	7.877871E-16
3.670000E+03	1.435037E-14	8.151545E-16
3.680000E+03	1.450447E-14	8.426026E-16
3.690000E+03	1.467267E-14	8.702107E-16
3.700000E+03	1.485585E-14	8.980538E-16
3.710000E+03	1.505497E-14	9.262149E-16
3.720000E+03	1.527096E-14	9.547754E-16
3.730000E+03	1.550455E-14	9.838049E-16
3.740000E+03	1.575650E-14	1.013375E-15
3.750000E+03	1.602752E-14	1.043550E-15
3.760000E+03	1.631792E-14	1.074366E-15
3.770000E+03	1.662845E-14	1.105883E-15
3.780000E+03	1.695902E-14	1.138102E-15
3.790000E+03	1.731025E-14	1.171066E-15
3.800000E+03	1.768176E-14	1.204742E-15
3.810000E+03	1.807354E-14	1.239121E-15
3.820000E+03	1.848514E-14	1.274153E-15
3.830000E+03	1.891604E-14	1.309777E-15
3.840000E+03	1.936554E-14	1.345914E-15
3.850000E+03	1.983273E-14	1.382463E-15
3.860000E+03	2.031637E-14	1.419292E-15
3.870000E+03	2.081515E-14	1.456259E-15
3.880000E+03	2.132756E-14	1.493203E-15
3.890000E+03	2.185196E-14	1.529945E-15
3.900000E+03	2.238615E-14	1.566263E-15
3.910000E+03	2.292850E-14	1.601972E-15
3.920000E+03	2.347654E-14	1.636822E-15
3.930000E+03	2.402805E-14	1.670580E-15
3.940000E+03	2.458093E-14	1.703018E-15
3.950000E+03	2.513228E-14	1.733852E-15
3.960000E+03	2.568010E-14	1.762862E-15
3.970000E+03	2.622184E-14	1.789790E-15
3.980000E+03	2.675479E-14	1.814370E-15
3.990000E+03	2.727706E-14	1.836398E-15
4.000000E+03	2.778608E-14	1.855624E-15
4.010000E+03	2.827954E-14	1.871827E-15
4.020000E+03	2.875568E-14	1.884828E-15
4.030000E+03	2.921248E-14	1.894439E-15
4.040000E+03	2.964780E-14	1.900474E-15
4.050000E+03	3.006058E-14	1.902829E-15
4.060000E+03	3.044877E-14	1.901347E-15
4.070000E+03	3.081144E-14	1.895953E-15
4.080000E+03	3.114709E-14	1.886556E-15
4.090000E+03	3.145514E-14	1.873130E-15
4.100000E+03	3.173444E-14	1.855633E-15
4.110000E+03	3.198476E-14	1.834092E-15
4.120000E+03	3.220505E-14	1.808506E-15
4.130000E+03	3.239541E-14	1.778954E-15
4.140000E+03	3.255561E-14	1.745519E-15
4.150000E+03	3.268582E-14	1.708320E-15
4.160000E+03	3.278587E-14	1.667480E-15
4.170000E+03	3.285648E-14	1.623188E-15
4.180000E+03	3.289798E-14	1.575634E-15
4.190000E+03	3.291085E-14	1.525036E-15
4.200000E+03	3.289567E-14	1.471639E-15
4.210000E+03	3.285362E-14	1.415738E-15
4.220000E+03	3.278545E-14	1.357631E-15
4.230000E+03	3.269224E-14	1.297655E-15
4.240000E+03	3.257489E-14	1.236164E-15
4.250000E+03	3.243456E-14	1.173548E-15
4.260000E+03	3.227246E-14	1.110230E-15
4.270000E+03	3.208955E-14	1.046648E-15
4.280000E+03	3.188730E-14	9.832894E-16
4.290000E+03	3.166668E-14	9.206550E-16
4.300000E+03	3.142914E-14	8.592873E-16
4.310000E+03	3.117538E-14	7.997306E-16
4.320000E+03	3.090708E-14	7.425681E-16
4.330000E+03	3.062519E-14	6.883545E-16
4.340000E+03	3.033118E-14	6.376131E-16
4.350000E+03	3.002658E-14	5.907696E-16
4.360000E+03	2.971279E-14	5.480786E-16
4.370000E+03	2.939182E-14	5.093826E-16
4.380000E+03	2.906650E-14	4.737304E-16
4.390000E+03	2.874061E-14	4.399889E-16
4.400000E+03	2.841688E-14	4.070985E-16
4.410000E+03	2.809893E-14	3.742780E-16
4.420000E+03	2.778918E-14	3.411641E-16
4.430000E+03	2.749010E-14	3.080320E-16
4.440000E+03	2.720346E-14	2.760756E-16
4.450000E+03	2.693096E-14	2.478353E-16
4.460000E+03	2.667343E-14	2.275782E-16
4.470000E+03	2.643052E-14	2.208464E-16
4.480000E+03	2.620165E-14	2.317829E-16
4.490000E+03	2.598708E-14	2.589373E-16
4.500000E+03	2.578601E-14	2.976253E-16
4.510000E+03	2.559736E-14	3.435027E-16
4.520000E+03	2.541983E-14	3.935052E-16
4.530000E+03	2.525140E-14	4.456461E-16
4.540000E+03	2.509029E-14	4.986507E-16
4.550000E+03	2.493448E-14	5.516669E-16
4.560000E+03	2.478155E-14	6.040883E-16
4.570000E+03	2.463018E-14	6.554896E-16
4.580000E+03	2.447796E-14	7.055158E-16
4.590000E+03	2.432388E-14	7.539130E-16
4.600000E+03	2.416589E-14	8.004415E-16
4.610000E+03	2.400320E-14	8.449308E-16
4.620000E+03	2.383465E-14	8.872238E-16
4.630000E+03	2.365952E-14	9.271989E-16
4.640000E+03	2.347736E-14	9.647623E-16
4.650000E+03	2.328776E-14	9.998382E-16
4.660000E+03	2.309073E-14	1.032384E-15
4.670000E+03	2.288652E-14	1.062382E-15
4.680000E+03	2.267578E-14	1.089849E-15
4.690000E+03	2.245893E-14	1.114805E-15
4.700000E+03	2.223695E-14	1.137310E-15
4.710000E+03	2.201074E-14	1.157436E-15
4.720000E+03	2.178149E-14	1.175280E-15
4.730000E+03	2.155027E-14	1.190946E-15
4.740000E+03	2.131859E-14	1.204570E-15
4.750000E+03	2.108738E-14	1.216266E-15
4.760000E+03	2.085834E-14	1.226199E-15
4.770000E+03	2.063241E-14	1.234496E-15
4.780000E+03	2.041103E-14	1.241318E-15
4.790000E+03	2.019505E-14	1.246793E-15
4.800000E+03	1.998581E-14	1.251082E-15
4.810000E+03	1.978402E-14	1.254306E-15
4.820000E+03	1.959072E-14	1.256606E-15
4.830000E+03	1.940665E-14	1.258104E-15
4.840000E+03	1.923268E-14	1.258927E-15
4.850000E+03	1.906923E-14	1.259170E-15
4.860000E+03	1.891684E-14	1.258931E-15
4.870000E+03	1.877613E-14	1.258311E-15
4.880000E+03	1.864734E-14	1.257378E-15
4.890000E+03	1.853093E-14	1.256214E-15
4.900000E+03	1.842701E-14	1.254867E-15
4.910000E+03	1.833592E-14	1.253400E-15
4.920000E+03	1.825763E-14	1.251842E-15
4.930000E+03	1.819222E-14	1.250225E-15
4.940000E+03	1.813986E-14	1.248581E-15
4.950000E+03	1.810034E-14	1.246911E-15
4.960000E+03	1.807356E-14	1.245216E-15
4.970000E+03	1.805937E-14	1.243490E-15
4.980000E+03	1.805738E-14	1.241703E-15
4.990000E+03	1.806766E-14	1.239852E-15
5.000000E+03	1.808935E-14	1.237865E-15
5.010000E+03	1.812257E-14	1.235731E-15
5.020000E+03	1.816634E-14	1.233359E-15
5.030000E+03	1.822046E-14	1.230707E-15
5.040000E+03	1.828402E-14	1.227678E-15
5.050000E+03	1.835668E-14	1.224213E-15
5.060000E+03	1.843737E-14	1.220197E-15
5.070000E+03	1.852550E-14	1.215546E-15
5.080000E+03	1.862006E-14	1.210143E-15
5.090000E+03	1.872016E-14	1.203878E-15
5.100000E+03	1.882506E-14	1.196650E-15
5.110000E+03	1.893347E-14	1.188320E-15
5.120000E+03	1.904461E-14	1.178781E-15
5.130000E+03	1.915751E-14	1.167915E-15
5.140000E+03	1.927106E-14	1.155597E-15
5.150000E+03	1.938451E-14	1.141724E-15
5.160000E+03	1.949662E-14	1.126168E-15
5.170000E+03	1.960695E-14	1.108849E-15
5.180000E+03	1.971458E-14	1.089664E-15
5.190000E+03	1.981866E-14	1.068518E-15
5.200000E+03	1.991883E-14	1.045348E-15
5.210000E+03	2.001444E-14	1.020079E-15
5.220000E+03	2.010537E-14	9.926682E-16
5.230000E+03	2.019099E-14	9.630550E-16
5.240000E+03	2.027162E-14	9.312275E-16
5.250000E+03	2.034708E-14	8.971561E-16
5.260000E+03	2.041750E-14	8.608313E-16
5.270000E+03	2.048293E-14	8.222450E-16
5.280000E+03	2.054393E-14	7.814156E-16
5.290000E+03	2.060090E-14	7.383619E-16
5.300000E+03	2.065418E-14	6.931055E-16
5.310000E+03	2.070430E-14	6.456869E-16
5.320000E+03	2.075210E-14	5.961656E-16
5.330000E+03	2.079799E-14	5.446074E-16
5.340000E+03	2.084282E-14	4.911178E-16
5.350000E+03	2.088677E-14	4.358357E-16
5.360000E+03	2.093079E-14	3.790060E-16
5.370000E+03	2.097488E-14	3.210272E-16
5.380000E+03	2.101947E-14	2.626792E-16
5.390000E+03	2.106444E-14	2.056334E-16
5.400000E+03	2.110920E-14	1.540220E-16
5.410000E+03	2.115198E-14	1.187201E-16
5.420000E+03	2.119095E-14	1.186554E-16
5.430000E+03	2.122307E-14	1.539935E-16
5.440000E+03	2.124533E-14	2.061212E-16
5.450000E+03	2.125799E-14	2.640797E-16
5.460000E+03	2.126103E-14	3.235968E-16
5.470000E+03	2.125476E-14	3.828916E-16
5.480000E+03	2.123955E-14	4.410995E-16
5.490000E+03	2.121573E-14	4.977431E-16
5.500000E+03	2.118370E-14	5.525332E-16
5.510000E+03	2.114342E-14	6.052714E-16
5.520000E+03	2.109572E-14	6.558455E-16
5.530000E+03	2.104079E-14	7.041683E-16
5.540000E+03	2.097885E-14	7.501817E-16
5.550000E+03	2.091053E-14	7.938653E-16
5.560000E+03	2.083581E-14	8.351941E-16
5.570000E+03	2.075534E-14	8.741819E-16
5.580000E+03	2.066952E-14	9.108480E-16
5.590000E+03	2.057834E-14	9.452036E-16
5.600000E+03	2.048262E-14	9.773065E-16
5.610000E+03	2.038234E-14	1.007184E-15
5.620000E+03	2.027811E-14	1.034901E-15
5.630000E+03	2.017031E-14	1.060517E-15
5.640000E+03	2.005913E-14	1.084085E-15
5.650000E+03	1.994513E-14	1.105687E-15
5.660000E+03	1.982828E-14	1.125370E-15
5.670000E+03	1.970934E-14	1.143231E-15
5.680000E+03	1.958843E-14	1.159333E-15
5.690000E+03	1.946607E-14	1.173763E-15
5.700000E+03	1.934212E-14	1.186571E-15
5.710000E+03	1.921725E-14	1.197852E-15
5.720000E+03	1.909145E-14	1.207665E-15
5.730000E+03	1.896489E-14	1.216074E-15
5.740000E+03	1.883786E-14	1.223153E-15
5.750000E+03	1.871043E-14	1.228960E-15
5.760000E+03	1.858218E-14	1.233517E-15
5.770000E+03	1.845364E-14	1.236908E-15
5.780000E+03	1.832428E-14	1.239145E-15
5.790000E+03	1.819410E-14	1.240271E-15
5.800000E+03	1.806305E-14	1.240324E-15
5.810000E+03	1.793043E-14	1.239296E-15
5.820000E+03	1.779627E-14	1.237225E-15
5.830000E+03	1.765998E-14	1.234105E-15
5.840000E+03	1.752134E-14	1.229951E-15
5.850000E+03	1.737970E-14	1.224749E-15
5.860000E+03	1.723502E-14	1.218524E-15
5.870000E+03	1.708646E-14	1.211242E-15
5.880000E+03	1.693400E-14	1.202927E-15
5.890000E+03	1.677708E-14	1.193562E-15
5.900000E+03	1.661556E-14	1.183160E-15
5.910000E+03	1.644901E-14	1.171713E-15
5.920000E+03	1.627745E-14	1.159242E-15
5.930000E+03	1.610082E-14	1.145762E-15
5.940000E+03	1.591932E-14	1.131308E-15
5.950000E+03	1.573275E-14	1.115884E-15
5.960000E+03	1.554190E-14	1.099566E-15
5.970000E+03	1.534680E-14	1.082372E-15
5.980000E+03	1.514813E-14	1.064369E-15
5.990000E+03	1.494650E-14	1.045616E-15
6.000000E+03	1.474263E-14	1.026178E-15
6.010000E+03	1.453751E-14	1.006140E-15
6.020000E+03	1.433203E-14	9.855751E-16
6.030000E+03	1.412715E-14	9.645605E-16
6.040000E+03	1.392388E-14	9.431739E-16
6.050000E+03	1.372343E-14	9.215033E-16
6.060000E+03	1.352667E-14	8.996112E-16
6.070000E+03	1.333483E-14	8.775784E-16
6.080000E+03	1.314890E-14	8.554682E-16
6.090000E+03	1.297004E-14	8.333469E-16
6.100000E+03	1.279898E-14	8.112506E-16
6.110000E+03	1.263690E-14	7.892365E-16
6.120000E+03	1.248422E-14	7.673100E-16
6.130000E+03	1.234191E-14	7.455048E-16
6.140000E+03	1.221038E-14	7.238129E-16
6.150000E+03	1.209023E-14	7.022331E-16
6.160000E+03	1.198162E-14	6.807331E-16
6.170000E+03	1.188510E-14	6.592955E-16
6.180000E+03	1.180075E-14	6.378729E-16
6.190000E+03	1.172858E-14	6.164064E-16
6.200000E+03	1.166845E-14	5.948274E-16
6.210000E+03	1.162029E-14	5.730659E-16
6.220000E+03	1.158377E-14	5.510356E-16
6.230000E+03	1.155830E-14	5.286365E-16
6.240000E+03	1.154353E-14	5.057787E-16
6.250000E+03	1.153869E-14	4.823552E-16
6.260000E+03	1.154325E-14	4.582715E-16
6.270000E+03	1.155647E-14	4.334273E-16
6.280000E+03	1.157752E-14	4.077259E-16
6.290000E+03	1.160536E-14	3.810724E-16
6.300000E+03	1.163954E-14	3.534038E-16
6.310000E+03	1.167890E-14	3.246500E-16
6.320000E+03	1.172257E-14	2.947741E-16
6.330000E+03	1.176962E-14	2.637719E-16
6.340000E+03	1.181907E-14	2.316933E-16
6.350000E+03	1.186969E-14	1.986791E-16
6.360000E+03	1.192052E-14	1.650615E-16
6.370000E+03	1.197031E-14	1.315789E-16
6.380000E+03	1.201770E-14	1.000294E-16
6.390000E+03	1.206099E-14	7.518557E-17
6.400000E+03	1.209844E-14	6.754046E-17
6.410000E+03	1.212841E-14	8.304741E-17
6.420000E+03	1.215176E-14	1.119429E-16
6.430000E+03	1.216859E-14	1.457539E-16
6.440000E+03	1.217937E-14	1.810421E-16
6.450000E+03	1.218407E-14	2.164262E-16
6.460000E+03	1.218276E-14	2.512634E-16
6.470000E+03	1.217544E-14	2.852061E-16
6.480000E+03	1.216225E-14	3.180483E-16
6.490000E+03	1.214293E-14	3.496455E-16
6.500000E+03	1.211760E-14	3.799044E-16
6.510000E+03	1.208618E-14	4.087533E-16
6.520000E+03	1.204877E-14	4.361458E-16
6.530000E+03	1.200534E-14	4.620438E-16
6.540000E+03	1.195621E-14	4.864359E-16
6.550000E+03	1.190120E-14	5.092990E-16
6.560000E+03	1.184088E-14	5.306507E-16
6.570000E+03	1.177509E-14	5.504849E-16
6.580000E+03	1.170409E-14	5.688190E-16
6.590000E+03	1.162834E-14	5.856871E-16
6.600000E+03	1.154793E-14	6.011117E-16
6.610000E+03	1.146335E-14	6.151399E-16
6.620000E+03	1.137476E-14	6.278046E-16
6.630000E+03	1.128264E-14	6.391629E-16
6.640000E+03	1.118718E-14	6.492554E-16
6.650000E+03	1.108870E-14	6.581360E-16
6.660000E+03	1.098774E-14	6.658720E-16
6.670000E+03	1.088465E-14	6.725224E-16
6.680000E+03	1.077958E-14	6.781357E-16
6.690000E+03	1.067289E-14	6.827724E-16
6.700000E+03	1.056507E-14	6.865048E-16
6.710000E+03	1.045626E-14	6.893821E-16
6.720000E+03	1.034696E-14	6.914759E-16
6.730000E+03	1.023746E-14	6.928454E-16
6.740000E+03	1.012786E-14	6.935362E-16
6.750000E+03	1.001859E-14	6.936163E-16
6.760000E+03	9.909912E-15	6.931396E-16
6.770000E+03	9.801874E-15	6.921458E-16
6.780000E+03	9.694689E-15	6.906844E-16
6.790000E+03	9.588890E-15	6.888266E-16
6.800000E+03	9.484313E-15	6.865927E-16
6.810000E+03	9.381281E-15	6.840366E-16
6.820000E+03	9.279934E-15	6.811975E-16
6.830000E+03	9.180224E-15	6.780998E-16
6.840000E+03	9.082424E-15	6.747895E-16
6.850000E+03	8.986456E-15	6.712859E-16
6.860000E+03	8.892717E-15	6.676419E-16
6.870000E+03	8.800940E-15	6.638596E-16
6.880000E+03	8.711168E-15	6.599631E-16
6.890000E+03	8.623750E-15	6.559980E-16
6.900000E+03	8.538381E-15	6.519597E-16
6.910000E+03	8.455224E-15	6.478776E-16
6.920000E+03	8.374113E-15	6.437551E-16
6.930000E+03	8.295186E-15	6.396174E-16
6.940000E+03	8.218412E-15	6.354763E-16
6.950000E+03	8.143597E-15	6.313297E-16
6.960000E+03	8.070846E-15	6.271978E-16
6.970000E+03	7.999948E-15	6.230754E-16
6.980000E+03	7.930991E-15	6.189796E-16
6.990000E+03	7.863898E-15	6.149142E-16
7.000000E+03	7.798439E-15	6.108701E-16
7.010000E+03	7.734676E-15	6.068603E-16
7.020000E+03	7.672364E-15	6.028733E-16
7.030000E+03	7.611403E-15	5.989081E-16
7.040000E+03	7.551838E-15	5.949745E-16
7.050000E+03	7.493556E-15	5.910697E-16
7.060000E+03	7.436148E-15	5.871666E-16
7.070000E+03	7.379791E-15	5.832841E-16
7.080000E+03	7.324363E-15	5.794168E-16
7.090000E+03	7.269595E-15	5.755474E-16
7.100000E+03	7.215362E-15	5.716697E-16
7.110000E+03	7.161541E-15	5.677768E-16
7.120000E+03	7.108154E-15	5.638734E-16
7.130000E+03	7.054788E-15	5.599291E-16
7.140000E+03	7.001615E-15	5.559597E-16
7.150000E+03	6.948518E-15	5.519577E-16
7.160000E+03	6.895101E-15	5.478932E-16
7.170000E+03	6.841405E-15	5.437707E-16
7.180000E+03	6.787334E-15	5.395838E-16
7.190000E+03	6.732943E-15	5.353376E-16
7.200000E+03	6.677872E-15	5.310043E-16
7.210000E+03	6.622337E-15	5.266015E-16
7.220000E+03	6.566002E-15	5.221030E-16
7.230000E+03	6.509106E-15	5.175279E-16
7.240000E+03	6.451341E-15	5.128520E-16
7.250000E+03	6.392833E-15	5.080853E-16
7.260000E+03	6.333718E-15	5.032386E-16
7.270000E+03	6.273736E-15	4.982910E-16
7.280000E+03	6.213054E-15	4.932555E-16
7.290000E+03	6.151713E-15	4.881352E-16
7.300000E+03	6.089770E-15	4.829342E-16
7.310000E+03	6.027296E-15	4.776575E-16
7.320000E+03	5.964505E-15	4.723215E-16
7.330000E+03	5.901224E-15	4.669119E-16
7.340000E+03	5.837822E-15	4.614569E-16
7.350000E+03	5.774278E-15	4.559541E-16
7.360000E+03	5.710843E-15	4.504220E-16
7.370000E+03	5.647510E-15	4.448588E-16
7.380000E+03	5.584668E-15	4.392937E-16
7.390000E+03	5.522443E-15	4.337351E-16
7.400000E+03	5.460966E-15	4.281911E-16
7.410000E+03	5.400490E-15	4.226795E-16
7.420000E+03	5.341140E-15	4.172077E-16
7.430000E+03	5.283285E-15	4.118018E-16
7.440000E+03	5.226789E-15	4.064481E-16
7.450000E+03	5.172007E-15	4.011708E-16
7.460000E+03	5.118916E-15	3.959644E-16
7.470000E+03	5.067485E-15	3.908226E-16
7.480000E+03	5.017921E-15	3.857568E-16
7.490000E+03	4.969935E-15	3.807405E-16
7.500000E+03	4.923837E-15	3.757921E-16
7.510000E+03	4.879559E-15	3.709014E-16
7.520000E+03	4.837029E-15	3.660569E-16
7.530000E+03	4.796396E-15	3.612642E-16
7.540000E+03	4.757565E-15	3.565094E-16
7.550000E+03	4.720428E-15	3.517779E-16
7.560000E+03	4.685218E-15	3.470799E-16
7.570000E+03	4.651803E-15	3.423980E-16
7.580000E+03	4.620044E-15	3.377140E-16
7.590000E+03	4.590021E-15	3.330257E-16
7.600000E+03	4.561572E-15	3.283127E-16
7.610000E+03	4.534642E-15	3.235622E-16
7.620000E+03	4.509282E-15	3.187685E-16
7.630000E+03	4.485418E-15	3.139168E-16
7.640000E+03	4.462737E-15	3.089754E-16
7.650000E+03	4.441381E-15	3.039440E-16
7.660000E+03	4.421138E-15	2.987978E-16
7.670000E+03	4.401906E-15	2.935194E-16
7.680000E+03	4.383694E-15	2.880987E-16
7.690000E+03	4.366274E-15	2.825099E-16
7.700000E+03	4.349531E-15	2.767347E-16
7.710000E+03	4.333462E-15	2.707623E-16
7.720000E+03	4.317832E-15	2.645671E-16
7.730000E+03	4.302635E-15	2.581382E-16
7.740000E+03	4.287634E-15	2.514511E-16
7.750000E+03	4.272825E-15	2.444958E-16
7.760000E+03	4.257972E-15	2.372494E-16
