#wls	flux	fluxerr
1.600000E+03	6.997011E-14	1.523948E-14
1.640000E+03	5.504263E-14	1.096422E-14
1.680000E+03	4.277565E-14	7.731846E-15
1.720000E+03	3.286123E-14	5.340991E-15
1.760000E+03	2.497164E-14	3.610794E-15
1.800000E+03	1.879609E-14	2.387590E-15
1.840000E+03	1.402972E-14	1.542204E-15
1.880000E+03	1.040486E-14	9.721185E-16
1.920000E+03	7.684091E-15	5.974124E-16
1.960000E+03	5.667147E-15	3.582097E-16
2.000000E+03	4.188511E-15	2.110770E-16
2.040000E+03	3.116007E-15	1.256997E-16
2.080000E+03	2.346262E-15	8.112956E-17
2.120000E+03	1.803072E-15	6.104172E-17
2.160000E+03	1.433360E-15	5.212448E-17
2.200000E+03	1.196788E-15	4.776810E-17
2.240000E+03	1.064339E-15	4.619137E-17
2.280000E+03	1.019120E-15	4.736851E-17
2.320000E+03	1.052839E-15	5.140079E-17
2.360000E+03	1.166955E-15	5.831640E-17
2.400000E+03	1.375345E-15	6.819143E-17
2.440000E+03	1.704158E-15	8.085770E-17
2.480000E+03	2.191623E-15	9.554188E-17
2.520000E+03	2.885562E-15	1.108240E-16
2.560000E+03	3.835633E-15	1.264366E-16
2.600000E+03	5.078592E-15	1.503906E-16
2.640000E+03	6.618211E-15	2.077049E-16
2.680000E+03	8.425072E-15	3.214635E-16
2.720000E+03	1.044019E-14	4.944006E-16
2.760000E+03	1.256836E-14	7.180468E-16
2.800000E+03	1.468593E-14	9.766817E-16
2.840000E+03	1.665575E-14	1.248218E-15
2.880000E+03	1.834717E-14	1.506757E-15
2.920000E+03	1.966069E-14	1.727137E-15
2.960000E+03	2.054114E-14	1.889275E-15
3.000000E+03	2.098186E-14	1.981202E-15
3.010000E+03	2.102639E-14	1.992643E-15
3.020000E+03	2.104676E-14	1.999542E-15
3.030000E+03	2.104275E-14	2.001846E-15
3.040000E+03	2.101669E-14	1.999773E-15
3.050000E+03	2.096903E-14	1.993370E-15
3.060000E+03	2.090078E-14	1.982761E-15
3.070000E+03	2.081350E-14	1.968132E-15
3.080000E+03	2.070875E-14	1.949686E-15
3.090000E+03	2.058722E-14	1.927555E-15
3.100000E+03	2.045097E-14	1.902010E-15
3.110000E+03	2.030075E-14	1.873205E-15
3.120000E+03	2.013817E-14	1.841388E-15
3.130000E+03	1.996481E-14	1.806805E-15
3.140000E+03	1.978185E-14	1.769667E-15
3.150000E+03	1.959002E-14	1.730153E-15
3.160000E+03	1.939164E-14	1.688581E-15
3.170000E+03	1.918701E-14	1.645091E-15
3.180000E+03	1.897793E-14	1.599955E-15
3.190000E+03	1.876542E-14	1.553372E-15
3.200000E+03	1.855045E-14	1.505535E-15
3.210000E+03	1.833395E-14	1.456631E-15
3.220000E+03	1.811746E-14	1.406891E-15
3.230000E+03	1.790149E-14	1.356459E-15
3.240000E+03	1.768685E-14	1.305496E-15
3.250000E+03	1.747458E-14	1.254180E-15
3.260000E+03	1.726568E-14	1.202676E-15
3.270000E+03	1.706051E-14	1.151098E-15
3.280000E+03	1.685997E-14	1.099597E-15
3.290000E+03	1.666461E-14	1.048297E-15
3.300000E+03	1.647523E-14	9.973341E-16
3.310000E+03	1.629206E-14	9.468094E-16
3.320000E+03	1.611555E-14	8.968432E-16
3.330000E+03	1.594662E-14	8.475847E-16
3.340000E+03	1.578517E-14	7.991376E-16
3.350000E+03	1.563179E-14	7.516583E-16
3.360000E+03	1.548702E-14	7.053200E-16
3.370000E+03	1.535072E-14	6.602944E-16
3.380000E+03	1.522360E-14	6.168322E-16
3.390000E+03	1.510547E-14	5.752014E-16
3.400000E+03	1.499657E-14	5.357585E-16
3.410000E+03	1.489730E-14	4.989536E-16
3.420000E+03	1.480764E-14	4.653265E-16
3.430000E+03	1.472774E-14	4.355370E-16
3.440000E+03	1.465738E-14	4.103362E-16
3.450000E+03	1.459687E-14	3.905464E-16
3.460000E+03	1.454615E-14	3.769330E-16
3.470000E+03	1.450503E-14	3.700593E-16
3.480000E+03	1.447361E-14	3.700899E-16
3.490000E+03	1.445155E-14	3.766047E-16
3.500000E+03	1.443867E-14	3.887816E-16
3.510000E+03	1.443481E-14	4.056275E-16
3.520000E+03	1.443959E-14	4.261360E-16
3.530000E+03	1.445267E-14	4.493996E-16
3.540000E+03	1.447369E-14	4.746502E-16
3.550000E+03	1.450220E-14	5.012648E-16
3.560000E+03	1.453789E-14	5.287557E-16
3.570000E+03	1.458055E-14	5.567494E-16
3.580000E+03	1.462997E-14	5.849601E-16
3.590000E+03	1.468605E-14	6.131759E-16
3.600000E+03	1.474909E-14	6.412562E-16
3.610000E+03	1.481909E-14	6.690900E-16
3.620000E+03	1.489655E-14	6.966228E-16
3.630000E+03	1.498263E-14	7.238582E-16
3.640000E+03	1.507825E-14	7.508139E-16
3.650000E+03	1.518467E-14	7.775431E-16
3.660000E+03	1.530317E-14	8.041170E-16
3.670000E+03	1.543521E-14	8.306278E-16
3.680000E+03	1.558209E-14	8.571713E-16
3.690000E+03	1.574500E-14	8.838425E-16
3.700000E+03	1.592560E-14	9.107702E-16
3.710000E+03	1.612487E-14	9.380465E-16
3.720000E+03	1.634425E-14	9.657921E-16
3.730000E+03	1.658484E-14	9.941074E-16
3.740000E+03	1.684775E-14	1.023094E-15
3.750000E+03	1.713387E-14	1.052834E-15
3.760000E+03	1.744390E-14	1.083400E-15
3.770000E+03	1.777871E-14	1.114863E-15
3.780000E+03	1.813865E-14	1.147263E-15
3.790000E+03	1.852406E-14	1.180629E-15
3.800000E+03	1.893472E-14	1.214950E-15
3.810000E+03	1.937079E-14	1.250231E-15
3.820000E+03	1.983157E-14	1.286413E-15
3.830000E+03	2.031653E-14	1.323442E-15
3.840000E+03	2.082441E-14	1.361207E-15
3.850000E+03	2.135430E-14	1.399615E-15
3.860000E+03	2.190419E-14	1.438489E-15
3.870000E+03	2.247262E-14	1.477685E-15
3.880000E+03	2.305739E-14	1.516999E-15
3.890000E+03	2.365601E-14	1.556207E-15
3.900000E+03	2.426600E-14	1.595073E-15
3.910000E+03	2.488464E-14	1.633349E-15
3.920000E+03	2.550911E-14	1.670769E-15
3.930000E+03	2.613627E-14	1.707048E-15
3.940000E+03	2.676291E-14	1.741893E-15
3.950000E+03	2.738618E-14	1.775035E-15
3.960000E+03	2.800308E-14	1.806195E-15
3.970000E+03	2.861002E-14	1.835058E-15
3.980000E+03	2.920456E-14	1.861388E-15
3.990000E+03	2.978375E-14	1.884919E-15
4.000000E+03	3.034503E-14	1.905417E-15
4.010000E+03	3.088555E-14	1.922635E-15
4.020000E+03	3.140308E-14	1.936376E-15
4.030000E+03	3.189589E-14	1.946480E-15
4.040000E+03	3.236170E-14	1.952766E-15
4.050000E+03	3.279897E-14	1.955106E-15
4.060000E+03	3.320609E-14	1.953383E-15
4.070000E+03	3.358193E-14	1.947520E-15
4.080000E+03	3.392533E-14	1.937451E-15
4.090000E+03	3.423558E-14	1.923153E-15
4.100000E+03	3.451193E-14	1.904612E-15
4.110000E+03	3.475380E-14	1.881844E-15
4.120000E+03	3.496110E-14	1.854906E-15
4.130000E+03	3.513393E-14	1.823881E-15
4.140000E+03	3.527205E-14	1.788852E-15
4.150000E+03	3.537619E-14	1.749973E-15
4.160000E+03	3.544648E-14	1.707384E-15
4.170000E+03	3.548376E-14	1.661279E-15
4.180000E+03	3.548903E-14	1.611878E-15
4.190000E+03	3.546317E-14	1.559418E-15
4.200000E+03	3.540721E-14	1.504162E-15
4.210000E+03	3.532258E-14	1.446412E-15
4.220000E+03	3.521053E-14	1.386484E-15
4.230000E+03	3.507266E-14	1.324733E-15
4.240000E+03	3.491066E-14	1.261537E-15
4.250000E+03	3.472594E-14	1.197295E-15
4.260000E+03	3.451971E-14	1.132422E-15
4.270000E+03	3.429419E-14	1.067400E-15
4.280000E+03	3.405054E-14	1.002706E-15
4.290000E+03	3.379038E-14	9.388620E-16
4.300000E+03	3.351477E-14	8.764085E-16
4.310000E+03	3.322548E-14	8.159338E-16
4.320000E+03	3.292371E-14	7.580305E-16
4.330000E+03	3.261061E-14	7.032920E-16
4.340000E+03	3.228755E-14	6.522826E-16
4.350000E+03	3.195573E-14	6.054638E-16
4.360000E+03	3.161726E-14	5.631066E-16
4.370000E+03	3.127390E-14	5.249643E-16
4.380000E+03	3.092910E-14	4.900666E-16
4.390000E+03	3.058662E-14	4.571696E-16
4.400000E+03	3.024966E-14	4.251145E-16
4.410000E+03	2.992161E-14	3.930512E-16
4.420000E+03	2.960523E-14	3.606094E-16
4.430000E+03	2.930264E-14	3.281056E-16
4.440000E+03	2.901623E-14	2.968408E-16
4.450000E+03	2.874726E-14	2.694751E-16
4.460000E+03	2.849687E-14	2.503270E-16
4.470000E+03	2.826568E-14	2.447587E-16
4.480000E+03	2.805435E-14	2.564891E-16
4.490000E+03	2.786121E-14	2.843357E-16
4.500000E+03	2.768307E-14	3.239507E-16
4.510000E+03	2.751760E-14	3.710532E-16
4.520000E+03	2.736176E-14	4.224961E-16
4.530000E+03	2.721272E-14	4.761871E-16
4.540000E+03	2.706791E-14	5.307542E-16
4.550000E+03	2.692460E-14	5.852654E-16
4.560000E+03	2.677996E-14	6.390535E-16
4.570000E+03	2.663159E-14	6.916230E-16
4.580000E+03	2.647754E-14	7.425933E-16
4.590000E+03	2.631593E-14	7.916547E-16
4.600000E+03	2.614474E-14	8.385396E-16
4.610000E+03	2.596320E-14	8.830531E-16
4.620000E+03	2.577045E-14	9.250286E-16
4.630000E+03	2.556555E-14	9.643206E-16
4.640000E+03	2.534858E-14	1.000842E-15
4.650000E+03	2.511974E-14	1.034534E-15
4.660000E+03	2.487932E-14	1.065361E-15
4.670000E+03	2.462855E-14	1.093348E-15
4.680000E+03	2.436825E-14	1.118522E-15
4.690000E+03	2.409989E-14	1.140959E-15
4.700000E+03	2.382489E-14	1.160749E-15
4.710000E+03	2.354497E-14	1.178015E-15
4.720000E+03	2.326157E-14	1.192877E-15
4.730000E+03	2.297673E-14	1.205503E-15
4.740000E+03	2.269194E-14	1.216040E-15
4.750000E+03	2.240942E-14	1.224687E-15
4.760000E+03	2.213037E-14	1.231592E-15
4.770000E+03	2.185650E-14	1.236939E-15
4.780000E+03	2.158962E-14	1.240919E-15
4.790000E+03	2.133084E-14	1.243688E-15
4.800000E+03	2.108176E-14	1.245430E-15
4.810000E+03	2.084307E-14	1.246276E-15
4.820000E+03	2.061613E-14	1.246392E-15
4.830000E+03	2.040179E-14	1.245913E-15
4.840000E+03	2.020059E-14	1.244952E-15
4.850000E+03	2.001336E-14	1.243633E-15
4.860000E+03	1.984080E-14	1.242068E-15
4.870000E+03	1.968300E-14	1.240326E-15
4.880000E+03	1.954048E-14	1.238497E-15
4.890000E+03	1.941369E-14	1.236661E-15
4.900000E+03	1.930247E-14	1.234853E-15
4.910000E+03	1.920713E-14	1.233130E-15
4.920000E+03	1.912774E-14	1.231529E-15
4.930000E+03	1.906429E-14	1.230076E-15
4.940000E+03	1.901672E-14	1.228788E-15
4.950000E+03	1.898475E-14	1.227659E-15
4.960000E+03	1.896836E-14	1.226695E-15
4.970000E+03	1.896715E-14	1.225873E-15
4.980000E+03	1.898079E-14	1.225165E-15
4.990000E+03	1.900890E-14	1.224538E-15
5.000000E+03	1.905102E-14	1.223944E-15
5.010000E+03	1.910660E-14	1.223327E-15
5.020000E+03	1.917499E-14	1.222617E-15
5.030000E+03	1.925530E-14	1.221725E-15
5.040000E+03	1.934668E-14	1.220560E-15
5.050000E+03	1.944821E-14	1.219021E-15
5.060000E+03	1.955886E-14	1.216996E-15
5.070000E+03	1.967753E-14	1.214366E-15
5.080000E+03	1.980299E-14	1.211004E-15
5.090000E+03	1.993360E-14	1.206750E-15
5.100000E+03	2.006840E-14	1.201489E-15
5.110000E+03	2.020600E-14	1.195077E-15
5.120000E+03	2.034462E-14	1.187348E-15
5.130000E+03	2.048284E-14	1.178161E-15
5.140000E+03	2.061950E-14	1.167386E-15
5.150000E+03	2.075326E-14	1.154893E-15
5.160000E+03	2.088249E-14	1.140534E-15
5.170000E+03	2.100626E-14	1.124207E-15
5.180000E+03	2.112377E-14	1.105820E-15
5.190000E+03	2.123378E-14	1.085265E-15
5.200000E+03	2.133562E-14	1.062468E-15
5.210000E+03	2.142880E-14	1.037371E-15
5.220000E+03	2.151324E-14	1.009942E-15
5.230000E+03	2.158865E-14	9.801420E-16
5.240000E+03	2.165512E-14	9.479586E-16
5.250000E+03	2.171273E-14	9.133821E-16
5.260000E+03	2.176214E-14	8.764335E-16
5.270000E+03	2.180394E-14	8.371342E-16
5.280000E+03	2.183866E-14	7.955071E-16
5.290000E+03	2.186733E-14	7.515987E-16
5.300000E+03	2.189064E-14	7.054477E-16
5.310000E+03	2.190954E-14	6.571087E-16
5.320000E+03	2.192523E-14	6.066522E-16
5.330000E+03	2.193844E-14	5.541514E-16
5.340000E+03	2.195012E-14	4.997123E-16
5.350000E+03	2.196116E-14	4.434879E-16
5.360000E+03	2.197239E-14	3.857205E-16
5.370000E+03	2.198455E-14	3.268311E-16
5.380000E+03	2.199835E-14	2.676290E-16
5.390000E+03	2.201440E-14	2.098583E-16
5.400000E+03	2.203311E-14	1.577836E-16
5.410000E+03	2.205517E-14	1.223743E-16
5.420000E+03	2.208103E-14	1.219898E-16
5.430000E+03	2.210748E-14	1.569232E-16
5.440000E+03	2.212969E-14	2.090124E-16
5.450000E+03	2.214510E-14	2.671087E-16
5.460000E+03	2.215321E-14	3.267817E-16
5.470000E+03	2.215343E-14	3.861692E-16
5.480000E+03	2.214633E-14	4.443904E-16
5.490000E+03	2.213148E-14	5.009557E-16
5.500000E+03	2.210942E-14	5.555911E-16
5.510000E+03	2.208044E-14	6.081261E-16
5.520000E+03	2.204464E-14	6.584478E-16
5.530000E+03	2.200229E-14	7.064893E-16
5.540000E+03	2.195343E-14	7.522039E-16
5.550000E+03	2.189830E-14	7.955721E-16
5.560000E+03	2.183711E-14	8.365899E-16
5.570000E+03	2.177005E-14	8.752662E-16
5.580000E+03	2.169711E-14	9.116107E-16
5.590000E+03	2.161845E-14	9.456507E-16
5.600000E+03	2.153427E-14	9.774213E-16
5.610000E+03	2.144479E-14	1.006965E-15
5.620000E+03	2.135000E-14	1.034320E-15
5.630000E+03	2.125017E-14	1.059542E-15
5.640000E+03	2.114580E-14	1.082702E-15
5.650000E+03	2.103698E-14	1.103854E-15
5.660000E+03	2.092386E-14	1.123058E-15
5.670000E+03	2.080725E-14	1.140411E-15
5.680000E+03	2.068755E-14	1.155992E-15
5.690000E+03	2.056473E-14	1.169856E-15
5.700000E+03	2.043943E-14	1.182096E-15
5.710000E+03	2.031226E-14	1.192805E-15
5.720000E+03	2.018340E-14	1.202051E-15
5.730000E+03	2.005317E-14	1.209911E-15
5.740000E+03	1.992211E-14	1.216469E-15
5.750000E+03	1.979022E-14	1.221781E-15
5.760000E+03	1.965808E-14	1.225935E-15
5.770000E+03	1.952536E-14	1.228959E-15
5.780000E+03	1.939224E-14	1.230911E-15
5.790000E+03	1.925863E-14	1.231831E-15
5.800000E+03	1.912454E-14	1.231759E-15
5.810000E+03	1.898946E-14	1.230703E-15
5.820000E+03	1.885322E-14	1.228687E-15
5.830000E+03	1.871535E-14	1.225715E-15
5.840000E+03	1.857513E-14	1.221770E-15
5.850000E+03	1.843238E-14	1.216868E-15
5.860000E+03	1.828626E-14	1.210982E-15
5.870000E+03	1.813636E-14	1.204107E-15
5.880000E+03	1.798182E-14	1.196211E-15
5.890000E+03	1.782223E-14	1.187287E-15
5.900000E+03	1.765703E-14	1.177320E-15
5.910000E+03	1.748574E-14	1.166296E-15
5.920000E+03	1.730814E-14	1.154221E-15
5.930000E+03	1.712357E-14	1.141070E-15
5.940000E+03	1.693226E-14	1.126877E-15
5.950000E+03	1.673423E-14	1.111661E-15
5.960000E+03	1.652963E-14	1.095451E-15
5.970000E+03	1.631862E-14	1.078275E-15
5.980000E+03	1.610190E-14	1.060199E-15
5.990000E+03	1.588034E-14	1.041295E-15
6.000000E+03	1.565442E-14	1.021613E-15
6.010000E+03	1.542551E-14	1.001257E-15
6.020000E+03	1.519458E-14	9.803027E-16
6.030000E+03	1.496306E-14	9.588558E-16
6.040000E+03	1.473193E-14	9.369891E-16
6.050000E+03	1.450299E-14	9.148230E-16
6.060000E+03	1.427766E-14	8.924525E-16
6.070000E+03	1.405723E-14	8.699579E-16
6.080000E+03	1.384312E-14	8.474245E-16
6.090000E+03	1.363689E-14	8.249391E-16
6.100000E+03	1.343967E-14	8.025573E-16
6.110000E+03	1.325282E-14	7.803425E-16
6.120000E+03	1.307724E-14	7.583245E-16
6.130000E+03	1.291405E-14	7.365377E-16
6.140000E+03	1.276418E-14	7.150001E-16
6.150000E+03	1.262809E-14	6.936948E-16
6.160000E+03	1.250640E-14	6.726073E-16
6.170000E+03	1.239971E-14	6.517144E-16
6.180000E+03	1.230813E-14	6.309599E-16
6.190000E+03	1.223176E-14	6.102807E-16
6.200000E+03	1.217023E-14	5.895843E-16
6.210000E+03	1.212316E-14	5.687747E-16
6.220000E+03	1.208987E-14	5.477382E-16
6.230000E+03	1.206971E-14	5.263613E-16
6.240000E+03	1.206205E-14	5.045309E-16
6.250000E+03	1.206582E-14	4.821164E-16
6.260000E+03	1.208003E-14	4.589932E-16
6.270000E+03	1.210375E-14	4.350448E-16
6.280000E+03	1.213599E-14	4.101587E-16
6.290000E+03	1.217551E-14	3.842242E-16
6.300000E+03	1.222105E-14	3.571440E-16
6.310000E+03	1.227181E-14	3.288534E-16
6.320000E+03	1.232611E-14	2.992892E-16
6.330000E+03	1.238327E-14	2.684540E-16
6.340000E+03	1.244176E-14	2.363897E-16
6.350000E+03	1.250033E-14	2.032537E-16
6.360000E+03	1.255812E-14	1.694127E-16
6.370000E+03	1.261372E-14	1.356718E-16
6.380000E+03	1.266596E-14	1.039659E-16
6.390000E+03	1.271381E-14	7.925192E-17
6.400000E+03	1.275673E-14	7.179485E-17
6.410000E+03	1.279387E-14	8.713795E-17
6.420000E+03	1.282438E-14	1.161431E-16
6.430000E+03	1.284792E-14	1.503482E-16
6.440000E+03	1.286437E-14	1.861326E-16
6.450000E+03	1.287372E-14	2.220066E-16
6.460000E+03	1.287581E-14	2.572671E-16
6.470000E+03	1.287064E-14	2.915383E-16
6.480000E+03	1.285822E-14	3.245962E-16
6.490000E+03	1.283874E-14	3.563016E-16
6.500000E+03	1.281221E-14	3.865576E-16
6.510000E+03	1.277862E-14	4.152967E-16
6.520000E+03	1.273837E-14	4.424857E-16
6.530000E+03	1.269129E-14	4.680881E-16
6.540000E+03	1.263783E-14	4.921012E-16
6.550000E+03	1.257804E-14	5.145193E-16
6.560000E+03	1.251241E-14	5.353625E-16
6.570000E+03	1.244105E-14	5.546433E-16
6.580000E+03	1.236426E-14	5.723901E-16
6.590000E+03	1.228240E-14	5.886381E-16
6.600000E+03	1.219601E-14	6.034386E-16
6.610000E+03	1.210505E-14	6.168186E-16
6.620000E+03	1.201030E-14	6.288492E-16
6.630000E+03	1.191192E-14	6.395750E-16
6.640000E+03	1.181029E-14	6.490536E-16
6.650000E+03	1.170599E-14	6.573558E-16
6.660000E+03	1.159899E-14	6.645212E-16
6.670000E+03	1.149006E-14	6.706342E-16
6.680000E+03	1.137934E-14	6.757467E-16
6.690000E+03	1.126718E-14	6.799213E-16
6.700000E+03	1.115412E-14	6.832319E-16
6.710000E+03	1.104028E-14	6.857282E-16
6.720000E+03	1.092596E-14	6.874702E-16
6.730000E+03	1.081146E-14	6.885162E-16
6.740000E+03	1.069723E-14	6.889346E-16
6.750000E+03	1.058333E-14	6.887679E-16
6.760000E+03	1.047001E-14	6.880683E-16
6.770000E+03	1.035767E-14	6.868974E-16
6.780000E+03	1.024631E-14	6.852904E-16
6.790000E+03	1.013614E-14	6.832920E-16
6.800000E+03	1.002747E-14	6.809561E-16
6.810000E+03	9.920113E-15	6.782980E-16
6.820000E+03	9.814546E-15	6.753786E-16
6.830000E+03	9.710881E-15	6.722323E-16
6.840000E+03	9.608864E-15	6.688663E-16
6.850000E+03	9.508929E-15	6.653344E-16
6.860000E+03	9.410970E-15	6.616513E-16
6.870000E+03	9.315043E-15	6.578417E-16
6.880000E+03	9.221191E-15	6.539282E-16
6.890000E+03	9.129445E-15	6.499313E-16
6.900000E+03	9.039994E-15	6.458816E-16
6.910000E+03	8.952509E-15	6.417716E-16
6.920000E+03	8.867323E-15	6.376403E-16
6.930000E+03	8.784093E-15	6.334770E-16
6.940000E+03	8.703128E-15	6.293171E-16
6.950000E+03	8.624069E-15	6.251469E-16
6.960000E+03	8.547204E-15	6.209987E-16
6.970000E+03	8.472159E-15	6.168559E-16
6.980000E+03	8.399042E-15	6.127363E-16
6.990000E+03	8.327788E-15	6.086443E-16
7.000000E+03	8.258163E-15	6.045714E-16
7.010000E+03	8.190407E-15	6.005431E-16
7.020000E+03	8.124113E-15	5.965368E-16
7.030000E+03	8.059186E-15	5.925521E-16
7.040000E+03	7.995681E-15	5.885995E-16
7.050000E+03	7.933489E-15	5.846764E-16
7.060000E+03	7.872336E-15	5.807679E-16
7.070000E+03	7.812102E-15	5.768698E-16
7.080000E+03	7.752817E-15	5.729882E-16
7.090000E+03	7.694193E-15	5.691060E-16
7.100000E+03	7.636097E-15	5.652165E-16
7.110000E+03	7.578393E-15	5.613125E-16
7.120000E+03	7.521098E-15	5.573978E-16
7.130000E+03	7.463768E-15	5.534418E-16
7.140000E+03	7.406572E-15	5.494589E-16
7.150000E+03	7.349074E-15	5.454183E-16
7.160000E+03	7.291298E-15	5.413230E-16
7.170000E+03	7.233123E-15	5.371651E-16
7.180000E+03	7.174434E-15	5.329370E-16
7.190000E+03	7.114978E-15	5.286204E-16
7.200000E+03	7.054811E-15	5.242201E-16
7.210000E+03	6.993852E-15	5.197303E-16
7.220000E+03	6.931887E-15	5.151353E-16
7.230000E+03	6.868864E-15	5.104316E-16
7.240000E+03	6.804896E-15	5.056275E-16
7.250000E+03	6.739820E-15	5.007110E-16
7.260000E+03	6.673635E-15	4.956820E-16
7.270000E+03	6.606507E-15	4.905528E-16
7.280000E+03	6.538327E-15	4.853152E-16
7.290000E+03	6.469152E-15	4.799733E-16
7.300000E+03	6.399339E-15	4.745534E-16
7.310000E+03	6.328552E-15	4.690305E-16
7.320000E+03	6.257322E-15	4.634435E-16
7.330000E+03	6.185486E-15	4.577801E-16
7.340000E+03	6.113456E-15	4.520703E-16
7.350000E+03	6.041238E-15	4.463138E-16
7.360000E+03	5.969120E-15	4.405313E-16
7.370000E+03	5.897396E-15	4.347436E-16
7.380000E+03	5.826094E-15	4.289516E-16
7.390000E+03	5.755779E-15	4.231956E-16
7.400000E+03	5.686478E-15	4.174760E-16
7.410000E+03	5.618353E-15	4.118027E-16
7.420000E+03	5.552083E-15	4.062235E-16
7.430000E+03	5.487420E-15	4.007176E-16
7.440000E+03	5.424895E-15	3.953208E-16
7.450000E+03	5.364635E-15	3.900392E-16
7.460000E+03	5.306503E-15	3.848592E-16
7.470000E+03	5.250486E-15	3.797758E-16
7.480000E+03	5.196687E-15	3.747922E-16
7.490000E+03	5.145071E-15	3.699013E-16
7.500000E+03	5.095717E-15	3.651037E-16
7.510000E+03	5.048566E-15	3.603898E-16
7.520000E+03	5.003547E-15	3.557487E-16
7.530000E+03	4.960697E-15	3.511770E-16
7.540000E+03	4.920041E-15	3.466699E-16
7.550000E+03	4.881465E-15	3.422124E-16
7.560000E+03	4.845085E-15	3.378054E-16
7.570000E+03	4.810639E-15	3.334229E-16
7.580000E+03	4.778334E-15	3.290712E-16
7.590000E+03	4.748002E-15	3.247304E-16
7.600000E+03	4.719466E-15	3.203793E-16
7.610000E+03	4.692773E-15	3.160123E-16
7.620000E+03	4.667722E-15	3.116061E-16
7.630000E+03	4.644341E-15	3.071529E-16
7.640000E+03	4.622529E-15	3.026358E-16
7.650000E+03	4.602057E-15	2.980292E-16
7.660000E+03	4.582927E-15	2.933226E-16
7.670000E+03	4.564899E-15	2.884894E-16
7.680000E+03	4.547963E-15	2.835178E-16
7.690000E+03	4.531987E-15	2.783878E-16
7.700000E+03	4.516717E-15	2.730721E-16
7.710000E+03	4.502134E-15	2.675577E-16
7.720000E+03	4.488098E-15	2.618243E-16
7.730000E+03	4.474470E-15	2.558515E-16
7.740000E+03	4.461112E-15	2.496193E-16
7.750000E+03	4.447887E-15	2.431083E-16
7.760000E+03	4.434661E-15	2.362996E-16
