#wls	flux	fluxerr
1.600000E+03	8.707037E-16	2.624888E-16
1.640000E+03	8.047934E-16	2.292035E-16
1.680000E+03	7.464920E-16	2.004410E-16
1.720000E+03	6.953488E-16	1.757212E-16
1.760000E+03	6.510321E-16	1.546275E-16
1.800000E+03	6.127883E-16	1.366793E-16
1.840000E+03	5.803674E-16	1.215567E-16
1.880000E+03	5.534370E-16	1.089511E-16
1.920000E+03	5.315313E-16	9.856033E-17
1.960000E+03	5.146013E-16	9.019020E-17
2.000000E+03	5.022873E-16	8.360878E-17
2.040000E+03	4.945384E-16	7.865395E-17
2.080000E+03	4.913373E-16	7.517429E-17
2.120000E+03	4.924678E-16	7.299037E-17
2.160000E+03	4.980657E-16	7.197769E-17
2.200000E+03	5.082175E-16	7.200620E-17
2.240000E+03	5.228030E-16	7.292584E-17
2.280000E+03	5.417132E-16	7.460501E-17
2.320000E+03	5.650772E-16	7.696680E-17
2.360000E+03	5.925928E-16	7.990302E-17
2.400000E+03	6.243220E-16	8.338895E-17
2.440000E+03	6.599194E-16	8.738367E-17
2.480000E+03	6.991148E-16	9.189798E-17
2.520000E+03	7.415310E-16	9.696720E-17
2.560000E+03	7.865742E-16	1.026264E-16
2.600000E+03	8.337216E-16	1.089279E-16
2.640000E+03	8.822416E-16	1.158768E-16
2.680000E+03	9.311935E-16	1.234014E-16
2.720000E+03	9.797709E-16	1.313762E-16
2.760000E+03	1.027133E-15	1.395929E-16
2.800000E+03	1.072553E-15	1.477871E-16
2.840000E+03	1.115227E-15	1.556294E-16
2.880000E+03	1.153726E-15	1.626700E-16
2.920000E+03	1.187408E-15	1.685618E-16
2.960000E+03	1.215322E-15	1.729333E-16
3.000000E+03	1.237151E-15	1.755457E-16
3.010000E+03	1.241523E-15	1.758878E-16
3.020000E+03	1.245659E-15	1.761303E-16
3.030000E+03	1.249334E-15	1.762399E-16
3.040000E+03	1.252657E-15	1.762315E-16
3.050000E+03	1.255521E-15	1.760892E-16
3.060000E+03	1.258035E-15	1.758282E-16
3.070000E+03	1.260202E-15	1.754488E-16
3.080000E+03	1.262024E-15	1.749515E-16
3.090000E+03	1.263397E-15	1.743223E-16
3.100000E+03	1.264539E-15	1.735922E-16
3.110000E+03	1.265346E-15	1.727478E-16
3.120000E+03	1.265719E-15	1.717768E-16
3.130000E+03	1.265875E-15	1.707101E-16
3.140000E+03	1.265713E-15	1.695360E-16
3.150000E+03	1.265240E-15	1.682572E-16
3.160000E+03	1.264466E-15	1.668769E-16
3.170000E+03	1.263497E-15	1.654117E-16
3.180000E+03	1.262242E-15	1.638518E-16
3.190000E+03	1.260809E-15	1.622137E-16
3.200000E+03	1.259204E-15	1.605009E-16
3.210000E+03	1.257340E-15	1.587048E-16
3.220000E+03	1.255323E-15	1.568418E-16
3.230000E+03	1.253258E-15	1.549276E-16
3.240000E+03	1.250962E-15	1.529425E-16
3.250000E+03	1.248637E-15	1.509141E-16
3.260000E+03	1.246290E-15	1.488457E-16
3.270000E+03	1.243837E-15	1.467302E-16
3.280000E+03	1.241381E-15	1.445825E-16
3.290000E+03	1.238842E-15	1.423961E-16
3.300000E+03	1.236410E-15	1.401954E-16
3.310000E+03	1.234093E-15	1.379835E-16
3.320000E+03	1.231813E-15	1.357538E-16
3.330000E+03	1.229667E-15	1.335194E-16
3.340000E+03	1.227664E-15	1.312833E-16
3.350000E+03	1.225817E-15	1.290485E-16
3.360000E+03	1.224218E-15	1.268266E-16
3.370000E+03	1.222876E-15	1.246199E-16
3.380000E+03	1.221803E-15	1.224306E-16
3.390000E+03	1.221168E-15	1.202767E-16
3.400000E+03	1.220821E-15	1.181440E-16
3.410000E+03	1.220854E-15	1.160422E-16
3.420000E+03	1.221432E-15	1.139873E-16
3.430000E+03	1.222488E-15	1.119729E-16
3.440000E+03	1.224108E-15	1.100069E-16
3.450000E+03	1.226306E-15	1.080901E-16
3.460000E+03	1.229241E-15	1.062360E-16
3.470000E+03	1.232851E-15	1.044383E-16
3.480000E+03	1.237224E-15	1.027036E-16
3.490000E+03	1.242446E-15	1.010382E-16
3.500000E+03	1.248533E-15	9.944194E-17
3.510000E+03	1.255645E-15	9.792628E-17
3.520000E+03	1.263730E-15	9.648562E-17
3.530000E+03	1.272880E-15	9.512574E-17
3.540000E+03	1.283188E-15	9.385219E-17
3.550000E+03	1.294683E-15	9.266552E-17
3.560000E+03	1.307397E-15	9.156677E-17
3.570000E+03	1.321299E-15	9.055282E-17
3.580000E+03	1.336565E-15	8.963483E-17
3.590000E+03	1.353109E-15	8.880608E-17
3.600000E+03	1.370984E-15	8.806956E-17
3.610000E+03	1.390248E-15	8.742854E-17
3.620000E+03	1.410964E-15	8.688645E-17
3.630000E+03	1.433199E-15	8.644690E-17
3.640000E+03	1.456899E-15	8.610593E-17
3.650000E+03	1.482270E-15	8.587508E-17
3.660000E+03	1.509267E-15	8.575056E-17
3.670000E+03	1.538039E-15	8.573963E-17
3.680000E+03	1.568611E-15	8.584200E-17
3.690000E+03	1.601073E-15	8.606064E-17
3.700000E+03	1.635451E-15	8.639472E-17
3.710000E+03	1.671832E-15	8.684639E-17
3.720000E+03	1.710367E-15	8.742046E-17
3.730000E+03	1.751003E-15	8.811126E-17
3.740000E+03	1.793811E-15	8.891912E-17
3.750000E+03	1.838847E-15	8.984362E-17
3.760000E+03	1.886151E-15	9.088359E-17
3.770000E+03	1.935680E-15	9.203390E-17
3.780000E+03	1.987431E-15	9.329171E-17
3.790000E+03	2.041374E-15	9.465330E-17
3.800000E+03	2.097380E-15	9.611086E-17
3.810000E+03	2.155350E-15	9.765867E-17
3.820000E+03	2.215079E-15	9.928683E-17
3.830000E+03	2.276384E-15	1.009874E-16
3.840000E+03	2.339039E-15	1.027511E-16
3.850000E+03	2.402770E-15	1.045675E-16
3.860000E+03	2.467120E-15	1.064188E-16
3.870000E+03	2.531795E-15	1.082951E-16
3.880000E+03	2.596393E-15	1.101823E-16
3.890000E+03	2.660334E-15	1.120590E-16
3.900000E+03	2.723151E-15	1.139090E-16
3.910000E+03	2.784438E-15	1.157187E-16
3.920000E+03	2.843560E-15	1.174646E-16
3.930000E+03	2.900112E-15	1.191325E-16
3.940000E+03	2.953486E-15	1.206995E-16
3.950000E+03	3.003258E-15	1.221493E-16
3.960000E+03	3.049120E-15	1.234702E-16
3.970000E+03	3.090607E-15	1.246427E-16
3.980000E+03	3.127469E-15	1.256559E-16
3.990000E+03	3.159532E-15	1.265009E-16
4.000000E+03	3.186706E-15	1.271718E-16
4.010000E+03	3.208841E-15	1.276597E-16
4.020000E+03	3.226089E-15	1.279675E-16
4.030000E+03	3.238469E-15	1.280925E-16
4.040000E+03	3.246357E-15	1.280460E-16
4.050000E+03	3.249846E-15	1.278280E-16
4.060000E+03	3.249432E-15	1.274547E-16
4.070000E+03	3.245383E-15	1.269332E-16
4.080000E+03	3.238140E-15	1.262774E-16
4.090000E+03	3.228162E-15	1.255024E-16
4.100000E+03	3.215858E-15	1.246211E-16
4.110000E+03	3.201702E-15	1.236493E-16
4.120000E+03	3.186163E-15	1.226025E-16
4.130000E+03	3.169689E-15	1.214956E-16
4.140000E+03	3.152594E-15	1.203380E-16
4.150000E+03	3.135402E-15	1.191474E-16
4.160000E+03	3.118374E-15	1.179311E-16
4.170000E+03	3.101917E-15	1.167017E-16
4.180000E+03	3.086292E-15	1.154663E-16
4.190000E+03	3.071789E-15	1.142325E-16
4.200000E+03	3.058670E-15	1.130065E-16
4.210000E+03	3.047225E-15	1.117953E-16
4.220000E+03	3.037561E-15	1.105984E-16
4.230000E+03	3.029979E-15	1.094222E-16
4.240000E+03	3.024607E-15	1.082659E-16
4.250000E+03	3.021563E-15	1.071283E-16
4.260000E+03	3.021161E-15	1.060145E-16
4.270000E+03	3.023455E-15	1.049201E-16
4.280000E+03	3.028703E-15	1.038475E-16
4.290000E+03	3.036962E-15	1.027923E-16
4.300000E+03	3.048542E-15	1.017588E-16
4.310000E+03	3.063561E-15	1.007455E-16
4.320000E+03	3.082244E-15	9.975493E-17
4.330000E+03	3.104769E-15	9.879000E-17
4.340000E+03	3.131421E-15	9.785865E-17
4.350000E+03	3.162338E-15	9.696701E-17
4.360000E+03	3.197805E-15	9.612925E-17
4.370000E+03	3.238052E-15	9.536222E-17
4.380000E+03	3.283247E-15	9.468638E-17
4.390000E+03	3.333589E-15	9.412949E-17
4.400000E+03	3.389249E-15	9.372572E-17
4.410000E+03	3.450311E-15	9.351462E-17
4.420000E+03	3.516967E-15	9.354635E-17
4.430000E+03	3.589099E-15	9.386958E-17
4.440000E+03	3.666783E-15	9.454320E-17
4.450000E+03	3.749816E-15	9.562076E-17
4.460000E+03	3.837969E-15	9.715312E-17
4.470000E+03	3.930868E-15	9.918096E-17
4.480000E+03	4.028103E-15	1.017329E-16
4.490000E+03	4.129109E-15	1.048192E-16
4.500000E+03	4.233215E-15	1.084307E-16
4.510000E+03	4.339586E-15	1.125375E-16
4.520000E+03	4.447457E-15	1.170959E-16
4.530000E+03	4.555845E-15	1.220441E-16
4.540000E+03	4.663614E-15	1.273066E-16
4.550000E+03	4.769674E-15	1.328027E-16
4.560000E+03	4.872827E-15	1.384450E-16
4.570000E+03	4.971919E-15	1.441465E-16
4.580000E+03	5.065688E-15	1.498174E-16
4.590000E+03	5.153130E-15	1.553778E-16
4.600000E+03	5.233219E-15	1.607501E-16
4.610000E+03	5.305008E-15	1.658628E-16
4.620000E+03	5.367944E-15	1.706611E-16
4.630000E+03	5.421625E-15	1.750994E-16
4.640000E+03	5.465755E-15	1.791404E-16
4.650000E+03	5.500563E-15	1.827688E-16
4.660000E+03	5.526181E-15	1.859707E-16
4.670000E+03	5.543385E-15	1.887581E-16
4.680000E+03	5.552741E-15	1.911407E-16
4.690000E+03	5.555392E-15	1.931512E-16
4.700000E+03	5.552263E-15	1.948187E-16
4.710000E+03	5.544488E-15	1.961821E-16
4.720000E+03	5.533361E-15	1.972887E-16
4.730000E+03	5.519955E-15	1.981797E-16
4.740000E+03	5.505409E-15	1.989004E-16
4.750000E+03	5.490695E-15	1.994908E-16
4.760000E+03	5.476590E-15	1.999847E-16
4.770000E+03	5.463903E-15	2.004176E-16
4.780000E+03	5.453077E-15	2.008116E-16
4.790000E+03	5.444430E-15	2.011842E-16
4.800000E+03	5.438089E-15	2.015461E-16
4.810000E+03	5.433986E-15	2.019003E-16
4.820000E+03	5.431866E-15	2.022429E-16
4.830000E+03	5.431295E-15	2.025634E-16
4.840000E+03	5.431674E-15	2.028450E-16
4.850000E+03	5.432263E-15	2.030656E-16
4.860000E+03	5.432202E-15	2.031985E-16
4.870000E+03	5.430482E-15	2.032117E-16
4.880000E+03	5.426227E-15	2.030778E-16
4.890000E+03	5.418302E-15	2.027596E-16
4.900000E+03	5.405727E-15	2.022256E-16
4.910000E+03	5.387659E-15	2.014488E-16
4.920000E+03	5.363315E-15	2.004040E-16
4.930000E+03	5.332080E-15	1.990716E-16
4.940000E+03	5.293538E-15	1.974386E-16
4.950000E+03	5.247453E-15	1.954981E-16
4.960000E+03	5.193956E-15	1.932559E-16
4.970000E+03	5.133437E-15	1.907270E-16
4.980000E+03	5.066369E-15	1.879289E-16
4.990000E+03	4.993688E-15	1.848958E-16
5.000000E+03	4.916314E-15	1.816610E-16
5.010000E+03	4.835554E-15	1.782722E-16
5.020000E+03	4.752725E-15	1.747770E-16
5.030000E+03	4.669169E-15	1.712243E-16
5.040000E+03	4.586360E-15	1.676674E-16
5.050000E+03	4.505703E-15	1.641568E-16
5.060000E+03	4.428503E-15	1.607391E-16
5.070000E+03	4.356127E-15	1.574623E-16
5.080000E+03	4.289689E-15	1.543646E-16
5.090000E+03	4.230192E-15	1.514789E-16
5.100000E+03	4.178687E-15	1.488385E-16
5.110000E+03	4.135876E-15	1.464627E-16
5.120000E+03	4.102424E-15	1.443679E-16
5.130000E+03	4.078926E-15	1.425659E-16
5.140000E+03	4.065822E-15	1.410613E-16
5.150000E+03	4.063458E-15	1.398532E-16
5.160000E+03	4.072048E-15	1.389339E-16
5.170000E+03	4.091860E-15	1.382952E-16
5.180000E+03	4.122921E-15	1.379184E-16
5.190000E+03	4.165371E-15	1.377862E-16
5.200000E+03	4.219169E-15	1.378727E-16
5.210000E+03	4.284275E-15	1.381495E-16
5.220000E+03	4.360655E-15	1.385865E-16
5.230000E+03	4.448160E-15	1.391476E-16
5.240000E+03	4.546665E-15	1.397960E-16
5.250000E+03	4.656084E-15	1.404952E-16
5.260000E+03	4.776241E-15	1.412059E-16
5.270000E+03	4.907023E-15	1.418921E-16
5.280000E+03	5.048400E-15	1.425231E-16
5.290000E+03	5.200336E-15	1.430730E-16
5.300000E+03	5.362802E-15	1.435241E-16
5.310000E+03	5.535885E-15	1.438730E-16
5.320000E+03	5.719801E-15	1.441349E-16
5.330000E+03	5.914730E-15	1.443439E-16
5.340000E+03	6.121028E-15	1.445635E-16
5.350000E+03	6.338973E-15	1.448853E-16
5.360000E+03	6.568912E-15	1.454366E-16
5.370000E+03	6.811219E-15	1.463817E-16
5.380000E+03	7.066033E-15	1.479138E-16
5.390000E+03	7.333452E-15	1.502517E-16
5.400000E+03	7.613087E-15	1.536162E-16
5.410000E+03	7.904478E-15	1.582180E-16
5.420000E+03	8.206481E-15	1.642223E-16
5.430000E+03	8.517567E-15	1.717331E-16
5.440000E+03	8.835341E-15	1.807699E-16
5.450000E+03	9.157109E-15	1.912751E-16
5.460000E+03	9.479177E-15	2.031049E-16
5.470000E+03	9.797630E-15	2.160565E-16
5.480000E+03	1.010768E-14	2.298681E-16
5.490000E+03	1.040456E-14	2.442520E-16
5.500000E+03	1.068296E-14	2.588917E-16
5.510000E+03	1.093788E-14	2.734723E-16
5.520000E+03	1.116453E-14	2.876835E-16
5.530000E+03	1.135862E-14	3.012339E-16
5.540000E+03	1.151661E-14	3.138604E-16
5.550000E+03	1.163599E-14	3.253412E-16
5.560000E+03	1.171510E-14	3.354930E-16
5.570000E+03	1.175378E-14	3.441918E-16
5.580000E+03	1.175267E-14	3.513562E-16
5.590000E+03	1.171365E-14	3.569599E-16
5.600000E+03	1.163970E-14	3.610296E-16
5.610000E+03	1.153440E-14	3.636297E-16
5.620000E+03	1.140220E-14	3.648698E-16
5.630000E+03	1.124786E-14	3.648861E-16
5.640000E+03	1.107635E-14	3.638368E-16
5.650000E+03	1.089252E-14	3.618902E-16
5.660000E+03	1.070130E-14	3.592273E-16
5.670000E+03	1.050726E-14	3.560274E-16
5.680000E+03	1.031425E-14	3.524515E-16
5.690000E+03	1.012602E-14	3.486624E-16
5.700000E+03	9.945432E-15	3.447958E-16
5.710000E+03	9.774875E-15	3.409724E-16
5.720000E+03	9.616149E-15	3.372922E-16
5.730000E+03	9.470570E-15	3.338373E-16
5.740000E+03	9.338713E-15	3.306619E-16
5.750000E+03	9.220733E-15	3.278024E-16
5.760000E+03	9.116398E-15	3.252782E-16
5.770000E+03	9.024945E-15	3.230861E-16
5.780000E+03	8.945042E-15	3.211989E-16
5.790000E+03	8.875377E-15	3.195859E-16
5.800000E+03	8.814166E-15	3.181959E-16
5.810000E+03	8.759309E-15	3.169625E-16
5.820000E+03	8.708625E-15	3.158127E-16
5.830000E+03	8.659835E-15	3.146671E-16
5.840000E+03	8.610716E-15	3.134458E-16
5.850000E+03	8.558920E-15	3.120624E-16
5.860000E+03	8.502223E-15	3.104335E-16
5.870000E+03	8.438851E-15	3.084913E-16
5.880000E+03	8.367037E-15	3.061684E-16
5.890000E+03	8.285414E-15	3.034122E-16
5.900000E+03	8.192902E-15	3.001814E-16
5.910000E+03	8.088893E-15	2.964531E-16
5.920000E+03	7.973267E-15	2.922236E-16
5.930000E+03	7.846215E-15	2.875016E-16
5.940000E+03	7.708153E-15	2.823053E-16
5.950000E+03	7.560068E-15	2.766746E-16
5.960000E+03	7.403157E-15	2.706576E-16
5.970000E+03	7.238770E-15	2.643081E-16
5.980000E+03	7.068495E-15	2.576887E-16
5.990000E+03	6.894023E-15	2.508655E-16
6.000000E+03	6.717076E-15	2.439052E-16
6.010000E+03	6.539360E-15	2.368732E-16
6.020000E+03	6.362451E-15	2.298295E-16
6.030000E+03	6.187826E-15	2.228299E-16
6.040000E+03	6.017024E-15	2.159315E-16
6.050000E+03	5.851244E-15	2.091787E-16
6.060000E+03	5.691539E-15	2.026094E-16
6.070000E+03	5.538869E-15	1.962576E-16
6.080000E+03	5.394047E-15	1.901511E-16
6.090000E+03	5.257748E-15	1.843117E-16
6.100000E+03	5.130527E-15	1.787555E-16
6.110000E+03	5.012829E-15	1.734940E-16
6.120000E+03	4.905008E-15	1.685334E-16
6.130000E+03	4.807296E-15	1.638746E-16
6.140000E+03	4.719963E-15	1.595176E-16
6.150000E+03	4.643135E-15	1.554559E-16
6.160000E+03	4.576953E-15	1.516814E-16
6.170000E+03	4.521582E-15	1.481848E-16
6.180000E+03	4.477038E-15	1.449498E-16
6.190000E+03	4.443425E-15	1.419608E-16
6.200000E+03	4.420856E-15	1.392007E-16
6.210000E+03	4.409547E-15	1.366535E-16
6.220000E+03	4.409643E-15	1.342992E-16
6.230000E+03	4.421226E-15	1.321144E-16
6.240000E+03	4.444639E-15	1.300829E-16
6.250000E+03	4.480030E-15	1.281817E-16
6.260000E+03	4.527721E-15	1.263940E-16
6.270000E+03	4.587971E-15	1.247028E-16
6.280000E+03	4.661164E-15	1.230983E-16
6.290000E+03	4.747605E-15	1.215744E-16
6.300000E+03	4.847700E-15	1.201370E-16
6.310000E+03	4.961743E-15	1.188022E-16
6.320000E+03	5.090094E-15	1.176057E-16
6.330000E+03	5.232943E-15	1.166026E-16
6.340000E+03	5.390493E-15	1.158772E-16
6.350000E+03	5.562697E-15	1.155417E-16
6.360000E+03	5.749451E-15	1.157421E-16
6.370000E+03	5.950378E-15	1.166508E-16
6.380000E+03	6.164772E-15	1.184553E-16
6.390000E+03	6.391753E-15	1.213439E-16
6.400000E+03	6.630115E-15	1.254793E-16
6.410000E+03	6.878141E-15	1.309718E-16
6.420000E+03	7.133876E-15	1.378661E-16
6.430000E+03	7.394981E-15	1.461310E-16
6.440000E+03	7.658750E-15	1.556632E-16
6.450000E+03	7.922131E-15	1.662988E-16
6.460000E+03	8.181873E-15	1.778306E-16
6.470000E+03	8.434225E-15	1.900159E-16
6.480000E+03	8.675663E-15	2.026036E-16
6.490000E+03	8.902240E-15	2.153290E-16
6.500000E+03	9.110062E-15	2.279301E-16
6.510000E+03	9.295507E-15	2.401574E-16
6.520000E+03	9.455153E-15	2.517753E-16
6.530000E+03	9.586095E-15	2.625733E-16
6.540000E+03	9.685955E-15	2.723673E-16
6.550000E+03	9.752961E-15	2.810043E-16
6.560000E+03	9.786016E-15	2.883646E-16
6.570000E+03	9.784842E-15	2.943672E-16
6.580000E+03	9.749761E-15	2.989634E-16
6.590000E+03	9.681785E-15	3.021393E-16
6.600000E+03	9.582570E-15	3.039143E-16
6.610000E+03	9.454451E-15	3.043414E-16
6.620000E+03	9.300240E-15	3.035002E-16
6.630000E+03	9.122788E-15	3.014815E-16
6.640000E+03	8.925760E-15	2.984112E-16
6.650000E+03	8.712420E-15	2.944095E-16
6.660000E+03	8.486497E-15	2.896180E-16
6.670000E+03	8.251346E-15	2.841703E-16
6.680000E+03	8.010373E-15	2.782054E-16
6.690000E+03	7.766662E-15	2.718533E-16
6.700000E+03	7.523019E-15	2.652363E-16
6.710000E+03	7.282023E-15	2.584690E-16
6.720000E+03	7.045647E-15	2.516448E-16
6.730000E+03	6.815957E-15	2.448599E-16
6.740000E+03	6.594240E-15	2.381818E-16
6.750000E+03	6.381794E-15	2.316774E-16
6.760000E+03	6.179286E-15	2.253893E-16
6.770000E+03	5.987427E-15	2.193602E-16
6.780000E+03	5.806448E-15	2.136140E-16
6.790000E+03	5.636448E-15	2.081683E-16
6.800000E+03	5.477419E-15	2.030352E-16
6.810000E+03	5.329066E-15	1.982151E-16
6.820000E+03	5.191117E-15	1.937078E-16
6.830000E+03	5.063140E-15	1.895061E-16
6.840000E+03	4.944576E-15	1.855971E-16
6.850000E+03	4.834956E-15	1.819700E-16
6.860000E+03	4.733778E-15	1.786123E-16
6.870000E+03	4.640351E-15	1.755034E-16
6.880000E+03	4.554173E-15	1.726293E-16
6.890000E+03	4.474697E-15	1.699736E-16
6.900000E+03	4.401343E-15	1.675180E-16
6.910000E+03	4.333737E-15	1.652519E-16
6.920000E+03	4.271369E-15	1.631587E-16
6.930000E+03	4.213826E-15	1.612256E-16
6.940000E+03	4.160741E-15	1.594408E-16
6.950000E+03	4.111792E-15	1.577943E-16
6.960000E+03	4.066701E-15	1.562774E-16
6.970000E+03	4.025238E-15	1.548829E-16
6.980000E+03	3.987214E-15	1.536053E-16
6.990000E+03	3.952430E-15	1.524381E-16
7.000000E+03	3.920885E-15	1.513827E-16
7.010000E+03	3.892400E-15	1.504332E-16
7.020000E+03	3.867041E-15	1.495932E-16
7.030000E+03	3.844689E-15	1.488589E-16
7.040000E+03	3.825354E-15	1.482315E-16
7.050000E+03	3.809168E-15	1.477167E-16
7.060000E+03	3.796012E-15	1.473105E-16
7.070000E+03	3.786092E-15	1.470213E-16
7.080000E+03	3.779353E-15	1.468473E-16
7.090000E+03	3.775840E-15	1.467907E-16
7.100000E+03	3.775597E-15	1.468534E-16
7.110000E+03	3.778703E-15	1.470388E-16
7.120000E+03	3.785069E-15	1.473434E-16
7.130000E+03	3.794745E-15	1.477695E-16
7.140000E+03	3.807760E-15	1.483183E-16
7.150000E+03	3.823911E-15	1.489819E-16
7.160000E+03	3.843287E-15	1.497638E-16
7.170000E+03	3.865637E-15	1.506540E-16
7.180000E+03	3.890950E-15	1.516523E-16
7.190000E+03	3.919033E-15	1.527508E-16
7.200000E+03	3.949725E-15	1.539430E-16
7.210000E+03	3.982787E-15	1.552192E-16
7.220000E+03	4.018018E-15	1.565713E-16
7.230000E+03	4.055255E-15	1.579925E-16
7.240000E+03	4.094210E-15	1.594711E-16
7.250000E+03	4.134578E-15	1.609946E-16
7.260000E+03	4.176163E-15	1.625547E-16
7.270000E+03	4.218581E-15	1.641361E-16
7.280000E+03	4.261679E-15	1.657322E-16
7.290000E+03	4.305062E-15	1.673271E-16
7.300000E+03	4.348449E-15	1.689096E-16
7.310000E+03	4.391498E-15	1.704659E-16
7.320000E+03	4.433994E-15	1.719875E-16
7.330000E+03	4.475598E-15	1.734610E-16
7.340000E+03	4.516044E-15	1.748760E-16
7.350000E+03	4.555013E-15	1.762203E-16
7.360000E+03	4.592198E-15	1.774819E-16
7.370000E+03	4.627448E-15	1.786552E-16
7.380000E+03	4.660439E-15	1.797277E-16
7.390000E+03	4.691151E-15	1.806989E-16
7.400000E+03	4.719268E-15	1.815567E-16
7.410000E+03	4.744859E-15	1.823037E-16
7.420000E+03	4.767778E-15	1.829343E-16
7.430000E+03	4.788144E-15	1.834528E-16
7.440000E+03	4.806000E-15	1.838605E-16
7.450000E+03	4.821596E-15	1.841664E-16
7.460000E+03	4.835178E-15	1.843791E-16
7.470000E+03	4.847053E-15	1.845092E-16
7.480000E+03	4.857583E-15	1.845692E-16
7.490000E+03	4.867178E-15	1.845730E-16
7.500000E+03	4.876428E-15	1.845408E-16
7.510000E+03	4.885658E-15	1.844828E-16
7.520000E+03	4.895493E-15	1.844195E-16
7.530000E+03	4.906403E-15	1.843658E-16
7.540000E+03	4.918840E-15	1.843351E-16
7.550000E+03	4.933361E-15	1.843443E-16
7.560000E+03	4.950180E-15	1.843973E-16
7.570000E+03	4.969663E-15	1.845030E-16
7.580000E+03	4.992098E-15	1.846673E-16
7.590000E+03	5.017611E-15	1.848895E-16
7.600000E+03	5.046227E-15	1.851649E-16
7.610000E+03	5.077942E-15	1.854877E-16
7.620000E+03	5.112492E-15	1.858420E-16
7.630000E+03	5.149651E-15	1.862131E-16
7.640000E+03	5.188927E-15	1.865768E-16
7.650000E+03	5.229955E-15	1.869132E-16
7.660000E+03	5.272030E-15	1.871900E-16
7.670000E+03	5.314436E-15	1.873746E-16
7.680000E+03	5.356455E-15	1.874346E-16
7.690000E+03	5.397141E-15	1.873296E-16
7.700000E+03	5.435585E-15	1.870208E-16
7.710000E+03	5.470936E-15	1.864722E-16
7.720000E+03	5.502172E-15	1.856422E-16
7.730000E+03	5.528465E-15	1.844971E-16
7.740000E+03	5.548860E-15	1.830001E-16
7.750000E+03	5.562558E-15	1.811209E-16
7.760000E+03	5.568851E-15	1.788345E-16
