#wls	flux	fluxerr
1.600000E+03	3.103075E-16	5.244618E-18
1.640000E+03	3.029315E-16	5.104391E-18
1.680000E+03	2.960477E-16	4.972829E-18
1.720000E+03	2.896998E-16	4.850606E-18
1.760000E+03	2.840045E-16	4.739599E-18
1.800000E+03	2.790051E-16	4.640436E-18
1.840000E+03	2.747819E-16	4.554347E-18
1.880000E+03	2.714166E-16	4.482555E-18
1.920000E+03	2.689630E-16	4.425803E-18
1.960000E+03	2.675991E-16	4.386846E-18
2.000000E+03	2.673275E-16	4.365530E-18
2.040000E+03	2.683613E-16	4.365107E-18
2.080000E+03	2.708032E-16	4.386979E-18
2.120000E+03	2.748198E-16	4.433543E-18
2.160000E+03	2.806142E-16	4.507718E-18
2.200000E+03	2.884267E-16	4.612950E-18
2.240000E+03	2.985116E-16	4.752826E-18
2.280000E+03	3.111418E-16	4.931132E-18
2.320000E+03	3.266382E-16	5.152306E-18
2.360000E+03	3.452106E-16	5.418927E-18
2.400000E+03	3.671709E-16	5.735071E-18
2.440000E+03	3.927107E-16	6.102820E-18
2.480000E+03	4.221449E-16	6.526065E-18
2.520000E+03	4.557705E-16	7.008287E-18
2.560000E+03	4.938909E-16	7.552926E-18
2.600000E+03	5.368437E-16	8.163797E-18
2.640000E+03	5.849055E-16	8.843636E-18
2.680000E+03	6.384830E-16	9.596985E-18
2.720000E+03	6.978210E-16	1.042578E-17
2.760000E+03	7.633024E-16	1.133386E-17
2.800000E+03	8.352900E-16	1.232457E-17
2.840000E+03	9.141279E-16	1.340080E-17
2.880000E+03	1.000387E-15	1.456854E-17
2.920000E+03	1.094787E-15	1.583565E-17
2.960000E+03	1.198314E-15	1.721347E-17
3.000000E+03	1.312222E-15	1.871671E-17
3.010000E+03	1.342544E-15	1.911486E-17
3.020000E+03	1.373588E-15	1.952161E-17
3.030000E+03	1.405415E-15	1.993772E-17
3.040000E+03	1.438127E-15	2.036461E-17
3.050000E+03	1.471699E-15	2.080181E-17
3.060000E+03	1.506146E-15	2.124949E-17
3.070000E+03	1.541578E-15	2.170910E-17
3.080000E+03	1.577922E-15	2.217953E-17
3.090000E+03	1.615338E-15	2.266296E-17
3.100000E+03	1.653801E-15	2.315893E-17
3.110000E+03	1.693334E-15	2.366767E-17
3.120000E+03	1.734057E-15	2.419076E-17
3.130000E+03	1.775946E-15	2.472776E-17
3.140000E+03	1.819127E-15	2.528033E-17
3.150000E+03	1.863578E-15	2.584805E-17
3.160000E+03	1.909328E-15	2.643120E-17
3.170000E+03	1.956559E-15	2.703217E-17
3.180000E+03	2.005204E-15	2.764991E-17
3.190000E+03	2.055399E-15	2.828619E-17
3.200000E+03	2.107178E-15	2.894131E-17
3.210000E+03	2.160584E-15	2.961573E-17
3.220000E+03	2.215704E-15	3.031050E-17
3.230000E+03	2.272582E-15	3.102606E-17
3.240000E+03	2.331369E-15	3.176431E-17
3.250000E+03	2.392003E-15	3.252423E-17
3.260000E+03	2.454638E-15	3.330778E-17
3.270000E+03	2.519328E-15	3.411545E-17
3.280000E+03	2.586176E-15	3.494850E-17
3.290000E+03	2.655182E-15	3.580672E-17
3.300000E+03	2.726458E-15	3.669142E-17
3.310000E+03	2.800063E-15	3.760318E-17
3.320000E+03	2.876112E-15	3.854336E-17
3.330000E+03	2.954671E-15	3.951258E-17
3.340000E+03	3.035744E-15	4.051070E-17
3.350000E+03	3.119456E-15	4.153914E-17
3.360000E+03	3.205818E-15	4.259780E-17
3.370000E+03	3.294957E-15	4.368815E-17
3.380000E+03	3.386886E-15	4.481008E-17
3.390000E+03	3.481678E-15	4.596432E-17
3.400000E+03	3.579344E-15	4.715076E-17
3.410000E+03	3.679962E-15	4.837013E-17
3.420000E+03	3.783545E-15	4.962236E-17
3.430000E+03	3.890169E-15	5.090815E-17
3.440000E+03	3.999720E-15	5.222577E-17
3.450000E+03	4.112338E-15	5.357672E-17
3.460000E+03	4.227970E-15	5.496008E-17
3.470000E+03	4.346560E-15	5.637483E-17
3.480000E+03	4.468180E-15	5.782162E-17
3.490000E+03	4.592703E-15	5.929853E-17
3.500000E+03	4.720063E-15	6.080445E-17
3.510000E+03	4.850323E-15	6.233993E-17
3.520000E+03	4.983273E-15	6.390201E-17
3.530000E+03	5.118969E-15	6.549115E-17
3.540000E+03	5.257189E-15	6.710425E-17
3.550000E+03	5.397977E-15	6.874166E-17
3.560000E+03	5.541096E-15	7.040012E-17
3.570000E+03	5.686508E-15	7.207893E-17
3.580000E+03	5.834098E-15	7.377645E-17
3.590000E+03	5.983820E-15	7.549185E-17
3.600000E+03	6.135546E-15	7.722337E-17
3.610000E+03	6.289064E-15	7.896814E-17
3.620000E+03	6.444379E-15	8.072605E-17
3.630000E+03	6.601185E-15	8.249314E-17
3.640000E+03	6.759393E-15	8.426815E-17
3.650000E+03	6.918752E-15	8.604783E-17
3.660000E+03	7.079231E-15	8.783170E-17
3.670000E+03	7.240557E-15	8.961627E-17
3.680000E+03	7.402603E-15	9.139993E-17
3.690000E+03	7.565318E-15	9.318196E-17
3.700000E+03	7.728476E-15	9.495955E-17
3.710000E+03	7.892094E-15	9.673287E-17
3.720000E+03	8.055932E-15	9.849897E-17
3.730000E+03	8.219994E-15	1.002579E-16
3.740000E+03	8.384194E-15	1.020085E-16
3.750000E+03	8.548356E-15	1.037488E-16
3.760000E+03	8.712472E-15	1.054787E-16
3.770000E+03	8.876440E-15	1.071968E-16
3.780000E+03	9.040243E-15	1.089032E-16
3.790000E+03	9.203776E-15	1.105965E-16
3.800000E+03	9.367013E-15	1.122765E-16
3.810000E+03	9.529751E-15	1.139408E-16
3.820000E+03	9.692143E-15	1.155914E-16
3.830000E+03	9.853884E-15	1.172246E-16
3.840000E+03	1.001513E-14	1.188424E-16
3.850000E+03	1.017566E-14	1.204423E-16
3.860000E+03	1.033554E-14	1.220250E-16
3.870000E+03	1.049454E-14	1.235882E-16
3.880000E+03	1.065272E-14	1.251325E-16
3.890000E+03	1.080995E-14	1.266567E-16
3.900000E+03	1.096610E-14	1.281591E-16
3.910000E+03	1.112123E-14	1.296408E-16
3.920000E+03	1.127523E-14	1.311005E-16
3.930000E+03	1.142793E-14	1.325366E-16
3.940000E+03	1.157934E-14	1.339492E-16
3.950000E+03	1.172940E-14	1.353379E-16
3.960000E+03	1.187801E-14	1.367017E-16
3.970000E+03	1.202505E-14	1.380393E-16
3.980000E+03	1.217039E-14	1.393494E-16
3.990000E+03	1.231412E-14	1.406335E-16
4.000000E+03	1.245615E-14	1.418906E-16
4.010000E+03	1.259637E-14	1.431197E-16
4.020000E+03	1.273469E-14	1.443200E-16
4.030000E+03	1.287102E-14	1.454909E-16
4.040000E+03	1.300552E-14	1.466341E-16
4.050000E+03	1.313789E-14	1.477469E-16
4.060000E+03	1.326843E-14	1.488325E-16
4.070000E+03	1.339676E-14	1.498872E-16
4.080000E+03	1.352320E-14	1.509147E-16
4.090000E+03	1.364764E-14	1.519141E-16
4.100000E+03	1.377008E-14	1.528857E-16
4.110000E+03	1.389059E-14	1.538303E-16
4.120000E+03	1.400920E-14	1.547488E-16
4.130000E+03	1.412614E-14	1.556439E-16
4.140000E+03	1.424151E-14	1.565168E-16
4.150000E+03	1.435534E-14	1.573681E-16
4.160000E+03	1.446781E-14	1.582002E-16
4.170000E+03	1.457924E-14	1.590166E-16
4.180000E+03	1.468989E-14	1.598204E-16
4.190000E+03	1.480005E-14	1.606148E-16
4.200000E+03	1.490991E-14	1.614021E-16
4.210000E+03	1.501983E-14	1.621864E-16
4.220000E+03	1.513034E-14	1.629736E-16
4.230000E+03	1.524189E-14	1.637682E-16
4.240000E+03	1.535464E-14	1.645724E-16
4.250000E+03	1.546945E-14	1.653950E-16
4.260000E+03	1.558628E-14	1.662360E-16
4.270000E+03	1.570553E-14	1.670993E-16
4.280000E+03	1.582737E-14	1.679867E-16
4.290000E+03	1.595141E-14	1.688942E-16
4.300000E+03	1.607746E-14	1.698195E-16
4.310000E+03	1.620492E-14	1.707564E-16
4.320000E+03	1.633329E-14	1.716997E-16
4.330000E+03	1.646203E-14	1.726438E-16
4.340000E+03	1.659032E-14	1.735802E-16
4.350000E+03	1.671744E-14	1.745016E-16
4.360000E+03	1.684291E-14	1.754029E-16
4.370000E+03	1.696647E-14	1.762817E-16
4.380000E+03	1.708764E-14	1.771334E-16
4.390000E+03	1.720611E-14	1.779547E-16
4.400000E+03	1.732174E-14	1.787445E-16
4.410000E+03	1.743398E-14	1.794976E-16
4.420000E+03	1.754274E-14	1.802129E-16
4.430000E+03	1.764766E-14	1.808875E-16
4.440000E+03	1.774842E-14	1.815180E-16
4.450000E+03	1.784501E-14	1.821048E-16
4.460000E+03	1.793700E-14	1.826439E-16
4.470000E+03	1.802443E-14	1.831359E-16
4.480000E+03	1.810690E-14	1.835772E-16
4.490000E+03	1.818437E-14	1.839676E-16
4.500000E+03	1.825694E-14	1.843087E-16
4.510000E+03	1.832429E-14	1.845973E-16
4.520000E+03	1.838658E-14	1.848356E-16
4.530000E+03	1.844350E-14	1.850208E-16
4.540000E+03	1.849512E-14	1.851539E-16
4.550000E+03	1.854148E-14	1.852356E-16
4.560000E+03	1.858266E-14	1.852670E-16
4.570000E+03	1.861860E-14	1.852480E-16
4.580000E+03	1.864941E-14	1.851798E-16
4.590000E+03	1.867504E-14	1.850625E-16
4.600000E+03	1.869563E-14	1.848976E-16
4.610000E+03	1.871151E-14	1.846886E-16
4.620000E+03	1.872268E-14	1.844359E-16
4.630000E+03	1.872913E-14	1.841397E-16
4.640000E+03	1.873123E-14	1.838037E-16
4.650000E+03	1.872900E-14	1.834286E-16
4.660000E+03	1.872282E-14	1.830181E-16
4.670000E+03	1.871256E-14	1.825714E-16
4.680000E+03	1.869862E-14	1.820925E-16
4.690000E+03	1.868105E-14	1.815820E-16
4.700000E+03	1.865991E-14	1.810408E-16
4.710000E+03	1.863494E-14	1.804664E-16
4.720000E+03	1.860655E-14	1.798632E-16
4.730000E+03	1.857449E-14	1.792287E-16
4.740000E+03	1.853866E-14	1.785623E-16
4.750000E+03	1.849882E-14	1.778618E-16
4.760000E+03	1.845538E-14	1.771314E-16
4.770000E+03	1.840779E-14	1.763659E-16
4.780000E+03	1.835628E-14	1.755678E-16
4.790000E+03	1.830081E-14	1.747368E-16
4.800000E+03	1.824148E-14	1.738741E-16
4.810000E+03	1.817822E-14	1.729791E-16
4.820000E+03	1.811115E-14	1.720533E-16
4.830000E+03	1.804036E-14	1.710976E-16
4.840000E+03	1.796581E-14	1.701118E-16
4.850000E+03	1.788779E-14	1.690987E-16
4.860000E+03	1.780656E-14	1.680610E-16
4.870000E+03	1.772191E-14	1.669969E-16
4.880000E+03	1.763413E-14	1.659092E-16
4.890000E+03	1.754350E-14	1.648005E-16
4.900000E+03	1.744997E-14	1.636707E-16
4.910000E+03	1.735365E-14	1.625208E-16
4.920000E+03	1.725499E-14	1.613550E-16
4.930000E+03	1.715394E-14	1.601730E-16
4.940000E+03	1.705045E-14	1.589745E-16
4.950000E+03	1.694510E-14	1.577649E-16
4.960000E+03	1.683771E-14	1.565425E-16
4.970000E+03	1.672853E-14	1.553097E-16
4.980000E+03	1.661766E-14	1.540675E-16
4.990000E+03	1.650522E-14	1.528171E-16
5.000000E+03	1.639145E-14	1.515607E-16
5.010000E+03	1.627632E-14	1.502980E-16
5.020000E+03	1.616006E-14	1.490311E-16
5.030000E+03	1.604263E-14	1.477598E-16
5.040000E+03	1.592426E-14	1.464861E-16
5.050000E+03	1.580505E-14	1.452110E-16
5.060000E+03	1.568494E-14	1.439339E-16
5.070000E+03	1.556416E-14	1.426568E-16
5.080000E+03	1.544294E-14	1.413819E-16
5.090000E+03	1.532109E-14	1.401074E-16
5.100000E+03	1.519880E-14	1.388351E-16
5.110000E+03	1.507617E-14	1.375658E-16
5.120000E+03	1.495311E-14	1.362987E-16
5.130000E+03	1.483000E-14	1.350372E-16
5.140000E+03	1.470662E-14	1.337793E-16
5.150000E+03	1.458315E-14	1.325265E-16
5.160000E+03	1.445955E-14	1.312784E-16
5.170000E+03	1.433600E-14	1.300368E-16
5.180000E+03	1.421243E-14	1.288008E-16
5.190000E+03	1.408903E-14	1.275720E-16
5.200000E+03	1.396571E-14	1.263498E-16
5.210000E+03	1.384240E-14	1.251334E-16
5.220000E+03	1.371941E-14	1.239255E-16
5.230000E+03	1.359666E-14	1.227254E-16
5.240000E+03	1.347407E-14	1.215323E-16
5.250000E+03	1.335181E-14	1.203476E-16
5.260000E+03	1.322979E-14	1.191704E-16
5.270000E+03	1.310819E-14	1.180025E-16
5.280000E+03	1.298678E-14	1.168415E-16
5.290000E+03	1.286575E-14	1.156892E-16
5.300000E+03	1.274513E-14	1.145455E-16
5.310000E+03	1.262497E-14	1.134108E-16
5.320000E+03	1.250506E-14	1.122832E-16
5.330000E+03	1.238570E-14	1.111650E-16
5.340000E+03	1.226681E-14	1.100555E-16
5.350000E+03	1.214832E-14	1.089537E-16
5.360000E+03	1.203040E-14	1.078613E-16
5.370000E+03	1.191286E-14	1.067761E-16
5.380000E+03	1.179600E-14	1.057009E-16
5.390000E+03	1.167962E-14	1.046337E-16
5.400000E+03	1.156378E-14	1.035749E-16
5.410000E+03	1.144865E-14	1.025259E-16
5.420000E+03	1.133405E-14	1.014849E-16
5.430000E+03	1.122003E-14	1.004523E-16
5.440000E+03	1.110678E-14	9.942955E-17
5.450000E+03	1.099422E-14	9.841598E-17
5.460000E+03	1.088251E-14	9.741278E-17
5.470000E+03	1.077158E-14	9.641926E-17
5.480000E+03	1.066138E-14	9.543480E-17
5.490000E+03	1.055195E-14	9.445973E-17
5.500000E+03	1.044322E-14	9.349321E-17
5.510000E+03	1.033544E-14	9.253752E-17
5.520000E+03	1.022842E-14	9.159078E-17
5.530000E+03	1.012220E-14	9.065325E-17
5.540000E+03	1.001691E-14	8.972594E-17
5.550000E+03	9.912367E-15	8.880725E-17
5.560000E+03	9.808903E-15	8.789998E-17
5.570000E+03	9.706211E-15	8.700132E-17
5.580000E+03	9.604426E-15	8.611239E-17
5.590000E+03	9.503548E-15	8.523310E-17
5.600000E+03	9.403594E-15	8.436355E-17
5.610000E+03	9.304563E-15	8.350363E-17
5.620000E+03	9.206557E-15	8.265421E-17
5.630000E+03	9.109385E-15	8.181349E-17
5.640000E+03	9.013142E-15	8.098226E-17
5.650000E+03	8.917825E-15	8.016044E-17
5.660000E+03	8.823340E-15	7.934711E-17
5.670000E+03	8.729864E-15	7.854382E-17
5.680000E+03	8.637298E-15	7.774960E-17
5.690000E+03	8.545634E-15	7.696434E-17
5.700000E+03	8.454861E-15	7.618789E-17
5.710000E+03	8.364971E-15	7.542012E-17
5.720000E+03	8.275950E-15	7.466086E-17
5.730000E+03	8.187788E-15	7.390997E-17
5.740000E+03	8.100471E-15	7.316729E-17
5.750000E+03	8.014073E-15	7.243344E-17
5.760000E+03	7.928493E-15	7.170746E-17
5.770000E+03	7.843715E-15	7.098918E-17
5.780000E+03	7.759812E-15	7.027921E-17
5.790000E+03	7.676683E-15	6.957661E-17
5.800000E+03	7.594478E-15	6.888271E-17
5.810000E+03	7.513015E-15	6.819581E-17
5.820000E+03	7.432279E-15	6.751576E-17
5.830000E+03	7.352419E-15	6.684387E-17
5.840000E+03	7.273335E-15	6.617921E-17
5.850000E+03	7.195092E-15	6.552235E-17
5.860000E+03	7.117591E-15	6.487235E-17
5.870000E+03	7.040817E-15	6.422906E-17
5.880000E+03	6.964913E-15	6.359376E-17
5.890000E+03	6.889702E-15	6.296481E-17
5.900000E+03	6.815326E-15	6.234348E-17
5.910000E+03	6.741767E-15	6.172960E-17
5.920000E+03	6.668929E-15	6.112227E-17
5.930000E+03	6.596873E-15	6.052204E-17
5.940000E+03	6.525660E-15	5.992944E-17
5.950000E+03	6.455196E-15	5.934359E-17
5.960000E+03	6.385614E-15	5.876571E-17
5.970000E+03	6.316822E-15	5.819494E-17
5.980000E+03	6.248802E-15	5.763112E-17
5.990000E+03	6.181688E-15	5.707544E-17
6.000000E+03	6.115460E-15	5.652774E-17
6.010000E+03	6.050100E-15	5.598785E-17
6.020000E+03	5.985664E-15	5.545626E-17
6.030000E+03	5.922207E-15	5.493350E-17
6.040000E+03	5.859708E-15	5.441937E-17
6.050000E+03	5.798150E-15	5.391370E-17
6.060000E+03	5.737656E-15	5.341767E-17
6.070000E+03	5.678209E-15	5.293110E-17
6.080000E+03	5.619856E-15	5.245445E-17
6.090000E+03	5.562581E-15	5.198758E-17
6.100000E+03	5.506501E-15	5.153160E-17
6.110000E+03	5.451527E-15	5.108568E-17
6.120000E+03	5.397637E-15	5.064965E-17
6.130000E+03	5.344951E-15	5.022462E-17
6.140000E+03	5.293379E-15	4.980979E-17
6.150000E+03	5.242762E-15	4.940369E-17
6.160000E+03	5.193083E-15	4.900611E-17
6.170000E+03	5.144388E-15	4.861748E-17
6.180000E+03	5.096591E-15	4.823695E-17
6.190000E+03	5.049941E-15	4.786688E-17
6.200000E+03	5.004281E-15	4.750577E-17
6.210000E+03	4.959657E-15	4.715403E-17
6.220000E+03	4.916115E-15	4.681210E-17
6.230000E+03	4.873567E-15	4.647914E-17
6.240000E+03	4.831992E-15	4.615494E-17
6.250000E+03	4.791369E-15	4.583929E-17
6.260000E+03	4.751547E-15	4.553075E-17
6.270000E+03	4.712508E-15	4.522913E-17
6.280000E+03	4.674233E-15	4.493425E-17
6.290000E+03	4.636704E-15	4.464592E-17
6.300000E+03	4.599709E-15	4.436210E-17
6.310000E+03	4.563361E-15	4.408386E-17
6.320000E+03	4.527515E-15	4.380980E-17
6.330000E+03	4.492091E-15	4.353912E-17
6.340000E+03	4.457139E-15	4.327229E-17
6.350000E+03	4.422515E-15	4.300791E-17
6.360000E+03	4.388208E-15	4.274584E-17
6.370000E+03	4.354140E-15	4.248532E-17
6.380000E+03	4.320363E-15	4.222682E-17
6.390000E+03	4.286803E-15	4.196961E-17
6.400000E+03	4.253513E-15	4.171419E-17
6.410000E+03	4.220424E-15	4.145988E-17
6.420000E+03	4.187533E-15	4.120661E-17
6.430000E+03	4.154840E-15	4.095437E-17
6.440000E+03	4.122406E-15	4.070377E-17
6.450000E+03	4.090172E-15	4.045419E-17
6.460000E+03	4.058203E-15	4.020626E-17
6.470000E+03	4.026499E-15	3.995998E-17
6.480000E+03	3.995062E-15	3.971537E-17
6.490000E+03	3.963954E-15	3.947303E-17
6.500000E+03	3.933059E-15	3.923180E-17
6.510000E+03	3.902494E-15	3.899284E-17
6.520000E+03	3.872143E-15	3.875499E-17
6.530000E+03	3.842123E-15	3.851942E-17
6.540000E+03	3.812376E-15	3.828554E-17
6.550000E+03	3.782844E-15	3.805276E-17
6.560000E+03	3.753584E-15	3.782167E-17
6.570000E+03	3.724594E-15	3.759224E-17
6.580000E+03	3.695817E-15	3.736389E-17
6.590000E+03	3.667309E-15	3.713718E-17
6.600000E+03	3.638953E-15	3.691094E-17
6.610000E+03	3.610863E-15	3.668631E-17
6.620000E+03	3.582923E-15	3.646213E-17
6.630000E+03	3.555245E-15	3.623952E-17
6.640000E+03	3.527714E-15	3.601732E-17
6.650000E+03	3.500385E-15	3.579608E-17
6.660000E+03	3.473200E-15	3.557522E-17
6.670000E+03	3.446212E-15	3.535529E-17
6.680000E+03	3.419365E-15	3.513569E-17
6.690000E+03	3.392657E-15	3.491643E-17
6.700000E+03	3.366141E-15	3.469803E-17
6.710000E+03	3.339760E-15	3.447993E-17
6.720000E+03	3.313513E-15	3.426211E-17
6.730000E+03	3.287452E-15	3.404510E-17
6.740000E+03	3.261521E-15	3.382834E-17
6.750000E+03	3.235718E-15	3.361181E-17
6.760000E+03	3.210042E-15	3.339550E-17
6.770000E+03	3.184492E-15	3.317939E-17
6.780000E+03	3.159118E-15	3.296403E-17
6.790000E+03	3.133867E-15	3.274887E-17
6.800000E+03	3.108789E-15	3.253442E-17
6.810000E+03	3.083779E-15	3.231959E-17
6.820000E+03	3.058939E-15	3.210547E-17
6.830000E+03	3.034268E-15	3.189204E-17
6.840000E+03	3.009662E-15	3.167822E-17
6.850000E+03	2.985273E-15	3.146563E-17
6.860000E+03	2.960947E-15	3.125263E-17
6.870000E+03	2.936836E-15	3.104085E-17
6.880000E+03	2.912786E-15	3.082866E-17
6.890000E+03	2.888948E-15	3.061768E-17
6.900000E+03	2.865220E-15	3.040682E-17
6.910000E+03	2.841602E-15	3.019610E-17
6.920000E+03	2.818144E-15	2.998605E-17
6.930000E+03	2.794842E-15	2.977666E-17
6.940000E+03	2.771699E-15	2.956794E-17
6.950000E+03	2.748711E-15	2.935989E-17
6.960000E+03	2.725829E-15	2.915198E-17
6.970000E+03	2.703152E-15	2.894527E-17
6.980000E+03	2.680579E-15	2.873872E-17
6.990000E+03	2.658160E-15	2.853284E-17
7.000000E+03	2.635894E-15	2.832766E-17
7.010000E+03	2.613830E-15	2.812369E-17
7.020000E+03	2.591868E-15	2.791990E-17
7.030000E+03	2.570106E-15	2.771733E-17
7.040000E+03	2.548495E-15	2.751547E-17
7.050000E+03	2.527033E-15	2.731433E-17
7.060000E+03	2.505723E-15	2.711392E-17
7.070000E+03	2.484609E-15	2.691476E-17
7.080000E+03	2.463643E-15	2.671633E-17
7.090000E+03	2.442873E-15	2.651917E-17
7.100000E+03	2.422252E-15	2.632277E-17
7.110000E+03	2.401824E-15	2.612763E-17
7.120000E+03	2.381590E-15	2.593378E-17
7.130000E+03	2.361503E-15	2.574071E-17
7.140000E+03	2.341608E-15	2.554893E-17
7.150000E+03	2.321907E-15	2.535846E-17
7.160000E+03	2.302396E-15	2.516930E-17
7.170000E+03	2.283121E-15	2.498195E-17
7.180000E+03	2.263992E-15	2.479543E-17
7.190000E+03	2.245051E-15	2.461024E-17
7.200000E+03	2.226345E-15	2.442689E-17
7.210000E+03	2.207827E-15	2.424487E-17
7.220000E+03	2.189498E-15	2.406422E-17
7.230000E+03	2.171400E-15	2.388542E-17
7.240000E+03	2.153489E-15	2.370798E-17
7.250000E+03	2.135808E-15	2.353241E-17
7.260000E+03	2.118312E-15	2.335821E-17
7.270000E+03	2.101046E-15	2.318590E-17
7.280000E+03	2.084008E-15	2.301546E-17
7.290000E+03	2.067196E-15	2.284691E-17
7.300000E+03	2.050569E-15	2.267978E-17
7.310000E+03	2.034210E-15	2.251501E-17
7.320000E+03	2.018032E-15	2.235167E-17
7.330000E+03	2.002080E-15	2.219024E-17
7.340000E+03	1.986350E-15	2.203071E-17
7.350000E+03	1.970844E-15	2.187311E-17
7.360000E+03	1.955559E-15	2.171742E-17
7.370000E+03	1.940496E-15	2.156366E-17
7.380000E+03	1.925654E-15	2.141183E-17
7.390000E+03	1.911074E-15	2.126241E-17
7.400000E+03	1.896671E-15	2.111446E-17
7.410000E+03	1.882528E-15	2.096893E-17
7.420000E+03	1.868646E-15	2.082581E-17
7.430000E+03	1.855023E-15	2.068511E-17
7.440000E+03	1.841615E-15	2.054636E-17
7.450000E+03	1.828423E-15	2.040958E-17
7.460000E+03	1.815446E-15	2.027476E-17
7.470000E+03	1.802684E-15	2.014192E-17
7.480000E+03	1.790136E-15	2.001105E-17
7.490000E+03	1.777801E-15	1.988216E-17
7.500000E+03	1.765680E-15	1.975526E-17
7.510000E+03	1.753771E-15	1.963035E-17
7.520000E+03	1.742032E-15	1.950697E-17
7.530000E+03	1.730547E-15	1.938607E-17
7.540000E+03	1.719234E-15	1.926672E-17
7.550000E+03	1.708130E-15	1.914937E-17
7.560000E+03	1.697238E-15	1.903406E-17
7.570000E+03	1.686596E-15	1.892122E-17
7.580000E+03	1.676124E-15	1.880996E-17
7.590000E+03	1.665862E-15	1.870074E-17
7.600000E+03	1.655850E-15	1.859402E-17
7.610000E+03	1.646007E-15	1.848890E-17
7.620000E+03	1.636412E-15	1.838628E-17
7.630000E+03	1.626988E-15	1.828528E-17
7.640000E+03	1.617811E-15	1.818679E-17
7.650000E+03	1.608843E-15	1.809039E-17
7.660000E+03	1.600084E-15	1.799606E-17
7.670000E+03	1.591532E-15	1.790382E-17
7.680000E+03	1.583150E-15	1.781324E-17
7.690000E+03	1.575055E-15	1.772566E-17
7.700000E+03	1.567128E-15	1.763973E-17
7.710000E+03	1.559410E-15	1.755593E-17
7.720000E+03	1.551940E-15	1.747470E-17
7.730000E+03	1.544640E-15	1.739517E-17
7.740000E+03	1.537587E-15	1.731822E-17
7.750000E+03	1.530783E-15	1.724388E-17
7.760000E+03	1.524148E-15	1.717125E-17
