#wls	flux	fluxerr
1.600000E+03	2.461567E-16	3.824853E-18
1.640000E+03	2.398573E-16	3.717850E-18
1.680000E+03	2.339872E-16	3.617750E-18
1.720000E+03	2.286080E-16	3.525469E-18
1.760000E+03	2.237454E-16	3.441354E-18
1.800000E+03	2.194573E-16	3.366239E-18
1.840000E+03	2.157689E-16	3.300447E-18
1.880000E+03	2.127955E-16	3.245668E-18
1.920000E+03	2.105308E-16	3.201718E-18
1.960000E+03	2.090590E-16	3.169782E-18
2.000000E+03	2.084633E-16	3.151011E-18
2.040000E+03	2.088277E-16	3.146545E-18
2.080000E+03	2.101858E-16	3.156749E-18
2.120000E+03	2.126838E-16	3.183660E-18
2.160000E+03	2.164192E-16	3.228549E-18
2.200000E+03	2.214721E-16	3.292403E-18
2.240000E+03	2.279580E-16	3.376707E-18
2.280000E+03	2.360296E-16	3.483465E-18
2.320000E+03	2.457988E-16	3.614034E-18
2.360000E+03	2.573897E-16	3.769913E-18
2.400000E+03	2.709928E-16	3.953532E-18
2.440000E+03	2.867026E-16	4.165864E-18
2.480000E+03	3.047343E-16	4.409599E-18
2.520000E+03	3.251736E-16	4.685488E-18
2.560000E+03	3.482871E-16	4.996840E-18
2.600000E+03	3.741762E-16	5.344524E-18
2.640000E+03	4.031011E-16	5.731614E-18
2.680000E+03	4.352413E-16	6.159965E-18
2.720000E+03	4.708194E-16	6.631961E-18
2.760000E+03	5.101420E-16	7.151083E-18
2.800000E+03	5.533628E-16	7.718574E-18
2.840000E+03	6.008309E-16	8.338318E-18
2.880000E+03	6.527786E-16	9.012463E-18
2.920000E+03	7.095834E-16	9.745055E-18
2.960000E+03	7.717556E-16	1.054181E-17
3.000000E+03	8.400068E-16	1.141102E-17
3.010000E+03	8.581518E-16	1.164125E-17
3.020000E+03	8.767036E-16	1.187624E-17
3.030000E+03	8.957152E-16	1.211669E-17
3.040000E+03	9.152415E-16	1.236330E-17
3.050000E+03	9.352939E-16	1.261619E-17
3.060000E+03	9.558387E-16	1.287488E-17
3.070000E+03	9.769329E-16	1.314010E-17
3.080000E+03	9.985892E-16	1.341199E-17
3.090000E+03	1.020821E-15	1.369068E-17
3.100000E+03	1.043688E-15	1.397696E-17
3.110000E+03	1.067159E-15	1.427034E-17
3.120000E+03	1.091345E-15	1.457227E-17
3.130000E+03	1.116165E-15	1.488163E-17
3.140000E+03	1.141783E-15	1.520056E-17
3.150000E+03	1.168070E-15	1.552728E-17
3.160000E+03	1.195193E-15	1.586399E-17
3.170000E+03	1.223122E-15	1.621022E-17
3.180000E+03	1.251929E-15	1.656686E-17
3.190000E+03	1.281585E-15	1.693350E-17
3.200000E+03	1.312164E-15	1.731103E-17
3.210000E+03	1.343743E-15	1.770042E-17
3.220000E+03	1.376295E-15	1.810124E-17
3.230000E+03	1.409901E-15	1.851448E-17
3.240000E+03	1.444639E-15	1.894112E-17
3.250000E+03	1.480544E-15	1.938152E-17
3.260000E+03	1.517588E-15	1.983525E-17
3.270000E+03	1.555915E-15	2.030411E-17
3.280000E+03	1.595562E-15	2.078849E-17
3.290000E+03	1.636503E-15	2.128798E-17
3.300000E+03	1.678893E-15	2.180448E-17
3.310000E+03	1.722770E-15	2.233841E-17
3.320000E+03	1.768232E-15	2.289094E-17
3.330000E+03	1.815265E-15	2.346177E-17
3.340000E+03	1.863913E-15	2.405136E-17
3.350000E+03	1.914401E-15	2.466252E-17
3.360000E+03	1.966658E-15	2.529419E-17
3.370000E+03	2.020794E-15	2.594769E-17
3.380000E+03	2.076863E-15	2.662355E-17
3.390000E+03	2.134981E-15	2.732317E-17
3.400000E+03	2.195268E-15	2.804791E-17
3.410000E+03	2.257655E-15	2.879677E-17
3.420000E+03	2.322332E-15	2.957200E-17
3.430000E+03	2.389362E-15	3.037427E-17
3.440000E+03	2.458744E-15	3.120339E-17
3.450000E+03	2.530540E-15	3.206000E-17
3.460000E+03	2.604954E-15	3.294652E-17
3.470000E+03	2.681851E-15	3.386105E-17
3.480000E+03	2.761367E-15	3.480516E-17
3.490000E+03	2.843573E-15	3.577955E-17
3.500000E+03	2.928396E-15	3.678312E-17
3.510000E+03	3.015906E-15	3.781658E-17
3.520000E+03	3.106026E-15	3.887876E-17
3.530000E+03	3.198820E-15	3.997032E-17
3.540000E+03	3.294280E-15	4.109095E-17
3.550000E+03	3.392319E-15	4.223939E-17
3.560000E+03	3.492920E-15	4.341526E-17
3.570000E+03	3.596141E-15	4.461910E-17
3.580000E+03	3.701882E-15	4.584950E-17
3.590000E+03	3.810117E-15	4.710595E-17
3.600000E+03	3.920734E-15	4.838690E-17
3.610000E+03	4.033614E-15	4.969075E-17
3.620000E+03	4.148792E-15	5.101775E-17
3.630000E+03	4.266139E-15	5.236615E-17
3.640000E+03	4.385683E-15	5.373618E-17
3.650000E+03	4.507450E-15	5.512799E-17
3.660000E+03	4.631467E-15	5.654176E-17
3.670000E+03	4.757756E-15	5.797761E-17
3.680000E+03	4.886340E-15	5.943567E-17
3.690000E+03	5.017239E-15	6.091602E-17
3.700000E+03	5.150471E-15	6.241874E-17
3.710000E+03	5.285960E-15	6.394273E-17
3.720000E+03	5.423901E-15	6.549023E-17
3.730000E+03	5.564119E-15	6.705895E-17
3.740000E+03	5.706622E-15	6.864884E-17
3.750000E+03	5.851408E-15	7.025974E-17
3.760000E+03	5.998574E-15	7.189265E-17
3.770000E+03	6.147922E-15	7.354506E-17
3.780000E+03	6.299538E-15	7.521787E-17
3.790000E+03	6.453412E-15	7.691079E-17
3.800000E+03	6.609425E-15	7.862228E-17
3.810000E+03	6.767552E-15	8.035193E-17
3.820000E+03	6.927768E-15	8.209928E-17
3.830000E+03	7.090039E-15	8.386383E-17
3.840000E+03	7.254222E-15	8.564377E-17
3.850000E+03	7.420381E-15	8.743973E-17
3.860000E+03	7.588360E-15	8.924977E-17
3.870000E+03	7.758105E-15	9.107317E-17
3.880000E+03	7.929669E-15	9.291043E-17
3.890000E+03	8.102765E-15	9.475812E-17
3.900000E+03	8.277320E-15	9.661530E-17
3.910000E+03	8.453373E-15	9.848236E-17
3.920000E+03	8.630844E-15	1.003583E-16
3.930000E+03	8.809532E-15	1.022407E-16
3.940000E+03	8.989345E-15	1.041285E-16
3.950000E+03	9.170185E-15	1.060205E-16
3.960000E+03	9.351952E-15	1.079155E-16
3.970000E+03	9.534540E-15	1.098123E-16
3.980000E+03	9.717840E-15	1.117096E-16
3.990000E+03	9.901614E-15	1.136046E-16
4.000000E+03	1.008587E-14	1.154976E-16
4.010000E+03	1.027049E-14	1.173871E-16
4.020000E+03	1.045523E-14	1.192703E-16
4.030000E+03	1.063995E-14	1.211459E-16
4.040000E+03	1.082454E-14	1.230125E-16
4.050000E+03	1.100901E-14	1.248703E-16
4.060000E+03	1.119297E-14	1.267149E-16
4.070000E+03	1.137657E-14	1.285483E-16
4.080000E+03	1.155942E-14	1.303660E-16
4.090000E+03	1.174155E-14	1.321685E-16
4.100000E+03	1.192272E-14	1.339533E-16
4.110000E+03	1.210299E-14	1.357210E-16
4.120000E+03	1.228211E-14	1.374692E-16
4.130000E+03	1.246004E-14	1.391974E-16
4.140000E+03	1.263671E-14	1.409050E-16
4.150000E+03	1.281193E-14	1.425902E-16
4.160000E+03	1.298585E-14	1.442546E-16
4.170000E+03	1.315833E-14	1.458969E-16
4.180000E+03	1.332937E-14	1.475174E-16
4.190000E+03	1.349888E-14	1.491152E-16
4.200000E+03	1.366692E-14	1.506911E-16
4.210000E+03	1.383358E-14	1.522463E-16
4.220000E+03	1.399881E-14	1.537804E-16
4.230000E+03	1.416270E-14	1.552946E-16
4.240000E+03	1.432503E-14	1.567866E-16
4.250000E+03	1.448618E-14	1.582609E-16
4.260000E+03	1.464572E-14	1.597129E-16
4.270000E+03	1.480363E-14	1.611425E-16
4.280000E+03	1.495985E-14	1.625494E-16
4.290000E+03	1.511407E-14	1.639303E-16
4.300000E+03	1.526596E-14	1.652818E-16
4.310000E+03	1.541526E-14	1.666016E-16
4.320000E+03	1.556133E-14	1.678830E-16
4.330000E+03	1.570404E-14	1.691246E-16
4.340000E+03	1.584255E-14	1.703179E-16
4.350000E+03	1.597699E-14	1.714646E-16
4.360000E+03	1.610635E-14	1.725544E-16
4.370000E+03	1.623079E-14	1.735890E-16
4.380000E+03	1.634983E-14	1.745638E-16
4.390000E+03	1.646333E-14	1.754776E-16
4.400000E+03	1.657116E-14	1.763295E-16
4.410000E+03	1.667376E-14	1.771243E-16
4.420000E+03	1.677107E-14	1.778618E-16
4.430000E+03	1.686323E-14	1.785438E-16
4.440000E+03	1.695042E-14	1.791724E-16
4.450000E+03	1.703278E-14	1.797496E-16
4.460000E+03	1.711058E-14	1.802782E-16
4.470000E+03	1.718367E-14	1.807573E-16
4.480000E+03	1.725231E-14	1.811895E-16
4.490000E+03	1.731660E-14	1.815763E-16
4.500000E+03	1.737681E-14	1.819208E-16
4.510000E+03	1.743256E-14	1.822191E-16
4.520000E+03	1.748449E-14	1.824783E-16
4.530000E+03	1.753223E-14	1.826946E-16
4.540000E+03	1.757575E-14	1.828680E-16
4.550000E+03	1.761541E-14	1.830025E-16
4.560000E+03	1.765119E-14	1.830980E-16
4.570000E+03	1.768276E-14	1.831512E-16
4.580000E+03	1.771030E-14	1.831644E-16
4.590000E+03	1.773383E-14	1.831378E-16
4.600000E+03	1.775319E-14	1.830701E-16
4.610000E+03	1.776826E-14	1.829603E-16
4.620000E+03	1.777906E-14	1.828086E-16
4.630000E+03	1.778547E-14	1.826141E-16
4.640000E+03	1.778716E-14	1.823736E-16
4.650000E+03	1.778404E-14	1.820864E-16
4.660000E+03	1.777600E-14	1.817516E-16
4.670000E+03	1.776273E-14	1.813663E-16
4.680000E+03	1.774381E-14	1.809262E-16
4.690000E+03	1.771930E-14	1.804324E-16
4.700000E+03	1.768844E-14	1.798774E-16
4.710000E+03	1.765132E-14	1.792623E-16
4.720000E+03	1.760772E-14	1.785850E-16
4.730000E+03	1.755756E-14	1.778452E-16
4.740000E+03	1.750114E-14	1.770459E-16
4.750000E+03	1.743909E-14	1.761940E-16
4.760000E+03	1.737188E-14	1.752942E-16
4.770000E+03	1.729963E-14	1.743479E-16
4.780000E+03	1.722295E-14	1.733616E-16
4.790000E+03	1.714215E-14	1.723384E-16
4.800000E+03	1.705783E-14	1.712846E-16
4.810000E+03	1.696996E-14	1.701998E-16
4.820000E+03	1.687911E-14	1.690901E-16
4.830000E+03	1.678527E-14	1.679551E-16
4.840000E+03	1.668901E-14	1.668010E-16
4.850000E+03	1.659045E-14	1.656287E-16
4.860000E+03	1.648952E-14	1.644378E-16
4.870000E+03	1.638680E-14	1.632340E-16
4.880000E+03	1.628225E-14	1.620170E-16
4.890000E+03	1.617595E-14	1.607875E-16
4.900000E+03	1.606814E-14	1.595481E-16
4.910000E+03	1.595894E-14	1.582999E-16
4.920000E+03	1.584842E-14	1.570436E-16
4.930000E+03	1.573683E-14	1.557817E-16
4.940000E+03	1.562394E-14	1.545120E-16
4.950000E+03	1.551015E-14	1.532383E-16
4.960000E+03	1.539554E-14	1.519614E-16
4.970000E+03	1.528003E-14	1.506807E-16
4.980000E+03	1.516371E-14	1.493968E-16
4.990000E+03	1.504664E-14	1.481105E-16
5.000000E+03	1.492906E-14	1.468242E-16
5.010000E+03	1.481090E-14	1.455368E-16
5.020000E+03	1.469221E-14	1.442491E-16
5.030000E+03	1.457306E-14	1.429618E-16
5.040000E+03	1.445369E-14	1.416771E-16
5.050000E+03	1.433385E-14	1.403925E-16
5.060000E+03	1.421377E-14	1.391101E-16
5.070000E+03	1.409350E-14	1.378307E-16
5.080000E+03	1.397310E-14	1.365545E-16
5.090000E+03	1.385264E-14	1.352824E-16
5.100000E+03	1.373216E-14	1.340146E-16
5.110000E+03	1.361147E-14	1.327492E-16
5.120000E+03	1.349100E-14	1.314905E-16
5.130000E+03	1.337056E-14	1.302365E-16
5.140000E+03	1.325019E-14	1.289875E-16
5.150000E+03	1.312995E-14	1.277441E-16
5.160000E+03	1.300989E-14	1.265067E-16
5.170000E+03	1.289005E-14	1.252756E-16
5.180000E+03	1.277062E-14	1.240528E-16
5.190000E+03	1.265126E-14	1.228347E-16
5.200000E+03	1.253239E-14	1.216254E-16
5.210000E+03	1.241382E-14	1.204230E-16
5.220000E+03	1.229570E-14	1.192289E-16
5.230000E+03	1.217797E-14	1.180426E-16
5.240000E+03	1.206054E-14	1.168629E-16
5.250000E+03	1.194371E-14	1.156929E-16
5.260000E+03	1.182740E-14	1.145315E-16
5.270000E+03	1.171164E-14	1.133793E-16
5.280000E+03	1.159638E-14	1.122354E-16
5.290000E+03	1.148167E-14	1.111003E-16
5.300000E+03	1.136764E-14	1.099752E-16
5.310000E+03	1.125413E-14	1.088585E-16
5.320000E+03	1.114141E-14	1.077524E-16
5.330000E+03	1.102930E-14	1.066553E-16
5.340000E+03	1.091786E-14	1.055675E-16
5.350000E+03	1.080721E-14	1.044903E-16
5.360000E+03	1.069732E-14	1.034229E-16
5.370000E+03	1.058809E-14	1.023646E-16
5.380000E+03	1.047978E-14	1.013176E-16
5.390000E+03	1.037207E-14	1.002789E-16
5.400000E+03	1.026513E-14	9.924978E-17
5.410000E+03	1.015894E-14	9.823011E-17
5.420000E+03	1.005343E-14	9.721915E-17
5.430000E+03	9.948720E-15	9.621784E-17
5.440000E+03	9.844617E-15	9.522430E-17
5.450000E+03	9.741247E-15	9.423964E-17
5.460000E+03	9.638531E-15	9.326302E-17
5.470000E+03	9.536580E-15	9.229542E-17
5.480000E+03	9.435503E-15	9.133783E-17
5.490000E+03	9.335035E-15	9.038759E-17
5.500000E+03	9.235474E-15	8.944750E-17
5.510000E+03	9.136558E-15	8.851496E-17
5.520000E+03	9.038393E-15	8.759093E-17
5.530000E+03	8.941088E-15	8.667638E-17
5.540000E+03	8.844564E-15	8.577049E-17
5.550000E+03	8.748835E-15	8.487331E-17
5.560000E+03	8.654000E-15	8.398577E-17
5.570000E+03	8.559982E-15	8.310702E-17
5.580000E+03	8.466875E-15	8.223794E-17
5.590000E+03	8.374686E-15	8.137853E-17
5.600000E+03	8.283420E-15	8.052880E-17
5.610000E+03	8.193163E-15	7.968951E-17
5.620000E+03	8.103750E-15	7.885903E-17
5.630000E+03	8.015350E-15	7.803893E-17
5.640000E+03	7.927959E-15	7.722915E-17
5.650000E+03	7.841496E-15	7.642884E-17
5.660000E+03	7.756036E-15	7.563870E-17
5.670000E+03	7.671575E-15	7.485865E-17
5.680000E+03	7.588107E-15	7.408858E-17
5.690000E+03	7.505627E-15	7.332843E-17
5.700000E+03	7.424125E-15	7.257805E-17
5.710000E+03	7.343671E-15	7.183809E-17
5.720000E+03	7.264177E-15	7.110768E-17
5.730000E+03	7.185711E-15	7.038743E-17
5.740000E+03	7.108258E-15	6.967719E-17
5.750000E+03	7.031806E-15	6.897682E-17
5.760000E+03	6.956272E-15	6.828545E-17
5.770000E+03	6.881787E-15	6.760437E-17
5.780000E+03	6.808266E-15	6.693272E-17
5.790000E+03	6.735693E-15	6.627032E-17
5.800000E+03	6.664125E-15	6.561772E-17
5.810000E+03	6.593549E-15	6.497477E-17
5.820000E+03	6.523877E-15	6.434058E-17
5.830000E+03	6.455233E-15	6.371637E-17
5.840000E+03	6.387464E-15	6.310062E-17
5.850000E+03	6.320622E-15	6.249382E-17
5.860000E+03	6.254759E-15	6.189649E-17
5.870000E+03	6.189791E-15	6.130777E-17
5.880000E+03	6.125768E-15	6.072817E-17
5.890000E+03	6.062675E-15	6.015751E-17
5.900000E+03	6.000426E-15	5.959496E-17
5.910000E+03	5.939140E-15	5.904166E-17
5.920000E+03	5.878666E-15	5.849613E-17
5.930000E+03	5.819120E-15	5.795952E-17
5.940000E+03	5.760483E-15	5.743163E-17
5.950000E+03	5.702675E-15	5.691167E-17
5.960000E+03	5.645744E-15	5.640011E-17
5.970000E+03	5.589673E-15	5.589679E-17
5.980000E+03	5.534446E-15	5.540153E-17
5.990000E+03	5.480107E-15	5.491480E-17
6.000000E+03	5.426581E-15	5.443583E-17
6.010000E+03	5.373851E-15	5.396447E-17
6.020000E+03	5.321962E-15	5.350116E-17
6.030000E+03	5.270900E-15	5.304577E-17
6.040000E+03	5.220648E-15	5.259813E-17
6.050000E+03	5.171133E-15	5.215752E-17
6.060000E+03	5.122458E-15	5.172499E-17
6.070000E+03	5.074493E-15	5.129921E-17
6.080000E+03	5.027281E-15	5.088064E-17
6.090000E+03	4.980810E-15	5.046915E-17
6.100000E+03	4.934952E-15	5.006347E-17
6.110000E+03	4.889754E-15	4.966406E-17
6.120000E+03	4.845091E-15	4.926967E-17
6.130000E+03	4.800955E-15	4.888021E-17
6.140000E+03	4.757169E-15	4.849388E-17
6.150000E+03	4.713672E-15	4.811006E-17
6.160000E+03	4.670405E-15	4.772812E-17
6.170000E+03	4.627199E-15	4.734630E-17
6.180000E+03	4.584105E-15	4.696510E-17
6.190000E+03	4.541174E-15	4.658501E-17
6.200000E+03	4.498512E-15	4.620709E-17
6.210000E+03	4.456271E-15	4.583290E-17
6.220000E+03	4.414498E-15	4.546288E-17
6.230000E+03	4.373288E-15	4.509802E-17
6.240000E+03	4.332632E-15	4.473820E-17
6.250000E+03	4.292568E-15	4.438385E-17
6.260000E+03	4.253088E-15	4.403483E-17
6.270000E+03	4.214282E-15	4.369209E-17
6.280000E+03	4.176083E-15	4.335497E-17
6.290000E+03	4.138481E-15	4.302332E-17
6.300000E+03	4.101463E-15	4.269703E-17
6.310000E+03	4.065065E-15	4.237646E-17
6.320000E+03	4.029222E-15	4.206096E-17
6.330000E+03	3.993971E-15	4.175091E-17
6.340000E+03	3.959247E-15	4.144562E-17
6.350000E+03	3.925034E-15	4.114494E-17
6.360000E+03	3.891368E-15	4.084925E-17
6.370000E+03	3.858184E-15	4.055787E-17
6.380000E+03	3.825516E-15	4.027114E-17
6.390000E+03	3.793301E-15	3.998844E-17
6.400000E+03	3.761622E-15	3.971062E-17
6.410000E+03	3.730421E-15	3.943710E-17
6.420000E+03	3.699738E-15	3.916828E-17
6.430000E+03	3.669565E-15	3.890410E-17
6.440000E+03	3.639850E-15	3.864400E-17
6.450000E+03	3.610542E-15	3.838747E-17
6.460000E+03	3.581592E-15	3.813397E-17
6.470000E+03	3.552903E-15	3.788249E-17
6.480000E+03	3.524566E-15	3.763399E-17
6.490000E+03	3.496441E-15	3.738697E-17
6.500000E+03	3.468524E-15	3.714139E-17
6.510000E+03	3.440767E-15	3.689674E-17
6.520000E+03	3.413258E-15	3.665397E-17
6.530000E+03	3.385904E-15	3.641205E-17
6.540000E+03	3.358699E-15	3.617094E-17
6.550000E+03	3.331686E-15	3.593109E-17
6.560000E+03	3.304815E-15	3.569196E-17
6.570000E+03	3.278127E-15	3.545399E-17
6.580000E+03	3.251617E-15	3.521714E-17
6.590000E+03	3.225280E-15	3.498134E-17
6.600000E+03	3.199112E-15	3.474655E-17
6.610000E+03	3.173152E-15	3.451320E-17
6.620000E+03	3.147350E-15	3.428074E-17
6.630000E+03	3.121746E-15	3.404962E-17
6.640000E+03	3.096334E-15	3.381977E-17
6.650000E+03	3.071111E-15	3.359116E-17
6.660000E+03	3.046114E-15	3.336420E-17
6.670000E+03	3.021296E-15	3.313837E-17
6.680000E+03	2.996694E-15	3.291411E-17
6.690000E+03	2.972263E-15	3.269089E-17
6.700000E+03	2.948081E-15	3.246960E-17
6.710000E+03	2.924105E-15	3.224976E-17
6.720000E+03	2.900327E-15	3.203130E-17
6.730000E+03	2.876745E-15	3.181419E-17
6.740000E+03	2.853397E-15	3.159887E-17
6.750000E+03	2.830236E-15	3.138482E-17
6.760000E+03	2.807302E-15	3.117248E-17
6.770000E+03	2.784550E-15	3.096138E-17
6.780000E+03	2.762058E-15	3.075238E-17
6.790000E+03	2.739741E-15	3.054453E-17
6.800000E+03	2.717637E-15	3.033829E-17
6.810000E+03	2.695742E-15	3.013360E-17
6.820000E+03	2.674015E-15	2.993001E-17
6.830000E+03	2.652532E-15	2.972840E-17
6.840000E+03	2.631251E-15	2.952829E-17
6.850000E+03	2.610169E-15	2.932966E-17
6.860000E+03	2.589284E-15	2.913249E-17
6.870000E+03	2.568593E-15	2.893676E-17
6.880000E+03	2.548095E-15	2.874247E-17
6.890000E+03	2.527787E-15	2.854959E-17
6.900000E+03	2.507668E-15	2.835811E-17
6.910000E+03	2.487734E-15	2.816802E-17
6.920000E+03	2.467986E-15	2.797930E-17
6.930000E+03	2.448459E-15	2.779239E-17
6.940000E+03	2.429075E-15	2.760639E-17
6.950000E+03	2.409909E-15	2.742218E-17
6.960000E+03	2.390921E-15	2.723930E-17
6.970000E+03	2.372109E-15	2.705775E-17
6.980000E+03	2.353435E-15	2.687709E-17
6.990000E+03	2.334973E-15	2.669817E-17
7.000000E+03	2.316684E-15	2.652058E-17
7.010000E+03	2.298566E-15	2.634428E-17
7.020000E+03	2.280619E-15	2.616929E-17
7.030000E+03	2.262840E-15	2.599559E-17
7.040000E+03	2.245230E-15	2.582318E-17
7.050000E+03	2.227788E-15	2.565207E-17
7.060000E+03	2.210475E-15	2.548183E-17
7.070000E+03	2.193364E-15	2.531330E-17
7.080000E+03	2.176418E-15	2.514604E-17
7.090000E+03	2.159635E-15	2.498008E-17
7.100000E+03	2.142978E-15	2.481497E-17
7.110000E+03	2.126521E-15	2.465159E-17
7.120000E+03	2.110188E-15	2.448905E-17
7.130000E+03	2.094053E-15	2.432824E-17
7.140000E+03	2.078077E-15	2.416870E-17
7.150000E+03	2.062225E-15	2.401003E-17
7.160000E+03	2.046567E-15	2.385307E-17
7.170000E+03	2.031067E-15	2.369739E-17
7.180000E+03	2.015724E-15	2.354302E-17
7.190000E+03	2.000539E-15	2.338993E-17
7.200000E+03	1.985545E-15	2.323856E-17
7.210000E+03	1.970707E-15	2.308848E-17
7.220000E+03	1.956060E-15	2.294013E-17
7.230000E+03	1.941565E-15	2.279306E-17
7.240000E+03	1.927261E-15	2.264772E-17
7.250000E+03	1.913145E-15	2.250409E-17
7.260000E+03	1.899251E-15	2.236260E-17
7.270000E+03	1.885508E-15	2.222241E-17
7.280000E+03	1.871987E-15	2.208435E-17
7.290000E+03	1.858685E-15	2.194843E-17
7.300000E+03	1.845603E-15	2.181463E-17
7.310000E+03	1.832704E-15	2.168256E-17
7.320000E+03	1.820091E-15	2.155344E-17
7.330000E+03	1.807694E-15	2.142644E-17
7.340000E+03	1.795513E-15	2.130158E-17
7.350000E+03	1.783614E-15	2.117965E-17
7.360000E+03	1.771963E-15	2.106027E-17
7.370000E+03	1.760592E-15	2.094381E-17
7.380000E+03	1.749466E-15	2.082989E-17
7.390000E+03	1.738585E-15	2.071850E-17
7.400000E+03	1.727981E-15	2.061004E-17
7.410000E+03	1.717653E-15	2.050451E-17
7.420000E+03	1.707567E-15	2.040152E-17
7.430000E+03	1.697722E-15	2.030106E-17
7.440000E+03	1.688116E-15	2.020313E-17
7.450000E+03	1.678750E-15	2.010773E-17
7.460000E+03	1.669657E-15	2.001528E-17
7.470000E+03	1.660769E-15	1.992498E-17
7.480000E+03	1.652118E-15	1.983721E-17
7.490000E+03	1.643705E-15	1.975199E-17
7.500000E+03	1.635528E-15	1.966933E-17
7.510000E+03	1.627522E-15	1.958843E-17
7.520000E+03	1.619753E-15	1.951011E-17
7.530000E+03	1.612153E-15	1.943355E-17
7.540000E+03	1.604758E-15	1.935919E-17
7.550000E+03	1.597533E-15	1.928663E-17
7.560000E+03	1.590479E-15	1.921587E-17
7.570000E+03	1.583597E-15	1.914693E-17
7.580000E+03	1.576854E-15	1.907944E-17
7.590000E+03	1.570282E-15	1.901377E-17
7.600000E+03	1.563818E-15	1.894918E-17
7.610000E+03	1.557526E-15	1.888645E-17
7.620000E+03	1.551343E-15	1.882481E-17
7.630000E+03	1.545301E-15	1.876466E-17
7.640000E+03	1.539401E-15	1.870602E-17
7.650000E+03	1.533612E-15	1.864852E-17
7.660000E+03	1.527965E-15	1.859254E-17
7.670000E+03	1.522399E-15	1.853735E-17
7.680000E+03	1.517008E-15	1.848409E-17
7.690000E+03	1.511699E-15	1.843164E-17
7.700000E+03	1.506536E-15	1.838078E-17
7.710000E+03	1.501455E-15	1.833073E-17
7.720000E+03	1.496522E-15	1.828231E-17
7.730000E+03	1.491705E-15	1.823514E-17
7.740000E+03	1.487005E-15	1.818922E-17
7.750000E+03	1.482456E-15	1.814497E-17
7.760000E+03	1.477992E-15	1.810162E-17
