#wls	flux	fluxerr
1.600000E+03	1.183703E-16	7.521578E-18
1.640000E+03	1.188598E-16	7.521173E-18
1.680000E+03	1.194879E-16	7.528530E-18
1.720000E+03	1.203062E-16	7.546748E-18
1.760000E+03	1.213013E-16	7.574805E-18
1.800000E+03	1.224823E-16	7.613091E-18
1.840000E+03	1.238814E-16	7.663395E-18
1.880000E+03	1.254873E-16	7.724792E-18
1.920000E+03	1.273567E-16	7.800528E-18
1.960000E+03	1.294805E-16	7.889752E-18
2.000000E+03	1.318732E-16	7.993050E-18
2.040000E+03	1.345738E-16	8.112454E-18
2.080000E+03	1.376001E-16	8.248669E-18
2.120000E+03	1.409720E-16	8.402464E-18
2.160000E+03	1.447107E-16	8.574665E-18
2.200000E+03	1.488897E-16	8.769130E-18
2.240000E+03	1.535117E-16	8.985444E-18
2.280000E+03	1.586062E-16	9.224729E-18
2.320000E+03	1.642587E-16	9.491276E-18
2.360000E+03	1.704803E-16	9.784955E-18
2.400000E+03	1.773392E-16	1.010885E-17
2.440000E+03	1.849100E-16	1.046629E-17
2.480000E+03	1.932450E-16	1.085915E-17
2.520000E+03	2.024313E-16	1.129117E-17
2.560000E+03	2.125330E-16	1.176464E-17
2.600000E+03	2.236846E-16	1.228555E-17
2.640000E+03	2.359676E-16	1.285672E-17
2.680000E+03	2.495045E-16	1.348302E-17
2.720000E+03	2.644655E-16	1.417159E-17
2.760000E+03	2.809639E-16	1.492618E-17
2.800000E+03	2.991599E-16	1.575276E-17
2.840000E+03	3.193076E-16	1.666181E-17
2.880000E+03	3.416051E-16	1.766038E-17
2.920000E+03	3.662670E-16	1.875589E-17
2.960000E+03	3.935689E-16	1.995837E-17
3.000000E+03	4.238110E-16	2.127843E-17
3.010000E+03	4.319162E-16	2.163051E-17
3.020000E+03	4.402005E-16	2.198928E-17
3.030000E+03	4.486665E-16	2.235481E-17
3.040000E+03	4.574147E-16	2.273202E-17
3.050000E+03	4.663526E-16	2.311619E-17
3.060000E+03	4.755331E-16	2.350987E-17
3.070000E+03	4.849606E-16	2.391316E-17
3.080000E+03	4.946398E-16	2.432618E-17
3.090000E+03	5.045752E-16	2.474906E-17
3.100000E+03	5.147716E-16	2.518192E-17
3.110000E+03	5.252335E-16	2.562486E-17
3.120000E+03	5.359657E-16	2.607801E-17
3.130000E+03	5.470263E-16	2.654406E-17
3.140000E+03	5.583138E-16	2.701797E-17
3.150000E+03	5.699404E-16	2.750504E-17
3.160000E+03	5.819123E-16	2.800544E-17
3.170000E+03	5.941249E-16	2.851399E-17
3.180000E+03	6.066936E-16	2.903611E-17
3.190000E+03	6.196249E-16	2.957196E-17
3.200000E+03	6.328679E-16	3.011895E-17
3.210000E+03	6.464853E-16	3.067993E-17
3.220000E+03	6.604251E-16	3.125228E-17
3.230000E+03	6.748102E-16	3.184165E-17
3.240000E+03	6.895293E-16	3.244261E-17
3.250000E+03	7.046476E-16	3.305808E-17
3.260000E+03	7.201105E-16	3.368533E-17
3.270000E+03	7.360455E-16	3.433014E-17
3.280000E+03	7.523986E-16	3.498983E-17
3.290000E+03	7.691763E-16	3.566449E-17
3.300000E+03	7.864479E-16	3.635714E-17
3.310000E+03	8.040936E-16	3.706206E-17
3.320000E+03	8.222466E-16	3.778520E-17
3.330000E+03	8.408497E-16	3.852372E-17
3.340000E+03	8.599744E-16	3.928069E-17
3.350000E+03	8.796286E-16	4.005624E-17
3.360000E+03	8.997525E-16	4.084742E-17
3.370000E+03	9.204194E-16	4.165737E-17
3.380000E+03	9.416366E-16	4.248615E-17
3.390000E+03	9.633418E-16	4.333075E-17
3.400000E+03	9.856799E-16	4.419743E-17
3.410000E+03	1.008589E-15	4.508317E-17
3.420000E+03	1.032075E-15	4.598801E-17
3.430000E+03	1.056217E-15	4.691513E-17
3.440000E+03	1.080878E-15	4.785827E-17
3.450000E+03	1.106279E-15	4.882695E-17
3.460000E+03	1.132285E-15	4.981487E-17
3.470000E+03	1.158900E-15	5.082197E-17
3.480000E+03	1.186279E-15	5.185478E-17
3.490000E+03	1.214278E-15	5.290668E-17
3.500000E+03	1.242978E-15	5.398097E-17
3.510000E+03	1.272387E-15	5.507764E-17
3.520000E+03	1.302585E-15	5.619989E-17
3.530000E+03	1.333503E-15	5.734440E-17
3.540000E+03	1.365143E-15	5.851097E-17
3.550000E+03	1.397591E-15	5.970294E-17
3.560000E+03	1.430853E-15	6.092026E-17
3.570000E+03	1.464849E-15	6.215924E-17
3.580000E+03	1.499749E-15	6.342671E-17
3.590000E+03	1.535392E-15	6.471553E-17
3.600000E+03	1.571862E-15	6.602892E-17
3.610000E+03	1.609247E-15	6.737024E-17
3.620000E+03	1.647465E-15	6.873572E-17
3.630000E+03	1.686604E-15	7.012865E-17
3.640000E+03	1.726577E-15	7.154512E-17
3.650000E+03	1.767473E-15	7.298840E-17
3.660000E+03	1.809292E-15	7.445820E-17
3.670000E+03	1.852034E-15	7.595414E-17
3.680000E+03	1.895787E-15	7.747948E-17
3.690000E+03	1.940371E-15	7.902646E-17
3.700000E+03	1.985962E-15	8.060200E-17
3.710000E+03	2.032559E-15	8.220560E-17
3.720000E+03	2.080068E-15	8.383309E-17
3.730000E+03	2.128573E-15	8.548759E-17
3.740000E+03	2.178071E-15	8.716860E-17
3.750000E+03	2.228554E-15	8.887547E-17
3.760000E+03	2.280016E-15	9.060757E-17
3.770000E+03	2.332450E-15	9.236429E-17
3.780000E+03	2.385940E-15	9.414868E-17
3.790000E+03	2.440476E-15	9.596000E-17
3.800000E+03	2.495956E-15	9.779381E-17
3.810000E+03	2.552555E-15	9.965678E-17
3.820000E+03	2.610072E-15	1.015406E-16
3.830000E+03	2.668587E-15	1.034483E-16
3.840000E+03	2.728087E-15	1.053788E-16
3.850000E+03	2.788653E-15	1.073353E-16
3.860000E+03	2.850172E-15	1.093128E-16
3.870000E+03	2.912722E-15	1.113143E-16
3.880000E+03	2.976288E-15	1.133389E-16
3.890000E+03	3.040748E-15	1.153817E-16
3.900000E+03	3.106181E-15	1.174455E-16
3.910000E+03	3.172567E-15	1.195293E-16
3.920000E+03	3.239883E-15	1.216320E-16
3.930000E+03	3.308105E-15	1.237527E-16
3.940000E+03	3.377208E-15	1.258901E-16
3.950000E+03	3.447269E-15	1.280471E-16
3.960000E+03	3.518161E-15	1.302188E-16
3.970000E+03	3.589856E-15	1.324041E-16
3.980000E+03	3.662432E-15	1.346057E-16
3.990000E+03	3.735755E-15	1.368187E-16
4.000000E+03	3.809800E-15	1.390421E-16
4.010000E+03	3.884643E-15	1.412788E-16
4.020000E+03	3.960255E-15	1.435276E-16
4.030000E+03	4.036506E-15	1.457839E-16
4.040000E+03	4.113368E-15	1.480468E-16
4.050000E+03	4.190919E-15	1.503191E-16
4.060000E+03	4.269032E-15	1.525964E-16
4.070000E+03	4.347682E-15	1.548780E-16
4.080000E+03	4.426953E-15	1.571670E-16
4.090000E+03	4.506719E-15	1.594591E-16
4.100000E+03	4.586861E-15	1.617503E-16
4.110000E+03	4.667573E-15	1.640478E-16
4.120000E+03	4.748638E-15	1.663441E-16
4.130000E+03	4.830153E-15	1.686430E-16
4.140000E+03	4.912013E-15	1.709411E-16
4.150000E+03	4.994225E-15	1.732389E-16
4.160000E+03	5.076799E-15	1.755372E-16
4.170000E+03	5.159650E-15	1.778334E-16
4.180000E+03	5.242909E-15	1.801325E-16
4.190000E+03	5.326403E-15	1.824288E-16
4.200000E+03	5.410282E-15	1.847280E-16
4.210000E+03	5.494496E-15	1.870288E-16
4.220000E+03	5.579008E-15	1.893304E-16
4.230000E+03	5.664004E-15	1.916396E-16
4.240000E+03	5.749366E-15	1.939528E-16
4.250000E+03	5.835204E-15	1.962742E-16
4.260000E+03	5.921638E-15	1.986083E-16
4.270000E+03	6.008597E-15	2.009532E-16
4.280000E+03	6.096146E-15	2.033116E-16
4.290000E+03	6.184070E-15	2.056768E-16
4.300000E+03	6.272239E-15	2.080452E-16
4.310000E+03	6.360312E-15	2.104059E-16
4.320000E+03	6.448159E-15	2.127556E-16
4.330000E+03	6.535447E-15	2.150839E-16
4.340000E+03	6.622050E-15	2.173877E-16
4.350000E+03	6.707638E-15	2.196571E-16
4.360000E+03	6.791990E-15	2.218857E-16
4.370000E+03	6.874991E-15	2.240710E-16
4.380000E+03	6.956221E-15	2.262000E-16
4.390000E+03	7.035473E-15	2.282670E-16
4.400000E+03	7.112648E-15	2.302696E-16
4.410000E+03	7.187343E-15	2.321954E-16
4.420000E+03	7.259576E-15	2.340460E-16
4.430000E+03	7.328953E-15	2.358094E-16
4.440000E+03	7.395298E-15	2.374809E-16
4.450000E+03	7.458644E-15	2.390623E-16
4.460000E+03	7.518619E-15	2.405425E-16
4.470000E+03	7.575374E-15	2.419272E-16
4.480000E+03	7.628750E-15	2.432122E-16
4.490000E+03	7.678604E-15	2.443934E-16
4.500000E+03	7.724995E-15	2.454736E-16
4.510000E+03	7.767992E-15	2.464556E-16
4.520000E+03	7.807462E-15	2.473359E-16
4.530000E+03	7.843484E-15	2.481173E-16
4.540000E+03	7.875935E-15	2.487969E-16
4.550000E+03	7.905103E-15	2.493839E-16
4.560000E+03	7.930777E-15	2.498723E-16
4.570000E+03	7.953050E-15	2.502655E-16
4.580000E+03	7.972022E-15	2.505670E-16
4.590000E+03	7.987593E-15	2.507740E-16
4.600000E+03	7.999969E-15	2.508932E-16
4.610000E+03	8.009156E-15	2.509252E-16
4.620000E+03	8.015073E-15	2.508675E-16
4.630000E+03	8.017835E-15	2.507241E-16
4.640000E+03	8.017556E-15	2.504988E-16
4.650000E+03	8.014261E-15	2.501923E-16
4.660000E+03	8.007882E-15	2.498027E-16
4.670000E+03	7.998544E-15	2.493339E-16
4.680000E+03	7.986281E-15	2.487871E-16
4.690000E+03	7.971036E-15	2.481606E-16
4.700000E+03	7.952853E-15	2.474556E-16
4.710000E+03	7.931865E-15	2.466764E-16
4.720000E+03	7.907939E-15	2.458187E-16
4.730000E+03	7.881216E-15	2.448868E-16
4.740000E+03	7.851572E-15	2.438767E-16
4.750000E+03	7.819065E-15	2.427903E-16
4.760000E+03	7.783847E-15	2.416319E-16
4.770000E+03	7.745892E-15	2.404008E-16
4.780000E+03	7.705267E-15	2.390987E-16
4.790000E+03	7.662128E-15	2.377302E-16
4.800000E+03	7.616457E-15	2.362947E-16
4.810000E+03	7.568494E-15	2.347993E-16
4.820000E+03	7.518308E-15	2.332459E-16
4.830000E+03	7.465970E-15	2.316364E-16
4.840000E+03	7.411715E-15	2.299778E-16
4.850000E+03	7.355610E-15	2.282719E-16
4.860000E+03	7.297882E-15	2.265255E-16
4.870000E+03	7.238597E-15	2.247402E-16
4.880000E+03	7.177821E-15	2.229178E-16
4.890000E+03	7.115694E-15	2.210623E-16
4.900000E+03	7.052435E-15	2.191802E-16
4.910000E+03	6.987948E-15	2.172682E-16
4.920000E+03	6.922450E-15	2.153326E-16
4.930000E+03	6.855996E-15	2.133748E-16
4.940000E+03	6.788720E-15	2.113987E-16
4.950000E+03	6.720604E-15	2.094034E-16
4.960000E+03	6.651779E-15	2.073926E-16
4.970000E+03	6.582369E-15	2.053698E-16
4.980000E+03	6.512290E-15	2.033321E-16
4.990000E+03	6.441804E-15	2.012873E-16
5.000000E+03	6.370824E-15	1.992324E-16
5.010000E+03	6.299470E-15	1.971709E-16
5.020000E+03	6.227797E-15	1.951039E-16
5.030000E+03	6.155916E-15	1.930349E-16
5.040000E+03	6.083813E-15	1.909630E-16
5.050000E+03	6.011599E-15	1.888914E-16
5.060000E+03	5.939322E-15	1.868213E-16
5.070000E+03	5.867028E-15	1.847539E-16
5.080000E+03	5.794761E-15	1.826901E-16
5.090000E+03	5.722567E-15	1.806313E-16
5.100000E+03	5.650491E-15	1.785786E-16
5.110000E+03	5.578634E-15	1.765349E-16
5.120000E+03	5.507039E-15	1.745013E-16
5.130000E+03	5.435745E-15	1.724788E-16
5.140000E+03	5.364738E-15	1.704666E-16
5.150000E+03	5.294117E-15	1.684678E-16
5.160000E+03	5.223974E-15	1.664850E-16
5.170000E+03	5.154243E-15	1.645160E-16
5.180000E+03	5.085017E-15	1.625634E-16
5.190000E+03	5.016388E-15	1.606300E-16
5.200000E+03	4.948343E-15	1.587153E-16
5.210000E+03	4.880924E-15	1.568204E-16
5.220000E+03	4.814169E-15	1.549464E-16
5.230000E+03	4.748171E-15	1.530961E-16
5.240000E+03	4.682871E-15	1.512675E-16
5.250000E+03	4.618408E-15	1.494649E-16
5.260000E+03	4.554777E-15	1.476880E-16
5.270000E+03	4.492065E-15	1.459395E-16
5.280000E+03	4.430224E-15	1.442176E-16
5.290000E+03	4.369343E-15	1.425248E-16
5.300000E+03	4.309469E-15	1.408626E-16
5.310000E+03	4.250645E-15	1.392321E-16
5.320000E+03	4.192919E-15	1.376349E-16
5.330000E+03	4.136296E-15	1.360710E-16
5.340000E+03	4.080825E-15	1.345418E-16
5.350000E+03	4.026596E-15	1.330503E-16
5.360000E+03	3.973580E-15	1.315954E-16
5.370000E+03	3.921906E-15	1.301815E-16
5.380000E+03	3.871437E-15	1.288040E-16
5.390000E+03	3.822164E-15	1.274625E-16
5.400000E+03	3.773959E-15	1.261529E-16
5.410000E+03	3.726668E-15	1.248699E-16
5.420000E+03	3.680296E-15	1.236137E-16
5.430000E+03	3.634668E-15	1.223784E-16
5.440000E+03	3.589727E-15	1.211620E-16
5.450000E+03	3.545389E-15	1.199617E-16
5.460000E+03	3.501574E-15	1.187746E-16
5.470000E+03	3.458143E-15	1.175959E-16
5.480000E+03	3.415032E-15	1.164234E-16
5.490000E+03	3.372216E-15	1.152560E-16
5.500000E+03	3.329644E-15	1.140921E-16
5.510000E+03	3.287332E-15	1.129319E-16
5.520000E+03	3.245396E-15	1.117793E-16
5.530000E+03	3.203822E-15	1.106339E-16
5.540000E+03	3.162658E-15	1.094971E-16
5.550000E+03	3.121953E-15	1.083708E-16
5.560000E+03	3.081725E-15	1.072554E-16
5.570000E+03	3.041958E-15	1.061504E-16
5.580000E+03	3.002673E-15	1.050565E-16
5.590000E+03	2.963916E-15	1.039754E-16
5.600000E+03	2.925619E-15	1.029046E-16
5.610000E+03	2.887828E-15	1.018458E-16
5.620000E+03	2.850534E-15	1.007988E-16
5.630000E+03	2.813701E-15	9.976221E-17
5.640000E+03	2.777378E-15	9.873783E-17
5.650000E+03	2.741527E-15	9.772440E-17
5.660000E+03	2.706170E-15	9.672271E-17
5.670000E+03	2.671300E-15	9.573257E-17
5.680000E+03	2.636910E-15	9.475379E-17
5.690000E+03	2.602967E-15	9.378523E-17
5.700000E+03	2.569520E-15	9.282869E-17
5.710000E+03	2.536536E-15	9.188307E-17
5.720000E+03	2.504035E-15	9.094914E-17
5.730000E+03	2.471986E-15	9.002588E-17
5.740000E+03	2.440386E-15	8.911323E-17
5.750000E+03	2.409254E-15	8.821191E-17
5.760000E+03	2.378560E-15	8.732100E-17
5.770000E+03	2.348325E-15	8.644128E-17
5.780000E+03	2.318544E-15	8.557266E-17
5.790000E+03	2.289189E-15	8.471420E-17
5.800000E+03	2.260279E-15	8.386665E-17
5.810000E+03	2.231809E-15	8.302998E-17
5.820000E+03	2.203754E-15	8.220329E-17
5.830000E+03	2.176130E-15	8.138733E-17
5.840000E+03	2.148913E-15	8.058120E-17
5.850000E+03	2.122120E-15	7.978570E-17
5.860000E+03	2.095748E-15	7.900078E-17
5.870000E+03	2.069770E-15	7.822556E-17
5.880000E+03	2.044184E-15	7.745999E-17
5.890000E+03	2.019007E-15	7.670484E-17
5.900000E+03	1.994194E-15	7.595853E-17
5.910000E+03	1.969783E-15	7.522254E-17
5.920000E+03	1.945730E-15	7.449532E-17
5.930000E+03	1.922052E-15	7.377760E-17
5.940000E+03	1.898745E-15	7.306934E-17
5.950000E+03	1.875789E-15	7.236983E-17
5.960000E+03	1.853180E-15	7.167902E-17
5.970000E+03	1.830915E-15	7.099690E-17
5.980000E+03	1.808992E-15	7.032348E-17
5.990000E+03	1.787390E-15	6.965804E-17
6.000000E+03	1.766108E-15	6.900058E-17
6.010000E+03	1.745143E-15	6.835113E-17
6.020000E+03	1.724494E-15	6.770971E-17
6.030000E+03	1.704123E-15	6.707493E-17
6.040000E+03	1.684066E-15	6.644826E-17
6.050000E+03	1.664268E-15	6.582763E-17
6.060000E+03	1.644763E-15	6.521448E-17
6.070000E+03	1.625501E-15	6.460686E-17
6.080000E+03	1.606514E-15	6.400618E-17
6.090000E+03	1.587769E-15	6.341114E-17
6.100000E+03	1.569251E-15	6.282123E-17
6.110000E+03	1.550976E-15	6.223718E-17
6.120000E+03	1.532913E-15	6.165780E-17
6.130000E+03	1.515063E-15	6.108321E-17
6.140000E+03	1.497427E-15	6.051349E-17
6.150000E+03	1.479992E-15	5.994817E-17
6.160000E+03	1.462743E-15	5.938672E-17
6.170000E+03	1.445711E-15	5.883043E-17
6.180000E+03	1.428883E-15	5.827883E-17
6.190000E+03	1.412245E-15	5.773143E-17
6.200000E+03	1.395814E-15	5.718894E-17
6.210000E+03	1.379589E-15	5.665144E-17
6.220000E+03	1.363573E-15	5.611905E-17
6.230000E+03	1.347767E-15	5.559189E-17
6.240000E+03	1.332186E-15	5.507061E-17
6.250000E+03	1.316843E-15	5.455590E-17
6.260000E+03	1.301726E-15	5.404728E-17
6.270000E+03	1.286862E-15	5.354594E-17
6.280000E+03	1.272238E-15	5.305139E-17
6.290000E+03	1.257854E-15	5.256377E-17
6.300000E+03	1.243751E-15	5.208478E-17
6.310000E+03	1.229887E-15	5.161282E-17
6.320000E+03	1.216292E-15	5.114917E-17
6.330000E+03	1.202963E-15	5.069380E-17
6.340000E+03	1.189901E-15	5.024680E-17
6.350000E+03	1.177105E-15	4.980827E-17
6.360000E+03	1.164564E-15	4.937778E-17
6.370000E+03	1.152301E-15	4.895642E-17
6.380000E+03	1.140306E-15	4.854377E-17
6.390000E+03	1.128576E-15	4.813984E-17
6.400000E+03	1.117111E-15	4.774470E-17
6.410000E+03	1.105899E-15	4.735793E-17
6.420000E+03	1.094958E-15	4.698029E-17
6.430000E+03	1.084250E-15	4.661032E-17
6.440000E+03	1.073767E-15	4.624770E-17
6.450000E+03	1.063499E-15	4.589208E-17
6.460000E+03	1.053446E-15	4.554354E-17
6.470000E+03	1.043589E-15	4.520127E-17
6.480000E+03	1.033908E-15	4.486446E-17
6.490000E+03	1.024404E-15	4.453327E-17
6.500000E+03	1.015071E-15	4.420739E-17
6.510000E+03	1.005899E-15	4.388656E-17
6.520000E+03	9.968814E-16	4.357044E-17
6.530000E+03	9.880118E-16	4.325885E-17
6.540000E+03	9.792928E-16	4.295193E-17
6.550000E+03	9.707181E-16	4.264944E-17
6.560000E+03	9.622823E-16	4.235120E-17
6.570000E+03	9.539989E-16	4.205785E-17
6.580000E+03	9.458643E-16	4.176927E-17
6.590000E+03	9.378594E-16	4.148465E-17
6.600000E+03	9.300132E-16	4.120533E-17
6.610000E+03	9.223075E-16	4.093054E-17
6.620000E+03	9.147386E-16	4.066017E-17
6.630000E+03	9.073211E-16	4.039489E-17
6.640000E+03	9.000307E-16	4.013366E-17
6.650000E+03	8.928940E-16	3.987773E-17
6.660000E+03	8.859048E-16	3.962684E-17
6.670000E+03	8.790500E-16	3.938046E-17
6.680000E+03	8.723261E-16	3.913846E-17
6.690000E+03	8.657572E-16	3.890198E-17
6.700000E+03	8.593115E-16	3.866961E-17
6.710000E+03	8.530143E-16	3.844253E-17
6.720000E+03	8.468521E-16	3.822017E-17
6.730000E+03	8.408217E-16	3.800243E-17
6.740000E+03	8.349295E-16	3.778963E-17
6.750000E+03	8.291724E-16	3.758167E-17
6.760000E+03	8.235472E-16	3.737843E-17
6.770000E+03	8.180509E-16	3.717982E-17
6.780000E+03	8.126905E-16	3.698619E-17
6.790000E+03	8.074532E-16	3.679699E-17
6.800000E+03	8.023462E-16	3.661257E-17
6.810000E+03	7.973668E-16	3.643286E-17
6.820000E+03	7.925030E-16	3.625732E-17
6.830000E+03	7.877713E-16	3.608676E-17
6.840000E+03	7.831598E-16	3.592065E-17
6.850000E+03	7.786664E-16	3.575892E-17
6.860000E+03	7.742983E-16	3.560195E-17
6.870000E+03	7.700438E-16	3.544921E-17
6.880000E+03	7.659103E-16	3.530107E-17
6.890000E+03	7.618864E-16	3.515705E-17
6.900000E+03	7.579701E-16	3.501707E-17
6.910000E+03	7.541784E-16	3.488194E-17
6.920000E+03	7.504906E-16	3.475074E-17
6.930000E+03	7.469144E-16	3.462384E-17
6.940000E+03	7.434387E-16	3.450075E-17
6.950000E+03	7.400712E-16	3.438187E-17
6.960000E+03	7.368103E-16	3.426712E-17
6.970000E+03	7.336545E-16	3.415647E-17
6.980000E+03	7.306022E-16	3.404986E-17
6.990000E+03	7.276427E-16	3.394683E-17
7.000000E+03	7.247839E-16	3.384775E-17
7.010000E+03	7.220152E-16	3.375215E-17
7.020000E+03	7.193537E-16	3.366086E-17
7.030000E+03	7.167798E-16	3.357297E-17
7.040000E+03	7.142922E-16	3.348845E-17
7.050000E+03	7.118989E-16	3.340768E-17
7.060000E+03	7.095988E-16	3.333063E-17
7.070000E+03	7.073815E-16	3.325684E-17
7.080000E+03	7.052461E-16	3.318627E-17
7.090000E+03	7.031917E-16	3.311890E-17
7.100000E+03	7.012260E-16	3.305511E-17
7.110000E+03	6.993392E-16	3.299446E-17
7.120000E+03	6.975304E-16	3.293691E-17
7.130000E+03	6.957895E-16	3.288201E-17
7.140000E+03	6.941339E-16	3.283058E-17
7.150000E+03	6.925445E-16	3.278175E-17
7.160000E+03	6.910207E-16	3.273549E-17
7.170000E+03	6.895706E-16	3.269220E-17
7.180000E+03	6.881934E-16	3.265187E-17
7.190000E+03	6.868706E-16	3.261361E-17
7.200000E+03	6.856103E-16	3.257783E-17
7.210000E+03	6.844031E-16	3.254409E-17
7.220000E+03	6.832660E-16	3.251321E-17
7.230000E+03	6.821718E-16	3.248391E-17
7.240000E+03	6.811287E-16	3.245659E-17
7.250000E+03	6.801361E-16	3.243123E-17
7.260000E+03	6.791848E-16	3.240740E-17
7.270000E+03	6.782829E-16	3.238549E-17
7.280000E+03	6.774123E-16	3.236466E-17
7.290000E+03	6.765726E-16	3.234488E-17
7.300000E+03	6.757632E-16	3.232614E-17
7.310000E+03	6.749838E-16	3.230843E-17
7.320000E+03	6.742251E-16	3.229131E-17
7.330000E+03	6.734780E-16	3.227435E-17
7.340000E+03	6.727419E-16	3.225754E-17
7.350000E+03	6.720080E-16	3.224044E-17
7.360000E+03	6.712757E-16	3.222305E-17
7.370000E+03	6.705361E-16	3.220494E-17
7.380000E+03	6.697888E-16	3.218608E-17
7.390000E+03	6.690161E-16	3.216564E-17
7.400000E+03	6.682177E-16	3.214361E-17
7.410000E+03	6.673845E-16	3.211955E-17
7.420000E+03	6.665252E-16	3.209388E-17
7.430000E+03	6.656218E-16	3.206574E-17
7.440000E+03	6.646831E-16	3.203555E-17
7.450000E+03	6.637085E-16	3.200330E-17
7.460000E+03	6.626979E-16	3.196898E-17
7.470000E+03	6.616597E-16	3.193298E-17
7.480000E+03	6.605935E-16	3.189532E-17
7.490000E+03	6.595078E-16	3.185639E-17
7.500000E+03	6.584108E-16	3.181661E-17
7.510000E+03	6.573024E-16	3.177595E-17
7.520000E+03	6.561908E-16	3.173484E-17
7.530000E+03	6.550757E-16	3.169327E-17
7.540000E+03	6.539567E-16	3.165121E-17
7.550000E+03	6.528423E-16	3.160910E-17
7.560000E+03	6.517408E-16	3.156733E-17
7.570000E+03	6.506431E-16	3.152547E-17
7.580000E+03	6.495578E-16	3.148394E-17
7.590000E+03	6.484930E-16	3.144316E-17
7.600000E+03	6.474398E-16	3.140269E-17
7.610000E+03	6.464153E-16	3.136336E-17
7.620000E+03	6.454018E-16	3.132434E-17
7.630000E+03	6.444078E-16	3.128602E-17
7.640000E+03	6.434415E-16	3.124884E-17
7.650000E+03	6.425026E-16	3.121277E-17
7.660000E+03	6.415824E-16	3.117740E-17
7.670000E+03	6.406891E-16	3.114314E-17
7.680000E+03	6.398226E-16	3.110999E-17
7.690000E+03	6.389825E-16	3.107794E-17
7.700000E+03	6.381686E-16	3.104699E-17
7.710000E+03	6.373807E-16	3.101714E-17
7.720000E+03	6.366272E-16	3.098879E-17
7.730000E+03	6.358907E-16	3.096112E-17
7.740000E+03	6.351881E-16	3.093496E-17
7.750000E+03	6.345107E-16	3.090988E-17
7.760000E+03	6.338582E-16	3.088588E-17
