#wls	flux	fluxerr
1.600000E+03	1.318737E-16	1.028130E-17
1.640000E+03	1.330625E-16	1.033970E-17
1.680000E+03	1.344291E-16	1.041048E-17
1.720000E+03	1.359828E-16	1.049420E-17
1.760000E+03	1.377335E-16	1.059141E-17
1.800000E+03	1.397165E-16	1.070461E-17
1.840000E+03	1.419197E-16	1.083265E-17
1.880000E+03	1.443802E-16	1.097810E-17
1.920000E+03	1.471125E-16	1.114177E-17
1.960000E+03	1.501325E-16	1.132455E-17
2.000000E+03	1.534568E-16	1.152738E-17
2.040000E+03	1.571302E-16	1.175322E-17
2.080000E+03	1.611736E-16	1.200322E-17
2.120000E+03	1.656098E-16	1.227864E-17
2.160000E+03	1.704638E-16	1.258080E-17
2.200000E+03	1.757907E-16	1.291324E-17
2.240000E+03	1.816210E-16	1.327758E-17
2.280000E+03	1.879882E-16	1.367560E-17
2.320000E+03	1.949587E-16	1.411138E-17
2.360000E+03	2.025735E-16	1.458706E-17
2.400000E+03	2.109090E-16	1.510724E-17
2.440000E+03	2.200158E-16	1.567451E-17
2.480000E+03	2.299819E-16	1.629404E-17
2.520000E+03	2.408344E-16	1.696650E-17
2.560000E+03	2.527435E-16	1.770252E-17
2.600000E+03	2.657130E-16	1.850084E-17
2.640000E+03	2.799334E-16	1.937304E-17
2.680000E+03	2.954970E-16	2.032362E-17
2.720000E+03	3.125028E-16	2.135731E-17
2.760000E+03	3.311400E-16	2.248473E-17
2.800000E+03	3.515724E-16	2.371443E-17
2.840000E+03	3.739322E-16	2.505247E-17
2.880000E+03	3.984522E-16	2.651130E-17
2.920000E+03	4.253375E-16	2.810105E-17
2.960000E+03	4.548073E-16	2.983232E-17
3.000000E+03	4.872007E-16	3.172304E-17
3.010000E+03	4.957648E-16	3.222067E-17
3.020000E+03	5.045107E-16	3.272783E-17
3.030000E+03	5.134952E-16	3.324812E-17
3.040000E+03	5.226680E-16	3.377822E-17
3.050000E+03	5.320874E-16	3.432178E-17
3.060000E+03	5.417018E-16	3.487540E-17
3.070000E+03	5.515706E-16	3.544281E-17
3.080000E+03	5.616412E-16	3.602054E-17
3.090000E+03	5.719740E-16	3.661236E-17
3.100000E+03	5.825156E-16	3.721477E-17
3.110000E+03	5.933273E-16	3.783158E-17
3.120000E+03	6.044138E-16	3.846298E-17
3.130000E+03	6.157198E-16	3.910536E-17
3.140000E+03	6.273085E-16	3.976261E-17
3.150000E+03	6.391846E-16	4.043494E-17
3.160000E+03	6.513525E-16	4.112249E-17
3.170000E+03	6.637550E-16	4.182155E-17
3.180000E+03	6.764574E-16	4.253612E-17
3.190000E+03	6.894642E-16	4.326636E-17
3.200000E+03	7.028439E-16	4.401644E-17
3.210000E+03	7.164741E-16	4.477856E-17
3.220000E+03	7.304224E-16	4.555683E-17
3.230000E+03	7.446933E-16	4.635140E-17
3.240000E+03	7.592914E-16	4.716243E-17
3.250000E+03	7.742212E-16	4.799005E-17
3.260000E+03	7.895545E-16	4.883858E-17
3.270000E+03	8.051612E-16	4.969982E-17
3.280000E+03	8.211815E-16	5.058230E-17
3.290000E+03	8.375522E-16	5.148195E-17
3.300000E+03	8.543475E-16	5.240319E-17
3.310000E+03	8.714320E-16	5.333755E-17
3.320000E+03	8.890220E-16	5.429814E-17
3.330000E+03	9.069093E-16	5.527206E-17
3.340000E+03	9.253142E-16	5.627257E-17
3.350000E+03	9.440239E-16	5.728657E-17
3.360000E+03	9.632629E-16	5.832752E-17
3.370000E+03	9.828888E-16	5.938660E-17
3.380000E+03	1.002981E-15	6.046844E-17
3.390000E+03	1.023468E-15	6.156857E-17
3.400000E+03	1.044431E-15	6.269167E-17
3.410000E+03	1.065874E-15	6.383784E-17
3.420000E+03	1.087882E-15	6.501187E-17
3.430000E+03	1.110223E-15	6.619981E-17
3.440000E+03	1.133138E-15	6.741579E-17
3.450000E+03	1.156552E-15	6.865523E-17
3.460000E+03	1.180552E-15	6.992296E-17
3.470000E+03	1.204979E-15	7.120944E-17
3.480000E+03	1.229919E-15	7.251951E-17
3.490000E+03	1.255458E-15	7.385805E-17
3.500000E+03	1.281517E-15	7.522025E-17
3.510000E+03	1.308186E-15	7.661109E-17
3.520000E+03	1.335383E-15	7.802558E-17
3.530000E+03	1.363111E-15	7.946374E-17
3.540000E+03	1.391462E-15	8.093058E-17
3.550000E+03	1.420435E-15	8.242598E-17
3.560000E+03	1.449951E-15	8.394497E-17
3.570000E+03	1.480097E-15	8.549252E-17
3.580000E+03	1.510880E-15	8.706862E-17
3.590000E+03	1.542300E-15	8.867320E-17
3.600000E+03	1.574270E-15	9.030096E-17
3.610000E+03	1.606974E-15	9.196221E-17
3.620000E+03	1.640231E-15	9.364638E-17
3.630000E+03	1.674226E-15	9.536380E-17
3.640000E+03	1.708870E-15	9.710919E-17
3.650000E+03	1.744163E-15	9.888220E-17
3.660000E+03	1.780106E-15	1.006828E-16
3.670000E+03	1.816795E-15	1.025161E-16
3.680000E+03	1.854135E-15	1.043764E-16
3.690000E+03	1.892125E-15	1.062636E-16
3.700000E+03	1.930863E-15	1.081829E-16
3.710000E+03	1.970347E-15	1.101339E-16
3.720000E+03	2.010479E-15	1.121110E-16
3.730000E+03	2.051357E-15	1.141193E-16
3.740000E+03	2.092878E-15	1.161529E-16
3.750000E+03	2.135139E-15	1.182170E-16
3.760000E+03	2.178140E-15	1.203114E-16
3.770000E+03	2.221878E-15	1.224355E-16
3.780000E+03	2.266348E-15	1.245891E-16
3.790000E+03	2.311548E-15	1.267716E-16
3.800000E+03	2.357474E-15	1.289828E-16
3.810000E+03	2.404119E-15	1.312220E-16
3.820000E+03	2.451374E-15	1.334831E-16
3.830000E+03	2.499444E-15	1.357770E-16
3.840000E+03	2.548324E-15	1.381033E-16
3.850000E+03	2.597792E-15	1.404498E-16
3.860000E+03	2.648059E-15	1.428277E-16
3.870000E+03	2.698898E-15	1.452246E-16
3.880000E+03	2.750629E-15	1.476575E-16
3.890000E+03	2.802915E-15	1.501082E-16
3.900000E+03	2.855967E-15	1.525880E-16
3.910000E+03	2.909666E-15	1.550901E-16
3.920000E+03	2.963999E-15	1.576141E-16
3.930000E+03	3.019069E-15	1.601650E-16
3.940000E+03	3.074641E-15	1.627304E-16
3.950000E+03	3.131041E-15	1.653274E-16
3.960000E+03	3.187917E-15	1.679375E-16
3.970000E+03	3.245485E-15	1.705718E-16
3.980000E+03	3.303615E-15	1.732236E-16
3.990000E+03	3.362296E-15	1.758922E-16
4.000000E+03	3.421626E-15	1.785826E-16
4.010000E+03	3.481363E-15	1.812824E-16
4.020000E+03	3.541720E-15	1.840025E-16
4.030000E+03	3.602564E-15	1.867361E-16
4.040000E+03	3.663763E-15	1.894764E-16
4.050000E+03	3.725531E-15	1.922345E-16
4.060000E+03	3.787614E-15	1.949974E-16
4.070000E+03	3.850111E-15	1.977703E-16
4.080000E+03	3.912998E-15	2.005522E-16
4.090000E+03	3.976136E-15	2.033358E-16
4.100000E+03	4.039617E-15	2.061262E-16
4.110000E+03	4.103179E-15	2.089102E-16
4.120000E+03	4.167027E-15	2.116984E-16
4.130000E+03	4.231133E-15	2.144896E-16
4.140000E+03	4.295106E-15	2.172641E-16
4.150000E+03	4.359264E-15	2.200385E-16
4.160000E+03	4.423331E-15	2.227991E-16
4.170000E+03	4.487380E-15	2.255498E-16
4.180000E+03	4.551243E-15	2.282826E-16
4.190000E+03	4.614748E-15	2.309892E-16
4.200000E+03	4.678077E-15	2.336792E-16
4.210000E+03	4.740927E-15	2.363379E-16
4.220000E+03	4.803350E-15	2.389682E-16
4.230000E+03	4.865035E-15	2.415554E-16
4.240000E+03	4.926147E-15	2.441081E-16
4.250000E+03	4.986372E-15	2.466112E-16
4.260000E+03	5.045758E-15	2.490680E-16
4.270000E+03	5.104126E-15	2.514699E-16
4.280000E+03	5.161429E-15	2.538156E-16
4.290000E+03	5.217521E-15	2.560984E-16
4.300000E+03	5.272509E-15	2.583242E-16
4.310000E+03	5.326271E-15	2.604879E-16
4.320000E+03	5.378693E-15	2.625844E-16
4.330000E+03	5.430021E-15	2.646266E-16
4.340000E+03	5.479905E-15	2.665981E-16
4.350000E+03	5.528590E-15	2.685115E-16
4.360000E+03	5.575846E-15	2.703563E-16
4.370000E+03	5.621795E-15	2.721389E-16
4.380000E+03	5.666323E-15	2.738544E-16
4.390000E+03	5.709433E-15	2.755032E-16
4.400000E+03	5.751006E-15	2.770803E-16
4.410000E+03	5.791159E-15	2.785916E-16
4.420000E+03	5.829657E-15	2.800263E-16
4.430000E+03	5.866728E-15	2.813959E-16
4.440000E+03	5.902137E-15	2.826895E-16
4.450000E+03	5.935880E-15	2.839073E-16
4.460000E+03	5.967953E-15	2.850495E-16
4.470000E+03	5.998465E-15	2.861219E-16
4.480000E+03	6.027069E-15	2.871083E-16
4.490000E+03	6.053990E-15	2.880197E-16
4.500000E+03	6.079112E-15	2.888510E-16
4.510000E+03	6.102431E-15	2.896024E-16
4.520000E+03	6.123947E-15	2.902744E-16
4.530000E+03	6.143548E-15	2.908618E-16
4.540000E+03	6.161347E-15	2.913705E-16
4.550000E+03	6.177234E-15	2.917956E-16
4.560000E+03	6.191104E-15	2.921323E-16
4.570000E+03	6.203181E-15	2.923917E-16
4.580000E+03	6.213364E-15	2.925691E-16
4.590000E+03	6.221551E-15	2.926601E-16
4.600000E+03	6.227862E-15	2.926706E-16
4.610000E+03	6.232200E-15	2.925963E-16
4.620000E+03	6.234580E-15	2.924381E-16
4.630000E+03	6.235121E-15	2.922018E-16
4.640000E+03	6.233735E-15	2.918834E-16
4.650000E+03	6.230545E-15	2.914890E-16
4.660000E+03	6.225361E-15	2.910098E-16
4.670000E+03	6.218413E-15	2.904568E-16
4.680000E+03	6.209518E-15	2.898214E-16
4.690000E+03	6.198902E-15	2.891144E-16
4.700000E+03	6.186492E-15	2.883326E-16
4.710000E+03	6.172213E-15	2.874724E-16
4.720000E+03	6.156295E-15	2.865447E-16
4.730000E+03	6.138665E-15	2.855461E-16
4.740000E+03	6.119452E-15	2.844828E-16
4.750000E+03	6.098493E-15	2.833472E-16
4.760000E+03	6.076015E-15	2.821498E-16
4.770000E+03	6.051953E-15	2.808877E-16
4.780000E+03	6.026439E-15	2.795668E-16
4.790000E+03	5.999411E-15	2.781845E-16
4.800000E+03	5.970907E-15	2.767425E-16
4.810000E+03	5.941148E-15	2.752508E-16
4.820000E+03	5.909986E-15	2.737027E-16
4.830000E+03	5.877550E-15	2.721040E-16
4.840000E+03	5.843878E-15	2.704564E-16
4.850000E+03	5.809006E-15	2.687616E-16
4.860000E+03	5.773062E-15	2.670253E-16
4.870000E+03	5.735996E-15	2.652452E-16
4.880000E+03	5.697846E-15	2.634229E-16
4.890000E+03	5.658738E-15	2.615641E-16
4.900000E+03	5.618792E-15	2.596743E-16
4.910000E+03	5.577795E-15	2.577434E-16
4.920000E+03	5.536118E-15	2.557885E-16
4.930000E+03	5.493551E-15	2.537998E-16
4.940000E+03	5.450296E-15	2.517864E-16
4.950000E+03	5.406308E-15	2.497461E-16
4.960000E+03	5.361704E-15	2.476842E-16
4.970000E+03	5.316441E-15	2.455985E-16
4.980000E+03	5.270713E-15	2.434979E-16
4.990000E+03	5.224475E-15	2.413800E-16
5.000000E+03	5.177689E-15	2.392430E-16
5.010000E+03	5.130613E-15	2.370986E-16
5.020000E+03	5.083056E-15	2.349378E-16
5.030000E+03	5.035202E-15	2.327691E-16
5.040000E+03	4.987082E-15	2.305935E-16
5.050000E+03	4.938726E-15	2.284123E-16
5.060000E+03	4.890095E-15	2.262237E-16
5.070000E+03	4.841292E-15	2.240320E-16
5.080000E+03	4.792412E-15	2.218417E-16
5.090000E+03	4.743348E-15	2.196475E-16
5.100000E+03	4.694265E-15	2.174569E-16
5.110000E+03	4.645121E-15	2.152678E-16
5.120000E+03	4.595943E-15	2.130814E-16
5.130000E+03	4.546757E-15	2.108985E-16
5.140000E+03	4.497653E-15	2.087233E-16
5.150000E+03	4.448589E-15	2.065536E-16
5.160000E+03	4.399587E-15	2.043903E-16
5.170000E+03	4.350733E-15	2.022371E-16
5.180000E+03	4.302042E-15	2.000948E-16
5.190000E+03	4.253475E-15	1.979612E-16
5.200000E+03	4.205049E-15	1.958370E-16
5.210000E+03	4.156782E-15	1.937229E-16
5.220000E+03	4.108745E-15	1.916221E-16
5.230000E+03	4.060949E-15	1.895349E-16
5.240000E+03	4.013294E-15	1.874565E-16
5.250000E+03	3.965901E-15	1.853924E-16
5.260000E+03	3.918720E-15	1.833401E-16
5.270000E+03	3.871759E-15	1.812998E-16
5.280000E+03	3.825073E-15	1.792738E-16
5.290000E+03	3.778557E-15	1.772568E-16
5.300000E+03	3.732263E-15	1.752512E-16
5.310000E+03	3.686189E-15	1.732564E-16
5.320000E+03	3.640329E-15	1.712721E-16
5.330000E+03	3.594674E-15	1.692977E-16
5.340000E+03	3.549219E-15	1.673325E-16
5.350000E+03	3.503909E-15	1.653738E-16
5.360000E+03	3.458793E-15	1.634237E-16
5.370000E+03	3.413826E-15	1.614798E-16
5.380000E+03	3.369071E-15	1.595450E-16
5.390000E+03	3.324504E-15	1.576179E-16
5.400000E+03	3.280154E-15	1.556996E-16
5.410000E+03	3.236099E-15	1.537938E-16
5.420000E+03	3.192323E-15	1.518995E-16
5.430000E+03	3.148856E-15	1.500179E-16
5.440000E+03	3.105724E-15	1.481501E-16
5.450000E+03	3.062989E-15	1.462991E-16
5.460000E+03	3.020629E-15	1.444635E-16
5.470000E+03	2.978619E-15	1.426422E-16
5.480000E+03	2.937056E-15	1.408396E-16
5.490000E+03	2.895947E-15	1.390560E-16
5.500000E+03	2.855223E-15	1.372880E-16
5.510000E+03	2.814968E-15	1.355395E-16
5.520000E+03	2.775148E-15	1.338089E-16
5.530000E+03	2.735804E-15	1.320981E-16
5.540000E+03	2.696865E-15	1.304035E-16
5.550000E+03	2.658441E-15	1.287305E-16
5.560000E+03	2.620458E-15	1.270754E-16
5.570000E+03	2.582953E-15	1.254400E-16
5.580000E+03	2.545888E-15	1.238224E-16
5.590000E+03	2.509330E-15	1.222259E-16
5.600000E+03	2.473207E-15	1.206469E-16
5.610000E+03	2.437586E-15	1.190886E-16
5.620000E+03	2.402427E-15	1.175492E-16
5.630000E+03	2.367727E-15	1.160285E-16
5.640000E+03	2.333514E-15	1.145278E-16
5.650000E+03	2.299753E-15	1.130455E-16
5.660000E+03	2.266469E-15	1.115827E-16
5.670000E+03	2.233658E-15	1.101393E-16
5.680000E+03	2.201315E-15	1.087152E-16
5.690000E+03	2.169434E-15	1.073099E-16
5.700000E+03	2.138040E-15	1.059248E-16
5.710000E+03	2.107070E-15	1.045567E-16
5.720000E+03	2.076575E-15	1.032083E-16
5.730000E+03	2.046550E-15	1.018794E-16
5.740000E+03	2.016964E-15	1.005683E-16
5.750000E+03	1.987835E-15	9.927617E-17
5.760000E+03	1.959160E-15	9.800280E-17
5.770000E+03	1.930934E-15	9.674794E-17
5.780000E+03	1.903150E-15	9.551140E-17
5.790000E+03	1.875802E-15	9.429291E-17
5.800000E+03	1.848888E-15	9.309232E-17
5.810000E+03	1.822399E-15	9.190935E-17
5.820000E+03	1.796332E-15	9.074387E-17
5.830000E+03	1.770706E-15	8.959688E-17
5.840000E+03	1.745491E-15	8.846696E-17
5.850000E+03	1.720681E-15	8.735386E-17
5.860000E+03	1.696297E-15	8.625867E-17
5.870000E+03	1.672308E-15	8.517992E-17
5.880000E+03	1.648732E-15	8.411861E-17
5.890000E+03	1.625544E-15	8.307347E-17
5.900000E+03	1.602736E-15	8.204422E-17
5.910000E+03	1.580327E-15	8.103191E-17
5.920000E+03	1.558291E-15	8.003516E-17
5.930000E+03	1.536621E-15	7.905385E-17
5.940000E+03	1.515337E-15	7.808893E-17
5.950000E+03	1.494412E-15	7.713913E-17
5.960000E+03	1.473862E-15	7.620537E-17
5.970000E+03	1.453641E-15	7.528534E-17
5.980000E+03	1.433787E-15	7.438110E-17
5.990000E+03	1.414275E-15	7.349131E-17
6.000000E+03	1.395101E-15	7.261596E-17
6.010000E+03	1.376261E-15	7.175483E-17
6.020000E+03	1.357750E-15	7.090783E-17
6.030000E+03	1.339586E-15	7.007584E-17
6.040000E+03	1.321726E-15	6.925673E-17
6.050000E+03	1.304164E-15	6.845035E-17
6.060000E+03	1.286938E-15	6.765860E-17
6.070000E+03	1.270023E-15	6.688037E-17
6.080000E+03	1.253398E-15	6.611453E-17
6.090000E+03	1.237061E-15	6.536105E-17
6.100000E+03	1.221042E-15	6.462169E-17
6.110000E+03	1.205304E-15	6.389444E-17
6.120000E+03	1.189844E-15	6.317925E-17
6.130000E+03	1.174676E-15	6.247693E-17
6.140000E+03	1.159778E-15	6.178638E-17
6.150000E+03	1.145148E-15	6.110749E-17
6.160000E+03	1.130799E-15	6.044108E-17
6.170000E+03	1.116712E-15	5.978610E-17
6.180000E+03	1.102897E-15	5.914326E-17
6.190000E+03	1.089322E-15	5.851083E-17
6.200000E+03	1.076015E-15	5.789032E-17
6.210000E+03	1.062955E-15	5.728076E-17
6.220000E+03	1.050140E-15	5.668207E-17
6.230000E+03	1.037567E-15	5.609409E-17
6.240000E+03	1.025233E-15	5.551676E-17
6.250000E+03	1.013149E-15	5.495069E-17
6.260000E+03	1.001283E-15	5.439421E-17
6.270000E+03	9.896590E-16	5.384873E-17
6.280000E+03	9.782604E-16	5.331334E-17
6.290000E+03	9.670844E-16	5.278796E-17
6.300000E+03	9.561256E-16	5.227235E-17
6.310000E+03	9.453822E-16	5.176646E-17
6.320000E+03	9.348630E-16	5.127083E-17
6.330000E+03	9.245508E-16	5.078456E-17
6.340000E+03	9.144413E-16	5.030747E-17
6.350000E+03	9.045308E-16	4.983940E-17
6.360000E+03	8.948281E-16	4.938089E-17
6.370000E+03	8.853158E-16	4.893102E-17
6.380000E+03	8.759892E-16	4.848960E-17
6.390000E+03	8.668572E-16	4.805714E-17
6.400000E+03	8.579153E-16	4.763346E-17
6.410000E+03	8.491467E-16	4.721766E-17
6.420000E+03	8.405605E-16	4.681030E-17
6.430000E+03	8.321535E-16	4.641124E-17
6.440000E+03	8.239101E-16	4.601966E-17
6.450000E+03	8.158398E-16	4.563614E-17
6.460000E+03	8.079395E-16	4.526053E-17
6.470000E+03	8.002060E-16	4.489271E-17
6.480000E+03	7.926480E-16	4.453320E-17
6.490000E+03	7.852379E-16	4.418050E-17
6.500000E+03	7.779964E-16	4.383581E-17
6.510000E+03	7.709076E-16	4.349828E-17
6.520000E+03	7.639798E-16	4.316842E-17
6.530000E+03	7.571976E-16	4.284539E-17
6.540000E+03	7.505686E-16	4.252967E-17
6.550000E+03	7.440892E-16	4.222108E-17
6.560000E+03	7.377441E-16	4.191881E-17
6.570000E+03	7.315523E-16	4.162395E-17
6.580000E+03	7.254875E-16	4.133506E-17
6.590000E+03	7.195684E-16	4.105324E-17
6.600000E+03	7.137802E-16	4.077767E-17
6.610000E+03	7.081192E-16	4.050818E-17
6.620000E+03	7.025932E-16	4.024524E-17
6.630000E+03	6.971983E-16	3.998867E-17
6.640000E+03	6.919203E-16	3.973769E-17
6.650000E+03	6.867667E-16	3.949275E-17
6.660000E+03	6.817342E-16	3.925371E-17
6.670000E+03	6.768198E-16	3.902040E-17
6.680000E+03	6.720200E-16	3.879267E-17
6.690000E+03	6.673321E-16	3.857039E-17
6.700000E+03	6.627636E-16	3.835401E-17
6.710000E+03	6.583009E-16	3.814279E-17
6.720000E+03	6.539415E-16	3.793659E-17
6.730000E+03	6.496928E-16	3.773588E-17
6.740000E+03	6.455523E-16	3.754055E-17
6.750000E+03	6.415071E-16	3.734985E-17
6.760000E+03	6.375751E-16	3.716488E-17
6.770000E+03	6.337335E-16	3.698431E-17
6.780000E+03	6.299900E-16	3.680862E-17
6.790000E+03	6.263527E-16	3.663831E-17
6.800000E+03	6.227989E-16	3.647208E-17
6.810000E+03	6.193469E-16	3.631101E-17
6.820000E+03	6.159842E-16	3.615440E-17
6.830000E+03	6.127089E-16	3.600217E-17
6.840000E+03	6.095292E-16	3.585480E-17
6.850000E+03	6.064330E-16	3.571162E-17
6.860000E+03	6.034186E-16	3.557254E-17
6.870000E+03	6.004941E-16	3.543806E-17
6.880000E+03	5.976479E-16	3.530751E-17
6.890000E+03	5.948883E-16	3.518141E-17
6.900000E+03	5.922136E-16	3.505967E-17
6.910000E+03	5.896123E-16	3.494164E-17
6.920000E+03	5.870831E-16	3.482724E-17
6.930000E+03	5.846343E-16	3.471699E-17
6.940000E+03	5.822643E-16	3.461083E-17
6.950000E+03	5.799720E-16	3.450868E-17
6.960000E+03	5.777366E-16	3.440933E-17
6.970000E+03	5.755858E-16	3.431446E-17
6.980000E+03	5.734991E-16	3.422285E-17
6.990000E+03	5.714754E-16	3.413445E-17
7.000000E+03	5.695232E-16	3.404979E-17
7.010000E+03	5.676413E-16	3.396880E-17
7.020000E+03	5.658190E-16	3.389087E-17
7.030000E+03	5.640555E-16	3.381595E-17
7.040000E+03	5.623497E-16	3.374399E-17
7.050000E+03	5.607102E-16	3.367553E-17
7.060000E+03	5.591267E-16	3.360996E-17
7.070000E+03	5.576076E-16	3.354778E-17
7.080000E+03	5.561333E-16	3.348785E-17
7.090000E+03	5.547123E-16	3.343068E-17
7.100000E+03	5.533439E-16	3.337624E-17
7.110000E+03	5.520368E-16	3.332505E-17
7.120000E+03	5.507620E-16	3.327540E-17
7.130000E+03	5.495470E-16	3.322894E-17
7.140000E+03	5.483724E-16	3.318451E-17
7.150000E+03	5.472468E-16	3.314265E-17
7.160000E+03	5.461605E-16	3.310277E-17
7.170000E+03	5.451219E-16	3.306539E-17
7.180000E+03	5.441213E-16	3.302994E-17
7.190000E+03	5.431581E-16	3.299639E-17
7.200000E+03	5.422225E-16	3.296414E-17
7.210000E+03	5.413325E-16	3.293430E-17
7.220000E+03	5.404784E-16	3.290629E-17
7.230000E+03	5.396504E-16	3.287951E-17
7.240000E+03	5.388573E-16	3.285452E-17
7.250000E+03	5.380987E-16	3.283130E-17
7.260000E+03	5.373649E-16	3.280924E-17
7.270000E+03	5.366554E-16	3.278835E-17
7.280000E+03	5.359700E-16	3.276861E-17
7.290000E+03	5.353081E-16	3.274998E-17
7.300000E+03	5.346786E-16	3.273302E-17
7.310000E+03	5.340628E-16	3.271659E-17
7.320000E+03	5.334695E-16	3.270123E-17
7.330000E+03	5.328892E-16	3.268638E-17
7.340000E+03	5.323306E-16	3.267255E-17
7.350000E+03	5.317936E-16	3.265976E-17
7.360000E+03	5.312685E-16	3.264742E-17
7.370000E+03	5.307552E-16	3.263552E-17
7.380000E+03	5.302625E-16	3.262460E-17
7.390000E+03	5.297807E-16	3.261409E-17
7.400000E+03	5.293099E-16	3.260397E-17
7.410000E+03	5.288405E-16	3.259368E-17
7.420000E+03	5.283904E-16	3.258432E-17
7.430000E+03	5.279504E-16	3.257533E-17
7.440000E+03	5.275202E-16	3.256668E-17
7.450000E+03	5.270903E-16	3.255780E-17
7.460000E+03	5.266788E-16	3.254981E-17
7.470000E+03	5.262671E-16	3.254157E-17
7.480000E+03	5.258643E-16	3.253364E-17
7.490000E+03	5.254700E-16	3.252600E-17
7.500000E+03	5.250749E-16	3.251808E-17
7.510000E+03	5.246878E-16	3.251043E-17
7.520000E+03	5.243087E-16	3.250305E-17
7.530000E+03	5.239372E-16	3.249593E-17
7.540000E+03	5.235641E-16	3.248849E-17
7.550000E+03	5.231982E-16	3.248129E-17
7.560000E+03	5.228393E-16	3.247432E-17
7.570000E+03	5.224782E-16	3.246701E-17
7.580000E+03	5.221328E-16	3.246049E-17
7.590000E+03	5.217849E-16	3.245361E-17
7.600000E+03	5.214341E-16	3.244636E-17
7.610000E+03	5.210987E-16	3.243988E-17
7.620000E+03	5.207600E-16	3.243302E-17
7.630000E+03	5.204271E-16	3.242635E-17
7.640000E+03	5.201000E-16	3.241987E-17
7.650000E+03	5.197783E-16	3.241355E-17
7.660000E+03	5.194620E-16	3.240742E-17
7.670000E+03	5.191417E-16	3.240087E-17
7.680000E+03	5.188265E-16	3.239449E-17
7.690000E+03	5.185164E-16	3.238827E-17
7.700000E+03	5.182110E-16	3.238220E-17
7.710000E+03	5.179102E-16	3.237629E-17
7.720000E+03	5.176142E-16	3.237054E-17
7.730000E+03	5.173133E-16	3.236436E-17
7.740000E+03	5.170168E-16	3.235832E-17
7.750000E+03	5.167246E-16	3.235243E-17
7.760000E+03	5.164366E-16	3.234669E-17
