#wls	flux	fluxerr
1.570383E+03	1.249340E-16	2.692131E-18
1.609642E+03	1.302189E-16	2.804586E-18
1.648902E+03	1.354303E-16	2.915306E-18
1.688161E+03	1.405525E-16	3.023952E-18
1.727421E+03	1.455074E-16	3.128840E-18
1.766680E+03	1.501807E-16	3.227513E-18
1.805940E+03	1.543684E-16	3.315600E-18
1.845200E+03	1.578427E-16	3.388222E-18
1.884459E+03	1.603337E-16	3.439608E-18
1.923719E+03	1.616105E-16	3.464849E-18
1.962978E+03	1.616051E-16	3.462532E-18
2.002238E+03	1.606910E-16	3.440705E-18
2.041497E+03	1.598571E-16	3.420566E-18
2.080757E+03	1.606482E-16	3.435145E-18
2.120016E+03	1.647330E-16	3.520025E-18
2.159276E+03	1.731864E-16	3.698008E-18
2.198536E+03	1.860925E-16	3.970674E-18
2.237795E+03	2.027005E-16	4.321794E-18
2.277055E+03	2.218594E-16	4.726649E-18
2.316314E+03	2.425667E-16	5.163750E-18
2.355574E+03	2.641002E-16	5.617633E-18
2.394833E+03	2.860509E-16	6.079537E-18
2.434093E+03	3.082899E-16	6.546678E-18
2.473353E+03	3.308145E-16	7.018955E-18
2.512612E+03	3.536835E-16	7.497573E-18
2.551872E+03	3.770393E-16	7.985496E-18
2.591131E+03	4.009681E-16	8.484497E-18
2.630391E+03	4.255831E-16	8.996901E-18
2.669650E+03	4.509311E-16	9.523623E-18
2.708910E+03	4.770909E-16	1.006625E-17
2.748170E+03	5.040710E-16	1.062488E-17
2.787429E+03	5.318983E-16	1.119999E-17
2.826689E+03	5.606041E-16	1.179215E-17
2.865948E+03	5.902414E-16	1.240237E-17
2.905208E+03	6.209002E-16	1.303245E-17
2.944467E+03	6.527066E-16	1.368492E-17
2.954282E+03	6.608487E-16	1.385175E-17
2.964097E+03	6.690804E-16	1.402035E-17
2.973912E+03	6.773856E-16	1.419038E-17
2.983727E+03	6.858017E-16	1.436261E-17
2.993542E+03	6.943389E-16	1.453725E-17
3.003357E+03	7.030253E-16	1.471490E-17
3.013172E+03	7.118526E-16	1.489538E-17
3.022986E+03	7.208424E-16	1.507913E-17
3.032801E+03	7.299658E-16	1.526554E-17
3.042616E+03	7.392246E-16	1.545465E-17
3.052431E+03	7.486357E-16	1.564682E-17
3.062246E+03	7.582055E-16	1.584216E-17
3.072061E+03	7.679247E-16	1.604049E-17
3.081876E+03	7.777851E-16	1.624162E-17
3.091691E+03	7.877777E-16	1.644538E-17
3.101506E+03	7.979109E-16	1.665192E-17
3.111320E+03	8.081625E-16	1.686078E-17
3.121135E+03	8.185405E-16	1.707212E-17
3.130950E+03	8.290385E-16	1.728582E-17
3.140765E+03	8.396504E-16	1.750173E-17
3.150580E+03	8.503858E-16	1.772006E-17
3.160395E+03	8.612096E-16	1.794007E-17
3.170210E+03	8.721611E-16	1.816258E-17
3.180025E+03	8.831913E-16	1.838657E-17
3.189840E+03	8.943397E-16	1.861284E-17
3.199655E+03	9.055724E-16	1.884070E-17
3.209469E+03	9.169000E-16	1.907037E-17
3.219284E+03	9.283192E-16	1.930176E-17
3.229099E+03	9.398105E-16	1.953448E-17
3.238914E+03	9.514010E-16	1.976909E-17
3.248729E+03	9.630569E-16	2.000487E-17
3.258544E+03	9.747749E-16	2.024176E-17
3.268359E+03	9.865820E-16	2.048032E-17
3.278174E+03	9.984461E-16	2.071988E-17
3.287989E+03	1.010363E-15	2.096036E-17
3.297803E+03	1.022332E-15	2.120170E-17
3.307618E+03	1.034363E-15	2.144417E-17
3.317433E+03	1.046426E-15	2.168710E-17
3.327248E+03	1.058519E-15	2.193045E-17
3.337063E+03	1.070652E-15	2.217446E-17
3.346878E+03	1.082811E-15	2.241879E-17
3.356693E+03	1.094993E-15	2.266340E-17
3.366508E+03	1.107167E-15	2.290766E-17
3.376323E+03	1.119347E-15	2.315184E-17
3.386137E+03	1.131531E-15	2.339591E-17
3.395952E+03	1.143689E-15	2.363924E-17
3.405767E+03	1.155820E-15	2.388181E-17
3.415582E+03	1.167909E-15	2.412332E-17
3.425397E+03	1.179970E-15	2.436405E-17
3.435212E+03	1.191961E-15	2.460312E-17
3.445027E+03	1.203896E-15	2.484084E-17
3.454842E+03	1.215746E-15	2.507662E-17
3.464657E+03	1.227501E-15	2.531022E-17
3.474471E+03	1.239146E-15	2.554137E-17
3.484286E+03	1.250656E-15	2.576954E-17
3.494101E+03	1.262035E-15	2.599481E-17
3.503916E+03	1.273245E-15	2.621639E-17
3.513731E+03	1.284276E-15	2.643410E-17
3.523546E+03	1.295132E-15	2.664804E-17
3.533361E+03	1.305794E-15	2.685778E-17
3.543176E+03	1.316254E-15	2.706317E-17
3.552991E+03	1.326493E-15	2.726384E-17
3.562805E+03	1.336494E-15	2.745943E-17
3.572620E+03	1.346251E-15	2.764986E-17
3.582435E+03	1.355739E-15	2.783455E-17
3.592250E+03	1.364967E-15	2.801375E-17
3.602065E+03	1.373910E-15	2.818695E-17
3.611880E+03	1.382570E-15	2.835416E-17
3.621695E+03	1.390962E-15	2.851572E-17
3.631510E+03	1.399062E-15	2.867115E-17
3.641325E+03	1.406876E-15	2.882054E-17
3.651140E+03	1.414433E-15	2.896455E-17
3.660954E+03	1.421726E-15	2.910299E-17
3.670769E+03	1.428758E-15	2.923597E-17
3.680584E+03	1.435563E-15	2.936415E-17
3.690399E+03	1.442130E-15	2.948732E-17
3.700214E+03	1.448476E-15	2.960586E-17
3.710029E+03	1.454630E-15	2.972035E-17
3.719844E+03	1.460593E-15	2.983080E-17
3.729659E+03	1.466377E-15	2.993749E-17
3.739474E+03	1.471993E-15	3.004062E-17
3.749288E+03	1.477450E-15	3.014040E-17
3.759103E+03	1.482765E-15	3.023717E-17
3.768918E+03	1.487931E-15	3.033079E-17
3.778733E+03	1.492960E-15	3.042151E-17
3.788548E+03	1.497865E-15	3.050960E-17
3.798363E+03	1.502628E-15	3.059469E-17
3.808178E+03	1.507242E-15	3.067665E-17
3.817993E+03	1.511723E-15	3.075581E-17
3.827808E+03	1.516061E-15	3.083195E-17
3.837622E+03	1.520228E-15	3.090453E-17
3.847437E+03	1.524234E-15	3.097374E-17
3.857252E+03	1.528075E-15	3.103952E-17
3.867067E+03	1.531706E-15	3.110095E-17
3.876882E+03	1.535135E-15	3.115819E-17
3.886697E+03	1.538354E-15	3.121110E-17
3.896512E+03	1.541342E-15	3.125925E-17
3.906327E+03	1.544068E-15	3.130200E-17
3.916142E+03	1.546550E-15	3.133976E-17
3.925956E+03	1.548759E-15	3.137192E-17
3.935771E+03	1.550677E-15	3.139814E-17
3.945586E+03	1.552316E-15	3.141866E-17
3.955401E+03	1.553653E-15	3.143301E-17
3.965216E+03	1.554702E-15	3.144150E-17
3.975031E+03	1.555432E-15	3.144351E-17
3.984846E+03	1.555879E-15	3.143978E-17
3.994661E+03	1.556032E-15	3.143007E-17
4.004476E+03	1.555894E-15	3.141448E-17
4.014290E+03	1.555498E-15	3.139367E-17
4.024105E+03	1.554833E-15	3.136741E-17
4.033920E+03	1.553950E-15	3.133676E-17
4.043735E+03	1.552845E-15	3.130163E-17
4.053550E+03	1.551550E-15	3.126270E-17
4.063365E+03	1.550106E-15	3.122075E-17
4.073180E+03	1.548527E-15	3.117610E-17
4.082995E+03	1.546855E-15	3.112960E-17
4.092810E+03	1.545124E-15	3.108192E-17
4.102625E+03	1.543353E-15	3.103346E-17
4.112439E+03	1.541601E-15	3.098541E-17
4.122254E+03	1.539878E-15	3.093797E-17
4.132069E+03	1.538242E-15	3.089228E-17
4.141884E+03	1.536702E-15	3.084853E-17
4.151699E+03	1.535299E-15	3.080758E-17
4.161514E+03	1.534063E-15	3.076998E-17
4.171329E+03	1.532996E-15	3.073578E-17
4.181144E+03	1.532143E-15	3.070589E-17
4.190959E+03	1.531512E-15	3.068045E-17
4.200773E+03	1.531103E-15	3.065948E-17
4.210588E+03	1.530916E-15	3.064295E-17
4.220403E+03	1.530966E-15	3.063116E-17
4.230218E+03	1.531254E-15	3.062415E-17
4.240033E+03	1.531738E-15	3.062103E-17
4.249848E+03	1.532431E-15	3.062210E-17
4.259663E+03	1.533283E-15	3.062632E-17
4.269478E+03	1.534296E-15	3.063376E-17
4.279293E+03	1.535422E-15	3.064344E-17
4.289107E+03	1.536646E-15	3.065505E-17
4.298922E+03	1.537947E-15	3.066819E-17
4.308737E+03	1.539303E-15	3.068242E-17
4.318552E+03	1.540690E-15	3.069725E-17
4.328367E+03	1.542094E-15	3.071240E-17
4.338182E+03	1.543501E-15	3.072761E-17
4.347997E+03	1.544884E-15	3.074233E-17
4.357812E+03	1.546229E-15	3.075626E-17
4.367627E+03	1.547494E-15	3.076862E-17
4.377441E+03	1.548681E-15	3.077940E-17
4.387256E+03	1.549751E-15	3.078787E-17
4.397071E+03	1.550683E-15	3.079359E-17
4.406886E+03	1.551456E-15	3.079616E-17
4.416701E+03	1.552051E-15	3.079522E-17
4.426516E+03	1.552454E-15	3.079047E-17
4.436331E+03	1.552652E-15	3.078167E-17
4.446146E+03	1.552609E-15	3.076811E-17
4.455961E+03	1.552345E-15	3.075020E-17
4.465775E+03	1.551831E-15	3.072736E-17
4.475590E+03	1.551066E-15	3.069961E-17
4.485405E+03	1.550042E-15	3.066676E-17
4.495220E+03	1.548779E-15	3.062923E-17
4.505035E+03	1.547273E-15	3.058695E-17
4.514850E+03	1.545512E-15	3.053969E-17
4.524665E+03	1.543541E-15	3.048834E-17
4.534480E+03	1.541353E-15	3.043277E-17
4.544295E+03	1.538957E-15	3.037317E-17
4.554109E+03	1.536396E-15	3.031037E-17
4.563924E+03	1.533696E-15	3.024493E-17
4.573739E+03	1.530850E-15	3.017669E-17
4.583554E+03	1.527919E-15	3.010685E-17
4.593369E+03	1.524924E-15	3.003584E-17
4.603184E+03	1.521890E-15	2.996416E-17
4.612999E+03	1.518857E-15	2.989257E-17
4.622814E+03	1.515849E-15	2.982159E-17
4.632629E+03	1.512908E-15	2.975201E-17
4.642444E+03	1.510033E-15	2.968382E-17
4.652258E+03	1.507266E-15	2.961785E-17
4.662073E+03	1.504648E-15	2.955490E-17
4.671888E+03	1.502166E-15	2.949470E-17
4.681703E+03	1.499873E-15	2.943831E-17
4.691518E+03	1.497783E-15	2.938599E-17
4.701333E+03	1.495905E-15	2.933793E-17
4.711148E+03	1.494294E-15	2.929516E-17
4.720963E+03	1.492929E-15	2.925731E-17
4.730778E+03	1.491875E-15	2.922564E-17
4.740592E+03	1.491110E-15	2.919969E-17
4.750407E+03	1.490680E-15	2.918040E-17
4.760222E+03	1.490575E-15	2.916750E-17
4.770037E+03	1.490836E-15	2.916186E-17
4.779852E+03	1.491447E-15	2.916312E-17
4.789667E+03	1.492433E-15	2.917177E-17
4.799482E+03	1.493801E-15	2.918793E-17
4.809297E+03	1.495540E-15	2.921139E-17
4.819112E+03	1.497650E-15	2.924216E-17
4.828926E+03	1.500131E-15	2.928020E-17
4.838741E+03	1.502990E-15	2.932567E-17
4.848556E+03	1.506188E-15	2.937778E-17
4.858371E+03	1.509740E-15	2.943685E-17
4.868186E+03	1.513600E-15	2.950195E-17
4.878001E+03	1.517761E-15	2.957296E-17
4.887816E+03	1.522183E-15	2.964907E-17
4.897631E+03	1.526837E-15	2.972972E-17
4.907446E+03	1.531689E-15	2.981427E-17
4.917260E+03	1.536718E-15	2.990229E-17
4.927075E+03	1.541854E-15	2.999242E-17
4.936890E+03	1.547070E-15	3.008415E-17
4.946705E+03	1.552306E-15	3.017631E-17
4.956520E+03	1.557532E-15	3.026829E-17
4.966335E+03	1.562686E-15	3.035891E-17
4.976150E+03	1.567703E-15	3.044693E-17
4.985965E+03	1.572552E-15	3.053173E-17
4.995780E+03	1.577187E-15	3.061242E-17
5.005594E+03	1.581547E-15	3.068784E-17
5.015409E+03	1.585573E-15	3.075685E-17
5.025224E+03	1.589257E-15	3.081931E-17
5.035039E+03	1.592532E-15	3.087390E-17
5.044854E+03	1.595367E-15	3.092005E-17
5.054669E+03	1.597732E-15	3.095720E-17
5.064484E+03	1.599606E-15	3.098493E-17
5.074299E+03	1.600957E-15	3.100264E-17
5.084114E+03	1.601788E-15	3.101039E-17
5.093929E+03	1.602061E-15	3.100748E-17
5.103743E+03	1.601793E-15	3.099424E-17
5.113558E+03	1.600957E-15	3.097013E-17
5.123373E+03	1.599594E-15	3.093598E-17
5.133188E+03	1.597688E-15	3.089151E-17
5.143003E+03	1.595275E-15	3.083738E-17
5.152818E+03	1.592348E-15	3.077348E-17
5.162633E+03	1.588948E-15	3.070063E-17
5.172448E+03	1.585106E-15	3.061941E-17
5.182263E+03	1.580824E-15	3.052985E-17
5.192077E+03	1.576134E-15	3.043264E-17
5.201892E+03	1.571087E-15	3.032872E-17
5.211707E+03	1.565704E-15	3.021850E-17
5.221522E+03	1.560003E-15	3.010235E-17
5.231337E+03	1.554018E-15	2.998092E-17
5.241152E+03	1.547783E-15	2.985487E-17
5.250967E+03	1.541327E-15	2.972479E-17
5.260782E+03	1.534668E-15	2.959097E-17
5.270597E+03	1.527845E-15	2.945421E-17
5.280411E+03	1.520867E-15	2.931467E-17
5.290226E+03	1.513772E-15	2.917308E-17
5.300041E+03	1.506562E-15	2.902950E-17
5.309856E+03	1.499287E-15	2.888484E-17
5.319671E+03	1.491974E-15	2.873967E-17
5.329486E+03	1.484627E-15	2.859402E-17
5.339301E+03	1.477306E-15	2.844905E-17
5.349116E+03	1.470028E-15	2.830511E-17
5.358931E+03	1.462749E-15	2.816134E-17
5.368745E+03	1.455530E-15	2.801887E-17
5.378560E+03	1.448352E-15	2.787739E-17
5.388375E+03	1.441199E-15	2.773654E-17
5.398190E+03	1.434066E-15	2.759626E-17
5.408005E+03	1.426935E-15	2.745615E-17
5.417820E+03	1.419784E-15	2.731584E-17
5.427635E+03	1.412624E-15	2.717548E-17
5.437450E+03	1.405433E-15	2.703469E-17
5.447265E+03	1.398232E-15	2.689385E-17
5.457079E+03	1.391029E-15	2.675309E-17
5.466894E+03	1.383813E-15	2.661225E-17
5.476709E+03	1.376605E-15	2.647167E-17
5.486524E+03	1.369408E-15	2.633145E-17
5.496339E+03	1.362227E-15	2.619166E-17
5.506154E+03	1.355077E-15	2.605259E-17
5.515969E+03	1.347958E-15	2.591423E-17
5.525784E+03	1.340872E-15	2.577662E-17
5.535599E+03	1.333830E-15	2.563997E-17
5.545414E+03	1.326829E-15	2.550423E-17
5.555228E+03	1.319880E-15	2.536957E-17
5.565043E+03	1.312976E-15	2.523590E-17
5.574858E+03	1.306112E-15	2.510308E-17
5.584673E+03	1.299293E-15	2.497124E-17
5.594488E+03	1.292511E-15	2.484020E-17
5.604303E+03	1.285757E-15	2.470978E-17
5.614118E+03	1.279035E-15	2.458006E-17
5.623933E+03	1.272335E-15	2.445086E-17
5.633748E+03	1.265659E-15	2.432221E-17
5.643562E+03	1.258987E-15	2.419370E-17
5.653377E+03	1.252335E-15	2.406565E-17
5.663192E+03	1.245680E-15	2.393762E-17
5.673007E+03	1.239018E-15	2.380952E-17
5.682822E+03	1.232366E-15	2.368169E-17
5.692637E+03	1.225695E-15	2.355357E-17
5.702452E+03	1.219028E-15	2.342558E-17
5.712267E+03	1.212362E-15	2.329767E-17
5.722082E+03	1.205698E-15	2.316985E-17
5.731896E+03	1.199024E-15	2.304192E-17
5.741711E+03	1.192369E-15	2.291439E-17
5.751526E+03	1.185724E-15	2.278710E-17
5.761341E+03	1.179108E-15	2.266042E-17
5.771156E+03	1.172526E-15	2.253445E-17
5.780971E+03	1.165974E-15	2.240910E-17
5.790786E+03	1.159473E-15	2.228477E-17
5.800601E+03	1.153043E-15	2.216185E-17
5.810416E+03	1.146670E-15	2.204005E-17
5.820230E+03	1.140373E-15	2.191976E-17
5.830045E+03	1.134162E-15	2.180117E-17
5.839860E+03	1.128059E-15	2.168468E-17
5.849675E+03	1.122047E-15	2.156997E-17
5.859490E+03	1.116161E-15	2.145771E-17
5.869305E+03	1.110383E-15	2.134755E-17
5.879120E+03	1.104733E-15	2.123990E-17
5.888935E+03	1.099218E-15	2.113487E-17
5.898750E+03	1.093834E-15	2.103236E-17
5.908564E+03	1.088598E-15	2.093274E-17
5.918379E+03	1.083493E-15	2.083566E-17
5.928194E+03	1.078549E-15	2.074168E-17
5.938009E+03	1.073734E-15	2.065022E-17
5.947824E+03	1.069079E-15	2.056185E-17
5.957639E+03	1.064564E-15	2.047620E-17
5.967454E+03	1.060208E-15	2.039361E-17
5.977269E+03	1.055988E-15	2.031367E-17
5.987084E+03	1.051913E-15	2.023652E-17
5.996898E+03	1.047971E-15	2.016195E-17
6.006713E+03	1.044169E-15	2.009009E-17
6.016528E+03	1.040485E-15	2.002051E-17
6.026343E+03	1.036910E-15	1.995304E-17
6.036158E+03	1.033446E-15	1.988772E-17
6.045973E+03	1.030082E-15	1.982434E-17
6.055788E+03	1.026783E-15	1.976221E-17
6.065603E+03	1.023547E-15	1.970131E-17
6.075418E+03	1.020362E-15	1.964139E-17
6.085233E+03	1.017222E-15	1.958237E-17
6.095047E+03	1.014140E-15	1.952445E-17
6.104862E+03	1.011120E-15	1.946774E-17
6.114677E+03	1.008182E-15	1.941261E-17
6.124492E+03	1.005368E-15	1.935988E-17
6.134307E+03	1.002684E-15	1.930965E-17
6.144122E+03	1.000117E-15	1.926169E-17
6.153937E+03	9.977089E-16	1.921678E-17
6.163752E+03	9.954579E-16	1.917491E-17
6.173567E+03	9.933373E-16	1.913555E-17
6.183381E+03	9.913839E-16	1.909942E-17
6.193196E+03	9.895554E-16	1.906570E-17
6.203011E+03	9.878731E-16	1.903479E-17
6.212826E+03	9.863057E-16	1.900611E-17
6.222641E+03	9.848469E-16	1.897952E-17
6.232456E+03	9.834775E-16	1.895466E-17
6.242271E+03	9.821780E-16	1.893114E-17
6.252086E+03	9.809264E-16	1.890856E-17
6.261901E+03	9.796897E-16	1.888626E-17
6.271715E+03	9.784335E-16	1.886358E-17
6.281530E+03	9.771506E-16	1.884039E-17
6.291345E+03	9.757930E-16	1.881577E-17
6.301160E+03	9.743572E-16	1.878963E-17
6.310975E+03	9.728087E-16	1.876132E-17
6.320790E+03	9.711311E-16	1.873052E-17
6.330605E+03	9.693222E-16	1.869718E-17
6.340420E+03	9.673960E-16	1.866157E-17
6.350235E+03	9.653392E-16	1.862344E-17
6.360049E+03	9.631554E-16	1.858286E-17
6.369864E+03	9.608489E-16	1.853990E-17
6.379679E+03	9.583963E-16	1.849412E-17
6.389494E+03	9.558202E-16	1.844595E-17
6.399309E+03	9.531155E-16	1.839528E-17
6.409124E+03	9.502629E-16	1.834175E-17
6.418939E+03	9.472889E-16	1.828587E-17
6.428754E+03	9.441773E-16	1.822733E-17
6.438569E+03	9.409125E-16	1.816581E-17
6.448383E+03	9.375254E-16	1.810192E-17
6.458198E+03	9.340028E-16	1.803540E-17
6.468013E+03	9.303459E-16	1.796628E-17
6.477828E+03	9.265748E-16	1.789494E-17
6.487643E+03	9.226619E-16	1.782084E-17
6.497458E+03	9.186133E-16	1.774411E-17
6.507273E+03	9.144650E-16	1.766544E-17
6.517088E+03	9.101919E-16	1.758434E-17
6.526903E+03	9.058012E-16	1.750095E-17
6.536718E+03	9.013152E-16	1.741570E-17
6.546532E+03	8.967279E-16	1.732848E-17
6.556347E+03	8.920466E-16	1.723943E-17
6.566162E+03	8.872965E-16	1.714903E-17
6.575977E+03	8.824553E-16	1.705684E-17
6.585792E+03	8.775341E-16	1.696310E-17
6.595607E+03	8.725736E-16	1.686858E-17
6.605422E+03	8.675538E-16	1.677289E-17
6.615237E+03	8.624865E-16	1.667626E-17
6.625052E+03	8.573984E-16	1.657921E-17
6.634866E+03	8.522859E-16	1.648167E-17
6.644681E+03	8.471614E-16	1.638389E-17
6.654496E+03	8.420369E-16	1.628608E-17
6.664311E+03	8.369249E-16	1.618849E-17
6.674126E+03	8.318242E-16	1.609111E-17
6.683941E+03	8.267613E-16	1.599443E-17
6.693756E+03	8.217489E-16	1.589872E-17
6.703571E+03	8.167849E-16	1.580392E-17
6.713386E+03	8.118961E-16	1.571056E-17
6.723200E+03	8.070794E-16	1.561858E-17
6.733015E+03	8.023470E-16	1.552822E-17
6.742830E+03	7.977099E-16	1.543968E-17
6.752645E+03	7.931624E-16	1.535285E-17
6.762460E+03	7.887438E-16	1.526851E-17
6.772275E+03	7.844492E-16	1.518656E-17
6.782090E+03	7.802704E-16	1.510682E-17
6.791905E+03	7.762290E-16	1.502974E-17
6.801720E+03	7.723163E-16	1.495514E-17
6.811534E+03	7.685361E-16	1.488308E-17
6.821349E+03	7.649063E-16	1.481393E-17
6.831164E+03	7.614144E-16	1.474743E-17
6.840979E+03	7.580598E-16	1.468359E-17
6.850794E+03	7.548426E-16	1.462239E-17
6.860609E+03	7.517606E-16	1.456381E-17
6.870424E+03	7.487961E-16	1.450749E-17
6.880239E+03	7.459730E-16	1.445390E-17
6.890054E+03	7.432577E-16	1.440239E-17
6.899868E+03	7.406433E-16	1.435282E-17
6.909683E+03	7.381372E-16	1.430535E-17
6.919498E+03	7.357174E-16	1.425955E-17
6.929313E+03	7.333754E-16	1.421525E-17
6.939128E+03	7.311026E-16	1.417228E-17
6.948943E+03	7.288903E-16	1.413048E-17
6.958758E+03	7.267440E-16	1.408995E-17
6.968573E+03	7.246259E-16	1.404997E-17
6.978388E+03	7.225274E-16	1.401036E-17
6.988203E+03	7.204547E-16	1.397125E-17
6.998017E+03	7.184002E-16	1.393249E-17
7.007832E+03	7.163417E-16	1.389365E-17
7.017647E+03	7.142872E-16	1.385488E-17
7.027462E+03	7.122016E-16	1.381551E-17
7.037277E+03	7.101086E-16	1.377598E-17
7.047092E+03	7.079890E-16	1.373595E-17
7.056907E+03	7.058390E-16	1.369532E-17
7.066722E+03	7.036410E-16	1.365376E-17
7.076537E+03	7.014220E-16	1.361178E-17
7.086351E+03	6.991513E-16	1.356881E-17
7.096166E+03	6.968427E-16	1.352509E-17
7.105981E+03	6.944818E-16	1.348036E-17
7.115796E+03	6.920839E-16	1.343491E-17
7.125611E+03	6.896359E-16	1.338849E-17
7.135426E+03	6.871399E-16	1.334114E-17
7.145241E+03	6.846131E-16	1.329318E-17
7.155056E+03	6.820442E-16	1.324441E-17
7.164871E+03	6.794515E-16	1.319518E-17
7.174685E+03	6.768103E-16	1.314501E-17
7.184500E+03	6.741394E-16	1.309426E-17
7.194315E+03	6.714584E-16	1.304331E-17
7.204130E+03	6.687433E-16	1.299170E-17
7.213945E+03	6.660141E-16	1.293982E-17
7.223760E+03	6.632616E-16	1.288749E-17
7.233575E+03	6.605059E-16	1.283510E-17
7.243390E+03	6.577381E-16	1.278247E-17
7.253205E+03	6.549636E-16	1.272972E-17
7.263019E+03	6.521878E-16	1.267694E-17
7.272834E+03	6.494016E-16	1.262396E-17
7.282649E+03	6.466101E-16	1.257089E-17
7.292464E+03	6.438179E-16	1.251780E-17
7.302279E+03	6.410297E-16	1.246479E-17
7.312094E+03	6.382639E-16	1.241223E-17
7.321909E+03	6.355099E-16	1.235990E-17
7.331724E+03	6.328000E-16	1.230843E-17
7.341539E+03	6.301371E-16	1.225788E-17
7.351353E+03	6.275240E-16	1.220830E-17
7.361168E+03	6.249631E-16	1.215975E-17
7.370983E+03	6.224563E-16	1.211225E-17
7.380798E+03	6.200340E-16	1.206641E-17
7.390613E+03	6.176689E-16	1.202169E-17
7.400428E+03	6.153762E-16	1.197838E-17
7.410243E+03	6.131569E-16	1.193652E-17
7.420058E+03	6.110256E-16	1.189638E-17
7.429873E+03	6.089542E-16	1.185741E-17
7.439687E+03	6.069568E-16	1.181989E-17
7.449502E+03	6.050332E-16	1.178383E-17
7.459317E+03	6.031974E-16	1.174948E-17
7.469132E+03	6.014203E-16	1.171629E-17
7.478947E+03	5.997297E-16	1.168481E-17
7.488762E+03	5.981106E-16	1.165473E-17
7.498577E+03	5.965480E-16	1.162576E-17
7.508392E+03	5.950691E-16	1.159844E-17
7.518207E+03	5.936589E-16	1.157248E-17
7.528022E+03	5.923160E-16	1.154785E-17
7.537836E+03	5.910394E-16	1.152452E-17
7.547651E+03	5.898277E-16	1.150249E-17
7.557466E+03	5.886798E-16	1.148171E-17
7.567281E+03	5.876087E-16	1.146246E-17
7.577096E+03	5.865845E-16	1.144414E-17
7.586911E+03	5.856344E-16	1.142729E-17
7.596726E+03	5.847428E-16	1.141160E-17
7.606541E+03	5.839085E-16	1.139705E-17
7.616356E+03	5.831299E-16	1.138362E-17
