#wls	flux	fluxerr
1.570383E+03	1.220257E-16	1.764594E-18
1.609642E+03	1.260692E-16	1.819799E-18
1.648902E+03	1.299158E-16	1.871877E-18
1.688161E+03	1.335051E-16	1.919968E-18
1.727421E+03	1.368037E-16	1.963605E-18
1.766680E+03	1.396963E-16	2.001154E-18
1.805940E+03	1.420167E-16	2.030264E-18
1.845200E+03	1.435624E-16	2.048092E-18
1.884459E+03	1.441023E-16	2.051415E-18
1.923719E+03	1.434839E-16	2.038153E-18
1.962978E+03	1.417278E-16	2.008706E-18
2.002238E+03	1.392007E-16	1.968373E-18
2.041497E+03	1.367887E-16	1.929731E-18
2.080757E+03	1.358646E-16	1.912094E-18
2.120016E+03	1.378342E-16	1.935048E-18
2.159276E+03	1.435831E-16	2.010688E-18
2.198536E+03	1.532429E-16	2.140441E-18
2.237795E+03	1.662536E-16	2.316059E-18
2.277055E+03	1.817470E-16	2.525081E-18
2.316314E+03	1.988907E-16	2.755661E-18
2.355574E+03	2.170270E-16	2.998481E-18
2.394833E+03	2.358246E-16	3.248822E-18
2.434093E+03	2.550694E-16	3.503620E-18
2.473353E+03	2.747374E-16	3.762449E-18
2.512612E+03	2.948225E-16	4.025128E-18
2.551872E+03	3.154071E-16	4.292680E-18
2.591131E+03	3.365326E-16	4.565556E-18
2.630391E+03	3.582499E-16	4.844328E-18
2.669650E+03	3.805818E-16	5.129176E-18
2.708910E+03	4.035537E-16	5.420309E-18
2.748170E+03	4.271109E-16	5.716860E-18
2.787429E+03	4.512668E-16	6.018877E-18
2.826689E+03	4.759893E-16	6.325797E-18
2.865948E+03	5.013632E-16	6.638613E-18
2.905208E+03	5.275225E-16	6.958951E-18
2.944467E+03	5.546942E-16	7.289629E-18
2.954282E+03	5.616820E-16	7.374372E-18
2.964097E+03	5.687359E-16	7.459783E-18
2.973912E+03	5.758708E-16	7.546051E-18
2.983727E+03	5.831042E-16	7.633405E-18
2.993542E+03	5.904580E-16	7.722123E-18
3.003357E+03	5.979530E-16	7.812475E-18
3.013172E+03	6.056116E-16	7.904745E-18
3.022986E+03	6.134081E-16	7.998590E-18
3.032801E+03	6.213419E-16	8.094000E-18
3.042616E+03	6.294175E-16	8.191024E-18
3.052431E+03	6.376602E-16	8.289984E-18
3.062246E+03	6.460750E-16	8.390941E-18
3.072061E+03	6.546214E-16	8.493359E-18
3.081876E+03	6.633499E-16	8.597888E-18
3.091691E+03	6.722217E-16	8.704018E-18
3.101506E+03	6.812419E-16	8.811808E-18
3.111320E+03	6.904175E-16	8.921343E-18
3.121135E+03	6.997398E-16	9.032501E-18
3.130950E+03	7.092151E-16	9.145358E-18
3.140765E+03	7.188362E-16	9.259816E-18
3.150580E+03	7.286092E-16	9.375945E-18
3.160395E+03	7.385271E-16	9.493649E-18
3.170210E+03	7.485970E-16	9.613012E-18
3.180025E+03	7.588114E-16	9.733931E-18
3.189840E+03	7.691630E-16	9.856306E-18
3.199655E+03	7.796601E-16	9.980239E-18
3.209469E+03	7.902955E-16	1.010563E-17
3.219284E+03	8.010769E-16	1.023257E-17
3.229099E+03	8.119979E-16	1.036097E-17
3.238914E+03	8.230520E-16	1.049074E-17
3.248729E+03	8.342336E-16	1.062180E-17
3.258544E+03	8.455502E-16	1.075426E-17
3.268359E+03	8.569964E-16	1.088802E-17
3.278174E+03	8.685664E-16	1.102301E-17
3.287989E+03	8.802545E-16	1.115915E-17
3.297803E+03	8.920423E-16	1.129620E-17
3.307618E+03	9.039379E-16	1.143427E-17
3.317433E+03	9.159238E-16	1.157312E-17
3.327248E+03	9.280094E-16	1.171287E-17
3.337063E+03	9.401766E-16	1.185329E-17
3.346878E+03	9.523950E-16	1.199399E-17
3.356693E+03	9.646888E-16	1.213528E-17
3.366508E+03	9.770149E-16	1.227659E-17
3.376323E+03	9.893717E-16	1.241793E-17
3.386137E+03	1.001744E-15	1.255910E-17
3.395952E+03	1.014119E-15	1.269991E-17
3.405767E+03	1.026470E-15	1.284006E-17
3.415582E+03	1.038785E-15	1.297938E-17
3.425397E+03	1.051026E-15	1.311743E-17
3.435212E+03	1.063198E-15	1.325424E-17
3.445027E+03	1.075266E-15	1.338938E-17
3.454842E+03	1.087195E-15	1.352244E-17
3.464657E+03	1.098969E-15	1.365321E-17
3.474471E+03	1.110531E-15	1.378100E-17
3.484286E+03	1.121856E-15	1.390550E-17
3.494101E+03	1.132916E-15	1.402639E-17
3.503916E+03	1.143676E-15	1.414323E-17
3.513731E+03	1.154103E-15	1.425563E-17
3.523546E+03	1.164153E-15	1.436307E-17
3.533361E+03	1.173832E-15	1.446564E-17
3.543176E+03	1.183103E-15	1.456289E-17
3.552991E+03	1.191964E-15	1.465483E-17
3.562805E+03	1.200418E-15	1.474151E-17
3.572620E+03	1.208469E-15	1.482298E-17
3.582435E+03	1.216121E-15	1.489934E-17
3.592250E+03	1.223394E-15	1.497083E-17
3.602065E+03	1.230323E-15	1.503789E-17
3.611880E+03	1.236927E-15	1.510079E-17
3.621695E+03	1.243222E-15	1.515973E-17
3.631510E+03	1.249267E-15	1.521543E-17
3.641325E+03	1.255076E-15	1.526810E-17
3.651140E+03	1.260699E-15	1.531834E-17
3.660954E+03	1.266175E-15	1.536663E-17
3.670769E+03	1.271550E-15	1.541355E-17
3.680584E+03	1.276850E-15	1.545940E-17
3.690399E+03	1.282119E-15	1.550474E-17
3.700214E+03	1.287412E-15	1.555021E-17
3.710029E+03	1.292744E-15	1.559602E-17
3.719844E+03	1.298152E-15	1.564261E-17
3.729659E+03	1.303669E-15	1.569036E-17
3.739474E+03	1.309321E-15	1.573960E-17
3.749288E+03	1.315121E-15	1.579046E-17
3.759103E+03	1.321086E-15	1.584316E-17
3.768918E+03	1.327241E-15	1.589796E-17
3.778733E+03	1.333569E-15	1.595470E-17
3.788548E+03	1.340085E-15	1.601352E-17
3.798363E+03	1.346787E-15	1.607440E-17
3.808178E+03	1.353656E-15	1.613711E-17
3.817993E+03	1.360682E-15	1.620152E-17
3.827808E+03	1.367851E-15	1.626746E-17
3.837622E+03	1.375134E-15	1.633459E-17
3.847437E+03	1.382524E-15	1.640281E-17
3.857252E+03	1.389975E-15	1.647158E-17
3.867067E+03	1.397474E-15	1.654075E-17
3.876882E+03	1.404995E-15	1.661002E-17
3.886697E+03	1.412489E-15	1.667879E-17
3.896512E+03	1.419925E-15	1.674671E-17
3.906327E+03	1.427270E-15	1.681341E-17
3.916142E+03	1.434490E-15	1.687848E-17
3.925956E+03	1.441527E-15	1.694125E-17
3.935771E+03	1.448343E-15	1.700129E-17
3.945586E+03	1.454898E-15	1.705814E-17
3.955401E+03	1.461142E-15	1.711122E-17
3.965216E+03	1.467024E-15	1.715997E-17
3.975031E+03	1.472508E-15	1.720396E-17
3.984846E+03	1.477549E-15	1.724271E-17
3.994661E+03	1.482096E-15	1.727564E-17
4.004476E+03	1.486140E-15	1.730266E-17
4.014290E+03	1.489645E-15	1.732336E-17
4.024105E+03	1.492606E-15	1.733774E-17
4.033920E+03	1.495018E-15	1.734577E-17
4.043735E+03	1.496878E-15	1.734741E-17
4.053550E+03	1.498226E-15	1.734316E-17
4.063365E+03	1.499081E-15	1.733326E-17
4.073180E+03	1.499484E-15	1.731821E-17
4.082995E+03	1.499501E-15	1.729880E-17
4.092810E+03	1.499197E-15	1.727578E-17
4.102625E+03	1.498648E-15	1.725005E-17
4.112439E+03	1.497955E-15	1.722278E-17
4.122254E+03	1.497202E-15	1.719495E-17
4.132069E+03	1.496520E-15	1.716806E-17
4.141884E+03	1.496010E-15	1.714328E-17
4.151699E+03	1.495815E-15	1.712222E-17
4.161514E+03	1.496042E-15	1.710611E-17
4.171329E+03	1.496846E-15	1.709671E-17
4.181144E+03	1.498342E-15	1.709530E-17
4.190959E+03	1.500648E-15	1.710323E-17
4.200773E+03	1.503872E-15	1.712166E-17
4.210588E+03	1.508129E-15	1.715191E-17
4.220403E+03	1.513506E-15	1.719492E-17
4.230218E+03	1.520061E-15	1.725129E-17
4.240033E+03	1.527848E-15	1.732164E-17
4.249848E+03	1.536892E-15	1.740617E-17
4.259663E+03	1.547200E-15	1.750494E-17
4.269478E+03	1.558759E-15	1.761778E-17
4.279293E+03	1.571506E-15	1.774393E-17
4.289107E+03	1.585358E-15	1.788240E-17
4.298922E+03	1.600203E-15	1.803193E-17
4.308737E+03	1.615968E-15	1.819165E-17
4.318552E+03	1.632505E-15	1.835989E-17
4.328367E+03	1.649703E-15	1.853535E-17
4.338182E+03	1.667393E-15	1.871615E-17
4.347997E+03	1.685421E-15	1.890053E-17
4.357812E+03	1.703621E-15	1.908663E-17
4.367627E+03	1.721819E-15	1.927250E-17
4.377441E+03	1.739834E-15	1.945613E-17
4.387256E+03	1.757499E-15	1.963565E-17
4.397071E+03	1.774656E-15	1.980933E-17
4.406886E+03	1.791094E-15	1.997483E-17
4.416701E+03	1.806677E-15	2.013066E-17
4.426516E+03	1.821247E-15	2.027508E-17
4.436331E+03	1.834638E-15	2.040628E-17
4.446146E+03	1.846727E-15	2.052296E-17
4.455961E+03	1.857392E-15	2.062377E-17
4.465775E+03	1.866543E-15	2.070777E-17
4.475590E+03	1.874078E-15	2.077387E-17
4.485405E+03	1.879965E-15	2.082177E-17
4.495220E+03	1.884148E-15	2.085090E-17
4.505035E+03	1.886642E-15	2.086145E-17
4.514850E+03	1.887423E-15	2.085322E-17
4.524665E+03	1.886567E-15	2.082711E-17
4.534480E+03	1.884096E-15	2.078337E-17
4.544295E+03	1.880096E-15	2.072302E-17
4.554109E+03	1.874677E-15	2.064728E-17
4.563924E+03	1.867942E-15	2.055734E-17
4.573739E+03	1.859995E-15	2.045437E-17
4.583554E+03	1.850996E-15	2.034016E-17
4.593369E+03	1.841047E-15	2.021586E-17
4.603184E+03	1.830335E-15	2.008351E-17
4.612999E+03	1.818951E-15	1.994414E-17
4.622814E+03	1.807063E-15	1.979962E-17
4.632629E+03	1.794804E-15	1.965140E-17
4.642444E+03	1.782301E-15	1.950087E-17
4.652258E+03	1.769677E-15	1.934938E-17
4.662073E+03	1.757059E-15	1.919834E-17
4.671888E+03	1.744554E-15	1.904888E-17
4.681703E+03	1.732260E-15	1.890207E-17
4.691518E+03	1.720280E-15	1.875904E-17
4.701333E+03	1.708697E-15	1.862068E-17
4.711148E+03	1.697587E-15	1.848780E-17
4.720963E+03	1.687020E-15	1.836115E-17
4.730778E+03	1.677063E-15	1.824145E-17
4.740592E+03	1.667794E-15	1.812953E-17
4.750407E+03	1.659262E-15	1.802590E-17
4.760222E+03	1.651542E-15	1.793137E-17
4.770037E+03	1.644682E-15	1.784644E-17
4.779852E+03	1.638760E-15	1.777192E-17
4.789667E+03	1.633839E-15	1.770851E-17
4.799482E+03	1.629968E-15	1.765668E-17
4.809297E+03	1.627224E-15	1.761727E-17
4.819112E+03	1.625651E-15	1.759074E-17
4.828926E+03	1.625336E-15	1.757800E-17
4.838741E+03	1.626298E-15	1.757923E-17
4.848556E+03	1.628595E-15	1.759504E-17
4.858371E+03	1.632258E-15	1.762574E-17
4.868186E+03	1.637305E-15	1.767152E-17
4.878001E+03	1.643740E-15	1.773239E-17
4.887816E+03	1.651534E-15	1.780802E-17
4.897631E+03	1.660686E-15	1.789838E-17
4.907446E+03	1.671111E-15	1.800254E-17
4.917260E+03	1.682751E-15	1.811987E-17
4.927075E+03	1.695510E-15	1.824931E-17
4.936890E+03	1.709271E-15	1.838960E-17
4.946705E+03	1.723898E-15	1.853927E-17
4.956520E+03	1.739219E-15	1.869645E-17
4.966335E+03	1.755080E-15	1.885950E-17
4.976150E+03	1.771298E-15	1.902644E-17
4.985965E+03	1.787662E-15	1.919502E-17
4.995780E+03	1.803992E-15	1.936332E-17
5.005594E+03	1.820073E-15	1.952901E-17
5.015409E+03	1.835724E-15	1.969018E-17
5.025224E+03	1.850739E-15	1.984464E-17
5.035039E+03	1.864956E-15	1.999065E-17
5.044854E+03	1.878172E-15	2.012605E-17
5.054669E+03	1.890269E-15	2.024961E-17
5.064484E+03	1.901076E-15	2.035949E-17
5.074299E+03	1.910511E-15	2.045485E-17
5.084114E+03	1.918440E-15	2.053427E-17
5.093929E+03	1.924804E-15	2.059713E-17
5.103743E+03	1.929528E-15	2.064264E-17
5.113558E+03	1.932597E-15	2.067067E-17
5.123373E+03	1.933998E-15	2.068109E-17
5.133188E+03	1.933701E-15	2.067359E-17
5.143003E+03	1.931772E-15	2.064889E-17
5.152818E+03	1.928239E-15	2.060731E-17
5.162633E+03	1.923148E-15	2.054934E-17
5.172448E+03	1.916598E-15	2.047605E-17
5.182263E+03	1.908683E-15	2.038845E-17
5.192077E+03	1.899509E-15	2.028769E-17
5.201892E+03	1.889157E-15	2.017461E-17
5.211707E+03	1.877785E-15	2.005094E-17
5.221522E+03	1.865508E-15	1.991786E-17
5.231337E+03	1.852457E-15	1.977682E-17
5.241152E+03	1.838751E-15	1.962905E-17
5.250967E+03	1.824537E-15	1.947614E-17
5.260782E+03	1.809927E-15	1.931928E-17
5.270597E+03	1.795064E-15	1.915997E-17
5.280411E+03	1.780030E-15	1.899910E-17
5.290226E+03	1.764957E-15	1.883806E-17
5.300041E+03	1.749956E-15	1.867802E-17
5.309856E+03	1.735116E-15	1.851993E-17
5.319671E+03	1.720543E-15	1.836491E-17
5.329486E+03	1.706304E-15	1.821366E-17
5.339301E+03	1.692289E-15	1.806500E-17
5.349116E+03	1.678451E-15	1.791842E-17
5.358931E+03	1.664717E-15	1.777313E-17
5.368745E+03	1.651030E-15	1.762852E-17
5.378560E+03	1.637361E-15	1.748425E-17
5.388375E+03	1.623723E-15	1.734048E-17
5.398190E+03	1.610077E-15	1.719678E-17
5.408005E+03	1.596424E-15	1.705314E-17
5.417820E+03	1.582793E-15	1.690985E-17
5.427635E+03	1.569164E-15	1.676673E-17
5.437450E+03	1.555578E-15	1.662417E-17
5.447265E+03	1.542058E-15	1.648244E-17
5.457079E+03	1.528634E-15	1.634183E-17
5.466894E+03	1.515317E-15	1.620246E-17
5.476709E+03	1.502138E-15	1.606466E-17
5.486524E+03	1.489125E-15	1.592871E-17
5.496339E+03	1.476321E-15	1.579508E-17
5.506154E+03	1.463722E-15	1.566371E-17
5.515969E+03	1.451380E-15	1.553517E-17
5.525784E+03	1.439287E-15	1.540935E-17
5.535599E+03	1.427459E-15	1.528642E-17
5.545414E+03	1.415939E-15	1.516685E-17
5.555228E+03	1.404707E-15	1.505040E-17
5.565043E+03	1.393781E-15	1.493729E-17
5.574858E+03	1.383143E-15	1.482731E-17
5.584673E+03	1.372787E-15	1.472038E-17
5.594488E+03	1.362713E-15	1.461652E-17
5.604303E+03	1.352900E-15	1.451549E-17
5.614118E+03	1.343309E-15	1.441687E-17
5.623933E+03	1.333907E-15	1.432031E-17
5.633748E+03	1.324674E-15	1.422559E-17
5.643562E+03	1.315556E-15	1.413213E-17
5.653377E+03	1.306528E-15	1.403964E-17
5.663192E+03	1.297546E-15	1.394768E-17
5.673007E+03	1.288556E-15	1.385563E-17
5.682822E+03	1.279534E-15	1.376325E-17
5.692637E+03	1.270442E-15	1.367012E-17
5.702452E+03	1.261250E-15	1.357591E-17
5.712267E+03	1.251931E-15	1.348033E-17
5.722082E+03	1.242464E-15	1.338316E-17
5.731896E+03	1.232835E-15	1.328422E-17
5.741711E+03	1.223049E-15	1.318357E-17
5.751526E+03	1.213091E-15	1.308105E-17
5.761341E+03	1.202977E-15	1.297682E-17
5.771156E+03	1.192715E-15	1.287096E-17
5.780971E+03	1.182315E-15	1.276358E-17
5.790786E+03	1.171805E-15	1.265497E-17
5.800601E+03	1.161173E-15	1.254500E-17
5.810416E+03	1.150474E-15	1.243426E-17
5.820230E+03	1.139713E-15	1.232280E-17
5.830045E+03	1.128891E-15	1.221064E-17
5.839860E+03	1.118065E-15	1.209837E-17
5.849675E+03	1.107222E-15	1.198586E-17
5.859490E+03	1.096392E-15	1.187343E-17
5.869305E+03	1.085600E-15	1.176136E-17
5.879120E+03	1.074861E-15	1.164979E-17
5.888935E+03	1.064189E-15	1.153889E-17
5.898750E+03	1.053599E-15	1.142881E-17
5.908564E+03	1.043134E-15	1.132001E-17
5.918379E+03	1.032796E-15	1.121253E-17
5.928194E+03	1.022618E-15	1.110672E-17
5.938009E+03	1.012634E-15	1.100294E-17
5.947824E+03	1.002864E-15	1.090143E-17
5.957639E+03	9.933478E-16	1.080260E-17
5.967454E+03	9.841212E-16	1.070686E-17
5.977269E+03	9.751995E-16	1.061436E-17
5.987084E+03	9.666469E-16	1.052583E-17
5.996898E+03	9.584793E-16	1.044142E-17
6.006713E+03	9.507613E-16	1.036185E-17
6.016528E+03	9.435166E-16	1.028739E-17
6.026343E+03	9.367825E-16	1.021844E-17
6.036158E+03	9.305911E-16	1.015537E-17
6.045973E+03	9.249953E-16	1.009875E-17
6.055788E+03	9.199939E-16	1.004858E-17
6.065603E+03	9.155953E-16	1.000497E-17
6.075418E+03	9.117631E-16	9.967512E-18
6.085233E+03	9.084933E-16	9.936183E-18
6.095047E+03	9.057785E-16	9.910907E-18
6.104862E+03	9.035930E-16	9.891408E-18
6.114677E+03	9.018960E-16	9.877247E-18
6.124492E+03	9.006927E-16	9.868489E-18
6.134307E+03	8.999360E-16	9.864623E-18
6.144122E+03	8.996021E-16	9.865395E-18
6.153937E+03	8.996784E-16	9.870673E-18
6.163752E+03	9.001135E-16	9.879898E-18
6.173567E+03	9.009047E-16	9.893045E-18
6.183381E+03	9.019998E-16	9.909546E-18
6.193196E+03	9.033820E-16	9.929220E-18
6.203011E+03	9.050081E-16	9.951598E-18
6.212826E+03	9.068479E-16	9.976349E-18
6.222641E+03	9.088696E-16	1.000313E-17
6.232456E+03	9.110398E-16	1.003157E-17
6.242271E+03	9.133263E-16	1.006131E-17
6.252086E+03	9.156800E-16	1.009183E-17
6.261901E+03	9.180677E-16	1.012276E-17
6.271715E+03	9.204406E-16	1.015354E-17
6.281530E+03	9.227775E-16	1.018396E-17
6.291345E+03	9.250450E-16	1.021365E-17
6.301160E+03	9.272119E-16	1.024225E-17
6.310975E+03	9.292322E-16	1.026926E-17
6.320790E+03	9.310932E-16	1.029453E-17
6.330605E+03	9.327841E-16	1.031794E-17
6.340420E+03	9.342532E-16	1.033892E-17
6.350235E+03	9.355112E-16	1.035758E-17
6.360049E+03	9.365297E-16	1.037359E-17
6.369864E+03	9.372811E-16	1.038666E-17
6.379679E+03	9.377731E-16	1.039686E-17
6.389494E+03	9.379993E-16	1.040411E-17
6.399309E+03	9.379300E-16	1.040809E-17
6.409124E+03	9.375816E-16	1.040896E-17
6.418939E+03	9.369575E-16	1.040677E-17
6.428754E+03	9.360655E-16	1.040158E-17
6.438569E+03	9.348866E-16	1.039320E-17
6.448383E+03	9.334627E-16	1.038207E-17
6.458198E+03	9.317766E-16	1.036800E-17
6.468013E+03	9.298448E-16	1.035118E-17
6.477828E+03	9.276538E-16	1.033144E-17
6.487643E+03	9.252057E-16	1.030881E-17
6.497458E+03	9.225212E-16	1.028351E-17
6.507273E+03	9.195925E-16	1.025545E-17
6.517088E+03	9.164160E-16	1.022459E-17
6.526903E+03	9.130310E-16	1.019136E-17
6.536718E+03	9.094231E-16	1.015559E-17
6.546532E+03	9.056059E-16	1.011745E-17
6.556347E+03	9.016263E-16	1.007744E-17
6.566162E+03	8.974708E-16	1.003541E-17
6.575977E+03	8.931737E-16	9.991744E-18
6.585792E+03	8.887391E-16	9.946488E-18
6.595607E+03	8.842005E-16	9.900012E-18
6.605422E+03	8.795636E-16	9.852379E-18
6.615237E+03	8.748634E-16	9.803978E-18
6.625052E+03	8.701032E-16	9.754848E-18
6.634866E+03	8.653195E-16	9.705395E-18
6.644681E+03	8.605158E-16	9.655659E-18
6.654496E+03	8.557242E-16	9.606000E-18
6.664311E+03	8.509638E-16	9.556632E-18
6.674126E+03	8.462362E-16	9.507574E-18
6.683941E+03	8.415711E-16	9.459162E-18
6.693756E+03	8.369695E-16	9.411405E-18
6.703571E+03	8.324582E-16	9.364608E-18
6.713386E+03	8.280509E-16	9.318926E-18
6.723200E+03	8.237440E-16	9.274320E-18
6.733015E+03	8.195618E-16	9.231065E-18
6.742830E+03	8.155135E-16	9.189267E-18
6.752645E+03	8.116077E-16	9.149024E-18
6.762460E+03	8.078367E-16	9.110252E-18
6.772275E+03	8.042352E-16	9.073346E-18
6.782090E+03	8.007792E-16	9.038036E-18
6.791905E+03	7.974858E-16	9.004518E-18
6.801720E+03	7.943585E-16	8.972834E-18
6.811534E+03	7.913975E-16	8.942987E-18
6.821349E+03	7.886013E-16	8.914965E-18
6.831164E+03	7.859693E-16	8.888763E-18
6.840979E+03	7.834957E-16	8.864319E-18
6.850794E+03	7.811915E-16	8.841756E-18
6.860609E+03	7.790181E-16	8.820644E-18
6.870424E+03	7.769969E-16	8.801226E-18
6.880239E+03	7.751032E-16	8.783223E-18
6.890054E+03	7.733242E-16	8.766493E-18
6.899868E+03	7.716470E-16	8.750893E-18
6.909683E+03	7.700711E-16	8.736416E-18
6.919498E+03	7.685666E-16	8.722727E-18
6.929313E+03	7.671329E-16	8.709818E-18
6.939128E+03	7.657365E-16	8.697312E-18
6.948943E+03	7.643761E-16	8.685195E-18
6.958758E+03	7.630197E-16	8.673103E-18
6.968573E+03	7.616653E-16	8.661013E-18
6.978388E+03	7.602957E-16	8.648732E-18
6.988203E+03	7.588947E-16	8.636074E-18
6.998017E+03	7.574480E-16	8.622878E-18
7.007832E+03	7.559244E-16	8.608788E-18
7.017647E+03	7.543424E-16	8.594013E-18
7.027462E+03	7.526736E-16	8.578230E-18
7.037277E+03	7.509079E-16	8.561325E-18
7.047092E+03	7.490356E-16	8.543183E-18
7.056907E+03	7.470644E-16	8.523893E-18
7.066722E+03	7.449879E-16	8.503382E-18
7.076537E+03	7.427863E-16	8.481420E-18
7.086351E+03	7.404722E-16	8.458155E-18
7.096166E+03	7.380280E-16	8.433380E-18
7.105981E+03	7.354849E-16	8.407454E-18
7.115796E+03	7.328145E-16	8.380050E-18
7.125611E+03	7.300510E-16	8.351557E-18
7.135426E+03	7.271672E-16	8.321666E-18
7.145241E+03	7.242002E-16	8.290799E-18
7.155056E+03	7.211414E-16	8.258858E-18
7.164871E+03	7.179988E-16	8.225932E-18
7.174685E+03	7.147821E-16	8.192135E-18
7.184500E+03	7.114999E-16	8.157562E-18
7.194315E+03	7.081631E-16	8.122341E-18
7.204130E+03	7.047668E-16	8.086413E-18
7.213945E+03	7.013217E-16	8.049902E-18
7.223760E+03	6.978390E-16	8.012936E-18
7.233575E+03	6.943294E-16	7.975639E-18
7.243390E+03	6.907570E-16	7.937597E-18
7.253205E+03	6.871632E-16	7.899287E-18
7.263019E+03	6.835112E-16	7.860286E-18
7.272834E+03	6.798104E-16	7.820701E-18
7.282649E+03	6.760538E-16	7.780453E-18
7.292464E+03	6.722495E-16	7.739635E-18
7.302279E+03	6.683892E-16	7.698150E-18
7.312094E+03	6.645413E-16	7.656787E-18
7.321909E+03	6.606960E-16	7.615432E-18
7.331724E+03	6.568733E-16	7.574320E-18
7.341539E+03	6.531083E-16	7.533852E-18
7.351353E+03	6.494039E-16	7.494067E-18
7.361168E+03	6.457780E-16	7.455170E-18
7.370983E+03	6.422324E-16	7.417185E-18
7.380798E+03	6.387683E-16	7.380127E-18
7.390613E+03	6.354170E-16	7.344359E-18
7.400428E+03	6.321478E-16	7.309530E-18
7.410243E+03	6.289916E-16	7.275997E-18
7.420058E+03	6.259324E-16	7.243577E-18
7.429873E+03	6.229541E-16	7.212088E-18
7.439687E+03	6.200872E-16	7.181881E-18
7.449502E+03	6.173154E-16	7.152773E-18
7.459317E+03	6.146382E-16	7.124759E-18
7.469132E+03	6.120398E-16	7.097657E-18
7.478947E+03	6.095504E-16	7.071820E-18
7.488762E+03	6.071389E-16	7.046888E-18
7.498577E+03	6.048047E-16	7.022857E-18
7.508392E+03	6.025630E-16	6.999905E-18
7.518207E+03	6.004135E-16	6.978030E-18
7.528022E+03	5.983403E-16	6.957049E-18
7.537836E+03	5.963584E-16	6.937141E-18
7.547651E+03	5.944522E-16	6.918122E-18
7.557466E+03	5.926209E-16	6.899988E-18
7.567281E+03	5.908799E-16	6.882919E-18
7.577096E+03	5.892131E-16	6.866729E-18
7.586911E+03	5.876353E-16	6.851593E-18
7.596726E+03	5.861305E-16	6.837327E-18
7.606541E+03	5.847138E-16	6.824109E-18
7.616356E+03	5.833845E-16	6.811932E-18
