#wls	flux	fluxerr
1.570383E+03	6.635970E-17	3.223422E-18
1.609642E+03	6.779237E-17	3.289484E-18
1.648902E+03	6.903036E-17	3.345870E-18
1.688161E+03	7.006735E-17	3.392297E-18
1.727421E+03	7.090023E-17	3.428645E-18
1.766680E+03	7.146134E-17	3.451672E-18
1.805940E+03	7.169375E-17	3.458676E-18
1.845200E+03	7.150575E-17	3.445292E-18
1.884459E+03	7.081536E-17	3.407652E-18
1.923719E+03	6.956949E-17	3.343298E-18
1.962978E+03	6.781158E-17	3.254425E-18
2.002238E+03	6.574296E-17	3.150786E-18
2.041497E+03	6.380454E-17	3.053553E-18
2.080757E+03	6.262164E-17	2.992590E-18
2.120016E+03	6.279898E-17	2.996600E-18
2.159276E+03	6.468209E-17	3.081751E-18
2.198536E+03	6.824037E-17	3.246207E-18
2.237795E+03	7.315622E-17	3.474488E-18
2.277055E+03	7.898128E-17	3.744999E-18
2.316314E+03	8.532098E-17	4.038818E-18
2.355574E+03	9.188849E-17	4.342233E-18
2.394833E+03	9.851502E-17	4.647189E-18
2.434093E+03	1.051301E-16	4.950318E-18
2.473353E+03	1.117179E-16	5.250837E-18
2.512612E+03	1.182552E-16	5.547625E-18
2.551872E+03	1.247769E-16	5.842295E-18
2.591131E+03	1.312976E-16	6.135496E-18
2.630391E+03	1.378305E-16	6.427802E-18
2.669650E+03	1.444226E-16	6.721355E-18
2.708910E+03	1.510548E-16	7.015214E-18
2.748170E+03	1.577665E-16	7.311157E-18
2.787429E+03	1.645438E-16	7.608468E-18
2.826689E+03	1.713694E-16	7.906292E-18
2.865948E+03	1.782362E-16	8.204250E-18
2.905208E+03	1.851483E-16	8.502467E-18
2.944467E+03	1.921206E-16	8.801576E-18
2.954282E+03	1.938733E-16	8.876496E-18
2.964097E+03	1.956320E-16	8.951568E-18
2.973912E+03	1.974090E-16	9.027353E-18
2.983727E+03	1.991937E-16	9.103368E-18
2.993542E+03	2.009938E-16	9.179960E-18
3.003357E+03	2.028173E-16	9.257494E-18
3.013172E+03	2.046739E-16	9.336410E-18
3.022986E+03	2.065612E-16	9.416593E-18
3.032801E+03	2.084671E-16	9.497489E-18
3.042616E+03	2.103957E-16	9.579285E-18
3.052431E+03	2.123565E-16	9.662404E-18
3.062246E+03	2.143464E-16	9.746711E-18
3.072061E+03	2.163630E-16	9.832089E-18
3.081876E+03	2.184161E-16	9.918976E-18
3.091691E+03	2.204911E-16	1.000671E-17
3.101506E+03	2.225860E-16	1.009520E-17
3.111320E+03	2.247112E-16	1.018491E-17
3.121135E+03	2.268646E-16	1.027575E-17
3.130950E+03	2.290569E-16	1.036818E-17
3.140765E+03	2.312620E-16	1.046104E-17
3.150580E+03	2.335027E-16	1.055535E-17
3.160395E+03	2.357657E-16	1.065050E-17
3.170210E+03	2.380616E-16	1.074696E-17
3.180025E+03	2.403892E-16	1.084469E-17
3.189840E+03	2.427474E-16	1.094363E-17
3.199655E+03	2.451469E-16	1.104425E-17
3.209469E+03	2.475748E-16	1.114598E-17
3.219284E+03	2.500421E-16	1.124929E-17
3.229099E+03	2.525478E-16	1.135415E-17
3.238914E+03	2.551027E-16	1.146103E-17
3.248729E+03	2.576940E-16	1.156936E-17
3.258544E+03	2.603329E-16	1.167962E-17
3.268359E+03	2.630183E-16	1.179178E-17
3.278174E+03	2.657611E-16	1.190630E-17
3.287989E+03	2.685487E-16	1.202262E-17
3.297803E+03	2.714035E-16	1.214174E-17
3.307618E+03	2.743131E-16	1.226310E-17
3.317433E+03	2.772880E-16	1.238715E-17
3.327248E+03	2.803274E-16	1.251386E-17
3.337063E+03	2.834417E-16	1.264368E-17
3.346878E+03	2.866300E-16	1.277656E-17
3.356693E+03	2.898911E-16	1.291244E-17
3.366508E+03	2.932355E-16	1.305178E-17
3.376323E+03	2.966732E-16	1.319502E-17
3.386137E+03	3.001917E-16	1.334159E-17
3.395952E+03	3.038123E-16	1.349242E-17
3.405767E+03	3.075224E-16	1.364695E-17
3.415582E+03	3.113430E-16	1.380610E-17
3.425397E+03	3.152837E-16	1.397028E-17
3.435212E+03	3.193206E-16	1.413842E-17
3.445027E+03	3.234854E-16	1.431191E-17
3.454842E+03	3.277651E-16	1.449017E-17
3.464657E+03	3.321690E-16	1.467358E-17
3.474471E+03	3.366842E-16	1.486158E-17
3.484286E+03	3.413308E-16	1.505502E-17
3.494101E+03	3.460741E-16	1.525237E-17
3.503916E+03	3.509125E-16	1.545354E-17
3.513731E+03	3.558549E-16	1.565892E-17
3.523546E+03	3.608675E-16	1.586701E-17
3.533361E+03	3.659593E-16	1.607819E-17
3.543176E+03	3.711074E-16	1.629145E-17
3.552991E+03	3.763210E-16	1.650719E-17
3.562805E+03	3.815775E-16	1.672440E-17
3.572620E+03	3.868649E-16	1.694256E-17
3.582435E+03	3.921821E-16	1.716161E-17
3.592250E+03	3.975277E-16	1.738148E-17
3.602065E+03	4.028798E-16	1.760123E-17
3.611880E+03	4.082372E-16	1.782078E-17
3.621695E+03	4.135886E-16	1.803966E-17
3.631510E+03	4.189332E-16	1.825781E-17
3.641325E+03	4.242596E-16	1.847475E-17
3.651140E+03	4.295669E-16	1.869044E-17
3.660954E+03	4.348544E-16	1.890484E-17
3.670769E+03	4.401011E-16	1.911705E-17
3.680584E+03	4.453064E-16	1.932704E-17
3.690399E+03	4.504698E-16	1.953480E-17
3.700214E+03	4.556004E-16	1.974072E-17
3.710029E+03	4.606684E-16	1.994351E-17
3.719844E+03	4.656832E-16	2.014360E-17
3.729659E+03	4.706350E-16	2.034055E-17
3.739474E+03	4.755334E-16	2.053479E-17
3.749288E+03	4.803592E-16	2.072550E-17
3.759103E+03	4.851223E-16	2.091312E-17
3.768918E+03	4.898138E-16	2.109725E-17
3.778733E+03	4.944248E-16	2.127753E-17
3.788548E+03	4.989658E-16	2.145443E-17
3.798363E+03	5.034287E-16	2.162759E-17
3.808178E+03	5.078056E-16	2.179669E-17
3.817993E+03	5.121079E-16	2.196222E-17
3.827808E+03	5.163283E-16	2.212389E-17
3.837622E+03	5.204604E-16	2.228141E-17
3.847437E+03	5.245161E-16	2.243533E-17
3.857252E+03	5.284897E-16	2.258539E-17
3.867067E+03	5.323759E-16	2.273139E-17
3.876882E+03	5.361878E-16	2.287388E-17
3.886697E+03	5.399210E-16	2.301270E-17
3.896512E+03	5.435804E-16	2.314806E-17
3.906327E+03	5.471625E-16	2.327981E-17
3.916142E+03	5.506731E-16	2.340823E-17
3.925956E+03	5.541183E-16	2.353356E-17
3.935771E+03	5.575048E-16	2.365611E-17
3.945586E+03	5.608219E-16	2.377542E-17
3.955401E+03	5.640943E-16	2.389256E-17
3.965216E+03	5.673121E-16	2.400710E-17
3.975031E+03	5.704834E-16	2.411940E-17
3.984846E+03	5.736159E-16	2.422980E-17
3.994661E+03	5.767182E-16	2.433864E-17
4.004476E+03	5.797898E-16	2.444593E-17
4.014290E+03	5.828394E-16	2.455203E-17
4.024105E+03	5.858754E-16	2.465730E-17
4.033920E+03	5.888897E-16	2.476139E-17
4.043735E+03	5.919073E-16	2.486537E-17
4.053550E+03	5.949283E-16	2.496924E-17
4.063365E+03	5.979526E-16	2.507298E-17
4.073180E+03	6.009879E-16	2.517694E-17
4.082995E+03	6.040337E-16	2.528108E-17
4.092810E+03	6.071056E-16	2.538605E-17
4.102625E+03	6.102104E-16	2.549215E-17
4.112439E+03	6.133380E-16	2.559894E-17
4.122254E+03	6.165021E-16	2.570699E-17
4.132069E+03	6.197008E-16	2.581623E-17
4.141884E+03	6.229459E-16	2.592713E-17
4.151699E+03	6.262255E-16	2.603921E-17
4.161514E+03	6.295587E-16	2.615325E-17
4.171329E+03	6.329319E-16	2.626869E-17
4.181144E+03	6.363625E-16	2.638623E-17
4.190959E+03	6.398355E-16	2.650525E-17
4.200773E+03	6.433584E-16	2.662607E-17
4.210588E+03	6.469374E-16	2.674893E-17
4.220403E+03	6.505638E-16	2.687346E-17
4.230218E+03	6.542499E-16	2.700018E-17
4.240033E+03	6.579754E-16	2.712824E-17
4.249848E+03	6.617674E-16	2.725875E-17
4.259663E+03	6.656050E-16	2.739084E-17
4.269478E+03	6.694973E-16	2.752490E-17
4.279293E+03	6.734532E-16	2.766127E-17
4.289107E+03	6.774726E-16	2.779995E-17
4.298922E+03	6.815562E-16	2.794096E-17
4.308737E+03	6.857115E-16	2.808460E-17
4.318552E+03	6.899548E-16	2.823154E-17
4.328367E+03	6.942770E-16	2.838139E-17
4.338182E+03	6.986830E-16	2.853435E-17
4.347997E+03	7.031616E-16	2.868994E-17
4.357812E+03	7.077028E-16	2.884776E-17
4.367627E+03	7.122928E-16	2.900722E-17
4.377441E+03	7.169188E-16	2.916782E-17
4.387256E+03	7.215682E-16	2.932902E-17
4.397071E+03	7.262181E-16	2.948990E-17
4.406886E+03	7.308542E-16	2.964988E-17
4.416701E+03	7.354535E-16	2.980803E-17
4.426516E+03	7.400106E-16	2.996413E-17
4.436331E+03	7.445021E-16	3.011724E-17
4.446146E+03	7.488971E-16	3.026611E-17
4.455961E+03	7.531905E-16	3.041057E-17
4.465775E+03	7.573594E-16	3.054968E-17
4.475590E+03	7.613841E-16	3.068268E-17
4.485405E+03	7.652438E-16	3.080874E-17
4.495220E+03	7.689284E-16	3.092748E-17
4.505035E+03	7.724105E-16	3.103782E-17
4.514850E+03	7.756920E-16	3.113984E-17
4.524665E+03	7.787403E-16	3.123228E-17
4.534480E+03	7.815591E-16	3.131531E-17
4.544295E+03	7.841281E-16	3.138813E-17
4.554109E+03	7.864370E-16	3.145038E-17
4.563924E+03	7.884786E-16	3.150179E-17
4.573739E+03	7.902542E-16	3.154243E-17
4.583554E+03	7.917597E-16	3.157219E-17
4.593369E+03	7.929919E-16	3.159096E-17
4.603184E+03	7.939408E-16	3.159839E-17
4.612999E+03	7.946340E-16	3.159558E-17
4.622814E+03	7.950625E-16	3.158224E-17
4.632629E+03	7.952484E-16	3.155924E-17
4.642444E+03	7.951945E-16	3.152675E-17
4.652258E+03	7.949228E-16	3.148565E-17
4.662073E+03	7.944659E-16	3.143727E-17
4.671888E+03	7.938375E-16	3.138216E-17
4.681703E+03	7.930704E-16	3.132164E-17
4.691518E+03	7.921960E-16	3.125697E-17
4.701333E+03	7.912312E-16	3.118882E-17
4.711148E+03	7.902070E-16	3.111843E-17
4.720963E+03	7.891398E-16	3.104645E-17
4.730778E+03	7.880608E-16	3.097411E-17
4.740592E+03	7.869688E-16	3.090137E-17
4.750407E+03	7.859044E-16	3.082982E-17
4.760222E+03	7.848718E-16	3.075962E-17
4.770037E+03	7.838869E-16	3.069139E-17
4.779852E+03	7.829709E-16	3.062596E-17
4.789667E+03	7.821280E-16	3.056349E-17
4.799482E+03	7.813810E-16	3.050485E-17
4.809297E+03	7.807399E-16	3.045043E-17
4.819112E+03	7.802184E-16	3.040076E-17
4.828926E+03	7.798195E-16	3.035592E-17
4.838741E+03	7.795614E-16	3.031663E-17
4.848556E+03	7.794544E-16	3.028326E-17
4.858371E+03	7.795097E-16	3.025624E-17
4.868186E+03	7.797356E-16	3.023587E-17
4.878001E+03	7.801339E-16	3.022219E-17
4.887816E+03	7.807284E-16	3.021613E-17
4.897631E+03	7.815189E-16	3.021764E-17
4.907446E+03	7.825046E-16	3.022667E-17
4.917260E+03	7.837086E-16	3.024410E-17
4.927075E+03	7.851281E-16	3.026980E-17
4.936890E+03	7.867609E-16	3.030365E-17
4.946705E+03	7.886270E-16	3.034642E-17
4.956520E+03	7.907228E-16	3.039793E-17
4.966335E+03	7.930583E-16	3.045854E-17
4.976150E+03	7.956191E-16	3.052769E-17
4.985965E+03	7.984144E-16	3.060570E-17
4.995780E+03	8.014522E-16	3.069284E-17
5.005594E+03	8.047234E-16	3.078877E-17
5.015409E+03	8.082252E-16	3.089333E-17
5.025224E+03	8.119627E-16	3.100670E-17
5.035039E+03	8.159141E-16	3.112803E-17
5.044854E+03	8.200904E-16	3.125773E-17
5.054669E+03	8.244753E-16	3.139514E-17
5.064484E+03	8.290615E-16	3.153997E-17
5.074299E+03	8.338379E-16	3.169178E-17
5.084114E+03	8.387939E-16	3.185016E-17
5.093929E+03	8.439176E-16	3.201463E-17
5.103743E+03	8.492024E-16	3.218493E-17
5.113558E+03	8.546179E-16	3.235990E-17
5.123373E+03	8.601547E-16	3.253917E-17
5.133188E+03	8.657968E-16	3.272213E-17
5.143003E+03	8.715257E-16	3.290808E-17
5.152818E+03	8.773122E-16	3.309590E-17
5.162633E+03	8.831455E-16	3.328520E-17
5.172448E+03	8.890036E-16	3.347514E-17
5.182263E+03	8.948559E-16	3.366458E-17
5.192077E+03	9.006790E-16	3.385264E-17
5.201892E+03	9.064598E-16	3.403884E-17
5.211707E+03	9.121550E-16	3.422157E-17
5.221522E+03	9.177597E-16	3.440065E-17
5.231337E+03	9.232305E-16	3.457447E-17
5.241152E+03	9.285528E-16	3.474252E-17
5.250967E+03	9.337022E-16	3.490390E-17
5.260782E+03	9.386442E-16	3.505734E-17
5.270597E+03	9.433565E-16	3.520204E-17
5.280411E+03	9.478140E-16	3.533709E-17
5.290226E+03	9.520045E-16	3.546208E-17
5.300041E+03	9.558852E-16	3.557543E-17
5.309856E+03	9.594439E-16	3.567674E-17
5.319671E+03	9.626493E-16	3.576487E-17
5.329486E+03	9.654893E-16	3.583940E-17
5.339301E+03	9.679332E-16	3.589925E-17
5.349116E+03	9.699600E-16	3.594367E-17
5.358931E+03	9.715500E-16	3.597197E-17
5.368745E+03	9.726849E-16	3.598352E-17
5.378560E+03	9.733511E-16	3.597785E-17
5.388375E+03	9.735235E-16	3.595409E-17
5.398190E+03	9.732125E-16	3.591267E-17
5.408005E+03	9.723902E-16	3.585261E-17
5.417820E+03	9.710521E-16	3.577378E-17
5.427635E+03	9.692171E-16	3.567692E-17
5.437450E+03	9.668758E-16	3.556175E-17
5.447265E+03	9.640238E-16	3.542813E-17
5.457079E+03	9.606882E-16	3.527712E-17
5.466894E+03	9.568807E-16	3.510917E-17
5.476709E+03	9.525945E-16	3.492409E-17
5.486524E+03	9.478759E-16	3.472361E-17
5.496339E+03	9.427239E-16	3.450773E-17
5.506154E+03	9.371695E-16	3.427762E-17
5.515969E+03	9.312346E-16	3.403411E-17
5.525784E+03	9.249440E-16	3.377814E-17
5.535599E+03	9.183232E-16	3.351067E-17
5.545414E+03	9.114089E-16	3.323306E-17
5.555228E+03	9.042274E-16	3.294628E-17
5.565043E+03	8.967980E-16	3.265107E-17
5.574858E+03	8.891561E-16	3.234873E-17
5.584673E+03	8.813393E-16	3.204064E-17
5.594488E+03	8.733566E-16	3.172713E-17
5.604303E+03	8.652420E-16	3.140945E-17
5.614118E+03	8.570312E-16	3.108891E-17
5.623933E+03	8.487380E-16	3.076600E-17
5.633748E+03	8.403960E-16	3.044195E-17
5.643562E+03	8.320248E-16	3.011747E-17
5.653377E+03	8.236377E-16	2.979303E-17
5.663192E+03	8.152607E-16	2.946958E-17
5.673007E+03	8.069120E-16	2.914777E-17
5.682822E+03	7.986072E-16	2.882815E-17
5.692637E+03	7.903609E-16	2.851124E-17
5.702452E+03	7.821854E-16	2.819749E-17
5.712267E+03	7.740925E-16	2.788730E-17
5.722082E+03	7.660924E-16	2.758103E-17
5.731896E+03	7.582018E-16	2.727928E-17
5.741711E+03	7.504218E-16	2.698208E-17
5.751526E+03	7.427574E-16	2.668958E-17
5.761341E+03	7.352242E-16	2.640234E-17
5.771156E+03	7.278182E-16	2.612021E-17
5.780971E+03	7.205522E-16	2.584364E-17
5.790786E+03	7.134223E-16	2.557245E-17
5.800601E+03	7.064306E-16	2.530674E-17
5.810416E+03	6.995879E-16	2.504686E-17
5.820230E+03	6.928897E-16	2.479264E-17
5.830045E+03	6.863369E-16	2.454411E-17
5.839860E+03	6.799388E-16	2.430159E-17
5.849675E+03	6.736895E-16	2.406484E-17
5.859490E+03	6.675904E-16	2.383392E-17
5.869305E+03	6.616495E-16	2.360909E-17
5.879120E+03	6.558536E-16	2.338987E-17
5.888935E+03	6.502108E-16	2.317654E-17
5.898750E+03	6.447221E-16	2.296912E-17
5.908564E+03	6.393880E-16	2.276762E-17
5.918379E+03	6.342025E-16	2.257183E-17
5.928194E+03	6.291665E-16	2.238175E-17
5.938009E+03	6.242876E-16	2.219765E-17
5.947824E+03	6.195532E-16	2.201907E-17
5.957639E+03	6.149773E-16	2.184651E-17
5.967454E+03	6.105475E-16	2.167950E-17
5.977269E+03	6.062646E-16	2.151808E-17
5.987084E+03	6.021362E-16	2.136250E-17
5.996898E+03	5.981563E-16	2.121253E-17
6.006713E+03	5.943325E-16	2.106845E-17
6.016528E+03	5.906588E-16	2.093004E-17
6.026343E+03	5.871360E-16	2.079730E-17
6.036158E+03	5.837778E-16	2.067073E-17
6.045973E+03	5.805846E-16	2.055032E-17
6.055788E+03	5.775631E-16	2.043632E-17
6.065603E+03	5.747135E-16	2.032871E-17
6.075418E+03	5.720358E-16	2.022750E-17
6.085233E+03	5.695363E-16	2.013290E-17
6.095047E+03	5.672079E-16	2.004465E-17
6.104862E+03	5.650565E-16	1.996295E-17
6.114677E+03	5.630678E-16	1.988731E-17
6.124492E+03	5.612535E-16	1.981812E-17
6.134307E+03	5.595987E-16	1.975485E-17
6.144122E+03	5.581139E-16	1.969789E-17
6.153937E+03	5.567962E-16	1.964711E-17
6.163752E+03	5.556291E-16	1.960193E-17
6.173567E+03	5.546279E-16	1.956291E-17
6.183381E+03	5.537688E-16	1.952918E-17
6.193196E+03	5.530656E-16	1.950124E-17
6.203011E+03	5.524995E-16	1.947843E-17
6.212826E+03	5.520704E-16	1.946075E-17
6.222641E+03	5.517711E-16	1.944793E-17
6.232456E+03	5.515874E-16	1.943949E-17
6.242271E+03	5.515175E-16	1.943536E-17
6.252086E+03	5.515393E-16	1.943476E-17
6.261901E+03	5.516500E-16	1.943761E-17
6.271715E+03	5.518335E-16	1.944332E-17
6.281530E+03	5.520730E-16	1.945133E-17
6.291345E+03	5.523581E-16	1.946127E-17
6.301160E+03	5.526652E-16	1.947230E-17
6.310975E+03	5.529770E-16	1.948382E-17
6.320790E+03	5.532828E-16	1.949546E-17
6.330605E+03	5.535520E-16	1.950615E-17
6.340420E+03	5.537879E-16	1.951600E-17
6.350235E+03	5.539670E-16	1.952419E-17
6.360049E+03	5.540866E-16	1.953061E-17
6.369864E+03	5.541448E-16	1.953519E-17
6.379679E+03	5.541401E-16	1.953788E-17
6.389494E+03	5.540721E-16	1.953865E-17
6.399309E+03	5.539411E-16	1.953751E-17
6.409124E+03	5.537480E-16	1.953449E-17
6.418939E+03	5.534879E-16	1.952940E-17
6.428754E+03	5.531629E-16	1.952231E-17
6.438569E+03	5.527687E-16	1.951308E-17
6.448383E+03	5.523155E-16	1.950204E-17
6.458198E+03	5.517924E-16	1.948880E-17
6.468013E+03	5.512023E-16	1.947348E-17
6.477828E+03	5.505483E-16	1.945616E-17
6.487643E+03	5.498194E-16	1.943645E-17
6.497458E+03	5.490194E-16	1.941448E-17
6.507273E+03	5.481453E-16	1.939013E-17
6.517088E+03	5.472019E-16	1.936356E-17
6.526903E+03	5.461804E-16	1.933446E-17
6.536718E+03	5.450797E-16	1.930277E-17
6.546532E+03	5.439140E-16	1.926900E-17
6.556347E+03	5.426691E-16	1.923263E-17
6.566162E+03	5.413535E-16	1.919395E-17
6.575977E+03	5.399761E-16	1.915327E-17
6.585792E+03	5.385320E-16	1.911041E-17
6.595607E+03	5.370239E-16	1.906545E-17
6.605422E+03	5.354552E-16	1.901851E-17
6.615237E+03	5.338370E-16	1.896997E-17
6.625052E+03	5.321734E-16	1.891998E-17
6.634866E+03	5.304616E-16	1.886841E-17
6.644681E+03	5.287062E-16	1.881543E-17
6.654496E+03	5.269270E-16	1.876173E-17
6.664311E+03	5.251142E-16	1.870696E-17
6.674126E+03	5.232728E-16	1.865130E-17
6.683941E+03	5.214231E-16	1.859545E-17
6.693756E+03	5.195553E-16	1.853906E-17
6.703571E+03	5.176819E-16	1.848258E-17
6.713386E+03	5.158008E-16	1.842591E-17
6.723200E+03	5.139315E-16	1.836975E-17
6.733015E+03	5.120642E-16	1.831375E-17
6.742830E+03	5.102108E-16	1.825833E-17
6.752645E+03	5.083758E-16	1.820365E-17
6.762460E+03	5.065561E-16	1.814958E-17
6.772275E+03	5.047630E-16	1.809654E-17
6.782090E+03	5.030004E-16	1.804466E-17
6.791905E+03	5.012643E-16	1.799379E-17
6.801720E+03	4.995656E-16	1.794432E-17
6.811534E+03	4.979072E-16	1.789636E-17
6.821349E+03	4.962845E-16	1.784974E-17
6.831164E+03	4.947074E-16	1.780481E-17
6.840979E+03	4.931783E-16	1.776166E-17
6.850794E+03	4.916919E-16	1.772009E-17
6.860609E+03	4.902499E-16	1.768017E-17
6.870424E+03	4.888614E-16	1.764224E-17
6.880239E+03	4.875278E-16	1.760632E-17
6.890054E+03	4.862352E-16	1.757194E-17
6.899868E+03	4.849997E-16	1.753966E-17
6.909683E+03	4.838219E-16	1.750952E-17
6.919498E+03	4.826874E-16	1.748098E-17
6.929313E+03	4.816117E-16	1.745462E-17
6.939128E+03	4.805873E-16	1.743016E-17
6.948943E+03	4.796143E-16	1.740761E-17
6.958758E+03	4.787000E-16	1.738723E-17
6.968573E+03	4.778291E-16	1.736848E-17
6.978388E+03	4.770161E-16	1.735187E-17
6.988203E+03	4.762454E-16	1.733685E-17
6.998017E+03	4.755311E-16	1.732392E-17
7.007832E+03	4.748574E-16	1.731252E-17
7.017647E+03	4.742307E-16	1.730288E-17
7.027462E+03	4.736577E-16	1.729525E-17
7.037277E+03	4.731216E-16	1.728901E-17
7.047092E+03	4.726288E-16	1.728440E-17
7.056907E+03	4.721781E-16	1.728137E-17
7.066722E+03	4.717678E-16	1.727988E-17
7.076537E+03	4.713963E-16	1.727986E-17
7.086351E+03	4.710545E-16	1.728097E-17
7.096166E+03	4.707564E-16	1.728374E-17
7.105981E+03	4.704845E-16	1.728752E-17
7.115796E+03	4.702453E-16	1.729255E-17
7.125611E+03	4.700370E-16	1.729877E-17
7.135426E+03	4.698582E-16	1.730613E-17
7.145241E+03	4.697074E-16	1.731457E-17
7.155056E+03	4.695831E-16	1.732404E-17
7.164871E+03	4.694760E-16	1.733420E-17
7.174685E+03	4.694008E-16	1.734558E-17
7.184500E+03	4.693481E-16	1.735786E-17
7.194315E+03	4.693089E-16	1.737069E-17
7.204130E+03	4.692983E-16	1.738462E-17
7.213945E+03	4.693072E-16	1.739934E-17
7.223760E+03	4.693350E-16	1.741481E-17
7.233575E+03	4.693807E-16	1.743101E-17
7.243390E+03	4.694441E-16	1.744791E-17
7.253205E+03	4.695325E-16	1.746580E-17
7.263019E+03	4.696377E-16	1.748437E-17
7.272834E+03	4.697757E-16	1.750422E-17
7.282649E+03	4.699301E-16	1.752474E-17
7.292464E+03	4.701172E-16	1.754653E-17
7.302279E+03	4.703373E-16	1.756962E-17
7.312094E+03	4.705905E-16	1.759402E-17
7.321909E+03	4.708605E-16	1.761910E-17
7.331724E+03	4.711473E-16	1.764487E-17
7.341539E+03	4.714597E-16	1.767167E-17
7.351353E+03	4.717809E-16	1.769887E-17
7.361168E+03	4.721282E-16	1.772711E-17
7.370983E+03	4.724851E-16	1.775578E-17
7.380798E+03	4.728516E-16	1.778488E-17
7.390613E+03	4.732280E-16	1.781442E-17
7.400428E+03	4.736230E-16	1.784473E-17
7.410243E+03	4.740283E-16	1.787550E-17
7.420058E+03	4.744441E-16	1.790673E-17
7.429873E+03	4.748705E-16	1.793844E-17
7.439687E+03	4.753075E-16	1.797062E-17
7.449502E+03	4.757552E-16	1.800329E-17
7.459317E+03	4.762047E-16	1.803609E-17
7.469132E+03	4.766648E-16	1.806937E-17
7.478947E+03	4.771353E-16	1.810312E-17
7.488762E+03	4.776160E-16	1.813733E-17
7.498577E+03	4.781067E-16	1.817200E-17
7.508392E+03	4.785982E-16	1.820677E-17
7.518207E+03	4.790900E-16	1.824164E-17
7.528022E+03	4.795998E-16	1.827728E-17
7.537836E+03	4.801091E-16	1.831297E-17
7.547651E+03	4.806175E-16	1.834871E-17
7.557466E+03	4.811335E-16	1.838482E-17
7.567281E+03	4.816566E-16	1.842129E-17
7.577096E+03	4.821772E-16	1.845774E-17
7.586911E+03	4.826948E-16	1.849417E-17
7.596726E+03	4.832180E-16	1.853089E-17
7.606541E+03	4.837464E-16	1.856790E-17
7.616356E+03	4.842703E-16	1.860482E-17
