#wls	flux	fluxerr
1.570383E+03	1.849337E-17	2.905387E-19
1.609642E+03	1.891076E-17	2.968907E-19
1.648902E+03	1.928089E-17	3.024871E-19
1.688161E+03	1.959546E-17	3.071990E-19
1.727421E+03	1.985136E-17	3.109793E-19
1.766680E+03	2.003279E-17	3.135822E-19
1.805940E+03	2.012165E-17	3.147274E-19
1.845200E+03	2.008840E-17	3.139559E-19
1.884459E+03	1.991105E-17	3.109294E-19
1.923719E+03	1.957206E-17	3.053796E-19
1.962978E+03	1.908247E-17	2.974850E-19
2.002238E+03	1.849744E-17	2.881114E-19
2.041497E+03	1.793417E-17	2.790870E-19
2.080757E+03	1.757250E-17	2.732073E-19
2.120016E+03	1.757710E-17	2.730216E-19
2.159276E+03	1.804408E-17	2.800056E-19
2.198536E+03	1.895509E-17	2.938531E-19
2.237795E+03	2.021841E-17	3.131226E-19
2.277055E+03	2.169715E-17	3.356784E-19
2.316314E+03	2.328362E-17	3.598442E-19
2.355574E+03	2.489321E-17	3.843072E-19
2.394833E+03	2.647944E-17	4.083476E-19
2.434093E+03	2.802591E-17	4.317122E-19
2.473353E+03	2.952713E-17	4.543168E-19
2.512612E+03	3.098536E-17	4.761973E-19
2.551872E+03	3.240600E-17	4.974371E-19
2.591131E+03	3.379507E-17	5.181291E-19
2.630391E+03	3.516361E-17	5.384425E-19
2.669650E+03	3.651608E-17	5.584452E-19
2.708910E+03	3.785548E-17	5.781826E-19
2.748170E+03	3.919534E-17	5.978604E-19
2.787429E+03	4.053631E-17	6.174869E-19
2.826689E+03	4.187765E-17	6.370496E-19
2.865948E+03	4.323603E-17	6.568001E-19
2.905208E+03	4.461506E-17	6.767908E-19
2.944467E+03	4.602364E-17	6.971537E-19
2.954282E+03	4.638245E-17	7.023332E-19
2.964097E+03	4.674314E-17	7.075363E-19
2.973912E+03	4.710563E-17	7.127615E-19
2.983727E+03	4.747034E-17	7.180153E-19
2.993542E+03	4.783906E-17	7.233246E-19
3.003357E+03	4.821993E-17	7.288125E-19
3.013172E+03	4.860599E-17	7.343732E-19
3.022986E+03	4.899656E-17	7.399968E-19
3.032801E+03	4.939797E-17	7.457786E-19
3.042616E+03	4.980192E-17	7.515930E-19
3.052431E+03	5.021687E-17	7.575678E-19
3.062246E+03	5.063576E-17	7.635961E-19
3.072061E+03	5.106424E-17	7.697630E-19
3.081876E+03	5.150167E-17	7.760589E-19
3.091691E+03	5.194112E-17	7.823789E-19
3.101506E+03	5.239468E-17	7.889052E-19
3.111320E+03	5.284914E-17	7.954387E-19
3.121135E+03	5.331033E-17	8.020670E-19
3.130950E+03	5.377776E-17	8.087826E-19
3.140765E+03	5.425096E-17	8.155783E-19
3.150580E+03	5.473581E-17	8.225425E-19
3.160395E+03	5.522554E-17	8.295729E-19
3.170210E+03	5.571973E-17	8.366634E-19
3.180025E+03	5.621796E-17	8.438074E-19
3.189840E+03	5.672614E-17	8.510936E-19
3.199655E+03	5.724385E-17	8.585155E-19
3.209469E+03	5.776438E-17	8.659722E-19
3.219284E+03	5.829362E-17	8.735520E-19
3.229099E+03	5.883115E-17	8.812483E-19
3.238914E+03	5.937654E-17	8.890546E-19
3.248729E+03	5.992936E-17	8.969642E-19
3.258544E+03	6.048916E-17	9.049703E-19
3.268359E+03	6.106172E-17	9.131593E-19
3.278174E+03	6.163413E-17	9.213376E-19
3.287989E+03	6.222453E-17	9.297766E-19
3.297803E+03	6.282001E-17	9.382827E-19
3.307618E+03	6.342008E-17	9.468487E-19
3.317433E+03	6.403650E-17	9.556501E-19
3.327248E+03	6.465637E-17	9.644941E-19
3.337063E+03	6.529151E-17	9.735566E-19
3.346878E+03	6.592896E-17	9.826444E-19
3.356693E+03	6.658044E-17	9.919318E-19
3.366508E+03	6.724522E-17	1.001408E-18
3.376323E+03	6.791660E-17	1.010972E-18
3.386137E+03	6.860000E-17	1.020706E-18
3.395952E+03	6.929482E-17	1.030600E-18
3.405767E+03	6.999434E-17	1.040553E-18
3.415582E+03	7.070993E-17	1.050735E-18
3.425397E+03	7.144081E-17	1.061133E-18
3.435212E+03	7.217463E-17	1.071564E-18
3.445027E+03	7.292836E-17	1.082281E-18
3.454842E+03	7.368964E-17	1.093098E-18
3.464657E+03	7.446383E-17	1.104095E-18
3.474471E+03	7.525026E-17	1.115262E-18
3.484286E+03	7.604846E-17	1.126592E-18
3.494101E+03	7.685802E-17	1.138079E-18
3.503916E+03	7.768407E-17	1.149798E-18
3.513731E+03	7.852628E-17	1.161743E-18
3.523546E+03	7.938418E-17	1.173908E-18
3.533361E+03	8.025750E-17	1.186289E-18
3.543176E+03	8.114590E-17	1.198879E-18
3.552991E+03	8.204936E-17	1.211679E-18
3.562805E+03	8.297305E-17	1.224764E-18
3.572620E+03	8.391145E-17	1.238053E-18
3.582435E+03	8.486998E-17	1.251625E-18
3.592250E+03	8.585375E-17	1.265554E-18
3.602065E+03	8.685233E-17	1.279688E-18
3.611880E+03	8.787614E-17	1.294178E-18
3.621695E+03	8.892005E-17	1.308949E-18
3.631510E+03	8.998924E-17	1.324076E-18
3.641325E+03	9.108378E-17	1.339561E-18
3.651140E+03	9.220360E-17	1.355401E-18
3.660954E+03	9.334856E-17	1.371594E-18
3.670769E+03	9.451873E-17	1.388141E-18
3.680584E+03	9.571872E-17	1.405108E-18
3.690399E+03	9.694340E-17	1.422420E-18
3.700214E+03	9.820214E-17	1.440213E-18
3.710029E+03	9.948451E-17	1.458334E-18
3.719844E+03	1.007948E-16	1.476846E-18
3.729659E+03	1.021321E-16	1.495734E-18
3.739474E+03	1.035002E-16	1.515053E-18
3.749288E+03	1.048977E-16	1.534783E-18
3.759103E+03	1.063138E-16	1.554763E-18
3.768918E+03	1.077610E-16	1.575178E-18
3.778733E+03	1.092326E-16	1.595928E-18
3.788548E+03	1.107220E-16	1.616916E-18
3.798363E+03	1.122360E-16	1.638243E-18
3.808178E+03	1.137633E-16	1.659740E-18
3.817993E+03	1.153102E-16	1.681501E-18
3.827808E+03	1.168739E-16	1.703484E-18
3.837622E+03	1.184426E-16	1.725518E-18
3.847437E+03	1.200222E-16	1.747687E-18
3.857252E+03	1.216096E-16	1.769947E-18
3.867067E+03	1.231975E-16	1.792190E-18
3.876882E+03	1.247870E-16	1.814435E-18
3.886697E+03	1.263752E-16	1.836636E-18
3.896512E+03	1.279548E-16	1.858690E-18
3.906327E+03	1.295231E-16	1.880557E-18
3.916142E+03	1.310860E-16	1.902323E-18
3.925956E+03	1.326285E-16	1.923768E-18
3.935771E+03	1.341567E-16	1.944986E-18
3.945586E+03	1.356688E-16	1.965948E-18
3.955401E+03	1.371593E-16	1.986574E-18
3.965216E+03	1.386269E-16	2.006848E-18
3.975031E+03	1.400708E-16	2.026758E-18
3.984846E+03	1.414907E-16	2.046299E-18
3.994661E+03	1.428864E-16	2.065470E-18
4.004476E+03	1.442546E-16	2.084224E-18
4.014290E+03	1.455997E-16	2.102625E-18
4.024105E+03	1.469192E-16	2.120636E-18
4.033920E+03	1.482108E-16	2.138227E-18
4.043735E+03	1.494803E-16	2.155481E-18
4.053550E+03	1.507262E-16	2.172376E-18
4.063365E+03	1.519513E-16	2.188953E-18
4.073180E+03	1.531581E-16	2.205251E-18
4.082995E+03	1.543430E-16	2.221215E-18
4.092810E+03	1.555128E-16	2.236945E-18
4.102625E+03	1.566675E-16	2.252444E-18
4.112439E+03	1.578109E-16	2.267763E-18
4.122254E+03	1.589434E-16	2.282910E-18
4.132069E+03	1.600655E-16	2.297892E-18
4.141884E+03	1.611812E-16	2.312766E-18
4.151699E+03	1.622942E-16	2.327587E-18
4.161514E+03	1.634017E-16	2.342315E-18
4.171329E+03	1.645075E-16	2.357002E-18
4.181144E+03	1.656117E-16	2.371652E-18
4.190959E+03	1.667176E-16	2.386312E-18
4.200773E+03	1.678219E-16	2.400933E-18
4.210588E+03	1.689301E-16	2.415597E-18
4.220403E+03	1.700353E-16	2.430204E-18
4.230218E+03	1.711396E-16	2.444782E-18
4.240033E+03	1.722442E-16	2.459351E-18
4.249848E+03	1.733443E-16	2.473842E-18
4.259663E+03	1.744409E-16	2.488269E-18
4.269478E+03	1.755287E-16	2.502557E-18
4.279293E+03	1.766060E-16	2.516681E-18
4.289107E+03	1.776738E-16	2.530657E-18
4.298922E+03	1.787309E-16	2.544468E-18
4.308737E+03	1.797706E-16	2.558018E-18
4.318552E+03	1.807976E-16	2.571374E-18
4.328367E+03	1.818077E-16	2.584480E-18
4.338182E+03	1.827995E-16	2.597311E-18
4.347997E+03	1.837705E-16	2.609838E-18
4.357812E+03	1.847180E-16	2.622018E-18
4.367627E+03	1.856359E-16	2.633767E-18
4.377441E+03	1.865254E-16	2.645103E-18
4.387256E+03	1.873815E-16	2.655956E-18
4.397071E+03	1.882045E-16	2.666327E-18
4.406886E+03	1.889907E-16	2.676169E-18
4.416701E+03	1.897310E-16	2.685352E-18
4.426516E+03	1.904291E-16	2.693929E-18
4.436331E+03	1.910752E-16	2.701762E-18
4.446146E+03	1.916696E-16	2.708857E-18
4.455961E+03	1.922024E-16	2.715074E-18
4.465775E+03	1.926712E-16	2.720381E-18
4.475590E+03	1.930739E-16	2.724750E-18
4.485405E+03	1.934060E-16	2.728119E-18
4.495220E+03	1.936637E-16	2.730434E-18
4.505035E+03	1.938432E-16	2.731645E-18
4.514850E+03	1.939441E-16	2.731746E-18
4.524665E+03	1.939641E-16	2.730708E-18
4.534480E+03	1.939015E-16	2.728507E-18
4.544295E+03	1.937580E-16	2.725169E-18
4.554109E+03	1.935335E-16	2.720695E-18
4.563924E+03	1.932311E-16	2.715129E-18
4.573739E+03	1.928546E-16	2.708527E-18
4.583554E+03	1.924040E-16	2.700889E-18
4.593369E+03	1.918846E-16	2.692291E-18
4.603184E+03	1.913023E-16	2.682818E-18
4.612999E+03	1.906635E-16	2.672562E-18
4.622814E+03	1.899705E-16	2.661553E-18
4.632629E+03	1.892331E-16	2.649932E-18
4.642444E+03	1.884544E-16	2.637742E-18
4.652258E+03	1.876443E-16	2.625123E-18
4.662073E+03	1.868064E-16	2.612125E-18
4.671888E+03	1.859487E-16	2.598862E-18
4.681703E+03	1.850770E-16	2.585412E-18
4.691518E+03	1.841969E-16	2.571856E-18
4.701333E+03	1.833182E-16	2.558332E-18
4.711148E+03	1.824420E-16	2.544854E-18
4.720963E+03	1.815776E-16	2.531550E-18
4.730778E+03	1.807297E-16	2.518487E-18
4.740592E+03	1.799029E-16	2.505728E-18
4.750407E+03	1.791012E-16	2.493329E-18
4.760222E+03	1.783286E-16	2.481345E-18
4.770037E+03	1.775909E-16	2.469853E-18
4.779852E+03	1.768911E-16	2.458899E-18
4.789667E+03	1.762324E-16	2.448523E-18
4.799482E+03	1.756197E-16	2.438793E-18
4.809297E+03	1.750515E-16	2.429688E-18
4.819112E+03	1.745343E-16	2.421297E-18
4.828926E+03	1.740704E-16	2.413651E-18
4.838741E+03	1.736621E-16	2.406779E-18
4.848556E+03	1.733135E-16	2.400737E-18
4.858371E+03	1.730225E-16	2.395498E-18
4.868186E+03	1.727955E-16	2.391144E-18
4.878001E+03	1.726340E-16	2.387699E-18
4.887816E+03	1.725384E-16	2.385166E-18
4.897631E+03	1.725145E-16	2.383620E-18
4.907446E+03	1.725603E-16	2.383037E-18
4.917260E+03	1.726817E-16	2.383494E-18
4.927075E+03	1.728787E-16	2.384991E-18
4.936890E+03	1.731533E-16	2.387552E-18
4.946705E+03	1.735090E-16	2.391225E-18
4.956520E+03	1.739459E-16	2.396009E-18
4.966335E+03	1.744674E-16	2.401948E-18
4.976150E+03	1.750750E-16	2.409063E-18
4.985965E+03	1.757681E-16	2.417343E-18
4.995780E+03	1.765496E-16	2.426826E-18
5.005594E+03	1.774205E-16	2.437523E-18
5.015409E+03	1.783814E-16	2.449441E-18
5.025224E+03	1.794324E-16	2.462579E-18
5.035039E+03	1.805735E-16	2.476936E-18
5.044854E+03	1.818043E-16	2.492502E-18
5.054669E+03	1.831238E-16	2.509265E-18
5.064484E+03	1.845309E-16	2.527205E-18
5.074299E+03	1.860237E-16	2.546295E-18
5.084114E+03	1.876001E-16	2.566504E-18
5.093929E+03	1.892573E-16	2.587792E-18
5.103743E+03	1.909922E-16	2.610115E-18
5.113558E+03	1.928011E-16	2.633420E-18
5.123373E+03	1.946797E-16	2.657647E-18
5.133188E+03	1.966234E-16	2.682732E-18
5.143003E+03	1.986289E-16	2.708629E-18
5.152818E+03	2.006864E-16	2.735202E-18
5.162633E+03	2.027918E-16	2.762392E-18
5.172448E+03	2.049383E-16	2.790110E-18
5.182263E+03	2.071188E-16	2.818255E-18
5.192077E+03	2.093238E-16	2.846697E-18
5.201892E+03	2.115495E-16	2.875384E-18
5.211707E+03	2.137834E-16	2.904147E-18
5.221522E+03	2.160190E-16	2.932897E-18
5.231337E+03	2.182455E-16	2.961485E-18
5.241152E+03	2.204558E-16	2.989819E-18
5.250967E+03	2.226412E-16	3.017777E-18
5.260782E+03	2.247898E-16	3.045201E-18
5.270597E+03	2.268949E-16	3.072001E-18
5.280411E+03	2.289449E-16	3.098020E-18
5.290226E+03	2.309307E-16	3.123137E-18
5.300041E+03	2.328459E-16	3.147266E-18
5.309856E+03	2.346795E-16	3.170261E-18
5.319671E+03	2.364209E-16	3.191980E-18
5.329486E+03	2.380673E-16	3.212387E-18
5.339301E+03	2.396089E-16	3.231353E-18
5.349116E+03	2.410368E-16	3.248760E-18
5.358931E+03	2.423499E-16	3.264595E-18
5.368745E+03	2.435382E-16	3.278728E-18
5.378560E+03	2.445975E-16	3.291104E-18
5.388375E+03	2.455268E-16	3.301711E-18
5.398190E+03	2.463234E-16	3.310520E-18
5.408005E+03	2.469837E-16	3.317482E-18
5.417820E+03	2.475069E-16	3.322591E-18
5.427635E+03	2.478962E-16	3.325892E-18
5.437450E+03	2.481480E-16	3.327343E-18
5.447265E+03	2.482726E-16	3.327081E-18
5.457079E+03	2.482683E-16	3.325089E-18
5.466894E+03	2.481422E-16	3.321466E-18
5.476709E+03	2.478971E-16	3.316250E-18
5.486524E+03	2.475442E-16	3.309594E-18
5.496339E+03	2.470853E-16	3.301527E-18
5.506154E+03	2.465305E-16	3.292183E-18
5.515969E+03	2.458901E-16	3.281706E-18
5.525784E+03	2.451679E-16	3.270145E-18
5.535599E+03	2.443775E-16	3.257683E-18
5.545414E+03	2.435228E-16	3.244378E-18
5.555228E+03	2.426179E-16	3.230416E-18
5.565043E+03	2.416670E-16	3.215855E-18
5.574858E+03	2.406837E-16	3.200878E-18
5.584673E+03	2.396722E-16	3.185541E-18
5.594488E+03	2.386432E-16	3.169985E-18
5.604303E+03	2.376047E-16	3.154321E-18
5.614118E+03	2.365644E-16	3.138647E-18
5.623933E+03	2.355271E-16	3.123030E-18
5.633748E+03	2.345015E-16	3.107585E-18
5.643562E+03	2.334917E-16	3.092363E-18
5.653377E+03	2.325049E-16	3.077464E-18
5.663192E+03	2.315416E-16	3.062891E-18
5.673007E+03	2.306104E-16	3.048758E-18
5.682822E+03	2.297127E-16	3.035083E-18
5.692637E+03	2.288511E-16	3.021900E-18
5.702452E+03	2.280283E-16	3.009242E-18
5.712267E+03	2.272435E-16	2.997101E-18
5.722082E+03	2.265004E-16	2.985522E-18
5.731896E+03	2.257974E-16	2.974486E-18
5.741711E+03	2.251349E-16	2.963995E-18
5.751526E+03	2.245151E-16	2.954077E-18
5.761341E+03	2.239331E-16	2.944669E-18
5.771156E+03	2.233904E-16	2.935788E-18
5.780971E+03	2.228859E-16	2.927419E-18
5.790786E+03	2.224163E-16	2.919520E-18
5.800601E+03	2.219804E-16	2.912071E-18
5.810416E+03	2.215785E-16	2.905079E-18
5.820230E+03	2.212050E-16	2.898467E-18
5.830045E+03	2.208624E-16	2.892270E-18
5.839860E+03	2.205427E-16	2.886382E-18
5.849675E+03	2.202507E-16	2.880862E-18
5.859490E+03	2.199782E-16	2.875607E-18
5.869305E+03	2.197279E-16	2.870650E-18
5.879120E+03	2.194963E-16	2.865945E-18
5.888935E+03	2.192818E-16	2.861471E-18
5.898750E+03	2.190809E-16	2.857183E-18
5.908564E+03	2.188946E-16	2.853092E-18
5.918379E+03	2.187215E-16	2.849182E-18
5.928194E+03	2.185586E-16	2.845412E-18
5.938009E+03	2.184027E-16	2.841741E-18
5.947824E+03	2.182572E-16	2.838213E-18
5.957639E+03	2.181170E-16	2.834761E-18
5.967454E+03	2.179835E-16	2.831406E-18
5.977269E+03	2.178541E-16	2.828111E-18
5.987084E+03	2.177281E-16	2.824870E-18
5.996898E+03	2.176052E-16	2.821678E-18
6.006713E+03	2.174830E-16	2.818503E-18
6.016528E+03	2.173612E-16	2.815342E-18
6.026343E+03	2.172394E-16	2.812192E-18
6.036158E+03	2.171178E-16	2.809053E-18
6.045973E+03	2.169942E-16	2.805897E-18
6.055788E+03	2.168726E-16	2.802778E-18
6.065603E+03	2.167534E-16	2.799699E-18
6.075418E+03	2.166364E-16	2.796660E-18
6.085233E+03	2.165177E-16	2.793610E-18
6.095047E+03	2.164015E-16	2.790603E-18
6.104862E+03	2.162859E-16	2.787615E-18
6.114677E+03	2.161711E-16	2.784648E-18
6.124492E+03	2.160591E-16	2.781729E-18
6.134307E+03	2.159477E-16	2.778831E-18
6.144122E+03	2.158410E-16	2.776005E-18
6.153937E+03	2.157366E-16	2.773219E-18
6.163752E+03	2.156361E-16	2.770498E-18
6.173567E+03	2.155410E-16	2.767858E-18
6.183381E+03	2.154504E-16	2.765289E-18
6.193196E+03	2.153632E-16	2.762777E-18
6.203011E+03	2.152781E-16	2.760306E-18
6.212826E+03	2.151978E-16	2.757909E-18
6.222641E+03	2.151162E-16	2.755510E-18
6.232456E+03	2.150354E-16	2.753136E-18
6.242271E+03	2.149533E-16	2.750759E-18
6.252086E+03	2.148651E-16	2.748319E-18
6.261901E+03	2.147746E-16	2.745865E-18
6.271715E+03	2.146747E-16	2.743306E-18
6.281530E+03	2.145645E-16	2.740632E-18
6.291345E+03	2.144433E-16	2.737834E-18
6.301160E+03	2.143081E-16	2.734873E-18
6.310975E+03	2.141558E-16	2.731712E-18
6.320790E+03	2.139857E-16	2.728342E-18
6.330605E+03	2.137975E-16	2.724758E-18
6.340420E+03	2.135907E-16	2.720957E-18
6.350235E+03	2.133630E-16	2.716908E-18
6.360049E+03	2.131146E-16	2.712617E-18
6.369864E+03	2.128484E-16	2.708118E-18
6.379679E+03	2.125606E-16	2.703364E-18
6.389494E+03	2.122545E-16	2.698400E-18
6.399309E+03	2.119226E-16	2.693129E-18
6.409124E+03	2.115642E-16	2.687542E-18
6.418939E+03	2.111813E-16	2.681666E-18
6.428754E+03	2.107668E-16	2.675411E-18
6.438569E+03	2.103253E-16	2.668833E-18
6.448383E+03	2.098546E-16	2.661907E-18
6.458198E+03	2.093529E-16	2.654609E-18
6.468013E+03	2.088252E-16	2.647004E-18
6.477828E+03	2.082700E-16	2.639070E-18
6.487643E+03	2.076880E-16	2.630819E-18
6.497458E+03	2.070805E-16	2.622265E-18
6.507273E+03	2.064485E-16	2.613422E-18
6.517088E+03	2.057953E-16	2.604333E-18
6.526903E+03	2.051205E-16	2.594990E-18
6.536718E+03	2.044254E-16	2.585412E-18
6.546532E+03	2.037143E-16	2.575651E-18
6.556347E+03	2.029891E-16	2.565733E-18
6.566162E+03	2.022500E-16	2.555658E-18
6.575977E+03	2.015037E-16	2.545514E-18
6.585792E+03	2.007483E-16	2.535274E-18
6.595607E+03	1.999891E-16	2.525004E-18
6.605422E+03	1.992285E-16	2.514737E-18
6.615237E+03	1.984698E-16	2.504512E-18
6.625052E+03	1.977156E-16	2.494363E-18
6.634866E+03	1.969715E-16	2.484359E-18
6.644681E+03	1.962380E-16	2.474507E-18
6.654496E+03	1.955203E-16	2.464871E-18
6.664311E+03	1.948190E-16	2.455459E-18
6.674126E+03	1.941369E-16	2.446306E-18
6.683941E+03	1.934808E-16	2.437498E-18
6.693756E+03	1.928490E-16	2.429010E-18
6.703571E+03	1.922436E-16	2.420872E-18
6.713386E+03	1.916712E-16	2.413165E-18
6.723200E+03	1.911294E-16	2.405857E-18
6.733015E+03	1.906220E-16	2.398997E-18
6.742830E+03	1.901507E-16	2.392605E-18
6.752645E+03	1.897167E-16	2.386697E-18
6.762460E+03	1.893212E-16	2.381287E-18
6.772275E+03	1.889653E-16	2.376387E-18
6.782090E+03	1.886475E-16	2.371980E-18
6.791905E+03	1.883729E-16	2.368128E-18
6.801720E+03	1.881376E-16	2.364783E-18
6.811534E+03	1.879464E-16	2.362004E-18
6.821349E+03	1.877951E-16	2.359737E-18
6.831164E+03	1.876882E-16	2.358040E-18
6.840979E+03	1.876212E-16	2.356856E-18
6.850794E+03	1.875964E-16	2.356213E-18
6.860609E+03	1.876136E-16	2.356107E-18
6.870424E+03	1.876723E-16	2.356535E-18
6.880239E+03	1.877702E-16	2.357464E-18
6.890054E+03	1.879112E-16	2.358945E-18
6.899868E+03	1.880904E-16	2.360915E-18
6.909683E+03	1.883072E-16	2.363367E-18
6.919498E+03	1.885653E-16	2.366348E-18
6.929313E+03	1.888573E-16	2.369763E-18
6.939128E+03	1.891890E-16	2.373686E-18
6.948943E+03	1.895525E-16	2.378018E-18
6.958758E+03	1.899513E-16	2.382803E-18
6.968573E+03	1.903841E-16	2.388023E-18
6.978388E+03	1.908447E-16	2.393602E-18
6.988203E+03	1.913360E-16	2.399575E-18
6.998017E+03	1.918539E-16	2.405892E-18
7.007832E+03	1.923964E-16	2.412526E-18
7.017647E+03	1.929586E-16	2.419418E-18
7.027462E+03	1.935430E-16	2.426597E-18
7.037277E+03	1.941421E-16	2.433970E-18
7.047092E+03	1.947576E-16	2.441560E-18
7.056907E+03	1.953795E-16	2.449238E-18
7.066722E+03	1.960115E-16	2.457055E-18
7.076537E+03	1.966457E-16	2.464909E-18
7.086351E+03	1.972784E-16	2.472754E-18
7.096166E+03	1.979084E-16	2.480577E-18
7.105981E+03	1.985299E-16	2.488303E-18
7.115796E+03	1.991390E-16	2.495884E-18
7.125611E+03	1.997347E-16	2.503310E-18
7.135426E+03	2.003087E-16	2.510473E-18
7.145241E+03	2.008624E-16	2.517394E-18
7.155056E+03	2.013904E-16	2.524004E-18
7.164871E+03	2.018872E-16	2.530234E-18
7.174685E+03	2.023552E-16	2.536116E-18
7.184500E+03	2.027871E-16	2.541557E-18
7.194315E+03	2.031837E-16	2.546568E-18
7.204130E+03	2.035434E-16	2.551128E-18
7.213945E+03	2.038654E-16	2.555228E-18
7.223760E+03	2.041491E-16	2.558861E-18
7.233575E+03	2.043920E-16	2.561996E-18
7.243390E+03	2.045973E-16	2.564671E-18
7.253205E+03	2.047661E-16	2.566901E-18
7.263019E+03	2.048998E-16	2.568705E-18
7.272834E+03	2.050008E-16	2.570111E-18
7.282649E+03	2.050689E-16	2.571118E-18
7.292464E+03	2.051124E-16	2.571829E-18
7.302279E+03	2.051348E-16	2.572290E-18
7.312094E+03	2.051372E-16	2.572512E-18
7.321909E+03	2.051262E-16	2.572581E-18
7.331724E+03	2.051011E-16	2.572485E-18
7.341539E+03	2.050687E-16	2.572312E-18
7.351353E+03	2.050336E-16	2.572119E-18
7.361168E+03	2.049976E-16	2.571929E-18
7.370983E+03	2.049679E-16	2.571831E-18
7.380798E+03	2.049459E-16	2.571844E-18
7.390613E+03	2.049383E-16	2.572052E-18
7.400428E+03	2.049460E-16	2.572467E-18
7.410243E+03	2.049724E-16	2.573131E-18
7.420058E+03	2.050200E-16	2.574078E-18
7.429873E+03	2.050912E-16	2.575334E-18
7.439687E+03	2.051901E-16	2.576955E-18
7.449502E+03	2.053125E-16	2.578887E-18
7.459317E+03	2.054640E-16	2.581200E-18
7.469132E+03	2.056414E-16	2.583856E-18
7.478947E+03	2.058437E-16	2.586841E-18
7.488762E+03	2.060690E-16	2.590131E-18
7.498577E+03	2.063172E-16	2.593728E-18
7.508392E+03	2.065799E-16	2.597525E-18
7.518207E+03	2.068557E-16	2.601504E-18
7.528022E+03	2.071426E-16	2.605642E-18
7.537836E+03	2.074328E-16	2.609840E-18
7.547651E+03	2.077178E-16	2.613991E-18
7.557466E+03	2.079968E-16	2.618087E-18
7.567281E+03	2.082632E-16	2.622044E-18
7.577096E+03	2.085046E-16	2.625705E-18
7.586911E+03	2.087193E-16	2.629050E-18
7.596726E+03	2.088945E-16	2.631918E-18
7.606541E+03	2.090283E-16	2.634284E-18
7.616356E+03	2.091135E-16	2.636058E-18
