#wls	flux	fluxerr
1.570383E+03	1.768701E-17	3.654727E-19
1.609642E+03	1.808849E-17	3.735670E-19
1.648902E+03	1.844870E-17	3.807953E-19
1.688161E+03	1.875622E-17	3.869228E-19
1.727421E+03	1.900434E-17	3.918128E-19
1.766680E+03	1.918526E-17	3.953061E-19
1.805940E+03	1.927792E-17	3.969714E-19
1.845200E+03	1.925389E-17	3.962270E-19
1.884459E+03	1.908826E-17	3.925649E-19
1.923719E+03	1.877151E-17	3.857950E-19
1.962978E+03	1.830673E-17	3.759873E-19
2.002238E+03	1.775043E-17	3.643082E-19
2.041497E+03	1.721503E-17	3.530677E-19
2.080757E+03	1.687322E-17	3.458042E-19
2.120016E+03	1.688011E-17	3.456862E-19
2.159276E+03	1.733155E-17	3.546586E-19
2.198536E+03	1.821355E-17	3.724139E-19
2.237795E+03	1.943173E-17	3.970021E-19
2.277055E+03	2.085810E-17	4.257922E-19
2.316314E+03	2.238536E-17	4.565830E-19
2.355574E+03	2.394027E-17	4.878754E-19
2.394833E+03	2.547902E-17	5.187736E-19
2.434093E+03	2.697243E-17	5.486831E-19
2.473353E+03	2.842895E-17	5.777760E-19
2.512612E+03	2.984640E-17	6.060081E-19
2.551872E+03	3.123541E-17	6.335956E-19
2.591131E+03	3.259700E-17	6.605585E-19
2.630391E+03	3.394750E-17	6.872276E-19
2.669650E+03	3.528613E-17	7.135858E-19
2.708910E+03	3.662743E-17	7.399255E-19
2.748170E+03	3.797363E-17	7.662895E-19
2.787429E+03	3.933140E-17	7.928103E-19
2.826689E+03	4.070641E-17	8.195989E-19
2.865948E+03	4.210929E-17	8.468662E-19
2.905208E+03	4.354376E-17	8.746828E-19
2.944467E+03	4.501857E-17	9.032199E-19
2.954282E+03	4.539921E-17	9.105790E-19
2.964097E+03	4.578201E-17	9.179757E-19
2.973912E+03	4.616075E-17	9.252848E-19
2.983727E+03	4.654813E-17	9.327610E-19
2.993542E+03	4.694589E-17	9.404390E-19
3.003357E+03	4.734970E-17	9.482317E-19
3.013172E+03	4.775887E-17	9.561254E-19
3.022986E+03	4.817895E-17	9.642309E-19
3.032801E+03	4.860375E-17	9.724238E-19
3.042616E+03	4.903749E-17	9.807890E-19
3.052431E+03	4.947608E-17	9.892440E-19
3.062246E+03	4.992497E-17	9.978979E-19
3.072061E+03	5.038349E-17	1.006737E-18
3.081876E+03	5.084480E-17	1.015624E-18
3.091691E+03	5.132069E-17	1.024795E-18
3.101506E+03	5.179817E-17	1.033990E-18
3.111320E+03	5.228289E-17	1.043321E-18
3.121135E+03	5.278054E-17	1.052903E-18
3.130950E+03	5.327819E-17	1.062476E-18
3.140765E+03	5.378778E-17	1.072280E-18
3.150580E+03	5.430263E-17	1.082179E-18
3.160395E+03	5.482229E-17	1.092166E-18
3.170210E+03	5.535252E-17	1.102355E-18
3.180025E+03	5.588669E-17	1.112613E-18
3.189840E+03	5.643058E-17	1.123056E-18
3.199655E+03	5.697758E-17	1.133552E-18
3.209469E+03	5.753346E-17	1.144215E-18
3.219284E+03	5.809782E-17	1.155037E-18
3.229099E+03	5.867024E-17	1.166010E-18
3.238914E+03	5.925033E-17	1.177125E-18
3.248729E+03	5.983766E-17	1.188375E-18
3.258544E+03	6.043182E-17	1.199750E-18
3.268359E+03	6.103854E-17	1.211364E-18
3.278174E+03	6.165126E-17	1.223087E-18
3.287989E+03	6.226955E-17	1.234909E-18
3.297803E+03	6.289910E-17	1.246945E-18
3.307618E+03	6.353950E-17	1.259184E-18
3.317433E+03	6.419018E-17	1.271616E-18
3.327248E+03	6.484475E-17	1.284114E-18
3.337063E+03	6.551476E-17	1.296905E-18
3.346878E+03	6.619370E-17	1.309862E-18
3.356693E+03	6.688712E-17	1.323094E-18
3.366508E+03	6.758258E-17	1.336353E-18
3.376323E+03	6.829738E-17	1.349983E-18
3.386137E+03	6.901925E-17	1.363740E-18
3.395952E+03	6.975352E-17	1.377729E-18
3.405767E+03	7.049968E-17	1.391939E-18
3.415582E+03	7.125731E-17	1.406363E-18
3.425397E+03	7.202577E-17	1.420987E-18
3.435212E+03	7.281037E-17	1.435915E-18
3.445027E+03	7.361065E-17	1.451139E-18
3.454842E+03	7.442020E-17	1.466531E-18
3.464657E+03	7.524426E-17	1.482194E-18
3.474471E+03	7.608239E-17	1.498120E-18
3.484286E+03	7.693393E-17	1.514294E-18
3.494101E+03	7.780407E-17	1.530819E-18
3.503916E+03	7.868665E-17	1.547573E-18
3.513731E+03	7.958116E-17	1.564546E-18
3.523546E+03	8.049815E-17	1.581944E-18
3.533361E+03	8.142603E-17	1.599539E-18
3.543176E+03	8.237530E-17	1.617537E-18
3.552991E+03	8.333988E-17	1.635818E-18
3.562805E+03	8.431930E-17	1.654373E-18
3.572620E+03	8.531844E-17	1.673297E-18
3.582435E+03	8.633667E-17	1.692577E-18
3.592250E+03	8.737334E-17	1.712199E-18
3.602065E+03	8.842800E-17	1.732155E-18
3.611880E+03	8.950005E-17	1.752431E-18
3.621695E+03	9.059403E-17	1.773117E-18
3.631510E+03	9.170922E-17	1.794198E-18
3.641325E+03	9.283992E-17	1.815561E-18
3.651140E+03	9.399553E-17	1.837390E-18
3.660954E+03	9.516515E-17	1.859471E-18
3.670769E+03	9.635818E-17	1.881988E-18
3.680584E+03	9.757365E-17	1.904920E-18
3.690399E+03	9.880577E-17	1.928155E-18
3.700214E+03	1.000584E-16	1.951767E-18
3.710029E+03	1.013307E-16	1.975738E-18
3.719844E+03	1.026263E-16	2.000140E-18
3.729659E+03	1.039346E-16	2.024763E-18
3.739474E+03	1.052638E-16	2.049771E-18
3.749288E+03	1.066128E-16	2.075137E-18
3.759103E+03	1.079801E-16	2.100835E-18
3.768918E+03	1.093599E-16	2.126748E-18
3.778733E+03	1.107597E-16	2.153026E-18
3.788548E+03	1.121738E-16	2.179553E-18
3.798363E+03	1.136004E-16	2.206296E-18
3.808178E+03	1.150381E-16	2.233228E-18
3.817993E+03	1.164897E-16	2.260402E-18
3.827808E+03	1.179537E-16	2.287787E-18
3.837622E+03	1.194240E-16	2.315267E-18
3.847437E+03	1.209078E-16	2.342978E-18
3.857252E+03	1.223946E-16	2.370720E-18
3.867067E+03	1.238874E-16	2.398549E-18
3.876882E+03	1.253845E-16	2.426434E-18
3.886697E+03	1.268889E-16	2.454427E-18
3.896512E+03	1.283905E-16	2.482338E-18
3.906327E+03	1.298923E-16	2.510225E-18
3.916142E+03	1.313974E-16	2.538144E-18
3.925956E+03	1.328963E-16	2.565914E-18
3.935771E+03	1.343963E-16	2.593675E-18
3.945586E+03	1.358925E-16	2.621333E-18
3.955401E+03	1.373803E-16	2.648799E-18
3.965216E+03	1.388632E-16	2.676140E-18
3.975031E+03	1.403408E-16	2.703350E-18
3.984846E+03	1.418130E-16	2.730426E-18
3.994661E+03	1.432759E-16	2.757294E-18
4.004476E+03	1.447298E-16	2.783959E-18
4.014290E+03	1.461751E-16	2.810429E-18
4.024105E+03	1.476088E-16	2.836645E-18
4.033920E+03	1.490352E-16	2.862692E-18
4.043735E+03	1.504551E-16	2.888587E-18
4.053550E+03	1.518589E-16	2.914141E-18
4.063365E+03	1.532584E-16	2.939587E-18
4.073180E+03	1.546445E-16	2.964744E-18
4.082995E+03	1.560219E-16	2.989708E-18
4.092810E+03	1.573888E-16	3.014441E-18
4.102625E+03	1.587434E-16	3.038910E-18
4.112439E+03	1.600872E-16	3.063144E-18
4.122254E+03	1.614186E-16	3.087113E-18
4.132069E+03	1.627392E-16	3.110848E-18
4.141884E+03	1.640473E-16	3.134316E-18
4.151699E+03	1.653411E-16	3.157484E-18
4.161514E+03	1.666221E-16	3.180380E-18
4.171329E+03	1.678852E-16	3.202907E-18
4.181144E+03	1.691284E-16	3.225028E-18
4.190959E+03	1.703559E-16	3.246824E-18
4.200773E+03	1.715590E-16	3.268129E-18
4.210588E+03	1.727385E-16	3.288960E-18
4.220403E+03	1.738919E-16	3.309267E-18
4.230218E+03	1.750131E-16	3.328939E-18
4.240033E+03	1.761055E-16	3.348038E-18
4.249848E+03	1.771603E-16	3.366398E-18
4.259663E+03	1.781745E-16	3.383966E-18
4.269478E+03	1.791514E-16	3.400804E-18
4.279293E+03	1.800800E-16	3.416703E-18
4.289107E+03	1.809641E-16	3.431737E-18
4.298922E+03	1.818020E-16	3.445877E-18
4.308737E+03	1.825897E-16	3.459048E-18
4.318552E+03	1.833290E-16	3.471285E-18
4.328367E+03	1.840165E-16	3.482524E-18
4.338182E+03	1.846514E-16	3.492752E-18
4.347997E+03	1.852328E-16	3.501955E-18
4.357812E+03	1.857600E-16	3.510119E-18
4.367627E+03	1.862346E-16	3.517276E-18
4.377441E+03	1.866552E-16	3.523403E-18
4.387256E+03	1.870203E-16	3.528472E-18
4.397071E+03	1.873336E-16	3.532551E-18
4.406886E+03	1.875928E-16	3.535605E-18
4.416701E+03	1.878011E-16	3.537690E-18
4.426516E+03	1.879535E-16	3.538714E-18
4.436331E+03	1.880550E-16	3.538776E-18
4.446146E+03	1.881007E-16	3.537782E-18
4.455961E+03	1.880928E-16	3.535777E-18
4.465775E+03	1.880311E-16	3.532757E-18
4.475590E+03	1.879154E-16	3.528721E-18
4.485405E+03	1.877480E-16	3.523713E-18
4.495220E+03	1.875286E-16	3.517729E-18
4.505035E+03	1.872596E-16	3.510817E-18
4.514850E+03	1.869386E-16	3.502930E-18
4.524665E+03	1.865706E-16	3.494166E-18
4.534480E+03	1.861559E-16	3.484531E-18
4.544295E+03	1.856973E-16	3.474080E-18
4.554109E+03	1.851955E-16	3.462826E-18
4.563924E+03	1.846560E-16	3.450872E-18
4.573739E+03	1.840775E-16	3.438198E-18
4.583554E+03	1.834681E-16	3.424955E-18
4.593369E+03	1.828293E-16	3.411170E-18
4.603184E+03	1.821648E-16	3.396915E-18
4.612999E+03	1.814787E-16	3.382266E-18
4.622814E+03	1.807749E-16	3.367299E-18
4.632629E+03	1.800577E-16	3.352091E-18
4.642444E+03	1.793315E-16	3.336726E-18
4.652258E+03	1.786027E-16	3.321322E-18
4.662073E+03	1.778755E-16	3.305961E-18
4.671888E+03	1.771546E-16	3.290726E-18
4.681703E+03	1.764443E-16	3.275697E-18
4.691518E+03	1.757489E-16	3.260956E-18
4.701333E+03	1.750667E-16	3.246470E-18
4.711148E+03	1.744043E-16	3.232359E-18
4.720963E+03	1.737598E-16	3.218590E-18
4.730778E+03	1.731357E-16	3.205207E-18
4.740592E+03	1.725364E-16	3.192292E-18
4.750407E+03	1.719603E-16	3.179813E-18
4.760222E+03	1.714137E-16	3.167888E-18
4.770037E+03	1.708930E-16	3.156446E-18
4.779852E+03	1.704062E-16	3.145639E-18
4.789667E+03	1.699517E-16	3.135432E-18
4.799482E+03	1.695335E-16	3.125898E-18
4.809297E+03	1.691516E-16	3.117039E-18
4.819112E+03	1.688100E-16	3.108925E-18
4.828926E+03	1.685086E-16	3.101552E-18
4.838741E+03	1.682529E-16	3.095023E-18
4.848556E+03	1.680409E-16	3.089297E-18
4.858371E+03	1.678760E-16	3.084437E-18
4.868186E+03	1.677580E-16	3.080436E-18
4.878001E+03	1.676919E-16	3.077387E-18
4.887816E+03	1.676773E-16	3.075278E-18
4.897631E+03	1.677135E-16	3.074095E-18
4.907446E+03	1.678054E-16	3.073926E-18
4.917260E+03	1.679521E-16	3.074756E-18
4.927075E+03	1.681566E-16	3.076631E-18
4.936890E+03	1.684157E-16	3.079499E-18
4.946705E+03	1.687341E-16	3.083438E-18
4.956520E+03	1.691104E-16	3.088422E-18
4.966335E+03	1.695468E-16	3.094489E-18
4.976150E+03	1.700418E-16	3.101612E-18
4.985965E+03	1.705975E-16	3.109824E-18
4.995780E+03	1.712138E-16	3.119122E-18
5.005594E+03	1.718886E-16	3.129467E-18
5.015409E+03	1.726215E-16	3.140849E-18
5.025224E+03	1.734139E-16	3.153290E-18
5.035039E+03	1.742650E-16	3.166775E-18
5.044854E+03	1.751738E-16	3.181284E-18
5.054669E+03	1.761373E-16	3.196760E-18
5.064484E+03	1.771560E-16	3.213208E-18
5.074299E+03	1.782281E-16	3.230595E-18
5.084114E+03	1.793498E-16	3.248854E-18
5.093929E+03	1.805230E-16	3.268011E-18
5.103743E+03	1.817413E-16	3.287952E-18
5.113558E+03	1.830021E-16	3.308629E-18
5.123373E+03	1.843066E-16	3.330059E-18
5.133188E+03	1.856475E-16	3.352112E-18
5.143003E+03	1.870235E-16	3.374762E-18
5.152818E+03	1.884291E-16	3.397908E-18
5.162633E+03	1.898624E-16	3.421515E-18
5.172448E+03	1.913194E-16	3.445510E-18
5.182263E+03	1.927960E-16	3.469816E-18
5.192077E+03	1.942855E-16	3.494317E-18
5.201892E+03	1.957835E-16	3.518929E-18
5.211707E+03	1.972872E-16	3.543602E-18
5.221522E+03	1.987898E-16	3.568213E-18
5.231337E+03	2.002883E-16	3.592711E-18
5.241152E+03	2.017756E-16	3.616967E-18
5.250967E+03	2.032467E-16	3.640892E-18
5.260782E+03	2.046986E-16	3.664433E-18
5.270597E+03	2.061221E-16	3.687426E-18
5.280411E+03	2.075164E-16	3.709856E-18
5.290226E+03	2.088746E-16	3.731604E-18
5.300041E+03	2.101897E-16	3.752544E-18
5.309856E+03	2.114616E-16	3.772678E-18
5.319671E+03	2.126816E-16	3.791849E-18
5.329486E+03	2.138479E-16	3.810029E-18
5.339301E+03	2.149565E-16	3.827150E-18
5.349116E+03	2.160042E-16	3.843155E-18
5.358931E+03	2.169857E-16	3.857952E-18
5.368745E+03	2.179026E-16	3.871574E-18
5.378560E+03	2.187483E-16	3.883905E-18
5.388375E+03	2.195231E-16	3.894952E-18
5.398190E+03	2.202233E-16	3.904653E-18
5.408005E+03	2.208501E-16	3.913033E-18
5.417820E+03	2.214007E-16	3.920044E-18
5.427635E+03	2.218773E-16	3.925729E-18
5.437450E+03	2.222779E-16	3.930054E-18
5.447265E+03	2.226056E-16	3.933078E-18
5.457079E+03	2.228637E-16	3.934862E-18
5.466894E+03	2.230495E-16	3.935359E-18
5.476709E+03	2.231671E-16	3.934647E-18
5.486524E+03	2.232190E-16	3.932770E-18
5.496339E+03	2.232099E-16	3.929816E-18
5.506154E+03	2.231385E-16	3.925764E-18
5.515969E+03	2.230124E-16	3.920750E-18
5.525784E+03	2.228307E-16	3.914760E-18
5.535599E+03	2.226016E-16	3.907939E-18
5.545414E+03	2.223245E-16	3.900279E-18
5.555228E+03	2.220077E-16	3.891929E-18
5.565043E+03	2.216530E-16	3.882922E-18
5.574858E+03	2.212624E-16	3.873294E-18
5.584673E+03	2.208423E-16	3.863157E-18
5.594488E+03	2.203986E-16	3.852619E-18
5.604303E+03	2.199314E-16	3.841678E-18
5.614118E+03	2.194465E-16	3.830442E-18
5.623933E+03	2.189457E-16	3.818937E-18
5.633748E+03	2.184368E-16	3.807306E-18
5.643562E+03	2.179193E-16	3.795537E-18
5.653377E+03	2.173963E-16	3.783685E-18
5.663192E+03	2.168733E-16	3.771846E-18
5.673007E+03	2.163530E-16	3.760069E-18
5.682822E+03	2.158341E-16	3.748328E-18
5.692637E+03	2.153231E-16	3.736740E-18
5.702452E+03	2.148204E-16	3.725308E-18
5.712267E+03	2.143280E-16	3.714070E-18
5.722082E+03	2.138477E-16	3.703055E-18
5.731896E+03	2.133792E-16	3.692256E-18
5.741711E+03	2.129258E-16	3.681734E-18
5.751526E+03	2.124867E-16	3.671472E-18
5.761341E+03	2.120651E-16	3.661525E-18
5.771156E+03	2.116596E-16	3.651871E-18
5.780971E+03	2.112691E-16	3.642488E-18
5.790786E+03	2.108961E-16	3.633417E-18
5.800601E+03	2.105408E-16	3.624665E-18
5.810416E+03	2.102016E-16	3.616203E-18
5.820230E+03	2.098785E-16	3.608030E-18
5.830045E+03	2.095737E-16	3.600183E-18
5.839860E+03	2.092809E-16	3.592554E-18
5.849675E+03	2.090061E-16	3.585246E-18
5.859490E+03	2.087430E-16	3.578150E-18
5.869305E+03	2.084954E-16	3.571331E-18
5.879120E+03	2.082588E-16	3.564712E-18
5.888935E+03	2.080349E-16	3.558322E-18
5.898750E+03	2.078214E-16	3.552121E-18
5.908564E+03	2.076176E-16	3.546098E-18
5.918379E+03	2.074233E-16	3.540246E-18
5.928194E+03	2.072358E-16	3.534524E-18
5.938009E+03	2.070566E-16	3.528955E-18
5.947824E+03	2.068834E-16	3.523499E-18
5.957639E+03	2.067136E-16	3.518113E-18
5.967454E+03	2.065486E-16	3.512820E-18
5.977269E+03	2.063880E-16	3.507615E-18
5.987084E+03	2.062292E-16	3.502453E-18
5.996898E+03	2.060716E-16	3.497325E-18
6.006713E+03	2.059150E-16	3.492226E-18
6.016528E+03	2.057587E-16	3.487145E-18
6.026343E+03	2.056022E-16	3.482074E-18
6.036158E+03	2.054429E-16	3.476971E-18
6.045973E+03	2.052824E-16	3.471861E-18
6.055788E+03	2.051182E-16	3.466704E-18
6.065603E+03	2.049477E-16	3.461453E-18
6.075418E+03	2.047703E-16	3.456103E-18
6.085233E+03	2.045874E-16	3.450677E-18
6.095047E+03	2.043985E-16	3.445164E-18
6.104862E+03	2.042047E-16	3.439587E-18
6.114677E+03	2.040056E-16	3.433937E-18
6.124492E+03	2.038003E-16	3.428202E-18
6.134307E+03	2.035901E-16	3.422401E-18
6.144122E+03	2.033742E-16	3.416525E-18
6.153937E+03	2.031498E-16	3.410523E-18
6.163752E+03	2.029219E-16	3.404483E-18
6.173567E+03	2.026836E-16	3.398289E-18
6.183381E+03	2.024398E-16	3.392023E-18
6.193196E+03	2.021877E-16	3.385638E-18
6.203011E+03	2.019279E-16	3.379147E-18
6.212826E+03	2.016573E-16	3.372497E-18
6.222641E+03	2.013807E-16	3.365769E-18
6.232456E+03	2.010929E-16	3.358878E-18
6.242271E+03	2.007967E-16	3.351868E-18
6.252086E+03	2.004906E-16	3.344718E-18
6.261901E+03	2.001734E-16	3.337408E-18
6.271715E+03	1.998477E-16	3.329981E-18
6.281530E+03	1.995102E-16	3.322384E-18
6.291345E+03	1.991636E-16	3.314659E-18
6.301160E+03	1.988085E-16	3.306821E-18
6.310975E+03	1.984437E-16	3.298849E-18
6.320790E+03	1.980678E-16	3.290720E-18
6.330605E+03	1.976859E-16	3.282518E-18
6.340420E+03	1.972945E-16	3.274188E-18
6.350235E+03	1.968968E-16	3.265781E-18
6.360049E+03	1.964895E-16	3.257246E-18
6.369864E+03	1.960759E-16	3.248634E-18
6.379679E+03	1.956528E-16	3.239897E-18
6.389494E+03	1.952217E-16	3.231056E-18
6.399309E+03	1.947775E-16	3.222032E-18
6.409124E+03	1.943239E-16	3.212881E-18
6.418939E+03	1.938585E-16	3.203565E-18
6.428754E+03	1.933788E-16	3.194044E-18
6.438569E+03	1.928827E-16	3.184282E-18
6.448383E+03	1.923726E-16	3.174318E-18
6.458198E+03	1.918467E-16	3.164123E-18
6.468013E+03	1.913057E-16	3.153710E-18
6.477828E+03	1.907484E-16	3.143057E-18
6.487643E+03	1.901760E-16	3.132184E-18
6.497458E+03	1.895898E-16	3.121114E-18
6.507273E+03	1.889912E-16	3.109869E-18
6.517088E+03	1.883818E-16	3.098475E-18
6.526903E+03	1.877632E-16	3.086958E-18
6.536718E+03	1.871372E-16	3.075348E-18
6.546532E+03	1.865055E-16	3.063673E-18
6.556347E+03	1.858679E-16	3.051928E-18
6.566162E+03	1.852283E-16	3.040178E-18
6.575977E+03	1.845906E-16	3.028486E-18
6.585792E+03	1.839545E-16	3.016847E-18
6.595607E+03	1.833199E-16	3.005259E-18
6.605422E+03	1.826926E-16	2.993818E-18
6.615237E+03	1.820746E-16	2.982553E-18
6.625052E+03	1.814655E-16	2.971459E-18
6.634866E+03	1.808670E-16	2.960564E-18
6.644681E+03	1.802829E-16	2.949929E-18
6.654496E+03	1.797128E-16	2.939546E-18
6.664311E+03	1.791623E-16	2.929508E-18
6.674126E+03	1.786290E-16	2.919772E-18
6.683941E+03	1.781162E-16	2.910393E-18
6.693756E+03	1.776274E-16	2.901429E-18
6.703571E+03	1.771597E-16	2.892831E-18
6.713386E+03	1.767165E-16	2.884653E-18
6.723200E+03	1.763008E-16	2.876945E-18
6.733015E+03	1.759116E-16	2.869690E-18
6.742830E+03	1.755499E-16	2.862901E-18
6.752645E+03	1.752165E-16	2.856592E-18
6.762460E+03	1.749142E-16	2.850809E-18
6.772275E+03	1.746415E-16	2.845525E-18
6.782090E+03	1.743990E-16	2.840751E-18
6.791905E+03	1.741891E-16	2.836526E-18
6.801720E+03	1.740101E-16	2.832820E-18
6.811534E+03	1.738644E-16	2.829671E-18
6.821349E+03	1.737500E-16	2.827048E-18
6.831164E+03	1.736669E-16	2.824949E-18
6.840979E+03	1.736171E-16	2.823408E-18
6.850794E+03	1.736006E-16	2.822421E-18
6.860609E+03	1.736129E-16	2.821918E-18
6.870424E+03	1.736599E-16	2.821992E-18
6.880239E+03	1.737350E-16	2.822536E-18
6.890054E+03	1.738417E-16	2.823608E-18
6.899868E+03	1.739796E-16	2.825199E-18
6.909683E+03	1.741437E-16	2.827228E-18
6.919498E+03	1.743375E-16	2.829752E-18
6.929313E+03	1.745579E-16	2.832721E-18
6.939128E+03	1.748061E-16	2.836153E-18
6.948943E+03	1.750790E-16	2.839998E-18
6.958758E+03	1.753754E-16	2.844237E-18
6.968573E+03	1.756942E-16	2.848850E-18
6.978388E+03	1.760339E-16	2.853814E-18
6.988203E+03	1.763933E-16	2.859111E-18
6.998017E+03	1.767731E-16	2.864749E-18
7.007832E+03	1.771673E-16	2.870633E-18
7.017647E+03	1.775789E-16	2.876810E-18
7.027462E+03	1.780017E-16	2.883182E-18
7.037277E+03	1.784363E-16	2.889756E-18
7.047092E+03	1.788831E-16	2.896540E-18
7.056907E+03	1.793359E-16	2.903434E-18
7.066722E+03	1.797953E-16	2.910445E-18
7.076537E+03	1.802593E-16	2.917546E-18
7.086351E+03	1.807262E-16	2.924705E-18
7.096166E+03	1.811919E-16	2.931857E-18
7.105981E+03	1.816593E-16	2.939051E-18
7.115796E+03	1.821220E-16	2.946181E-18
7.125611E+03	1.825806E-16	2.953259E-18
7.135426E+03	1.830314E-16	2.960224E-18
7.145241E+03	1.834774E-16	2.967124E-18
7.155056E+03	1.839125E-16	2.973864E-18
7.164871E+03	1.843379E-16	2.980460E-18
7.174685E+03	1.847523E-16	2.986894E-18
7.184500E+03	1.851525E-16	2.993111E-18
7.194315E+03	1.855421E-16	2.999175E-18
7.204130E+03	1.859136E-16	3.004959E-18
7.213945E+03	1.862732E-16	3.010568E-18
7.223760E+03	1.866185E-16	3.015961E-18
7.233575E+03	1.869466E-16	3.021092E-18
7.243390E+03	1.872600E-16	3.026002E-18
7.253205E+03	1.875562E-16	3.030652E-18
7.263019E+03	1.878381E-16	3.035086E-18
7.272834E+03	1.881059E-16	3.039311E-18
7.282649E+03	1.883554E-16	3.043256E-18
7.292464E+03	1.885921E-16	3.047012E-18
7.302279E+03	1.888116E-16	3.050510E-18
7.312094E+03	1.890175E-16	3.053805E-18
7.321909E+03	1.892105E-16	3.056911E-18
7.331724E+03	1.893941E-16	3.059882E-18
7.341539E+03	1.895666E-16	3.062696E-18
7.351353E+03	1.897292E-16	3.065366E-18
7.361168E+03	1.898851E-16	3.067949E-18
7.370983E+03	1.900329E-16	3.070420E-18
7.380798E+03	1.901731E-16	3.072788E-18
7.390613E+03	1.903091E-16	3.075110E-18
7.400428E+03	1.904388E-16	3.077350E-18
7.410243E+03	1.905652E-16	3.079557E-18
7.420058E+03	1.906836E-16	3.081655E-18
7.429873E+03	1.907989E-16	3.083725E-18
7.439687E+03	1.909085E-16	3.085725E-18
7.449502E+03	1.910120E-16	3.087648E-18
7.459317E+03	1.911088E-16	3.089486E-18
7.469132E+03	1.911981E-16	3.091224E-18
7.478947E+03	1.912789E-16	3.092847E-18
7.488762E+03	1.913473E-16	3.094293E-18
7.498577E+03	1.914068E-16	3.095618E-18
7.508392E+03	1.914531E-16	3.096754E-18
7.518207E+03	1.914819E-16	3.097630E-18
7.528022E+03	1.914934E-16	3.098249E-18
7.537836E+03	1.914853E-16	3.098577E-18
7.547651E+03	1.914552E-16	3.098573E-18
7.557466E+03	1.914003E-16	3.098192E-18
7.567281E+03	1.913156E-16	3.097353E-18
7.577096E+03	1.912006E-16	3.096048E-18
7.586911E+03	1.910526E-16	3.094235E-18
7.596726E+03	1.908687E-16	3.091865E-18
7.606541E+03	1.906462E-16	3.088894E-18
7.616356E+03	1.903796E-16	3.085233E-18
