#wls	flux	fluxerr
1.570383E+03	1.301464E-17	4.640794E-19
1.609642E+03	1.332712E-17	4.740341E-19
1.648902E+03	1.360490E-17	4.826715E-19
1.688161E+03	1.384724E-17	4.899727E-19
1.727421E+03	1.404648E-17	4.956750E-19
1.766680E+03	1.419665E-17	4.995790E-19
1.805940E+03	1.427922E-17	5.010474E-19
1.845200E+03	1.427842E-17	4.995474E-19
1.884459E+03	1.417272E-17	4.943532E-19
1.923719E+03	1.395456E-17	4.852355E-19
1.962978E+03	1.362328E-17	4.722090E-19
2.002238E+03	1.322330E-17	4.568479E-19
2.041497E+03	1.283827E-17	4.420584E-19
2.080757E+03	1.259471E-17	4.321796E-19
2.120016E+03	1.261621E-17	4.313880E-19
2.159276E+03	1.296582E-17	4.417352E-19
2.198536E+03	1.363878E-17	4.629340E-19
2.237795E+03	1.456538E-17	4.924983E-19
2.277055E+03	1.565335E-17	5.272133E-19
2.316314E+03	1.682025E-17	5.642393E-19
2.355574E+03	1.801455E-17	6.018130E-19
2.394833E+03	1.919744E-17	6.386201E-19
2.434093E+03	2.036074E-17	6.743836E-19
2.473353E+03	2.150482E-17	7.091137E-19
2.512612E+03	2.262871E-17	7.427753E-19
2.551872E+03	2.374090E-17	7.756448E-19
2.591131E+03	2.485084E-17	8.080238E-19
2.630391E+03	2.596789E-17	8.402055E-19
2.669650E+03	2.709668E-17	8.723246E-19
2.708910E+03	2.824926E-17	9.047506E-19
2.748170E+03	2.942852E-17	9.375525E-19
2.787429E+03	3.064943E-17	9.711795E-19
2.826689E+03	3.191325E-17	1.005639E-18
2.865948E+03	3.322916E-17	1.041183E-18
2.905208E+03	3.461019E-17	1.078178E-18
2.944467E+03	3.605497E-17	1.116533E-18
2.954282E+03	3.642758E-17	1.126373E-18
2.964097E+03	3.680743E-17	1.136395E-18
2.973912E+03	3.718986E-17	1.146454E-18
2.983727E+03	3.757985E-17	1.156702E-18
2.993542E+03	3.797883E-17	1.167183E-18
3.003357E+03	3.838366E-17	1.177797E-18
3.013172E+03	3.879847E-17	1.188672E-18
3.022986E+03	3.921813E-17	1.199647E-18
3.032801E+03	3.965198E-17	1.211008E-18
3.042616E+03	4.008913E-17	1.222420E-18
3.052431E+03	4.054069E-17	1.234220E-18
3.062246E+03	4.099670E-17	1.246104E-18
3.072061E+03	4.146604E-17	1.258341E-18
3.081876E+03	4.193880E-17	1.270626E-18
3.091691E+03	4.242392E-17	1.283232E-18
3.101506E+03	4.291624E-17	1.295998E-18
3.111320E+03	4.341531E-17	1.308911E-18
3.121135E+03	4.392073E-17	1.321958E-18
3.130950E+03	4.443683E-17	1.335266E-18
3.140765E+03	4.496323E-17	1.348824E-18
3.150580E+03	4.549481E-17	1.362475E-18
3.160395E+03	4.603598E-17	1.376350E-18
3.170210E+03	4.658160E-17	1.390295E-18
3.180025E+03	4.713610E-17	1.404440E-18
3.189840E+03	4.769913E-17	1.418774E-18
3.199655E+03	4.827036E-17	1.433285E-18
3.209469E+03	4.884949E-17	1.447962E-18
3.219284E+03	4.943616E-17	1.462794E-18
3.229099E+03	5.002999E-17	1.477767E-18
3.238914E+03	5.063551E-17	1.493014E-18
3.248729E+03	5.124282E-17	1.508242E-18
3.258544E+03	5.186581E-17	1.523858E-18
3.268359E+03	5.248996E-17	1.539433E-18
3.278174E+03	5.312911E-17	1.555372E-18
3.287989E+03	5.377341E-17	1.571385E-18
3.297803E+03	5.442728E-17	1.587599E-18
3.307618E+03	5.509032E-17	1.604001E-18
3.317433E+03	5.576216E-17	1.620578E-18
3.327248E+03	5.644241E-17	1.637318E-18
3.337063E+03	5.713537E-17	1.654344E-18
3.346878E+03	5.783590E-17	1.671504E-18
3.356693E+03	5.854356E-17	1.688784E-18
3.366508E+03	5.926259E-17	1.706305E-18
3.376323E+03	5.998793E-17	1.723919E-18
3.386137E+03	6.072835E-17	1.741877E-18
3.395952E+03	6.147411E-17	1.759897E-18
3.405767E+03	6.223391E-17	1.778226E-18
3.415582E+03	6.300273E-17	1.796719E-18
3.425397E+03	6.377993E-17	1.815356E-18
3.435212E+03	6.456960E-17	1.834251E-18
3.445027E+03	6.536665E-17	1.853258E-18
3.454842E+03	6.617505E-17	1.872487E-18
3.464657E+03	6.699426E-17	1.891921E-18
3.474471E+03	6.782364E-17	1.911540E-18
3.484286E+03	6.866276E-17	1.931331E-18
3.494101E+03	6.951542E-17	1.951396E-18
3.503916E+03	7.037665E-17	1.971596E-18
3.513731E+03	7.124585E-17	1.991911E-18
3.523546E+03	7.213139E-17	2.012574E-18
3.533361E+03	7.302393E-17	2.033321E-18
3.543176E+03	7.393172E-17	2.054380E-18
3.552991E+03	7.484990E-17	2.075614E-18
3.562805E+03	7.577804E-17	2.097009E-18
3.572620E+03	7.672010E-17	2.118671E-18
3.582435E+03	7.767135E-17	2.140469E-18
3.592250E+03	7.864000E-17	2.162626E-18
3.602065E+03	7.961723E-17	2.184897E-18
3.611880E+03	8.061127E-17	2.207506E-18
3.621695E+03	8.161754E-17	2.230324E-18
3.631510E+03	8.263587E-17	2.253344E-18
3.641325E+03	8.367435E-17	2.276786E-18
3.651140E+03	8.472440E-17	2.300410E-18
3.660954E+03	8.578985E-17	2.324321E-18
3.670769E+03	8.687044E-17	2.348507E-18
3.680584E+03	8.796981E-17	2.373064E-18
3.690399E+03	8.908347E-17	2.397867E-18
3.700214E+03	9.021477E-17	2.423005E-18
3.710029E+03	9.136298E-17	2.448454E-18
3.719844E+03	9.252324E-17	2.474081E-18
3.729659E+03	9.370235E-17	2.500066E-18
3.739474E+03	9.489499E-17	2.526264E-18
3.749288E+03	9.609968E-17	2.552632E-18
3.759103E+03	9.731841E-17	2.579222E-18
3.768918E+03	9.854902E-17	2.605973E-18
3.778733E+03	9.978528E-17	2.632720E-18
3.788548E+03	1.010283E-16	2.659492E-18
3.798363E+03	1.022752E-16	2.686209E-18
3.808178E+03	1.035225E-16	2.712783E-18
3.817993E+03	1.047669E-16	2.739124E-18
3.827808E+03	1.060082E-16	2.765230E-18
3.837622E+03	1.072352E-16	2.790808E-18
3.847437E+03	1.084510E-16	2.815944E-18
3.857252E+03	1.096515E-16	2.840532E-18
3.867067E+03	1.108287E-16	2.864372E-18
3.876882E+03	1.119786E-16	2.887359E-18
3.886697E+03	1.131005E-16	2.909485E-18
3.896512E+03	1.141903E-16	2.930650E-18
3.906327E+03	1.152376E-16	2.950590E-18
3.916142E+03	1.162490E-16	2.969485E-18
3.925956E+03	1.172114E-16	2.987008E-18
3.935771E+03	1.181287E-16	3.003267E-18
3.945586E+03	1.189987E-16	3.018214E-18
3.955401E+03	1.198132E-16	3.031651E-18
3.965216E+03	1.205744E-16	3.043645E-18
3.975031E+03	1.212849E-16	3.054270E-18
3.984846E+03	1.219385E-16	3.063379E-18
3.994661E+03	1.225360E-16	3.071005E-18
4.004476E+03	1.230818E-16	3.077269E-18
4.014290E+03	1.235747E-16	3.082152E-18
4.024105E+03	1.240175E-16	3.085730E-18
4.033920E+03	1.244104E-16	3.088019E-18
4.043735E+03	1.247598E-16	3.089191E-18
4.053550E+03	1.250646E-16	3.089220E-18
4.063365E+03	1.253349E-16	3.088370E-18
4.073180E+03	1.255676E-16	3.086568E-18
4.082995E+03	1.257710E-16	3.084026E-18
4.092810E+03	1.259509E-16	3.080893E-18
4.102625E+03	1.261083E-16	3.077196E-18
4.112439E+03	1.262521E-16	3.073160E-18
4.122254E+03	1.263865E-16	3.068885E-18
4.132069E+03	1.265156E-16	3.064477E-18
4.141884E+03	1.266464E-16	3.060104E-18
4.151699E+03	1.267857E-16	3.055932E-18
4.161514E+03	1.269359E-16	3.052017E-18
4.171329E+03	1.271039E-16	3.048522E-18
4.181144E+03	1.272945E-16	3.045562E-18
4.190959E+03	1.275146E-16	3.043296E-18
4.200773E+03	1.277666E-16	3.041780E-18
4.210588E+03	1.280597E-16	3.041225E-18
4.220403E+03	1.283940E-16	3.041627E-18
4.230218E+03	1.287805E-16	3.043240E-18
4.240033E+03	1.292172E-16	3.046008E-18
4.249848E+03	1.297125E-16	3.050123E-18
4.259663E+03	1.302686E-16	3.055622E-18
4.269478E+03	1.308914E-16	3.062639E-18
4.279293E+03	1.315806E-16	3.071154E-18
4.289107E+03	1.323405E-16	3.081258E-18
4.298922E+03	1.331681E-16	3.092867E-18
4.308737E+03	1.340611E-16	3.105921E-18
4.318552E+03	1.350131E-16	3.120259E-18
4.328367E+03	1.360209E-16	3.135800E-18
4.338182E+03	1.370769E-16	3.152356E-18
4.347997E+03	1.381726E-16	3.169729E-18
4.357812E+03	1.393010E-16	3.187750E-18
4.367627E+03	1.404522E-16	3.206185E-18
4.377441E+03	1.416194E-16	3.224879E-18
4.387256E+03	1.428009E-16	3.243786E-18
4.397071E+03	1.439920E-16	3.262803E-18
4.406886E+03	1.451855E-16	3.281762E-18
4.416701E+03	1.463811E-16	3.300657E-18
4.426516E+03	1.475663E-16	3.319205E-18
4.436331E+03	1.487359E-16	3.337291E-18
4.446146E+03	1.498820E-16	3.354743E-18
4.455961E+03	1.509968E-16	3.371389E-18
4.465775E+03	1.520702E-16	3.387009E-18
4.475590E+03	1.530941E-16	3.401430E-18
4.485405E+03	1.540585E-16	3.414441E-18
4.495220E+03	1.549561E-16	3.425885E-18
4.505035E+03	1.557779E-16	3.435576E-18
4.514850E+03	1.565174E-16	3.443386E-18
4.524665E+03	1.571693E-16	3.449210E-18
4.534480E+03	1.577253E-16	3.452878E-18
4.544295E+03	1.581859E-16	3.454418E-18
4.554109E+03	1.585432E-16	3.453675E-18
4.563924E+03	1.587984E-16	3.450690E-18
4.573739E+03	1.589522E-16	3.445491E-18
4.583554E+03	1.590044E-16	3.438096E-18
4.593369E+03	1.589565E-16	3.428548E-18
4.603184E+03	1.588167E-16	3.417041E-18
4.612999E+03	1.585869E-16	3.403629E-18
4.622814E+03	1.582737E-16	3.388469E-18
4.632629E+03	1.578866E-16	3.371775E-18
4.642444E+03	1.574338E-16	3.353735E-18
4.652258E+03	1.569223E-16	3.334508E-18
4.662073E+03	1.563634E-16	3.314338E-18
4.671888E+03	1.557663E-16	3.293432E-18
4.681703E+03	1.551406E-16	3.271997E-18
4.691518E+03	1.544994E-16	3.250310E-18
4.701333E+03	1.538483E-16	3.228492E-18
4.711148E+03	1.531944E-16	3.206694E-18
4.720963E+03	1.525444E-16	3.185055E-18
4.730778E+03	1.519029E-16	3.163670E-18
4.740592E+03	1.512758E-16	3.142658E-18
4.750407E+03	1.506666E-16	3.122094E-18
4.760222E+03	1.500802E-16	3.102071E-18
4.770037E+03	1.495191E-16	3.082640E-18
4.779852E+03	1.489871E-16	3.063872E-18
4.789667E+03	1.484874E-16	3.045831E-18
4.799482E+03	1.480213E-16	3.028536E-18
4.809297E+03	1.475910E-16	3.012030E-18
4.819112E+03	1.472004E-16	2.996382E-18
4.828926E+03	1.468481E-16	2.981560E-18
4.838741E+03	1.465389E-16	2.967654E-18
4.848556E+03	1.462710E-16	2.954621E-18
4.858371E+03	1.460475E-16	2.942518E-18
4.868186E+03	1.458696E-16	2.931363E-18
4.878001E+03	1.457372E-16	2.921144E-18
4.887816E+03	1.456533E-16	2.911916E-18
4.897631E+03	1.456193E-16	2.903700E-18
4.907446E+03	1.456369E-16	2.896519E-18
4.917260E+03	1.457060E-16	2.890366E-18
4.927075E+03	1.458298E-16	2.885298E-18
4.936890E+03	1.460103E-16	2.881341E-18
4.946705E+03	1.462489E-16	2.878520E-18
4.956520E+03	1.465476E-16	2.876862E-18
4.966335E+03	1.469080E-16	2.876388E-18
4.976150E+03	1.473315E-16	2.877120E-18
4.985965E+03	1.478195E-16	2.879074E-18
4.995780E+03	1.483749E-16	2.882297E-18
5.005594E+03	1.489970E-16	2.886764E-18
5.015409E+03	1.496862E-16	2.892476E-18
5.025224E+03	1.504429E-16	2.899428E-18
5.035039E+03	1.512687E-16	2.907643E-18
5.044854E+03	1.521629E-16	2.917097E-18
5.054669E+03	1.531230E-16	2.927733E-18
5.064484E+03	1.541478E-16	2.939517E-18
5.074299E+03	1.552386E-16	2.952466E-18
5.084114E+03	1.563898E-16	2.966465E-18
5.093929E+03	1.576006E-16	2.981490E-18
5.103743E+03	1.588678E-16	2.997474E-18
5.113558E+03	1.601881E-16	3.014343E-18
5.123373E+03	1.615576E-16	3.032022E-18
5.133188E+03	1.629723E-16	3.050427E-18
5.143003E+03	1.644280E-16	3.069475E-18
5.152818E+03	1.659201E-16	3.089074E-18
5.162633E+03	1.674440E-16	3.109137E-18
5.172448E+03	1.689967E-16	3.129604E-18
5.182263E+03	1.705718E-16	3.150353E-18
5.192077E+03	1.721646E-16	3.171295E-18
5.201892E+03	1.737722E-16	3.192378E-18
5.211707E+03	1.753863E-16	3.213449E-18
5.221522E+03	1.770079E-16	3.234525E-18
5.231337E+03	1.786270E-16	3.255425E-18
5.241152E+03	1.802428E-16	3.276140E-18
5.250967E+03	1.818508E-16	3.296585E-18
5.260782E+03	1.834425E-16	3.316615E-18
5.270597E+03	1.850169E-16	3.336212E-18
5.280411E+03	1.865687E-16	3.355286E-18
5.290226E+03	1.880883E-16	3.373673E-18
5.300041E+03	1.895732E-16	3.391332E-18
5.309856E+03	1.910146E-16	3.408114E-18
5.319671E+03	1.924066E-16	3.423923E-18
5.329486E+03	1.937376E-16	3.438562E-18
5.339301E+03	1.950040E-16	3.451979E-18
5.349116E+03	1.961945E-16	3.463981E-18
5.358931E+03	1.973047E-16	3.474502E-18
5.368745E+03	1.983224E-16	3.483342E-18
5.378560E+03	1.992433E-16	3.490432E-18
5.388375E+03	2.000549E-16	3.495573E-18
5.398190E+03	2.007539E-16	3.498717E-18
5.408005E+03	2.013331E-16	3.499757E-18
5.417820E+03	2.017827E-16	3.498537E-18
5.427635E+03	2.021039E-16	3.495096E-18
5.437450E+03	2.022875E-16	3.489290E-18
5.447265E+03	2.023357E-16	3.481178E-18
5.457079E+03	2.022468E-16	3.470743E-18
5.466894E+03	2.020222E-16	3.458031E-18
5.476709E+03	2.016658E-16	3.443124E-18
5.486524E+03	2.011827E-16	3.426124E-18
5.496339E+03	2.005798E-16	3.407168E-18
5.506154E+03	1.998657E-16	3.386412E-18
5.515969E+03	1.990519E-16	3.364067E-18
5.525784E+03	1.981473E-16	3.340294E-18
5.535599E+03	1.971637E-16	3.315302E-18
5.545414E+03	1.961135E-16	3.289310E-18
5.555228E+03	1.950115E-16	3.262570E-18
5.565043E+03	1.938667E-16	3.235241E-18
5.574858E+03	1.926959E-16	3.207607E-18
5.584673E+03	1.915099E-16	3.179848E-18
5.594488E+03	1.903226E-16	3.152199E-18
5.604303E+03	1.891418E-16	3.124787E-18
5.614118E+03	1.879802E-16	3.097817E-18
5.623933E+03	1.868493E-16	3.071478E-18
5.633748E+03	1.857541E-16	3.045850E-18
5.643562E+03	1.847042E-16	3.021080E-18
5.653377E+03	1.837060E-16	2.997271E-18
5.663192E+03	1.827648E-16	2.974502E-18
5.673007E+03	1.818849E-16	2.952834E-18
5.682822E+03	1.810675E-16	2.932279E-18
5.692637E+03	1.803146E-16	2.912863E-18
5.702452E+03	1.796288E-16	2.894621E-18
5.712267E+03	1.790084E-16	2.877516E-18
5.722082E+03	1.784542E-16	2.861554E-18
5.731896E+03	1.779611E-16	2.846647E-18
5.741711E+03	1.775302E-16	2.832804E-18
5.751526E+03	1.771551E-16	2.819918E-18
5.761341E+03	1.768358E-16	2.807982E-18
5.771156E+03	1.765653E-16	2.796879E-18
5.780971E+03	1.763412E-16	2.786567E-18
5.790786E+03	1.761576E-16	2.776950E-18
5.800601E+03	1.760123E-16	2.767986E-18
5.810416E+03	1.758991E-16	2.759577E-18
5.820230E+03	1.758142E-16	2.751661E-18
5.830045E+03	1.757537E-16	2.744174E-18
5.839860E+03	1.757158E-16	2.737087E-18
5.849675E+03	1.756936E-16	2.730292E-18
5.859490E+03	1.756860E-16	2.723771E-18
5.869305E+03	1.756903E-16	2.717482E-18
5.879120E+03	1.757027E-16	2.711366E-18
5.888935E+03	1.757211E-16	2.705393E-18
5.898750E+03	1.757440E-16	2.699541E-18
5.908564E+03	1.757720E-16	2.693818E-18
5.918379E+03	1.758006E-16	2.688159E-18
5.928194E+03	1.758292E-16	2.682555E-18
5.938009E+03	1.758591E-16	2.677028E-18
5.947824E+03	1.758865E-16	2.671522E-18
5.957639E+03	1.759147E-16	2.666090E-18
5.967454E+03	1.759385E-16	2.660655E-18
5.977269E+03	1.759612E-16	2.655270E-18
5.987084E+03	1.759793E-16	2.649883E-18
5.996898E+03	1.759945E-16	2.644523E-18
6.006713E+03	1.760049E-16	2.639164E-18
6.016528E+03	1.760084E-16	2.633778E-18
6.026343E+03	1.760081E-16	2.628414E-18
6.036158E+03	1.760017E-16	2.623039E-18
6.045973E+03	1.759886E-16	2.617648E-18
6.055788E+03	1.759696E-16	2.612257E-18
6.065603E+03	1.759439E-16	2.606855E-18
6.075418E+03	1.759120E-16	2.601455E-18
6.085233E+03	1.758693E-16	2.595992E-18
6.095047E+03	1.758148E-16	2.590451E-18
6.104862E+03	1.757484E-16	2.584840E-18
6.114677E+03	1.756673E-16	2.579116E-18
6.124492E+03	1.755716E-16	2.573288E-18
6.134307E+03	1.754614E-16	2.567360E-18
6.144122E+03	1.753335E-16	2.561287E-18
6.153937E+03	1.751896E-16	2.555101E-18
6.163752E+03	1.750262E-16	2.548753E-18
6.173567E+03	1.748451E-16	2.542273E-18
6.183381E+03	1.746443E-16	2.535637E-18
6.193196E+03	1.744220E-16	2.528822E-18
6.203011E+03	1.741779E-16	2.521826E-18
6.212826E+03	1.739098E-16	2.514623E-18
6.222641E+03	1.736173E-16	2.507210E-18
6.232456E+03	1.732963E-16	2.499533E-18
6.242271E+03	1.729447E-16	2.491563E-18
6.252086E+03	1.725634E-16	2.483319E-18
6.261901E+03	1.721503E-16	2.474772E-18
6.271715E+03	1.716994E-16	2.465841E-18
6.281530E+03	1.712103E-16	2.456524E-18
6.291345E+03	1.706828E-16	2.446819E-18
6.301160E+03	1.701115E-16	2.436655E-18
6.310975E+03	1.694966E-16	2.426035E-18
6.320790E+03	1.688352E-16	2.414921E-18
6.330605E+03	1.681248E-16	2.403279E-18
6.340420E+03	1.673667E-16	2.391132E-18
6.350235E+03	1.665557E-16	2.378405E-18
6.360049E+03	1.656909E-16	2.365087E-18
6.369864E+03	1.647750E-16	2.351215E-18
6.379679E+03	1.638059E-16	2.336758E-18
6.389494E+03	1.627857E-16	2.321736E-18
6.399309E+03	1.617200E-16	2.306224E-18
6.409124E+03	1.606144E-16	2.290299E-18
6.418939E+03	1.594716E-16	2.273990E-18
6.428754E+03	1.582958E-16	2.257350E-18
6.438569E+03	1.570943E-16	2.240480E-18
6.448383E+03	1.558661E-16	2.223356E-18
6.458198E+03	1.546171E-16	2.206057E-18
6.468013E+03	1.533525E-16	2.188650E-18
6.477828E+03	1.520743E-16	2.171158E-18
6.487643E+03	1.507878E-16	2.153648E-18
6.497458E+03	1.494977E-16	2.136184E-18
6.507273E+03	1.482035E-16	2.118751E-18
6.517088E+03	1.469130E-16	2.101455E-18
6.526903E+03	1.456253E-16	2.084277E-18
6.536718E+03	1.443446E-16	2.067272E-18
6.546532E+03	1.430733E-16	2.050469E-18
6.556347E+03	1.418123E-16	2.033874E-18
6.566162E+03	1.405670E-16	2.017564E-18
6.575977E+03	1.393386E-16	2.001548E-18
6.585792E+03	1.381281E-16	1.985836E-18
6.595607E+03	1.369411E-16	1.970506E-18
6.605422E+03	1.357772E-16	1.955550E-18
6.615237E+03	1.346410E-16	1.941027E-18
6.625052E+03	1.335349E-16	1.926972E-18
6.634866E+03	1.324635E-16	1.913445E-18
6.644681E+03	1.314263E-16	1.900439E-18
6.654496E+03	1.304276E-16	1.888014E-18
6.664311E+03	1.294686E-16	1.876185E-18
6.674126E+03	1.285546E-16	1.865028E-18
6.683941E+03	1.276867E-16	1.854556E-18
6.693756E+03	1.268656E-16	1.844779E-18
6.703571E+03	1.260962E-16	1.835769E-18
6.713386E+03	1.253775E-16	1.827510E-18
6.723200E+03	1.247126E-16	1.820048E-18
6.733015E+03	1.241029E-16	1.813403E-18
6.742830E+03	1.235482E-16	1.807574E-18
6.752645E+03	1.230523E-16	1.802616E-18
6.762460E+03	1.226131E-16	1.798499E-18
6.772275E+03	1.222340E-16	1.795275E-18
6.782090E+03	1.219122E-16	1.792905E-18
6.791905E+03	1.216493E-16	1.791413E-18
6.801720E+03	1.214452E-16	1.790799E-18
6.811534E+03	1.212981E-16	1.791038E-18
6.821349E+03	1.212103E-16	1.792166E-18
6.831164E+03	1.211797E-16	1.794155E-18
6.840979E+03	1.212039E-16	1.796971E-18
6.850794E+03	1.212836E-16	1.800625E-18
6.860609E+03	1.214192E-16	1.805126E-18
6.870424E+03	1.216064E-16	1.810413E-18
6.880239E+03	1.218457E-16	1.816493E-18
6.890054E+03	1.221356E-16	1.823350E-18
6.899868E+03	1.224764E-16	1.830985E-18
6.909683E+03	1.228636E-16	1.839337E-18
6.919498E+03	1.232972E-16	1.848406E-18
6.929313E+03	1.237756E-16	1.858171E-18
6.939128E+03	1.242972E-16	1.868610E-18
6.948943E+03	1.248603E-16	1.879697E-18
6.958758E+03	1.254645E-16	1.891430E-18
6.968573E+03	1.261045E-16	1.903730E-18
6.978388E+03	1.267813E-16	1.916614E-18
6.988203E+03	1.274909E-16	1.930023E-18
6.998017E+03	1.282306E-16	1.943917E-18
7.007832E+03	1.289976E-16	1.958253E-18
7.017647E+03	1.297884E-16	1.972982E-18
7.027462E+03	1.306012E-16	1.988077E-18
7.037277E+03	1.314306E-16	2.003456E-18
7.047092E+03	1.322725E-16	2.019056E-18
7.056907E+03	1.331225E-16	2.034811E-18
7.066722E+03	1.339775E-16	2.050673E-18
7.076537E+03	1.348309E-16	2.066541E-18
7.086351E+03	1.356792E-16	2.082363E-18
7.096166E+03	1.365154E-16	2.098027E-18
7.105981E+03	1.373358E-16	2.113477E-18
7.115796E+03	1.381331E-16	2.128600E-18
7.125611E+03	1.389036E-16	2.143336E-18
7.135426E+03	1.396401E-16	2.157574E-18
7.145241E+03	1.403393E-16	2.171258E-18
7.155056E+03	1.409962E-16	2.184311E-18
7.164871E+03	1.416064E-16	2.196661E-18
7.174685E+03	1.421638E-16	2.208210E-18
7.184500E+03	1.426666E-16	2.218927E-18
7.194315E+03	1.431119E-16	2.228766E-18
7.204130E+03	1.434973E-16	2.237683E-18
7.213945E+03	1.438210E-16	2.245651E-18
7.223760E+03	1.440842E-16	2.252681E-18
7.233575E+03	1.442848E-16	2.258739E-18
7.243390E+03	1.444233E-16	2.263831E-18
7.253205E+03	1.445032E-16	2.268007E-18
7.263019E+03	1.445266E-16	2.271297E-18
7.272834E+03	1.444985E-16	2.273778E-18
7.282649E+03	1.444185E-16	2.275442E-18
7.292464E+03	1.442949E-16	2.276416E-18
7.302279E+03	1.441325E-16	2.276775E-18
7.312094E+03	1.439349E-16	2.276574E-18
7.321909E+03	1.437077E-16	2.275901E-18
7.331724E+03	1.434571E-16	2.274855E-18
7.341539E+03	1.431876E-16	2.273504E-18
7.351353E+03	1.429057E-16	2.271954E-18
7.361168E+03	1.426183E-16	2.270313E-18
7.370983E+03	1.423297E-16	2.268652E-18
7.380798E+03	1.420485E-16	2.267110E-18
7.390613E+03	1.417810E-16	2.265788E-18
7.400428E+03	1.415293E-16	2.264722E-18
7.410243E+03	1.413028E-16	2.264065E-18
7.420058E+03	1.411028E-16	2.263841E-18
7.429873E+03	1.409359E-16	2.264159E-18
7.439687E+03	1.408060E-16	2.265086E-18
7.449502E+03	1.407147E-16	2.266650E-18
7.459317E+03	1.406664E-16	2.268928E-18
7.469132E+03	1.406632E-16	2.271958E-18
7.478947E+03	1.407042E-16	2.275730E-18
7.488762E+03	1.407899E-16	2.280255E-18
7.498577E+03	1.409217E-16	2.285562E-18
7.508392E+03	1.410963E-16	2.291603E-18
7.518207E+03	1.413118E-16	2.298351E-18
7.528022E+03	1.415671E-16	2.305795E-18
7.537836E+03	1.418547E-16	2.313814E-18
7.547651E+03	1.421739E-16	2.322405E-18
7.557466E+03	1.425178E-16	2.331456E-18
7.567281E+03	1.428824E-16	2.340908E-18
7.577096E+03	1.432574E-16	2.350595E-18
7.586911E+03	1.436397E-16	2.360469E-18
7.596726E+03	1.440200E-16	2.370381E-18
7.606541E+03	1.443925E-16	2.380238E-18
7.616356E+03	1.447451E-16	2.389841E-18
