#wls	flux	fluxerr
1.570383E+03	8.120723E-18	2.496034E-19
1.609642E+03	8.303113E-18	2.549120E-19
1.648902E+03	8.463601E-18	2.595279E-19
1.688161E+03	8.600133E-18	2.633902E-19
1.727421E+03	8.711185E-18	2.664544E-19
1.766680E+03	8.788248E-18	2.684629E-19
1.805940E+03	8.821627E-18	2.691237E-19
1.845200E+03	8.803187E-18	2.681939E-19
1.884459E+03	8.718578E-18	2.652434E-19
1.923719E+03	8.561831E-18	2.600995E-19
1.962978E+03	8.337856E-18	2.529208E-19
2.002238E+03	8.071075E-18	2.444567E-19
2.041497E+03	7.814374E-18	2.363132E-19
2.080757E+03	7.643039E-18	2.307626E-19
2.120016E+03	7.629754E-18	2.299839E-19
2.159276E+03	7.815059E-18	2.351735E-19
2.198536E+03	8.191127E-18	2.460652E-19
2.237795E+03	8.715300E-18	2.613486E-19
2.277055E+03	9.330742E-18	2.792966E-19
2.316314E+03	9.988816E-18	2.984388E-19
2.355574E+03	1.065326E-17	3.176839E-19
2.394833E+03	1.130767E-17	3.365399E-19
2.434093E+03	1.194189E-17	3.547037E-19
2.473353E+03	1.255935E-17	3.722786E-19
2.512612E+03	1.315820E-17	3.892093E-19
2.551872E+03	1.374710E-17	4.057527E-19
2.591131E+03	1.432771E-17	4.219570E-19
2.630391E+03	1.490728E-17	4.380334E-19
2.669650E+03	1.548877E-17	4.540669E-19
2.708910E+03	1.607872E-17	4.702454E-19
2.748170E+03	1.668129E-17	4.866854E-19
2.787429E+03	1.730021E-17	5.034902E-19
2.826689E+03	1.793887E-17	5.207514E-19
2.865948E+03	1.860034E-17	5.385504E-19
2.905208E+03	1.929174E-17	5.570842E-19
2.944467E+03	2.001570E-17	5.764187E-19
2.954282E+03	2.020357E-17	5.814277E-19
2.964097E+03	2.039269E-17	5.864631E-19
2.973912E+03	2.058306E-17	5.915248E-19
2.983727E+03	2.077707E-17	5.966815E-19
2.993542E+03	2.097554E-17	6.019564E-19
3.003357E+03	2.117716E-17	6.073115E-19
3.013172E+03	2.138387E-17	6.128020E-19
3.022986E+03	2.159542E-17	6.184206E-19
3.032801E+03	2.180970E-17	6.241066E-19
3.042616E+03	2.203025E-17	6.299607E-19
3.052431E+03	2.225370E-17	6.358865E-19
3.062246E+03	2.248198E-17	6.419387E-19
3.072061E+03	2.271485E-17	6.481098E-19
3.081876E+03	2.295209E-17	6.543937E-19
3.091691E+03	2.319131E-17	6.607216E-19
3.101506E+03	2.343670E-17	6.672124E-19
3.111320E+03	2.368590E-17	6.737991E-19
3.121135E+03	2.393875E-17	6.804765E-19
3.130950E+03	2.419732E-17	6.873028E-19
3.140765E+03	2.445707E-17	6.941493E-19
3.150580E+03	2.472229E-17	7.011369E-19
3.160395E+03	2.499066E-17	7.082000E-19
3.170210E+03	2.526211E-17	7.153358E-19
3.180025E+03	2.553873E-17	7.226033E-19
3.189840E+03	2.581824E-17	7.299381E-19
3.199655E+03	2.610279E-17	7.373999E-19
3.209469E+03	2.639011E-17	7.449246E-19
3.219284E+03	2.668234E-17	7.525723E-19
3.229099E+03	2.697944E-17	7.603413E-19
3.238914E+03	2.727916E-17	7.681682E-19
3.248729E+03	2.758368E-17	7.761134E-19
3.258544E+03	2.789295E-17	7.841756E-19
3.268359E+03	2.820475E-17	7.922922E-19
3.278174E+03	2.852347E-17	8.005855E-19
3.287989E+03	2.884689E-17	8.089929E-19
3.297803E+03	2.917498E-17	8.175135E-19
3.307618E+03	2.950555E-17	8.260854E-19
3.317433E+03	2.984518E-17	8.348920E-19
3.327248E+03	3.018728E-17	8.437488E-19
3.337063E+03	3.053624E-17	8.527778E-19
3.346878E+03	3.088985E-17	8.619170E-19
3.356693E+03	3.124813E-17	8.711668E-19
3.366508E+03	3.161327E-17	8.805872E-19
3.376323E+03	3.198528E-17	8.901780E-19
3.386137E+03	3.236198E-17	8.998781E-19
3.395952E+03	3.274556E-17	9.097479E-19
3.405767E+03	3.313603E-17	9.197870E-19
3.415582E+03	3.353339E-17	9.299951E-19
3.425397E+03	3.393550E-17	9.403117E-19
3.435212E+03	3.434670E-17	9.508570E-19
3.445027E+03	3.476484E-17	9.615704E-19
3.454842E+03	3.518992E-17	9.724516E-19
3.464657E+03	3.562196E-17	9.835002E-19
3.474471E+03	3.606315E-17	9.947759E-19
3.484286E+03	3.651131E-17	1.006218E-18
3.494101E+03	3.696648E-17	1.017828E-18
3.503916E+03	3.743298E-17	1.029722E-18
3.513731E+03	3.790649E-17	1.041781E-18
3.523546E+03	3.838703E-17	1.054006E-18
3.533361E+03	3.887892E-17	1.066514E-18
3.543176E+03	3.937787E-17	1.079186E-18
3.552991E+03	3.988817E-17	1.092140E-18
3.562805E+03	4.040554E-17	1.105256E-18
3.572620E+03	4.093427E-17	1.118653E-18
3.582435E+03	4.147222E-17	1.132270E-18
3.592250E+03	4.201940E-17	1.146106E-18
3.602065E+03	4.257794E-17	1.160219E-18
3.611880E+03	4.314569E-17	1.174550E-18
3.621695E+03	4.372480E-17	1.189155E-18
3.631510E+03	4.431526E-17	1.204034E-18
3.641325E+03	4.491704E-17	1.219185E-18
3.651140E+03	4.552804E-17	1.234549E-18
3.660954E+03	4.615246E-17	1.250241E-18
3.670769E+03	4.678606E-17	1.266142E-18
3.680584E+03	4.743306E-17	1.282368E-18
3.690399E+03	4.809131E-17	1.298858E-18
3.700214E+03	4.876082E-17	1.315612E-18
3.710029E+03	4.944153E-17	1.332627E-18
3.719844E+03	5.013764E-17	1.350014E-18
3.729659E+03	5.084280E-17	1.367603E-18
3.739474E+03	5.156119E-17	1.385504E-18
3.749288E+03	5.229276E-17	1.403714E-18
3.759103E+03	5.303746E-17	1.422232E-18
3.768918E+03	5.379526E-17	1.441054E-18
3.778733E+03	5.456401E-17	1.460123E-18
3.788548E+03	5.534783E-17	1.479547E-18
3.798363E+03	5.614249E-17	1.499212E-18
3.808178E+03	5.695210E-17	1.519226E-18
3.817993E+03	5.777449E-17	1.539530E-18
3.827808E+03	5.860961E-17	1.560122E-18
3.837622E+03	5.945737E-17	1.580998E-18
3.847437E+03	6.031767E-17	1.602154E-18
3.857252E+03	6.119250E-17	1.623641E-18
3.867067E+03	6.207973E-17	1.645402E-18
3.876882E+03	6.298127E-17	1.667487E-18
3.886697E+03	6.389496E-17	1.689836E-18
3.896512E+03	6.482072E-17	1.712446E-18
3.906327E+03	6.575836E-17	1.735311E-18
3.916142E+03	6.670979E-17	1.758480E-18
3.925956E+03	6.767296E-17	1.781898E-18
3.935771E+03	6.864959E-17	1.805610E-18
3.945586E+03	6.963762E-17	1.829558E-18
3.955401E+03	7.063678E-17	1.853736E-18
3.965216E+03	7.164693E-17	1.878138E-18
3.975031E+03	7.266792E-17	1.902759E-18
3.984846E+03	7.370150E-17	1.927645E-18
3.994661E+03	7.474350E-17	1.952684E-18
4.004476E+03	7.579571E-17	1.977923E-18
4.014290E+03	7.685786E-17	2.003354E-18
4.024105E+03	7.792772E-17	2.028917E-18
4.033920E+03	7.900701E-17	2.054656E-18
4.043735E+03	8.009351E-17	2.080513E-18
4.053550E+03	8.118691E-17	2.106479E-18
4.063365E+03	8.228490E-17	2.132494E-18
4.073180E+03	8.339129E-17	2.158655E-18
4.082995E+03	8.450161E-17	2.184846E-18
4.092810E+03	8.561561E-17	2.211060E-18
4.102625E+03	8.673299E-17	2.237289E-18
4.112439E+03	8.785336E-17	2.263523E-18
4.122254E+03	8.897426E-17	2.289697E-18
4.132069E+03	9.009547E-17	2.315807E-18
4.141884E+03	9.121649E-17	2.341839E-18
4.151699E+03	9.233494E-17	2.367731E-18
4.161514E+03	9.345048E-17	2.393477E-18
4.171329E+03	9.456252E-17	2.419060E-18
4.181144E+03	9.567076E-17	2.444473E-18
4.190959E+03	9.677071E-17	2.469603E-18
4.200773E+03	9.786192E-17	2.494438E-18
4.210588E+03	9.894590E-17	2.519017E-18
4.220403E+03	1.000182E-16	2.543228E-18
4.230218E+03	1.010782E-16	2.567058E-18
4.240033E+03	1.021257E-16	2.590499E-18
4.249848E+03	1.031579E-16	2.613486E-18
4.259663E+03	1.041744E-16	2.636007E-18
4.269478E+03	1.051726E-16	2.658001E-18
4.279293E+03	1.061502E-16	2.679408E-18
4.289107E+03	1.071107E-16	2.700319E-18
4.298922E+03	1.080482E-16	2.720590E-18
4.308737E+03	1.089631E-16	2.740229E-18
4.318552E+03	1.098554E-16	2.759244E-18
4.328367E+03	1.107256E-16	2.777642E-18
4.338182E+03	1.115717E-16	2.795383E-18
4.347997E+03	1.123924E-16	2.812431E-18
4.357812E+03	1.131895E-16	2.828838E-18
4.367627E+03	1.139618E-16	2.844571E-18
4.377441E+03	1.147075E-16	2.859593E-18
4.387256E+03	1.154270E-16	2.873912E-18
4.397071E+03	1.161207E-16	2.887542E-18
4.406886E+03	1.167869E-16	2.900445E-18
4.416701E+03	1.174262E-16	2.912636E-18
4.426516E+03	1.180408E-16	2.924173E-18
4.436331E+03	1.186274E-16	2.934975E-18
4.446146E+03	1.191862E-16	2.945055E-18
4.455961E+03	1.197198E-16	2.954472E-18
4.465775E+03	1.202266E-16	2.963194E-18
4.475590E+03	1.207052E-16	2.971188E-18
4.485405E+03	1.211579E-16	2.978513E-18
4.495220E+03	1.215852E-16	2.985182E-18
4.505035E+03	1.219856E-16	2.991165E-18
4.514850E+03	1.223615E-16	2.996518E-18
4.524665E+03	1.227097E-16	3.001169E-18
4.534480E+03	1.230341E-16	3.005216E-18
4.544295E+03	1.233335E-16	3.008631E-18
4.554109E+03	1.236084E-16	3.011427E-18
4.563924E+03	1.238592E-16	3.013616E-18
4.573739E+03	1.240880E-16	3.015255E-18
4.583554E+03	1.242919E-16	3.016273E-18
4.593369E+03	1.244729E-16	3.016722E-18
4.603184E+03	1.246317E-16	3.016619E-18
4.612999E+03	1.247702E-16	3.016015E-18
4.622814E+03	1.248854E-16	3.014840E-18
4.632629E+03	1.249814E-16	3.013191E-18
4.642444E+03	1.250566E-16	3.011036E-18
4.652258E+03	1.251133E-16	3.008427E-18
4.662073E+03	1.251501E-16	3.005338E-18
4.671888E+03	1.251690E-16	3.001817E-18
4.681703E+03	1.251706E-16	2.997878E-18
4.691518E+03	1.251534E-16	2.993489E-18
4.701333E+03	1.251211E-16	2.988739E-18
4.711148E+03	1.250724E-16	2.983602E-18
4.720963E+03	1.250077E-16	2.978086E-18
4.730778E+03	1.249306E-16	2.972277E-18
4.740592E+03	1.248380E-16	2.966105E-18
4.750407E+03	1.247319E-16	2.959620E-18
4.760222E+03	1.246143E-16	2.952868E-18
4.770037E+03	1.244853E-16	2.945855E-18
4.779852E+03	1.243436E-16	2.938549E-18
4.789667E+03	1.241927E-16	2.931038E-18
4.799482E+03	1.240311E-16	2.923285E-18
4.809297E+03	1.238608E-16	2.915336E-18
4.819112E+03	1.236802E-16	2.907160E-18
4.828926E+03	1.234944E-16	2.898872E-18
4.838741E+03	1.232987E-16	2.890368E-18
4.848556E+03	1.230980E-16	2.881760E-18
4.858371E+03	1.228894E-16	2.872982E-18
4.868186E+03	1.226761E-16	2.864109E-18
4.878001E+03	1.224582E-16	2.855144E-18
4.887816E+03	1.222343E-16	2.846058E-18
4.897631E+03	1.220075E-16	2.836919E-18
4.907446E+03	1.217749E-16	2.827664E-18
4.917260E+03	1.215411E-16	2.818399E-18
4.927075E+03	1.213032E-16	2.809056E-18
4.936890E+03	1.210626E-16	2.799671E-18
4.946705E+03	1.208196E-16	2.790246E-18
4.956520E+03	1.205740E-16	2.780783E-18
4.966335E+03	1.203274E-16	2.771318E-18
4.976150E+03	1.200799E-16	2.761850E-18
4.985965E+03	1.198300E-16	2.752347E-18
4.995780E+03	1.195806E-16	2.742877E-18
5.005594E+03	1.193288E-16	2.733373E-18
5.015409E+03	1.190760E-16	2.723868E-18
5.025224E+03	1.188237E-16	2.714396E-18
5.035039E+03	1.185706E-16	2.704926E-18
5.044854E+03	1.183164E-16	2.695454E-18
5.054669E+03	1.180613E-16	2.685984E-18
5.064484E+03	1.178066E-16	2.676546E-18
5.074299E+03	1.175524E-16	2.667139E-18
5.084114E+03	1.172956E-16	2.657701E-18
5.093929E+03	1.170393E-16	2.648295E-18
5.103743E+03	1.167833E-16	2.638920E-18
5.113558E+03	1.165249E-16	2.629514E-18
5.123373E+03	1.162668E-16	2.620140E-18
5.133188E+03	1.160076E-16	2.610765E-18
5.143003E+03	1.157473E-16	2.601390E-18
5.152818E+03	1.154858E-16	2.592016E-18
5.162633E+03	1.152232E-16	2.582641E-18
5.172448E+03	1.149582E-16	2.573239E-18
5.182263E+03	1.146921E-16	2.563837E-18
5.192077E+03	1.144235E-16	2.554407E-18
5.201892E+03	1.141525E-16	2.544950E-18
5.211707E+03	1.138804E-16	2.535498E-18
5.221522E+03	1.136047E-16	2.525992E-18
5.231337E+03	1.133253E-16	2.516432E-18
5.241152E+03	1.130436E-16	2.506850E-18
5.250967E+03	1.127583E-16	2.497218E-18
5.260782E+03	1.124695E-16	2.487539E-18
5.270597E+03	1.121774E-16	2.477815E-18
5.280411E+03	1.118805E-16	2.468019E-18
5.290226E+03	1.115791E-16	2.458153E-18
5.300041E+03	1.112746E-16	2.448249E-18
5.309856E+03	1.109644E-16	2.438252E-18
5.319671E+03	1.106499E-16	2.428192E-18
5.329486E+03	1.103314E-16	2.418074E-18
5.339301E+03	1.100074E-16	2.407868E-18
5.349116E+03	1.096795E-16	2.397608E-18
5.358931E+03	1.093451E-16	2.387237E-18
5.368745E+03	1.090069E-16	2.376814E-18
5.378560E+03	1.086650E-16	2.366341E-18
5.388375E+03	1.083168E-16	2.355765E-18
5.398190E+03	1.079652E-16	2.345145E-18
5.408005E+03	1.076088E-16	2.334454E-18
5.417820E+03	1.072491E-16	2.323723E-18
5.427635E+03	1.068850E-16	2.312927E-18
5.437450E+03	1.065178E-16	2.302097E-18
5.447265E+03	1.061476E-16	2.291234E-18
5.457079E+03	1.057746E-16	2.280341E-18
5.466894E+03	1.053988E-16	2.269421E-18
5.476709E+03	1.050217E-16	2.258504E-18
5.486524E+03	1.046433E-16	2.247593E-18
5.496339E+03	1.042638E-16	2.236687E-18
5.506154E+03	1.038844E-16	2.225816E-18
5.515969E+03	1.035041E-16	2.214959E-18
5.525784E+03	1.031243E-16	2.204142E-18
5.535599E+03	1.027450E-16	2.193367E-18
5.545414E+03	1.023675E-16	2.182663E-18
5.555228E+03	1.019920E-16	2.172030E-18
5.565043E+03	1.016173E-16	2.161447E-18
5.574858E+03	1.012460E-16	2.150966E-18
5.584673E+03	1.008781E-16	2.140588E-18
5.594488E+03	1.005124E-16	2.130287E-18
5.604303E+03	1.001516E-16	2.120119E-18
5.614118E+03	9.979335E-17	2.110034E-18
5.623933E+03	9.943996E-17	2.100082E-18
5.633748E+03	9.909037E-17	2.090239E-18
5.643562E+03	9.874590E-17	2.080532E-18
5.653377E+03	9.840656E-17	2.070963E-18
5.663192E+03	9.807245E-17	2.061532E-18
5.673007E+03	9.774350E-17	2.052237E-18
5.682822E+03	9.741995E-17	2.043083E-18
5.692637E+03	9.710283E-17	2.034092E-18
5.702452E+03	9.678997E-17	2.025216E-18
5.712267E+03	9.648364E-17	2.016505E-18
5.722082E+03	9.618284E-17	2.007936E-18
5.731896E+03	9.588861E-17	1.999530E-18
5.741711E+03	9.559993E-17	1.991266E-18
5.751526E+03	9.531792E-17	1.983167E-18
5.761341E+03	9.504033E-17	1.975186E-18
5.771156E+03	9.477047E-17	1.967390E-18
5.780971E+03	9.450512E-17	1.959714E-18
5.790786E+03	9.424643E-17	1.952201E-18
5.800601E+03	9.399332E-17	1.944828E-18
5.810416E+03	9.374463E-17	1.937571E-18
5.820230E+03	9.350256E-17	1.930476E-18
5.830045E+03	9.326598E-17	1.923519E-18
5.839860E+03	9.303496E-17	1.916700E-18
5.849675E+03	9.280820E-17	1.909994E-18
5.859490E+03	9.258695E-17	1.903425E-18
5.869305E+03	9.236993E-17	1.896967E-18
5.879120E+03	9.215824E-17	1.890642E-18
5.888935E+03	9.194969E-17	1.884405E-18
5.898750E+03	9.174637E-17	1.878300E-18
5.908564E+03	9.154599E-17	1.872279E-18
5.918379E+03	9.135087E-17	1.866389E-18
5.928194E+03	9.115851E-17	1.860579E-18
5.938009E+03	9.096900E-17	1.854852E-18
5.947824E+03	9.078222E-17	1.849204E-18
5.957639E+03	9.059927E-17	1.843658E-18
5.967454E+03	9.041886E-17	1.838188E-18
5.977269E+03	9.023988E-17	1.832771E-18
5.987084E+03	9.006339E-17	1.827429E-18
5.996898E+03	8.988918E-17	1.822158E-18
6.006713E+03	8.971727E-17	1.816958E-18
6.016528E+03	8.954537E-17	1.811784E-18
6.026343E+03	8.937551E-17	1.806675E-18
6.036158E+03	8.920659E-17	1.801611E-18
6.045973E+03	8.903846E-17	1.796588E-18
6.055788E+03	8.887108E-17	1.791605E-18
6.065603E+03	8.870425E-17	1.786659E-18
6.075418E+03	8.853795E-17	1.781751E-18
6.085233E+03	8.837201E-17	1.776875E-18
6.095047E+03	8.820531E-17	1.772011E-18
6.104862E+03	8.803883E-17	1.767178E-18
6.114677E+03	8.787237E-17	1.762373E-18
6.124492E+03	8.770482E-17	1.757573E-18
6.134307E+03	8.753716E-17	1.752798E-18
6.144122E+03	8.736927E-17	1.748047E-18
6.153937E+03	8.719988E-17	1.743293E-18
6.163752E+03	8.703013E-17	1.738561E-18
6.173567E+03	8.685868E-17	1.733824E-18
6.183381E+03	8.668765E-17	1.729124E-18
6.193196E+03	8.651472E-17	1.724416E-18
6.203011E+03	8.633991E-17	1.719700E-18
6.212826E+03	8.616518E-17	1.715015E-18
6.222641E+03	8.598822E-17	1.710316E-18
6.232456E+03	8.581120E-17	1.705647E-18
6.242271E+03	8.563183E-17	1.700961E-18
6.252086E+03	8.545219E-17	1.696302E-18
6.261901E+03	8.526993E-17	1.691621E-18
6.271715E+03	8.508720E-17	1.686964E-18
6.281530E+03	8.490283E-17	1.682306E-18
6.291345E+03	8.471674E-17	1.677646E-18
6.301160E+03	8.452985E-17	1.673003E-18
6.310975E+03	8.434105E-17	1.668354E-18
6.320790E+03	8.415130E-17	1.663721E-18
6.330605E+03	8.396056E-17	1.659101E-18
6.340420E+03	8.376769E-17	1.654472E-18
6.350235E+03	8.357362E-17	1.649854E-18
6.360049E+03	8.337946E-17	1.645269E-18
6.369864E+03	8.318283E-17	1.640669E-18
6.379679E+03	8.298598E-17	1.636100E-18
6.389494E+03	8.278871E-17	1.631557E-18
6.399309E+03	8.258995E-17	1.627019E-18
6.409124E+03	8.239069E-17	1.622505E-18
6.418939E+03	8.219091E-17	1.618015E-18
6.428754E+03	8.199039E-17	1.613542E-18
6.438569E+03	8.178921E-17	1.609089E-18
6.448383E+03	8.158826E-17	1.604671E-18
6.458198E+03	8.138655E-17	1.600269E-18
6.468013E+03	8.118514E-17	1.595904E-18
6.477828E+03	8.098429E-17	1.591578E-18
6.487643E+03	8.078514E-17	1.587315E-18
6.497458E+03	8.058669E-17	1.583093E-18
6.507273E+03	8.038914E-17	1.578917E-18
6.517088E+03	8.019377E-17	1.574811E-18
6.526903E+03	8.000056E-17	1.570774E-18
6.536718E+03	7.980967E-17	1.566807E-18
6.546532E+03	7.962129E-17	1.562915E-18
6.556347E+03	7.943657E-17	1.559120E-18
6.566162E+03	7.925563E-17	1.555422E-18
6.575977E+03	7.907749E-17	1.551803E-18
6.585792E+03	7.890449E-17	1.548308E-18
6.595607E+03	7.873442E-17	1.544893E-18
6.605422E+03	7.856971E-17	1.541605E-18
6.615237E+03	7.841043E-17	1.538444E-18
6.625052E+03	7.825551E-17	1.535390E-18
6.634866E+03	7.810502E-17	1.532443E-18
6.644681E+03	7.796139E-17	1.529651E-18
6.654496E+03	7.782349E-17	1.526991E-18
6.664311E+03	7.769032E-17	1.524442E-18
6.674126E+03	7.756417E-17	1.522049E-18
6.683941E+03	7.744503E-17	1.519813E-18
6.693756E+03	7.733201E-17	1.517714E-18
6.703571E+03	7.722508E-17	1.515753E-18
6.713386E+03	7.712535E-17	1.513949E-18
6.723200E+03	7.703295E-17	1.512306E-18
6.733015E+03	7.694690E-17	1.510805E-18
6.742830E+03	7.686812E-17	1.509462E-18
6.752645E+03	7.679686E-17	1.508282E-18
6.762460E+03	7.673418E-17	1.507287E-18
6.772275E+03	7.667795E-17	1.506434E-18
6.782090E+03	7.662919E-17	1.505742E-18
6.791905E+03	7.658804E-17	1.505214E-18
6.801720E+03	7.655444E-17	1.504850E-18
6.811534E+03	7.652841E-17	1.504649E-18
6.821349E+03	7.651002E-17	1.504612E-18
6.831164E+03	7.650030E-17	1.504759E-18
6.840979E+03	7.649710E-17	1.505049E-18
6.850794E+03	7.650143E-17	1.505501E-18
6.860609E+03	7.651454E-17	1.506138E-18
6.870424E+03	7.653405E-17	1.506916E-18
6.880239E+03	7.656113E-17	1.507855E-18
6.890054E+03	7.659571E-17	1.508956E-18
6.899868E+03	7.663775E-17	1.510216E-18
6.909683E+03	7.668732E-17	1.511638E-18
6.919498E+03	7.674312E-17	1.513196E-18
6.929313E+03	7.680633E-17	1.514913E-18
6.939128E+03	7.687690E-17	1.516788E-18
6.948943E+03	7.695358E-17	1.518797E-18
6.958758E+03	7.703641E-17	1.520940E-18
6.968573E+03	7.712516E-17	1.523212E-18
6.978388E+03	7.722108E-17	1.525640E-18
6.988203E+03	7.732178E-17	1.528174E-18
6.998017E+03	7.742939E-17	1.530858E-18
7.007832E+03	7.754164E-17	1.533647E-18
7.017647E+03	7.765951E-17	1.536559E-18
7.027462E+03	7.778182E-17	1.539573E-18
7.037277E+03	7.790845E-17	1.542685E-18
7.047092E+03	7.803931E-17	1.545894E-18
7.056907E+03	7.817553E-17	1.549223E-18
7.066722E+03	7.831453E-17	1.552620E-18
7.076537E+03	7.845633E-17	1.556085E-18
7.086351E+03	7.860203E-17	1.559641E-18
7.096166E+03	7.875133E-17	1.563283E-18
7.105981E+03	7.890197E-17	1.566964E-18
7.115796E+03	7.905484E-17	1.570704E-18
7.125611E+03	7.920874E-17	1.574477E-18
7.135426E+03	7.936472E-17	1.578306E-18
7.145241E+03	7.952138E-17	1.582162E-18
7.155056E+03	7.967871E-17	1.586046E-18
7.164871E+03	7.983649E-17	1.589953E-18
7.174685E+03	7.999465E-17	1.593881E-18
7.184500E+03	8.015185E-17	1.597805E-18
7.194315E+03	8.030786E-17	1.601719E-18
7.204130E+03	8.046268E-17	1.605625E-18
7.213945E+03	8.061601E-17	1.609515E-18
7.223760E+03	8.076784E-17	1.613390E-18
7.233575E+03	8.091802E-17	1.617246E-18
7.243390E+03	8.106512E-17	1.621056E-18
7.253205E+03	8.120899E-17	1.624817E-18
7.263019E+03	8.135081E-17	1.628552E-18
7.272834E+03	8.148796E-17	1.632208E-18
7.282649E+03	8.162274E-17	1.635832E-18
7.292464E+03	8.175380E-17	1.639398E-18
7.302279E+03	8.187978E-17	1.642877E-18
7.312094E+03	8.200291E-17	1.646314E-18
7.321909E+03	8.212078E-17	1.649662E-18
7.331724E+03	8.223563E-17	1.652964E-18
7.341539E+03	8.234482E-17	1.656169E-18
7.351353E+03	8.244954E-17	1.659300E-18
7.361168E+03	8.255096E-17	1.662381E-18
7.370983E+03	8.264646E-17	1.665359E-18
7.380798E+03	8.273714E-17	1.668257E-18
7.390613E+03	8.282418E-17	1.671097E-18
7.400428E+03	8.290623E-17	1.673854E-18
7.410243E+03	8.298319E-17	1.676525E-18
7.420058E+03	8.305633E-17	1.679135E-18
7.429873E+03	8.312420E-17	1.681656E-18
7.439687E+03	8.318806E-17	1.684113E-18
7.449502E+03	8.324655E-17	1.686479E-18
7.459317E+03	8.330221E-17	1.688805E-18
7.469132E+03	8.335248E-17	1.691040E-18
7.478947E+03	8.339845E-17	1.693205E-18
7.488762E+03	8.344020E-17	1.695303E-18
7.498577E+03	8.347763E-17	1.697331E-18
7.508392E+03	8.351211E-17	1.699317E-18
7.518207E+03	8.354231E-17	1.701235E-18
7.528022E+03	8.356816E-17	1.703083E-18
7.537836E+03	8.358972E-17	1.704863E-18
7.547651E+03	8.360827E-17	1.706600E-18
7.557466E+03	8.362387E-17	1.708297E-18
7.567281E+03	8.363392E-17	1.709900E-18
7.577096E+03	8.364236E-17	1.711489E-18
7.586911E+03	8.364668E-17	1.713014E-18
7.596726E+03	8.364686E-17	1.714475E-18
7.606541E+03	8.364426E-17	1.715899E-18
7.616356E+03	8.363772E-17	1.717262E-18
