#wls	flux	fluxerr
1.574803E+03	4.327610E-03	2.498629E-04
1.614173E+03	4.356685E-03	2.505037E-04
1.653543E+03	4.387033E-03	2.511753E-04
1.692913E+03	4.420294E-03	2.519691E-04
1.732283E+03	4.455753E-03	2.528411E-04
1.771654E+03	4.494420E-03	2.538452E-04
1.811024E+03	4.536137E-03	2.549686E-04
1.850394E+03	4.581300E-03	2.562295E-04
1.889764E+03	4.630283E-03	2.576442E-04
1.929134E+03	4.683985E-03	2.592573E-04
1.968504E+03	4.743263E-03	2.611101E-04
2.007874E+03	4.807843E-03	2.631804E-04
2.047244E+03	4.880128E-03	2.655920E-04
2.086614E+03	4.959754E-03	2.683153E-04
2.125984E+03	5.048967E-03	2.714615E-04
2.165354E+03	5.149392E-03	2.751047E-04
2.204724E+03	5.262026E-03	2.792832E-04
2.244094E+03	5.388308E-03	2.840564E-04
2.283465E+03	5.529588E-03	2.894762E-04
2.322835E+03	5.686598E-03	2.955598E-04
2.362205E+03	5.859524E-03	3.022940E-04
2.401575E+03	6.048022E-03	3.096372E-04
2.440945E+03	6.251713E-03	3.175459E-04
2.480315E+03	6.470685E-03	3.259995E-04
2.519685E+03	6.704973E-03	3.349739E-04
2.559055E+03	6.953680E-03	3.443975E-04
2.598425E+03	7.218178E-03	3.543110E-04
2.637795E+03	7.497095E-03	3.646179E-04
2.677165E+03	7.791322E-03	3.753326E-04
2.716535E+03	8.100869E-03	3.864245E-04
2.755906E+03	8.425786E-03	3.978639E-04
2.795276E+03	8.766210E-03	4.096242E-04
2.834646E+03	9.123668E-03	4.217416E-04
2.874016E+03	9.499813E-03	4.342540E-04
2.913386E+03	9.898567E-03	4.472973E-04
2.952756E+03	1.032530E-02	4.610623E-04
2.962598E+03	1.043729E-02	4.646510E-04
2.972441E+03	1.055143E-02	4.682978E-04
2.982283E+03	1.066814E-02	4.720198E-04
2.992126E+03	1.078782E-02	4.758339E-04
3.001969E+03	1.090972E-02	4.797057E-04
3.011811E+03	1.103505E-02	4.836863E-04
3.021654E+03	1.116345E-02	4.877591E-04
3.031496E+03	1.129497E-02	4.919242E-04
3.041339E+03	1.142966E-02	4.961823E-04
3.051181E+03	1.156835E-02	5.005676E-04
3.061024E+03	1.171110E-02	5.050811E-04
3.070866E+03	1.185761E-02	5.097077E-04
3.080709E+03	1.200872E-02	5.144816E-04
3.090551E+03	1.216455E-02	5.194053E-04
3.100394E+03	1.232520E-02	5.244808E-04
3.110236E+03	1.249081E-02	5.297114E-04
3.120079E+03	1.266227E-02	5.351329E-04
3.129921E+03	1.283900E-02	5.407175E-04
3.139764E+03	1.302232E-02	5.465177E-04
3.149606E+03	1.321206E-02	5.525238E-04
3.159449E+03	1.340884E-02	5.587579E-04
3.169291E+03	1.361331E-02	5.652431E-04
3.179134E+03	1.382538E-02	5.719730E-04
3.188976E+03	1.404579E-02	5.789731E-04
3.198819E+03	1.427492E-02	5.862550E-04
3.208661E+03	1.451393E-02	5.938622E-04
3.218504E+03	1.476294E-02	6.017944E-04
3.228346E+03	1.502285E-02	6.100832E-04
3.238189E+03	1.529428E-02	6.187477E-04
3.248031E+03	1.557825E-02	6.278235E-04
3.257874E+03	1.587551E-02	6.373342E-04
3.267717E+03	1.618687E-02	6.473058E-04
3.277559E+03	1.651324E-02	6.577667E-04
3.287402E+03	1.685598E-02	6.687637E-04
3.297244E+03	1.721617E-02	6.803308E-04
3.307087E+03	1.759497E-02	6.925051E-04
3.316929E+03	1.799329E-02	7.053118E-04
3.326772E+03	1.841319E-02	7.188220E-04
3.336614E+03	1.885532E-02	7.330496E-04
3.346457E+03	1.932110E-02	7.480381E-04
3.356299E+03	1.981232E-02	7.638439E-04
3.366142E+03	2.032952E-02	7.804746E-04
3.375984E+03	2.087370E-02	7.979548E-04
3.385827E+03	2.144540E-02	8.162910E-04
3.395669E+03	2.204379E-02	8.354369E-04
3.405512E+03	2.266776E-02	8.553363E-04
3.415354E+03	2.331574E-02	8.759168E-04
3.425197E+03	2.398438E-02	8.970394E-04
3.435039E+03	2.466930E-02	9.185300E-04
3.444882E+03	2.536572E-02	9.402016E-04
3.454724E+03	2.606795E-02	9.618376E-04
3.464567E+03	2.676927E-02	9.831867E-04
3.474409E+03	2.746280E-02	1.003997E-03
3.484252E+03	2.814145E-02	1.024013E-03
3.494094E+03	2.879852E-02	1.042999E-03
3.503937E+03	2.942633E-02	1.060688E-03
3.513780E+03	3.001920E-02	1.076890E-03
3.523622E+03	3.057050E-02	1.091385E-03
3.533465E+03	3.107513E-02	1.104013E-03
3.543307E+03	3.152815E-02	1.114623E-03
3.553150E+03	3.192536E-02	1.123094E-03
3.562992E+03	3.226406E-02	1.129359E-03
3.572835E+03	3.254206E-02	1.133374E-03
3.582677E+03	3.275864E-02	1.135143E-03
3.592520E+03	3.291396E-02	1.134706E-03
3.602362E+03	3.301054E-02	1.132181E-03
3.612205E+03	3.305017E-02	1.127661E-03
3.622047E+03	3.303752E-02	1.121334E-03
3.631890E+03	3.297764E-02	1.113400E-03
3.641732E+03	3.287557E-02	1.104052E-03
3.651575E+03	3.273840E-02	1.093552E-03
3.661417E+03	3.257345E-02	1.082162E-03
3.671260E+03	3.238827E-02	1.070146E-03
3.681102E+03	3.219201E-02	1.057817E-03
3.690945E+03	3.199395E-02	1.045485E-03
3.700787E+03	3.180377E-02	1.033466E-03
3.710630E+03	3.163175E-02	1.022088E-03
3.720472E+03	3.148840E-02	1.011680E-03
3.730315E+03	3.138447E-02	1.002569E-03
3.740157E+03	3.133017E-02	9.950593E-04
3.750000E+03	3.133592E-02	9.894519E-04
3.759843E+03	3.141096E-02	9.860039E-04
3.769685E+03	3.156602E-02	9.850120E-04
3.779528E+03	3.181032E-02	9.867180E-04
3.789370E+03	3.215287E-02	9.913495E-04
3.799213E+03	3.260193E-02	9.991052E-04
3.809055E+03	3.316492E-02	1.010151E-03
3.818898E+03	3.384717E-02	1.024584E-03
3.828740E+03	3.465233E-02	1.042447E-03
3.838583E+03	3.558191E-02	1.063715E-03
3.848425E+03	3.663400E-02	1.088260E-03
3.858268E+03	3.780333E-02	1.115858E-03
3.868110E+03	3.908043E-02	1.146163E-03
3.877953E+03	4.045247E-02	1.178741E-03
3.887795E+03	4.190171E-02	1.213023E-03
3.897638E+03	4.340657E-02	1.248344E-03
3.907480E+03	4.494124E-02	1.283934E-03
3.917323E+03	4.647781E-02	1.318985E-03
3.927165E+03	4.798749E-02	1.352683E-03
3.937008E+03	4.943829E-02	1.384148E-03
3.946850E+03	5.080207E-02	1.412631E-03
3.956693E+03	5.205167E-02	1.437433E-03
3.966535E+03	5.316388E-02	1.457983E-03
3.976378E+03	5.411988E-02	1.473846E-03
3.986220E+03	5.490680E-02	1.484767E-03
3.996063E+03	5.551796E-02	1.490664E-03
4.005906E+03	5.595376E-02	1.491649E-03
4.015748E+03	5.621894E-02	1.487950E-03
4.025591E+03	5.632553E-02	1.479981E-03
4.035433E+03	5.628953E-02	1.468253E-03
4.045276E+03	5.613158E-02	1.453384E-03
4.055118E+03	5.587375E-02	1.436011E-03
4.064961E+03	5.554036E-02	1.416815E-03
4.074803E+03	5.515548E-02	1.396449E-03
4.084646E+03	5.474157E-02	1.375508E-03
4.094488E+03	5.431783E-02	1.354489E-03
4.104331E+03	5.390158E-02	1.333827E-03
4.114173E+03	5.350574E-02	1.313837E-03
4.124016E+03	5.313974E-02	1.294738E-03
4.133858E+03	5.280785E-02	1.276618E-03
4.143701E+03	5.251266E-02	1.259520E-03
4.153543E+03	5.225191E-02	1.243372E-03
4.163386E+03	5.202109E-02	1.228048E-03
4.173228E+03	5.181298E-02	1.213364E-03
4.183071E+03	5.161845E-02	1.199097E-03
4.192913E+03	5.142713E-02	1.185001E-03
4.202756E+03	5.122693E-02	1.170800E-03
4.212598E+03	5.100561E-02	1.156223E-03
4.222441E+03	5.075055E-02	1.141000E-03
4.232283E+03	5.044862E-02	1.124858E-03
4.242126E+03	5.008856E-02	1.107576E-03
4.251969E+03	4.965956E-02	1.088950E-03
4.261811E+03	4.915202E-02	1.068810E-03
4.271654E+03	4.856125E-02	1.047100E-03
4.281496E+03	4.788530E-02	1.023825E-03
4.291339E+03	4.712697E-02	9.990894E-04
4.301181E+03	4.629606E-02	9.731457E-04
4.311024E+03	4.540853E-02	9.463646E-04
4.320866E+03	4.448451E-02	9.191924E-04
4.330709E+03	4.354975E-02	8.921753E-04
4.340551E+03	4.263379E-02	8.659182E-04
4.350394E+03	4.176635E-02	8.410085E-04
4.360236E+03	4.097855E-02	8.180416E-04
4.370079E+03	4.030023E-02	7.975654E-04
4.379921E+03	3.975977E-02	7.800802E-04
4.389764E+03	3.938222E-02	7.660022E-04
4.399606E+03	3.918972E-02	7.556768E-04
4.409449E+03	3.920092E-02	7.493682E-04
4.419291E+03	3.942935E-02	7.472339E-04
4.429134E+03	3.988611E-02	7.493782E-04
4.438976E+03	4.057798E-02	7.558201E-04
4.448819E+03	4.150792E-02	7.665068E-04
4.458661E+03	4.267386E-02	7.812937E-04
4.468504E+03	4.407079E-02	7.999867E-04
4.478346E+03	4.568573E-02	8.222553E-04
4.488189E+03	4.749811E-02	8.476435E-04
4.498031E+03	4.948062E-02	8.755925E-04
4.507874E+03	5.159786E-02	9.054201E-04
4.517717E+03	5.380399E-02	9.362859E-04
4.527559E+03	5.604806E-02	9.672899E-04
4.537402E+03	5.827174E-02	9.974370E-04
4.547244E+03	6.041415E-02	1.025722E-03
4.557087E+03	6.241404E-02	1.051166E-03
4.566929E+03	6.421180E-02	1.072852E-03
4.576772E+03	6.575437E-02	1.090000E-03
4.586614E+03	6.699614E-02	1.101975E-03
4.596457E+03	6.790289E-02	1.108351E-03
4.606299E+03	6.845019E-02	1.108870E-03
4.616142E+03	6.862832E-02	1.103517E-03
4.625984E+03	6.843862E-02	1.092454E-03
4.635827E+03	6.789210E-02	1.075986E-03
4.645669E+03	6.701172E-02	1.054596E-03
4.655512E+03	6.582981E-02	1.028896E-03
4.665354E+03	6.438473E-02	9.995739E-04
4.675197E+03	6.271776E-02	9.673369E-04
4.685039E+03	6.086911E-02	9.328563E-04
4.694882E+03	5.887393E-02	8.967051E-04
4.704724E+03	5.676524E-02	8.594026E-04
4.714567E+03	5.458132E-02	8.215308E-04
4.724409E+03	5.236170E-02	7.836758E-04
4.734252E+03	5.015060E-02	7.464797E-04
4.744094E+03	4.799088E-02	7.105503E-04
4.753937E+03	4.592444E-02	6.764695E-04
4.763780E+03	4.398709E-02	6.447189E-04
4.773622E+03	4.220811E-02	6.156769E-04
4.783465E+03	4.060958E-02	5.896128E-04
4.793307E+03	3.920838E-02	5.667172E-04
4.803150E+03	3.801513E-02	5.470905E-04
4.812992E+03	3.703664E-02	5.307786E-04
4.822835E+03	3.627549E-02	5.177695E-04
4.832677E+03	3.572997E-02	5.079924E-04
4.842520E+03	3.539582E-02	5.013441E-04
4.852362E+03	3.526704E-02	4.977005E-04
4.862205E+03	3.533257E-02	4.968702E-04
4.872047E+03	3.557964E-02	4.986425E-04
4.881890E+03	3.599050E-02	5.027413E-04
4.891732E+03	3.654007E-02	5.087936E-04
4.901575E+03	3.719857E-02	5.163669E-04
4.911417E+03	3.793287E-02	5.249884E-04
4.921260E+03	3.870866E-02	5.341749E-04
4.931102E+03	3.949028E-02	5.434306E-04
4.940945E+03	4.024450E-02	5.522983E-04
4.950787E+03	4.094426E-02	5.604102E-04
4.960630E+03	4.156871E-02	5.674863E-04
4.970472E+03	4.210484E-02	5.733562E-04
4.980315E+03	4.255128E-02	5.780087E-04
4.990157E+03	4.291546E-02	5.815512E-04
5.000000E+03	4.321120E-02	5.841764E-04
5.009843E+03	4.345842E-02	5.861569E-04
5.019685E+03	4.367999E-02	5.878027E-04
5.029528E+03	4.389976E-02	5.894336E-04
5.039370E+03	4.413990E-02	5.913441E-04
5.049213E+03	4.442072E-02	5.938016E-04
5.059055E+03	4.475881E-02	5.970212E-04
5.068898E+03	4.516430E-02	6.011306E-04
5.078740E+03	4.564221E-02	6.061882E-04
5.088583E+03	4.619497E-02	6.122177E-04
5.098425E+03	4.682267E-02	6.192120E-04
5.108268E+03	4.752389E-02	6.271436E-04
5.118110E+03	4.829688E-02	6.359811E-04
5.127953E+03	4.914310E-02	6.457353E-04
5.137795E+03	5.006296E-02	6.564032E-04
5.147638E+03	5.105824E-02	6.679995E-04
5.157480E+03	5.212960E-02	6.805241E-04
5.167323E+03	5.327704E-02	6.939678E-04
5.177165E+03	5.449781E-02	7.082859E-04
5.187008E+03	5.578516E-02	7.233817E-04
5.196850E+03	5.712914E-02	7.391181E-04
5.206693E+03	5.851494E-02	7.552960E-04
5.216535E+03	5.992160E-02	7.716389E-04
5.226378E+03	6.132632E-02	7.878490E-04
5.236220E+03	6.270118E-02	8.035660E-04
5.246063E+03	6.401852E-02	8.184360E-04
5.255906E+03	6.524924E-02	8.320906E-04
5.265748E+03	6.636613E-02	8.441897E-04
5.275591E+03	6.734496E-02	8.544341E-04
5.285433E+03	6.816705E-02	8.625991E-04
5.295276E+03	6.881528E-02	8.684824E-04
5.305118E+03	6.928150E-02	8.719974E-04
5.314961E+03	6.956313E-02	8.731284E-04
5.324803E+03	6.966489E-02	8.719502E-04
5.334646E+03	6.959828E-02	8.686224E-04
5.344488E+03	6.938160E-02	8.633882E-04
5.354331E+03	6.903750E-02	8.565427E-04
5.364173E+03	6.859115E-02	8.484100E-04
5.374016E+03	6.806921E-02	8.393286E-04
5.383858E+03	6.749604E-02	8.296061E-04
5.393701E+03	6.689151E-02	8.194912E-04
5.403543E+03	6.627251E-02	8.091933E-04
5.413386E+03	6.565359E-02	7.988913E-04
5.423228E+03	6.504093E-02	7.886602E-04
5.433071E+03	6.443945E-02	7.785590E-04
5.442913E+03	6.384722E-02	7.685631E-04
5.452756E+03	6.325920E-02	7.586117E-04
5.462598E+03	6.266746E-02	7.486101E-04
5.472441E+03	6.206005E-02	7.384178E-04
5.482283E+03	6.142512E-02	7.278977E-04
5.492126E+03	6.075072E-02	7.169141E-04
5.501969E+03	6.002395E-02	7.053231E-04
5.511811E+03	5.923509E-02	6.930208E-04
5.521654E+03	5.837661E-02	6.799316E-04
5.531496E+03	5.744120E-02	6.659843E-04
5.541339E+03	5.642621E-02	6.511637E-04
5.551181E+03	5.533015E-02	6.354691E-04
5.561024E+03	5.415337E-02	6.189216E-04
5.570866E+03	5.290071E-02	6.015942E-04
5.580709E+03	5.157920E-02	5.835837E-04
5.590551E+03	5.019926E-02	5.650241E-04
5.600394E+03	4.877651E-02	5.461054E-04
5.610236E+03	4.732945E-02	5.270464E-04
5.620079E+03	4.588178E-02	5.081189E-04
5.629921E+03	4.446038E-02	4.896242E-04
5.639764E+03	4.309427E-02	4.718801E-04
5.649606E+03	4.181342E-02	4.552072E-04
5.659449E+03	4.064854E-02	4.399262E-04
5.669291E+03	3.962756E-02	4.263195E-04
5.679134E+03	3.877724E-02	4.146496E-04
5.688976E+03	3.811963E-02	4.051207E-04
5.698819E+03	3.767368E-02	3.978987E-04
5.708661E+03	3.745426E-02	3.931008E-04
5.718504E+03	3.747022E-02	3.907772E-04
5.728346E+03	3.772597E-02	3.909297E-04
5.738189E+03	3.822108E-02	3.935088E-04
5.748031E+03	3.894850E-02	3.983978E-04
5.757874E+03	3.989502E-02	4.054194E-04
5.767717E+03	4.104030E-02	4.143289E-04
5.777559E+03	4.235297E-02	4.247767E-04
5.787402E+03	4.379158E-02	4.363225E-04
5.797244E+03	4.530769E-02	4.484687E-04
5.807087E+03	4.684502E-02	4.606545E-04
5.816929E+03	4.834262E-02	4.722890E-04
5.826772E+03	4.973728E-02	4.827760E-04
5.836614E+03	5.097063E-02	4.915825E-04
5.846457E+03	5.199063E-02	4.982505E-04
5.856299E+03	5.275630E-02	5.024400E-04
5.866142E+03	5.324291E-02	5.039730E-04
5.875984E+03	5.344074E-02	5.028172E-04
5.885827E+03	5.335454E-02	4.990752E-04
5.895669E+03	5.300507E-02	4.929950E-04
5.905512E+03	5.242259E-02	4.849051E-04
5.915354E+03	5.164541E-02	4.751985E-04
5.925197E+03	5.071434E-02	4.642806E-04
5.935039E+03	4.967173E-02	4.525606E-04
5.944882E+03	4.855933E-02	4.404322E-04
5.954724E+03	4.741568E-02	4.282512E-04
5.964567E+03	4.627367E-02	4.163151E-04
5.974409E+03	4.516384E-02	4.048947E-04
5.984252E+03	4.410943E-02	3.941915E-04
5.994094E+03	4.312902E-02	3.843629E-04
6.003937E+03	4.223530E-02	3.755125E-04
6.013780E+03	4.143514E-02	3.676925E-04
6.023622E+03	4.072929E-02	3.609018E-04
6.033465E+03	4.011534E-02	3.551127E-04
6.043307E+03	3.958277E-02	3.502276E-04
6.053150E+03	3.911644E-02	3.461098E-04
6.062992E+03	3.869928E-02	3.426066E-04
6.072835E+03	3.830876E-02	3.395126E-04
6.082677E+03	3.792183E-02	3.366131E-04
6.092520E+03	3.751287E-02	3.336695E-04
6.102362E+03	3.705982E-02	3.304724E-04
6.112205E+03	3.654278E-02	3.268294E-04
6.122047E+03	3.594783E-02	3.225977E-04
6.131890E+03	3.527006E-02	3.177131E-04
6.141732E+03	3.451446E-02	3.121985E-04
6.151575E+03	3.369649E-02	3.061716E-04
6.161417E+03	3.284262E-02	2.998521E-04
6.171260E+03	3.198248E-02	2.934934E-04
6.181102E+03	3.114890E-02	2.873841E-04
6.190945E+03	3.037273E-02	2.818019E-04
6.200787E+03	2.968268E-02	2.770122E-04
6.210630E+03	2.910146E-02	2.732320E-04
6.220472E+03	2.864520E-02	2.706233E-04
6.230315E+03	2.832559E-02	2.693114E-04
6.240157E+03	2.814660E-02	2.693522E-04
6.250000E+03	2.810521E-02	2.707371E-04
6.259843E+03	2.819377E-02	2.734133E-04
6.269685E+03	2.839944E-02	2.772761E-04
6.279528E+03	2.870694E-02	2.821947E-04
6.289370E+03	2.909689E-02	2.879941E-04
6.299213E+03	2.954834E-02	2.944787E-04
6.309055E+03	3.003645E-02	3.014085E-04
6.318898E+03	3.053568E-02	3.085294E-04
6.328740E+03	3.102016E-02	3.155771E-04
6.338583E+03	3.146604E-02	3.223003E-04
6.348425E+03	3.185363E-02	3.284842E-04
6.358268E+03	3.216533E-02	3.339302E-04
6.368110E+03	3.238980E-02	3.385000E-04
6.377953E+03	3.251999E-02	3.420977E-04
6.387795E+03	3.255422E-02	3.446824E-04
6.397638E+03	3.249533E-02	3.462616E-04
6.407480E+03	3.235159E-02	3.469018E-04
6.417323E+03	3.213407E-02	3.467029E-04
6.427165E+03	3.186047E-02	3.458398E-04
6.437008E+03	3.154987E-02	3.445080E-04
6.446850E+03	3.122245E-02	3.429204E-04
6.456693E+03	3.089966E-02	3.413094E-04
6.466535E+03	3.060113E-02	3.398926E-04
6.476378E+03	3.034507E-02	3.388769E-04
6.486220E+03	3.014545E-02	3.384259E-04
6.496063E+03	3.001329E-02	3.386727E-04
6.505906E+03	2.995604E-02	3.397125E-04
6.515748E+03	2.997491E-02	3.415703E-04
6.525591E+03	3.006912E-02	3.442481E-04
6.535433E+03	3.023379E-02	3.477000E-04
6.545276E+03	3.046200E-02	3.518550E-04
6.555118E+03	3.074492E-02	3.566179E-04
6.564961E+03	3.107274E-02	3.618799E-04
6.574803E+03	3.143309E-02	3.675000E-04
6.584646E+03	3.181406E-02	3.733400E-04
6.594488E+03	3.220303E-02	3.792513E-04
6.604331E+03	3.258595E-02	3.850657E-04
6.614173E+03	3.294859E-02	3.906110E-04
6.624016E+03	3.327878E-02	3.957378E-04
6.633858E+03	3.356460E-02	4.002978E-04
6.643701E+03	3.379439E-02	4.041450E-04
6.653543E+03	3.396020E-02	4.071767E-04
6.663386E+03	3.405454E-02	4.092959E-04
6.673228E+03	3.407266E-02	4.104383E-04
6.683071E+03	3.401279E-02	4.105761E-04
6.692913E+03	3.387494E-02	4.097037E-04
6.702756E+03	3.366273E-02	4.078604E-04
6.712598E+03	3.338087E-02	4.050998E-04
6.722441E+03	3.303722E-02	4.015152E-04
6.732283E+03	3.264008E-02	3.972065E-04
6.742126E+03	3.220006E-02	3.923029E-04
6.751969E+03	3.172810E-02	3.869391E-04
6.761811E+03	3.123497E-02	3.812483E-04
6.771654E+03	3.073239E-02	3.753765E-04
6.781496E+03	3.023074E-02	3.694535E-04
6.791339E+03	2.974116E-02	3.636190E-04
6.801181E+03	2.927180E-02	3.579763E-04
6.811024E+03	2.883134E-02	3.526349E-04
6.820866E+03	2.842693E-02	3.476858E-04
6.830709E+03	2.806495E-02	3.432097E-04
6.840551E+03	2.775117E-02	3.392802E-04
6.850394E+03	2.749075E-02	3.359622E-04
6.860236E+03	2.728813E-02	3.333117E-04
6.870079E+03	2.714714E-02	3.313766E-04
6.879921E+03	2.707024E-02	3.301876E-04
6.889764E+03	2.706020E-02	3.297782E-04
6.899606E+03	2.711681E-02	3.301453E-04
6.909449E+03	2.723872E-02	3.312719E-04
6.919291E+03	2.742314E-02	3.331225E-04
6.929134E+03	2.766323E-02	3.356131E-04
6.938976E+03	2.795188E-02	3.386558E-04
6.948819E+03	2.827828E-02	3.421188E-04
6.958661E+03	2.862995E-02	3.458507E-04
6.968504E+03	2.899266E-02	3.496801E-04
6.978346E+03	2.935170E-02	3.534309E-04
6.988189E+03	2.969109E-02	3.569132E-04
6.998031E+03	2.999642E-02	3.599574E-04
7.007874E+03	3.025373E-02	3.624011E-04
7.017717E+03	3.045232E-02	3.641222E-04
7.027559E+03	3.058503E-02	3.650421E-04
7.037402E+03	3.064777E-02	3.651199E-04
7.047244E+03	3.064037E-02	3.643615E-04
7.057087E+03	3.056733E-02	3.628288E-04
7.066929E+03	3.043498E-02	3.606047E-04
7.076772E+03	3.025402E-02	3.578235E-04
7.086614E+03	3.003627E-02	3.546316E-04
7.096457E+03	2.979411E-02	3.511808E-04
7.106299E+03	2.954016E-02	3.476249E-04
7.116142E+03	2.928626E-02	3.441074E-04
7.125984E+03	2.904197E-02	3.407439E-04
7.135827E+03	2.881646E-02	3.376452E-04
7.145669E+03	2.861495E-02	3.348749E-04
7.155512E+03	2.844087E-02	3.324758E-04
7.165354E+03	2.829589E-02	3.304702E-04
7.175197E+03	2.817843E-02	3.288429E-04
7.185039E+03	2.808654E-02	3.275742E-04
7.194882E+03	2.801657E-02	3.266252E-04
7.204724E+03	2.796394E-02	3.259467E-04
7.214567E+03	2.792367E-02	3.254850E-04
7.224409E+03	2.789163E-02	3.251966E-04
7.234252E+03	2.786270E-02	3.250264E-04
7.244094E+03	2.783382E-02	3.249436E-04
7.253937E+03	2.780216E-02	3.249195E-04
7.263780E+03	2.776377E-02	3.249125E-04
7.273622E+03	2.771850E-02	3.249248E-04
7.283465E+03	2.766571E-02	3.249529E-04
7.293307E+03	2.760614E-02	3.250089E-04
7.303150E+03	2.754041E-02	3.251034E-04
7.312992E+03	2.747025E-02	3.252601E-04
7.322835E+03	2.739619E-02	3.254881E-04
7.332677E+03	2.731784E-02	3.257854E-04
7.342520E+03	2.723637E-02	3.261685E-04
7.352362E+03	2.715045E-02	3.266233E-04
7.362205E+03	2.705902E-02	3.271390E-04
7.372047E+03	2.695906E-02	3.276788E-04
7.381890E+03	2.684854E-02	3.282144E-04
7.391732E+03	2.672432E-02	3.287008E-04
7.401575E+03	2.658187E-02	3.290747E-04
7.411417E+03	2.641875E-02	3.292969E-04
7.421260E+03	2.623222E-02	3.293226E-04
7.431102E+03	2.602148E-02	3.291303E-04
7.440945E+03	2.578769E-02	3.287220E-04
7.450787E+03	2.553203E-02	3.281002E-04
7.460630E+03	2.525751E-02	3.272908E-04
7.470472E+03	2.496782E-02	3.263297E-04
7.480315E+03	2.466695E-02	3.252576E-04
7.490157E+03	2.435904E-02	3.241192E-04
7.500000E+03	2.404806E-02	3.229588E-04
7.509843E+03	2.373782E-02	3.218205E-04
7.519685E+03	2.343206E-02	3.207493E-04
7.529528E+03	2.313393E-02	3.197845E-04
7.539370E+03	2.284594E-02	3.189586E-04
7.549213E+03	2.257027E-02	3.183006E-04
7.559055E+03	2.230905E-02	3.178410E-04
7.568898E+03	2.206267E-02	3.175865E-04
7.578740E+03	2.183403E-02	3.175814E-04
7.588583E+03	2.162403E-02	3.178422E-04
7.598425E+03	2.143554E-02	3.184161E-04
7.608268E+03	2.126993E-02	3.193300E-04
7.618110E+03	2.112944E-02	3.206252E-04
7.627953E+03	2.101479E-02	3.223215E-04
7.637795E+03	2.092676E-02	3.244411E-04
