#wls	flux	fluxerr
1.574803E+03	1.692052E-03	1.423066E-04
1.614173E+03	1.677378E-03	1.398958E-04
1.653543E+03	1.662588E-03	1.374695E-04
1.692913E+03	1.648248E-03	1.350747E-04
1.732283E+03	1.634050E-03	1.326859E-04
1.771654E+03	1.620538E-03	1.303468E-04
1.811024E+03	1.607123E-03	1.280095E-04
1.850394E+03	1.594609E-03	1.257376E-04
1.889764E+03	1.582951E-03	1.235258E-04
1.929134E+03	1.572103E-03	1.213688E-04
1.968504E+03	1.562544E-03	1.193017E-04
2.007874E+03	1.554206E-03	1.173164E-04
2.047244E+03	1.547533E-03	1.154432E-04
2.086614E+03	1.542435E-03	1.136712E-04
2.125984E+03	1.539318E-03	1.120261E-04
2.165354E+03	1.538560E-03	1.105296E-04
2.204724E+03	1.539545E-03	1.091317E-04
2.244094E+03	1.542638E-03	1.078528E-04
2.283465E+03	1.547242E-03	1.066457E-04
2.322835E+03	1.553481E-03	1.055142E-04
2.362205E+03	1.560794E-03	1.044158E-04
2.401575E+03	1.569095E-03	1.033416E-04
2.440945E+03	1.578307E-03	1.022833E-04
2.480315E+03	1.588358E-03	1.012336E-04
2.519685E+03	1.599185E-03	1.001857E-04
2.559055E+03	1.610531E-03	9.912159E-05
2.598425E+03	1.622366E-03	9.803781E-05
2.637795E+03	1.634677E-03	9.693216E-05
2.677165E+03	1.647852E-03	9.582604E-05
2.716535E+03	1.661700E-03	9.470610E-05
2.755906E+03	1.676628E-03	9.359332E-05
2.795276E+03	1.692495E-03	9.247686E-05
2.834646E+03	1.709205E-03	9.134927E-05
2.874016E+03	1.726543E-03	9.019731E-05
2.913386E+03	1.744541E-03	8.902159E-05
2.952756E+03	1.763467E-03	8.783468E-05
2.962598E+03	1.768493E-03	8.754338E-05
2.972441E+03	1.773529E-03	8.724878E-05
2.982283E+03	1.778750E-03	8.695947E-05
2.992126E+03	1.783994E-03	8.666748E-05
3.001969E+03	1.789436E-03	8.638123E-05
3.011811E+03	1.795082E-03	8.610085E-05
3.021654E+03	1.800773E-03	8.581863E-05
3.031496E+03	1.806683E-03	8.554281E-05
3.041339E+03	1.812819E-03	8.527355E-05
3.051181E+03	1.819027E-03	8.500343E-05
3.061024E+03	1.825640E-03	8.474797E-05
3.070866E+03	1.832343E-03	8.449226E-05
3.080709E+03	1.839469E-03	8.425150E-05
3.090551E+03	1.846705E-03	8.401112E-05
3.100394E+03	1.854382E-03	8.378605E-05
3.110236E+03	1.862351E-03	8.356918E-05
3.120079E+03	1.870621E-03	8.336075E-05
3.129921E+03	1.879364E-03	8.316811E-05
3.139764E+03	1.888431E-03	8.298434E-05
3.149606E+03	1.897992E-03	8.281664E-05
3.159449E+03	1.907902E-03	8.265823E-05
3.169291E+03	1.918486E-03	8.252293E-05
3.179134E+03	1.929441E-03	8.239719E-05
3.188976E+03	1.940937E-03	8.228793E-05
3.198819E+03	1.953139E-03	8.220171E-05
3.208661E+03	1.965903E-03	8.213186E-05
3.218504E+03	1.979237E-03	8.207830E-05
3.228346E+03	1.993460E-03	8.205373E-05
3.238189E+03	2.008268E-03	8.204495E-05
3.248031E+03	2.023819E-03	8.205793E-05
3.257874E+03	2.040115E-03	8.209215E-05
3.267717E+03	2.057307E-03	8.215305E-05
3.277559E+03	2.075387E-03	8.223958E-05
3.287402E+03	2.094186E-03	8.234440E-05
3.297244E+03	2.113994E-03	8.247821E-05
3.307087E+03	2.134779E-03	8.263902E-05
3.316929E+03	2.156347E-03	8.281859E-05
3.326772E+03	2.178799E-03	8.302019E-05
3.336614E+03	2.202224E-03	8.324647E-05
3.346457E+03	2.226537E-03	8.349351E-05
3.356299E+03	2.251482E-03	8.375114E-05
3.366142E+03	2.277402E-03	8.403159E-05
3.375984E+03	2.303847E-03	8.431768E-05
3.385827E+03	2.330969E-03	8.461455E-05
3.395669E+03	2.358594E-03	8.491560E-05
3.405512E+03	2.386701E-03	8.521973E-05
3.415354E+03	2.414972E-03	8.551546E-05
3.425197E+03	2.443591E-03	8.580927E-05
3.435039E+03	2.472545E-03	8.610066E-05
3.444882E+03	2.501941E-03	8.639315E-05
3.454724E+03	2.532091E-03	8.669728E-05
3.464567E+03	2.563341E-03	8.702432E-05
3.474409E+03	2.595899E-03	8.738057E-05
3.484252E+03	2.629984E-03	8.777245E-05
3.494094E+03	2.665968E-03	8.821121E-05
3.503937E+03	2.703927E-03	8.869791E-05
3.513780E+03	2.744383E-03	8.924808E-05
3.523622E+03	2.787265E-03	8.985739E-05
3.533465E+03	2.832807E-03	9.053136E-05
3.543307E+03	2.881401E-03	9.128022E-05
3.553150E+03	2.933301E-03	9.210947E-05
3.562992E+03	2.988484E-03	9.301577E-05
3.572835E+03	3.047537E-03	9.401455E-05
3.582677E+03	3.110480E-03	9.510335E-05
3.592520E+03	3.177804E-03	9.629392E-05
3.602362E+03	3.249736E-03	9.758960E-05
3.612205E+03	3.326837E-03	9.900346E-05
3.622047E+03	3.409268E-03	1.005361E-04
3.631890E+03	3.497682E-03	1.022025E-04
3.641732E+03	3.592635E-03	1.040140E-04
3.651575E+03	3.694748E-03	1.059832E-04
3.661417E+03	3.804395E-03	1.081152E-04
3.671260E+03	3.922631E-03	1.104339E-04
3.681102E+03	4.049973E-03	1.129470E-04
3.690945E+03	4.187325E-03	1.156724E-04
3.700787E+03	4.335837E-03	1.186337E-04
3.710630E+03	4.496274E-03	1.218431E-04
3.720472E+03	4.669971E-03	1.253272E-04
3.730315E+03	4.858034E-03	1.291051E-04
3.740157E+03	5.061821E-03	1.332016E-04
3.750000E+03	5.282594E-03	1.376375E-04
3.759843E+03	5.522044E-03	1.424433E-04
3.769685E+03	5.781369E-03	1.476354E-04
3.779528E+03	6.062382E-03	1.532443E-04
3.789370E+03	6.366714E-03	1.592944E-04
3.799213E+03	6.695638E-03	1.657994E-04
3.809055E+03	7.050953E-03	1.727846E-04
3.818898E+03	7.434024E-03	1.802632E-04
3.828740E+03	7.846047E-03	1.882427E-04
3.838583E+03	8.288515E-03	1.967368E-04
3.848425E+03	8.762223E-03	2.057410E-04
3.858268E+03	9.267887E-03	2.152485E-04
3.868110E+03	9.805562E-03	2.252364E-04
3.877953E+03	1.037508E-02	2.356770E-04
3.887795E+03	1.097541E-02	2.465232E-04
3.897638E+03	1.160544E-02	2.577277E-04
3.907480E+03	1.226252E-02	2.692098E-04
3.917323E+03	1.294379E-02	2.808877E-04
3.927165E+03	1.364599E-02	2.926738E-04
3.937008E+03	1.436377E-02	3.044398E-04
3.946850E+03	1.509276E-02	3.160830E-04
3.956693E+03	1.582690E-02	3.274706E-04
3.966535E+03	1.655960E-02	3.384649E-04
3.976378E+03	1.728382E-02	3.489259E-04
3.986220E+03	1.799348E-02	3.587403E-04
3.996063E+03	1.868057E-02	3.677627E-04
4.005906E+03	1.933892E-02	3.758912E-04
4.015748E+03	1.996250E-02	3.830332E-04
4.025591E+03	2.054520E-02	3.891010E-04
4.035433E+03	2.108369E-02	3.940641E-04
4.045276E+03	2.157363E-02	3.978779E-04
4.055118E+03	2.201425E-02	4.005657E-04
4.064961E+03	2.240479E-02	4.021528E-04
4.074803E+03	2.274582E-02	4.026882E-04
4.084646E+03	2.303996E-02	4.022566E-04
4.094488E+03	2.328996E-02	4.009415E-04
4.104331E+03	2.349932E-02	3.988373E-04
4.114173E+03	2.367344E-02	3.960663E-04
4.124016E+03	2.381628E-02	3.927216E-04
4.133858E+03	2.393282E-02	3.889095E-04
4.143701E+03	2.402845E-02	3.847377E-04
4.153543E+03	2.410793E-02	3.802992E-04
4.163386E+03	2.417531E-02	3.756708E-04
4.173228E+03	2.423506E-02	3.709329E-04
4.183071E+03	2.429029E-02	3.661408E-04
4.192913E+03	2.434435E-02	3.613506E-04
4.202756E+03	2.439981E-02	3.566042E-04
4.212598E+03	2.445718E-02	3.519116E-04
4.222441E+03	2.451802E-02	3.472978E-04
4.232283E+03	2.458078E-02	3.427429E-04
4.242126E+03	2.464438E-02	3.382354E-04
4.251969E+03	2.470531E-02	3.337318E-04
4.261811E+03	2.476004E-02	3.291919E-04
4.271654E+03	2.480271E-02	3.245482E-04
4.281496E+03	2.482760E-02	3.197396E-04
4.291339E+03	2.482734E-02	3.146892E-04
4.301181E+03	2.479397E-02	3.093180E-04
4.311024E+03	2.471999E-02	3.035589E-04
4.320866E+03	2.459696E-02	2.973382E-04
4.330709E+03	2.441815E-02	2.906080E-04
4.340551E+03	2.417902E-02	2.833497E-04
4.350394E+03	2.387865E-02	2.755881E-04
4.360236E+03	2.352354E-02	2.674311E-04
4.370079E+03	2.312924E-02	2.590814E-04
4.379921E+03	2.271429E-02	2.507625E-04
4.389764E+03	2.229845E-02	2.426980E-04
4.399606E+03	2.189962E-02	2.350785E-04
4.409449E+03	2.153397E-02	2.280649E-04
4.419291E+03	2.121509E-02	2.217772E-04
4.429134E+03	2.095336E-02	2.162922E-04
4.438976E+03	2.075734E-02	2.116647E-04
4.448819E+03	2.063234E-02	2.079149E-04
4.458661E+03	2.058124E-02	2.050385E-04
4.468504E+03	2.060500E-02	2.030134E-04
4.478346E+03	2.070230E-02	2.017972E-04
4.488189E+03	2.086990E-02	2.013315E-04
4.498031E+03	2.110333E-02	2.015494E-04
4.507874E+03	2.139542E-02	2.023618E-04
4.517717E+03	2.173784E-02	2.036731E-04
4.527559E+03	2.212063E-02	2.053763E-04
4.537402E+03	2.253181E-02	2.073502E-04
4.547244E+03	2.295937E-02	2.094779E-04
4.557087E+03	2.338935E-02	2.116293E-04
4.566929E+03	2.380811E-02	2.136814E-04
4.576772E+03	2.420236E-02	2.155187E-04
4.586614E+03	2.455999E-02	2.170392E-04
4.596457E+03	2.487045E-02	2.181586E-04
4.606299E+03	2.512691E-02	2.188270E-04
4.616142E+03	2.532430E-02	2.190114E-04
4.625984E+03	2.546320E-02	2.187282E-04
4.635827E+03	2.554628E-02	2.180117E-04
4.645669E+03	2.558006E-02	2.169278E-04
4.655512E+03	2.557374E-02	2.155635E-04
4.665354E+03	2.553686E-02	2.140073E-04
4.675197E+03	2.547880E-02	2.123441E-04
4.685039E+03	2.540381E-02	2.106153E-04
4.694882E+03	2.530776E-02	2.087923E-04
4.704724E+03	2.518415E-02	2.068284E-04
4.714567E+03	2.502598E-02	2.046732E-04
4.724409E+03	2.482921E-02	2.023020E-04
4.734252E+03	2.459235E-02	1.997100E-04
4.744094E+03	2.431814E-02	1.969267E-04
4.753937E+03	2.401204E-02	1.940024E-04
4.763780E+03	2.368202E-02	1.910053E-04
4.773622E+03	2.333878E-02	1.880232E-04
4.783465E+03	2.299484E-02	1.851573E-04
4.793307E+03	2.266341E-02	1.825139E-04
4.803150E+03	2.235843E-02	1.802052E-04
4.812992E+03	2.209257E-02	1.783339E-04
4.822835E+03	2.187633E-02	1.769869E-04
4.832677E+03	2.171853E-02	1.762389E-04
4.842520E+03	2.162551E-02	1.761475E-04
4.852362E+03	2.160167E-02	1.767567E-04
4.862205E+03	2.164937E-02	1.780970E-04
4.872047E+03	2.176997E-02	1.801892E-04
4.881890E+03	2.196223E-02	1.830277E-04
4.891732E+03	2.222336E-02	1.865948E-04
4.901575E+03	2.254865E-02	1.908576E-04
4.911417E+03	2.293126E-02	1.957652E-04
4.921260E+03	2.336237E-02	2.012488E-04
4.931102E+03	2.383035E-02	2.072130E-04
4.940945E+03	2.432199E-02	2.135454E-04
4.950787E+03	2.482198E-02	2.201101E-04
4.960630E+03	2.531489E-02	2.267649E-04
4.970472E+03	2.578554E-02	2.333637E-04
4.980315E+03	2.622026E-02	2.397677E-04
4.990157E+03	2.660885E-02	2.458650E-04
5.000000E+03	2.694364E-02	2.515626E-04
5.009843E+03	2.722055E-02	2.567984E-04
5.019685E+03	2.744032E-02	2.615542E-04
5.029528E+03	2.760526E-02	2.658276E-04
5.039370E+03	2.772195E-02	2.696589E-04
5.049213E+03	2.779855E-02	2.731067E-04
5.059055E+03	2.784458E-02	2.762471E-04
5.068898E+03	2.786995E-02	2.791642E-04
5.078740E+03	2.788515E-02	2.819526E-04
5.088583E+03	2.789995E-02	2.847036E-04
5.098425E+03	2.792327E-02	2.875044E-04
5.108268E+03	2.796308E-02	2.904358E-04
5.118110E+03	2.802642E-02	2.935717E-04
5.127953E+03	2.811977E-02	2.969833E-04
5.137795E+03	2.824812E-02	3.007279E-04
5.147638E+03	2.841718E-02	3.048721E-04
5.157480E+03	2.863187E-02	3.094757E-04
5.167323E+03	2.889655E-02	3.145938E-04
5.177165E+03	2.921565E-02	3.202833E-04
5.187008E+03	2.959322E-02	3.265974E-04
5.196850E+03	3.003303E-02	3.335873E-04
5.206693E+03	3.053773E-02	3.412918E-04
5.216535E+03	3.110858E-02	3.497343E-04
5.226378E+03	3.174595E-02	3.589274E-04
5.236220E+03	3.244918E-02	3.688717E-04
5.246063E+03	3.321595E-02	3.795478E-04
5.255906E+03	3.404234E-02	3.909167E-04
5.265748E+03	3.492365E-02	4.029290E-04
5.275591E+03	3.585462E-02	4.155267E-04
5.285433E+03	3.682826E-02	4.286309E-04
5.295276E+03	3.783670E-02	4.421501E-04
5.305118E+03	3.886822E-02	4.559461E-04
5.314961E+03	3.990874E-02	4.698507E-04
5.324803E+03	4.094209E-02	4.836679E-04
5.334646E+03	4.194927E-02	4.971649E-04
5.344488E+03	4.291053E-02	5.100954E-04
5.354331E+03	4.380657E-02	5.222126E-04
5.364173E+03	4.461852E-02	5.332729E-04
5.374016E+03	4.533093E-02	5.430720E-04
5.383858E+03	4.593079E-02	5.514343E-04
5.393701E+03	4.640913E-02	5.582335E-04
5.403543E+03	4.676097E-02	5.633921E-04
5.413386E+03	4.698329E-02	5.668582E-04
5.423228E+03	4.707575E-02	5.686146E-04
5.433071E+03	4.703941E-02	5.686633E-04
5.442913E+03	4.687645E-02	5.670227E-04
5.452756E+03	4.658865E-02	5.637091E-04
5.462598E+03	4.617763E-02	5.587400E-04
5.472441E+03	4.564537E-02	5.521400E-04
5.482283E+03	4.499315E-02	5.439279E-04
5.492126E+03	4.422389E-02	5.341456E-04
5.501969E+03	4.334146E-02	5.228496E-04
5.511811E+03	4.235177E-02	5.101231E-04
5.521654E+03	4.126278E-02	4.960770E-04
5.531496E+03	4.008604E-02	4.808671E-04
5.541339E+03	3.883538E-02	4.646783E-04
5.551181E+03	3.752706E-02	4.477246E-04
5.561024E+03	3.617961E-02	4.302470E-04
5.570866E+03	3.481171E-02	4.124869E-04
5.580709E+03	3.344368E-02	3.947028E-04
5.590551E+03	3.209564E-02	3.771475E-04
5.600394E+03	3.078617E-02	3.600517E-04
5.610236E+03	2.953282E-02	3.436295E-04
5.620079E+03	2.835131E-02	3.280685E-04
5.629921E+03	2.725551E-02	3.135297E-04
5.639764E+03	2.625646E-02	3.001357E-04
5.649606E+03	2.536344E-02	2.879841E-04
5.659449E+03	2.458299E-02	2.771360E-04
5.669291E+03	2.392016E-02	2.676312E-04
5.679134E+03	2.337772E-02	2.594799E-04
5.688976E+03	2.295738E-02	2.526764E-04
5.698819E+03	2.265907E-02	2.471924E-04
5.708661E+03	2.248200E-02	2.429888E-04
5.718504E+03	2.242380E-02	2.400078E-04
5.728346E+03	2.248144E-02	2.381824E-04
5.738189E+03	2.265023E-02	2.374276E-04
5.748031E+03	2.292433E-02	2.376464E-04
5.757874E+03	2.329662E-02	2.387294E-04
5.767717E+03	2.375782E-02	2.405475E-04
5.777559E+03	2.429706E-02	2.429591E-04
5.787402E+03	2.490155E-02	2.458082E-04
5.797244E+03	2.555653E-02	2.489262E-04
5.807087E+03	2.624540E-02	2.521346E-04
5.816929E+03	2.694993E-02	2.552489E-04
5.826772E+03	2.765037E-02	2.580818E-04
5.836614E+03	2.832659E-02	2.604546E-04
5.846457E+03	2.895884E-02	2.622051E-04
5.856299E+03	2.952775E-02	2.631877E-04
5.866142E+03	3.001576E-02	2.632861E-04
5.875984E+03	3.040893E-02	2.624271E-04
5.885827E+03	3.069520E-02	2.605633E-04
5.895669E+03	3.086792E-02	2.577012E-04
5.905512E+03	3.092371E-02	2.538789E-04
5.915354E+03	3.086335E-02	2.491705E-04
5.925197E+03	3.069218E-02	2.436860E-04
5.935039E+03	3.041843E-02	2.375546E-04
5.944882E+03	3.005361E-02	2.309244E-04
5.954724E+03	2.961119E-02	2.239512E-04
5.964567E+03	2.910682E-02	2.167978E-04
5.974409E+03	2.855619E-02	2.096173E-04
5.984252E+03	2.797617E-02	2.025616E-04
5.994094E+03	2.738257E-02	1.957653E-04
6.003937E+03	2.679165E-02	1.893578E-04
6.013780E+03	2.621766E-02	1.834465E-04
6.023622E+03	2.567417E-02	1.781284E-04
6.033465E+03	2.517346E-02	1.734872E-04
6.043307E+03	2.472613E-02	1.695927E-04
6.053150E+03	2.434165E-02	1.665061E-04
6.062992E+03	2.402807E-02	1.642791E-04
6.072835E+03	2.379191E-02	1.629465E-04
6.082677E+03	2.363743E-02	1.625242E-04
6.092520E+03	2.356772E-02	1.630249E-04
6.102362E+03	2.358193E-02	1.644398E-04
6.112205E+03	2.367179E-02	1.667110E-04
6.122047E+03	2.381775E-02	1.696983E-04
6.131890E+03	2.399762E-02	1.732391E-04
6.141732E+03	2.418876E-02	1.771606E-04
6.151575E+03	2.437380E-02	1.813201E-04
6.161417E+03	2.454207E-02	1.856170E-04
6.171260E+03	2.468529E-02	1.899626E-04
6.181102E+03	2.479855E-02	1.942895E-04
6.190945E+03	2.487800E-02	1.985350E-04
6.200787E+03	2.492195E-02	2.026512E-04
6.210630E+03	2.493016E-02	2.066011E-04
6.220472E+03	2.490297E-02	2.103522E-04
6.230315E+03	2.484291E-02	2.138916E-04
6.240157E+03	2.475295E-02	2.172124E-04
6.250000E+03	2.463672E-02	2.203165E-04
6.259843E+03	2.449855E-02	2.232154E-04
6.269685E+03	2.434238E-02	2.259212E-04
6.279528E+03	2.417263E-02	2.284541E-04
6.289370E+03	2.399349E-02	2.308365E-04
6.299213E+03	2.380857E-02	2.330888E-04
6.309055E+03	2.362106E-02	2.352310E-04
6.318898E+03	2.343406E-02	2.372853E-04
6.328740E+03	2.325004E-02	2.392701E-04
6.338583E+03	2.307163E-02	2.412084E-04
6.348425E+03	2.290051E-02	2.431150E-04
6.358268E+03	2.273866E-02	2.450099E-04
6.368110E+03	2.258773E-02	2.469113E-04
6.377953E+03	2.244960E-02	2.488412E-04
6.387795E+03	2.232594E-02	2.508208E-04
6.397638E+03	2.221856E-02	2.528739E-04
6.407480E+03	2.212940E-02	2.550271E-04
6.417323E+03	2.206059E-02	2.573104E-04
6.427165E+03	2.201443E-02	2.597567E-04
6.437008E+03	2.199338E-02	2.624018E-04
6.446850E+03	2.199993E-02	2.652832E-04
6.456693E+03	2.203682E-02	2.684418E-04
6.466535E+03	2.210618E-02	2.719118E-04
6.476378E+03	2.221059E-02	2.757338E-04
6.486220E+03	2.235126E-02	2.799312E-04
6.496063E+03	2.252987E-02	2.845331E-04
6.505906E+03	2.274669E-02	2.895503E-04
6.515748E+03	2.300172E-02	2.949896E-04
6.525591E+03	2.329388E-02	3.008425E-04
6.535433E+03	2.362114E-02	3.070869E-04
6.545276E+03	2.398057E-02	3.136869E-04
6.555118E+03	2.436856E-02	3.205960E-04
6.564961E+03	2.478030E-02	3.277498E-04
6.574803E+03	2.521010E-02	3.350704E-04
6.584646E+03	2.565123E-02	3.424633E-04
6.594488E+03	2.609716E-02	3.498353E-04
6.604331E+03	2.654029E-02	3.570770E-04
6.614173E+03	2.697236E-02	3.640687E-04
6.624016E+03	2.738569E-02	3.706972E-04
6.633858E+03	2.777209E-02	3.768422E-04
6.643701E+03	2.812484E-02	3.824027E-04
6.653543E+03	2.843687E-02	3.872737E-04
6.663386E+03	2.870276E-02	3.913734E-04
6.673228E+03	2.891720E-02	3.946224E-04
6.683071E+03	2.907801E-02	3.969855E-04
6.692913E+03	2.918269E-02	3.984251E-04
6.702756E+03	2.923138E-02	3.989417E-04
6.712598E+03	2.922505E-02	3.985486E-04
6.722441E+03	2.916725E-02	3.972964E-04
6.732283E+03	2.906144E-02	3.952361E-04
6.742126E+03	2.891376E-02	3.924562E-04
6.751969E+03	2.873026E-02	3.890452E-04
6.761811E+03	2.851775E-02	3.851021E-04
6.771654E+03	2.828472E-02	3.807487E-04
6.781496E+03	2.803916E-02	3.760995E-04
6.791339E+03	2.778846E-02	3.712599E-04
6.801181E+03	2.754128E-02	3.663511E-04
6.811024E+03	2.730487E-02	3.614736E-04
6.820866E+03	2.708634E-02	3.567240E-04
6.830709E+03	2.689254E-02	3.521931E-04
6.840551E+03	2.672885E-02	3.479501E-04
6.850394E+03	2.660016E-02	3.440555E-04
6.860236E+03	2.651081E-02	3.405599E-04
6.870079E+03	2.646346E-02	3.374903E-04
6.879921E+03	2.646009E-02	3.348629E-04
6.889764E+03	2.650196E-02	3.326832E-04
6.899606E+03	2.658819E-02	3.309282E-04
6.909449E+03	2.671817E-02	3.295781E-04
6.919291E+03	2.688915E-02	3.285861E-04
6.929134E+03	2.709765E-02	3.278968E-04
6.938976E+03	2.733912E-02	3.274435E-04
6.948819E+03	2.760806E-02	3.271500E-04
6.958661E+03	2.789777E-02	3.269283E-04
6.968504E+03	2.820195E-02	3.266989E-04
6.978346E+03	2.851230E-02	3.263628E-04
6.988189E+03	2.882096E-02	3.258312E-04
6.998031E+03	2.912043E-02	3.250242E-04
7.007874E+03	2.940306E-02	3.238656E-04
7.017717E+03	2.966086E-02	3.222808E-04
7.027559E+03	2.988815E-02	3.202265E-04
7.037402E+03	3.007902E-02	3.176609E-04
7.047244E+03	3.022860E-02	3.145585E-04
7.057087E+03	3.033406E-02	3.109190E-04
7.066929E+03	3.039300E-02	3.067496E-04
7.076772E+03	3.040470E-02	3.020769E-04
7.086614E+03	3.036966E-02	2.969411E-04
7.096457E+03	3.028949E-02	2.913938E-04
7.106299E+03	3.016680E-02	2.854961E-04
7.116142E+03	3.000416E-02	2.793077E-04
7.125984E+03	2.980636E-02	2.729078E-04
7.135827E+03	2.957693E-02	2.663616E-04
7.145669E+03	2.932032E-02	2.597409E-04
7.155512E+03	2.904093E-02	2.531144E-04
7.165354E+03	2.874287E-02	2.465460E-04
7.175197E+03	2.842951E-02	2.400910E-04
7.185039E+03	2.810420E-02	2.338021E-04
7.194882E+03	2.776941E-02	2.277234E-04
7.204724E+03	2.742721E-02	2.218933E-04
7.214567E+03	2.708043E-02	2.163550E-04
7.224409E+03	2.672962E-02	2.111312E-04
7.234252E+03	2.637619E-02	2.062500E-04
7.244094E+03	2.602163E-02	2.017376E-04
7.253937E+03	2.566613E-02	1.976070E-04
7.263780E+03	2.531077E-02	1.938723E-04
7.273622E+03	2.495632E-02	1.905421E-04
7.283465E+03	2.460399E-02	1.876258E-04
7.293307E+03	2.425373E-02	1.851200E-04
7.303150E+03	2.390582E-02	1.830215E-04
7.312992E+03	2.356050E-02	1.813228E-04
7.322835E+03	2.321663E-02	1.799958E-04
7.332677E+03	2.287220E-02	1.789941E-04
7.342520E+03	2.252539E-02	1.782708E-04
7.352362E+03	2.217283E-02	1.777648E-04
7.362205E+03	2.181166E-02	1.774171E-04
7.372047E+03	2.143744E-02	1.771542E-04
7.381890E+03	2.104728E-02	1.769133E-04
7.391732E+03	2.063732E-02	1.766216E-04
7.401575E+03	2.020493E-02	1.762153E-04
7.411417E+03	1.974821E-02	1.756357E-04
7.421260E+03	1.926710E-02	1.748403E-04
7.431102E+03	1.876322E-02	1.738032E-04
7.440945E+03	1.823974E-02	1.725157E-04
7.450787E+03	1.770089E-02	1.709828E-04
7.460630E+03	1.715115E-02	1.692178E-04
7.470472E+03	1.659456E-02	1.672344E-04
7.480315E+03	1.603572E-02	1.650579E-04
7.490157E+03	1.547806E-02	1.627070E-04
7.500000E+03	1.492571E-02	1.602127E-04
7.509843E+03	1.438200E-02	1.576027E-04
7.519685E+03	1.385086E-02	1.549165E-04
7.529528E+03	1.333537E-02	1.521885E-04
7.539370E+03	1.283917E-02	1.494641E-04
7.549213E+03	1.236490E-02	1.467818E-04
7.559055E+03	1.191572E-02	1.441893E-04
7.568898E+03	1.149304E-02	1.417174E-04
7.578740E+03	1.109859E-02	1.394024E-04
7.588583E+03	1.073312E-02	1.372704E-04
7.598425E+03	1.039666E-02	1.353399E-04
7.608268E+03	1.008901E-02	1.336261E-04
7.618110E+03	9.809675E-03	1.321410E-04
7.627953E+03	9.557745E-03	1.308900E-04
7.637795E+03	9.331777E-03	1.298709E-04
