#wls	flux	fluxerr
1.574803E+03	7.760860E-04	7.366458E-05
1.614173E+03	7.698932E-04	7.278957E-05
1.653543E+03	7.639356E-04	7.193368E-05
1.692913E+03	7.580702E-04	7.108324E-05
1.732283E+03	7.525901E-04	7.026554E-05
1.771654E+03	7.473530E-04	6.946689E-05
1.811024E+03	7.423631E-04	6.868736E-05
1.850394E+03	7.376259E-04	6.792717E-05
1.889764E+03	7.334247E-04	6.721193E-05
1.929134E+03	7.294845E-04	6.651583E-05
1.968504E+03	7.260857E-04	6.586392E-05
2.007874E+03	7.229625E-04	6.523140E-05
2.047244E+03	7.205256E-04	6.465468E-05
2.086614E+03	7.185138E-04	6.410936E-05
2.125984E+03	7.171999E-04	6.361891E-05
2.165354E+03	7.164617E-04	6.317133E-05
2.204724E+03	7.163108E-04	6.276660E-05
2.244094E+03	7.170179E-04	6.242717E-05
2.283465E+03	7.184674E-04	6.214141E-05
2.322835E+03	7.206787E-04	6.190948E-05
2.362205E+03	7.239210E-04	6.175276E-05
2.401575E+03	7.282151E-04	6.167084E-05
2.440945E+03	7.334619E-04	6.165311E-05
2.480315E+03	7.399377E-04	6.172044E-05
2.519685E+03	7.477952E-04	6.188265E-05
2.559055E+03	7.569506E-04	6.212960E-05
2.598425E+03	7.676869E-04	6.248114E-05
2.637795E+03	7.800530E-04	6.293731E-05
2.677165E+03	7.943409E-04	6.351727E-05
2.716535E+03	8.106123E-04	6.422094E-05
2.755906E+03	8.291734E-04	6.506705E-05
2.795276E+03	8.502216E-04	6.606473E-05
2.834646E+03	8.740828E-04	6.723216E-05
2.874016E+03	9.010974E-04	6.858732E-05
2.913386E+03	9.315017E-04	7.013897E-05
2.952756E+03	9.656728E-04	7.190523E-05
2.962598E+03	9.748897E-04	7.238538E-05
2.972441E+03	9.843101E-04	7.287565E-05
2.982283E+03	9.940568E-04	7.338497E-05
2.992126E+03	1.004132E-03	7.391327E-05
3.001969E+03	1.014541E-03	7.446061E-05
3.011811E+03	1.025165E-03	7.501816E-05
3.021654E+03	1.036129E-03	7.559481E-05
3.031496E+03	1.047437E-03	7.619057E-05
3.041339E+03	1.059092E-03	7.680549E-05
3.051181E+03	1.071101E-03	7.743964E-05
3.061024E+03	1.083465E-03	7.809299E-05
3.070866E+03	1.096191E-03	7.876568E-05
3.080709E+03	1.109283E-03	7.945778E-05
3.090551E+03	1.122869E-03	8.017803E-05
3.100394E+03	1.136833E-03	8.091787E-05
3.110236E+03	1.151180E-03	8.167739E-05
3.120079E+03	1.165917E-03	8.245668E-05
3.129921E+03	1.181174E-03	8.326461E-05
3.139764E+03	1.196833E-03	8.409261E-05
3.149606E+03	1.213027E-03	8.494950E-05
3.159449E+03	1.229640E-03	8.582684E-05
3.169291E+03	1.246928E-03	8.674211E-05
3.179134E+03	1.264653E-03	8.767821E-05
3.188976E+03	1.282948E-03	8.864404E-05
3.198819E+03	1.301699E-03	8.963126E-05
3.208661E+03	1.321166E-03	9.065734E-05
3.218504E+03	1.341237E-03	9.171401E-05
3.228346E+03	1.361923E-03	9.280155E-05
3.238189E+03	1.383363E-03	9.392895E-05
3.248031E+03	1.405319E-03	9.507941E-05
3.257874E+03	1.428057E-03	9.627049E-05
3.267717E+03	1.451595E-03	9.750266E-05
3.277559E+03	1.475819E-03	9.876775E-05
3.287402E+03	1.500875E-03	1.000748E-04
3.297244E+03	1.526782E-03	1.014245E-04
3.307087E+03	1.553557E-03	1.028172E-04
3.316929E+03	1.581220E-03	1.042535E-04
3.326772E+03	1.609661E-03	1.057255E-04
3.336614E+03	1.639163E-03	1.072508E-04
3.346457E+03	1.669747E-03	1.088302E-04
3.356299E+03	1.701306E-03	1.104557E-04
3.366142E+03	1.733863E-03	1.121279E-04
3.375984E+03	1.767575E-03	1.138562E-04
3.385827E+03	1.802467E-03	1.156411E-04
3.395669E+03	1.838432E-03	1.174747E-04
3.405512E+03	1.875765E-03	1.193750E-04
3.415354E+03	1.914223E-03	1.213254E-04
3.425197E+03	1.954106E-03	1.233438E-04
3.435039E+03	1.995444E-03	1.254309E-04
3.444882E+03	2.038127E-03	1.275785E-04
3.454724E+03	2.082186E-03	1.297874E-04
3.464567E+03	2.127927E-03	1.320754E-04
3.474409E+03	2.175101E-03	1.344257E-04
3.484252E+03	2.223877E-03	1.368472E-04
3.494094E+03	2.274284E-03	1.393406E-04
3.503937E+03	2.326496E-03	1.419148E-04
3.513780E+03	2.380398E-03	1.445614E-04
3.523622E+03	2.436162E-03	1.472892E-04
3.533465E+03	2.493817E-03	1.500983E-04
3.543307E+03	2.553242E-03	1.529799E-04
3.553150E+03	2.614758E-03	1.559513E-04
3.562992E+03	2.678090E-03	1.589945E-04
3.572835E+03	2.743559E-03	1.621268E-04
3.582677E+03	2.811187E-03	1.653476E-04
3.592520E+03	2.880838E-03	1.686469E-04
3.602362E+03	2.952681E-03	1.720328E-04
3.612205E+03	3.026725E-03	1.755037E-04
3.622047E+03	3.102979E-03	1.790583E-04
3.631890E+03	3.181446E-03	1.826946E-04
3.641732E+03	3.262282E-03	1.864196E-04
3.651575E+03	3.345323E-03	1.902218E-04
3.661417E+03	3.430716E-03	1.941074E-04
3.671260E+03	3.518283E-03	1.980642E-04
3.681102E+03	3.608321E-03	2.021069E-04
3.690945E+03	3.700474E-03	2.062134E-04
3.700787E+03	3.795029E-03	2.103975E-04
3.710630E+03	3.891939E-03	2.146546E-04
3.720472E+03	3.990983E-03	2.189702E-04
3.730315E+03	4.092092E-03	2.233385E-04
3.740157E+03	4.195357E-03	2.277626E-04
3.750000E+03	4.300691E-03	2.322358E-04
3.759843E+03	4.408170E-03	2.367600E-04
3.769685E+03	4.517340E-03	2.413093E-04
3.779528E+03	4.628252E-03	2.458844E-04
3.789370E+03	4.740949E-03	2.504862E-04
3.799213E+03	4.855112E-03	2.550961E-04
3.809055E+03	4.970584E-03	2.597045E-04
3.818898E+03	5.087373E-03	2.643106E-04
3.828740E+03	5.205306E-03	2.689040E-04
3.838583E+03	5.324007E-03	2.734645E-04
3.848425E+03	5.443281E-03	2.779813E-04
3.858268E+03	5.563266E-03	2.824608E-04
3.868110E+03	5.683382E-03	2.868730E-04
3.877953E+03	5.803402E-03	2.912063E-04
3.887795E+03	5.923243E-03	2.954568E-04
3.897638E+03	6.042651E-03	2.996118E-04
3.907480E+03	6.161158E-03	3.036487E-04
3.917323E+03	6.278634E-03	3.075620E-04
3.927165E+03	6.394570E-03	3.113278E-04
3.937008E+03	6.508617E-03	3.149307E-04
3.946850E+03	6.620576E-03	3.183628E-04
3.956693E+03	6.729701E-03	3.215904E-04
3.966535E+03	6.835772E-03	3.246058E-04
3.976378E+03	6.938221E-03	3.273849E-04
3.986220E+03	7.036817E-03	3.299205E-04
3.996063E+03	7.131002E-03	3.321900E-04
4.005906E+03	7.220230E-03	3.341725E-04
4.015748E+03	7.304334E-03	3.358647E-04
4.025591E+03	7.383008E-03	3.372577E-04
4.035433E+03	7.455634E-03	3.383286E-04
4.045276E+03	7.522017E-03	3.390742E-04
4.055118E+03	7.582026E-03	3.394945E-04
4.064961E+03	7.635595E-03	3.395927E-04
4.074803E+03	7.682587E-03	3.393689E-04
4.084646E+03	7.723124E-03	3.388346E-04
4.094488E+03	7.757252E-03	3.379980E-04
4.104331E+03	7.785097E-03	3.368706E-04
4.114173E+03	7.807048E-03	3.354751E-04
4.124016E+03	7.823379E-03	3.338289E-04
4.133858E+03	7.834595E-03	3.319588E-04
4.143701E+03	7.841083E-03	3.298861E-04
4.153543E+03	7.843272E-03	3.276332E-04
4.163386E+03	7.841769E-03	3.252295E-04
4.173228E+03	7.837034E-03	3.226977E-04
4.183071E+03	7.829553E-03	3.200608E-04
4.192913E+03	7.819812E-03	3.173415E-04
4.202756E+03	7.808444E-03	3.145675E-04
4.212598E+03	7.795938E-03	3.117603E-04
4.222441E+03	7.782762E-03	3.089399E-04
4.232283E+03	7.769518E-03	3.061309E-04
4.242126E+03	7.756513E-03	3.033459E-04
4.251969E+03	7.744422E-03	3.006111E-04
4.261811E+03	7.733374E-03	2.979313E-04
4.271654E+03	7.724094E-03	2.953335E-04
4.281496E+03	7.716892E-03	2.928285E-04
4.291339E+03	7.712046E-03	2.904255E-04
4.301181E+03	7.709921E-03	2.881364E-04
4.311024E+03	7.710858E-03	2.859721E-04
4.320866E+03	7.715282E-03	2.839461E-04
4.330709E+03	7.723608E-03	2.820711E-04
4.340551E+03	7.735999E-03	2.803504E-04
4.350394E+03	7.753176E-03	2.788070E-04
4.360236E+03	7.775381E-03	2.774461E-04
4.370079E+03	7.803176E-03	2.762842E-04
4.379921E+03	7.836747E-03	2.753238E-04
4.389764E+03	7.876277E-03	2.745675E-04
4.399606E+03	7.921590E-03	2.740051E-04
4.409449E+03	7.972807E-03	2.736368E-04
4.419291E+03	8.029576E-03	2.734469E-04
4.429134E+03	8.091830E-03	2.734294E-04
4.438976E+03	8.159337E-03	2.735731E-04
4.448819E+03	8.231916E-03	2.738687E-04
4.458661E+03	8.309332E-03	2.743056E-04
4.468504E+03	8.391385E-03	2.748744E-04
4.478346E+03	8.477466E-03	2.755529E-04
4.488189E+03	8.567430E-03	2.763346E-04
4.498031E+03	8.660601E-03	2.771961E-04
4.507874E+03	8.756519E-03	2.781218E-04
4.517717E+03	8.854411E-03	2.790866E-04
4.527559E+03	8.953390E-03	2.800627E-04
4.537402E+03	9.052919E-03	2.810341E-04
4.547244E+03	9.151718E-03	2.819625E-04
4.557087E+03	9.248898E-03	2.828228E-04
4.566929E+03	9.343672E-03	2.835936E-04
4.576772E+03	9.434720E-03	2.842385E-04
4.586614E+03	9.521450E-03	2.847438E-04
4.596457E+03	9.602939E-03	2.850866E-04
4.606299E+03	9.678492E-03	2.852512E-04
4.616142E+03	9.747787E-03	2.852338E-04
4.625984E+03	9.810181E-03	2.850209E-04
4.635827E+03	9.865618E-03	2.846167E-04
4.645669E+03	9.913943E-03	2.840224E-04
4.655512E+03	9.955114E-03	2.832425E-04
4.665354E+03	9.989412E-03	2.822902E-04
4.675197E+03	1.001686E-02	2.811717E-04
4.685039E+03	1.003772E-02	2.798987E-04
4.694882E+03	1.005207E-02	2.784785E-04
4.704724E+03	1.006031E-02	2.769264E-04
4.714567E+03	1.006264E-02	2.752525E-04
4.724409E+03	1.005974E-02	2.734785E-04
4.734252E+03	1.005240E-02	2.716292E-04
4.744094E+03	1.004149E-02	2.697313E-04
4.753937E+03	1.002847E-02	2.678254E-04
4.763780E+03	1.001454E-02	2.659455E-04
4.773622E+03	1.000113E-02	2.641298E-04
4.783465E+03	9.989717E-03	2.624164E-04
4.793307E+03	9.981338E-03	2.608311E-04
4.803150E+03	9.977190E-03	2.594034E-04
4.812992E+03	9.977899E-03	2.581471E-04
4.822835E+03	9.984438E-03	2.570849E-04
4.832677E+03	9.997497E-03	2.562321E-04
4.842520E+03	1.001767E-02	2.556008E-04
4.852362E+03	1.004555E-02	2.552039E-04
4.862205E+03	1.008132E-02	2.550429E-04
4.872047E+03	1.012558E-02	2.551300E-04
4.881890E+03	1.017837E-02	2.554631E-04
4.891732E+03	1.023967E-02	2.560386E-04
4.901575E+03	1.030946E-02	2.568524E-04
4.911417E+03	1.038730E-02	2.578910E-04
4.921260E+03	1.047279E-02	2.591414E-04
4.931102E+03	1.056529E-02	2.605855E-04
4.940945E+03	1.066360E-02	2.621912E-04
4.950787E+03	1.076670E-02	2.639315E-04
4.960630E+03	1.087298E-02	2.657655E-04
4.970472E+03	1.098085E-02	2.676531E-04
4.980315E+03	1.108844E-02	2.695478E-04
4.990157E+03	1.119383E-02	2.714021E-04
5.000000E+03	1.129503E-02	2.731674E-04
5.009843E+03	1.139058E-02	2.748086E-04
5.019685E+03	1.147902E-02	2.762906E-04
5.029528E+03	1.155950E-02	2.775928E-04
5.039370E+03	1.163171E-02	2.787081E-04
5.049213E+03	1.169609E-02	2.796470E-04
5.059055E+03	1.175336E-02	2.804270E-04
5.068898E+03	1.180498E-02	2.810826E-04
5.078740E+03	1.185248E-02	2.816493E-04
5.088583E+03	1.189788E-02	2.821747E-04
5.098425E+03	1.194262E-02	2.826914E-04
5.108268E+03	1.198870E-02	2.832459E-04
5.118110E+03	1.203745E-02	2.838680E-04
5.127953E+03	1.208993E-02	2.845808E-04
5.137795E+03	1.214729E-02	2.854101E-04
5.147638E+03	1.221009E-02	2.863666E-04
5.157480E+03	1.227878E-02	2.874593E-04
5.167323E+03	1.235361E-02	2.886921E-04
5.177165E+03	1.243482E-02	2.900687E-04
5.187008E+03	1.252223E-02	2.915828E-04
5.196850E+03	1.261565E-02	2.932282E-04
5.206693E+03	1.271490E-02	2.949987E-04
5.216535E+03	1.281951E-02	2.968818E-04
5.226378E+03	1.292874E-02	2.988584E-04
5.236220E+03	1.304196E-02	3.009126E-04
5.246063E+03	1.315829E-02	3.030220E-04
5.255906E+03	1.327665E-02	3.051608E-04
5.265748E+03	1.339590E-02	3.073011E-04
5.275591E+03	1.351460E-02	3.094090E-04
5.285433E+03	1.363174E-02	3.114605E-04
5.295276E+03	1.374582E-02	3.134204E-04
5.305118E+03	1.385606E-02	3.152703E-04
5.314961E+03	1.396140E-02	3.169859E-04
5.324803E+03	1.406104E-02	3.185482E-04
5.334646E+03	1.415424E-02	3.199403E-04
5.344488E+03	1.424046E-02	3.211497E-04
5.354331E+03	1.431876E-02	3.221553E-04
5.364173E+03	1.438883E-02	3.229501E-04
5.374016E+03	1.444980E-02	3.235149E-04
5.383858E+03	1.450140E-02	3.238444E-04
5.393701E+03	1.454299E-02	3.239248E-04
5.403543E+03	1.457392E-02	3.237429E-04
5.413386E+03	1.459403E-02	3.232962E-04
5.423228E+03	1.460242E-02	3.225662E-04
5.433071E+03	1.459891E-02	3.215505E-04
5.442913E+03	1.458294E-02	3.202388E-04
5.452756E+03	1.455386E-02	3.186189E-04
5.462598E+03	1.451073E-02	3.166728E-04
5.472441E+03	1.445278E-02	3.143869E-04
5.482283E+03	1.437899E-02	3.117419E-04
5.492126E+03	1.428829E-02	3.087184E-04
5.501969E+03	1.417965E-02	3.052986E-04
5.511811E+03	1.405216E-02	3.014675E-04
5.521654E+03	1.390521E-02	2.972169E-04
5.531496E+03	1.373843E-02	2.925445E-04
5.541339E+03	1.355228E-02	2.874656E-04
5.551181E+03	1.334758E-02	2.820037E-04
5.561024E+03	1.312627E-02	2.762053E-04
5.570866E+03	1.289035E-02	2.701182E-04
5.580709E+03	1.264310E-02	2.638160E-04
5.590551E+03	1.238790E-02	2.573734E-04
5.600394E+03	1.212855E-02	2.508728E-04
5.610236E+03	1.186901E-02	2.443987E-04
5.620079E+03	1.161323E-02	2.380336E-04
5.629921E+03	1.136493E-02	2.318541E-04
5.639764E+03	1.112797E-02	2.259380E-04
5.649606E+03	1.090540E-02	2.203450E-04
5.659449E+03	1.070052E-02	2.151390E-04
5.669291E+03	1.051608E-02	2.103712E-04
5.679134E+03	1.035431E-02	2.060811E-04
5.688976E+03	1.021739E-02	2.023063E-04
5.698819E+03	1.010707E-02	1.990746E-04
5.708661E+03	1.002471E-02	1.964062E-04
5.718504E+03	9.971283E-03	1.943119E-04
5.728346E+03	9.947485E-03	1.927974E-04
5.738189E+03	9.953775E-03	1.918634E-04
5.748031E+03	9.990042E-03	1.914992E-04
5.757874E+03	1.005571E-02	1.916855E-04
5.767717E+03	1.014998E-02	1.923988E-04
5.777559E+03	1.027103E-02	1.935972E-04
5.787402E+03	1.041675E-02	1.952340E-04
5.797244E+03	1.058423E-02	1.972485E-04
5.807087E+03	1.077007E-02	1.995727E-04
5.816929E+03	1.097043E-02	2.021322E-04
5.826772E+03	1.118074E-02	2.048403E-04
5.836614E+03	1.139588E-02	2.076037E-04
5.846457E+03	1.161069E-02	2.103297E-04
5.856299E+03	1.181929E-02	2.129155E-04
5.866142E+03	1.201620E-02	2.152678E-04
5.875984E+03	1.219566E-02	2.172908E-04
5.885827E+03	1.235273E-02	2.189052E-04
5.895669E+03	1.248301E-02	2.200436E-04
5.905512E+03	1.258290E-02	2.206537E-04
5.915354E+03	1.265003E-02	2.207059E-04
5.925197E+03	1.268311E-02	2.201896E-04
5.935039E+03	1.268157E-02	2.191072E-04
5.944882E+03	1.264630E-02	2.174851E-04
5.954724E+03	1.257919E-02	2.153663E-04
5.964567E+03	1.248279E-02	2.128039E-04
5.974409E+03	1.236072E-02	2.098675E-04
5.984252E+03	1.221714E-02	2.066342E-04
5.994094E+03	1.205668E-02	2.031870E-04
6.003937E+03	1.188439E-02	1.996148E-04
6.013780E+03	1.170524E-02	1.960028E-04
6.023622E+03	1.152440E-02	1.924385E-04
6.033465E+03	1.134666E-02	1.890014E-04
6.043307E+03	1.117662E-02	1.857676E-04
6.053150E+03	1.101863E-02	1.828079E-04
6.062992E+03	1.087625E-02	1.801795E-04
6.072835E+03	1.075249E-02	1.779305E-04
6.082677E+03	1.065011E-02	1.761050E-04
6.092520E+03	1.057066E-02	1.747258E-04
6.102362E+03	1.051519E-02	1.738084E-04
6.112205E+03	1.048306E-02	1.733400E-04
6.122047E+03	1.047219E-02	1.732842E-04
6.131890E+03	1.047980E-02	1.735930E-04
6.141732E+03	1.050277E-02	1.742133E-04
6.151575E+03	1.053820E-02	1.750957E-04
6.161417E+03	1.058375E-02	1.762005E-04
6.171260E+03	1.063751E-02	1.774948E-04
6.181102E+03	1.069752E-02	1.789447E-04
6.190945E+03	1.076201E-02	1.805194E-04
6.200787E+03	1.082914E-02	1.821866E-04
6.210630E+03	1.089717E-02	1.839154E-04
6.220472E+03	1.096446E-02	1.856760E-04
6.230315E+03	1.102915E-02	1.874346E-04
6.240157E+03	1.108965E-02	1.891615E-04
6.250000E+03	1.114414E-02	1.908223E-04
6.259843E+03	1.119141E-02	1.923929E-04
6.269685E+03	1.123015E-02	1.938467E-04
6.279528E+03	1.125954E-02	1.951654E-04
6.289370E+03	1.127884E-02	1.963316E-04
6.299213E+03	1.128784E-02	1.973369E-04
6.309055E+03	1.128650E-02	1.981757E-04
6.318898E+03	1.127505E-02	1.988475E-04
6.328740E+03	1.125409E-02	1.993579E-04
6.338583E+03	1.122432E-02	1.997149E-04
6.348425E+03	1.118673E-02	1.999317E-04
6.358268E+03	1.114231E-02	2.000222E-04
6.368110E+03	1.109235E-02	2.000060E-04
6.377953E+03	1.103795E-02	1.998995E-04
6.387795E+03	1.098030E-02	1.997214E-04
6.397638E+03	1.092066E-02	1.994923E-04
6.407480E+03	1.085977E-02	1.992236E-04
6.417323E+03	1.079855E-02	1.989305E-04
6.427165E+03	1.073771E-02	1.986245E-04
6.437008E+03	1.067815E-02	1.983208E-04
6.446850E+03	1.062024E-02	1.980258E-04
6.456693E+03	1.056489E-02	1.977554E-04
6.466535E+03	1.051253E-02	1.975173E-04
6.476378E+03	1.046389E-02	1.973247E-04
6.486220E+03	1.041940E-02	1.971857E-04
6.496063E+03	1.037962E-02	1.971108E-04
6.505906E+03	1.034483E-02	1.971057E-04
6.515748E+03	1.031505E-02	1.971703E-04
6.525591E+03	1.029024E-02	1.973045E-04
6.535433E+03	1.026996E-02	1.974997E-04
6.545276E+03	1.025371E-02	1.977464E-04
6.555118E+03	1.024080E-02	1.980312E-04
6.564961E+03	1.023000E-02	1.983301E-04
6.574803E+03	1.022039E-02	1.986248E-04
6.584646E+03	1.021059E-02	1.988882E-04
6.594488E+03	1.019923E-02	1.990927E-04
6.604331E+03	1.018497E-02	1.992118E-04
6.614173E+03	1.016636E-02	1.992158E-04
6.624016E+03	1.014181E-02	1.990731E-04
6.633858E+03	1.011017E-02	1.987602E-04
6.643701E+03	1.007006E-02	1.982489E-04
6.653543E+03	1.002031E-02	1.975156E-04
6.663386E+03	9.960326E-03	1.965480E-04
6.673228E+03	9.889599E-03	1.953355E-04
6.683071E+03	9.807807E-03	1.938717E-04
6.692913E+03	9.715188E-03	1.921612E-04
6.702756E+03	9.612069E-03	1.902107E-04
6.712598E+03	9.499303E-03	1.880378E-04
6.722441E+03	9.377903E-03	1.856632E-04
6.732283E+03	9.249106E-03	1.831123E-04
6.742126E+03	9.114331E-03	1.804145E-04
6.751969E+03	8.975150E-03	1.776022E-04
6.761811E+03	8.833320E-03	1.747116E-04
6.771654E+03	8.690354E-03	1.717739E-04
6.781496E+03	8.548200E-03	1.688293E-04
6.791339E+03	8.408599E-03	1.659133E-04
6.801181E+03	8.273054E-03	1.630570E-04
6.811024E+03	8.143409E-03	1.602978E-04
6.820866E+03	8.021250E-03	1.576679E-04
6.830709E+03	7.908090E-03	1.551975E-04
6.840551E+03	7.805254E-03	1.529131E-04
6.850394E+03	7.714095E-03	1.508414E-04
6.860236E+03	7.636054E-03	1.490101E-04
6.870079E+03	7.572078E-03	1.474373E-04
6.879921E+03	7.523279E-03	1.461435E-04
6.889764E+03	7.490499E-03	1.451439E-04
6.899606E+03	7.474305E-03	1.444477E-04
6.909449E+03	7.475305E-03	1.440647E-04
6.919291E+03	7.493539E-03	1.439933E-04
6.929134E+03	7.528743E-03	1.442260E-04
6.938976E+03	7.580550E-03	1.447529E-04
6.948819E+03	7.647954E-03	1.455521E-04
6.958661E+03	7.729626E-03	1.465956E-04
6.968504E+03	7.823885E-03	1.478487E-04
6.978346E+03	7.928733E-03	1.492716E-04
6.988189E+03	8.041924E-03	1.508198E-04
6.998031E+03	8.161182E-03	1.524492E-04
7.007874E+03	8.283995E-03	1.541118E-04
7.017717E+03	8.408037E-03	1.557640E-04
7.027559E+03	8.531285E-03	1.573687E-04
7.037402E+03	8.651772E-03	1.588902E-04
7.047244E+03	8.768099E-03	1.603043E-04
7.057087E+03	8.879014E-03	1.615899E-04
7.066929E+03	8.983901E-03	1.627381E-04
7.076772E+03	9.082283E-03	1.637427E-04
7.086614E+03	9.174289E-03	1.646089E-04
7.096457E+03	9.260222E-03	1.653450E-04
7.106299E+03	9.340639E-03	1.659639E-04
7.116142E+03	9.416292E-03	1.664817E-04
7.125984E+03	9.488064E-03	1.669168E-04
7.135827E+03	9.556894E-03	1.672885E-04
7.145669E+03	9.623735E-03	1.676159E-04
7.155512E+03	9.689473E-03	1.679169E-04
7.165354E+03	9.754978E-03	1.682089E-04
7.175197E+03	9.820525E-03	1.684988E-04
7.185039E+03	9.886627E-03	1.687977E-04
7.194882E+03	9.953258E-03	1.691075E-04
7.204724E+03	1.001993E-02	1.694221E-04
7.214567E+03	1.008601E-02	1.697339E-04
7.224409E+03	1.015059E-02	1.700303E-04
7.234252E+03	1.021266E-02	1.702979E-04
7.244094E+03	1.027070E-02	1.705150E-04
7.253937E+03	1.032312E-02	1.706592E-04
7.263780E+03	1.036814E-02	1.707054E-04
7.273622E+03	1.040398E-02	1.706295E-04
7.283465E+03	1.042842E-02	1.703996E-04
7.293307E+03	1.043964E-02	1.699915E-04
7.303150E+03	1.043581E-02	1.693805E-04
7.312992E+03	1.041530E-02	1.685454E-04
7.322835E+03	1.037659E-02	1.674668E-04
7.332677E+03	1.031866E-02	1.661327E-04
7.342520E+03	1.024116E-02	1.645416E-04
7.352362E+03	1.014341E-02	1.626861E-04
7.362205E+03	1.002597E-02	1.605778E-04
7.372047E+03	9.889073E-03	1.582219E-04
7.381890E+03	9.733634E-03	1.556330E-04
7.391732E+03	9.561075E-03	1.528323E-04
7.401575E+03	9.372886E-03	1.498416E-04
7.411417E+03	9.171198E-03	1.466921E-04
7.421260E+03	8.958316E-03	1.434171E-04
7.431102E+03	8.737172E-03	1.400596E-04
7.440945E+03	8.511020E-03	1.366675E-04
7.450787E+03	8.283224E-03	1.332898E-04
7.460630E+03	8.057058E-03	1.299734E-04
7.470472E+03	7.835631E-03	1.267625E-04
7.480315E+03	7.621813E-03	1.236987E-04
7.490157E+03	7.418083E-03	1.208179E-04
7.500000E+03	7.226800E-03	1.181553E-04
7.509843E+03	7.049720E-03	1.157372E-04
7.519685E+03	6.888163E-03	1.135837E-04
7.529528E+03	6.742756E-03	1.117045E-04
7.539370E+03	6.613149E-03	1.100938E-04
7.549213E+03	6.498693E-03	1.087411E-04
7.559055E+03	6.398687E-03	1.076356E-04
7.568898E+03	6.312167E-03	1.067619E-04
7.578740E+03	6.238555E-03	1.061115E-04
7.588583E+03	6.176992E-03	1.056709E-04
7.598425E+03	6.127025E-03	1.054339E-04
7.608268E+03	6.087987E-03	1.053904E-04
7.618110E+03	6.059319E-03	1.055323E-04
7.627953E+03	6.040466E-03	1.058515E-04
7.637795E+03	6.030850E-03	1.063394E-04
