#wls	flux	fluxerr
1.574803E+03	8.432069E-04	7.868609E-05
1.614173E+03	8.333684E-04	7.745379E-05
1.653543E+03	8.236006E-04	7.622705E-05
1.692913E+03	8.142253E-04	7.503556E-05
1.732283E+03	8.049230E-04	7.384967E-05
1.771654E+03	7.958544E-04	7.268408E-05
1.811024E+03	7.870207E-04	7.153870E-05
1.850394E+03	7.787256E-04	7.044084E-05
1.889764E+03	7.705147E-04	6.934898E-05
1.929134E+03	7.628382E-04	6.830342E-05
1.968504E+03	7.555454E-04	6.729009E-05
2.007874E+03	7.486369E-04	6.630859E-05
2.047244E+03	7.422562E-04	6.537105E-05
2.086614E+03	7.362632E-04	6.446448E-05
2.125984E+03	7.309377E-04	6.361269E-05
2.165354E+03	7.261425E-04	6.280279E-05
2.204724E+03	7.218812E-04	6.203425E-05
2.244094E+03	7.182941E-04	6.131814E-05
2.283465E+03	7.153859E-04	6.065371E-05
2.322835E+03	7.131653E-04	6.004044E-05
2.362205E+03	7.117716E-04	5.948867E-05
2.401575E+03	7.110914E-04	5.898737E-05
2.440945E+03	7.113914E-04	5.855703E-05
2.480315E+03	7.126884E-04	5.819695E-05
2.519685E+03	7.148851E-04	5.789707E-05
2.559055E+03	7.182503E-04	5.767691E-05
2.598425E+03	7.228157E-04	5.753626E-05
2.637795E+03	7.287345E-04	5.748430E-05
2.677165E+03	7.361637E-04	5.752996E-05
2.716535E+03	7.451492E-04	5.767295E-05
2.755906E+03	7.558582E-04	5.792199E-05
2.795276E+03	7.686892E-04	5.830265E-05
2.834646E+03	7.835912E-04	5.880533E-05
2.874016E+03	8.009716E-04	5.945440E-05
2.913386E+03	8.210177E-04	6.025650E-05
2.952756E+03	8.441461E-04	6.123401E-05
2.962598E+03	8.504063E-04	6.150447E-05
2.972441E+03	8.569503E-04	6.179174E-05
2.982283E+03	8.636679E-04	6.208771E-05
2.992126E+03	8.705603E-04	6.239231E-05
3.001969E+03	8.777415E-04	6.271355E-05
3.011811E+03	8.852128E-04	6.305130E-05
3.021654E+03	8.929750E-04	6.340542E-05
3.031496E+03	9.009208E-04	6.376807E-05
3.041339E+03	9.090508E-04	6.413916E-05
3.051181E+03	9.175901E-04	6.453435E-05
3.061024E+03	9.263186E-04	6.493791E-05
3.070866E+03	9.353494E-04	6.535759E-05
3.080709E+03	9.447969E-04	6.580112E-05
3.090551E+03	9.544410E-04	6.625290E-05
3.100394E+03	9.643957E-04	6.672064E-05
3.110236E+03	9.746649E-04	6.720437E-05
3.120079E+03	9.853631E-04	6.771170E-05
3.129921E+03	9.963824E-04	6.823490E-05
3.139764E+03	1.007727E-03	6.877402E-05
3.149606E+03	1.019402E-03	6.932905E-05
3.159449E+03	1.031522E-03	6.990762E-05
3.169291E+03	1.044094E-03	7.050972E-05
3.179134E+03	1.057012E-03	7.112791E-05
3.188976E+03	1.070281E-03	7.176221E-05
3.198819E+03	1.084133E-03	7.242784E-05
3.208661E+03	1.098350E-03	7.310985E-05
3.218504E+03	1.113055E-03	7.381600E-05
3.228346E+03	1.128255E-03	7.454642E-05
3.238189E+03	1.144076E-03	7.530888E-05
3.248031E+03	1.160300E-03	7.608871E-05
3.257874E+03	1.177167E-03	7.690116E-05
3.267717E+03	1.194577E-03	7.773920E-05
3.277559E+03	1.212658E-03	7.861070E-05
3.287402E+03	1.231313E-03	7.950876E-05
3.297244E+03	1.250558E-03	8.043394E-05
3.307087E+03	1.270643E-03	8.140173E-05
3.316929E+03	1.291357E-03	8.239803E-05
3.326772E+03	1.312955E-03	8.343840E-05
3.336614E+03	1.335228E-03	8.450895E-05
3.346457E+03	1.358435E-03	8.562535E-05
3.356299E+03	1.382488E-03	8.678128E-05
3.366142E+03	1.407415E-03	8.797774E-05
3.375984E+03	1.433365E-03	8.922328E-05
3.385827E+03	1.460252E-03	9.051171E-05
3.395669E+03	1.488350E-03	9.185901E-05
3.405512E+03	1.517456E-03	9.325176E-05
3.415354E+03	1.547727E-03	9.469864E-05
3.425197E+03	1.579323E-03	9.620835E-05
3.435039E+03	1.612164E-03	9.777492E-05
3.444882E+03	1.646292E-03	9.939975E-05
3.454724E+03	1.681873E-03	1.010916E-04
3.464567E+03	1.718952E-03	1.028520E-04
3.474409E+03	1.757452E-03	1.046750E-04
3.484252E+03	1.797669E-03	1.065768E-04
3.494094E+03	1.839529E-03	1.085515E-04
3.503937E+03	1.883083E-03	1.106008E-04
3.513780E+03	1.928384E-03	1.127261E-04
3.523622E+03	1.975744E-03	1.149439E-04
3.533465E+03	2.024963E-03	1.172409E-04
3.543307E+03	2.076229E-03	1.196262E-04
3.553150E+03	2.129605E-03	1.221015E-04
3.562992E+03	2.185283E-03	1.246760E-04
3.572835E+03	2.243063E-03	1.273360E-04
3.582677E+03	2.303412E-03	1.301061E-04
3.592520E+03	2.366127E-03	1.329724E-04
3.602362E+03	2.431550E-03	1.359519E-04
3.612205E+03	2.499472E-03	1.390306E-04
3.622047E+03	2.570238E-03	1.422251E-04
3.631890E+03	2.643776E-03	1.455288E-04
3.641732E+03	2.720293E-03	1.489505E-04
3.651575E+03	2.799853E-03	1.524909E-04
3.661417E+03	2.882519E-03	1.561504E-04
3.671260E+03	2.968198E-03	1.599214E-04
3.681102E+03	3.057387E-03	1.638274E-04
3.690945E+03	3.149687E-03	1.678440E-04
3.700787E+03	3.245587E-03	1.719941E-04
3.710630E+03	3.344818E-03	1.762600E-04
3.720472E+03	3.447553E-03	1.806477E-04
3.730315E+03	3.553961E-03	1.851627E-04
3.740157E+03	3.663884E-03	1.897933E-04
3.750000E+03	3.777306E-03	1.945352E-04
3.759843E+03	3.894356E-03	1.993917E-04
3.769685E+03	4.014986E-03	2.043569E-04
3.779528E+03	4.139130E-03	2.094239E-04
3.789370E+03	4.266531E-03	2.145765E-04
3.799213E+03	4.397411E-03	2.198225E-04
3.809055E+03	4.531637E-03	2.251520E-04
3.818898E+03	4.668878E-03	2.305453E-04
3.828740E+03	4.808940E-03	2.359900E-04
3.838583E+03	4.951954E-03	2.414897E-04
3.848425E+03	5.097321E-03	2.470125E-04
3.858268E+03	5.244929E-03	2.525505E-04
3.868110E+03	5.394468E-03	2.580868E-04
3.877953E+03	5.545587E-03	2.636027E-04
3.887795E+03	5.697898E-03	2.690784E-04
3.897638E+03	5.851172E-03	2.745017E-04
3.907480E+03	6.004765E-03	2.798417E-04
3.917323E+03	6.158197E-03	2.850758E-04
3.927165E+03	6.310947E-03	2.901802E-04
3.937008E+03	6.462661E-03	2.951391E-04
3.946850E+03	6.612405E-03	2.999113E-04
3.956693E+03	6.759968E-03	3.044890E-04
3.966535E+03	6.904776E-03	3.088487E-04
3.976378E+03	7.045857E-03	3.129497E-04
3.986220E+03	7.182830E-03	3.167790E-04
3.996063E+03	7.315336E-03	3.203247E-04
4.005906E+03	7.442478E-03	3.235521E-04
4.015748E+03	7.563785E-03	3.264461E-04
4.025591E+03	7.679030E-03	3.290028E-04
4.035433E+03	7.787860E-03	3.312130E-04
4.045276E+03	7.889640E-03	3.330561E-04
4.055118E+03	7.984356E-03	3.345387E-04
4.064961E+03	8.071747E-03	3.356566E-04
4.074803E+03	8.151996E-03	3.364247E-04
4.084646E+03	8.224835E-03	3.368392E-04
4.094488E+03	8.290660E-03	3.369234E-04
4.104331E+03	8.349576E-03	3.366885E-04
4.114173E+03	8.401799E-03	3.361502E-04
4.124016E+03	8.447957E-03	3.353401E-04
4.133858E+03	8.488245E-03	3.342720E-04
4.143701E+03	8.523250E-03	3.329748E-04
4.153543E+03	8.553446E-03	3.314722E-04
4.163386E+03	8.579496E-03	3.297948E-04
4.173228E+03	8.601935E-03	3.279673E-04
4.183071E+03	8.621310E-03	3.260143E-04
4.192913E+03	8.638313E-03	3.239651E-04
4.202756E+03	8.653338E-03	3.218369E-04
4.212598E+03	8.666899E-03	3.196513E-04
4.222441E+03	8.679662E-03	3.174344E-04
4.232283E+03	8.692082E-03	3.152041E-04
4.242126E+03	8.704302E-03	3.129663E-04
4.251969E+03	8.717003E-03	3.107462E-04
4.261811E+03	8.730250E-03	3.085461E-04
4.271654E+03	8.744341E-03	3.063766E-04
4.281496E+03	8.759535E-03	3.042467E-04
4.291339E+03	8.775762E-03	3.021535E-04
4.301181E+03	8.793202E-03	3.001030E-04
4.311024E+03	8.811852E-03	2.980947E-04
4.320866E+03	8.831708E-03	2.961281E-04
4.330709E+03	8.852608E-03	2.941975E-04
4.340551E+03	8.874554E-03	2.923030E-04
4.350394E+03	8.897567E-03	2.904450E-04
4.360236E+03	8.921798E-03	2.886284E-04
4.370079E+03	8.947410E-03	2.868583E-04
4.379921E+03	8.974870E-03	2.851492E-04
4.389764E+03	9.004538E-03	2.835119E-04
4.399606E+03	9.037097E-03	2.819667E-04
4.409449E+03	9.073072E-03	2.805285E-04
4.419291E+03	9.113011E-03	2.792123E-04
4.429134E+03	9.157390E-03	2.780301E-04
4.438976E+03	9.206574E-03	2.769902E-04
4.448819E+03	9.260691E-03	2.760933E-04
4.458661E+03	9.320006E-03	2.753443E-04
4.468504E+03	9.384643E-03	2.747439E-04
4.478346E+03	9.454369E-03	2.742821E-04
4.488189E+03	9.529059E-03	2.739527E-04
4.498031E+03	9.608212E-03	2.737389E-04
4.507874E+03	9.691443E-03	2.736279E-04
4.517717E+03	9.778008E-03	2.735972E-04
4.527559E+03	9.867398E-03	2.736318E-04
4.537402E+03	9.958531E-03	2.737017E-04
4.547244E+03	1.005072E-02	2.737885E-04
4.557087E+03	1.014271E-02	2.738599E-04
4.566929E+03	1.023374E-02	2.738967E-04
4.576772E+03	1.032260E-02	2.738704E-04
4.586614E+03	1.040839E-02	2.737603E-04
4.596457E+03	1.048997E-02	2.735410E-04
4.606299E+03	1.056641E-02	2.731932E-04
4.616142E+03	1.063697E-02	2.727035E-04
4.625984E+03	1.070077E-02	2.720551E-04
4.635827E+03	1.075730E-02	2.712419E-04
4.645669E+03	1.080580E-02	2.702510E-04
4.655512E+03	1.084603E-02	2.690833E-04
4.665354E+03	1.087776E-02	2.677396E-04
4.675197E+03	1.090071E-02	2.662203E-04
4.685039E+03	1.091459E-02	2.645244E-04
4.694882E+03	1.091961E-02	2.626637E-04
4.704724E+03	1.091545E-02	2.606367E-04
4.714567E+03	1.090247E-02	2.584578E-04
4.724409E+03	1.088097E-02	2.561396E-04
4.734252E+03	1.085147E-02	2.536993E-04
4.744094E+03	1.081494E-02	2.511641E-04
4.753937E+03	1.077218E-02	2.485565E-04
4.763780E+03	1.072434E-02	2.459053E-04
4.773622E+03	1.067270E-02	2.432422E-04
4.783465E+03	1.061882E-02	2.406032E-04
4.793307E+03	1.056415E-02	2.380206E-04
4.803150E+03	1.051030E-02	2.355305E-04
4.812992E+03	1.045889E-02	2.331675E-04
4.822835E+03	1.041148E-02	2.309646E-04
4.832677E+03	1.036932E-02	2.289470E-04
4.842520E+03	1.033396E-02	2.271467E-04
4.852362E+03	1.030634E-02	2.255810E-04
4.862205E+03	1.028754E-02	2.242710E-04
4.872047E+03	1.027831E-02	2.232286E-04
4.881890E+03	1.027892E-02	2.224558E-04
4.891732E+03	1.028978E-02	2.219565E-04
4.901575E+03	1.031105E-02	2.217304E-04
4.911417E+03	1.034220E-02	2.217623E-04
4.921260E+03	1.038319E-02	2.220476E-04
4.931102E+03	1.043305E-02	2.225623E-04
4.940945E+03	1.049121E-02	2.232913E-04
4.950787E+03	1.055658E-02	2.242088E-04
4.960630E+03	1.062805E-02	2.252885E-04
4.970472E+03	1.070440E-02	2.265029E-04
4.980315E+03	1.078439E-02	2.278233E-04
4.990157E+03	1.086679E-02	2.292219E-04
5.000000E+03	1.095043E-02	2.306724E-04
5.009843E+03	1.103429E-02	2.321517E-04
5.019685E+03	1.111753E-02	2.336406E-04
5.029528E+03	1.119946E-02	2.351225E-04
5.039370E+03	1.127998E-02	2.365943E-04
5.049213E+03	1.135883E-02	2.380484E-04
5.059055E+03	1.143650E-02	2.394936E-04
5.068898E+03	1.151324E-02	2.409335E-04
5.078740E+03	1.158990E-02	2.423839E-04
5.088583E+03	1.166748E-02	2.438642E-04
5.098425E+03	1.174675E-02	2.453881E-04
5.108268E+03	1.182896E-02	2.469804E-04
5.118110E+03	1.191493E-02	2.486560E-04
5.127953E+03	1.200588E-02	2.504387E-04
5.137795E+03	1.210260E-02	2.523428E-04
5.147638E+03	1.220587E-02	2.543826E-04
5.157480E+03	1.231634E-02	2.565697E-04
5.167323E+03	1.243447E-02	2.589120E-04
5.177165E+03	1.256058E-02	2.614137E-04
5.187008E+03	1.269491E-02	2.640781E-04
5.196850E+03	1.283725E-02	2.668987E-04
5.206693E+03	1.298730E-02	2.698674E-04
5.216535E+03	1.314470E-02	2.729741E-04
5.226378E+03	1.330858E-02	2.761991E-04
5.236220E+03	1.347799E-02	2.795202E-04
5.246063E+03	1.365174E-02	2.829110E-04
5.255906E+03	1.382845E-02	2.863404E-04
5.265748E+03	1.400669E-02	2.897771E-04
5.275591E+03	1.418458E-02	2.931801E-04
5.285433E+03	1.436031E-02	2.965100E-04
5.295276E+03	1.453201E-02	2.997266E-04
5.305118E+03	1.469789E-02	3.027915E-04
5.314961E+03	1.485642E-02	3.056720E-04
5.324803E+03	1.500585E-02	3.083305E-04
5.334646E+03	1.514515E-02	3.107453E-04
5.344488E+03	1.527351E-02	3.128988E-04
5.354331E+03	1.538972E-02	3.147656E-04
5.364173E+03	1.549312E-02	3.163316E-04
5.374016E+03	1.558278E-02	3.175781E-04
5.383858E+03	1.565811E-02	3.184929E-04
5.393701E+03	1.571822E-02	3.190584E-04
5.403543E+03	1.576239E-02	3.192609E-04
5.413386E+03	1.578989E-02	3.190870E-04
5.423228E+03	1.580003E-02	3.185240E-04
5.433071E+03	1.579209E-02	3.175596E-04
5.442913E+03	1.576555E-02	3.161858E-04
5.452756E+03	1.571946E-02	3.143862E-04
5.462598E+03	1.565354E-02	3.121587E-04
5.472441E+03	1.556731E-02	3.094974E-04
5.482283E+03	1.546027E-02	3.063967E-04
5.492126E+03	1.533245E-02	3.028615E-04
5.501969E+03	1.518395E-02	2.988991E-04
5.511811E+03	1.501536E-02	2.945265E-04
5.521654E+03	1.482735E-02	2.897620E-04
5.531496E+03	1.462116E-02	2.846358E-04
5.541339E+03	1.439847E-02	2.791864E-04
5.551181E+03	1.416157E-02	2.734637E-04
5.561024E+03	1.391303E-02	2.675226E-04
5.570866E+03	1.365556E-02	2.614199E-04
5.580709E+03	1.339287E-02	2.552310E-04
5.590551E+03	1.312808E-02	2.490190E-04
5.600394E+03	1.286516E-02	2.428614E-04
5.610236E+03	1.260782E-02	2.368302E-04
5.620079E+03	1.235963E-02	2.309925E-04
5.629921E+03	1.212414E-02	2.254143E-04
5.639764E+03	1.190470E-02	2.201562E-04
5.649606E+03	1.170455E-02	2.152750E-04
5.659449E+03	1.152627E-02	2.108142E-04
5.669291E+03	1.137260E-02	2.068189E-04
5.679134E+03	1.124572E-02	2.033227E-04
5.688976E+03	1.114727E-02	2.003483E-04
5.698819E+03	1.107889E-02	1.979173E-04
5.708661E+03	1.104164E-02	1.960408E-04
5.718504E+03	1.103660E-02	1.947286E-04
5.728346E+03	1.106412E-02	1.939782E-04
5.738189E+03	1.112423E-02	1.937801E-04
5.748031E+03	1.121660E-02	1.941194E-04
5.757874E+03	1.134059E-02	1.949757E-04
5.767717E+03	1.149493E-02	1.963184E-04
5.777559E+03	1.167761E-02	1.981045E-04
5.787402E+03	1.188645E-02	2.002900E-04
5.797244E+03	1.211833E-02	2.028157E-04
5.807087E+03	1.236947E-02	2.056134E-04
5.816929E+03	1.263579E-02	2.086124E-04
5.826772E+03	1.291217E-02	2.117265E-04
5.836614E+03	1.319314E-02	2.148672E-04
5.846457E+03	1.347297E-02	2.179440E-04
5.856299E+03	1.374541E-02	2.208613E-04
5.866142E+03	1.400412E-02	2.235248E-04
5.875984E+03	1.424329E-02	2.258520E-04
5.885827E+03	1.445700E-02	2.277609E-04
5.895669E+03	1.464022E-02	2.291861E-04
5.905512E+03	1.478892E-02	2.300794E-04
5.915354E+03	1.489973E-02	2.304042E-04
5.925197E+03	1.497089E-02	2.301496E-04
5.935039E+03	1.500180E-02	2.293220E-04
5.944882E+03	1.499301E-02	2.279455E-04
5.954724E+03	1.494639E-02	2.260623E-04
5.964567E+03	1.486524E-02	2.237351E-04
5.974409E+03	1.475362E-02	2.210355E-04
5.984252E+03	1.461655E-02	2.180478E-04
5.994094E+03	1.445959E-02	2.148615E-04
6.003937E+03	1.428883E-02	2.115719E-04
6.013780E+03	1.411055E-02	2.082754E-04
6.023622E+03	1.393080E-02	2.050623E-04
6.033465E+03	1.375568E-02	2.020232E-04
6.043307E+03	1.359100E-02	1.992428E-04
6.053150E+03	1.344179E-02	1.967940E-04
6.062992E+03	1.331261E-02	1.947426E-04
6.072835E+03	1.320726E-02	1.931431E-04
6.082677E+03	1.312837E-02	1.920313E-04
6.092520E+03	1.307760E-02	1.914285E-04
6.102362E+03	1.305526E-02	1.913371E-04
6.112205E+03	1.305845E-02	1.917124E-04
6.122047E+03	1.308071E-02	1.924578E-04
6.131890E+03	1.311417E-02	1.934555E-04
6.141732E+03	1.315074E-02	1.945838E-04
6.151575E+03	1.318485E-02	1.957572E-04
6.161417E+03	1.321385E-02	1.969322E-04
6.171260E+03	1.323632E-02	1.980829E-04
6.181102E+03	1.325140E-02	1.991914E-04
6.190945E+03	1.325843E-02	2.002421E-04
6.200787E+03	1.325688E-02	2.012211E-04
6.210630E+03	1.324657E-02	2.021197E-04
6.220472E+03	1.322700E-02	2.029236E-04
6.230315E+03	1.319794E-02	2.036227E-04
6.240157E+03	1.315899E-02	2.042039E-04
6.250000E+03	1.311035E-02	2.046634E-04
6.259843E+03	1.305153E-02	2.049865E-04
6.269685E+03	1.298298E-02	2.051732E-04
6.279528E+03	1.290475E-02	2.052174E-04
6.289370E+03	1.281709E-02	2.051163E-04
6.299213E+03	1.272080E-02	2.048760E-04
6.309055E+03	1.261658E-02	2.045017E-04
6.318898E+03	1.250504E-02	2.039974E-04
6.328740E+03	1.238746E-02	2.033783E-04
6.338583E+03	1.226470E-02	2.026538E-04
6.348425E+03	1.213821E-02	2.018435E-04
6.358268E+03	1.200914E-02	2.009628E-04
6.368110E+03	1.187878E-02	2.000301E-04
6.377953E+03	1.174842E-02	1.990647E-04
6.387795E+03	1.161919E-02	1.980838E-04
6.397638E+03	1.149256E-02	1.971110E-04
6.407480E+03	1.136955E-02	1.961629E-04
6.417323E+03	1.125120E-02	1.952575E-04
6.427165E+03	1.113859E-02	1.944135E-04
6.437008E+03	1.103258E-02	1.936462E-04
6.446850E+03	1.093389E-02	1.929696E-04
6.456693E+03	1.084315E-02	1.923955E-04
6.466535E+03	1.076104E-02	1.919379E-04
6.476378E+03	1.068770E-02	1.916001E-04
6.486220E+03	1.062363E-02	1.913933E-04
6.496063E+03	1.056863E-02	1.913152E-04
6.505906E+03	1.052267E-02	1.913668E-04
6.515748E+03	1.048540E-02	1.915435E-04
6.525591E+03	1.045641E-02	1.918388E-04
6.535433E+03	1.043485E-02	1.922386E-04
6.545276E+03	1.042004E-02	1.927311E-04
6.555118E+03	1.041053E-02	1.932903E-04
6.564961E+03	1.040542E-02	1.938996E-04
6.574803E+03	1.040318E-02	1.945305E-04
6.584646E+03	1.040226E-02	1.951541E-04
6.594488E+03	1.040105E-02	1.957394E-04
6.604331E+03	1.039788E-02	1.962543E-04
6.614173E+03	1.039105E-02	1.966661E-04
6.624016E+03	1.037906E-02	1.969448E-04
6.633858E+03	1.036012E-02	1.970552E-04
6.643701E+03	1.033304E-02	1.969740E-04
6.653543E+03	1.029651E-02	1.966744E-04
6.663386E+03	1.024953E-02	1.961365E-04
6.673228E+03	1.019142E-02	1.953463E-04
6.683071E+03	1.012177E-02	1.942950E-04
6.692913E+03	1.004051E-02	1.929811E-04
6.702756E+03	9.948017E-03	1.914114E-04
6.712598E+03	9.844749E-03	1.895949E-04
6.722441E+03	9.731586E-03	1.875489E-04
6.732283E+03	9.609683E-03	1.852965E-04
6.742126E+03	9.480424E-03	1.828654E-04
6.751969E+03	9.345402E-03	1.802874E-04
6.761811E+03	9.206344E-03	1.775973E-04
6.771654E+03	9.065081E-03	1.748320E-04
6.781496E+03	8.923606E-03	1.720315E-04
6.791339E+03	8.783598E-03	1.692297E-04
6.801181E+03	8.647136E-03	1.664684E-04
6.811024E+03	8.515822E-03	1.637797E-04
6.820866E+03	8.391571E-03	1.612016E-04
6.830709E+03	8.275874E-03	1.587640E-04
6.840551E+03	8.170196E-03	1.564955E-04
6.850394E+03	8.075847E-03	1.544217E-04
6.860236E+03	7.993971E-03	1.525645E-04
6.870079E+03	7.925538E-03	1.509423E-04
6.879921E+03	7.871328E-03	1.495693E-04
6.889764E+03	7.831932E-03	1.484556E-04
6.899606E+03	7.807717E-03	1.476069E-04
6.909449E+03	7.798847E-03	1.470248E-04
6.919291E+03	7.805260E-03	1.467060E-04
6.929134E+03	7.826662E-03	1.466430E-04
6.938976E+03	7.862626E-03	1.468254E-04
6.948819E+03	7.912212E-03	1.472332E-04
6.958661E+03	7.974547E-03	1.478476E-04
6.968504E+03	8.048569E-03	1.486466E-04
6.978346E+03	8.132861E-03	1.496015E-04
6.988189E+03	8.225864E-03	1.506817E-04
6.998031E+03	8.326255E-03	1.518609E-04
7.007874E+03	8.432374E-03	1.531073E-04
7.017717E+03	8.542693E-03	1.543921E-04
7.027559E+03	8.655757E-03	1.556881E-04
7.037402E+03	8.770261E-03	1.569715E-04
7.047244E+03	8.885073E-03	1.582221E-04
7.057087E+03	8.999394E-03	1.594262E-04
7.066929E+03	9.112308E-03	1.605682E-04
7.076772E+03	9.223628E-03	1.616460E-04
7.086614E+03	9.333042E-03	1.626554E-04
7.096457E+03	9.440725E-03	1.636010E-04
7.106299E+03	9.546803E-03	1.644865E-04
7.116142E+03	9.651694E-03	1.653209E-04
7.125984E+03	9.755938E-03	1.661150E-04
7.135827E+03	9.860285E-03	1.668834E-04
7.145669E+03	9.965261E-03	1.676366E-04
7.155512E+03	1.007162E-02	1.683888E-04
7.165354E+03	1.017992E-02	1.691508E-04
7.175197E+03	1.029033E-02	1.699271E-04
7.185039E+03	1.040350E-02	1.707301E-04
7.194882E+03	1.051937E-02	1.715606E-04
7.204724E+03	1.063763E-02	1.724154E-04
7.214567E+03	1.075798E-02	1.732919E-04
7.224409E+03	1.087971E-02	1.741813E-04
7.234252E+03	1.100166E-02	1.750683E-04
7.244094E+03	1.112282E-02	1.759403E-04
7.253937E+03	1.124145E-02	1.767742E-04
7.263780E+03	1.135568E-02	1.775454E-04
7.273622E+03	1.146352E-02	1.782284E-04
7.283465E+03	1.156231E-02	1.787880E-04
7.293307E+03	1.164963E-02	1.791939E-04
7.303150E+03	1.172297E-02	1.794150E-04
7.312992E+03	1.177941E-02	1.794145E-04
7.322835E+03	1.181620E-02	1.791590E-04
7.332677E+03	1.183083E-02	1.786186E-04
7.342520E+03	1.182047E-02	1.777596E-04
7.352362E+03	1.178306E-02	1.765588E-04
7.362205E+03	1.171691E-02	1.749985E-04
7.372047E+03	1.162034E-02	1.730605E-04
7.381890E+03	1.149274E-02	1.707414E-04
7.391732E+03	1.133414E-02	1.680457E-04
7.401575E+03	1.114528E-02	1.649866E-04
7.411417E+03	1.092806E-02	1.615929E-04
7.421260E+03	1.068560E-02	1.579100E-04
7.431102E+03	1.042211E-02	1.539979E-04
7.440945E+03	1.014288E-02	1.499306E-04
7.450787E+03	9.853555E-03	1.457871E-04
7.460630E+03	9.559845E-03	1.416452E-04
7.470472E+03	9.267181E-03	1.375765E-04
7.480315E+03	8.980573E-03	1.336467E-04
7.490157E+03	8.704353E-03	1.299125E-04
7.500000E+03	8.442434E-03	1.264256E-04
7.509843E+03	8.197731E-03	1.232242E-04
7.519685E+03	7.972523E-03	1.203385E-04
7.529528E+03	7.767896E-03	1.177821E-04
7.539370E+03	7.583762E-03	1.155518E-04
7.549213E+03	7.419580E-03	1.136386E-04
7.559055E+03	7.274616E-03	1.120309E-04
7.568898E+03	7.147808E-03	1.107127E-04
7.578740E+03	7.038141E-03	1.096690E-04
7.588583E+03	6.944717E-03	1.088870E-04
7.598425E+03	6.866462E-03	1.083511E-04
7.608268E+03	6.802535E-03	1.080496E-04
7.618110E+03	6.751929E-03	1.079681E-04
7.627953E+03	6.713765E-03	1.080943E-04
7.637795E+03	6.687275E-03	1.084175E-04
