#wls	flux	fluxerr
1.574803E+03	8.418863E-04	1.102734E-04
1.614173E+03	8.380797E-04	1.093991E-04
1.653543E+03	8.344146E-04	1.085360E-04
1.692913E+03	8.310533E-04	1.077047E-04
1.732283E+03	8.281557E-04	1.069255E-04
1.771654E+03	8.254203E-04	1.061587E-04
1.811024E+03	8.233126E-04	1.054635E-04
1.850394E+03	8.213855E-04	1.047819E-04
1.889764E+03	8.200988E-04	1.041717E-04
1.929134E+03	8.193120E-04	1.036140E-04
1.968504E+03	8.191820E-04	1.031274E-04
2.007874E+03	8.194255E-04	1.026751E-04
2.047244E+03	8.204961E-04	1.023127E-04
2.086614E+03	8.222602E-04	1.020218E-04
2.125984E+03	8.247340E-04	1.018028E-04
2.165354E+03	8.282217E-04	1.016913E-04
2.204724E+03	8.324549E-04	1.016520E-04
2.244094E+03	8.376001E-04	1.017033E-04
2.283465E+03	8.439643E-04	1.018798E-04
2.322835E+03	8.514320E-04	1.021643E-04
2.362205E+03	8.601748E-04	1.025744E-04
2.401575E+03	8.702272E-04	1.031105E-04
2.440945E+03	8.817663E-04	1.037895E-04
2.480315E+03	8.949751E-04	1.046286E-04
2.519685E+03	9.099016E-04	1.056282E-04
2.559055E+03	9.267392E-04	1.068053E-04
2.598425E+03	9.458270E-04	1.081925E-04
2.637795E+03	9.670943E-04	1.097746E-04
2.677165E+03	9.908974E-04	1.115845E-04
2.716535E+03	1.017602E-03	1.136542E-04
2.755906E+03	1.047309E-03	1.159851E-04
2.795276E+03	1.080409E-03	1.186095E-04
2.834646E+03	1.117313E-03	1.215597E-04
2.874016E+03	1.158311E-03	1.248531E-04
2.913386E+03	1.203853E-03	1.285226E-04
2.952756E+03	1.254563E-03	1.326167E-04
2.962598E+03	1.268232E-03	1.337236E-04
2.972441E+03	1.282016E-03	1.348336E-04
2.982283E+03	1.296352E-03	1.359923E-04
2.992126E+03	1.311102E-03	1.371846E-04
3.001969E+03	1.326123E-03	1.383955E-04
3.011811E+03	1.341565E-03	1.396400E-04
3.021654E+03	1.357433E-03	1.409185E-04
3.031496E+03	1.373732E-03	1.422309E-04
3.041339E+03	1.390613E-03	1.435924E-04
3.051181E+03	1.407790E-03	1.449729E-04
3.061024E+03	1.425413E-03	1.463877E-04
3.070866E+03	1.443636E-03	1.478520E-04
3.080709E+03	1.462317E-03	1.493507E-04
3.090551E+03	1.481462E-03	1.508840E-04
3.100394E+03	1.501227E-03	1.524671E-04
3.110236E+03	1.521469E-03	1.540851E-04
3.120079E+03	1.542195E-03	1.557381E-04
3.129921E+03	1.563561E-03	1.574412E-04
3.139764E+03	1.585576E-03	1.591949E-04
3.149606E+03	1.608096E-03	1.609839E-04
3.159449E+03	1.631279E-03	1.628237E-04
3.169291E+03	1.655135E-03	1.647142E-04
3.179134E+03	1.679520E-03	1.666408E-04
3.188976E+03	1.704747E-03	1.686336E-04
3.198819E+03	1.730520E-03	1.706627E-04
3.208661E+03	1.757154E-03	1.727585E-04
3.218504E+03	1.784505E-03	1.749059E-04
3.228346E+03	1.812584E-03	1.771052E-04
3.238189E+03	1.841400E-03	1.793566E-04
3.248031E+03	1.871118E-03	1.816752E-04
3.257874E+03	1.901595E-03	1.840461E-04
3.267717E+03	1.932995E-03	1.864847E-04
3.277559E+03	1.965175E-03	1.889758E-04
3.287402E+03	1.998301E-03	1.915347E-04
3.297244E+03	2.032386E-03	1.941615E-04
3.307087E+03	2.067282E-03	1.968412E-04
3.316929E+03	2.103317E-03	1.996038E-04
3.326772E+03	2.140346E-03	2.024346E-04
3.336614E+03	2.178379E-03	2.053333E-04
3.346457E+03	2.217428E-03	2.082998E-04
3.356299E+03	2.257665E-03	2.113492E-04
3.366142E+03	2.298940E-03	2.144662E-04
3.375984E+03	2.341425E-03	2.176657E-04
3.385827E+03	2.384970E-03	2.209322E-04
3.395669E+03	2.429747E-03	2.242805E-04
3.405512E+03	2.475766E-03	2.277102E-04
3.415354E+03	2.523036E-03	2.312206E-04
3.425197E+03	2.571734E-03	2.348264E-04
3.435039E+03	2.621533E-03	2.384963E-04
3.444882E+03	2.672774E-03	2.422600E-04
3.454724E+03	2.725297E-03	2.461012E-04
3.464567E+03	2.779273E-03	2.500339E-04
3.474409E+03	2.834708E-03	2.540570E-04
3.484252E+03	2.891433E-03	2.581536E-04
3.494094E+03	2.949790E-03	2.623528E-04
3.503937E+03	3.009436E-03	2.666220E-04
3.513780E+03	3.070712E-03	2.709899E-04
3.523622E+03	3.133440E-03	2.754391E-04
3.533465E+03	3.197787E-03	2.799822E-04
3.543307E+03	3.263568E-03	2.846013E-04
3.553150E+03	3.330946E-03	2.893089E-04
3.562992E+03	3.399907E-03	2.941017E-04
3.572835E+03	3.470431E-03	2.989761E-04
3.582677E+03	3.542498E-03	3.039286E-04
3.592520E+03	3.616080E-03	3.089548E-04
3.602362E+03	3.691328E-03	3.140658E-04
3.612205E+03	3.768029E-03	3.192415E-04
3.622047E+03	3.846326E-03	3.244920E-04
3.631890E+03	3.926177E-03	3.298120E-04
3.641732E+03	4.007533E-03	3.351955E-04
3.651575E+03	4.090344E-03	3.406362E-04
3.661417E+03	4.174552E-03	3.461276E-04
3.671260E+03	4.260275E-03	3.516778E-04
3.681102E+03	4.347262E-03	3.572640E-04
3.690945E+03	4.435621E-03	3.628936E-04
3.700787E+03	4.525083E-03	3.685429E-04
3.710630E+03	4.615932E-03	3.742334E-04
3.720472E+03	4.707699E-03	3.799255E-04
3.730315E+03	4.800658E-03	3.856400E-04
3.740157E+03	4.894503E-03	3.913507E-04
3.750000E+03	4.989124E-03	3.970479E-04
3.759843E+03	5.084575E-03	4.027346E-04
3.769685E+03	5.180541E-03	4.083849E-04
3.779528E+03	5.277245E-03	4.140154E-04
3.789370E+03	5.374171E-03	4.195849E-04
3.799213E+03	5.471157E-03	4.250804E-04
3.809055E+03	5.568407E-03	4.305172E-04
3.818898E+03	5.665556E-03	4.358671E-04
3.828740E+03	5.762425E-03	4.411160E-04
3.838583E+03	5.859007E-03	4.462638E-04
3.848425E+03	5.954723E-03	4.512668E-04
3.858268E+03	6.049747E-03	4.561387E-04
3.868110E+03	6.143668E-03	4.608498E-04
3.877953E+03	6.236464E-03	4.653994E-04
3.887795E+03	6.327717E-03	4.697577E-04
3.897638E+03	6.417202E-03	4.739099E-04
3.907480E+03	6.504872E-03	4.778545E-04
3.917323E+03	6.590308E-03	4.815630E-04
3.927165E+03	6.673466E-03	4.850349E-04
3.937008E+03	6.753938E-03	4.882432E-04
3.946850E+03	6.831504E-03	4.911754E-04
3.956693E+03	6.905950E-03	4.938198E-04
3.966535E+03	6.977087E-03	4.961664E-04
3.976378E+03	7.044901E-03	4.982183E-04
3.986220E+03	7.108871E-03	4.999431E-04
3.996063E+03	7.169032E-03	5.013477E-04
4.005906E+03	7.225095E-03	5.024167E-04
4.015748E+03	7.277132E-03	5.031602E-04
4.025591E+03	7.324915E-03	5.035674E-04
4.035433E+03	7.368418E-03	5.036418E-04
4.045276E+03	7.407641E-03	5.033887E-04
4.055118E+03	7.442627E-03	5.028163E-04
4.064961E+03	7.473129E-03	5.019135E-04
4.074803E+03	7.499599E-03	5.007159E-04
4.084646E+03	7.521869E-03	4.992174E-04
4.094488E+03	7.540139E-03	4.974366E-04
4.104331E+03	7.554644E-03	4.953940E-04
4.114173E+03	7.565649E-03	4.931117E-04
4.124016E+03	7.573304E-03	4.906038E-04
4.133858E+03	7.577942E-03	4.878962E-04
4.143701E+03	7.579770E-03	4.850060E-04
4.153543E+03	7.579180E-03	4.819619E-04
4.163386E+03	7.576429E-03	4.787834E-04
4.173228E+03	7.571805E-03	4.754915E-04
4.183071E+03	7.565876E-03	4.721243E-04
4.192913E+03	7.558815E-03	4.686943E-04
4.202756E+03	7.551081E-03	4.652317E-04
4.212598E+03	7.543119E-03	4.617649E-04
4.222441E+03	7.535124E-03	4.583065E-04
4.232283E+03	7.527552E-03	4.548844E-04
4.242126E+03	7.520722E-03	4.515177E-04
4.251969E+03	7.514944E-03	4.482246E-04
4.261811E+03	7.510645E-03	4.450294E-04
4.271654E+03	7.507996E-03	4.419410E-04
4.281496E+03	7.507392E-03	4.389810E-04
4.291339E+03	7.509095E-03	4.361628E-04
4.301181E+03	7.513349E-03	4.334982E-04
4.311024E+03	7.520374E-03	4.309974E-04
4.320866E+03	7.530377E-03	4.286695E-04
4.330709E+03	7.543626E-03	4.265269E-04
4.340551E+03	7.560062E-03	4.245630E-04
4.350394E+03	7.580002E-03	4.227925E-04
4.360236E+03	7.603516E-03	4.212160E-04
4.370079E+03	7.630616E-03	4.198306E-04
4.379921E+03	7.661286E-03	4.186322E-04
4.389764E+03	7.695555E-03	4.176192E-04
4.399606E+03	7.733437E-03	4.167889E-04
4.409449E+03	7.774775E-03	4.161297E-04
4.419291E+03	7.819391E-03	4.156292E-04
4.429134E+03	7.867172E-03	4.152784E-04
4.438976E+03	7.918057E-03	4.150716E-04
4.448819E+03	7.971750E-03	4.149909E-04
4.458661E+03	8.028019E-03	4.150221E-04
4.468504E+03	8.086482E-03	4.151439E-04
4.478346E+03	8.147036E-03	4.153496E-04
4.488189E+03	8.209141E-03	4.156107E-04
4.498031E+03	8.272526E-03	4.159132E-04
4.507874E+03	8.336792E-03	4.162368E-04
4.517717E+03	8.401523E-03	4.165613E-04
4.527559E+03	8.466175E-03	4.168605E-04
4.537402E+03	8.530411E-03	4.171195E-04
4.547244E+03	8.593777E-03	4.173178E-04
4.557087E+03	8.655738E-03	4.174318E-04
4.566929E+03	8.715964E-03	4.174485E-04
4.576772E+03	8.774150E-03	4.173564E-04
4.586614E+03	8.829719E-03	4.171317E-04
4.596457E+03	8.882541E-03	4.167722E-04
4.606299E+03	8.932225E-03	4.162637E-04
4.616142E+03	8.978747E-03	4.156094E-04
4.625984E+03	9.022034E-03	4.148103E-04
4.635827E+03	9.061885E-03	4.138616E-04
4.645669E+03	9.098568E-03	4.127799E-04
4.655512E+03	9.132225E-03	4.115758E-04
4.665354E+03	9.163258E-03	4.102714E-04
4.675197E+03	9.191936E-03	4.088821E-04
4.685039E+03	9.219059E-03	4.074467E-04
4.694882E+03	9.244924E-03	4.059807E-04
4.704724E+03	9.270278E-03	4.045190E-04
4.714567E+03	9.295069E-03	4.030611E-04
4.724409E+03	9.319413E-03	4.016136E-04
4.734252E+03	9.343372E-03	4.001809E-04
4.744094E+03	9.366834E-03	3.987595E-04
4.753937E+03	9.390337E-03	3.973740E-04
4.763780E+03	9.413928E-03	3.960274E-04
4.773622E+03	9.437958E-03	3.947354E-04
4.783465E+03	9.462890E-03	3.935171E-04
4.793307E+03	9.489182E-03	3.923909E-04
4.803150E+03	9.517069E-03	3.913655E-04
4.812992E+03	9.547173E-03	3.904653E-04
4.822835E+03	9.579662E-03	3.896957E-04
4.832677E+03	9.614982E-03	3.890732E-04
4.842520E+03	9.653414E-03	3.886073E-04
4.852362E+03	9.695303E-03	3.883101E-04
4.862205E+03	9.740729E-03	3.881828E-04
4.872047E+03	9.790022E-03	3.882363E-04
4.881890E+03	9.843159E-03	3.884671E-04
4.891732E+03	9.900358E-03	3.888811E-04
4.901575E+03	9.961364E-03	3.894653E-04
4.911417E+03	1.002639E-02	3.902254E-04
4.921260E+03	1.009508E-02	3.911454E-04
4.931102E+03	1.016744E-02	3.922225E-04
4.940945E+03	1.024324E-02	3.934458E-04
4.950787E+03	1.032220E-02	3.948020E-04
4.960630E+03	1.040411E-02	3.962816E-04
4.970472E+03	1.048855E-02	3.978666E-04
4.980315E+03	1.057541E-02	3.995505E-04
4.990157E+03	1.066423E-02	4.013151E-04
5.000000E+03	1.075470E-02	4.031470E-04
5.009843E+03	1.084672E-02	4.050414E-04
5.019685E+03	1.093980E-02	4.069784E-04
5.029528E+03	1.103392E-02	4.089563E-04
5.039370E+03	1.112886E-02	4.109659E-04
5.049213E+03	1.122434E-02	4.129959E-04
5.059055E+03	1.132034E-02	4.150448E-04
5.068898E+03	1.141677E-02	4.171083E-04
5.078740E+03	1.151357E-02	4.191834E-04
5.088583E+03	1.161071E-02	4.212680E-04
5.098425E+03	1.170830E-02	4.233654E-04
5.108268E+03	1.180623E-02	4.254703E-04
5.118110E+03	1.190449E-02	4.275818E-04
5.127953E+03	1.200321E-02	4.297036E-04
5.137795E+03	1.210237E-02	4.318336E-04
5.147638E+03	1.220178E-02	4.339646E-04
5.157480E+03	1.230148E-02	4.360970E-04
5.167323E+03	1.240120E-02	4.382205E-04
5.177165E+03	1.250088E-02	4.403321E-04
5.187008E+03	1.260027E-02	4.424218E-04
5.196850E+03	1.269903E-02	4.444778E-04
5.206693E+03	1.279680E-02	4.464862E-04
5.216535E+03	1.289296E-02	4.484257E-04
5.226378E+03	1.298727E-02	4.502875E-04
5.236220E+03	1.307888E-02	4.520415E-04
5.246063E+03	1.316739E-02	4.536751E-04
5.255906E+03	1.325200E-02	4.551606E-04
5.265748E+03	1.333198E-02	4.564736E-04
5.275591E+03	1.340675E-02	4.575949E-04
5.285433E+03	1.347558E-02	4.585011E-04
5.295276E+03	1.353783E-02	4.591715E-04
5.305118E+03	1.359298E-02	4.595902E-04
5.314961E+03	1.364076E-02	4.597485E-04
5.324803E+03	1.368088E-02	4.596389E-04
5.334646E+03	1.371283E-02	4.592449E-04
5.344488E+03	1.373650E-02	4.585646E-04
5.354331E+03	1.375152E-02	4.575871E-04
5.364173E+03	1.375770E-02	4.563075E-04
5.374016E+03	1.375456E-02	4.547118E-04
5.383858E+03	1.374221E-02	4.528059E-04
5.393701E+03	1.372010E-02	4.505738E-04
5.403543E+03	1.368827E-02	4.480190E-04
5.413386E+03	1.364651E-02	4.451375E-04
5.423228E+03	1.359441E-02	4.419180E-04
5.433071E+03	1.353215E-02	4.383695E-04
5.442913E+03	1.345957E-02	4.344899E-04
5.452756E+03	1.337671E-02	4.302838E-04
5.462598E+03	1.328359E-02	4.257549E-04
5.472441E+03	1.318032E-02	4.209102E-04
5.482283E+03	1.306739E-02	4.157684E-04
5.492126E+03	1.294498E-02	4.103394E-04
5.501969E+03	1.281383E-02	4.046492E-04
5.511811E+03	1.267447E-02	3.987188E-04
5.521654E+03	1.252763E-02	3.925739E-04
5.531496E+03	1.237437E-02	3.862506E-04
5.541339E+03	1.221559E-02	3.797801E-04
5.551181E+03	1.205244E-02	3.732010E-04
5.561024E+03	1.188604E-02	3.665493E-04
5.570866E+03	1.171778E-02	3.598705E-04
5.580709E+03	1.154889E-02	3.532031E-04
5.590551E+03	1.138083E-02	3.465933E-04
5.600394E+03	1.121485E-02	3.400792E-04
5.610236E+03	1.105228E-02	3.337013E-04
5.620079E+03	1.089443E-02	3.274982E-04
5.629921E+03	1.074262E-02	3.215089E-04
5.639764E+03	1.059789E-02	3.157630E-04
5.649606E+03	1.046128E-02	3.102895E-04
5.659449E+03	1.033372E-02	3.051135E-04
5.669291E+03	1.021602E-02	3.002561E-04
5.679134E+03	1.010883E-02	2.957338E-04
5.688976E+03	1.001267E-02	2.915582E-04
5.698819E+03	9.927914E-03	2.877367E-04
5.708661E+03	9.854862E-03	2.842745E-04
5.718504E+03	9.793374E-03	2.811639E-04
5.728346E+03	9.743442E-03	2.784011E-04
5.738189E+03	9.704893E-03	2.759776E-04
5.748031E+03	9.677119E-03	2.738729E-04
5.757874E+03	9.659729E-03	2.720729E-04
5.767717E+03	9.651805E-03	2.705490E-04
5.777559E+03	9.652582E-03	2.692775E-04
5.787402E+03	9.661053E-03	2.682285E-04
5.797244E+03	9.676101E-03	2.673697E-04
5.807087E+03	9.696505E-03	2.666667E-04
5.816929E+03	9.720953E-03	2.660832E-04
5.826772E+03	9.747983E-03	2.655798E-04
5.836614E+03	9.776283E-03	2.651220E-04
5.846457E+03	9.804358E-03	2.646710E-04
5.856299E+03	9.830922E-03	2.641946E-04
5.866142E+03	9.854558E-03	2.636576E-04
5.875984E+03	9.874146E-03	2.630336E-04
5.885827E+03	9.888513E-03	2.622952E-04
5.895669E+03	9.896729E-03	2.614221E-04
5.905512E+03	9.898076E-03	2.603996E-04
5.915354E+03	9.892036E-03	2.592188E-04
5.925197E+03	9.878345E-03	2.578774E-04
5.935039E+03	9.856867E-03	2.563764E-04
5.944882E+03	9.827921E-03	2.547284E-04
5.954724E+03	9.791880E-03	2.529470E-04
5.964567E+03	9.749528E-03	2.510563E-04
5.974409E+03	9.701578E-03	2.490779E-04
5.984252E+03	9.649129E-03	2.470429E-04
5.994094E+03	9.593527E-03	2.449880E-04
6.003937E+03	9.536051E-03	2.429480E-04
6.013780E+03	9.478184E-03	2.409622E-04
6.023622E+03	9.421444E-03	2.390703E-04
6.033465E+03	9.367294E-03	2.373102E-04
6.043307E+03	9.317371E-03	2.357243E-04
6.053150E+03	9.273163E-03	2.343506E-04
6.062992E+03	9.235987E-03	2.332229E-04
6.072835E+03	9.207140E-03	2.323746E-04
6.082677E+03	9.187542E-03	2.318283E-04
6.092520E+03	9.178139E-03	2.316066E-04
6.102362E+03	9.179540E-03	2.317234E-04
6.112205E+03	9.191736E-03	2.321770E-04
6.122047E+03	9.213830E-03	2.329431E-04
6.131890E+03	9.244711E-03	2.339920E-04
6.141732E+03	9.283066E-03	2.352894E-04
6.151575E+03	9.327816E-03	2.368067E-04
6.161417E+03	9.377798E-03	2.385132E-04
6.171260E+03	9.432204E-03	2.403871E-04
6.181102E+03	9.490275E-03	2.424078E-04
6.190945E+03	9.551054E-03	2.445495E-04
6.200787E+03	9.613893E-03	2.467941E-04
6.210630E+03	9.677763E-03	2.491135E-04
6.220472E+03	9.741925E-03	2.514869E-04
6.230315E+03	9.805565E-03	2.538910E-04
6.240157E+03	9.867887E-03	2.563029E-04
6.250000E+03	9.928118E-03	2.587000E-04
6.259843E+03	9.985641E-03	2.610632E-04
6.269685E+03	1.003957E-02	2.633664E-04
6.279528E+03	1.008948E-02	2.655952E-04
6.289370E+03	1.013472E-02	2.677286E-04
6.299213E+03	1.017491E-02	2.697531E-04
6.309055E+03	1.020944E-02	2.716482E-04
6.318898E+03	1.023808E-02	2.734044E-04
6.328740E+03	1.026071E-02	2.750137E-04
6.338583E+03	1.027685E-02	2.764594E-04
6.348425E+03	1.028674E-02	2.777436E-04
6.358268E+03	1.029018E-02	2.788566E-04
6.368110E+03	1.028721E-02	2.797959E-04
6.377953E+03	1.027799E-02	2.805611E-04
6.387795E+03	1.026269E-02	2.811532E-04
6.397638E+03	1.024154E-02	2.815748E-04
6.407480E+03	1.021480E-02	2.818293E-04
6.417323E+03	1.018264E-02	2.819181E-04
6.427165E+03	1.014558E-02	2.818524E-04
6.437008E+03	1.010391E-02	2.816371E-04
6.446850E+03	1.005781E-02	2.812748E-04
6.456693E+03	1.000790E-02	2.807800E-04
6.466535E+03	9.954201E-03	2.801513E-04
6.476378E+03	9.897178E-03	2.793994E-04
6.486220E+03	9.837019E-03	2.785279E-04
6.496063E+03	9.773895E-03	2.775400E-04
6.505906E+03	9.708042E-03	2.764408E-04
6.515748E+03	9.639451E-03	2.752288E-04
6.525591E+03	9.568502E-03	2.739136E-04
6.535433E+03	9.494907E-03	2.724859E-04
6.545276E+03	9.418987E-03	2.709542E-04
6.555118E+03	9.340616E-03	2.693139E-04
6.564961E+03	9.259868E-03	2.675666E-04
6.574803E+03	9.176599E-03	2.657077E-04
6.584646E+03	9.090967E-03	2.637412E-04
6.594488E+03	9.002735E-03	2.616601E-04
6.604331E+03	8.912197E-03	2.594727E-04
6.614173E+03	8.819047E-03	2.571701E-04
6.624016E+03	8.723635E-03	2.547625E-04
6.633858E+03	8.625937E-03	2.522496E-04
6.643701E+03	8.525979E-03	2.496324E-04
6.653543E+03	8.424231E-03	2.469250E-04
6.663386E+03	8.320633E-03	2.441264E-04
6.673228E+03	8.215753E-03	2.412539E-04
6.683071E+03	8.109734E-03	2.383124E-04
6.692913E+03	8.003071E-03	2.353175E-04
6.702756E+03	7.896202E-03	2.322831E-04
6.712598E+03	7.789701E-03	2.292270E-04
6.722441E+03	7.683907E-03	2.261604E-04
6.732283E+03	7.579560E-03	2.231062E-04
6.742126E+03	7.477231E-03	2.200824E-04
6.751969E+03	7.377425E-03	2.171050E-04
6.761811E+03	7.280746E-03	2.141929E-04
6.771654E+03	7.187956E-03	2.113696E-04
6.781496E+03	7.099470E-03	2.086483E-04
6.791339E+03	7.015855E-03	2.060466E-04
6.801181E+03	6.937825E-03	2.035862E-04
6.811024E+03	6.865809E-03	2.012803E-04
6.820866E+03	6.800189E-03	1.991407E-04
6.830709E+03	6.741569E-03	1.971853E-04
6.840551E+03	6.690167E-03	1.954208E-04
6.850394E+03	6.646406E-03	1.938594E-04
6.860236E+03	6.610645E-03	1.925114E-04
6.870079E+03	6.582957E-03	1.913786E-04
6.879921E+03	6.563670E-03	1.904700E-04
6.889764E+03	6.552746E-03	1.897837E-04
6.899606E+03	6.550313E-03	1.893227E-04
6.909449E+03	6.556448E-03	1.890880E-04
6.919291E+03	6.570921E-03	1.890719E-04
6.929134E+03	6.593693E-03	1.892722E-04
6.938976E+03	6.624572E-03	1.896819E-04
6.948819E+03	6.663234E-03	1.902903E-04
6.958661E+03	6.709458E-03	1.910899E-04
6.968504E+03	6.762892E-03	1.920691E-04
6.978346E+03	6.823139E-03	1.932153E-04
6.988189E+03	6.889657E-03	1.945119E-04
6.998031E+03	6.962048E-03	1.959464E-04
7.007874E+03	7.039616E-03	1.974981E-04
7.017717E+03	7.122076E-03	1.991582E-04
7.027559E+03	7.208592E-03	2.009024E-04
7.037402E+03	7.298666E-03	2.027164E-04
7.047244E+03	7.391805E-03	2.045861E-04
7.057087E+03	7.487226E-03	2.064899E-04
7.066929E+03	7.584433E-03	2.084142E-04
7.076772E+03	7.682841E-03	2.103434E-04
7.086614E+03	7.781779E-03	2.122599E-04
7.096457E+03	7.880666E-03	2.141490E-04
7.106299E+03	7.979057E-03	2.159998E-04
7.116142E+03	8.076289E-03	2.177961E-04
7.125984E+03	8.171810E-03	2.195250E-04
7.135827E+03	8.265066E-03	2.211739E-04
7.145669E+03	8.355497E-03	2.227304E-04
7.155512E+03	8.442525E-03	2.241819E-04
7.165354E+03	8.525450E-03	2.255131E-04
7.175197E+03	8.603762E-03	2.267141E-04
7.185039E+03	8.676815E-03	2.277715E-04
7.194882E+03	8.743720E-03	2.286662E-04
7.204724E+03	8.804103E-03	2.293928E-04
7.214567E+03	8.856891E-03	2.299280E-04
7.224409E+03	8.901681E-03	2.302660E-04
7.234252E+03	8.937464E-03	2.303859E-04
7.244094E+03	8.963467E-03	2.302731E-04
7.253937E+03	8.979146E-03	2.299187E-04
7.263780E+03	8.983514E-03	2.293031E-04
7.273622E+03	8.975973E-03	2.284163E-04
7.283465E+03	8.956085E-03	2.272525E-04
7.293307E+03	8.922907E-03	2.257929E-04
7.303150E+03	8.876283E-03	2.240385E-04
7.312992E+03	8.815690E-03	2.219808E-04
7.322835E+03	8.740753E-03	2.196146E-04
7.332677E+03	8.651443E-03	2.169427E-04
7.342520E+03	8.547563E-03	2.139636E-04
7.352362E+03	8.429309E-03	2.106847E-04
7.362205E+03	8.297066E-03	2.071174E-04
7.372047E+03	8.151318E-03	2.032744E-04
7.381890E+03	7.992887E-03	1.991761E-04
7.391732E+03	7.822806E-03	1.948471E-04
7.401575E+03	7.642333E-03	1.903171E-04
7.411417E+03	7.452923E-03	1.856200E-04
7.421260E+03	7.256643E-03	1.808042E-04
7.431102E+03	7.056049E-03	1.759301E-04
7.440945E+03	6.853946E-03	1.710637E-04
7.450787E+03	6.653309E-03	1.662738E-04
7.460630E+03	6.456747E-03	1.616197E-04
7.470472E+03	6.266809E-03	1.571599E-04
7.480315E+03	6.085643E-03	1.529437E-04
7.490157E+03	5.915087E-03	1.490136E-04
7.500000E+03	5.756565E-03	1.454025E-04
7.509843E+03	5.611406E-03	1.421419E-04
7.519685E+03	5.480228E-03	1.392463E-04
7.529528E+03	5.363407E-03	1.367246E-04
7.539370E+03	5.260546E-03	1.345669E-04
7.549213E+03	5.171058E-03	1.327587E-04
7.559055E+03	5.094308E-03	1.312846E-04
7.568898E+03	5.029471E-03	1.301245E-04
7.578740E+03	4.975838E-03	1.292613E-04
7.588583E+03	4.932576E-03	1.286746E-04
7.598425E+03	4.898984E-03	1.283477E-04
7.608268E+03	4.874321E-03	1.282625E-04
7.618110E+03	4.857799E-03	1.283997E-04
7.627953E+03	4.848771E-03	1.287434E-04
7.637795E+03	4.846545E-03	1.292766E-04
