#wls	flux	fluxerr
1.574803E+03	8.247751E-04	8.776134E-05
1.614173E+03	8.186377E-04	8.681200E-05
1.653543E+03	8.126071E-04	8.587013E-05
1.692913E+03	8.069958E-04	8.496854E-05
1.732283E+03	8.015005E-04	8.407491E-05
1.771654E+03	7.964292E-04	8.322129E-05
1.811024E+03	7.916351E-04	8.239187E-05
1.850394E+03	7.872713E-04	8.160215E-05
1.889764E+03	7.831954E-04	8.083683E-05
1.929134E+03	7.797061E-04	8.012620E-05
1.968504E+03	7.766623E-04	7.945497E-05
2.007874E+03	7.740708E-04	7.882314E-05
2.047244E+03	7.719414E-04	7.823097E-05
2.086614E+03	7.705654E-04	7.770706E-05
2.125984E+03	7.698100E-04	7.723682E-05
2.165354E+03	7.696870E-04	7.682031E-05
2.204724E+03	7.704842E-04	7.648493E-05
2.244094E+03	7.719413E-04	7.620328E-05
2.283465E+03	7.743468E-04	7.600233E-05
2.322835E+03	7.777189E-04	7.588197E-05
2.362205E+03	7.820783E-04	7.584219E-05
2.401575E+03	7.875829E-04	7.589606E-05
2.440945E+03	7.942591E-04	7.604361E-05
2.480315E+03	8.022700E-04	7.629766E-05
2.519685E+03	8.117809E-04	7.667072E-05
2.559055E+03	8.228315E-04	7.716295E-05
2.598425E+03	8.355965E-04	7.778682E-05
2.637795E+03	8.502561E-04	7.855467E-05
2.677165E+03	8.669967E-04	7.947872E-05
2.716535E+03	8.860127E-04	8.057119E-05
2.755906E+03	9.076333E-04	8.185564E-05
2.795276E+03	9.319455E-04	8.333274E-05
2.834646E+03	9.594289E-04	8.503744E-05
2.874016E+03	9.903250E-04	8.698194E-05
2.913386E+03	1.025021E-03	8.918995E-05
2.952756E+03	1.063927E-03	9.168565E-05
2.962598E+03	1.074416E-03	9.236206E-05
2.972441E+03	1.085127E-03	9.305184E-05
2.982283E+03	1.096191E-03	9.376608E-05
2.992126E+03	1.107612E-03	9.450489E-05
3.001969E+03	1.119265E-03	9.525719E-05
3.011811E+03	1.131411E-03	9.604519E-05
3.021654E+03	1.143798E-03	9.684693E-05
3.031496E+03	1.156556E-03	9.767345E-05
3.041339E+03	1.169823E-03	9.853590E-05
3.051181E+03	1.183342E-03	9.941234E-05
3.061024E+03	1.197248E-03	1.003139E-04
3.070866E+03	1.211677E-03	1.012517E-04
3.080709E+03	1.226373E-03	1.022040E-04
3.090551E+03	1.241604E-03	1.031927E-04
3.100394E+03	1.257246E-03	1.042071E-04
3.110236E+03	1.273435E-03	1.052584E-04
3.120079E+03	1.290048E-03	1.063357E-04
3.129921E+03	1.307090E-03	1.074393E-04
3.139764E+03	1.324703E-03	1.085803E-04
3.149606E+03	1.342895E-03	1.097590E-04
3.159449E+03	1.361541E-03	1.109647E-04
3.169291E+03	1.380916E-03	1.122195E-04
3.179134E+03	1.400629E-03	1.134910E-04
3.188976E+03	1.421092E-03	1.148122E-04
3.198819E+03	1.442181E-03	1.161726E-04
3.208661E+03	1.463908E-03	1.175725E-04
3.218504E+03	1.486283E-03	1.190123E-04
3.228346E+03	1.509319E-03	1.204925E-04
3.238189E+03	1.533165E-03	1.220244E-04
3.248031E+03	1.557561E-03	1.235866E-04
3.257874E+03	1.582933E-03	1.252123E-04
3.267717E+03	1.609019E-03	1.268802E-04
3.277559E+03	1.635835E-03	1.285909E-04
3.287402E+03	1.663674E-03	1.303667E-04
3.297244E+03	1.692276E-03	1.321864E-04
3.307087E+03	1.721796E-03	1.340615E-04
3.316929E+03	1.752252E-03	1.359927E-04
3.326772E+03	1.783663E-03	1.379804E-04
3.336614E+03	1.816048E-03	1.400254E-04
3.346457E+03	1.849568E-03	1.421393E-04
3.356299E+03	1.884102E-03	1.443117E-04
3.366142E+03	1.919814E-03	1.465544E-04
3.375984E+03	1.956726E-03	1.488679E-04
3.385827E+03	1.994715E-03	1.512420E-04
3.395669E+03	2.033948E-03	1.536882E-04
3.405512E+03	2.074447E-03	1.562073E-04
3.415354E+03	2.116236E-03	1.587997E-04
3.425197E+03	2.159484E-03	1.614771E-04
3.435039E+03	2.204068E-03	1.642291E-04
3.444882E+03	2.250011E-03	1.670560E-04
3.454724E+03	2.297483E-03	1.699694E-04
3.464567E+03	2.346510E-03	1.729697E-04
3.474409E+03	2.396962E-03	1.760460E-04
3.484252E+03	2.449165E-03	1.792209E-04
3.494094E+03	2.502988E-03	1.824832E-04
3.503937E+03	2.558451E-03	1.858331E-04
3.513780E+03	2.615730E-03	1.892817E-04
3.523622E+03	2.674687E-03	1.928174E-04
3.533465E+03	2.735495E-03	1.964512E-04
3.543307E+03	2.798012E-03	2.001712E-04
3.553150E+03	2.862567E-03	2.039992E-04
3.562992E+03	2.929015E-03	2.079231E-04
3.572835E+03	2.997363E-03	2.119417E-04
3.582677E+03	3.067617E-03	2.160536E-04
3.592520E+03	3.139941E-03	2.202686E-04
3.602362E+03	3.214337E-03	2.245849E-04
3.612205E+03	3.290800E-03	2.290002E-04
3.622047E+03	3.369157E-03	2.335006E-04
3.631890E+03	3.449725E-03	2.381063E-04
3.641732E+03	3.532322E-03	2.428025E-04
3.651575E+03	3.617090E-03	2.475972E-04
3.661417E+03	3.703833E-03	2.524749E-04
3.671260E+03	3.792514E-03	2.574312E-04
3.681102E+03	3.883431E-03	2.624844E-04
3.690945E+03	3.976364E-03	2.676176E-04
3.700787E+03	4.071084E-03	2.728135E-04
3.710630E+03	4.167869E-03	2.780890E-04
3.720472E+03	4.266474E-03	2.834257E-04
3.730315E+03	4.366990E-03	2.888279E-04
3.740157E+03	4.469148E-03	2.942761E-04
3.750000E+03	4.573025E-03	2.997736E-04
3.759843E+03	4.678507E-03	3.053114E-04
3.769685E+03	4.785298E-03	3.108686E-04
3.779528E+03	4.893613E-03	3.164579E-04
3.789370E+03	5.002964E-03	3.220462E-04
3.799213E+03	5.113548E-03	3.276453E-04
3.809055E+03	5.224842E-03	3.332203E-04
3.818898E+03	5.337030E-03	3.387822E-04
3.828740E+03	5.449938E-03	3.443192E-04
3.838583E+03	5.562988E-03	3.497942E-04
3.848425E+03	5.676352E-03	3.552176E-04
3.858268E+03	5.789624E-03	3.605637E-04
3.868110E+03	5.902566E-03	3.658179E-04
3.877953E+03	6.015127E-03	3.709772E-04
3.887795E+03	6.126865E-03	3.760147E-04
3.897638E+03	6.237513E-03	3.809149E-04
3.907480E+03	6.346791E-03	3.856617E-04
3.917323E+03	6.454397E-03	3.902381E-04
3.927165E+03	6.560034E-03	3.946277E-04
3.937008E+03	6.663198E-03	3.988021E-04
3.946850E+03	6.763746E-03	4.027552E-04
3.956693E+03	6.861349E-03	4.064698E-04
3.966535E+03	6.955319E-03	4.099083E-04
3.976378E+03	7.045686E-03	4.130758E-04
3.986220E+03	7.131782E-03	4.159366E-04
3.996063E+03	7.213487E-03	4.184879E-04
4.005906E+03	7.290352E-03	4.207081E-04
4.015748E+03	7.362126E-03	4.225871E-04
4.025591E+03	7.428438E-03	4.241088E-04
4.035433E+03	7.489129E-03	4.252693E-04
4.045276E+03	7.544093E-03	4.260681E-04
4.055118E+03	7.593101E-03	4.264977E-04
4.064961E+03	7.636176E-03	4.265651E-04
4.074803E+03	7.673394E-03	4.262804E-04
4.084646E+03	7.704571E-03	4.256389E-04
4.094488E+03	7.729928E-03	4.246588E-04
4.104331E+03	7.749905E-03	4.233696E-04
4.114173E+03	7.764357E-03	4.217687E-04
4.124016E+03	7.773854E-03	4.198923E-04
4.133858E+03	7.778674E-03	4.177602E-04
4.143701E+03	7.779302E-03	4.154029E-04
4.153543E+03	7.775965E-03	4.128365E-04
4.163386E+03	7.769346E-03	4.101013E-04
4.173228E+03	7.759727E-03	4.072151E-04
4.183071E+03	7.747675E-03	4.042107E-04
4.192913E+03	7.733637E-03	4.011137E-04
4.202756E+03	7.718325E-03	3.979632E-04
4.212598E+03	7.701905E-03	3.947689E-04
4.222441E+03	7.685208E-03	3.915746E-04
4.232283E+03	7.668522E-03	3.883955E-04
4.242126E+03	7.652361E-03	3.852577E-04
4.251969E+03	7.637118E-03	3.821808E-04
4.261811E+03	7.623518E-03	3.792002E-04
4.271654E+03	7.611635E-03	3.763186E-04
4.281496E+03	7.602152E-03	3.735682E-04
4.291339E+03	7.595338E-03	3.709605E-04
4.301181E+03	7.591684E-03	3.685172E-04
4.311024E+03	7.591538E-03	3.662527E-04
4.320866E+03	7.595224E-03	3.641797E-04
4.330709E+03	7.603146E-03	3.623145E-04
4.340551E+03	7.615474E-03	3.606620E-04
4.350394E+03	7.632674E-03	3.592406E-04
4.360236E+03	7.654735E-03	3.580459E-04
4.370079E+03	7.682026E-03	3.570914E-04
4.379921E+03	7.714448E-03	3.563686E-04
4.389764E+03	7.752313E-03	3.558879E-04
4.399606E+03	7.795669E-03	3.556475E-04
4.409449E+03	7.844329E-03	3.556347E-04
4.419291E+03	7.898279E-03	3.558450E-04
4.429134E+03	7.957576E-03	3.562771E-04
4.438976E+03	8.021798E-03	3.569083E-04
4.448819E+03	8.090805E-03	3.577289E-04
4.458661E+03	8.164279E-03	3.587216E-04
4.468504E+03	8.241867E-03	3.598681E-04
4.478346E+03	8.323126E-03	3.611466E-04
4.488189E+03	8.407791E-03	3.625434E-04
4.498031E+03	8.495076E-03	3.640228E-04
4.507874E+03	8.584566E-03	3.655662E-04
4.517717E+03	8.675678E-03	3.671480E-04
4.527559E+03	8.767548E-03	3.687315E-04
4.537402E+03	8.859593E-03	3.702927E-04
4.547244E+03	8.950979E-03	3.717980E-04
4.557087E+03	9.040962E-03	3.732180E-04
4.566929E+03	9.128914E-03	3.745293E-04
4.576772E+03	9.213891E-03	3.756960E-04
4.586614E+03	9.295335E-03	3.766987E-04
4.596457E+03	9.372528E-03	3.775123E-04
4.606299E+03	9.445057E-03	3.781244E-04
4.616142E+03	9.512389E-03	3.785183E-04
4.625984E+03	9.574198E-03	3.786860E-04
4.635827E+03	9.630172E-03	3.786202E-04
4.645669E+03	9.680112E-03	3.783182E-04
4.655512E+03	9.724156E-03	3.777905E-04
4.665354E+03	9.762319E-03	3.770427E-04
4.675197E+03	9.794609E-03	3.760802E-04
4.685039E+03	9.821384E-03	3.749212E-04
4.694882E+03	9.842665E-03	3.735712E-04
4.704724E+03	9.858859E-03	3.720499E-04
4.714567E+03	9.870379E-03	3.703767E-04
4.724409E+03	9.877770E-03	3.685758E-04
4.734252E+03	9.881711E-03	3.666754E-04
4.744094E+03	9.883243E-03	3.647169E-04
4.753937E+03	9.883292E-03	3.627362E-04
4.763780E+03	9.883087E-03	3.607796E-04
4.773622E+03	9.883771E-03	3.588893E-04
4.783465E+03	9.886453E-03	3.571049E-04
4.793307E+03	9.892085E-03	3.554595E-04
4.803150E+03	9.901339E-03	3.539754E-04
4.812992E+03	9.915127E-03	3.526832E-04
4.822835E+03	9.933865E-03	3.515952E-04
4.832677E+03	9.958115E-03	3.507285E-04
4.842520E+03	9.988261E-03	3.500942E-04
4.852362E+03	1.002483E-02	3.497076E-04
4.862205E+03	1.006795E-02	3.495702E-04
4.872047E+03	1.011784E-02	3.496870E-04
4.881890E+03	1.017453E-02	3.500551E-04
4.891732E+03	1.023803E-02	3.506714E-04
4.901575E+03	1.030799E-02	3.515209E-04
4.911417E+03	1.038418E-02	3.525916E-04
4.921260E+03	1.046617E-02	3.538669E-04
4.931102E+03	1.055311E-02	3.553147E-04
4.940945E+03	1.064441E-02	3.569131E-04
4.950787E+03	1.073904E-02	3.586253E-04
4.960630E+03	1.083606E-02	3.604185E-04
4.970472E+03	1.093435E-02	3.622546E-04
4.980315E+03	1.103263E-02	3.640902E-04
4.990157E+03	1.112999E-02	3.658951E-04
5.000000E+03	1.122513E-02	3.676264E-04
5.009843E+03	1.131722E-02	3.692580E-04
5.019685E+03	1.140565E-02	3.707701E-04
5.029528E+03	1.148970E-02	3.721401E-04
5.039370E+03	1.156935E-02	3.733689E-04
5.049213E+03	1.164458E-02	3.744562E-04
5.059055E+03	1.171570E-02	3.754130E-04
5.068898E+03	1.178341E-02	3.762626E-04
5.078740E+03	1.184835E-02	3.770255E-04
5.088583E+03	1.191155E-02	3.777342E-04
5.098425E+03	1.197395E-02	3.784189E-04
5.108268E+03	1.203640E-02	3.791056E-04
5.118110E+03	1.209993E-02	3.798260E-04
5.127953E+03	1.216539E-02	3.806051E-04
5.137795E+03	1.223335E-02	3.814598E-04
5.147638E+03	1.230464E-02	3.824143E-04
5.157480E+03	1.237956E-02	3.834763E-04
5.167323E+03	1.245841E-02	3.846529E-04
5.177165E+03	1.254132E-02	3.859464E-04
5.187008E+03	1.262841E-02	3.873588E-04
5.196850E+03	1.271941E-02	3.888795E-04
5.206693E+03	1.281403E-02	3.904981E-04
5.216535E+03	1.291213E-02	3.922085E-04
5.226378E+03	1.301288E-02	3.939843E-04
5.236220E+03	1.311564E-02	3.958043E-04
5.246063E+03	1.321988E-02	3.976516E-04
5.255906E+03	1.332460E-02	3.994951E-04
5.265748E+03	1.342883E-02	4.013054E-04
5.275591E+03	1.353158E-02	4.030523E-04
5.285433E+03	1.363196E-02	4.047094E-04
5.295276E+03	1.372887E-02	4.062442E-04
5.305118E+03	1.382149E-02	4.076328E-04
5.314961E+03	1.390921E-02	4.088586E-04
5.324803E+03	1.399136E-02	4.099020E-04
5.334646E+03	1.406711E-02	4.107398E-04
5.344488E+03	1.413596E-02	4.113583E-04
5.354331E+03	1.419726E-02	4.117402E-04
5.364173E+03	1.425041E-02	4.118697E-04
5.374016E+03	1.429467E-02	4.117268E-04
5.383858E+03	1.432962E-02	4.113018E-04
5.393701E+03	1.435470E-02	4.105806E-04
5.403543E+03	1.436937E-02	4.095501E-04
5.413386E+03	1.437308E-02	4.081976E-04
5.423228E+03	1.436529E-02	4.065105E-04
5.433071E+03	1.434544E-02	4.044765E-04
5.442913E+03	1.431298E-02	4.020831E-04
5.452756E+03	1.426734E-02	3.993180E-04
5.462598E+03	1.420779E-02	3.961650E-04
5.472441E+03	1.413394E-02	3.926173E-04
5.482283E+03	1.404513E-02	3.886618E-04
5.492126E+03	1.394097E-02	3.842918E-04
5.501969E+03	1.382148E-02	3.795133E-04
5.511811E+03	1.368617E-02	3.743184E-04
5.521654E+03	1.353540E-02	3.687217E-04
5.531496E+03	1.336982E-02	3.627466E-04
5.541339E+03	1.319016E-02	3.564184E-04
5.551181E+03	1.299755E-02	3.497725E-04
5.561024E+03	1.279379E-02	3.428619E-04
5.570866E+03	1.258087E-02	3.357447E-04
5.580709E+03	1.236102E-02	3.284836E-04
5.590551E+03	1.213684E-02	3.211505E-04
5.600394E+03	1.191124E-02	3.138243E-04
5.610236E+03	1.168685E-02	3.065757E-04
5.620079E+03	1.146672E-02	2.994841E-04
5.629921E+03	1.125366E-02	2.926227E-04
5.639764E+03	1.105032E-02	2.860579E-04
5.649606E+03	1.085934E-02	2.798555E-04
5.659449E+03	1.068284E-02	2.740664E-04
5.669291E+03	1.052313E-02	2.687452E-04
5.679134E+03	1.038183E-02	2.639281E-04
5.688976E+03	1.026056E-02	2.596507E-04
5.698819E+03	1.016049E-02	2.559361E-04
5.708661E+03	1.008266E-02	2.528039E-04
5.718504E+03	1.002753E-02	2.502584E-04
5.728346E+03	9.995598E-03	2.483054E-04
5.738189E+03	9.986686E-03	2.469331E-04
5.748031E+03	1.000054E-02	2.461283E-04
5.757874E+03	1.003634E-02	2.458644E-04
5.767717E+03	1.009310E-02	2.461111E-04
5.777559E+03	1.016923E-02	2.468236E-04
5.787402E+03	1.026274E-02	2.479489E-04
5.797244E+03	1.037151E-02	2.494320E-04
5.807087E+03	1.049264E-02	2.512001E-04
5.816929E+03	1.062317E-02	2.531803E-04
5.826772E+03	1.075971E-02	2.552912E-04
5.836614E+03	1.089839E-02	2.574417E-04
5.846457E+03	1.103556E-02	2.595478E-04
5.856299E+03	1.116721E-02	2.615183E-04
5.866142E+03	1.128947E-02	2.632671E-04
5.875984E+03	1.139875E-02	2.647163E-04
5.885827E+03	1.149145E-02	2.657892E-04
5.895669E+03	1.156477E-02	2.664282E-04
5.905512E+03	1.161647E-02	2.665898E-04
5.915354E+03	1.164461E-02	2.662380E-04
5.925197E+03	1.164834E-02	2.653616E-04
5.935039E+03	1.162756E-02	2.639664E-04
5.944882E+03	1.158269E-02	2.620696E-04
5.954724E+03	1.151508E-02	2.597089E-04
5.964567E+03	1.142666E-02	2.569336E-04
5.974409E+03	1.131979E-02	2.538021E-04
5.984252E+03	1.119777E-02	2.503924E-04
5.994094E+03	1.106371E-02	2.467766E-04
6.003937E+03	1.092137E-02	2.430412E-04
6.013780E+03	1.077446E-02	2.392694E-04
6.023622E+03	1.062679E-02	2.355460E-04
6.033465E+03	1.048199E-02	2.319511E-04
6.043307E+03	1.034372E-02	2.285647E-04
6.053150E+03	1.021520E-02	2.254565E-04
6.062992E+03	1.009942E-02	2.226914E-04
6.072835E+03	9.998987E-03	2.203254E-04
6.082677E+03	9.915766E-03	2.183966E-04
6.092520E+03	9.851555E-03	2.169421E-04
6.102362E+03	9.806794E-03	2.159690E-04
6.112205E+03	9.781525E-03	2.154759E-04
6.122047E+03	9.774119E-03	2.154251E-04
6.131890E+03	9.782671E-03	2.157729E-04
6.141732E+03	9.805006E-03	2.164703E-04
6.151575E+03	9.838843E-03	2.174659E-04
6.161417E+03	9.882340E-03	2.187181E-04
6.171260E+03	9.933649E-03	2.201854E-04
6.181102E+03	9.991077E-03	2.218293E-04
6.190945E+03	1.005298E-02	2.236124E-04
6.200787E+03	1.011766E-02	2.254958E-04
6.210630E+03	1.018355E-02	2.274434E-04
6.220472E+03	1.024914E-02	2.294199E-04
6.230315E+03	1.031297E-02	2.313910E-04
6.240157E+03	1.037366E-02	2.333236E-04
6.250000E+03	1.042984E-02	2.351846E-04
6.259843E+03	1.048058E-02	2.369503E-04
6.269685E+03	1.052489E-02	2.385954E-04
6.279528E+03	1.056174E-02	2.400936E-04
6.289370E+03	1.059083E-02	2.414346E-04
6.299213E+03	1.061161E-02	2.426027E-04
6.309055E+03	1.062400E-02	2.435920E-04
6.318898E+03	1.062795E-02	2.443981E-04
6.328740E+03	1.062384E-02	2.450260E-04
6.338583E+03	1.061188E-02	2.454769E-04
6.348425E+03	1.059263E-02	2.457608E-04
6.358268E+03	1.056690E-02	2.458927E-04
6.368110E+03	1.053534E-02	2.458850E-04
6.377953E+03	1.049867E-02	2.457517E-04
6.387795E+03	1.045788E-02	2.455131E-04
6.397638E+03	1.041361E-02	2.451822E-04
6.407480E+03	1.036674E-02	2.447776E-04
6.417323E+03	1.031802E-02	2.443149E-04
6.427165E+03	1.026794E-02	2.438045E-04
6.437008E+03	1.021739E-02	2.432660E-04
6.446850E+03	1.016668E-02	2.427054E-04
6.456693E+03	1.011660E-02	2.421405E-04
6.466535E+03	1.006743E-02	2.415776E-04
6.476378E+03	1.001952E-02	2.410238E-04
6.486220E+03	9.973421E-03	2.404922E-04
6.496063E+03	9.929176E-03	2.399831E-04
6.505906E+03	9.887023E-03	2.395020E-04
6.515748E+03	9.846753E-03	2.390434E-04
6.525591E+03	9.808461E-03	2.386093E-04
6.535433E+03	9.771774E-03	2.381902E-04
6.545276E+03	9.736283E-03	2.377759E-04
6.555118E+03	9.701575E-03	2.373560E-04
6.564961E+03	9.666786E-03	2.369088E-04
6.574803E+03	9.631394E-03	2.364211E-04
6.584646E+03	9.594577E-03	2.358724E-04
6.594488E+03	9.555376E-03	2.352384E-04
6.604331E+03	9.513006E-03	2.344994E-04
6.614173E+03	9.466589E-03	2.336332E-04
6.624016E+03	9.415298E-03	2.326190E-04
6.633858E+03	9.358471E-03	2.314400E-04
6.643701E+03	9.295259E-03	2.300747E-04
6.653543E+03	9.225459E-03	2.285180E-04
6.663386E+03	9.148518E-03	2.267561E-04
6.673228E+03	9.064381E-03	2.247876E-04
6.683071E+03	8.972981E-03	2.226111E-04
6.692913E+03	8.874871E-03	2.202406E-04
6.702756E+03	8.770176E-03	2.176797E-04
6.712598E+03	8.659728E-03	2.149499E-04
6.722441E+03	8.544226E-03	2.120693E-04
6.732283E+03	8.424814E-03	2.090673E-04
6.742126E+03	8.302360E-03	2.059664E-04
6.751969E+03	8.178126E-03	2.027990E-04
6.761811E+03	8.053344E-03	1.995969E-04
6.771654E+03	7.929282E-03	1.963926E-04
6.781496E+03	7.807236E-03	1.932194E-04
6.791339E+03	7.688575E-03	1.901121E-04
6.801181E+03	7.574464E-03	1.871004E-04
6.811024E+03	7.466202E-03	1.842172E-04
6.820866E+03	7.364859E-03	1.814894E-04
6.830709E+03	7.271612E-03	1.789465E-04
6.840551E+03	7.187460E-03	1.766131E-04
6.850394E+03	7.113235E-03	1.745097E-04
6.860236E+03	7.049839E-03	1.726579E-04
6.870079E+03	6.997970E-03	1.710744E-04
6.879921E+03	6.958218E-03	1.697726E-04
6.889764E+03	6.931018E-03	1.687621E-04
6.899606E+03	6.916660E-03	1.680486E-04
6.909449E+03	6.915265E-03	1.676336E-04
6.919291E+03	6.926763E-03	1.675135E-04
6.929134E+03	6.950910E-03	1.676806E-04
6.938976E+03	6.987234E-03	1.681217E-04
6.948819E+03	7.035170E-03	1.688210E-04
6.958661E+03	7.093676E-03	1.697516E-04
6.968504E+03	7.161878E-03	1.708908E-04
6.978346E+03	7.238498E-03	1.722062E-04
6.988189E+03	7.322200E-03	1.736647E-04
6.998031E+03	7.411675E-03	1.752338E-04
7.007874E+03	7.505385E-03	1.768763E-04
7.017717E+03	7.601907E-03	1.785580E-04
7.027559E+03	7.699984E-03	1.802492E-04
7.037402E+03	7.798273E-03	1.819187E-04
7.047244E+03	7.895773E-03	1.835435E-04
7.057087E+03	7.991478E-03	1.851011E-04
7.066929E+03	8.084753E-03	1.865780E-04
7.076772E+03	8.175092E-03	1.879639E-04
7.086614E+03	8.262062E-03	1.892505E-04
7.096457E+03	8.345725E-03	1.904410E-04
7.106299E+03	8.425879E-03	1.915327E-04
7.116142E+03	8.502767E-03	1.925333E-04
7.125984E+03	8.576612E-03	1.934497E-04
7.135827E+03	8.647799E-03	1.942929E-04
7.145669E+03	8.716487E-03	1.950684E-04
7.155512E+03	8.782927E-03	1.957840E-04
7.165354E+03	8.847284E-03	1.964456E-04
7.175197E+03	8.909859E-03	1.970619E-04
7.185039E+03	8.970348E-03	1.976287E-04
7.194882E+03	9.028641E-03	1.981458E-04
7.204724E+03	9.084214E-03	1.986041E-04
7.214567E+03	9.136730E-03	1.989992E-04
7.224409E+03	9.185208E-03	1.993125E-04
7.234252E+03	9.228857E-03	1.995299E-04
7.244094E+03	9.266616E-03	1.996320E-04
7.253937E+03	9.297197E-03	1.995947E-04
7.263780E+03	9.319448E-03	1.993971E-04
7.273622E+03	9.331818E-03	1.990101E-04
7.283465E+03	9.332976E-03	1.984097E-04
7.293307E+03	9.321780E-03	1.975760E-04
7.303150E+03	9.296670E-03	1.964804E-04
7.312992E+03	9.256737E-03	1.951080E-04
7.322835E+03	9.201145E-03	1.934455E-04
7.332677E+03	9.129426E-03	1.914870E-04
7.342520E+03	9.041122E-03	1.892264E-04
7.352362E+03	8.936332E-03	1.866690E-04
7.362205E+03	8.815334E-03	1.838231E-04
7.372047E+03	8.678864E-03	1.807058E-04
7.381890E+03	8.527748E-03	1.773354E-04
7.391732E+03	8.363386E-03	1.737411E-04
7.401575E+03	8.187258E-03	1.699533E-04
7.411417E+03	8.001370E-03	1.660125E-04
7.421260E+03	7.807918E-03	1.619627E-04
7.431102E+03	7.609208E-03	1.578497E-04
7.440945E+03	7.408144E-03	1.537311E-04
7.450787E+03	7.207385E-03	1.496592E-04
7.460630E+03	7.009618E-03	1.456852E-04
7.470472E+03	6.817409E-03	1.418577E-04
7.480315E+03	6.633036E-03	1.382201E-04
7.490157E+03	6.458644E-03	1.348134E-04
7.500000E+03	6.296146E-03	1.316745E-04
7.509843E+03	6.147037E-03	1.288326E-04
7.519685E+03	6.012197E-03	1.263042E-04
7.529528E+03	5.892126E-03	1.240989E-04
7.539370E+03	5.786555E-03	1.222105E-04
7.549213E+03	5.694977E-03	1.206280E-04
7.559055E+03	5.616529E-03	1.193334E-04
7.568898E+03	5.550432E-03	1.183105E-04
7.578740E+03	5.496078E-03	1.175468E-04
7.588583E+03	5.452574E-03	1.170240E-04
7.598425E+03	5.419279E-03	1.167289E-04
7.608268E+03	5.395513E-03	1.166477E-04
7.618110E+03	5.380635E-03	1.167675E-04
7.627953E+03	5.374008E-03	1.170750E-04
7.637795E+03	5.374929E-03	1.175560E-04
