#wls	flux	fluxerr
1.574803E+03	7.191743E-04	7.558062E-05
1.614173E+03	7.187883E-04	7.527994E-05
1.653543E+03	7.186928E-04	7.500318E-05
1.692913E+03	7.188945E-04	7.475058E-05
1.732283E+03	7.194027E-04	7.452262E-05
1.771654E+03	7.203585E-04	7.433334E-05
1.811024E+03	7.216400E-04	7.416951E-05
1.850394E+03	7.232598E-04	7.403184E-05
1.889764E+03	7.254916E-04	7.394761E-05
1.929134E+03	7.282176E-04	7.390384E-05
1.968504E+03	7.314541E-04	7.390131E-05
2.007874E+03	7.353467E-04	7.395372E-05
2.047244E+03	7.399142E-04	7.406174E-05
2.086614E+03	7.453059E-04	7.423899E-05
2.125984E+03	7.512864E-04	7.446060E-05
2.165354E+03	7.582675E-04	7.476593E-05
2.204724E+03	7.661487E-04	7.514318E-05
2.244094E+03	7.749601E-04	7.559346E-05
2.283465E+03	7.848657E-04	7.613070E-05
2.322835E+03	7.960316E-04	7.676859E-05
2.362205E+03	8.085014E-04	7.750860E-05
2.401575E+03	8.224510E-04	7.836465E-05
2.440945E+03	8.378037E-04	7.932614E-05
2.480315E+03	8.550073E-04	8.043193E-05
2.519685E+03	8.739979E-04	8.167180E-05
2.559055E+03	8.949785E-04	8.306028E-05
2.598425E+03	9.181610E-04	8.461207E-05
2.637795E+03	9.439014E-04	8.635429E-05
2.677165E+03	9.723025E-04	8.828991E-05
2.716535E+03	1.003611E-03	9.043437E-05
2.755906E+03	1.038359E-03	9.282763E-05
2.795276E+03	1.076557E-03	9.546160E-05
2.834646E+03	1.118775E-03	9.837703E-05
2.874016E+03	1.165471E-03	1.016030E-04
2.913386E+03	1.216991E-03	1.051571E-04
2.952756E+03	1.273848E-03	1.090694E-04
2.962598E+03	1.289033E-03	1.101134E-04
2.972441E+03	1.304643E-03	1.111863E-04
2.982283E+03	1.320540E-03	1.122761E-04
2.992126E+03	1.336872E-03	1.133952E-04
3.001969E+03	1.353644E-03	1.145436E-04
3.011811E+03	1.370861E-03	1.157215E-04
3.021654E+03	1.388528E-03	1.169289E-04
3.031496E+03	1.406505E-03	1.181538E-04
3.041339E+03	1.425089E-03	1.194208E-04
3.051181E+03	1.444139E-03	1.207177E-04
3.061024E+03	1.463661E-03	1.220447E-04
3.070866E+03	1.483661E-03	1.234018E-04
3.080709E+03	1.504145E-03	1.247894E-04
3.090551E+03	1.525268E-03	1.262196E-04
3.100394E+03	1.546887E-03	1.276804E-04
3.110236E+03	1.569008E-03	1.291719E-04
3.120079E+03	1.591789E-03	1.307065E-04
3.129921E+03	1.615086E-03	1.322721E-04
3.139764E+03	1.639056E-03	1.338811E-04
3.149606E+03	1.663707E-03	1.355337E-04
3.159449E+03	1.688895E-03	1.372175E-04
3.169291E+03	1.714779E-03	1.389451E-04
3.179134E+03	1.741213E-03	1.407041E-04
3.188976E+03	1.768513E-03	1.425196E-04
3.198819E+03	1.796378E-03	1.443667E-04
3.208661E+03	1.825125E-03	1.462704E-04
3.218504E+03	1.854452E-03	1.482059E-04
3.228346E+03	1.884678E-03	1.501981E-04
3.238189E+03	1.915657E-03	1.522346E-04
3.248031E+03	1.947394E-03	1.543154E-04
3.257874E+03	1.980057E-03	1.564531E-04
3.267717E+03	2.013495E-03	1.586352E-04
3.277559E+03	2.047876E-03	1.608740E-04
3.287402E+03	2.083047E-03	1.631569E-04
3.297244E+03	2.119177E-03	1.654966E-04
3.307087E+03	2.156274E-03	1.678927E-04
3.316929E+03	2.194182E-03	1.703326E-04
3.326772E+03	2.233234E-03	1.728412E-04
3.336614E+03	2.273276E-03	1.754057E-04
3.346457E+03	2.314313E-03	1.780258E-04
3.356299E+03	2.356350E-03	1.807010E-04
3.366142E+03	2.399394E-03	1.834310E-04
3.375984E+03	2.443615E-03	1.862280E-04
3.385827E+03	2.488851E-03	1.890786E-04
3.395669E+03	2.535274E-03	1.919951E-04
3.405512E+03	2.582886E-03	1.949767E-04
3.415354E+03	2.631691E-03	1.980225E-04
3.425197E+03	2.681518E-03	2.011190E-04
3.435039E+03	2.732710E-03	2.042907E-04
3.444882E+03	2.785094E-03	2.075237E-04
3.454724E+03	2.838668E-03	2.108168E-04
3.464567E+03	2.893601E-03	2.141815E-04
3.474409E+03	2.949713E-03	2.176035E-04
3.484252E+03	3.006998E-03	2.210811E-04
3.494094E+03	3.065796E-03	2.246385E-04
3.503937E+03	3.125746E-03	2.282479E-04
3.513780E+03	3.187190E-03	2.319331E-04
3.523622E+03	3.249756E-03	2.356659E-04
3.533465E+03	3.313782E-03	2.394700E-04
3.543307E+03	3.379072E-03	2.433296E-04
3.553150E+03	3.445782E-03	2.472551E-04
3.562992E+03	3.513707E-03	2.512304E-04
3.572835E+03	3.582998E-03	2.552654E-04
3.582677E+03	3.653626E-03	2.593566E-04
3.592520E+03	3.725553E-03	2.635003E-04
3.602362E+03	3.798744E-03	2.676928E-04
3.612205E+03	3.873339E-03	2.719428E-04
3.622047E+03	3.949109E-03	2.762331E-04
3.631890E+03	4.026002E-03	2.805590E-04
3.641732E+03	4.104152E-03	2.849287E-04
3.651575E+03	4.183499E-03	2.893369E-04
3.661417E+03	4.263981E-03	2.937783E-04
3.671260E+03	4.345530E-03	2.982472E-04
3.681102E+03	4.428261E-03	3.027504E-04
3.690945E+03	4.511911E-03	3.072689E-04
3.700787E+03	4.596396E-03	3.117963E-04
3.710630E+03	4.681817E-03	3.163384E-04
3.720472E+03	4.767895E-03	3.208756E-04
3.730315E+03	4.854900E-03	3.254254E-04
3.740157E+03	4.942550E-03	3.299681E-04
3.750000E+03	5.030729E-03	3.344953E-04
3.759843E+03	5.119320E-03	3.389986E-04
3.769685E+03	5.208207E-03	3.434700E-04
3.779528E+03	5.297446E-03	3.479129E-04
3.789370E+03	5.386908E-03	3.523184E-04
3.799213E+03	5.476255E-03	3.566641E-04
3.809055E+03	5.565723E-03	3.609655E-04
3.818898E+03	5.654783E-03	3.651881E-04
3.828740E+03	5.743458E-03	3.693337E-04
3.838583E+03	5.831773E-03	3.734042E-04
3.848425E+03	5.919184E-03	3.773650E-04
3.858268E+03	6.005879E-03	3.812290E-04
3.868110E+03	6.091677E-03	3.849850E-04
3.877953E+03	6.176202E-03	3.886102E-04
3.887795E+03	6.259261E-03	3.920936E-04
3.897638E+03	6.340843E-03	3.954356E-04
3.907480E+03	6.420556E-03	3.986132E-04
3.917323E+03	6.498383E-03	4.016268E-04
3.927165E+03	6.574117E-03	4.044654E-04
3.937008E+03	6.647561E-03	4.071187E-04
3.946850E+03	6.718340E-03	4.095656E-04
3.956693E+03	6.786264E-03	4.117972E-04
3.966535E+03	6.851500E-03	4.138258E-04
3.976378E+03	6.913528E-03	4.156227E-04
3.986220E+03	6.972204E-03	4.171818E-04
3.996063E+03	7.027559E-03	4.185082E-04
4.005906E+03	7.079306E-03	4.195876E-04
4.015748E+03	7.127530E-03	4.204282E-04
4.025591E+03	7.171994E-03	4.210192E-04
4.035433E+03	7.212504E-03	4.213528E-04
4.045276E+03	7.249390E-03	4.214515E-04
4.055118E+03	7.282357E-03	4.213016E-04
4.064961E+03	7.311637E-03	4.209198E-04
4.074803E+03	7.337165E-03	4.203059E-04
4.084646E+03	7.359088E-03	4.194715E-04
4.094488E+03	7.377578E-03	4.184296E-04
4.104331E+03	7.392841E-03	4.171952E-04
4.114173E+03	7.404820E-03	4.157678E-04
4.124016E+03	7.413937E-03	4.141740E-04
4.133858E+03	7.420493E-03	4.124334E-04
4.143701E+03	7.424667E-03	4.105580E-04
4.153543E+03	7.426668E-03	4.085619E-04
4.163386E+03	7.426879E-03	4.064678E-04
4.173228E+03	7.425680E-03	4.042984E-04
4.183071E+03	7.423340E-03	4.020697E-04
4.192913E+03	7.420141E-03	3.997980E-04
4.202756E+03	7.416509E-03	3.975071E-04
4.212598E+03	7.412745E-03	3.952137E-04
4.222441E+03	7.409270E-03	3.929405E-04
4.232283E+03	7.406154E-03	3.906913E-04
4.242126E+03	7.404059E-03	3.885007E-04
4.251969E+03	7.402931E-03	3.863653E-04
4.261811E+03	7.403416E-03	3.843182E-04
4.271654E+03	7.405564E-03	3.823608E-04
4.281496E+03	7.409656E-03	3.805065E-04
4.291339E+03	7.416065E-03	3.787731E-04
4.301181E+03	7.424923E-03	3.771655E-04
4.311024E+03	7.436345E-03	3.756880E-04
4.320866E+03	7.450542E-03	3.743493E-04
4.330709E+03	7.467695E-03	3.731566E-04
4.340551E+03	7.487861E-03	3.721106E-04
4.350394E+03	7.510956E-03	3.712051E-04
4.360236E+03	7.537183E-03	3.704481E-04
4.370079E+03	7.566507E-03	3.698357E-04
4.379921E+03	7.598845E-03	3.693618E-04
4.389764E+03	7.634297E-03	3.690293E-04
4.399606E+03	7.673007E-03	3.688432E-04
4.409449E+03	7.714885E-03	3.687969E-04
4.419291E+03	7.760096E-03	3.688964E-04
4.429134E+03	7.808452E-03	3.691306E-04
4.438976E+03	7.860040E-03	3.695017E-04
4.448819E+03	7.914586E-03	3.699950E-04
4.458661E+03	7.971976E-03	3.706034E-04
4.468504E+03	8.031958E-03	3.713139E-04
4.478346E+03	8.094339E-03	3.721161E-04
4.488189E+03	8.158785E-03	3.729938E-04
4.498031E+03	8.225023E-03	3.739336E-04
4.507874E+03	8.292643E-03	3.749165E-04
4.517717E+03	8.361218E-03	3.759231E-04
4.527559E+03	8.430383E-03	3.769371E-04
4.537402E+03	8.499654E-03	3.779375E-04
4.547244E+03	8.568647E-03	3.789080E-04
4.557087E+03	8.636757E-03	3.798233E-04
4.566929E+03	8.703687E-03	3.806718E-04
4.576772E+03	8.768952E-03	3.814343E-04
4.586614E+03	8.832177E-03	3.820967E-04
4.596457E+03	8.892817E-03	3.826379E-04
4.606299E+03	8.950660E-03	3.830516E-04
4.616142E+03	9.005235E-03	3.833207E-04
4.625984E+03	9.056305E-03	3.834384E-04
4.635827E+03	9.103593E-03	3.833963E-04
4.645669E+03	9.146986E-03	3.831932E-04
4.655512E+03	9.186106E-03	3.828167E-04
4.665354E+03	9.220963E-03	3.822710E-04
4.675197E+03	9.251308E-03	3.815495E-04
4.685039E+03	9.276996E-03	3.806500E-04
4.694882E+03	9.298002E-03	3.795751E-04
4.704724E+03	9.314177E-03	3.783225E-04
4.714567E+03	9.326168E-03	3.769221E-04
4.724409E+03	9.334550E-03	3.754002E-04
4.734252E+03	9.340164E-03	3.737932E-04
4.744094E+03	9.343381E-03	3.721183E-04
4.753937E+03	9.345104E-03	3.704131E-04
4.763780E+03	9.345867E-03	3.687001E-04
4.773622E+03	9.346218E-03	3.670016E-04
4.783465E+03	9.346718E-03	3.653393E-04
4.793307E+03	9.348156E-03	3.637432E-04
4.803150E+03	9.350914E-03	3.622274E-04
4.812992E+03	9.355671E-03	3.608168E-04
4.822835E+03	9.362980E-03	3.595312E-04
4.832677E+03	9.373451E-03	3.583922E-04
4.842520E+03	9.387360E-03	3.574083E-04
4.852362E+03	9.405317E-03	3.566007E-04
4.862205E+03	9.427577E-03	3.559767E-04
4.872047E+03	9.454432E-03	3.555449E-04
4.881890E+03	9.486195E-03	3.553146E-04
4.891732E+03	9.522914E-03	3.552850E-04
4.901575E+03	9.564868E-03	3.554640E-04
4.911417E+03	9.611851E-03	3.558414E-04
4.921260E+03	9.663902E-03	3.564162E-04
4.931102E+03	9.720985E-03	3.571847E-04
4.940945E+03	9.782812E-03	3.581342E-04
4.950787E+03	9.849239E-03	3.592572E-04
4.960630E+03	9.919985E-03	3.605417E-04
4.970472E+03	9.994733E-03	3.619742E-04
4.980315E+03	1.007314E-02	3.635405E-04
4.990157E+03	1.015484E-02	3.652267E-04
5.000000E+03	1.023960E-02	3.670221E-04
5.009843E+03	1.032708E-02	3.689136E-04
5.019685E+03	1.041693E-02	3.708881E-04
5.029528E+03	1.050886E-02	3.729341E-04
5.039370E+03	1.060259E-02	3.750408E-04
5.049213E+03	1.069799E-02	3.772029E-04
5.059055E+03	1.079463E-02	3.794047E-04
5.068898E+03	1.089267E-02	3.816513E-04
5.078740E+03	1.099174E-02	3.839294E-04
5.088583E+03	1.109184E-02	3.862380E-04
5.098425E+03	1.119276E-02	3.885695E-04
5.108268E+03	1.129463E-02	3.909283E-04
5.118110E+03	1.139713E-02	3.933029E-04
5.127953E+03	1.150028E-02	3.956938E-04
5.137795E+03	1.160398E-02	3.980968E-04
5.147638E+03	1.170810E-02	4.005074E-04
5.157480E+03	1.181247E-02	4.029196E-04
5.167323E+03	1.191688E-02	4.053264E-04
5.177165E+03	1.202111E-02	4.077195E-04
5.187008E+03	1.212474E-02	4.100848E-04
5.196850E+03	1.222752E-02	4.124145E-04
5.206693E+03	1.232908E-02	4.146957E-04
5.216535E+03	1.242882E-02	4.169086E-04
5.226378E+03	1.252635E-02	4.190407E-04
5.236220E+03	1.262096E-02	4.210688E-04
5.246063E+03	1.271217E-02	4.229773E-04
5.255906E+03	1.279903E-02	4.247361E-04
5.265748E+03	1.288112E-02	4.263315E-04
5.275591E+03	1.295745E-02	4.277327E-04
5.285433E+03	1.302747E-02	4.289225E-04
5.295276E+03	1.309043E-02	4.298781E-04
5.305118E+03	1.314603E-02	4.305912E-04
5.314961E+03	1.319380E-02	4.310478E-04
5.324803E+03	1.323334E-02	4.312358E-04
5.334646E+03	1.326466E-02	4.311574E-04
5.344488E+03	1.328726E-02	4.307980E-04
5.354331E+03	1.330106E-02	4.301559E-04
5.364173E+03	1.330584E-02	4.292264E-04
5.374016E+03	1.330126E-02	4.280000E-04
5.383858E+03	1.328754E-02	4.264850E-04
5.393701E+03	1.326449E-02	4.246776E-04
5.403543E+03	1.323262E-02	4.225953E-04
5.413386E+03	1.319191E-02	4.202398E-04
5.423228E+03	1.314213E-02	4.176047E-04
5.433071E+03	1.308254E-02	4.146689E-04
5.442913E+03	1.301326E-02	4.114377E-04
5.452756E+03	1.293419E-02	4.079105E-04
5.462598E+03	1.284546E-02	4.040928E-04
5.472441E+03	1.274725E-02	3.999923E-04
5.482283E+03	1.263984E-02	3.956202E-04
5.492126E+03	1.252349E-02	3.909863E-04
5.501969E+03	1.239894E-02	3.861156E-04
5.511811E+03	1.226678E-02	3.810282E-04
5.521654E+03	1.212760E-02	3.757440E-04
5.531496E+03	1.198221E-02	3.702903E-04
5.541339E+03	1.183168E-02	3.647006E-04
5.551181E+03	1.167703E-02	3.590079E-04
5.561024E+03	1.151948E-02	3.532510E-04
5.570866E+03	1.136000E-02	3.474594E-04
5.580709E+03	1.120004E-02	3.416788E-04
5.590551E+03	1.104088E-02	3.359477E-04
5.600394E+03	1.088367E-02	3.303014E-04
5.610236E+03	1.072979E-02	3.247811E-04
5.620079E+03	1.058035E-02	3.194200E-04
5.629921E+03	1.043675E-02	3.142587E-04
5.639764E+03	1.029985E-02	3.093226E-04
5.649606E+03	1.017086E-02	3.046465E-04
5.659449E+03	1.005048E-02	3.002490E-04
5.669291E+03	9.939663E-03	2.961575E-04
5.679134E+03	9.839061E-03	2.923889E-04
5.688976E+03	9.748975E-03	2.889503E-04
5.698819E+03	9.669961E-03	2.858559E-04
5.708661E+03	9.602242E-03	2.831100E-04
5.718504E+03	9.545687E-03	2.807066E-04
5.728346E+03	9.500422E-03	2.786470E-04
5.738189E+03	9.466218E-03	2.769224E-04
5.748031E+03	9.442632E-03	2.755180E-04
5.757874E+03	9.429169E-03	2.744172E-04
5.767717E+03	9.425293E-03	2.736028E-04
5.777559E+03	9.430172E-03	2.730493E-04
5.787402E+03	9.443034E-03	2.727328E-04
5.797244E+03	9.462833E-03	2.726223E-04
5.807087E+03	9.488525E-03	2.726868E-04
5.816929E+03	9.518889E-03	2.728911E-04
5.826772E+03	9.552953E-03	2.732069E-04
5.836614E+03	9.589429E-03	2.735977E-04
5.846457E+03	9.627102E-03	2.740293E-04
5.856299E+03	9.664702E-03	2.744662E-04
5.866142E+03	9.701185E-03	2.748800E-04
5.875984E+03	9.735401E-03	2.752392E-04
5.885827E+03	9.766393E-03	2.755182E-04
5.895669E+03	9.793353E-03	2.756961E-04
5.905512E+03	9.815615E-03	2.757557E-04
5.915354E+03	9.832610E-03	2.756831E-04
5.925197E+03	9.844040E-03	2.754717E-04
5.935039E+03	9.849836E-03	2.751214E-04
5.944882E+03	9.850119E-03	2.746377E-04
5.954724E+03	9.845032E-03	2.740262E-04
5.964567E+03	9.835297E-03	2.733088E-04
5.974409E+03	9.821427E-03	2.725011E-04
5.984252E+03	9.804392E-03	2.716315E-04
5.994094E+03	9.784987E-03	2.707232E-04
6.003937E+03	9.764320E-03	2.698080E-04
6.013780E+03	9.743556E-03	2.689189E-04
6.023622E+03	9.723902E-03	2.680899E-04
6.033465E+03	9.706367E-03	2.673497E-04
6.043307E+03	9.692115E-03	2.667309E-04
6.053150E+03	9.682045E-03	2.662587E-04
6.062992E+03	9.677035E-03	2.659579E-04
6.072835E+03	9.677727E-03	2.658468E-04
6.082677E+03	9.684458E-03	2.659352E-04
6.092520E+03	9.697840E-03	2.662406E-04
6.102362E+03	9.718380E-03	2.667777E-04
6.112205E+03	9.745906E-03	2.675422E-04
6.122047E+03	9.779996E-03	2.685225E-04
6.131890E+03	9.820209E-03	2.697057E-04
6.141732E+03	9.865506E-03	2.710629E-04
6.151575E+03	9.915420E-03	2.725806E-04
6.161417E+03	9.969534E-03	2.742468E-04
6.171260E+03	1.002754E-02	2.760527E-04
6.181102E+03	1.008887E-02	2.779822E-04
6.190945E+03	1.015298E-02	2.800197E-04
6.200787E+03	1.021935E-02	2.821505E-04
6.210630E+03	1.028737E-02	2.843571E-04
6.220472E+03	1.035606E-02	2.866120E-04
6.230315E+03	1.042480E-02	2.888969E-04
6.240157E+03	1.049262E-02	2.911846E-04
6.250000E+03	1.055876E-02	2.934525E-04
6.259843E+03	1.062211E-02	2.956690E-04
6.269685E+03	1.068216E-02	2.978187E-04
6.279528E+03	1.073780E-02	2.998687E-04
6.289370E+03	1.078851E-02	3.018031E-04
6.299213E+03	1.083351E-02	3.035986E-04
6.309055E+03	1.087215E-02	3.052346E-04
6.318898E+03	1.090418E-02	3.067024E-04
6.328740E+03	1.092903E-02	3.079835E-04
6.338583E+03	1.094656E-02	3.090716E-04
6.348425E+03	1.095638E-02	3.099539E-04
6.358268E+03	1.095868E-02	3.106327E-04
6.368110E+03	1.095325E-02	3.111003E-04
6.377953E+03	1.094021E-02	3.113572E-04
6.387795E+03	1.091973E-02	3.114059E-04
6.397638E+03	1.089203E-02	3.112504E-04
6.407480E+03	1.085726E-02	3.108926E-04
6.417323E+03	1.081582E-02	3.103416E-04
6.427165E+03	1.076800E-02	3.096038E-04
6.437008E+03	1.071423E-02	3.086897E-04
6.446850E+03	1.065493E-02	3.076090E-04
6.456693E+03	1.059039E-02	3.063685E-04
6.466535E+03	1.052100E-02	3.049777E-04
6.476378E+03	1.044702E-02	3.034423E-04
6.486220E+03	1.036879E-02	3.017710E-04
6.496063E+03	1.028652E-02	2.999688E-04
6.505906E+03	1.020065E-02	2.980466E-04
6.515748E+03	1.011122E-02	2.960047E-04
6.525591E+03	1.001849E-02	2.938499E-04
6.535433E+03	9.922605E-03	2.915852E-04
6.545276E+03	9.823798E-03	2.892165E-04
6.555118E+03	9.722179E-03	2.867464E-04
6.564961E+03	9.617970E-03	2.841807E-04
6.574803E+03	9.511275E-03	2.815218E-04
6.584646E+03	9.402104E-03	2.787695E-04
6.594488E+03	9.290796E-03	2.759334E-04
6.604331E+03	9.177492E-03	2.730173E-04
6.614173E+03	9.062352E-03	2.700256E-04
6.624016E+03	8.945564E-03	2.669638E-04
6.633858E+03	8.827355E-03	2.638384E-04
6.643701E+03	8.708078E-03	2.606600E-04
6.653543E+03	8.588017E-03	2.574371E-04
6.663386E+03	8.467407E-03	2.541768E-04
6.673228E+03	8.346818E-03	2.508966E-04
6.683071E+03	8.226549E-03	2.476055E-04
6.692913E+03	8.107150E-03	2.443206E-04
6.702756E+03	7.988900E-03	2.410507E-04
6.712598E+03	7.872584E-03	2.378200E-04
6.722441E+03	7.758551E-03	2.346396E-04
6.732283E+03	7.647436E-03	2.315294E-04
6.742126E+03	7.539792E-03	2.285067E-04
6.751969E+03	7.436185E-03	2.255896E-04
6.761811E+03	7.337163E-03	2.227953E-04
6.771654E+03	7.243369E-03	2.201443E-04
6.781496E+03	7.155162E-03	2.176482E-04
6.791339E+03	7.073132E-03	2.153259E-04
6.801181E+03	6.997859E-03	2.131959E-04
6.811024E+03	6.929708E-03	2.112701E-04
6.820866E+03	6.869181E-03	2.095646E-04
6.830709E+03	6.816490E-03	2.080868E-04
6.840551E+03	6.772142E-03	2.068528E-04
6.850394E+03	6.736431E-03	2.058724E-04
6.860236E+03	6.709447E-03	2.051490E-04
6.870079E+03	6.691549E-03	2.046943E-04
6.879921E+03	6.682897E-03	2.045137E-04
6.889764E+03	6.683425E-03	2.046058E-04
6.899606E+03	6.693348E-03	2.049776E-04
6.909449E+03	6.712582E-03	2.056271E-04
6.919291E+03	6.741157E-03	2.065555E-04
6.929134E+03	6.778790E-03	2.077546E-04
6.938976E+03	6.825474E-03	2.092243E-04
6.948819E+03	6.880911E-03	2.109560E-04
6.958661E+03	6.944819E-03	2.129411E-04
6.968504E+03	7.016858E-03	2.151694E-04
6.978346E+03	7.096655E-03	2.176296E-04
6.988189E+03	7.183691E-03	2.203061E-04
6.998031E+03	7.277572E-03	2.231868E-04
7.007874E+03	7.377791E-03	2.262564E-04
7.017717E+03	7.483809E-03	2.294985E-04
7.027559E+03	7.594954E-03	2.328926E-04
7.037402E+03	7.710729E-03	2.364238E-04
7.047244E+03	7.830428E-03	2.400706E-04
7.057087E+03	7.953425E-03	2.438139E-04
7.066929E+03	8.079098E-03	2.476351E-04
7.076772E+03	8.206811E-03	2.515150E-04
7.086614E+03	8.335930E-03	2.554345E-04
7.096457E+03	8.465705E-03	2.593712E-04
7.106299E+03	8.595609E-03	2.633093E-04
7.116142E+03	8.724886E-03	2.672263E-04
7.125984E+03	8.852992E-03	2.711060E-04
7.135827E+03	8.979034E-03	2.749219E-04
7.145669E+03	9.102551E-03	2.786606E-04
7.155512E+03	9.222484E-03	2.822903E-04
7.165354E+03	9.338327E-03	2.857965E-04
7.175197E+03	9.449315E-03	2.891568E-04
7.185039E+03	9.554269E-03	2.923358E-04
7.194882E+03	9.652716E-03	2.953202E-04
7.204724E+03	9.743402E-03	2.980726E-04
7.214567E+03	9.825554E-03	3.005704E-04
7.224409E+03	9.898108E-03	3.027821E-04
7.234252E+03	9.960129E-03	3.046800E-04
7.244094E+03	1.001042E-02	3.062288E-04
7.253937E+03	1.004820E-02	3.074053E-04
7.263780E+03	1.007246E-02	3.081795E-04
7.273622E+03	1.008212E-02	3.085196E-04
7.283465E+03	1.007645E-02	3.084036E-04
7.293307E+03	1.005485E-02	3.078136E-04
7.303150E+03	1.001654E-02	3.067267E-04
7.312992E+03	9.961203E-03	3.051331E-04
7.322835E+03	9.888668E-03	3.030276E-04
7.332677E+03	9.799074E-03	3.004146E-04
7.342520E+03	9.692510E-03	2.972963E-04
7.352362E+03	9.569750E-03	2.936960E-04
7.362205E+03	9.431145E-03	2.896237E-04
7.372047E+03	9.277861E-03	2.851143E-04
7.381890E+03	9.110779E-03	2.801930E-04
7.391732E+03	8.931345E-03	2.749022E-04
7.401575E+03	8.740869E-03	2.692798E-04
7.411417E+03	8.541126E-03	2.633785E-04
7.421260E+03	8.334135E-03	2.572581E-04
7.431102E+03	8.122677E-03	2.510026E-04
7.440945E+03	7.909390E-03	2.446916E-04
7.450787E+03	7.697307E-03	2.384173E-04
7.460630E+03	7.488954E-03	2.322564E-04
7.470472E+03	7.286820E-03	2.262848E-04
7.480315E+03	7.092976E-03	2.205661E-04
7.490157E+03	6.909171E-03	2.151543E-04
7.500000E+03	6.736827E-03	2.100936E-04
7.509843E+03	6.577029E-03	2.054181E-04
7.519685E+03	6.430595E-03	2.011540E-04
7.529528E+03	6.297870E-03	1.973129E-04
7.539370E+03	6.178778E-03	1.938934E-04
7.549213E+03	6.073062E-03	1.908887E-04
7.559055E+03	5.980485E-03	1.882924E-04
7.568898E+03	5.900446E-03	1.860869E-04
7.578740E+03	5.832277E-03	1.842525E-04
7.588583E+03	5.775414E-03	1.827726E-04
7.598425E+03	5.729182E-03	1.816270E-04
7.608268E+03	5.692965E-03	1.807975E-04
7.618110E+03	5.665907E-03	1.802578E-04
7.627953E+03	5.647352E-03	1.799884E-04
7.637795E+03	5.636649E-03	1.799692E-04
